CSV File for the Network on Day 287
1 - Minute m 
2 - Power Consumed at minute m 
3 - Power Produced at minute m 
4 - Energy Consumed since the beginning of the day 
5 - Energy Produced since the beginning of the day 
6 - Energy Lost since the beginning of the day 
 
No Production city : 2, Producer : 1
No Production city : 4, Producer : 1
No Production city : 4, Producer : 1
 
0 ; 51188.775851862476 ; 208387.76272324048 ; 0.0 ; 0.0 ; 0.0
1 ; 52135.66938621086 ; 208033.7642205387 ; 51188.775851862476 ; 208387.76272324048 ; 238.00000000000003
2 ; 53578.84034478029 ; 207716.20039147724 ; 103324.44523807333 ; 416421.5269437792 ; 476.00000000000006
3 ; 54613.30194059391 ; 207435.3429262427 ; 156903.28558285363 ; 624137.7273352564 ; 714.0000000000001
4 ; 55792.193570516494 ; 207191.43411849442 ; 211516.58752344752 ; 831573.0702614991 ; 952.0000000000001
5 ; 57251.33548961357 ; 206984.68593065793 ; 267308.781093964 ; 1038764.5043799935 ; 1190.0000000000002
6 ; 58214.88542305882 ; 206815.2791655313 ; 324560.1165835776 ; 1245749.1903106514 ; 1428.0000000000002
7 ; 59467.91086325985 ; 206683.3627517523 ; 382775.0020066364 ; 1452564.4694761827 ; 1666.0000000000002
8 ; 60139.00807936724 ; 206589.0531497427 ; 442242.9128698963 ; 1659247.832227935 ; 1904.0000000000002
9 ; 61592.15338786223 ; 206532.43388369816 ; 502381.9209492635 ; 1865836.8853776779 ; 2142.0000000000005
10 ; 62743.39094402578 ; 206513.5552040609 ; 563974.0743371258 ; 2072369.319261376 ; 2380.0000000000005
11 ; 63847.1512879428 ; 206532.43388369816 ; 626717.4652811516 ; 2278882.874465437 ; 2618.0000000000005
12 ; 64992.016984037444 ; 206589.0531497427 ; 690564.6165690944 ; 2485415.3083491353 ; 2856.0000000000005
13 ; 65863.94621434658 ; 206683.3627517523 ; 755556.6335531318 ; 2692004.361498878 ; 3094.0000000000005
14 ; 67061.36640528352 ; 206815.27916553122 ; 821420.5797674784 ; 2898687.72425063 ; 3332.0000000000005
15 ; 67767.31483803841 ; 206984.68593065793 ; 888481.946172762 ; 3105503.003416161 ; 3570.0000000000005
16 ; 68972.74989064639 ; 207191.43411849442 ; 956249.2610108004 ; 3312487.689346819 ; 3808.0000000000005
17 ; 69694.96158091104 ; 207435.3429262427 ; 1025222.0109014468 ; 3519679.1234653136 ; 4046.0000000000005
18 ; 71122.9257680378 ; 207716.2003914773 ; 1094916.9724823579 ; 3727114.4663915564 ; 4284.000000000001
19 ; 71941.70350032125 ; 208033.7642205387 ; 1166039.8982503957 ; 3934830.666783034 ; 4522.000000000001
20 ; 72282.64045605436 ; 208387.76272324054 ; 1237981.601750717 ; 4142864.4310035724 ; 4760.000000000001
21 ; 73989.9761349231 ; 208777.8958455301 ; 1310264.2422067714 ; 4351252.193726813 ; 4998.000000000001
22 ; 74786.27937933538 ; 209203.83629106104 ; 1384254.2183416944 ; 4560030.089572344 ; 5236.000000000001
23 ; 75777.13552667847 ; 209665.2307220975 ; 1459040.49772103 ; 4769233.925863405 ; 5474.000000000001
24 ; 76656.20206987968 ; 210161.70102976332 ; 1534817.6332477084 ; 4978899.156585502 ; 5712.000000000001
25 ; 77314.85075797586 ; 210692.84566339667 ; 1611473.8353175882 ; 5189060.857615266 ; 5950.000000000001
26 ; 78873.75928642345 ; 211258.241008647 ; 1688788.686075564 ; 5399753.703278663 ; 6188.000000000001
27 ; 79614.42703697448 ; 211857.44280396777 ; 1767662.4453619875 ; 5611011.944287309 ; 6426.000000000001
28 ; 80170.03518602552 ; 212489.98758529738 ; 1847276.872398962 ; 5822869.387091277 ; 6664.000000000001
29 ; 80740.28687983783 ; 213155.3941489792 ; 1927446.9075849876 ; 6035359.374676575 ; 6902.000000000001
30 ; 81487.63021043646 ; 213853.16502332976 ; 2008187.1944648253 ; 6248514.768825554 ; 7140.000000000001
31 ; 82778.63189870883 ; 214582.78793972163 ; 2089674.8246752617 ; 6462367.933848884 ; 7378.000000000001
32 ; 83212.16025169626 ; 215343.7372945749 ; 2172453.4565739706 ; 6676950.721788606 ; 7616.000000000001
33 ; 84559.01978852843 ; 216135.47559424976 ; 2255665.6168256667 ; 6892294.459083181 ; 7854.000000000001
34 ; 85019.56009382325 ; 216957.4548754789 ; 2340224.636614195 ; 7108429.93467743 ; 8092.000000000001
35 ; 85811.41022209995 ; 217809.11809466008 ; 2425244.1967080184 ; 7325387.389552909 ; 8330.000000000002
36 ; 86105.38407143616 ; 218689.90048003686 ; 2511055.6069301185 ; 7543196.507647569 ; 8568.000000000002
37 ; 87237.14079434045 ; 219599.2308415115 ; 2597160.9910015548 ; 7761886.408127606 ; 8806.000000000002
38 ; 87657.428313874 ; 220536.5328335534 ; 2684398.1317958953 ; 7981485.638969118 ; 9044.000000000002
39 ; 88149.4014644584 ; 221501.22616737004 ; 2772055.5601097695 ; 8202022.171802672 ; 9282.000000000002
40 ; 89456.45326707652 ; 222492.7277691959 ; 2860204.961574228 ; 8423523.397970041 ; 9520.000000000002
41 ; 89787.41908655874 ; 223510.45288221608 ; 2949661.4148413045 ; 8646016.125739237 ; 9758.000000000002
42 ; 90065.11437672985 ; 224553.81611026384 ; 3039448.8339278633 ; 8869526.578621453 ; 9996.000000000002
43 ; 90825.48987761055 ; 225622.23240202406 ; 3129513.948304593 ; 9094080.394731717 ; 10234.000000000002
44 ; 92201.61685966283 ; 226715.11797501578 ; 3220339.4381822036 ; 9319702.627133742 ; 10472.000000000002
45 ; 92247.66867891865 ; 227831.8911791309 ; 3312541.0550418664 ; 9546417.745108757 ; 10710.000000000002
46 ; 92613.88059819849 ; 228971.97329995772 ; 3404788.723720785 ; 9774249.636287889 ; 10948.000000000002
47 ; 93461.83729023386 ; 230134.78930252677 ; 3497402.604318984 ; 1.0003221609587846E7 ; 11186.000000000002
48 ; 93912.33572405895 ; 231319.76851647408 ; 3590864.441609218 ; 1.0233356398890372E7 ; 11424.000000000002
49 ; 94503.14399481262 ; 232526.345263932 ; 3684776.777333277 ; 1.0464676167406846E7 ; 11662.000000000002
50 ; 94717.30655464325 ; 233753.9594317269 ; 3779279.921328089 ; 1.0697202512670778E7 ; 11900.000000000002
51 ; 95790.26976709237 ; 235002.05698968715 ; 3873997.2278827326 ; 1.0930956472102504E7 ; 12138.000000000002
52 ; 95736.41127166107 ; 236270.0904570537 ; 3969787.497649825 ; 1.116595852909219E7 ; 12376.000000000002
53 ; 96349.60477431116 ; 237557.5193191315 ; 4065523.908921486 ; 1.1402228619549245E7 ; 12614.000000000002
54 ; 96364.34960413436 ; 238863.81039643486 ; 4161873.5136957974 ; 1.1639786138868377E7 ; 12852.000000000002
55 ; 97429.49061914478 ; 240188.4381686611 ; 4258237.863299931 ; 1.1878649949264811E7 ; 13090.000000000002
56 ; 97841.03250747224 ; 241530.8850558815 ; 4355667.353919076 ; 1.2118838387433473E7 ; 13328.000000000002
57 ; 98170.04755936799 ; 242890.64165936137 ; 4453508.3864265485 ; 1.2360369272489354E7 ; 13566.000000000002
58 ; 98520.75056710665 ; 244267.20696443145 ; 4551678.433985917 ; 1.2603259914148716E7 ; 13804.000000000002
59 ; 98935.88897570923 ; 245660.08850781227 ; 4650199.184553023 ; 1.2847527121113148E7 ; 14042.000000000002
60 ; 99367.70962926367 ; 247068.8025117626 ; 4749135.073528733 ; 1.309318720962096E7 ; 14280.000000000002
61 ; 99771.38882757984 ; 248492.87398737433 ; 4848502.783157997 ; 1.3340256012132723E7 ; 14518.000000000002
62 ; 99981.96504874981 ; 249931.8368092766 ; 4948274.171985577 ; 1.3588748886120098E7 ; 14756.000000000002
63 ; 100770.99282315871 ; 251385.2337639415 ; 5048256.137034327 ; 1.3838680722929373E7 ; 14994.000000000002
64 ; 101092.66598954177 ; 252852.6165737045 ; 5149027.129857485 ; 1.4090065956693314E7 ; 15232.000000000002
65 ; 100954.30929209183 ; 254333.54589852842 ; 5250119.795847027 ; 1.4342918573267018E7 ; 15470.000000000002
66 ; 101236.71780965192 ; 255827.5913174513 ; 5351074.105139119 ; 1.4597252119165547E7 ; 15708.000000000002
67 ; 101774.35901451975 ; 257334.33129156157 ; 5452310.822948771 ; 1.4853079710482998E7 ; 15946.000000000002
68 ; 101423.558066917 ; 258853.3531102549 ; 5554085.18196329 ; 1.511041404177456E7 ; 16184.000000000002
69 ; 101933.54668495472 ; 260384.2528224252 ; 5655508.740030207 ; 1.5369267394884815E7 ; 16422.000000000004
70 ; 102122.62219012168 ; 261926.63515415174 ; 5757442.286715161 ; 1.562965164770724E7 ; 16660.000000000004
71 ; 102797.22170054066 ; 263480.11341434513 ; 5859564.908905283 ; 1.5891578282861393E7 ; 16898.000000000004
72 ; 102902.4732702732 ; 265044.3093897245 ; 5962362.130605823 ; 1.6155058396275738E7 ; 17136.000000000004
73 ; 102924.41914503205 ; 266618.85323040636 ; 6065264.603876096 ; 1.6420102705665464E7 ; 17374.000000000004
74 ; 103503.10980135917 ; 268203.3833272959 ; 6168189.023021128 ; 1.668672155889587E7 ; 17612.000000000004
75 ; 103192.43823848583 ; 269797.5461823884 ; 6271692.1328224875 ; 1.6954924942223165E7 ; 17850.000000000004
76 ; 103187.77535905676 ; 271400.99627300363 ; 6374884.571060973 ; 1.722472248840555E7 ; 18088.000000000004
77 ; 103460.46850099805 ; 273013.39591089915 ; 6478072.34642003 ; 1.7496123484678555E7 ; 18326.000000000004
78 ; 103370.82359815601 ; 274634.41509713355 ; 6581532.814921028 ; 1.7769136880589455E7 ; 18564.000000000004
79 ; 103601.95413972996 ; 276263.73137347685 ; 6684903.638519184 ; 1.8043771295686588E7 ; 18802.000000000004
80 ; 104147.37162701187 ; 277901.0296711029 ; 6788505.592658914 ; 1.8320035027060065E7 ; 19040.000000000004
81 ; 103798.39055505977 ; 279546.0021572276 ; 6892652.964285926 ; 1.859793605673117E7 ; 19278.000000000004
82 ; 104495.87249552515 ; 281198.3480803049 ; 6996451.3548409855 ; 1.8877482058888394E7 ; 19516.000000000004
83 ; 104088.99929902965 ; 282857.7736143293 ; 7100947.227336511 ; 1.9158680406968698E7 ; 19754.000000000004
84 ; 104263.13130565238 ; 284523.99170274485 ; 7205036.226635541 ; 1.9441538180583026E7 ; 19992.000000000004
85 ; 103765.54967606324 ; 286196.721902412 ; 7309299.3579411935 ; 1.9726062172285773E7 ; 20230.000000000004
86 ; 104106.15022254211 ; 287875.6902280325 ; 7413064.907617257 ; 2.0012258894188184E7 ; 20468.000000000004
87 ; 103869.39011695741 ; 289560.62899739854 ; 7517171.057839799 ; 2.0300134584416218E7 ; 20706.000000000004
88 ; 104114.65978735549 ; 291251.2766777839 ; 7621040.447956756 ; 2.058969521341362E7 ; 20944.000000000004
89 ; 104055.03402800945 ; 292947.37773376534 ; 7725155.107744112 ; 2.0880946490091402E7 ; 21182.000000000004
90 ; 103965.72195756261 ; 294648.6824767244 ; 7829210.141772121 ; 2.117389386782517E7 ; 21420.000000000004
91 ; 103803.68058111152 ; 296354.9469162509 ; 7933175.863729684 ; 2.1468542550301895E7 ; 21658.000000000004
92 ; 103085.1353967985 ; 298065.93261364027 ; 8036979.544310795 ; 2.1764897497218147E7 ; 21896.000000000004
93 ; 103565.60606141746 ; 299781.4065376503 ; 8140064.679707593 ; 2.2062963429831788E7 ; 22134.000000000004
94 ; 103612.03664829339 ; 301501.1409226598 ; 8243630.285769011 ; 2.236274483636944E7 ; 22372.000000000004
95 ; 103557.18388765826 ; 303224.91312934767 ; 8347242.322417304 ; 2.2664245977292098E7 ; 22610.000000000004
96 ; 103019.00577770064 ; 304952.5055079953 ; 8450799.506304963 ; 2.2967470890421446E7 ; 22848.000000000004
97 ; 103208.86740233781 ; 306683.7052644909 ; 8553818.512082662 ; 2.327242339592944E7 ; 23086.000000000004
98 ; 102846.80275927366 ; 308418.3043291039 ; 8657027.379485 ; 2.357910710119393E7 ; 23324.000000000004
99 ; 102676.69831322086 ; 310156.09922807734 ; 8759874.182244273 ; 2.3887525405523036E7 ; 23562.000000000004
100 ; 102492.86526587956 ; 311896.89095807826 ; 8862550.880557494 ; 2.4197681504751112E7 ; 23800.000000000004
101 ; 102314.4543230661 ; 313640.4848635283 ; 8965043.745823374 ; 2.450957839570919E7 ; 24038.000000000004
102 ; 102213.73339086026 ; 315386.6905168299 ; 9067358.20014644 ; 2.4823218880572718E7 ; 24276.000000000004
103 ; 101306.03752403354 ; 317135.32160149206 ; 9169571.9335373 ; 2.5138605571089547E7 ; 24514.000000000004
104 ; 101587.22633560837 ; 318886.195798151 ; 9270877.971061334 ; 2.545574089269104E7 ; 24752.000000000004
105 ; 100740.91999477195 ; 320639.13467347407 ; 9372465.197396941 ; 2.577462708848919E7 ; 24990.000000000004
106 ; 100664.53623955137 ; 322393.9635719267 ; 9473206.117391713 ; 2.6095266223162662E7 ; 25228.000000000004
107 ; 100948.6383557214 ; 324150.5115103793 ; 9573870.653631264 ; 2.641766018673459E7 ; 25466.000000000004
108 ; 100346.78821290519 ; 325908.6110755213 ; 9674819.291986985 ; 2.674181069824497E7 ; 25704.000000000004
109 ; 99668.3180952761 ; 327668.09832404886 ; 9775166.08019989 ; 2.706771930932049E7 ; 25942.000000000004
110 ; 99325.01953574705 ; 329428.8126855873 ; 9874834.398295166 ; 2.739538740764454E7 ; 26180.000000000004
111 ; 99235.5947911659 ; 331190.5968683054 ; 9974159.417830912 ; 2.7724816220330127E7 ; 26418.000000000004
112 ; 98588.55604298406 ; 332953.2967671755 ; 1.0073395012622079E7 ; 2.8056006817198433E7 ; 26656.000000000004
113 ; 98511.41909761359 ; 334716.76137483306 ; 1.0171983568665063E7 ; 2.838896011396561E7 ; 26894.000000000004
114 ; 97914.21069060249 ; 336480.8426949846 ; 1.0270494987762677E7 ; 2.872367687534044E7 ; 27132.000000000004
115 ; 97436.23211268632 ; 338245.3956583131 ; 1.036840919845328E7 ; 2.9060157718035422E7 ; 27370.000000000004
116 ; 96688.54288955822 ; 340010.2780408277 ; 1.0465845430565966E7 ; 2.9398403113693736E7 ; 27608.000000000004
117 ; 96795.72749509502 ; 341775.35038460424 ; 1.0562533973455524E7 ; 2.9738413391734563E7 ; 27846.000000000004
118 ; 96409.08710261437 ; 343540.47592086083 ; 1.0659329700950619E7 ; 3.0080188742119167E7 ; 28084.000000000004
119 ; 95627.68775310826 ; 345305.5204953157 ; 1.0755738788053233E7 ; 3.0423729218040027E7 ; 28322.000000000004
120 ; 95302.30915694602 ; 347070.3524957693 ; 1.085136647580634E7 ; 3.076903473853534E7 ; 28560.000000000004
121 ; 94566.8966447995 ; 348834.84278185625 ; 1.0946668784963287E7 ; 3.111610509103111E7 ; 28798.000000000004
122 ; 94004.50285416933 ; 350598.86461691366 ; 1.1041235681608086E7 ; 3.146493993381297E7 ; 29036.000000000004
123 ; 93549.58961582946 ; 352362.29360190674 ; 1.1135240184462255E7 ; 3.181553879842988E7 ; 29274.000000000004
124 ; 93298.97241817787 ; 354125.0076113612 ; 1.1228789774078084E7 ; 3.2167901092031788E7 ; 29512.000000000004
125 ; 92736.646961133 ; 355886.88673124515 ; 1.1322088746496262E7 ; 3.252202609964315E7 ; 29750.000000000004
126 ; 91323.21474846402 ; 357647.8131987485 ; 1.1414825393457394E7 ; 3.2877912986374393E7 ; 29988.000000000004
127 ; 91328.8095924117 ; 359407.67134390696 ; 1.1506148608205859E7 ; 3.3235560799573142E7 ; 30226.000000000004
128 ; 90625.78632469308 ; 361166.3475330178 ; 1.159747741779827E7 ; 3.3594968470917046E7 ; 30464.000000000004
129 ; 89953.83165883398 ; 362923.7301137968 ; 1.1688103204122962E7 ; 3.395613481845006E7 ; 30702.000000000004
130 ; 88957.15776207656 ; 364679.7093622255 ; 1.1778057035781797E7 ; 3.431905854856386E7 ; 30940.000000000004
131 ; 88184.94963042061 ; 366434.1774310403 ; 1.1867014193543874E7 ; 3.4683738257926084E7 ; 31178.000000000004
132 ; 87808.29548595789 ; 368187.02829981374 ; 1.1955199143174294E7 ; 3.505017243535712E7 ; 31416.000000000004
133 ; 86696.38532166864 ; 369938.1577265821 ; 1.2043007438660253E7 ; 3.541835946365694E7 ; 31654.000000000004
134 ; 86555.51901080881 ; 371687.46320097113 ; 1.2129703823981922E7 ; 3.578829762138352E7 ; 31892.000000000004
135 ; 85482.28104442652 ; 373434.84389877674 ; 1.221625934299273E7 ; 3.615998508458449E7 ; 32130.000000000004
136 ; 84731.05132830101 ; 375180.20063795475 ; 1.2301741624037158E7 ; 3.653341992848326E7 ; 32368.000000000004
137 ; 84340.18972771234 ; 376923.43583597743 ; 1.238647267536546E7 ; 3.6908600129121214E7 ; 32606.000000000004
138 ; 83270.68967151847 ; 378664.4534685147 ; 1.2470812865093172E7 ; 3.7285523564957194E7 ; 32844.00000000001
139 ; 82315.68838974876 ; 380403.1590293995 ; 1.255408355476469E7 ; 3.766418801842571E7 ; 33082.00000000001
140 ; 82034.90668540451 ; 382139.4594918356 ; 1.2636399243154438E7 ; 3.804459117745511E7 ; 33320.00000000001
141 ; 80933.73097013231 ; 383873.26327081193 ; 1.2718434149839843E7 ; 3.842673063694695E7 ; 33558.00000000001
142 ; 80270.97140723531 ; 385604.4801866836 ; 1.2799367880809976E7 ; 3.881060390021776E7 ; 33796.00000000001
143 ; 79160.713092133 ; 387333.0214298835 ; 1.287963885221721E7 ; 3.919620838040444E7 ; 34034.00000000001
144 ; 78777.00675503355 ; 389058.7995267293 ; 1.2958799565309344E7 ; 3.9583541401834324E7 ; 34272.00000000001
145 ; 78215.60853417558 ; 390781.7283062904 ; 1.3037576572064377E7 ; 3.997260020136105E7 ; 34510.00000000001
146 ; 78475.02704224721 ; 392501.7228682826 ; 1.3115792180598553E7 ; 4.0363381929667346E7 ; 34748.00000000001
147 ; 78393.86551976844 ; 394218.69955195585 ; 1.31942672076408E7 ; 4.075588365253563E7 ; 34986.00000000001
148 ; 77737.76396678343 ; 395932.5759059464 ; 1.3272661073160568E7 ; 4.115010235208759E7 ; 35224.00000000001
149 ; 78141.21095125594 ; 397643.270659059 ; 1.3350398837127352E7 ; 4.1546034927993536E7 ; 35462.00000000001
150 ; 77304.7091798776 ; 399350.7036919528 ; 1.3428540048078608E7 ; 4.1943678198652595E7 ; 35700.00000000001
151 ; 77117.80429768801 ; 401054.79600970057 ; 1.3505844757258486E7 ; 4.234302890234455E7 ; 35938.00000000001
152 ; 77355.47903080507 ; 402755.4697151926 ; 1.3582962561556173E7 ; 4.2744083698354244E7 ; 36176.00000000001
153 ; 76631.63214624125 ; 404452.64798336016 ; 1.3660318040586978E7 ; 4.314683916806944E7 ; 36414.00000000001
154 ; 76455.57155631878 ; 406146.2550361905 ; 1.373694967273322E7 ; 4.3551291816052794E7 ; 36652.00000000001
155 ; 76068.68472061711 ; 407836.21611850907 ; 1.3813405244289538E7 ; 4.3957438071088985E7 ; 36890.00000000001
156 ; 76045.9957090148 ; 409522.4574745043 ; 1.3889473929010155E7 ; 4.436527428720749E7 ; 37128.00000000001
157 ; 75489.61403534692 ; 411204.90632497024 ; 1.396551992471917E7 ; 4.4774796744682E7 ; 37366.00000000001
158 ; 74966.94767009687 ; 412883.49084524537 ; 1.4041009538754517E7 ; 4.518600165100697E7 ; 37604.00000000001
159 ; 74764.30499113812 ; 414558.14014382445 ; 1.4115976486424614E7 ; 4.5598885141852215E7 ; 37842.00000000001
160 ; 74659.29834107164 ; 416228.78424162173 ; 1.4190740791415751E7 ; 4.601344328199604E7 ; 38080.00000000001
161 ; 74587.60517167258 ; 417895.35405186546 ; 1.4265400089756822E7 ; 4.6429672066237666E7 ; 38318.00000000001
162 ; 74322.07442929367 ; 419557.78136060236 ; 1.4339987694928495E7 ; 4.684756742028953E7 ; 38556.00000000001
163 ; 73926.07748547521 ; 421215.9988077939 ; 1.441430976935779E7 ; 4.7267125201650135E7 ; 38794.00000000001
164 ; 73565.7730349955 ; 422869.93986898405 ; 1.4488235846843265E7 ; 4.768834120045793E7 ; 39032.00000000001
165 ; 73241.41032893729 ; 424519.5388375211 ; 1.456180161987826E7 ; 4.811121114032692E7 ; 39270.00000000001
166 ; 73345.23393207927 ; 426164.73080731643 ; 1.4635043030207198E7 ; 4.853573067916444E7 ; 39508.00000000001
167 ; 72789.53610584146 ; 427805.45165612095 ; 1.4708388264139278E7 ; 4.896189540997176E7 ; 39746.00000000001
168 ; 72700.37461669311 ; 429441.63802930556 ; 1.478117780024512E7 ; 4.938970086162788E7 ; 39984.00000000001
169 ; 72027.57771107052 ; 431073.2273241272 ; 1.4853878174861813E7 ; 4.9819142499657184E7 ; 40222.00000000001
170 ; 71379.92531926968 ; 432700.15767446643 ; 1.4925905752572883E7 ; 5.025021572698131E7 ; 40460.00000000001
171 ; 71412.67721074594 ; 434322.36793602153 ; 1.4997285677892152E7 ; 5.068291588465578E7 ; 40698.00000000001
172 ; 71234.66752644865 ; 435939.79767194367 ; 1.5068698355102899E7 ; 5.11172382525918E7 ; 40936.00000000001
173 ; 70996.05762569945 ; 437552.3871388998 ; 1.5139933022629347E7 ; 5.155317805026375E7 ; 41174.00000000001
174 ; 70764.30870075512 ; 439160.077273551 ; 1.5210929080255046E7 ; 5.199073043740265E7 ; 41412.00000000001
175 ; 71286.3792206847 ; 440762.8096794303 ; 1.5281693388955802E7 ; 5.24298905146762E7 ; 41650.00000000001
176 ; 71336.4188075039 ; 442360.5266142101 ; 1.5352979768176487E7 ; 5.287065332435563E7 ; 41888.00000000001
177 ; 71192.43826978211 ; 443953.1709773455 ; 1.5424316186983991E7 ; 5.331301385096984E7 ; 42126.00000000001
178 ; 71346.07892165608 ; 445540.6862980826 ; 1.5495508625253774E7 ; 5.375696702194719E7 ; 42364.00000000001
179 ; 71718.74787599586 ; 447123.01672381925 ; 1.556685470417543E7 ; 5.420250770824527E7 ; 42602.00000000001
180 ; 71351.35988306078 ; 448700.10700880823 ; 1.5638573452051425E7 ; 5.464963072496909E7 ; 42840.00000000001
181 ; 71592.62623190638 ; 450271.9025031918 ; 1.5709924811934486E7 ; 5.50983308319779E7 ; 43078.00000000001
