CSV File for the Network on Day 240
1 - Minute m 
2 - Power Consumed at minute m 
3 - Power Produced at minute m 
4 - Energy Consumed since the beginning of the day 
5 - Energy Produced since the beginning of the day 
6 - Energy Lost since the beginning of the day 
 
No Production city : 2, Producer : 1
No Production city : 4, Producer : 1
No Production city : 4, Producer : 1
 
0 ; 30063.496523593996 ; 97766.04616182836 ; 0.0 ; 0.0 ; 0.0
1 ; 31840.981887311864 ; 97101.14957594303 ; 30063.496523593996 ; 97766.04616182836 ; 238.00000000000003
2 ; 33328.278420685776 ; 96492.86580240657 ; 61904.47841090586 ; 194867.1957377714 ; 476.00000000000006
3 ; 34922.38628877437 ; 95944.96472377799 ; 95232.75683159163 ; 291360.06154017797 ; 714.0000000000001
4 ; 36748.08111412679 ; 95461.12856525855 ; 130155.143120366 ; 387305.026263956 ; 952.0000000000001
5 ; 38417.04361342462 ; 95044.85769965076 ; 166903.2242344928 ; 482766.15482921456 ; 1190.0000000000002
6 ; 40208.22014902451 ; 94699.36727486478 ; 205320.26784791742 ; 577811.0125288654 ; 1428.0000000000002
7 ; 41575.356171539315 ; 94427.48000578542 ; 245528.48799694193 ; 672510.3798037302 ; 1666.0000000000002
8 ; 42925.03797766103 ; 94231.52211246375 ; 287103.84416848124 ; 766937.8598095155 ; 1904.0000000000002
9 ; 44140.67967787055 ; 94113.23042228264 ; 330028.88214614225 ; 861169.3819219792 ; 2142.0000000000005
10 ; 46387.914105873024 ; 94073.67873085545 ; 374169.5618240128 ; 955282.6123442618 ; 2380.0000000000005
11 ; 47630.74528166804 ; 94113.23042228264 ; 420557.4759298858 ; 1049356.2910751172 ; 2618.0000000000005
12 ; 48965.51104096045 ; 94231.52211246375 ; 468188.22121155384 ; 1143469.5214973998 ; 2856.0000000000005
13 ; 50431.80465042668 ; 94427.48000578542 ; 517153.7322525143 ; 1237701.0436098636 ; 3094.0000000000005
14 ; 51871.77740225973 ; 94699.36727486462 ; 567585.536902941 ; 1332128.523615649 ; 3332.0000000000005
15 ; 53103.953542400326 ; 95044.85769965076 ; 619457.3143052007 ; 1426827.8908905135 ; 3570.0000000000005
16 ; 55081.89924190866 ; 95461.12856525855 ; 672561.2678476011 ; 1521872.7485901644 ; 3808.0000000000005
17 ; 56185.862667738955 ; 95944.96472377784 ; 727643.1670895098 ; 1617333.877155423 ; 4046.0000000000005
18 ; 57193.98550277346 ; 96492.86580240673 ; 783829.0297572487 ; 1713278.8418792007 ; 4284.000000000001
19 ; 58981.59582847112 ; 97101.14957594287 ; 841023.0152600221 ; 1809771.7076816075 ; 4522.000000000001
20 ; 60236.36121097102 ; 97766.0461618285 ; 900004.6110884933 ; 1906872.8572575503 ; 4760.000000000001
21 ; 61020.88962890128 ; 98483.77955992798 ; 960240.9722994643 ; 2004638.903419379 ; 4998.000000000001
22 ; 62672.457139998616 ; 99250.63483012619 ; 1021261.8619283655 ; 2103122.6829793067 ; 5236.000000000001
23 ; 64340.48180878101 ; 100063.01067151852 ; 1083934.319068364 ; 2202373.3178094327 ; 5474.000000000001
24 ; 65653.6930156 ; 100917.45824431027 ; 1148274.800877145 ; 2302436.3284809515 ; 5712.000000000001
25 ; 66131.8071423296 ; 101810.70775735697 ; 1213928.493892745 ; 2403353.7867252617 ; 5950.000000000001
26 ; 67405.17155190313 ; 102739.68468564052 ; 1280060.3010350747 ; 2505164.4944826188 ; 6188.000000000001
27 ; 68587.03109605945 ; 103701.51756377412 ; 1347465.4725869778 ; 2607904.1791682593 ; 6426.000000000001
28 ; 69945.8703688201 ; 104693.53920728754 ; 1416052.5036830371 ; 2711605.6967320335 ; 6664.000000000001
29 ; 71143.61698779857 ; 105713.28301539872 ; 1485998.3740518573 ; 2816299.235939321 ; 6902.000000000001
30 ; 72033.84001374722 ; 106758.47576299898 ; 1557141.9910396559 ; 2922012.51895472 ; 7140.000000000001
31 ; 73433.02462040997 ; 107827.0280343949 ; 1629175.8310534032 ; 3028770.994717719 ; 7378.000000000001
32 ; 74473.56746090886 ; 108917.02321103626 ; 1702608.8556738133 ; 3136598.022752114 ; 7616.000000000001
33 ; 75618.50489779575 ; 110026.70571293117 ; 1777082.423134722 ; 3245515.0459631504 ; 7854.000000000001
34 ; 76752.22602817582 ; 111154.46901382075 ; 1852700.928032518 ; 3355541.7516760817 ; 8092.000000000001
35 ; 77418.52341641448 ; 112298.84380360707 ; 1929453.1540606937 ; 3466696.2206899025 ; 8330.000000000002
36 ; 78606.46304285747 ; 113458.48655536323 ; 2006871.677477108 ; 3578995.0644935095 ; 8568.000000000002
37 ; 79857.37035527901 ; 114632.16866451627 ; 2085478.1405199654 ; 3692453.5510488725 ; 8806.000000000002
38 ; 81323.85728097468 ; 115818.7662601122 ; 2165335.5108752446 ; 3807085.719713389 ; 9044.000000000002
39 ; 81533.95907019346 ; 117017.25073824372 ; 2246659.3681562194 ; 3922904.485973501 ; 9282.000000000002
40 ; 82193.33913282768 ; 118226.68003197965 ; 2328193.327226413 ; 4039921.7367117447 ; 9520.000000000002
41 ; 82804.59188809234 ; 119446.19060729118 ; 2410386.6663592407 ; 4158148.416743724 ; 9758.000000000002
42 ; 84331.72108284214 ; 120674.99015787417 ; 2493191.258247333 ; 4277594.607351015 ; 9996.000000000002
43 ; 85302.63664845633 ; 121912.35096132309 ; 2577522.979330175 ; 4398269.59750889 ; 10234.000000000002
44 ; 86224.80271853771 ; 123157.60385315253 ; 2662825.615978631 ; 4520181.9484702125 ; 10472.000000000002
45 ; 87096.02312800044 ; 124410.132772421 ; 2749050.418697169 ; 4643339.552323365 ; 10710.000000000002
46 ; 87578.62079943548 ; 125669.36983220598 ; 2836146.4418251696 ; 4767749.685095785 ; 10948.000000000002
47 ; 88965.20475593006 ; 126934.7908692037 ; 2923725.062624605 ; 4893419.054927991 ; 11186.000000000002
48 ; 89421.7445308009 ; 128205.9114287207 ; 3012690.267380535 ; 5020353.845797194 ; 11424.000000000002
49 ; 90281.68157247978 ; 129482.28314392865 ; 3102112.011911336 ; 5148559.757225915 ; 11662.000000000002
50 ; 90699.47313341909 ; 130763.49047116324 ; 3192393.6934838155 ; 5278042.040369843 ; 11900.000000000002
51 ; 91612.40269271113 ; 132049.1477460893 ; 3283093.1666172347 ; 5408805.530841006 ; 12138.000000000002
52 ; 92535.59675556468 ; 133338.89652858124 ; 3374705.5693099457 ; 5540854.678587095 ; 12376.000000000002
53 ; 93041.62134463704 ; 134632.4032071012 ; 3467241.1660655104 ; 5674193.575115676 ; 12614.000000000002
54 ; 93459.26207458267 ; 135929.3568361358 ; 3560282.7874101475 ; 5808825.978322777 ; 12852.000000000002
55 ; 94443.07570555036 ; 137229.46718284927 ; 3653742.04948473 ; 5944755.335158912 ; 13090.000000000002
56 ; 94833.41685644933 ; 138532.46296151064 ; 3748185.1251902804 ; 6081984.802341762 ; 13328.000000000002
57 ; 95569.71910121042 ; 139838.09023644362 ; 3843018.5420467295 ; 6220517.265303273 ; 13566.000000000002
58 ; 95977.45813871142 ; 141146.1109762502 ; 3938588.26114794 ; 6360355.355539717 ; 13804.000000000002
59 ; 96727.619271677 ; 142456.3017438624 ; 4034565.7192866514 ; 6501501.466515967 ; 14042.000000000002
60 ; 97445.86834890077 ; 143768.4525086056 ; 4131293.3385583283 ; 6643957.768259829 ; 14280.000000000002
61 ; 97712.96680000244 ; 145082.3655679196 ; 4228739.2069072295 ; 6787726.220768435 ; 14518.000000000002
62 ; 98514.70616699602 ; 146397.85456769523 ; 4326452.173707232 ; 6932808.586336355 ; 14756.000000000002
63 ; 98547.550686087 ; 147714.74361135386 ; 4424966.879874228 ; 7079206.44090405 ; 14994.000000000002
64 ; 98921.58017969134 ; 149032.86644884653 ; 4523514.430560315 ; 7226921.184515404 ; 15232.000000000002
65 ; 99443.18027608554 ; 150352.06573768216 ; 4622436.010740006 ; 7375954.05096425 ; 15470.000000000002
66 ; 100254.82494746023 ; 151672.19236892596 ; 4721879.191016092 ; 7526306.116701933 ; 15708.000000000002
67 ; 100512.44215560882 ; 152993.104851852 ; 4822134.0159635525 ; 7677978.309070858 ; 15946.000000000002
68 ; 100538.96730242464 ; 154314.66875159479 ; 4922646.458119161 ; 7830971.41392271 ; 16184.000000000002
69 ; 101212.49619258715 ; 155636.7561747311 ; 5023185.425421586 ; 7985286.082674305 ; 16422.000000000004
70 ; 101377.52866998242 ; 156959.24529825107 ; 5124397.921614174 ; 8140922.838849036 ; 16660.000000000004
71 ; 101649.55123950932 ; 158282.01993784 ; 5225775.450284156 ; 8297882.0841472875 ; 16898.000000000004
72 ; 102424.71855730606 ; 159604.96915181336 ; 5327425.001523665 ; 8456164.104085127 ; 17136.000000000004
73 ; 102875.33833564553 ; 160927.98687741446 ; 5429849.720080971 ; 8615769.07323694 ; 17374.000000000004
74 ; 102629.20203748709 ; 162250.9715965187 ; 5532725.058416616 ; 8776697.060114356 ; 17612.000000000004
75 ; 102913.72508084479 ; 163573.8260280804 ; 5635354.260454103 ; 8938948.031710874 ; 17850.000000000004
76 ; 103307.93957001578 ; 164896.4568449258 ; 5738267.985534948 ; 9102521.857738955 ; 18088.000000000004
77 ; 104174.76911284422 ; 166218.77441272794 ; 5841575.9251049645 ; 9267418.31458388 ; 18326.000000000004
78 ; 103520.56287717489 ; 167540.69254921397 ; 5945750.694217809 ; 9433637.08899661 ; 18564.000000000004
79 ; 103835.73922777722 ; 168862.12830183972 ; 6049271.257094983 ; 9601177.781545823 ; 18802.000000000004
80 ; 104230.17555878384 ; 170183.00174233995 ; 6153106.99632276 ; 9770039.909847664 ; 19040.000000000004
81 ; 104052.33617710277 ; 171503.23577671064 ; 6257337.171881544 ; 9940222.911590004 ; 19278.000000000004
82 ; 104726.11348588105 ; 172822.75596931862 ; 6361389.508058648 ; 1.0111726147366716E7 ; 19516.000000000004
83 ; 104424.48434792494 ; 174141.4903799528 ; 6466115.621544529 ; 1.0284548903336035E7 ; 19754.000000000004
84 ; 104898.75257148697 ; 175459.36941274424 ; 6570540.105892453 ; 1.0458690393715987E7 ; 19992.000000000004
85 ; 104606.29124779627 ; 176776.3256759783 ; 6675438.85846394 ; 1.0634149763128731E7 ; 20230.000000000004
86 ; 104874.66451300218 ; 178092.2938519128 ; 6780045.1497117365 ; 1.0810926088804709E7 ; 20468.000000000004
87 ; 104875.18623814802 ; 179407.2105757947 ; 6884919.814224739 ; 1.098901838265662E7 ; 20706.000000000004
88 ; 104643.53047066017 ; 180721.01432334087 ; 6989795.000462887 ; 1.1168425593232416E7 ; 20944.000000000004
89 ; 104921.73333315039 ; 182033.64530601425 ; 7094438.530933547 ; 1.1349146607555756E7 ; 21182.000000000004
90 ; 104967.72954733207 ; 183345.04537348295 ; 7199360.264266698 ; 1.153118025286177E7 ; 21420.000000000004
91 ; 104622.07432771615 ; 184655.15792270654 ; 7304327.99381403 ; 1.1714525298235252E7 ; 21658.000000000004
92 ; 104691.41120793592 ; 185963.927813139 ; 7408950.068141746 ; 1.1899180456157958E7 ; 21896.000000000004
93 ; 104555.0378682715 ; 187271.3012875831 ; 7513641.479349682 ; 1.2085144383971097E7 ; 22134.000000000004
94 ; 104782.6971453741 ; 188577.22589826933 ; 7618196.517217954 ; 1.2272415685258681E7 ; 22372.000000000004
95 ; 104378.02161093814 ; 189881.65043776963 ; 7722979.214363328 ; 1.246099291115695E7 ; 22610.000000000004
96 ; 104056.00773720241 ; 191184.52487438722 ; 7827357.235974266 ; 1.265087456159472E7 ; 22848.000000000004
97 ; 104276.27635600527 ; 192485.8002916948 ; 7931413.243711469 ; 1.2842059086469108E7 ; 23086.000000000004
98 ; 103613.36828200464 ; 193785.42883191854 ; 8035689.520067474 ; 1.3034544886760803E7 ; 23324.000000000004
99 ; 103821.86752638321 ; 195083.3636428925 ; 8139302.888349478 ; 1.3228330315592721E7 ; 23562.000000000004
100 ; 103455.07337509803 ; 196379.5588283268 ; 8243124.755875861 ; 1.3423413679235613E7 ; 23800.000000000004
101 ; 103334.96235584783 ; 197673.96940115665 ; 8346579.82925096 ; 1.3619793238063939E7 ; 24038.000000000004
102 ; 102878.00085897566 ; 198966.55123975515 ; 8449914.791606808 ; 1.3817467207465095E7 ; 24276.000000000004
103 ; 102792.05679001611 ; 200257.2610468119 ; 8552792.792465784 ; 1.401643375870485E7 ; 24514.000000000004
104 ; 102259.3696183881 ; 201546.0563106928 ; 8655584.8492558 ; 1.4216691019751662E7 ; 24752.000000000004
105 ; 102050.04139934166 ; 202832.8952691125 ; 8757844.218874188 ; 1.4418237076062355E7 ; 24990.000000000004
106 ; 101983.93392237014 ; 204117.7368749628 ; 8859894.26027353 ; 1.4621069971331468E7 ; 25228.000000000004
107 ; 101425.45737989112 ; 205400.54076415222 ; 8961878.1941959 ; 1.482518770820643E7 ; 25466.000000000004
108 ; 101286.90940905982 ; 206681.26722532307 ; 9063303.65157579 ; 1.5030588248970583E7 ; 25704.000000000004
109 ; 101108.57073929267 ; 207959.87717132233 ; 9164590.56098485 ; 1.5237269516195906E7 ; 25942.000000000004
110 ; 100419.38406723374 ; 209236.33211231165 ; 9265699.131724143 ; 1.5445229393367229E7 ; 26180.000000000004
111 ; 100076.93722781866 ; 210510.59413041035 ; 9366118.515791377 ; 1.5654465725479541E7 ; 26418.000000000004
112 ; 99807.68068703744 ; 211782.62585577258 ; 9466195.453019196 ; 1.5864976319609951E7 ; 26656.000000000004
113 ; 99085.69519663628 ; 213052.39044400764 ; 9566003.133706234 ; 1.6076758945465723E7 ; 26894.000000000004
114 ; 98533.31807243347 ; 214319.85155485818 ; 9665088.82890287 ; 1.628981133590973E7 ; 27132.000000000004
115 ; 98536.78820803529 ; 215584.97333205765 ; 9763622.146975303 ; 1.6504131187464587E7 ; 27370.000000000004
116 ; 97289.2182635023 ; 216847.72038429382 ; 9862158.935183339 ; 1.6719716160796644E7 ; 27608.000000000004
117 ; 97109.09898905433 ; 218108.0577672098 ; 9959448.153446842 ; 1.693656388118094E7 ; 27846.000000000004
118 ; 96605.29478274332 ; 219365.95096637923 ; 1.0056557252435897E7 ; 1.7154671938948147E7 ; 28084.000000000004
119 ; 95834.17198671402 ; 220621.3658811966 ; 1.015316254721864E7 ; 1.7374037889914528E7 ; 28322.000000000004
120 ; 95553.24967688684 ; 221874.2688096277 ; 1.0248996719205353E7 ; 1.7594659255795725E7 ; 28560.000000000004
121 ; 95072.52085285763 ; 223124.62643376846 ; 1.034454996888224E7 ; 1.7816533524605352E7 ; 28798.000000000004
122 ; 93929.49136883025 ; 224372.40580616464 ; 1.0439622489735099E7 ; 1.803965815103912E7 ; 29036.000000000004
123 ; 93612.6586658446 ; 225617.5743368474 ; 1.0533551981103929E7 ; 1.8264030556845285E7 ; 29274.000000000004
124 ; 93006.18268036802 ; 226860.09978104316 ; 1.0627164639769774E7 ; 1.8489648131182134E7 ; 29512.000000000004
125 ; 91950.33054729237 ; 228099.95022751848 ; 1.0720170822450142E7 ; 1.8716508230963178E7 ; 29750.000000000004
126 ; 91377.31140480776 ; 229337.09408752373 ; 1.0812121152997434E7 ; 1.8944608181190696E7 ; 29988.000000000004
127 ; 90510.16005609583 ; 230571.50008430093 ; 1.0903498464402242E7 ; 1.9173945275278218E7 ; 30226.000000000004
128 ; 89795.45251452223 ; 231803.1372431249 ; 1.0994008624458337E7 ; 1.9404516775362518E7 ; 30464.000000000004
129 ; 89297.22993520097 ; 233031.97488184602 ; 1.1083804076972859E7 ; 1.9636319912605643E7 ; 30702.000000000004
130 ; 88351.91445587472 ; 234257.9826019083 ; 1.117310130690806E7 ; 1.986935188748749E7 ; 30940.000000000004
131 ; 88002.59158024874 ; 235481.13027981573 ; 1.1261453221363934E7 ; 2.0103609870089397E7 ; 31178.000000000004
132 ; 86802.94462415151 ; 236701.38805902188 ; 1.1349455812944183E7 ; 2.0339091000369214E7 ; 31416.000000000004
133 ; 85427.7573398749 ; 237918.72634222047 ; 1.1436258757568335E7 ; 2.0575792388428234E7 ; 31654.000000000004
134 ; 84778.02009191555 ; 239133.11578401452 ; 1.152168651490821E7 ; 2.0813711114770453E7 ; 31892.000000000004
135 ; 84116.61252686952 ; 240344.5272839444 ; 1.1606464535000125E7 ; 2.105284423055447E7 ; 32130.000000000004
136 ; 83169.16776630364 ; 241552.9319798545 ; 1.1690581147526994E7 ; 2.1293188757838413E7 ; 32368.000000000004
137 ; 82200.19309054641 ; 242758.30124158188 ; 1.1773750315293297E7 ; 2.1534741689818267E7 ; 32606.000000000004
138 ; 81199.55050914458 ; 243960.60666494898 ; 1.1855950508383844E7 ; 2.1777499991059847E7 ; 32844.00000000001
139 ; 80824.70513899962 ; 245159.82006604492 ; 1.193715005889299E7 ; 2.2021460597724795E7 ; 33082.00000000001
140 ; 79400.08165492462 ; 246355.91347578028 ; 1.201797476403199E7 ; 2.226662041779084E7 ; 33320.00000000001
141 ; 77970.30777449856 ; 247548.859134701 ; 1.2097374845686914E7 ; 2.2512976331266623E7 ; 33558.00000000001
142 ; 77520.3029609112 ; 248738.6294880487 ; 1.2175345153461413E7 ; 2.2760525190401323E7 ; 33796.00000000001
143 ; 76420.94666508038 ; 249925.19718105445 ; 1.2252865456422325E7 ; 2.300926381988937E7 ; 34034.00000000001
144 ; 75074.00311629889 ; 251108.53505445397 ; 1.2329286403087405E7 ; 2.3259189017070424E7 ; 34272.00000000001
145 ; 74810.48527914894 ; 252288.6161402138 ; 1.2404360406203704E7 ; 2.3510297552124877E7 ; 34510.00000000001
146 ; 74776.34000322182 ; 253465.4136574572 ; 1.2479170891482852E7 ; 2.376258616826509E7 ; 34748.00000000001
147 ; 74347.37291033014 ; 254638.90100858023 ; 1.2553947231486075E7 ; 2.4016051581922546E7 ; 34986.00000000001
148 ; 74150.55405101218 ; 255809.051775549 ; 1.2628294604396405E7 ; 2.4270690482931126E7 ; 35224.00000000001
149 ; 74046.36505994067 ; 256975.839716368 ; 1.2702445158447416E7 ; 2.4526499534706675E7 ; 35462.00000000001
150 ; 73842.41889469154 ; 258139.23876171268 ; 1.2776491523507357E7 ; 2.4783475374423042E7 ; 35700.00000000001
151 ; 73778.02846953551 ; 259299.22301171732 ; 1.2850333942402048E7 ; 2.5041614613184754E7 ; 35938.00000000001
152 ; 72984.76608927328 ; 260455.76673291097 ; 1.2924111970871583E7 ; 2.530091383619647E7 ; 36176.00000000001
153 ; 73109.87758875523 ; 261608.8443552945 ; 1.2997096736960856E7 ; 2.5561369602929384E7 ; 36414.00000000001
154 ; 72746.30373972272 ; 262758.43046955206 ; 1.307020661454961E7 ; 2.582297844728468E7 ; 36652.00000000001
155 ; 72355.65545076625 ; 263904.49982439034 ; 1.3142952918289334E7 ; 2.6085736877754234E7 ; 36890.00000000001
156 ; 72298.47359284818 ; 265047.02732399997 ; 1.32153085737401E7 ; 2.6349641377578624E7 ; 37128.00000000001
157 ; 72037.9402896487 ; 266185.9880256329 ; 1.3287607047332948E7 ; 2.6614688404902622E7 ; 37366.00000000001
158 ; 72357.45756163857 ; 267321.3571372912 ; 1.3359644987622596E7 ; 2.6880874392928254E7 ; 37604.00000000001
159 ; 71537.40878384226 ; 268453.11001552094 ; 1.3432002445184235E7 ; 2.7148195750065546E7 ; 37842.00000000001
160 ; 71390.17107627162 ; 269581.22216330736 ; 1.3503539853968076E7 ; 2.741664886008107E7 ; 38080.00000000001
161 ; 70590.06093906118 ; 270705.6692280661 ; 1.3574930025044348E7 ; 2.7686230082244378E7 ; 38318.00000000001
162 ; 70601.2779224638 ; 271826.426999727 ; 1.3645520085983409E7 ; 2.7956935751472443E7 ; 38556.00000000001
163 ; 70188.75742435841 ; 272943.47140890424 ; 1.3716121363905873E7 ; 2.822876217847217E7 ; 38794.00000000001
164 ; 69514.25949671649 ; 274056.7785251519 ; 1.3786310121330231E7 ; 2.8501705649881072E7 ; 39032.00000000001
165 ; 69731.77813130069 ; 275166.32455529843 ; 1.3855824380826948E7 ; 2.8775762428406224E7 ; 39270.00000000001
166 ; 68889.99867664638 ; 276272.08584185806 ; 1.3925556158958249E7 ; 2.9050928752961524E7 ; 39508.00000000001
167 ; 68694.88182504912 ; 277374.03886151547 ; 1.3994446157634895E7 ; 2.932720083880338E7 ; 39746.00000000001
168 ; 68571.62028698827 ; 278472.16022367997 ; 1.4063141039459944E7 ; 2.9604574877664898E7 ; 39984.00000000001
169 ; 67864.48989390943 ; 279566.42666910647 ; 1.4131712659746932E7 ; 2.988304703788858E7 ; 40222.00000000001
170 ; 67667.51594909994 ; 280656.815068581 ; 1.4199577149640841E7 ; 3.0162613464557685E7 ; 40460.00000000001
171 ; 67619.14043857859 ; 281743.3024216667 ; 1.4267244665589942E7 ; 3.0443270279626265E7 ; 40698.00000000001
172 ; 66491.65245268561 ; 282825.86585550854 ; 1.433486380602852E7 ; 3.072501358204793E7 ; 40936.00000000001
173 ; 66687.51323484536 ; 283904.4826236939 ; 1.4401355458481206E7 ; 3.100783944790344E7 ; 41174.00000000001
174 ; 66882.28731011064 ; 284979.1301051668 ; 1.446804297171605E7 ; 3.1291743930527132E7 ; 41412.00000000001
175 ; 67087.64345532072 ; 286049.78580319375 ; 1.453492525902616E7 ; 3.15767230606323E7 ; 41650.00000000001
176 ; 67442.64201252282 ; 287116.4273443781 ; 1.4602012902481481E7 ; 3.1862772846435495E7 ; 41888.00000000001
177 ; 67422.64874041679 ; 288179.03247772163 ; 1.4669455544494005E7 ; 3.2149889273779873E7 ; 42126.00000000001
178 ; 67689.07660163431 ; 289237.5790737317 ; 1.4736878193234421E7 ; 3.2438068306257594E7 ; 42364.00000000001
179 ; 67794.04155688867 ; 290292.0451235706 ; 1.4804567269836055E7 ; 3.2727305885331325E7 ; 42602.00000000001
180 ; 67931.07847295771 ; 291342.4087382474 ; 1.4872361311392944E7 ; 3.3017597930454895E7 ; 42840.00000000001
181 ; 68489.14413728021 ; 292388.6481478483 ; 1.4940292389865901E7 ; 3.3308940339193143E7 ; 43078.00000000001
182 ; 68647.63260016014 ; 293430.74170080596 ; 1.5008781534003181E7 ; 3.3601328987340994E7 ; 43316.00000000001
