CSV File for the Network on Day 319
1 - Minute m 
2 - Power Consumed at minute m 
3 - Power Produced at minute m 
4 - Energy Consumed since the beginning of the day 
5 - Energy Produced since the beginning of the day 
6 - Energy Lost since the beginning of the day 
 
No Production city : 2, Producer : 1
No Production city : 4, Producer : 1
No Production city : 4, Producer : 1
 
0 ; 61126.308291980946 ; 228534.70916635165 ; 0.0 ; 0.0 ; 0.0
1 ; 61745.95971859636 ; 228170.00429308534 ; 61126.308291980946 ; 228534.70916635165 ; 238.00000000000003
2 ; 63193.16585330002 ; 227842.88429822985 ; 122872.2680105773 ; 456704.713459437 ; 476.00000000000006
3 ; 63969.4931491053 ; 227553.61352275405 ; 186065.43386387732 ; 684547.5977576668 ; 714.0000000000001
4 ; 64523.95783989361 ; 227302.42755080128 ; 250034.9270129826 ; 912101.2112804209 ; 952.0000000000001
5 ; 65595.68839118717 ; 227089.53235531066 ; 314558.8848528762 ; 1139403.6388312222 ; 1190.0000000000002
6 ; 66549.78273228802 ; 226915.1035418568 ; 380154.57324406336 ; 1366493.1711865328 ; 1428.0000000000002
7 ; 67410.57618263189 ; 226779.28569719516 ; 446704.35597635136 ; 1593408.2747283897 ; 1666.0000000000002
8 ; 68637.77282469207 ; 226682.19184818392 ; 514114.93215898325 ; 1820187.560425585 ; 1904.0000000000002
9 ; 69488.55352856452 ; 226623.90303584986 ; 582752.7049836754 ; 2046869.752273769 ; 2142.0000000000005
10 ; 70040.27787100057 ; 226604.46800838815 ; 652241.2585122399 ; 2273493.655309619 ; 2380.0000000000005
11 ; 71017.03977691718 ; 226623.90303584986 ; 722281.5363832405 ; 2500098.123318007 ; 2618.0000000000005
12 ; 72259.95611059046 ; 226682.19184818392 ; 793298.5761601577 ; 2726722.026353857 ; 2856.0000000000005
13 ; 72755.91685385077 ; 226779.28569719516 ; 865558.5322707482 ; 2953404.218202041 ; 3094.0000000000005
14 ; 73683.95011551163 ; 226915.1035418568 ; 938314.4491245989 ; 3180183.503899236 ; 3332.0000000000005
15 ; 74037.55996468286 ; 227089.53235531066 ; 1011998.3992401105 ; 3407098.607441093 ; 3570.0000000000005
16 ; 74912.08651571602 ; 227302.42755080128 ; 1086035.9592047934 ; 3634188.1397964037 ; 3808.0000000000005
17 ; 76229.98250375659 ; 227553.613522754 ; 1160948.0457205095 ; 3861490.567347205 ; 4046.0000000000005
18 ; 77109.77568993226 ; 227842.88429822988 ; 1237178.0282242661 ; 4089044.180869959 ; 4284.000000000001
19 ; 77371.46853760302 ; 228170.00429308525 ; 1314287.8039141984 ; 4316887.065168189 ; 4522.000000000001
20 ; 78491.72691024368 ; 228534.7091663517 ; 1391659.2724518015 ; 4545057.069461274 ; 4760.000000000001
21 ; 79179.7985394959 ; 228936.7067656331 ; 1470150.9993620452 ; 4773591.778627626 ; 4998.000000000001
22 ; 80132.72606730062 ; 229375.67815571115 ; 1549330.797901541 ; 5002528.485393259 ; 5236.000000000001
23 ; 80728.4578881992 ; 229851.27872205063 ; 1629463.5239688416 ; 5231904.16354897 ; 5474.000000000001
24 ; 81170.62219987191 ; 230363.13934051903 ; 1710191.981857041 ; 5461755.44227102 ; 5712.000000000001
25 ; 82029.6897817819 ; 230910.86760437174 ; 1791362.6040569127 ; 5692118.581611539 ; 5950.000000000001
26 ; 82589.00139494945 ; 231494.04909940716 ; 1873392.2938386947 ; 5923029.449215911 ; 6188.000000000001
27 ; 83300.34271450658 ; 232112.24871816416 ; 1955981.295233644 ; 6154523.4983153185 ; 6426.000000000001
28 ; 83878.04222998199 ; 232765.01200410633 ; 2039281.6379481507 ; 6386635.747033482 ; 6664.000000000001
29 ; 84529.5538093989 ; 233451.86651691134 ; 2123159.680178133 ; 6619400.759037589 ; 6902.000000000001
30 ; 85394.27958387956 ; 234172.32321024817 ; 2207689.2339875316 ; 6852852.6255545 ; 7140.000000000001
31 ; 86001.55166321038 ; 234925.87781377128 ; 2293083.5135714114 ; 7087024.948764748 ; 7378.000000000001
32 ; 86696.82050139295 ; 235712.0122114777 ; 2379085.065234622 ; 7321950.826578519 ; 7616.000000000001
33 ; 86761.54251621183 ; 236530.19580904886 ; 2465781.885736015 ; 7557662.838789997 ; 7854.000000000001
34 ; 87449.09090944687 ; 237379.88688332707 ; 2552543.428252227 ; 7794193.034599045 ; 8092.000000000001
35 ; 88223.14507219268 ; 238260.53390763656 ; 2639992.519161674 ; 8031572.921482372 ; 8330.000000000002
36 ; 89041.27702688046 ; 239171.5768472515 ; 2728215.664233867 ; 8269833.455390009 ; 8568.000000000002
37 ; 89883.95592055947 ; 240112.4484199167 ; 2817256.9412607476 ; 8509005.032237262 ; 8806.000000000002
38 ; 90168.44922174248 ; 241082.57531694122 ; 2907140.897181307 ; 8749117.480657179 ; 9044.000000000002
39 ; 90600.76110287372 ; 242081.37938099488 ; 2997309.3464030493 ; 8990200.05597412 ; 9282.000000000002
40 ; 90907.86826759302 ; 243108.27873733526 ; 3087910.107505923 ; 9232281.435355116 ; 9520.000000000002
41 ; 91863.90910821012 ; 244162.68887577986 ; 3178817.975773516 ; 9475389.71409245 ; 9758.000000000002
42 ; 92233.03630767931 ; 245244.02368129193 ; 3270681.8848817265 ; 9719552.40296823 ; 9996.000000000002
43 ; 92524.00134538744 ; 246351.69641158567 ; 3362914.921189406 ; 9964796.426649522 ; 10234.000000000002
44 ; 93080.75202393444 ; 247485.12062064972 ; 3455438.9225347936 ; 1.0211148123061107E7 ; 10472.000000000002
45 ; 93682.41268722968 ; 248643.7110275579 ; 3548519.674558728 ; 1.0458633243681757E7 ; 10710.000000000002
46 ; 94467.81850182265 ; 249826.88433035807 ; 3642202.0872459575 ; 1.0707276954709314E7 ; 10948.000000000002
47 ; 94625.58432724274 ; 251034.05996522185 ; 3736669.90574778 ; 1.0957103839039672E7 ; 11186.000000000002
48 ; 95279.33823576075 ; 252264.66081138563 ; 3831295.490075023 ; 1.1208137899004893E7 ; 11424.000000000002
49 ; 95431.31763749063 ; 253518.11384272465 ; 3926574.8283107835 ; 1.1460402559816279E7 ; 11662.000000000002
50 ; 95864.33438556065 ; 254793.85072707504 ; 4022006.145948274 ; 1.1713920673659002E7 ; 11900.000000000002
51 ; 96371.59396021585 ; 256091.30837465133 ; 4117870.480333835 ; 1.1968714524386078E7 ; 12138.000000000002
52 ; 96612.53864801474 ; 257409.92943711072 ; 4214242.074294051 ; 1.2224805832760729E7 ; 12376.000000000002
53 ; 97271.82082695713 ; 258749.16275897756 ; 4310854.612942066 ; 1.248221576219784E7 ; 12614.000000000002
54 ; 97264.4389105613 ; 260108.46378327894 ; 4408126.433769023 ; 1.2740964924956817E7 ; 12852.000000000002
55 ; 97842.37486433629 ; 261487.29491334502 ; 4505390.872679585 ; 1.3001073388740096E7 ; 13090.000000000002
56 ; 98321.2446541296 ; 262885.1258328085 ; 4603233.247543921 ; 1.326256068365344E7 ; 13328.000000000002
57 ; 98519.55597075343 ; 264301.43378588854 ; 4701554.49219805 ; 1.352544580948625E7 ; 13566.000000000002
58 ; 98744.45439042097 ; 265735.70382007665 ; 4800074.048168804 ; 1.3789747243272139E7 ; 13804.000000000002
59 ; 98872.62196090358 ; 267187.42899335496 ; 4898818.502559224 ; 1.4055482947092215E7 ; 14042.000000000002
60 ; 99731.40898214573 ; 268656.1105480692 ; 4997691.124520128 ; 1.432267037608557E7 ; 14280.000000000002
61 ; 99764.24227234288 ; 270141.25805355754 ; 5097422.533502273 ; 1.459132648663364E7 ; 14518.000000000002
62 ; 99925.07367286812 ; 271642.38951960497 ; 5197186.775774616 ; 1.4861467744687198E7 ; 14756.000000000002
63 ; 100357.2367360493 ; 273159.031482741 ; 5297111.849447484 ; 1.5133110134206804E7 ; 14994.000000000002
64 ; 100038.67134621475 ; 274690.7190673507 ; 5397469.086183533 ; 1.5406269165689545E7 ; 15232.000000000002
65 ; 100351.11492448297 ; 276236.99602349993 ; 5497507.757529748 ; 1.5680959884756895E7 ; 15470.000000000002
66 ; 100679.85390641204 ; 277797.41474330955 ; 5597858.872454231 ; 1.5957196880780395E7 ; 15708.000000000002
67 ; 100931.95332614132 ; 279371.5362576399 ; 5698538.726360642 ; 1.6234994295523705E7 ; 15946.000000000002
68 ; 101704.96127190244 ; 280958.93021476746 ; 5799470.679686784 ; 1.6514365831781344E7 ; 16184.000000000002
69 ; 101866.66112778708 ; 282559.1748426572 ; 5901175.640958686 ; 1.6795324761996113E7 ; 16422.000000000004
70 ; 101343.22251154554 ; 284171.8568963532 ; 6003042.302086473 ; 1.707788393683877E7 ; 16660.000000000004
71 ; 101688.35142375877 ; 285796.5715919276 ; 6104385.524598019 ; 1.736205579373512E7 ; 16898.000000000004
72 ; 101802.88697775124 ; 287432.9225283458 ; 6206073.876021778 ; 1.764785236532705E7 ; 17136.000000000004
73 ; 102388.87204149607 ; 289080.52159852773 ; 6307876.762999529 ; 1.7935285287855394E7 ; 17374.000000000004
74 ; 102234.24655893838 ; 290738.98889080266 ; 6410265.6350410255 ; 1.8224365809453923E7 ; 17612.000000000004
75 ; 102599.29912025308 ; 292407.95258187974 ; 6512499.881599964 ; 1.8515104798344728E7 ; 17850.000000000004
76 ; 102413.81787499863 ; 294087.0488223789 ; 6615099.180720217 ; 1.8807512750926606E7 ; 18088.000000000004
77 ; 102249.06955976505 ; 295775.9216158978 ; 6717512.998595215 ; 1.9101599799748987E7 ; 18326.000000000004
78 ; 102621.04765091275 ; 297474.22269251576 ; 6819762.06815498 ; 1.9397375721364886E7 ; 18564.000000000004
79 ; 102578.2532400669 ; 299181.6113775717 ; 6922383.115805893 ; 1.96948499440574E7 ; 18802.000000000004
80 ; 102794.40229258382 ; 300897.75445648853 ; 7024961.36904596 ; 1.9994031555434972E7 ; 19040.000000000004
81 ; 103288.39308111642 ; 302622.32603635296 ; 7127755.771338544 ; 2.0294929309891462E7 ; 19278.000000000004
82 ; 103065.6306665835 ; 304355.00740490557 ; 7231044.16441966 ; 2.0597551635927815E7 ; 19516.000000000004
83 ; 102412.43634583779 ; 306095.4868875385 ; 7334109.795086244 ; 2.090190664333272E7 ; 19754.000000000004
84 ; 102895.6625047042 ; 307843.4597028455 ; 7436522.231432082 ; 2.1208002130220257E7 ; 19992.000000000004
85 ; 103101.99702139347 ; 309598.62781722454 ; 7539417.893936787 ; 2.1515845589923102E7 ; 20230.000000000004
86 ; 103008.43694335312 ; 311360.6997989829 ; 7642519.890958181 ; 2.1825444217740327E7 ; 20468.000000000004
87 ; 102528.43279994829 ; 313129.39067235426 ; 7745528.327901534 ; 2.213680491753931E7 ; 20706.000000000004
88 ; 102910.0446674546 ; 314904.42177179776 ; 7848056.760701482 ; 2.2449934308211666E7 ; 20944.000000000004
89 ; 102821.46772300283 ; 316685.5205969098 ; 7950966.805368937 ; 2.2764838729983464E7 ; 21182.000000000004
90 ; 102757.94783234119 ; 318472.4206682466 ; 8053788.273091939 ; 2.3081524250580374E7 ; 21420.000000000004
91 ; 102810.38731667276 ; 320264.861384322 ; 8156546.220924281 ; 2.3399996671248622E7 ; 21658.000000000004
92 ; 102541.8471787168 ; 322062.5878800166 ; 8259356.608240954 ; 2.3720261532632943E7 ; 21896.000000000004
93 ; 102346.60301678533 ; 323865.35088660516 ; 8361898.455419671 ; 2.404232412051296E7 ; 22134.000000000004
94 ; 102872.36408403955 ; 325672.90659358446 ; 8464245.058436455 ; 2.4366189471399564E7 ; 22372.000000000004
95 ; 102511.34074435031 ; 327485.0165124622 ; 8567117.422520494 ; 2.4691862377993148E7 ; 22610.000000000004
96 ; 102230.50331933633 ; 329301.4473426417 ; 8669628.763264844 ; 2.501934739450561E7 ; 22848.000000000004
97 ; 102461.25904593125 ; 331121.970839522 ; 8771859.26658418 ; 2.534864884184825E7 ; 23086.000000000004
98 ; 102135.65021403877 ; 332946.3636849131 ; 8874320.52563011 ; 2.5679770812687773E7 ; 23324.000000000004
99 ; 101538.9353144778 ; 334774.40735984704 ; 8976456.17584415 ; 2.6012717176372685E7 ; 23562.000000000004
100 ; 101416.49701332788 ; 336605.88801985624 ; 9077995.111158628 ; 2.634749158373253E7 ; 23800.000000000004
101 ; 101431.23690942043 ; 338440.59637277114 ; 9179411.608171957 ; 2.6684097471752387E7 ; 24038.000000000004
102 ; 101342.65519451779 ; 340278.32755907933 ; 9280842.845081378 ; 2.702253806812516E7 ; 24276.000000000004
103 ; 101071.66292773976 ; 342118.8810348777 ; 9382185.500275895 ; 2.736281639568424E7 ; 24514.000000000004
104 ; 100964.52036375564 ; 343962.0604574376 ; 9483257.163203634 ; 2.7704935276719116E7 ; 24752.000000000004
105 ; 100990.65047978079 ; 345807.6735733945 ; 9584221.68356739 ; 2.8048897337176554E7 ; 24990.000000000004
106 ; 100786.09559418491 ; 347655.5321095656 ; 9685212.33404717 ; 2.8394705010749947E7 ; 25228.000000000004
107 ; 100094.52854160355 ; 349505.45166639035 ; 9785998.429641355 ; 2.8742360542859513E7 ; 25466.000000000004
108 ; 99981.449254668 ; 351357.2516139842 ; 9886092.958182959 ; 2.9091865994525902E7 ; 25704.000000000004
109 ; 99290.6470845063 ; 353210.754990788 ; 9986074.407437626 ; 2.9443223246139888E7 ; 25942.000000000004
110 ; 99348.85917541062 ; 355065.7884047933 ; 1.0085365054522133E7 ; 2.9796434001130674E7 ; 26180.000000000004
111 ; 98887.35522065195 ; 356922.1819373138 ; 1.0184713913697543E7 ; 3.0151499789535467E7 ; 26418.000000000004
112 ; 98728.78188274872 ; 358779.7690492762 ; 1.0283601268918194E7 ; 3.050842197147278E7 ; 26656.000000000004
113 ; 98321.32668865912 ; 360638.38648999453 ; 1.0382330050800942E7 ; 3.0867201740522057E7 ; 26894.000000000004
114 ; 97761.38005339293 ; 362497.87420839217 ; 1.04806513774896E7 ; 3.122784012701205E7 ; 27132.000000000004
115 ; 97941.663471552 ; 364358.07526663184 ; 1.0578412757542994E7 ; 3.1590338001220442E7 ; 27370.000000000004
116 ; 97093.03878701737 ; 366218.83575611276 ; 1.0676354421014545E7 ; 3.1954696076487076E7 ; 27608.000000000004
117 ; 96576.17528818708 ; 368080.0047157901 ; 1.0773447459801562E7 ; 3.2320914912243187E7 ; 27846.000000000004
118 ; 96841.42277911415 ; 369941.4340527736 ; 1.087002363508975E7 ; 3.2688994916958977E7 ; 28084.000000000004
119 ; 96646.0107263877 ; 371802.9784651588 ; 1.0966865057868864E7 ; 3.305893635101175E7 ; 28322.000000000004
120 ; 96375.11089914215 ; 373664.4953670431 ; 1.1063511068595253E7 ; 3.3430739329476908E7 ; 28560.000000000004
121 ; 95744.52853338662 ; 375525.84481568023 ; 1.1159886179494396E7 ; 3.380440382484395E7 ; 28798.000000000004
122 ; 95367.63833682689 ; 377386.889440724 ; 1.1255630708027782E7 ; 3.417992966965963E7 ; 29036.000000000004
123 ; 94435.54615939462 ; 379247.4943755125 ; 1.1350998346364608E7 ; 3.455731655910035E7 ; 29274.000000000004
124 ; 94369.78534096635 ; 381107.52719034575 ; 1.1445433892524002E7 ; 3.4936564053475864E7 ; 29512.000000000004
125 ; 93920.5448975553 ; 382966.85782770644 ; 1.1539803677864969E7 ; 3.531767158066621E7 ; 29750.000000000004
126 ; 93644.12349620044 ; 384825.35853937553 ; 1.1633724222762523E7 ; 3.5700638438493915E7 ; 29988.000000000004
127 ; 93125.49429726816 ; 386682.9038253959 ; 1.1727368346258724E7 ; 3.608546379703329E7 ; 30226.000000000004
128 ; 91882.78133606394 ; 388539.370374834 ; 1.1820493840555992E7 ; 3.647214670085868E7 ; 30464.000000000004
129 ; 92160.02903178119 ; 390394.6370082942 ; 1.1912376621892055E7 ; 3.686068607123352E7 ; 30702.000000000004
130 ; 91594.57628720687 ; 392248.58462213684 ; 1.2004536650923837E7 ; 3.725108070824181E7 ; 30940.000000000004
131 ; 90670.55646412815 ; 394101.09613435686 ; 1.2096131227211043E7 ; 3.764332929286395E7 ; 31178.000000000004
132 ; 90366.30601293092 ; 395952.0564320734 ; 1.2186801783675171E7 ; 3.803743038899831E7 ; 31416.000000000004
133 ; 89605.65985064096 ; 397801.35232058953 ; 1.2277168089688102E7 ; 3.843338244543038E7 ; 31654.000000000004
134 ; 89064.79523215684 ; 399648.87247397524 ; 1.2366773749538742E7 ; 3.883118379775097E7 ; 31892.000000000004
135 ; 88339.38444662915 ; 401494.50738713174 ; 1.2455838544770898E7 ; 3.923083267022495E7 ; 32130.000000000004
136 ; 88604.8899569149 ; 403338.14932929544 ; 1.2544177929217527E7 ; 3.963232717761208E7 ; 32368.000000000004
137 ; 87513.5340644316 ; 405179.6922989372 ; 1.2632782819174442E7 ; 4.003566532694138E7 ; 32606.000000000004
138 ; 86660.78248293606 ; 407019.0319800203 ; 1.2720296353238873E7 ; 4.044084501924031E7 ; 32844.00000000001
139 ; 86087.50499319413 ; 408856.06569957436 ; 1.280695713572181E7 ; 4.0847864051220335E7 ; 33082.00000000001
140 ; 85441.11144377028 ; 410690.6923865473 ; 1.2893044640715005E7 ; 4.125672011691991E7 ; 33320.00000000001
141 ; 84302.21795378724 ; 412522.81253189774 ; 1.2978485752158776E7 ; 4.166741080930646E7 ; 33558.00000000001
142 ; 83544.30535969215 ; 414352.32814989093 ; 1.3062787970112564E7 ; 4.207993362183835E7 ; 33796.00000000001
143 ; 82944.42151548337 ; 416179.14274056215 ; 1.3146332275472255E7 ; 4.2494285949988246E7 ; 34034.00000000001
144 ; 82406.58484853516 ; 418003.1612533109 ; 1.3229276696987739E7 ; 4.291046509272881E7 ; 34272.00000000001
145 ; 82564.66676029131 ; 419824.2900515957 ; 1.3311683281836273E7 ; 4.332846825398212E7 ; 34510.00000000001
146 ; 82084.6170101874 ; 421642.4368786909 ; 1.3394247948596565E7 ; 4.374829254403371E7 ; 34748.00000000001
147 ; 81436.76019208659 ; 423457.5108244775 ; 1.3476332565606752E7 ; 4.41699349809124E7 ; 34986.00000000001
148 ; 81652.60962965366 ; 425269.4222932341 ; 1.355776932579884E7 ; 4.459339249173688E7 ; 35224.00000000001
149 ; 81844.73345724844 ; 427078.0829723989 ; 1.3639421935428493E7 ; 4.501866191403011E7 ; 35462.00000000001
150 ; 81205.98830369693 ; 428883.4058022707 ; 1.3721266668885741E7 ; 4.544573999700251E7 ; 35700.00000000001
151 ; 80993.62979765427 ; 430685.304946623 ; 1.3802472657189438E7 ; 4.5874623402804784E7 ; 35938.00000000001
152 ; 80770.7516834489 ; 432483.6957642006 ; 1.3883466286987092E7 ; 4.630530870775141E7 ; 36176.00000000001
153 ; 80482.41723849466 ; 434278.49478107266 ; 1.3964237038670542E7 ; 4.673779240351561E7 ; 36414.00000000001
154 ; 80216.8438516743 ; 436069.61966381554 ; 1.4044719455909036E7 ; 4.717207089829668E7 ; 36652.00000000001
155 ; 79303.1715874491 ; 437856.98919349984 ; 1.412493629976071E7 ; 4.760814051796049E7 ; 36890.00000000001
156 ; 79930.62517854408 ; 439640.5232404569 ; 1.4204239471348159E7 ; 4.804599750715399E7 ; 37128.00000000001
157 ; 78961.50120285287 ; 441420.1427397988 ; 1.4284170096526703E7 ; 4.848563803039444E7 ; 37366.00000000001
158 ; 78950.8479554396 ; 443195.76966767217 ; 1.4363131597729556E7 ; 4.892705817313424E7 ; 37604.00000000001
159 ; 78432.22854073373 ; 444967.3270182192 ; 1.4442082445684996E7 ; 4.937025394280191E7 ; 37842.00000000001
160 ; 78239.17466112455 ; 446734.73878122616 ; 1.4520514674225729E7 ; 4.9815221269820124E7 ; 38080.00000000001
161 ; 77901.30543450725 ; 448497.92992043734 ; 1.4598753848886853E7 ; 5.026195600860135E7 ; 38318.00000000001
162 ; 77694.410877674 ; 450256.8263525137 ; 1.467665515432136E7 ; 5.071045393852179E7 ; 38556.00000000001
163 ; 77506.08151419803 ; 452011.3549266165 ; 1.4754349565199034E7 ; 5.11607107648743E7 ; 38794.00000000001
164 ; 76971.23903134119 ; 453761.44340459624 ; 1.4831855646713233E7 ; 5.161272211980092E7 ; 39032.00000000001
165 ; 76593.82932829275 ; 455507.02044176817 ; 1.4908826885744574E7 ; 5.206648356320551E7 ; 39270.00000000001
166 ; 76755.24625904884 ; 457248.01556825585 ; 1.4985420715072867E7 ; 5.252199058364728E7 ; 39508.00000000001
167 ; 76135.68839715185 ; 458984.35917088605 ; 1.5062175961331915E7 ; 5.297923859921554E7 ; 39746.00000000001
168 ; 76018.81083307443 ; 460715.98247561714 ; 1.5138311649729067E7 ; 5.343822295838642E7 ; 39984.00000000001
169 ; 75711.76057877761 ; 462442.81753048365 ; 1.5214330460562142E7 ; 5.389893894086204E7 ; 40222.00000000001
170 ; 75248.36470738267 ; 464164.7971890433 ; 1.529004222114092E7 ; 5.436138175839252E7 ; 40460.00000000001
171 ; 74943.47893401147 ; 465881.8550943088 ; 1.5365290585848302E7 ; 5.482554655558156E7 ; 40698.00000000001
172 ; 74762.6558522176 ; 467593.9256631503 ; 1.5440234064782314E7 ; 5.529142841067587E7 ; 40936.00000000001
173 ; 74647.8238439193 ; 469300.94407115405 ; 1.5514996720634531E7 ; 5.575902233633902E7 ; 41174.00000000001
174 ; 74162.43241879767 ; 471002.8462379226 ; 1.558964454447845E7 ; 5.622832328041017E7 ; 41412.00000000001
175 ; 74319.00634156469 ; 472699.5688128038 ; 1.5663806976897247E7 ; 5.669932612664809E7 ; 41650.00000000001
176 ; 73966.09678999922 ; 473455.60523476446 ; 1.5738125983238813E7 ; 5.717202569546089E7 ; 41888.00000000001
177 ; 74462.25837313266 ; 473455.60523476446 ; 1.5812092080028811E7 ; 5.764548130069566E7 ; 42126.00000000001
178 ; 73964.42630499792 ; 473455.60523476446 ; 1.5886554338401943E7 ; 5.811893690593042E7 ; 42364.00000000001
179 ; 74498.33492252122 ; 473455.60523476446 ; 1.5960518764706941E7 ; 5.859239251116519E7 ; 42602.00000000001
180 ; 74444.36320956971 ; 473455.60523476446 ; 1.6035017099629462E7 ; 5.906584811639995E7 ; 42840.00000000001
181 ; 74662.97932062575 ; 473455.60523476446 ; 1.6109461462839032E7 ; 5.9539303721634716E7 ; 43078.00000000001
