CSV File for the Network on Day 195
1 - Minute m 
2 - Power Consumed at minute m 
3 - Power Produced at minute m 
4 - Energy Consumed since the beginning of the day 
5 - Energy Produced since the beginning of the day 
6 - Energy Lost since the beginning of the day 
 
No Production city : 2, Producer : 1
No Production city : 4, Producer : 1
No Production city : 4, Producer : 1
 
0 ; 29229.194584949684 ; 134709.40349760218 ; 0.0 ; 0.0 ; 0.0
1 ; 31305.83387510399 ; 134329.84249925983 ; 29229.194584949684 ; 134709.40349760218 ; 238.00000000000003
2 ; 32808.62915692565 ; 133988.29168859503 ; 60535.02846005367 ; 269039.245996862 ; 476.00000000000006
3 ; 34307.49485729257 ; 133685.37496198024 ; 93343.65761697933 ; 403027.53768545703 ; 714.0000000000001
4 ; 35965.9281300871 ; 133421.6565144119 ; 127651.15247427189 ; 536712.9126474373 ; 952.0000000000001
5 ; 37532.91810435747 ; 133197.63604734617 ; 163617.08060435898 ; 670134.5691618492 ; 1190.0000000000002
6 ; 39256.81429103785 ; 133013.7443944068 ; 201149.99870871645 ; 803332.2052091954 ; 1428.0000000000002
7 ; 40796.81067933222 ; 132870.3396512226 ; 240406.8129997543 ; 936345.9496036022 ; 1666.0000000000002
8 ; 41957.14557415192 ; 132767.70388864455 ; 281203.6236790865 ; 1069216.2892548249 ; 1904.0000000000002
9 ; 44075.133550297796 ; 132706.04051875984 ; 323160.76925323845 ; 1201983.9931434693 ; 2142.0000000000005
10 ; 45638.04246313145 ; 132685.4723707156 ; 367235.9028035363 ; 1334690.033662229 ; 2380.0000000000005
11 ; 46821.207609963385 ; 132706.04051875984 ; 412873.94526666775 ; 1467375.5060329447 ; 2618.0000000000005
12 ; 48579.65385008394 ; 132767.70388864455 ; 459695.1528766311 ; 1600081.5465517044 ; 2856.0000000000005
13 ; 49730.33034495216 ; 132870.3396512226 ; 508274.80672671506 ; 1732849.2504403489 ; 3094.0000000000005
14 ; 51055.96946155752 ; 133013.74439440673 ; 558005.1370716672 ; 1865719.5900915714 ; 3332.0000000000005
15 ; 52418.75890512246 ; 133197.63604734617 ; 609061.1065332248 ; 1998733.3344859781 ; 3570.0000000000005
16 ; 54134.265552511206 ; 133421.6565144119 ; 661479.8654383472 ; 2131930.9705333244 ; 3808.0000000000005
17 ; 55706.37573503865 ; 133685.37496198024 ; 715614.1309908584 ; 2265352.627047736 ; 4046.0000000000005
18 ; 56759.31912678323 ; 133988.29168859508 ; 771320.5067258971 ; 2399038.0020097164 ; 4284.000000000001
19 ; 58433.191880824845 ; 134329.84249925977 ; 828079.8258526803 ; 2533026.2936983113 ; 4522.000000000001
20 ; 59455.60896664576 ; 134709.40349760227 ; 886513.0177335051 ; 2667356.136197571 ; 4760.000000000001
21 ; 60749.40610284146 ; 135126.29620557374 ; 945968.6267001509 ; 2802065.5396951735 ; 4998.000000000001
22 ; 62053.012323351446 ; 135579.79291911662 ; 1006718.0328029924 ; 2937191.835900747 ; 5236.000000000001
23 ; 63063.364257643494 ; 136069.12220969642 ; 1068771.0451263438 ; 3072771.628819864 ; 5474.000000000001
24 ; 64563.29135560718 ; 136593.47448543762 ; 1131834.4093839873 ; 3208840.7510295603 ; 5712.000000000001
25 ; 66022.5961430696 ; 137152.00753146986 ; 1196397.7007395944 ; 3345434.2255149977 ; 5950.000000000001
26 ; 67228.3899606217 ; 137743.85195655213 ; 1262420.296882664 ; 3482586.2330464674 ; 6188.000000000001
27 ; 68380.26618133251 ; 138368.1164816678 ; 1329648.6868432858 ; 3620330.0850030193 ; 6426.000000000001
28 ; 69494.13970780809 ; 139023.89301562816 ; 1398028.9530246183 ; 3758698.201484687 ; 6664.000000000001
29 ; 70872.66252754608 ; 139710.2614723945 ; 1467523.0927324265 ; 3897722.0945003154 ; 6902.000000000001
30 ; 71436.52981508037 ; 140426.29429445337 ; 1538395.7552599725 ; 4037432.35597271 ; 7140.000000000001
31 ; 72918.84085834146 ; 141171.06065586902 ; 1609832.2850750529 ; 4177858.6502671633 ; 7378.000000000001
32 ; 73832.57793994792 ; 141943.63032733198 ; 1682751.1259333943 ; 4319029.710923032 ; 7616.000000000001
33 ; 74974.13716875532 ; 142743.07719345443 ; 1756583.7038733421 ; 4460973.341250364 ; 7854.000000000001
34 ; 75885.29366180021 ; 143568.48241960557 ; 1831557.8410420974 ; 4603716.418443819 ; 8092.000000000001
35 ; 76978.66292586291 ; 144418.93727166907 ; 1907443.1347038976 ; 4747284.900863424 ; 8330.000000000002
36 ; 78022.78675400723 ; 145293.54559721917 ; 1984421.7976297606 ; 4891703.838135093 ; 8568.000000000002
37 ; 79030.56450805209 ; 146191.4259807711 ; 2062444.5843837678 ; 5036997.383732312 ; 8806.000000000002
38 ; 80213.36477763088 ; 147111.71358901568 ; 2141475.14889182 ; 5183188.809713083 ; 9044.000000000002
39 ; 80940.74016429632 ; 148053.56172436516 ; 2221688.513669451 ; 5330300.523302099 ; 9282.000000000002
40 ; 82135.38150530943 ; 149016.14310680353 ; 2302629.253833747 ; 5478354.0850264635 ; 9520.000000000002
41 ; 83197.84721609522 ; 149998.6509050407 ; 2384764.6353390566 ; 5627370.228133267 ; 9758.000000000002
42 ; 84212.77327804174 ; 151000.299538414 ; 2467962.482555152 ; 5777368.879038308 ; 9996.000000000002
43 ; 84628.55449725591 ; 152020.32527095175 ; 2552175.2558331937 ; 5928369.178576722 ; 10234.000000000002
44 ; 85497.77887296645 ; 153057.98661860093 ; 2636803.8103304496 ; 6080389.503847674 ; 10472.000000000002
45 ; 86491.32373631603 ; 154112.56458991085 ; 2722301.589203416 ; 6233447.490466274 ; 10710.000000000002
46 ; 87452.9623083466 ; 155183.3627795217 ; 2808792.912939732 ; 6387560.055056185 ; 10948.000000000002
47 ; 87985.42254449535 ; 156269.70733270224 ; 2896245.8752480787 ; 6542743.417835707 ; 11186.000000000002
48 ; 88982.36217282826 ; 157370.94679796597 ; 2984231.297792574 ; 6699013.125168409 ; 11424.000000000002
49 ; 89790.32451760668 ; 158486.45188351985 ; 3073213.659965402 ; 6856384.071966375 ; 11662.000000000002
50 ; 90389.72393497736 ; 159615.61513199593 ; 3163003.9844830087 ; 7014870.523849895 ; 11900.000000000002
51 ; 91097.56547336272 ; 160757.85052662203 ; 3253393.708417986 ; 7174486.138981891 ; 12138.000000000002
52 ; 92036.38256365125 ; 161912.59304072318 ; 3344491.273891349 ; 7335243.989508513 ; 12376.000000000002
53 ; 92458.3766482369 ; 163079.29814122623 ; 3436527.656455 ; 7497156.582549237 ; 12614.000000000002
54 ; 93250.07687321486 ; 164257.44125568628 ; 3528986.033103237 ; 7660235.880690463 ; 12852.000000000002
55 ; 94548.66242498218 ; 165446.51721126656 ; 3622236.109976452 ; 7824493.321946149 ; 13090.000000000002
56 ; 94637.51574444938 ; 166646.03965309507 ; 3716784.772401434 ; 7989939.839157416 ; 13328.000000000002
57 ; 95047.15463204609 ; 167855.54044848628 ; 3811422.2881458835 ; 8156585.878810511 ; 13566.000000000002
58 ; 96203.6479832517 ; 169074.56908266654 ; 3906469.4427779294 ; 8324441.419258997 ; 13804.000000000002
59 ; 96218.87391261158 ; 170302.69205086306 ; 4002673.090761181 ; 8493515.988341663 ; 14042.000000000002
60 ; 97084.44520050105 ; 171539.49225091736 ; 4098891.9646737925 ; 8663818.680392526 ; 14280.000000000002
61 ; 97602.45367563129 ; 172784.56837995106 ; 4195976.409874294 ; 8835358.172643444 ; 14518.000000000002
62 ; 97927.3134695084 ; 174037.53433805268 ; 4293578.863549925 ; 9008142.741023395 ; 14756.000000000002
63 ; 98128.17044047618 ; 175298.0186414501 ; 4391506.177019434 ; 9182180.275361449 ; 14994.000000000002
64 ; 99407.648835639 ; 176565.66384719362 ; 4489634.34745991 ; 9357478.294002898 ; 15232.000000000002
65 ; 99160.29390890858 ; 177840.12599098284 ; 4589041.996295549 ; 9534043.957850091 ; 15470.000000000002
66 ; 100038.85443564842 ; 179121.07403943184 ; 4688202.290204458 ; 9711884.083841074 ; 15708.000000000002
67 ; 100596.82914125388 ; 180408.18935776732 ; 4788241.144640107 ; 9891005.157880506 ; 15946.000000000002
68 ; 101089.79022396632 ; 181701.16519370038 ; 4888837.97378136 ; 1.0071413347238272E7 ; 16184.000000000002
69 ; 100880.51164656742 ; 182999.70617798605 ; 4989927.764005327 ; 1.0253114512431974E7 ; 16422.000000000004
70 ; 101779.52226391106 ; 184303.52784199922 ; 5090808.2756518945 ; 1.0436114218609959E7 ; 16660.000000000004
71 ; 101903.08894914709 ; 185612.35615248966 ; 5192587.797915805 ; 1.0620417746451959E7 ; 16898.000000000004
72 ; 102804.07951741846 ; 186925.92706354277 ; 5294490.886864952 ; 1.0806030102604449E7 ; 17136.000000000004
73 ; 102381.94854884138 ; 188243.98608565942 ; 5397294.96638237 ; 1.0992956029667992E7 ; 17374.000000000004
74 ; 102765.89301646595 ; 189566.28787176838 ; 5499676.914931212 ; 1.1181200015753651E7 ; 17612.000000000004
75 ; 102914.04359985414 ; 190892.59581991035 ; 5602442.807947678 ; 1.137076630362542E7 ; 17850.000000000004
76 ; 103862.96547378998 ; 192222.68169226433 ; 5705356.851547532 ; 1.156165889944533E7 ; 18088.000000000004
77 ; 103195.55910320034 ; 193556.32525013894 ; 5809219.8170213215 ; 1.1753881581137596E7 ; 18326.000000000004
78 ; 103590.079791409 ; 194893.31390450924 ; 5912415.376124522 ; 1.1947437906387735E7 ; 18564.000000000004
79 ; 103950.95935199146 ; 196233.44238164794 ; 6016005.455915931 ; 1.2142331220292244E7 ; 18802.000000000004
80 ; 104202.32358440707 ; 197576.5124033812 ; 6119956.415267922 ; 1.2338564662673892E7 ; 19040.000000000004
81 ; 104255.75285276162 ; 198922.3323814778 ; 6224158.738852329 ; 1.2536141175077274E7 ; 19278.000000000004
82 ; 104151.3303502709 ; 200270.71712567663 ; 6328414.49170509 ; 1.2735063507458752E7 ; 19516.000000000004
83 ; 105082.13043408626 ; 201621.48756484827 ; 6432565.82205536 ; 1.2935334224584429E7 ; 19754.000000000004
84 ; 104567.57412535616 ; 202974.47048078908 ; 6537647.952489447 ; 1.3136955712149277E7 ; 19992.000000000004
85 ; 104603.47671428119 ; 204329.49825414713 ; 6642215.526614803 ; 1.3339930182630066E7 ; 20230.000000000004
86 ; 105035.4002224792 ; 205686.40862198634 ; 6746819.003329084 ; 1.3544259680884212E7 ; 20468.000000000004
87 ; 104433.13428599737 ; 207045.04444650392 ; 6851854.403551564 ; 1.3749946089506198E7 ; 20706.000000000004
88 ; 105024.31351046164 ; 208405.25349442405 ; 6956287.537837561 ; 1.3956991133952701E7 ; 20944.000000000004
89 ; 104608.85658216219 ; 209766.88822660613 ; 7061311.851348023 ; 1.4165396387447126E7 ; 21182.000000000004
90 ; 104616.45098117754 ; 211129.8055974148 ; 7165920.707930185 ; 1.4375163275673732E7 ; 21420.000000000004
91 ; 105127.0157462937 ; 212493.86686341534 ; 7270537.158911362 ; 1.4586293081271147E7 ; 21658.000000000004
92 ; 104708.70307930342 ; 213858.93740097154 ; 7375664.174657656 ; 1.4798786948134562E7 ; 21896.000000000004
93 ; 104586.65778575234 ; 215224.8865323381 ; 7480372.87773696 ; 1.5012645885535534E7 ; 22134.000000000004
94 ; 104659.15611638369 ; 216591.5873598528 ; 7584959.535522712 ; 1.5227870772067873E7 ; 22372.000000000004
95 ; 104654.83439303073 ; 217958.91660785297 ; 7689618.6916390965 ; 1.5444462359427726E7 ; 22610.000000000004
96 ; 104324.81622912442 ; 219326.75447195035 ; 7794273.526032127 ; 1.5662421276035579E7 ; 22848.000000000004
97 ; 104151.93410120251 ; 220694.98447531823 ; 7898598.342261252 ; 1.588174803050753E7 ; 23086.000000000004
98 ; 103713.62795814854 ; 222063.49333165656 ; 8002750.2763624545 ; 1.6102443014982847E7 ; 23324.000000000004
99 ; 103568.8144683244 ; 223432.17081451538 ; 8106463.904320603 ; 1.6324506508314503E7 ; 23562.000000000004
100 ; 103471.62283499859 ; 224800.90963267308 ; 8210032.718788927 ; 1.654793867912902E7 ; 23800.000000000004
101 ; 103487.37136749884 ; 226169.6053112768 ; 8313504.341623926 ; 1.6772739588761693E7 ; 24038.000000000004
102 ; 102959.63945091213 ; 227538.1560784678 ; 8416991.712991424 ; 1.699890919407297E7 ; 24276.000000000004
103 ; 102874.64266096747 ; 228906.46275722643 ; 8519951.352442335 ; 1.722644735015144E7 ; 24514.000000000004
104 ; 102136.71579682449 ; 230274.42866218422 ; 8622825.995103303 ; 1.7455353812908664E7 ; 24752.000000000004
105 ; 102590.39165463114 ; 231641.95950116217 ; 8724962.710900128 ; 1.768562824157085E7 ; 24990.000000000004
106 ; 101878.86857182678 ; 233008.96328120615 ; 8827553.102554759 ; 1.791727020107201E7 ; 25228.000000000004
107 ; 101325.09618954899 ; 234375.35021890205 ; 8929431.971126586 ; 1.8150279164353218E7 ; 25466.000000000004
108 ; 101189.38249361847 ; 235741.0326547614 ; 9030757.067316135 ; 1.838465451457212E7 ; 25704.000000000004
109 ; 100905.5653301039 ; 237105.9249714823 ; 9131946.449809754 ; 1.8620395547226883E7 ; 25942.000000000004
110 ; 100766.71341878525 ; 238469.94351589645 ; 9232852.015139857 ; 1.8857501472198367E7 ; 26180.000000000004
111 ; 99530.64050574288 ; 239833.00652442436 ; 9333618.728558643 ; 1.9095971415714264E7 ; 26418.000000000004
112 ; 99518.3764890826 ; 241195.03405186976 ; 9433149.369064385 ; 1.933580442223869E7 ; 26656.000000000004
113 ; 99240.6665265692 ; 242555.94790339103 ; 9532667.745553467 ; 1.9576999456290558E7 ; 26894.000000000004
114 ; 98035.89704943408 ; 243915.67156949744 ; 9631908.412080036 ; 1.981955540419395E7 ; 27132.000000000004
115 ; 98072.14045817746 ; 245274.1301639246 ; 9729944.309129471 ; 2.0063471075763445E7 ; 27370.000000000004
116 ; 97625.13800984588 ; 246631.25036425143 ; 9828016.449587649 ; 2.030874520592737E7 ; 27608.000000000004
117 ; 97132.09298720279 ; 247986.96035512578 ; 9925641.587597495 ; 2.055537645629162E7 ; 27846.000000000004
118 ; 96338.6092849935 ; 249341.1897739767 ; 1.0022773680584697E7 ; 2.0803363416646745E7 ; 28084.000000000004
119 ; 95472.20118768366 ; 250693.86965909263 ; 1.011911228986969E7 ; 2.105270460642072E7 ; 28322.000000000004
120 ; 95389.17809673552 ; 252044.93239995476 ; 1.0214584491057374E7 ; 2.1303398476079814E7 ; 28560.000000000004
121 ; 94100.18014440915 ; 253394.31168971793 ; 1.030997366915411E7 ; 2.155544340847977E7 ; 28798.000000000004
122 ; 94033.17467346224 ; 254741.94247973769 ; 1.0404073849298518E7 ; 2.180883772016949E7 ; 29036.000000000004
123 ; 93157.927992252 ; 256087.76093604794 ; 1.049810702397198E7 ; 2.2063579662649225E7 ; 29274.000000000004
124 ; 92534.64670407081 ; 257431.70439769706 ; 1.0591264951964233E7 ; 2.2319667423585273E7 ; 29512.000000000004
125 ; 91485.07179363597 ; 258773.71133685537 ; 1.0683799598668303E7 ; 2.257709912798297E7 ; 29750.000000000004
126 ; 90997.476955938 ; 260113.7213206124 ; 1.077528467046194E7 ; 2.2835872839319825E7 ; 29988.000000000004
127 ; 90188.00422098191 ; 261451.67497438454 ; 1.0866282147417877E7 ; 2.309598656064044E7 ; 30226.000000000004
128 ; 89227.12691187218 ; 262787.5139468589 ; 1.0956470151638858E7 ; 2.3357438235614825E7 ; 30464.000000000004
129 ; 88299.97269652414 ; 264121.18087640306 ; 1.1045697278550731E7 ; 2.3620225749561682E7 ; 30702.000000000004
130 ; 87338.11133602113 ; 265452.6193588722 ; 1.1133997251247255E7 ; 2.3884346930438086E7 ; 30940.000000000004
131 ; 86958.99578498496 ; 266781.77391675155 ; 1.1221335362583276E7 ; 2.4149799549796958E7 ; 31178.000000000004
132 ; 86032.28256397862 ; 268108.5899695709 ; 1.130829435836826E7 ; 2.441658132371371E7 ; 31416.000000000004
133 ; 84885.14681580919 ; 269433.01380553585 ; 1.139432664093224E7 ; 2.468468991368328E7 ; 31654.000000000004
134 ; 84241.77277429402 ; 270754.992554319 ; 1.1479211787748048E7 ; 2.4954122927488815E7 ; 31892.000000000004
135 ; 83395.15649004071 ; 272074.47416095965 ; 1.1563453560522342E7 ; 2.5224877920043133E7 ; 32130.000000000004
136 ; 82755.54270372004 ; 273391.4073608228 ; 1.1646848717012383E7 ; 2.549695239420409E7 ; 32368.000000000004
137 ; 81381.38541568861 ; 274705.74165556795 ; 1.1729604259716103E7 ; 2.5770343801564913E7 ; 32606.000000000004
138 ; 80260.97835819915 ; 276017.4272900862 ; 1.1810985645131791E7 ; 2.6045049543220483E7 ; 32844.00000000001
139 ; 79572.54258219458 ; 277326.4152303598 ; 1.189124662348999E7 ; 2.632106697051057E7 ; 33082.00000000001
140 ; 78696.75843541029 ; 278632.6571422044 ; 1.1970819166072186E7 ; 2.659839338574093E7 ; 33320.00000000001
141 ; 77268.7843212603 ; 279936.1053708559 ; 1.2049515924507596E7 ; 2.687702604288313E7 ; 33558.00000000001
142 ; 76354.94992188558 ; 281236.7129213643 ; 1.2126784708828855E7 ; 2.715696214825399E7 ; 33796.00000000001
143 ; 75546.5462361929 ; 282534.43343975936 ; 1.220313965875074E7 ; 2.7438198861175355E7 ; 34034.00000000001
144 ; 74301.94993932017 ; 283829.2211949549 ; 1.2278686204986934E7 ; 2.7720733294615112E7 ; 34272.00000000001
145 ; 73994.07248251874 ; 285121.0310613595 ; 1.2352988154926253E7 ; 2.800456251581007E7 ; 34510.00000000001
146 ; 73852.11541774865 ; 286409.8185021637 ; 1.2426982227408772E7 ; 2.8289683546871427E7 ; 34748.00000000001
147 ; 73723.75694364365 ; 287695.539553274 ; 1.2500834342826521E7 ; 2.8576093365373593E7 ; 34986.00000000001
148 ; 73543.39010901109 ; 288978.1508078676 ; 1.2574558099770164E7 ; 2.8863788904926866E7 ; 35224.00000000001
149 ; 72969.72216895569 ; 290257.60940153885 ; 1.2648101489879176E7 ; 2.9152767055734735E7 ; 35462.00000000001
150 ; 72685.93989348206 ; 291533.87299801566 ; 1.2721071212048132E7 ; 2.9443024665136274E7 ; 35700.00000000001
151 ; 72636.3406277974 ; 292806.89977541927 ; 1.2793757151941614E7 ; 2.9734558538134288E7 ; 35938.00000000001
152 ; 72447.95691739973 ; 294076.64841304586 ; 1.2866393492569411E7 ; 3.0027365437909707E7 ; 36176.00000000001
153 ; 72440.49376463475 ; 295343.0780786484 ; 1.293884144948681E7 ; 3.0321442086322755E7 ; 36414.00000000001
154 ; 72047.1144498186 ; 296606.14841619675 ; 1.3011281943251446E7 ; 3.0616785164401405E7 ; 36652.00000000001
155 ; 71682.160484866 ; 297865.819534098 ; 1.3083329057701264E7 ; 3.09133913128176E7 ; 36890.00000000001
156 ; 71262.93393536731 ; 299122.0519938565 ; 1.3155011218186129E7 ; 3.1211257132351696E7 ; 37128.00000000001
157 ; 71284.03110521348 ; 300374.8067991564 ; 1.3226274152121495E7 ; 3.1510379184345555E7 ; 37366.00000000001
158 ; 70693.31198635533 ; 301624.0453853494 ; 1.3297558183226708E7 ; 3.181075399114471E7 ; 37604.00000000001
159 ; 70501.1976771841 ; 302869.7296093311 ; 1.3368251495213063E7 ; 3.211237803653006E7 ; 37842.00000000001
160 ; 69965.91506508646 ; 304111.82173979003 ; 1.3438752692890247E7 ; 3.2415247766139388E7 ; 38080.00000000001
161 ; 70218.4294773438 ; 305350.2844478149 ; 1.3508718607955335E7 ; 3.2719359587879177E7 ; 38318.00000000001
162 ; 69247.7172164028 ; 306585.08079784544 ; 1.3578937037432678E7 ; 3.3024709872326992E7 ; 38556.00000000001
163 ; 69181.83660165437 ; 307816.17423895246 ; 1.364818475464908E7 ; 3.3331294953124836E7 ; 38794.00000000001
164 ; 68887.13303738234 ; 309043.5285964356 ; 1.3717366591250734E7 ; 3.3639111127363786E7 ; 39032.00000000001
165 ; 68741.97213375644 ; 310267.1080637243 ; 1.3786253724288117E7 ; 3.3948154655960225E7 ; 39270.00000000001
166 ; 68004.93607075416 ; 311486.87719457166 ; 1.3854995696421873E7 ; 3.425842176402395E7 ; 39508.00000000001
167 ; 67983.2405542412 ; 312702.80089552887 ; 1.3923000632492626E7 ; 3.456990864121852E7 ; 39746.00000000001
168 ; 67151.65939097299 ; 313914.84441868914 ; 1.3990983873046868E7 ; 3.488261144211405E7 ; 39984.00000000001
169 ; 67484.57210842252 ; 315122.973354691 ; 1.405813553243784E7 ; 3.519652628653274E7 ; 40222.00000000001
170 ; 66717.59219005244 ; 316327.1536259712 ; 1.4125620104546264E7 ; 3.551164925988743E7 ; 40460.00000000001
171 ; 66559.99632112763 ; 317527.3514802568 ; 1.4192337696736317E7 ; 3.58279764135134E7 ; 40698.00000000001
172 ; 65987.05461494572 ; 318723.5334842879 ; 1.4258897693057444E7 ; 3.614550376499366E7 ; 40936.00000000001
173 ; 65590.64307424269 ; 319915.6665177616 ; 1.432488474767239E7 ; 3.646422729847795E7 ; 41174.00000000001
174 ; 66014.11818088165 ; 321103.71776748967 ; 1.4390475390746633E7 ; 3.678414296499571E7 ; 41412.00000000001
175 ; 66265.30646001505 ; 322287.6547217609 ; 1.4456489508927515E7 ; 3.7105246682763204E7 ; 41650.00000000001
176 ; 65976.45907633496 ; 323467.445164901 ; 1.452275481538753E7 ; 3.742753433748496E7 ; 41888.00000000001
177 ; 66538.38540412583 ; 324643.0571720218 ; 1.4588731274463866E7 ; 3.775100178264987E7 ; 42126.00000000001
178 ; 66733.3346650452 ; 325814.45910395443 ; 1.4655269659867993E7 ; 3.807564483982189E7 ; 42364.00000000001
179 ; 66927.4088613073 ; 326981.6196023572 ; 1.4722002994533038E7 ; 3.840145929892585E7 ; 42602.00000000001
180 ; 67414.74386331592 ; 328144.5075849938 ; 1.4788930403394345E7 ; 3.872844091852821E7 ; 42840.00000000001
181 ; 67360.23546744 ; 329303.0922411738 ; 1.4856345147257661E7 ; 3.90565854261132E7 ; 43078.00000000001
