CSV File for the Network on Day 237
1 - Minute m 
2 - Power Consumed at minute m 
3 - Power Produced at minute m 
4 - Energy Consumed since the beginning of the day 
5 - Energy Produced since the beginning of the day 
6 - Energy Lost since the beginning of the day 
 
No Production city : 2, Producer : 1
No Production city : 4, Producer : 1
No Production city : 4, Producer : 1
 
0 ; 29105.80955653063 ; 92085.24949204661 ; 0.0 ; 0.0 ; 0.0
1 ; 31045.04839554191 ; 91271.09514563644 ; 29105.80955653063 ; 92085.24949204661 ; 238.00000000000003
2 ; 32677.823625327364 ; 90517.06416675358 ; 60150.85795207254 ; 183356.34463768307 ; 476.00000000000006
3 ; 34243.91316831266 ; 89829.56766383376 ; 92828.6815773999 ; 273873.4088044367 ; 714.0000000000001
4 ; 35974.16254219394 ; 89215.25757876654 ; 127072.59474571256 ; 363702.9764682704 ; 952.0000000000001
5 ; 37650.5079070538 ; 88680.83786889493 ; 163046.75728790648 ; 452918.23404703697 ; 1190.0000000000002
6 ; 39435.24595898516 ; 88232.81361465128 ; 200697.2651949603 ; 541599.0719159319 ; 1428.0000000000002
7 ; 40834.97120724287 ; 87877.18620862279 ; 240132.51115394544 ; 629831.8855305832 ; 1666.0000000000002
8 ; 42361.84432874759 ; 87619.1160895179 ; 280967.4823611883 ; 717709.071739206 ; 1904.0000000000002
9 ; 43910.18563592877 ; 87462.58813075887 ; 323329.3266899359 ; 805328.1878287239 ; 2142.0000000000005
10 ; 45420.35401790158 ; 87410.12423717557 ; 367239.51232586463 ; 892790.7759594828 ; 2380.0000000000005
11 ; 46907.29697505325 ; 87462.58813075887 ; 412659.8663437662 ; 980200.9001966583 ; 2618.0000000000005
12 ; 48462.26008483223 ; 87619.1160895179 ; 459567.1633188195 ; 1067663.4883274173 ; 2856.0000000000005
13 ; 49960.51796010407 ; 87877.18620862279 ; 508029.4234036517 ; 1155282.6044169352 ; 3094.0000000000005
14 ; 51108.14817987164 ; 88232.81361465107 ; 557989.9413637557 ; 1243159.790625558 ; 3332.0000000000005
15 ; 52738.279355925435 ; 88680.83786889493 ; 609098.0895436273 ; 1331392.604240209 ; 3570.0000000000005
16 ; 54213.64014471351 ; 89215.25757876654 ; 661836.3688995527 ; 1420073.442109104 ; 3808.0000000000005
17 ; 55691.35512572879 ; 89829.56766383356 ; 716050.0090442662 ; 1509288.6996878705 ; 4046.0000000000005
18 ; 56758.095075855126 ; 90517.06416675379 ; 771741.364169995 ; 1599118.267351704 ; 4284.000000000001
19 ; 58403.52410021533 ; 91271.09514563625 ; 828499.4592458501 ; 1689635.3315184577 ; 4522.000000000001
20 ; 59826.914142320005 ; 92085.24949204661 ; 886902.9833460654 ; 1780906.426664094 ; 4760.000000000001
21 ; 61122.39341084108 ; 92953.48568503259 ; 946729.8974883854 ; 1872991.6761561406 ; 4998.000000000001
22 ; 62423.17350936092 ; 93870.20864517336 ; 1007852.2908992266 ; 1965945.1618411732 ; 5236.000000000001
23 ; 63842.38683926814 ; 94830.30546332514 ; 1070275.4644085874 ; 2059815.3704863465 ; 5474.000000000001
24 ; 64922.8673389281 ; 95829.15089888324 ; 1134117.8512478555 ; 2154645.675949672 ; 5712.000000000001
25 ; 66072.45949310555 ; 96862.59225082783 ; 1199040.7185867836 ; 2250474.826848555 ; 5950.000000000001
26 ; 67018.97838973255 ; 97926.92133505622 ; 1265113.1780798892 ; 2347337.4190993826 ; 6188.000000000001
27 ; 68542.25810621445 ; 99018.8393830207 ; 1332132.1564696217 ; 2445264.340434439 ; 6426.000000000001
28 ; 69758.94471455054 ; 100135.41898493342 ; 1400674.4145758362 ; 2544283.1798174595 ; 6664.000000000001
29 ; 70792.05429485723 ; 101274.06583862547 ; 1470433.3592903868 ; 2644418.598802393 ; 6902.000000000001
30 ; 72259.10051393608 ; 102432.48203620355 ; 1541225.413585244 ; 2745692.6646410185 ; 7140.000000000001
31 ; 73189.34116806691 ; 103608.63188156823 ; 1613484.51409918 ; 2848125.146677222 ; 7378.000000000001
32 ; 74237.82754523314 ; 104800.71072399398 ; 1686673.855267247 ; 2951733.77855879 ; 7616.000000000001
33 ; 75248.56935996369 ; 106007.11695910903 ; 1760911.68281248 ; 3056534.489282784 ; 7854.000000000001
34 ; 76309.02811188577 ; 107226.42714005958 ; 1836160.2521724438 ; 3162541.606241893 ; 8092.000000000001
35 ; 77735.99374674684 ; 108457.3740200993 ; 1912469.2802843296 ; 3269768.0333819524 ; 8330.000000000002
36 ; 78680.50349898628 ; 109698.82728472637 ; 1990205.2740310763 ; 3378225.4074020516 ; 8568.000000000002
37 ; 79656.47254002308 ; 110949.77670624739 ; 2068885.7775300627 ; 3487924.234686778 ; 8806.000000000002
38 ; 80229.37226853082 ; 112209.31745195857 ; 2148542.2500700857 ; 3598874.0113930255 ; 9044.000000000002
39 ; 81561.3694814407 ; 113476.6372892886 ; 2228771.6223386168 ; 3711083.328844984 ; 9282.000000000002
40 ; 82398.31626241576 ; 114751.00545082461 ; 2310332.9918200574 ; 3824559.9661342725 ; 9520.000000000002
41 ; 83022.7218191186 ; 116031.7629450175 ; 2392731.308082473 ; 3939310.9715850973 ; 9758.000000000002
42 ; 84615.53665180376 ; 117318.31412197699 ; 2475754.0299015916 ; 4055342.7345301146 ; 9996.000000000002
43 ; 84809.57722668986 ; 118610.1193266213 ; 2560369.5665533952 ; 4172661.0486520915 ; 10234.000000000002
44 ; 85694.79964164514 ; 119906.68849269404 ; 2645179.1437800853 ; 4291271.167978713 ; 10472.000000000002
45 ; 87102.37663933697 ; 121207.57555043546 ; 2730873.9434217303 ; 4411177.856471407 ; 10710.000000000002
46 ; 87965.23587533883 ; 122512.37353785726 ; 2817976.320061067 ; 4532385.432021842 ; 10948.000000000002
47 ; 88359.43386645276 ; 123820.71032067621 ; 2905941.555936406 ; 4654897.805559699 ; 11186.000000000002
48 ; 89168.35378506996 ; 125132.24483913198 ; 2994300.989802859 ; 4778718.515880376 ; 11424.000000000002
49 ; 90102.8587371276 ; 126446.66381132929 ; 3083469.343587929 ; 4903850.760719508 ; 11662.000000000002
50 ; 90888.77754972958 ; 127763.67883259009 ; 3173572.2023250563 ; 5030297.424530838 ; 11900.000000000002
51 ; 91587.22037031854 ; 129083.02381876642 ; 3264460.979874786 ; 5158061.103363427 ; 12138.000000000002
52 ; 92390.85136088921 ; 130404.45274872969 ; 3356048.2002451047 ; 5287144.127182194 ; 12376.000000000002
53 ; 92691.16624045372 ; 131727.73766747452 ; 3448439.051605994 ; 5417548.579930924 ; 12614.000000000002
54 ; 93635.80707612673 ; 133052.66691660427 ; 3541130.2178464476 ; 5549276.317598399 ; 12852.000000000002
55 ; 94092.41028809053 ; 134379.04356352467 ; 3634766.0249225744 ; 5682328.984515003 ; 13090.000000000002
56 ; 95251.79237046957 ; 135706.68400458025 ; 3728858.4352106648 ; 5816708.028078527 ; 13328.000000000002
57 ; 95213.71169699501 ; 137035.41672070758 ; 3824110.2275811345 ; 5952414.712083108 ; 13566.000000000002
58 ; 96089.90007117449 ; 138365.08116704767 ; 3919323.9392781295 ; 6089450.128803816 ; 13804.000000000002
59 ; 96573.30543117951 ; 139695.5267804197 ; 4015413.839349304 ; 6227815.209970864 ; 14042.000000000002
60 ; 97402.56027035332 ; 141026.6120906672 ; 4111987.1447804836 ; 6367510.7367512835 ; 14280.000000000002
61 ; 98133.92929627544 ; 142358.20392370256 ; 4209389.705050837 ; 6508537.34884195 ; 14518.000000000002
62 ; 97817.04955945203 ; 143690.17668564222 ; 4307523.634347113 ; 6650895.552765653 ; 14756.000000000002
63 ; 98743.67464116424 ; 145022.4117187669 ; 4405340.6839065645 ; 6794585.729451295 ; 14994.000000000002
64 ; 99258.30070712326 ; 146354.79672120756 ; 4504084.3585477285 ; 6939608.141170062 ; 15232.000000000002
65 ; 99774.82635428206 ; 147687.22522326175 ; 4603342.659254852 ; 7085962.93789127 ; 15470.000000000002
66 ; 100104.79985701616 ; 149019.5961141158 ; 4703117.485609134 ; 7233650.163114532 ; 15708.000000000002
67 ; 99862.95724280518 ; 150351.81321350238 ; 4803222.285466149 ; 7382669.759228648 ; 15946.000000000002
68 ; 100929.55899583841 ; 151683.78488348072 ; 4903085.242708955 ; 7533021.57244215 ; 16184.000000000002
69 ; 101066.03829038441 ; 153015.42367609296 ; 5004014.801704793 ; 7684705.35732563 ; 16422.000000000004
70 ; 102070.4147393776 ; 154346.64601315281 ; 5105080.839995177 ; 7837720.781001723 ; 16660.000000000004
71 ; 102528.08817676034 ; 155677.37189484984 ; 5207151.254734555 ; 7992067.427014876 ; 16898.000000000004
72 ; 102270.03038234258 ; 157007.52463423682 ; 5309679.342911315 ; 8147744.798909726 ; 17136.000000000004
73 ; 102835.57680771196 ; 158337.03061499624 ; 5411949.373293658 ; 8304752.323543962 ; 17374.000000000004
74 ; 103027.2790947362 ; 159665.81907017372 ; 5514784.95010137 ; 8463089.354158958 ; 17612.000000000004
75 ; 102817.84674070143 ; 160993.82187982168 ; 5617812.229196106 ; 8622755.173229132 ; 17850.000000000004
76 ; 103293.42952719257 ; 162320.97338572034 ; 5720630.075936807 ; 8783748.995108953 ; 18088.000000000004
77 ; 103770.13572151776 ; 163647.21022154088 ; 5823923.505464 ; 8946069.968494672 ; 18326.000000000004
78 ; 103589.14580380253 ; 164972.4711569916 ; 5927693.641185517 ; 9109717.178716213 ; 18564.000000000004
79 ; 104449.13812207975 ; 166296.69695463753 ; 6031282.78698932 ; 9274689.649873205 ; 18802.000000000004
80 ; 104242.9148603185 ; 167619.8302382267 ; 6135731.9251114 ; 9440986.346827842 ; 19040.000000000004
81 ; 104355.18451240505 ; 168941.81537146957 ; 6239974.839971718 ; 9608606.17706607 ; 19278.000000000004
82 ; 104547.75439563354 ; 170262.59834633113 ; 6344330.024484123 ; 9777547.992437538 ; 19516.000000000004
83 ; 104843.27728555648 ; 171582.12667998637 ; 6448877.778879757 ; 9947810.590783868 ; 19754.000000000004
84 ; 105047.78115961888 ; 172900.34931967588 ; 6553721.056165313 ; 1.0119392717463855E7 ; 19992.000000000004
85 ; 104812.34219649485 ; 174217.21655477377 ; 6658768.837324932 ; 1.029229306678353E7 ; 20230.000000000004
86 ; 104927.89432845233 ; 175532.67993544534 ; 6763581.1795214275 ; 1.0466510283338305E7 ; 20468.000000000004
87 ; 105025.30198987844 ; 176846.69219733487 ; 6868509.07384988 ; 1.064204296327375E7 ; 20706.000000000004
88 ; 104441.69276793547 ; 178159.2071917736 ; 6973534.375839759 ; 1.0818889655471085E7 ; 20944.000000000004
89 ; 105128.70051915305 ; 179470.1798210503 ; 7077976.0686076945 ; 1.0997048862662857E7 ; 21182.000000000004
90 ; 104690.92254404727 ; 180779.5659783247 ; 7183104.769126847 ; 1.1176519042483907E7 ; 21420.000000000004
91 ; 104482.41767127099 ; 182087.32249180772 ; 7287795.691670895 ; 1.1357298608462231E7 ; 21658.000000000004
92 ; 104722.73157225133 ; 183393.40707286255 ; 7392278.109342165 ; 1.153938593095404E7 ; 21896.000000000004
93 ; 104837.13653028062 ; 184697.77826771498 ; 7497000.840914417 ; 1.1722779338026902E7 ; 22134.000000000004
94 ; 104464.83913027857 ; 186000.39541248736 ; 7601837.977444698 ; 1.1907477116294617E7 ; 22372.000000000004
95 ; 104504.91757172704 ; 187301.2185912969 ; 7706302.816574977 ; 1.2093477511707105E7 ; 22610.000000000004
96 ; 104489.25214514024 ; 188600.20859718142 ; 7810807.734146704 ; 1.2280778730298402E7 ; 22848.000000000004
97 ; 104228.51573538681 ; 189897.3268956357 ; 7915296.986291844 ; 1.2469378938895583E7 ; 23086.000000000004
98 ; 103838.2195645449 ; 191192.53559056146 ; 8019525.502027231 ; 1.2659276265791219E7 ; 23324.000000000004
99 ; 104266.84147619977 ; 192485.79739244908 ; 8123363.721591776 ; 1.285046880138178E7 ; 23562.000000000004
100 ; 103523.2705877213 ; 193777.0755886265 ; 8227630.563067976 ; 1.3042954598774228E7 ; 23800.000000000004
101 ; 103309.0624675705 ; 195066.3340154224 ; 8331153.833655697 ; 1.3236731674362855E7 ; 24038.000000000004
102 ; 103540.87215938981 ; 196353.5370321047 ; 8434462.896123268 ; 1.3431798008378277E7 ; 24276.000000000004
103 ; 102479.05231367782 ; 197638.64949646668 ; 8538003.768282657 ; 1.3628151545410382E7 ; 24514.000000000004
104 ; 102293.7117498812 ; 198921.6367419426 ; 8640482.820596335 ; 1.3825790194906848E7 ; 24752.000000000004
105 ; 102088.92915468889 ; 200202.46455614534 ; 8742776.532346217 ; 1.402471183164879E7 ; 24990.000000000004
106 ; 101795.7020714511 ; 201481.0991607257 ; 8844865.461500905 ; 1.4224914296204934E7 ; 25228.000000000004
107 ; 101738.94361431546 ; 202757.50719246262 ; 8946661.163572356 ; 1.442639539536566E7 ; 25466.000000000004
108 ; 101086.89296953732 ; 204031.65568549896 ; 9048400.107186671 ; 1.4629152902558122E7 ; 25704.000000000004
109 ; 100790.27858844657 ; 205303.51205464496 ; 9149487.000156209 ; 1.4833184558243621E7 ; 25942.000000000004
110 ; 100406.28362277383 ; 206573.04407967773 ; 9250277.278744655 ; 1.5038488070298266E7 ; 26180.000000000004
111 ; 99884.26988292119 ; 207840.2198905701 ; 9350683.562367428 ; 1.5245061114377944E7 ; 26418.000000000004
112 ; 99483.1912083602 ; 209105.00795358664 ; 9450567.83225035 ; 1.5452901334268514E7 ; 26656.000000000004
113 ; 99169.4686831526 ; 210367.37705819088 ; 9550051.02345871 ; 1.56620063422221E7 ; 26894.000000000004
114 ; 98509.02507075592 ; 211627.29630471006 ; 9649220.492141863 ; 1.5872373719280291E7 ; 27132.000000000004
115 ; 97925.2013950118 ; 212884.73509270925 ; 9747729.51721262 ; 1.6084001015585002E7 ; 27370.000000000004
116 ; 97621.3690112473 ; 214139.66311002872 ; 9845654.718607632 ; 1.629688575067771E7 ; 27608.000000000004
117 ; 96926.69471498489 ; 215392.05032244342 ; 9943276.08761888 ; 1.651102541378774E7 ; 27846.000000000004
118 ; 96163.75117576346 ; 216641.86696390458 ; 1.0040202782333866E7 ; 1.6726417464110183E7 ; 28084.000000000004
119 ; 95994.34425647673 ; 217889.0835273276 ; 1.0136366533509629E7 ; 1.694305933107409E7 ; 28322.000000000004
120 ; 95092.03039736718 ; 219133.67075589264 ; 1.0232360877766106E7 ; 1.7160948414601415E7 ; 28560.000000000004
121 ; 94453.522004057 ; 220375.59963482578 ; 1.0327452908163473E7 ; 1.738008208535731E7 ; 28798.000000000004
122 ; 94009.72653766793 ; 221614.84138363242 ; 1.042190643016753E7 ; 1.7600457684992135E7 ; 29036.000000000004
123 ; 93251.004562427 ; 222851.367448755 ; 1.0515916156705197E7 ; 1.7822072526375767E7 ; 29274.000000000004
124 ; 92236.2008137703 ; 224085.14949662978 ; 1.0609167161267623E7 ; 1.804492389382452E7 ; 29512.000000000004
125 ; 92256.19161294225 ; 225316.1594071194 ; 1.0701403362081394E7 ; 1.826900904332115E7 ; 29750.000000000004
126 ; 91188.58134030292 ; 226544.36926729843 ; 1.0793659553694336E7 ; 1.849432520272827E7 ; 29988.000000000004
127 ; 90321.55395490563 ; 227769.75136557178 ; 1.088484813503464E7 ; 1.872086957199557E7 ; 30226.000000000004
128 ; 89647.32920352716 ; 228992.27818610662 ; 1.0975169688989544E7 ; 1.8948639323361143E7 ; 30464.000000000004
129 ; 89041.20562953812 ; 230211.92240355982 ; 1.1064817018193072E7 ; 1.917763160154725E7 ; 30702.000000000004
130 ; 88093.86112176655 ; 231428.6568780834 ; 1.115385822382261E7 ; 1.9407843523950808E7 ; 30940.000000000004
131 ; 87180.62079442655 ; 232642.45465059348 ; 1.1241952084944377E7 ; 1.963927218082889E7 ; 31178.000000000004
132 ; 86181.72218424844 ; 233853.2889382868 ; 1.1329132705738803E7 ; 1.9871914635479484E7 ; 31416.000000000004
133 ; 85506.95084144978 ; 235061.13313039133 ; 1.1415314427923052E7 ; 2.010576792441777E7 ; 31654.000000000004
134 ; 84687.84185292153 ; 236265.96078413838 ; 1.15008213787645E7 ; 2.034082905754816E7 ; 31892.000000000004
135 ; 83499.71122096106 ; 237467.74562094355 ; 1.1585509220617423E7 ; 2.05770950183323E7 ; 32130.000000000004
136 ; 82869.12126716244 ; 238666.4615227854 ; 1.1669008931838384E7 ; 2.0814562763953242E7 ; 32368.000000000004
137 ; 81906.48190038875 ; 239862.08252877076 ; 1.1751878053105546E7 ; 2.1053229225476027E7 ; 32606.000000000004
138 ; 81385.57901900973 ; 241054.58283187725 ; 1.1833784535005935E7 ; 2.1293091308004797E7 ; 32844.00000000001
139 ; 79705.28891840641 ; 242243.93677586314 ; 1.1915170114024945E7 ; 2.1534145890836675E7 ; 33082.00000000001
140 ; 79238.10663019572 ; 243430.11885233538 ; 1.199487540294335E7 ; 2.1776389827612538E7 ; 33320.00000000001
141 ; 78021.37096595926 ; 244613.10369796795 ; 1.2074113509573545E7 ; 2.2019819946464874E7 ; 33558.00000000001
142 ; 76858.93456414624 ; 245792.8660918628 ; 1.2152134880539505E7 ; 2.226443305016284E7 ; 33796.00000000001
143 ; 75970.17387702421 ; 246969.38095304536 ; 1.2228993815103652E7 ; 2.2510225916254703E7 ; 34034.00000000001
144 ; 74293.49831825553 ; 248142.6233380879 ; 1.2304963988980677E7 ; 2.2757195297207747E7 ; 34272.00000000001
145 ; 74323.45887780716 ; 249312.56843885442 ; 1.2379257487298932E7 ; 2.3005337920545835E7 ; 34510.00000000001
146 ; 74784.10908862484 ; 250479.19158036073 ; 1.245358094617674E7 ; 2.325465048898469E7 ; 34748.00000000001
147 ; 74231.30508609304 ; 251642.46821874354 ; 1.2528365055265365E7 ; 2.3505129680565048E7 ; 34986.00000000001
148 ; 74013.19979528988 ; 252802.37393933383 ; 1.2602596360351458E7 ; 2.375677214878379E7 ; 35224.00000000001
149 ; 73914.9513519836 ; 253958.88445482843 ; 1.2676609560146747E7 ; 2.4009574522723127E7 ; 35462.00000000001
150 ; 73545.89578813268 ; 255111.97560355547 ; 1.275052451149873E7 ; 2.4263533407177955E7 ; 35700.00000000001
151 ; 73134.31123456662 ; 256261.62334782898 ; 1.2824070407286864E7 ; 2.451864538278151E7 ; 35938.00000000001
152 ; 72945.50131453676 ; 257407.803772388 ; 1.2897204718521431E7 ; 2.477490700612934E7 ; 36176.00000000001
153 ; 72408.41721559216 ; 258550.49308291628 ; 1.2970150219835969E7 ; 2.5032314809901726E7 ; 36414.00000000001
154 ; 72359.89800185894 ; 259689.6676046389 ; 1.304255863705156E7 ; 2.529086530298464E7 ; 36652.00000000001
155 ; 72913.85259348356 ; 260825.3037809913 ; 1.3114918535053419E7 ; 2.555055497058928E7 ; 36890.00000000001
156 ; 72077.50428067727 ; 261957.37817235832 ; 1.3187832387646902E7 ; 2.581138027437027E7 ; 37128.00000000001
157 ; 71706.02293649163 ; 263085.867454879 ; 1.325990989192758E7 ; 2.607333765254263E7 ; 37366.00000000001
158 ; 71287.19542157958 ; 264210.74841931404 ; 1.333161591486407E7 ; 2.6336423519997507E7 ; 37604.00000000001
159 ; 70948.05171937875 ; 265331.9979699742 ; 1.3402903110285651E7 ; 2.6600634268416822E7 ; 37842.00000000001
160 ; 70898.60980456568 ; 266449.5931237051 ; 1.347385116200503E7 ; 2.6865966266386796E7 ; 38080.00000000001
161 ; 70620.26096308406 ; 267563.5110089264 ; 1.3544749771809595E7 ; 2.71324158595105E7 ; 38318.00000000001
162 ; 69985.07172018915 ; 268673.72886472347 ; 1.3615370032772679E7 ; 2.7399979370519426E7 ; 38556.00000000001
163 ; 69740.00523238622 ; 269780.22403998865 ; 1.3685355104492867E7 ; 2.7668653099384148E7 ; 38794.00000000001
164 ; 69504.41249987116 ; 270882.97399260884 ; 1.3755095109725254E7 ; 2.7938433323424138E7 ; 39032.00000000001
165 ; 68964.78558976279 ; 271981.9562886995 ; 1.3824599522225125E7 ; 2.8209316297416747E7 ; 39270.00000000001
166 ; 68856.13667218978 ; 273077.14860188053 ; 1.3893564307814887E7 ; 2.8481298253705446E7 ; 39508.00000000001
167 ; 68269.3888310446 ; 274168.52871259383 ; 1.3962420444487076E7 ; 2.8754375402307328E7 ; 39746.00000000001
168 ; 67991.9521520389 ; 275256.07450746035 ; 1.4030689833318122E7 ; 2.902854393101992E7 ; 39984.00000000001
169 ; 67893.43880211675 ; 276339.7639786735 ; 1.409868178547016E7 ; 2.930380000552738E7 ; 40222.00000000001
170 ; 67438.81421464833 ; 277419.57522342936 ; 1.4166575224272277E7 ; 2.9580139769506056E7 ; 40460.00000000001
171 ; 67397.95081861397 ; 278495.4864433906 ; 1.4234014038486926E7 ; 2.9857559344729487E7 ; 40698.00000000001
172 ; 66179.91883279217 ; 279567.47594418353 ; 1.4301411989305539E7 ; 3.0136054831172876E7 ; 40936.00000000001
173 ; 66059.45903426166 ; 280635.522134925 ; 1.4367591908138331E7 ; 3.041562230711706E7 ; 41174.00000000001
174 ; 66831.11371310614 ; 281699.6035277811 ; 1.4433651367172593E7 ; 3.0696257829251986E7 ; 41412.00000000001
175 ; 67026.21112506103 ; 282759.6987375524 ; 1.45004824808857E7 ; 3.0977957432779767E7 ; 41650.00000000001
176 ; 66987.0263521566 ; 283815.7864812879 ; 1.456750869201076E7 ; 3.126071713151732E7 ; 41888.00000000001
177 ; 67188.6557534128 ; 284867.84557792416 ; 1.4634495718362916E7 ; 3.154453291799861E7 ; 42126.00000000001
178 ; 67299.21910788593 ; 285915.85494794947 ; 1.470168437411633E7 ; 3.1829400763576534E7 ; 42364.00000000001
179 ; 67252.68528591383 ; 286959.7936130924 ; 1.4768983593224216E7 ; 3.2115316618524484E7 ; 42602.00000000001
180 ; 68516.88359681827 ; 287999.6406960323 ; 1.4836236278510131E7 ; 3.2402276412137575E7 ; 42840.00000000001
181 ; 68060.26170249288 ; 289035.3754201324 ; 1.490475316210695E7 ; 3.269027605283361E7 ; 43078.00000000001
182 ; 68021.52819825447 ; 290066.97710919275 ; 1.4972813423809443E7 ; 3.297931142825374E7 ; 43316.00000000001
