CSV File for the Network on Day 10
1 - Minute m 
2 - Power Consumed at minute m 
3 - Power Produced at minute m 
4 - Energy Consumed since the beginning of the day 
5 - Energy Produced since the beginning of the day 
6 - Energy Lost since the beginning of the day 
 
0 ; 4538904.526358345 ; 2.105828330789834E8 ; 0.0 ; 0.0 ; 0.0
1 ; 4541443.750996738 ; 2.1088657887704524E8 ; 4538904.526358345 ; 2.105828330789834E8 ; 356.14
2 ; 4545319.076753092 ; 2.1180804208745268E8 ; 9080348.277355082 ; 4.2146941195602864E8 ; 712.28
3 ; 4551724.631150949 ; 2.1334724654129013E8 ; 1.3625667354108173E7 ; 6.332774540434813E8 ; 1068.42
4 ; 4555084.343033783 ; 2.1550421510737732E8 ; 1.8177391985259123E7 ; 8.466247005847715E8 ; 1424.56
5 ; 4559822.340800726 ; 2.1827896916706792E8 ; 2.2732476328292906E7 ; 1.0621289156921488E9 ; 1780.6999999999998
6 ; 4564640.2906730315 ; 2.2167152806397232E8 ; 2.729229866909363E7 ; 1.2804078848592167E9 ; 2136.8399999999997
7 ; 4567729.726870565 ; 2.2568190855550805E8 ; 3.1856938959766664E7 ; 1.502079412923189E9 ; 2492.9799999999996
8 ; 4570494.502512281 ; 2.3031012429804453E8 ; 3.642466868663723E7 ; 1.727761321478697E9 ; 2849.1199999999994
9 ; 4575709.650970516 ; 2.3555618539955184E8 ; 4.0995163189149514E7 ; 1.9580714457767415E9 ; 3205.2599999999993
10 ; 4576636.14022014 ; 2.4142009807219788E8 ; 4.557087284012003E7 ; 2.1936276311762934E9 ; 3561.399999999999
11 ; 4579426.00349675 ; 2.4790186441189757E8 ; 5.0147508980340175E7 ; 2.4350477292484913E9 ; 3917.539999999999
12 ; 4583486.236826862 ; 2.5500148232273594E8 ; 5.472693498383693E7 ; 2.682949593660389E9 ; 4273.679999999999
13 ; 4587733.255412744 ; 2.6271894559254503E8 ; 5.9310421220663786E7 ; 2.9379510759831247E9 ; 4629.82
14 ; 4589925.365910856 ; 2.710542441133551E8 ; 6.389815447607653E7 ; 3.20067002157567E9 ; 4985.96
15 ; 4592254.527735834 ; 2.8000736422879636E8 ; 6.848807984198739E7 ; 3.471724265689025E9 ; 5342.1
16 ; 4596530.956825126 ; 2.8957828918145144E8 ; 7.308033436972322E7 ; 3.7517316299178214E9 ; 5698.240000000001
17 ; 4600962.74750198 ; 2.9976699962771E8 ; 7.767686532654834E7 ; 4.0413099190992727E9 ; 6054.380000000001
18 ; 4603124.34980227 ; 3.1057347418621814E8 ; 8.227782807405032E7 ; 4.341076918726983E9 ; 6410.520000000001
19 ; 4607188.238139723 ; 3.2199768998815644E8 ; 8.68809524238526E7 ; 4.651650392913201E9 ; 6766.660000000002
20 ; 4608345.147761431 ; 3.3403962320244014E8 ; 9.148814066199231E7 ; 4.973648082901358E9 ; 7122.800000000002
21 ; 4612813.808037494 ; 3.466992495153917E8 ; 9.609648580975375E7 ; 5.307687706103798E9 ; 7478.940000000002
22 ; 4615013.027080937 ; 3.599765445513556E8 ; 1.0070929961779124E8 ; 5.654386955619189E9 ; 7835.080000000003
23 ; 4618502.852597928 ; 3.7387148422725105E8 ; 1.0532431264487217E8 ; 6.014363500170545E9 ; 8191.220000000003
24 ; 4623742.388694326 ; 3.883840450395516E8 ; 1.099428154974701E8 ; 6.388234984397796E9 ; 8547.360000000002
25 ; 4626530.725566065 ; 4.008902860827706E8 ; 1.1456655788616443E8 ; 6.776619029437347E9 ; 8903.500000000002
26 ; 4628650.56596637 ; 4.0089728128608906E8 ; 1.1919308861173049E8 ; 7.177509315520118E9 ; 9259.640000000001
27 ; 4633793.267824109 ; 4.0090454857398814E8 ; 1.2382173917769685E8 ; 7.578406596806207E9 ; 9615.78
28 ; 4635284.255055956 ; 4.009120684265768E8 ; 1.2845553244552097E8 ; 7.979311145380195E9 ; 9971.92
29 ; 4636418.877124523 ; 4.009198224967811E8 ; 1.3309081670057692E8 ; 8.380223213806771E9 ; 10328.06
30 ; 4639802.305019078 ; 4.00927793612414E8 ; 1.3772723557770145E8 ; 8.781143036303553E9 ; 10684.199999999999
31 ; 4642159.562160894 ; 4.0093596575628406E8 ; 1.4236703788272053E8 ; 9.182070829915966E9 ; 11040.339999999998
32 ; 4644650.981952354 ; 4.0094432403009355E8 ; 1.4700919744488144E8 ; 9.58300679567225E9 ; 11396.479999999998
33 ; 4647729.06377724 ; 4.00952854606932E8 ; 1.516538484268338E8 ; 9.983951119702345E9 ; 11752.619999999997
34 ; 4649026.394515393 ; 4.009615446762774E8 ; 1.5630157749061105E8 ; 1.0384903974309277E10 ; 12108.759999999997
35 ; 4653094.101114017 ; 4.009703823846094E8 ; 1.6095060388512644E8 ; 1.0785865518985554E10 ; 12464.899999999996
36 ; 4653424.0364531595 ; 4.00979356774035E8 ; 1.6560369798624045E8 ; 1.1186835901370163E10 ; 12821.039999999995
37 ; 4656522.771091513 ; 4.009884577207407E8 ; 1.702571220226936E8 ; 1.1587815258144197E10 ; 13177.179999999995
38 ; 4657838.674377352 ; 4.009976758745947E8 ; 1.7491364479378513E8 ; 1.1988803715864939E10 ; 13533.319999999994
39 ; 4661457.4701147415 ; 4.010070026008358E8 ; 1.7957148346816248E8 ; 1.2389801391739532E10 ; 13889.459999999994
40 ; 4663333.472434259 ; 4.010164299244758E8 ; 1.842329409382772E8 ; 1.2790808394340368E10 ; 14245.599999999993
41 ; 4664874.724343261 ; 4.0102595047780454E8 ; 1.8889627441071147E8 ; 1.3191824824264845E10 ; 14601.739999999993
42 ; 4665240.5998483 ; 4.0103555745120656E8 ; 1.9356114913505474E8 ; 1.359285077474265E10 ; 14957.879999999992
43 ; 4667907.83762373 ; 4.0104524454736245E8 ; 1.9822638973490304E8 ; 1.3993886332193855E10 ; 15314.019999999991
44 ; 4668595.076392598 ; 4.0105500593881184E8 ; 2.0289429757252675E8 ; 1.4394931576741219E10 ; 15670.15999999999
45 ; 4669896.183506614 ; 4.010648362287873E8 ; 2.0756289264891934E8 ; 1.479598658268003E10 ; 16026.29999999999
46 ; 4673767.757683336 ; 4.0107473041517866E8 ; 2.1223278883242595E8 ; 1.5197051418908817E10 ; 16382.43999999999
47 ; 4675193.0667098 ; 4.010846838574628E8 ; 2.169065565901093E8 ; 1.5598126149323996E10 ; 16738.57999999999
48 ; 4677951.040089917 ; 4.010946922464131E8 ; 2.2158174965681908E8 ; 1.5999210833181458E10 ; 17094.71999999999
49 ; 4679220.989479652 ; 4.011047515763978E8 ; 2.2625970069690898E8 ; 1.640030552542787E10 ; 17450.85999999999
50 ; 4678366.462175687 ; 4.0111485812007564E8 ; 2.3093892168638864E8 ; 1.6801410277004267E10 ; 17806.99999999999
51 ; 4678725.446847042 ; 4.011250084053008E8 ; 2.3561728814856434E8 ; 1.7202525135124344E10 ; 18163.13999999999
52 ; 4679574.681424557 ; 4.011351991940559E8 ; 2.402960135954114E8 ; 1.7603650143529644E10 ; 18519.279999999988
53 ; 4680799.095475243 ; 4.011454274632432E8 ; 2.4497558827683595E8 ; 1.80047853427237E10 ; 18875.419999999987
54 ; 4682698.509340355 ; 4.011556903871723E8 ; 2.496563873723112E8 ; 1.8405930770186943E10 ; 19231.559999999987
55 ; 4681738.767981589 ; 4.0116598532159495E8 ; 2.5433908588165155E8 ; 1.8807086460574116E10 ; 19587.699999999986
56 ; 4683607.305166077 ; 4.011763097891491E8 ; 2.5902082464963314E8 ; 1.920825244589571E10 ; 19943.839999999986
57 ; 4681807.311234004 ; 4.0118666146608394E8 ; 2.637044319547992E8 ; 1.960942875568486E10 ; 20299.979999999985
58 ; 4683344.124497512 ; 4.0119703817015004E8 ; 2.683862392660332E8 ; 2.0010615417150944E10 ; 20656.119999999984
59 ; 4687609.816021903 ; 4.0120743784954685E8 ; 2.730695833905307E8 ; 2.0411812455321095E10 ; 21012.259999999984
60 ; 4687411.010119138 ; 4.0121785857283163E8 ; 2.777571932065526E8 ; 2.0813019893170643E10 ; 21368.399999999983
61 ; 4687840.902410498 ; 4.012282985196998E8 ; 2.8244460421667176E8 ; 2.1214237751743473E10 ; 21724.539999999983
62 ; 4687217.516528808 ; 4.012387559725574E8 ; 2.871324451190823E8 ; 2.1615466050263172E10 ; 22080.679999999982
63 ; 4689922.599035032 ; 4.012492293088126E8 ; 2.9181966263561106E8 ; 2.201670480623573E10 ; 22436.81999999998
64 ; 4687580.377754688 ; 4.012597169938198E8 ; 2.965095852346461E8 ; 2.241795403554454E10 ; 22792.95999999998
65 ; 4691412.947262929 ; 4.012702175744171E8 ; 3.0119716561240077E8 ; 2.281921375253836E10 ; 23149.09999999998
66 ; 4691346.717769976 ; 4.012807296730027E8 ; 3.058885785596637E8 ; 2.3220483970112778E10 ; 23505.23999999998
67 ; 4693584.885499795 ; 4.012912519821013E8 ; 3.105799252774337E8 ; 2.362176469978578E10 ; 23861.37999999998
68 ; 4693629.433141458 ; 4.013017832593762E8 ; 3.1527351016293347E8 ; 2.4023055951767883E10 ; 24217.51999999998
69 ; 4693150.504097516 ; 4.0131232232304704E8 ; 3.1996713959607494E8 ; 2.442435773502726E10 ; 24573.659999999978
70 ; 4693611.922870496 ; 4.0132286804767704E8 ; 3.2466029010017246E8 ; 2.4825670057350307E10 ; 24929.799999999977
71 ; 4696518.469809704 ; 4.0133341936029714E8 ; 3.29353902023043E8 ; 2.5226992925397984E10 ; 25285.939999999977
72 ; 4691676.845928384 ; 4.013439752368367E8 ; 3.340504204928527E8 ; 2.562832634475828E10 ; 25642.079999999976
73 ; 4693163.670894273 ; 4.013545346988342E8 ; 3.3874209733878106E8 ; 2.6029670319995117E10 ; 25998.219999999976
74 ; 4693802.396503111 ; 4.013650968104041E8 ; 3.434352610096753E8 ; 2.643102485469395E10 ; 26354.359999999975
75 ; 4694324.073222716 ; 4.0137566067543745E8 ; 3.481290634061784E8 ; 2.6832389951504356E10 ; 26710.499999999975
76 ; 4694149.260315847 ; 4.0138622543501496E8 ; 3.528233874794011E8 ; 2.7233765612179794E10 ; 27066.639999999974
77 ; 4694014.334107245 ; 4.013967902650174E8 ; 3.5751753673971695E8 ; 2.763515183761481E10 ; 27422.779999999973
78 ; 4694746.724121576 ; 4.014073543739135E8 ; 3.6221155107382417E8 ; 2.803654862787983E10 ; 27778.919999999973
79 ; 4692798.5964252865 ; 4.0141791700071275E8 ; 3.6690629779794574E8 ; 2.8437955982253742E10 ; 28135.059999999972
80 ; 4692944.691981311 ; 4.014284774130684E8 ; 3.7159909639437103E8 ; 2.8839373899254456E10 ; 28491.19999999997
81 ; 4694659.628725022 ; 4.0143903490551853E8 ; 3.7629204108635235E8 ; 2.9240802376667522E10 ; 28847.33999999997
82 ; 4694920.755004573 ; 4.014495887978538E8 ; 3.809867007150774E8 ; 2.964224141157304E10 ; 29203.47999999997
83 ; 4693898.650420111 ; 4.0146013843360245E8 ; 3.85681621470082E8 ; 3.0043691000370895E10 ; 29559.61999999997
84 ; 4691745.522722488 ; 4.0147068317862177E8 ; 3.903755201205021E8 ; 3.0445151138804497E10 ; 29915.75999999997
85 ; 4693437.501677442 ; 4.014812224197885E8 ; 3.950672656432246E8 ; 3.084662182198312E10 ; 30271.89999999997
86 ; 4693681.84554287 ; 4.0149175556378055E8 ; 3.9976070314490205E8 ; 3.124810304440291E10 ; 30628.039999999968
87 ; 4693687.5681106625 ; 4.0150228203594214E8 ; 4.044543849904449E8 ; 3.164959479996669E10 ; 30984.179999999968
88 ; 4691904.376255873 ; 4.015128012792264E8 ; 4.0914807255855554E8 ; 3.2051097082002632E10 ; 31340.319999999967
89 ; 4692181.966119888 ; 4.015233127532096E8 ; 4.138399769348114E8 ; 3.245260988328186E10 ; 31696.459999999966
90 ; 4691526.187160452 ; 4.015338159331708E8 ; 4.185321589009313E8 ; 3.285413319603507E10 ; 32052.599999999966
91 ; 4692804.761741116 ; 4.0154431030923355E8 ; 4.2322368508809173E8 ; 3.325566701196824E10 ; 32408.739999999965
92 ; 4690867.702151537 ; 4.015547953855627E8 ; 4.2791648984983283E8 ; 3.3657211322277473E10 ; 32764.879999999965
93 ; 4689472.958944084 ; 4.0156527067961454E8 ; 4.3260735755198437E8 ; 3.4058766117663036E10 ; 33121.01999999997
94 ; 4690614.096364659 ; 4.0157573572143483E8 ; 4.3729683051092845E8 ; 3.446033138834265E10 ; 33477.15999999997
95 ; 4688640.207238256 ; 4.0158619005300194E8 ; 4.419874446072931E8 ; 3.486190712406409E10 ; 33833.29999999997
96 ; 4686600.462633304 ; 4.0159663322761154E8 ; 4.466760848145314E8 ; 3.526349331411709E10 ; 34189.439999999966
97 ; 4685338.724138312 ; 4.0160706480929995E8 ; 4.513626852771647E8 ; 3.5665089947344696E10 ; 34545.579999999965
98 ; 4684859.7608100865 ; 4.0161748437230355E8 ; 4.56048024001303E8 ; 3.6066697012154E10 ; 34901.719999999965
99 ; 4684787.624998066 ; 4.016278915005513E8 ; 4.607328837621131E8 ; 3.6468314496526306E10 ; 35257.859999999964
100 ; 4683372.560120302 ; 4.0163828578718865E8 ; 4.654176713871112E8 ; 3.6869942388026855E10 ; 35613.99999999996
101 ; 4682897.310786579 ; 4.016486668341303E8 ; 4.701010439472315E8 ; 3.727158067381404E10 ; 35970.13999999996
102 ; 4683019.554203758 ; 4.016590342516397E8 ; 4.747839412580181E8 ; 3.767322934064817E10 ; 36326.27999999996
103 ; 4682555.545115305 ; 4.016693876579338E8 ; 4.794669608122218E8 ; 3.807488837489981E10 ; 36682.41999999996
104 ; 4681469.498142225 ; 4.016797266788111E8 ; 4.841495163573371E8 ; 3.847655776255775E10 ; 37038.55999999996
105 ; 4681191.260517143 ; 4.0169005094730175E8 ; 4.8883098585547936E8 ; 3.887823748923656E10 ; 37394.69999999996
106 ; 4678676.997300347 ; 4.017003601033379E8 ; 4.935121771159965E8 ; 3.927992754018386E10 ; 37750.83999999996
107 ; 4679621.485982253 ; 4.017106537934431E8 ; 4.981908541132968E8 ; 3.96816279002872E10 ; 38106.97999999996
108 ; 4675352.379859652 ; 4.017209316704395E8 ; 5.0287047559927905E8 ; 4.008333855408064E10 ; 38463.11999999996
109 ; 4676299.206723704 ; 4.0173119339317155E8 ; 5.075458279791387E8 ; 4.048505948575108E10 ; 38819.25999999996
110 ; 4674047.77548493 ; 4.01741438626246E8 ; 5.1222212718586236E8 ; 4.088679067914426E10 ; 39175.39999999996
111 ; 4675567.803544774 ; 4.0175166703978515E8 ; 5.168961749613473E8 ; 4.12885321177705E10 ; 39531.53999999996
112 ; 4672288.679184202 ; 4.017618783091954E8 ; 5.2157174276489204E8 ; 4.169028378481029E10 ; 39887.67999999996
113 ; 4672228.105995695 ; 4.017720721149472E8 ; 5.2624403144407624E8 ; 4.2092045663119484E10 ; 40243.819999999956
114 ; 4667470.268907173 ; 4.0178224814236784E8 ; 5.3091625955007195E8 ; 4.249381773523443E10 ; 40599.959999999955
115 ; 4665693.086843292 ; 4.0179240608144534E8 ; 5.3558372981897914E8 ; 4.289559998337679E10 ; 40956.099999999955
116 ; 4666200.024066145 ; 4.018025456266428E8 ; 5.402494229058224E8 ; 4.329739238945824E10 ; 41312.239999999954
117 ; 4662866.268160407 ; 4.018126664767226E8 ; 5.449156229298885E8 ; 4.369919493508488E10 ; 41668.379999999954
118 ; 4664413.057338323 ; 4.018227683345804E8 ; 5.49578489198049E8 ; 4.41010076015616E10 ; 42024.51999999995
119 ; 4660369.342359558 ; 4.018328509070877E8 ; 5.542429022553873E8 ; 4.450283036989618E10 ; 42380.65999999995
120 ; 4660307.8704341715 ; 4.018429139049419E8 ; 5.589032715977468E8 ; 4.490466322080327E10 ; 42736.79999999995
121 ; 4658885.246707519 ; 4.018529570425259E8 ; 5.63563579468181E8 ; 4.530650613470821E10 ; 43092.93999999995
122 ; 4655572.133679929 ; 4.018629800377731E8 ; 5.682224647148886E8 ; 4.570835909175074E10 ; 43449.07999999995
123 ; 4655894.113764021 ; 4.018729826120405E8 ; 5.728780368485686E8 ; 4.611022207178851E10 ; 43805.21999999995
124 ; 4652275.399216158 ; 4.018829644899882E8 ; 5.775339309623326E8 ; 4.651209505440055E10 ; 44161.35999999995
125 ; 4649844.807011464 ; 4.018929253994643E8 ; 5.821862063615488E8 ; 4.691397801889054E10 ; 44517.49999999995
126 ; 4645459.538589955 ; 4.019028650713964E8 ; 5.868360511685603E8 ; 4.731587094429001E10 ; 44873.63999999995
127 ; 4645012.480476093 ; 4.0191278323968816E8 ; 5.914815107071502E8 ; 4.7717773809361404E10 ; 45229.77999999995
128 ; 4641668.832558412 ; 4.0192267964112127E8 ; 5.961265231876264E8 ; 4.811968659260109E10 ; 45585.91999999995
129 ; 4638025.698593763 ; 4.0193255401526165E8 ; 6.007681920201848E8 ; 4.852160927224221E10 ; 45942.05999999995
130 ; 4637383.206381916 ; 4.0194240610437125E8 ; 6.054062177187785E8 ; 4.892354182625747E10 ; 46298.199999999946
131 ; 4632368.56951282 ; 4.019522356533233E8 ; 6.100436009251604E8 ; 4.932548423236184E10 ; 46654.339999999946
132 ; 4629335.728527754 ; 4.019620424095222E8 ; 6.146759694946733E8 ; 4.972743646801516E10 ; 47010.479999999945
133 ; 4627126.692427205 ; 4.0197182612282705E8 ; 6.19305305223201E8 ; 5.012939851042468E10 ; 47366.619999999944
134 ; 4625775.707938332 ; 4.0198158654547894E8 ; 6.239324319156282E8 ; 5.053137033654751E10 ; 47722.759999999944
135 ; 4621332.213929229 ; 4.019913234320317E8 ; 6.285582076235665E8 ; 5.093335192309299E10 ; 48078.89999999994
136 ; 4623841.254417315 ; 4.020010365392861E8 ; 6.331795398374957E8 ; 5.133534324652502E10 ; 48435.03999999994
137 ; 4618498.634303188 ; 4.020107256262269E8 ; 6.37803381091913E8 ; 5.17373442830643E10 ; 48791.17999999994
138 ; 4617700.5272721425 ; 4.0202039045396316E8 ; 6.424218797262162E8 ; 5.213935500869053E10 ; 49147.31999999994
139 ; 4613581.675552178 ; 4.020300307856711E8 ; 6.470395802534883E8 ; 5.254137539914449E10 ; 49503.45999999994
140 ; 4609430.968016383 ; 4.0203964638653994E8 ; 6.516531619290404E8 ; 5.294340542993016E10 ; 49859.59999999994
141 ; 4607655.680241571 ; 4.0204923702371967E8 ; 6.562625928970568E8 ; 5.33454450763167E10 ; 50215.73999999994
142 ; 4603967.919786347 ; 4.0205880246627223E8 ; 6.608702485772984E8 ; 5.374749431334042E10 ; 50571.87999999994
143 ; 4603427.679916001 ; 4.0206834248512375E8 ; 6.654742164970847E8 ; 5.4149553115806694E10 ; 50928.01999999994
144 ; 4599979.56499597 ; 4.020778568530202E8 ; 6.700776441770008E8 ; 5.455162145829182E10 ; 51284.15999999994
145 ; 4598871.864693979 ; 4.02087345344484E8 ; 6.746776237419968E8 ; 5.495369931514484E10 ; 51640.29999999994
146 ; 4597448.502283003 ; 4.020968077357732E8 ; 6.792764956066908E8 ; 5.535578666048932E10 ; 51996.43999999994
147 ; 4597575.5563673135 ; 4.021062438048426E8 ; 6.838739441089737E8 ; 5.575788346822509E10 ; 52352.579999999936
148 ; 4593738.379465704 ; 4.021156533313062E8 ; 6.88471519665341E8 ; 5.615998971202993E10 ; 52708.719999999936
149 ; 4592122.366708772 ; 4.021250360964017E8 ; 6.930652580448067E8 ; 5.656210536536124E10 ; 53064.859999999935
150 ; 4593253.473096269 ; 4.021343918829564E8 ; 6.976573804115155E8 ; 5.696423040145764E10 ; 53420.999999999935
151 ; 4590355.903933568 ; 4.0214372047535473E8 ; 7.022506338846117E8 ; 5.73663647933406E10 ; 53777.139999999934
152 ; 4589344.232345485 ; 4.0215302165950716E8 ; 7.068409897885453E8 ; 5.7768508513815956E10 ; 54133.27999999993
153 ; 4588597.514030969 ; 4.021622952228206E8 ; 7.114303340208907E8 ; 5.8170661535475464E10 ; 54489.41999999993
154 ; 4587881.753848561 ; 4.021715409541701E8 ; 7.160189315349216E8 ; 5.857282383069829E10 ; 54845.55999999993
155 ; 4589418.815666919 ; 4.021807586438717E8 ; 7.206068132887702E8 ; 5.897499537165246E10 ; 55201.69999999993
156 ; 4587030.785063781 ; 4.0218994808365667E8 ; 7.251962321044371E8 ; 5.937717613029633E10 ; 55557.83999999993
157 ; 4585891.111199072 ; 4.0219910906664634E8 ; 7.297832628895009E8 ; 5.977936607837999E10 ; 55913.97999999993
158 ; 4585111.010549537 ; 4.022082413873292E8 ; 7.343691540006999E8 ; 6.018156518744663E10 ; 56270.11999999993
159 ; 4585237.266866986 ; 4.022173448415377E8 ; 7.389542650112494E8 ; 6.058377342883396E10 ; 56626.25999999993
160 ; 4583166.949093996 ; 4.0222641922642684E8 ; 7.435395022781165E8 ; 6.09859907736755E10 ; 56982.39999999993
161 ; 4580396.529854988 ; 4.022354643404534E8 ; 7.481226692272104E8 ; 6.1388217192901924E10 ; 57338.53999999993
162 ; 4577691.61971254 ; 4.022444799833565E8 ; 7.527030657570654E8 ; 6.179045265724238E10 ; 57694.67999999993
163 ; 4578020.541184961 ; 4.022534659561384E8 ; 7.57280757376778E8 ; 6.219269713722574E10 ; 58050.81999999993
164 ; 4575431.16266915 ; 4.022624220610465E8 ; 7.618587779179629E8 ; 6.259495060318188E10 ; 58406.95999999993
165 ; 4575280.244359713 ; 4.022713481015563E8 ; 7.664342090806321E8 ; 6.299721302524292E10 ; 58763.099999999926
166 ; 4572774.1958164275 ; 4.022802438823546E8 ; 7.710094893249918E8 ; 6.3399484373344475E10 ; 59119.239999999925
167 ; 4568033.084945359 ; 4.022891092093238E8 ; 7.755822635208082E8 ; 6.380176461722683E10 ; 59475.379999999925
168 ; 4569629.645268059 ; 4.02297943889527E8 ; 7.801502966057535E8 ; 6.420405372643615E10 ; 59831.519999999924
169 ; 4568082.81085415 ; 4.023067477311933E8 ; 7.847199262510216E8 ; 6.4606351670325676E10 ; 60187.65999999992
170 ; 4565055.903870918 ; 4.0231552054370403E8 ; 7.892880090618758E8 ; 6.500865841805687E10 ; 60543.79999999992
171 ; 4565676.298793855 ; 4.0232426213757974E8 ; 7.938530649657468E8 ; 6.541097393860057E10 ; 60899.93999999992
172 ; 4561131.317244764 ; 4.0233297232446754E8 ; 7.984187412645407E8 ; 6.581329820073815E10 ; 61256.07999999992
173 ; 4560951.32148202 ; 4.023416509171289E8 ; 8.029798725817854E8 ; 6.621563117306262E10 ; 61612.21999999992
174 ; 4562267.127131302 ; 4.023502977294283E8 ; 8.075408239032675E8 ; 6.661797282397975E10 ; 61968.35999999992
175 ; 4562545.4118344 ; 4.0235891257632184E8 ; 8.121030910303988E8 ; 6.702032312170918E10 ; 62324.49999999992
176 ; 4561989.231162642 ; 4.0236749527384746E8 ; 8.166656364422332E8 ; 6.742268203428551E10 ; 62680.63999999992
177 ; 4563752.561171363 ; 4.0237604563911396E8 ; 8.212276256733959E8 ; 6.782504952955936E10 ; 63036.77999999992
