CSV File for the Network on Day 234
1 - Minute m 
2 - Power Consumed at minute m 
3 - Power Produced at minute m 
4 - Energy Consumed since the beginning of the day 
5 - Energy Produced since the beginning of the day 
6 - Energy Lost since the beginning of the day 
 
No Production city : 2, Producer : 1
No Production city : 4, Producer : 1
No Production city : 4, Producer : 1
 
0 ; 28866.862953799664 ; 87497.01357492182 ; 0.0 ; 0.0 ; 0.0
1 ; 30622.3192143798 ; 86500.79877119254 ; 28866.862953799664 ; 87497.01357492182 ; 238.00000000000003
2 ; 32121.872413641177 ; 85560.58372470758 ; 59489.18216817947 ; 173997.81234611437 ; 476.00000000000006
3 ; 33803.65535442427 ; 84686.08333598386 ; 91611.05458182064 ; 259558.39607082197 ; 714.0000000000001
4 ; 35200.079636780356 ; 83888.42698795907 ; 125414.70993624491 ; 344244.4794068058 ; 952.0000000000001
5 ; 37133.97009903189 ; 83180.03584078616 ; 160614.78957302525 ; 428132.9063947649 ; 1190.0000000000002
6 ; 38859.53192610416 ; 82574.25563587234 ; 197748.75967205715 ; 511312.9422355511 ; 1428.0000000000002
7 ; 40408.75971292954 ; 82084.66140467621 ; 236608.2915981613 ; 593887.1978714234 ; 1666.0000000000002
8 ; 42195.70366828624 ; 81724.0024662392 ; 277017.0513110908 ; 675971.8592760996 ; 1904.0000000000002
9 ; 43544.62020011911 ; 81502.8707454742 ; 319212.75497937703 ; 757695.8617423387 ; 2142.0000000000005
10 ; 45639.25946381063 ; 81428.3311292767 ; 362757.3751794961 ; 839198.732487813 ; 2380.0000000000005
11 ; 46537.45484865423 ; 81502.8707454742 ; 408396.6346433068 ; 920627.0636170896 ; 2618.0000000000005
12 ; 48040.17698914344 ; 81724.0024662392 ; 454934.089491961 ; 1002129.9343625639 ; 2856.0000000000005
13 ; 49451.36832947848 ; 82084.66140467621 ; 502974.2664811044 ; 1083853.936828803 ; 3094.0000000000005
14 ; 51248.006390010225 ; 82574.25563587234 ; 552425.6348105829 ; 1165938.5982334793 ; 3332.0000000000005
15 ; 52718.02309177843 ; 83180.03584078616 ; 603673.6412005931 ; 1248512.8538693516 ; 3570.0000000000005
16 ; 53717.345180471326 ; 83888.42698795907 ; 656391.6642923715 ; 1331692.8897101376 ; 3808.0000000000005
17 ; 55352.60456193276 ; 84686.08333598386 ; 710109.0094728428 ; 1415581.3166980967 ; 4046.0000000000005
18 ; 56796.86622157019 ; 85560.58372470783 ; 765461.6140347755 ; 1500267.4000340805 ; 4284.000000000001
19 ; 58466.454684919 ; 86500.79877119254 ; 822258.4802563457 ; 1585827.9837587883 ; 4522.000000000001
20 ; 59673.58625380077 ; 87497.01357492182 ; 880724.9349412647 ; 1672328.7825299809 ; 4760.000000000001
21 ; 61067.58466204087 ; 88540.8947013824 ; 940398.5211950655 ; 1759825.7961049026 ; 4998.000000000001
22 ; 62144.959723271364 ; 89625.37280896699 ; 1001466.1058571064 ; 1848366.690806285 ; 5236.000000000001
23 ; 64008.54960573255 ; 90744.48974428729 ; 1063611.0655803778 ; 1937992.063615252 ; 5474.000000000001
24 ; 65002.39979502782 ; 91893.23962589943 ; 1127619.6151861104 ; 2028736.5533595392 ; 5712.000000000001
25 ; 66606.8087733185 ; 93067.41967406245 ; 1192622.0149811383 ; 2120629.792985439 ; 5950.000000000001
26 ; 67821.04958802831 ; 94263.49781154214 ; 1259228.8237544568 ; 2213697.2126595015 ; 6188.000000000001
27 ; 68331.79802874135 ; 95478.49901502334 ; 1327049.8733424852 ; 2307960.710471044 ; 6426.000000000001
28 ; 69253.97681022403 ; 96709.90975368954 ; 1395381.6713712264 ; 2403439.2094860673 ; 6664.000000000001
29 ; 71202.50731841005 ; 97955.59865011941 ; 1464635.6481814506 ; 2500149.119239757 ; 6902.000000000001
30 ; 72410.00704904408 ; 99213.75110265758 ; 1535838.1554998606 ; 2598104.717889876 ; 7140.000000000001
31 ; 73331.54210638613 ; 100482.81562804301 ; 1608248.1625489048 ; 2697318.4689925336 ; 7378.000000000001
32 ; 74786.03175912447 ; 101761.45989323725 ; 1681579.7046552908 ; 2797801.2846205765 ; 7616.000000000001
33 ; 75863.13560140858 ; 103048.53468321834 ; 1756365.7364144153 ; 2899562.744513814 ; 7854.000000000001
34 ; 76488.59075376957 ; 104343.04433424748 ; 1832228.8720158238 ; 3002611.279197032 ; 8092.000000000001
35 ; 77526.41501600614 ; 105644.12242084956 ; 1908717.4627695933 ; 3106954.3235312793 ; 8330.000000000002
36 ; 78752.1430818993 ; 106951.01170877242 ; 1986243.8777855996 ; 3212598.445952129 ; 8568.000000000002
37 ; 79698.56750956055 ; 108263.04757399611 ; 2064996.0208674988 ; 3319549.4576609014 ; 8806.000000000002
38 ; 80919.99453881584 ; 109579.64424224009 ; 2144694.5883770594 ; 3427812.5052348976 ; 9044.000000000002
39 ; 81771.0898417355 ; 110900.28332875879 ; 2225614.582915875 ; 3537392.1494771377 ; 9282.000000000002
40 ; 82635.71905383214 ; 112224.50425922578 ; 2307385.6727576107 ; 3648292.4328058967 ; 9520.000000000002
41 ; 83732.58606426104 ; 113551.89623355854 ; 2390021.391811443 ; 3760516.9370651226 ; 9758.000000000002
42 ; 84673.10721531585 ; 114882.09145942822 ; 2473753.977875704 ; 3874068.8332986813 ; 9996.000000000002
43 ; 86077.50668882251 ; 116214.75943413487 ; 2558427.08509102 ; 3988950.9247581097 ; 10234.000000000002
44 ; 86365.91926430757 ; 117549.60209510347 ; 2644504.5917798425 ; 4105165.6841922444 ; 10472.000000000002
45 ; 87429.5552409752 ; 118886.34969259833 ; 2730870.51104415 ; 4222715.286287348 ; 10710.000000000002
46 ; 88289.13649782297 ; 120224.75726502945 ; 2818300.0662851254 ; 4341601.635979946 ; 10948.000000000002
47 ; 89113.95709891459 ; 121564.60161879048 ; 2906589.2027829485 ; 4461826.393244975 ; 11186.000000000002
48 ; 89924.7638018941 ; 122905.67873197651 ; 2995703.1598818633 ; 4583390.994863765 ; 11424.000000000002
49 ; 90839.12461438446 ; 124247.80151542809 ; 3085627.9236837574 ; 4706296.673595741 ; 11662.000000000002
50 ; 91352.58988232032 ; 125590.79787599453 ; 3176467.048298142 ; 4830544.47511117 ; 11900.000000000002
51 ; 91791.16629021324 ; 126934.50903623851 ; 3267819.638180462 ; 4956135.272987165 ; 12138.000000000002
52 ; 93006.17351894564 ; 128278.78807242626 ; 3359610.8044706755 ; 5083069.782023403 ; 12376.000000000002
53 ; 93425.6414965505 ; 129623.49863889848 ; 3452616.977989621 ; 5211348.570095829 ; 12614.000000000002
54 ; 94122.64219529476 ; 130968.51385205748 ; 3546042.6194861713 ; 5340972.068734727 ; 12852.000000000002
55 ; 95013.73474521254 ; 132313.71531144972 ; 3640165.261681466 ; 5471940.582586784 ; 13090.000000000002
56 ; 95421.75564072236 ; 133658.9922389344 ; 3735178.9964266783 ; 5604254.297898234 ; 13328.000000000002
57 ; 96138.52118186669 ; 135004.24071984392 ; 3830600.7520674006 ; 5737913.290137168 ; 13566.000000000002
58 ; 96615.55833519019 ; 136349.36303247258 ; 3926739.273249267 ; 5872917.530857012 ; 13804.000000000002
59 ; 97021.5760456306 ; 137694.26705425917 ; 4023354.8315844573 ; 6009266.893889484 ; 14042.000000000002
60 ; 98356.93915777351 ; 139038.8657347279 ; 4120376.407630088 ; 6146961.160943743 ; 14280.000000000002
61 ; 98949.10568234156 ; 140383.0766266829 ; 4218733.346787862 ; 6286000.026678471 ; 14518.000000000002
62 ; 98780.73445241808 ; 141726.82146835525 ; 4317682.452470203 ; 6426383.103305154 ; 14756.000000000002
63 ; 99266.11375526649 ; 143070.02581021894 ; 4416463.186922621 ; 6568109.924773509 ; 14994.000000000002
64 ; 99851.9930477172 ; 144412.61868105442 ; 4515729.300677887 ; 6711179.950583728 ; 15232.000000000002
65 ; 100444.91149129804 ; 145754.5322885722 ; 4615581.293725604 ; 6855592.569264783 ; 15470.000000000002
66 ; 100860.81479140562 ; 147095.70175053165 ; 4716026.205216902 ; 7001347.101553354 ; 15708.000000000002
67 ; 101520.39085236013 ; 148436.06485282333 ; 4816887.020008308 ; 7148442.803303886 ; 15946.000000000002
68 ; 101667.03450955088 ; 149775.56183144133 ; 4918407.410860668 ; 7296878.86815671 ; 16184.000000000002
69 ; 101859.8981394293 ; 151114.13517566028 ; 5020074.445370219 ; 7446654.429988151 ; 16422.000000000004
70 ; 102471.7266387404 ; 152451.72945007103 ; 5121934.343509648 ; 7597768.565163812 ; 16660.000000000004
71 ; 102554.10253530188 ; 153788.29113341885 ; 5224406.070148388 ; 7750220.294613883 ; 16898.000000000004
72 ; 103462.18519691078 ; 155123.76847243664 ; 5326960.17268369 ; 7904008.585747302 ; 17136.000000000004
73 ; 103764.88130822405 ; 156458.1113490861 ; 5430422.357880601 ; 8059132.354219738 ; 17374.000000000004
74 ; 103663.61806985967 ; 157791.27115980565 ; 5534187.239188825 ; 8215590.465568825 ; 17612.000000000004
75 ; 103620.07982418122 ; 159123.20070552797 ; 5637850.857258684 ; 8373381.73672863 ; 17850.000000000004
76 ; 103977.30589602834 ; 160453.8540913739 ; 5741470.937082865 ; 8532504.937434157 ; 18088.000000000004
77 ; 104456.8761639524 ; 161783.18663505302 ; 5845448.242978893 ; 8692958.791525532 ; 18326.000000000004
78 ; 104333.41727637462 ; 163111.1547831094 ; 5949905.119142845 ; 8854741.978160584 ; 18564.000000000004
79 ; 105078.26456439575 ; 164437.7160342486 ; 6054238.53641922 ; 9017853.132943694 ; 18802.000000000004
80 ; 105557.26851430559 ; 165762.82886906317 ; 6159316.800983616 ; 9182290.848977942 ; 19040.000000000004
81 ; 105412.18564670086 ; 167086.45268554924 ; 6264874.0694979215 ; 9348053.677847005 ; 19278.000000000004
82 ; 105607.24996013047 ; 168408.54773987105 ; 6370286.255144622 ; 9515140.130532555 ; 19516.000000000004
83 ; 105295.89345710097 ; 169729.0750918872 ; 6475893.505104752 ; 9683548.678272426 ; 19754.000000000004
84 ; 105637.10580209953 ; 171047.99655500348 ; 6581189.398561853 ; 9853277.753364313 ; 19992.000000000004
85 ; 105632.61512405636 ; 172365.27464996115 ; 6686826.504363952 ; 1.0024325749919318E7 ; 20230.000000000004
86 ; 106100.51259617787 ; 173680.8725622102 ; 6792459.119488008 ; 1.0196691024569279E7 ; 20468.000000000004
87 ; 105774.24767874097 ; 174994.75410255112 ; 6898559.632084186 ; 1.037037189713149E7 ; 20706.000000000004
88 ; 105910.57335114697 ; 176306.88367076078 ; 7004333.879762927 ; 1.054536665123404E7 ; 20944.000000000004
89 ; 105823.2427718796 ; 177617.22622194595 ; 7110244.453114074 ; 1.07216735349048E7 ; 21182.000000000004
90 ; 106067.79630155228 ; 178925.74723539225 ; 7216067.6958859535 ; 1.0899290761126745E7 ; 21420.000000000004
91 ; 105917.17772504344 ; 180232.41268569842 ; 7322135.492187506 ; 1.1078216508362139E7 ; 21658.000000000004
92 ; 105634.51870213478 ; 181537.18901600738 ; 7428052.669912549 ; 1.1258448921047837E7 ; 21896.000000000004
93 ; 105347.74958774331 ; 182840.04311316015 ; 7533687.188614683 ; 1.1439986110063843E7 ; 22134.000000000004
94 ; 105672.37120191034 ; 184140.94228461763 ; 7639034.938202427 ; 1.1622826153177004E7 ; 22372.000000000004
95 ; 104808.28034870101 ; 185439.85423700805 ; 7744707.309404337 ; 1.1806967095461622E7 ; 22610.000000000004
96 ; 104887.05860518708 ; 186736.74705617066 ; 7849515.589753038 ; 1.199240694969863E7 ; 22848.000000000004
97 ; 104812.67779668194 ; 188031.58918857813 ; 7954402.648358225 ; 1.2179143696754802E7 ; 23086.000000000004
98 ; 105016.43767827096 ; 189324.34942403095 ; 8059215.326154907 ; 1.236717528594338E7 ; 23324.000000000004
99 ; 104774.72086099206 ; 190614.9968795255 ; 8164231.763833178 ; 1.255649963536741E7 ; 23562.000000000004
100 ; 104349.29138269581 ; 191903.50098420668 ; 8269006.48469417 ; 1.2747114632246936E7 ; 23800.000000000004
101 ; 104246.42165924447 ; 193189.8314653235 ; 8373355.776076865 ; 1.2939018133231143E7 ; 24038.000000000004
102 ; 104198.78107010998 ; 194473.9583351129 ; 8477602.19773611 ; 1.3132207964696467E7 ; 24276.000000000004
103 ; 103339.74932202796 ; 195755.85187854304 ; 8581800.97880622 ; 1.332668192303158E7 ; 24514.000000000004
104 ; 103052.59297150442 ; 197035.48264185368 ; 8685140.728128249 ; 1.3522437774910122E7 ; 24752.000000000004
105 ; 103080.18223537038 ; 198312.82142183586 ; 8788193.321099753 ; 1.3719473257551976E7 ; 24990.000000000004
106 ; 102877.08228058933 ; 199587.83925579794 ; 8891273.503335122 ; 1.3917786078973811E7 ; 25228.000000000004
107 ; 102356.7029146432 ; 200860.50741216942 ; 8994150.585615711 ; 1.411737391822961E7 ; 25466.000000000004
108 ; 101788.26719105574 ; 202130.79738169772 ; 9096507.288530355 ; 1.4318234425641779E7 ; 25704.000000000004
109 ; 101664.46018456873 ; 203398.68086919663 ; 9198295.555721411 ; 1.4520365223023476E7 ; 25942.000000000004
110 ; 100870.36401021856 ; 204664.12978580865 ; 9299960.01590598 ; 1.4723763903892674E7 ; 26180.000000000004
111 ; 100439.39741949251 ; 205927.11624174615 ; 9400830.379916199 ; 1.4928428033678481E7 ; 26418.000000000004
112 ; 100403.18555024976 ; 207187.61253947866 ; 9501269.77733569 ; 1.5134355149920227E7 ; 26656.000000000004
113 ; 99568.47523136006 ; 208445.59116733674 ; 9601672.96288594 ; 1.5341542762459707E7 ; 26894.000000000004
114 ; 99085.39670732759 ; 209701.02479350468 ; 9701241.438117301 ; 1.5549988353627043E7 ; 27132.000000000004
115 ; 98874.27093686978 ; 210953.88626037663 ; 9800326.83482463 ; 1.5759689378420547E7 ; 27370.000000000004
116 ; 98037.45135956703 ; 212204.1485792522 ; 9899201.105761498 ; 1.5970643264680924E7 ; 27608.000000000004
117 ; 97564.98441289838 ; 213451.78492534967 ; 9997238.557121065 ; 1.6182847413260177E7 ; 27846.000000000004
118 ; 97574.56385352404 ; 214696.7686331166 ; 1.0094803541533964E7 ; 1.6396299198185526E7 ; 28084.000000000004
119 ; 96812.42983156315 ; 215939.07319181898 ; 1.0192378105387488E7 ; 1.6610995966818642E7 ; 28322.000000000004
120 ; 95704.15887443046 ; 217178.6722413913 ; 1.0289190535219051E7 ; 1.682693504001046E7 ; 28560.000000000004
121 ; 94893.98230629301 ; 218415.53956853095 ; 1.038489469409348E7 ; 1.704411371225185E7 ; 28798.000000000004
122 ; 94568.39125121509 ; 219649.64910302262 ; 1.0479788676399773E7 ; 1.726252925182038E7 ; 29036.000000000004
123 ; 93650.85829277198 ; 220880.9749142778 ; 1.0574357067650989E7 ; 1.7482178900923405E7 ; 29274.000000000004
124 ; 93454.77869684096 ; 222109.49120807654 ; 1.066800792594376E7 ; 1.7703059875837684E7 ; 29512.000000000004
125 ; 92152.89871864869 ; 223335.17232349966 ; 1.07614627046406E7 ; 1.792516936704576E7 ; 29750.000000000004
126 ; 92104.02479863496 ; 224557.99273003917 ; 1.085361560335925E7 ; 1.814850453936926E7 ; 29988.000000000004
127 ; 90855.56632501748 ; 225777.92702487716 ; 1.0945719628157886E7 ; 1.83730625320993E7 ; 30226.000000000004
128 ; 90249.75332541566 ; 226994.94993032268 ; 1.1036575194482904E7 ; 1.8598840459124178E7 ; 30464.000000000004
129 ; 89346.2564303367 ; 228209.03629139753 ; 1.112682494780832E7 ; 1.88258354090545E7 ; 30702.000000000004
130 ; 88083.39806258092 ; 229420.16107356243 ; 1.1216171204238657E7 ; 1.9054044445345897E7 ; 30940.000000000004
131 ; 88102.27238597283 ; 230628.29936057533 ; 1.1304254602301238E7 ; 1.928346460641946E7 ; 31178.000000000004
132 ; 86928.68204547283 ; 231833.42635247405 ; 1.1392356874687212E7 ; 1.9514092905780036E7 ; 31416.000000000004
133 ; 85988.42329015085 ; 233035.5173636771 ; 1.1479285556732684E7 ; 1.974592633213251E7 ; 31654.000000000004
134 ; 85267.17107430207 ; 234234.54782119466 ; 1.1565273980022835E7 ; 1.997896184949619E7 ; 31892.000000000004
135 ; 84147.7717012807 ; 235430.49326294483 ; 1.1650541151097137E7 ; 2.0213196397317383E7 ; 32130.000000000004
136 ; 82923.4354727955 ; 236623.32933616865 ; 1.1734688922798418E7 ; 2.044862689058033E7 ; 32368.000000000004
137 ; 82453.44587596477 ; 237813.03179593812 ; 1.1817612358271213E7 ; 2.06852502199165E7 ; 32606.000000000004
138 ; 81458.55312067218 ; 238999.57650375314 ; 1.1900065804147178E7 ; 2.0923063251712438E7 ; 32844.00000000001
139 ; 80686.53489140404 ; 240182.93942622162 ; 1.1981524357267851E7 ; 2.116206282821619E7 ; 33082.00000000001
140 ; 79543.80899107845 ; 241363.09663381852 ; 1.2062210892159255E7 ; 2.1402245767642412E7 ; 33320.00000000001
141 ; 78480.53451621677 ; 242540.0242997197 ; 1.2141754701150334E7 ; 2.164360886427623E7 ; 33558.00000000001
142 ; 77398.19815916326 ; 243713.69869870652 ; 1.222023523566655E7 ; 2.188614888857595E7 ; 33796.00000000001
143 ; 76697.95751518637 ; 244884.09620613747 ; 1.2297633433825715E7 ; 2.2129862587274656E7 ; 34034.00000000001
144 ; 75340.28357193619 ; 246051.19329698305 ; 1.23743313913409E7 ; 2.237474668348079E7 ; 34272.00000000001
145 ; 75200.5808514362 ; 247214.9665449211 ; 1.2449671674912836E7 ; 2.2620797876777776E7 ; 34510.00000000001
146 ; 74746.36076435074 ; 248375.3926214887 ; 1.2524872255764272E7 ; 2.2868012843322698E7 ; 34748.00000000001
147 ; 74521.73710727175 ; 249532.44829528828 ; 1.2599618616528623E7 ; 2.3116388235944185E7 ; 34986.00000000001
148 ; 74151.79463346419 ; 250686.11043124547 ; 1.2674140353635894E7 ; 2.3365920684239473E7 ; 35224.00000000001
149 ; 74246.63250504422 ; 251836.3559899146 ; 1.2748292148269359E7 ; 2.361660679467072E7 ; 35462.00000000001
150 ; 73543.0531240963 ; 252983.1620268311 ; 1.2822538780774403E7 ; 2.3868443150660634E7 ; 35700.00000000001
151 ; 73591.05473763793 ; 254126.50569190757 ; 1.28960818338985E7 ; 2.4121426312687464E7 ; 35938.00000000001
152 ; 73403.10164019123 ; 255266.36422887116 ; 1.2969672888636138E7 ; 2.4375552818379372E7 ; 36176.00000000001
153 ; 73022.55727887519 ; 256402.71497474072 ; 1.304307599027633E7 ; 2.4630819182608243E7 ; 36414.00000000001
154 ; 72851.44024160596 ; 257535.53535934148 ; 1.3116098547555204E7 ; 2.4887221897582985E7 ; 36652.00000000001
155 ; 72253.16342841688 ; 258664.80290485526 ; 1.318894998779681E7 ; 2.5144757432942327E7 ; 36890.00000000001
156 ; 72510.7764980125 ; 259790.49522540474 ; 1.3261203151225226E7 ; 2.5403422235847183E7 ; 37128.00000000001
157 ; 71891.47961437266 ; 260912.5900266698 ; 1.3333713927723238E7 ; 2.5663212731072586E7 ; 37366.00000000001
158 ; 71527.77328421999 ; 262031.0651055346 ; 1.3405605407337612E7 ; 2.5924125321099255E7 ; 37604.00000000001
159 ; 70932.54384185985 ; 263145.89834976394 ; 1.347713318062183E7 ; 2.618615638620479E7 ; 37842.00000000001
160 ; 71294.97088883098 ; 264257.06773770717 ; 1.354806572446369E7 ; 2.6449302284554556E7 ; 38080.00000000001
161 ; 70789.26370718027 ; 265364.55133802845 ; 1.361936069535252E7 ; 2.6713559352292262E7 ; 38318.00000000001
162 ; 70070.51301764946 ; 266468.3273094624 ; 1.36901499590597E7 ; 2.697892390363029E7 ; 38556.00000000001
163 ; 69833.89587751552 ; 267568.37390059367 ; 1.376022047207735E7 ; 2.7245392230939753E7 ; 38794.00000000001
164 ; 69480.16808431435 ; 268664.6694496585 ; 1.3830054367954865E7 ; 2.7512960604840346E7 ; 39032.00000000001
165 ; 68611.67698125023 ; 269757.19238436915 ; 1.389953453603918E7 ; 2.7781625274290003E7 ; 39270.00000000001
166 ; 68477.96880043003 ; 270845.92122175824 ; 1.3968146213020429E7 ; 2.8051382466674373E7 ; 39508.00000000001
167 ; 68366.16562797793 ; 271930.8345680428 ; 1.4036624181820858E7 ; 2.832222838789613E7 ; 39746.00000000001
168 ; 68712.28505097699 ; 273011.91111850715 ; 1.4104990347448837E7 ; 2.8594159222464174E7 ; 39984.00000000001
169 ; 67912.67654365912 ; 274089.1296574036 ; 1.4173702632499814E7 ; 2.886717113358268E7 ; 40222.00000000001
170 ; 67419.70440723443 ; 275162.46905787045 ; 1.4241615309043473E7 ; 2.9141260263240084E7 ; 40460.00000000001
171 ; 66646.28667504908 ; 276231.90828186524 ; 1.4309035013450706E7 ; 2.9416422732297953E7 ; 40698.00000000001
172 ; 66644.59073633455 ; 277297.4263801149 ; 1.4375681300125755E7 ; 2.969265464057982E7 ; 40936.00000000001
173 ; 66526.6043476183 ; 278359.00249207916 ; 1.444232589086209E7 ; 2.9969952066959936E7 ; 41174.00000000001
174 ; 66326.52480033926 ; 279416.6158459288 ; 1.4508852495209709E7 ; 3.0248311069452014E7 ; 41412.00000000001
175 ; 66548.95061485821 ; 280470.24575853726 ; 1.4575179020010049E7 ; 3.0527727685297944E7 ; 41650.00000000001
176 ; 66716.72255544929 ; 281519.8716354845 ; 1.4641727970624907E7 ; 3.080819793105648E7 ; 41888.00000000001
177 ; 67068.91146494962 ; 282565.4729710736 ; 1.4708444693180356E7 ; 3.1089717802691966E7 ; 42126.00000000001
178 ; 67422.69362473418 ; 283607.02934835793 ; 1.4775513604645306E7 ; 3.137228327566304E7 ; 42364.00000000001
179 ; 67385.16025391992 ; 284644.520439181 ; 1.4842936298270041E7 ; 3.16558903050114E7 ; 42602.00000000001
180 ; 67662.47189950995 ; 285677.92600422516 ; 1.491032145852396E7 ; 3.194053482545058E7 ; 42840.00000000001
181 ; 67708.10317335677 ; 286707.2258930709 ; 1.497798393042347E7 ; 3.2226212751454804E7 ; 43078.00000000001
182 ; 67980.34590749089 ; 287732.4000442662 ; 1.5045692033596827E7 ; 3.2512919977347873E7 ; 43316.00000000001
