CSV File for the Network on Day 274
1 - Minute m 
2 - Power Consumed at minute m 
3 - Power Produced at minute m 
4 - Energy Consumed since the beginning of the day 
5 - Energy Produced since the beginning of the day 
6 - Energy Lost since the beginning of the day 
 
No Production city : 2, Producer : 1
No Production city : 4, Producer : 1
No Production city : 4, Producer : 1
 
0 ; 43864.21907198588 ; 181782.09795522274 ; 0.0 ; 0.0 ; 0.0
1 ; 44832.9647185558 ; 181440.7646226843 ; 43864.21907198588 ; 181782.09795522274 ; 238.00000000000003
2 ; 46222.41785186606 ; 181134.4293896429 ; 88697.18379054168 ; 363222.86257790704 ; 476.00000000000006
3 ; 47478.29737956234 ; 180863.39695178432 ; 134919.60164240774 ; 544357.29196755 ; 714.0000000000001
4 ; 48964.47995706375 ; 180627.93956605118 ; 182397.89902197008 ; 725220.6889193342 ; 952.0000000000001
5 ; 50143.36796239068 ; 180428.2958165245 ; 231362.37897903382 ; 905848.6284853853 ; 1190.0000000000002
6 ; 51903.42650693581 ; 180264.66951621082 ; 281505.7469414245 ; 1086276.9243019097 ; 1428.0000000000002
7 ; 53162.00492372886 ; 180137.22875645442 ; 333409.1734483603 ; 1266541.5938181207 ; 1666.0000000000002
8 ; 54114.33530087085 ; 180046.10511431063 ; 386571.17837208917 ; 1446678.822574575 ; 1904.0000000000002
9 ; 55353.4976857014 ; 179991.39302663086 ; 440685.51367296 ; 1626724.9276888855 ; 2142.0000000000005
10 ; 56865.216967395936 ; 179973.1493378575 ; 496039.0113586614 ; 1806716.3207155163 ; 2380.0000000000005
11 ; 57849.05977920461 ; 179991.39302663086 ; 552904.2283260573 ; 1986689.4700533738 ; 2618.0000000000005
12 ; 59127.038973008515 ; 180046.10511431063 ; 610753.288105262 ; 2166680.8630800047 ; 2856.0000000000005
13 ; 60287.889635601045 ; 180137.22875645442 ; 669880.3270782705 ; 2346726.968194315 ; 3094.0000000000005
14 ; 61764.7729872139 ; 180264.66951621074 ; 730168.2167138716 ; 2526864.1969507695 ; 3332.0000000000005
15 ; 62183.30976064705 ; 180428.2958165245 ; 791932.9897010855 ; 2707128.8664669804 ; 3570.0000000000005
16 ; 64456.43537241509 ; 180627.93956605118 ; 854116.2994617325 ; 2887557.162283505 ; 3808.0000000000005
17 ; 64710.10044879797 ; 180863.39695178432 ; 918572.7348341476 ; 3068185.101849556 ; 4046.0000000000005
18 ; 65839.28834789128 ; 181134.4293896429 ; 983282.8352829455 ; 3249048.4988013403 ; 4284.000000000001
19 ; 66785.35035819699 ; 181440.7646226843 ; 1049122.1236308368 ; 3430182.9281909834 ; 4522.000000000001
20 ; 68321.42512965735 ; 181782.09795522282 ; 1115907.4739890338 ; 3611623.6928136675 ; 4760.000000000001
21 ; 69035.88268212834 ; 182158.0936099742 ; 1184228.8991186912 ; 3793405.79076889 ; 4998.000000000001
22 ; 69867.02316436768 ; 182568.38619441504 ; 1253264.7818008196 ; 3975563.8843788644 ; 5236.000000000001
23 ; 71093.04465144454 ; 183012.58226186482 ; 1323131.8049651873 ; 4158132.2705732794 ; 5474.000000000001
24 ; 72477.44760279237 ; 183490.26195235833 ; 1394224.8496166319 ; 4341144.852835144 ; 5712.000000000001
25 ; 73039.42285490688 ; 184000.9806981773 ; 1466702.2972194243 ; 4524635.114787502 ; 5950.000000000001
26 ; 73674.41773898962 ; 184544.27097894571 ; 1539741.7200743312 ; 4708636.09548568 ; 6188.000000000001
27 ; 75396.40744323796 ; 185119.6441114401 ; 1613416.1378133208 ; 4893180.366464625 ; 6426.000000000001
28 ; 76037.69812519796 ; 185726.59205971364 ; 1688812.5452565588 ; 5078300.010576066 ; 6664.000000000001
29 ; 76692.42644990387 ; 186364.5892517552 ; 1764850.2433817568 ; 5264026.602635779 ; 6902.000000000001
30 ; 77933.58035292866 ; 187033.09438967597 ; 1841542.6698316606 ; 5450391.191887534 ; 7140.000000000001
31 ; 78595.5758119843 ; 187731.55224131176 ; 1919476.2501845893 ; 5637424.28627721 ; 7378.000000000001
32 ; 79048.20399027807 ; 188459.39540212898 ; 1998071.8259965735 ; 5825155.838518522 ; 7616.000000000001
33 ; 80279.85268557667 ; 189216.04601738305 ; 2077120.0299868516 ; 6013615.233920651 ; 7854.000000000001
34 ; 80956.50562581398 ; 190000.91745559894 ; 2157399.882672428 ; 6202831.279938034 ; 8092.000000000001
35 ; 81795.93289475238 ; 190813.41592557693 ; 2238356.3882982424 ; 6392832.1973936325 ; 8330.000000000002
36 ; 82237.30724412482 ; 191652.94203026875 ; 2320152.3211929947 ; 6583645.61331921 ; 8568.000000000002
37 ; 83485.12141767422 ; 192518.8922519886 ; 2402389.6284371195 ; 6775298.5553494785 ; 8806.000000000002
38 ; 84399.26316858575 ; 193410.66036451457 ; 2485874.749854794 ; 6967817.447601467 ; 9044.000000000002
39 ; 85331.69942496404 ; 194327.6387686709 ; 2570274.0130233797 ; 7161228.107965982 ; 9282.000000000002
40 ; 86342.71618336091 ; 195269.2197489635 ; 2655605.7124483436 ; 7355555.746734653 ; 9520.000000000002
41 ; 86715.7391965376 ; 196234.79664974968 ; 2741948.4286317048 ; 7550824.966483616 ; 9758.000000000002
42 ; 87554.3170215454 ; 197223.76497025727 ; 2828664.1678282423 ; 7747059.763133366 ; 9996.000000000002
43 ; 88045.33669718941 ; 198235.52337852627 ; 2916218.484849788 ; 7944283.528103623 ; 10234.000000000002
44 ; 88670.1415863811 ; 199269.47464501724 ; 3004263.8215469774 ; 8142519.0514821485 ; 10472.000000000002
45 ; 89455.46591947436 ; 200325.0264972268 ; 3092933.9631333584 ; 8341788.526127166 ; 10710.000000000002
46 ; 89843.7287848175 ; 201401.5923971588 ; 3182389.4290528325 ; 8542113.552624393 ; 10948.000000000002
47 ; 90682.50000409213 ; 202498.59224393946 ; 3272233.15783765 ; 8743515.145021552 ; 11186.000000000002
48 ; 91471.29973825149 ; 203615.45300422114 ; 3362915.657841742 ; 8946013.737265492 ; 11424.000000000002
49 ; 91792.7451777356 ; 204751.60927331407 ; 3454386.9575799936 ; 9149629.190269712 ; 11662.000000000002
50 ; 92733.8289337452 ; 205906.50377021072 ; 3546179.702757729 ; 9354380.799543027 ; 11900.000000000002
51 ; 93139.2309724193 ; 207079.5877698353 ; 3638913.5316914744 ; 9560287.303313237 ; 12138.000000000002
52 ; 93619.66828164992 ; 208270.32147596637 ; 3732052.762663894 ; 9767366.891083073 ; 12376.000000000002
53 ; 94178.74925880558 ; 209478.17433834425 ; 3825672.4309455436 ; 9975637.212559039 ; 12614.000000000002
54 ; 94449.11406392063 ; 210702.62531750381 ; 3919851.180204349 ; 1.0185115386897383E7 ; 12852.000000000002
55 ; 95384.00113989183 ; 211943.16310085537 ; 4014300.2942682696 ; 1.0395818012214888E7 ; 13090.000000000002
56 ; 95489.64818362819 ; 213199.28627349559 ; 4109684.2954081614 ; 1.0607761175315743E7 ; 13328.000000000002
57 ; 96626.59312717996 ; 214470.50344716007 ; 4205173.943591789 ; 1.082096046158924E7 ; 13566.000000000002
58 ; 96817.99868700012 ; 215756.3333506313 ; 4301800.536718969 ; 1.10354309650364E7 ; 13804.000000000002
59 ; 97124.71082055612 ; 217056.3048848117 ; 4398618.535405969 ; 1.125118729838703E7 ; 14042.000000000002
60 ; 97340.37615023702 ; 218369.95714553975 ; 4495743.246226525 ; 1.1468243603271842E7 ; 14280.000000000002
61 ; 97981.74680929241 ; 219696.839417095 ; 4593083.622376762 ; 1.1686613560417382E7 ; 14518.000000000002
62 ; 98177.87632016327 ; 221036.51113919244 ; 4691065.369186055 ; 1.1906310399834476E7 ; 14756.000000000002
63 ; 98792.33799026044 ; 222388.54185011744 ; 4789243.245506219 ; 1.2127346910973668E7 ; 14994.000000000002
64 ; 98671.59848920762 ; 223752.511108502 ; 4888035.583496479 ; 1.2349735452823786E7 ; 15232.000000000002
65 ; 99645.46505192714 ; 225128.00839608896 ; 4986707.1819856865 ; 1.2573487963932289E7 ; 15470.000000000002
66 ; 99690.76866155362 ; 226514.63300368044 ; 5086352.647037614 ; 1.2798615972328378E7 ; 15708.000000000002
67 ; 100202.52532325877 ; 227911.99390231562 ; 5186043.415699168 ; 1.3025130605332058E7 ; 15946.000000000002
68 ; 100151.99507245801 ; 229319.70960158 ; 5286245.941022427 ; 1.3253042599234374E7 ; 16184.000000000002
69 ; 100584.38946039618 ; 230737.40799680317 ; 5386397.936094885 ; 1.3482362308835953E7 ; 16422.000000000004
70 ; 101139.02781158578 ; 232164.72620676854 ; 5486982.325555281 ; 1.3713099716832757E7 ; 16660.000000000004
71 ; 101397.35611463568 ; 233601.31040342606 ; 5588121.353366867 ; 1.3945264443039525E7 ; 16898.000000000004
72 ; 101524.02390672351 ; 235046.81563497527 ; 5689518.709481502 ; 1.417886575344295E7 ; 17136.000000000004
73 ; 101907.26026025056 ; 236500.9056435671 ; 5791042.733388226 ; 1.4413912569077926E7 ; 17374.000000000004
74 ; 101884.54271379639 ; 237963.25267876172 ; 5892949.993648476 ; 1.4650413474721493E7 ; 17612.000000000004
75 ; 102261.90531264694 ; 239433.53730777273 ; 5994834.536362273 ; 1.4888376727400254E7 ; 17850.000000000004
76 ; 102370.44132456812 ; 240911.4482234324 ; 6097096.44167492 ; 1.5127810264708027E7 ; 18088.000000000004
77 ; 102549.36247731364 ; 242396.68205071642 ; 6199466.882999488 ; 1.536872171293146E7 ; 18326.000000000004
78 ; 102271.74955643939 ; 243888.94315258536 ; 6302016.245476802 ; 1.5611118394982176E7 ; 18564.000000000004
79 ; 102662.63137307078 ; 245387.94343581377 ; 6404287.995033241 ; 1.5855007338134762E7 ; 18802.000000000004
80 ; 102069.72784117768 ; 246893.40215741232 ; 6506950.626406312 ; 1.6100395281570576E7 ; 19040.000000000004
81 ; 103093.41645199715 ; 248405.04573217075 ; 6609020.35424749 ; 1.6347288683727989E7 ; 19278.000000000004
82 ; 102910.62915933714 ; 249922.6075417942 ; 6712113.770699487 ; 1.659569372946016E7 ; 19516.000000000004
83 ; 103188.03137486285 ; 251445.82774604327 ; 6815024.399858824 ; 1.6845616337001953E7 ; 19754.000000000004
84 ; 103150.65577497896 ; 252974.453096236 ; 6918212.431233686 ; 1.7097062164747998E7 ; 19992.000000000004
85 ; 102911.00491253642 ; 254508.23675142304 ; 7021363.087008665 ; 1.7350036617844235E7 ; 20230.000000000004
86 ; 103143.78006532919 ; 256046.93809750036 ; 7124274.091921202 ; 1.7604544854595657E7 ; 20468.000000000004
87 ; 103065.06726574562 ; 257590.3225694865 ; 7227417.871986531 ; 1.7860591792693157E7 ; 20706.000000000004
88 ; 103468.439489319 ; 259138.16147715237 ; 7330482.939252276 ; 1.8118182115262643E7 ; 20944.000000000004
89 ; 103268.50328810533 ; 260690.23183416127 ; 7433951.378741595 ; 1.8377320276739795E7 ; 21182.000000000004
90 ; 102801.99840355453 ; 262246.31619084365 ; 7537219.8820297 ; 1.8638010508573957E7 ; 21420.000000000004
91 ; 103145.99893471779 ; 263806.202470707 ; 7640021.880433255 ; 1.89002568247648E7 ; 21658.000000000004
92 ; 103106.2722281221 ; 265369.6838107572 ; 7743167.879367973 ; 1.9164063027235508E7 ; 21896.000000000004
93 ; 102705.67525083803 ; 266936.5584056828 ; 7846274.1515960945 ; 1.9429432711046264E7 ; 22134.000000000004
94 ; 102412.09397990402 ; 268506.6293559398 ; 7948979.826846932 ; 1.9696369269451946E7 ; 22372.000000000004
95 ; 102770.28800987297 ; 270079.7045197516 ; 8051391.9208268365 ; 1.9964875898807887E7 ; 22610.000000000004
96 ; 102589.44569602788 ; 271655.5963690284 ; 8154162.208836709 ; 2.023495560332764E7 ; 22848.000000000004
97 ; 102493.7336789792 ; 273234.12184919365 ; 8256751.654532737 ; 2.0506611199696667E7 ; 23086.000000000004
98 ; 102663.49606287753 ; 274815.1022428965 ; 8359245.388211716 ; 2.077984532154586E7 ; 23324.000000000004
99 ; 101864.49732431206 ; 276398.3630375745 ; 8461908.884274593 ; 2.105466042378876E7 ; 23562.000000000004
100 ; 101715.73943949588 ; 277983.7337968273 ; 8563773.381598905 ; 2.1331058786826335E7 ; 23800.000000000004
101 ; 101740.66758489693 ; 279571.0480355497 ; 8665489.121038401 ; 2.1609042520623162E7 ; 24038.000000000004
102 ; 101435.73079705675 ; 281160.1430987685 ; 8767229.788623298 ; 2.1888613568658713E7 ; 24276.000000000004
103 ; 101458.04797855335 ; 282750.86004412116 ; 8868665.519420354 ; 2.216977371175748E7 ; 24514.000000000004
104 ; 100792.92147941134 ; 284343.04352790915 ; 8970123.567398908 ; 2.2452524571801603E7 ; 24752.000000000004
105 ; 100447.7324420127 ; 285936.54169465596 ; 9070916.488878319 ; 2.273686761532951E7 ; 24990.000000000004
106 ; 100403.04135740787 ; 287531.20607009577 ; 9171364.221320331 ; 2.3022804157024167E7 ; 25228.000000000004
107 ; 100181.56626356632 ; 289126.89145751606 ; 9271767.262677738 ; 2.3310335363094263E7 ; 25466.000000000004
108 ; 99694.99590357141 ; 290723.4558373769 ; 9371948.828941304 ; 2.359946225455178E7 ; 25704.000000000004
109 ; 99341.34485302525 ; 292320.7602701254 ; 9471643.824844876 ; 2.3890185710389156E7 ; 25942.000000000004
110 ; 98897.10392360618 ; 293918.6688021272 ; 9570985.169697901 ; 2.4182506470659282E7 ; 26180.000000000004
111 ; 98505.05404487945 ; 295517.04837463103 ; 9669882.273621507 ; 2.447642513946141E7 ; 26418.000000000004
112 ; 97858.57925814563 ; 297115.7687356868 ; 9768387.327666387 ; 2.477194218783604E7 ; 26656.000000000004
113 ; 97759.170396754 ; 298714.7023549345 ; 9866245.906924533 ; 2.5069057956571728E7 ; 26894.000000000004
114 ; 97654.32768517341 ; 300313.72434118384 ; 9964005.077321287 ; 2.5367772658926662E7 ; 27132.000000000004
115 ; 97058.97046443525 ; 301912.712362704 ; 1.006165940500646E7 ; 2.5668086383267846E7 ; 27370.000000000004
116 ; 96562.70130007526 ; 303511.5465701425 ; 1.0158718375470895E7 ; 2.596999909563055E7 ; 27608.000000000004
117 ; 95717.10973131785 ; 305110.1095219975 ; 1.025528107677097E7 ; 2.627351064220069E7 ; 27846.000000000004
118 ; 95232.10372849254 ; 306708.2861125625 ; 1.0350998186502289E7 ; 2.6578620751722686E7 ; 28084.000000000004
119 ; 94704.55586348296 ; 308305.96350227046 ; 1.044623029023078E7 ; 2.6885329037835248E7 ; 28322.000000000004
120 ; 94439.6304037889 ; 309903.0310503599 ; 1.0540934846094264E7 ; 2.7193635001337517E7 ; 28560.000000000004
121 ; 93625.06513987316 ; 311499.38024979207 ; 1.0635374476498052E7 ; 2.750353803238788E7 ; 28798.000000000004
122 ; 93256.96536527172 ; 313094.9046643454 ; 1.0728999541637925E7 ; 2.781503741263767E7 ; 29036.000000000004
123 ; 92674.00964365352 ; 314689.4998678184 ; 1.0822256507003197E7 ; 2.8128132317302015E7 ; 29274.000000000004
124 ; 92113.82325403471 ; 316283.0633852715 ; 1.091493051664685E7 ; 2.8442821817169834E7 ; 29512.000000000004
125 ; 91261.2814933632 ; 317875.4946362427 ; 1.1007044339900885E7 ; 2.8759104880555104E7 ; 29750.000000000004
126 ; 91035.16039410206 ; 319466.6948798694 ; 1.1098305621394249E7 ; 2.9076980375191346E7 ; 29988.000000000004
127 ; 89692.50132601772 ; 321056.5671618557 ; 1.1189340781788351E7 ; 2.9396447070071217E7 ; 30226.000000000004
128 ; 89471.53411416616 ; 322645.01626322186 ; 1.1279033283114368E7 ; 2.971750363723307E7 ; 30464.000000000004
129 ; 89252.6655514947 ; 324231.9486507768 ; 1.1368504817228533E7 ; 3.004014865349629E7 ; 30702.000000000004
130 ; 88471.77179547955 ; 325817.27242925495 ; 1.1457757482780028E7 ; 3.036438060214707E7 ; 30940.000000000004
131 ; 87469.46201713913 ; 327400.8972950616 ; 1.1546229254575508E7 ; 3.0690197874576323E7 ; 31178.000000000004
132 ; 86649.1800286992 ; 328982.7344915718 ; 1.1633698716592647E7 ; 3.1017598771871384E7 ; 31416.000000000004
133 ; 86201.42952662578 ; 330562.6967659295 ; 1.1720347896621346E7 ; 3.1346581506362956E7 ; 31654.000000000004
134 ; 85550.30156474917 ; 332140.69832729583 ; 1.1806549326147972E7 ; 3.1677144203128885E7 ; 31892.000000000004
135 ; 84703.1522587512 ; 333716.65480649687 ; 1.1892099627712721E7 ; 3.200928490145618E7 ; 32130.000000000004
136 ; 83806.0170337161 ; 335290.483217022 ; 1.1976802779971473E7 ; 3.234300155626268E7 ; 32368.000000000004
137 ; 83236.18053643158 ; 336862.10191732715 ; 1.206060879700519E7 ; 3.2678292039479703E7 ; 32606.000000000004
138 ; 82743.3110450885 ; 338431.4305743972 ; 1.2143844977541622E7 ; 3.301515414139703E7 ; 32844.00000000001
139 ; 81836.00921857319 ; 339998.39012852433 ; 1.222658828858671E7 ; 3.3353585571971428E7 ; 33082.00000000001
140 ; 80891.62569058684 ; 341562.9027592597 ; 1.2308424297805283E7 ; 3.3693583962099954E7 ; 33320.00000000001
141 ; 79577.3904781999 ; 343124.8918524978 ; 1.238931592349587E7 ; 3.4035146864859216E7 ; 33558.00000000001
142 ; 78640.4354087114 ; 344684.2819686551 ; 1.246889331397407E7 ; 3.4378271756711714E7 ; 33796.00000000001
143 ; 77754.61791625866 ; 346240.99881190347 ; 1.254753374938278E7 ; 3.472295603868037E7 ; 34034.00000000001
144 ; 77011.55162608883 ; 347794.9692004224 ; 1.2625288367299039E7 ; 3.506919703749227E7 ; 34272.00000000001
145 ; 76596.48093256759 ; 349346.1210376353 ; 1.2702299918925127E7 ; 3.541699200669269E7 ; 34510.00000000001
146 ; 76578.39329472271 ; 350894.38328439405 ; 1.2778896399857694E7 ; 3.5766338127730325E7 ; 34748.00000000001
147 ; 76580.18782460991 ; 352439.6859320803 ; 1.2855474793152416E7 ; 3.611723251101472E7 ; 34986.00000000001
148 ; 76264.39237379712 ; 353981.95997659105 ; 1.2932054980977027E7 ; 3.64696721969468E7 ; 35224.00000000001
149 ; 75888.21103125054 ; 355521.1373931775 ; 1.3008319373350823E7 ; 3.682365415692339E7 ; 35462.00000000001
150 ; 75226.98086115142 ; 357057.15111210785 ; 1.3084207584382074E7 ; 3.717917529431657E7 ; 35700.00000000001
151 ; 75714.26562644521 ; 358589.9349951261 ; 1.3159434565243226E7 ; 3.753623244542868E7 ; 35938.00000000001
152 ; 75525.3232940635 ; 360119.4238126778 ; 1.3235148830869671E7 ; 3.789482238042381E7 ; 36176.00000000001
153 ; 75427.43169547713 ; 361645.5532218772 ; 1.3310674154163735E7 ; 3.825494180423649E7 ; 36414.00000000001
154 ; 75184.82456790685 ; 363168.2597451902 ; 1.3386101585859213E7 ; 3.861658735745836E7 ; 36652.00000000001
155 ; 74474.0431385623 ; 364687.48074980784 ; 1.346128641042712E7 ; 3.897975561720355E7 ; 36890.00000000001
156 ; 74329.3162071018 ; 366203.1544276869 ; 1.3535760453565681E7 ; 3.934444309795336E7 ; 37128.00000000001
157 ; 73278.04706963764 ; 367715.21977623407 ; 1.3610089769772783E7 ; 3.971064625238104E7 ; 37366.00000000001
158 ; 74389.59865980482 ; 369223.61657961237 ; 1.368336781684242E7 ; 4.007836147215728E7 ; 37604.00000000001
159 ; 73558.56795686418 ; 370728.2853906479 ; 1.3757757415502224E7 ; 4.044758508873689E7 ; 37842.00000000001
160 ; 73199.96951644283 ; 372229.1675133162 ; 1.3831315983459089E7 ; 4.081831337412754E7 ; 38080.00000000001
161 ; 72787.29140251763 ; 373726.20498578844 ; 1.3904515952975532E7 ; 4.1190542541640855E7 ; 38318.00000000001
162 ; 72297.79701784386 ; 375219.3405640192 ; 1.3977303244378049E7 ; 4.1564268746626645E7 ; 38556.00000000001
163 ; 72283.87106686592 ; 376708.5177058556 ; 1.4049601041395893E7 ; 4.1939488087190665E7 ; 38794.00000000001
164 ; 72149.37150881148 ; 378193.68055565143 ; 1.412188491246276E7 ; 4.231619660489652E7 ; 39032.00000000001
165 ; 72053.79466260402 ; 379674.7739293688 ; 1.419403428397157E7 ; 4.269439028545217E7 ; 39270.00000000001
166 ; 71068.3324426479 ; 381151.74330015096 ; 1.4266088078634175E7 ; 4.3074065059381545E7 ; 39508.00000000001
167 ; 71397.42849322618 ; 382624.5347843488 ; 1.4337156411076823E7 ; 4.345521680268169E7 ; 39746.00000000001
168 ; 70607.39265469468 ; 384093.0951279883 ; 1.440855383957005E7 ; 4.383784133746604E7 ; 39984.00000000001
169 ; 70313.14692213859 ; 385557.3716936621 ; 1.4479161232224744E7 ; 4.422193443259402E7 ; 40222.00000000001
170 ; 69606.35434675754 ; 387017.3124478311 ; 1.4549474379146883E7 ; 4.460749180428769E7 ; 40460.00000000001
171 ; 69815.80775655084 ; 388472.8659485238 ; 1.4619080733493641E7 ; 4.499450911673552E7 ; 40698.00000000001
172 ; 69061.71138126093 ; 389923.981333418 ; 1.4688896541250192E7 ; 4.538298198268404E7 ; 40936.00000000001
173 ; 69350.20445335581 ; 391370.60830829345 ; 1.4757958252631452E7 ; 4.577290596401746E7 ; 41174.00000000001
174 ; 69581.32606256276 ; 392812.6971358429 ; 1.4827308457084808E7 ; 4.616427657232575E7 ; 41412.00000000001
175 ; 69592.52333771763 ; 394250.1986248293 ; 1.489688978314737E7 ; 4.6557089269461595E7 ; 41650.00000000001
176 ; 69839.98009421723 ; 395683.0641195775 ; 1.4966482306485089E7 ; 4.695133946808642E7 ; 41888.00000000001
177 ; 69841.8558829748 ; 397111.2454897906 ; 1.5036322286579305E7 ; 4.7347022532206E7 ; 42126.00000000001
178 ; 69707.97268347995 ; 398534.69512067817 ; 1.510616414246228E7 ; 4.774413377769579E7 ; 42364.00000000001
179 ; 69939.17615697104 ; 399953.3659033882 ; 1.517587211514576E7 ; 4.814266847281647E7 ; 42602.00000000001
180 ; 70480.61037922007 ; 401367.2112257315 ; 1.5245811291302731E7 ; 4.854262183871985E7 ; 42840.00000000001
181 ; 70169.00965346543 ; 402776.1849631889 ; 1.5316291901681952E7 ; 4.8943989049945585E7 ; 43078.00000000001
