CSV File for the Network on Day 295
1 - Minute m 
2 - Power Consumed at minute m 
3 - Power Produced at minute m 
4 - Energy Consumed since the beginning of the day 
5 - Energy Produced since the beginning of the day 
6 - Energy Lost since the beginning of the day 
 
No Production city : 2, Producer : 1
No Production city : 4, Producer : 1
No Production city : 4, Producer : 1
 
0 ; 55863.129515396104 ; 220910.06318126456 ; 0.0 ; 0.0 ; 0.0
1 ; 56529.13790064224 ; 220547.80004867903 ; 55863.129515396104 ; 220910.06318126456 ; 238.00000000000003
2 ; 57642.510341303045 ; 220222.8610879438 ; 112392.26741603835 ; 441457.86322994356 ; 476.00000000000006
3 ; 58894.839853172714 ; 219935.51179806766 ; 170034.7777573414 ; 661680.7243178873 ; 714.0000000000001
4 ; 60672.6307457471 ; 219685.98882478403 ; 228929.6176105141 ; 881616.236115955 ; 952.0000000000001
5 ; 61512.41882702124 ; 219474.49909195892 ; 289602.2483562612 ; 1101302.224940739 ; 1190.0000000000002
6 ; 62473.12028272432 ; 219301.2190326505 ; 351114.66718328244 ; 1320776.724032698 ; 1428.0000000000002
7 ; 63405.66155608125 ; 219166.29392649565 ; 413587.78746600676 ; 1540077.9430653485 ; 1666.0000000000002
8 ; 64466.598553318785 ; 219069.83734926124 ; 476993.449022088 ; 1759244.2369918441 ; 1904.0000000000002
9 ; 65511.287306418824 ; 219011.93073946715 ; 541460.0475754068 ; 1978314.0743411053 ; 2142.0000000000005
10 ; 66863.37053837317 ; 218992.62308598813 ; 606971.3348818257 ; 2197326.0050805723 ; 2380.0000000000005
11 ; 67535.18357095342 ; 219011.93073946715 ; 673834.7054201989 ; 2416318.6281665605 ; 2618.0000000000005
12 ; 68411.94172456628 ; 219069.83734926124 ; 741369.8889911523 ; 2635330.5589060276 ; 2856.0000000000005
13 ; 69380.91018715486 ; 219166.29392649565 ; 809781.8307157186 ; 2854400.3962552887 ; 3094.0000000000005
14 ; 70453.52401751344 ; 219301.21903265044 ; 879162.7409028735 ; 3073566.6901817843 ; 3332.0000000000005
15 ; 71373.94605315855 ; 219474.49909195892 ; 949616.264920387 ; 3292867.9092144347 ; 3570.0000000000005
16 ; 72380.02963431826 ; 219685.98882478403 ; 1020990.2109735454 ; 3512342.408306394 ; 3808.0000000000005
17 ; 73570.57542675633 ; 219935.5117980676 ; 1093370.2406078638 ; 3732028.3971311776 ; 4046.0000000000005
18 ; 74288.27540616386 ; 220222.8610879439 ; 1166940.8160346202 ; 3951963.908929245 ; 4284.000000000001
19 ; 75352.93657690073 ; 220547.80004867897 ; 1241229.091440784 ; 4172186.770017189 ; 4522.000000000001
20 ; 75825.76018190442 ; 220910.0631812646 ; 1316582.0280176848 ; 4392734.570065868 ; 4760.000000000001
21 ; 77006.30905925256 ; 221309.35709425778 ; 1392407.7881995891 ; 4613644.633247132 ; 4998.000000000001
22 ; 77861.24461515859 ; 221745.3615488402 ; 1469414.0972588416 ; 4834953.9903413905 ; 5236.000000000001
23 ; 78710.72817692038 ; 222217.73057956336 ; 1547275.3418740002 ; 5056699.351890231 ; 5474.000000000001
24 ; 79685.92811521473 ; 222726.09368186296 ; 1625986.0700509206 ; 5278917.082469794 ; 5712.000000000001
25 ; 80446.168106045 ; 223270.05705716423 ; 1705671.9981661353 ; 5501643.176151657 ; 5950.000000000001
26 ; 81073.42660509459 ; 223849.20490625827 ; 1786118.1662721804 ; 5724913.233208821 ; 6188.000000000001
27 ; 81984.91711877836 ; 224463.10076160266 ; 1867191.592877275 ; 5948762.438115079 ; 6426.000000000001
28 ; 82538.72587178383 ; 225111.28884928607 ; 1949176.5099960535 ; 6173225.538876682 ; 6664.000000000001
29 ; 83634.9516458971 ; 225793.29547158355 ; 2031715.2358678374 ; 6398336.827725967 ; 6902.000000000001
30 ; 84352.99280496038 ; 226508.6304013108 ; 2115350.1875137347 ; 6624130.123197551 ; 7140.000000000001
31 ; 84962.33112235685 ; 227256.78827954992 ; 2199703.180318695 ; 6850638.753598861 ; 7378.000000000001
32 ; 85596.6143745444 ; 228037.25000875784 ; 2284665.511441052 ; 7077895.541878412 ; 7616.000000000001
33 ; 86824.22582918931 ; 228849.48413376417 ; 2370262.1258155964 ; 7305932.79188717 ; 7854.000000000001
34 ; 87074.73690811783 ; 229692.94820371462 ; 2457086.3516447856 ; 7534782.276020934 ; 8092.000000000001
35 ; 87986.14834096543 ; 230567.09010859925 ; 2544161.0885529034 ; 7764475.224224648 ; 8330.000000000002
36 ; 88648.96061451721 ; 231471.349384615 ; 2632147.236893869 ; 7995042.314333248 ; 8568.000000000002
37 ; 89250.68720867105 ; 232405.15848323883 ; 2720796.1975083863 ; 8226513.663717863 ; 8806.000000000002
38 ; 89680.77534583931 ; 233367.94399951826 ; 2810046.8847170575 ; 8458918.822201101 ; 9044.000000000002
39 ; 90417.92440805757 ; 234359.1278557147 ; 2899727.6600628966 ; 8692286.766200619 ; 9282.000000000002
40 ; 91177.42440398393 ; 235378.12843704858 ; 2990145.5844709543 ; 8926645.894056333 ; 9520.000000000002
41 ; 91894.1709455031 ; 236424.361676895 ; 3081323.0088749384 ; 9162024.022493381 ; 9758.000000000002
42 ; 92520.02188985227 ; 237497.24208934716 ; 3173217.1798204416 ; 9398448.384170275 ; 9996.000000000002
43 ; 92618.62927857159 ; 238596.18374761 ; 3265737.201710294 ; 9635945.626259623 ; 10234.000000000002
44 ; 93228.73242243403 ; 239720.60120719034 ; 3358355.830988866 ; 9874541.810007233 ; 10472.000000000002
45 ; 93888.03624012676 ; 240869.91037332534 ; 3451584.5634113 ; 1.0114262411214424E7 ; 10710.000000000002
46 ; 94626.57152698998 ; 242043.52931251904 ; 3545472.599651427 ; 1.0355132321587749E7 ; 10948.000000000002
47 ; 94600.51594338566 ; 243240.8790084526 ; 3640099.171178417 ; 1.0597175850900268E7 ; 11186.000000000002
48 ; 95799.79429452086 ; 244461.38406288196 ; 3734699.6871218025 ; 1.0840416729908722E7 ; 11424.000000000002
49 ; 96287.7664836485 ; 245704.4733424509 ; 3830499.481416323 ; 1.1084878113971604E7 ; 11662.000000000002
50 ; 96278.78394000816 ; 246969.58057261878 ; 3926787.247899972 ; 1.1330582587314054E7 ; 11900.000000000002
51 ; 97231.24659213847 ; 248256.14488013444 ; 4023066.0318399803 ; 1.1577552167886673E7 ; 12138.000000000002
52 ; 97638.15123081587 ; 249563.61128568798 ; 4120297.2784321187 ; 1.1825808312766807E7 ; 12376.000000000002
53 ; 97852.31530974328 ; 250891.4311485327 ; 4217935.4296629345 ; 1.2075371924052496E7 ; 12614.000000000002
54 ; 98429.25676555392 ; 252239.0625650027 ; 4315787.744972678 ; 1.2326263355201028E7 ; 12852.000000000002
55 ; 98729.29994982532 ; 253605.97072294957 ; 4414217.001738232 ; 1.257850241776603E7 ; 13090.000000000002
56 ; 99215.2893365213 ; 254991.62821419892 ; 4512946.301688057 ; 1.283210838848898E7 ; 13328.000000000002
57 ; 99527.33005711096 ; 256395.51530717302 ; 4612161.591024579 ; 1.308710001670318E7 ; 13566.000000000002
58 ; 99877.49889049563 ; 257817.12018185397 ; 4711688.921081689 ; 1.3343495532010352E7 ; 13804.000000000002
59 ; 100011.16781101716 ; 259255.9391292684 ; 4811566.419972185 ; 1.3601312652192207E7 ; 14042.000000000002
60 ; 100487.33644133546 ; 260711.47671766282 ; 4911577.5877832025 ; 1.3860568591321476E7 ; 14280.000000000002
61 ; 101223.94924446709 ; 262183.2459275135 ; 5012064.924224538 ; 1.4121280068039138E7 ; 14518.000000000002
62 ; 100706.12548991619 ; 263670.76825747435 ; 5113288.873469005 ; 1.438346331396665E7 ; 14756.000000000002
63 ; 101738.29407848757 ; 265173.57380331773 ; 5213994.998958921 ; 1.4647134082224125E7 ; 14994.000000000002
64 ; 101876.83085821789 ; 266691.2013118612 ; 5315733.293037409 ; 1.4912307656027444E7 ; 15232.000000000002
65 ; 102335.52136579217 ; 268223.198211809 ; 5417610.1238956265 ; 1.5178998857339306E7 ; 15470.000000000002
66 ; 102228.12502910168 ; 269769.1206233607 ; 5519945.645261419 ; 1.5447222055551115E7 ; 15708.000000000002
67 ; 102326.27218106207 ; 271328.53334836557 ; 5622173.770290521 ; 1.5716991176174477E7 ; 15946.000000000002
68 ; 102338.79378902543 ; 272901.0098427183 ; 5724500.042471583 ; 1.5988319709522841E7 ; 16184.000000000002
69 ; 103361.99523871031 ; 274486.132172609 ; 5826838.836260608 ; 1.626122071936556E7 ; 16422.000000000004
70 ; 102919.47458830113 ; 276083.4909561575 ; 5930200.831499319 ; 1.6535706851538168E7 ; 16660.000000000004
71 ; 103917.90574322327 ; 277692.6852918772 ; 6033120.30608762 ; 1.6811790342494328E7 ; 16898.000000000004
72 ; 103460.09865707441 ; 279313.3226753289 ; 6137038.211830843 ; 1.7089483027786206E7 ; 17136.000000000004
73 ; 103405.97495759059 ; 280945.0189052453 ; 6240498.310487918 ; 1.7368796350461535E7 ; 17374.000000000004
74 ; 104397.54104067889 ; 282587.3979803217 ; 6343904.285445509 ; 1.764974136936678E7 ; 17612.000000000004
75 ; 103641.85626230699 ; 284240.0919877929 ; 6448301.826486187 ; 1.79323287673471E7 ; 17850.000000000004
76 ; 104075.12883388037 ; 285902.7409848378 ; 6551943.682748494 ; 1.8216568859334894E7 ; 18088.000000000004
77 ; 104083.31924003146 ; 287574.99287377996 ; 6656018.811582374 ; 1.8502471600319732E7 ; 18326.000000000004
78 ; 104590.84188047593 ; 289256.5032719817 ; 6760102.130822406 ; 1.8790046593193512E7 ; 18564.000000000004
79 ; 104468.45377722057 ; 290946.93537725933 ; 6864692.972702882 ; 1.9079303096465494E7 ; 18802.000000000004
80 ; 104540.1899045917 ; 292645.9598295852 ; 6969161.426480103 ; 1.9370250031842753E7 ; 19040.000000000004
81 ; 104894.05025430059 ; 294353.2545697788 ; 7073701.616384695 ; 1.9662895991672337E7 ; 19278.000000000004
82 ; 104543.69632629715 ; 296068.5046958305 ; 7178595.6666389955 ; 1.9957249246242117E7 ; 19516.000000000004
83 ; 105018.96101677767 ; 297791.4023174484 ; 7283139.362965292 ; 2.0253317750937946E7 ; 19754.000000000004
84 ; 104769.23962979752 ; 299521.6464093633 ; 7388158.32398207 ; 2.0551109153255396E7 ; 19992.000000000004
85 ; 104690.76911697644 ; 301258.9426638833 ; 7492927.563611868 ; 2.085063079966476E7 ; 20230.000000000004
86 ; 104951.95791387632 ; 303003.00334313745 ; 7597618.332728844 ; 2.115188974232864E7 ; 20468.000000000004
87 ; 104532.05618583615 ; 304753.5471314104 ; 7702570.290642721 ; 2.145489274567178E7 ; 20706.000000000004
88 ; 104486.85088960515 ; 306510.29898792726 ; 7807102.346828557 ; 2.175964629280319E7 ; 20944.000000000004
89 ; 104727.15485021457 ; 308272.9900004124 ; 7911589.197718162 ; 2.206615659179112E7 ; 21182.000000000004
90 ; 104359.76916950487 ; 310041.35723970906 ; 8016316.352568377 ; 2.237442958179153E7 ; 21420.000000000004
91 ; 104407.3783295062 ; 311815.1436157177 ; 8120676.121737882 ; 2.268447093903124E7 ; 21658.000000000004
92 ; 104421.34288704439 ; 313594.0977348791 ; 8225083.500067388 ; 2.299628608264696E7 ; 21896.000000000004
93 ; 104299.8479674974 ; 315377.9737594025 ; 8329504.842954432 ; 2.330988018038184E7 ; 22134.000000000004
94 ; 104060.98708017022 ; 317166.53126841213 ; 8433804.690921929 ; 2.362525815414124E7 ; 22372.000000000004
95 ; 103265.0624607715 ; 318959.5351211644 ; 8537865.678002099 ; 2.394242468540965E7 ; 22610.000000000004
96 ; 103784.38081639266 ; 320756.7553224657 ; 8641130.74046287 ; 2.4261384220530815E7 ; 22848.000000000004
97 ; 103808.58756875024 ; 322557.9668904011 ; 8744915.121279262 ; 2.458214097585328E7 ; 23086.000000000004
98 ; 103204.0598089316 ; 324362.9497264668 ; 8848723.708848013 ; 2.490469894274368E7 ; 23324.000000000004
99 ; 103197.14089160846 ; 326171.48848818336 ; 8951927.768656945 ; 2.5229061892470147E7 ; 23562.000000000004
100 ; 103242.0042578823 ; 327983.3724642519 ; 9055124.909548553 ; 2.555523338095833E7 ; 23800.000000000004
101 ; 102766.67443110472 ; 329798.3954523007 ; 9158366.913806435 ; 2.588321675342258E7 ; 24038.000000000004
102 ; 102166.20986577631 ; 331616.3556392602 ; 9261133.588237539 ; 2.6213015148874883E7 ; 24276.000000000004
103 ; 102370.43055367892 ; 333437.0554843904 ; 9363299.798103316 ; 2.6544631504514143E7 ; 24514.000000000004
104 ; 101905.55611495455 ; 335260.3016049773 ; 9465670.228656994 ; 2.6878068559998535E7 ; 24752.000000000004
105 ; 101616.47784694462 ; 337085.90466470463 ; 9567575.784771949 ; 2.7213328861603513E7 ; 24990.000000000004
106 ; 101300.48534560957 ; 338913.67926469975 ; 9669192.262618894 ; 2.755041476626822E7 ; 25228.000000000004
107 ; 101056.65284962862 ; 340743.4438372459 ; 9770492.747964503 ; 2.7889328445532918E7 ; 25466.000000000004
108 ; 100955.31231620471 ; 342575.0205421446 ; 9871549.400814133 ; 2.8230071889370166E7 ; 25704.000000000004
109 ; 100515.37674104894 ; 344408.23516571015 ; 9972504.713130338 ; 2.857264690991231E7 ; 25942.000000000004
110 ; 99780.5464776683 ; 346242.91702236945 ; 1.0073020089871388E7 ; 2.8917055145078022E7 ; 26180.000000000004
111 ; 100103.35323600416 ; 348078.89885883837 ; 1.0172800636349056E7 ; 2.926329806210039E7 ; 26418.000000000004
112 ; 99401.49997518593 ; 349916.0167608411 ; 1.027290398958506E7 ; 2.961137696095923E7 ; 26656.000000000004
113 ; 98991.88462339423 ; 351754.1100623363 ; 1.0372305489560246E7 ; 2.996129297772007E7 ; 26894.000000000004
114 ; 98502.86823403649 ; 353593.02125721 ; 1.047129737418364E7 ; 3.0313047087782405E7 ; 27132.000000000004
115 ; 97898.85657382464 ; 355432.59591339435 ; 1.0569800242417676E7 ; 3.0666640109039616E7 ; 27370.000000000004
116 ; 97425.68967674556 ; 357272.68258936814 ; 1.06676990989915E7 ; 3.102207270495301E7 ; 27608.000000000004
117 ; 97015.82831374172 ; 359113.13275299326 ; 1.0765124788668245E7 ; 3.137934538754238E7 ; 27846.000000000004
118 ; 96733.63100094693 ; 360953.80070264114 ; 1.0862140616981987E7 ; 3.173845852029537E7 ; 28084.000000000004
119 ; 96161.67263478914 ; 362794.5434905602 ; 1.0958874247982934E7 ; 3.2099412320998013E7 ; 28322.000000000004
120 ; 95490.22885296989 ; 364635.220848437 ; 1.1055035920617724E7 ; 3.2462206864488572E7 ; 28560.000000000004
121 ; 95434.8488761609 ; 366475.69511510077 ; 1.1150526149470694E7 ; 3.282684208533701E7 ; 28798.000000000004
122 ; 95069.70833473398 ; 368315.8311663223 ; 1.1245960998346856E7 ; 3.319331778045211E7 ; 29036.000000000004
123 ; 94460.5635198252 ; 370155.4963466565 ; 1.134103070668159E7 ; 3.356163361161843E7 ; 29274.000000000004
124 ; 93731.69619979124 ; 371994.5604032807 ; 1.1435491270201415E7 ; 3.393178910796509E7 ; 29512.000000000004
125 ; 93148.26422944426 ; 373832.89542177593 ; 1.1529222966401206E7 ; 3.430378366836837E7 ; 29750.000000000004
126 ; 92506.32470727513 ; 375670.37576380494 ; 1.1622371230630651E7 ; 3.467761656379014E7 ; 29988.000000000004
127 ; 91840.97397669034 ; 377506.87800663506 ; 1.1714877555337926E7 ; 3.5053286939553946E7 ; 30226.000000000004
128 ; 91048.33307923426 ; 379342.2808844591 ; 1.1806718529314617E7 ; 3.543079381756058E7 ; 30464.000000000004
129 ; 90415.64884096815 ; 381176.4652314652 ; 1.189776686239385E7 ; 3.581013609844504E7 ; 30702.000000000004
130 ; 90229.20612828618 ; 383009.31392660807 ; 1.1988182511234818E7 ; 3.619131256367651E7 ; 30940.000000000004
131 ; 89100.68384405253 ; 384840.7118400354 ; 1.2078411717363104E7 ; 3.657432187760311E7 ; 31178.000000000004
132 ; 88735.62407709753 ; 386670.5457811228 ; 1.2167512401207156E7 ; 3.695916258944315E7 ; 31416.000000000004
133 ; 87901.84730595202 ; 388498.70444807183 ; 1.2256248025284255E7 ; 3.734583313522427E7 ; 31654.000000000004
134 ; 87028.28191359466 ; 390325.0783790272 ; 1.2344149872590207E7 ; 3.773433183967234E7 ; 31892.000000000004
135 ; 86694.62279154776 ; 392149.55990466935 ; 1.2431178154503802E7 ; 3.812465691805137E7 ; 32130.000000000004
136 ; 85917.3246678235 ; 393972.0431022391 ; 1.251787277729535E7 ; 3.851680647795604E7 ; 32368.000000000004
137 ; 85063.35176610954 ; 395792.42375095317 ; 1.2603790101963174E7 ; 3.8910778521058284E7 ; 32606.000000000004
138 ; 84475.93150959062 ; 397610.5992887702 ; 1.2688853453729283E7 ; 3.9306570944809236E7 ; 32844.00000000001
139 ; 83873.58355809159 ; 399426.46877046523 ; 1.2773329385238873E7 ; 3.9704181544098005E7 ; 33082.00000000001
140 ; 83305.9195133407 ; 401239.9328269766 ; 1.2857202968796965E7 ; 4.010360801286847E7 ; 33320.00000000001
141 ; 82510.6140470664 ; 403050.8936259844 ; 1.2940508888310306E7 ; 4.0504847945695445E7 ; 33558.00000000001
142 ; 81491.44286197479 ; 404859.25483368547 ; 1.3023019502357373E7 ; 4.090789883932143E7 ; 33796.00000000001
143 ; 80491.95706582605 ; 406664.9215777277 ; 1.3104510945219347E7 ; 4.131275809415511E7 ; 34034.00000000001
144 ; 79808.34498205612 ; 408467.8004112687 ; 1.3185002902285174E7 ; 4.171942301573284E7 ; 34272.00000000001
145 ; 80064.84243537071 ; 410267.7992781244 ; 1.326481124726723E7 ; 4.212789081614411E7 ; 34510.00000000001
146 ; 78981.54675383639 ; 412064.8274789747 ; 1.33448760897026E7 ; 4.2538158615422234E7 ; 34748.00000000001
147 ; 79103.73352421056 ; 413858.7956385934 ; 1.3423857636456437E7 ; 4.295022344290121E7 ; 34986.00000000001
148 ; 79057.97136063545 ; 415649.61567407066 ; 1.3502961369980648E7 ; 4.33640822385398E7 ; 35224.00000000001
149 ; 78704.19984078757 ; 417437.20076399844 ; 1.3582019341341283E7 ; 4.377973185421387E7 ; 35462.00000000001
150 ; 78412.50136915498 ; 419221.46531858714 ; 1.3660723541182071E7 ; 4.419716905497787E7 ; 35700.00000000001
151 ; 77835.47875840779 ; 421002.3249506871 ; 1.3739136042551225E7 ; 4.461639052029646E7 ; 35938.00000000001
152 ; 77955.7422430506 ; 422779.6964476849 ; 1.3816971521309633E7 ; 4.503739284524715E7 ; 36176.00000000001
153 ; 77663.221725359 ; 424553.49774424784 ; 1.3894927263552684E7 ; 4.5460172541694835E7 ; 36414.00000000001
154 ; 77685.7274641657 ; 426323.64789589087 ; 1.3972590485278044E7 ; 4.588472603943908E7 ; 36652.00000000001
155 ; 77155.70059282992 ; 428090.06705333944 ; 1.405027621274221E7 ; 4.631104968733497E7 ; 36890.00000000001
156 ; 76598.5744914327 ; 429852.67643766414 ; 1.412743191333504E7 ; 4.673913975438831E7 ; 37128.00000000001
157 ; 76914.23609750667 ; 431611.398316162 ; 1.4204030487826472E7 ; 4.716899243082597E7 ; 37366.00000000001
158 ; 76194.33161288194 ; 433366.1559789627 ; 1.428094472392398E7 ; 4.760060382914213E7 ; 37604.00000000001
159 ; 76307.15251063748 ; 435116.8737163357 ; 1.435713905553686E7 ; 4.803396998512109E7 ; 37842.00000000001
160 ; 75522.31350642518 ; 436863.4767966768 ; 1.4433446208047498E7 ; 4.8469086858837426E7 ; 38080.00000000001
161 ; 75989.51970203758 ; 438605.8914451533 ; 1.4508968521553922E7 ; 4.8905950335634105E7 ; 38318.00000000001
162 ; 74801.02611100322 ; 440344.0448229863 ; 1.458495804125596E7 ; 4.934455622707926E7 ; 38556.00000000001
163 ; 75005.5478498929 ; 442077.86500735156 ; 1.4659759067366963E7 ; 4.978490027190224E7 ; 38794.00000000001
164 ; 75146.85831761232 ; 443807.2809718777 ; 1.4734764615216857E7 ; 5.022697813690959E7 ; 39032.00000000001
165 ; 74613.16840461652 ; 445532.22256772494 ; 1.4809911473534469E7 ; 5.067078541788147E7 ; 39270.00000000001
166 ; 73670.21162068793 ; 447252.62050522544 ; 1.4884524641939085E7 ; 5.111631764044919E7 ; 39508.00000000001
167 ; 73561.03007884836 ; 448968.40633606736 ; 1.4958194853559773E7 ; 5.156357026095442E7 ; 39746.00000000001
168 ; 73435.74345581113 ; 450679.5124360063 ; 1.5031755883638622E7 ; 5.201253866729049E7 ; 39984.00000000001
169 ; 72978.27127143729 ; 452385.8719880872 ; 1.5105191627094433E7 ; 5.24632181797265E7 ; 40222.00000000001
170 ; 73095.71776086921 ; 454087.41896636167 ; 1.517816989836587E7 ; 5.2915604051714584E7 ; 40460.00000000001
171 ; 72301.95734712348 ; 455784.088120084 ; 1.5251265616126738E7 ; 5.3369691470680945E7 ; 40698.00000000001
172 ; 72317.515808278 ; 457475.81495837244 ; 1.5323567573473861E7 ; 5.3825475558801025E7 ; 40936.00000000001
173 ; 72135.55700393561 ; 459162.5357353196 ; 1.539588508928214E7 ; 5.42829513737594E7 ; 41174.00000000001
174 ; 71938.34988931194 ; 460844.18743554 ; 1.5468020646286076E7 ; 5.474211390949471E7 ; 41412.00000000001
175 ; 71767.72499978697 ; 462520.70776013995 ; 1.5539958996175388E7 ; 5.520295809693025E7 ; 41650.00000000001
176 ; 72367.47963597314 ; 464192.03511309635 ; 1.5611726721175175E7 ; 5.566547880469039E7 ; 41888.00000000001
177 ; 72043.66460116155 ; 465858.10858803376 ; 1.5684094200811148E7 ; 5.612967083980349E7 ; 42126.00000000001
178 ; 72716.10902347558 ; 467518.8679553848 ; 1.575613786541231E7 ; 5.659552894839152E7 ; 42364.00000000001
179 ; 72295.8926587823 ; 468762.7290586178 ; 1.5828853974435786E7 ; 5.7063047816346906E7 ; 42602.00000000001
180 ; 72058.30374617844 ; 468762.7290586178 ; 1.5901149867094569E7 ; 5.753181054540552E7 ; 42840.00000000001
181 ; 72498.31299718012 ; 468762.7290586178 ; 1.5973208170840748E7 ; 5.800057327446414E7 ; 43078.00000000001
