CSV File for the Network on Day 336
1 - Minute m 
2 - Power Consumed at minute m 
3 - Power Produced at minute m 
4 - Energy Consumed since the beginning of the day 
5 - Energy Produced since the beginning of the day 
6 - Energy Lost since the beginning of the day 
 
No Production city : 2, Producer : 1
No Production city : 4, Producer : 1
No Production city : 4, Producer : 1
 
0 ; 58562.98297545374 ; 205784.94026052923 ; 0.0 ; 0.0 ; 0.0
1 ; 59473.4155417217 ; 205437.6089068157 ; 58562.98297545374 ; 205784.94026052923 ; 238.00000000000003
2 ; 60180.49239336165 ; 205125.97948850013 ; 118036.39851717543 ; 411222.5491673449 ; 476.00000000000006
3 ; 60868.13046209557 ; 204850.33355379596 ; 178216.8909105371 ; 616348.5286558451 ; 714.0000000000001
4 ; 61646.46432796323 ; 204610.92235558442 ; 239085.02137263268 ; 821198.862209641 ; 952.0000000000001
5 ; 62907.47736892609 ; 204407.96582360522 ; 300731.4857005959 ; 1025809.7845652255 ; 1190.0000000000002
6 ; 63467.121920857375 ; 204241.65165227483 ; 363638.963069522 ; 1230217.7503888307 ; 1428.0000000000002
7 ; 63985.65787664009 ; 204112.13451293687 ; 427106.0849903794 ; 1434459.4020411056 ; 1666.0000000000002
8 ; 64621.51038856818 ; 204019.5353982762 ; 491091.7428670195 ; 1638571.5365540425 ; 1904.0000000000002
9 ; 65519.65364869023 ; 203963.9411054189 ; 555713.2532555877 ; 1842591.0719523188 ; 2142.0000000000005
10 ; 66538.17525575614 ; 203945.40386291925 ; 621232.9069042779 ; 2046555.0130577376 ; 2380.0000000000005
11 ; 67113.84692102927 ; 203963.9411054189 ; 687771.082160034 ; 2250500.416920657 ; 2618.0000000000005
12 ; 67341.23857530925 ; 204019.5353982762 ; 754884.9290810633 ; 2454464.3580260756 ; 2856.0000000000005
13 ; 68531.43246934222 ; 204112.13451293687 ; 822226.1676563725 ; 2658483.8934243517 ; 3094.0000000000005
14 ; 69155.36499258368 ; 204241.65165227477 ; 890757.6001257148 ; 2862596.0279372884 ; 3332.0000000000005
15 ; 69934.48071473489 ; 204407.96582360522 ; 959912.9651182984 ; 3066837.679589563 ; 3570.0000000000005
16 ; 70663.01858858127 ; 204610.92235558442 ; 1029847.4458330333 ; 3271245.6454131682 ; 3808.0000000000005
17 ; 70915.41345457383 ; 204850.3335537959 ; 1100510.4644216145 ; 3475856.5677687526 ; 4046.0000000000005
18 ; 71891.26837557906 ; 205125.9794885002 ; 1171425.8778761884 ; 3680706.9013225483 ; 4284.000000000001
19 ; 72482.96915122343 ; 205437.60890681564 ; 1243317.1462517674 ; 3885832.8808110487 ; 4522.000000000001
20 ; 73046.06620719377 ; 205784.94026052929 ; 1315800.115402991 ; 4091270.4897178644 ; 4760.000000000001
21 ; 73387.13849724882 ; 206167.6628398121 ; 1388846.1816101847 ; 4297055.429978394 ; 4998.000000000001
22 ; 74153.32544406451 ; 206585.4380023546 ; 1462233.3201074335 ; 4503223.092818206 ; 5236.000000000001
23 ; 74938.9072040239 ; 207037.9004868473 ; 1536386.645551498 ; 4709808.530820561 ; 5474.000000000001
24 ; 75658.50284902965 ; 207524.65979930887 ; 1611325.5527555218 ; 4916846.431307408 ; 5712.000000000001
25 ; 75783.12531521748 ; 208045.30166052107 ; 1686984.0556045515 ; 5124371.091106717 ; 5950.000000000001
26 ; 76284.22026925947 ; 208599.3895027439 ; 1762767.180919769 ; 5332416.3927672375 ; 6188.000000000001
27 ; 77229.9649412359 ; 209186.46600396564 ; 1839051.4011890285 ; 5541015.782269982 ; 6426.000000000001
28 ; 77915.33821909355 ; 209806.0546481643 ; 1916281.3661302645 ; 5750202.248273947 ; 6664.000000000001
29 ; 78306.69352216243 ; 210457.6613004213 ; 1994196.704349358 ; 5960008.302922112 ; 6902.000000000001
30 ; 78640.91984827403 ; 211140.7757862045 ; 2072503.3978715206 ; 6170465.964222534 ; 7140.000000000001
31 ; 79267.83277237637 ; 211854.87346472286 ; 2151144.317719795 ; 6381606.740008738 ; 7378.000000000001
32 ; 80028.0464805574 ; 212599.4167869241 ; 2230412.1504921713 ; 6593461.613473461 ; 7616.000000000001
33 ; 80509.0788118826 ; 213373.85682944136 ; 2310440.1969727287 ; 6806061.030260385 ; 7854.000000000001
34 ; 81110.95754990925 ; 214177.63479658662 ; 2390949.2757846112 ; 7019434.887089826 ; 8092.000000000001
35 ; 81063.95712923982 ; 215010.183483308 ; 2472060.2333345204 ; 7233612.521886413 ; 8330.000000000002
36 ; 81690.78071988547 ; 215870.92869287022 ; 2553124.1904637604 ; 7448622.705369721 ; 8568.000000000002
37 ; 82183.32219733065 ; 216759.2906038601 ; 2634814.971183646 ; 7664493.634062591 ; 8806.000000000002
38 ; 82417.25918445799 ; 217674.6850819559 ; 2716998.2933809767 ; 7881252.924666451 ; 9044.000000000002
39 ; 83162.88164987144 ; 218616.5249327112 ; 2799415.5525654345 ; 8098927.609748407 ; 9282.000000000002
40 ; 83824.8525379099 ; 219584.22109238614 ; 2882578.434215306 ; 8317544.134681119 ; 9520.000000000002
41 ; 84391.4816335221 ; 220577.18375460498 ; 2966403.286753216 ; 8537128.355773505 ; 9758.000000000002
42 ; 84456.30879128534 ; 221594.82343131205 ; 3050794.768386738 ; 8757705.53952811 ; 9996.000000000002
43 ; 85123.7354404463 ; 222636.55194714974 ; 3135251.0771780233 ; 8979300.36295942 ; 10234.000000000002
44 ; 85472.51427064557 ; 223701.78336696987 ; 3220374.81261847 ; 9201936.91490657 ; 10472.000000000002
45 ; 85697.55655901998 ; 224789.9348567297 ; 3305847.3268891154 ; 9425638.698273541 ; 10710.000000000002
46 ; 86040.26328732107 ; 225900.4274785 ; 3391544.8834481356 ; 9650428.633130271 ; 10948.000000000002
47 ; 86482.44323924412 ; 227032.68692073613 ; 3477585.146735457 ; 9876329.06060877 ; 11186.000000000002
48 ; 86816.06483711168 ; 228186.1441653269 ; 3564067.589974701 ; 1.0103361747529507E7 ; 11424.000000000002
49 ; 87207.88745145626 ; 229360.23609325083 ; 3650883.6548118126 ; 1.0331547891694834E7 ; 11662.000000000002
50 ; 87452.62940194024 ; 230554.406030928 ; 3738091.542263269 ; 1.0560908127788085E7 ; 11900.000000000002
51 ; 87926.87879077757 ; 231768.10423956622 ; 3825544.1716652093 ; 1.0791462533819014E7 ; 12138.000000000002
52 ; 87730.01838177333 ; 233000.78834997313 ; 3913471.050455987 ; 1.102323063805858E7 ; 12376.000000000002
53 ; 88526.96954099156 ; 234251.92374542324 ; 4001201.0688377605 ; 1.1256231426408553E7 ; 12614.000000000002
54 ; 88935.3513353 ; 235520.98389526427 ; 4089728.038378752 ; 1.1490483350153977E7 ; 12852.000000000002
55 ; 88931.84109921745 ; 236807.45064199585 ; 4178663.389714052 ; 1.1726004334049242E7 ; 13090.000000000002
56 ; 89444.31772208324 ; 238110.81444458058 ; 4267595.2308132695 ; 1.1962811784691237E7 ; 13328.000000000002
57 ; 89647.27273316056 ; 239430.57458074184 ; 4357039.548535353 ; 1.2200922599135818E7 ; 13566.000000000002
58 ; 89899.00651666838 ; 240766.239310978 ; 4446686.821268513 ; 1.244035317371656E7 ; 13804.000000000002
59 ; 90146.40973546544 ; 242117.32600697802 ; 4536585.827785181 ; 1.2681119413027538E7 ; 14042.000000000002
60 ; 90608.38393954575 ; 243483.36124705727 ; 4626732.237520646 ; 1.2923236739034517E7 ; 14280.000000000002
61 ; 90411.74925600711 ; 244863.88088115872 ; 4717340.621460192 ; 1.3166720100281574E7 ; 14518.000000000002
62 ; 90705.78453013746 ; 246258.43006787763 ; 4807752.370716199 ; 1.3411583981162732E7 ; 14756.000000000002
63 ; 90773.32399584266 ; 247666.5632858679 ; 4898458.155246337 ; 1.365784241123061E7 ; 14994.000000000002
64 ; 91334.144815138 ; 249087.84432188768 ; 4989231.47924218 ; 1.390550897451648E7 ; 15232.000000000002
65 ; 91717.71067945563 ; 250521.84623763556 ; 5080565.624057317 ; 1.4154596818838367E7 ; 15470.000000000002
66 ; 91263.46032490308 ; 251968.15131741264 ; 5172283.334736773 ; 1.4405118665076002E7 ; 15708.000000000002
67 ; 91627.06093864287 ; 253426.35099853837 ; 5263546.795061676 ; 1.4657086816393415E7 ; 15946.000000000002
68 ; 92109.54895420693 ; 254896.04578633312 ; 5355173.856000319 ; 1.4910513167391952E7 ; 16184.000000000002
69 ; 92190.239723348 ; 256376.84515536745 ; 5447283.404954526 ; 1.5165409213178284E7 ; 16422.000000000004
70 ; 92365.20966136982 ; 257868.36743857048 ; 5539473.644677874 ; 1.5421786058333652E7 ; 16660.000000000004
71 ; 92409.48649044867 ; 259370.2397056792 ; 5631838.854339244 ; 1.5679654425772222E7 ; 16898.000000000004
72 ; 92640.94921455592 ; 260882.0976324073 ; 5724248.340829693 ; 1.5939024665477902E7 ; 17136.000000000004
73 ; 92700.15126646988 ; 262403.58536161145 ; 5816889.290044249 ; 1.619990676311031E7 ; 17374.000000000004
74 ; 92792.45735496662 ; 263934.3553576331 ; 5909589.441310719 ; 1.6462310348471921E7 ; 17612.000000000004
75 ; 92569.99485613038 ; 265474.0682549051 ; 6002381.898665685 ; 1.6726244703829555E7 ; 17850.000000000004
76 ; 92255.15024386719 ; 267022.3927018189 ; 6094951.893521816 ; 1.699171877208446E7 ; 18088.000000000004
77 ; 92780.10540016438 ; 268579.00520076795 ; 6187207.043765683 ; 1.725874116478628E7 ; 18326.000000000004
78 ; 93061.10708956204 ; 270143.589945203 ; 6279987.149165847 ; 1.752732016998705E7 ; 18564.000000000004
79 ; 93103.75208303783 ; 271715.83865445567 ; 6373048.25625541 ; 1.7797463759932254E7 ; 18802.000000000004
80 ; 92944.47270663569 ; 273295.45040702436 ; 6466152.008338448 ; 1.806917959858671E7 ; 19040.000000000004
81 ; 92642.37009647343 ; 274882.13147294224 ; 6559096.481045083 ; 1.8342475048993733E7 ; 19278.000000000004
82 ; 92999.56029870862 ; 276475.5951457917 ; 6651738.851141556 ; 1.8617357180466674E7 ; 19516.000000000004
83 ; 92887.90467011566 ; 278075.56157486927 ; 6744738.411440264 ; 1.8893832775612466E7 ; 19754.000000000004
84 ; 92924.88365874317 ; 279681.7575979525 ; 6837626.31611038 ; 1.9171908337187335E7 ; 19992.000000000004
85 ; 93173.09922250616 ; 281293.91657507187 ; 6930551.199769123 ; 1.9451590094785288E7 ; 20230.000000000004
86 ; 93002.22965311311 ; 282911.77822364215 ; 7023724.29899163 ; 1.973288401136036E7 ; 20468.000000000004
87 ; 93037.96766976584 ; 284535.0884552714 ; 7116726.528644743 ; 2.0015795789584E7 ; 20706.000000000004
88 ; 92936.83623837997 ; 286163.59921451914 ; 7209764.496314509 ; 2.030033087803927E7 ; 20944.000000000004
89 ; 92852.03445690697 ; 287797.06831984775 ; 7302701.332552888 ; 2.058649447725379E7 ; 21182.000000000004
90 ; 92603.97467126146 ; 289435.2593069718 ; 7395553.367009795 ; 2.0874291545573637E7 ; 21420.000000000004
91 ; 92261.32707185703 ; 291077.94127478526 ; 7488157.341681057 ; 2.1163726804880608E7 ; 21658.000000000004
92 ; 92195.83764073331 ; 292724.8887340155 ; 7580418.668752913 ; 2.1454804746155392E7 ; 21896.000000000004
93 ; 92503.48596557186 ; 294375.88145873224 ; 7672614.506393647 ; 2.174752963488941E7 ; 22134.000000000004
94 ; 92212.32719572459 ; 296030.70434081217 ; 7765117.992359219 ; 2.2041905516348142E7 ; 22372.000000000004
95 ; 92509.55809554516 ; 297689.14724744484 ; 7857330.319554944 ; 2.2337936220688954E7 ; 22610.000000000004
96 ; 92691.25919600343 ; 299351.0048817435 ; 7949839.877650489 ; 2.26356253679364E7 ; 22848.000000000004
97 ; 92350.40823452416 ; 301016.0766465089 ; 8042531.136846492 ; 2.2934976372818142E7 ; 23086.000000000004
98 ; 92035.79508082922 ; 302684.1665111798 ; 8134881.545081017 ; 2.3235992449464653E7 ; 23324.000000000004
99 ; 92030.60136337616 ; 304355.08288199065 ; 8226917.340161846 ; 2.353867661597583E7 ; 23562.000000000004
100 ; 91906.52424848893 ; 306028.63847534324 ; 8318947.941525222 ; 2.384303169885782E7 ; 23800.000000000004
101 ; 91542.29326285567 ; 307704.6501943913 ; 8410854.465773711 ; 2.4149060337333165E7 ; 24038.000000000004
102 ; 91311.86741498538 ; 309382.9390088247 ; 8502396.759036567 ; 2.4456764987527557E7 ; 24276.000000000004
103 ; 90975.40438050663 ; 311063.3298378348 ; 8593708.626451552 ; 2.476614792653638E7 ; 24514.000000000004
104 ; 90755.92557077149 ; 312745.65143623116 ; 8684684.030832058 ; 2.5077211256374218E7 ; 24752.000000000004
105 ; 90502.97852623857 ; 314429.73628367815 ; 8775439.956402829 ; 2.538995690781045E7 ; 24990.000000000004
106 ; 90890.71038106966 ; 316115.42047701025 ; 8865942.934929067 ; 2.570438664409413E7 ; 25228.000000000004
107 ; 90315.39479021344 ; 317802.54362558277 ; 8956833.645310137 ; 2.602050206457114E7 ; 25466.000000000004
108 ; 90173.74629497956 ; 319490.94874960894 ; 9047149.040100351 ; 2.633830460819672E7 ; 25704.000000000004
109 ; 89778.6519768258 ; 321180.48218143254 ; 9137322.78639533 ; 2.665779555694633E7 ; 25942.000000000004
110 ; 89686.16663485802 ; 322870.9934696805 ; 9227101.438372156 ; 2.6978976039127763E7 ; 26180.000000000004
111 ; 89076.80851351022 ; 324562.33528623893 ; 9316787.605007013 ; 2.7301847032597445E7 ; 26418.000000000004
112 ; 89213.27289569408 ; 326254.3633359935 ; 9405864.413520524 ; 2.7626409367883682E7 ; 26656.000000000004
113 ; 89245.06120580077 ; 327946.9362692728 ; 9495077.686416218 ; 2.7952663731219675E7 ; 26894.000000000004
114 ; 88641.2546288108 ; 329639.91559693456 ; 9584322.747622019 ; 2.8280610667488948E7 ; 27132.000000000004
115 ; 88156.63003055983 ; 331333.1656080307 ; 9672964.00225083 ; 2.8610250583085883E7 ; 27370.000000000004
116 ; 87783.57369378663 ; 333026.5532899892 ; 9761120.63228139 ; 2.8941583748693913E7 ; 27608.000000000004
117 ; 88154.92018533553 ; 334719.94825124834 ; 9848904.205975175 ; 2.9274610301983904E7 ; 27846.000000000004
118 ; 87121.12593416926 ; 336413.22264628136 ; 9937059.12616051 ; 2.960933025023515E7 ; 28084.000000000004
119 ; 87003.58351403281 ; 338106.2511029471 ; 1.0024180252094679E7 ; 2.9945743472881433E7 ; 28322.000000000004
120 ; 86363.35019157827 ; 339798.91065210436 ; 1.0111183835608711E7 ; 3.028384972398438E7 ; 28560.000000000004
121 ; 86743.33738644359 ; 341491.08065942785 ; 1.019754718580029E7 ; 3.0623648634636484E7 ; 28798.000000000004
122 ; 85716.56189923924 ; 343182.6427593636 ; 1.0284290523186734E7 ; 3.096513971529591E7 ; 29036.000000000004
123 ; 85486.28890321666 ; 344873.4807911626 ; 1.0370007085085973E7 ; 3.1308322358055275E7 ; 29274.000000000004
124 ; 85050.58184921948 ; 346563.48073693423 ; 1.0455493373989189E7 ; 3.1653195838846438E7 ; 29512.000000000004
125 ; 84447.70029329025 ; 348252.53066165815 ; 1.0540543955838408E7 ; 3.199975931958337E7 ; 29750.000000000004
126 ; 84609.18370652 ; 349940.52065509843 ; 1.0624991656131698E7 ; 3.234801185024503E7 ; 29988.000000000004
127 ; 83910.43695890544 ; 351627.34277556196 ; 1.0709600839838218E7 ; 3.2697952370900128E7 ; 30226.000000000004
128 ; 83770.25928501802 ; 353312.89099544566 ; 1.0793511276797123E7 ; 3.304957971367569E7 ; 30464.000000000004
129 ; 82802.62835187717 ; 354997.0611485183 ; 1.0877281536082141E7 ; 3.3402892604671136E7 ; 30702.000000000004
130 ; 82841.19538522566 ; 356679.7508788821 ; 1.0960084164434018E7 ; 3.375788966581965E7 ; 30940.000000000004
131 ; 81812.88976895221 ; 358360.85959156434 ; 1.1042925359819243E7 ; 3.411456941669854E7 ; 31178.000000000004
132 ; 81535.0226506165 ; 360040.288404685 ; 1.1124738249588195E7 ; 3.4472930276290104E7 ; 31416.000000000004
133 ; 81267.1937147465 ; 361717.9401031543 ; 1.1206273272238811E7 ; 3.483297056469479E7 ; 31654.000000000004
134 ; 80644.99872374511 ; 363393.7190938483 ; 1.1287540465953559E7 ; 3.519468850479794E7 ; 31892.000000000004
135 ; 79788.72348671344 ; 365067.5313622189 ; 1.1368185464677304E7 ; 3.5558082223891795E7 ; 32130.000000000004
136 ; 79527.74276168589 ; 366739.2844302889 ; 1.1447974188164018E7 ; 3.5923149755254015E7 ; 32368.000000000004
137 ; 79093.30057436846 ; 368408.8873159912 ; 1.1527501930925705E7 ; 3.62898890396843E7 ; 32606.000000000004
138 ; 78642.17067407376 ; 370076.25049380574 ; 1.1606595231500072E7 ; 3.665829792700029E7 ; 32844.00000000001
139 ; 77897.96251361218 ; 371741.28585665475 ; 1.1685237402174147E7 ; 3.7028374177494094E7 ; 33082.00000000001
140 ; 77473.42481023892 ; 373403.9066790134 ; 1.176313536468776E7 ; 3.740011546335075E7 ; 33320.00000000001
141 ; 76729.03617426225 ; 375064.0275811975 ; 1.1840608789497998E7 ; 3.777351937002976E7 ; 33558.00000000001
142 ; 76008.63852212155 ; 376721.56449478987 ; 1.191733782567226E7 ; 3.814858339761096E7 ; 33796.00000000001
143 ; 75538.16653101105 ; 378376.43462916766 ; 1.1993346464194382E7 ; 3.852530496210575E7 ; 34034.00000000001
144 ; 74934.00786703914 ; 380028.55643909425 ; 1.2068884630725393E7 ; 3.8903681396734916E7 ; 34272.00000000001
145 ; 75056.62236702767 ; 381677.84959334246 ; 1.2143818638592431E7 ; 3.928370995317401E7 ; 34510.00000000001
146 ; 74767.06564027787 ; 383324.2349443128 ; 1.221887526095946E7 ; 3.966538780276735E7 ; 34748.00000000001
147 ; 74283.76040809714 ; 384967.6344986155 ; 1.2293642326599738E7 ; 4.0048712037711665E7 ; 34986.00000000001
148 ; 74355.66380021229 ; 386607.9713885856 ; 1.2367926087007836E7 ; 4.043367967221028E7 ; 35224.00000000001
149 ; 74236.3220624328 ; 388245.1698446966 ; 1.2442281750808047E7 ; 4.082028764359887E7 ; 35462.00000000001
150 ; 73890.14230819099 ; 389879.15516884776 ; 1.251651807287048E7 ; 4.1208532813443564E7 ; 35700.00000000001
151 ; 74034.24479134401 ; 391509.853708493 ; 1.259040821517867E7 ; 4.159841196861241E7 ; 35938.00000000001
152 ; 73414.83342134606 ; 393137.1928315841 ; 1.2664442459970014E7 ; 4.19899218223209E7 ; 36176.00000000001
153 ; 73791.3013994577 ; 394761.1009023027 ; 1.273785729339136E7 ; 4.2383059015152484E7 ; 36414.00000000001
154 ; 73367.93330248137 ; 396381.5072575535 ; 1.2811648594790818E7 ; 4.277782011605479E7 ; 36652.00000000001
155 ; 73246.34970786553 ; 397998.3421841945 ; 1.2885016528093299E7 ; 4.317420162331234E7 ; 36890.00000000001
156 ; 72687.63693139849 ; 399611.5368969794 ; 1.2958262877801165E7 ; 4.357219996549653E7 ; 37128.00000000001
157 ; 73023.11242068221 ; 401221.02351718914 ; 1.3030950514732564E7 ; 4.3971811502393514E7 ; 37366.00000000001
158 ; 72540.77120623687 ; 402826.7350519294 ; 1.3103973627153246E7 ; 4.4373032525910705E7 ; 37604.00000000001
159 ; 72351.83980643058 ; 404428.6053740728 ; 1.3176514398359483E7 ; 4.4775859260962635E7 ; 37842.00000000001
160 ; 71728.62059344027 ; 406026.5692028234 ; 1.3248866238165913E7 ; 4.518028786633671E7 ; 38080.00000000001
161 ; 71991.2362861637 ; 407620.5620848846 ; 1.3320594858759353E7 ; 4.5586314435539536E7 ; 38318.00000000001
162 ; 71732.92278703838 ; 409210.5203762094 ; 1.3392586095045516E7 ; 4.599393499762442E7 ; 38556.00000000001
163 ; 71740.11161747742 ; 410796.3812243142 ; 1.3464319017832555E7 ; 4.640314551800063E7 ; 38794.00000000001
164 ; 70927.52346350836 ; 412378.0825511381 ; 1.3536059129450032E7 ; 4.6813941899224944E7 ; 39032.00000000001
165 ; 71252.27578813175 ; 413955.56303642946 ; 1.360698665291354E7 ; 4.722631998177608E7 ; 39270.00000000001
166 ; 71201.80914758737 ; 415528.7621016425 ; 1.3678238928701673E7 ; 4.764027554481251E7 ; 39508.00000000001
167 ; 70233.66411313655 ; 417097.61989432725 ; 1.374944073784926E7 ; 4.805580430691415E7 ; 39746.00000000001
168 ; 70636.86110058246 ; 418662.0772729973 ; 1.3819674401962396E7 ; 4.847290192680848E7 ; 39984.00000000001
169 ; 70362.2072874313 ; 420222.0757924588 ; 1.3890311263062978E7 ; 4.889156400408147E7 ; 40222.00000000001
170 ; 69784.11665566964 ; 421777.5576895867 ; 1.3960673470350409E7 ; 4.9311786079873934E7 ; 40460.00000000001
171 ; 69377.22738314034 ; 423328.4658695336 ; 1.4030457587006079E7 ; 4.973356363756352E7 ; 40698.00000000001
172 ; 69283.43890588293 ; 424874.7438923561 ; 1.409983481438922E7 ; 5.015689210343305E7 ; 40936.00000000001
173 ; 68975.03629330962 ; 426416.3359600467 ; 1.4169118253295103E7 ; 5.058176684732541E7 ; 41174.00000000001
174 ; 69598.3928501811 ; 427953.1869039574 ; 1.4238093289588412E7 ; 5.100818318328545E7 ; 41412.00000000001
175 ; 69167.239036679 ; 429485.24217260233 ; 1.4307691682438593E7 ; 5.143613637018941E7 ; 41650.00000000001
176 ; 69432.38111896755 ; 431012.44781982695 ; 1.4376858921475273E7 ; 5.186562161236201E7 ; 41888.00000000001
177 ; 69099.43376282026 ; 432534.7504933334 ; 1.444629130259424E7 ; 5.229663406018184E7 ; 42126.00000000001
178 ; 69657.51056148551 ; 434052.0974235487 ; 1.4515390736357061E7 ; 5.2729168810675174E7 ; 42364.00000000001
179 ; 69145.50314428963 ; 435564.43641282665 ; 1.4585048246918546E7 ; 5.316322090809872E7 ; 42602.00000000001
180 ; 69259.52705826948 ; 437071.7158249714 ; 1.4654193750062836E7 ; 5.3598785344511546E7 ; 42840.00000000001
181 ; 69852.31373662586 ; 438573.8845750729 ; 1.4723453277121106E7 ; 5.4035857060336515E7 ; 43078.00000000001
182 ; 69726.68324027043 ; 440070.8921196454 ; 1.4793305590857731E7 ; 5.447443094491159E7 ; 43316.00000000001
