CSV File for the Network on Day 173
1 - Minute m 
2 - Power Consumed at minute m 
3 - Power Produced at minute m 
4 - Energy Consumed since the beginning of the day 
5 - Energy Produced since the beginning of the day 
6 - Energy Lost since the beginning of the day 
 
No Production city : 2, Producer : 1
No Production city : 4, Producer : 1
No Production city : 4, Producer : 1
 
0 ; 36323.34506599228 ; 153659.30249485312 ; 0.0 ; 0.0 ; 0.0
1 ; 37165.97311337659 ; 153311.664486181 ; 36323.34506599228 ; 153659.30249485312 ; 238.00000000000003
2 ; 38830.45223659881 ; 152999.3546105465 ; 73489.31817936887 ; 306970.96698103414 ; 476.00000000000006
3 ; 40443.098197414976 ; 152722.78377219127 ; 112319.77041596768 ; 459970.32159158064 ; 714.0000000000001
4 ; 41745.42884665397 ; 152482.32080421338 ; 152762.86861338266 ; 612693.1053637719 ; 952.0000000000001
5 ; 43169.451663768414 ; 152278.29022686905 ; 194508.29746003664 ; 765175.4261679853 ; 1190.0000000000002
6 ; 44407.18257178049 ; 152110.97023352177 ; 237677.74912380506 ; 917453.7163948544 ; 1428.0000000000002
7 ; 46138.95765233655 ; 151980.59093288108 ; 282084.93169558555 ; 1069564.6866283761 ; 1666.0000000000002
8 ; 47159.21469198473 ; 151887.3328731819 ; 328223.8893479221 ; 1221545.2775612571 ; 1904.0000000000002
9 ; 48676.874616188776 ; 151831.32587029762 ; 375383.1040399069 ; 1373432.610434439 ; 2142.0000000000005
10 ; 50028.84647998828 ; 151812.6481575548 ; 424059.9786560956 ; 1525263.9363047366 ; 2380.0000000000005
11 ; 51851.33242899667 ; 151831.32587029762 ; 474088.8251360839 ; 1677076.5844622916 ; 2618.0000000000005
12 ; 52522.804200927916 ; 151887.3328731819 ; 525940.1575650806 ; 1828907.9103325892 ; 2856.0000000000005
13 ; 54599.394830648394 ; 151980.59093288108 ; 578462.9617660085 ; 1980795.243205771 ; 3094.0000000000005
14 ; 55727.010145290435 ; 152110.97023352166 ; 633062.356596657 ; 2132775.8341386523 ; 3332.0000000000005
15 ; 56541.002585235095 ; 152278.29022686905 ; 688789.3667419474 ; 2284886.8043721737 ; 3570.0000000000005
16 ; 58180.50662352311 ; 152482.32080421338 ; 745330.3693271824 ; 2437165.094599043 ; 3808.0000000000005
17 ; 59009.00184880767 ; 152722.78377219127 ; 803510.8759507055 ; 2589647.415403256 ; 4046.0000000000005
18 ; 60984.763464131436 ; 152999.3546105465 ; 862519.8777995132 ; 2742370.199175447 ; 4284.000000000001
19 ; 61788.864727426044 ; 153311.664486181 ; 923504.6412636446 ; 2895369.5537859937 ; 4522.000000000001
20 ; 62824.126333019274 ; 153659.30249485312 ; 985293.5059910706 ; 3048681.2182721747 ; 4760.000000000001
21 ; 63777.064028788416 ; 154041.8180996045 ; 1048117.6323240899 ; 3202340.520767028 ; 4998.000000000001
22 ; 65246.99936646917 ; 154458.72373344423 ; 1111894.6963528784 ; 3356382.3388666324 ; 5236.000000000001
23 ; 66590.10762011005 ; 154909.4975330182 ; 1177141.6957193476 ; 3510841.0626000767 ; 5474.000000000001
24 ; 67266.10068974447 ; 155393.58616988105 ; 1243731.8033394576 ; 3665750.560133095 ; 5712.000000000001
25 ; 68280.11282872685 ; 155910.4077465594 ; 1310997.9040292022 ; 3821144.1463029757 ; 5950.000000000001
26 ; 69919.00745589714 ; 156459.35472574746 ; 1379278.016857929 ; 3977054.554049535 ; 6188.000000000001
27 ; 70870.55568354778 ; 157039.79686266117 ; 1449197.024313826 ; 4133513.9087752826 ; 6426.000000000001
28 ; 71635.52103947692 ; 157651.08411268675 ; 1520067.579997374 ; 4290553.705637944 ; 6664.000000000001
29 ; 72767.83361429199 ; 158292.54948891618 ; 1591703.1010368508 ; 4448204.789750631 ; 6902.000000000001
30 ; 73881.59728686699 ; 158963.51184686046 ; 1664470.934651143 ; 4606497.339239547 ; 7140.000000000001
31 ; 74970.5953311086 ; 159663.2785764961 ; 1738352.53193801 ; 4765460.851086408 ; 7378.000000000001
32 ; 75709.32156526334 ; 160391.14818473387 ; 1813323.1272691186 ; 4925124.129662904 ; 7616.000000000001
33 ; 76312.0627229829 ; 161146.412754331 ; 1889032.448834382 ; 5085515.277847637 ; 7854.000000000001
34 ; 77557.3420246115 ; 161928.3602681367 ; 1965344.5115573648 ; 5246661.690601968 ; 8092.000000000001
35 ; 78340.02559741508 ; 162736.2767903007 ; 2042901.8535819764 ; 5408590.050870105 ; 8330.000000000002
36 ; 79645.23689763599 ; 163569.44849864847 ; 2121241.8791793915 ; 5571326.327660405 ; 8568.000000000002
37 ; 79829.81078494163 ; 164427.16356480075 ; 2200887.1160770277 ; 5734895.776159054 ; 8806.000000000002
38 ; 81712.87386663383 ; 165308.71388075597 ; 2280716.9268619693 ; 5899322.939723855 ; 9044.000000000002
39 ; 82312.49072833346 ; 166213.3966325659 ; 2362429.8007286033 ; 6064631.653604611 ; 9282.000000000002
40 ; 82700.54692263703 ; 167140.51572339077 ; 2444742.291456937 ; 6230845.050237177 ; 9520.000000000002
41 ; 83996.1346891582 ; 168089.38304963647 ; 2527442.838379574 ; 6397985.565960567 ; 9758.000000000002
42 ; 84383.81466623751 ; 169059.31963505576 ; 2611438.9730687323 ; 6566074.949010204 ; 9996.000000000002
43 ; 85115.68619302638 ; 170049.6566286492 ; 2695822.78773497 ; 6735134.26864526 ; 10234.000000000002
44 ; 85815.23158275828 ; 171059.7361729408 ; 2780938.4739279966 ; 6905183.925273908 ; 10472.000000000002
45 ; 86878.46183876134 ; 172088.91214975872 ; 2866753.705510755 ; 7076243.661446849 ; 10710.000000000002
46 ; 87489.99914514454 ; 173136.55081102496 ; 2953632.1673495164 ; 7248332.573596608 ; 10948.000000000002
47 ; 88324.97009653595 ; 174202.03130228372 ; 3041122.166494661 ; 7421469.124407633 ; 11186.000000000002
48 ; 88389.53116880501 ; 175284.74608678892 ; 3129447.136591197 ; 7595671.155709917 ; 11424.000000000002
49 ; 89655.10815153731 ; 176384.10127794594 ; 3217836.667760002 ; 7770955.901796706 ; 11662.000000000002
50 ; 90479.41126092152 ; 177499.51688778744 ; 3307491.7759115393 ; 7947340.003074652 ; 11900.000000000002
51 ; 90680.1738555677 ; 178630.42699895918 ; 3397971.187172461 ; 8124839.519962439 ; 12138.000000000002
52 ; 91699.01463715111 ; 179776.27986743735 ; 3488651.3610280287 ; 8303469.946961398 ; 12376.000000000002
53 ; 91781.27597499704 ; 180936.53796288566 ; 3580350.37566518 ; 8483246.226828836 ; 12614.000000000002
54 ; 92132.33284582355 ; 182110.67795321546 ; 3672131.651640177 ; 8664182.764791721 ; 12852.000000000002
55 ; 93701.02707931178 ; 183298.1906395435 ; 3764263.984486 ; 8846293.442744937 ; 13090.000000000002
56 ; 93773.70349071146 ; 184498.58084735437 ; 3857965.011565312 ; 9029591.633384481 ; 13328.000000000002
57 ; 94055.20511580278 ; 185711.36727928146 ; 3951738.715056023 ; 9214090.214231836 ; 13566.000000000002
58 ; 94528.90677426693 ; 186936.08233452702 ; 4045793.9201718257 ; 9399801.581511118 ; 13804.000000000002
59 ; 95693.16087244716 ; 188172.2718995528 ; 4140322.826946093 ; 9586737.663845645 ; 14042.000000000002
60 ; 96165.52981660984 ; 189419.49511429222 ; 4236015.98781854 ; 9774909.935745198 ; 14280.000000000002
61 ; 96550.50258644272 ; 190677.32411776806 ; 4332181.51763515 ; 9964329.430859491 ; 14518.000000000002
62 ; 96574.95155647096 ; 191945.34377665058 ; 4428732.020221593 ; 1.015500675497726E7 ; 14756.000000000002
63 ; 97447.80068424292 ; 193223.151399953 ; 4525306.971778064 ; 1.034695209875391E7 ; 14994.000000000002
64 ; 97564.47661088941 ; 194510.35644274965 ; 4622754.772462307 ; 1.0540175250153864E7 ; 15232.000000000002
65 ; 97950.77268498484 ; 195806.58020150417 ; 4720319.249073196 ; 1.0734685606596613E7 ; 15470.000000000002
66 ; 98283.11801250809 ; 197111.45550331962 ; 4818270.021758181 ; 1.0930492186798118E7 ; 15708.000000000002
67 ; 99042.70971652257 ; 198424.62639116586 ; 4916553.139770689 ; 1.1127603642301438E7 ; 15946.000000000002
68 ; 99189.34365985697 ; 199745.74780690324 ; 5015595.849487212 ; 1.1326028268692603E7 ; 16184.000000000002
69 ; 99730.84449916119 ; 201074.4852737026 ; 5114785.193147069 ; 1.1525774016499506E7 ; 16422.000000000004
70 ; 99718.1186829162 ; 202410.51457926387 ; 5214516.03764623 ; 1.1726848501773208E7 ; 16660.000000000004
71 ; 100179.10605507117 ; 203753.52146105043 ; 5314234.156329147 ; 1.1929259016352473E7 ; 16898.000000000004
72 ; 100604.60446265074 ; 205103.2012945935 ; 5414413.262384218 ; 1.2133012537813524E7 ; 17136.000000000004
73 ; 101174.14252060055 ; 206459.25878576905 ; 5515017.866846869 ; 1.2338115739108117E7 ; 17374.000000000004
74 ; 100898.36991979329 ; 207821.40766781435 ; 5616192.00936747 ; 1.2544574997893887E7 ; 17612.000000000004
75 ; 101167.29620287145 ; 209189.3704037294 ; 5717090.379287263 ; 1.27523964055617E7 ; 17850.000000000004
76 ; 101619.63740010036 ; 210562.87789459934 ; 5818257.675490134 ; 1.296158577596543E7 ; 18088.000000000004
77 ; 101792.79152035635 ; 211941.66919427534 ; 5919877.312890234 ; 1.3172148653860029E7 ; 18326.000000000004
78 ; 101727.47451432698 ; 213325.4912307656 ; 6021670.104410591 ; 1.3384090323054304E7 ; 18564.000000000004
79 ; 101946.8192605876 ; 214714.09853460858 ; 6123397.578924918 ; 1.359741581428507E7 ; 18802.000000000004
80 ; 102196.62673627946 ; 216107.25297443592 ; 6225344.3981855055 ; 1.3812129912819678E7 ; 19040.000000000004
81 ; 102268.19916508545 ; 217504.72349986748 ; 6327541.024921785 ; 1.4028237165794114E7 ; 19278.000000000004
82 ; 102242.10332152434 ; 218906.285891833 ; 6429809.22408687 ; 1.4245741889293982E7 ; 19516.000000000004
83 ; 102631.65696384179 ; 220311.72252036454 ; 6532051.327408395 ; 1.4464648175185814E7 ; 19754.000000000004
84 ; 102192.50501317137 ; 221720.8221098672 ; 6634682.984372237 ; 1.4684959897706179E7 ; 19992.000000000004
85 ; 102652.37739470675 ; 223133.37951183872 ; 6736875.489385408 ; 1.4906680719816046E7 ; 20230.000000000004
86 ; 102631.68132661202 ; 224549.19548497951 ; 6839527.866780115 ; 1.5129814099327885E7 ; 20468.000000000004
87 ; 102907.00145063014 ; 225968.07648261022 ; 6942159.548106727 ; 1.5354363294812864E7 ; 20706.000000000004
88 ; 102752.42438722344 ; 227389.83444729037 ; 7045066.549557357 ; 1.5580331371295474E7 ; 20944.000000000004
89 ; 102502.42801496122 ; 228814.28661251653 ; 7147818.97394458 ; 1.5807721205742765E7 ; 21182.000000000004
90 ; 102227.73815743918 ; 230241.2553113603 ; 7250321.401959541 ; 1.6036535492355281E7 ; 21420.000000000004
91 ; 102216.95513549002 ; 231670.56779189716 ; 7352549.14011698 ; 1.6266776747666642E7 ; 21658.000000000004
92 ; 102498.57416302396 ; 233102.0560392659 ; 7454766.09525247 ; 1.649844731545854E7 ; 21896.000000000004
93 ; 102161.36322481916 ; 234535.55660419076 ; 7557264.669415494 ; 1.6731549371497806E7 ; 22134.000000000004
94 ; 102443.76562406757 ; 235970.9104377934 ; 7659426.032640314 ; 1.6966084928101998E7 ; 22372.000000000004
95 ; 102617.82864080222 ; 237407.9627325176 ; 7761869.7982643815 ; 1.720205583853979E7 ; 22610.000000000004
96 ; 101862.76322116383 ; 238846.56276898584 ; 7864487.626905183 ; 1.7439463801272307E7 ; 22848.000000000004
97 ; 102599.85398589098 ; 240286.56376860756 ; 7966350.390126348 ; 1.767831036404129E7 ; 23086.000000000004
98 ; 101695.9535056154 ; 241727.82275175583 ; 8068950.244112238 ; 1.7918596927809898E7 ; 23324.000000000004
99 ; 101670.33072467842 ; 243170.20040133258 ; 8170646.197617854 ; 1.8160324750561655E7 ; 23562.000000000004
100 ; 101330.11842190809 ; 244613.56093154167 ; 8272316.528342532 ; 1.8403494950962987E7 ; 23800.000000000004
101 ; 101137.81868346092 ; 246057.77196169217 ; 8373646.64676444 ; 1.8648108511894528E7 ; 24038.000000000004
102 ; 100796.93211340463 ; 247502.7043948565 ; 8474784.4654479 ; 1.889416628385622E7 ; 24276.000000000004
103 ; 100686.25976907111 ; 248948.23230121116 ; 8575581.397561306 ; 1.914166898825108E7 ; 24514.000000000004
104 ; 100123.24796837005 ; 250394.23280589137 ; 8676267.657330377 ; 1.939061722055229E7 ; 24752.000000000004
105 ; 99951.14564807183 ; 251840.585981194 ; 8776390.905298747 ; 1.9641011453358185E7 ; 24990.000000000004
106 ; 99711.48992456365 ; 253287.1747429682 ; 8876342.050946819 ; 1.989285203933938E7 ; 25228.000000000004
107 ; 99695.3939081817 ; 254733.88475103688 ; 8976053.540871382 ; 2.0146139214082345E7 ; 25466.000000000004
108 ; 98995.36765482978 ; 256180.60431349542 ; 9075748.934779564 ; 2.0400873098833382E7 ; 25704.000000000004
109 ; 98745.02099470385 ; 257627.2242947406 ; 9174744.302434394 ; 2.065705370314688E7 ; 25942.000000000004
110 ; 98520.84208936983 ; 259073.63802708514 ; 9273489.323429098 ; 2.091468092744162E7 ; 26180.000000000004
111 ; 97516.92453357826 ; 260519.74122581945 ; 9372010.165518468 ; 2.1173754565468706E7 ; 26418.000000000004
112 ; 97528.91002726792 ; 261965.43190758507 ; 9469527.090052046 ; 2.1434274306694526E7 ; 26656.000000000004
113 ; 96971.0943744675 ; 263410.61031193 ; 9567056.000079313 ; 2.1696239738602113E7 ; 26894.000000000004
114 ; 96641.60384675577 ; 264855.17882592056 ; 9664027.09445378 ; 2.1959650348914042E7 ; 27132.000000000004
115 ; 96715.65260776361 ; 266299.04191168805 ; 9760668.698300535 ; 2.2224505527739964E7 ; 27370.000000000004
116 ; 95719.44300602809 ; 267742.1060367935 ; 9857384.350908298 ; 2.2490804569651652E7 ; 27608.000000000004
117 ; 95012.18868638092 ; 269184.2796072975 ; 9953103.793914326 ; 2.2758546675688446E7 ; 27846.000000000004
118 ; 94470.74228723488 ; 270625.4729034278 ; 1.0048115982600706E7 ; 2.302773095529574E7 ; 28084.000000000004
119 ; 94197.14881163609 ; 272065.59801773814 ; 1.0142586724887941E7 ; 2.329835642819917E7 ; 28322.000000000004
120 ; 93740.46070400602 ; 273504.56879566086 ; 1.0236783873699578E7 ; 2.3570422026216906E7 ; 28560.000000000004
121 ; 92785.30500959084 ; 274942.3007783535 ; 1.0330524334403584E7 ; 2.3843926595012568E7 ; 28798.000000000004
122 ; 92431.03491290045 ; 276378.7111477499 ; 1.0423309639413174E7 ; 2.411886889579092E7 ; 29036.000000000004
123 ; 91550.6877378868 ; 277813.71867372387 ; 1.0515740674326075E7 ; 2.439524760693867E7 ; 29274.000000000004
124 ; 90947.0725870649 ; 279247.2436632817 ; 1.0607291362063963E7 ; 2.4673061325612396E7 ; 29512.000000000004
125 ; 90812.0176227293 ; 280679.20791170094 ; 1.0698238434651028E7 ; 2.4952308569275677E7 ; 29750.000000000004
126 ; 89760.31575908056 ; 282109.5346555363 ; 1.0789050452273758E7 ; 2.5232987777187377E7 ; 29988.000000000004
127 ; 89547.61555618736 ; 283538.14852741704 ; 1.087881076803284E7 ; 2.5515097311842915E7 ; 30226.000000000004
128 ; 88432.79834318504 ; 284964.97551256407 ; 1.0968358383589027E7 ; 2.5798635460370332E7 ; 30464.000000000004
129 ; 87895.51828729306 ; 286389.94290695613 ; 1.1056791181932213E7 ; 2.6083600435882896E7 ; 30702.000000000004
130 ; 86754.6340734478 ; 287812.9792770793 ; 1.1144686700219506E7 ; 2.6369990378789853E7 ; 30940.000000000004
131 ; 86341.18609434352 ; 289234.0144211951 ; 1.1231441334292954E7 ; 2.665780335806693E7 ; 31178.000000000004
132 ; 85562.02867115282 ; 290652.97933206626 ; 1.1317782520387297E7 ; 2.6947037372488126E7 ; 31416.000000000004
133 ; 84534.69369633433 ; 292069.8061610819 ; 1.140334454905845E7 ; 2.7237690351820193E7 ; 31654.000000000004
134 ; 84088.36198753132 ; 293484.42818372446 ; 1.1487879242754785E7 ; 2.7529760157981277E7 ; 31892.000000000004
135 ; 82958.28700985124 ; 294896.77976632584 ; 1.1571967604742317E7 ; 2.7823244586165E7 ; 32130.000000000004
136 ; 82314.08522226206 ; 296306.79633406 ; 1.1654925891752169E7 ; 2.8118141365931325E7 ; 32368.000000000004
137 ; 81527.25468089347 ; 297714.4143401236 ; 1.1737239976974431E7 ; 2.8414448162265386E7 ; 32606.000000000004
138 ; 80438.87114078813 ; 299119.57123605534 ; 1.1818767231655326E7 ; 2.871216257660551E7 ; 32844.00000000001
139 ; 79618.02881658442 ; 300522.2054431509 ; 1.1899206102796113E7 ; 2.9011282147841565E7 ; 33082.00000000001
140 ; 78934.36639548608 ; 301922.2563249281 ; 1.1978824131612698E7 ; 2.9311804353284717E7 ; 33320.00000000001
141 ; 77450.36604616625 ; 303319.6641606008 ; 1.2057758498008184E7 ; 2.9613726609609645E7 ; 33558.00000000001
142 ; 76710.81358100142 ; 304714.37011952273 ; 1.213520886405435E7 ; 2.9917046273770247E7 ; 33796.00000000001
143 ; 75910.23934843224 ; 306106.31623656116 ; 1.2211919677635351E7 ; 3.022176064388977E7 ; 34034.00000000001
144 ; 75346.79152168296 ; 307495.4453883654 ; 1.2287829916983783E7 ; 3.0527866960126333E7 ; 34272.00000000001
145 ; 74539.55807961035 ; 308881.7012704933 ; 1.2363176708505467E7 ; 3.08353624055147E7 ; 34510.00000000001
146 ; 74385.67731809794 ; 310265.0283753636 ; 1.2437716266585076E7 ; 3.1144244106785193E7 ; 34748.00000000001
147 ; 74444.25553808793 ; 311645.37197100074 ; 1.2512101943903174E7 ; 3.1454509135160558E7 ; 34986.00000000001
148 ; 73932.41394331974 ; 313022.67808054166 ; 1.2586546199441262E7 ; 3.1766154507131558E7 ; 35224.00000000001
149 ; 73859.39162923415 ; 314396.89346247516 ; 1.2660478613384582E7 ; 3.2079177185212098E7 ; 35462.00000000001
150 ; 73933.07510140812 ; 315767.9655915843 ; 1.2734338005013816E7 ; 3.2393574078674573E7 ; 35700.00000000001
151 ; 73386.65321384433 ; 317135.842640566 ; 1.2808271080115223E7 ; 3.2709342044266157E7 ; 35938.00000000001
152 ; 73111.6978163319 ; 318500.4734623016 ; 1.2881657733329067E7 ; 3.3026477886906724E7 ; 36176.00000000001
153 ; 72877.75789562533 ; 319861.80757275125 ; 1.29547694311454E7 ; 3.3344978360369027E7 ; 36414.00000000001
154 ; 72602.23862241332 ; 321219.7951344516 ; 1.3027647189041026E7 ; 3.366484016794178E7 ; 36652.00000000001
155 ; 72520.01561139105 ; 322574.38694059086 ; 1.310024942766344E7 ; 3.3986059963076234E7 ; 36890.00000000001
156 ; 71586.83958719278 ; 323925.53439964046 ; 1.3172769443274831E7 ; 3.4308634350016825E7 ; 37128.00000000001
157 ; 72230.24673369457 ; 325273.18952052266 ; 1.3244356282862024E7 ; 3.463255988441647E7 ; 37366.00000000001
158 ; 71818.27482679629 ; 326617.3048982919 ; 1.331658652959572E7 ; 3.495783307393699E7 ; 37604.00000000001
159 ; 71226.70880519637 ; 327957.83370031306 ; 1.3388404804422516E7 ; 3.528445037883528E7 ; 37842.00000000001
160 ; 71197.42867966596 ; 329294.729652916 ; 1.3459631513227712E7 ; 3.56124082125356E7 ; 38080.00000000001
161 ; 70972.13990448906 ; 330627.94702850905 ; 1.3530828941907378E7 ; 3.5941702942188516E7 ; 38318.00000000001
162 ; 70573.08768139612 ; 331957.4406331345 ; 1.3601801081811868E7 ; 3.627233088921703E7 ; 38556.00000000001
163 ; 69846.14661381763 ; 333283.16579445 ; 1.3672374169493264E7 ; 3.660428832985016E7 ; 38794.00000000001
164 ; 69921.52867131613 ; 334605.0783501185 ; 1.3742220316107081E7 ; 3.693757149564461E7 ; 39032.00000000001
165 ; 69386.83246112036 ; 335923.1346365939 ; 1.3812141844778398E7 ; 3.7272176573994726E7 ; 39270.00000000001
166 ; 69395.62807148743 ; 337237.291478286 ; 1.3881528677239519E7 ; 3.760809970863132E7 ; 39508.00000000001
167 ; 68934.00656991008 ; 338547.50617709087 ; 1.3950924305311006E7 ; 3.7945337000109605E7 ; 39746.00000000001
168 ; 68875.64092249675 ; 339853.7365022751 ; 1.4019858311880916E7 ; 3.8283884506286696E7 ; 39984.00000000001
169 ; 67739.78135552036 ; 341155.94068069843 ; 1.4088733952803412E7 ; 3.862373824278897E7 ; 40222.00000000001
170 ; 67537.9452398599 ; 342454.0773873645 ; 1.4156473734158933E7 ; 3.896489418346967E7 ; 40460.00000000001
171 ; 67501.08581062018 ; 343748.1057362867 ; 1.4224011679398794E7 ; 3.930734826085703E7 ; 40698.00000000001
172 ; 66899.58838489991 ; 345037.98527165846 ; 1.4291512765209414E7 ; 3.9651096366593316E7 ; 40936.00000000001
173 ; 66640.44664157854 ; 346323.67595931556 ; 1.4358412353594314E7 ; 3.999613435186497E7 ; 41174.00000000001
174 ; 67300.48586930516 ; 347605.138178483 ; 1.4425052800235894E7 ; 4.034245802782429E7 ; 41412.00000000001
175 ; 67000.5322290282 ; 348882.3327137921 ; 1.4492353286105199E7 ; 4.069006316600277E7 ; 41650.00000000001
176 ; 67556.39214257903 ; 350155.2207475622 ; 1.4559353818334227E7 ; 4.103894549871656E7 ; 41888.00000000001
177 ; 67572.72513202149 ; 351423.76385233435 ; 1.4626910210476806E7 ; 4.138910071946412E7 ; 42126.00000000001
178 ; 68035.73976640972 ; 352687.9239836509 ; 1.4694482935608828E7 ; 4.174052448331646E7 ; 42364.00000000001
179 ; 68078.1932844579 ; 353947.6634730697 ; 1.4762518675375238E7 ; 4.209321240730011E7 ; 42602.00000000001
180 ; 68703.63939990585 ; 355202.9450214064 ; 1.4830596868659696E7 ; 4.244716007077318E7 ; 42840.00000000001
181 ; 68339.54213121295 ; 356453.73169219645 ; 1.4899300508059602E7 ; 4.280236301579458E7 ; 43078.00000000001
