CSV File for the Network on Day 282
1 - Minute m 
2 - Power Consumed at minute m 
3 - Power Produced at minute m 
4 - Energy Consumed since the beginning of the day 
5 - Energy Produced since the beginning of the day 
6 - Energy Lost since the beginning of the day 
 
No Production city : 2, Producer : 1
No Production city : 4, Producer : 1
No Production city : 4, Producer : 1
 
0 ; 48713.30265543972 ; 198545.41183752572 ; 0.0 ; 0.0 ; 0.0
1 ; 49762.91487922704 ; 198197.0501845043 ; 48713.30265543972 ; 198545.41183752572 ; 238.00000000000003
2 ; 50886.75240477463 ; 197884.50528091262 ; 98476.21753466676 ; 396742.46202203 ; 476.00000000000006
3 ; 52004.730073601866 ; 197608.05664513021 ; 149362.9699394414 ; 594626.9673029426 ; 714.0000000000001
4 ; 53303.53881704313 ; 197367.95368679613 ; 201367.70001304324 ; 792235.0239480729 ; 952.0000000000001
5 ; 54801.79361315152 ; 197164.414697616 ; 254671.23883008637 ; 989602.977634869 ; 1190.0000000000002
6 ; 55877.19072904251 ; 196997.6259559414 ; 309473.0324432379 ; 1186767.392332485 ; 1428.0000000000002
7 ; 56679.75527632539 ; 196867.7409536725 ; 365350.2231722804 ; 1383765.0182884263 ; 1666.0000000000002
8 ; 57966.77871582851 ; 196774.87975298957 ; 422029.9784486058 ; 1580632.7592420988 ; 1904.0000000000002
9 ; 59669.18230112066 ; 196719.12847924244 ; 479996.7571644343 ; 1777407.6389950884 ; 2142.0000000000005
10 ; 60513.13435302088 ; 196700.53895504464 ; 539665.9394655549 ; 1974126.767474331 ; 2380.0000000000005
11 ; 61511.077292563416 ; 196719.12847924244 ; 600179.0738185758 ; 2170827.3064293754 ; 2618.0000000000005
12 ; 62585.756587708405 ; 196774.87975298957 ; 661690.1511111392 ; 2367546.4349086178 ; 2856.0000000000005
13 ; 63777.196232735085 ; 196867.7409536725 ; 724275.9076988476 ; 2564321.314661607 ; 3094.0000000000005
14 ; 65230.86526485837 ; 196997.62595594127 ; 788053.1039315826 ; 2761189.05561528 ; 3332.0000000000005
15 ; 66062.99838410113 ; 197164.414697616 ; 853283.969196441 ; 2958186.681571221 ; 3570.0000000000005
16 ; 67091.44229445909 ; 197367.95368679613 ; 919346.9675805421 ; 3155351.096268837 ; 3808.0000000000005
17 ; 68179.75920779842 ; 197608.05664513016 ; 986438.4098750012 ; 3352719.049955633 ; 4046.0000000000005
18 ; 69320.99935282097 ; 197884.50528091268 ; 1054618.1690827997 ; 3550327.1066007633 ; 4284.000000000001
19 ; 70741.6505412956 ; 198197.05018450425 ; 1123939.1684356206 ; 3748211.611881676 ; 4522.000000000001
20 ; 70756.89671867935 ; 198545.41183752578 ; 1194680.8189769161 ; 3946408.6620661803 ; 4760.000000000001
21 ; 72556.72464706222 ; 198929.28172637767 ; 1265437.7156955954 ; 4144954.073903706 ; 4998.000000000001
22 ; 73260.76882850441 ; 199348.32354989072 ; 1337994.4403426575 ; 4343883.355630084 ; 5236.000000000001
23 ; 74397.67795301667 ; 199802.17451033322 ; 1411255.209171162 ; 4543231.679179975 ; 5474.000000000001
24 ; 75483.65443198051 ; 200290.4466765831 ; 1485652.8871241787 ; 4743033.853690308 ; 5712.000000000001
25 ; 76041.47779570652 ; 200812.7284080226 ; 1561136.5415561593 ; 4943324.300366891 ; 5950.000000000001
26 ; 77005.40226389811 ; 201368.58582762466 ; 1637178.0193518659 ; 5144137.028774913 ; 6188.000000000001
27 ; 77864.61561388466 ; 201957.56433276169 ; 1714183.421615764 ; 5345505.614602538 ; 6426.000000000001
28 ; 78854.2790411161 ; 202579.19013247977 ; 1792048.0372296488 ; 5547463.1789353 ; 6664.000000000001
29 ; 79082.47520508252 ; 203232.9718003148 ; 1870902.316270765 ; 5750042.36906778 ; 6902.000000000001
30 ; 80074.77913741296 ; 203918.40183218668 ; 1949984.7914758474 ; 5953275.340868095 ; 7140.000000000001
31 ; 81580.43658125709 ; 204634.9581994629 ; 2030059.5706132604 ; 6157193.742700282 ; 7378.000000000001
32 ; 82276.69187825576 ; 205382.10588792292 ; 2111640.0071945176 ; 6361828.700899744 ; 7616.000000000001
33 ; 83029.60222682361 ; 206159.29841406475 ; 2193916.6990727736 ; 6567210.806787668 ; 7854.000000000001
34 ; 83520.98033893449 ; 206965.97931095358 ; 2276946.301299597 ; 6773370.105201732 ; 8092.000000000001
35 ; 84705.18591109035 ; 207801.58357660775 ; 2360467.2816385315 ; 6980336.084512686 ; 8330.000000000002
36 ; 85413.27362195618 ; 208665.5390787297 ; 2445172.467549622 ; 7188137.668089294 ; 8568.000000000002
37 ; 86010.68194992677 ; 209557.26791040873 ; 2530585.7411715784 ; 7396803.207168024 ; 8806.000000000002
38 ; 86671.07831081415 ; 210476.18769223563 ; 2616596.4231215054 ; 7606360.475078433 ; 9044.000000000002
39 ; 87508.465896359 ; 211421.71281705826 ; 2703267.5014323196 ; 7816836.662770668 ; 9282.000000000002
40 ; 88129.62599676277 ; 212393.2556343744 ; 2790775.967328679 ; 8028258.375587726 ; 9520.000000000002
41 ; 88590.97496761722 ; 213390.22757208353 ; 2878905.5933254417 ; 8240651.6312221 ; 9758.000000000002
42 ; 89440.0710030826 ; 214412.04019400245 ; 2967496.568293059 ; 8454041.858794184 ; 9996.000000000002
43 ; 89771.10440399157 ; 215458.10619218758 ; 3056936.6392961415 ; 8668453.898988187 ; 10234.000000000002
44 ; 90695.74363437839 ; 216527.8403136857 ; 3146707.743700133 ; 8883912.005180376 ; 10472.000000000002
45 ; 91297.93922403915 ; 217620.66022187163 ; 3237403.4873345117 ; 9100439.845494062 ; 10710.000000000002
46 ; 92208.03189567532 ; 218735.98729299637 ; 3328701.426558551 ; 9318060.505715933 ; 10948.000000000002
47 ; 92538.7161318509 ; 219873.24734899856 ; 3420909.458454226 ; 9536796.493008928 ; 11186.000000000002
48 ; 92836.40197600063 ; 221031.87132798758 ; 3513448.174586077 ; 9756669.740357926 ; 11424.000000000002
49 ; 93666.57689748012 ; 222211.29589412734 ; 3606284.5765620777 ; 9977701.611685913 ; 11662.000000000002
50 ; 94508.36382117023 ; 223410.96398890734 ; 3699951.153459558 ; 1.019991290758004E7 ; 11900.000000000002
51 ; 94746.69230721828 ; 224630.32532600447 ; 3794459.517280728 ; 1.0423323871568948E7 ; 12138.000000000002
52 ; 95268.28247025731 ; 225868.83683211065 ; 3889206.2095879465 ; 1.0647954196894953E7 ; 12376.000000000002
53 ; 95877.6215812331 ; 227125.96303623106 ; 3984474.492058204 ; 1.0873823033727063E7 ; 12614.000000000002
54 ; 95984.37727216959 ; 228401.17641005036 ; 4080352.113639437 ; 1.1100948996763295E7 ; 12852.000000000002
55 ; 96632.60618238706 ; 229693.95766202477 ; 4176336.4909116067 ; 1.1329350173173346E7 ; 13090.000000000002
56 ; 97096.17005005997 ; 231003.795987888 ; 4272969.097093994 ; 1.1559044130835371E7 ; 13328.000000000002
57 ; 97617.86922364066 ; 232330.1892802599 ; 4370065.267144054 ; 1.1790047926823258E7 ; 13566.000000000002
58 ; 97806.93846636509 ; 233672.64430002775 ; 4467683.1363676945 ; 1.2022378116103519E7 ; 13804.000000000002
59 ; 97819.55448540591 ; 235030.67681213247 ; 4565490.07483406 ; 1.2256050760403547E7 ; 14042.000000000002
60 ; 98911.89520996941 ; 236403.81168833026 ; 4663309.629319466 ; 1.249108143721568E7 ; 14280.000000000002
61 ; 99243.67999927816 ; 237791.58297943434 ; 4762221.524529435 ; 1.272748524890401E7 ; 14518.000000000002
62 ; 99820.8628118543 ; 239193.5339594556 ; 4861465.204528713 ; 1.2965276831883445E7 ; 14756.000000000002
63 ; 99851.81406501768 ; 240609.21714397223 ; 4961286.067340567 ; 1.3204470365842901E7 ; 14994.000000000002
64 ; 100219.62169489845 ; 242038.19428495714 ; 5061137.8814055845 ; 1.3445079582986873E7 ; 15232.000000000002
65 ; 100665.83497156345 ; 243480.036344192 ; 5161357.503100483 ; 1.368711777727183E7 ; 15470.000000000002
66 ; 100763.90958771572 ; 244934.32344728668 ; 5262023.338072047 ; 1.3930597813616022E7 ; 15708.000000000002
67 ; 101731.36351317943 ; 246400.64482021576 ; 5362787.247659762 ; 1.417553213706331E7 ; 15946.000000000002
68 ; 101223.52785923841 ; 247878.5987101746 ; 5464518.6111729415 ; 1.4421932781883525E7 ; 16184.000000000002
69 ; 101591.34625675845 ; 249367.7922924481 ; 5565742.1390321795 ; 1.4669811380593698E7 ; 16422.000000000004
70 ; 101983.47128335618 ; 250867.8415648766 ; 5667333.485288938 ; 1.4919179172886146E7 ; 16660.000000000004
71 ; 102256.0038696892 ; 252378.37123140052 ; 5769316.956572293 ; 1.5170047014451023E7 ; 16898.000000000004
72 ; 101886.15335579077 ; 253899.0145760604 ; 5871572.960441982 ; 1.5422425385682425E7 ; 17136.000000000004
73 ; 102987.25650473956 ; 255429.41332873114 ; 5973459.113797773 ; 1.5676324400258485E7 ; 17374.000000000004
74 ; 103024.47934044774 ; 256969.21752377256 ; 6076446.370302512 ; 1.5931753813587217E7 ; 17612.000000000004
75 ; 103109.86712597223 ; 258518.08535268757 ; 6179470.84964296 ; 1.6188723031110989E7 ; 17850.000000000004
76 ; 102992.20829909973 ; 260075.68301179167 ; 6282580.7167689325 ; 1.6447241116463676E7 ; 18088.000000000004
77 ; 103678.5100632487 ; 261641.68454581412 ; 6385572.925068032 ; 1.6707316799475469E7 ; 18326.000000000004
78 ; 103212.49512023774 ; 263215.7716882726 ; 6489251.435131281 ; 1.6968958484021284E7 ; 18564.000000000004
79 ; 103796.21530924724 ; 264797.6336993889 ; 6592463.930251518 ; 1.7232174255709555E7 ; 18802.000000000004
80 ; 103946.80519188152 ; 266386.9672022438 ; 6696260.145560766 ; 1.7496971889408942E7 ; 19040.000000000004
81 ; 103483.9015565443 ; 267983.4760178026 ; 6800206.950752648 ; 1.7763358856611185E7 ; 19278.000000000004
82 ; 103721.72868335052 ; 269586.8709993829 ; 6903690.852309192 ; 1.8031342332628988E7 ; 19516.000000000004
83 ; 103916.99027378563 ; 271196.8698670788 ; 7007412.580992542 ; 1.8300929203628372E7 ; 19754.000000000004
84 ; 103828.73412241161 ; 272813.19704260014 ; 7111329.571266328 ; 1.857212607349545E7 ; 19992.000000000004
85 ; 103657.95288150996 ; 274435.58348494157 ; 7215158.305388739 ; 1.884493927053805E7 ; 20230.000000000004
86 ; 104052.98027125557 ; 276063.76652724366 ; 7318816.25827025 ; 1.911937485402299E7 ; 20468.000000000004
87 ; 103802.44993102609 ; 277697.4897151717 ; 7422869.238541505 ; 1.9395438620550234E7 ; 20706.000000000004
88 ; 103937.4977827659 ; 279336.5026470952 ; 7526671.688472532 ; 1.9673136110265404E7 ; 20944.000000000004
89 ; 103684.33695893825 ; 280980.5608163188 ; 7630609.186255298 ; 1.99524726129125E7 ; 21182.000000000004
90 ; 103560.92110503408 ; 282629.4254555782 ; 7734293.523214236 ; 2.0233453173728816E7 ; 21420.000000000004
91 ; 103912.69487978118 ; 284282.86338398885 ; 7837854.44431927 ; 2.0516082599184394E7 ; 21658.000000000004
92 ; 103896.00355197577 ; 285940.646856605 ; 7941767.139199051 ; 2.0800365462568384E7 ; 21896.000000000004
93 ; 103313.29593498817 ; 287602.55341672315 ; 8045663.142751027 ; 2.108630610942499E7 ; 22134.000000000004
94 ; 103572.32273948404 ; 289268.3657510391 ; 8148976.438686015 ; 2.137390866284171E7 ; 22372.000000000004
95 ; 103535.29632613572 ; 290937.87154775107 ; 8252548.761425499 ; 2.166317702859275E7 ; 22610.000000000004
96 ; 103793.5032875577 ; 292610.863357678 ; 8356084.057751634 ; 2.19541149001405E7 ; 22848.000000000004
97 ; 103292.30730235753 ; 294287.13845844887 ; 8459877.561039193 ; 2.224672576349818E7 ; 23086.000000000004
98 ; 102912.42728842775 ; 295966.49872180156 ; 8563169.86834155 ; 2.254101290195663E7 ; 23324.000000000004
99 ; 102838.58702678699 ; 297648.7504840176 ; 8666082.295629978 ; 2.283697940067843E7 ; 23562.000000000004
100 ; 102419.5368735884 ; 299333.70441950555 ; 8768920.882656764 ; 2.3134628151162446E7 ; 23800.000000000004
101 ; 102327.34379961966 ; 301021.1754175363 ; 8871340.419530353 ; 2.343396185558195E7 ; 24038.000000000004
102 ; 102327.82388599904 ; 302710.9824621226 ; 8973667.763329972 ; 2.3734983030999485E7 ; 24276.000000000004
103 ; 102101.71522877485 ; 304402.9485150276 ; 9075995.587215971 ; 2.403769401346161E7 ; 24514.000000000004
104 ; 102010.46184470216 ; 306096.9004018783 ; 9178097.302444747 ; 2.4342096961976636E7 ; 24752.000000000004
105 ; 101171.47081030758 ; 307792.66870135546 ; 9280107.764289448 ; 2.4648193862378515E7 ; 24990.000000000004
106 ; 101222.43649415854 ; 309490.0876374226 ; 9381279.235099755 ; 2.495598653107987E7 ; 25228.000000000004
107 ; 100852.89575663573 ; 311188.99497455533 ; 9482501.671593914 ; 2.526547661871729E7 ; 25466.000000000004
108 ; 100265.61279776238 ; 312889.2319159234 ; 9583354.56735055 ; 2.5576665613691844E7 ; 25704.000000000004
109 ; 100601.8793046098 ; 314590.6430044797 ; 9683620.180148313 ; 2.588955484560777E7 ; 25942.000000000004
110 ; 99951.44129978136 ; 316293.07602690207 ; 9784222.059452923 ; 2.620414548861225E7 ; 26180.000000000004
111 ; 99250.30638726719 ; 317996.38192033465 ; 9884173.500752704 ; 2.652043856463915E7 ; 26418.000000000004
112 ; 98905.13857078268 ; 319700.41468187247 ; 9983423.807139972 ; 2.6838434946559485E7 ; 26656.000000000004
113 ; 98678.91638180065 ; 321405.03128072957 ; 1.0082328945710754E7 ; 2.715813536124136E7 ; 26894.000000000004
114 ; 98080.38542309392 ; 323110.09157303267 ; 1.0181007862092555E7 ; 2.747954039252209E7 ; 27132.000000000004
115 ; 97640.25656563159 ; 324815.45821917977 ; 1.0279088247515649E7 ; 2.7802650484095123E7 ; 27370.000000000004
116 ; 97419.20930932918 ; 326520.99660370115 ; 1.037672850408128E7 ; 2.81274659423143E7 ; 27608.000000000004
117 ; 96741.6318117809 ; 328226.5747575625 ; 1.047414771339061E7 ; 2.8453986938918002E7 ; 27846.000000000004
118 ; 96228.69877615664 ; 329932.0632828475 ; 1.057088934520239E7 ; 2.8782213513675563E7 ; 28084.000000000004
119 ; 95840.37706658871 ; 331637.33527975925 ; 1.0667118043978546E7 ; 2.911214557695841E7 ; 28322.000000000004
120 ; 95135.79805964188 ; 333342.26627587795 ; 1.0762958421045134E7 ; 2.944378291223817E7 ; 28560.000000000004
121 ; 94875.87354989428 ; 335046.7341576135 ; 1.0858094219104776E7 ; 2.977712517851405E7 ; 28798.000000000004
122 ; 94107.37937549401 ; 336750.6191037948 ; 1.095297009265467E7 ; 3.0112171912671663E7 ; 29036.000000000004
123 ; 93574.91742613597 ; 338453.80352133233 ; 1.1047077472030163E7 ; 3.0448922531775456E7 ; 29274.000000000004
124 ; 93171.15544997963 ; 340156.1719828986 ; 1.1140652389456298E7 ; 3.0787376335296787E7 ; 29512.000000000004
125 ; 92652.53757610892 ; 341857.61116656475 ; 1.1233823544906277E7 ; 3.1127532507279687E7 ; 29750.000000000004
126 ; 91825.07449311196 ; 343558.00979733944 ; 1.1326476082482386E7 ; 3.1469390118446253E7 ; 29988.000000000004
127 ; 91390.65181000481 ; 345257.25859055144 ; 1.1418301156975498E7 ; 3.181294812824359E7 ; 30226.000000000004
128 ; 90926.47897616259 ; 346955.2501970213 ; 1.1509691808785504E7 ; 3.2158205386834145E7 ; 30464.000000000004
129 ; 89947.90493365514 ; 348651.87914996885 ; 1.1600618287761666E7 ; 3.2505160637031168E7 ; 30702.000000000004
130 ; 89592.02313870243 ; 350347.04181360314 ; 1.1690566192695322E7 ; 3.2853812516181137E7 ; 30940.000000000004
131 ; 88688.10683732873 ; 352040.63633334264 ; 1.1780158215834023E7 ; 3.3204159557994742E7 ; 31178.000000000004
132 ; 88483.83660188703 ; 353732.5625876164 ; 1.1868846322671352E7 ; 3.3556200194328085E7 ; 31416.000000000004
133 ; 87033.00265287134 ; 355422.7221411966 ; 1.1957330159273239E7 ; 3.39099327569157E7 ; 31654.000000000004
134 ; 86735.56396966525 ; 357111.0182000131 ; 1.204436316192611E7 ; 3.42653554790569E7 ; 31892.000000000004
135 ; 85945.65543033478 ; 358797.3555674056 ; 1.2131098725895775E7 ; 3.462246649725691E7 ; 32130.000000000004
136 ; 85406.9827737684 ; 360481.6406017664 ; 1.2217044381326111E7 ; 3.4981263852824315E7 ; 32368.000000000004
137 ; 84559.62342154756 ; 362163.7811755297 ; 1.2302451364099879E7 ; 3.5341745493426085E7 ; 32606.000000000004
138 ; 84052.20801737245 ; 363843.68663546455 ; 1.2387010987521427E7 ; 3.5703909274601616E7 ; 32844.00000000001
139 ; 82877.0259085985 ; 365521.2677642298 ; 1.2471063195538798E7 ; 3.606775296123708E7 ; 33082.00000000001
140 ; 82371.22399400518 ; 367196.4367431501 ; 1.2553940221447397E7 ; 3.643327422900131E7 ; 33320.00000000001
141 ; 81218.57865083823 ; 368869.1071161736 ; 1.2636311445441402E7 ; 3.680047066574446E7 ; 33558.00000000001
142 ; 80340.601270468 ; 370539.19375497324 ; 1.271753002409224E7 ; 3.716933977286063E7 ; 33796.00000000001
143 ; 79478.08245887593 ; 372206.6128251548 ; 1.279787062536271E7 ; 3.75398789666156E7 ; 34034.00000000001
144 ; 78519.49346570917 ; 373871.28175353457 ; 1.2877348707821585E7 ; 3.791208557944076E7 ; 34272.00000000001
145 ; 78153.66417209143 ; 375533.11919645313 ; 1.2955868201287294E7 ; 3.828595686119429E7 ; 34510.00000000001
146 ; 77979.37523206451 ; 377192.04500909033 ; 1.3034021865459384E7 ; 3.866148998039074E7 ; 34748.00000000001
147 ; 77986.81904009347 ; 378847.98021574994 ; 1.311200124069145E7 ; 3.9038682025399834E7 ; 34986.00000000001
148 ; 77873.46393531344 ; 380500.8469810805 ; 1.3189988059731543E7 ; 3.9417530005615585E7 ; 35224.00000000001
149 ; 77812.17322353508 ; 382150.56858220405 ; 1.3267861523666857E7 ; 3.979803085259666E7 ; 35462.00000000001
150 ; 76838.04980393162 ; 383797.06938172027 ; 1.3345673696890391E7 ; 4.018018142117887E7 ; 35700.00000000001
151 ; 77309.47303932035 ; 385440.2748015594 ; 1.3422511746694323E7 ; 4.056397849056059E7 ; 35938.00000000001
152 ; 77300.94982978974 ; 387080.1112976555 ; 1.3499821219733642E7 ; 4.094941876536215E7 ; 36176.00000000001
153 ; 76861.59710298858 ; 388716.5063354124 ; 1.3577122169563431E7 ; 4.13364988766598E7 ; 36414.00000000001
154 ; 76436.26773673945 ; 390349.3883659374 ; 1.365398376666642E7 ; 4.172521538299522E7 ; 36652.00000000001
155 ; 76101.92892121832 ; 391978.6868030169 ; 1.3730420034403158E7 ; 4.211556477136116E7 ; 36890.00000000001
156 ; 75843.53288979975 ; 393604.3320008096 ; 1.3806521963324377E7 ; 4.250754345816418E7 ; 37128.00000000001
157 ; 75468.44132016534 ; 395226.2552322338 ; 1.3882365496214177E7 ; 4.2901147790164985E7 ; 37366.00000000001
158 ; 75432.71095211909 ; 396844.3886680263 ; 1.3957833937534343E7 ; 4.329637404539722E7 ; 37604.00000000001
159 ; 74878.40732149156 ; 398458.6653564505 ; 1.4033266648486463E7 ; 4.3693218434065245E7 ; 37842.00000000001
160 ; 74935.97135954903 ; 400069.01920363295 ; 1.4108145055807956E7 ; 4.4091677099421695E7 ; 38080.00000000001
161 ; 74501.89881160126 ; 401675.38495450676 ; 1.4183081027167505E7 ; 4.449174611862533E7 ; 38318.00000000001
162 ; 74506.71554712298 ; 403277.6981743433 ; 1.4257582925979106E7 ; 4.489342150357983E7 ; 38556.00000000001
163 ; 73919.32951631048 ; 404875.8952308529 ; 1.4332089641526228E7 ; 4.5296699201754175E7 ; 38794.00000000001
164 ; 73552.00904138299 ; 406469.9132768335 ; 1.4406008971042538E7 ; 4.570157509698503E7 ; 39032.00000000001
165 ; 73286.92633349927 ; 408059.69023335376 ; 1.4479560980083922E7 ; 4.610804501026186E7 ; 39270.00000000001
166 ; 72757.48603601237 ; 409645.16477344953 ; 1.4552847906417422E7 ; 4.651610470049522E7 ; 39508.00000000001
167 ; 72866.29385144153 ; 411226.27630631835 ; 1.4625605392453434E7 ; 4.692574986526867E7 ; 39746.00000000001
168 ; 72547.0116578469 ; 412802.9649619964 ; 1.4698471686304875E7 ; 4.733697614157499E7 ; 39984.00000000001
169 ; 71595.96236674921 ; 414375.171576501 ; 1.4771018697962722E7 ; 4.7749779106536984E7 ; 40222.00000000001
170 ; 71566.68728084172 ; 415942.83767742396 ; 1.484261466032947E7 ; 4.8164154278113484E7 ; 40460.00000000001
171 ; 71138.43594282854 ; 417505.9054699633 ; 1.4914181347610312E7 ; 4.858009711579091E7 ; 40698.00000000001
172 ; 70585.84062871177 ; 419064.31782337534 ; 1.498531978355314E7 ; 4.899760302126087E7 ; 40936.00000000001
173 ; 70853.0495929457 ; 420618.01825783623 ; 1.5055905624181852E7 ; 4.9416667339084245E7 ; 41174.00000000001
174 ; 70595.72675210578 ; 422166.9509317002 ; 1.5126758673774797E7 ; 4.983728535734208E7 ; 41412.00000000001
175 ; 71569.43022940558 ; 423711.06062913977 ; 1.5197354400526904E7 ; 5.025945230827378E7 ; 41650.00000000001
176 ; 71105.36082466049 ; 425250.2927481568 ; 1.5268923830756309E7 ; 5.0683163368902914E7 ; 41888.00000000001
177 ; 70993.50049604343 ; 426784.5932889533 ; 1.534002919158097E7 ; 5.110841366165107E7 ; 42126.00000000001
178 ; 71382.1561272081 ; 428313.9088426487 ; 1.5411022692077013E7 ; 5.153519825494002E7 ; 42364.00000000001
179 ; 71307.63559846263 ; 429838.18658033444 ; 1.5482404848204222E7 ; 5.196351216378266E7 ; 42602.00000000001
180 ; 71535.67805690737 ; 431357.37424245325 ; 1.5553712483802684E7 ; 5.2393350350363E7 ; 42840.00000000001
181 ; 71872.13036732824 ; 432871.4201284951 ; 1.562524816185959E7 ; 5.2824707724605456E7 ; 43078.00000000001
