CSV File for the Network on Day 334
1 - Minute m 
2 - Power Consumed at minute m 
3 - Power Produced at minute m 
4 - Energy Consumed since the beginning of the day 
5 - Energy Produced since the beginning of the day 
6 - Energy Lost since the beginning of the day 
 
No Production city : 2, Producer : 1
No Production city : 4, Producer : 1
No Production city : 4, Producer : 1
 
0 ; 58886.53507723854 ; 209579.70352700108 ; 0.0 ; 0.0 ; 0.0
1 ; 59604.413630156516 ; 209230.18806709524 ; 58886.53507723854 ; 209579.70352700108 ; 238.00000000000003
2 ; 60250.57186311978 ; 208916.6170693506 ; 118490.94870739506 ; 418809.8915940963 ; 476.00000000000006
3 ; 61200.64500046562 ; 208639.26805583347 ; 178741.52057051484 ; 627726.5086634469 ; 714.0000000000001
4 ; 62391.712967302155 ; 208398.3886228057 ; 239942.16557098046 ; 836365.7767192803 ; 952.0000000000001
5 ; 63102.23825063302 ; 208194.1954500517 ; 302333.8785382826 ; 1044764.165342086 ; 1190.0000000000002
6 ; 63643.40564794368 ; 208026.8734221274 ; 365436.1167889156 ; 1252958.3607921377 ; 1428.0000000000002
7 ; 64609.23598871615 ; 207896.57486983284 ; 429079.52243685926 ; 1460985.2342142651 ; 1666.0000000000002
8 ; 65520.979526352945 ; 207803.41893918958 ; 493688.7584255754 ; 1668881.8090840979 ; 1904.0000000000002
9 ; 66179.1545240161 ; 207747.4910940614 ; 559209.7379519283 ; 1876685.2280232874 ; 2142.0000000000005
10 ; 66973.21340867715 ; 207728.84275731258 ; 625388.8924759444 ; 2084432.7191173488 ; 2380.0000000000005
11 ; 67508.0521206472 ; 207747.4910940614 ; 692362.1058846215 ; 2292161.5618746616 ; 2618.0000000000005
12 ; 68520.87259423747 ; 207803.41893918958 ; 759870.1580052687 ; 2499909.052968723 ; 2856.0000000000005
13 ; 69152.76969239753 ; 207896.57486983284 ; 828391.0305995061 ; 2707712.4719079123 ; 3094.0000000000005
14 ; 69744.12639021913 ; 208026.87342212733 ; 897543.8002919037 ; 2915609.0467777452 ; 3332.0000000000005
15 ; 70271.94609206698 ; 208194.1954500517 ; 967287.9266821228 ; 3123635.9201998725 ; 3570.0000000000005
16 ; 71069.92362342597 ; 208398.3886228057 ; 1037559.8727741897 ; 3331830.115649924 ; 3808.0000000000005
17 ; 71520.71439625788 ; 208639.2680558334 ; 1108629.7963976157 ; 3540228.50427273 ; 4046.0000000000005
18 ; 72218.843416017 ; 208916.61706935067 ; 1180150.5107938736 ; 3748867.7723285635 ; 4284.000000000001
19 ; 73227.72893772893 ; 209230.18806709518 ; 1252369.3542098906 ; 3957784.389397914 ; 4522.000000000001
20 ; 73702.43141761205 ; 209579.70352700114 ; 1325597.0831476196 ; 4167014.5774650094 ; 4760.000000000001
21 ; 74637.36146728582 ; 209964.85709462198 ; 1399299.5145652317 ; 4376594.280992011 ; 4998.000000000001
22 ; 74604.38389528135 ; 210385.31476939638 ; 1473936.8760325175 ; 4586559.138086633 ; 5236.000000000001
23 ; 75519.08085530548 ; 210840.71617327997 ; 1548541.259927799 ; 4796944.452856029 ; 5474.000000000001
24 ; 76336.14032974203 ; 211330.6758908528 ; 1624060.3407831045 ; 5007785.169029309 ; 5712.000000000001
25 ; 76570.87711916368 ; 211854.78486975998 ; 1700396.4811128466 ; 5219115.844920162 ; 5950.000000000001
26 ; 77372.93800704792 ; 212412.6118702435 ; 1776967.3582320104 ; 5430970.629789922 ; 6188.000000000001
27 ; 78068.26256125634 ; 213003.70495257847 ; 1854340.2962390583 ; 5643383.241660166 ; 6426.000000000001
28 ; 78220.98537167763 ; 213627.59299141157 ; 1932408.5588003146 ; 5856386.946612744 ; 6664.000000000001
29 ; 79167.6210929142 ; 214283.78720632434 ; 2010629.5441719922 ; 6070014.539604155 ; 6902.000000000001
30 ; 79732.40532279758 ; 214971.7826983693 ; 2089797.1652649064 ; 6284298.32681048 ; 7140.000000000001
31 ; 80020.9015343277 ; 215691.0599828615 ; 2169529.570587704 ; 6499270.10950885 ; 7378.000000000001
32 ; 80905.6603942238 ; 216441.08650932 ; 2249550.4721220317 ; 6714961.169491711 ; 7616.000000000001
33 ; 81045.87579033239 ; 217221.31816013332 ; 2330456.1325162556 ; 6931402.256001031 ; 7854.000000000001
34 ; 82260.66255955536 ; 218031.20072025654 ; 2411502.008306588 ; 7148623.574161164 ; 8092.000000000001
35 ; 81833.71467501056 ; 218870.17131101072 ; 2493762.6708661434 ; 7366654.774881421 ; 8330.000000000002
36 ; 82993.74430268437 ; 219737.65978184628 ; 2575596.385541154 ; 7585524.946192431 ; 8568.000000000002
37 ; 83065.76930616144 ; 220633.0900547224 ; 2658590.1298438385 ; 7805262.6059742775 ; 8806.000000000002
38 ; 83647.33060989933 ; 221555.88141654368 ; 2741655.89915 ; 8025895.696029 ; 9044.000000000002
39 ; 84147.6921344684 ; 222505.44975586905 ; 2825303.2297598994 ; 8247451.577445543 ; 9282.000000000002
40 ; 84356.37942245038 ; 223481.20874084724 ; 2909450.921894368 ; 8469957.027201412 ; 9520.000000000002
41 ; 84772.83648605291 ; 224482.57093605096 ; 2993807.301316818 ; 8693438.23594226 ; 9758.000000000002
42 ; 85230.19105879377 ; 225508.94885654573 ; 3078580.137802871 ; 8917920.80687831 ; 9996.000000000002
43 ; 85926.40781329194 ; 226559.75595815683 ; 3163810.3288616645 ; 9143429.755734855 ; 10234.000000000002
44 ; 86370.66616619093 ; 227634.40756347135 ; 3249736.7366749565 ; 9369989.511693012 ; 10472.000000000002
45 ; 86220.42466360734 ; 228732.32172363438 ; 3336107.4028411475 ; 9597623.919256484 ; 10710.000000000002
46 ; 87028.85677402111 ; 229852.9200164696 ; 3422327.827504755 ; 9826356.240980119 ; 10948.000000000002
47 ; 87202.9030554886 ; 230995.62828186934 ; 3509356.684278776 ; 1.0056209160996588E7 ; 11186.000000000002
48 ; 87752.79171182701 ; 232159.87729576457 ; 3596559.5873342645 ; 1.0287204789278457E7 ; 11424.000000000002
49 ; 88047.78882857799 ; 233345.10338429757 ; 3684312.3790460913 ; 1.0519364666574221E7 ; 11662.000000000002
50 ; 88115.4565788256 ; 234550.74898008595 ; 3772360.167874669 ; 1.0752709769958518E7 ; 11900.000000000002
51 ; 88678.59967186122 ; 235776.2631226821 ; 3860475.624453495 ; 1.0987260518938605E7 ; 12138.000000000002
52 ; 89200.4104252259 ; 237021.1019055111 ; 3949154.224125356 ; 1.1223036782061286E7 ; 12376.000000000002
53 ; 89188.45042202031 ; 238284.72887170088 ; 4038354.6345505817 ; 1.1460057883966798E7 ; 12614.000000000002
54 ; 89858.06386868359 ; 239566.6153613201 ; 4127543.084972602 ; 1.16983426128385E7 ; 12852.000000000002
55 ; 89855.6649744075 ; 240866.24081260234 ; 4217401.148841285 ; 1.193790922819982E7 ; 13090.000000000002
56 ; 90532.85628399682 ; 242183.0930197721 ; 4307256.813815692 ; 1.217877546901242E7 ; 13328.000000000002
57 ; 90263.69473187362 ; 243516.66835009528 ; 4397789.67009969 ; 1.2420958562032193E7 ; 13566.000000000002
58 ; 90831.78078793995 ; 244866.47192276496 ; 4488053.364831563 ; 1.2664475230382288E7 ; 13804.000000000002
59 ; 90820.23499609933 ; 246232.01775219728 ; 4578885.145619503 ; 1.2909341702305052E7 ; 14042.000000000002
60 ; 91695.35879535435 ; 247612.82885826385 ; 4669705.380615602 ; 1.315557372005725E7 ; 14280.000000000002
61 ; 91726.87721033228 ; 249008.43734591804 ; 4761400.739410956 ; 1.3403186548915513E7 ; 14518.000000000002
62 ; 91701.10029277988 ; 250418.38445660053 ; 4853127.6166212885 ; 1.3652194986261431E7 ; 14756.000000000002
63 ; 92031.90073429266 ; 251842.22059371835 ; 4944828.716914068 ; 1.3902613370718032E7 ; 14994.000000000002
64 ; 92384.62971656179 ; 253279.50532440172 ; 5036860.61764836 ; 1.4154455591311751E7 ; 15232.000000000002
65 ; 92563.10366692959 ; 254729.80735964212 ; 5129245.247364922 ; 1.4407735096636152E7 ; 15470.000000000002
66 ; 92511.73898091435 ; 256192.7045148132 ; 5221808.351031852 ; 1.4662464903995793E7 ; 15708.000000000002
67 ; 92654.00010405434 ; 257667.7836524701 ; 5314320.090012766 ; 1.4918657608510606E7 ; 15946.000000000002
68 ; 92889.23606591362 ; 259154.6406092185 ; 5406974.090116821 ; 1.5176325392163076E7 ; 16184.000000000002
69 ; 93331.39534808668 ; 260652.88010833715 ; 5499863.326182735 ; 1.5435480032772293E7 ; 16422.000000000004
70 ; 93145.21206108927 ; 262162.1156597345 ; 5593194.721530822 ; 1.5696132912880631E7 ; 16660.000000000004
71 ; 93216.13706482913 ; 263681.9694487157 ; 5686339.933591912 ; 1.5958295028540365E7 ; 16898.000000000004
72 ; 93449.39602854285 ; 265212.0722149362 ; 5779556.070656741 ; 1.622197699798908E7 ; 17136.000000000004
73 ; 93687.37098688472 ; 266752.06312282314 ; 5873005.466685284 ; 1.6487189070204018E7 ; 17374.000000000004
74 ; 93749.04493426872 ; 268301.5896246463 ; 5966692.837672168 ; 1.6753941133326842E7 ; 17612.000000000004
75 ; 93802.52138554775 ; 269860.3073173373 ; 6060441.882606437 ; 1.7022242722951487E7 ; 17850.000000000004
76 ; 93415.11539819307 ; 271427.87979406305 ; 6154244.403991985 ; 1.7292103030268826E7 ; 18088.000000000004
77 ; 94236.71337598831 ; 273003.9784914812 ; 6247659.519390178 ; 1.7563530910062887E7 ; 18326.000000000004
78 ; 94315.88673347128 ; 274588.2825335278 ; 6341896.232766166 ; 1.783653488855437E7 ; 18564.000000000004
79 ; 93882.35233000088 ; 276180.4785725094 ; 6436212.119499638 ; 1.8111123171087895E7 ; 18802.000000000004
80 ; 94053.56203828879 ; 277780.26062820904 ; 6530094.471829639 ; 1.8387303649660405E7 ; 19040.000000000004
81 ; 93731.71669857911 ; 279387.32992564427 ; 6624148.033867927 ; 1.8665083910288613E7 ; 19278.000000000004
82 ; 94051.06140233978 ; 281001.39473205886 ; 6717879.750566507 ; 1.894447124021426E7 ; 19516.000000000004
83 ; 94008.14166424212 ; 282622.1701936707 ; 6811930.811968846 ; 1.9225472634946316E7 ; 19754.000000000004
84 ; 94068.6240098534 ; 284249.3781726449 ; 6905938.953633089 ; 1.950809480513999E7 ; 19992.000000000004
85 ; 94213.99790042722 ; 285882.7470847139 ; 7000007.577642942 ; 1.9792344183312632E7 ; 20230.000000000004
86 ; 94560.66037973293 ; 287522.0117378189 ; 7094221.575543369 ; 2.0078226930397347E7 ; 20468.000000000004
87 ; 93980.21758578662 ; 289166.9131721046 ; 7188782.235923102 ; 2.0365748942135166E7 ; 20706.000000000004
88 ; 94224.1905073486 ; 290817.19850156165 ; 7282762.453508888 ; 2.065491585530727E7 ; 20944.000000000004
89 ; 93474.17446147787 ; 292472.62075757334 ; 7376986.644016237 ; 2.094573305380883E7 ; 21182.000000000004
90 ; 94167.73557751047 ; 294132.9387345919 ; 7470460.818477714 ; 2.1238205674566403E7 ; 21420.000000000004
91 ; 94019.88700869594 ; 295797.91683813767 ; 7564628.554055225 ; 2.1532338613300994E7 ; 21658.000000000004
92 ; 93816.24311690124 ; 297467.3249352884 ; 7658648.441063921 ; 2.1828136530139133E7 ; 21896.000000000004
93 ; 93679.85287060175 ; 299140.93820779904 ; 7752464.684180822 ; 2.212560385507442E7 ; 22134.000000000004
94 ; 93870.00895041742 ; 300818.5370079704 ; 7846144.537051424 ; 2.242474479328222E7 ; 22372.000000000004
95 ; 93584.88017960219 ; 302499.9067173641 ; 7940014.546001842 ; 2.2725563330290187E7 ; 22610.000000000004
96 ; 93077.95118938747 ; 304184.8376084413 ; 8033599.426181445 ; 2.302806323700755E7 ; 22848.000000000004
97 ; 93578.25756753507 ; 305873.1247091869 ; 8126677.3773708325 ; 2.3332248074615993E7 ; 23086.000000000004
98 ; 93045.95123248233 ; 307564.56767076347 ; 8220255.634938368 ; 2.3638121199325178E7 ; 23324.000000000004
99 ; 93177.2752775111 ; 309258.97063822777 ; 8313301.58617085 ; 2.394568576699594E7 ; 23562.000000000004
100 ; 92922.44472701094 ; 310956.142124328 ; 8406478.86144836 ; 2.4254944737634167E7 ; 23800.000000000004
101 ; 92544.73085643782 ; 312655.89488638996 ; 8499401.306175372 ; 2.4565900879758496E7 ; 24038.000000000004
102 ; 92584.01751176894 ; 314358.04580628924 ; 8591946.037031809 ; 2.4878556774644885E7 ; 24276.000000000004
103 ; 92488.09563567935 ; 316062.4157734995 ; 8684530.054543577 ; 2.5192914820451174E7 ; 24514.000000000004
104 ; 92317.09412683506 ; 317768.8295711971 ; 8777018.150179256 ; 2.5508977236224674E7 ; 24752.000000000004
105 ; 91922.54163505163 ; 319477.11576539656 ; 8869335.244306091 ; 2.5826746065795872E7 ; 24990.000000000004
106 ; 92281.69330732859 ; 321187.10659708537 ; 8961257.785941143 ; 2.614622318156127E7 ; 25228.000000000004
107 ; 91879.90040273398 ; 322898.6378773205 ; 9053539.479248472 ; 2.6467410288158353E7 ; 25466.000000000004
108 ; 91763.93686478748 ; 324611.5488852458 ; 9145419.379651206 ; 2.6790308926035672E7 ; 25704.000000000004
109 ; 90792.65533448305 ; 326325.6822689834 ; 9237183.316515993 ; 2.7114920474920917E7 ; 25942.000000000004
110 ; 91203.77740900323 ; 328040.8839493521 ; 9327975.971850477 ; 2.7441246157189902E7 ; 26180.000000000004
111 ; 90455.32001112324 ; 329757.0030263596 ; 9419179.749259481 ; 2.7769287041139252E7 ; 26418.000000000004
112 ; 90454.08037415011 ; 331473.8916884153 ; 9509635.069270605 ; 2.809904404416561E7 ; 26656.000000000004
113 ; 89825.11375465798 ; 333191.40512420813 ; 9600089.149644755 ; 2.8430517935854025E7 ; 26894.000000000004
114 ; 89808.94160302894 ; 334909.40143719077 ; 9689914.263399413 ; 2.8763709340978235E7 ; 27132.000000000004
115 ; 89194.76546514624 ; 336627.7415626138 ; 9779723.205002442 ; 2.9098618742415424E7 ; 27370.000000000004
116 ; 88866.72407289942 ; 338346.2891870489 ; 9868917.970467588 ; 2.9435246483978037E7 ; 27608.000000000004
117 ; 88886.57106218736 ; 340064.91067034204 ; 9957784.694540488 ; 2.9773592773165084E7 ; 27846.000000000004
118 ; 88513.1770648254 ; 341783.4749699363 ; 1.0046671265602674E7 ; 3.011365768383543E7 ; 28084.000000000004
119 ; 87791.78252039924 ; 343501.85356750374 ; 1.01351844426675E7 ; 3.0455441158805363E7 ; 28322.000000000004
120 ; 87756.98500932018 ; 345219.92039782775 ; 1.0222976225187898E7 ; 3.0798943012372866E7 ; 28560.000000000004
121 ; 87014.27813701498 ; 346937.5517798738 ; 1.0310733210197218E7 ; 3.1144162932770696E7 ; 28798.000000000004
122 ; 87214.28626923676 ; 348654.62634999095 ; 1.0397747488334233E7 ; 3.149110048455057E7 ; 29036.000000000004
123 ; 86384.98433849715 ; 350371.0249971858 ; 1.048496177460347E7 ; 3.183975511090056E7 ; 29274.000000000004
124 ; 86405.53244542336 ; 352086.63080040773 ; 1.0571346758941967E7 ; 3.2190126135897744E7 ; 29512.000000000004
125 ; 85449.37798182303 ; 353801.32896779303 ; 1.065775229138739E7 ; 3.254221276669815E7 ; 29750.000000000004
126 ; 85524.32492486955 ; 355515.0067778061 ; 1.0743201669369213E7 ; 3.2896014095665947E7 ; 29988.000000000004
127 ; 84611.07469930619 ; 357227.55352222756 ; 1.0828725994294083E7 ; 3.325152910244375E7 ; 30226.000000000004
128 ; 84819.4341872055 ; 358938.8604509301 ; 1.091333706899339E7 ; 3.360875665596598E7 ; 30464.000000000004
129 ; 84105.81714632068 ; 360648.82071839226 ; 1.0998156503180595E7 ; 3.396769551641691E7 ; 30702.000000000004
130 ; 83580.37535553686 ; 362357.32933189604 ; 1.1082262320326915E7 ; 3.43283443371353E7 ; 30940.000000000004
131 ; 83088.21597075272 ; 364064.28310135717 ; 1.1165842695682451E7 ; 3.46907016664672E7 ; 31178.000000000004
132 ; 82251.53529147097 ; 365769.58059073985 ; 1.1248930911653204E7 ; 3.5054765949568555E7 ; 31416.000000000004
133 ; 81792.9529921368 ; 367473.122071004 ; 1.1331182446944674E7 ; 3.5420535530159295E7 ; 31654.000000000004
134 ; 81888.80611809346 ; 369174.8094745411 ; 1.1412975399936812E7 ; 3.57880086522303E7 ; 31892.000000000004
135 ; 80894.69962701539 ; 370874.5463510493 ; 1.1494864206054905E7 ; 3.615718346170484E7 ; 32130.000000000004
136 ; 80419.16230781062 ; 372572.23782480415 ; 1.1575758905681921E7 ; 3.6528058008055896E7 ; 32368.000000000004
137 ; 80499.68568083514 ; 374267.79055328004 ; 1.1656178067989731E7 ; 3.69006302458807E7 ; 32606.000000000004
138 ; 79523.60949621051 ; 375961.11268708075 ; 1.1736677753670566E7 ; 3.727489803643398E7 ; 32844.00000000001
139 ; 79025.03361070588 ; 377652.1138311359 ; 1.1816201363166776E7 ; 3.765085914912106E7 ; 33082.00000000001
140 ; 78599.36905502106 ; 379340.7050071248 ; 1.189522639677748E7 ; 3.802851126295219E7 ; 33320.00000000001
141 ; 77877.59538776602 ; 381026.798617086 ; 1.1973825765832502E7 ; 3.840785196795932E7 ; 33558.00000000001
142 ; 76953.29706537061 ; 382710.3084081769 ; 1.2051703361220269E7 ; 3.878887876657641E7 ; 33796.00000000001
143 ; 76820.43751936224 ; 384391.14943854406 ; 1.2128656658285638E7 ; 3.917158907498459E7 ; 34034.00000000001
144 ; 76271.55355974774 ; 386069.238044271 ; 1.2205477095805E7 ; 3.955598022442313E7 ; 34272.00000000001
145 ; 75511.04775050166 ; 387744.4918073659 ; 1.2281748649364749E7 ; 3.99420494624674E7 ; 34510.00000000001
146 ; 75606.29767498083 ; 389416.8295247564 ; 1.235725969711525E7 ; 4.0329793954274766E7 ; 34748.00000000001
147 ; 75674.44231131887 ; 391086.17117826093 ; 1.243286599479023E7 ; 4.071921078379952E7 ; 34986.00000000001
148 ; 75571.74214076626 ; 392752.437905501 ; 1.2508540437101549E7 ; 4.111029695497778E7 ; 35224.00000000001
149 ; 75316.81265679588 ; 394415.5519717267 ; 1.2584112179242315E7 ; 4.150304939288328E7 ; 35462.00000000001
150 ; 75176.55646950683 ; 396075.43674252485 ; 1.265942899189911E7 ; 4.1897464944855005E7 ; 35700.00000000001
151 ; 74691.1930398308 ; 397732.0166573805 ; 1.2734605548368618E7 ; 4.229354038159753E7 ; 35938.00000000001
152 ; 75074.18812559283 ; 399385.2172040652 ; 1.2809296741408449E7 ; 4.269127239825491E7 ; 36176.00000000001
153 ; 74477.27928339859 ; 401034.96489382256 ; 1.2884370929534042E7 ; 4.309065761545897E7 ; 36414.00000000001
154 ; 73895.59931626808 ; 402681.18723732873 ; 1.2958848208817441E7 ; 4.34916925803528E7 ; 36652.00000000001
155 ; 74137.0026826807 ; 404323.81272139936 ; 1.3032743808133708E7 ; 4.389437376759013E7 ; 36890.00000000001
156 ; 73690.76985110965 ; 405962.77078641986 ; 1.3106880810816389E7 ; 4.429869758031153E7 ; 37128.00000000001
157 ; 73738.46081594804 ; 407597.99180447555 ; 1.3180571580667498E7 ; 4.470466035109795E7 ; 37366.00000000001
158 ; 73592.89360672499 ; 409229.4070581584 ; 1.3254310041483445E7 ; 4.511225834290242E7 ; 37604.00000000001
159 ; 73206.87585365964 ; 410856.94872002956 ; 1.332790293509017E7 ; 4.552148774996058E7 ; 37842.00000000001
160 ; 72847.22618226448 ; 412480.54983271356 ; 1.3401109810943829E7 ; 4.593234469868061E7 ; 38080.00000000001
161 ; 72533.25199230878 ; 414100.14428960637 ; 1.3473957037126094E7 ; 4.6344825248513326E7 ; 38318.00000000001
162 ; 73097.85019341545 ; 415715.66681617685 ; 1.3546490289118404E7 ; 4.675892539280293E7 ; 38556.00000000001
163 ; 72183.09707452432 ; 417327.05295184033 ; 1.3619588139311818E7 ; 4.717464105961911E7 ; 38794.00000000001
164 ; 72139.63793410493 ; 418934.2390323883 ; 1.3691771236386342E7 ; 4.759196811257095E7 ; 39032.00000000001
165 ; 71885.82843540944 ; 420537.16217295465 ; 1.3763910874320447E7 ; 4.801090235160334E7 ; 39270.00000000001
166 ; 71586.00675306041 ; 422135.7602515018 ; 1.3835796702755857E7 ; 4.8431439513776295E7 ; 39508.00000000001
167 ; 71614.24220833131 ; 423729.9718928087 ; 1.3907382709508918E7 ; 4.8853575274027795E7 ; 39746.00000000001
168 ; 71318.1882412126 ; 425319.7364529467 ; 1.397899695171725E7 ; 4.9277305245920606E7 ; 39984.00000000001
169 ; 71042.12707661516 ; 426904.99400422466 ; 1.4050315139958462E7 ; 4.970262498237355E7 ; 40222.00000000001
170 ; 70863.15140043004 ; 428485.6853205912 ; 1.4121357267035076E7 ; 5.012952997637778E7 ; 40460.00000000001
171 ; 70549.29122298256 ; 430061.7518634768 ; 1.4192220418435507E7 ; 5.055801566169837E7 ; 40698.00000000001
172 ; 70230.33556363903 ; 431633.13576806337 ; 1.4262769709658489E7 ; 5.098807741356185E7 ; 40936.00000000001
173 ; 69755.48131948337 ; 433199.7798299666 ; 1.4333000045222128E7 ; 5.1419710549329914E7 ; 41174.00000000001
174 ; 70099.99348758829 ; 434761.6274923184 ; 1.4402755526541611E7 ; 5.185291032915988E7 ; 41412.00000000001
175 ; 70270.27507679134 ; 436318.62283323647 ; 1.44728555200292E7 ; 5.2287671956652194E7 ; 41650.00000000001
176 ; 70509.47398596854 ; 437870.7105536681 ; 1.4543125795105992E7 ; 5.272399057948543E7 ; 41888.00000000001
177 ; 69921.90043410973 ; 439417.835965598 ; 1.461363526909196E7 ; 5.31618612900391E7 ; 42126.00000000001
178 ; 70289.37483880267 ; 440959.9449806061 ; 1.468355716952607E7 ; 5.3601279126004696E7 ; 42364.00000000001
179 ; 70103.90539395675 ; 442496.98409876635 ; 1.4753846544364873E7 ; 5.40422390709853E7 ; 42602.00000000001
180 ; 70801.67426189613 ; 444028.90039787523 ; 1.482395044975883E7 ; 5.448473605508407E7 ; 42840.00000000001
181 ; 70225.77406334004 ; 445555.6415229975 ; 1.4894752124020725E7 ; 5.492876495548195E7 ; 43078.00000000001
182 ; 70420.10126411202 ; 447077.15567632345 ; 1.4964977898084065E7 ; 5.537432059700494E7 ; 43316.00000000001
