CSV File for the Network on Day 311
1 - Minute m 
2 - Power Consumed at minute m 
3 - Power Produced at minute m 
4 - Energy Consumed since the beginning of the day 
5 - Energy Produced since the beginning of the day 
6 - Energy Lost since the beginning of the day 
 
No Production city : 2, Producer : 1
No Production city : 4, Producer : 1
No Production city : 4, Producer : 1
 
0 ; 62313.26345630065 ; 231120.4960713625 ; 0.0 ; 0.0 ; 0.0
1 ; 63721.84334221905 ; 230752.1275526875 ; 62313.26345630065 ; 231120.4960713625 ; 238.00000000000003
2 ; 64555.31472489306 ; 230421.73387490097 ; 126035.1067985197 ; 461872.62362405 ; 476.00000000000006
3 ; 65183.792331498036 ; 230129.5780294097 ; 190590.42152341275 ; 692294.357498951 ; 714.0000000000001
4 ; 66571.34168803603 ; 229875.89435828893 ; 255774.21385491078 ; 922423.9355283608 ; 952.0000000000001
5 ; 67363.37750174997 ; 229660.88771821946 ; 322345.5555429468 ; 1152299.8298866497 ; 1190.0000000000002
6 ; 68733.34500910001 ; 229484.73274079707 ; 389708.93304469675 ; 1381960.7176048693 ; 1428.0000000000002
7 ; 69561.69116613976 ; 229347.57319545848 ; 458442.27805379673 ; 1611445.4503456664 ; 1666.0000000000002
8 ; 70297.90237863212 ; 229249.52146048052 ; 528003.9692199365 ; 1840793.0235411248 ; 1904.0000000000002
9 ; 71270.23806924687 ; 229190.65810663765 ; 598301.8715985686 ; 2070042.5450016053 ; 2142.0000000000005
10 ; 72504.58401453601 ; 229171.0315971595 ; 669572.1096678155 ; 2299233.2031082427 ; 2380.0000000000005
11 ; 73367.33059228194 ; 229190.65810663765 ; 742076.6936823515 ; 2528404.234705402 ; 2618.0000000000005
12 ; 74317.91591832959 ; 229249.52146048052 ; 815444.0242746335 ; 2757594.8928120397 ; 2856.0000000000005
13 ; 75595.19871532009 ; 229347.57319545848 ; 889761.9401929631 ; 2986844.41427252 ; 3094.0000000000005
14 ; 75543.04913631712 ; 229484.73274079707 ; 965357.1389082832 ; 3216191.9874679786 ; 3332.0000000000005
15 ; 77076.87290143644 ; 229660.88771821946 ; 1040900.1880446003 ; 3445676.7202087757 ; 3570.0000000000005
16 ; 77764.91832336257 ; 229875.89435828893 ; 1117977.0609460368 ; 3675337.607926995 ; 3808.0000000000005
17 ; 78496.61276822994 ; 230129.5780294097 ; 1195741.9792693993 ; 3905213.502285284 ; 4046.0000000000005
18 ; 79378.40530338808 ; 230421.73387490097 ; 1274238.5920376293 ; 4135343.0803146935 ; 4284.000000000001
19 ; 80312.42277596158 ; 230752.1275526875 ; 1353616.9973410175 ; 4365764.814189594 ; 4522.000000000001
20 ; 80928.56667597237 ; 231120.4960713625 ; 1433929.4201169792 ; 4596516.941742281 ; 4760.000000000001
21 ; 81826.51850679134 ; 231526.5487156879 ; 1514857.9867929516 ; 4827637.437813644 ; 4998.000000000001
22 ; 82943.17179432625 ; 231969.9680539998 ; 1596684.505299743 ; 5059163.986529333 ; 5236.000000000001
23 ; 83399.73207619383 ; 232450.4110195063 ; 1679627.6770940693 ; 5291133.954583332 ; 5474.000000000001
24 ; 84457.27062432044 ; 232967.51005708924 ; 1763027.4091702632 ; 5523584.365602838 ; 5712.000000000001
25 ; 84815.7326157838 ; 233520.87432695657 ; 1847484.6797945837 ; 5756551.875659927 ; 5950.000000000001
26 ; 85979.17165786828 ; 234110.0909563455 ; 1932300.4124103675 ; 5990072.749986883 ; 6188.000000000001
27 ; 86816.92186859282 ; 234734.72633042713 ; 2018279.5840682357 ; 6224182.840943228 ; 6426.000000000001
28 ; 87426.16028148703 ; 235394.32741362706 ; 2105096.5059368284 ; 6458917.567273656 ; 6664.000000000001
29 ; 87508.13534103027 ; 236088.42309272767 ; 2192522.6662183153 ; 6694311.894687283 ; 6902.000000000001
30 ; 88556.12269167285 ; 236816.52553336267 ; 2280030.8015593453 ; 6930400.31778001 ; 7140.000000000001
31 ; 88986.17546046006 ; 237578.13154183573 ; 2368586.924251018 ; 7167216.843313373 ; 7378.000000000001
32 ; 90257.95708398795 ; 238372.72392458632 ; 2457573.099711478 ; 7404794.974855209 ; 7616.000000000001
33 ; 90679.14432092031 ; 239199.77283807506 ; 2547831.056795466 ; 7643167.698779795 ; 7854.000000000001
34 ; 91240.8694586009 ; 240058.73712235948 ; 2638510.2011163863 ; 7882367.47161787 ; 8092.000000000001
35 ; 91757.45970817996 ; 240949.0656121664 ; 2729751.070574987 ; 8122426.20874023 ; 8330.000000000002
36 ; 92644.16847408426 ; 241870.19841982893 ; 2821508.530283167 ; 8363375.274352396 ; 8568.000000000002
37 ; 93317.39678573534 ; 242821.5681850367 ; 2914152.6987572513 ; 8605245.472772226 ; 8806.000000000002
38 ; 93676.59873458937 ; 243802.6012869359 ; 3007470.0955429864 ; 8848067.040957263 ; 9044.000000000002
39 ; 94502.92102997046 ; 244812.7190147026 ; 3101146.6942775757 ; 9091869.6422442 ; 9282.000000000002
40 ; 94979.19930691186 ; 245851.33869329173 ; 3195649.615307546 ; 9336682.361258902 ; 9520.000000000002
41 ; 95554.34629200534 ; 246917.874761629 ; 3290628.814614458 ; 9582533.699952193 ; 9758.000000000002
42 ; 95551.91324357744 ; 248011.73980105488 ; 3386183.1609064634 ; 9829451.574713822 ; 9996.000000000002
43 ; 96607.86452199427 ; 249132.3455123492 ; 3481735.0741500407 ; 1.0077463314514877E7 ; 10234.000000000002
44 ; 97009.73036232263 ; 250279.10364015002 ; 3578342.938672035 ; 1.0326595660027226E7 ; 10472.000000000002
45 ; 97322.71082604815 ; 251451.42684403778 ; 3675352.6690343576 ; 1.0576874763667377E7 ; 10710.000000000002
46 ; 98026.4814152653 ; 252648.72951597383 ; 3772675.379860406 ; 1.0828326190511415E7 ; 10948.000000000002
47 ; 98616.52025035623 ; 253870.4285441676 ; 3870701.861275671 ; 1.1080974920027388E7 ; 11186.000000000002
48 ; 98682.42363823013 ; 255115.9440237918 ; 3969318.3815260273 ; 1.1334845348571556E7 ; 11424.000000000002
49 ; 99464.99705202112 ; 256384.69991527504 ; 4068000.8051642575 ; 1.1589961292595347E7 ; 11662.000000000002
50 ; 99983.6300654998 ; 257676.12465117485 ; 4167465.802216279 ; 1.1846345992510622E7 ; 11900.000000000002
51 ; 100392.6752264925 ; 258989.65169286827 ; 4267449.432281779 ; 1.2104022117161797E7 ; 12138.000000000002
52 ; 100419.92101370907 ; 260324.72003850428 ; 4367842.107508272 ; 1.2363011768854667E7 ; 12376.000000000002
53 ; 101326.63710643865 ; 261680.7746838272 ; 4468262.028521981 ; 1.262333648889317E7 ; 12614.000000000002
54 ; 101534.3696011916 ; 263057.26703762414 ; 4569588.66562842 ; 1.2885017263576997E7 ; 12852.000000000002
55 ; 102077.3384344445 ; 264453.65529365593 ; 4671123.035229612 ; 1.3148074530614622E7 ; 13090.000000000002
56 ; 102171.53056342561 ; 265869.4047610183 ; 4773200.373664057 ; 1.3412528185908278E7 ; 13328.000000000002
57 ; 102470.05298853233 ; 267303.98815493786 ; 4875371.904227482 ; 1.3678397590669297E7 ; 13566.000000000002
58 ; 102801.5330321109 ; 268756.8858500443 ; 4977841.957216014 ; 1.3945701578824235E7 ; 13804.000000000002
59 ; 102899.68368810482 ; 270227.58609818155 ; 5080643.490248125 ; 1.421445846467428E7 ; 14042.000000000002
60 ; 103230.20885167879 ; 271715.5852128177 ; 5183543.17393623 ; 1.448468605077246E7 ; 14280.000000000002
61 ; 103722.8829845475 ; 273220.3877220996 ; 5286773.382787909 ; 1.4756401635985278E7 ; 14518.000000000002
62 ; 104044.73171556112 ; 274741.50649257074 ; 5390496.265772457 ; 1.5029622023707377E7 ; 14756.000000000002
63 ; 104052.58486220455 ; 276278.4628255304 ; 5494540.997488018 ; 1.5304363530199947E7 ; 14994.000000000002
64 ; 104463.87897439393 ; 277830.78652796184 ; 5598593.582350222 ; 1.5580641993025478E7 ; 15232.000000000002
65 ; 104848.78360440323 ; 279398.015959902 ; 5703057.461324616 ; 1.585847277955344E7 ; 15470.000000000002
66 ; 104872.63502275634 ; 280979.6980600594 ; 5807906.244929019 ; 1.6137870795513341E7 ; 15708.000000000002
67 ; 105001.10836884659 ; 282575.388351417 ; 5912778.879951776 ; 1.6418850493573401E7 ; 15946.000000000002
68 ; 105737.54334697875 ; 284184.65092848847 ; 6017779.988320623 ; 1.6701425881924817E7 ; 16184.000000000002
69 ; 105266.90197975202 ; 285807.0584278142 ; 6123517.531667601 ; 1.6985610532853305E7 ; 16422.000000000004
70 ; 105536.0364778599 ; 287442.1919832108 ; 6228784.433647353 ; 1.727141759128112E7 ; 16660.000000000004
71 ; 105549.53843543524 ; 289089.6411672076 ; 6334320.470125213 ; 1.755885978326433E7 ; 16898.000000000004
72 ; 105240.14254222967 ; 290749.0039200253 ; 6439870.008560648 ; 1.784794942443154E7 ; 17136.000000000004
73 ; 105803.21240375927 ; 292419.8864673736 ; 6545110.151102878 ; 1.8138698428351566E7 ; 17374.000000000004
74 ; 105723.15284911598 ; 294101.90322826896 ; 6650913.3635066375 ; 1.843111831481894E7 ; 17612.000000000004
75 ; 105952.57747957947 ; 295794.67671399756 ; 6756636.516355754 ; 1.872522021804721E7 ; 17850.000000000004
76 ; 105735.0131106773 ; 297497.837419273 ; 6862589.093835333 ; 1.902101489476121E7 ; 18088.000000000004
77 ; 105913.6476957683 ; 299211.0237065721 ; 6968324.106946011 ; 1.931851273218048E7 ; 18326.000000000004
78 ; 106309.40953404202 ; 300933.8816845584 ; 7074237.75464178 ; 1.961772375588705E7 ; 18564.000000000004
79 ; 106101.95992685837 ; 302666.06508143834 ; 7180547.1641758215 ; 1.9918657637571607E7 ; 18802.000000000004
80 ; 106070.26212789002 ; 304407.2351140353 ; 7286649.12410268 ; 2.0221323702653047E7 ; 19040.000000000004
81 ; 105933.98895042126 ; 306157.0603532989 ; 7392719.38623057 ; 2.052573093776708E7 ; 19278.000000000004
82 ; 106649.53219092937 ; 307915.2165869189 ; 7498653.375180991 ; 2.083188799812038E7 ; 19516.000000000004
83 ; 105900.38829348804 ; 309681.38667964994 ; 7605302.9073719205 ; 2.1139803214707296E7 ; 19754.000000000004
84 ; 106238.53710644844 ; 311455.26043190755 ; 7711203.2956654085 ; 2.1449484601386946E7 ; 19992.000000000004
85 ; 106426.67345055871 ; 313236.5344371461 ; 7817441.832771857 ; 2.1760939861818854E7 ; 20230.000000000004
86 ; 106203.57889199001 ; 315024.9119384808 ; 7923868.506222416 ; 2.2074176396256E7 ; 20468.000000000004
87 ; 105981.4732200647 ; 316820.10268497857 ; 8030072.0851144055 ; 2.238920130819448E7 ; 20706.000000000004
88 ; 105706.46851830828 ; 318621.82278799656 ; 8136053.55833447 ; 2.270602141087946E7 ; 20944.000000000004
89 ; 105576.2051352734 ; 320429.7945779149 ; 8241760.026852778 ; 2.3024643233667456E7 ; 21182.000000000004
90 ; 105335.23847853189 ; 322243.7464615711 ; 8347336.231988052 ; 2.334507302824537E7 ; 21420.000000000004
91 ; 105549.33808098492 ; 324063.4127806742 ; 8452671.470466584 ; 2.366731677470694E7 ; 21658.000000000004
92 ; 105471.65451016714 ; 325888.5336714454 ; 8558220.80854757 ; 2.3991380187487617E7 ; 21896.000000000004
93 ; 104970.4935783681 ; 327718.85492570343 ; 8663692.463057736 ; 2.4317268721159063E7 ; 22134.000000000004
94 ; 105030.76532944442 ; 329554.1278535884 ; 8768662.956636105 ; 2.4644987576084767E7 ; 22372.000000000004
95 ; 105000.30111549342 ; 331394.10914809315 ; 8873693.72196555 ; 2.4974541703938354E7 ; 22610.000000000004
96 ; 104943.87229078228 ; 333238.5607515502 ; 8978694.023081044 ; 2.5305935813086446E7 ; 22848.000000000004
97 ; 104496.38283823688 ; 335087.24972419994 ; 9083637.895371826 ; 2.5639174373837996E7 ; 23086.000000000004
98 ; 104406.29207351018 ; 336939.94811495167 ; 9188134.278210063 ; 2.5974261623562194E7 ; 23324.000000000004
99 ; 104495.60439261045 ; 338796.43283442606 ; 9292540.570283573 ; 2.6311201571677145E7 ; 23562.000000000004
100 ; 103885.0946824147 ; 340656.48553035856 ; 9397036.174676184 ; 2.6649998004511572E7 ; 23800.000000000004
101 ; 104048.22389935923 ; 342519.8924654236 ; 9500921.269358598 ; 2.699065449004193E7 ; 24038.000000000004
102 ; 103391.2429328909 ; 344386.4443975314 ; 9604969.493257957 ; 2.7333174382507354E7 ; 24276.000000000004
103 ; 103226.96390906406 ; 346255.9364626329 ; 9708360.736190848 ; 2.7677560826904885E7 ; 24514.000000000004
104 ; 103080.26744721146 ; 348128.1680600626 ; 9811587.700099912 ; 2.802381676336752E7 ; 24752.000000000004
105 ; 102335.44857998435 ; 350002.9427404348 ; 9914667.967547122 ; 2.8371944931427583E7 ; 24990.000000000004
106 ; 102396.99072987256 ; 351880.0680961044 ; 1.0017003416127106E7 ; 2.8721947874168016E7 ; 25228.000000000004
107 ; 102092.43127102527 ; 353759.3556541932 ; 1.0119400406856978E7 ; 2.907382794226412E7 ; 25466.000000000004
108 ; 101840.41273659938 ; 355640.62077217497 ; 1.0221492838128004E7 ; 2.9427587297918316E7 ; 25704.000000000004
109 ; 101253.12923294654 ; 357523.68253601034 ; 1.0323333250864604E7 ; 2.978322791869049E7 ; 25942.000000000004
110 ; 101129.75851437275 ; 359408.36366081215 ; 1.0424586380097551E7 ; 3.01407516012265E7 ; 26180.000000000004
111 ; 100745.31177387128 ; 361294.49039402104 ; 1.0525716138611924E7 ; 3.0500159964887314E7 ; 26418.000000000004
112 ; 100450.81873758955 ; 363181.8924210642 ; 1.0626461450385796E7 ; 3.0861454455281336E7 ; 26656.000000000004
113 ; 99821.60409964026 ; 365070.4027734676 ; 1.0726912269123385E7 ; 3.12246363477024E7 ; 26894.000000000004
114 ; 99828.75248275632 ; 366959.8577393891 ; 1.0826733873223025E7 ; 3.1589706750475865E7 ; 27132.000000000004
115 ; 98686.12063429755 ; 368850.0967765358 ; 1.0926562625705782E7 ; 3.1956666608215254E7 ; 27370.000000000004
116 ; 98732.13433657389 ; 370740.9624274277 ; 1.102524874634008E7 ; 3.232551670499179E7 ; 27608.000000000004
117 ; 97955.3786887313 ; 372632.30023696733 ; 1.1123980880676653E7 ; 3.2696257667419218E7 ; 27846.000000000004
118 ; 97443.72174925829 ; 374523.9586722727 ; 1.1221936259365385E7 ; 3.3068889967656184E7 ; 28084.000000000004
119 ; 97237.10161986027 ; 376415.7890447306 ; 1.1319379981114645E7 ; 3.3443413926328458E7 ; 28322.000000000004
120 ; 96965.37585036436 ; 378307.6454342255 ; 1.1416617082734505E7 ; 3.381982971537319E7 ; 28560.000000000004
121 ; 96636.31483430717 ; 380199.38461549784 ; 1.151358245858487E7 ; 3.419813736080741E7 ; 28798.000000000004
122 ; 95994.56896318658 ; 382090.86598658684 ; 1.1610218773419177E7 ; 3.457833674542291E7 ; 29036.000000000004
123 ; 95077.69883832258 ; 383981.9514993093 ; 1.1706213342382364E7 ; 3.496042761140949E7 ; 29274.000000000004
124 ; 94706.2634895886 ; 385872.50559172913 ; 1.1801291041220687E7 ; 3.53444095629088E7 ; 29512.000000000004
125 ; 94283.35921946085 ; 387762.3951225694 ; 1.1895997304710276E7 ; 3.5730282068500526E7 ; 29750.000000000004
126 ; 93254.4602538817 ; 389651.48930752004 ; 1.1990280663929738E7 ; 3.61180444636231E7 ; 29988.000000000004
127 ; 92980.72329892594 ; 391539.6596573948 ; 1.208353512418362E7 ; 3.650769595293062E7 ; 30226.000000000004
128 ; 92690.83948598741 ; 393426.77991808986 ; 1.2176515847482545E7 ; 3.689923561258802E7 ; 30464.000000000004
129 ; 91948.19830373034 ; 395312.72601229866 ; 1.2269206686968533E7 ; 3.729266239250611E7 ; 30702.000000000004
130 ; 91301.0680718697 ; 397197.3759829362 ; 1.2361154885272264E7 ; 3.7687975118518405E7 ; 30940.000000000004
131 ; 90926.41941177557 ; 399080.6099382285 ; 1.2452455953344135E7 ; 3.808517249450134E7 ; 31178.000000000004
132 ; 89978.57429270558 ; 400962.30999842135 ; 1.254338237275591E7 ; 3.8484253104439564E7 ; 31416.000000000004
133 ; 89849.97257773293 ; 402842.36024406535 ; 1.2633360947048616E7 ; 3.888521541443799E7 ; 31654.000000000004
134 ; 88971.05989979146 ; 404720.64666583255 ; 1.2723210919626348E7 ; 3.928805777468205E7 ; 31892.000000000004
135 ; 88447.33078727718 ; 406597.0571158238 ; 1.281218197952614E7 ; 3.969277842134789E7 ; 32130.000000000004
136 ; 87482.07868295957 ; 408471.481260323 ; 1.2900629310313417E7 ; 4.009937547846371E7 ; 32368.000000000004
137 ; 86825.80637659422 ; 410343.81053395866 ; 1.2988111388996376E7 ; 4.050784695972403E7 ; 32606.000000000004
138 ; 86234.93150712784 ; 412213.9380952318 ; 1.307493719537297E7 ; 4.091819077025799E7 ; 32844.00000000001
139 ; 85301.48911493807 ; 414081.7587833713 ; 1.3161172126880098E7 ; 4.133040470835322E7 ; 33082.00000000001
140 ; 85045.45605120198 ; 415947.1690764775 ; 1.3246473615995036E7 ; 4.174448646713659E7 ; 33320.00000000001
141 ; 84011.98967337706 ; 417810.06705091737 ; 1.3331519072046239E7 ; 4.216043363621307E7 ; 33558.00000000001
142 ; 83402.37997496908 ; 419670.3523419334 ; 1.3415531061719617E7 ; 4.257824370326399E7 ; 33796.00000000001
143 ; 82999.23056914228 ; 421527.92610543146 ; 1.3498933441694586E7 ; 4.2997914055605926E7 ; 34034.00000000001
144 ; 81877.41391483785 ; 423382.69098091224 ; 1.3581932672263728E7 ; 4.341944198171136E7 ; 34272.00000000001
145 ; 81635.34161661295 ; 425234.55105551105 ; 1.3663810086178565E7 ; 4.384282467269227E7 ; 34510.00000000001
146 ; 81605.42560663504 ; 427083.4118291152 ; 1.374544542779518E7 ; 4.426805922374778E7 ; 34748.00000000001
147 ; 81378.21763784059 ; 428929.18018052407 ; 1.3827050853401814E7 ; 4.46951426355769E7 ; 34986.00000000001
148 ; 80711.87632603016 ; 430771.7643346226 ; 1.3908429071039654E7 ; 4.512407181575742E7 ; 35224.00000000001
149 ; 80790.53250245747 ; 432611.07383053517 ; 1.3989140947365684E7 ; 4.555484358009204E7 ; 35462.00000000001
150 ; 80479.8105878827 ; 434447.01949073287 ; 1.4069931479868142E7 ; 4.598745465392258E7 ; 35700.00000000001
151 ; 79878.00095422503 ; 436279.5133910629 ; 1.4150411290456025E7 ; 4.6421901673413314E7 ; 35938.00000000001
152 ; 79602.07447027025 ; 438108.4688316731 ; 1.423028929141025E7 ; 4.685818118680438E7 ; 36176.00000000001
153 ; 79681.71833850443 ; 439933.8003088039 ; 1.4309891365880521E7 ; 4.729628965563605E7 ; 36414.00000000001
154 ; 79313.88922870599 ; 441755.42348742153 ; 1.4389573084219025E7 ; 4.773622345594485E7 ; 36652.00000000001
155 ; 79023.83430774108 ; 443573.2551746664 ; 1.446888697344773E7 ; 4.8177978879432276E7 ; 36890.00000000001
156 ; 79073.21776626441 ; 445387.21329409175 ; 1.4547910807755472E7 ; 4.862155213460694E7 ; 37128.00000000001
157 ; 78174.07897412244 ; 447197.2168606678 ; 1.4626984025521737E7 ; 4.906693934790103E7 ; 37366.00000000001
158 ; 78090.87161527152 ; 449003.185956529 ; 1.4705158104495859E7 ; 4.95141365647617E7 ; 37604.00000000001
159 ; 78194.32120501381 ; 450805.0417074404 ; 1.478324897611113E7 ; 4.996313975071823E7 ; 37842.00000000001
160 ; 77833.16264659807 ; 452602.7062599618 ; 1.4861443297316145E7 ; 5.041394479242567E7 ; 38080.00000000001
161 ; 77348.82183166465 ; 454396.10275928694 ; 1.4939276459962742E7 ; 5.086654749868563E7 ; 38318.00000000001
162 ; 77145.75055170676 ; 456185.155327739 ; 1.5016625281794406E7 ; 5.1320943601444915E7 ; 38556.00000000001
163 ; 76838.80643331885 ; 457969.7890439003 ; 1.5093771032346113E7 ; 5.177712875677265E7 ; 38794.00000000001
164 ; 76553.3515507433 ; 459749.929922357 ; 1.517060983877943E7 ; 5.2235098545816556E7 ; 39032.00000000001
165 ; 76094.06940369401 ; 461525.50489404117 ; 1.5247163190330174E7 ; 5.269484847573891E7 ; 39270.00000000001
166 ; 75548.23663245759 ; 463296.4417871498 ; 1.5323257259733867E7 ; 5.315637398063295E7 ; 39508.00000000001
167 ; 75560.81287728353 ; 465062.6693086249 ; 1.5398805496366324E7 ; 5.361967042242011E7 ; 39746.00000000001
168 ; 75272.21020166382 ; 466824.1170261759 ; 1.5474366309243608E7 ; 5.408473309172873E7 ; 39984.00000000001
169 ; 74555.96774190491 ; 468580.71535082837 ; 1.5549638519445272E7 ; 5.4551557208754905E7 ; 40222.00000000001
170 ; 74634.02397109877 ; 470332.395519983 ; 1.5624194487187177E7 ; 5.502013792410573E7 ; 40460.00000000001
171 ; 74457.44248910612 ; 471817.4171000875 ; 1.5698828511158276E7 ; 5.549047031962572E7 ; 40698.00000000001
172 ; 73793.23231729989 ; 471817.4171000875 ; 1.5773285953647383E7 ; 5.596228773672581E7 ; 40936.00000000001
173 ; 73570.08805838504 ; 471817.4171000875 ; 1.5847079185964683E7 ; 5.6434105153825894E7 ; 41174.00000000001
174 ; 73980.15007137638 ; 471817.4171000875 ; 1.5920649274023067E7 ; 5.690592257092598E7 ; 41412.00000000001
175 ; 73963.99401513538 ; 471817.4171000875 ; 1.5994629424094444E7 ; 5.737773998802607E7 ; 41650.00000000001
176 ; 73673.36153391363 ; 471817.4171000875 ; 1.6068593418109579E7 ; 5.7849557405126154E7 ; 41888.00000000001
177 ; 73957.9013753915 ; 471817.4171000875 ; 1.6142266779643493E7 ; 5.832137482222624E7 ; 42126.00000000001
178 ; 73744.64469274897 ; 471817.4171000875 ; 1.6216224681018883E7 ; 5.879319223932633E7 ; 42364.00000000001
179 ; 74056.98689466847 ; 471817.4171000875 ; 1.6289969325711632E7 ; 5.9265009656426415E7 ; 42602.00000000001
180 ; 73878.7607114737 ; 471817.4171000875 ; 1.6364026312606301E7 ; 5.97368270735265E7 ; 42840.00000000001
181 ; 74381.50214514713 ; 471817.4171000875 ; 1.6437905073317776E7 ; 6.020864449062659E7 ; 43078.00000000001
