CSV File for the Network on Day 249
1 - Minute m 
2 - Power Consumed at minute m 
3 - Power Produced at minute m 
4 - Energy Consumed since the beginning of the day 
5 - Energy Produced since the beginning of the day 
6 - Energy Lost since the beginning of the day 
 
No Production city : 2, Producer : 1
No Production city : 4, Producer : 1
No Production city : 4, Producer : 1
 
0 ; 32894.09592775561 ; 118966.29010260731 ; 0.0 ; 0.0 ; 0.0
1 ; 34158.7836428265 ; 118530.00000935889 ; 32894.09592775561 ; 118966.29010260731 ; 238.00000000000003
2 ; 35782.15805512751 ; 118136.3404838944 ; 67052.87957058211 ; 237496.2901119662 ; 476.00000000000006
3 ; 37180.8206442 ; 117786.34874632038 ; 102835.03762570962 ; 355632.6305958606 ; 714.0000000000001
4 ; 38890.466538296896 ; 117480.97434152482 ; 140015.85826990963 ; 473418.979342181 ; 952.0000000000001
5 ; 40511.41207736033 ; 117221.06756311457 ; 178906.32480820653 ; 590899.9536837058 ; 1190.0000000000002
6 ; 41703.382736074935 ; 117007.36860039606 ; 219417.73688556685 ; 708121.0212468203 ; 1428.0000000000002
7 ; 43516.46250884052 ; 116840.49771186625 ; 261121.1196216418 ; 825128.3898472164 ; 1666.0000000000002
8 ; 44903.49876951164 ; 116720.94671670118 ; 304637.5821304823 ; 941968.8875590827 ; 1904.0000000000002
9 ; 46573.182690717236 ; 116649.07206902531 ; 349541.08089999395 ; 1058689.834275784 ; 2142.0000000000005
10 ; 47625.11574914977 ; 116625.08973874681 ; 396114.26359071117 ; 1175338.9063448093 ; 2380.0000000000005
11 ; 49279.08858068799 ; 116649.07206902531 ; 443739.3793398609 ; 1291963.9960835562 ; 2618.0000000000005
12 ; 50609.272026786726 ; 116720.94671670118 ; 493018.4679205489 ; 1408613.0681525816 ; 2856.0000000000005
13 ; 51832.46919704761 ; 116840.49771186625 ; 543627.7399473357 ; 1525334.0148692827 ; 3094.0000000000005
14 ; 53248.56551030501 ; 117007.36860039597 ; 595460.2091443833 ; 1642174.5125811489 ; 3332.0000000000005
15 ; 54694.99031950327 ; 117221.06756311457 ; 648708.7746546883 ; 1759181.8811815449 ; 3570.0000000000005
16 ; 56283.37723193644 ; 117480.97434152482 ; 703403.7649741916 ; 1876402.9487446593 ; 3808.0000000000005
17 ; 57300.46935342795 ; 117786.34874632029 ; 759687.142206128 ; 1993883.923086184 ; 4046.0000000000005
18 ; 59046.074157827185 ; 118136.34048389448 ; 816987.611559556 ; 2111670.2718325043 ; 4284.000000000001
19 ; 59946.5706983927 ; 118530.0000093588 ; 876033.6857173832 ; 2229806.612316399 ; 4522.000000000001
20 ; 60791.6937669044 ; 118966.2901026074 ; 935980.2564157759 ; 2348336.6123257577 ; 4760.000000000001
21 ; 62397.070306423215 ; 119444.09786605072 ; 996771.9501826803 ; 2467302.9024283653 ; 4998.000000000001
22 ; 63448.37848629572 ; 119962.24685720366 ; 1059169.0204891034 ; 2586747.000294416 ; 5236.000000000001
23 ; 64869.6855186779 ; 120519.50909410437 ; 1122617.398975399 ; 2706709.2471516198 ; 5474.000000000001
24 ; 65981.25460848489 ; 121114.61670394099 ; 1187487.084494077 ; 2827228.756245724 ; 5712.000000000001
25 ; 67484.51643031981 ; 121746.27302252233 ; 1253468.3391025618 ; 2948343.372949665 ; 5950.000000000001
26 ; 68757.35281791059 ; 122413.16299174065 ; 1320952.8555328816 ; 3070089.645972187 ; 6188.000000000001
27 ; 68929.879923193 ; 123113.96274163132 ; 1389710.208350792 ; 3192502.808963928 ; 6426.000000000001
28 ; 70565.800198979 ; 123847.34828114469 ; 1458640.088273985 ; 3315616.7717055595 ; 6664.000000000001
29 ; 71444.42520490524 ; 124612.00325590387 ; 1529205.888472964 ; 3439464.119986704 ; 6902.000000000001
30 ; 72941.48690056601 ; 125406.6257610874 ; 1600650.3136778693 ; 3564076.123242608 ; 7140.000000000001
31 ; 73533.77276976204 ; 126229.93422264748 ; 1673591.8005784352 ; 3689482.7490036953 ; 7378.000000000001
32 ; 74727.208421409 ; 127080.67238021977 ; 1747125.5733481972 ; 3815712.683226343 ; 7616.000000000001
33 ; 75930.77569432798 ; 127957.61342045764 ; 1821852.781769606 ; 3942793.3556065625 ; 7854.000000000001
34 ; 77205.13311876118 ; 128859.56332049862 ; 1897783.557463934 ; 4070750.96902702 ; 8092.000000000001
35 ; 77683.58648436608 ; 129785.36346834822 ; 1974988.6905826952 ; 4199610.532347519 ; 8330.000000000002
36 ; 78447.38876384246 ; 130733.8926307181 ; 2052672.2770670613 ; 4329395.895815867 ; 8568.000000000002
37 ; 80128.31119374334 ; 131704.06833987308 ; 2131119.6658309037 ; 4460129.788446585 ; 8806.000000000002
38 ; 80595.08975631512 ; 132694.84776989825 ; 2211247.977024647 ; 4591833.856786458 ; 9044.000000000002
39 ; 81742.72828460285 ; 133705.22817002013 ; 2291843.066780962 ; 4724528.704556356 ; 9282.000000000002
40 ; 82354.66957397394 ; 134734.24691866804 ; 2373585.795065565 ; 4858233.932726377 ; 9520.000000000002
41 ; 83203.44932592276 ; 135780.98125724445 ; 2455940.464639539 ; 4992968.179645045 ; 9758.000000000002
42 ; 84323.71074252093 ; 136844.54775740753 ; 2539143.913965462 ; 5128749.160902289 ; 9996.000000000002
43 ; 84953.0300582128 ; 137924.10157032698 ; 2623467.624707983 ; 5265593.708659696 ; 10234.000000000002
44 ; 85779.84202687092 ; 139018.8355010437 ; 2708420.6547661955 ; 5403517.810230023 ; 10472.000000000002
45 ; 86427.36660369785 ; 140127.97894590648 ; 2794200.496793066 ; 5542536.645731067 ; 10710.000000000002
46 ; 87200.28057446888 ; 141250.79672617358 ; 2880627.863396764 ; 5682664.624676974 ; 10948.000000000002
47 ; 87993.9677776882 ; 142386.58784632105 ; 2967828.1439712327 ; 5823915.421403147 ; 11186.000000000002
48 ; 88964.24639883554 ; 143534.68420143658 ; 3055822.1117489208 ; 5966302.009249468 ; 11424.000000000002
49 ; 89631.40906596309 ; 144694.44925431273 ; 3144786.358147756 ; 6109836.693450905 ; 11662.000000000002
50 ; 90353.5346339091 ; 145865.2766994854 ; 3234417.7672137194 ; 6254531.142705218 ; 11900.000000000002
51 ; 90677.04780194703 ; 147046.589128481 ; 3324771.3018476283 ; 6400396.419404703 ; 12138.000000000002
52 ; 91690.62515411296 ; 148237.8367079236 ; 3415448.3496495755 ; 6547443.008533184 ; 12376.000000000002
53 ; 92002.74952144611 ; 149438.49587987424 ; 3507138.9748036885 ; 6695680.845241108 ; 12614.000000000002
54 ; 93022.26203817857 ; 150648.06809181476 ; 3599141.7243251344 ; 6845119.341120983 ; 12852.000000000002
55 ; 94013.35975305761 ; 151866.07856200368 ; 3692163.986363313 ; 6995767.409212797 ; 13090.000000000002
56 ; 94331.08317365719 ; 153092.07508450758 ; 3786177.346116371 ; 7147633.4877748005 ; 13328.000000000002
57 ; 94934.87016819749 ; 154325.62687700044 ; 3880508.4292900283 ; 7300725.562859308 ; 13566.000000000002
58 ; 95343.6697794457 ; 155566.32347341868 ; 3975443.2994582257 ; 7455051.1897363085 ; 13804.000000000002
59 ; 96056.404539474 ; 156813.77366272328 ; 4070786.9692376712 ; 7610617.513209728 ; 14042.000000000002
60 ; 96632.06903373796 ; 158067.60447432843 ; 4166843.373777145 ; 7767431.286872451 ; 14280.000000000002
61 ; 97393.65371192373 ; 159327.4602102011 ; 4263475.442810883 ; 7925498.89134678 ; 14518.000000000002
62 ; 97050.88283485905 ; 160593.00152318215 ; 4360869.096522806 ; 8084826.351556981 ; 14756.000000000002
63 ; 97958.85471252145 ; 161863.9045407252 ; 4457919.979357665 ; 8245419.353080163 ; 14994.000000000002
64 ; 98443.58366466488 ; 163139.8600329693 ; 4555878.834070187 ; 8407283.257620888 ; 15232.000000000002
65 ; 98500.79696427713 ; 164420.57262385273 ; 4654322.417734852 ; 8570423.117653858 ; 15470.000000000002
66 ; 99264.51085692333 ; 165705.76004381734 ; 4752823.21469913 ; 8734843.69027771 ; 15708.000000000002
67 ; 99317.26399472471 ; 166995.15242254315 ; 4852087.725556053 ; 8900549.450321527 ; 15946.000000000002
68 ; 100245.20900772818 ; 168288.49162008293 ; 4951404.989550778 ; 9067544.60274407 ; 16184.000000000002
69 ; 100360.40493866536 ; 169585.53059472353 ; 5051650.198558506 ; 9235833.094364153 ; 16422.000000000004
70 ; 100344.05713214178 ; 170886.03280588723 ; 5152010.603497171 ; 9405418.624958877 ; 16660.000000000004
71 ; 100631.4824767897 ; 172189.7716503902 ; 5252354.6606293125 ; 9576304.657764765 ; 16898.000000000004
72 ; 101280.85519221528 ; 173496.52993039665 ; 5352986.143106102 ; 9748494.429415155 ; 17136.000000000004
73 ; 101321.47398070709 ; 174806.09935144088 ; 5454266.998298317 ; 9921990.959345551 ; 17374.000000000004
74 ; 101825.72707359295 ; 176118.2800489321 ; 5555588.472279024 ; 1.0096797058696993E7 ; 17612.000000000004
75 ; 102124.2684535601 ; 177432.88014160827 ; 5657414.199352617 ; 1.0272915338745926E7 ; 17850.000000000004
76 ; 102130.10721131369 ; 178749.71531045964 ; 5759538.467806177 ; 1.0450348218887534E7 ; 18088.000000000004
77 ; 102284.10899076861 ; 180068.60840170234 ; 5861668.575017491 ; 1.0629097934197994E7 ; 18326.000000000004
78 ; 102613.73462433627 ; 181389.3890524444 ; 5963952.68400826 ; 1.0809166542599697E7 ; 18564.000000000004
79 ; 102553.51536927452 ; 182711.8933377465 ; 6066566.418632597 ; 1.0990555931652142E7 ; 18802.000000000004
80 ; 102601.05898871551 ; 184035.96343784558 ; 6169119.934001871 ; 1.1173267824989889E7 ; 19040.000000000004
81 ; 103390.10012017535 ; 185361.44732436753 ; 6271720.992990587 ; 1.1357303788427735E7 ; 19278.000000000004
82 ; 103392.92308188119 ; 186688.19846442036 ; 6375111.093110763 ; 1.1542665235752102E7 ; 19516.000000000004
83 ; 103006.68420853489 ; 188016.0755415144 ; 6478504.016192644 ; 1.1729353434216522E7 ; 19754.000000000004
84 ; 103722.0027021148 ; 189344.94219231736 ; 6581510.700401179 ; 1.1917369509758037E7 ; 19992.000000000004
85 ; 103425.320085465 ; 190674.66675830487 ; 6685232.703103294 ; 1.2106714451950355E7 ; 20230.000000000004
86 ; 103619.64518342879 ; 192005.12205142243 ; 6788658.023188759 ; 1.2297389118708659E7 ; 20468.000000000004
87 ; 103456.83992107747 ; 193336.18513292534 ; 6892277.668372188 ; 1.248939424076008E7 ; 20706.000000000004
88 ; 103433.62388531204 ; 194667.73710461028 ; 6995734.5082932655 ; 1.2682730425893005E7 ; 20944.000000000004
89 ; 103764.61283686062 ; 195999.662911703 ; 7099168.132178578 ; 1.2877398162997615E7 ; 21182.000000000004
90 ; 103653.77364946675 ; 197331.85115670413 ; 7202932.745015439 ; 1.3073397825909318E7 ; 21420.000000000004
91 ; 103204.7494771938 ; 198664.19392354388 ; 7306586.518664906 ; 1.3270729677066023E7 ; 21658.000000000004
92 ; 103764.87439811803 ; 199996.5866114306 ; 7409791.2681420995 ; 1.3469393870989567E7 ; 21896.000000000004
93 ; 103259.3506736992 ; 201328.92777781794 ; 7513556.142540217 ; 1.3669390457600998E7 ; 22134.000000000004
94 ; 103572.25931023057 ; 202661.1189899504 ; 7616815.493213916 ; 1.3870719385378815E7 ; 22372.000000000004
95 ; 102998.67876512138 ; 203993.06468447958 ; 7720387.752524147 ; 1.4073380504368765E7 ; 22610.000000000004
96 ; 102622.16614691174 ; 205324.67203467496 ; 7823386.431289269 ; 1.4277373569053246E7 ; 22848.000000000004
97 ; 103074.07593566968 ; 206655.85082478222 ; 7926008.59743618 ; 1.4482698241087921E7 ; 23086.000000000004
98 ; 102926.15727477102 ; 207986.51333111015 ; 8029082.67337185 ; 1.4689354091912704E7 ; 23324.000000000004
99 ; 102299.5383318467 ; 209316.5742094524 ; 8132008.830646621 ; 1.4897340605243813E7 ; 23562.000000000004
100 ; 102218.70045462034 ; 210645.95038847506 ; 8234308.368978468 ; 1.5106657179453265E7 ; 23800.000000000004
101 ; 101908.6965531316 ; 211974.56096872367 ; 8336527.069433088 ; 1.531730312984174E7 ; 24038.000000000004
102 ; 101690.4972892732 ; 213302.32712692503 ; 8438435.76598622 ; 1.5529277690810462E7 ; 24276.000000000004
103 ; 101403.96340298261 ; 214629.17202527792 ; 8540126.263275495 ; 1.5742580017937388E7 ; 24514.000000000004
104 ; 101363.77751886594 ; 215955.02072544757 ; 8641530.226678478 ; 1.5957209189962666E7 ; 24752.000000000004
105 ; 100532.8029673561 ; 217279.80010699452 ; 8742894.004197344 ; 1.6173164210688114E7 ; 24990.000000000004
106 ; 100969.05354491188 ; 218603.43878998628 ; 8843426.8071647 ; 1.6390444010795109E7 ; 25228.000000000004
107 ; 99961.4883185142 ; 219925.86706155434 ; 8944395.860709613 ; 1.6609047449585095E7 ; 25466.000000000004
108 ; 99989.07913785128 ; 221247.01680617468 ; 9044357.349028127 ; 1.682897331664665E7 ; 25704.000000000004
109 ; 99359.88948649705 ; 222566.82143946312 ; 9144346.428165978 ; 1.7050220333452825E7 ; 25942.000000000004
110 ; 99256.53920023907 ; 223885.2158452885 ; 9243706.317652475 ; 1.727278715489229E7 ; 26180.000000000004
111 ; 99090.76141424468 ; 225202.136316021 ; 9342962.856852714 ; 1.7496672370737575E7 ; 26418.000000000004
112 ; 98741.61627464619 ; 226517.5204957403 ; 9442053.618266959 ; 1.7721874507053595E7 ; 26656.000000000004
113 ; 97887.8125852472 ; 227831.30732624285 ; 9540795.234541604 ; 1.7948392027549334E7 ; 26894.000000000004
114 ; 97680.13363730139 ; 229143.43699569372 ; 9638683.047126852 ; 1.8176223334875576E7 ; 27132.000000000004
115 ; 96735.89847756259 ; 230453.85088977977 ; 9736363.180764154 ; 1.840536677187127E7 ; 27370.000000000004
116 ; 95993.9442761818 ; 231762.49154522875 ; 9833099.079241715 ; 1.863582062276105E7 ; 27608.000000000004
117 ; 95895.57528192428 ; 233069.30260556666 ; 9929093.023517897 ; 1.886758311430628E7 ; 27846.000000000004
118 ; 95222.65234830792 ; 234374.22877899342 ; 1.0024988598799821E7 ; 1.9100652416911844E7 ; 28084.000000000004
119 ; 94556.4263619359 ; 235677.21579826463 ; 1.0120211251148129E7 ; 1.9335026645690836E7 ; 28322.000000000004
120 ; 94040.22465875077 ; 236978.21038247217 ; 1.0214767677510064E7 ; 1.9570703861489102E7 ; 28560.000000000004
121 ; 93874.96323181369 ; 238277.1602006244 ; 1.0308807902168814E7 ; 1.9807682071871575E7 ; 28798.000000000004
122 ; 92976.40125325652 ; 239574.01383693106 ; 1.0402682865400627E7 ; 2.00459592320722E7 ; 29036.000000000004
123 ; 92101.43154811641 ; 240868.72075770432 ; 1.0495659266653884E7 ; 2.0285533245909132E7 ; 29274.000000000004
124 ; 91519.1994033411 ; 242161.23127979191 ; 1.0587760698202E7 ; 2.0526401966666836E7 ; 29512.000000000004
125 ; 91255.40925624492 ; 243451.49654046376 ; 1.0679279897605343E7 ; 2.0768563197946627E7 ; 29750.000000000004
126 ; 90543.34691100394 ; 244739.46846867708 ; 1.0770535306861587E7 ; 2.101201469448709E7 ; 29988.000000000004
127 ; 89939.08065678652 ; 246025.0997576497 ; 1.086107865377259E7 ; 2.125675416295577E7 ; 30226.000000000004
128 ; 89050.36340526877 ; 247308.34383867597 ; 1.0951017734429378E7 ; 2.1502779262713417E7 ; 30464.000000000004
129 ; 88188.74719145248 ; 248589.1548561215 ; 1.1040068097834647E7 ; 2.1750087606552094E7 ; 30702.000000000004
130 ; 87535.246463505 ; 249867.48764353822 ; 1.11282568450261E7 ; 2.1998676761408217E7 ; 30940.000000000004
131 ; 86883.0183994803 ; 251143.297700844 ; 1.1215792091489606E7 ; 2.2248544249051757E7 ; 31178.000000000004
132 ; 85911.95838338832 ; 252416.5411725136 ; 1.1302675109889086E7 ; 2.24996875467526E7 ; 31416.000000000004
133 ; 85100.96681195125 ; 253687.17482673124 ; 1.1388587068272475E7 ; 2.2752104087925114E7 ; 31654.000000000004
134 ; 84395.9478462083 ; 254955.15603545765 ; 1.1473688035084426E7 ; 2.3005791262751844E7 ; 31892.000000000004
135 ; 83216.74382422044 ; 256220.44275536708 ; 1.1558083982930634E7 ; 2.32607464187873E7 ; 32130.000000000004
136 ; 82457.32092561339 ; 257482.99350961178 ; 1.1641300726754855E7 ; 2.351696686154267E7 ; 32368.000000000004
137 ; 81640.4959403872 ; 258742.76737037397 ; 1.172375804768047E7 ; 2.377444985505228E7 ; 32606.000000000004
138 ; 80898.64099659258 ; 259999.72394216817 ; 1.1805398543620856E7 ; 2.4033192622422654E7 ; 32844.00000000001
139 ; 80051.11919329829 ; 261253.82334585744 ; 1.1886297184617449E7 ; 2.4293192346364822E7 ; 33082.00000000001
140 ; 78598.22621573818 ; 262505.0262033494 ; 1.1966348303810747E7 ; 2.455444616971068E7 ; 33320.00000000001
141 ; 77938.57721143543 ; 263753.293622941 ; 1.2044946530026486E7 ; 2.481695119591403E7 ; 33558.00000000001
142 ; 77241.14627538522 ; 264998.5871852804 ; 1.2122885107237922E7 ; 2.508070448953697E7 ; 33796.00000000001
143 ; 75934.9286875887 ; 266240.86892991816 ; 1.2200126253513306E7 ; 2.534570307672225E7 ; 34034.00000000001
144 ; 75091.74253766355 ; 267480.1013424195 ; 1.2276061182200896E7 ; 2.561194394565217E7 ; 34272.00000000001
145 ; 75149.54497676276 ; 268716.24734201224 ; 1.235115292473856E7 ; 2.587942404699459E7 ; 34510.00000000001
146 ; 75049.08400445449 ; 269949.2702697457 ; 1.2426302469715323E7 ; 2.6148140294336602E7 ; 34748.00000000001
147 ; 74550.61223954368 ; 271179.1338771373 ; 1.2501351553719778E7 ; 2.6418089564606346E7 ; 34986.00000000001
148 ; 74506.361687876 ; 272405.8023152843 ; 1.2575902165959321E7 ; 2.6689268698483482E7 ; 35224.00000000001
149 ; 73534.49453566645 ; 273629.24012442044 ; 1.2650408527647197E7 ; 2.6961674500798766E7 ; 35462.00000000001
150 ; 73894.48112667703 ; 274849.4122238961 ; 1.2723943022182863E7 ; 2.7235303740923185E7 ; 35700.00000000001
151 ; 73585.81305232852 ; 276066.2839025652 ; 1.279783750330954E7 ; 2.7510153153147083E7 ; 35938.00000000001
152 ; 73178.65655061128 ; 277279.8208095579 ; 1.2871423316361869E7 ; 2.778621943704965E7 ; 36176.00000000001
153 ; 73055.93909676379 ; 278489.9889454252 ; 1.294460197291248E7 ; 2.8063499257859208E7 ; 36414.00000000001
154 ; 72621.61382035339 ; 279696.7546536361 ; 1.3017657912009243E7 ; 2.8341989246804632E7 ; 36652.00000000001
155 ; 72386.28121711101 ; 280900.0846124139 ; 1.3090279525829596E7 ; 2.862168600145827E7 ; 36890.00000000001
156 ; 72240.24940603662 ; 282099.94582689635 ; 1.3162665807046708E7 ; 2.8902586086070683E7 ; 37128.00000000001
157 ; 72284.67690711985 ; 283296.30562160484 ; 1.3234906056452744E7 ; 2.918468603189758E7 ; 37366.00000000001
158 ; 71969.350934703 ; 284489.1316332103 ; 1.3307190733359864E7 ; 2.9467982337519184E7 ; 37604.00000000001
159 ; 72044.12871973633 ; 285678.3918035828 ; 1.3379160084294567E7 ; 2.9752471469152395E7 ; 37842.00000000001
160 ; 71516.49511019308 ; 286864.05437311233 ; 1.3451204213014303E7 ; 3.0038149860955976E7 ; 38080.00000000001
161 ; 71453.755740692 ; 288046.0878742897 ; 1.3522720708124496E7 ; 3.0325013915329088E7 ; 38318.00000000001
162 ; 70462.28254255379 ; 289224.46112553653 ; 1.3594174463865189E7 ; 3.0613060003203377E7 ; 38556.00000000001
163 ; 70104.18091825824 ; 290399.1432252736 ; 1.3664636746407744E7 ; 3.0902284464328915E7 ; 38794.00000000001
164 ; 70037.21034657616 ; 291570.10354621726 ; 1.3734740927326001E7 ; 3.119268360755419E7 ; 39032.00000000001
165 ; 69627.21915128351 ; 292737.31172989623 ; 1.3804778137672577E7 ; 3.1484253711100407E7 ; 39270.00000000001
166 ; 68918.31521219847 ; 293900.73768137675 ; 1.387440535682386E7 ; 3.1776991022830304E7 ; 39508.00000000001
167 ; 69271.53531889018 ; 295060.35156418994 ; 1.3943323672036057E7 ; 3.207089176051168E7 ; 39746.00000000001
168 ; 68497.42972083653 ; 296216.12379545206 ; 1.4012595207354948E7 ; 3.2365952112075873E7 ; 39984.00000000001
169 ; 68001.50565155249 ; 297368.0250411694 ; 1.4081092637075784E7 ; 3.2662168235871326E7 ; 40222.00000000001
170 ; 67911.12673556549 ; 298516.0262117218 ; 1.4149094142727336E7 ; 3.2959536260912497E7 ; 40460.00000000001
171 ; 67452.98685101687 ; 299660.0984575156 ; 1.4217005269462902E7 ; 3.3258052287124217E7 ; 40698.00000000001
172 ; 66893.17699376703 ; 300800.2131648004 ; 1.4284458256313918E7 ; 3.355771238558173E7 ; 40936.00000000001
173 ; 67300.77621469824 ; 301936.3419516435 ; 1.4351351433307685E7 ; 3.385851259874653E7 ; 41174.00000000001
174 ; 66927.92108862565 ; 303068.4566640544 ; 1.4418652209522383E7 ; 3.416044894069818E7 ; 41412.00000000001
175 ; 67022.50295370976 ; 304196.52937225404 ; 1.4485580130611008E7 ; 3.446351739736223E7 ; 41650.00000000001
176 ; 67711.48844481818 ; 305320.5323670836 ; 1.4552602633564718E7 ; 3.4767713926734485E7 ; 41888.00000000001
177 ; 67817.81365866492 ; 306440.43815654627 ; 1.4620314122009536E7 ; 3.5073034459101565E7 ; 42126.00000000001
178 ; 67957.3479425468 ; 307556.21946247824 ; 1.46881319356682E7 ; 3.537947489725811E7 ; 42364.00000000001
179 ; 68370.19216686046 ; 308667.84921734204 ; 1.4756089283610746E7 ; 3.568703111672059E7 ; 42602.00000000001
180 ; 68625.03040392356 ; 309775.30056113895 ; 1.4824459475777607E7 ; 3.599569896593793E7 ; 42840.00000000001
181 ; 68628.22891004225 ; 310878.54683843546 ; 1.489308450618153E7 ; 3.6305474266499065E7 ; 43078.00000000001
182 ; 68834.94383388349 ; 311977.561595499 ; 1.4961712735091573E7 ; 3.66163528133375E7 ; 43316.00000000001
