CSV File for the Network on Day 187
1 - Minute m 
2 - Power Consumed at minute m 
3 - Power Produced at minute m 
4 - Energy Consumed since the beginning of the day 
5 - Energy Produced since the beginning of the day 
6 - Energy Lost since the beginning of the day 
 
No Production city : 2, Producer : 1
No Production city : 4, Producer : 1
No Production city : 4, Producer : 1
 
0 ; 30510.71114285539 ; 143091.5543800877 ; 0.0 ; 0.0 ; 0.0
1 ; 32521.48436619363 ; 142730.08268987187 ; 30510.71114285539 ; 143091.5543800877 ; 238.00000000000003
2 ; 34078.778081935576 ; 142405.09485748815 ; 63032.19550904902 ; 285821.63706995954 ; 476.00000000000006
3 ; 35122.64702796006 ; 142117.09662547577 ; 97110.97359098459 ; 428226.7319274477 ; 714.0000000000001
4 ; 37511.45520165701 ; 141866.54353226733 ; 132233.62061894464 ; 570343.8285529235 ; 952.0000000000001
5 ; 38795.36108066986 ; 141653.83762236388 ; 169745.07582060166 ; 712210.3720851908 ; 1190.0000000000002
6 ; 40092.7702854305 ; 141479.32446874576 ; 208540.43690127152 ; 853864.2097075547 ; 1428.0000000000002
7 ; 41631.338028496706 ; 141343.29055764235 ; 248633.20718670203 ; 995343.5341763004 ; 1666.0000000000002
8 ; 43047.98627900381 ; 141245.96108108325 ; 290264.5452151987 ; 1136686.8247339427 ; 1904.0000000000002
9 ; 45119.23059019039 ; 141187.498176565 ; 333312.5314942025 ; 1277932.785815026 ; 2142.0000000000005
10 ; 46600.275096085126 ; 141167.99964585164 ; 378431.7620843929 ; 1419120.2839915908 ; 2380.0000000000005
11 ; 47790.329883477476 ; 141187.498176565 ; 425032.037180478 ; 1560288.2836374424 ; 2618.0000000000005
12 ; 49682.672041257756 ; 141245.96108108325 ; 472822.36706395546 ; 1701475.7818140073 ; 2856.0000000000005
13 ; 50578.75446311711 ; 141343.29055764235 ; 522505.03910521325 ; 1842721.7428950905 ; 3094.0000000000005
14 ; 51988.28708550616 ; 141479.32446874568 ; 573083.7935683304 ; 1984065.033452733 ; 3332.0000000000005
15 ; 53386.204313741495 ; 141653.83762236388 ; 625072.0806538365 ; 2125544.357921479 ; 3570.0000000000005
16 ; 54694.67308281358 ; 141866.54353226733 ; 678458.284967578 ; 2267198.195543843 ; 3808.0000000000005
17 ; 56332.005242120475 ; 142117.0966254757 ; 733152.9580503916 ; 2409064.73907611 ; 4046.0000000000005
18 ; 57829.19147543098 ; 142405.0948574882 ; 789484.9632925121 ; 2551181.8357015857 ; 4284.000000000001
19 ; 58991.91384218693 ; 142730.0826898718 ; 847314.1547679431 ; 2693586.930559074 ; 4522.000000000001
20 ; 60205.55939875814 ; 143091.55438008776 ; 906306.06861013 ; 2836317.013248946 ; 4760.000000000001
21 ; 61105.31362405751 ; 143488.9575301945 ; 966511.6280088881 ; 2979408.5676290337 ; 4998.000000000001
22 ; 62279.61905384124 ; 143921.69683930307 ; 1027616.9416329456 ; 3122897.525159228 ; 5236.000000000001
23 ; 63632.67878469783 ; 144389.13800433202 ; 1089896.560686787 ; 3266819.2219985314 ; 5474.000000000001
24 ; 64888.88245692747 ; 144890.6117146079 ; 1153529.2394714847 ; 3411208.360002863 ; 5712.000000000001
25 ; 66173.11403485577 ; 145425.4176880586 ; 1218418.1219284122 ; 3556098.9717174713 ; 5950.000000000001
26 ; 67503.33714258047 ; 145992.8286999587 ; 1284591.235963268 ; 3701524.38940553 ; 6188.000000000001
27 ; 68321.87585740835 ; 146592.09455923023 ; 1352094.5731058484 ; 3847517.2181054885 ; 6426.000000000001
28 ; 69976.33714037332 ; 147222.44599196478 ; 1420416.4489632568 ; 3994109.312664719 ; 6664.000000000001
29 ; 70996.78935576288 ; 147883.0983969211 ; 1490392.7861036302 ; 4141331.7586566834 ; 6902.000000000001
30 ; 71915.01838978102 ; 148573.25544306112 ; 1561389.5754593932 ; 4289214.857053605 ; 7140.000000000001
31 ; 72840.00077918467 ; 149292.1124845583 ; 1633304.5938491742 ; 4437788.112496666 ; 7378.000000000001
32 ; 74014.37047062279 ; 150038.85977397452 ; 1706144.594628359 ; 4587080.224981224 ; 7616.000000000001
33 ; 75553.71031661073 ; 150812.68545934136 ; 1780158.9650989817 ; 4737119.084755199 ; 7854.000000000001
34 ; 76136.41145268778 ; 151612.77835558885 ; 1855712.6754155925 ; 4887931.77021454 ; 8092.000000000001
35 ; 77232.38356509552 ; 152438.33048506637 ; 1931849.0868682803 ; 5039544.548570129 ; 8330.000000000002
36 ; 78171.33454071748 ; 153288.5393857453 ; 2009081.4704333758 ; 5191982.8790551955 ; 8568.000000000002
37 ; 79211.14280697395 ; 154162.61018905594 ; 2087252.8049740933 ; 5345271.418440941 ; 8806.000000000002
38 ; 80390.38951368498 ; 155059.75747217852 ; 2166463.9477810673 ; 5499434.028629997 ; 9044.000000000002
39 ; 80916.83586664396 ; 155979.2068919919 ; 2246854.3372947522 ; 5654493.786102176 ; 9282.000000000002
40 ; 81981.32894703645 ; 156920.19660980097 ; 2327771.1731613963 ; 5810472.992994168 ; 9520.000000000002
41 ; 83090.77729219492 ; 157881.97851745205 ; 2409752.502108433 ; 5967393.1896039685 ; 9758.000000000002
42 ; 83756.58692770152 ; 158863.81927652884 ; 2492843.2794006276 ; 6125275.168121421 ; 9996.000000000002
43 ; 84440.38951557942 ; 159865.00118306073 ; 2576599.8663283293 ; 6284138.987397949 ; 10234.000000000002
44 ; 84873.45306502911 ; 160884.82287059157 ; 2661040.2558439085 ; 6444003.98858101 ; 10472.000000000002
45 ; 86080.23074261029 ; 161922.5998646166 ; 2745913.708908938 ; 6604888.811451602 ; 10710.000000000002
46 ; 87282.54774620832 ; 162977.66500132033 ; 2831993.939651548 ; 6766811.411316219 ; 10948.000000000002
47 ; 87493.4234162613 ; 164049.36872329444 ; 2919276.4873977564 ; 6929789.076317539 ; 11186.000000000002
48 ; 88512.0567519153 ; 165137.0792645105 ; 3006769.9108140175 ; 7093838.445040834 ; 11424.000000000002
49 ; 89105.13181524204 ; 166240.18273630246 ; 3095281.967565933 ; 7258975.524305345 ; 11662.000000000002
50 ; 89832.03992985509 ; 167358.0831255136 ; 3184387.099381175 ; 7425215.707041647 ; 11900.000000000002
51 ; 90368.11724461247 ; 168490.20221529566 ; 3274219.13931103 ; 7592573.790167161 ; 12138.000000000002
52 ; 91314.86220057418 ; 169635.97943835365 ; 3364587.2565556425 ; 7761063.992382457 ; 12376.000000000002
53 ; 91868.88736224125 ; 170794.87167170938 ; 3455902.1187562165 ; 7930699.97182081 ; 12614.000000000002
54 ; 92642.57993817457 ; 171966.3529813389 ; 3547771.0061184578 ; 8101494.843492519 ; 12852.000000000002
55 ; 93445.57636957208 ; 173149.91432432662 ; 3640413.5860566325 ; 8273461.196473858 ; 13090.000000000002
56 ; 93659.2134649654 ; 174345.06321549098 ; 3733859.1624262044 ; 8446611.110798186 ; 13328.000000000002
57 ; 94149.28269658396 ; 175551.32336476984 ; 3827518.37589117 ; 8620956.174013676 ; 13566.000000000002
58 ; 95309.16832554468 ; 176768.23429102302 ; 3921667.658587754 ; 8796507.497378446 ; 13804.000000000002
59 ; 95675.91436248847 ; 177995.3509173148 ; 4016976.8269132986 ; 8973275.731669469 ; 14042.000000000002
60 ; 96094.34178825264 ; 179232.2431521795 ; 4112652.741275787 ; 9151271.082586784 ; 14280.000000000002
61 ; 96749.94873417485 ; 180478.49546085743 ; 4208747.083064039 ; 9330503.325738963 ; 14518.000000000002
62 ; 96999.73494158991 ; 181733.70643000942 ; 4305497.031798214 ; 9510981.82119982 ; 14756.000000000002
63 ; 97709.53126641626 ; 182997.48832897874 ; 4402496.766739803 ; 9692715.527629828 ; 14994.000000000002
64 ; 97934.47909710338 ; 184269.46667027054 ; 4500206.29800622 ; 9875713.015958806 ; 15232.000000000002
65 ; 98363.44038607554 ; 185549.2797715517 ; 4598140.7771033235 ; 1.0059982482629078E7 ; 15470.000000000002
66 ; 98938.90035046358 ; 186836.5783211479 ; 4696504.217489399 ; 1.0245531762400629E7 ; 15708.000000000002
67 ; 99141.50738067976 ; 188131.02494871602 ; 4795443.117839863 ; 1.0432368340721777E7 ; 15946.000000000002
68 ; 99575.24407726424 ; 189432.2938025055 ; 4894584.625220543 ; 1.0620499365670493E7 ; 16184.000000000002
69 ; 99781.87696778223 ; 190740.07013438476 ; 4994159.869297807 ; 1.0809931659472998E7 ; 16422.000000000004
70 ; 100545.37741296894 ; 192054.0498935981 ; 5093941.746265589 ; 1.1000671729607383E7 ; 16660.000000000004
71 ; 100583.59618749365 ; 193373.9393300313 ; 5194487.1236785585 ; 1.1192725779500982E7 ; 16898.000000000004
72 ; 101544.81800625405 ; 194699.4546076005 ; 5295070.719866052 ; 1.1386099718831014E7 ; 17136.000000000004
73 ; 101425.38781938195 ; 196030.32142823335 ; 5396615.537872306 ; 1.1580799173438614E7 ; 17374.000000000004
74 ; 101726.08484916683 ; 197366.27466678686 ; 5498040.925691688 ; 1.1776829494866848E7 ; 17612.000000000004
75 ; 101983.4089424721 ; 198707.05801713388 ; 5599767.010540855 ; 1.1974195769533634E7 ; 17850.000000000004
76 ; 102009.90355837079 ; 200052.42364955842 ; 5701750.419483327 ; 1.2172902827550769E7 ; 18088.000000000004
77 ; 102468.48084952841 ; 201402.1318795147 ; 5803760.323041698 ; 1.2372955251200328E7 ; 18326.000000000004
78 ; 102859.61032387754 ; 202755.95084773857 ; 5906228.803891227 ; 1.2574357383079842E7 ; 18564.000000000004
79 ; 103008.05603201316 ; 204113.6562116362 ; 6009088.414215105 ; 1.2777113333927581E7 ; 18802.000000000004
80 ; 103136.3962958617 ; 205475.03084782916 ; 6112096.470247118 ; 1.2981226990139218E7 ; 19040.000000000004
81 ; 103120.68860130424 ; 206839.86456568935 ; 6215232.866542979 ; 1.3186702020987047E7 ; 19278.000000000004
82 ; 103094.85385540896 ; 208207.95383166545 ; 6318353.555144283 ; 1.3393541885552736E7 ; 19516.000000000004
83 ; 103160.22194439433 ; 209579.10150417237 ; 6421448.408999692 ; 1.3601749839384401E7 ; 19754.000000000004
84 ; 103525.32023470591 ; 210953.11657879368 ; 6524608.630944086 ; 1.3811328940888574E7 ; 19992.000000000004
85 ; 103929.84830984534 ; 212329.8139435289 ; 6628133.951178792 ; 1.4022282057467368E7 ; 20230.000000000004
86 ; 103422.78368257215 ; 213709.01414380415 ; 6732063.799488638 ; 1.4234611871410897E7 ; 20468.000000000004
87 ; 103862.79286054597 ; 215090.54315695429 ; 6835486.583171209 ; 1.4448320885554701E7 ; 20706.000000000004
88 ; 103562.20684670814 ; 216474.23217587938 ; 6939349.3760317555 ; 1.4663411428711655E7 ; 20944.000000000004
89 ; 103163.6662728372 ; 217859.9174015728 ; 7042911.582878464 ; 1.4879885660887534E7 ; 21182.000000000004
90 ; 103564.67835843394 ; 219247.4398442179 ; 7146075.249151301 ; 1.5097745578289106E7 ; 21420.000000000004
91 ; 103521.1710481173 ; 220636.64513255015 ; 7249639.927509734 ; 1.5316993018133324E7 ; 21658.000000000004
92 ; 103599.74367464962 ; 222027.3833311836 ; 7353161.098557851 ; 1.5537629663265875E7 ; 21896.000000000004
93 ; 103403.05245470756 ; 223419.50876560455 ; 7456760.842232501 ; 1.5759657046597058E7 ; 22134.000000000004
94 ; 103516.67358434926 ; 224812.87985453889 ; 7560163.894687208 ; 1.5983076555362662E7 ; 22372.000000000004
95 ; 102711.01489224353 ; 226207.3589494066 ; 7663680.568271558 ; 1.6207889435217202E7 ; 22610.000000000004
96 ; 102724.81261138471 ; 227602.812180582 ; 7766391.583163802 ; 1.6434096794166608E7 ; 22848.000000000004
97 ; 103252.91620029756 ; 228999.10931018574 ; 7869116.395775186 ; 1.666169960634719E7 ; 23086.000000000004
98 ; 102515.72802666639 ; 230396.12359114227 ; 7972369.311975484 ; 1.6890698715657376E7 ; 23324.000000000004
99 ; 102367.71025823358 ; 231793.73163224367 ; 8074885.04000215 ; 1.712109483924852E7 ; 23562.000000000004
100 ; 102225.69189179003 ; 233191.8132689694 ; 8177252.750260384 ; 1.7352888570880763E7 ; 23800.000000000004
101 ; 102059.05555795782 ; 234590.25143981932 ; 8279478.442152174 ; 1.7586080384149734E7 ; 24038.000000000004
102 ; 102103.81959764552 ; 235988.9320679257 ; 8381537.497710132 ; 1.7820670635589555E7 ; 24276.000000000004
103 ; 101224.04872406853 ; 237387.74394771794 ; 8483641.317307778 ; 1.8056659567657482E7 ; 24514.000000000004
104 ; 101258.39727330013 ; 238786.57863642304 ; 8584865.366031846 ; 1.82940473116052E7 ; 24752.000000000004
105 ; 101098.59569795603 ; 240185.3303501918 ; 8686123.763305146 ; 1.8532833890241623E7 ; 24990.000000000004
106 ; 101036.18313451031 ; 241583.89586464918 ; 8787222.359003102 ; 1.8773019220591813E7 ; 25228.000000000004
107 ; 100368.36664287739 ; 242982.17441967636 ; 8888258.542137614 ; 1.9014603116456464E7 ; 25466.000000000004
108 ; 100180.38571402321 ; 244380.06762823768 ; 8988626.908780491 ; 1.925758529087614E7 ; 25704.000000000004
109 ; 99653.99997907446 ; 245777.47938907522 ; 9088807.294494513 ; 1.9501965358504377E7 ; 25942.000000000004
110 ; 98880.76245568866 ; 247174.3158031001 ; 9188461.294473588 ; 1.9747742837893452E7 ; 26180.000000000004
111 ; 98617.01439868323 ; 248570.48509331746 ; 9287342.056929277 ; 1.9994917153696552E7 ; 26418.000000000004
112 ; 98454.23508202482 ; 249965.89752812797 ; 9385959.07132796 ; 2.024348763878987E7 ; 26656.000000000004
113 ; 97871.13509027543 ; 251360.4653478568 ; 9484413.306409985 ; 2.0493453536317997E7 ; 26894.000000000004
114 ; 96802.04537052836 ; 252754.10269436656 ; 9582284.44150026 ; 2.0744814001665853E7 ; 27132.000000000004
115 ; 96598.06504001647 ; 254146.72554361765 ; 9679086.486870788 ; 2.099756810436022E7 ; 27370.000000000004
116 ; 96088.35643468467 ; 255538.2516410445 ; 9775684.551910805 ; 2.1251714829903837E7 ; 27608.000000000004
117 ; 95805.68955441774 ; 256928.60043962352 ; 9871772.908345489 ; 2.1507253081544884E7 ; 27846.000000000004
118 ; 94772.42847102637 ; 258317.69304051268 ; 9967578.597899906 ; 2.1764181681984507E7 ; 28084.000000000004
119 ; 94632.37516539021 ; 259705.452136149 ; 1.0062351026370933E7 ; 2.202249937502502E7 ; 28322.000000000004
120 ; 94005.7013502488 ; 261091.8019556949 ; 1.0156983401536323E7 ; 2.2282204827161167E7 ; 28560.000000000004
121 ; 93550.99752782675 ; 262476.6682127297 ; 1.0250989102886572E7 ; 2.2543296629116863E7 ; 28798.000000000004
122 ; 92542.46033992249 ; 263859.97805508657 ; 1.0344540100414399E7 ; 2.2805773297329593E7 ; 29036.000000000004
123 ; 92395.94622269538 ; 265241.6600167408 ; 1.0437082560754322E7 ; 2.306963327538468E7 ; 29274.000000000004
124 ; 91521.5477497301 ; 266621.6439716585 ; 1.0529478506977016E7 ; 2.333487493540142E7 ; 29512.000000000004
125 ; 90913.60967717346 ; 267999.86108951987 ; 1.0621000054726746E7 ; 2.360149657937308E7 ; 29750.000000000004
126 ; 90037.64690697294 ; 269376.24379323475 ; 1.071191366440392E7 ; 2.38694964404626E7 ; 29988.000000000004
127 ; 89362.74830077213 ; 270750.72571817116 ; 1.0801951311310893E7 ; 2.4138872684255835E7 ; 30226.000000000004
128 ; 88863.59954344353 ; 272123.24167302356 ; 1.0891314059611665E7 ; 2.4409623409974005E7 ; 30464.000000000004
129 ; 87906.8302954394 ; 273493.7276022478 ; 1.0980177659155108E7 ; 2.4681746651647028E7 ; 30702.000000000004
130 ; 87346.98526608782 ; 274862.1205499952 ; 1.1068084489450548E7 ; 2.4955240379249275E7 ; 30940.000000000004
131 ; 86512.18597341745 ; 276228.35862548125 ; 1.1155431474716635E7 ; 2.523010249979927E7 ; 31178.000000000004
132 ; 85614.98720780642 ; 277592.3809697257 ; 1.1241943660690052E7 ; 2.5506330858424753E7 ; 31416.000000000004
133 ; 84864.73920290367 ; 278954.1277236061 ; 1.1327558647897858E7 ; 2.578392323939448E7 ; 31654.000000000004
134 ; 83616.5545715484 ; 280313.5399971676 ; 1.1412423387100762E7 ; 2.6062877367118083E7 ; 31892.000000000004
135 ; 83049.86901906156 ; 281670.5598401351 ; 1.149603994167231E7 ; 2.634319090711525E7 ; 32130.000000000004
136 ; 81765.49378836814 ; 283025.13021357683 ; 1.1579089810691372E7 ; 2.6624861466955386E7 ; 32368.000000000004
137 ; 81509.15323197075 ; 284377.1949626698 ; 1.166085530447974E7 ; 2.6907886597168963E7 ; 32606.000000000004
138 ; 80382.77653472927 ; 285726.6987905206 ; 1.1742364457711712E7 ; 2.7192263792131633E7 ; 32844.00000000001
139 ; 79385.84970756354 ; 287073.5872329968 ; 1.182274723424644E7 ; 2.7477990490922153E7 ; 33082.00000000001
140 ; 78353.85383432017 ; 288417.8066345261 ; 1.1902133083954005E7 ; 2.776506407815515E7 ; 33320.00000000001
141 ; 77093.35207999407 ; 289759.3041248227 ; 1.1980486937788324E7 ; 2.8053481884789675E7 ; 33558.00000000001
142 ; 76726.61749943162 ; 291098.0275965024 ; 1.205758028986832E7 ; 2.8343241188914496E7 ; 33796.00000000001
143 ; 75726.07282782596 ; 292433.9256835483 ; 1.2134306907367751E7 ; 2.8634339216511E7 ; 34034.00000000001
144 ; 74159.33282762009 ; 293766.947740593 ; 1.2210032980195576E7 ; 2.8926773142194547E7 ; 34272.00000000001
145 ; 73846.4337614125 ; 295097.043822982 ; 1.2284192313023197E7 ; 2.922054008993514E7 ; 34510.00000000001
146 ; 74000.79030727691 ; 296424.1646675875 ; 1.2358038746784609E7 ; 2.951563713375812E7 ; 34748.00000000001
147 ; 74000.02072828192 ; 297748.26167434047 ; 1.2432039537091887E7 ; 2.9812061298425708E7 ; 34986.00000000001
148 ; 73358.5305043054 ; 299069.28688845225 ; 1.250603955782017E7 ; 3.010980956010005E7 ; 35224.00000000001
149 ; 73381.75345947093 ; 300387.19298329717 ; 1.2579398088324474E7 ; 3.04088788469885E7 ; 35462.00000000001
150 ; 72918.78449997856 ; 301701.9332439295 ; 1.2652779841783945E7 ; 3.0709266039971795E7 ; 35700.00000000001
151 ; 72995.50750818578 ; 303013.46155120875 ; 1.2725698626283923E7 ; 3.1010967973215725E7 ; 35938.00000000001
152 ; 72410.27724662481 ; 304321.7323665086 ; 1.279869413379211E7 ; 3.1313981434766933E7 ; 36176.00000000001
153 ; 72258.75544506317 ; 305626.700716987 ; 1.2871104411038734E7 ; 3.1618303167133443E7 ; 36414.00000000001
154 ; 72470.27055490062 ; 306928.32218139316 ; 1.2943363166483797E7 ; 3.192392986785043E7 ; 36652.00000000001
155 ; 71593.07921058385 ; 308226.5528763921 ; 1.3015833437038697E7 ; 3.2230858190031823E7 ; 36890.00000000001
156 ; 71225.52786424852 ; 309521.3494433836 ; 1.308742651624928E7 ; 3.2539084742908213E7 ; 37128.00000000001
157 ; 71945.41527989146 ; 310812.6690357985 ; 1.315865204411353E7 ; 3.2848606092351597E7 ; 37366.00000000001
158 ; 71116.75436344199 ; 312100.4693068523 ; 1.3230597459393421E7 ; 3.3159418761387397E7 ; 37604.00000000001
159 ; 70560.84282399037 ; 313384.7083977376 ; 1.3301714213756863E7 ; 3.347151923069425E7 ; 37842.00000000001
160 ; 70139.67662779355 ; 314665.34492623893 ; 1.3372275056580853E7 ; 3.378490393909199E7 ; 38080.00000000001
161 ; 70281.73747221564 ; 315942.3379757535 ; 1.3442414733208647E7 ; 3.4099569284018226E7 ; 38318.00000000001
162 ; 69206.21537202047 ; 317215.6470847016 ; 1.3512696470680863E7 ; 3.441551162199398E7 ; 38556.00000000001
163 ; 69080.98221548833 ; 318485.2322363123 ; 1.3581902686052883E7 ; 3.473272726907868E7 ; 38794.00000000001
164 ; 68929.90958621254 ; 319751.0538487686 ; 1.3650983668268371E7 ; 3.505121250131499E7 ; 39032.00000000001
165 ; 68426.36659870605 ; 321013.07276570005 ; 1.3719913577854583E7 ; 3.5370963555163756E7 ; 39270.00000000001
166 ; 68395.82443307618 ; 322271.250247008 ; 1.378833994445329E7 ; 3.569197662792946E7 ; 39508.00000000001
167 ; 67772.53295257712 ; 323525.54796001187 ; 1.3856735768886365E7 ; 3.6014247878176466E7 ; 39746.00000000001
168 ; 67262.50699598028 ; 324775.9279709033 ; 1.3924508301838942E7 ; 3.633777342613648E7 ; 39984.00000000001
169 ; 67255.13123222985 ; 326022.3527364972 ; 1.3991770808834922E7 ; 3.666254935410738E7 ; 40222.00000000001
170 ; 66838.33064969024 ; 327264.7850962684 ; 1.4059025940067152E7 ; 3.6988571706843875E7 ; 40460.00000000001
171 ; 66428.50031621028 ; 328503.18826466333 ; 1.4125864270716842E7 ; 3.731583649194014E7 ; 40698.00000000001
172 ; 66501.52824862968 ; 329737.5258236755 ; 1.4192292771033052E7 ; 3.76443396802048E7 ; 40936.00000000001
173 ; 65320.60066513675 ; 330967.7617156766 ; 1.4258794299281683E7 ; 3.797407720602848E7 ; 41174.00000000001
174 ; 65966.39731760594 ; 332193.86023649166 ; 1.432411489994682E7 ; 3.830504496774415E7 ; 41412.00000000001
175 ; 66366.36156224033 ; 333415.78602871194 ; 1.4390081297264425E7 ; 3.863723882798064E7 ; 41650.00000000001
176 ; 66627.88023769466 ; 334633.50407523365 ; 1.4456447658826666E7 ; 3.897065461400935E7 ; 41888.00000000001
177 ; 66828.5889511592 ; 335846.9796930168 ; 1.452307553906436E7 ; 3.930528811808459E7 ; 42126.00000000001
178 ; 66865.21622896225 ; 337056.17852705525 ; 1.458990412801552E7 ; 3.9641135097777605E7 ; 42364.00000000001
179 ; 67202.24453250782 ; 338261.06654454925 ; 1.4656769344244482E7 ; 3.997819127630466E7 ; 42602.00000000001
180 ; 67262.70632989594 ; 339461.6100292751 ; 1.4723971588776989E7 ; 4.031645234284921E7 ; 42840.00000000001
181 ; 67862.36793973634 ; 340657.7755761434 ; 1.4791234295106884E7 ; 4.065591395287848E7 ; 43078.00000000001
