CSV File for the Network on Day 168
1 - Minute m 
2 - Power Consumed at minute m 
3 - Power Produced at minute m 
4 - Energy Consumed since the beginning of the day 
5 - Energy Produced since the beginning of the day 
6 - Energy Lost since the beginning of the day 
 
No Production city : 2, Producer : 1
No Production city : 4, Producer : 1
No Production city : 4, Producer : 1
 
0 ; 38146.63909719362 ; 156791.2901109895 ; 0.0 ; 0.0 ; 0.0
1 ; 39259.48235309607 ; 156445.94244254605 ; 38146.63909719362 ; 156791.2901109895 ; 238.00000000000003
2 ; 40841.90660839945 ; 156135.73890429808 ; 77406.12145028969 ; 313237.23255353555 ; 476.00000000000006
3 ; 42048.51665809617 ; 155861.07229163742 ; 118248.02805868915 ; 469372.97145783366 ; 714.0000000000001
4 ; 44104.81524341084 ; 155622.29493382902 ; 160296.5447167853 ; 625234.0437494711 ; 952.0000000000001
5 ; 44782.20503347188 ; 155419.71663599767 ; 204401.35996019616 ; 780856.3386833001 ; 1190.0000000000002
6 ; 46638.82018590957 ; 155253.6028328682 ; 249183.56499366806 ; 936276.0553192977 ; 1428.0000000000002
7 ; 48475.350857526704 ; 155124.17297951767 ; 295822.3851795776 ; 1091529.6581521658 ; 1666.0000000000002
8 ; 49392.909981758065 ; 155031.59920169952 ; 344297.73603710433 ; 1246653.8311316834 ; 1904.0000000000002
9 ; 50179.302818829194 ; 154976.0052250494 ; 393690.6460188624 ; 1401685.430333383 ; 2142.0000000000005
10 ; 51564.519213296575 ; 154957.46559874582 ; 443869.94883769157 ; 1556661.4355584322 ; 2380.0000000000005
11 ; 53044.21769127406 ; 154976.0052250494 ; 495434.46805098816 ; 1711618.901157178 ; 2618.0000000000005
12 ; 54259.55454247419 ; 155031.59920169952 ; 548478.6857422622 ; 1866594.9063822273 ; 2856.0000000000005
13 ; 55536.48105571061 ; 155124.17297951767 ; 602738.2402847364 ; 2021626.5055839268 ; 3094.0000000000005
14 ; 57140.35747901425 ; 155253.6028328681 ; 658274.721340447 ; 2176750.6785634444 ; 3332.0000000000005
15 ; 58261.256231215026 ; 155419.71663599767 ; 715415.0788194612 ; 2332004.2813963126 ; 3570.0000000000005
16 ; 59397.33678825424 ; 155622.29493382902 ; 773676.3350506763 ; 2487423.9980323105 ; 3808.0000000000005
17 ; 60581.37731938132 ; 155861.07229163733 ; 833073.6718389305 ; 2643046.2929661395 ; 4046.0000000000005
18 ; 61784.330612199454 ; 156135.73890429808 ; 893655.0491583118 ; 2798907.365257777 ; 4284.000000000001
19 ; 63089.59152537594 ; 156445.94244254596 ; 955439.3797705113 ; 2955043.104162075 ; 4522.000000000001
20 ; 63564.33122611471 ; 156791.29011098962 ; 1018528.9712958873 ; 3111489.046604621 ; 4760.000000000001
21 ; 64847.81813654093 ; 157171.35089054014 ; 1082093.302522002 ; 3268280.3367156107 ; 4998.000000000001
22 ; 66038.9475850109 ; 157585.65793645187 ; 1146941.120658543 ; 3425451.6876061508 ; 5236.000000000001
23 ; 67534.48979485425 ; 158033.71110234398 ; 1212980.0682435539 ; 3583037.3455426027 ; 5474.000000000001
24 ; 68792.80749753257 ; 158514.97956035403 ; 1280514.5580384082 ; 3741071.056644947 ; 5712.000000000001
25 ; 69098.39370280158 ; 159028.9044879411 ; 1349307.3655359407 ; 3899586.036205301 ; 5950.000000000001
26 ; 70683.48501124635 ; 159574.90179273734 ; 1418405.7592387423 ; 4058614.940693242 ; 6188.000000000001
27 ; 71412.19182346246 ; 160152.36484820527 ; 1489089.2442499886 ; 4218189.842485979 ; 6426.000000000001
28 ; 72403.57486088229 ; 160760.66721459632 ; 1560501.436073451 ; 4378342.207334184 ; 6664.000000000001
29 ; 73423.0460982882 ; 161399.16532177103 ; 1632905.0109343333 ; 4539102.874548781 ; 6902.000000000001
30 ; 74550.63332229521 ; 162067.2010927362 ; 1706328.0570326215 ; 4700502.039870552 ; 7140.000000000001
31 ; 75657.92052954249 ; 162764.104489217 ; 1780878.6903549167 ; 4862569.240963288 ; 7378.000000000001
32 ; 75948.5602089294 ; 163489.19596313126 ; 1856536.6108844592 ; 5025333.345452504 ; 7616.000000000001
33 ; 77562.92553761388 ; 164241.78880040572 ; 1932485.1710933887 ; 5188822.5414156355 ; 7854.000000000001
34 ; 78357.52791665203 ; 165021.19134611185 ; 2010048.0966310026 ; 5353064.330216041 ; 8092.000000000001
35 ; 79186.07546979483 ; 165826.70910235078 ; 2088405.6245476548 ; 5518085.521562153 ; 8330.000000000002
36 ; 80024.29367032844 ; 166657.6466926363 ; 2167591.7000174494 ; 5683912.230664504 ; 8568.000000000002
37 ; 81043.67624069874 ; 167513.30968869236 ; 2247615.993687778 ; 5850569.87735714 ; 8806.000000000002
38 ; 81406.76606886658 ; 168393.00629755497 ; 2328659.6699284767 ; 6018083.187045832 ; 9044.000000000002
39 ; 82650.96628436405 ; 169296.04890864893 ; 2410066.435997343 ; 6186476.193343387 ; 9282.000000000002
40 ; 83356.16757314291 ; 170221.75550207947 ; 2492717.402281707 ; 6355772.242252036 ; 9520.000000000002
41 ; 84084.40520557962 ; 171169.45092073668 ; 2576073.56985485 ; 6525993.997754116 ; 9758.000000000002
42 ; 84812.31062015453 ; 172138.46800996305 ; 2660157.9750604294 ; 6697163.448674852 ; 9996.000000000002
43 ; 85876.83422956118 ; 173128.1486294872 ; 2744970.285680584 ; 6869301.916684815 ; 10234.000000000002
44 ; 86700.79769224867 ; 174137.84454309012 ; 2830847.119910145 ; 7042430.065314302 ; 10472.000000000002
45 ; 87357.07948287607 ; 175166.91819206064 ; 2917547.917602394 ; 7216567.909857392 ; 10710.000000000002
46 ; 87643.07820151639 ; 176214.7433589269 ; 3004904.99708527 ; 7391734.828049453 ; 10948.000000000002
47 ; 88724.01705977532 ; 177280.7057282381 ; 3092548.0752867865 ; 7567949.57140838 ; 11186.000000000002
48 ; 89376.61284779929 ; 178364.20335133068 ; 3181272.092346562 ; 7745230.277136618 ; 11424.000000000002
49 ; 89949.4604393238 ; 179464.64702206757 ; 3270648.7051943615 ; 7923594.480487949 ; 11662.000000000002
50 ; 90807.99781098499 ; 180581.4605704949 ; 3360598.1656336854 ; 8103059.127510017 ; 11900.000000000002
51 ; 91338.54374120942 ; 181714.08108123927 ; 3451406.1634446704 ; 8283640.588080511 ; 12138.000000000002
52 ; 91661.39656816464 ; 182861.95904328764 ; 3542744.70718588 ; 8465354.66916175 ; 12376.000000000002
53 ; 92380.3304127235 ; 184024.55843755102 ; 3634406.1037540445 ; 8648216.628205037 ; 12614.000000000002
54 ; 92682.45222675582 ; 185201.3567683404 ; 3726786.434166768 ; 8832241.186642587 ; 12852.000000000002
55 ; 92718.90383727595 ; 186391.8450445764 ; 3819468.886393524 ; 9017442.543410927 ; 13090.000000000002
56 ; 94201.51373413648 ; 187595.52771622996 ; 3912187.7902308 ; 9203834.388455503 ; 13328.000000000002
57 ; 94750.6440932902 ; 188811.92257115038 ; 4006389.303964936 ; 9391429.916171733 ; 13566.000000000002
58 ; 94872.96585696546 ; 190040.5605970964 ; 4101139.948058226 ; 9580241.838742884 ; 13804.000000000002
59 ; 95076.74920172585 ; 191280.9858134389 ; 4196012.913915192 ; 9770282.39933998 ; 14042.000000000002
60 ; 95937.09023528142 ; 192532.75507666613 ; 4291089.663116918 ; 9961563.385153418 ; 14280.000000000002
61 ; 96838.67164754032 ; 193795.43786348836 ; 4387026.7533522 ; 1.0154096140230084E7 ; 14518.000000000002
62 ; 96577.42557203144 ; 195068.61603501978 ; 4483865.42499974 ; 1.0347891578093572E7 ; 14756.000000000002
63 ; 97016.22636747052 ; 196351.8835852074 ; 4580442.850571771 ; 1.0542960194128592E7 ; 14994.000000000002
64 ; 97319.23098943362 ; 197644.8463763821 ; 4677459.076939242 ; 1.0739312077713799E7 ; 15232.000000000002
65 ; 97821.00553907982 ; 198947.12186453392 ; 4774778.307928676 ; 1.093695692409018E7 ; 15470.000000000002
66 ; 98497.6246316607 ; 200258.33881664858 ; 4872599.313467756 ; 1.1135904045954714E7 ; 15708.000000000002
67 ; 98946.49292653933 ; 201578.13702220263 ; 4971096.938099417 ; 1.1336162384771362E7 ; 15946.000000000002
68 ; 99070.45433611286 ; 202906.1670006865 ; 5070043.431025956 ; 1.1537740521793565E7 ; 16184.000000000002
69 ; 98936.14588097003 ; 204242.08970681467 ; 5169113.885362069 ; 1.1740646688794252E7 ; 16422.000000000004
70 ; 99448.84646621927 ; 205585.5762348902 ; 5268050.031243039 ; 1.1944888778501065E7 ; 16660.000000000004
71 ; 100131.04671403191 ; 206936.30752361115 ; 5367498.877709258 ; 1.2150474354735956E7 ; 16898.000000000004
72 ; 100137.90878784514 ; 208293.9740624449 ; 5467629.92442329 ; 1.2357410662259568E7 ; 17136.000000000004
73 ; 100524.93039957309 ; 209658.27560054872 ; 5567767.833211135 ; 1.2565704636322012E7 ; 17374.000000000004
74 ; 100898.28780595647 ; 211028.9208590782 ; 5668292.7636107085 ; 1.2775362911922561E7 ; 17612.000000000004
75 ; 101018.05059978321 ; 212405.62724760416 ; 5769191.051416665 ; 1.2986391832781639E7 ; 17850.000000000004
76 ; 101146.31668596066 ; 213788.12058524924 ; 5870209.102016449 ; 1.3198797460029243E7 ; 18088.000000000004
77 ; 101200.45466592647 ; 215176.13482705373 ; 5971355.41870241 ; 1.3412585580614492E7 ; 18326.000000000004
78 ; 101120.42913578467 ; 216569.41179599427 ; 6072555.873368336 ; 1.3627761715441545E7 ; 18564.000000000004
79 ; 101880.19383340435 ; 217967.7009209962 ; 6173676.30250412 ; 1.384433112723754E7 ; 18802.000000000004
80 ; 101742.89342487964 ; 219370.75898121332 ; 6275556.496337525 ; 1.4062298828158535E7 ; 19040.000000000004
81 ; 102005.34739077502 ; 220778.3498567812 ; 6377299.389762404 ; 1.4281669587139748E7 ; 19278.000000000004
82 ; 102065.07907459924 ; 222190.24428619933 ; 6479304.737153179 ; 1.4502447936996529E7 ; 19516.000000000004
83 ; 102135.23812458804 ; 223606.219630445 ; 6581369.816227778 ; 1.4724638181282729E7 ; 19754.000000000004
84 ; 102211.67101245093 ; 225026.0596438796 ; 6683505.054352365 ; 1.4948244400913173E7 ; 19992.000000000004
85 ; 101893.17212277008 ; 226449.55425197133 ; 6785716.725364816 ; 1.5173270460557053E7 ; 20230.000000000004
86 ; 102323.82363908071 ; 227876.49933582495 ; 6887609.897487586 ; 1.5399720014809024E7 ; 20468.000000000004
87 ; 101954.22817627642 ; 229306.69652348003 ; 6989933.721126667 ; 1.5627596514144849E7 ; 20706.000000000004
88 ; 102216.16835349423 ; 230739.9529879165 ; 7091887.949302943 ; 1.585690321066833E7 ; 20944.000000000004
89 ; 102412.98630492925 ; 232176.0812516857 ; 7194104.117656438 ; 1.6087643163656246E7 ; 21182.000000000004
90 ; 102191.11420763287 ; 233614.89899806422 ; 7296517.103961367 ; 1.6319819244907932E7 ; 21420.000000000004
91 ; 102100.9577058565 ; 235056.2288886187 ; 7398708.218169 ; 1.6553434143905997E7 ; 21658.000000000004
92 ; 101885.57200538887 ; 236499.89838705232 ; 7500809.175874856 ; 1.6788490372794617E7 ; 21896.000000000004
93 ; 101699.89360720826 ; 237945.73958919736 ; 7602694.747880246 ; 1.702499027118167E7 ; 22134.000000000004
94 ; 101828.70167385899 ; 239393.58905900837 ; 7704394.641487454 ; 1.7262936010770865E7 ; 22372.000000000004
95 ; 101458.28273360863 ; 240843.28767040555 ; 7806223.343161313 ; 1.7502329599829875E7 ; 22610.000000000004
96 ; 101240.46669436894 ; 242294.68045481204 ; 7907681.625894922 ; 1.774317288750028E7 ; 22848.000000000004
97 ; 101599.89958180586 ; 243747.61645422707 ; 8008922.092589291 ; 1.798546756795509E7 ; 23086.000000000004
98 ; 101243.06736835987 ; 245201.94857967348 ; 8110521.992171097 ; 1.822921518440932E7 ; 23324.000000000004
99 ; 101176.29610147644 ; 246657.53347485772 ; 8211765.059539457 ; 1.8474417132988993E7 ; 23562.000000000004
100 ; 100918.93748998476 ; 248114.23138488046 ; 8312941.355640933 ; 1.8721074666463852E7 ; 23800.000000000004
101 ; 100319.02841463925 ; 249571.90602983636 ; 8413860.293130917 ; 1.8969188897848733E7 ; 24038.000000000004
102 ; 100109.02184039823 ; 251030.42448314157 ; 8514179.321545556 ; 1.9218760803878568E7 ; 24276.000000000004
103 ; 100386.29390786623 ; 252489.65705443258 ; 8614288.343385955 ; 1.946979122836171E7 ; 24514.000000000004
104 ; 99852.31198846771 ; 253949.4771768777 ; 8714674.637293821 ; 1.9722280885416143E7 ; 24752.000000000004
105 ; 99569.66035306807 ; 255409.76129875006 ; 8814526.949282289 ; 1.997623036259302E7 ; 24990.000000000004
106 ; 99386.17154174892 ; 256870.38877910987 ; 8914096.609635357 ; 2.023164012389177E7 ; 25228.000000000004
107 ; 99355.18951053084 ; 258331.24178744957 ; 9013482.781177105 ; 2.0488510512670882E7 ; 25466.000000000004
108 ; 98160.51082538943 ; 259792.20520715782 ; 9112837.970687637 ; 2.074684175445833E7 ; 25704.000000000004
109 ; 97773.77798184943 ; 261253.1665426621 ; 9210998.481513027 ; 2.100663395966549E7 ; 25942.000000000004
110 ; 98223.79791276388 ; 262714.01583011384 ; 9308772.259494876 ; 2.126788712620815E7 ; 26180.000000000004
111 ; 97052.10182180179 ; 264174.6455514836 ; 9406996.05740764 ; 2.1530601142038263E7 ; 26418.000000000004
112 ; 96952.94484839092 ; 265634.95055193757 ; 9504048.159229442 ; 2.1794775787589747E7 ; 26656.000000000004
113 ; 96605.71457573923 ; 267094.82796037 ; 9601001.104077833 ; 2.2060410738141686E7 ; 26894.000000000004
114 ; 96091.03570360564 ; 268554.1771129727 ; 9697606.818653572 ; 2.2327505566102054E7 ; 27132.000000000004
115 ; 95858.39184033606 ; 270012.8994797233 ; 9793697.854357177 ; 2.259605974321503E7 ; 27370.000000000004
116 ; 95257.60124411198 ; 271470.8985936798 ; 9889556.246197514 ; 2.2866072642694753E7 ; 27608.000000000004
117 ; 94767.48261509767 ; 272928.079982973 ; 9984813.847441627 ; 2.313754354128843E7 ; 27846.000000000004
118 ; 94770.43867976173 ; 274384.3511053906 ; 1.0079581330056725E7 ; 2.3410471621271405E7 ; 28084.000000000004
119 ; 94116.02931555969 ; 275839.6212854532 ; 1.0174351768736487E7 ; 2.3684855972376797E7 ; 28322.000000000004
120 ; 92955.65723305178 ; 277293.8016538826 ; 1.0268467798052046E7 ; 2.396069559366225E7 ; 28560.000000000004
121 ; 92764.09928220244 ; 278746.80508936953 ; 1.0361423455285098E7 ; 2.4237989395316135E7 ; 28798.000000000004
122 ; 92020.9190498871 ; 280198.54616255005 ; 1.0454187554567302E7 ; 2.4516736200405505E7 ; 29036.000000000004
123 ; 91557.7772470226 ; 281648.9410821029 ; 1.0546208473617189E7 ; 2.4796934746568054E7 ; 29274.000000000004
124 ; 90697.46893886615 ; 283097.90764288424 ; 1.0637766250864211E7 ; 2.5078583687650155E7 ; 29512.000000000004
125 ; 89785.75183845872 ; 284545.3651760192 ; 1.0728463719803078E7 ; 2.536168159529304E7 ; 29750.000000000004
126 ; 89260.78614218856 ; 285991.23450087267 ; 1.0818249471641537E7 ; 2.564622696046906E7 ; 29988.000000000004
127 ; 88677.6543928752 ; 287435.43787882413 ; 1.0907510257783726E7 ; 2.5932218194969933E7 ; 30226.000000000004
128 ; 87818.5870893479 ; 288877.89896877675 ; 1.0996187912176602E7 ; 2.621965363284876E7 ; 30464.000000000004
129 ; 87349.77084126798 ; 290318.5427843296 ; 1.108400649926595E7 ; 2.6508531531817537E7 ; 30702.000000000004
130 ; 86685.92302570668 ; 291757.29565254896 ; 1.1171356270107219E7 ; 2.6798850074601866E7 ; 30940.000000000004
131 ; 86398.52860120773 ; 293194.0851742744 ; 1.1258042193132926E7 ; 2.7090607370254416E7 ; 31178.000000000004
132 ; 85339.42352581552 ; 294628.84018589894 ; 1.1344440721734133E7 ; 2.738380145542869E7 ; 31416.000000000004
133 ; 84383.73742038471 ; 296061.4907225655 ; 1.1429780145259948E7 ; 2.767843029561459E7 ; 31654.000000000004
134 ; 84140.77965016356 ; 297491.9679827223 ; 1.1514163882680332E7 ; 2.7974491786337156E7 ; 31892.000000000004
135 ; 82499.72765531816 ; 298920.20429398527 ; 1.1598304662330495E7 ; 2.8271983754319876E7 ; 32130.000000000004
136 ; 81960.02235412989 ; 300346.13308025454 ; 1.1680804389985813E7 ; 2.857090395861386E7 ; 32368.000000000004
137 ; 81481.87424333337 ; 301769.6888300362 ; 1.1762764412339943E7 ; 2.8871250091694117E7 ; 32606.000000000004
138 ; 80518.89939861116 ; 303190.8070659214 ; 1.1844246286583276E7 ; 2.9173019780524153E7 ; 32844.00000000001
139 ; 79579.03125067073 ; 304609.42431517877 ; 1.1924765185981888E7 ; 2.9476210587590076E7 ; 33082.00000000001
140 ; 78954.23824240982 ; 306025.4780814138 ; 1.2004344217232559E7 ; 2.9780820011905253E7 ; 33320.00000000001
141 ; 77606.8424070084 ; 307438.9068172566 ; 1.2083298455474969E7 ; 3.0086845489986666E7 ; 33558.00000000001
142 ; 76686.34596189717 ; 308849.64989803545 ; 1.2160905297881978E7 ; 3.0394284396803923E7 ; 33796.00000000001
143 ; 76009.45166837782 ; 310257.647596399 ; 1.2237591643843874E7 ; 3.070313404670196E7 ; 34034.00000000001
144 ; 74877.9312116049 ; 311662.84105784964 ; 1.2313601095512252E7 ; 3.101339169429836E7 ; 34272.00000000001
145 ; 74592.57879468588 ; 313065.17227715283 ; 1.2388479026723858E7 ; 3.132505453535621E7 ; 34510.00000000001
146 ; 74527.1045107851 ; 314464.58407558873 ; 1.2463071605518544E7 ; 3.163811970763336E7 ; 34748.00000000001
147 ; 74350.5586047803 ; 315861.02007901313 ; 1.253759871002933E7 ; 3.195258429170895E7 ; 34986.00000000001
148 ; 73970.2676805789 ; 317254.42469669704 ; 1.261194926863411E7 ; 3.2268445311787963E7 ; 35224.00000000001
149 ; 73995.7654213436 ; 318644.74310091475 ; 1.268591953631469E7 ; 3.258569973648466E7 ; 35462.00000000001
150 ; 73230.37108155066 ; 320031.9212072509 ; 1.2759915301736034E7 ; 3.2904344479585577E7 ; 35700.00000000001
151 ; 73579.45382092516 ; 321415.9056556013 ; 1.2833145672817586E7 ; 3.3224376400792826E7 ; 35938.00000000001
152 ; 73840.07525503892 ; 322796.6437918381 ; 1.2906725126638511E7 ; 3.3545792306448426E7 ; 36176.00000000001
153 ; 73365.96988457095 ; 324174.08365011646 ; 1.298056520189355E7 ; 3.386858895024026E7 ; 36414.00000000001
154 ; 72716.19176955003 ; 325548.1739357975 ; 1.305393117177812E7 ; 3.419276303389038E7 ; 36652.00000000001
155 ; 72547.15569885078 ; 326918.8640089633 ; 1.312664736354767E7 ; 3.451831120782618E7 ; 36890.00000000001
156 ; 72432.13890167838 ; 328286.10386850423 ; 1.319919451924652E7 ; 3.4845230071835145E7 ; 37128.00000000001
157 ; 72442.28353455965 ; 329649.8441367537 ; 1.32716266581482E7 ; 3.517351617570365E7 ; 37366.00000000001
158 ; 71632.00659575824 ; 331010.03604465275 ; 1.334406894168276E7 ; 3.5503166019840404E7 ; 37604.00000000001
159 ; 71477.12667061921 ; 332366.63141742314 ; 1.3415700948278518E7 ; 3.5834176055885054E7 ; 37842.00000000001
160 ; 71259.94921209532 ; 333719.5826607305 ; 1.3487178074949138E7 ; 3.616654268730248E7 ; 38080.00000000001
161 ; 71076.3764521448 ; 335068.84274731885 ; 1.3558438024161233E7 ; 3.6500262269963205E7 ; 38318.00000000001
162 ; 70747.4651255423 ; 336414.3652041 ; 1.3629514400613377E7 ; 3.683533111271052E7 ; 38556.00000000001
163 ; 70363.98835696309 ; 337756.1040996803 ; 1.3700261865738919E7 ; 3.7171745477914624E7 ; 38794.00000000001
164 ; 69875.96159973527 ; 339094.0140323087 ; 1.3770625854095882E7 ; 3.750950158201431E7 ; 39032.00000000001
165 ; 69320.13655690661 ; 340428.05011823087 ; 1.3840501815695617E7 ; 3.784859559604662E7 ; 39270.00000000001
166 ; 69663.13001267257 ; 341758.16798043496 ; 1.3909821952252524E7 ; 3.818902364616485E7 ; 39508.00000000001
167 ; 69150.760771836 ; 343084.32373777335 ; 1.3979485082265196E7 ; 3.853078181414528E7 ; 39746.00000000001
168 ; 68874.04142071365 ; 344406.47399444913 ; 1.4048635843037032E7 ; 3.887386613788305E7 ; 39984.00000000001
169 ; 68431.83440576249 ; 345724.575829851 ; 1.4117509884457745E7 ; 3.92182726118775E7 ; 40222.00000000001
170 ; 68178.93985320303 ; 347038.586788727 ; 1.4185941718863508E7 ; 3.956399718770735E7 ; 40460.00000000001
171 ; 67587.92730215102 ; 348348.4648716832 ; 1.425412065871671E7 ; 3.991103577449608E7 ; 40698.00000000001
172 ; 66896.23147410661 ; 349654.16852599586 ; 1.4321708586018862E7 ; 4.025938423936776E7 ; 40936.00000000001
173 ; 66401.57735166946 ; 350955.6566367264 ; 1.438860481749297E7 ; 4.0609038407893755E7 ; 41174.00000000001
174 ; 67073.14994460852 ; 352252.88851812814 ; 1.4455006394844638E7 ; 4.0959994064530484E7 ; 41412.00000000001
175 ; 67587.23799203144 ; 353545.8239053344 ; 1.4522079544789247E7 ; 4.131224695304861E7 ; 41650.00000000001
176 ; 67761.87634355563 ; 354834.42294631794 ; 1.4589666782781279E7 ; 4.166579277695394E7 ; 41888.00000000001
177 ; 67371.09272507453 ; 356118.6461941124 ; 1.4657428659124834E7 ; 4.202062719990026E7 ; 42126.00000000001
178 ; 68007.85298148921 ; 357398.4545992867 ; 1.4724799751849908E7 ; 4.237674584609438E7 ; 42364.00000000001
179 ; 68030.02549848161 ; 358673.809502663 ; 1.4792807604831398E7 ; 4.273414430069366E7 ; 42602.00000000001
180 ; 68424.62604132459 ; 359944.67262826994 ; 1.4860837630329879E7 ; 4.309281811019632E7 ; 42840.00000000001
181 ; 68428.36172928507 ; 361211.00607652334 ; 1.4929262256371204E7 ; 4.345276278282459E7 ; 43078.00000000001
