CSV File for the Network on Day 134
1 - Minute m 
2 - Power Consumed at minute m 
3 - Power Produced at minute m 
4 - Energy Consumed since the beginning of the day 
5 - Energy Produced since the beginning of the day 
6 - Energy Lost since the beginning of the day 
 
No Production city : 2, Producer : 1
No Production city : 4, Producer : 1
No Production city : 4, Producer : 1
 
0 ; 56402.198426698465 ; 169853.7746841995 ; 0.0 ; 0.0 ; 0.0
1 ; 57409.06283537463 ; 169512.86003920442 ; 56402.198426698465 ; 169853.7746841995 ; 238.00000000000003
2 ; 58533.689705841876 ; 169206.76918135808 ; 113811.2612620731 ; 339366.63472340396 ; 476.00000000000006
3 ; 60175.73206093388 ; 168935.84837141365 ; 172344.95096791498 ; 508573.403904762 ; 714.0000000000001
4 ; 60813.15766254344 ; 168700.40760256804 ; 232520.68302884884 ; 677509.2522761757 ; 952.0000000000001
5 ; 61876.355296666254 ; 168500.71899080733 ; 293333.8406913923 ; 846209.6598787437 ; 1190.0000000000002
6 ; 63239.5165703113 ; 168337.01533670555 ; 355210.1959880586 ; 1014710.378869551 ; 1428.0000000000002
7 ; 64270.47056073633 ; 168209.48887621018 ; 418449.71255836985 ; 1183047.3942062566 ; 1666.0000000000002
8 ; 65229.8548253032 ; 168118.29023597605 ; 482720.18311910616 ; 1351256.8830824667 ; 1904.0000000000002
9 ; 66010.98916397682 ; 168063.52760649362 ; 547950.0379444094 ; 1519375.1733184427 ; 2142.0000000000005
10 ; 66739.08744204954 ; 168045.26614364836 ; 613961.0271083863 ; 1687438.7009249362 ; 2380.0000000000005
11 ; 68156.66845390934 ; 168063.52760649362 ; 680700.1145504358 ; 1855483.9670685846 ; 2618.0000000000005
12 ; 69020.76003789876 ; 168118.29023597605 ; 748856.7830043451 ; 2023547.4946750782 ; 2856.0000000000005
13 ; 69869.11381407347 ; 168209.48887621018 ; 817877.5430422439 ; 2191665.784911054 ; 3094.0000000000005
14 ; 70722.9098818945 ; 168337.01533670543 ; 887746.6568563174 ; 2359875.2737872642 ; 3332.0000000000005
15 ; 71871.90280588687 ; 168500.71899080733 ; 958469.5667382119 ; 2528212.2891239696 ; 3570.0000000000005
16 ; 72986.35859181956 ; 168700.40760256804 ; 1030341.4695440987 ; 2696713.008114777 ; 3808.0000000000005
17 ; 73443.26716265695 ; 168935.84837141357 ; 1103327.8281359184 ; 2865413.415717345 ; 4046.0000000000005
18 ; 74864.82324238226 ; 169206.76918135808 ; 1176771.0952985752 ; 3034349.2640887587 ; 4284.000000000001
19 ; 75499.10284502765 ; 169512.86003920433 ; 1251635.9185409574 ; 3203556.033270117 ; 4522.000000000001
20 ; 76554.85884331679 ; 169853.7746841996 ; 1327135.021385985 ; 3373068.8933093213 ; 4760.000000000001
21 ; 77243.93087479204 ; 170229.13235002212 ; 1403689.8802293018 ; 3542922.667993521 ; 4998.000000000001
22 ; 77839.84460630157 ; 170638.51965877292 ; 1480933.8111040937 ; 3713151.800343543 ; 5236.000000000001
23 ; 78234.29977652623 ; 171081.49262585264 ; 1558773.6557103952 ; 3883790.3200023156 ; 5474.000000000001
24 ; 79706.5720929063 ; 171557.57875420555 ; 1637007.9554869214 ; 4054871.812628168 ; 5712.000000000001
25 ; 80236.27811467128 ; 172066.27919639958 ; 1716714.5275798277 ; 4226429.391382374 ; 5950.000000000001
26 ; 81505.53046844777 ; 172607.07096335758 ; 1796950.805694499 ; 4398495.670578773 ; 6188.000000000001
27 ; 82409.76866322165 ; 173179.40915922867 ; 1878456.336162947 ; 4571102.741542131 ; 6426.000000000001
28 ; 82650.15117043995 ; 173782.72922284578 ; 1960866.1048261686 ; 4744282.150701359 ; 6664.000000000001
29 ; 83883.10437479056 ; 174416.44915742625 ; 2043516.2559966086 ; 4918064.879924205 ; 6902.000000000001
30 ; 84538.17639549107 ; 175079.97173156834 ; 2127399.360371399 ; 5092481.329081631 ; 7140.000000000001
31 ; 85222.5344545216 ; 175772.68663615867 ; 2211937.5367668904 ; 5267561.3008132 ; 7378.000000000001
32 ; 85665.03564115138 ; 176493.9725834629 ; 2297160.071221412 ; 5443333.987449358 ; 7616.000000000001
33 ; 86363.97899871846 ; 177243.1993363983 ; 2382825.1068625636 ; 5619827.960032821 ; 7854.000000000001
34 ; 87513.66479157853 ; 178019.7296577314 ; 2469189.085861282 ; 5797071.159369219 ; 8092.000000000001
35 ; 87900.26618051156 ; 178822.92117067886 ; 2556702.7506528604 ; 5975090.88902695 ; 8330.000000000002
36 ; 88507.90725941746 ; 179652.12812407245 ; 2644603.016833372 ; 6153913.810197629 ; 8568.000000000002
37 ; 88975.52112525362 ; 180506.70305686555 ; 2733110.924092789 ; 6333565.938321701 ; 8806.000000000002
38 ; 89648.12884600343 ; 181385.9983582766 ; 2822086.445218043 ; 6514072.641378567 ; 9044.000000000002
39 ; 90460.24650996394 ; 182289.36772127516 ; 2911734.574064046 ; 6695458.639736843 ; 9282.000000000002
40 ; 90607.9235044855 ; 183216.16748839995 ; 3002194.8205740103 ; 6877748.007458119 ; 9520.000000000002
41 ; 91157.2787781767 ; 184165.75789005822 ; 3092802.7440784955 ; 7060964.174946519 ; 9758.000000000002
42 ; 91877.6698364253 ; 185137.5041764729 ; 3183960.0228566723 ; 7245129.932836577 ; 9996.000000000002
43 ; 92969.73917298744 ; 186130.7776453383 ; 3275837.6926930975 ; 7430267.437013051 ; 10234.000000000002
44 ; 93064.36632004246 ; 187144.95656799676 ; 3368807.431866085 ; 7616398.214658389 ; 10472.000000000002
45 ; 93792.07084601183 ; 188179.4270175831 ; 3461871.7981861276 ; 7803543.171226386 ; 10710.000000000002
46 ; 94249.90232713282 ; 189233.5836030951 ; 3555663.8690321394 ; 7991722.5982439695 ; 10948.000000000002
47 ; 95086.14229282283 ; 190306.83011374663 ; 3649913.7713592723 ; 8180956.181847065 ; 11186.000000000002
48 ; 94904.75999725479 ; 191398.58007826295 ; 3744999.913652095 ; 8371263.011960811 ; 11424.000000000002
49 ; 95798.38285464485 ; 192508.25724397902 ; 3839904.6736493497 ; 8562661.592039075 ; 11662.000000000002
50 ; 96237.41199002616 ; 193635.29598073396 ; 3935703.0565039944 ; 8755169.849283054 ; 11900.000000000002
51 ; 96435.63295589248 ; 194779.14161459822 ; 4031940.4684940204 ; 8948805.14526379 ; 12138.000000000002
52 ; 96854.1447364258 ; 195939.25069646956 ; 4128376.101449913 ; 9143584.286878388 ; 12376.000000000002
53 ; 97212.15775742453 ; 197115.09121050377 ; 4225230.246186338 ; 9339523.537574857 ; 12614.000000000002
54 ; 98039.97047841598 ; 198306.14272724127 ; 4322442.403943763 ; 9536638.62878536 ; 12852.000000000002
55 ; 97962.4538838937 ; 199511.89650614874 ; 4420482.37442218 ; 9734944.771512602 ; 13090.000000000002
56 ; 98543.86922148736 ; 200731.8555521177 ; 4518444.828306073 ; 9934456.66801875 ; 13328.000000000002
57 ; 98249.91307537995 ; 201965.53463026986 ; 4616988.69752756 ; 1.013518852357087E7 ; 13566.000000000002
58 ; 99309.573755524 ; 203212.4602432051 ; 4715238.61060294 ; 1.033715405820114E7 ; 13804.000000000002
59 ; 99326.67298615062 ; 204472.17057460477 ; 4814548.184358465 ; 1.0540366518444344E7 ; 14042.000000000002
60 ; 99488.8341977098 ; 205744.21540287422 ; 4913874.857344615 ; 1.074483868901895E7 ; 14280.000000000002
61 ; 100182.62052060025 ; 207028.15598827123 ; 5013363.691542326 ; 1.0950582904421825E7 ; 14518.000000000002
62 ; 100457.61071322837 ; 208323.56493673814 ; 5113546.312062926 ; 1.1157611060410095E7 ; 14756.000000000002
63 ; 100923.85950603164 ; 209630.02604342162 ; 5214003.922776154 ; 1.1365934625346834E7 ; 14994.000000000002
64 ; 101156.37163520284 ; 210947.13411864144 ; 5314927.782282186 ; 1.1575564651390256E7 ; 15232.000000000002
65 ; 101168.54656272981 ; 212274.49479884893 ; 5416084.153917389 ; 1.1786511785508897E7 ; 15470.000000000002
66 ; 101218.07724185307 ; 213611.72434490695 ; 5517252.700480118 ; 1.1998786280307746E7 ; 15708.000000000002
67 ; 102409.12044440978 ; 214958.4494298226 ; 5618470.777721971 ; 1.2212398004652653E7 ; 15946.000000000002
68 ; 102479.96162986185 ; 216314.30691787193 ; 5720879.898166381 ; 1.2427356454082476E7 ; 16184.000000000002
69 ; 101827.73377144671 ; 217678.94363687636 ; 5823359.859796243 ; 1.2643670761000348E7 ; 16422.000000000004
70 ; 102657.30057832894 ; 219052.01614522052 ; 5925187.59356769 ; 1.2861349704637224E7 ; 16660.000000000004
71 ; 103202.53197205736 ; 220433.19049504193 ; 6027844.894146019 ; 1.3080401720782444E7 ; 16898.000000000004
72 ; 103030.67420824822 ; 221822.1419928753 ; 6131047.426118076 ; 1.3300834911277486E7 ; 17136.000000000004
73 ; 103198.33975279695 ; 223218.55495889712 ; 6234078.100326324 ; 1.352265705327036E7 ; 17374.000000000004
74 ; 103222.91630797797 ; 224622.12248578662 ; 6337276.440079121 ; 1.3745875608229257E7 ; 17612.000000000004
75 ; 102927.28595423809 ; 226032.54619810445 ; 6440499.356387099 ; 1.3970497730715044E7 ; 17850.000000000004
76 ; 103484.48325762071 ; 227449.53601297998 ; 6543426.642341337 ; 1.4196530276913147E7 ; 18088.000000000004
77 ; 103347.33234644035 ; 228872.80990280092 ; 6646911.125598958 ; 1.4423979812926127E7 ; 18326.000000000004
78 ; 103389.91940275313 ; 230302.0936605073 ; 6750258.457945398 ; 1.4652852622828927E7 ; 18564.000000000004
79 ; 103200.21545833585 ; 231737.12066800942 ; 6853648.377348151 ; 1.4883154716489434E7 ; 18802.000000000004
80 ; 103468.7617140027 ; 233177.6316681759 ; 6956848.592806487 ; 1.5114891837157443E7 ; 19040.000000000004
81 ; 103733.21353211047 ; 234623.37454076737 ; 7060317.35452049 ; 1.534806946882562E7 ; 19278.000000000004
82 ; 104071.56752958041 ; 236074.10408263386 ; 7164050.568052601 ; 1.5582692843366386E7 ; 19516.000000000004
83 ; 103596.24400631564 ; 237529.58179243442 ; 7268122.135582182 ; 1.5818766947449021E7 ; 19754.000000000004
84 ; 103849.40806286494 ; 238989.57566009177 ; 7371718.379588497 ; 1.6056296529241456E7 ; 19992.000000000004
85 ; 103740.96170081913 ; 240453.85996114847 ; 7475567.787651362 ; 1.6295286104901547E7 ; 20230.000000000004
86 ; 103760.79481813018 ; 241922.21505615095 ; 7579308.749352181 ; 1.6535739964862695E7 ; 20468.000000000004
87 ; 103861.4239966402 ; 243394.427195155 ; 7683069.544170312 ; 1.6777662179918844E7 ; 20706.000000000004
88 ; 103588.02704845782 ; 244870.28832741152 ; 7786930.968166952 ; 1.7021056607114E7 ; 20944.000000000004
89 ; 103448.11982255484 ; 246349.59591626844 ; 7890518.995215409 ; 1.726592689544141E7 ; 21182.000000000004
90 ; 103369.77317415745 ; 247832.15275929496 ; 7993967.115037965 ; 1.7512276491357677E7 ; 21420.000000000004
91 ; 103265.94536878497 ; 249317.76681361784 ; 8097336.888212122 ; 1.776010864411697E7 ; 21658.000000000004
92 ; 102901.94074237274 ; 250806.25102643893 ; 8200602.833580907 ; 1.800942641093059E7 ; 21896.000000000004
93 ; 102931.88185757461 ; 252297.42317068615 ; 8303504.77432328 ; 1.826023266195703E7 ; 22134.000000000004
94 ; 103063.08560418311 ; 253791.10568573873 ; 8406436.656180855 ; 1.8512530085127715E7 ; 22372.000000000004
95 ; 102657.84423228499 ; 255287.12552315404 ; 8509499.741785038 ; 1.8766321190813452E7 ; 22610.000000000004
96 ; 102984.7830529451 ; 256785.31399731344 ; 8612157.586017324 ; 1.9021608316336606E7 ; 22848.000000000004
97 ; 102595.6270693989 ; 258285.50664089757 ; 8715142.36907027 ; 1.927839363033392E7 ; 23086.000000000004
98 ; 102420.31573932731 ; 259787.54306509282 ; 8817737.996139668 ; 1.9536679136974815E7 ; 23324.000000000004
99 ; 102155.13038682191 ; 261291.26682442648 ; 8920158.311878996 ; 1.979646668003991E7 ; 23562.000000000004
100 ; 101371.36416746021 ; 262796.52528612304 ; 9022313.442265818 ; 2.0057757946864337E7 ; 23800.000000000004
101 ; 101695.58187815864 ; 264303.1695038707 ; 9123684.806433277 ; 2.032055447215046E7 ; 24038.000000000004
102 ; 100840.74898516307 ; 265811.05409588484 ; 9225380.388311436 ; 2.058485764165433E7 ; 24276.000000000004
103 ; 101084.88368004482 ; 267320.03712715243 ; 9326221.1372966 ; 2.0850668695750218E7 ; 24514.000000000004
104 ; 100667.02063864219 ; 268829.9799957426 ; 9427306.020976646 ; 2.111798873287737E7 ; 24752.000000000004
105 ; 100336.60226446934 ; 270340.74732306553 ; 9527973.041615289 ; 2.1386818712873112E7 ; 24990.000000000004
106 ; 100194.52650655751 ; 271852.20684796316 ; 9628309.643879758 ; 2.165715946019618E7 ; 25228.000000000004
107 ; 99960.57286210202 ; 273364.2293245168 ; 9728504.170386316 ; 2.192901166704414E7 ; 25466.000000000004
108 ; 99419.44046365537 ; 274876.68842345435 ; 9828464.743248418 ; 2.2202375896368656E7 ; 25704.000000000004
109 ; 99335.848108754 ; 276389.4606370459 ; 9927884.183712073 ; 2.247725258479211E7 ; 25942.000000000004
110 ; 98827.79979036776 ; 277902.4251873734 ; 1.0027220031820826E7 ; 2.2753642045429155E7 ; 26180.000000000004
111 ; 98302.81984373803 ; 279415.4639378653 ; 1.0126047831611194E7 ; 2.3031544470616527E7 ; 26418.000000000004
112 ; 98145.19240712629 ; 280928.46130798676 ; 1.0224350651454931E7 ; 2.331095993455439E7 ; 26656.000000000004
113 ; 97814.24030052616 ; 282441.3041909808 ; 1.0322495843862057E7 ; 2.359188839586238E7 ; 26894.000000000004
114 ; 97237.51989562078 ; 283953.881874554 ; 1.0420310084162584E7 ; 2.387432970005336E7 ; 27132.000000000004
115 ; 96739.70639269825 ; 285466.08596440835 ; 1.0517547604058204E7 ; 2.4158283581927914E7 ; 27370.000000000004
116 ; 96153.42896385893 ; 286977.810310518 ; 1.0614287310450902E7 ; 2.4443749667892322E7 ; 27608.000000000004
117 ; 96111.64718238109 ; 288488.9509360561 ; 1.071044073941476E7 ; 2.473072747820284E7 ; 27846.000000000004
118 ; 95516.08545322725 ; 289999.4059688769 ; 1.0806552386597142E7 ; 2.5019216429138895E7 ; 28084.000000000004
119 ; 95316.56361951391 ; 291509.07557546353 ; 1.0902068472050369E7 ; 2.5309215835107774E7 ; 28322.000000000004
120 ; 94225.28401619449 ; 293017.86189725174 ; 1.0997385035669882E7 ; 2.5600724910683237E7 ; 28560.000000000004
121 ; 93878.24377628427 ; 294525.66898924456 ; 1.1091610319686076E7 ; 2.589374277258049E7 ; 28798.000000000004
122 ; 93544.24332634227 ; 296032.4027608358 ; 1.118548856346236E7 ; 2.6188268441569734E7 ; 29036.000000000004
123 ; 92893.93642881204 ; 297537.97091876 ; 1.1279032806788702E7 ; 2.648430084433057E7 ; 29274.000000000004
124 ; 92413.8381301626 ; 299042.28291209304 ; 1.1371926743217513E7 ; 2.678183881524933E7 ; 29512.000000000004
125 ; 91610.95497917214 ; 300545.2498792267 ; 1.1464340581347676E7 ; 2.7080881098161425E7 ; 29750.000000000004
126 ; 90728.24374769037 ; 302046.78459674644 ; 1.1555951536326848E7 ; 2.738142634804065E7 ; 29988.000000000004
127 ; 90425.51937280664 ; 303546.8014301395 ; 1.1646679780074539E7 ; 2.7683473132637396E7 ; 30226.000000000004
128 ; 89746.7885166335 ; 305045.2162862685 ; 1.1737105299447345E7 ; 2.7987019934067536E7 ; 30464.000000000004
129 ; 89213.60771155084 ; 306541.9465675426 ; 1.1826852087963978E7 ; 2.8292065150353804E7 ; 30702.000000000004
130 ; 88825.6463087634 ; 308036.9111277253 ; 1.191606569567553E7 ; 2.8598607096921347E7 ; 30940.000000000004
131 ; 88569.33740418192 ; 309530.0302293165 ; 1.2004891341984292E7 ; 2.890664400804907E7 ; 31178.000000000004
132 ; 87673.42521063266 ; 311021.2255024505 ; 1.2093460679388475E7 ; 2.9216174038278386E7 ; 31416.000000000004
133 ; 86882.17308551003 ; 312510.4199052548 ; 1.2181134104599107E7 ; 2.9527195263780836E7 ; 31654.000000000004
134 ; 85766.12745524704 ; 313997.53768561303 ; 1.2268016277684618E7 ; 2.9839705683686092E7 ; 31892.000000000004
135 ; 85078.98619261211 ; 315482.50434428174 ; 1.2353782405139865E7 ; 3.0153703221371707E7 ; 32130.000000000004
136 ; 84888.53535041836 ; 316965.24659930886 ; 1.2438861391332477E7 ; 3.0469185725715987E7 ; 32368.000000000004
137 ; 84324.73459639073 ; 318445.69235170656 ; 1.2523749926682895E7 ; 3.0786150972315297E7 ; 32606.000000000004
138 ; 83138.69152190148 ; 319923.7706523312 ; 1.2608074661279285E7 ; 3.1104596664667003E7 ; 32844.00000000001
139 ; 82778.04130510389 ; 321399.41166992503 ; 1.2691213352801187E7 ; 3.1424520435319334E7 ; 33082.00000000001
140 ; 81711.51626228885 ; 322872.5466602771 ; 1.2773991394106291E7 ; 3.174591984698926E7 ; 33320.00000000001
141 ; 80569.69127572686 ; 324343.1079364614 ; 1.285570291036858E7 ; 3.2068792393649537E7 ; 33558.00000000001
142 ; 80750.02337394825 ; 325811.02884011134 ; 1.2936272601644307E7 ; 3.2393135501585998E7 ; 33796.00000000001
143 ; 79223.97166557127 ; 327276.24371369387 ; 1.3017022625018256E7 ; 3.2718946530426107E7 ; 34034.00000000001
144 ; 78562.73474705871 ; 328738.68787374476 ; 1.3096246596683826E7 ; 3.3046222774139803E7 ; 34272.00000000001
145 ; 78159.30047181819 ; 330198.29758502916 ; 1.3174809331430886E7 ; 3.3374961462013546E7 ; 34510.00000000001
146 ; 78205.8304463062 ; 331655.01003559463 ; 1.3252968631902704E7 ; 3.3705159759598576E7 ; 34748.00000000001
147 ; 77837.8181383625 ; 333108.7633126824 ; 1.333117446234901E7 ; 3.403681476963417E7 ; 34986.00000000001
148 ; 77662.56542931784 ; 334559.4963794654 ; 1.3409012280487373E7 ; 3.4369923532946855E7 ; 35224.00000000001
149 ; 77406.2232927817 ; 336007.1490525835 ; 1.3486674845916692E7 ; 3.470448302932632E7 ; 35462.00000000001
150 ; 76937.93161367238 ; 337451.6619804452 ; 1.3564081069209473E7 ; 3.50404901783789E7 ; 35700.00000000001
151 ; 77051.54701277034 ; 338892.97662226885 ; 1.3641019000823146E7 ; 3.5377941840359345E7 ; 35938.00000000001
152 ; 76757.37051433942 ; 340331.03522783594 ; 1.3718070547835916E7 ; 3.571683481698161E7 ; 36176.00000000001
153 ; 76590.52866153761 ; 341765.78081792983 ; 1.3794827918350255E7 ; 3.605716585220945E7 ; 36414.00000000001
154 ; 76291.3716448254 ; 343197.15716543596 ; 1.3871418447011793E7 ; 3.639893163302738E7 ; 36652.00000000001
155 ; 76241.16821403662 ; 344625.10877707903 ; 1.3947709818656618E7 ; 3.674212879019282E7 ; 36890.00000000001
156 ; 75524.17429138203 ; 346049.5808757734 ; 1.4023950986870654E7 ; 3.7086753898969896E7 ; 37128.00000000001
157 ; 75693.23682148225 ; 347470.5193835655 ; 1.4099475161162036E7 ; 3.743280347984567E7 ; 37366.00000000001
158 ; 75589.89916677198 ; 348887.87090514624 ; 1.4175168397983517E7 ; 3.778027399922924E7 ; 37604.00000000001
159 ; 74678.98244308222 ; 350301.58271191287 ; 1.425075829715029E7 ; 3.812916187013438E7 ; 37842.00000000001
160 ; 74694.60621831194 ; 351711.60272656137 ; 1.4325437279593373E7 ; 3.8479463452846296E7 ; 38080.00000000001
161 ; 74262.28915595889 ; 353117.8795081884 ; 1.4400131885811685E7 ; 3.883117505557286E7 ; 38318.00000000001
162 ; 74177.38084286166 ; 354520.36223788734 ; 1.4474394174967643E7 ; 3.918429293508105E7 ; 38556.00000000001
163 ; 73309.46123073589 ; 355919.0007048178 ; 1.4548571555810504E7 ; 3.9538813297318935E7 ; 38794.00000000001
164 ; 73363.74612839612 ; 357313.74529273453 ; 1.462188101704124E7 ; 3.989473229802375E7 ; 39032.00000000001
165 ; 73372.74394925915 ; 358704.5469669571 ; 1.4695244763169635E7 ; 4.025204604331649E7 ; 39270.00000000001
166 ; 72537.23253224033 ; 360091.3572617664 ; 1.4768617507118894E7 ; 4.0610750590283446E7 ; 39508.00000000001
167 ; 72121.33614044334 ; 361474.1282682122 ; 1.4841154739651134E7 ; 4.0970841947545215E7 ; 39746.00000000001
168 ; 72049.08008912626 ; 362852.8126223169 ; 1.4913276075791577E7 ; 4.133231607581343E7 ; 39984.00000000001
169 ; 72061.94527123772 ; 364227.36349366256 ; 1.4985325155880703E7 ; 4.1695168888435744E7 ; 40222.00000000001
170 ; 71110.17246542627 ; 365597.73457434686 ; 1.505738710115194E7 ; 4.205939625192941E7 ; 40460.00000000001
171 ; 71286.48202796187 ; 366963.880068296 ; 1.5128497273617366E7 ; 4.242499398650376E7 ; 40698.00000000001
172 ; 70643.24433067063 ; 368325.754680921 ; 1.5199783755645327E7 ; 4.279195786657205E7 ; 40936.00000000001
173 ; 70508.22688839308 ; 369683.31360910647 ; 1.5270426999975998E7 ; 4.316028362125298E7 ; 41174.00000000001
174 ; 70514.74218483343 ; 371036.5125315201 ; 1.5340935226864392E7 ; 4.3529966934862085E7 ; 41412.00000000001
175 ; 70658.58307475387 ; 372385.30759923154 ; 1.5411449969049225E7 ; 4.39010034473936E7 ; 41650.00000000001
176 ; 70707.62889808782 ; 373729.65542662976 ; 1.5482108552123979E7 ; 4.4273388754992835E7 ; 41888.00000000001
177 ; 70961.70903498249 ; 375069.5130826301 ; 1.5552816181022067E7 ; 4.4647118410419464E7 ; 42126.00000000001
178 ; 70735.05559018391 ; 376404.83808215905 ; 1.562377789005705E7 ; 4.5022187923502095E7 ; 42364.00000000001
179 ; 71200.9446544029 ; 377735.5883779087 ; 1.5694512945647234E7 ; 4.539859276158425E7 ; 42602.00000000001
180 ; 71221.03429544253 ; 379061.72235235176 ; 1.5765713890301637E7 ; 4.577632834996216E7 ; 42840.00000000001
181 ; 71597.24488432836 ; 380383.1988100069 ; 1.583693492459708E7 ; 4.615539007231451E7 ; 43078.00000000001
