CSV File for the Network on Day 186
1 - Minute m 
2 - Power Consumed at minute m 
3 - Power Produced at minute m 
4 - Energy Consumed since the beginning of the day 
5 - Energy Produced since the beginning of the day 
6 - Energy Lost since the beginning of the day 
 
No Production city : 2, Producer : 1
No Production city : 4, Producer : 1
No Production city : 4, Producer : 1
 
0 ; 31468.25213358536 ; 143907.15895691555 ; 0.0 ; 0.0 ; 0.0
1 ; 33392.280999111346 ; 143547.2433833069 ; 31468.25213358536 ; 143907.15895691555 ; 238.00000000000003
2 ; 34703.02838556835 ; 143223.68027558475 ; 64860.533132696706 ; 287454.40234022244 ; 476.00000000000006
3 ; 36077.69991783697 ; 142936.9651840409 ; 99563.56151826505 ; 430678.0826158072 ; 714.0000000000001
4 ; 37953.66023736211 ; 142687.5443069301 ; 135641.26143610204 ; 573615.047799848 ; 952.0000000000001
5 ; 39338.90902498484 ; 142475.81132017018 ; 173594.92167346415 ; 716302.5921067782 ; 1190.0000000000002
6 ; 40766.553373598006 ; 142302.1045101189 ; 212933.830698449 ; 858778.4034269484 ; 1428.0000000000002
7 ; 42137.8879285298 ; 142166.70425693458 ; 253700.384072047 ; 1001080.5079370672 ; 1666.0000000000002
8 ; 43882.74697599905 ; 142069.83091151214 ; 295838.2720005768 ; 1143247.2121940018 ; 1904.0000000000002
9 ; 45239.444554378715 ; 142011.64310319134 ; 339721.0189765758 ; 1285317.0431055138 ; 2142.0000000000005
10 ; 46303.50722797895 ; 141992.236508489 ; 384960.46353095456 ; 1427328.6862087052 ; 2380.0000000000005
11 ; 48345.6070798828 ; 142011.64310319134 ; 431263.9707589335 ; 1569320.922717194 ; 2618.0000000000005
12 ; 49429.02564104316 ; 142069.83091151214 ; 479609.57783881633 ; 1711332.5658203855 ; 2856.0000000000005
13 ; 51159.53092345255 ; 142166.70425693458 ; 529038.6034798595 ; 1853402.3967318977 ; 3094.0000000000005
14 ; 52640.26648354163 ; 142302.10451011884 ; 580198.1344033121 ; 1995569.1009888323 ; 3332.0000000000005
15 ; 53452.54849579609 ; 142475.81132017018 ; 632838.4008868537 ; 2137871.205498951 ; 3570.0000000000005
16 ; 55221.024189137665 ; 142687.5443069301 ; 686290.9493826497 ; 2280347.0168191213 ; 3808.0000000000005
17 ; 56284.472606724026 ; 142936.96518404083 ; 741511.9735717874 ; 2423034.5611260515 ; 4046.0000000000005
18 ; 57856.33290498398 ; 143223.6802755848 ; 797796.4461785114 ; 2565971.5263100923 ; 4284.000000000001
19 ; 59137.83068967623 ; 143547.24338330684 ; 855652.7790834954 ; 2709195.2065856773 ; 4522.000000000001
20 ; 60285.643813989416 ; 143907.1589569156 ; 914790.6097731716 ; 2852742.4499689844 ; 4760.000000000001
21 ; 61607.552296164096 ; 144302.88551682077 ; 975076.253587161 ; 2996649.6089259 ; 4998.000000000001
22 ; 63183.940519512085 ; 144733.83927689632 ; 1036683.805883325 ; 3140952.494442721 ; 5236.000000000001
23 ; 63871.46881990642 ; 145199.39791444823 ; 1099867.746402837 ; 3285686.333719617 ; 5474.000000000001
24 ; 65334.201650785995 ; 145698.90443539806 ; 1163739.2152227436 ; 3430885.7316340655 ; 5712.000000000001
25 ; 66334.93342409417 ; 146231.67108466913 ; 1229073.4168735296 ; 3576584.6360694636 ; 5950.000000000001
26 ; 67706.586557442 ; 146796.98325469886 ; 1295408.3502976238 ; 3722816.3071541325 ; 6188.000000000001
27 ; 68524.89184139288 ; 147394.10334873648 ; 1363114.9368550659 ; 3869613.2904088316 ; 6426.000000000001
28 ; 69567.20218558196 ; 148022.27455992287 ; 1431639.8286964588 ; 4017007.393757568 ; 6664.000000000001
29 ; 70954.07540950271 ; 148680.72453190904 ; 1501207.0308820407 ; 4165029.668317491 ; 6902.000000000001
30 ; 72070.91363069773 ; 149368.66887175903 ; 1572161.1062915435 ; 4313710.392849401 ; 7140.000000000001
31 ; 73127.09326320697 ; 150085.31449095265 ; 1644232.019922241 ; 4463079.06172116 ; 7378.000000000001
32 ; 74237.23723705007 ; 150829.86275529698 ; 1717359.113185448 ; 4613164.376212113 ; 7616.000000000001
33 ; 75357.92968550204 ; 151601.5124293493 ; 1791596.350422498 ; 4763994.238967409 ; 7854.000000000001
34 ; 76710.71182000183 ; 152399.46240546292 ; 1866954.2801080002 ; 4915595.7513967585 ; 8092.000000000001
35 ; 77208.11637838489 ; 153222.91421169846 ; 1943664.9919280019 ; 5067995.213802221 ; 8330.000000000002
36 ; 78380.68625435102 ; 154071.0742965612 ; 2020873.1083063867 ; 5221218.12801392 ; 8568.000000000002
37 ; 79045.74719091665 ; 154943.15609179082 ; 2099253.794560738 ; 5375289.202310481 ; 8806.000000000002
38 ; 80124.55728805045 ; 155838.3818572365 ; 2178299.5417516544 ; 5530232.358402272 ; 9044.000000000002
39 ; 80798.39071129479 ; 156755.98431419965 ; 2258424.099039705 ; 5686070.740259509 ; 9282.000000000002
40 ; 82170.31403322339 ; 157695.20807553444 ; 2339222.489751 ; 5842826.724573708 ; 9520.000000000002
41 ; 83030.12161119671 ; 158655.3108822967 ; 2421392.8037842233 ; 6000521.932649243 ; 9758.000000000002
42 ; 83628.70849430755 ; 159635.56465784466 ; 2504422.92539542 ; 6159177.243531539 ; 9996.000000000002
43 ; 84562.57257060189 ; 160635.25639107195 ; 2588051.6338897273 ; 6318812.808189384 ; 10234.000000000002
44 ; 85532.05695434021 ; 161653.68886092462 ; 2672614.2064603292 ; 6479448.064580455 ; 10472.000000000002
45 ; 86187.15223272369 ; 162690.18121456698 ; 2758146.2634146693 ; 6641101.75344138 ; 10710.000000000002
46 ; 86826.962825162 ; 163744.06941154838 ; 2844333.415647393 ; 6803791.934655948 ; 10948.000000000002
47 ; 87895.2204541207 ; 164814.70654613123 ; 2931160.378472555 ; 6967536.004067496 ; 11186.000000000002
48 ; 88503.67860719668 ; 165901.46305959765 ; 3019055.5989266755 ; 7132350.710613628 ; 11424.000000000002
49 ; 89295.7735974355 ; 167003.72685389197 ; 3107559.277533872 ; 7298252.173673226 ; 11662.000000000002
50 ; 89668.0032408192 ; 168120.9033174133 ; 3196855.0511313076 ; 7465255.900527118 ; 11900.000000000002
51 ; 90780.42164649494 ; 169252.4152731576 ; 3286523.0543721267 ; 7633376.803844531 ; 12138.000000000002
52 ; 91387.9333940197 ; 170397.70285876648 ; 3377303.4760186216 ; 7802629.219117689 ; 12376.000000000002
53 ; 91823.62605731824 ; 171556.22334735957 ; 3468691.409412641 ; 7973026.9219764555 ; 12614.000000000002
54 ; 92984.88261113998 ; 172727.45091735292 ; 3560515.0354699595 ; 8144583.145323815 ; 12852.000000000002
55 ; 93579.20009981026 ; 173910.87637878902 ; 3653499.9180810996 ; 8317310.596241168 ; 13090.000000000002
56 ; 94085.53186612329 ; 175106.00686304527 ; 3747079.11818091 ; 8491221.472619956 ; 13328.000000000002
57 ; 94458.09478560611 ; 176312.36548214965 ; 3841164.6500470336 ; 8666327.479483001 ; 13566.000000000002
58 ; 95122.37126221307 ; 177529.4909633248 ; 3935622.7448326396 ; 8842639.84496515 ; 13804.000000000002
59 ; 95630.79797897015 ; 178756.9372638057 ; 4030745.116094853 ; 9020169.335928475 ; 14042.000000000002
60 ; 95997.08895715997 ; 179994.27317043516 ; 4126375.914073823 ; 9198926.27319228 ; 14280.000000000002
61 ; 96389.2840343638 ; 181241.08188803546 ; 4222373.003030983 ; 9378920.546362717 ; 14518.000000000002
62 ; 97105.38156422238 ; 182496.96062009037 ; 4318762.287065347 ; 9560161.628250752 ; 14756.000000000002
63 ; 97983.98506932758 ; 183761.52014483843 ; 4415867.668629569 ; 9742658.588870842 ; 14994.000000000002
64 ; 97903.01901464802 ; 185034.38438948663 ; 4513851.653698897 ; 9926420.10901568 ; 15232.000000000002
65 ; 98687.4702916752 ; 186315.19000489335 ; 4611754.672713545 ; 1.0111454493405167E7 ; 15470.000000000002
66 ; 98704.82068571918 ; 187603.58594274422 ; 4710442.14300522 ; 1.029776968341006E7 ; 15708.000000000002
67 ; 99221.49161085355 ; 188899.2330369501 ; 4809146.963690939 ; 1.0485373269352803E7 ; 15946.000000000002
68 ; 99803.12204664535 ; 190201.80359073327 ; 4908368.455301793 ; 1.0674272502389753E7 ; 16184.000000000002
69 ; 100202.4843923987 ; 191510.98097062873 ; 5008171.577348439 ; 1.0864474305980487E7 ; 16422.000000000004
70 ; 100578.10099751476 ; 192826.45920841966 ; 5108374.061740838 ; 1.1055985286951115E7 ; 16660.000000000004
71 ; 100650.52971138257 ; 194147.94261183508 ; 5208952.162738353 ; 1.1248811746159535E7 ; 16898.000000000004
72 ; 100939.33879700647 ; 195475.14538467547 ; 5309602.6924497355 ; 1.144295968877137E7 ; 17136.000000000004
73 ; 101707.96676176447 ; 196807.79125688318 ; 5410542.031246742 ; 1.1638434834156046E7 ; 17374.000000000004
74 ; 101859.96065456815 ; 198145.61312494823 ; 5512249.998008506 ; 1.183524262541293E7 ; 17612.000000000004
75 ; 101860.40053580387 ; 199488.35270292684 ; 5614109.958663074 ; 1.2033388238537878E7 ; 17850.000000000004
76 ; 102514.75979174602 ; 200835.76018425415 ; 5715970.3591988785 ; 1.2232876591240805E7 ; 18088.000000000004
77 ; 102021.46432230456 ; 202187.59391444764 ; 5818485.118990624 ; 1.243371235142506E7 ; 18326.000000000004
78 ; 102601.43297537422 ; 203543.6200747257 ; 5920506.583312929 ; 1.2635899945339506E7 ; 18564.000000000004
79 ; 102921.46958161569 ; 204903.61237650376 ; 6023108.016288303 ; 1.2839443565414231E7 ; 18802.000000000004
80 ; 102730.83260508343 ; 206267.35176667973 ; 6126029.485869919 ; 1.3044347177790735E7 ; 19040.000000000004
81 ; 102870.79088870282 ; 207634.62614357297 ; 6228760.318475002 ; 1.3250614529557414E7 ; 19278.000000000004
82 ; 102889.69148666634 ; 209005.2300833483 ; 6331631.109363705 ; 1.3458249155700987E7 ; 19516.000000000004
83 ; 103620.30372288123 ; 210378.96457672317 ; 6434520.800850371 ; 1.3667254385784335E7 ; 19754.000000000004
84 ; 103454.21185530841 ; 211755.63677573286 ; 6538141.104573252 ; 1.3877633350361058E7 ; 19992.000000000004
85 ; 103397.24038496678 ; 213135.05975031015 ; 6641595.31642856 ; 1.408938898713679E7 ; 20230.000000000004
86 ; 103344.17421332418 ; 214517.05225441698 ; 6744992.556813527 ; 1.43025240468871E7 ; 20468.000000000004
87 ; 103864.6308987484 ; 215901.43850145908 ; 6848336.731026851 ; 1.4517041099141516E7 ; 20706.000000000004
88 ; 103424.57052381837 ; 217288.0479487023 ; 6952201.361925599 ; 1.4732942537642974E7 ; 20944.000000000004
89 ; 103299.75263350131 ; 218676.71509040578 ; 7055625.932449417 ; 1.4950230585591678E7 ; 21182.000000000004
90 ; 103613.81985456987 ; 220067.27925938473 ; 7158925.685082918 ; 1.5168907300682083E7 ; 21420.000000000004
91 ; 102898.16854785156 ; 221459.58443671296 ; 7262539.504937488 ; 1.5388974579941468E7 ; 21658.000000000004
92 ; 103259.9484388917 ; 222853.47906927764 ; 7365437.67348534 ; 1.5610434164378181E7 ; 21896.000000000004
93 ; 102965.1653499382 ; 224248.81589490105 ; 7468697.621924232 ; 1.5833287643447459E7 ; 22134.000000000004
94 ; 103149.90411798202 ; 225645.45177474635 ; 7571662.78727417 ; 1.605753645934236E7 ; 22372.000000000004
95 ; 102891.63671356917 ; 227043.24753273104 ; 7674812.691392152 ; 1.6283181911117107E7 ; 22610.000000000004
96 ; 102993.28978471272 ; 228442.06780167564 ; 7777704.328105721 ; 1.6510225158649838E7 ; 22848.000000000004
97 ; 103041.45554882252 ; 229841.7808759219 ; 7880697.617890433 ; 1.6738667226451512E7 ; 23086.000000000004
98 ; 102722.28067664211 ; 231242.25857016136 ; 7983739.073439256 ; 1.6968509007327434E7 ; 23324.000000000004
99 ; 102121.98882125998 ; 232643.37608422316 ; 8086461.354115899 ; 1.7199751265897594E7 ; 23562.000000000004
100 ; 102267.65265413675 ; 234045.01187357487 ; 8188583.342937158 ; 1.7432394641981818E7 ; 23800.000000000004
101 ; 102094.01099737803 ; 235447.04752530134 ; 8290850.995591295 ; 1.766643965385539E7 ; 24038.000000000004
102 ; 101284.75668648462 ; 236849.3676393305 ; 8392945.006588673 ; 1.7901886701380692E7 ; 24276.000000000004
103 ; 101483.02587528838 ; 238251.85971468664 ; 8494229.763275158 ; 1.813873606902002E7 ; 24514.000000000004
104 ; 101109.08011079273 ; 239654.41404055554 ; 8595712.789150447 ; 1.837698792873471E7 ; 24752.000000000004
105 ; 100874.38555961807 ; 241056.92359195743 ; 8696821.869261239 ; 1.8616642342775263E7 ; 24990.000000000004
106 ; 100439.59398911765 ; 242459.28392982908 ; 8797696.254820857 ; 1.885769926636722E7 ; 25228.000000000004
107 ; 100344.32936341548 ; 243861.3931053247 ; 8898135.848809974 ; 1.9100158550297048E7 ; 25466.000000000004
108 ; 99660.47371515073 ; 245263.151568152 ; 8998480.17817339 ; 1.9344019943402372E7 ; 25704.000000000004
109 ; 99211.54111613026 ; 246664.46207876957 ; 9098140.65188854 ; 1.9589283094970524E7 ; 25942.000000000004
110 ; 98998.49677952305 ; 248065.22962427494 ; 9197352.19300467 ; 1.9835947557049293E7 ; 26180.000000000004
111 ; 98715.37898266819 ; 249465.36133782403 ; 9296350.689784193 ; 2.008401278667357E7 ; 26418.000000000004
112 ; 97625.00076122452 ; 250864.76642142516 ; 9395066.068766862 ; 2.0333478148011394E7 ; 26656.000000000004
113 ; 97672.44856381809 ; 252263.3560719611 ; 9492691.069528086 ; 2.058434291443282E7 ; 26894.000000000004
114 ; 97320.82338730119 ; 253661.0434102965 ; 9590363.518091904 ; 2.083660627050478E7 ; 27132.000000000004
115 ; 96445.09358630734 ; 255057.743413335 ; 9687684.341479205 ; 2.1090267313915078E7 ; 27370.000000000004
116 ; 96004.02087230096 ; 256453.37284889672 ; 9784129.435065512 ; 2.1345325057328414E7 ; 27608.000000000004
117 ; 95422.49119265446 ; 257847.85021329147 ; 9880133.455937812 ; 2.1601778430177312E7 ; 27846.000000000004
118 ; 95041.52182679485 ; 259241.09567146917 ; 9975555.947130466 ; 2.1859626280390605E7 ; 28084.000000000004
119 ; 94244.4280642135 ; 260633.03099963447 ; 1.007059746895726E7 ; 2.2118867376062073E7 ; 28322.000000000004
120 ; 93861.48054217015 ; 262023.57953021687 ; 1.0164841897021474E7 ; 2.2379500407061707E7 ; 28560.000000000004
121 ; 92879.9010744787 ; 263412.66609909304 ; 1.0258703377563644E7 ; 2.2641523986591924E7 ; 28798.000000000004
122 ; 92223.47844274981 ; 264800.2169949625 ; 1.0351583278638123E7 ; 2.2904936652691018E7 ; 29036.000000000004
123 ; 92324.17550517977 ; 266186.1599107823 ; 1.0443806757080872E7 ; 2.316973686968598E7 ; 29274.000000000004
124 ; 91458.64088636903 ; 267570.42389717075 ; 1.0536130932586052E7 ; 2.3435923029596765E7 ; 29512.000000000004
125 ; 90613.70741607554 ; 268952.939317694 ; 1.062758957347242E7 ; 2.3703493453493934E7 ; 29750.000000000004
126 ; 89756.71917290264 ; 270333.63780595345 ; 1.0718203280888496E7 ; 2.397244639281163E7 ; 29988.000000000004
127 ; 89463.24159404036 ; 271712.4522243957 ; 1.0807960000061398E7 ; 2.4242780030617584E7 ; 30226.000000000004
128 ; 88344.14463854388 ; 273089.3166247701 ; 1.089742324165544E7 ; 2.451449248284198E7 ; 30464.000000000004
129 ; 87749.90181227982 ; 274464.16621016315 ; 1.0985767386293983E7 ; 2.478758179946675E7 ; 30702.000000000004
130 ; 87177.68414333595 ; 275836.9372985396 ; 1.1073517288106263E7 ; 2.5062045965676915E7 ; 30940.000000000004
131 ; 86654.40521447574 ; 277207.5672877289 ; 1.11606949722496E7 ; 2.5337882902975455E7 ; 31178.000000000004
132 ; 85406.6992896765 ; 278575.9946217903 ; 1.1247349377464075E7 ; 2.5615090470263183E7 ; 31416.000000000004
133 ; 84692.3212333187 ; 279942.1587587023 ; 1.133275607675375E7 ; 2.5893666464884974E7 ; 31654.000000000004
134 ; 83898.15204376087 ; 281306.00013931486 ; 1.141744839798707E7 ; 2.6173608623643678E7 ; 31892.000000000004
135 ; 83311.23548815401 ; 282667.46015751525 ; 1.1501346550030831E7 ; 2.6454914623782992E7 ; 32130.000000000004
136 ; 82241.58366593307 ; 284026.481131552 ; 1.1584657785518985E7 ; 2.6737582083940506E7 ; 32368.000000000004
137 ; 81519.80140812809 ; 285383.00627647043 ; 1.1666899369184919E7 ; 2.702160856507206E7 ; 32606.000000000004
138 ; 80151.75783728676 ; 286736.9796776118 ; 1.1748419170593048E7 ; 2.730699157134853E7 ; 32844.00000000001
139 ; 79352.58820315095 ; 288088.346265131 ; 1.1828570928430334E7 ; 2.759372855102614E7 ; 33082.00000000001
140 ; 78332.28850536853 ; 289437.05178949086 ; 1.1907923516633485E7 ; 2.788181689729127E7 ; 33320.00000000001
141 ; 77420.34822269589 ; 290783.0427978911 ; 1.1986255805138852E7 ; 2.817125394908076E7 ; 33558.00000000001
142 ; 76194.65837577693 ; 292126.26661159395 ; 1.2063676153361548E7 ; 2.846203699187865E7 ; 33796.00000000001
143 ; 75536.06587196712 ; 293466.6713041089 ; 1.2139870811737325E7 ; 2.8754163258490246E7 ; 34034.00000000001
144 ; 74207.14098983232 ; 294804.2056802006 ; 1.2215406877609292E7 ; 2.9047629929794356E7 ; 34272.00000000001
145 ; 74309.91187028732 ; 296138.81925568555 ; 1.2289614018599125E7 ; 2.9342434135474555E7 ; 34510.00000000001
146 ; 73805.91222301846 ; 297470.46223798714 ; 1.2363923930469412E7 ; 2.9638572954730242E7 ; 34748.00000000001
147 ; 74149.35340096705 ; 298799.085507415 ; 1.2437729842692431E7 ; 2.993604341696823E7 ; 34986.00000000001
148 ; 73788.27710057705 ; 300124.64059914177 ; 1.2511879196093397E7 ; 3.0234842502475645E7 ; 35224.00000000001
149 ; 72850.02561197832 ; 301447.0796858471 ; 1.2585667473193975E7 ; 3.053496714307479E7 ; 35462.00000000001
150 ; 73050.31921148015 ; 302766.3555610026 ; 1.2658517498805953E7 ; 3.0836414222760636E7 ; 35700.00000000001
151 ; 73057.87142184946 ; 304082.4216227721 ; 1.2731567818017432E7 ; 3.113918057832164E7 ; 35938.00000000001
152 ; 73021.63194729744 ; 305395.23185850127 ; 1.2804625689439282E7 ; 3.144326299994441E7 ; 36176.00000000001
153 ; 72368.41738127792 ; 306704.74082977435 ; 1.287764732138658E7 ; 3.1748658231802914E7 ; 36414.00000000001
154 ; 71964.99625694298 ; 308010.90365801466 ; 1.2950015738767857E7 ; 3.2055362972632688E7 ; 36652.00000000001
155 ; 72187.27335984146 ; 309313.6760106072 ; 1.30219807350248E7 ; 3.23633738762907E7 ; 36890.00000000001
156 ; 71373.61057700752 ; 310613.0140875228 ; 1.3094168008384641E7 ; 3.267268755230131E7 ; 37128.00000000001
157 ; 71310.20656096259 ; 311908.8746084239 ; 1.3165541618961649E7 ; 3.2983300566388834E7 ; 37366.00000000001
158 ; 70531.69764670354 ; 313201.2148002332 ; 1.323685182552261E7 ; 3.3295209440997258E7 ; 37604.00000000001
159 ; 70749.49084661252 ; 314489.99238514673 ; 1.3307383523169314E7 ; 3.360841065579749E7 ; 37842.00000000001
160 ; 70741.26437430568 ; 315775.16556907457 ; 1.3378133014015928E7 ; 3.392290064818264E7 ; 38080.00000000001
161 ; 70526.19589972636 ; 317056.69303049124 ; 1.3448874278390234E7 ; 3.423867581375171E7 ; 38318.00000000001
162 ; 69619.81583146707 ; 318334.5339096824 ; 1.3519400474289961E7 ; 3.4555732506782204E7 ; 38556.00000000001
163 ; 69959.11281885598 ; 319608.6477983693 ; 1.3589020290121429E7 ; 3.487406704069189E7 ; 38794.00000000001
164 ; 69409.31337392567 ; 320878.994729699 ; 1.3658979402940284E7 ; 3.519367568849026E7 ; 39032.00000000001
165 ; 68870.51938267465 ; 322145.5351685858 ; 1.372838871631421E7 ; 3.5514554683219954E7 ; 39270.00000000001
166 ; 68469.83351864407 ; 323408.2300023891 ; 1.3797259235696884E7 ; 3.583670021838854E7 ; 39508.00000000001
167 ; 67911.23461605023 ; 324667.04053191736 ; 1.3865729069215529E7 ; 3.616010844839093E7 ; 39746.00000000001
168 ; 67952.65491923035 ; 325921.92846274324 ; 1.393364030383158E7 ; 3.648477548892285E7 ; 39984.00000000001
169 ; 67637.04320660862 ; 327172.8558968197 ; 1.4001592958750809E7 ; 3.681069741738559E7 ; 40222.00000000001
170 ; 67137.22256855009 ; 328419.7853243859 ; 1.4069230001957417E7 ; 3.7137870273282416E7 ; 40460.00000000001
171 ; 66732.58938043425 ; 329662.67961615114 ; 1.4136367224525966E7 ; 3.74662900586068E7 ; 40698.00000000001
172 ; 66699.01616992045 ; 330901.5020157468 ; 1.42030998139064E7 ; 3.779595273822296E7 ; 40936.00000000001
173 ; 66137.85360594746 ; 332136.2161324368 ; 1.426979883007632E7 ; 3.8126854240238704E7 ; 41174.00000000001
174 ; 66306.86137726928 ; 333366.7859340765 ; 1.4335936683682267E7 ; 3.845899045637114E7 ; 41412.00000000001
175 ; 66500.99545491836 ; 334593.1757403111 ; 1.4402243545059536E7 ; 3.879235724230522E7 ; 41650.00000000001
176 ; 66664.35076639877 ; 335815.35021600436 ; 1.4468744540514454E7 ; 3.912695041804553E7 ; 41888.00000000001
177 ; 66941.85667340431 ; 337033.27436489 ; 1.4535408891280852E7 ; 3.946276576826153E7 ; 42126.00000000001
178 ; 67181.69826972071 ; 338246.91352343693 ; 1.4602350747954257E7 ; 3.979979904262642E7 ; 42364.00000000001
179 ; 67557.15165388733 ; 339456.2333549212 ; 1.4669532446223978E7 ; 4.0138045956149854E7 ; 42602.00000000001
180 ; 67360.70564997508 ; 340661.19984369614 ; 1.4737089597877866E7 ; 4.047750218950477E7 ; 42840.00000000001
181 ; 67690.88646972107 ; 341861.77928965475 ; 1.4804450303527841E7 ; 4.081816338934847E7 ; 43078.00000000001
