CSV File for the Network on Day 108
1 - Minute m 
2 - Power Consumed at minute m 
3 - Power Produced at minute m 
4 - Energy Consumed since the beginning of the day 
5 - Energy Produced since the beginning of the day 
6 - Energy Lost since the beginning of the day 
 
0 ; 4583240.218292186 ; 2.1111140501063403E8 ; 0.0 ; 0.0 ; 0.0
1 ; 4587290.6827416485 ; 2.1141731712883446E8 ; 4583240.218292186 ; 2.1111140501063403E8 ; 356.14
2 ; 4592684.26489151 ; 2.1234079193189618E8 ; 9170530.901033834 ; 4.225287221394685E8 ; 712.28
3 ; 4597007.213306879 ; 2.1388183222923037E8 ; 1.3763215165925343E7 ; 6.348695140713646E8 ; 1068.42
4 ; 4600407.79860481 ; 2.1604044053652087E8 ; 1.836022237923222E7 ; 8.48751346300595E8 ; 1424.56
5 ; 4603849.8016984975 ; 2.1881661906248054E8 ; 2.296063017783703E7 ; 1.0647917868371159E9 ; 1780.6999999999998
6 ; 4611038.256524508 ; 2.2221036969701293E8 ; 2.7564479979535528E7 ; 1.2836084058995965E9 ; 2136.8399999999997
7 ; 4614652.832729727 ; 2.262216940009255E8 ; 3.2175518236060034E7 ; 1.5058187755966094E9 ; 2492.9799999999996
8 ; 4619358.639215766 ; 2.3085059319732437E8 ; 3.6790171068789765E7 ; 1.732040469597535E9 ; 2849.1199999999994
9 ; 4620203.35824776 ; 2.3609706816480187E8 ; 4.140952970800553E7 ; 1.9628910627948592E9 ; 3205.2599999999993
10 ; 4624189.295493734 ; 2.419611194325045E8 ; 4.602973306625329E7 ; 2.198988130959661E9 ; 3561.399999999999
11 ; 4626728.569612847 ; 2.484427471771476E8 ; 5.065392236174703E7 ; 2.4409492503921657E9 ; 3917.539999999999
12 ; 4629061.790986975 ; 2.5554195122201577E8 ; 5.528065093135987E7 ; 2.689391997569313E9 ; 4273.679999999999
13 ; 4634777.7846655445 ; 2.632587310379625E8 ; 5.990971272234685E7 ; 2.944933948791329E9 ; 4629.82
14 ; 4639658.079196026 ; 2.715930857463957E8 ; 6.45444905070124E7 ; 3.2081926798292913E9 ; 4985.96
15 ; 4640584.258651991 ; 2.805450141242089E8 ; 6.918414858620842E7 ; 3.479785765575687E9 ; 5342.1
16 ; 4645563.8236980485 ; 2.90114514610595E8 ; 7.38247328448604E7 ; 3.760330779699896E9 ; 5698.240000000001
17 ; 4649322.419467406 ; 3.0030158531565017E8 ; 7.847029666855845E7 ; 4.0504452943104906E9 ; 6054.380000000001
18 ; 4652133.017651374 ; 3.1110622403066164E8 ; 8.311961908802585E7 ; 4.350746879626141E9 ; 6410.520000000001
19 ; 4654382.511529134 ; 3.225284282399456E8 ; 8.777175210567723E7 ; 4.661853103656802E9 ; 6766.660000000002
20 ; 4658600.601626782 ; 3.345681951340908E8 ; 9.242613461720636E7 ; 4.984381531896748E9 ; 7122.800000000002
21 ; 4662178.429864776 ; 3.4722552162444854E8 ; 9.708473521883315E7 ; 5.318949727030838E9 ; 7478.940000000002
22 ; 4665399.776804638 ; 3.605004043586993E8 ; 1.0174691364869793E8 ; 5.666175248655287E9 ; 7835.080000000003
23 ; 4670569.6637901645 ; 3.7439283973732E8 ; 1.0641231342550257E8 ; 6.026675653013987E9 ; 8191.220000000003
24 ; 4674007.593308343 ; 3.889028239307737E8 ; 1.1108288308929273E8 ; 6.401068492751307E9 ; 8547.360000000002
25 ; 4677365.548880998 ; 4.014064346936101E8 ; 1.1575689068260108E8 ; 6.78997131668208E9 ; 8903.500000000002
26 ; 4678558.243262095 ; 4.014107634563583E8 ; 1.2043425623148207E8 ; 7.19137775137569E9 ; 9259.640000000001
27 ; 4684892.05148461 ; 4.0141534439363366E8 ; 1.2511281447474417E8 ; 7.592788514832048E9 ; 9615.78
28 ; 4685564.984219529 ; 4.014201729360188E8 ; 1.2979770652622879E8 ; 7.994203859225682E9 ; 9971.92
29 ; 4685924.049447781 ; 4.0142524437477756E8 ; 1.344832715104483E8 ; 8.395624032161701E9 ; 10328.06
30 ; 4690871.51945582 ; 4.0143055387982476E8 ; 1.3916919555989608E8 ; 8.797049276536478E9 ; 10684.199999999999
31 ; 4695444.16920434 ; 4.014360965173169E8 ; 1.438600670793519E8 ; 9.198479830416304E9 ; 11040.339999999998
32 ; 4697683.100850638 ; 4.014418672667515E8 ; 1.4855551124855626E8 ; 9.59991592693362E9 ; 11396.479999999998
33 ; 4698136.927368003 ; 4.014478610374782E8 ; 1.532531943494069E8 ; 1.0001357794200373E10 ; 11752.619999999997
34 ; 4702581.875366758 ; 4.01454072684537E8 ; 1.579513312767749E8 ; 1.040280565523785E10 ; 12108.759999999997
35 ; 4704323.091277118 ; 4.01460497023757E8 ; 1.6265391315214166E8 ; 1.0804259727922388E10 ; 12464.899999999996
36 ; 4710846.721502951 ; 4.0146712884606016E8 ; 1.6735823624341878E8 ; 1.1205720224946144E10 ; 12821.039999999995
37 ; 4709475.510279868 ; 4.0147396293092877E8 ; 1.7206908296492174E8 ; 1.1607187353792204E10 ; 13177.179999999995
38 ; 4711672.242685462 ; 4.0148099405900836E8 ; 1.767785584752016E8 ; 1.2008661316723133E10 ; 13533.319999999994
39 ; 4714490.472913126 ; 4.014882170238296E8 ; 1.8149023071788707E8 ; 1.241014231078214E10 ; 13889.459999999994
40 ; 4716148.817661743 ; 4.0149562664264107E8 ; 1.862047211908002E8 ; 1.2811630527805971E10 ; 14245.599999999993
41 ; 4721597.46935909 ; 4.0150321776635873E8 ; 1.9092087000846192E8 ; 1.3213126154448612E10 ; 14601.739999999993
42 ; 4721868.900097582 ; 4.0151098528863984E8 ; 1.9564246747782102E8 ; 1.3614629372214972E10 ; 14957.879999999992
43 ; 4722379.8033625465 ; 4.015189241541034E8 ; 2.003643363779186E8 ; 1.401614035750361E10 ; 15314.019999999991
44 ; 4725790.527223976 ; 4.015270293657193E8 ; 2.0508671618128115E8 ; 1.4417659281657715E10 ; 15670.15999999999
45 ; 4729346.393903984 ; 4.01535295991397E8 ; 2.0981250670850512E8 ; 1.4819186311023434E10 ; 16026.29999999999
46 ; 4728397.961863505 ; 4.015437191698067E8 ; 2.145418531024091E8 ; 1.5220721607014832E10 ; 16382.43999999999
47 ; 4732495.312077279 ; 4.0155229411547124E8 ; 2.192702510642726E8 ; 1.5622265326184639E10 ; 16738.57999999999
48 ; 4734081.972593218 ; 4.015610161231662E8 ; 2.240027463763499E8 ; 1.602381762030011E10 ; 17094.71999999999
49 ; 4736382.392049231 ; 4.0156988057167006E8 ; 2.287368283489431E8 ; 1.6425378636423277E10 ; 17450.85999999999
50 ; 4738726.4272232065 ; 4.01578882926906E8 ; 2.3347321074099234E8 ; 1.6826948516994947E10 ; 17806.99999999999
51 ; 4738580.713070347 ; 4.0158801874451596E8 ; 2.3821193716821554E8 ; 1.7228527399921852E10 ; 18163.13999999999
52 ; 4740412.436514024 ; 4.015972836719109E8 ; 2.4295051788128588E8 ; 1.7630115418666367E10 ; 18519.279999999988
53 ; 4741271.8652022695 ; 4.016066734498359E8 ; 2.476909303177999E8 ; 1.8031712702338276E10 ; 18875.419999999987
54 ; 4741726.858037531 ; 4.0161618391349214E8 ; 2.5243220218300217E8 ; 1.8433319375788113E10 ; 19231.559999999987
55 ; 4742887.661969238 ; 4.016258109932525E8 ; 2.571739290410397E8 ; 1.8834935559701603E10 ; 19587.699999999986
56 ; 4743649.952088376 ; 4.0163555071501064E8 ; 2.6191681670300895E8 ; 1.9236561370694855E10 ; 19943.839999999986
57 ; 4744536.555596784 ; 4.016453992001958E8 ; 2.6666046665509734E8 ; 1.9638196921409866E10 ; 20299.979999999985
58 ; 4746014.731482084 ; 4.016553526654906E8 ; 2.7140500321069413E8 ; 2.003984232061006E10 ; 20656.119999999984
59 ; 4748022.865808551 ; 4.0166540742228127E8 ; 2.761510179421762E8 ; 2.044149767327555E10 ; 21012.259999999984
60 ; 4750269.381781027 ; 4.016755598758702E8 ; 2.8089904080798477E8 ; 2.084316308069783E10 ; 21368.399999999983
61 ; 4749513.543665892 ; 4.016858065244812E8 ; 2.856493101897658E8 ; 2.12448386405737E10 ; 21724.539999999983
62 ; 4752582.338237488 ; 4.016961439580798E8 ; 2.903988237334317E8 ; 2.1646524447098183E10 ; 22080.679999999982
63 ; 4752981.0454931995 ; 4.017065688570368E8 ; 2.9515140607166916E8 ; 2.2048220591056263E10 ; 22436.81999999998
64 ; 4754403.589101094 ; 4.0171707799065346E8 ; 2.9990438711716235E8 ; 2.24499271599133E10 ; 22792.95999999998
65 ; 4755724.656654703 ; 4.0172766821557146E8 ; 3.046587907062634E8 ; 2.2851644237903954E10 ; 23149.09999999998
66 ; 4758817.378682472 ; 4.017383364740852E8 ; 3.0941451536291814E8 ; 2.3253371906119526E10 ; 23505.23999999998
67 ; 4759022.576387979 ; 4.0174907979237366E8 ; 3.1417333274160063E8 ; 2.3655110242593613E10 ; 23861.37999999998
68 ; 4759722.778977051 ; 4.017598952786671E8 ; 3.1893235531798863E8 ; 2.4056859322385986E10 ; 24217.51999999998
69 ; 4762051.6636958355 ; 4.0177078012136376E8 ; 3.236920780969657E8 ; 2.4458619217664654E10 ; 24573.659999999978
70 ; 4760863.091506238 ; 4.017817315871068E8 ; 3.284541297606615E8 ; 2.486038999778602E10 ; 24929.799999999977
71 ; 4761728.224298834 ; 4.017927470188365E8 ; 3.332149928521677E8 ; 2.5262171729373127E10 ; 25285.939999999977
72 ; 4762018.134150646 ; 4.018038238338231E8 ; 3.3797672107646656E8 ; 2.5663964476391964E10 ; 25642.079999999976
73 ; 4763451.614033624 ; 4.018149595216944E8 ; 3.427387392106172E8 ; 2.606576830022579E10 ; 25998.219999999976
74 ; 4763919.858080515 ; 4.018261516424623E8 ; 3.475021908246508E8 ; 2.6467583259747482E10 ; 26354.359999999975
75 ; 4763974.104402162 ; 4.018373978245568E8 ; 3.5226611068273133E8 ; 2.6869409411389946E10 ; 26710.499999999975
76 ; 4766784.103055913 ; 4.0184869576287395E8 ; 3.570300847871335E8 ; 2.7271246809214504E10 ; 27066.639999999974
77 ; 4766498.9461932015 ; 4.0186004321684253E8 ; 3.617968688901894E8 ; 2.767309550497738E10 ; 27422.779999999973
78 ; 4765905.188713366 ; 4.018714380085144E8 ; 3.665633678363826E8 ; 2.807495554819422E10 ; 27778.919999999973
79 ; 4766201.819232722 ; 4.0188287802068245E8 ; 3.71329273025096E8 ; 2.8476826986202736E10 ; 28135.059999999972
80 ; 4765112.462901688 ; 4.018943611950296E8 ; 3.760954748443287E8 ; 2.887870986422342E10 ; 28491.19999999997
81 ; 4767129.179894836 ; 4.019058855303116E8 ; 3.808605873072304E8 ; 2.928060422541845E10 ; 28847.33999999997
82 ; 4767959.03270197 ; 4.019174490805764E8 ; 3.856277164871253E8 ; 2.968251011094876E10 ; 29203.47999999997
83 ; 4766996.913522139 ; 4.019290499534217E8 ; 3.9039567551982725E8 ; 3.008442756002934E10 ; 29559.61999999997
84 ; 4768950.87171636 ; 4.019406863082919E8 ; 3.951626724333494E8 ; 3.048635660998276E10 ; 29915.75999999997
85 ; 4769622.8231762145 ; 4.019523563548166E8 ; 3.9993162330506575E8 ; 3.0888297296291054E10 ; 30271.89999999997
86 ; 4770021.186849622 ; 4.019640583511909E8 ; 4.0470124612824196E8 ; 3.129024965264587E10 ; 30628.039999999968
87 ; 4769888.137572836 ; 4.019757906025981E8 ; 4.0947126731509155E8 ; 3.1692213710997063E10 ; 30984.179999999968
88 ; 4771165.184739247 ; 4.0198755145967495E8 ; 4.142411554526644E8 ; 3.209418950159966E10 ; 31340.319999999967
89 ; 4769676.686254284 ; 4.01999339317021E8 ; 4.190123206374036E8 ; 3.2496177053059334E10 ; 31696.459999999966
90 ; 4770679.904052025 ; 4.0201115261174977E8 ; 4.237819973236579E8 ; 3.2898176392376354E10 ; 32052.599999999966
91 ; 4769648.800075999 ; 4.020229898220837E8 ; 4.285526772277099E8 ; 3.3300187544988106E10 ; 32408.739999999965
92 ; 4770330.786746354 ; 4.020348494659912E8 ; 4.333223260277859E8 ; 3.370221053481019E10 ; 32764.879999999965
93 ; 4770429.326512615 ; 4.020467300998658E8 ; 4.380926568145323E8 ; 3.410424538427618E10 ; 33121.01999999997
94 ; 4769825.759061899 ; 4.020586303172468E8 ; 4.428630861410449E8 ; 3.4506292114376045E10 ; 33477.15999999997
95 ; 4770272.667540473 ; 4.0207054874758065E8 ; 4.476329119001068E8 ; 3.490835074469329E10 ; 33833.29999999997
96 ; 4769624.008641657 ; 4.020824840550229E8 ; 4.524031845676473E8 ; 3.531042129344087E10 ; 34189.439999999966
97 ; 4771304.165221954 ; 4.020944349372789E8 ; 4.5717280857628894E8 ; 3.5712503777495895E10 ; 34545.579999999965
98 ; 4770581.887073548 ; 4.0210640012448347E8 ; 4.6194411274151087E8 ; 3.6114598212433174E10 ; 34901.719999999965
99 ; 4771473.125984825 ; 4.0211837837811756E8 ; 4.6671469462858444E8 ; 3.6516704612557655E10 ; 35257.859999999964
100 ; 4768859.806862104 ; 4.0213036848996264E8 ; 4.714861677545693E8 ; 3.6918822990935776E10 ; 35613.99999999996
101 ; 4769462.544724697 ; 4.0214236928108966E8 ; 4.762550275614314E8 ; 3.7320953359425735E10 ; 35970.13999999996
102 ; 4771199.044637297 ; 4.021543796008837E8 ; 4.810244901061561E8 ; 3.7723095728706825E10 ; 36326.27999999996
103 ; 4769793.754984441 ; 4.0216639832610214E8 ; 4.8579568915079343E8 ; 3.812525010830771E10 ; 36682.41999999996
104 ; 4770296.34601486 ; 4.021784243599656E8 ; 4.905654829057779E8 ; 3.852741650663381E10 ; 37038.55999999996
105 ; 4767501.424512232 ; 4.02190456631281E8 ; 4.953357792517927E8 ; 3.8929594930993774E10 ; 37394.69999999996
106 ; 4770102.131158992 ; 4.022024940935955E8 ; 5.0010328067630494E8 ; 3.933178538762505E10 ; 37750.83999999996
107 ; 4770417.830770298 ; 4.0221453572438043E8 ; 5.0487338280746394E8 ; 3.973398788171865E10 ; 38106.97999999996
108 ; 4767323.990211037 ; 4.022265805242442E8 ; 5.0964380063823426E8 ; 4.013620241744303E10 ; 38463.11999999996
109 ; 4767465.74875629 ; 4.0223862751617336E8 ; 5.1441112462844527E8 ; 4.053842899796728E10 ; 38819.25999999996
110 ; 4764898.122649473 ; 4.0225067574480075E8 ; 5.1917859037720156E8 ; 4.094066762548345E10 ; 39175.39999999996
111 ; 4766026.418018498 ; 4.022627242757002E8 ; 5.2394348849985105E8 ; 4.134291830122826E10 ; 39531.53999999996
112 ; 4766140.122198132 ; 4.022747721947063E8 ; 5.2870951491786957E8 ; 4.174518102550396E10 ; 39887.67999999996
113 ; 4766189.7522699945 ; 4.022868186072587E8 ; 5.334756550400677E8 ; 4.214745579769867E10 ; 40243.819999999956
114 ; 4762555.651321464 ; 4.0229886263777035E8 ; 5.382418447923377E8 ; 4.254974261630593E10 ; 40599.959999999955
115 ; 4764604.277483434 ; 4.023109034290185E8 ; 5.430044004436591E8 ; 4.29520414789437E10 ; 40956.099999999955
116 ; 4762704.665289642 ; 4.023229401415572E8 ; 5.477690047211425E8 ; 4.335435238237272E10 ; 41312.239999999954
117 ; 4761816.2921956135 ; 4.023349719531523E8 ; 5.525317093864322E8 ; 4.3756675322514275E10 ; 41668.379999999954
118 ; 4762723.615217302 ; 4.023469980582354E8 ; 5.572935256786277E8 ; 4.415901029446743E10 ; 42024.51999999995
119 ; 4762105.77145232 ; 4.023590176673786E8 ; 5.62056249293845E8 ; 4.4561357292525665E10 ; 42380.65999999995
120 ; 4757993.591338554 ; 4.0237103000678825E8 ; 5.668183550652974E8 ; 4.496371631019305E10 ; 42736.79999999995
121 ; 4759574.173542566 ; 4.023830343178165E8 ; 5.715763486566359E8 ; 4.536608734019984E10 ; 43092.93999999995
122 ; 4758932.088116291 ; 4.0239502985649085E8 ; 5.763359228301785E8 ; 4.5768470374517654E10 ; 43449.07999999995
123 ; 4759922.892293048 ; 4.0240701589306086E8 ; 5.810948549182948E8 ; 4.6170865404374146E10 ; 43805.21999999995
124 ; 4752951.461424389 ; 4.024189917115611E8 ; 5.858547778105879E8 ; 4.6573272420267204E10 ; 44161.35999999995
125 ; 4752756.611511958 ; 4.0243095660938954E8 ; 5.906077292720122E8 ; 4.697569141197877E10 ; 44517.49999999995
126 ; 4749596.031382646 ; 4.024429098969021E8 ; 5.953604858835242E8 ; 4.737812236858816E10 ; 44873.63999999995
127 ; 4749182.093434709 ; 4.024548508970207E8 ; 6.001100819149069E8 ; 4.778056527848506E10 ; 45229.77999999995
128 ; 4748580.811073785 ; 4.02466778944856E8 ; 6.048592640083416E8 ; 4.818302012938208E10 ; 45585.91999999995
129 ; 4746510.357826868 ; 4.02478693387344E8 ; 6.096078448194153E8 ; 4.8585486908326935E10 ; 45942.05999999995
130 ; 4744584.998723992 ; 4.024905935828948E8 ; 6.143543551772422E8 ; 4.898796560171428E10 ; 46298.199999999946
131 ; 4740307.038860168 ; 4.0250247890105504E8 ; 6.190989401759661E8 ; 4.939045619529717E10 ; 46654.339999999946
132 ; 4740837.289326894 ; 4.025143487221812E8 ; 6.238392472148263E8 ; 4.979295867419823E10 ; 47010.479999999945
133 ; 4738793.559793149 ; 4.025262024371257E8 ; 6.285800845041533E8 ; 5.019547302292041E10 ; 47366.619999999944
134 ; 4736148.359265706 ; 4.025380394469335E8 ; 6.333188780639464E8 ; 5.059799922535754E10 ; 47722.759999999944
135 ; 4734575.547918306 ; 4.0254985916254956E8 ; 6.38055026423212E8 ; 5.100053726480447E10 ; 48078.89999999994
136 ; 4733746.281271004 ; 4.02561661004537E8 ; 6.427896019711304E8 ; 5.140308712396702E10 ; 48435.03999999994
137 ; 4732663.286581667 ; 4.02573444402805E8 ; 6.475233482524014E8 ; 5.180564878497156E10 ; 48791.17999999994
138 ; 4730363.961081676 ; 4.0258520879634607E8 ; 6.52256011538983E8 ; 5.220822222937436E10 ; 49147.31999999994
139 ; 4729836.485468563 ; 4.025969536329833E8 ; 6.569863755000646E8 ; 5.261080743817071E10 ; 49503.45999999994
140 ; 4726203.428886763 ; 4.026086783691257E8 ; 6.617162119855331E8 ; 5.301340439180369E10 ; 49859.59999999994
141 ; 4723579.183687277 ; 4.0262038246953285E8 ; 6.664424154144199E8 ; 5.341601307017281E10 ; 50215.73999999994
142 ; 4723447.3291599 ; 4.0263206540708685E8 ; 6.711659945981072E8 ; 5.381863345264235E10 ; 50571.87999999994
143 ; 4721930.586387583 ; 4.0264372666257334E8 ; 6.758894419272671E8 ; 5.422126551804944E10 ; 50928.01999999994
144 ; 4717759.463078987 ; 4.0265536572446954E8 ; 6.806113725136547E8 ; 5.462390924471201E10 ; 51284.15999999994
145 ; 4718255.769564217 ; 4.026669820887394E8 ; 6.853291319767337E8 ; 5.5026564610436485E10 ; 51640.29999999994
146 ; 4718676.135781628 ; 4.026785752586364E8 ; 6.90047387746298E8 ; 5.542923159252522E10 ; 51996.43999999994
147 ; 4717808.039730685 ; 4.0269014474451315E8 ; 6.947660638820796E8 ; 5.583191016778386E10 ; 52352.579999999936
148 ; 4717601.47020909 ; 4.027016900636368E8 ; 6.994838719218103E8 ; 5.623460031252837E10 ; 52708.719999999936
149 ; 4717932.868191557 ; 4.027132107400118E8 ; 7.042014733920194E8 ; 5.663730200259201E10 ; 53064.859999999935
150 ; 4718287.276921111 ; 4.0272470630420816E8 ; 7.08919406260211E8 ; 5.704001521333202E10 ; 53420.999999999935
151 ; 4717815.775753102 ; 4.0273617629319555E8 ; 7.136376935371321E8 ; 5.744273991963623E10 ; 53777.139999999934
152 ; 4715551.704751145 ; 4.0274762025018346E8 ; 7.183555093128853E8 ; 5.784547609592943E10 ; 54133.27999999993
153 ; 4717265.863587334 ; 4.027590377244662E8 ; 7.230710610176364E8 ; 5.824822371617961E10 ; 54489.41999999993
154 ; 4716814.982602232 ; 4.027704282712739E8 ; 7.277883268812238E8 ; 5.8650982753904076E10 ; 54845.55999999993
155 ; 4715984.160929835 ; 4.027817914516278E8 ; 7.32505141863826E8 ; 5.905375318217535E10 ; 55201.69999999993
156 ; 4717650.721609111 ; 4.0279312683220094E8 ; 7.372211260247558E8 ; 5.9456534973626976E10 ; 55557.83999999993
157 ; 4718026.774079925 ; 4.0280443398518336E8 ; 7.41938776746365E8 ; 5.9859328100459175E10 ; 55913.97999999993
158 ; 4718511.233663482 ; 4.0281571248815167E8 ; 7.466568035204449E8 ; 6.026213253444436E10 ; 56270.11999999993
159 ; 4716747.272167337 ; 4.028269619239435E8 ; 7.513753147541083E8 ; 6.066494824693251E10 ; 56626.25999999993
160 ; 4717974.192300087 ; 4.0283818188053536E8 ; 7.560920620262756E8 ; 6.106777520885645E10 ; 56982.39999999993
161 ; 4715127.336556531 ; 4.028493719509252E8 ; 7.608100362185757E8 ; 6.147061339073699E10 ; 57338.53999999993
162 ; 4716374.7816292215 ; 4.028605317330186E8 ; 7.655251635551323E8 ; 6.187346276268792E10 ; 57694.67999999993
163 ; 4715099.647646354 ; 4.028716608295188E8 ; 7.702415383367615E8 ; 6.227632329442094E10 ; 58050.81999999993
164 ; 4714050.695688354 ; 4.028827588478204E8 ; 7.749566379844078E8 ; 6.267919495525046E10 ; 58406.95999999993
165 ; 4714409.281255691 ; 4.028938253999062E8 ; 7.796706886800961E8 ; 6.308207771409828E10 ; 58763.099999999926
166 ; 4713998.678467096 ; 4.029048601022481E8 ; 7.843850979613519E8 ; 6.348497153949819E10 ; 59119.239999999925
167 ; 4713989.044888788 ; 4.0291586257571054E8 ; 7.89099096639819E8 ; 6.388787639960044E10 ; 59475.379999999925
168 ; 4710752.667372264 ; 4.029268324454576E8 ; 7.938130856847078E8 ; 6.4290792262176155E10 ; 59831.519999999924
169 ; 4711938.771033295 ; 4.0293776934086275E8 ; 7.9852383835208E8 ; 6.469371909462161E10 ; 60187.65999999992
170 ; 4711116.099250684 ; 4.029486728954221E8 ; 8.032357771231133E8 ; 6.509665686396248E10 ; 60543.79999999992
171 ; 4712078.644579725 ; 4.0295954274666953E8 ; 8.07946893222364E8 ; 6.54996055368579E10 ; 60899.93999999992
172 ; 4709467.855872517 ; 4.0297037853609544E8 ; 8.126589718669437E8 ; 6.590256507960457E10 ; 61256.07999999992
173 ; 4710792.55465684 ; 4.0298117990906775E8 ; 8.173684397228162E8 ; 6.630553545814066E10 ; 61612.21999999992
174 ; 4704602.546203391 ; 4.0299194651475525E8 ; 8.220792322774731E8 ; 6.670851663804973E10 ; 61968.35999999992
175 ; 4699302.846939925 ; 4.0300267800605416E8 ; 8.267838348236765E8 ; 6.711150858456448E10 ; 62324.49999999992
176 ; 4691474.098851507 ; 4.030133740395156E8 ; 8.314831376706164E8 ; 6.751451126257054E10 ; 62680.63999999992
177 ; 4686335.444788725 ; 4.030240342752773E8 ; 8.36174611769468E8 ; 6.7917524636610054E10 ; 63036.77999999992
