CSV File for the Network on Day 15
1 - Minute m 
2 - Power Consumed at minute m 
3 - Power Produced at minute m 
4 - Energy Consumed since the beginning of the day 
5 - Energy Produced since the beginning of the day 
6 - Energy Lost since the beginning of the day 
 
0 ; 4537710.63454079 ; 2.1050295324717236E8 ; 0.0 ; 0.0 ; 0.0
1 ; 4541698.59354797 ; 2.1080478353805453E8 ; 4537710.63454079 ; 2.1050295324717236E8 ; 356.14
2 ; 4544772.385162803 ; 2.1172437866224074E8 ; 9079409.228088759 ; 4.213077367852269E8 ; 712.28
3 ; 4549531.803569243 ; 2.1326179562384945E8 ; 1.3624181613251563E7 ; 6.330321154474676E8 ; 1068.42
4 ; 4554186.943540597 ; 2.154170946304658E8 ; 1.8173713416820806E7 ; 8.46293911071317E8 ; 1424.56
5 ; 4558808.9149263 ; 2.1819033744695884E8 ; 2.2727900360361405E7 ; 1.0617110057017827E9 ; 1780.6999999999998
6 ; 4561898.776168603 ; 2.2158158504293984E8 ; 2.7286709275287703E7 ; 1.2799013431487415E9 ; 2136.8399999999997
7 ; 4566716.676849273 ; 2.2559089456961745E8 ; 3.1848608051456306E7 ; 1.5014829281916814E9 ; 2492.9799999999996
8 ; 4572032.833328531 ; 2.302183158607601E8 ; 3.641532472830558E7 ; 1.727073822761299E9 ; 2849.1199999999994
9 ; 4573650.54621864 ; 2.3546388783443558E8 ; 4.098735756163411E7 ; 1.9572921386220589E9 ; 3205.2599999999993
10 ; 4575738.346994292 ; 2.4132763531717795E8 ; 4.556100810785275E7 ; 2.1927560264564943E9 ; 3561.399999999999
11 ; 4578948.851151069 ; 2.478095668467813E8 ; 5.013674645484704E7 ; 2.434083661773672E9 ; 3917.539999999999
12 ; 4581336.6762823 ; 2.549096738854515E8 ; 5.471569530599811E7 ; 2.6818932286204534E9 ; 4273.679999999999
13 ; 4588139.052552002 ; 2.6262793160665447E8 ; 5.929703198228041E7 ; 2.9368029025059047E9 ; 4629.82
14 ; 4591158.397470104 ; 2.709643010923226E8 ; 6.388517103483241E7 ; 3.1994308341125593E9 ; 4985.96
15 ; 4592276.552664277 ; 2.799187325086872E8 ; 6.847632943230252E7 ; 3.4703951352048817E9 ; 5342.1
16 ; 4596913.714856833 ; 2.894911687045399E8 ; 7.30686059849668E7 ; 3.7503138677135687E9 ; 5698.240000000001
17 ; 4599732.726858893 ; 2.996815487102692E8 ; 7.766551969982363E7 ; 4.0398050364181085E9 ; 6054.380000000001
18 ; 4601590.303302693 ; 3.104898107610062E8 ; 8.226525242668253E7 ; 4.339486585128378E9 ; 6410.520000000001
19 ; 4603810.784784014 ; 3.219158946491656E8 ; 8.686684272998522E7 ; 4.649976395889384E9 ; 6766.660000000002
20 ; 4608235.869077927 ; 3.339597433706291E8 ; 9.147065351476924E7 ; 4.971892290538549E9 ; 7122.800000000002
21 ; 4611760.621430499 ; 3.466213041355081E8 ; 9.607888938384716E7 ; 5.305852033909179E9 ; 7478.940000000002
22 ; 4614978.194726019 ; 3.5990052886696935E8 ; 1.0069065000527766E8 ; 5.652473338044687E9 ; 7835.080000000003
23 ; 4617150.349513279 ; 3.737973743230873E8 ; 1.0530562820000368E8 ; 6.012373866911656E9 ; 8191.220000000003
24 ; 4622523.4894196205 ; 3.883118019637558E8 ; 1.0992277854951696E8 ; 6.386171241234744E9 ; 8547.360000000002
25 ; 4625817.804284924 ; 4.008198594574759E8 ; 1.1454530203893659E8 ; 6.7744830431985E9 ; 8903.500000000002
26 ; 4627507.4557267055 ; 4.008286123822104E8 ; 1.1917111984322152E8 ; 7.175302902655975E9 ; 9259.640000000001
27 ; 4629327.789071029 ; 4.008375728696303E8 ; 1.2379862729894823E8 ; 7.576131515038186E9 ; 9615.78
28 ; 4633562.427167033 ; 4.008467176934048E8 ; 1.2842795508801925E8 ; 7.976969087907816E9 ; 9971.92
29 ; 4638134.225711918 ; 4.008560264705446E8 ; 1.3306151751518628E8 ; 8.377815805601221E9 ; 10328.06
30 ; 4638842.871260293 ; 4.008654813070097E8 ; 1.376996517408982E8 ; 8.778671832071766E9 ; 10684.199999999999
31 ; 4640605.791267252 ; 4.0087506647866476E8 ; 1.4233849461215848E8 ; 9.179537313378777E9 ; 11040.339999999998
32 ; 4644163.159893684 ; 4.0088476814836645E8 ; 1.4697910040342572E8 ; 9.58041237985744E9 ; 11396.479999999998
33 ; 4645936.910093627 ; 4.0089457411772645E8 ; 1.516232635633194E8 ; 9.981297148005808E9 ; 11752.619999999997
34 ; 4649525.612905134 ; 4.0090447361088955E8 ; 1.5626920047341305E8 ; 1.0382191722123535E10 ; 12108.759999999997
35 ; 4653178.094857373 ; 4.0091445708713806E8 ; 1.609187260863182E8 ; 1.0783096195734425E10 ; 12464.899999999996
36 ; 4654033.37478653 ; 4.009245160790049E8 ; 1.6557190418117556E8 ; 1.1184010652821562E10 ; 12821.039999999995
37 ; 4654554.620781648 ; 4.009346430526985E8 ; 1.702259375559621E8 ; 1.1584935168900566E10 ; 13177.179999999995
38 ; 4658198.662111953 ; 4.009448312878785E8 ; 1.7488049217674375E8 ; 1.1985869811953264E10 ; 13533.319999999994
39 ; 4659950.728607417 ; 4.0095507477412033E8 ; 1.7953869083885568E8 ; 1.2386814643241142E10 ; 13889.459999999994
40 ; 4660874.4675336005 ; 4.0096536812172E8 ; 1.841986415674631E8 ; 1.2787769718015263E10 ; 14245.599999999993
41 ; 4663714.2779643005 ; 4.009757064847877E8 ; 1.888595160349967E8 ; 1.3188735086136982E10 ; 14601.739999999993
42 ; 4665877.131284503 ; 4.009860854948604E8 ; 1.9352323031296098E8 ; 1.3589710792621769E10 ; 14957.879999999992
43 ; 4666063.234271217 ; 4.0099650120351267E8 ; 1.981891074442455E8 ; 1.3990696878116629E10 ; 15314.019999999991
44 ; 4667372.723321408 ; 4.010069500326654E8 ; 2.0285517067851672E8 ; 1.439169337932014E10 ; 15670.15999999999
45 ; 4670272.344017829 ; 4.010174287314826E8 ; 2.0752254340183812E8 ; 1.4792700329352806E10 ; 16026.29999999999
46 ; 4671298.578020998 ; 4.010279343389133E8 ; 2.1219281574585596E8 ; 1.519371775808429E10 ; 16382.43999999999
47 ; 4673522.145939246 ; 4.01038464151075E8 ; 2.1686411432387695E8 ; 1.5594745692423203E10 ; 16738.57999999999
48 ; 4674094.643580345 ; 4.010490156927954E8 ; 2.215376364698162E8 ; 1.5995784156574278E10 ; 17094.71999999999
49 ; 4675171.646921625 ; 4.0105958669273186E8 ; 2.2621173111339656E8 ; 1.6396833172267073E10 ; 17450.85999999999
50 ; 4679672.711518294 ; 4.010701750615742E8 ; 2.308869027603182E8 ; 1.6797892758959805E10 ; 17806.99999999999
51 ; 4677257.427517942 ; 4.0108077887290907E8 ; 2.3556657547183648E8 ; 1.7198962934021378E10 ; 18163.13999999999
52 ; 4678919.084675705 ; 4.0109139634638613E8 ; 2.4024383289935443E8 ; 1.7600043712894287E10 ; 18519.279999999988
53 ; 4679501.991719222 ; 4.011020258328804E8 ; 2.4492275198403013E8 ; 1.8001135109240673E10 ; 18875.419999999987
54 ; 4680462.056986736 ; 4.0111266580138576E8 ; 2.4960225397574934E8 ; 1.8402237135073555E10 ; 19231.559999999987
55 ; 4681303.406207648 ; 4.011233148274164E8 ; 2.542827160327361E8 ; 1.880334980087494E10 ; 19587.699999999986
56 ; 4681651.194394853 ; 4.011339715827215E8 ; 2.5896401943894374E8 ; 1.9204473115702354E10 ; 19943.839999999986
57 ; 4680928.64838549 ; 4.011446348261479E8 ; 2.636456706333386E8 ; 1.9605607087285076E10 ; 20299.979999999985
58 ; 4682094.426260527 ; 4.011553033955065E8 ; 2.683265992817241E8 ; 2.0006751722111225E10 ; 20656.119999999984
59 ; 4684846.397084475 ; 4.011659762003193E8 ; 2.730086937079846E8 ; 2.0407907025506733E10 ; 21012.259999999984
60 ; 4685069.576884478 ; 4.0117665221533984E8 ; 2.776935401050691E8 ; 2.0809073001707054E10 ; 21368.399999999983
61 ; 4688038.184539724 ; 4.0118733047475487E8 ; 2.8237860968195355E8 ; 2.1210249653922394E10 ; 21724.539999999983
62 ; 4687504.976220717 ; 4.011980100669857E8 ; 2.870666478664933E8 ; 2.161143698439715E10 ; 22080.679999999982
63 ; 4687824.630537053 ; 4.012086901300203E8 ; 2.91754152842714E8 ; 2.2012634994464134E10 ; 22436.81999999998
64 ; 4689965.992391446 ; 4.012193698472146E8 ; 2.9644197747325104E8 ; 2.2413843684594154E10 ; 22792.95999999998
65 ; 4688681.118623882 ; 4.012300484435096E8 ; 3.011319434656425E8 ; 2.281506305444137E10 ; 23149.09999999998
66 ; 4691302.899622918 ; 4.012407251820189E8 ; 3.0582062458426636E8 ; 2.3216293102884876E10 ; 23505.23999999998
67 ; 4690067.090196353 ; 4.0125139936094373E8 ; 3.105119274838893E8 ; 2.3617533828066895E10 ; 23861.37999999998
68 ; 4691012.764959897 ; 4.012620703107819E8 ; 3.1520199457408565E8 ; 2.4018785227427837E10 ; 24217.51999999998
69 ; 4690810.361871948 ; 4.012727373917974E8 ; 3.198930073390455E8 ; 2.442004729773862E10 ; 24573.659999999978
70 ; 4692392.772276202 ; 4.012833999917245E8 ; 3.245838177009175E8 ; 2.4821320035130417E10 ; 24929.799999999977
71 ; 4692489.803451423 ; 4.012940575236803E8 ; 3.292762104731937E8 ; 2.5222603435122143E10 ; 25285.939999999977
72 ; 4690564.126297592 ; 4.013047094242656E8 ; 3.339687002766451E8 ; 2.5623897492645824E10 ; 25642.079999999976
73 ; 4694112.878057484 ; 4.0131535515183365E8 ; 3.386592644029427E8 ; 2.602520220207009E10 ; 25998.219999999976
74 ; 4691649.483016995 ; 4.0132599418491083E8 ; 3.433533772810002E8 ; 2.6426517557221924E10 ; 26354.359999999975
75 ; 4690924.550884114 ; 4.0133662602075386E8 ; 3.4804502676401716E8 ; 2.6827843551406834E10 ; 26710.499999999975
76 ; 4691707.365247016 ; 4.013472501740298E8 ; 3.527359513149013E8 ; 2.722918017742759E10 ; 27066.639999999974
77 ; 4691490.63740232 ; 4.013578661756072E8 ; 3.574276586801483E8 ; 2.763052742760162E10 ; 27422.779999999973
78 ; 4691654.303108079 ; 4.013684735714481E8 ; 3.621191493175506E8 ; 2.8031885293777225E10 ; 27778.919999999973
79 ; 4691763.886889371 ; 4.013790719215909E8 ; 3.668108036206587E8 ; 2.8433253767348675E10 ; 28135.059999999972
80 ; 4690438.750574419 ; 4.013896607992155E8 ; 3.715025675075481E8 ; 2.8834632839270267E10 ; 28491.19999999997
81 ; 4691765.034118568 ; 4.014002397897837E8 ; 3.761930062581225E8 ; 2.9236022500069485E10 ; 28847.33999999997
82 ; 4693520.988719997 ; 4.014108084902475E8 ; 3.808847712922411E8 ; 2.963742273985927E10 ; 29203.47999999997
83 ; 4691591.420898118 ; 4.014213665083194E8 ; 3.855782922809611E8 ; 3.0038833548349514E10 ; 29559.61999999997
84 ; 4691325.348477852 ; 4.014319134617991E8 ; 3.9026988370185924E8 ; 3.0440254914857834E10 ; 29915.75999999997
85 ; 4694463.245389169 ; 4.0144244897795177E8 ; 3.949612090503371E8 ; 3.0841686828319633E10 ; 30271.89999999997
86 ; 4692467.230889835 ; 4.014529726929332E8 ; 3.9965567229572624E8 ; 3.1243129277297585E10 ; 30628.039999999968
87 ; 4690928.504715959 ; 4.014634842512579E8 ; 4.043481395266161E8 ; 3.1644582249990517E10 ; 30984.179999999968
88 ; 4689934.142627077 ; 4.014739833053068E8 ; 4.090390680313321E8 ; 3.2046045734241776E10 ; 31340.319999999967
89 ; 4690218.415564837 ; 4.014844695148704E8 ; 4.1372900217395914E8 ; 3.244751971754708E10 ; 31696.459999999966
90 ; 4691237.975132344 ; 4.0149494254672545E8 ; 4.18419220589524E8 ; 3.284900418706195E10 ; 32052.599999999966
91 ; 4691511.933956637 ; 4.015054020742419E8 ; 4.231104585646563E8 ; 3.3250499129608677E10 ; 32408.739999999965
92 ; 4689089.134495567 ; 4.015158477770171E8 ; 4.2780197049861294E8 ; 3.365200453168292E10 ; 32764.879999999965
93 ; 4687212.918106485 ; 4.015262793405366E8 ; 4.324910596331085E8 ; 3.4053520379459934E10 ; 33121.01999999997
94 ; 4686595.277168161 ; 4.015366964558574E8 ; 4.37178272551215E8 ; 3.445504665880047E10 ; 33477.15999999997
95 ; 4686384.875125863 ; 4.0154709881931376E8 ; 4.4186486782838315E8 ; 3.4856583355256325E10 ; 33833.29999999997
96 ; 4684832.019336962 ; 4.015574861322427E8 ; 4.4655125270350903E8 ; 3.525813045407564E10 ; 34189.439999999966
97 ; 4683674.314032292 ; 4.0156785810072803E8 ; 4.51236084722846E8 ; 3.565968794020788E10 ; 34545.579999999965
98 ; 4684487.722451254 ; 4.0157821443536127E8 ; 4.559197590368783E8 ; 3.606125579830861E10 ; 34901.719999999965
99 ; 4683604.85121813 ; 4.015885548510188E8 ; 4.6060424675932956E8 ; 3.646283401274397E10 ; 35257.859999999964
100 ; 4680377.677523698 ; 4.01598879066653E8 ; 4.6528785161054766E8 ; 3.686442256759499E10 ; 35613.99999999996
101 ; 4682822.143744105 ; 4.0160918680509734E8 ; 4.6996822928807133E8 ; 3.7266021446661644E10 ; 35970.13999999996
102 ; 4679451.284147493 ; 4.016194777928841E8 ; 4.7465105143181545E8 ; 3.766763063346674E10 ; 36326.27999999996
103 ; 4681514.636229421 ; 4.0162975176007307E8 ; 4.7933050271596295E8 ; 3.806925011125963E10 ; 36682.41999999996
104 ; 4679459.238037707 ; 4.01640008440092E8 ; 4.8401201735219234E8 ; 3.84708798630197E10 ; 37038.55999999996
105 ; 4677671.469819899 ; 4.016502475695861E8 ; 4.8869147659023005E8 ; 3.887251987145979E10 ; 37394.69999999996
106 ; 4674878.924326583 ; 4.0166046888827753E8 ; 4.9336914806004995E8 ; 3.927417011902938E10 ; 37750.83999999996
107 ; 4673465.4472782165 ; 4.0167067213883317E8 ; 4.9804402698437655E8 ; 3.9675830587917656E10 ; 38106.97999999996
108 ; 4671406.572130084 ; 4.016808570667409E8 ; 5.0271749243165475E8 ; 4.007750126005649E10 ; 38463.11999999996
109 ; 4673331.666228341 ; 4.016910234201927E8 ; 5.0738889900378484E8 ; 4.047918211712323E10 ; 38819.25999999996
110 ; 4671910.385660238 ; 4.0170117094997555E8 ; 5.120622306700132E8 ; 4.088087314054343E10 ; 39175.39999999996
111 ; 4670333.626699796 ; 4.0171129940936816E8 ; 5.167341410556734E8 ; 4.12825743114934E10 ; 39531.53999999996
112 ; 4668128.54292494 ; 4.017214085540445E8 ; 5.214044746823732E8 ; 4.168428561090277E10 ; 39887.67999999996
113 ; 4668455.6149587985 ; 4.0173149814198196E8 ; 5.2607260322529817E8 ; 4.208600701945682E10 ; 40243.819999999956
114 ; 4665430.135375538 ; 4.017415679333764E8 ; 5.30741058840257E8 ; 4.24877385175988E10 ; 40599.959999999955
115 ; 4664271.225718393 ; 4.017516176905605E8 ; 5.3540648897563255E8 ; 4.288948008553218E10 ; 40956.099999999955
116 ; 4663818.525675468 ; 4.017616471779282E8 ; 5.400707602013509E8 ; 4.329123170322274E10 ; 41312.239999999954
117 ; 4659941.605443041 ; 4.0177165616186243E8 ; 5.447345787270263E8 ; 4.3692993350400665E10 ; 41668.379999999954
118 ; 4659565.281896501 ; 4.017816444106674E8 ; 5.493945203324693E8 ; 4.409476500656253E10 ; 42024.51999999995
119 ; 4658253.7205046 ; 4.017916116945051E8 ; 5.540540856143658E8 ; 4.44965466509732E10 ; 42380.65999999995
120 ; 4655202.032966821 ; 4.018015577853343E8 ; 5.587123393348705E8 ; 4.48983382626677E10 ; 42736.79999999995
121 ; 4656924.610805554 ; 4.0181148245685416E8 ; 5.633675413678373E8 ; 4.530013982045303E10 ; 43092.93999999995
122 ; 4653049.152394672 ; 4.018213854844502E8 ; 5.680244659786428E8 ; 4.570195130290989E10 ; 43449.07999999995
123 ; 4651716.415277262 ; 4.0183126664514375E8 ; 5.726775151310375E8 ; 4.610377268839434E10 ; 43805.21999999995
124 ; 4650490.839828163 ; 4.0184112571754324E8 ; 5.773292315463147E8 ; 4.650560395503948E10 ; 44161.35999999995
125 ; 4645464.870283645 ; 4.018509624817998E8 ; 5.819797223861428E8 ; 4.690744508075703E10 ; 44517.49999999995
126 ; 4642125.33039546 ; 4.018607767195635E8 ; 5.866251872564265E8 ; 4.730929604323882E10 ; 44873.63999999995
127 ; 4639058.154161263 ; 4.018705682139431E8 ; 5.912673125868219E8 ; 4.771115681995839E10 ; 45229.77999999995
128 ; 4636712.06544625 ; 4.0188033674946797E8 ; 5.959063707409831E8 ; 4.811302738817233E10 ; 45585.91999999995
129 ; 4635895.856112574 ; 4.018900821120511E8 ; 6.005430828064294E8 ; 4.85149077249218E10 ; 45942.05999999995
130 ; 4631210.790354826 ; 4.018998040889553E8 ; 6.05178978662542E8 ; 4.891679780703385E10 ; 46298.199999999946
131 ; 4628456.252623108 ; 4.0190950246876013E8 ; 6.098101894528968E8 ; 4.931869761112281E10 ; 46654.339999999946
132 ; 4625597.290477163 ; 4.0191917704133177E8 ; 6.144386457055199E8 ; 4.972060711359157E10 ; 47010.479999999945
133 ; 4622546.385961986 ; 4.0192882759779316E8 ; 6.190642429959971E8 ; 5.01225262906329E10 ; 47366.619999999944
134 ; 4618777.439561116 ; 4.0193845393049675E8 ; 6.236867893819591E8 ; 5.052445511823069E10 ; 47722.759999999944
135 ; 4618105.623338649 ; 4.0194805583299834E8 ; 6.283055668215202E8 ; 5.092639357216119E10 ; 48078.89999999994
136 ; 4617288.061455183 ; 4.019576331000321E8 ; 6.329236724448589E8 ; 5.132834162799419E10 ; 48435.03999999994
137 ; 4612362.934379169 ; 4.019671855274873E8 ; 6.37540960506314E8 ; 5.1730299261094215E10 ; 48791.17999999994
138 ; 4612247.88148264 ; 4.0197671291238576E8 ; 6.421533234406933E8 ; 5.2132266446621704E10 ; 49147.31999999994
139 ; 4609674.264405588 ; 4.019862150528612E8 ; 6.467655713221759E8 ; 5.253424315953409E10 ; 49503.45999999994
140 ; 4606676.864976096 ; 4.019956917481389E8 ; 6.513752455865815E8 ; 5.293622937458695E10 ; 49859.59999999994
141 ; 4603448.990187664 ; 4.0200514279851687E8 ; 6.559819224515575E8 ; 5.333822506633509E10 ; 50215.73999999994
142 ; 4600708.345894859 ; 4.0201456800534797E8 ; 6.605853714417452E8 ; 5.3740230209133606E10 ; 50571.87999999994
143 ; 4595638.174095015 ; 4.020239671710229E8 ; 6.6518607978764E8 ; 5.4142244777138954E10 ; 50928.01999999994
144 ; 4596961.623830958 ; 4.020333400989541E8 ; 6.69781717961735E8 ; 5.4544268744309975E10 ; 51284.15999999994
145 ; 4593264.063200232 ; 4.0204268659356034E8 ; 6.743786795855659E8 ; 5.494630208440893E10 ; 51640.29999999994
146 ; 4590910.312295038 ; 4.020520064602527E8 ; 6.789719436487662E8 ; 5.534834477100249E10 ; 51996.43999999994
147 ; 4591142.918988798 ; 4.020612995054202E8 ; 6.835628539610612E8 ; 5.575039677746274E10 ; 52352.579999999936
148 ; 4589215.6913807215 ; 4.020705655364175E8 ; 6.881539968800501E8 ; 5.6152458076968155E10 ; 52708.719999999936
149 ; 4588237.0393415075 ; 4.02079804361552E8 ; 6.927432125714308E8 ; 5.655452864250457E10 ; 53064.859999999935
150 ; 4587413.132415636 ; 4.020890157900728E8 ; 6.973314496107723E8 ; 5.695660844686612E10 ; 53420.999999999935
151 ; 4585919.087798684 ; 4.0209819963215923E8 ; 7.019188627431879E8 ; 5.735869746265619E10 ; 53777.139999999934
152 ; 4583184.80495522 ; 4.021073556989108E8 ; 7.065047818309866E8 ; 5.7760795662288345E10 ; 54133.27999999993
153 ; 4580310.452900029 ; 4.021164838023368E8 ; 7.110879666359419E8 ; 5.816290301798726E10 ; 54489.41999999993
154 ; 4582248.032844609 ; 4.021255837553476E8 ; 7.156682770888419E8 ; 5.85650195017896E10 ; 54845.55999999993
155 ; 4581774.709646581 ; 4.0213465537174547E8 ; 7.202505251216866E8 ; 5.8967145085544945E10 ; 55201.69999999993
156 ; 4581887.192686632 ; 4.021436984662161E8 ; 7.248322998313332E8 ; 5.936927974091669E10 ; 55557.83999999993
157 ; 4581706.075391991 ; 4.021527128543211E8 ; 7.294141870240198E8 ; 5.9771423439382904E10 ; 55913.97999999993
158 ; 4578048.196404754 ; 4.021616983524904E8 ; 7.339958930994118E8 ; 6.017357615223723E10 ; 56270.11999999993
159 ; 4575739.970515459 ; 4.021706547780151E8 ; 7.385739412958165E8 ; 6.057573785058972E10 ; 56626.25999999993
160 ; 4575652.10376147 ; 4.021795819490408E8 ; 7.43149681266332E8 ; 6.097790850536774E10 ; 56982.39999999993
161 ; 4575018.822489346 ; 4.021884796845616E8 ; 7.477253333700935E8 ; 6.138008808731678E10 ; 57338.53999999993
162 ; 4573031.75698458 ; 4.0219734780441415E8 ; 7.523003521925828E8 ; 6.178227656700134E10 ; 57694.67999999993
163 ; 4568917.69920133 ; 4.02206186129272E8 ; 7.568733839495674E8 ; 6.2184473914805756E10 ; 58050.81999999993
164 ; 4568387.0985463895 ; 4.0221499448064005E8 ; 7.614423016487688E8 ; 6.258668010093503E10 ; 58406.95999999993
165 ; 4567942.190890712 ; 4.022237726808506E8 ; 7.660106887473152E8 ; 6.2988895095415665E10 ; 58763.099999999926
166 ; 4566603.374724282 ; 4.022325205530576E8 ; 7.705786309382058E8 ; 6.339111886809651E10 ; 59119.239999999925
167 ; 4563296.603117445 ; 4.022412379212331E8 ; 7.751452343129301E8 ; 6.379335138864957E10 ; 59475.379999999925
168 ; 4562810.833400783 ; 4.02249924610163E8 ; 7.797085309160476E8 ; 6.41955926265708E10 ; 59831.519999999924
169 ; 4559614.189764366 ; 4.0225858044544286E8 ; 7.842713417494483E8 ; 6.459784255118096E10 ; 60187.65999999992
170 ; 4556575.152633112 ; 4.0226720525347507E8 ; 7.888309559392127E8 ; 6.50001011316264E10 ; 60543.79999999992
171 ; 4555578.334320962 ; 4.0227579886146504E8 ; 7.933875310918458E8 ; 6.5402368336879875E10 ; 60899.93999999992
172 ; 4556674.659087072 ; 4.0228436109741807E8 ; 7.979431094261668E8 ; 6.580464413574134E10 ; 61256.07999999992
173 ; 4553315.760524612 ; 4.022928917901368E8 ; 8.024997840852538E8 ; 6.620692849683876E10 ; 61612.21999999992
174 ; 4553911.80820207 ; 4.023013907692183E8 ; 8.070530998457785E8 ; 6.66092213886289E10 ; 61968.35999999992
175 ; 4554635.777285987 ; 4.0230985786505175E8 ; 8.116070116539805E8 ; 6.701152277939812E10 ; 62324.49999999992
176 ; 4556495.28127132 ; 4.02318292908816E8 ; 8.161616474312664E8 ; 6.741383263726317E10 ; 62680.63999999992
177 ; 4554615.652230857 ; 4.023266957324774E8 ; 8.207181427125378E8 ; 6.781615093017198E10 ; 63036.77999999992
