CSV File for the Network on Day 314
1 - Minute m 
2 - Power Consumed at minute m 
3 - Power Produced at minute m 
4 - Energy Consumed since the beginning of the day 
5 - Energy Produced since the beginning of the day 
6 - Energy Lost since the beginning of the day 
 
No Production city : 2, Producer : 1
No Production city : 4, Producer : 1
No Production city : 4, Producer : 1
 
0 ; 61802.70478210955 ; 230848.15069572648 ; 0.0 ; 0.0 ; 0.0
1 ; 62845.16359136434 ; 230480.6464482761 ; 61802.70478210955 ; 230848.15069572648 ; 238.00000000000003
2 ; 63959.932412057904 ; 230151.02516339763 ; 124647.86837347389 ; 461328.7971440026 ; 476.00000000000006
3 ; 64928.50971239834 ; 229859.5501136989 ; 188607.80078553178 ; 691479.8223074002 ; 714.0000000000001
4 ; 65884.07809319747 ; 229606.45590066872 ; 253536.31049793013 ; 921339.3724210991 ; 952.0000000000001
5 ; 66737.4986126072 ; 229391.94761458095 ; 319420.3885911276 ; 1150945.8283217677 ; 1190.0000000000002
6 ; 67542.64920970687 ; 229216.20009117448 ; 386157.8872037348 ; 1380337.7759363486 ; 1428.0000000000002
7 ; 68799.47430045051 ; 229079.3572714127 ; 453700.53641344164 ; 1609553.9760275232 ; 1666.0000000000002
8 ; 69688.72057383513 ; 228981.53166982133 ; 522500.0107138922 ; 1838633.3332989358 ; 1904.0000000000002
9 ; 70629.64603672382 ; 228922.80395603288 ; 592188.7312877274 ; 2067614.8649687571 ; 2142.0000000000005
10 ; 71357.14868500296 ; 228903.22265321223 ; 662818.3773244512 ; 2296537.66892479 ; 2380.0000000000005
11 ; 72228.4547664087 ; 228922.80395603288 ; 734175.5260094542 ; 2525440.891578002 ; 2618.0000000000005
12 ; 73190.84233586544 ; 228981.53166982133 ; 806403.9807758628 ; 2754363.6955340346 ; 2856.0000000000005
13 ; 73971.16755491271 ; 229079.3572714127 ; 879594.8231117283 ; 2983345.2272038558 ; 3094.0000000000005
14 ; 75158.23798589689 ; 229216.20009117448 ; 953565.990666641 ; 3212424.5844752686 ; 3332.0000000000005
15 ; 76335.47226637146 ; 229391.94761458095 ; 1028724.2286525379 ; 3441640.784566443 ; 3570.0000000000005
16 ; 76637.84626118142 ; 229606.45590066872 ; 1105059.7009189094 ; 3671032.732181024 ; 3808.0000000000005
17 ; 77797.40937064179 ; 229859.55011369873 ; 1181697.5471800908 ; 3900639.1880816924 ; 4046.0000000000005
18 ; 78655.03252317758 ; 230151.02516339763 ; 1259494.9565507325 ; 4130498.7381953914 ; 4284.000000000001
19 ; 79130.06983397408 ; 230480.6464482761 ; 1338149.98907391 ; 4360649.763358789 ; 4522.000000000001
20 ; 80019.63481152883 ; 230848.15069572648 ; 1417280.0589078842 ; 4591130.409807065 ; 4760.000000000001
21 ; 80450.36039770143 ; 231253.24689190582 ; 1497299.693719413 ; 4821978.560502791 ; 4998.000000000001
22 ; 81402.14214392967 ; 231695.61729380934 ; 1577750.0541171143 ; 5053231.807394696 ; 5236.000000000001
23 ; 82920.22673312126 ; 232174.91851545978 ; 1659152.196261044 ; 5284927.424688506 ; 5474.000000000001
24 ; 83211.52069503542 ; 232690.78267975445 ; 1742072.4229941652 ; 5517102.343203966 ; 5712.000000000001
25 ; 83671.40433517128 ; 233242.81862725448 ; 1825283.9436892006 ; 5749793.12588372 ; 5950.000000000001
26 ; 84463.68716068166 ; 233830.61317304967 ; 1908955.3480243718 ; 5983035.944510974 ; 6188.000000000001
27 ; 85455.09655793388 ; 234453.7324027889 ; 1993419.0351850535 ; 6216866.557684024 ; 6426.000000000001
28 ; 86318.79007861065 ; 235111.72299902965 ; 2078874.1317429873 ; 6451320.290086812 ; 6664.000000000001
29 ; 86851.84060747833 ; 235804.1135892193 ; 2165192.921821598 ; 6686432.013085842 ; 6902.000000000001
30 ; 87547.13956176705 ; 236530.41610686676 ; 2252044.7624290762 ; 6922236.126675062 ; 7140.000000000001
31 ; 87684.4034141295 ; 237290.12715779225 ; 2339591.9019908435 ; 7158766.542781929 ; 7378.000000000001
32 ; 88520.46937989673 ; 238082.7293837395 ; 2427276.3054049728 ; 7396056.669939721 ; 7616.000000000001
33 ; 89786.33931265287 ; 238907.69281608777 ; 2515796.7747848695 ; 7634139.399323461 ; 7854.000000000001
34 ; 90037.35414053217 ; 239764.47621290953 ; 2605583.1140975226 ; 7873047.092139549 ; 8092.000000000001
35 ; 90710.958372431 ; 240652.52837315734 ; 2695620.468238055 ; 8112811.568352458 ; 8330.000000000002
36 ; 91247.33182378387 ; 241571.28942233385 ; 2786331.4266104857 ; 8353464.096725616 ; 8568.000000000002
37 ; 91326.02329710721 ; 242520.19206458432 ; 2877578.7584342696 ; 8595035.38614795 ; 8806.000000000002
38 ; 92022.39522339607 ; 243498.66279674342 ; 2968904.781731377 ; 8837555.578212535 ; 9044.000000000002
39 ; 93003.29358668318 ; 244506.12308046265 ; 3060927.176954773 ; 9081054.241009278 ; 9282.000000000002
40 ; 93359.1701015223 ; 245541.990469125 ; 3153930.470541456 ; 9325560.36408974 ; 9520.000000000002
41 ; 94010.21468363958 ; 246605.67968682552 ; 3247289.6406429783 ; 9571102.354558865 ; 9758.000000000002
42 ; 94684.15382646222 ; 247696.60365723955 ; 3341299.855326618 ; 9817708.03424569 ; 9996.000000000002
43 ; 95092.71465943381 ; 248814.17448072459 ; 3435984.00915308 ; 1.006540463790293E7 ; 10234.000000000002
44 ; 95546.14370095116 ; 249957.80435848792 ; 3531076.723812514 ; 1.0314218812383655E7 ; 10472.000000000002
45 ; 95966.33972026147 ; 251126.90646311335 ; 3626622.867513465 ; 1.0564176616742143E7 ; 10710.000000000002
46 ; 96780.29970210048 ; 252320.8957551587 ; 3722589.2072337265 ; 1.0815303523205256E7 ; 10948.000000000002
47 ; 97105.25358822846 ; 253539.1897459216 ; 3819369.506935827 ; 1.1067624418960415E7 ; 11186.000000000002
48 ; 97816.360296764 ; 254781.20920681892 ; 3916474.7605240555 ; 1.1321163608706336E7 ; 11424.000000000002
49 ; 98128.48065735208 ; 256046.37882613347 ; 4014291.1208208194 ; 1.1575944817913156E7 ; 11662.000000000002
50 ; 98162.64374784644 ; 257334.12781415603 ; 4112419.6014781715 ; 1.183199119673929E7 ; 11900.000000000002
51 ; 99128.79086366892 ; 258643.89045798485 ; 4210582.245226018 ; 1.2089325324553447E7 ; 12138.000000000002
52 ; 98901.6414361881 ; 259975.10662744966 ; 4309711.036089687 ; 1.234796921501143E7 ; 12376.000000000002
53 ; 100036.61287932655 ; 261327.22223379472 ; 4408612.677525875 ; 1.260794432163888E7 ; 12614.000000000002
54 ; 100118.86606079196 ; 262699.68964289303 ; 4508649.290405202 ; 1.2869271543872675E7 ; 12852.000000000002
55 ; 100178.08649742081 ; 264091.96804487496 ; 4608768.156465993 ; 1.3131971233515568E7 ; 13090.000000000002
56 ; 100599.87101850453 ; 265503.5237821356 ; 4708946.242963414 ; 1.3396063201560443E7 ; 13328.000000000002
57 ; 101168.64571013078 ; 266933.8306377443 ; 4809546.113981918 ; 1.366156672534258E7 ; 13566.000000000002
58 ; 101092.73296575336 ; 268382.37008631486 ; 4910714.75969205 ; 1.3928500555980323E7 ; 13804.000000000002
59 ; 101281.16430350342 ; 269848.63150941464 ; 5011807.492657803 ; 1.4196882926066637E7 ; 14042.000000000002
60 ; 102203.81611458775 ; 271332.11237758485 ; 5113088.656961306 ; 1.4466731557576051E7 ; 14280.000000000002
61 ; 102493.03318234265 ; 272832.3184010323 ; 5215292.473075894 ; 1.4738063669953635E7 ; 14518.000000000002
62 ; 102780.7416437883 ; 274348.7636510216 ; 5317785.506258236 ; 1.5010895988354668E7 ; 14756.000000000002
63 ; 102806.64970186971 ; 275880.9706539541 ; 5420566.247902025 ; 1.5285244752005689E7 ; 14994.000000000002
64 ; 103511.99112049256 ; 277428.4704600729 ; 5523372.897603895 ; 1.5561125722659644E7 ; 15232.000000000002
65 ; 103056.78693807595 ; 278990.8026886704 ; 5626884.888724387 ; 1.5838554193119716E7 ; 15470.000000000002
66 ; 103501.41611243351 ; 280567.51555161254 ; 5729941.675662463 ; 1.6117544995808387E7 ; 15708.000000000002
67 ; 104171.74349607909 ; 282158.1658569227 ; 5833443.091774896 ; 1.6398112511359999E7 ; 15946.000000000002
68 ; 104634.46229668631 ; 283762.31899409497 ; 5937614.835270975 ; 1.6680270677216921E7 ; 16184.000000000002
69 ; 104098.49439196801 ; 285379.5489027285 ; 6042249.297567661 ; 1.6964032996211015E7 ; 16422.000000000004
70 ; 104290.33515628919 ; 287009.43802599795 ; 6146347.791959628 ; 1.7249412545113742E7 ; 16660.000000000004
71 ; 104598.72196647023 ; 288651.5772503956 ; 6250638.127115917 ; 1.753642198313974E7 ; 16898.000000000004
72 ; 104674.29590795092 ; 290305.565833099 ; 6355236.849082388 ; 1.7825073560390133E7 ; 17136.000000000004
73 ; 105052.1723415066 ; 291971.0113182457 ; 6459911.144990339 ; 1.8115379126223233E7 ; 17374.000000000004
74 ; 104750.44181265781 ; 293647.52944331034 ; 6564963.317331846 ; 1.8407350137541477E7 ; 17612.000000000004
75 ; 105180.39572927891 ; 295334.744036712 ; 6669713.759144504 ; 1.8700997666984785E7 ; 17850.000000000004
76 ; 105302.40537545935 ; 297032.28690769954 ; 6774894.154873783 ; 1.8996332411021497E7 ; 18088.000000000004
77 ; 105941.33471699513 ; 298739.79772949585 ; 6880196.560249242 ; 1.9293364697929196E7 ; 18326.000000000004
78 ; 105560.0933525206 ; 300456.92391660897 ; 6986137.894966237 ; 1.9592104495658692E7 ; 18564.000000000004
79 ; 106075.93341859986 ; 302183.3204971536 ; 7091697.988318758 ; 1.98925614195753E7 ; 18802.000000000004
80 ; 105794.98382919497 ; 303918.64998096426 ; 7197773.921737358 ; 2.0194744740072455E7 ; 19040.000000000004
81 ; 105840.11652358898 ; 305662.58222421823 ; 7303568.905566553 ; 2.049866339005342E7 ; 19278.000000000004
82 ; 105883.4792076787 ; 307414.79429122974 ; 7409409.022090142 ; 2.080432597227764E7 ; 19516.000000000004
83 ; 106048.52415725758 ; 309174.97031402495 ; 7515292.50129782 ; 2.111174076656887E7 ; 19754.000000000004
84 ; 106347.32168568739 ; 310942.8013502504 ; 7621341.025455078 ; 2.1420915736882895E7 ; 19992.000000000004
85 ; 106076.33329470735 ; 312717.9852399251 ; 7727688.347140766 ; 2.1731858538233146E7 ; 20230.000000000004
86 ; 106134.14269605109 ; 314500.22646149615 ; 7833764.680435473 ; 2.2044576523473073E7 ; 20468.000000000004
87 ; 106013.5819358111 ; 316289.23598761734 ; 7939898.823131524 ; 2.235907674993457E7 ; 20706.000000000004
88 ; 105945.35997731837 ; 318084.7311410291 ; 8045912.405067335 ; 2.2675365985922188E7 ; 20944.000000000004
89 ; 105636.34477144945 ; 319886.4354508827 ; 8151857.765044653 ; 2.299345071706322E7 ; 21182.000000000004
90 ; 105681.28309764124 ; 321694.0785098127 ; 8257494.109816102 ; 2.33133371525141E7 ; 21420.000000000004
91 ; 105607.5147447208 ; 323507.3958320346 ; 8363175.392913744 ; 2.363503123102391E7 ; 21658.000000000004
92 ; 105509.01227880403 ; 325326.1287127098 ; 8468782.907658465 ; 2.3958538626855947E7 ; 21896.000000000004
93 ; 105580.82780410687 ; 327150.0240887957 ; 8574291.91993727 ; 2.4283864755568657E7 ; 22134.000000000004
94 ; 105613.40987441663 ; 328978.8344015705 ; 8679872.747741377 ; 2.4611014779657453E7 ; 22372.000000000004
95 ; 104899.55421829036 ; 330812.3174610008 ; 8785486.157615794 ; 2.4939993614059024E7 ; 22610.000000000004
96 ; 104582.92156849657 ; 332650.236312096 ; 8890385.711834084 ; 2.5270805931520026E7 ; 22848.000000000004
97 ; 105331.99943244911 ; 334492.3591033756 ; 8994968.63340258 ; 2.560345616783212E7 ; 23086.000000000004
98 ; 104499.02023039924 ; 336338.4589575551 ; 9100300.632835029 ; 2.5937948526935495E7 ; 23324.000000000004
99 ; 104389.079330403 ; 338188.31384454196 ; 9204799.653065428 ; 2.6274286985893052E7 ; 23562.000000000004
100 ; 103969.27357775983 ; 340041.70645681414 ; 9309188.732395831 ; 2.6612475299737595E7 ; 23800.000000000004
101 ; 103664.7870669107 ; 341898.42408724374 ; 9413158.00597359 ; 2.695251700619441E7 ; 24038.000000000004
102 ; 103590.98398704123 ; 343758.2585094118 ; 9516822.793040501 ; 2.7294415430281654E7 ; 24276.000000000004
103 ; 103368.28325454672 ; 345621.0058604525 ; 9620413.777027542 ; 2.7638173688791066E7 ; 24514.000000000004
104 ; 102467.43298953473 ; 347486.4665264496 ; 9723782.060282089 ; 2.7983794694651518E7 ; 24752.000000000004
105 ; 102794.79287412802 ; 349354.4450304053 ; 9826249.493271623 ; 2.8331281161177967E7 ; 24990.000000000004
106 ; 102395.90008503871 ; 351224.7499227861 ; 9929044.28614575 ; 2.8680635606208373E7 ; 25228.000000000004
107 ; 102335.444924173 ; 353097.1936746474 ; 1.003144018623079E7 ; 2.903186035613116E7 ; 25466.000000000004
108 ; 102183.33822310291 ; 354971.59257333056 ; 1.0133775631154964E7 ; 2.9384957549805805E7 ; 25704.000000000004
109 ; 101399.6192557355 ; 356847.7666207184 ; 1.0235958969378067E7 ; 2.9739929142379135E7 ; 25942.000000000004
110 ; 101599.30408315819 ; 358725.53943403263 ; 1.0337358588633802E7 ; 3.0096776908999853E7 ; 26180.000000000004
111 ; 100681.6268409619 ; 360604.738149149 ; 1.043895789271696E7 ; 3.0455502448433887E7 ; 26418.000000000004
112 ; 100470.41423286939 ; 362485.1933264045 ; 1.0539639519557921E7 ; 3.0816107186583035E7 ; 26656.000000000004
113 ; 99869.61010131473 ; 364366.7388588641 ; 1.064010993379079E7 ; 3.117859237990944E7 ; 26894.000000000004
114 ; 99503.37995412326 ; 366249.21188301477 ; 1.0739979543892104E7 ; 3.1542959118768305E7 ; 27132.000000000004
115 ; 98593.42357995856 ; 368132.4526918492 ; 1.0839482923846228E7 ; 3.190920833065132E7 ; 27370.000000000004
116 ; 98812.95585406922 ; 370016.3046503003 ; 1.0938076347426187E7 ; 3.227734078334317E7 ; 27608.000000000004
117 ; 98450.99686916317 ; 371900.6141129854 ; 1.1036889303280257E7 ; 3.264735708799347E7 ; 27846.000000000004
118 ; 98267.19648733255 ; 373785.23034421745 ; 1.113534030014942E7 ; 3.3019257702106453E7 ; 28084.000000000004
119 ; 97728.4953837483 ; 375670.00544023915 ; 1.1233607496636752E7 ; 3.339304293245067E7 ; 28322.000000000004
120 ; 97195.40833610002 ; 377554.79425363475 ; 1.13313359920205E7 ; 3.376871293789091E7 ; 28560.000000000004
121 ; 96477.90575856171 ; 379439.45431987353 ; 1.14285314003566E7 ; 3.414626773214454E7 ; 28798.000000000004
122 ; 95811.57182977974 ; 381323.84578593815 ; 1.1525009306115162E7 ; 3.4525707186464414E7 ; 29036.000000000004
123 ; 95152.9169070961 ; 383207.8313409909 ; 1.162082087794494E7 ; 3.490703103225035E7 ; 29274.000000000004
124 ; 94764.40086678129 ; 385091.27614903025 ; 1.1715973794852037E7 ; 3.529023886359134E7 ; 29512.000000000004
125 ; 94080.86792643178 ; 386974.0477834908 ; 1.1810738195718817E7 ; 3.567533013974037E7 ; 29750.000000000004
126 ; 94244.54379387356 ; 388856.0161637385 ; 1.190481906364525E7 ; 3.6062304187523864E7 ; 29988.000000000004
127 ; 93391.56319567165 ; 390737.05349341396 ; 1.1999063607439123E7 ; 3.64511602036876E7 ; 30226.000000000004
128 ; 92792.0923550576 ; 392617.03420057794 ; 1.2092455170634795E7 ; 3.684189725718101E7 ; 30464.000000000004
129 ; 92164.44591078063 ; 394495.83487961104 ; 1.2185247262989853E7 ; 3.723451429138159E7 ; 30702.000000000004
130 ; 91892.7297607979 ; 396373.334234822 ; 1.2277411708900632E7 ; 3.7629010126261204E7 ; 30940.000000000004
131 ; 90916.26964270457 ; 398249.41302572004 ; 1.236930443866143E7 ; 3.802538346049602E7 ; 31178.000000000004
132 ; 90529.64626117694 ; 400123.9540139045 ; 1.2460220708304135E7 ; 3.8423632873521745E7 ; 31416.000000000004
133 ; 89861.48031791172 ; 401996.841911529 ; 1.2550750354565311E7 ; 3.882375682753565E7 ; 31654.000000000004
134 ; 89133.25934137165 ; 403867.96333129617 ; 1.2640611834883222E7 ; 3.922575366944718E7 ; 31892.000000000004
135 ; 88419.03425984077 ; 405737.20673793944 ; 1.2729745094224595E7 ; 3.962962163277848E7 ; 32130.000000000004
136 ; 87910.21167874911 ; 407604.46240115166 ; 1.2818164128484435E7 ; 4.003535883951642E7 ; 32368.000000000004
137 ; 87104.16137385648 ; 409469.6223499168 ; 1.2906074340163184E7 ; 4.0442963301917575E7 ; 32606.000000000004
138 ; 86869.55925570139 ; 411332.58032820746 ; 1.299317850153704E7 ; 4.085243292426749E7 ; 32844.00000000001
139 ; 85379.85809652144 ; 413193.2317520058 ; 1.308004806079274E7 ; 4.12637655045957E7 ; 33082.00000000001
140 ; 85398.11337663465 ; 415051.4736676119 ; 1.3165427918889262E7 ; 4.1676958736347705E7 ; 33320.00000000001
141 ; 84436.1286833953 ; 416907.2047111995 ; 1.3250826032265896E7 ; 4.209201021001532E7 ; 33558.00000000001
142 ; 83930.49535071198 ; 418760.3250695846 ; 1.3335262160949292E7 ; 4.250891741472652E7 ; 33796.00000000001
143 ; 82845.78306960953 ; 420610.73644216906 ; 1.3419192656300005E7 ; 4.29276777397961E7 ; 34034.00000000001
144 ; 82145.66964159567 ; 422458.3420040257 ; 1.3502038439369613E7 ; 4.334828847623827E7 ; 34272.00000000001
145 ; 81685.40270721892 ; 424303.0463700898 ; 1.3584184109011209E7 ; 4.37707468182423E7 ; 34510.00000000001
146 ; 81500.9651009733 ; 426144.7555604239 ; 1.3665869511718428E7 ; 4.4195049864612386E7 ; 34748.00000000001
147 ; 81821.24357384685 ; 427983.3769665244 ; 1.3747370476819402E7 ; 4.4621194620172806E7 ; 34986.00000000001
148 ; 81376.93071933399 ; 429818.8193186375 ; 1.3829191720393248E7 ; 4.504917799713933E7 ; 35224.00000000001
149 ; 81302.79677722167 ; 431650.99265405384 ; 1.3910568651112583E7 ; 4.5478996816457964E7 ; 35462.00000000001
150 ; 80541.42436857281 ; 433479.8082863534 ; 1.3991871447889805E7 ; 4.591064780911202E7 ; 35700.00000000001
151 ; 80152.18567702438 ; 435305.1787755697 ; 1.4072412872258378E7 ; 4.6344127617398374E7 ; 35938.00000000001
152 ; 79808.41236587582 ; 437127.0178992472 ; 1.4152565057935402E7 ; 4.6779432796173945E7 ; 36176.00000000001
153 ; 79941.43039975686 ; 438945.2406243624 ; 1.4232373470301278E7 ; 4.721655981407319E7 ; 36414.00000000001
154 ; 79796.9567325392 ; 440759.763080085 ; 1.4312314900701035E7 ; 4.765550505469755E7 ; 36652.00000000001
155 ; 79427.4053617914 ; 442570.5025313501 ; 1.4392111857433574E7 ; 4.809626481777763E7 ; 36890.00000000001
156 ; 79051.35297573773 ; 444377.37735321943 ; 1.4471539262795366E7 ; 4.853883532030898E7 ; 37128.00000000001
157 ; 78967.19979853663 ; 446180.3070060048 ; 1.4550590615771104E7 ; 4.8983212697662205E7 ; 37366.00000000001
158 ; 78820.56384307877 ; 447979.2120111321 ; 1.4629557815569641E7 ; 4.9429393004668206E7 ; 37604.00000000001
159 ; 78903.81593786013 ; 449774.0139277229 ; 1.470837837941272E7 ; 4.9877372216679335E7 ; 37842.00000000001
160 ; 78244.96934800215 ; 451564.6353298695 ; 1.478728219535058E7 ; 5.0327146230607055E7 ; 38080.00000000001
161 ; 77692.56112035713 ; 453350.9997845852 ; 1.4865527164698582E7 ; 5.077871086593693E7 ; 38318.00000000001
162 ; 77213.57195800223 ; 455133.0318304058 ; 1.494321972581894E7 ; 5.123206186572152E7 ; 38556.00000000001
163 ; 77070.61900729676 ; 456910.65695662523 ; 1.5020433297776941E7 ; 5.1687194897551924E7 ; 38794.00000000001
164 ; 77328.59598138108 ; 458683.80158314237 ; 1.5097503916784238E7 ; 5.214410555450855E7 ; 39032.00000000001
165 ; 76899.42007801143 ; 460452.3930409033 ; 1.517483251276562E7 ; 5.260278935609169E7 ; 39270.00000000001
166 ; 76591.32289871546 ; 462216.35955291946 ; 1.5251731932843631E7 ; 5.3063241749132596E7 ; 39508.00000000001
167 ; 75558.8101703024 ; 463975.6302158424 ; 1.5328323255742347E7 ; 5.3525458108685516E7 ; 39746.00000000001
168 ; 75778.02474346232 ; 465730.13498208096 ; 1.5403882065912649E7 ; 5.398943373890136E7 ; 39984.00000000001
169 ; 75535.86796935345 ; 467479.8046424413 ; 1.5479660090656111E7 ; 5.445516387388344E7 ; 40222.00000000001
170 ; 75320.76658972674 ; 469224.5708092757 ; 1.5555195958625464E7 ; 5.492264367852588E7 ; 40460.00000000001
171 ; 74807.3551769117 ; 470964.3659001235 ; 1.5630516725215191E7 ; 5.5391868249335155E7 ; 40698.00000000001
172 ; 74056.49326392554 ; 472524.5573354972 ; 1.5705324080392104E7 ; 5.586283261523528E7 ; 40936.00000000001
173 ; 73871.36791251018 ; 472524.5573354972 ; 1.577938057365603E7 ; 5.633535717257077E7 ; 41174.00000000001
174 ; 73943.53763517995 ; 472524.5573354972 ; 1.585325194156854E7 ; 5.680788172990627E7 ; 41412.00000000001
175 ; 73936.25379950309 ; 472524.5573354972 ; 1.592719547920372E7 ; 5.7280406287241764E7 ; 41650.00000000001
176 ; 73860.33437050437 ; 472524.5573354972 ; 1.6001131733003223E7 ; 5.775293084457726E7 ; 41888.00000000001
177 ; 74331.28024736265 ; 472524.5573354972 ; 1.6074992067373728E7 ; 5.8225455401912756E7 ; 42126.00000000001
178 ; 73971.02136453317 ; 472524.5573354972 ; 1.614932334762109E7 ; 5.869797995924825E7 ; 42364.00000000001
179 ; 74284.21919304394 ; 472524.5573354972 ; 1.6223294368985623E7 ; 5.917050451658375E7 ; 42602.00000000001
180 ; 74073.47053772648 ; 472524.5573354972 ; 1.6297578588178666E7 ; 5.9643029073919244E7 ; 42840.00000000001
181 ; 74440.48276778214 ; 472524.5573354972 ; 1.6371652058716392E7 ; 6.011555363125474E7 ; 43078.00000000001
