CSV File for the Network on Day 142
1 - Minute m 
2 - Power Consumed at minute m 
3 - Power Produced at minute m 
4 - Energy Consumed since the beginning of the day 
5 - Energy Produced since the beginning of the day 
6 - Energy Lost since the beginning of the day 
 
No Production city : 2, Producer : 1
No Production city : 4, Producer : 1
No Production city : 4, Producer : 1
 
0 ; 51488.68274087925 ; 167131.65734032058 ; 0.0 ; 0.0 ; 0.0
1 ; 53345.94389080409 ; 166790.49165213484 ; 51488.68274087925 ; 167131.65734032058 ; 238.00000000000003
2 ; 53920.41377615188 ; 166484.16379241212 ; 104834.62663168335 ; 333922.14899245545 ; 476.00000000000006
3 ; 55353.311339679545 ; 166213.0239681629 ; 158755.04040783521 ; 500406.3127848676 ; 714.0000000000001
4 ; 56635.252123725026 ; 165977.3857588221 ; 214108.35174751477 ; 666619.3367530305 ; 952.0000000000001
5 ; 57443.87500148587 ; 165777.5244698404 ; 270743.6038712398 ; 832596.7225118526 ; 1190.0000000000002
6 ; 59076.85671062327 ; 165613.67566111663 ; 328187.4788727257 ; 998374.246981693 ; 1428.0000000000002
7 ; 59907.385836352885 ; 165486.03386840926 ; 387264.33558334893 ; 1163987.9226428096 ; 1666.0000000000002
8 ; 60707.26897723737 ; 165394.75153382882 ; 447171.7214197018 ; 1329473.9565112188 ; 1904.0000000000002
9 ; 62063.623860898835 ; 165339.938159129 ; 507878.9903969392 ; 1494868.7080450477 ; 2142.0000000000005
10 ; 63227.90262529024 ; 165321.65969281495 ; 569942.6142578381 ; 1660208.6462041768 ; 2380.0000000000005
11 ; 63908.28963317344 ; 165339.938159129 ; 633170.5168831283 ; 1825530.3058969919 ; 2618.0000000000005
12 ; 64983.7321016286 ; 165394.75153382882 ; 697078.8065163018 ; 1990870.244056121 ; 2856.0000000000005
13 ; 65981.11942500644 ; 165486.03386840926 ; 762062.5386179304 ; 2156264.9955899497 ; 3094.0000000000005
14 ; 67139.73777925636 ; 165613.67566111652 ; 828043.6580429368 ; 2321751.029458359 ; 3332.0000000000005
15 ; 68319.12518770258 ; 165777.5244698404 ; 895183.3958221932 ; 2487364.7051194753 ; 3570.0000000000005
16 ; 68895.61026141838 ; 165977.3857588221 ; 963502.5210098958 ; 2653142.2295893156 ; 3808.0000000000005
17 ; 70436.39304124584 ; 166213.0239681628 ; 1032398.1312713142 ; 2819119.615348138 ; 4046.0000000000005
18 ; 71179.96361952525 ; 166484.16379241212 ; 1102834.52431256 ; 2985332.639316301 ; 4284.000000000001
19 ; 72064.87208960316 ; 166790.49165213484 ; 1174014.4879320853 ; 3151816.803108713 ; 4522.000000000001
20 ; 72862.28885347524 ; 167131.65734032067 ; 1246079.3600216885 ; 3318607.294760848 ; 4760.000000000001
21 ; 73730.71681241225 ; 167507.27582386896 ; 1318941.6488751639 ; 3485738.9521011687 ; 4998.000000000001
22 ; 74552.33286959886 ; 167916.92917915536 ; 1392672.3656875761 ; 3653246.2279250375 ; 5236.000000000001
23 ; 75566.54596365991 ; 168360.16863988512 ; 1467224.698557175 ; 3821163.157104193 ; 5474.000000000001
24 ; 76421.8186402942 ; 168836.51673504993 ; 1542791.2445208349 ; 3989523.325744078 ; 5712.000000000001
25 ; 77445.8723550316 ; 169345.46949481644 ; 1619213.0631611291 ; 4158359.842479128 ; 5950.000000000001
26 ; 78502.44247607162 ; 169886.49870255793 ; 1696658.9355161607 ; 4327705.311973944 ; 6188.000000000001
27 ; 79390.46643111168 ; 170459.0541719645 ; 1775161.3779922323 ; 4497591.810676502 ; 6426.000000000001
28 ; 79885.53468363191 ; 171062.56602918057 ; 1854551.844423344 ; 4668050.864848467 ; 6664.000000000001
29 ; 80815.39488174033 ; 171696.44698119382 ; 1934437.3791069759 ; 4839113.430877647 ; 6902.000000000001
30 ; 81678.50399707217 ; 172360.09455316342 ; 2015252.7739887163 ; 5010809.877858841 ; 7140.000000000001
31 ; 82414.63537264003 ; 173052.89327900863 ; 2096931.2779857884 ; 5183169.972412004 ; 7378.000000000001
32 ; 83209.30577047943 ; 173774.216831303 ; 2179345.9133584285 ; 5356222.865691013 ; 7616.000000000001
33 ; 83717.39102520084 ; 174523.4300783157 ; 2262555.219128908 ; 5529997.082522316 ; 7854.000000000001
34 ; 84375.84544918207 ; 175299.8910578487 ; 2346272.610154109 ; 5704520.512600631 ; 8092.000000000001
35 ; 85209.7535458579 ; 176102.95285931244 ; 2430648.4556032913 ; 5879820.40365848 ; 8330.000000000002
36 ; 85493.9893688995 ; 176931.96540721826 ; 2515858.2091491492 ; 6055923.356517793 ; 8568.000000000002
37 ; 86524.4362497938 ; 177786.2771409298 ; 2601352.198518049 ; 6232855.3219250105 ; 8806.000000000002
38 ; 87408.75854339189 ; 178665.23658707336 ; 2687876.634767843 ; 6410641.59906594 ; 9044.000000000002
39 ; 88048.92245792874 ; 179568.19382245067 ; 2775285.3933112347 ; 6589306.835653014 ; 9282.000000000002
40 ; 88664.53072853178 ; 180494.50182660858 ; 2863334.3157691634 ; 6768875.0294754645 ; 9520.000000000002
41 ; 89255.62510256332 ; 181443.51772439803 ; 2951998.8464976954 ; 6949369.531302073 ; 9758.000000000002
42 ; 90024.5518093825 ; 182414.6039198901 ; 3041254.4716002587 ; 7130813.049026471 ; 9996.000000000002
43 ; 90628.2729115722 ; 183407.12912391665 ; 3131279.0234096413 ; 7313227.65294636 ; 10234.000000000002
44 ; 90631.57500963032 ; 184420.4692782594 ; 3221907.2963212137 ; 7496634.782070277 ; 10472.000000000002
45 ; 91824.20623261498 ; 185454.00838014804 ; 3312538.8713308442 ; 7681055.251348536 ; 10710.000000000002
46 ; 91822.90995367961 ; 186507.1392112316 ; 3404363.077563459 ; 7866509.259728684 ; 10948.000000000002
47 ; 92733.6347508475 ; 187579.26397558316 ; 3496185.9875171385 ; 8053016.398939916 ; 11186.000000000002
48 ; 93346.57260858508 ; 188669.79485158788 ; 3588919.622267986 ; 8240595.662915499 ; 11424.000000000002
49 ; 93898.54597242361 ; 189778.15446275935 ; 3682266.194876571 ; 8429265.457767086 ; 11662.000000000002
50 ; 94425.06990901237 ; 190903.77627264417 ; 3776164.740848995 ; 8619043.612229845 ; 11900.000000000002
51 ; 95378.25573391358 ; 192046.1049090094 ; 3870589.810758007 ; 8809947.388502488 ; 12138.000000000002
52 ; 95559.13201119038 ; 193204.59642249174 ; 3965968.066491921 ; 9001993.493411498 ; 12376.000000000002
53 ; 95735.47406011312 ; 194378.71848480238 ; 4061527.1985031115 ; 9195198.08983399 ; 12614.000000000002
54 ; 96288.87173614657 ; 195567.95053146683 ; 4157262.6725632246 ; 9389576.808318792 ; 12852.000000000002
55 ; 96759.94799151484 ; 196771.78385391762 ; 4253551.544299372 ; 9585144.758850258 ; 13090.000000000002
56 ; 97304.4998943813 ; 197989.7216455755 ; 4350311.492290886 ; 9781916.542704176 ; 13328.000000000002
57 ; 98149.60664978629 ; 199221.27900634366 ; 4447615.992185268 ; 9979906.264349751 ; 13566.000000000002
58 ; 97479.26439484447 ; 200465.98290971798 ; 4545765.598835054 ; 1.0179127543356095E7 ; 13804.000000000002
59 ; 98838.80330968265 ; 201723.37213648428 ; 4643244.863229899 ; 1.0379593526265813E7 ; 14042.000000000002
60 ; 98612.73248957391 ; 202992.99717872788 ; 4742083.6665395815 ; 1.0581316898402298E7 ; 14280.000000000002
61 ; 99099.05480173844 ; 204274.4201176444 ; 4840696.399029155 ; 1.0784309895581026E7 ; 14518.000000000002
62 ; 99107.98816107272 ; 205567.2144783968 ; 4939795.453830894 ; 1.098858431569867E7 ; 14756.000000000002
63 ; 99131.53437629575 ; 206870.9650650251 ; 5038903.441991967 ; 1.1194151530177068E7 ; 14994.000000000002
64 ; 100103.15524852258 ; 208185.26777818688 ; 5138034.976368263 ; 1.1401022495242093E7 ; 15232.000000000002
65 ; 100407.73485188163 ; 209509.72941827934 ; 5238138.131616786 ; 1.1609207763020279E7 ; 15470.000000000002
66 ; 100689.60413342324 ; 210843.96747628154 ; 5338545.866468668 ; 1.1818717492438558E7 ; 15708.000000000002
67 ; 101011.02498913472 ; 212187.6099144479 ; 5439235.470602091 ; 1.202956145991484E7 ; 15946.000000000002
68 ; 100927.97470477843 ; 213540.2949387923 ; 5540246.495591226 ; 1.2241749069829289E7 ; 16184.000000000002
69 ; 100949.20194312674 ; 214901.6707651157 ; 5641174.470296005 ; 1.245528936476808E7 ; 16422.000000000004
70 ; 100849.04030490175 ; 216271.39538016077 ; 5742123.672239131 ; 1.2670191035533195E7 ; 16660.000000000004
71 ; 101824.69198382553 ; 217649.13629931383 ; 5842972.712544033 ; 1.2886462430913355E7 ; 16898.000000000004
72 ; 101555.9207693762 ; 219034.57032212638 ; 5944797.404527859 ; 1.310411156721267E7 ; 17136.000000000004
73 ; 102473.50528616228 ; 220427.3832867881 ; 6046353.325297235 ; 1.3323146137534795E7 ; 17374.000000000004
74 ; 102078.71433294746 ; 221827.26982455526 ; 6148826.830583397 ; 1.3543573520821583E7 ; 17612.000000000004
75 ; 102406.56292786196 ; 223233.9331150212 ; 6250905.544916345 ; 1.3765400790646138E7 ; 17850.000000000004
76 ; 102121.34717035554 ; 224647.08464300522 ; 6353312.1078442065 ; 1.3988634723761158E7 ; 18088.000000000004
77 ; 102877.07266522391 ; 226066.44395773808 ; 6455433.455014562 ; 1.4213281808404163E7 ; 18326.000000000004
78 ; 102767.3065246737 ; 227491.73843493275 ; 6558310.527679786 ; 1.4439348252361901E7 ; 18564.000000000004
79 ; 102559.68169779985 ; 228922.70304224276 ; 6661077.83420446 ; 1.4666839990796834E7 ; 18802.000000000004
80 ; 102830.02439016741 ; 230359.08010854176 ; 6763637.515902259 ; 1.4895762693839077E7 ; 19040.000000000004
81 ; 102638.70821003718 ; 231800.61909738375 ; 6866467.540292427 ; 1.5126121773947619E7 ; 19278.000000000004
82 ; 102932.17233610021 ; 233247.07638494845 ; 6969106.248502464 ; 1.5357922393045003E7 ; 19516.000000000004
83 ; 102878.58880610259 ; 234698.21504271688 ; 7072038.420838565 ; 1.5591169469429951E7 ; 19754.000000000004
84 ; 102970.27661290702 ; 236153.80462507615 ; 7174917.009644668 ; 1.5825867684472669E7 ; 19992.000000000004
85 ; 103467.9029777623 ; 237613.62096200723 ; 7277887.286257574 ; 1.6062021489097744E7 ; 20230.000000000004
86 ; 103163.19205326313 ; 239077.4459569705 ; 7381355.189235337 ; 1.6299635110059751E7 ; 20468.000000000004
87 ; 102912.70754484125 ; 240545.06739006992 ; 7484518.3812886 ; 1.653871255601672E7 ; 20706.000000000004
88 ; 102767.47105707199 ; 242016.27872654426 ; 7587431.088833441 ; 1.677925762340679E7 ; 20944.000000000004
89 ; 102880.58094002596 ; 243490.87893061052 ; 7690198.559890513 ; 1.7021273902133334E7 ; 21182.000000000004
90 ; 103066.10486990226 ; 244968.6722846555 ; 7793079.140830539 ; 1.7264764781063944E7 ; 21420.000000000004
91 ; 102291.11119236547 ; 246449.4682137562 ; 7896145.245700441 ; 1.75097334533486E7 ; 21658.000000000004
92 ; 102664.09889812919 ; 247933.08111548846 ; 7998436.3568928065 ; 1.7756182921562355E7 ; 21896.000000000004
93 ; 102606.00279205367 ; 249419.3301949692 ; 8101100.455790936 ; 1.8004116002677843E7 ; 22134.000000000004
94 ; 102391.57295439634 ; 250908.03930506288 ; 8203706.45858299 ; 1.825353533287281E7 ; 22372.000000000004
95 ; 102207.88590375954 ; 252399.0367916746 ; 8306098.031537387 ; 1.8504443372177873E7 ; 22610.000000000004
96 ; 102033.86593628976 ; 253892.15534403868 ; 8408305.917441146 ; 1.8756842408969548E7 ; 22848.000000000004
97 ; 101455.80364971087 ; 255387.23184990688 ; 8510339.783377437 ; 1.9010734564313587E7 ; 23086.000000000004
98 ; 101811.85983574096 ; 256884.10725553258 ; 8611795.587027147 ; 1.9266121796163492E7 ; 23324.000000000004
99 ; 101327.42109389503 ; 258382.62643034244 ; 8713607.446862888 ; 1.9523005903419025E7 ; 23562.000000000004
100 ; 101126.41063602564 ; 259882.63803618235 ; 8814934.867956782 ; 1.978138852984937E7 ; 23800.000000000004
101 ; 101182.68728148297 ; 261383.99440102262 ; 8916061.278592808 ; 2.0041271167885553E7 ; 24038.000000000004
102 ; 100518.6792614351 ; 262886.5513970038 ; 9017243.965874292 ; 2.0302655162286576E7 ; 24276.000000000004
103 ; 100621.91954700626 ; 264390.1683227041 ; 9117762.645135727 ; 2.056554171368358E7 ; 24514.000000000004
104 ; 99790.0859514416 ; 265894.7077895079 ; 9218384.564682733 ; 2.0829931882006284E7 ; 24752.000000000004
105 ; 100063.64402504085 ; 267400.03561195603 ; 9318174.650634175 ; 2.109582658979579E7 ; 24990.000000000004
106 ; 99652.76999351283 ; 268906.0207019561 ; 9418238.294659216 ; 2.1363226625407748E7 ; 25228.000000000004
107 ; 99392.24976165229 ; 270412.5349667362 ; 9517891.064652728 ; 2.1632132646109704E7 ; 25466.000000000004
108 ; 99386.36303597808 ; 271919.4532104215 ; 9617283.31441438 ; 2.190254518107644E7 ; 25704.000000000004
109 ; 98662.55505535903 ; 273426.653039119 ; 9716669.677450359 ; 2.2174464634286862E7 ; 25942.000000000004
110 ; 97952.71395563541 ; 274934.01476939523 ; 9815332.232505718 ; 2.2447891287325982E7 ; 26180.000000000004
111 ; 97998.79540544737 ; 276441.4213400349 ; 9913284.946461353 ; 2.2722825302095376E7 ; 26418.000000000004
112 ; 97708.17177927507 ; 277948.7582269686 ; 1.0011283741866801E7 ; 2.299926672343541E7 ; 26656.000000000004
113 ; 97167.78104881139 ; 279455.91336126276 ; 1.0108991913646076E7 ; 2.3277215481662378E7 ; 26894.000000000004
114 ; 96829.66883221352 ; 280962.7770500666 ; 1.0206159694694888E7 ; 2.355667139502364E7 ; 27132.000000000004
115 ; 96582.7822047011 ; 282469.24190041213 ; 1.03029893635271E7 ; 2.3837634172073707E7 ; 27370.000000000004
116 ; 95492.23063905067 ; 283975.2027457665 ; 1.0399572145731801E7 ; 2.4120103413974117E7 ; 27608.000000000004
117 ; 95402.31971108931 ; 285480.55657524185 ; 1.0495064376370851E7 ; 2.4404078616719883E7 ; 27846.000000000004
118 ; 94626.88309735831 ; 286985.20246536366 ; 1.059046669608194E7 ; 2.4689559173295125E7 ; 28084.000000000004
119 ; 94138.89663003618 ; 288489.0415143095 ; 1.0685093579179298E7 ; 2.497654437576049E7 ; 28322.000000000004
120 ; 93336.89022535484 ; 289991.9767785262 ; 1.0779232475809334E7 ; 2.52650334172748E7 ; 28560.000000000004
121 ; 93242.70181469237 ; 291493.91321164044 ; 1.0872569366034688E7 ; 2.5555025394053325E7 ; 28798.000000000004
122 ; 92523.07164419732 ; 292994.757605578 ; 1.096581206784938E7 ; 2.5846519307264965E7 ; 29036.000000000004
123 ; 92306.82970685171 ; 294494.418533811 ; 1.1058335139493579E7 ; 2.6139514064870544E7 ; 29274.000000000004
124 ; 91745.39337796235 ; 295992.8062966552 ; 1.115064196920043E7 ; 2.6434008483404353E7 ; 29512.000000000004
125 ; 91072.45856850511 ; 297489.83286854066 ; 1.1242387362578392E7 ; 2.6730001289701007E7 ; 29750.000000000004
126 ; 90232.94696210217 ; 298985.4118471828 ; 1.1333459821146898E7 ; 2.7027491122569546E7 ; 29988.000000000004
127 ; 89952.71221915045 ; 300479.4584045843 ; 1.1423692768109E7 ; 2.7326476534416728E7 ; 30226.000000000004
128 ; 89052.18642397592 ; 301971.88923979795 ; 1.151364548032815E7 ; 2.7626955992821313E7 ; 30464.000000000004
129 ; 88875.32944887287 ; 303462.62253338646 ; 1.1602697666752126E7 ; 2.7928927882061113E7 ; 30702.000000000004
130 ; 87761.92034690092 ; 304951.57790351345 ; 1.1691572996201E7 ; 2.8232390504594497E7 ; 30940.000000000004
131 ; 87137.42173844582 ; 306438.67636360787 ; 1.17793349165479E7 ; 2.853734208249801E7 ; 31178.000000000004
132 ; 86972.0887309154 ; 307923.8402815397 ; 1.1866472338286346E7 ; 2.8843780758861616E7 ; 31416.000000000004
133 ; 85776.04420339073 ; 309406.99334025267 ; 1.195344442701726E7 ; 2.9151704599143155E7 ; 31654.000000000004
134 ; 85124.11207687402 ; 310888.060499797 ; 1.2039220471220652E7 ; 2.946111159248341E7 ; 31892.000000000004
135 ; 84171.35244508364 ; 312366.9679607124 ; 1.2124344583297526E7 ; 2.9771999652983207E7 ; 32130.000000000004
136 ; 83960.03328956697 ; 313843.6431287087 ; 1.220851593574261E7 ; 3.008436662094392E7 ; 32368.000000000004
137 ; 82887.00934981766 ; 315318.01458059566 ; 1.2292475969032176E7 ; 3.0398210264072627E7 ; 32606.000000000004
138 ; 82054.51239319886 ; 316790.0120314158 ; 1.2375362978381993E7 ; 3.0713528278653223E7 ; 32844.00000000001
139 ; 81780.88224586993 ; 318259.5663027355 ; 1.2457417490775192E7 ; 3.103031829068464E7 ; 33082.00000000001
140 ; 80808.71743010609 ; 319726.6092920485 ; 1.2539198373021062E7 ; 3.1348577856987376E7 ; 33320.00000000001
141 ; 80116.92865163514 ; 321191.07394325396 ; 1.2620007090451168E7 ; 3.1668304466279425E7 ; 33558.00000000001
142 ; 79102.88655450435 ; 322652.8942181659 ; 1.2700124019102803E7 ; 3.198949554022268E7 ; 33796.00000000001
143 ; 78148.59450117944 ; 324112.00506901706 ; 1.2779226905657306E7 ; 3.2312148434440844E7 ; 34034.00000000001
144 ; 77183.70431078176 ; 325568.3424119189 ; 1.2857375500158485E7 ; 3.263626043950986E7 ; 34272.00000000001
145 ; 77472.05037763243 ; 327021.84310124395 ; 1.2934559204469267E7 ; 3.296182878192178E7 ; 34510.00000000001
146 ; 76853.1680800078 ; 328472.44490489387 ; 1.3012031254846899E7 ; 3.3288850625023026E7 ; 34748.00000000001
147 ; 76956.2295904406 ; 329920.08648042264 ; 1.3088884422926906E7 ; 3.361732306992792E7 ; 34986.00000000001
148 ; 76238.70428738254 ; 331364.70735198143 ; 1.3165840652517347E7 ; 3.394724315640835E7 ; 35224.00000000001
149 ; 76631.63122401644 ; 332806.2478880562 ; 1.3242079356804729E7 ; 3.427860786376033E7 ; 35462.00000000001
150 ; 76089.81737353909 ; 334244.64927996683 ; 1.3318710988028744E7 ; 3.461141411164839E7 ; 35700.00000000001
151 ; 76028.11529286942 ; 335679.8535211022 ; 1.3394800805402283E7 ; 3.4945658760928355E7 ; 35938.00000000001
152 ; 75861.77563530537 ; 337111.8033868619 ; 1.3470828920695152E7 ; 3.528133861444946E7 ; 36176.00000000001
153 ; 75246.4149444208 ; 338540.4424152806 ; 1.3546690696330458E7 ; 3.5618450417836316E7 ; 36414.00000000001
154 ; 74844.88488921986 ; 339965.7148883074 ; 1.362193711127488E7 ; 3.59569908602516E7 ; 36652.00000000001
155 ; 74652.47541645214 ; 341387.5658137201 ; 1.3696781996164098E7 ; 3.62969565751399E7 ; 36890.00000000001
156 ; 74487.15490408603 ; 342805.94090764737 ; 1.377143447158055E7 ; 3.663834414095362E7 ; 37128.00000000001
157 ; 74612.1333330489 ; 344220.786577679 ; 1.3845921626484636E7 ; 3.698115008186127E7 ; 37366.00000000001
158 ; 73996.50775752502 ; 345632.0499065422 ; 1.3920533759817686E7 ; 3.732537086843895E7 ; 37604.00000000001
159 ; 73685.71903719146 ; 347039.67863632436 ; 1.3994530267575212E7 ; 3.7671002918345496E7 ; 37842.00000000001
160 ; 73129.09777482694 ; 348443.6211532203 ; 1.4068215986612404E7 ; 3.801804259698182E7 ; 38080.00000000001
161 ; 73243.1559647523 ; 349843.82647278754 ; 1.4141345084387232E7 ; 3.8366486218135044E7 ; 38318.00000000001
162 ; 72966.78864901302 ; 351240.24422569084 ; 1.4214588240351984E7 ; 3.871633004460783E7 ; 38556.00000000001
163 ; 72383.79110500278 ; 352632.8246439169 ; 1.4287555029000998E7 ; 3.906757028883352E7 ; 38794.00000000001
164 ; 72539.22515217401 ; 354021.51854744426 ; 1.4359938820106E7 ; 3.942020311347744E7 ; 39032.00000000001
165 ; 71690.2071602471 ; 355406.27733135177 ; 1.4432478045258174E7 ; 3.9774224632024884E7 ; 39270.00000000001
166 ; 71711.57240523795 ; 356787.0529533492 ; 1.4504168252418421E7 ; 4.012963090935624E7 ; 39508.00000000001
167 ; 71644.31812598888 ; 358163.797921716 ; 1.4575879824823659E7 ; 4.0486417962309584E7 ; 39746.00000000001
168 ; 70780.21978760557 ; 359536.46528363356 ; 1.4647524142949648E7 ; 4.08445817602313E7 ; 39984.00000000001
169 ; 70351.05303143452 ; 360905.0086138969 ; 1.4718304362737253E7 ; 4.120411822551493E7 ; 40222.00000000001
170 ; 70374.45850643757 ; 362269.382003992 ; 1.4788655415768689E7 ; 4.156502323412883E7 ; 40460.00000000001
171 ; 69851.12550952064 ; 363629.54005152767 ; 1.4859029874275126E7 ; 4.1927292616132826E7 ; 40698.00000000001
172 ; 70059.47683742769 ; 364985.4378500078 ; 1.4928880999784647E7 ; 4.229092215618435E7 ; 40936.00000000001
173 ; 69539.19938755721 ; 366337.0309789324 ; 1.4998940476622075E7 ; 4.265590759403436E7 ; 41174.00000000001
174 ; 69440.64680402988 ; 367684.27549421776 ; 1.5068479676009633E7 ; 4.302224462501329E7 ; 41412.00000000001
175 ; 69674.90513152377 ; 369027.1279189213 ; 1.5137920322813662E7 ; 4.338992890050751E7 ; 41650.00000000001
176 ; 69863.675612746 ; 370365.54523426504 ; 1.5207595227945186E7 ; 4.375895602842643E7 ; 41888.00000000001
177 ; 70083.1217838012 ; 371699.48487094324 ; 1.5277458903557932E7 ; 4.4129321573660694E7 ; 42126.00000000001
178 ; 70001.25682604362 ; 373028.90470070706 ; 1.5347542025341732E7 ; 4.4501021058531635E7 ; 42364.00000000001
179 ; 70334.44036145182 ; 374353.76302821585 ; 1.5417543282167776E7 ; 4.487404996323234E7 ; 42602.00000000001
180 ; 70200.63310949426 ; 375674.0185831458 ; 1.5487877722529227E7 ; 4.524840372626056E7 ; 42840.00000000001
181 ; 70133.41158714666 ; 376989.63051254826 ; 1.5558078355638722E7 ; 4.562407774484371E7 ; 43078.00000000001
