CSV File for the Network on Day 216
1 - Minute m 
2 - Power Consumed at minute m 
3 - Power Produced at minute m 
4 - Energy Consumed since the beginning of the day 
5 - Energy Produced since the beginning of the day 
6 - Energy Lost since the beginning of the day 
 
0 ; 483556.0622355027 ; 2.1060376573328555E8 ; 0.0 ; 0.0 ; 0.0
1 ; 487382.3364758146 ; 2.10907816399872E8 ; 483556.0622355027 ; 2.1060376573328555E8 ; 356.14
2 ; 493132.133328945 ; 2.118295678286525E8 ; 970938.3987113172 ; 4.2151158213315755E8 ; 712.28
3 ; 497081.0402943085 ; 2.133690397548359E8 ; 1464070.5320402621 ; 6.333411499618101E8 ; 1068.42
4 ; 501498.0181898629 ; 2.1552625089703304E8 ; 1961151.5723345706 ; 8.46710189716646E8 ; 1424.56
5 ; 507154.9897520436 ; 2.1830121856775188E8 ; 2462649.5905244336 ; 1.0622364406136789E9 ; 1780.6999999999998
6 ; 511609.69906718575 ; 2.2169395827696437E8 ; 2969804.580276477 ; 1.2805376591814308E9 ; 2136.8399999999997
7 ; 515401.0091423824 ; 2.257044833467527E8 ; 3481414.279343663 ; 1.5022316174583952E9 ; 2492.9799999999996
8 ; 521629.0288602592 ; 2.3033280455710006E8 ; 3996815.2884860453 ; 1.727936100805148E9 ; 2849.1199999999994
9 ; 523845.1780605649 ; 2.3557892984332347E8 ; 4518444.317346305 ; 1.958268905362248E9 ; 3205.2599999999993
10 ; 527625.9718479953 ; 2.4144286406412357E8 ; 5042289.49540687 ; 2.193847835205571E9 ; 3561.399999999999
11 ; 530821.5890692356 ; 2.479246088556692E8 ; 5569915.467254865 ; 2.435290699269695E9 ; 3917.539999999999
12 ; 536349.3217830715 ; 2.5502416258179146E8 ; 6100737.0563241 ; 2.683215308125364E9 ; 4273.679999999999
13 ; 538135.5219597239 ; 2.6274152038378972E8 ; 6637086.3781071715 ; 2.938239470707155E9 ; 4629.82
14 ; 544305.8176378984 ; 2.710766743263471E8 ; 7175221.900066895 ; 3.200980991090945E9 ; 4985.96
15 ; 547724.9405666341 ; 2.8002961362948024E8 ; 7719527.717704793 ; 3.4720576654172916E9 ; 5342.1
16 ; 551097.1214296675 ; 2.896003249711071E8 ; 8267252.658271427 ; 3.752087279046772E9 ; 5698.240000000001
17 ; 554792.7686650896 ; 2.9978879284125566E8 ; 8818349.779701095 ; 4.041687604017879E9 ; 6054.380000000001
18 ; 558687.2537852211 ; 3.105949999274179E8 ; 9373142.548366185 ; 4.341476396859135E9 ; 6410.520000000001
19 ; 561998.6163736287 ; 3.220189275109831E8 ; 9931829.802151406 ; 4.652071396786552E9 ; 6766.660000000002
20 ; 567214.16644987 ; 3.3406055585674226E8 ; 1.0493828418525035E7 ; 4.974090324297536E9 ; 7122.800000000002
21 ; 569304.7565769076 ; 3.46719864580632E8 ; 1.1061042584974904E7 ; 5.308150880154278E9 ; 7478.940000000002
22 ; 574774.1253007656 ; 3.599968329846418E8 ; 1.163034734155181E7 ; 5.65487074473491E9 ; 7835.080000000003
23 ; 578361.8633263407 ; 3.7389144035164917E8 ; 1.2205121466852576E7 ; 6.014867577719552E9 ; 8191.220000000003
24 ; 582852.9488310303 ; 3.884036661964855E8 ; 1.2783483330178916E7 ; 6.388759018071201E9 ; 8547.360000000002
25 ; 586781.2263075379 ; 4.0090957226889384E8 ; 1.3366336279009948E7 ; 6.777162684267687E9 ; 8903.500000000002
26 ; 589898.5866749305 ; 4.0091623479104495E8 ; 1.3953117505317485E7 ; 7.178072256536581E9 ; 9259.640000000001
27 ; 593316.9908469456 ; 4.009231736314553E8 ; 1.4543016091992415E7 ; 7.578988491327626E9 ; 9615.78
28 ; 597945.8612025004 ; 4.009303708872918E8 ; 1.513633308283936E7 ; 7.979911664959082E9 ; 9971.92
29 ; 600326.9022817998 ; 4.009378095290328E8 ; 1.5734278944041861E7 ; 8.380842035846374E9 ; 10328.06
30 ; 604233.8173993834 ; 4.009454734329058E8 ; 1.6334605846323662E7 ; 8.781779845375406E9 ; 10684.199999999999
31 ; 608432.8833194707 ; 4.0095334739225316E8 ; 1.6938839663723044E7 ; 9.182725318808311E9 ; 11040.339999999998
32 ; 611106.3326591488 ; 4.009614171121154E8 ; 1.7547272547042515E7 ; 9.583678666200565E9 ; 11396.479999999998
33 ; 615171.9950910454 ; 4.009696691908357E8 ; 1.8158378879701663E7 ; 9.984640083312681E9 ; 11752.619999999997
34 ; 619527.1127750287 ; 4.009780910919727E8 ; 1.877355087479271E7 ; 1.0385609752503517E10 ; 12108.759999999997
35 ; 621459.034400383 ; 4.0098667110928416E8 ; 1.9393077987567738E7 ; 1.078658784359549E10 ; 12464.899999999996
36 ; 624240.128952966 ; 4.009953983270626E8 ; 2.001453702196812E7 ; 1.1187574514704773E10 ; 12821.039999999995
37 ; 629081.5103155958 ; 4.0100426257765496E8 ; 2.0638777150921084E7 ; 1.1588569913031836E10 ; 13177.179999999995
38 ; 631502.360503944 ; 4.0101325439761853E8 ; 2.126785866123668E7 ; 1.1989574175609491E10 ; 13533.319999999994
39 ; 634555.5584287149 ; 4.010223649836322E8 ; 2.1899361021740627E7 ; 1.239058743000711E10 ; 13889.459999999994
40 ; 637767.3374223545 ; 4.010315861490061E8 ; 2.2533916580169342E7 ; 1.2791609794990744E10 ; 14245.599999999993
41 ; 642125.415144747 ; 4.010409102814076E8 ; 2.31716839175917E7 ; 1.319264138113975E10 ; 14601.739999999993
42 ; 643693.8301839437 ; 4.010503303022375E8 ; 2.3813809332736444E7 ; 1.3593682291421158E10 ; 14957.879999999992
43 ; 645685.9022654826 ; 4.010598396279457E8 ; 2.4457503162920386E7 ; 1.3994732621723396E10 ; 15314.019999999991
44 ; 648730.8626019021 ; 4.010694321334615E8 ; 2.5103189065185867E7 ; 1.4395792461351341E10 ; 15670.15999999999
45 ; 652643.6127447641 ; 4.010791021178261E8 ; 2.575191992778777E7 ; 1.4796861893484802E10 ; 16026.29999999999
46 ; 654405.9014964486 ; 4.0108884427205086E8 ; 2.6404563540532533E7 ; 1.5197940995602629E10 ; 16382.43999999999
47 ; 658006.8370089245 ; 4.0109865364917326E8 ; 2.705896944202898E7 ; 1.559902983987468E10 ; 16738.57999999999
48 ; 660643.1084539598 ; 4.011085256364498E8 ; 2.7716976279037904E7 ; 1.6000128493523853E10 ; 17094.71999999999
49 ; 663210.0979037614 ; 4.011184559296013E8 ; 2.8377619387491863E7 ; 1.6401237019160303E10 ; 17450.85999999999
50 ; 664202.3733191078 ; 4.011284405090072E8 ; 2.9040829485395625E7 ; 1.6802355475089905E10 ; 17806.99999999999
51 ; 666294.8095729707 ; 4.011384756177409E8 ; 2.9705031858714733E7 ; 1.720348391559891E10 ; 18163.13999999999
52 ; 667709.7103637578 ; 4.011485577413292E8 ; 3.0371326668287706E7 ; 1.7604622391216652E10 ; 18519.279999999988
53 ; 670195.5190980892 ; 4.0115868358912057E8 ; 3.1039036378651462E7 ; 1.800577094895798E10 ; 18875.419999999987
54 ; 670517.8298517914 ; 4.011688500771482E8 ; 3.170923189774955E7 ; 1.84069296325471E10 ; 19231.559999999987
55 ; 674403.1580244307 ; 4.011790543123764E8 ; 3.2379749727601342E7 ; 1.880809848262425E10 ; 19587.699999999986
56 ; 676108.7461102403 ; 4.0118929357822514E8 ; 3.3054152885625772E7 ; 1.9209277536936626E10 ; 19943.839999999986
57 ; 679831.7200873762 ; 4.011995653212715E8 ; 3.373026163173601E7 ; 1.961046683051485E10 ; 20299.979999999985
58 ; 682404.1632451756 ; 4.0120986713903344E8 ; 3.441009335182339E7 ; 2.001166639583612E10 ; 20656.119999999984
59 ; 684402.5722171431 ; 4.0122019676874924E8 ; 3.509249751506857E7 ; 2.0412876262975155E10 ; 21012.259999999984
60 ; 687101.7747785139 ; 4.0123055207706726E8 ; 3.577690008728571E7 ; 2.0814096459743904E10 ; 21368.399999999983
61 ; 690637.3711246845 ; 4.0124093105057347E8 ; 3.646400186206423E7 ; 2.1215327011820972E10 ; 21724.539999999983
62 ; 692025.8643358123 ; 4.0125133178708404E8 ; 3.715463923318891E7 ; 2.1616567942871548E10 ; 22080.679999999982
63 ; 693242.6776748995 ; 4.012617524876392E8 ; 3.7846665097524725E7 ; 2.201781927465863E10 ; 22436.81999999998
64 ; 694478.6990580559 ; 4.0127219144913906E8 ; 3.853990777519962E7 ; 2.241908102714627E10 ; 22792.95999999998
65 ; 696630.529869857 ; 4.012826470575668E8 ; 3.923438647425768E7 ; 2.282035321859541E10 ; 23149.09999999998
66 ; 702534.3611363458 ; 4.0129311778174937E8 ; 3.993101700412753E7 ; 2.3221635865652977E10 ; 23505.23999999998
67 ; 702589.2778221589 ; 4.013036021676097E8 ; 4.063355136526388E7 ; 2.3622928983434727E10 ; 23861.37999999998
68 ; 705051.1080916831 ; 4.0131409883286977E8 ; 4.133614064308604E7 ; 2.4024232585602337E10 ; 24217.51999999998
69 ; 707528.4368845223 ; 4.013246064621651E8 ; 4.204119175117772E7 ; 2.4425546684435207E10 ; 24573.659999999978
70 ; 707541.1622969192 ; 4.0133512380253726E8 ; 4.274872018806224E7 ; 2.4826871290897373E10 ; 24929.799999999977
71 ; 709990.6908705846 ; 4.013456496592716E8 ; 4.3456261350359164E7 ; 2.522820641469991E10 ; 25285.939999999977
72 ; 711834.2326987103 ; 4.013561828920522E8 ; 4.416625204122975E7 ; 2.562955206435918E10 ; 25642.079999999976
73 ; 712938.9399010569 ; 4.0136672241140676E8 ; 4.4878086273928456E7 ; 2.6030908247251232E10 ; 25998.219999999976
74 ; 714625.1834541352 ; 4.013772671754185E8 ; 4.559102521382951E7 ; 2.643227496966264E10 ; 26354.359999999975
75 ; 716284.4354841404 ; 4.013878161866821E8 ; 4.630565039728364E7 ; 2.683365223683806E10 ; 26710.499999999975
76 ; 718537.0226175013 ; 4.013983684894841E8 ; 4.7021934832767785E7 ; 2.7235040053024742E10 ; 27066.639999999974
77 ; 718755.6164397333 ; 4.014089231671894E8 ; 4.774047185538529E7 ; 2.7636438421514225E10 ; 27422.779999999973
78 ; 719699.5018558995 ; 4.0141947933981794E8 ; 4.845922747182502E7 ; 2.8037847344681416E10 ; 27778.919999999973
79 ; 721682.7834784883 ; 4.0143003616179466E8 ; 4.917892697368092E7 ; 2.8439266824021233E10 ; 28135.059999999972
80 ; 723922.9512118069 ; 4.014405928198607E8 ; 4.990060975715941E7 ; 2.884069686018303E10 ; 28491.19999999997
81 ; 725007.9134242106 ; 4.014511485311317E8 ; 5.062453270837122E7 ; 2.924213745300289E10 ; 28847.33999999997
82 ; 726663.4130811172 ; 4.014617025412925E8 ; 5.134954062179543E7 ; 2.9643588601534023E10 ; 29203.47999999997
83 ; 729496.8242083997 ; 4.014722541229174E8 ; 5.207620403487655E7 ; 3.0045050304075317E10 ; 29559.61999999997
84 ; 732207.0948139015 ; 4.014828025739058E8 ; 5.280570085908495E7 ; 3.0446522558198235E10 ; 29915.75999999997
85 ; 733379.4526480318 ; 4.0149334721602476E8 ; 5.353790795389885E7 ; 3.084800536077214E10 ; 30271.89999999997
86 ; 736080.5509171867 ; 4.015038873935505E8 ; 5.4271287406546876E7 ; 3.1249498707988167E10 ; 30628.039999999968
87 ; 737175.454933541 ; 4.015144224720007E8 ; 5.500736795746406E7 ; 3.1651002595381718E10 ; 30984.179999999968
88 ; 738344.2122771611 ; 4.015249518369516E8 ; 5.57445434123976E7 ; 3.2052517017853718E10 ; 31340.319999999967
89 ; 739789.5013895411 ; 4.015354748929328E8 ; 5.648288762467476E7 ; 3.245404196969067E10 ; 31696.459999999966
90 ; 741180.9974007189 ; 4.0154599106239426E8 ; 5.72226771260643E7 ; 3.2855577444583603E10 ; 32052.599999999966
91 ; 740259.2822005036 ; 4.015564997847409E8 ; 5.796385812346502E7 ; 3.3257123435645996E10 ; 32408.739999999965
92 ; 742859.3987775961 ; 4.015670005154284E8 ; 5.870411740566552E7 ; 3.3658679935430737E10 ; 32764.879999999965
93 ; 745817.9346999843 ; 4.0157749272511756E8 ; 5.944697680444311E7 ; 3.4060246935946163E10 ; 33121.01999999997
94 ; 747146.2416360156 ; 4.015879758988812E8 ; 6.0192794739143096E7 ; 3.446182442867128E10 ; 33477.15999999997
95 ; 748349.289035543 ; 4.0159844953546154E8 ; 6.093994098077911E7 ; 3.486341240457016E10 ; 33833.29999999997
96 ; 749964.4597841236 ; 4.016089131465733E8 ; 6.1688290269814655E7 ; 3.526501085410562E10 ; 34189.439999999966
97 ; 750602.856459144 ; 4.016193662562498E8 ; 6.2438254729598776E7 ; 3.56666197672522E10 ; 34545.579999999965
98 ; 751539.1208307267 ; 4.0162980840022933E8 ; 6.318885758605792E7 ; 3.6068239133508446E10 ; 34901.719999999965
99 ; 750434.785622554 ; 4.0164023912537825E8 ; 6.3940396706888646E7 ; 3.6469868941908676E10 ; 35257.859999999964
100 ; 752668.6107115834 ; 4.01650657989149E8 ; 6.46908314925112E7 ; 3.687150918103406E10 ; 35613.99999999996
101 ; 754983.1078762085 ; 4.016610645590707E8 ; 6.544350010322278E7 ; 3.727315983902321E10 ; 35970.13999999996
102 ; 758141.2382237185 ; 4.016714584122695E8 ; 6.619848321109899E7 ; 3.767482090358228E10 ; 36326.27999999996
103 ; 758548.3884126531 ; 4.016818391350169E8 ; 6.695662444932271E7 ; 3.807649236199455E10 ; 36682.41999999996
104 ; 758533.4515712044 ; 4.016922063223053E8 ; 6.771517283773535E7 ; 3.847817420112957E10 ; 37038.55999999996
105 ; 759395.5701333954 ; 4.0170255957744694E8 ; 6.847370628930657E7 ; 3.887986640745187E10 ; 37394.69999999996
106 ; 760971.2008791838 ; 4.017128985116963E8 ; 6.923310185943995E7 ; 3.928156896702932E10 ; 37750.83999999996
107 ; 761479.8615756866 ; 4.017232227438942E8 ; 6.999407306031914E7 ; 3.9683281865541016E10 ; 38106.97999999996
108 ; 763116.3226663257 ; 4.017335319001319E8 ; 7.075555292189483E7 ; 4.008500508828491E10 ; 38463.11999999996
109 ; 764696.5752206974 ; 4.017438256134333E8 ; 7.151866924456117E7 ; 4.048673862018504E10 ; 38819.25999999996
110 ; 765526.7200796199 ; 4.01754103523456E8 ; 7.228336581978187E7 ; 4.088848244579848E10 ; 39175.39999999996
111 ; 765227.9673434555 ; 4.017643652762078E8 ; 7.304889253986149E7 ; 4.129023654932193E10 ; 39531.53999999996
112 ; 767790.4789944486 ; 4.017746105237793E8 ; 7.381412050720493E7 ; 4.169200091459814E10 ; 39887.67999999996
113 ; 768592.3827713602 ; 4.0178483892409074E8 ; 7.458191098619938E7 ; 4.209377552512192E10 ; 40243.819999999956
114 ; 767828.450739254 ; 4.0179505014065295E8 ; 7.535050336897074E7 ; 4.2495560364046005E10 ; 40599.959999999955
115 ; 770956.8989911609 ; 4.0180524384234023E8 ; 7.611833181970999E7 ; 4.289735541418666E10 ; 40956.099999999955
116 ; 769594.9467546775 ; 4.018154197031764E8 ; 7.688928871870115E7 ; 4.3299160658029E10 ; 41312.239999999954
117 ; 770170.544505601 ; 4.01825577402131E8 ; 7.765888366545583E7 ; 4.370097607773218E10 ; 41668.379999999954
118 ; 772706.7698982655 ; 4.0183571662292755E8 ; 7.842905420996143E7 ; 4.410280165513431E10 ; 42024.51999999995
119 ; 773257.1877211087 ; 4.0184583705386037E8 ; 7.92017609798597E7 ; 4.450463737175723E10 ; 42380.65999999995
120 ; 774124.6896280869 ; 4.0185593838762164E8 ; 7.99750181675808E7 ; 4.49064832088111E10 ; 42736.79999999995
121 ; 774687.8834719417 ; 4.0186602032113755E8 ; 8.074914285720888E7 ; 4.5308339147198715E10 ; 43092.93999999995
122 ; 775446.2672453023 ; 4.0187608255541205E8 ; 8.152383074068081E7 ; 4.571020516751985E10 ; 43449.07999999995
123 ; 775532.3407029022 ; 4.0188612479537934E8 ; 8.229927700792612E7 ; 4.6112081250075264E10 ; 43805.21999999995
124 ; 776411.087997498 ; 4.0189614674976325E8 ; 8.307480934862903E7 ; 4.651396737487064E10 ; 44161.35999999995
125 ; 775537.1694247164 ; 4.0190614813094366E8 ; 8.385122043662652E7 ; 4.691586352162041E10 ; 44517.49999999995
126 ; 774933.9997732176 ; 4.019161286548302E8 ; 8.462675760605124E7 ; 4.731776966975135E10 ; 44873.63999999995
127 ; 772606.4322530509 ; 4.019260880407412E8 ; 8.540169160582446E7 ; 4.771968579840618E10 ; 45229.77999999995
128 ; 773987.5024002051 ; 4.019360260112895E8 ; 8.61742980380775E7 ; 4.812161188644692E10 ; 45585.91999999995
129 ; 774140.4748621483 ; 4.019459422922729E8 ; 8.694828554047771E7 ; 4.852354791245821E10 ; 45942.05999999995
130 ; 773680.5830325587 ; 4.019558366125715E8 ; 8.772242601533985E7 ; 4.892549385475049E10 ; 46298.199999999946
131 ; 774536.0412362808 ; 4.019657087040478E8 ; 8.849610659837241E7 ; 4.932744969136306E10 ; 46654.339999999946
132 ; 773811.9498100223 ; 4.019755583014535E8 ; 8.92706426396087E7 ; 4.972941540006711E10 ; 47010.479999999945
133 ; 772430.7909232442 ; 4.0198538514233994E8 ; 9.004445458941872E7 ; 5.013139095836856E10 ; 47366.619999999944
134 ; 773780.1739225524 ; 4.019951889669726E8 ; 9.081688538034196E7 ; 5.05333763435109E10 ; 47722.759999999944
135 ; 774549.7993035646 ; 4.020049695182502E8 ; 9.159066555426452E7 ; 5.0935371532477875E10 ; 48078.89999999994
136 ; 776431.710060083 ; 4.0201472654162705E8 ; 9.236521535356808E7 ; 5.1337376501996124E10 ; 48435.03999999994
137 ; 775876.9450095309 ; 4.020244597850394E8 ; 9.314164706362817E7 ; 5.173939122853775E10 ; 48791.17999999994
138 ; 776927.7190773791 ; 4.020341689988354E8 ; 9.39175240086377E7 ; 5.214141568832279E10 ; 49147.31999999994
139 ; 776297.7411202257 ; 4.0204385393570733E8 ; 9.469445172771508E7 ; 5.2543449857321625E10 ; 49503.45999999994
140 ; 775547.9881969839 ; 4.0205351435062814E8 ; 9.54707494688353E7 ; 5.294549371125733E10 ; 49859.59999999994
141 ; 773935.0604555603 ; 4.020631500007905E8 ; 9.624629745703228E7 ; 5.334754722560796E10 ; 50215.73999999994
142 ; 776231.191303194 ; 4.0207276064554775E8 ; 9.702023251748784E7 ; 5.374961037560876E10 ; 50571.87999999994
143 ; 775768.2428206354 ; 4.020823460463592E8 ; 9.779646370879103E7 ; 5.41516831362543E10 ; 50928.01999999994
144 ; 777729.5568834898 ; 4.020919059667363E8 ; 9.857223195161167E7 ; 5.455376548230066E10 ; 51284.15999999994
145 ; 778696.9025270884 ; 4.0210144017219245E8 ; 9.934996150849515E7 ; 5.4955857388267395E10 ; 51640.29999999994
146 ; 778052.9784778509 ; 4.0211094843019414E8 ; 1.0012865841102225E8 ; 5.535795882843959E10 ; 51996.43999999994
147 ; 779975.7248638404 ; 4.0212043051011467E8 ; 1.009067113895001E8 ; 5.576006977686978E10 ; 52352.579999999936
148 ; 782011.6752346623 ; 4.0212988618319035E8 ; 1.0168668711436394E8 ; 5.61621902073799E10 ; 52708.719999999936
149 ; 784821.9224709877 ; 4.0213931522247756E8 ; 1.024686987895986E8 ; 5.656432009356309E10 ; 53064.859999999935
150 ; 787352.5895439255 ; 4.021487174028131E8 ; 1.0325352071206959E8 ; 5.696645940878557E10 ; 53420.999999999935
151 ; 787777.0625430288 ; 4.0215809250077486E8 ; 1.0404087330161351E8 ; 5.7368608126188385E10 ; 53777.139999999934
152 ; 788819.0304853787 ; 4.021674402946452E8 ; 1.0482865036415654E8 ; 5.777076621868916E10 ; 54133.27999999993
153 ; 790766.9188334798 ; 4.021767605643759E8 ; 1.0561746939464192E8 ; 5.817293365898381E10 ; 54489.41999999993
154 ; 793039.5709949129 ; 4.021860530915537E8 ; 1.064082363134754E8 ; 5.857511041954819E10 ; 54845.55999999993
155 ; 795570.6154185637 ; 4.021953176593685E8 ; 1.0720127588447031E8 ; 5.897729647263974E10 ; 55201.69999999993
156 ; 798908.0551984685 ; 4.022045540525826E8 ; 1.0799684649988888E8 ; 5.937949179029911E10 ; 55557.83999999993
157 ; 801227.2374423057 ; 4.022137620575004E8 ; 1.0879575455508736E8 ; 5.978169634435169E10 ; 55913.97999999993
158 ; 802583.7770430733 ; 4.0222294146194077E8 ; 1.0959698179252966E8 ; 6.0183910106409195E10 ; 56270.11999999993
159 ; 803444.0690293963 ; 4.022320920552097E8 ; 1.1039956556957273E8 ; 6.058613304787114E10 ; 56626.25999999993
160 ; 805496.7390593771 ; 4.022412136280742E8 ; 1.1120300963860212E8 ; 6.0988365139926346E10 ; 56982.39999999993
161 ; 807758.7610630866 ; 4.0225030597273797E8 ; 1.120085063776615E8 ; 6.139060635355442E10 ; 57338.53999999993
162 ; 807428.612476709 ; 4.0225936888281703E8 ; 1.1281626513872458E8 ; 6.179285665952716E10 ; 57694.67999999993
163 ; 808781.873322944 ; 4.0226840215331745E8 ; 1.1362369375120129E8 ; 6.219511602840998E10 ; 58050.81999999993
164 ; 811570.2145723251 ; 4.022774055806135E8 ; 1.1443247562452424E8 ; 6.25973844305633E10 ; 58406.95999999993
165 ; 812957.8742503824 ; 4.022863789624265E8 ; 1.1524404583909656E8 ; 6.299966183614391E10 ; 58763.099999999926
166 ; 814734.6197250816 ; 4.0229532209780514E8 ; 1.1605700371334694E8 ; 6.340194821510634E10 ; 59119.239999999925
167 ; 816125.8909590668 ; 4.0230423478710634E8 ; 1.1687173833307202E8 ; 6.380424353720415E10 ; 59475.379999999925
168 ; 818033.942820297 ; 4.023131168319769E8 ; 1.1768786422403109E8 ; 6.420654777199126E10 ; 59831.519999999924
169 ; 818819.69527699 ; 4.023219680353359E8 ; 1.1850589816685139E8 ; 6.4608860888823235E10 ; 60187.65999999992
170 ; 820413.5293178312 ; 4.023307882013581E8 ; 1.1932471786212838E8 ; 6.5011182856858574E10 ; 60543.79999999992
171 ; 822426.910351485 ; 4.023395771354575E8 ; 1.201451313914462E8 ; 6.541351364505993E10 ; 60899.93999999992
172 ; 824896.2967027907 ; 4.0234833464427257E8 ; 1.2096755830179769E8 ; 6.581585322219539E10 ; 61256.07999999992
173 ; 826616.7111895528 ; 4.0235706053565085E8 ; 1.2179245459850048E8 ; 6.621820155683966E10 ; 61612.21999999992
174 ; 827822.6879910651 ; 4.0236575461863506E8 ; 1.2261907130969003E8 ; 6.662055861737531E10 ; 61968.35999999992
175 ; 831058.7319201534 ; 4.0237441670344996E8 ; 1.234468939976811E8 ; 6.702292437199395E10 ; 62324.49999999992
176 ; 832541.7905309625 ; 4.023830466014887E8 ; 1.2427795272960125E8 ; 6.74252987886974E10 ; 62680.63999999992
177 ; 836216.2400777122 ; 4.023916441253012E8 ; 1.2511049452013221E8 ; 6.782768183529889E10 ; 63036.77999999992
