CSV File for the Network on Day 212
1 - Minute m 
2 - Power Consumed at minute m 
3 - Power Produced at minute m 
4 - Energy Consumed since the beginning of the day 
5 - Energy Produced since the beginning of the day 
6 - Energy Lost since the beginning of the day 
 
No Production city : 2, Producer : 1
No Production city : 4, Producer : 1
No Production city : 4, Producer : 1
 
0 ; 26855.435380308736 ; 110750.64767975776 ; 0.0 ; 0.0 ; 0.0
1 ; 28655.685803229964 ; 110249.47897553816 ; 26855.435380308736 ; 110750.64767975776 ; 238.00000000000003
2 ; 30227.803601863325 ; 109795.75434774443 ; 55511.1211835387 ; 221000.12665529593 ; 476.00000000000006
3 ; 32275.483631495965 ; 109391.10401803942 ; 85738.92478540202 ; 330795.88100304035 ; 714.0000000000001
4 ; 33826.74275966734 ; 109037.0436937898 ; 118014.40841689799 ; 440186.9850210798 ; 952.0000000000001
5 ; 35988.812872503404 ; 108734.94980724472 ; 151841.15117656533 ; 549224.0287148696 ; 1190.0000000000002
6 ; 38045.80705341227 ; 108486.03547656692 ; 187829.96404906875 ; 657958.9785221143 ; 1428.0000000000002
7 ; 39470.85960392667 ; 108291.32807349367 ; 225875.771102481 ; 766445.0139986812 ; 1666.0000000000002
8 ; 41208.64678322795 ; 108151.64930056193 ; 265346.63070640765 ; 874736.3420721749 ; 1904.0000000000002
9 ; 42858.04043599144 ; 108067.59863914645 ; 306555.2774896356 ; 982887.9913727369 ; 2142.0000000000005
10 ; 45055.63763266499 ; 108039.54092452952 ; 349413.31792562705 ; 1090955.5900118833 ; 2380.0000000000005
11 ; 46036.76015136328 ; 108067.59863914645 ; 394468.95555829204 ; 1198995.1309364128 ; 2618.0000000000005
12 ; 47861.42168853726 ; 108151.64930056193 ; 440505.7157096553 ; 1307062.7295755593 ; 2856.0000000000005
13 ; 49315.196794175645 ; 108291.32807349367 ; 488367.13739819254 ; 1415214.3788761212 ; 3094.0000000000005
14 ; 50784.6231191586 ; 108486.03547656682 ; 537682.3341923682 ; 1523505.706949615 ; 3332.0000000000005
15 ; 52245.2939126689 ; 108734.94980724472 ; 588466.9573115268 ; 1631991.7424261817 ; 3570.0000000000005
16 ; 54037.46094515169 ; 109037.0436937898 ; 640712.2512241957 ; 1740726.6922334265 ; 3808.0000000000005
17 ; 55430.92105877203 ; 109391.1040180393 ; 694749.7121693473 ; 1849763.7359272162 ; 4046.0000000000005
18 ; 57163.80174921168 ; 109795.75434774454 ; 750180.6332281193 ; 1959154.8399452555 ; 4284.000000000001
19 ; 58339.63195251054 ; 110249.47897553816 ; 807344.434977331 ; 2068950.5942930002 ; 4522.000000000001
20 ; 60103.580982281215 ; 110750.64767975788 ; 865684.0669298415 ; 2179200.0732685383 ; 4760.000000000001
21 ; 61558.430216359055 ; 111297.54039130469 ; 925787.6479121228 ; 2289950.720948296 ; 4998.000000000001
22 ; 62925.54108706008 ; 111888.37105785211 ; 987346.0781284819 ; 2401248.2613396007 ; 5236.000000000001
23 ; 63940.119137123336 ; 112521.31012793165 ; 1050271.619215542 ; 2513136.632397453 ; 5474.000000000001
24 ; 65739.0316417921 ; 113194.50521898991 ; 1114211.7383526652 ; 2625657.9425253845 ; 5712.000000000001
25 ; 66385.28085196343 ; 113906.09967357651 ; 1179950.7699944573 ; 2738852.447744374 ; 5950.000000000001
26 ; 68099.71162310381 ; 114654.2488371614 ; 1246336.0508464207 ; 2852758.547417951 ; 6188.000000000001
27 ; 68996.41840459521 ; 115437.13400349973 ; 1314435.7624695245 ; 2967412.796255112 ; 6426.000000000001
28 ; 70218.50375390623 ; 116252.97406557418 ; 1383432.1808741197 ; 3082849.9302586117 ; 6664.000000000001
29 ; 71784.06549165436 ; 117100.03498101945 ; 1453650.684628026 ; 3199102.904324186 ; 6902.000000000001
30 ; 72637.01114767032 ; 117976.63721144215 ; 1525434.7501196805 ; 3316202.9393052054 ; 7140.000000000001
31 ; 74344.18993196668 ; 118881.16132733572 ; 1598071.7612673508 ; 3434179.5765166474 ; 7378.000000000001
32 ; 75391.78842162172 ; 119812.05198715866 ; 1672415.9511993174 ; 3553060.737843983 ; 7616.000000000001
33 ; 76648.51217688582 ; 120767.82050366707 ; 1747807.7396209391 ; 3672872.7898311415 ; 7854.000000000001
34 ; 77687.34703151797 ; 121747.04620577095 ; 1824456.2517978249 ; 3793640.6103348085 ; 8092.000000000001
35 ; 79207.70668585542 ; 122748.37679271626 ; 1902143.5988293428 ; 3915387.6565405796 ; 8330.000000000002
36 ; 80344.4269636618 ; 123770.52786161851 ; 1981351.3055151983 ; 4038136.033333296 ; 8568.000000000002
37 ; 80909.20975126563 ; 124812.28177115862 ; 2061695.73247886 ; 4161906.5611949144 ; 8806.000000000002
38 ; 82153.17339365043 ; 125872.48598506894 ; 2142604.942230126 ; 4286718.842966073 ; 9044.000000000002
39 ; 83194.91177057094 ; 126950.05101995575 ; 2224758.1156237763 ; 4412591.328951142 ; 9282.000000000002
40 ; 84285.12648607434 ; 128043.94810377157 ; 2307953.0273943474 ; 4539541.379971097 ; 9520.000000000002
41 ; 84993.67490542054 ; 129153.20663435527 ; 2392238.1538804215 ; 4667585.328074869 ; 9758.000000000002
42 ; 85885.64145939247 ; 130276.9115121555 ; 2477231.8287858423 ; 4796738.5347092245 ; 9996.000000000002
43 ; 87288.57441557254 ; 131414.20040767943 ; 2563117.4702452347 ; 4927015.44622138 ; 10234.000000000002
44 ; 88162.98136656251 ; 132564.2610123507 ; 2650406.044660807 ; 5058429.646629059 ; 10472.000000000002
45 ; 89298.33805891513 ; 133726.3283112605 ; 2738569.02602737 ; 5190993.90764141 ; 10710.000000000002
46 ; 89809.00197090281 ; 134899.68190762767 ; 2827867.364086285 ; 5324720.235952671 ; 10948.000000000002
47 ; 91093.44377653896 ; 136083.6434215097 ; 2917676.366057188 ; 5459619.917860298 ; 11186.000000000002
48 ; 91557.52566934106 ; 137277.57397926558 ; 3008769.809833727 ; 5595703.561281808 ; 11424.000000000002
49 ; 92175.52540763565 ; 138480.87180531654 ; 3100327.335503068 ; 5732981.135261074 ; 11662.000000000002
50 ; 93347.91282686996 ; 139692.96992372646 ; 3192502.8609107034 ; 5871462.0070663905 ; 11900.000000000002
51 ; 94628.66892728883 ; 140913.33397389407 ; 3285850.7737375735 ; 6011154.976990117 ; 12138.000000000002
52 ; 95216.63247601906 ; 142141.46014209767 ; 3380479.442664862 ; 6152068.310964011 ; 12376.000000000002
53 ; 96041.17175827612 ; 143376.8732086359 ; 3475696.0751408814 ; 6294209.771106108 ; 12614.000000000002
54 ; 96234.30430770598 ; 144619.12470878148 ; 3571737.2468991573 ; 6437586.644314744 ; 12852.000000000002
55 ; 96783.07389613082 ; 145867.79120462033 ; 3667971.5512068635 ; 6582205.769023525 ; 13090.000000000002
56 ; 97687.31775724418 ; 147122.47266401202 ; 3764754.6251029945 ; 6728073.560228145 ; 13328.000000000002
57 ; 98460.9750241621 ; 148382.79094232782 ; 3862441.9428602387 ; 6875196.032892156 ; 13566.000000000002
58 ; 98652.0588183192 ; 149648.388362239 ; 3960902.917884401 ; 7023578.823834484 ; 13804.000000000002
59 ; 99327.36404210328 ; 150918.92638660857 ; 4059554.9767027204 ; 7173227.212196724 ; 14042.000000000002
60 ; 100326.00388122766 ; 152194.08437944044 ; 4158882.3407448237 ; 7324146.138583332 ; 14280.000000000002
61 ; 100972.42251109786 ; 153473.55844984142 ; 4259208.344626051 ; 7476340.2229627725 ; 14518.000000000002
62 ; 101332.86126196168 ; 154757.06037402255 ; 4360180.767137149 ; 7629813.781412614 ; 14756.000000000002
63 ; 101876.31184096517 ; 156044.31659049293 ; 4461513.628399111 ; 7784570.841786636 ; 14994.000000000002
64 ; 102559.32781565069 ; 157335.0672637674 ; 4563389.940240077 ; 7940615.158377129 ; 15232.000000000002
65 ; 103515.4070832693 ; 158629.0654121005 ; 4665949.268055728 ; 8097950.225640896 ; 15470.000000000002
66 ; 103224.34421528621 ; 159926.0760949711 ; 4769464.675138997 ; 8256579.291052996 ; 15708.000000000002
67 ; 103830.98139165837 ; 161225.87565626373 ; 4872689.019354283 ; 8416505.367147967 ; 15946.000000000002
68 ; 104488.42402663018 ; 162528.25101931771 ; 4976520.000745941 ; 8577731.242804231 ; 16184.000000000002
69 ; 104633.7411774883 ; 163832.9990302402 ; 5081008.424772571 ; 8740259.493823549 ; 16422.000000000004
70 ; 104808.28604975488 ; 165139.9258461023 ; 5185642.165950059 ; 8904092.492853789 ; 16660.000000000004
71 ; 105864.59971947364 ; 166448.84636485227 ; 5290450.451999814 ; 9069232.41869989 ; 16898.000000000004
72 ; 106469.34879835715 ; 167759.5836939891 ; 5396315.051719288 ; 9235681.265064742 ; 17136.000000000004
73 ; 105910.17897439633 ; 169071.9686552378 ; 5502784.400517645 ; 9403440.848758731 ; 17374.000000000004
74 ; 106624.3308045807 ; 170385.83932266018 ; 5608694.579492042 ; 9572512.817413969 ; 17612.000000000004
75 ; 106809.7361299255 ; 171701.04059180996 ; 5715318.910296623 ; 9742898.65673663 ; 17850.000000000004
76 ; 107233.6443949983 ; 173017.4237777153 ; 5822128.646426548 ; 9914599.697328439 ; 18088.000000000004
77 ; 107051.02538676836 ; 174334.84623962682 ; 5929362.290821547 ; 1.0087617121106155E7 ; 18326.000000000004
78 ; 107248.45209342396 ; 175653.1710306213 ; 6036413.316208315 ; 1.0261951967345782E7 ; 18564.000000000004
79 ; 107543.84342063838 ; 176972.26657028723 ; 6143661.768301739 ; 1.0437605138376404E7 ; 18802.000000000004
80 ; 107752.8802602954 ; 178292.00633885164 ; 6251205.611722378 ; 1.061457740494669E7 ; 19040.000000000004
81 ; 107918.0598110011 ; 179612.2685912248 ; 6358958.491982673 ; 1.0792869411285542E7 ; 19278.000000000004
82 ; 108107.95729778348 ; 180932.93608955527 ; 6466876.551793674 ; 1.0972481679876767E7 ; 19516.000000000004
83 ; 108147.1612434968 ; 182253.89585298864 ; 6574984.509091457 ; 1.1153414615966322E7 ; 19754.000000000004
84 ; 108623.39563438515 ; 183575.0389234221 ; 6683131.670334954 ; 1.133566851181931E7 ; 19992.000000000004
85 ; 108510.38096768332 ; 184896.26014613587 ; 6791755.065969339 ; 1.1519243550742732E7 ; 20230.000000000004
86 ; 108689.49373245539 ; 186217.4579642649 ; 6900265.446937022 ; 1.1704139810888868E7 ; 20468.000000000004
87 ; 108849.23818157827 ; 187538.5342261517 ; 7008954.940669477 ; 1.1890357268853134E7 ; 20706.000000000004
88 ; 108605.18682313486 ; 188859.3940046906 ; 7117804.178851055 ; 1.2077895803079285E7 ; 20944.000000000004
89 ; 108277.11360065037 ; 190179.94542784232 ; 7226409.36567419 ; 1.2266755197083976E7 ; 21182.000000000004
90 ; 108853.73275180216 ; 191500.09951955377 ; 7334686.479274841 ; 1.2456935142511819E7 ; 21420.000000000004
91 ; 108653.18764426948 ; 192819.77005037805 ; 7443540.212026644 ; 1.2648435242031373E7 ; 21658.000000000004
92 ; 108770.79470112498 ; 194138.87339713902 ; 7552193.399670913 ; 1.2841255012081752E7 ; 21896.000000000004
93 ; 108143.95158170711 ; 195457.3284110336 ; 7660964.194372037 ; 1.3035393885478891E7 ; 22134.000000000004
94 ; 108388.606163266 ; 196775.0562936077 ; 7769108.145953745 ; 1.3230851213889925E7 ; 22372.000000000004
95 ; 108344.99470686837 ; 198091.9804800842 ; 7877496.752117011 ; 1.3427626270183533E7 ; 22610.000000000004
96 ; 108074.77729360301 ; 199408.0265295583 ; 7985841.746823879 ; 1.3625718250663618E7 ; 22848.000000000004
97 ; 107436.54001727022 ; 200723.12202160875 ; 8093916.524117482 ; 1.3825126277193176E7 ; 23086.000000000004
98 ; 107335.5140531096 ; 202037.19645890905 ; 8201353.064134752 ; 1.4025849399214784E7 ; 23324.000000000004
99 ; 107243.44931025497 ; 203350.18117544847 ; 8308688.578187862 ; 1.4227886595673693E7 ; 23562.000000000004
100 ; 107051.48043114819 ; 204662.00925000323 ; 8415932.027498117 ; 1.4431236776849141E7 ; 23800.000000000004
101 ; 106571.05322320214 ; 205972.61542452237 ; 8522983.507929265 ; 1.4635898786099145E7 ; 24038.000000000004
102 ; 106418.02485723366 ; 207281.93602711541 ; 8629554.561152468 ; 1.4841871401523668E7 ; 24276.000000000004
103 ; 105828.62302766634 ; 208589.9088993526 ; 8735972.586009702 ; 1.5049153337550784E7 ; 24514.000000000004
104 ; 106001.54521856028 ; 209896.4733276069 ; 8841801.209037367 ; 1.5257743246450135E7 ; 24752.000000000004
105 ; 105345.55477705802 ; 211201.5699781865 ; 8947802.754255928 ; 1.5467639719777742E7 ; 24990.000000000004
106 ; 105192.15324385549 ; 212505.14083602332 ; 9053148.309032986 ; 1.567884128975593E7 ; 25228.000000000004
107 ; 104622.38798564959 ; 213807.129146699 ; 9158340.46227684 ; 1.5891346430591952E7 ; 25466.000000000004
108 ; 104296.30495274242 ; 215107.47936160507 ; 9262962.850262491 ; 1.610515355973865E7 ; 25704.000000000004
109 ; 103465.22106272215 ; 216406.13708604677 ; 9367259.155215234 ; 1.6320261039100256E7 ; 25942.000000000004
110 ; 103339.90574312684 ; 217703.04903011423 ; 9470724.376277955 ; 1.6536667176186303E7 ; 26180.000000000004
111 ; 102444.61190552494 ; 218998.1629621546 ; 9574064.282021083 ; 1.6754370225216417E7 ; 26418.000000000004
112 ; 102438.58445769764 ; 220291.4276646911 ; 9676508.893926607 ; 1.6973368388178572E7 ; 26656.000000000004
113 ; 101597.65057837075 ; 221582.79289264468 ; 9778947.478384305 ; 1.719365981584326E7 ; 26894.000000000004
114 ; 101642.73121982478 ; 222872.209333723 ; 9880545.128962675 ; 1.7415242608735908E7 ; 27132.000000000004
115 ; 100662.58870766492 ; 224159.62857085108 ; 9982187.8601825 ; 1.763811481806963E7 ; 27370.000000000004
116 ; 99646.96129803089 ; 225445.00304652494 ; 1.0082850448890164E7 ; 1.786227444664048E7 ; 27608.000000000004
117 ; 99463.09880696198 ; 226728.28602897841 ; 1.0182497410188196E7 ; 1.8087719449687004E7 ; 27846.000000000004
118 ; 99056.42289162114 ; 228009.4315800591 ; 1.0281960508995159E7 ; 1.831444773571598E7 ; 28084.000000000004
119 ; 98200.31251126534 ; 229288.3945247171 ; 1.038101693188678E7 ; 1.854245716729604E7 ; 28322.000000000004
120 ; 97674.6235489115 ; 230565.1304220153 ; 1.0479217244398044E7 ; 1.8771745561820757E7 ; 28560.000000000004
121 ; 97121.94843081154 ; 231839.59553757642 ; 1.0576891867946956E7 ; 1.900231069224277E7 ; 28798.000000000004
122 ; 96006.21380248205 ; 233111.7468173869 ; 1.0674013816377768E7 ; 1.923415028778035E7 ; 29036.000000000004
123 ; 95161.65716710067 ; 234381.5418628828 ; 1.0770020030180251E7 ; 1.9467262034597736E7 ; 29274.000000000004
124 ; 94705.31314527831 ; 235648.93890724707 ; 1.0865181687347353E7 ; 1.970164357646062E7 ; 29512.000000000004
125 ; 93766.35303290049 ; 236913.896792853 ; 1.095988700049263E7 ; 1.9937292515367866E7 ; 29750.000000000004
126 ; 93220.4081560426 ; 238176.37494979083 ; 1.105365335352553E7 ; 2.0174206412160717E7 ; 29988.000000000004
127 ; 91701.33926313666 ; 239436.33337542013 ; 1.1146873761681573E7 ; 2.0412382787110507E7 ; 30226.000000000004
128 ; 91525.87170397781 ; 240693.73261489268 ; 1.123857510094471E7 ; 2.0651819120485928E7 ; 30464.000000000004
129 ; 90964.02215421823 ; 241948.53374259468 ; 1.133010097264869E7 ; 2.089251285310082E7 ; 30702.000000000004
130 ; 89955.83506854363 ; 243200.6983444591 ; 1.1421064994802907E7 ; 2.1134461386843417E7 ; 30940.000000000004
131 ; 88640.41082598249 ; 244450.18850110407 ; 1.1511020829871451E7 ; 2.1377662085187875E7 ; 31178.000000000004
132 ; 88130.79888883201 ; 245696.96677175234 ; 1.1599661240697434E7 ; 2.162211227368898E7 ; 31416.000000000004
133 ; 86761.95692551343 ; 246940.99617889337 ; 1.1687792039586267E7 ; 2.186780924046073E7 ; 31654.000000000004
134 ; 85811.93611419122 ; 248182.240193648 ; 1.177455399651178E7 ; 2.2114750236639626E7 ; 31892.000000000004
135 ; 84627.5969239318 ; 249420.66272180193 ; 1.1860365932625972E7 ; 2.2362932476833273E7 ; 32130.000000000004
136 ; 84203.57330845497 ; 250656.22809047173 ; 1.1944993529549904E7 ; 2.2612353139555074E7 ; 32368.000000000004
137 ; 83411.27495791308 ; 251888.9010353736 ; 1.2029197102858359E7 ; 2.2863009367645547E7 ; 32606.000000000004
138 ; 82283.29983790652 ; 253118.64668866317 ; 1.2112608377816273E7 ; 2.311489826868092E7 ; 32844.00000000001
139 ; 81232.65957911735 ; 254345.43056731892 ; 1.2194891677654179E7 ; 2.336801691536958E7 ; 33082.00000000001
140 ; 79724.03750731115 ; 255569.21856204144 ; 1.2276124337233296E7 ; 2.3622362345936902E7 ; 33320.00000000001
141 ; 79069.88418884724 ; 256789.97692664384 ; 1.2355848374740606E7 ; 2.3877931564498942E7 ; 33558.00000000001
142 ; 77766.66291320656 ; 258007.67226790887 ; 1.2434918258929454E7 ; 2.4134721541425586E7 ; 33796.00000000001
143 ; 76491.39898606521 ; 259222.2715358905 ; 1.251268492184266E7 ; 2.4392729213693496E7 ; 34034.00000000001
144 ; 75576.52027490502 ; 260433.7420146379 ; 1.2589176320828727E7 ; 2.4651951485229388E7 ; 34272.00000000001
145 ; 74943.40648115173 ; 261642.051313322 ; 1.2664752841103632E7 ; 2.4912385227244027E7 ; 34510.00000000001
146 ; 74775.38844983513 ; 262847.16735774523 ; 1.2739696247584784E7 ; 2.517402727855735E7 ; 34748.00000000001
147 ; 74850.5547756175 ; 264049.05838221626 ; 1.2814471636034619E7 ; 2.5436874445915096E7 ; 34986.00000000001
148 ; 74020.88196709208 ; 265247.6929217728 ; 1.2889322190810237E7 ; 2.5700923504297312E7 ; 35224.00000000001
149 ; 74200.80969911224 ; 266443.03980473534 ; 1.2963343072777329E7 ; 2.5966171197219085E7 ; 35462.00000000001
150 ; 74047.41425691622 ; 267635.06814557745 ; 1.3037543882476442E7 ; 2.623261423702382E7 ; 35700.00000000001
151 ; 73647.5631008588 ; 268823.74733809766 ; 1.3111591296733357E7 ; 2.6500249305169396E7 ; 35938.00000000001
152 ; 73334.28077414935 ; 270009.0470488777 ; 1.3185238859834217E7 ; 2.6769073052507494E7 ; 36176.00000000001
153 ; 73513.92693259577 ; 271190.9372110165 ; 1.3258573140608367E7 ; 2.703908209955637E7 ; 36414.00000000001
154 ; 72533.07934444238 ; 272369.38801812497 ; 1.3332087067540962E7 ; 2.731027303676739E7 ; 36652.00000000001
155 ; 72538.11163999187 ; 273544.36991857155 ; 1.3404620146885404E7 ; 2.7582642424785513E7 ; 36890.00000000001
156 ; 71904.86201044805 ; 274715.8536099653 ; 1.3477158258525396E7 ; 2.7856186794704083E7 ; 37128.00000000001
157 ; 71972.57780144423 ; 275883.81003386853 ; 1.3549063120535843E7 ; 2.8130902648314048E7 ; 37366.00000000001
158 ; 71540.76587097142 ; 277048.21037072584 ; 1.3621035698337287E7 ; 2.8406786458347917E7 ; 37604.00000000001
159 ; 70752.51090114127 ; 278209.0260350022 ; 1.3692576464208258E7 ; 2.8683834668718643E7 ; 37842.00000000001
160 ; 71071.63443644017 ; 279366.2286705198 ; 1.37633289751094E7 ; 2.8962043694753647E7 ; 38080.00000000001
161 ; 70516.44034462278 ; 280519.79014598497 ; 1.383440060954584E7 ; 2.9241409923424166E7 ; 38318.00000000001
162 ; 69947.07151564086 ; 281669.6825506975 ; 1.3904917049890462E7 ; 2.952192971357015E7 ; 38556.00000000001
163 ; 69593.30785328352 ; 282815.87819043366 ; 1.3974864121406103E7 ; 2.980359939612085E7 ; 38794.00000000001
164 ; 68975.67945068676 ; 283958.349583496 ; 1.4044457429259386E7 ; 3.0086415274311285E7 ; 39032.00000000001
165 ; 68956.38737968444 ; 285097.0694569223 ; 1.4113433108710073E7 ; 3.037037362389478E7 ; 39270.00000000001
166 ; 68659.57395957192 ; 286232.0107428477 ; 1.4182389496089756E7 ; 3.0655470693351705E7 ; 39508.00000000001
167 ; 68678.99447908779 ; 287363.1465750124 ; 1.4251049070049329E7 ; 3.094170270409455E7 ; 39746.00000000001
168 ; 67684.52140338373 ; 288490.45028540964 ; 1.4319728064528417E7 ; 3.1229065850669563E7 ; 39984.00000000001
169 ; 67332.13510215857 ; 289613.8954010671 ; 1.43874125859318E7 ; 3.151755630095497E7 ; 40222.00000000001
170 ; 66752.14491677877 ; 290733.455640958 ; 1.4454744721033959E7 ; 3.180717019635604E7 ; 40460.00000000001
171 ; 66178.18911177009 ; 291849.10491303407 ; 1.4521496865950737E7 ; 3.2097903651996996E7 ; 40698.00000000001
172 ; 66042.99915659407 ; 292960.8173113771 ; 1.4587675055062506E7 ; 3.238975275691003E7 ; 40936.00000000001
173 ; 65986.4116689516 ; 294068.56711346353 ; 1.46537180542191E7 ; 3.2682713574221406E7 ; 41174.00000000001
174 ; 65548.889669343 ; 295172.3287775376 ; 1.4719704465888051E7 ; 3.297678214133487E7 ; 41412.00000000001
175 ; 66554.87074535005 ; 296272.0769400884 ; 1.4785253355557395E7 ; 3.3271954470112406E7 ; 41650.00000000001
176 ; 66806.74860137237 ; 297367.78641342674 ; 1.4851808226302745E7 ; 3.3568226547052495E7 ; 41888.00000000001
177 ; 66968.70523751643 ; 298459.43218335777 ; 1.4918614974904118E7 ; 3.386559433346592E7 ; 42126.00000000001
178 ; 66919.80597270411 ; 299546.989406946 ; 1.4985583680141635E7 ; 3.4164053765649274E7 ; 42364.00000000001
179 ; 66873.9740862822 ; 300630.4334103679 ; 1.505250348611434E7 ; 3.446360075505622E7 ; 42602.00000000001
180 ; 67435.30959296005 ; 301709.7396868494 ; 1.5119377460200623E7 ; 3.4764231188466586E7 ; 42840.00000000001
181 ; 66951.71985732013 ; 302784.88389468496 ; 1.5186812769793583E7 ; 3.506594092815343E7 ; 43078.00000000001
