CSV File for the Network on Day 148
1 - Minute m 
2 - Power Consumed at minute m 
3 - Power Produced at minute m 
4 - Energy Consumed since the beginning of the day 
5 - Energy Produced since the beginning of the day 
6 - Energy Lost since the beginning of the day 
 
No Production city : 2, Producer : 1
No Production city : 4, Producer : 1
No Production city : 4, Producer : 1
 
0 ; 47968.9042827635 ; 164677.68437245546 ; 0.0 ; 0.0 ; 0.0
1 ; 49743.5118526229 ; 164336.15574408422 ; 47968.9042827635 ; 164677.68437245546 ; 238.00000000000003
2 ; 50947.79581744388 ; 164029.4873937989 ; 97712.41613538639 ; 329013.8401165397 ; 476.00000000000006
3 ; 51866.22279280302 ; 163758.03454705817 ; 148660.21195283026 ; 493043.32751033857 ; 714.0000000000001
4 ; 53340.598854915035 ; 163522.11534492738 ; 200526.43474563328 ; 656801.3620573967 ; 952.0000000000001
5 ; 54075.46310603501 ; 163322.00915060463 ; 253867.0336005483 ; 820323.4774023241 ; 1190.0000000000002
6 ; 55548.95554710472 ; 163157.9550351055 ; 307942.4967065833 ; 983645.4865529287 ; 1428.0000000000002
7 ; 56723.64059706691 ; 163030.15046102018 ; 363491.452253688 ; 1146803.4415880342 ; 1666.0000000000002
8 ; 57754.65455177025 ; 162938.7501811533 ; 420215.0928507549 ; 1309833.5920490543 ; 1904.0000000000002
9 ; 59183.362956247394 ; 162883.8653663705 ; 477969.74740252516 ; 1472772.3422302078 ; 2142.0000000000005
10 ; 59593.717071989646 ; 162865.56297416537 ; 537153.1103587726 ; 1635656.2075965782 ; 2380.0000000000005
11 ; 61140.46305903585 ; 162883.8653663705 ; 596746.8274307622 ; 1798521.7705707436 ; 2618.0000000000005
12 ; 62677.25804532155 ; 162938.7501811533 ; 657887.2904897981 ; 1961405.635937114 ; 2856.0000000000005
13 ; 63400.71145985492 ; 163030.15046102018 ; 720564.5485351196 ; 2124344.386118267 ; 3094.0000000000005
14 ; 64663.263058936514 ; 163157.9550351054 ; 783965.2599949746 ; 2287374.5365792876 ; 3332.0000000000005
15 ; 65500.44365365932 ; 163322.00915060463 ; 848628.523053911 ; 2450532.491614393 ; 3570.0000000000005
16 ; 66520.56737004855 ; 163522.11534492738 ; 914128.9667075704 ; 2613854.5007649977 ; 3808.0000000000005
17 ; 67766.68346765723 ; 163758.03454705817 ; 980649.534077619 ; 2777376.616109925 ; 4046.0000000000005
18 ; 68555.80767854465 ; 164029.48739379898 ; 1048416.2175452762 ; 2941134.6506569833 ; 4284.000000000001
19 ; 69936.55689819886 ; 164336.15574408422 ; 1116972.0252238207 ; 3105164.138050782 ; 4522.000000000001
20 ; 70344.91012822991 ; 164677.68437245546 ; 1186908.5821220195 ; 3269500.293794866 ; 4760.000000000001
21 ; 71280.7209818899 ; 165053.68282109464 ; 1257253.4922502495 ; 3434177.9781673215 ; 4998.000000000001
22 ; 72561.56535105471 ; 165463.72738855937 ; 1328534.2132321394 ; 3599231.660988416 ; 5236.000000000001
23 ; 73775.79733779511 ; 165907.36323255594 ; 1401095.7785831941 ; 3764695.3883769754 ; 5474.000000000001
24 ; 73923.83253252812 ; 166384.10656370886 ; 1474871.5759209893 ; 3930602.751609531 ; 5712.000000000001
25 ; 75092.839309868 ; 166893.44690733158 ; 1548795.4084535174 ; 4096986.85817324 ; 5950.000000000001
26 ; 76236.49953615497 ; 167434.84941063647 ; 1623888.2477633853 ; 4263880.305080571 ; 6188.000000000001
27 ; 77317.85146196668 ; 168007.7571736088 ; 1700124.7472995403 ; 4431315.154491208 ; 6426.000000000001
28 ; 78153.42135985743 ; 168611.59358286107 ; 1777442.598761507 ; 4599322.911664817 ; 6664.000000000001
29 ; 79013.24406278314 ; 169245.76462913956 ; 1855596.0201213644 ; 4767934.505247678 ; 6902.000000000001
30 ; 79544.81328505736 ; 169909.66119071166 ; 1934609.2641841476 ; 4937180.269876817 ; 7140.000000000001
31 ; 80729.07766706955 ; 170602.66126658104 ; 2014154.077469205 ; 5107089.931067529 ; 7378.000000000001
32 ; 80790.8483723855 ; 171324.13214529702 ; 2094883.1551362746 ; 5277692.59233411 ; 7616.000000000001
33 ; 81964.20564891015 ; 172073.4324970041 ; 2175674.00350866 ; 5449016.724479407 ; 7854.000000000001
34 ; 82581.06492171052 ; 172849.9143782689 ; 2257638.2091575703 ; 5621090.156976411 ; 8092.000000000001
35 ; 83805.98838319056 ; 173652.92514108922 ; 2340219.274079281 ; 5793940.07135468 ; 8330.000000000002
36 ; 84397.87994104053 ; 174481.80923929648 ; 2424025.2624624716 ; 5967592.996495769 ; 8568.000000000002
37 ; 84971.08192985703 ; 175335.90992728254 ; 2508423.1424035123 ; 6142074.805735066 ; 8806.000000000002
38 ; 85782.63167388047 ; 176214.5708475939 ; 2593394.224333369 ; 6317410.715662348 ; 9044.000000000002
39 ; 86315.31960370492 ; 177117.13750541786 ; 2679176.8560072496 ; 6493625.286509942 ; 9282.000000000002
40 ; 86926.11778432116 ; 178042.95862933455 ; 2765492.1756109544 ; 6670742.42401536 ; 9520.000000000002
41 ; 88141.29711452487 ; 178991.38741890516 ; 2852418.2933952757 ; 6848785.382644694 ; 9758.000000000002
42 ; 88379.93258215104 ; 179961.7826807262 ; 2940559.5905098007 ; 7027776.7700636 ; 9996.000000000002
43 ; 89278.36393351972 ; 180953.50985548354 ; 3028939.523091952 ; 7207738.552744326 ; 10234.000000000002
44 ; 89620.43803883513 ; 181965.94193930534 ; 3118217.887025472 ; 7388692.06259981 ; 10472.000000000002
45 ; 90276.9229285763 ; 182998.46030334575 ; 3207838.325064307 ; 7570658.004539115 ; 10710.000000000002
46 ; 90956.00855220125 ; 184050.45541603077 ; 3298115.2479928834 ; 7753656.464842461 ; 10948.000000000002
47 ; 90979.73519777198 ; 185121.3274727834 ; 3389071.2565450845 ; 7937706.920258492 ; 11186.000000000002
48 ; 91963.88038688022 ; 186210.48693832295 ; 3480050.9917428563 ; 8122828.247731276 ; 11424.000000000002
49 ; 92993.8515193586 ; 187317.35500681459 ; 3572014.8721297365 ; 8309038.734669599 ; 11662.000000000002
50 ; 92793.64547935796 ; 188441.36398524314 ; 3665008.7236490953 ; 8496356.089676414 ; 11900.000000000002
51 ; 93473.13465202098 ; 189581.9576054047 ; 3757802.369128453 ; 8684797.453661656 ; 12138.000000000002
52 ; 94651.85557647611 ; 190738.59126987215 ; 3851275.503780474 ; 8874379.41126706 ; 12376.000000000002
53 ; 94630.93247379694 ; 191910.73223719455 ; 3945927.35935695 ; 9065118.002536934 ; 12614.000000000002
54 ; 95307.54312068023 ; 193097.8597514502 ; 4040558.291830747 ; 9257028.734774128 ; 12852.000000000002
55 ; 95448.11149078677 ; 194299.4651211035 ; 4135865.8349514273 ; 9450126.594525578 ; 13090.000000000002
56 ; 96485.69890322012 ; 195515.05175190943 ; 4231313.946442214 ; 9644426.059646681 ; 13328.000000000002
57 ; 96653.88131776245 ; 196744.13513838785 ; 4327799.645345434 ; 9839941.11139859 ; 13566.000000000002
58 ; 97221.38374893983 ; 197986.24281815346 ; 4424453.526663196 ; 1.003668524653698E7 ; 13804.000000000002
59 ; 97417.97324721402 ; 199240.91429313802 ; 4521674.910412136 ; 1.0234671489355132E7 ; 14042.000000000002
60 ; 97784.24057068682 ; 200507.70092149053 ; 4619092.883659351 ; 1.043391240364827E7 ; 14280.000000000002
61 ; 98454.35008850334 ; 201786.16578368656 ; 4716877.124230037 ; 1.0634420104569761E7 ; 14518.000000000002
62 ; 98919.5313241896 ; 203075.88352612837 ; 4815331.474318541 ; 1.0836206270353448E7 ; 14756.000000000002
63 ; 98680.55488280885 ; 204376.44018526937 ; 4914251.00564273 ; 1.1039282153879575E7 ; 14994.000000000002
64 ; 99102.24044024482 ; 205687.43299505833 ; 5012931.560525538 ; 1.1243658594064845E7 ; 15232.000000000002
65 ; 99713.72359063535 ; 207008.47018026738 ; 5112033.800965783 ; 1.1449346027059903E7 ; 15470.000000000002
66 ; 99629.48683229298 ; 208339.1707380472 ; 5211747.524556419 ; 1.165635449724017E7 ; 15708.000000000002
67 ; 100163.03309478161 ; 209679.16420984193 ; 5311377.011388712 ; 1.1864693667978218E7 ; 15946.000000000002
68 ; 100536.54949827117 ; 211028.09044559888 ; 5411540.044483493 ; 1.207437283218806E7 ; 16184.000000000002
69 ; 100312.40170541588 ; 212385.59936201866 ; 5512076.593981764 ; 1.228540092263366E7 ; 16422.000000000004
70 ; 100571.65577354011 ; 213751.35069641983 ; 5612388.99568718 ; 1.2497786521995679E7 ; 16660.000000000004
71 ; 101218.45957529862 ; 215125.0137576238 ; 5712960.65146072 ; 1.2711537872692099E7 ; 16898.000000000004
72 ; 101507.83637181575 ; 216506.26717511838 ; 5814179.1110360185 ; 1.2926662886449723E7 ; 17136.000000000004
73 ; 101176.75699700377 ; 217894.7986476158 ; 5915686.947407834 ; 1.314316915362484E7 ; 17374.000000000004
74 ; 101441.1559033532 ; 219290.30469199098 ; 6016863.704404838 ; 1.3361063952272456E7 ; 17612.000000000004
75 ; 101783.88553748057 ; 220692.49039346815 ; 6118304.860308192 ; 1.3580354256964447E7 ; 17850.000000000004
76 ; 101769.35304902038 ; 222101.06915781417 ; 6220088.745845673 ; 1.3801046747357914E7 ; 18088.000000000004
77 ; 101681.17226524567 ; 223515.76246619708 ; 6321858.098894693 ; 1.4023147816515729E7 ; 18326.000000000004
78 ; 102519.15186631208 ; 224936.29963327883 ; 6423539.271159939 ; 1.4246663578981927E7 ; 18564.000000000004
79 ; 102191.47388451979 ; 226362.417569027 ; 6526058.423026251 ; 1.4471599878615206E7 ; 18802.000000000004
80 ; 102009.98026548779 ; 227793.8605446581 ; 6628249.896910771 ; 1.4697962296184232E7 ; 19040.000000000004
81 ; 102208.34501803126 ; 229230.3799630563 ; 6730259.877176259 ; 1.492575615672889E7 ; 19278.000000000004
82 ; 102579.47790061447 ; 230671.73413395093 ; 6832468.22219429 ; 1.5154986536691947E7 ; 19516.000000000004
83 ; 102856.71315847489 ; 232117.68805408367 ; 6935047.700094904 ; 1.5385658270825898E7 ; 19754.000000000004
84 ; 102646.18567145713 ; 233568.01319254516 ; 7037904.413253379 ; 1.5617775958879981E7 ; 19992.000000000004
85 ; 102940.41995668456 ; 235022.48728142012 ; 7140550.598924836 ; 1.5851343972072527E7 ; 20230.000000000004
86 ; 102199.3495477974 ; 236480.89411183994 ; 7243491.01888152 ; 1.6086366459353946E7 ; 20468.000000000004
87 ; 102499.88193343834 ; 237943.023335509 ; 7345690.368429318 ; 1.6322847353465786E7 ; 20706.000000000004
88 ; 102758.66580428462 ; 239408.6702717396 ; 7448190.250362757 ; 1.6560790376801295E7 ; 20944.000000000004
89 ; 102827.26956846114 ; 240877.6357200061 ; 7550948.916167041 ; 1.6800199047073036E7 ; 21182.000000000004
90 ; 103004.21106177603 ; 242349.72577800346 ; 7653776.185735502 ; 1.7041076682793044E7 ; 21420.000000000004
91 ; 102823.29980712576 ; 243824.751665178 ; 7756780.396797278 ; 1.7283426408571046E7 ; 21658.000000000004
92 ; 102557.2961977959 ; 245302.52955167863 ; 7859603.696604404 ; 1.7527251160236225E7 ; 21896.000000000004
93 ; 102090.71258439856 ; 246782.8803926637 ; 7962160.9928022 ; 1.7772553689787902E7 ; 22134.000000000004
94 ; 102061.98853283745 ; 248265.62976788488 ; 8064251.705386599 ; 1.8019336570180565E7 ; 22372.000000000004
95 ; 102206.2854482837 ; 249750.60772645965 ; 8166313.693919436 ; 1.826760219994845E7 ; 22610.000000000004
96 ; 101766.24310392236 ; 251237.64863673443 ; 8268519.97936772 ; 1.8517352807674907E7 ; 22848.000000000004
97 ; 101773.8165036755 ; 252726.59104113354 ; 8370286.222471642 ; 1.8768590456311643E7 ; 23086.000000000004
98 ; 101971.6152924493 ; 254217.27751588277 ; 8472060.038975317 ; 1.9021317047352776E7 ; 23324.000000000004
99 ; 101163.17973357641 ; 255709.55453549235 ; 8574031.654267766 ; 1.927553432486866E7 ; 23562.000000000004
100 ; 101003.9779748194 ; 257203.27234188 ; 8675194.834001342 ; 1.9531243879404154E7 ; 23800.000000000004
101 ; 101137.05660102126 ; 258698.28481801186 ; 8776198.81197616 ; 1.9788447151746035E7 ; 24038.000000000004
102 ; 100955.84632870657 ; 260194.4493659386 ; 8877335.868577182 ; 2.0047145436564047E7 ; 24276.000000000004
103 ; 100523.12720895937 ; 261691.62678910093 ; 8978291.71490589 ; 2.0307339885929987E7 ; 24514.000000000004
104 ; 99975.48358397528 ; 263189.68117878085 ; 9078814.842114849 ; 2.0569031512719087E7 ; 24752.000000000004
105 ; 99440.42661583514 ; 264688.47980457306 ; 9178790.325698825 ; 2.083222119389787E7 ; 24990.000000000004
106 ; 99343.98343162393 ; 266187.89300875267 ; 9278230.752314659 ; 2.109690967370244E7 ; 25228.000000000004
107 ; 99352.23853823578 ; 267687.79410441674 ; 9377574.735746283 ; 2.1363097566711195E7 ; 25466.000000000004
108 ; 98711.30667947508 ; 269188.05927727756 ; 9476926.974284519 ; 2.163078536081561E7 ; 25704.000000000004
109 ; 98386.4261013383 ; 270688.56749098847 ; 9575638.280963993 ; 2.189997342009289E7 ; 25942.000000000004
110 ; 98223.89748707564 ; 272189.2003958844 ; 9674024.70706533 ; 2.2170661987583876E7 ; 26180.000000000004
111 ; 98042.55514900351 ; 273689.8422410228 ; 9772248.604552407 ; 2.244285118797976E7 ; 26418.000000000004
112 ; 97627.32216879832 ; 275190.3797894096 ; 9870291.15970141 ; 2.2716541030220784E7 ; 26656.000000000004
113 ; 96623.70915160276 ; 276690.70223630295 ; 9967918.48187021 ; 2.2991731410010193E7 ; 26894.000000000004
114 ; 96674.77058281667 ; 278190.70113048505 ; 1.0064542191021813E7 ; 2.3268422112246495E7 ; 27132.000000000004
115 ; 96290.78409989786 ; 279690.27029839775 ; 1.016121696160463E7 ; 2.3546612813376978E7 ; 27370.000000000004
116 ; 96389.2204122494 ; 281189.3057710402 ; 1.0257507745704528E7 ; 2.3826303083675377E7 ; 27608.000000000004
117 ; 95476.84928723537 ; 282687.70571352897 ; 1.0353896966116777E7 ; 2.410749238944642E7 ; 27846.000000000004
118 ; 94623.95207791508 ; 284185.37035722437 ; 1.0449373815404013E7 ; 2.4390180095159948E7 ; 28084.000000000004
119 ; 93989.59772590865 ; 285682.2019343302 ; 1.0543997767481929E7 ; 2.467436546551717E7 ; 28322.000000000004
120 ; 93605.18732426045 ; 287178.1046148757 ; 1.0637987365207838E7 ; 2.49600476674515E7 ; 28560.000000000004
121 ; 93224.71251375976 ; 288672.98444599204 ; 1.07315925525321E7 ; 2.5247225772066377E7 ; 28798.000000000004
122 ; 93081.44797567646 ; 290166.7492934001 ; 1.0824817265045859E7 ; 2.553589875651237E7 ; 29036.000000000004
123 ; 91993.0473673253 ; 291659.3087850249 ; 1.0917898713021535E7 ; 2.582606550580577E7 ; 29274.000000000004
124 ; 91311.40906535478 ; 293150.57425666036 ; 1.100989176038886E7 ; 2.6117724814590797E7 ; 29512.000000000004
125 ; 90565.8583649373 ; 294640.4586996056 ; 1.1101203169454215E7 ; 2.6410875388847455E7 ; 29750.000000000004
126 ; 90203.36850374036 ; 296128.8767102005 ; 1.1191769027819153E7 ; 2.670551584754706E7 ; 29988.000000000004
127 ; 89089.22994232115 ; 297615.7444411885 ; 1.1281972396322893E7 ; 2.700164472425726E7 ; 30226.000000000004
128 ; 89117.411900784 ; 299100.9795548383 ; 1.1371061626265215E7 ; 2.729926046869845E7 ; 30464.000000000004
129 ; 88443.65943302966 ; 300584.5011777583 ; 1.1460179038166E7 ; 2.759836144825329E7 ; 30702.000000000004
130 ; 87502.7577667165 ; 302066.2298573393 ; 1.154862269759903E7 ; 2.7898945949431047E7 ; 30940.000000000004
131 ; 87102.74985225529 ; 303546.0875197652 ; 1.1636125455365745E7 ; 2.8201012179288387E7 ; 31178.000000000004
132 ; 86540.26147842192 ; 305023.9974295317 ; 1.1723228205218E7 ; 2.8504558266808152E7 ; 31416.000000000004
133 ; 85300.83117893802 ; 306499.8841504163 ; 1.1809768466696423E7 ; 2.8809582264237683E7 ; 31654.000000000004
134 ; 85181.74803027997 ; 307973.6735078441 ; 1.189506929787536E7 ; 2.91160821483881E7 ; 31892.000000000004
135 ; 84124.39541824066 ; 309445.2925525983 ; 1.198025104590564E7 ; 2.9424055821895942E7 ; 32130.000000000004
136 ; 83770.17373067311 ; 310914.6695258229 ; 1.206437544132388E7 ; 2.973350111444854E7 ; 32368.000000000004
137 ; 82973.55656640748 ; 312381.73382526916 ; 1.2148145615054553E7 ; 3.0044415783974364E7 ; 32606.000000000004
138 ; 81729.0565108585 ; 313846.4159727402 ; 1.2231119171620961E7 ; 3.0356797517799634E7 ; 32844.00000000001
139 ; 80679.26029968978 ; 315308.64758268674 ; 1.231284822813182E7 ; 3.0670643933772374E7 ; 33082.00000000001
140 ; 80121.6486462777 ; 316768.36133191135 ; 1.239352748843151E7 ; 3.098595258135506E7 ; 33320.00000000001
141 ; 79651.00328434043 ; 318225.49093033985 ; 1.2473649137077788E7 ; 3.130272094268697E7 ; 33558.00000000001
142 ; 78476.3205822503 ; 319679.97109281964 ; 1.2553300140362129E7 ; 3.1620946433617312E7 ; 33796.00000000001
143 ; 77795.07488213721 ; 321131.73751190555 ; 1.2631776460944379E7 ; 3.1940626404710133E7 ; 34034.00000000001
144 ; 76998.63609096475 ; 322580.72683159664 ; 1.2709571535826515E7 ; 3.226175814222204E7 ; 34272.00000000001
145 ; 76926.51263539035 ; 324026.8766219897 ; 1.278657017191748E7 ; 3.2584338869053636E7 ; 34510.00000000001
146 ; 76368.6936012065 ; 325470.12535481236 ; 1.286349668455287E7 ; 3.2908365745675627E7 ; 34748.00000000001
147 ; 76272.69457901157 ; 326910.4123798055 ; 1.2939865378154077E7 ; 3.323383587103044E7 ; 34986.00000000001
148 ; 76074.66713574274 ; 328347.6779019224 ; 1.3016138072733087E7 ; 3.356074628341024E7 ; 35224.00000000001
149 ; 75538.09060658114 ; 329781.86295931356 ; 1.309221273986883E7 ; 3.388909396131217E7 ; 35462.00000000001
150 ; 75641.60957461079 ; 331212.9094020696 ; 1.3167750830475412E7 ; 3.421887582427148E7 ; 35700.00000000001
151 ; 75408.12416669312 ; 332640.7598716926 ; 1.3243392440050023E7 ; 3.455008873367355E7 ; 35938.00000000001
152 ; 75221.80282762532 ; 334065.3577812697 ; 1.3318800564216716E7 ; 3.488272949354524E7 ; 36176.00000000001
153 ; 75138.07217590774 ; 335486.6472963236 ; 1.339402236704434E7 ; 3.521679485132651E7 ; 36414.00000000001
154 ; 74612.08786279551 ; 336904.57331631344 ; 1.3469160439220248E7 ; 3.5552281498622835E7 ; 36652.00000000001
155 ; 74147.56384597413 ; 338319.08145676437 ; 1.3543772527083043E7 ; 3.588918607193915E7 ; 36890.00000000001
156 ; 74065.75316468043 ; 339730.1180320005 ; 1.3617920090929016E7 ; 3.622750515339591E7 ; 37128.00000000001
157 ; 73286.07917033769 ; 341137.6300384613 ; 1.3691985844093697E7 ; 3.6567235271427915E7 ; 37366.00000000001
158 ; 73086.98476927489 ; 342541.5651385783 ; 1.3765271923264034E7 ; 3.690837290146638E7 ; 37604.00000000001
159 ; 73237.30062353745 ; 343941.8716451937 ; 1.383835890803331E7 ; 3.7250914466604955E7 ; 37842.00000000001
160 ; 72799.76181193368 ; 345338.49850649905 ; 1.3911596208656847E7 ; 3.759485633825015E7 ; 38080.00000000001
161 ; 72312.17221597926 ; 346731.39529147715 ; 1.3984395970468782E7 ; 3.7940194836756654E7 ; 38318.00000000001
162 ; 72061.23386399685 ; 348120.51217582804 ; 1.4056708142684761E7 ; 3.828692623204813E7 ; 38556.00000000001
163 ; 72465.09664946498 ; 349505.79992836167 ; 1.4128769376548758E7 ; 3.863504674422396E7 ; 38794.00000000001
164 ; 71512.03055423645 ; 350887.2098978408 ; 1.4201234473198222E7 ; 3.898455254415232E7 ; 39032.00000000001
165 ; 71595.01137956764 ; 352264.69400025817 ; 1.4272746503752459E7 ; 3.933543975405016E7 ; 39270.00000000001
166 ; 70980.41271888433 ; 353638.2047065318 ; 1.4344341515132027E7 ; 3.968770444805042E7 ; 39508.00000000001
167 ; 70875.15541623993 ; 355007.69503060455 ; 1.4415321927850911E7 ; 4.004134265275695E7 ; 39746.00000000001
168 ; 70674.34982073716 ; 356373.1185179325 ; 1.448619708326715E7 ; 4.039635034778756E7 ; 39984.00000000001
169 ; 70340.60321287528 ; 357734.42923434917 ; 1.4556871433087887E7 ; 4.0752723466305494E7 ; 40222.00000000001
170 ; 70139.01159361923 ; 359091.5817552924 ; 1.4627212036300762E7 ; 4.111045789553984E7 ; 40460.00000000001
171 ; 69768.25401069972 ; 360444.53115538065 ; 1.4697351047894381E7 ; 4.146954947729514E7 ; 40698.00000000001
172 ; 69000.0030748412 ; 361793.2329983264 ; 1.476711930190508E7 ; 4.1829994008450516E7 ; 40936.00000000001
173 ; 69206.85206906116 ; 363137.6433271758 ; 1.4836119304979922E7 ; 4.219178724144884E7 ; 41174.00000000001
174 ; 68795.6708897395 ; 364477.7186548623 ; 1.4905326157048983E7 ; 4.255492488477602E7 ; 41412.00000000001
175 ; 69299.75669922879 ; 365813.4159550635 ; 1.4974121827938722E7 ; 4.291940260343088E7 ; 41650.00000000001
176 ; 68941.45801396965 ; 367144.69265335123 ; 1.5043421584637951E7 ; 4.328521601938595E7 ; 41888.00000000001
177 ; 69310.03281056775 ; 368471.5066186241 ; 1.5112363042651922E7 ; 4.36523607120393E7 ; 42126.00000000001
178 ; 69505.45251100633 ; 369793.81615481334 ; 1.5181673075462488E7 ; 4.4020832218657926E7 ; 42364.00000000001
179 ; 69693.47225666282 ; 371111.57999285235 ; 1.5251178527973495E7 ; 4.439062603481274E7 ; 42602.00000000001
180 ; 69650.13796268645 ; 372424.7572829006 ; 1.5320872000230158E7 ; 4.4761737614805594E7 ; 42840.00000000001
181 ; 69805.34536249828 ; 373733.30758681387 ; 1.5390522138192844E7 ; 4.513416237208849E7 ; 43078.00000000001
