CSV File for the Network on Day 260
1 - Minute m 
2 - Power Consumed at minute m 
3 - Power Produced at minute m 
4 - Energy Consumed since the beginning of the day 
5 - Energy Produced since the beginning of the day 
6 - Energy Lost since the beginning of the day 
 
No Production city : 2, Producer : 1
No Production city : 4, Producer : 1
No Production city : 4, Producer : 1
 
0 ; 37072.8155180725 ; 147313.54198163928 ; 0.0 ; 0.0 ; 0.0
1 ; 38743.176568732124 ; 146959.44729988443 ; 37072.8155180725 ; 147313.54198163928 ; 238.00000000000003
2 ; 39813.03224089525 ; 146641.21534393405 ; 75815.99208680462 ; 294272.98928152374 ; 476.00000000000006
3 ; 41321.683221633735 ; 146359.3029044128 ; 115629.02432769987 ; 440914.20462545776 ; 714.0000000000001
4 ; 43410.372408067065 ; 146114.12070846534 ; 156950.7075493336 ; 587273.5075298706 ; 952.0000000000001
5 ; 44472.291797105965 ; 145906.0306889401 ; 200361.07995740068 ; 733387.628238336 ; 1190.0000000000002
6 ; 45484.22808470911 ; 145735.34352192964 ; 244833.37175450666 ; 879293.658927276 ; 1428.0000000000002
7 ; 47070.70652565162 ; 145602.31647090203 ; 290317.59983921575 ; 1025029.0024492056 ; 1666.0000000000002
8 ; 48359.14726194127 ; 145507.15157186313 ; 337388.30636486737 ; 1170631.3189201076 ; 1904.0000000000002
9 ; 49502.84941076351 ; 145449.99418922825 ; 385747.45362680865 ; 1316138.4704919707 ; 2142.0000000000005
10 ; 51117.72727630754 ; 145430.9319664641 ; 435250.3030375722 ; 1461588.4646811988 ; 2380.0000000000005
11 ; 52826.13676623981 ; 145449.99418922825 ; 486368.0303138797 ; 1607019.3966476629 ; 2618.0000000000005
12 ; 53832.41824367517 ; 145507.15157186313 ; 539194.1670801195 ; 1752469.390836891 ; 2856.0000000000005
13 ; 55333.799436851485 ; 145602.31647090203 ; 593026.5853237946 ; 1897976.5424087541 ; 3094.0000000000005
14 ; 56356.20010907895 ; 145735.34352192958 ; 648360.3847606461 ; 2043578.858879656 ; 3332.0000000000005
15 ; 57407.283755353645 ; 145906.0306889401 ; 704716.584869725 ; 2189314.202401586 ; 3570.0000000000005
16 ; 58625.49796570967 ; 146114.12070846534 ; 762123.8686250787 ; 2335220.233090526 ; 3808.0000000000005
17 ; 60236.02527109823 ; 146359.30290441273 ; 820749.3665907884 ; 2481334.353798991 ; 4046.0000000000005
18 ; 61074.6843373546 ; 146641.2153439341 ; 880985.3918618866 ; 2627693.6567034037 ; 4284.000000000001
19 ; 62648.07904865143 ; 146959.44729988437 ; 942060.0761992412 ; 2774334.8720473377 ; 4522.000000000001
20 ; 63857.63195722297 ; 147313.5419816393 ; 1004708.1552478926 ; 2921294.319347222 ; 4760.000000000001
21 ; 65068.034080176185 ; 147702.99949327778 ; 1068565.7872051157 ; 3068607.861328861 ; 4998.000000000001
22 ; 65704.82655394365 ; 148127.2799764309 ; 1133633.8212852918 ; 3216310.860822139 ; 5236.000000000001
23 ; 67762.71327938043 ; 148585.80689443622 ; 1199338.6478392354 ; 3364438.1407985697 ; 5474.000000000001
24 ; 67905.67486555058 ; 149077.97041475374 ; 1267101.3611186158 ; 3513023.9476930057 ; 5712.000000000001
25 ; 69684.77871286841 ; 149603.13084782538 ; 1335007.0359841664 ; 3662101.918107759 ; 5950.000000000001
26 ; 70382.66825812687 ; 150160.62210257605 ; 1404691.814697035 ; 3811705.0489555844 ; 6188.000000000001
27 ; 71493.51610157927 ; 150749.75512143772 ; 1475074.4829551617 ; 3961865.6710581603 ; 6426.000000000001
28 ; 72727.3813764985 ; 151369.82126099223 ; 1546567.999056741 ; 4112615.426179598 ; 6664.000000000001
29 ; 73632.06992785839 ; 152020.09558793923 ; 1619295.3804332395 ; 4263985.2474405905 ; 6902.000000000001
30 ; 74654.50110669056 ; 152699.84006395427 ; 1692927.450361098 ; 4416005.34302853 ; 7140.000000000001
31 ; 75872.22284978107 ; 153408.30659699638 ; 1767581.9514677885 ; 4568705.183092484 ; 7378.000000000001
32 ; 76127.48102691813 ; 154144.73994062422 ; 1843454.1743175697 ; 4722113.4896894805 ; 7616.000000000001
33 ; 77347.71784431834 ; 154908.3804267925 ; 1919581.6553444879 ; 4876258.229630105 ; 7854.000000000001
34 ; 78545.58254473777 ; 155698.46652133754 ; 1996929.3731888062 ; 5031166.610056898 ; 8092.000000000001
35 ; 79581.35148354816 ; 156514.23719485773 ; 2075474.955733544 ; 5186865.076578235 ; 8330.000000000002
36 ; 80204.2475764766 ; 157354.9341048965 ; 2155056.3072170923 ; 5343379.313773093 ; 8568.000000000002
37 ; 81088.3410152025 ; 158219.8035882146 ; 2235260.554793569 ; 5500734.247877989 ; 8806.000000000002
38 ; 82121.17644270098 ; 159108.09846447106 ; 2316348.8958087713 ; 5658954.051466203 ; 9044.000000000002
39 ; 82500.75651789321 ; 160019.07965481226 ; 2398470.072251472 ; 5818062.149930675 ; 9282.000000000002
40 ; 83792.27526325507 ; 160952.01762070085 ; 2480970.8287693653 ; 5978081.229585486 ; 9520.000000000002
41 ; 84350.16125304997 ; 161906.19362981667 ; 2564763.1040326203 ; 6139033.247206187 ; 9758.000000000002
42 ; 84889.96693236439 ; 162880.90085704208 ; 2649113.2652856703 ; 6300939.440836004 ; 9996.000000000002
43 ; 86346.79612488943 ; 163875.4453294409 ; 2734003.2322180346 ; 6463820.3416930465 ; 10234.000000000002
44 ; 87107.3354133679 ; 164889.14672476708 ; 2820350.028342924 ; 6627695.787022487 ; 10472.000000000002
45 ; 87662.60984156895 ; 165921.33903343926 ; 2907457.363756292 ; 6792584.933747254 ; 10710.000000000002
46 ; 88338.43055741236 ; 166971.3710941101 ; 2995119.973597861 ; 6958506.272780693 ; 10948.000000000002
47 ; 89135.61374014818 ; 168038.6070129809 ; 3083458.4041552735 ; 7125477.643874804 ; 11186.000000000002
48 ; 89561.43524256916 ; 169122.4264768851 ; 3172594.0178954215 ; 7293516.250887784 ; 11424.000000000002
49 ; 90511.64388719632 ; 170222.22496992195 ; 3262155.4531379906 ; 7462638.67736467 ; 11662.000000000002
50 ; 91143.32549306861 ; 171337.4139030811 ; 3352667.0970251868 ; 7632860.902334591 ; 11900.000000000002
51 ; 91733.3920421645 ; 172467.42066588625 ; 3443810.422518255 ; 7804198.316237672 ; 12138.000000000002
52 ; 92012.09459227667 ; 173611.6886086201 ; 3535543.81456042 ; 7976665.7369035585 ; 12376.000000000002
53 ; 93042.82643301859 ; 174769.67696318898 ; 3627555.9091526964 ; 8150277.425512179 ; 12614.000000000002
54 ; 93792.33712635933 ; 175940.86071015976 ; 3720598.735585715 ; 8325047.1024753675 ; 12852.000000000002
55 ; 94530.89488072883 ; 177124.73039896434 ; 3814391.0727120745 ; 8500987.963185526 ; 13090.000000000002
56 ; 94521.81392512382 ; 178320.7919277319 ; 3908921.9675928033 ; 8678112.69358449 ; 13328.000000000002
57 ; 95251.42294708228 ; 179528.56628867716 ; 4003443.781517927 ; 8856433.485512223 ; 13566.000000000002
58 ; 95930.09001463924 ; 180747.5892844617 ; 4098695.2044650093 ; 9035962.051800901 ; 13804.000000000002
59 ; 96001.0901521311 ; 181977.41122044693 ; 4194625.294479649 ; 9216709.641085362 ; 14042.000000000002
60 ; 96494.44050057033 ; 183217.59657728625 ; 4290626.38463178 ; 9398687.052305808 ; 14280.000000000002
61 ; 97258.55063244594 ; 184467.72366785727 ; 4387120.82513235 ; 9581904.648883095 ; 14518.000000000002
62 ; 97644.25281152927 ; 185727.38428211442 ; 4484379.3757647965 ; 9766372.372550953 ; 14756.000000000002
63 ; 98092.39045858105 ; 186996.18332305126 ; 4582023.628576326 ; 9952099.756833067 ; 14994.000000000002
64 ; 98715.98844241441 ; 188273.73843659848 ; 4680116.019034907 ; 1.0139095940156119E7 ; 15232.000000000002
65 ; 99147.0758544895 ; 189559.67963794913 ; 4778832.007477322 ; 1.0327369678592717E7 ; 15470.000000000002
66 ; 99026.36407299273 ; 190853.64893649356 ; 4877979.083331811 ; 1.0516929358230667E7 ; 15708.000000000002
67 ; 99658.33543922445 ; 192155.2999612666 ; 4977005.447404804 ; 1.070778300716716E7 ; 15946.000000000002
68 ; 100235.90800291531 ; 193464.2975885547 ; 5076663.782844028 ; 1.0899938307128428E7 ; 16184.000000000002
69 ; 100164.66917748714 ; 194780.31757307574 ; 5176899.690846943 ; 1.1093402604716983E7 ; 16422.000000000004
70 ; 100580.95967006174 ; 196103.04618393962 ; 5277064.360024431 ; 1.1288182922290059E7 ; 16660.000000000004
71 ; 100874.79690539878 ; 197432.17984640598 ; 5377645.319694493 ; 1.1484285968473999E7 ; 16898.000000000004
72 ; 101253.86097404295 ; 198767.42479028876 ; 5478520.116599891 ; 1.1681718148320405E7 ; 17136.000000000004
73 ; 101079.39750199755 ; 200108.49670570772 ; 5579773.977573934 ; 1.1880485573110694E7 ; 17374.000000000004
74 ; 101591.66760541876 ; 201455.12040675196 ; 5680853.375075932 ; 1.2080594069816401E7 ; 17612.000000000004
75 ; 102199.29171695746 ; 202807.02950350314 ; 5782445.04268135 ; 1.2282049190223154E7 ; 17850.000000000004
76 ; 101934.82851948583 ; 204163.96608276255 ; 5884644.334398308 ; 1.2484856219726657E7 ; 18088.000000000004
77 ; 102019.81521646807 ; 205525.68039773265 ; 5986579.162917794 ; 1.268902018580942E7 ; 18326.000000000004
78 ; 102037.24340026687 ; 206891.9305668267 ; 6088598.978134261 ; 1.2894545866207153E7 ; 18564.000000000004
79 ; 102745.4387562933 ; 208262.48228170577 ; 6190636.221534529 ; 1.310143779677398E7 ; 18802.000000000004
80 ; 103006.25361940124 ; 209637.1085245884 ; 6293381.660290822 ; 1.3309700279055685E7 ; 19040.000000000004
81 ; 103080.90272195658 ; 211015.58929481902 ; 6396387.913910223 ; 1.3519337387580274E7 ; 19278.000000000004
82 ; 103261.40310989543 ; 212397.71134464323 ; 6499468.81663218 ; 1.3730352976875093E7 ; 19516.000000000004
83 ; 103035.92074915754 ; 213783.26792409568 ; 6602730.219742075 ; 1.3942750688219735E7 ; 19754.000000000004
84 ; 102882.28633971274 ; 215172.05853487656 ; 6705766.140491232 ; 1.4156533956143832E7 ; 19992.000000000004
85 ; 103504.75676429526 ; 216563.8886930659 ; 6808648.426830945 ; 1.437170601467871E7 ; 20230.000000000004
86 ; 103178.19874826062 ; 217958.56970050215 ; 6912153.18359524 ; 1.4588269903371776E7 ; 20468.000000000004
87 ; 103187.14938812188 ; 219355.91842463467 ; 7015331.382343501 ; 1.4806228473072277E7 ; 20706.000000000004
88 ; 103869.98351658018 ; 220755.75708664476 ; 7118518.531731622 ; 1.5025584391496912E7 ; 20944.000000000004
89 ; 103136.58877551468 ; 222157.91305761944 ; 7222388.515248203 ; 1.5246340148583556E7 ; 21182.000000000004
90 ; 103323.94323796054 ; 223562.21866255297 ; 7325525.104023717 ; 1.5468498061641175E7 ; 21420.000000000004
91 ; 103168.25324473095 ; 224968.51099194668 ; 7428849.047261678 ; 1.5692060280303728E7 ; 21658.000000000004
92 ; 102785.41040779548 ; 226376.63172077236 ; 7532017.300506408 ; 1.5917028791295674E7 ; 21896.000000000004
93 ; 102813.55830863975 ; 227786.42693456312 ; 7634802.710914204 ; 1.6143405423016446E7 ; 22134.000000000004
94 ; 102738.76492898061 ; 229197.74696239532 ; 7737616.269222843 ; 1.6371191849951008E7 ; 22372.000000000004
95 ; 102534.34098807057 ; 230610.4462165259 ; 7840355.034151824 ; 1.6600389596913403E7 ; 22610.000000000004
96 ; 102967.28791123892 ; 232024.3830384508 ; 7942889.375139895 ; 1.683100004312993E7 ; 22848.000000000004
97 ; 102480.37076512164 ; 233439.419551154 ; 8045856.663051134 ; 1.706302442616838E7 ; 23086.000000000004
98 ; 102176.52584590987 ; 234855.4215173193 ; 8148337.033816256 ; 1.729646384571953E7 ; 23324.000000000004
99 ; 102527.3662282873 ; 236272.2582032827 ; 8250513.559662165 ; 1.753131926723685E7 ; 23562.000000000004
100 ; 102053.17487372461 ; 237689.80224850602 ; 8353040.925890452 ; 1.7767591525440134E7 ; 23800.000000000004
101 ; 102007.95695456146 ; 239107.92954035994 ; 8455094.100764178 ; 1.800528132768864E7 ; 24038.000000000004
102 ; 101547.54923395514 ; 240526.51909400828 ; 8557102.057718739 ; 1.8244389257229E7 ; 24276.000000000004
103 ; 101161.67491095408 ; 241945.45293719205 ; 8658649.606952693 ; 1.848491577632301E7 ; 24514.000000000004
104 ; 100909.34709243827 ; 243364.61599971817 ; 8759811.281863647 ; 1.8726861229260202E7 ; 24752.000000000004
105 ; 100455.4203364654 ; 244783.8960074625 ; 8860720.628956085 ; 1.897022584525992E7 ; 24990.000000000004
106 ; 100186.81943311736 ; 246203.18338070443 ; 8961176.049292551 ; 1.9215009741267383E7 ; 25228.000000000004
107 ; 99815.73139484558 ; 247622.37113661625 ; 9061362.868725669 ; 1.9461212924648087E7 ; 25466.000000000004
108 ; 100047.32997143912 ; 249041.35479573457 ; 9161178.600120515 ; 1.9708835295784704E7 ; 25704.000000000004
109 ; 99801.82506657412 ; 250460.03229225156 ; 9261225.930091953 ; 1.995787665058044E7 ; 25942.000000000004
110 ; 99283.04137502924 ; 251878.30388796458 ; 9361027.755158527 ; 2.020833668287269E7 ; 26180.000000000004
111 ; 98355.75374166638 ; 253296.0720897335 ; 9460310.796533557 ; 2.0460214986760654E7 ; 26418.000000000004
112 ; 98311.57598649742 ; 254713.24157029713 ; 9558666.550275223 ; 2.0713511058850385E7 ; 26656.000000000004
113 ; 97637.1451420012 ; 256129.7190923087 ; 9656978.12626172 ; 2.0968224300420683E7 ; 26894.000000000004
114 ; 97337.67963638615 ; 257545.41343545355 ; 9754615.271403722 ; 2.1224354019512992E7 ; 27132.000000000004
115 ; 96946.68243199006 ; 258960.23532652014 ; 9851952.951040108 ; 2.1481899432948448E7 ; 27370.000000000004
116 ; 96305.99764446708 ; 260374.09737229813 ; 9948899.633472098 ; 2.174085966827497E7 ; 27608.000000000004
117 ; 95779.17834334873 ; 261786.91399518444 ; 1.0045205631116565E7 ; 2.2001233765647266E7 ; 27846.000000000004
118 ; 95432.47535083981 ; 263198.6013713824 ; 1.0140984809459914E7 ; 2.226302067964245E7 ; 28084.000000000004
119 ; 94832.61491467137 ; 264609.07737158344 ; 1.0236417284810754E7 ; 2.252621928101383E7 ; 28322.000000000004
120 ; 93998.1162545673 ; 266018.26150402636 ; 1.0331249899725424E7 ; 2.2790828358385414E7 ; 28560.000000000004
121 ; 93918.32170183552 ; 267426.0748598332 ; 1.0425248015979992E7 ; 2.3056846619889442E7 ; 28798.000000000004
122 ; 93174.21483539823 ; 268832.44006052444 ; 1.0519166337681828E7 ; 2.3324272694749273E7 ; 29036.000000000004
123 ; 92605.1545285443 ; 270237.2812076218 ; 1.0612340552517226E7 ; 2.35931051348098E7 ; 29274.000000000004
124 ; 91898.66088224476 ; 271640.5238342496 ; 1.0704945707045771E7 ; 2.386334241601742E7 ; 29512.000000000004
125 ; 91462.8404539892 ; 273042.0948586502 ; 1.0796844367928015E7 ; 2.413498293985167E7 ; 29750.000000000004
126 ; 90885.20392964083 ; 274441.922539532 ; 1.0888307208382005E7 ; 2.440802503471032E7 ; 29988.000000000004
127 ; 90163.56837139232 ; 275839.9364331735 ; 1.0979192412311645E7 ; 2.4682466957249854E7 ; 30226.000000000004
128 ; 89366.64514880924 ; 277236.06735220744 ; 1.1069355980683038E7 ; 2.4958306893683027E7 ; 30464.000000000004
129 ; 88511.32843012811 ; 278630.24732601736 ; 1.1158722625831848E7 ; 2.5235542961035237E7 ; 30702.000000000004
130 ; 87960.61269742106 ; 280022.40956267423 ; 1.1247233954261975E7 ; 2.5514173208361253E7 ; 30940.000000000004
131 ; 87637.56500833256 ; 281412.48841235315 ; 1.1335194566959396E7 ; 2.5794195617923927E7 ; 31178.000000000004
132 ; 86522.32730072804 ; 282800.4193321643 ; 1.1422832131967729E7 ; 2.607560810633628E7 ; 31416.000000000004
133 ; 85650.79830507487 ; 284186.13885234104 ; 1.1509354459268456E7 ; 2.6358408525668446E7 ; 31654.000000000004
134 ; 84766.68766492949 ; 285569.5845437283 ; 1.1595005257573532E7 ; 2.6642594664520785E7 ; 31892.000000000004
135 ; 84191.06550349924 ; 286950.69498651626 ; 1.1679771945238462E7 ; 2.6928164249064513E7 ; 32130.000000000004
136 ; 83036.32677163041 ; 288329.40974016796 ; 1.176396301074196E7 ; 2.7215114944051027E7 ; 32368.000000000004
137 ; 82458.85923718924 ; 289705.66931449185 ; 1.184699933751359E7 ; 2.7503444353791196E7 ; 32606.000000000004
138 ; 81608.52595438667 ; 291079.4151418115 ; 1.1929458196750779E7 ; 2.779315002310569E7 ; 32844.00000000001
139 ; 81119.05372810985 ; 292450.58955018705 ; 1.2011066722705165E7 ; 2.8084229438247498E7 ; 33082.00000000001
140 ; 79616.86339311724 ; 293819.13573764585 ; 1.2092185776433274E7 ; 2.8376680027797684E7 ; 33320.00000000001
141 ; 78690.03687060048 ; 295184.9977473798 ; 1.217180263982639E7 ; 2.867049916353533E7 ; 33558.00000000001
142 ; 78119.35906157788 ; 296548.1204438712 ; 1.2250492676696992E7 ; 2.896568416128271E7 ; 33796.00000000001
143 ; 76864.86243900469 ; 297908.4494899084 ; 1.232861203575857E7 ; 2.926223228172658E7 ; 34034.00000000001
144 ; 76086.31829938255 ; 299265.9313244554 ; 1.2405476898197575E7 ; 2.956014073121649E7 ; 34272.00000000001
145 ; 75945.37174465592 ; 300620.5131413407 ; 1.2481563216496957E7 ; 2.9859406662540946E7 ; 34510.00000000001
146 ; 75510.01960656166 ; 301972.1428687319 ; 1.2557508588241613E7 ; 3.0160027175682288E7 ; 34748.00000000001
147 ; 75516.5094351628 ; 303320.7691493661 ; 1.2633018607848175E7 ; 3.046199931855102E7 ; 34986.00000000001
148 ; 75100.2367671875 ; 304666.3413215036 ; 1.2708535117283337E7 ; 3.0765320087700386E7 ; 35224.00000000001
149 ; 75272.04117776098 ; 306008.80940057704 ; 1.2783635354050525E7 ; 3.1069986429021887E7 ; 35462.00000000001
150 ; 74918.06013594309 ; 307348.12406150857 ; 1.2858907395228285E7 ; 3.1375995238422465E7 ; 35700.00000000001
151 ; 74462.46309149732 ; 308684.2366216682 ; 1.293382545536423E7 ; 3.1683343362483975E7 ; 35938.00000000001
152 ; 74383.35324246362 ; 310017.0990244476 ; 1.3008287918455727E7 ; 3.199202759910564E7 ; 36176.00000000001
153 ; 74056.36383150818 ; 311346.6638234253 ; 1.3082671271698192E7 ; 3.230204469813009E7 ; 36414.00000000001
154 ; 74099.94383165643 ; 312672.8841671008 ; 1.31567276355297E7 ; 3.2613391361953516E7 ; 36652.00000000001
155 ; 73946.67190309873 ; 313995.71378417395 ; 1.3230827579361357E7 ; 3.2926064246120617E7 ; 36890.00000000001
156 ; 73646.54222622629 ; 315315.1069693494 ; 1.3304774251264455E7 ; 3.324005995990479E7 ; 37128.00000000001
157 ; 73312.8589751671 ; 316631.0185696451 ; 1.3378420793490682E7 ; 3.355537506687414E7 ; 37366.00000000001
158 ; 72892.64964982565 ; 317943.403971186 ; 1.3451733652465848E7 ; 3.387200608544379E7 ; 37604.00000000001
159 ; 72872.11366162365 ; 319252.2190864631 ; 1.3524626302115673E7 ; 3.4189949489414975E7 ; 37842.00000000001
160 ; 72219.90116209009 ; 320557.4203420411 ; 1.3597498415777298E7 ; 3.4509201708501436E7 ; 38080.00000000001
161 ; 72241.42550313301 ; 321858.9646666969 ; 1.3669718316939387E7 ; 3.482975912884348E7 ; 38318.00000000001
162 ; 71170.7054304146 ; 323156.80947997223 ; 1.374195974244252E7 ; 3.515161809351017E7 ; 38556.00000000001
163 ; 71765.02094223321 ; 324450.9126811256 ; 1.3813130447872935E7 ; 3.547477490299015E7 ; 38794.00000000001
164 ; 70947.23145334818 ; 325741.23263846705 ; 1.3884895468815168E7 ; 3.579922581567127E7 ; 39032.00000000001
165 ; 70609.31540220603 ; 327027.7281790627 ; 1.3955842700268516E7 ; 3.6124967048309736E7 ; 39270.00000000001
166 ; 70478.28907926261 ; 328310.35857879417 ; 1.4026452015670722E7 ; 3.6451994776488796E7 ; 39508.00000000001
167 ; 70324.01557980868 ; 329589.08355275966 ; 1.4096930304749984E7 ; 3.678030513506759E7 ; 39746.00000000001
168 ; 69581.5528650986 ; 330863.8632460047 ; 1.4167254320329793E7 ; 3.710989421862035E7 ; 39984.00000000001
169 ; 69708.36292187622 ; 332134.6582245692 ; 1.4236835873194892E7 ; 3.7440758081866354E7 ; 40222.00000000001
170 ; 69377.63283022991 ; 333401.4294668398 ; 1.4306544236116769E7 ; 3.777289274009092E7 ; 40460.00000000001
171 ; 68865.07437588664 ; 334664.13835519645 ; 1.4375921868947E7 ; 3.810629416955776E7 ; 40698.00000000001
172 ; 68591.37937005945 ; 335922.7466679413 ; 1.4444786943322886E7 ; 3.844095830791295E7 ; 40936.00000000001
173 ; 67671.26969658596 ; 337177.2165715006 ; 1.4513378322692946E7 ; 3.87768810545809E7 ; 41174.00000000001
174 ; 68482.65367849586 ; 338427.5106128894 ; 1.4581049592389531E7 ; 3.91140582711524E7 ; 41412.00000000001
175 ; 68696.4519707718 ; 339673.59171242936 ; 1.4649532246068027E7 ; 3.945248578176529E7 ; 41650.00000000001
176 ; 68725.98302114024 ; 340915.42315670976 ; 1.4718228698038798E7 ; 3.979215937347772E7 ; 41888.00000000001
177 ; 69258.87391596437 ; 342152.9685917846 ; 1.4786954681059938E7 ; 4.013307479663443E7 ; 42126.00000000001
178 ; 68633.55801184467 ; 343386.1920165961 ; 1.4856213554975903E7 ; 4.0475227765226215E7 ; 42364.00000000001
179 ; 69416.23203865808 ; 344615.05777661625 ; 1.4924847112987747E7 ; 4.081861395724281E7 ; 42602.00000000001
180 ; 69005.78936138637 ; 345839.53055769944 ; 1.4994263345026406E7 ; 4.1163229015019424E7 ; 42840.00000000001
181 ; 69154.3822511372 ; 347059.5753801383 ; 1.5063269134387791E7 ; 4.1509068545577124E7 ; 43078.00000000001
