CSV File for the Network on Day 119
1 - Minute m 
2 - Power Consumed at minute m 
3 - Power Produced at minute m 
4 - Energy Consumed since the beginning of the day 
5 - Energy Produced since the beginning of the day 
6 - Energy Lost since the beginning of the day 
 
No Production city : 2, Producer : 1
No Production city : 4, Producer : 1
No Production city : 4, Producer : 1
 
0 ; 62028.7039702166 ; 173166.52823467323 ; 0.0 ; 0.0 ; 0.0
1 ; 62939.573911410575 ; 172825.64144276158 ; 62028.7039702166 ; 173166.52823467323 ; 238.00000000000003
2 ; 63790.166080500436 ; 172519.57698799044 ; 124968.27788162717 ; 345992.16967743484 ; 476.00000000000006
3 ; 64425.56231595938 ; 172248.68065882594 ; 188758.4439621276 ; 518511.74666542525 ; 714.0000000000001
4 ; 65786.75229479399 ; 172013.2620193114 ; 253184.00627808698 ; 690760.4273242512 ; 952.0000000000001
5 ; 67127.67474481126 ; 171813.59280379672 ; 318970.758572881 ; 862773.6893435626 ; 1190.0000000000002
6 ; 67783.71636585968 ; 171649.9054827159 ; 386098.43331769225 ; 1034587.2821473593 ; 1428.0000000000002
7 ; 69251.08220568112 ; 171522.3920168747 ; 453882.1496835519 ; 1206237.1876300753 ; 1666.0000000000002
8 ; 69624.12503363224 ; 171431.20281574535 ; 523133.23188923305 ; 1377759.57964695 ; 1904.0000000000002
9 ; 70621.05397271887 ; 171376.44591295844 ; 592757.3569228653 ; 1549190.7824626951 ; 2142.0000000000005
10 ; 71767.9049597347 ; 171358.1863695857 ; 663378.4108955842 ; 1720567.2283756535 ; 2380.0000000000005
11 ; 72756.2830538105 ; 171376.44591295844 ; 735146.3158553189 ; 1891925.414745239 ; 2618.0000000000005
12 ; 73559.36386571013 ; 171431.20281574535 ; 807902.5989091294 ; 2063301.8606581974 ; 2856.0000000000005
13 ; 74595.54309692519 ; 171522.3920168747 ; 881461.9627748395 ; 2234733.0634739427 ; 3094.0000000000005
14 ; 75439.65213880295 ; 171649.9054827159 ; 956057.5058717646 ; 2406255.4554908173 ; 3332.0000000000005
15 ; 76378.54105702743 ; 171813.59280379672 ; 1031497.1580105675 ; 2577905.3609735332 ; 3570.0000000000005
16 ; 77030.5592952151 ; 172013.2620193114 ; 1107875.699067595 ; 2749718.95377733 ; 3808.0000000000005
17 ; 77864.32988808482 ; 172248.68065882594 ; 1184906.2583628101 ; 2921732.2157966415 ; 4046.0000000000005
18 ; 78616.5318051039 ; 172519.57698799056 ; 1262770.588250895 ; 3093980.8964554677 ; 4284.000000000001
19 ; 79491.69757844278 ; 172825.6414427615 ; 1341387.120055999 ; 3266500.4734434583 ; 4522.000000000001
20 ; 80441.73875106544 ; 173166.5282346733 ; 1420878.8176344417 ; 3439326.1148862196 ; 4760.000000000001
21 ; 81034.46471128282 ; 173541.8571081121 ; 1501320.556385507 ; 3612492.643120893 ; 4998.000000000001
22 ; 81876.69561076236 ; 173951.21522934575 ; 1582355.02109679 ; 3786034.500229005 ; 5236.000000000001
23 ; 82169.25981062754 ; 174394.1591862692 ; 1664231.7167075523 ; 3959985.7154583507 ; 5474.000000000001
24 ; 83436.71587988637 ; 174870.21707742676 ; 1746400.9765181798 ; 4134379.87464462 ; 5712.000000000001
25 ; 84277.71551541207 ; 175378.89066885758 ; 1829837.6923980662 ; 4309250.091722047 ; 5950.000000000001
26 ; 85004.05370067139 ; 175919.657597649 ; 1914115.4079134783 ; 4484628.982390905 ; 6188.000000000001
27 ; 85591.99591028085 ; 176491.97360175478 ; 1999119.4616141496 ; 4660548.639988554 ; 6426.000000000001
28 ; 86465.6913363178 ; 177095.27475658382 ; 2084711.4575244305 ; 4837040.613590308 ; 6664.000000000001
29 ; 87087.00815615094 ; 177728.97970006577 ; 2171177.1488607484 ; 5014135.888346892 ; 6902.000000000001
30 ; 87564.45085903768 ; 178392.49182929276 ; 2258264.1570168994 ; 5191864.868046958 ; 7140.000000000001
31 ; 88119.21129923429 ; 179085.2014533859 ; 2345828.607875937 ; 5370257.359876251 ; 7378.000000000001
32 ; 89495.71485358059 ; 179806.48788888784 ; 2433947.819175171 ; 5549342.561329637 ; 7616.000000000001
33 ; 89800.88927360307 ; 180555.72148569682 ; 2523443.534028752 ; 5729149.049218524 ; 7854.000000000001
34 ; 90335.4519254267 ; 181332.26557329975 ; 2613244.4233023548 ; 5909704.770704221 ; 8092.000000000001
35 ; 91046.91760562564 ; 182135.47831878535 ; 2703579.8752277815 ; 6091037.0362775205 ; 8330.000000000002
36 ; 91505.52359666362 ; 182964.71448979678 ; 2794626.792833407 ; 6273172.514596306 ; 8568.000000000002
37 ; 92056.64303811919 ; 183819.32711719457 ; 2886132.3164300704 ; 6456137.229086103 ; 8806.000000000002
38 ; 92251.02909071321 ; 184698.66905371248 ; 2978188.9594681896 ; 6639956.556203297 ; 9044.000000000002
39 ; 93842.45401733405 ; 185602.09442629566 ; 3070439.988558903 ; 6824655.22525701 ; 9282.000000000002
40 ; 94164.44452183893 ; 186528.95998109234 ; 3164282.442576237 ; 7010257.319683306 ; 9520.000000000002
41 ; 94037.13207282429 ; 187478.62632122426 ; 3258446.887098076 ; 7196786.279664398 ; 9758.000000000002
42 ; 95079.6239732509 ; 188450.45903848225 ; 3352484.0191709 ; 7384264.905985623 ; 9996.000000000002
43 ; 95682.81628551266 ; 189443.8297409788 ; 3447563.6431441507 ; 7572715.365024105 ; 10234.000000000002
44 ; 96001.64733905398 ; 190458.1169795485 ; 3543246.4594296636 ; 7762159.1947650835 ; 10472.000000000002
45 ; 96590.94526087154 ; 191492.7070763162 ; 3639248.1067687175 ; 7952617.311744632 ; 10710.000000000002
46 ; 97016.70539670778 ; 192546.99485936578 ; 3735839.052029589 ; 8144110.018820948 ; 10948.000000000002
47 ; 96926.45547784139 ; 193620.3843078442 ; 3832855.757426297 ; 8336657.013680314 ; 11186.000000000002
48 ; 98242.37672306072 ; 194712.28911213466 ; 3929782.212904138 ; 8530277.397988157 ; 11424.000000000002
49 ; 97983.06021937206 ; 195822.13315394058 ; 4028024.589627199 ; 8724989.687100291 ; 11662.000000000002
50 ; 99057.79007610222 ; 196949.3509112508 ; 4126007.649846571 ; 8920811.820254233 ; 11900.000000000002
51 ; 99128.06542637757 ; 198093.38779320603 ; 4225065.439922674 ; 9117761.171165483 ; 12138.000000000002
52 ; 99933.70562034087 ; 199253.70040988355 ; 4324193.505349051 ; 9315854.558958689 ; 12376.000000000002
53 ; 100115.02776111513 ; 200429.75678195126 ; 4424127.210969392 ; 9515108.259368572 ; 12614.000000000002
54 ; 99766.3733902533 ; 201621.03649503962 ; 4524242.238730507 ; 9715538.016150523 ; 12852.000000000002
55 ; 100501.31957509022 ; 202827.0308035354 ; 4624008.612120761 ; 9917159.052645562 ; 13090.000000000002
56 ; 101403.91797969752 ; 204047.242688331 ; 4724509.931695851 ; 1.0119986083449097E7 ; 13328.000000000002
57 ; 101327.21049738947 ; 205281.18687286807 ; 4825913.849675548 ; 1.032403332613743E7 ; 13566.000000000002
58 ; 101771.69772234588 ; 206528.38980160418 ; 4927241.060172938 ; 1.0529314513010297E7 ; 13804.000000000002
59 ; 102625.56484835097 ; 207788.389584808 ; 5029012.757895283 ; 1.0735842902811902E7 ; 14042.000000000002
60 ; 102164.88015123105 ; 209060.735913361 ; 5131638.322743635 ; 1.094363129239671E7 ; 14280.000000000002
61 ; 102880.87530450287 ; 210344.989947008 ; 5233803.202894866 ; 1.115269202831007E7 ; 14518.000000000002
62 ; 103107.28355633232 ; 211640.7241792714 ; 5336684.078199368 ; 1.1363037018257078E7 ; 14756.000000000002
63 ; 103232.77831563125 ; 212947.52228200957 ; 5439791.3617557 ; 1.157467774243635E7 ; 14994.000000000002
64 ; 103584.0711902883 ; 214264.97893237745 ; 5543024.1400713315 ; 1.178762526471836E7 ; 15232.000000000002
65 ; 103907.91168768962 ; 215592.69962473182 ; 5646608.21126162 ; 1.2001890243650736E7 ; 15470.000000000002
66 ; 104113.57715899668 ; 216930.30046980953 ; 5750516.12294931 ; 1.2217482943275468E7 ; 15708.000000000002
67 ; 104425.2810997906 ; 218277.40798331084 ; 5854629.7001083065 ; 1.2434413243745279E7 ; 15946.000000000002
68 ; 104381.8072585432 ; 219633.65886582746 ; 5959054.981208097 ; 1.265269065172859E7 ; 16184.000000000002
69 ; 104821.51202390724 ; 220998.69977587447 ; 6063436.788466641 ; 1.2872324310594417E7 ; 16422.000000000004
70 ; 104400.76591710385 ; 222372.1870976181 ; 6168258.300490548 ; 1.3093323010370292E7 ; 16660.000000000004
71 ; 104778.33246279492 ; 223753.7867047297 ; 6272659.066407652 ; 1.331569519746791E7 ; 16898.000000000004
72 ; 104884.85254425685 ; 225143.17372165123 ; 6377437.398870447 ; 1.353944898417264E7 ; 17136.000000000004
73 ; 104973.32948623353 ; 226540.03228341785 ; 6482322.251414703 ; 1.3764592157894291E7 ; 17374.000000000004
74 ; 105214.80847635976 ; 227944.0552950564 ; 6587295.580900936 ; 1.3991132190177709E7 ; 17612.000000000004
75 ; 105030.08749656644 ; 229354.94419146262 ; 6692510.389377296 ; 1.4219076245472765E7 ; 17850.000000000004
76 ; 105676.480594442 ; 230772.40869854976 ; 6797540.476873863 ; 1.4448431189664228E7 ; 18088.000000000004
77 ; 105260.65482054875 ; 232196.1665963632 ; 6903216.957468305 ; 1.4679203598362777E7 ; 18326.000000000004
78 ; 105144.73050087843 ; 233625.94348476667 ; 7008477.612288853 ; 1.491139976495914E7 ; 18564.000000000004
79 ; 105773.79435973693 ; 235061.47255221973 ; 7113622.342789732 ; 1.5145025708443906E7 ; 18802.000000000004
80 ; 105402.13412059878 ; 236502.49434809494 ; 7219396.137149469 ; 1.5380087180996126E7 ; 19040.000000000004
81 ; 105439.15392711113 ; 237948.75655891324 ; 7324798.271270067 ; 1.5616589675344221E7 ; 19278.000000000004
82 ; 105810.7224190644 ; 239400.0137888148 ; 7430237.4251971785 ; 1.5854538431903135E7 ; 19516.000000000004
83 ; 104874.29721024306 ; 240856.02734452792 ; 7536048.147616243 ; 1.609393844569195E7 ; 19754.000000000004
84 ; 105247.4519475575 ; 242316.56502504947 ; 7640922.444826486 ; 1.633479447303648E7 ; 19992.000000000004
85 ; 105014.25792789634 ; 243781.4009162039 ; 7746169.896774043 ; 1.657711103806153E7 ; 20230.000000000004
86 ; 105285.52014157003 ; 245250.31519021062 ; 7851184.15470194 ; 1.6820892438977733E7 ; 20468.000000000004
87 ; 105218.13628118765 ; 246723.093910353 ; 7956469.67484351 ; 1.7066142754167944E7 ; 20706.000000000004
88 ; 105001.03449287859 ; 248199.52884081038 ; 8061687.811124697 ; 1.7312865848078296E7 ; 20944.000000000004
89 ; 104938.35853882864 ; 249679.41726168917 ; 8166688.845617576 ; 1.7561065376919106E7 ; 21182.000000000004
90 ; 104879.61398674066 ; 251162.56178926126 ; 8271627.204156404 ; 1.7810744794180796E7 ; 21420.000000000004
91 ; 104856.64116666271 ; 252648.77020140053 ; 8376506.818143145 ; 1.806190735597006E7 ; 21658.000000000004
92 ; 104348.4842177244 ; 254137.85526818698 ; 8481363.459309807 ; 1.831455612617146E7 ; 21896.000000000004
93 ; 104542.75321627404 ; 255629.63458763287 ; 8585711.94352753 ; 1.8568693981439646E7 ; 22134.000000000004
94 ; 104567.71784818885 ; 257123.9304264713 ; 8690254.696743805 ; 1.882432361602728E7 ; 22372.000000000004
95 ; 103885.41911490011 ; 258620.5695659369 ; 8794822.414591994 ; 1.908144754645375E7 ; 22610.000000000004
96 ; 104087.68618760792 ; 260119.3831524556 ; 8898707.833706895 ; 1.934006811601969E7 ; 22848.000000000004
97 ; 103502.8058611856 ; 261620.20655315559 ; 9002795.519894503 ; 1.9600187499172144E7 ; 23086.000000000004
98 ; 103505.94927920986 ; 263122.8792161015 ; 9106298.32575569 ; 1.98618077057253E7 ; 23324.000000000004
99 ; 103332.15148099516 ; 264627.24453514983 ; 9209804.275034899 ; 2.0124930584941402E7 ; 23562.000000000004
100 ; 102770.73587541048 ; 266133.1497193196 ; 9313136.426515894 ; 2.038955782947655E7 ; 23800.000000000004
101 ; 102950.2725396613 ; 267640.4456665667 ; 9415907.162391305 ; 2.065569097919587E7 ; 24038.000000000004
102 ; 102700.00164105633 ; 269148.98684184975 ; 9518857.434930967 ; 2.0923331424862437E7 ; 24276.000000000004
103 ; 102163.63386602949 ; 270658.631159373 ; 9621557.436572023 ; 2.1192480411704287E7 ; 24514.000000000004
104 ; 102212.85654827929 ; 272169.2398688895 ; 9723721.070438052 ; 2.146313904286366E7 ; 24752.000000000004
105 ; 102019.78787473461 ; 273680.6774459499 ; 9825933.926986331 ; 2.173530828273255E7 ; 24990.000000000004
106 ; 101664.09219110414 ; 275192.81148597895 ; 9927953.714861065 ; 2.20089889601785E7 ; 25228.000000000004
107 ; 100965.49107427771 ; 276705.51260206534 ; 1.0029617807052169E7 ; 2.2284181771664478E7 ; 25466.000000000004
108 ; 100352.60390960038 ; 278218.6543263493 ; 1.0130583298126446E7 ; 2.2560887284266543E7 ; 25704.000000000004
109 ; 100508.03204206584 ; 279732.1130148952 ; 1.0230935902036047E7 ; 2.2839105938592892E7 ; 25942.000000000004
110 ; 100193.9202024192 ; 281245.76775593613 ; 1.0331443934078112E7 ; 2.3118838051607788E7 ; 26180.000000000004
111 ; 99986.31760874187 ; 282759.50028138194 ; 1.0431637854280531E7 ; 2.3400083819363724E7 ; 26418.000000000004
112 ; 99283.44525024552 ; 284273.1948814812 ; 1.0531624171889273E7 ; 2.3682843319645107E7 ; 26656.000000000004
113 ; 98987.98087523195 ; 285786.73832253076 ; 1.0630907617139518E7 ; 2.3967116514526587E7 ; 26894.000000000004
114 ; 98930.67223301185 ; 287300.01976753207 ; 1.072989559801475E7 ; 2.4252903252849117E7 ; 27132.000000000004
115 ; 98006.31748818763 ; 288812.930699689 ; 1.0828826270247761E7 ; 2.4540203272616647E7 ; 27370.000000000004
116 ; 97426.63346900285 ; 290325.3648486522 ; 1.092683258773595E7 ; 2.4829016203316335E7 ; 27608.000000000004
117 ; 97132.37655206566 ; 291837.21811941115 ; 1.1024259221204951E7 ; 2.5119341568164986E7 ; 27846.000000000004
118 ; 97140.28125805715 ; 293348.388523742 ; 1.1121391597757017E7 ; 2.54111787862844E7 ; 28084.000000000004
119 ; 96288.37147843948 ; 294858.77611411986 ; 1.1218531879015075E7 ; 2.570452717480814E7 ; 28322.000000000004
120 ; 96200.00248559212 ; 296368.28292000707 ; 1.1314820250493515E7 ; 2.5999385950922262E7 ; 28560.000000000004
121 ; 95211.59392798127 ; 297876.81288643234 ; 1.1411020252979107E7 ; 2.629575423384227E7 ; 28798.000000000004
122 ; 94620.99796698766 ; 299384.2718147776 ; 1.1506231846907089E7 ; 2.65936310467287E7 ; 29036.000000000004
123 ; 93979.81583003017 ; 300890.56730569253 ; 1.1600852844874077E7 ; 2.689301531854348E7 ; 29274.000000000004
124 ; 93754.28748548248 ; 302395.608704059 ; 1.1694832660704106E7 ; 2.719390588584917E7 ; 29512.000000000004
125 ; 93430.79515093005 ; 303899.3070459299 ; 1.1788586948189588E7 ; 2.749630149455323E7 ; 29750.000000000004
126 ; 93004.89518642318 ; 305401.57500737073 ; 1.1882017743340518E7 ; 2.780020080159916E7 ; 29988.000000000004
127 ; 92166.72311908401 ; 306902.3268551326 ; 1.197502263852694E7 ; 2.810560237660653E7 ; 30226.000000000004
128 ; 91588.09216290049 ; 308401.47839909024 ; 1.2067189361646025E7 ; 2.8412504703461666E7 ; 30464.000000000004
129 ; 90690.20396253988 ; 309898.9469463788 ; 1.2158777453808924E7 ; 2.8720906181860756E7 ; 30702.000000000004
130 ; 90550.65469378006 ; 311394.65125716623 ; 1.2249467657771464E7 ; 2.9030805128807135E7 ; 30940.000000000004
131 ; 89668.6768001207 ; 312888.5115020016 ; 1.2340018312465245E7 ; 2.93421997800643E7 ; 31178.000000000004
132 ; 89109.82276288088 ; 314380.4492206797 ; 1.2429686989265366E7 ; 2.96550882915663E7 ; 31416.000000000004
133 ; 88574.77829434494 ; 315870.3872825656 ; 1.2518796812028246E7 ; 2.996946874078698E7 ; 31654.000000000004
134 ; 88074.17958585153 ; 317358.2498483254 ; 1.2607371590322591E7 ; 3.0285339128069546E7 ; 31892.000000000004
135 ; 87170.42593200918 ; 318843.9623330107 ; 1.2695445769908443E7 ; 3.060269737791787E7 ; 32130.000000000004
136 ; 86557.34343365344 ; 320327.45137044456 ; 1.2782616195840452E7 ; 3.0921541340250883E7 ; 32368.000000000004
137 ; 85528.60508915655 ; 321808.6447788639 ; 1.2869173539274106E7 ; 3.1241868791621327E7 ; 32606.000000000004
138 ; 85663.5662544975 ; 323287.4715277678 ; 1.2954702144363262E7 ; 3.156367743640019E7 ; 32844.00000000001
139 ; 84835.02695363681 ; 324763.8617059297 ; 1.3040365710617758E7 ; 3.1886964907927956E7 ; 33082.00000000001
140 ; 83713.96606802606 ; 326237.746490528 ; 1.3125200737571396E7 ; 3.2211728769633885E7 ; 33320.00000000001
141 ; 82784.05486859573 ; 327709.0581173554 ; 1.3208914703639422E7 ; 3.2537966516124412E7 ; 33558.00000000001
142 ; 81987.08028179969 ; 329177.72985206475 ; 1.3291698758508017E7 ; 3.286567557424177E7 ; 33796.00000000001
143 ; 81946.03015011575 ; 330643.69596241537 ; 1.3373685838789817E7 ; 3.3194853304093834E7 ; 34034.00000000001
144 ; 80423.9195501956 ; 332106.8916914802 ; 1.3455631868939932E7 ; 3.352549700005625E7 ; 34272.00000000001
145 ; 80679.4911760511 ; 333567.2532317803 ; 1.3536055788490128E7 ; 3.385760389174773E7 ; 34510.00000000001
146 ; 80131.69072942926 ; 335024.71770031104 ; 1.361673527966618E7 ; 3.419117114497951E7 ; 34748.00000000001
147 ; 79993.3813379651 ; 336479.2231144275 ; 1.369686697039561E7 ; 3.452619586267982E7 ; 34986.00000000001
148 ; 79550.86992478078 ; 337930.70836855803 ; 1.3776860351733575E7 ; 3.486267508579425E7 ; 35224.00000000001
149 ; 79635.87077441986 ; 339379.11321171385 ; 1.3856411221658355E7 ; 3.52006057941628E7 ; 35462.00000000001
150 ; 79568.4337682794 ; 340824.3782257673 ; 1.3936047092432775E7 ; 3.5539984907374516E7 ; 35700.00000000001
151 ; 78890.20635497534 ; 342266.44480446907 ; 1.4015615526201054E7 ; 3.588080928560028E7 ; 35938.00000000001
152 ; 78450.96802067125 ; 343705.255133179 ; 1.409450573255603E7 ; 3.622307573040475E7 ; 36176.00000000001
153 ; 78335.30750277411 ; 345140.75216928165 ; 1.4172956700576702E7 ; 3.656678098553793E7 ; 36414.00000000001
154 ; 78262.64744412893 ; 346572.8796232648 ; 1.4251292008079477E7 ; 3.691192173770721E7 ; 36652.00000000001
155 ; 77901.72676676986 ; 348001.5819404353 ; 1.4329554655523606E7 ; 3.725849461733048E7 ; 36890.00000000001
156 ; 77598.13774244275 ; 349426.80428324814 ; 1.4407456382290376E7 ; 3.760649619927091E7 ; 37128.00000000001
157 ; 77834.1467759484 ; 350848.4925142287 ; 1.448505452003282E7 ; 3.795592300355416E7 ; 37366.00000000001
158 ; 77432.26464269891 ; 352266.5931794649 ; 1.4562888666808767E7 ; 3.830677149606839E7 ; 37604.00000000001
159 ; 77030.81398561197 ; 353681.05349264975 ; 1.4640320931451466E7 ; 3.865903808924785E7 ; 37842.00000000001
160 ; 76582.25477338696 ; 355091.8213196544 ; 1.4717351745437078E7 ; 3.90127191427405E7 ; 38080.00000000001
161 ; 76393.00881891097 ; 356498.84516361187 ; 1.4793934000210466E7 ; 3.936781096406016E7 ; 38318.00000000001
162 ; 75968.47107612407 ; 357902.0741504944 ; 1.4870327009029377E7 ; 3.972430980922377E7 ; 38556.00000000001
163 ; 75519.31102311327 ; 359301.45801516605 ; 1.49462954801055E7 ; 4.008221188337427E7 ; 38794.00000000001
164 ; 75165.81294268969 ; 360696.9470878935 ; 1.5021814791128613E7 ; 4.044151334138943E7 ; 39032.00000000001
165 ; 75118.81411888779 ; 362088.4922812993 ; 1.5096980604071302E7 ; 4.0802210288477324E7 ; 39270.00000000001
166 ; 75039.90415558917 ; 363476.0450777422 ; 1.517209941819019E7 ; 4.116429878075863E7 ; 39508.00000000001
167 ; 74478.04704361511 ; 364859.5575171079 ; 1.524713932234578E7 ; 4.152777482583637E7 ; 39746.00000000001
168 ; 74303.9231751095 ; 366238.98218499805 ; 1.5321617369389396E7 ; 4.189263438335348E7 ; 39984.00000000001
169 ; 73852.83253307854 ; 367614.27220130124 ; 1.5395921292564506E7 ; 4.225887336553848E7 ; 40222.00000000001
170 ; 73419.59086596759 ; 368985.38120913494 ; 1.5469774125097584E7 ; 4.262648763773978E7 ; 40460.00000000001
171 ; 72789.0476178118 ; 370352.26336414303 ; 1.5543193715963552E7 ; 4.299547301894891E7 ; 40698.00000000001
172 ; 72583.32863719581 ; 371714.8733241385 ; 1.5615982763581363E7 ; 4.336582528231306E7 ; 40936.00000000001
173 ; 72277.35191784432 ; 373073.1662390786 ; 1.568856609221856E7 ; 4.37375401556372E7 ; 41174.00000000001
174 ; 72424.71927194274 ; 374427.0977413604 ; 1.5760843444136404E7 ; 4.411061332187627E7 ; 41412.00000000001
175 ; 72740.94288616782 ; 375776.6239364267 ; 1.5833268163408346E7 ; 4.448504041961763E7 ; 41650.00000000001
176 ; 72348.81587541493 ; 377121.70139367104 ; 1.5906009106294515E7 ; 4.486081704355406E7 ; 41888.00000000001
177 ; 72240.52940878517 ; 378462.28713763173 ; 1.597835792216993E7 ; 4.523793874494773E7 ; 42126.00000000001
178 ; 72349.04029096998 ; 379798.3386394648 ; 1.6050598451578714E7 ; 4.561640103208537E7 ; 42364.00000000001
179 ; 72710.51136182951 ; 381129.8138086868 ; 1.6122947491869684E7 ; 4.5996199370724835E7 ; 42602.00000000001
180 ; 72485.72214523502 ; 382456.670985178 ; 1.6195658003231514E7 ; 4.637732918453352E7 ; 42840.00000000001
181 ; 72644.4319003253 ; 383778.8689314365 ; 1.626814372537675E7 ; 4.67597858555187E7 ; 43078.00000000001
