CSV File for the Network on Day 330
1 - Minute m 
2 - Power Consumed at minute m 
3 - Power Produced at minute m 
4 - Energy Consumed since the beginning of the day 
5 - Energy Produced since the beginning of the day 
6 - Energy Lost since the beginning of the day 
 
No Production city : 2, Producer : 1
No Production city : 4, Producer : 1
No Production city : 4, Producer : 1
 
0 ; 58802.893919419126 ; 216456.82398756838 ; 0.0 ; 0.0 ; 0.0
1 ; 60212.28817471277 ; 216102.77552744557 ; 58802.893919419126 ; 216456.82398756838 ; 238.00000000000003
2 ; 60625.99561387464 ; 215785.1671631653 ; 119015.18209413189 ; 432559.599515014 ; 476.00000000000006
3 ; 61699.189607048 ; 215504.27053291822 ; 179641.17770800652 ; 648344.7666781793 ; 714.0000000000001
4 ; 62247.752033169025 ; 215260.32788303672 ; 241340.36731505452 ; 863849.0372110975 ; 952.0000000000001
5 ; 63344.05340250858 ; 215053.55113380574 ; 303588.11934822355 ; 1079109.3650941344 ; 1190.0000000000002
6 ; 64399.89010898886 ; 214884.12105153385 ; 366932.17275073216 ; 1294162.91622794 ; 1428.0000000000002
7 ; 65082.13644889547 ; 214752.18653442673 ; 431332.062859721 ; 1509047.0372794739 ; 1666.0000000000002
8 ; 65643.29126595265 ; 214657.86401887244 ; 496414.19930861646 ; 1723799.2238139005 ; 1904.0000000000002
9 ; 66849.60489768432 ; 214601.2370117024 ; 562057.4905745691 ; 1938457.0878327729 ; 2142.0000000000005
10 ; 67480.57775359509 ; 214582.35575286095 ; 628907.0954722534 ; 2153058.3248444754 ; 2380.0000000000005
11 ; 68145.44962831936 ; 214601.2370117024 ; 696387.6732258485 ; 2367640.6805973365 ; 2618.0000000000005
12 ; 69010.04087865145 ; 214657.86401887244 ; 764533.1228541678 ; 2582241.9176090388 ; 2856.0000000000005
13 ; 69189.85896368348 ; 214752.18653442673 ; 833543.1637328193 ; 2796899.781627911 ; 3094.0000000000005
14 ; 70076.90292134367 ; 214884.1210515338 ; 902733.0226965027 ; 3011651.968162338 ; 3332.0000000000005
15 ; 71554.25086702748 ; 215053.55113380574 ; 972809.9256178464 ; 3226536.0892138714 ; 3570.0000000000005
16 ; 72150.1546092245 ; 215260.32788303672 ; 1044364.1764848739 ; 3441589.6403476773 ; 3808.0000000000005
17 ; 72818.45855166488 ; 215504.27053291822 ; 1116514.3310940983 ; 3656849.968230714 ; 4046.0000000000005
18 ; 73505.66420750326 ; 215785.16716316534 ; 1189332.789645763 ; 3872354.2387636323 ; 4284.000000000001
19 ; 74231.41326551471 ; 216102.7755274455 ; 1262838.4538532663 ; 4088139.4059267975 ; 4522.000000000001
20 ; 74790.48053213023 ; 216456.8239875684 ; 1337069.867118781 ; 4304242.181454243 ; 4760.000000000001
21 ; 75256.69933049934 ; 216847.01254558522 ; 1411860.3476509112 ; 4520699.005441812 ; 4998.000000000001
22 ; 76100.8435261816 ; 217273.01396476355 ; 1487117.0469814106 ; 4737546.0179873975 ; 5236.000000000001
23 ; 76768.74746862664 ; 217734.474969865 ; 1563217.8905075921 ; 4954819.031952161 ; 5474.000000000001
24 ; 77178.18269622518 ; 218231.01751674846 ; 1639986.6379762187 ; 5172553.506922026 ; 5712.000000000001
25 ; 77845.86446258686 ; 218762.24012106672 ; 1717164.8206724438 ; 5390784.524438774 ; 5950.000000000001
26 ; 78503.93625853724 ; 219327.71923570224 ; 1795010.6851350307 ; 5609546.764559841 ; 6188.000000000001
27 ; 79172.45060893553 ; 219927.01066660255 ; 1873514.6213935679 ; 5828874.483795543 ; 6426.000000000001
28 ; 79570.86604818227 ; 220559.65101681597 ; 1952687.0720025033 ; 6048801.4944621455 ; 6664.000000000001
29 ; 80197.0583619074 ; 221225.15914878424 ; 2032257.9380506857 ; 6269361.145478961 ; 6902.000000000001
30 ; 81210.26290517059 ; 221923.03765530852 ; 2112454.996412593 ; 6490586.304627745 ; 7140.000000000001
31 ; 81558.54462309771 ; 222652.77433005942 ; 2193665.2593177636 ; 6712509.342283054 ; 7378.000000000001
32 ; 82311.5905390153 ; 223413.84362903092 ; 2275223.8039408615 ; 6935162.116613113 ; 7616.000000000001
33 ; 82032.70251510039 ; 224205.70811493378 ; 2357535.394479877 ; 7158575.960242144 ; 7854.000000000001
34 ; 83005.79429286507 ; 225027.81987717046 ; 2439568.0969949774 ; 7382781.668357078 ; 8092.000000000001
35 ; 83463.29054161577 ; 225879.62192071456 ; 2522573.8912878423 ; 7607809.488234248 ; 8330.000000000002
36 ; 83838.76124934001 ; 226760.5495179242 ; 2606037.181829458 ; 7833689.110154962 ; 8568.000000000002
37 ; 84928.57202430314 ; 227670.0315180345 ; 2689875.9430787982 ; 8060449.659672886 ; 8806.000000000002
38 ; 85485.73689354502 ; 228607.49160979223 ; 2774804.5151031013 ; 8288119.691190921 ; 9044.000000000002
39 ; 85607.12586167647 ; 229572.3495333999 ; 2860290.251996646 ; 8516727.182800714 ; 9282.000000000002
40 ; 86363.8395862848 ; 230564.02223862387 ; 2945897.3778583226 ; 8746299.532334113 ; 9520.000000000002
41 ; 86505.14444062868 ; 231581.92498658097 ; 3032261.2174446075 ; 8976863.554572737 ; 9758.000000000002
42 ; 87024.95122477766 ; 232625.47239334218 ; 3118766.361885236 ; 9208445.479559317 ; 9996.000000000002
43 ; 87322.31504635692 ; 233694.07941408295 ; 3205791.313110014 ; 9441070.951952659 ; 10234.000000000002
44 ; 88051.73495822688 ; 234787.16226704986 ; 3293113.628156371 ; 9674765.031366741 ; 10472.000000000002
45 ; 88462.25203162432 ; 235904.1392971201 ; 3381165.3631145977 ; 9909552.193633791 ; 10710.000000000002
46 ; 88313.78517058666 ; 237044.43177917774 ; 3469627.615146222 ; 1.0145456332930911E7 ; 10948.000000000002
47 ; 89148.9091704752 ; 238207.46466194242 ; 3557941.400316809 ; 1.038250076471009E7 ; 11186.000000000002
48 ; 89369.72132689175 ; 239392.66725324251 ; 3647090.309487284 ; 1.0620708229372032E7 ; 11424.000000000002
49 ; 90015.44040930158 ; 240599.47384803975 ; 3736460.030814176 ; 1.0860100896625275E7 ; 11662.000000000002
50 ; 90190.63503582038 ; 241827.3243007819 ; 3826475.4712234777 ; 1.1100700370473314E7 ; 11900.000000000002
51 ; 90382.07928699827 ; 243075.66454388408 ; 3916666.106259298 ; 1.1342527694774097E7 ; 12138.000000000002
52 ; 91103.97705388244 ; 244343.94705432796 ; 4007048.185546296 ; 1.158560335931798E7 ; 12376.000000000002
53 ; 91405.84980123039 ; 245631.63127051515 ; 4098152.1626001787 ; 1.182994730637231E7 ; 12614.000000000002
54 ; 91389.48212130935 ; 246938.18396162475 ; 4189558.012401409 ; 1.2075578937642824E7 ; 12852.000000000002
55 ; 92030.59652462947 ; 248263.07955180758 ; 4280947.494522719 ; 1.2322517121604448E7 ; 13090.000000000002
56 ; 92386.75071159366 ; 249605.80040160302 ; 4372978.091047348 ; 1.2570780201156255E7 ; 13328.000000000002
57 ; 92221.11593840248 ; 250965.8370489902 ; 4465364.841758942 ; 1.2820386001557859E7 ; 13566.000000000002
58 ; 92995.90329226629 ; 252342.68841249117 ; 4557585.957697345 ; 1.307135183860685E7 ; 13804.000000000002
59 ; 92801.48446068354 ; 253735.86195872893 ; 4650581.860989612 ; 1.332369452701934E7 ; 14042.000000000002
60 ; 93509.75102678614 ; 255144.87383680764 ; 4743383.345450295 ; 1.357743038897807E7 ; 14280.000000000002
61 ; 93429.69664966973 ; 256569.24898183724 ; 4836893.096477081 ; 1.3832575262814878E7 ; 14518.000000000002
62 ; 93413.87650945123 ; 258008.52118986423 ; 4930322.793126751 ; 1.4089144511796715E7 ; 14756.000000000002
63 ; 93877.29016869157 ; 259462.23316639892 ; 5023736.669636202 ; 1.434715303298658E7 ; 14994.000000000002
64 ; 94326.26041200536 ; 260929.93655065223 ; 5117613.9598048935 ; 1.4606615266152978E7 ; 15232.000000000002
65 ; 94399.28865583113 ; 262411.1919175107 ; 5211940.220216899 ; 1.486754520270363E7 ; 15470.000000000002
66 ; 94767.85937595736 ; 263905.5687591873 ; 5306339.508872731 ; 1.5129956394621141E7 ; 15708.000000000002
67 ; 95012.74625264434 ; 265412.64544839354 ; 5401107.368248688 ; 1.539386196338033E7 ; 15946.000000000002
68 ; 95185.88184764556 ; 266932.0091847854 ; 5496120.114501333 ; 1.5659274608828723E7 ; 16184.000000000002
69 ; 95319.92612689592 ; 268463.25592633494 ; 5591305.996348978 ; 1.5926206618013509E7 ; 16422.000000000004
70 ; 94831.01905629486 ; 270005.9903071909 ; 5686625.9224758735 ; 1.6194669873939844E7 ; 16660.000000000004
71 ; 95467.54487198318 ; 271559.82554348884 ; 5781456.941532169 ; 1.6464675864247035E7 ; 16898.000000000004
72 ; 95697.25970369874 ; 273124.3833284854 ; 5876924.486404152 ; 1.6736235689790525E7 ; 17136.000000000004
73 ; 95773.70307657836 ; 274699.2937182948 ; 5972621.74610785 ; 1.700936007311901E7 ; 17374.000000000004
74 ; 95645.52472221434 ; 276284.1950094206 ; 6068395.449184429 ; 1.7284059366837304E7 ; 17612.000000000004
75 ; 95903.6641333161 ; 277878.7336091884 ; 6164040.973906644 ; 1.7560343561846726E7 ; 17850.000000000004
76 ; 95784.10076626853 ; 279482.56390010443 ; 6259944.63803996 ; 1.7838222295455914E7 ; 18088.000000000004
77 ; 95962.25757950303 ; 281095.34809908475 ; 6355728.738806228 ; 1.811770485935602E7 ; 18326.000000000004
78 ; 96116.99267064038 ; 282716.7561124268 ; 6451690.996385731 ; 1.8398800207455106E7 ; 18564.000000000004
79 ; 96247.65295879003 ; 284346.4653873211 ; 6547807.989056371 ; 1.8681516963567533E7 ; 18802.000000000004
80 ; 96398.69757470772 ; 285984.16076063697 ; 6644055.642015161 ; 1.8965863428954855E7 ; 19040.000000000004
81 ; 96076.33593046924 ; 287629.5343056481 ; 6740454.339589869 ; 1.9251847589715492E7 ; 19278.000000000004
82 ; 96361.99282860065 ; 289282.28517730883 ; 6836530.675520338 ; 1.953947712402114E7 ; 19516.000000000004
83 ; 96269.36417502679 ; 290942.1194566303 ; 6932892.668348939 ; 1.9828759409198448E7 ; 19754.000000000004
84 ; 96288.75224591867 ; 292608.74999465805 ; 7029162.032523966 ; 2.011970152865508E7 ; 19992.000000000004
85 ; 96167.13395736221 ; 294281.8962564998 ; 7125450.784769885 ; 2.0412310278649736E7 ; 20230.000000000004
86 ; 96339.542553045 ; 295961.28416580847 ; 7221617.918727247 ; 2.0706592174906235E7 ; 20468.000000000004
87 ; 96163.60575361394 ; 297646.6459500814 ; 7317957.461280292 ; 2.1002553459072042E7 ; 20706.000000000004
88 ; 96421.06302066476 ; 299337.71998709836 ; 7414121.067033906 ; 2.1300200105022125E7 ; 20944.000000000004
89 ; 96452.92262692121 ; 301034.250652785 ; 7510542.130054571 ; 2.1599537825009223E7 ; 21182.000000000004
90 ; 96166.97898200691 ; 302735.9881707515 ; 7606995.052681492 ; 2.190057207566201E7 ; 21420.000000000004
91 ; 96238.53734415967 ; 304442.6884637296 ; 7703162.031663499 ; 2.220330806383276E7 ; 21658.000000000004
92 ; 95870.09504592174 ; 306154.1130070988 ; 7799400.569007658 ; 2.250775075229649E7 ; 21896.000000000004
93 ; 96597.16015027292 ; 307870.0286846692 ; 7895270.66405358 ; 2.2813904865303587E7 ; 22134.000000000004
94 ; 95982.5530223971 ; 309590.20764686156 ; 7991867.824203853 ; 2.3121774893988255E7 ; 22372.000000000004
95 ; 95904.17133343335 ; 311314.42717140657 ; 8087850.377226249 ; 2.3431365101635117E7 ; 22610.000000000004
96 ; 95372.11408472218 ; 313042.46952666185 ; 8183754.548559682 ; 2.3742679528806522E7 ; 22848.000000000004
97 ; 95463.45254327558 ; 314774.1218376305 ; 8279126.662644405 ; 2.4055721998333186E7 ; 23086.000000000004
98 ; 95472.98338605337 ; 316509.1759547452 ; 8374590.11518768 ; 2.4370496120170817E7 ; 23324.000000000004
99 ; 95033.20379153197 ; 318247.4283254698 ; 8470063.098573733 ; 2.468700529612556E7 ; 23562.000000000004
100 ; 94634.06386948693 ; 319988.6798687547 ; 8565096.302365266 ; 2.500525272445103E7 ; 23800.000000000004
101 ; 95030.99129904315 ; 321732.735852372 ; 8659730.366234753 ; 2.5325241404319786E7 ; 24038.000000000004
102 ; 94705.24946619151 ; 323479.40577314363 ; 8754761.357533796 ; 2.5646974140172157E7 ; 24276.000000000004
103 ; 94485.11015295087 ; 325228.503240067 ; 8849466.606999988 ; 2.59704535459453E7 ; 24514.000000000004
104 ; 94176.93520606916 ; 326979.84586033475 ; 8943951.717152938 ; 2.629568204918537E7 ; 24752.000000000004
105 ; 94030.97481263556 ; 328733.2551282357 ; 9038128.652359007 ; 2.6622661895045705E7 ; 24990.000000000004
106 ; 93864.53589576625 ; 330488.5563169174 ; 9132159.627171643 ; 2.695139515017394E7 ; 25228.000000000004
107 ; 93694.98122996076 ; 332245.5783729884 ; 9226024.16306741 ; 2.7281883706490856E7 ; 25466.000000000004
108 ; 93751.77100375702 ; 334004.15381392447 ; 9319719.14429737 ; 2.7614129284863845E7 ; 25704.000000000004
109 ; 93156.76457049868 ; 335764.1186282506 ; 9413470.915301127 ; 2.794813343867777E7 ; 25942.000000000004
110 ; 93358.7468445852 ; 337525.31217845343 ; 9506627.679871626 ; 2.828389755730602E7 ; 26180.000000000004
111 ; 93071.49778379203 ; 339287.5771065871 ; 9599986.426716212 ; 2.8621422869484477E7 ; 26418.000000000004
112 ; 92569.50649059113 ; 341050.7592425234 ; 9693057.924500003 ; 2.8960710446591064E7 ; 26656.000000000004
113 ; 91997.36515940068 ; 342814.70751480036 ; 9785627.430990595 ; 2.9301761205833588E7 ; 26894.000000000004
114 ; 91894.4424665534 ; 344579.2738640194 ; 9877624.796149995 ; 2.9644575913348388E7 ; 27132.000000000004
115 ; 91249.82954196932 ; 346344.31315873854 ; 9969519.238616548 ; 2.9989155187212408E7 ; 27370.000000000004
116 ; 90950.67585554428 ; 348109.68311381055 ; 1.0060769068158519E7 ; 3.0335499500371147E7 ; 27608.000000000004
117 ; 90910.03386174323 ; 349875.2442111102 ; 1.0151719744014062E7 ; 3.0683609183484957E7 ; 27846.000000000004
118 ; 90533.5187227663 ; 351640.8596225981 ; 1.0242629777875805E7 ; 3.1033484427696068E7 ; 28084.000000000004
119 ; 90045.70344054245 ; 353406.39513566374 ; 1.0333163296598572E7 ; 3.1385125287318666E7 ; 28322.000000000004
120 ; 89524.5916392673 ; 355171.71908069565 ; 1.0423209000039116E7 ; 3.173853168245433E7 ; 28560.000000000004
121 ; 89397.0157541234 ; 356936.7022608193 ; 1.0512733591678383E7 ; 3.2093703401535023E7 ; 28798.000000000004
122 ; 89202.4103314745 ; 358701.21788375126 ; 1.0602130607432507E7 ; 3.245064010379584E7 ; 29036.000000000004
123 ; 88478.0526082727 ; 360465.1414957116 ; 1.0691333017763982E7 ; 3.2809341321679592E7 ; 29274.000000000004
124 ; 88110.27305821443 ; 362228.3509173416 ; 1.0779811070372254E7 ; 3.3169806463175304E7 ; 29512.000000000004
125 ; 87896.30109645562 ; 363990.72618157254 ; 1.0867921343430469E7 ; 3.3532034814092647E7 ; 29750.000000000004
126 ; 86797.86569498829 ; 365752.1494733904 ; 1.0955817644526925E7 ; 3.389602554027422E7 ; 29988.000000000004
127 ; 86765.9376028118 ; 367512.50507144636 ; 1.1042615510221913E7 ; 3.426177768974761E7 ; 30226.000000000004
128 ; 86156.53527467794 ; 369271.6792914578 ; 1.1129381447824726E7 ; 3.4629290194819055E7 ; 30464.000000000004
129 ; 85840.32754286358 ; 371029.5604313522 ; 1.1215537983099405E7 ; 3.499856187411051E7 ; 30702.000000000004
130 ; 85680.3305768134 ; 372786.0387181 ; 1.1301378310642269E7 ; 3.5369591434541866E7 ; 30940.000000000004
131 ; 84776.33761257726 ; 374541.0062561901 ; 1.1387058641219081E7 ; 3.574237747325996E7 ; 31178.000000000004
132 ; 84300.80571187407 ; 376294.35697769746 ; 1.1471834978831658E7 ; 3.6116918479516156E7 ; 31416.000000000004
133 ; 83788.30054239108 ; 378045.9865938969 ; 1.1556135784543533E7 ; 3.649321283649385E7 ; 31654.000000000004
134 ; 83273.40547502355 ; 379795.79254837555 ; 1.1639924085085925E7 ; 3.6871258823087744E7 ; 31892.000000000004
135 ; 82682.89302349335 ; 381543.67397160054 ; 1.1723197490560949E7 ; 3.725105461563612E7 ; 32130.000000000004
136 ; 82234.15044108879 ; 383289.53163689515 ; 1.1805880383584442E7 ; 3.763259828960772E7 ; 32368.000000000004
137 ; 81783.7612841724 ; 385033.2679177825 ; 1.1888114534025531E7 ; 3.801588782124461E7 ; 32606.000000000004
138 ; 80928.56322130162 ; 386774.78674665396 ; 1.1969898295309704E7 ; 3.8400921089162394E7 ; 32844.00000000001
139 ; 80685.13500100124 ; 388513.9935747218 ; 1.2050826858531006E7 ; 3.8787695875909045E7 ; 33082.00000000001
140 ; 80191.18437020051 ; 390250.7953332149 ; 1.2131511993532008E7 ; 3.917620986948377E7 ; 33320.00000000001
141 ; 79034.76742579162 ; 391985.10039578023 ; 1.2211703177902209E7 ; 3.956646066481698E7 ; 33558.00000000001
142 ; 78879.16323801895 ; 393716.818542052 ; 1.2290737945328001E7 ; 3.995844576521277E7 ; 33796.00000000001
143 ; 78262.95164879806 ; 395445.86092235165 ; 1.236961710856602E7 ; 4.0352162583754815E7 ; 34034.00000000001
144 ; 77449.82357161699 ; 397172.14002348256 ; 1.2447880060214818E7 ; 4.074760844467717E7 ; 34272.00000000001
145 ; 77254.6425252662 ; 398895.5696355861 ; 1.2525329883786434E7 ; 4.114478058470065E7 ; 34510.00000000001
146 ; 77309.47486369585 ; 400616.06482002465 ; 1.2602584526311701E7 ; 4.154367615433624E7 ; 34748.00000000001
147 ; 76894.69715128987 ; 402333.5418782583 ; 1.2679894001175396E7 ; 4.194429221915626E7 ; 34986.00000000001
148 ; 77250.51893904028 ; 404047.9183216858 ; 1.2756788698326686E7 ; 4.234662576103452E7 ; 35224.00000000001
149 ; 76930.4906175923 ; 405759.1128424169 ; 1.2834039217265727E7 ; 4.27506736793562E7 ; 35462.00000000001
150 ; 76735.18322300943 ; 407467.0452849469 ; 1.2910969707883319E7 ; 4.315643279219862E7 ; 35700.00000000001
151 ; 76335.27478291257 ; 409171.6366187058 ; 1.2987704891106328E7 ; 4.356389983748357E7 ; 35938.00000000001
152 ; 76403.02168122004 ; 410872.8089114525 ; 1.306404016588924E7 ; 4.397307147410227E7 ; 36176.00000000001
153 ; 75796.97380027402 ; 412570.48530348757 ; 1.314044318757046E7 ; 4.4383944283013724E7 ; 36414.00000000001
154 ; 75855.23834938086 ; 414264.5899826594 ; 1.3216240161370734E7 ; 4.479651476831721E7 ; 36652.00000000001
155 ; 75434.41135454559 ; 415955.0481601364 ; 1.3292095399720114E7 ; 4.521077935829987E7 ; 36890.00000000001
156 ; 75335.44369620437 ; 417641.7860469227 ; 1.336752981107466E7 ; 4.562673440646E7 ; 37128.00000000001
157 ; 75353.5075158518 ; 419324.7308310914 ; 1.3442865254770864E7 ; 4.6044376192506924E7 ; 37366.00000000001
158 ; 75196.57397566621 ; 421003.81065571477 ; 1.3518218762286715E7 ; 4.646370092333802E7 ; 37604.00000000001
159 ; 74927.13816466859 ; 422678.95459746727 ; 1.359341533626238E7 ; 4.688470473399373E7 ; 37842.00000000001
160 ; 74429.61529837106 ; 424350.0926458802 ; 1.366834247442705E7 ; 4.73073836885912E7 ; 38080.00000000001
161 ; 74304.88146756594 ; 426017.1556832274 ; 1.3742772089725422E7 ; 4.773173378123708E7 ; 38318.00000000001
162 ; 73749.09410220283 ; 427680.07546502276 ; 1.3817076971192988E7 ; 4.815775093692031E7 ; 38556.00000000001
163 ; 73838.04549512094 ; 429338.78460110707 ; 1.389082606529519E7 ; 4.858543101238533E7 ; 38794.00000000001
164 ; 73721.56215941481 ; 430993.21653730865 ; 1.396466411079031E7 ; 4.901476979698644E7 ; 39032.00000000001
165 ; 73430.28518749343 ; 432643.3055376579 ; 1.4038385672949726E7 ; 4.944576301352375E7 ; 39270.00000000001
166 ; 73360.96932317934 ; 434288.98666713753 ; 1.411181595813722E7 ; 4.9878406319061406E7 ; 39508.00000000001
167 ; 73304.76332232362 ; 435930.19577495276 ; 1.4185176927460399E7 ; 5.031269530572854E7 ; 39746.00000000001
168 ; 73078.14131321447 ; 437566.86947830376 ; 1.4258481690782722E7 ; 5.074862550150349E7 ; 39984.00000000001
169 ; 72663.15009313048 ; 439198.94514664554 ; 1.4331559832095936E7 ; 5.118619237098179E7 ; 40222.00000000001
170 ; 72631.38082110252 ; 440826.3608864181 ; 1.4404222982189067E7 ; 5.162539131612843E7 ; 40460.00000000001
171 ; 72275.68206858973 ; 442449.05552623374 ; 1.447685436301017E7 ; 5.206621767701485E7 ; 40698.00000000001
172 ; 72044.14909781996 ; 444066.96860250644 ; 1.454913004507876E7 ; 5.2508666732541084E7 ; 40936.00000000001
173 ; 71889.95913876133 ; 445680.0403455079 ; 1.462117419417658E7 ; 5.295273370114359E7 ; 41174.00000000001
174 ; 71568.08294388051 ; 447288.21166583936 ; 1.4693064153315343E7 ; 5.33984137414891E7 ; 41412.00000000001
175 ; 71700.91103845005 ; 448891.4241413041 ; 1.4764632236259224E7 ; 5.384570195315494E7 ; 41650.00000000001
176 ; 71870.30886758326 ; 450489.62000416813 ; 1.4836333147297675E7 ; 5.429459337729624E7 ; 41888.00000000001
177 ; 71712.49231545423 ; 452082.7421287986 ; 1.4908203456165258E7 ; 5.474508299730041E7 ; 42126.00000000001
178 ; 71904.7840975855 ; 453670.73401966545 ; 1.4979915948480712E7 ; 5.5197165739429206E7 ; 42364.00000000001
179 ; 72280.29875314713 ; 455253.53979969746 ; 1.5051820732578298E7 ; 5.565083647344887E7 ; 42602.00000000001
180 ; 72146.93908862388 ; 456831.1041989797 ; 1.5124101031331446E7 ; 5.610609001324857E7 ; 42840.00000000001
181 ; 72628.52435014285 ; 458403.37254378235 ; 1.519624797042007E7 ; 5.656292111744755E7 ; 43078.00000000001
