CSV File for the Network on Day 188
1 - Minute m 
2 - Power Consumed at minute m 
3 - Power Produced at minute m 
4 - Energy Consumed since the beginning of the day 
5 - Energy Produced since the beginning of the day 
6 - Energy Lost since the beginning of the day 
 
No Production city : 2, Producer : 1
No Production city : 4, Producer : 1
No Production city : 4, Producer : 1
 
0 ; 30911.03438374929 ; 142113.68073372132 ; 0.0 ; 0.0 ; 0.0
1 ; 32461.487128253353 ; 141750.52609682697 ; 30911.03438374929 ; 142113.68073372132 ; 238.00000000000003
2 ; 33911.29729764352 ; 141423.997516851 ; 63372.52151200264 ; 283864.2068305483 ; 476.00000000000006
3 ; 35441.708805844275 ; 141134.61171825606 ; 97283.81880964615 ; 425288.2043473993 ; 714.0000000000001
4 ; 37298.62241066428 ; 140882.83430920084 ; 132725.52761549043 ; 566422.8160656553 ; 952.0000000000001
5 ; 38886.21753946439 ; 140669.07636110403 ; 170024.1500261547 ; 707305.6503748562 ; 1190.0000000000002
6 ; 40731.49220035439 ; 140493.69131031545 ; 208910.3675656191 ; 847974.7267359602 ; 1428.0000000000002
7 ; 41407.7361329713 ; 140356.9722349285 ; 249641.85976597347 ; 988468.4180462756 ; 1666.0000000000002
8 ; 43413.59305040426 ; 140259.14955485283 ; 291049.59589894477 ; 1128825.3902812041 ; 1904.0000000000002
9 ; 45088.89962247583 ; 140200.3891968689 ; 334463.18894934905 ; 1269084.539836057 ; 2142.0000000000005
10 ; 46770.74602961757 ; 140180.79125864827 ; 379552.0885718249 ; 1409284.929032926 ; 2380.0000000000005
11 ; 47981.794915770886 ; 140200.3891968689 ; 426322.83460144245 ; 1549465.7202915743 ; 2618.0000000000005
12 ; 49118.963593007575 ; 140259.14955485283 ; 474304.6295172133 ; 1689666.1094884432 ; 2856.0000000000005
13 ; 51042.269055777506 ; 140356.9722349285 ; 523423.5931102209 ; 1829925.259043296 ; 3094.0000000000005
14 ; 52011.22472820323 ; 140493.69131031545 ; 574465.8621659984 ; 1970282.2312782246 ; 3332.0000000000005
15 ; 53463.9950038141 ; 140669.07636110403 ; 626477.0868942017 ; 2110775.9225885402 ; 3570.0000000000005
16 ; 54767.68065697694 ; 140882.83430920084 ; 679941.0818980158 ; 2251444.998949644 ; 3808.0000000000005
17 ; 56413.79094847277 ; 141134.611718256 ; 734708.7625549927 ; 2392327.833258845 ; 4046.0000000000005
18 ; 57472.69885504321 ; 141423.99751685106 ; 791122.5535034655 ; 2533462.444977101 ; 4284.000000000001
19 ; 58573.174453220025 ; 141750.5260968269 ; 848595.2523585086 ; 2674886.442493952 ; 4522.000000000001
20 ; 60373.11519335944 ; 142113.68073372138 ; 907168.4268117286 ; 2816636.9685907788 ; 4760.000000000001
21 ; 61313.827731869984 ; 142512.89727294605 ; 967541.5420050881 ; 2958750.6493245 ; 4998.000000000001
22 ; 62517.02119269375 ; 142947.56802357538 ; 1028855.3697369581 ; 3101263.546597446 ; 5236.000000000001
23 ; 64030.11691776536 ; 143417.04580139607 ; 1091372.390929652 ; 3244211.1146210213 ; 5474.000000000001
24 ; 64859.603837442104 ; 143920.64806405437 ; 1155402.5078474174 ; 3387628.1604224173 ; 5712.000000000001
25 ; 66844.24511028132 ; 144457.6610835965 ; 1220262.1116848595 ; 3531548.808486472 ; 5950.000000000001
26 ; 67586.68740082775 ; 145027.3441052258 ; 1287106.3567951408 ; 3676006.469570068 ; 6188.000000000001
27 ; 68915.35363182118 ; 145628.93344548767 ; 1354693.0441959684 ; 3821033.813675294 ; 6426.000000000001
28 ; 70014.63065878619 ; 146261.6464881224 ; 1423608.3978277897 ; 3966662.747120782 ; 6664.000000000001
29 ; 71211.43382432414 ; 146924.68554127973 ; 1493623.028486576 ; 4112924.3936089044 ; 6902.000000000001
30 ; 71988.3174127695 ; 147617.24152545197 ; 1564834.4623109 ; 4259849.079150184 ; 7140.000000000001
31 ; 73295.38428801559 ; 148338.49746718432 ; 1636822.7797236694 ; 4407466.320675636 ; 7378.000000000001
32 ; 74782.28604540047 ; 149087.63177918375 ; 1710118.164011685 ; 4555804.81814282 ; 7616.000000000001
33 ; 75468.81055248437 ; 149863.8213127451 ; 1784900.4500570854 ; 4704892.449922004 ; 7854.000000000001
34 ; 76405.48490557044 ; 150666.24417334545 ; 1860369.2606095697 ; 4854756.271234749 ; 8092.000000000001
35 ; 77883.9495899918 ; 151494.082294733 ; 1936774.7455151402 ; 5005422.515408094 ; 8330.000000000002
36 ; 78411.47134864985 ; 152346.52377082323 ; 2014658.695105132 ; 5156916.597702827 ; 8568.000000000002
37 ; 79476.0631362321 ; 153222.76494817107 ; 2093070.1664537818 ; 5309263.12147365 ; 8806.000000000002
38 ; 79857.18085983211 ; 154122.01228472244 ; 2172546.229590014 ; 5462485.886421821 ; 9044.000000000002
39 ; 81107.38353007316 ; 155043.4839829603 ; 2252403.410449846 ; 5616607.898706543 ; 9282.000000000002
40 ; 82132.64338757859 ; 155986.41140748427 ; 2333510.7939799195 ; 5771651.382689504 ; 9520.000000000002
41 ; 82932.57939335829 ; 156950.040298531 ; 2415643.437367498 ; 5927637.794096989 ; 9758.000000000002
42 ; 83848.09821665543 ; 157933.63179399297 ; 2498576.0167608564 ; 6084587.834395519 ; 9996.000000000002
43 ; 84578.04307114577 ; 158936.46327318138 ; 2582424.1149775116 ; 6242521.466189512 ; 10234.000000000002
44 ; 85335.8456760802 ; 159957.82903593808 ; 2667002.1580486572 ; 6401457.929462694 ; 10472.000000000002
45 ; 86366.8460939763 ; 160997.04083079382 ; 2752338.0037247376 ; 6561415.758498631 ; 10710.000000000002
46 ; 87104.27195968025 ; 162053.4282457304 ; 2838704.849818714 ; 6722412.799329425 ; 10948.000000000002
47 ; 87938.89620506625 ; 163126.33897477886 ; 2925809.121778394 ; 6884466.227575156 ; 11186.000000000002
48 ; 89114.898692408 ; 164215.13897321254 ; 3013748.0179834603 ; 7047592.566549934 ; 11424.000000000002
49 ; 89761.111440335 ; 165319.21251351255 ; 3102862.9166758684 ; 7211807.705523147 ; 11662.000000000002
50 ; 90356.9934115642 ; 166437.96215361435 ; 3192624.0281162034 ; 7377126.91803666 ; 11900.000000000002
51 ; 90724.55041676745 ; 167570.80862822584 ; 3282981.0215277676 ; 7543564.880190275 ; 12138.000000000002
52 ; 91887.3413757787 ; 168717.19067325487 ; 3373705.5719445352 ; 7711135.6888185 ; 12376.000000000002
53 ; 92595.26229453362 ; 169876.5647926187 ; 3465592.913320314 ; 7879852.879491755 ; 12614.000000000002
54 ; 93235.18747602469 ; 171048.40497594516 ; 3558188.175614848 ; 8049729.444284374 ; 12852.000000000002
55 ; 93723.63814610847 ; 172232.20237492767 ; 3651423.3630908723 ; 8220777.849260319 ; 13090.000000000002
56 ; 94256.74437010183 ; 173427.46494537158 ; 3745147.001236981 ; 8393010.051635247 ; 13328.000000000002
57 ; 94844.49077428087 ; 174633.71706127704 ; 3839403.7456070827 ; 8566437.516580619 ; 13566.000000000002
58 ; 95865.68828249196 ; 175850.49910664806 ; 3934248.2363813636 ; 8741071.233641896 ; 13804.000000000002
59 ; 95718.73686824378 ; 177077.36705010015 ; 4030113.9246638557 ; 8916921.732748544 ; 14042.000000000002
60 ; 96698.7284341367 ; 178313.89200676559 ; 4125832.6615320994 ; 9093999.099798644 ; 14280.000000000002
61 ; 97035.6676797341 ; 179559.65979146303 ; 4222531.389966236 ; 9272312.99180541 ; 14518.000000000002
62 ; 97694.90537040975 ; 180814.27046660896 ; 4319567.057645971 ; 9451872.651596872 ; 14756.000000000002
63 ; 98041.49658041638 ; 182077.33788790068 ; 4417261.963016381 ; 9632686.922063481 ; 14994.000000000002
64 ; 98602.8902509873 ; 183348.4892503938 ; 4515303.459596797 ; 9814764.259951381 ; 15232.000000000002
65 ; 98907.84135736075 ; 184627.36463722758 ; 4613906.349847784 ; 9998112.749201775 ; 15470.000000000002
66 ; 99455.17646274732 ; 185913.61657291936 ; 4712814.191205145 ; 1.0182740113839002E7 ; 15708.000000000002
67 ; 99901.7619255566 ; 187206.90958284968 ; 4812269.367667892 ; 1.0368653730411923E7 ; 15946.000000000002
68 ; 100481.66341212478 ; 188506.91976029545 ; 4912171.129593449 ; 1.0555860639994772E7 ; 16184.000000000002
69 ; 100604.26628340254 ; 189813.33434212857 ; 5012652.793005574 ; 1.0744367559755068E7 ; 16422.000000000004
70 ; 100960.8983093063 ; 191125.85129408873 ; 5113257.059288976 ; 1.0934180894097196E7 ; 16660.000000000004
71 ; 101093.4627791914 ; 192444.1789063535 ; 5214217.957598282 ; 1.1125306745391285E7 ; 16898.000000000004
72 ; 101329.41888735555 ; 193768.03539996463 ; 5315311.420377473 ; 1.1317750924297638E7 ; 17136.000000000004
73 ; 102289.66086451846 ; 195097.14854452925 ; 5416640.839264829 ; 1.1511518959697602E7 ; 17374.000000000004
74 ; 102199.45454711557 ; 196431.25528748773 ; 5518930.500129347 ; 1.1706616108242132E7 ; 17612.000000000004
75 ; 102437.95177303551 ; 197770.10139513543 ; 5621129.954676462 ; 1.1903047363529619E7 ; 17850.000000000004
76 ; 103112.45125529745 ; 199113.4411054897 ; 5723567.906449498 ; 1.2100817464924755E7 ; 18088.000000000004
77 ; 102956.00051536245 ; 200461.0367930177 ; 5826680.357704795 ; 1.2299930906030245E7 ; 18326.000000000004
78 ; 102951.86845615524 ; 201812.65864517028 ; 5929636.358220157 ; 1.2500391942823263E7 ; 18564.000000000004
79 ; 103321.84043032752 ; 203168.0843506111 ; 6032588.226676312 ; 1.2702204601468433E7 ; 18802.000000000004
80 ; 103240.7228712141 ; 204527.09879898385 ; 6135910.06710664 ; 1.2905372685819045E7 ; 19040.000000000004
81 ; 103172.68376838317 ; 205889.4937920177 ; 6239150.789977854 ; 1.310989978461803E7 ; 19278.000000000004
82 ; 103584.70948852802 ; 207255.06776574283 ; 6342323.473746237 ; 1.3315789278410047E7 ; 19516.000000000004
83 ; 103577.53998240747 ; 208623.6255235581 ; 6445908.183234765 ; 1.352304434617579E7 ; 19754.000000000004
84 ; 103948.19590567162 ; 209994.9779798749 ; 6549485.723217173 ; 1.3731667971699348E7 ; 19992.000000000004
85 ; 103451.74062521716 ; 211368.94191404473 ; 6653433.919122844 ; 1.3941662949679222E7 ; 20230.000000000004
86 ; 103668.31296403304 ; 212745.33973426558 ; 6756885.659748062 ; 1.4153031891593266E7 ; 20468.000000000004
87 ; 103900.57705945021 ; 214123.9992511562 ; 6860553.972712095 ; 1.4365777231327532E7 ; 20706.000000000004
88 ; 103796.94280764315 ; 215504.75346067955 ; 6964454.549771545 ; 1.4579901230578689E7 ; 20944.000000000004
89 ; 104092.20823344922 ; 216887.4403360976 ; 7068251.492579188 ; 1.4795405984039368E7 ; 21182.000000000004
90 ; 103883.85583445223 ; 218271.9026286367 ; 7172343.700812638 ; 1.5012293424375465E7 ; 21420.000000000004
91 ; 103608.40482638609 ; 219657.98767654592 ; 7276227.55664709 ; 1.5230565327004101E7 ; 21658.000000000004
92 ; 103596.99869673877 ; 221045.5472222348 ; 7379835.961473476 ; 1.5450223314680647E7 ; 21896.000000000004
93 ; 103842.9961072052 ; 222434.43723717929 ; 7483432.960170215 ; 1.5671268861902881E7 ; 22134.000000000004
94 ; 103517.15699354261 ; 223824.51775429244 ; 7587275.95627742 ; 1.589370329914006E7 ; 22372.000000000004
95 ; 103571.79933728448 ; 225215.65270746272 ; 7690793.113270963 ; 1.6117527816894352E7 ; 22610.000000000004
96 ; 103041.80724469942 ; 226607.70977796894 ; 7794364.912608247 ; 1.6342743469601816E7 ; 22848.000000000004
97 ; 103170.14705380343 ; 228000.5602474894 ; 7897406.719852947 ; 1.6569351179379784E7 ; 23086.000000000004
98 ; 103289.78428688247 ; 229394.0788574315 ; 8000576.86690675 ; 1.6797351739627272E7 ; 23324.000000000004
99 ; 102957.14613293551 ; 230788.14367431568 ; 8103866.651193633 ; 1.7026745818484705E7 ; 23562.000000000004
100 ; 102655.8832338136 ; 232182.63596095637 ; 8206823.7973265685 ; 1.725753396215902E7 ; 23800.000000000004
101 ; 102616.78409412934 ; 233577.44005319235 ; 8309479.680560382 ; 1.7489716598119974E7 ; 24038.000000000004
102 ; 101947.68542621889 ; 234972.44324192626 ; 8412096.46465451 ; 1.7723294038173165E7 ; 24276.000000000004
103 ; 101512.09531536244 ; 236367.53566024336 ; 8514044.15008073 ; 1.7958266481415093E7 ; 24514.000000000004
104 ; 101602.01548930138 ; 237762.61017538703 ; 8615556.245396093 ; 1.8194634017075337E7 ; 24752.000000000004
105 ; 101293.59101762071 ; 239157.56228537808 ; 8717158.260885393 ; 1.8432396627250724E7 ; 24990.000000000004
106 ; 101000.45547199177 ; 240552.29002007315 ; 8818451.851903014 ; 1.8671554189536102E7 ; 25228.000000000004
107 ; 100522.54233660284 ; 241946.69384646555 ; 8919452.307375006 ; 1.8912106479556177E7 ; 25466.000000000004
108 ; 100421.80954033283 ; 243340.67657804003 ; 9019974.84971161 ; 1.915405317340264E7 ; 25704.000000000004
109 ; 99912.52150505579 ; 244734.1432880014 ; 9120396.659251943 ; 1.9397393849980682E7 ; 25942.000000000004
110 ; 99624.41545964156 ; 246127.00122620384 ; 9220309.180757 ; 1.9642127993268684E7 ; 26180.000000000004
111 ; 98913.02414443665 ; 247519.15973961604 ; 9319933.596216641 ; 1.988825499449489E7 ; 26418.000000000004
112 ; 98853.223792557 ; 248910.5301961633 ; 9418846.620361079 ; 2.0135774154234506E7 ; 26656.000000000004
113 ; 98452.39389037005 ; 250301.0259117959 ; 9517699.844153635 ; 2.038468468443067E7 ; 26894.000000000004
114 ; 97770.44443804877 ; 251690.562080639 ; 9616152.238044005 ; 2.0634985710342467E7 ; 27132.000000000004
115 ; 97153.27418019675 ; 253079.05570808612 ; 9713922.682482054 ; 2.0886676272423107E7 ; 27370.000000000004
116 ; 96477.62886169391 ; 254466.42554670433 ; 9811075.95666225 ; 2.113975532813119E7 ; 27608.000000000004
117 ; 96431.84090824121 ; 255852.59203482495 ; 9907553.585523944 ; 2.1394221753677897E7 ; 27846.000000000004
118 ; 95549.45398765735 ; 257237.4772376999 ; 1.0003985426432185E7 ; 2.165007434571272E7 ; 28084.000000000004
119 ; 94667.78628326186 ; 258621.0047911089 ; 1.0099534880419843E7 ; 2.1907311822950423E7 ; 28322.000000000004
120 ; 94299.31158232562 ; 260003.0998473078 ; 1.0194202666703105E7 ; 2.2165932827741534E7 ; 28560.000000000004
121 ; 93992.5095317743 ; 261383.689023214 ; 1.028850197828543E7 ; 2.2425935927588843E7 ; 28798.000000000004
122 ; 93027.99766434533 ; 262762.7003507292 ; 1.0382494487817204E7 ; 2.2687319616612058E7 ; 29036.000000000004
123 ; 92621.5492237984 ; 264140.0632291039 ; 1.0475522485481549E7 ; 2.2950082316962786E7 ; 29274.000000000004
124 ; 92004.24319563793 ; 265515.7083792541 ; 1.0568144034705348E7 ; 2.321422238019189E7 ; 29512.000000000004
125 ; 91133.40611738355 ; 266889.5677999425 ; 1.0660148277900986E7 ; 2.3479738088571142E7 ; 29750.000000000004
126 ; 90558.44758946079 ; 268261.5747257432 ; 1.075128168401837E7 ; 2.3746627656371083E7 ; 29988.000000000004
127 ; 90219.88477067492 ; 269631.6635867095 ; 1.084184013160783E7 ; 2.4014889231096826E7 ; 30226.000000000004
128 ; 89215.32886073383 ; 270999.7699696716 ; 1.0932060016378505E7 ; 2.4284520894683536E7 ; 30464.000000000004
129 ; 87945.3193648217 ; 272365.8305810919 ; 1.1021275345239239E7 ; 2.4555520664653208E7 ; 30702.000000000004
130 ; 87623.00788523554 ; 273729.78321140877 ; 1.110922066460406E7 ; 2.48278864952343E7 ; 30940.000000000004
131 ; 86860.92506748786 ; 275091.56670080643 ; 1.1196843672489297E7 ; 2.510161627844571E7 ; 31178.000000000004
132 ; 85755.32661478125 ; 276451.1209063456 ; 1.1283704597556785E7 ; 2.5376707845146514E7 ; 31416.000000000004
133 ; 84905.51845076402 ; 277808.38667039905 ; 1.1369459924171565E7 ; 2.565315896605286E7 ; 31654.000000000004
134 ; 83871.47854747863 ; 279163.30579033255 ; 1.145436544262233E7 ; 2.593096735272326E7 ; 31892.000000000004
135 ; 83583.9647363627 ; 280515.8209893806 ; 1.1538236921169808E7 ; 2.621013065851359E7 ; 32130.000000000004
136 ; 82616.4286365531 ; 281865.8758886627 ; 1.1621820885906171E7 ; 2.6490646479502972E7 ; 32368.000000000004
137 ; 81294.82556743386 ; 283213.4149802933 ; 1.1704437314542724E7 ; 2.6772512355391636E7 ; 32606.000000000004
138 ; 80123.50070203522 ; 284558.383601538 ; 1.1785732140110157E7 ; 2.705572577037193E7 ; 32844.00000000001
139 ; 79718.32440485424 ; 285900.72790997144 ; 1.1865855640812192E7 ; 2.7340284153973468E7 ; 33082.00000000001
140 ; 78945.83713312092 ; 287240.3948595941 ; 1.1945573965217046E7 ; 2.762618488188344E7 ; 33320.00000000001
141 ; 77622.38284019925 ; 288577.3321778683 ; 1.2024519802350167E7 ; 2.7913425276743032E7 ; 33558.00000000001
142 ; 76264.28371394418 ; 289911.48834363377 ; 1.2102142185190367E7 ; 2.8202002608920902E7 ; 33796.00000000001
143 ; 75624.41010993143 ; 291242.8125658672 ; 1.217840646890431E7 ; 2.8491914097264536E7 ; 34034.00000000001
144 ; 74535.29973163687 ; 292571.254763248 ; 1.2254030879014242E7 ; 2.8783156909830403E7 ; 34272.00000000001
145 ; 74364.44729123806 ; 293896.76554449997 ; 1.2328566178745879E7 ; 2.9075728164593652E7 ; 34510.00000000001
146 ; 74162.19010937322 ; 295219.2961894735 ; 1.2402930626037117E7 ; 2.9369624930138152E7 ; 34748.00000000001
147 ; 73920.85128817041 ; 296538.79863094026 ; 1.2477092816146491E7 ; 2.9664844226327624E7 ; 34986.00000000001
148 ; 73905.03495021764 ; 297855.22543706925 ; 1.255101366743466E7 ; 2.9961383024958566E7 ; 35224.00000000001
149 ; 73681.0714103078 ; 299168.52979455714 ; 1.2624918702384878E7 ; 3.0259238250395633E7 ; 35462.00000000001
150 ; 73081.51525829163 ; 300478.6654923854 ; 1.2698599773795186E7 ; 3.0558406780190192E7 ; 35700.00000000001
151 ; 73097.51166615763 ; 301785.58690618013 ; 1.2771681289053477E7 ; 3.0858885445682578E7 ; 35938.00000000001
152 ; 72974.36437681472 ; 303089.24898314814 ; 1.2844778800719636E7 ; 3.1160671032588758E7 ; 36176.00000000001
153 ; 72650.47222859444 ; 304389.60722756776 ; 1.291775316509645E7 ; 3.1463760281571906E7 ; 36414.00000000001
154 ; 72259.21801108401 ; 305686.6176868106 ; 1.2990403637325045E7 ; 3.1768149888799474E7 ; 36652.00000000001
155 ; 72504.74305418364 ; 306980.2369378747 ; 1.306266285533613E7 ; 3.2073836506486285E7 ; 36890.00000000001
156 ; 72214.74860259936 ; 308270.42207440635 ; 1.3135167598390313E7 ; 3.238081674342416E7 ; 37128.00000000001
157 ; 71855.128166461 ; 309557.1306941934 ; 1.3207382346992912E7 ; 3.2689087165498566E7 ; 37366.00000000001
158 ; 71073.8147536188 ; 310840.32088710985 ; 1.3279237475159373E7 ; 3.2998644296192758E7 ; 37604.00000000001
159 ; 71012.84490556555 ; 312119.95122349454 ; 1.3350311289912991E7 ; 3.330948461707987E7 ; 37842.00000000001
160 ; 70682.34454664693 ; 313395.9807429466 ; 1.3421324134818558E7 ; 3.362160456830336E7 ; 38080.00000000001
161 ; 70125.39944371118 ; 314668.3689435217 ; 1.3492006479365205E7 ; 3.393500054904631E7 ; 38318.00000000001
162 ; 70176.68150743245 ; 315937.0757713131 ; 1.3562131878808917E7 ; 3.424966891798983E7 ; 38556.00000000001
163 ; 69778.69346777824 ; 317202.06161040266 ; 1.363230856031635E7 ; 3.456560599376114E7 ; 38794.00000000001
164 ; 69066.33267336898 ; 318463.2872731675 ; 1.370208725378413E7 ; 3.488280805537154E7 ; 39032.00000000001
165 ; 68783.7624752087 ; 319720.7139909287 ; 1.3771153586457498E7 ; 3.520127134264471E7 ; 39270.00000000001
166 ; 68300.96055491982 ; 320974.3034049287 ; 1.3839937348932708E7 ; 3.552099205663563E7 ; 39508.00000000001
167 ; 68382.4877708723 ; 322224.0175576247 ; 1.3908238309487628E7 ; 3.584196636004056E7 ; 39746.00000000001
168 ; 67926.85136911151 ; 323469.8188842873 ; 1.39766207972585E7 ; 3.616419037759818E7 ; 39984.00000000001
169 ; 67223.66027699964 ; 324711.6702048899 ; 1.404454764862761E7 ; 3.648766019648247E7 ; 40222.00000000001
170 ; 67460.88373466968 ; 325949.53471628146 ; 1.411177130890461E7 ; 3.6812371866687365E7 ; 40460.00000000001
171 ; 66623.71040995722 ; 327183.37598462944 ; 1.417923219263928E7 ; 3.713832140140364E7 ; 40698.00000000001
172 ; 66357.10291636866 ; 328413.15793812356 ; 1.4245855903049238E7 ; 3.7465504777388275E7 ; 40936.00000000001
173 ; 66139.99543875574 ; 329638.8448599307 ; 1.4312213005965607E7 ; 3.77939179353264E7 ; 41174.00000000001
174 ; 66295.54015855391 ; 330860.4013813913 ; 1.4378353001404364E7 ; 3.8123556780186325E7 ; 41412.00000000001
175 ; 66735.12521984824 ; 332077.7924754493 ; 1.4444648541562917E7 ; 3.845441718156771E7 ; 41650.00000000001
176 ; 66503.32067219274 ; 333290.9834503052 ; 1.4511383666782765E7 ; 3.878649497404316E7 ; 41888.00000000001
177 ; 66643.09286996629 ; 334499.93994328566 ; 1.4577886987454958E7 ; 3.911978595749347E7 ; 42126.00000000001
178 ; 67497.08929840673 ; 335704.62791492115 ; 1.4644530080324925E7 ; 3.945428589743675E7 ; 42364.00000000001
179 ; 66840.79981133288 ; 336905.01364322373 ; 1.4712027169623332E7 ; 3.978999052535167E7 ; 42602.00000000001
180 ; 67536.0253179248 ; 338101.06371815805 ; 1.4778867969434666E7 ; 4.012689553899489E7 ; 42840.00000000001
181 ; 67953.64458471343 ; 339292.74503629864 ; 1.484640399475259E7 ; 4.046499660271305E7 ; 43078.00000000001
182 ; 68147.57939188278 ; 340480.0247956664 ; 1.4914357639337303E7 ; 4.0804289347749345E7 ; 43316.00000000001
