CSV File for the Network on Day 324
1 - Minute m 
2 - Power Consumed at minute m 
3 - Power Produced at minute m 
4 - Energy Consumed since the beginning of the day 
5 - Energy Produced since the beginning of the day 
6 - Energy Lost since the beginning of the day 
 
No Production city : 2, Producer : 1
No Production city : 4, Producer : 1
No Production city : 4, Producer : 1
 
0 ; 59887.71022542235 ; 224233.7821515145 ; 0.0 ; 0.0 ; 0.0
1 ; 61005.55846790554 ; 223873.33352145954 ; 59887.71022542235 ; 224233.7821515145 ; 238.00000000000003
2 ; 62160.427134331054 ; 223550.01482259796 ; 120893.26869332789 ; 448107.11567297403 ; 476.00000000000006
3 ; 62741.82637025205 ; 223264.0925765949 ; 183053.69582765893 ; 671657.130495572 ; 714.0000000000001
4 ; 63935.82933585888 ; 223015.8043646537 ; 245795.522197911 ; 894921.2230721669 ; 952.0000000000001
5 ; 64455.26061911462 ; 222805.35794709122 ; 309731.35153376986 ; 1117937.0274368206 ; 1190.0000000000002
6 ; 64934.79549473635 ; 222632.9304837578 ; 374186.6121528845 ; 1340742.385383912 ; 1428.0000000000002
7 ; 66598.04439167549 ; 222498.667862134 ; 439121.4076476208 ; 1563375.3158676696 ; 1666.0000000000002
8 ; 67112.2851211829 ; 222402.68413907976 ; 505719.45203929633 ; 1785873.9837298037 ; 1904.0000000000002
9 ; 67939.61275950515 ; 222345.06110126228 ; 572831.7371604792 ; 2008276.6678688833 ; 2142.0000000000005
10 ; 68857.8373467709 ; 222325.84794826224 ; 640771.3499199843 ; 2230621.728970146 ; 2380.0000000000005
11 ; 69899.42416075585 ; 222345.06110126228 ; 709629.1872667553 ; 2452947.5769184083 ; 2618.0000000000005
12 ; 70767.8863065004 ; 222402.68413907976 ; 779528.6114275111 ; 2675292.6380196707 ; 2856.0000000000005
13 ; 71270.09678929753 ; 222498.667862134 ; 850296.4977340115 ; 2897695.3221587506 ; 3094.0000000000005
14 ; 72335.2886933807 ; 222632.93048375775 ; 921566.594523309 ; 3120193.9900208847 ; 3332.0000000000005
15 ; 73175.48087173015 ; 222805.35794709122 ; 993901.8832166897 ; 3342826.9205046427 ; 3570.0000000000005
16 ; 73563.86134563336 ; 223015.8043646537 ; 1067077.3640884198 ; 3565632.2784517338 ; 3808.0000000000005
17 ; 74570.57321234554 ; 223264.09257659485 ; 1140641.2254340532 ; 3788648.0828163875 ; 4046.0000000000005
18 ; 75389.6405655146 ; 223550.01482259802 ; 1215211.7986463988 ; 4011912.1753929825 ; 4284.000000000001
19 ; 75878.98271851493 ; 223873.33352145943 ; 1290601.4392119134 ; 4235462.19021558 ; 4522.000000000001
20 ; 76625.08542455174 ; 224233.78215151455 ; 1366480.4219304284 ; 4459335.523737039 ; 4760.000000000001
21 ; 77480.34957694427 ; 224631.06622433418 ; 1443105.50735498 ; 4683569.305888554 ; 4998.000000000001
22 ; 77941.30397389038 ; 225064.86434348224 ; 1520585.8569319244 ; 4908200.372112888 ; 5236.000000000001
23 ; 78634.59103454062 ; 225534.82933961356 ; 1598527.1609058147 ; 5133265.23645637 ; 5474.000000000001
24 ; 79156.80629990154 ; 226040.58947280433 ; 1677161.7519403554 ; 5358800.065795983 ; 5712.000000000001
25 ; 80228.6462429879 ; 226581.74969274574 ; 1756318.558240257 ; 5584840.655268787 ; 5950.000000000001
26 ; 80232.03887733805 ; 227157.8929472941 ; 1836547.2044832448 ; 5811422.404961533 ; 6188.000000000001
27 ; 81531.37172790788 ; 227768.5815298506 ; 1916779.2433605827 ; 6038580.297908827 ; 6426.000000000001
28 ; 82093.74034498031 ; 228413.35845613905 ; 1998310.6150884905 ; 6266348.879438678 ; 6664.000000000001
29 ; 83010.66305582646 ; 229091.74886115117 ; 2080404.3554334708 ; 6494762.237894817 ; 6902.000000000001
30 ; 83022.35094478038 ; 229803.26140732213 ; 2163415.0184892975 ; 6723853.986755968 ; 7140.000000000001
31 ; 83741.72227370398 ; 230547.38969538093 ; 2246437.3694340778 ; 6953657.24816329 ; 7378.000000000001
32 ; 84090.55108757522 ; 231323.6136697745 ; 2330179.091707782 ; 7184204.637858671 ; 7616.000000000001
33 ; 85182.88025869118 ; 232131.40101107786 ; 2414269.642795357 ; 7415528.251528446 ; 7854.000000000001
34 ; 85668.51188128635 ; 232970.20850837033 ; 2499452.523054048 ; 7647659.652539523 ; 8092.000000000001
35 ; 86506.91119540988 ; 233839.48340515682 ; 2585121.034935334 ; 7880629.861047894 ; 8330.000000000002
36 ; 87180.32835954754 ; 234738.664713044 ; 2671627.946130744 ; 8114469.344453051 ; 8568.000000000002
37 ; 87165.12983582784 ; 235667.18448802043 ; 2758808.2744902917 ; 8349208.0091660945 ; 8806.000000000002
38 ; 87477.6629050456 ; 236624.46906483895 ; 2845973.4043261195 ; 8584875.193654114 ; 9044.000000000002
39 ; 88457.16625170011 ; 237609.94024564122 ; 2933451.0672311652 ; 8821499.662718954 ; 9282.000000000002
40 ; 88956.22778492974 ; 238623.01643959136 ; 3021908.233482865 ; 9059109.602964595 ; 9520.000000000002
41 ; 89372.01080483147 ; 239663.11375089636 ; 3110864.461267795 ; 9297732.619404186 ; 9758.000000000002
42 ; 89801.20981606681 ; 240729.6470131703 ; 3200236.4720726265 ; 9537395.733155081 ; 9996.000000000002
43 ; 89815.46249354784 ; 241822.03076865262 ; 3290037.6818886935 ; 9778125.380168252 ; 10234.000000000002
44 ; 90678.85043516723 ; 242939.6801913021 ; 3379853.144382241 ; 1.0019947410936905E7 ; 10472.000000000002
45 ; 90925.07756931397 ; 244082.0119532685 ; 3470531.9948174083 ; 1.0262887091128208E7 ; 10710.000000000002
46 ; 91881.49793568792 ; 245248.44503467763 ; 3561457.072386722 ; 1.0506969103081476E7 ; 10948.000000000002
47 ; 91631.13777984485 ; 246438.40147706086 ; 3653338.57032241 ; 1.0752217548116153E7 ; 11186.000000000002
48 ; 92344.63897440559 ; 247651.30708111508 ; 3744969.708102255 ; 1.0998655949593214E7 ; 11424.000000000002
49 ; 93046.16767381557 ; 248886.59204978915 ; 3837314.347076661 ; 1.1246307256674329E7 ; 11662.000000000002
50 ; 93209.92383502761 ; 250143.69157796586 ; 3930360.5147504765 ; 1.1495193848724118E7 ; 11900.000000000002
51 ; 94087.6192693962 ; 251422.0463902402 ; 4023570.438585504 ; 1.1745337540302083E7 ; 12138.000000000002
52 ; 93757.02937338036 ; 252721.10322849115 ; 4117658.0578549 ; 1.1996759586692324E7 ; 12376.000000000002
53 ; 94071.53607906113 ; 254040.31529110385 ; 4211415.0872282805 ; 1.2249480689920815E7 ; 12614.000000000002
54 ; 94347.67951224923 ; 255379.14262582734 ; 4305486.623307342 ; 1.2503521005211918E7 ; 12852.000000000002
55 ; 95037.66363747566 ; 256737.05247835018 ; 4399834.302819591 ; 1.2758900147837745E7 ; 13090.000000000002
56 ; 95101.31041537166 ; 258113.51959874772 ; 4494871.966457067 ; 1.3015637200316096E7 ; 13328.000000000002
57 ; 95615.82194764385 ; 259508.0265079962 ; 4589973.276872438 ; 1.3273750719914844E7 ; 13566.000000000002
58 ; 96270.20704931389 ; 260920.06372677564 ; 4685589.098820082 ; 1.353325874642284E7 ; 13804.000000000002
59 ; 96474.28422851584 ; 262349.1299687828 ; 4781859.305869396 ; 1.3794178810149616E7 ; 14042.000000000002
60 ; 96528.4428223408 ; 263794.732300762 ; 4878333.590097912 ; 1.4056527940118399E7 ; 14280.000000000002
61 ; 96482.80761083291 ; 265256.38627142995 ; 4974862.0329202525 ; 1.432032267241916E7 ; 14518.000000000002
62 ; 96908.56023124122 ; 266733.6160114306 ; 5071344.840531086 ; 1.458557905869059E7 ; 14756.000000000002
63 ; 97553.28838998596 ; 268225.9543063977 ; 5168253.400762327 ; 1.4852312674702022E7 ; 14994.000000000002
64 ; 97687.20453126279 ; 269732.94264514383 ; 5265806.689152313 ; 1.512053862900842E7 ; 15232.000000000002
65 ; 97829.48534982957 ; 271254.1312449217 ; 5363493.893683576 ; 1.5390271571653564E7 ; 15470.000000000002
66 ; 97953.75898443414 ; 272789.0790556279 ; 5461323.379033405 ; 1.5661525702898486E7 ; 15708.000000000002
67 ; 97949.7359092219 ; 274337.35374474013 ; 5559277.13801784 ; 1.5934314781954113E7 ; 15946.000000000002
68 ; 98069.71754085523 ; 275898.5316646941 ; 5657226.873927061 ; 1.6208652135698853E7 ; 16184.000000000002
69 ; 98754.85724908268 ; 277472.1978043212 ; 5755296.591467917 ; 1.6484550667363547E7 ; 16422.000000000004
70 ; 99170.41458347545 ; 279057.945725884 ; 5854051.448717 ; 1.6762022865167867E7 ; 16660.000000000004
71 ; 98562.975165282 ; 280655.37748915673 ; 5953221.863300475 ; 1.704108081089375E7 ; 16898.000000000004
72 ; 99211.57381791424 ; 282264.10356391437 ; 6051784.838465758 ; 1.732173618838291E7 ; 17136.000000000004
73 ; 99377.86638226212 ; 283883.7427321119 ; 6150996.412283672 ; 1.7604000291946825E7 ; 17374.000000000004
74 ; 99709.87659181154 ; 285513.9219809469 ; 6250374.278665934 ; 1.7887884034678936E7 ; 17612.000000000004
75 ; 99418.52700931896 ; 287154.2763879254 ; 6350084.155257746 ; 1.8173397956659883E7 ; 17850.000000000004
76 ; 99920.0979590764 ; 288804.4489989666 ; 6449502.682267064 ; 1.846055223304781E7 ; 18088.000000000004
77 ; 99351.1826646718 ; 290464.09070051316 ; 6549422.78022614 ; 1.8749356682046775E7 ; 18326.000000000004
78 ; 99469.56155141439 ; 292132.86008653685 ; 6648773.962890812 ; 1.903982077274729E7 ; 18564.000000000004
79 ; 99288.37928751874 ; 293810.4233212644 ; 6748243.524442227 ; 1.9331953632833827E7 ; 18802.000000000004
80 ; 99501.00928957724 ; 295496.45399838174 ; 6847531.903729745 ; 1.9625764056155093E7 ; 19040.000000000004
81 ; 99894.69827640869 ; 297190.63299741136 ; 6947032.913019323 ; 1.9921260510153476E7 ; 19278.000000000004
82 ; 100155.88460588 ; 298892.6483379014 ; 7046927.611295732 ; 2.021845114315089E7 ; 19516.000000000004
83 ; 99701.74734807707 ; 300602.19503200817 ; 7147083.495901612 ; 2.051734379148879E7 ; 19754.000000000004
84 ; 99890.22326802528 ; 302318.9749360019 ; 7246785.243249688 ; 2.0817945986520797E7 ; 19992.000000000004
85 ; 99655.3824263017 ; 304042.69660117663 ; 7346675.466517714 ; 2.1120264961456798E7 ; 20230.000000000004
86 ; 99873.47631546091 ; 305773.0751246001 ; 7446330.848944016 ; 2.1424307658057973E7 ; 20468.000000000004
87 ; 100173.60437447307 ; 307509.8320000949 ; 7546204.325259477 ; 2.173008073318257E7 ; 20706.000000000004
88 ; 99794.09242408504 ; 309252.6949698054 ; 7646377.92963395 ; 2.2037590565182667E7 ; 20944.000000000004
89 ; 99281.05602443355 ; 311001.397876665 ; 7746172.022058035 ; 2.2346843260152474E7 ; 21182.000000000004
90 ; 99806.98658288749 ; 312755.68051804445 ; 7845453.078082468 ; 2.265784465802914E7 ; 21420.000000000004
91 ; 99181.95002461248 ; 314515.2885008328 ; 7945260.064665356 ; 2.2970600338547185E7 ; 21658.000000000004
92 ; 99744.69709138465 ; 316279.97309816914 ; 8044442.014689968 ; 2.328511562704802E7 ; 21896.000000000004
93 ; 99218.19278595666 ; 318049.4911080194 ; 8144186.711781353 ; 2.360139560014619E7 ; 22134.000000000004
94 ; 99688.0966605673 ; 319823.6047137658 ; 8243404.90456731 ; 2.391944509125421E7 ; 22372.000000000004
95 ; 99288.53488876762 ; 321602.08134695457 ; 8343093.001227877 ; 2.4239268695967972E7 ; 22610.000000000004
96 ; 99206.1222609609 ; 323384.693552326 ; 8442381.536116645 ; 2.4560870777314927E7 ; 22848.000000000004
97 ; 98959.99338007577 ; 325171.2188552317 ; 8541587.658377606 ; 2.4884255470867254E7 ; 23086.000000000004
98 ; 98740.05507376182 ; 326961.43963152746 ; 8640547.651757682 ; 2.5209426689722486E7 ; 23324.000000000004
99 ; 98507.69196634341 ; 328755.142980012 ; 8739287.706831444 ; 2.5536388129354015E7 ; 23562.000000000004
100 ; 98651.16109327326 ; 330552.1205974698 ; 8837795.398797788 ; 2.5865143272334028E7 ; 23800.000000000004
101 ; 98201.13664401042 ; 332352.1686563619 ; 8936446.559891062 ; 2.61956953929315E7 ; 24038.000000000004
102 ; 98090.00205276255 ; 334155.0876851958 ; 9034647.696535071 ; 2.652804756158786E7 ; 24276.000000000004
103 ; 98208.28022777123 ; 335960.6824515972 ; 9132737.698587835 ; 2.6862202649273057E7 ; 24514.000000000004
104 ; 98245.46179932715 ; 337768.7618480936 ; 9230945.978815606 ; 2.7198163331724655E7 ; 24752.000000000004
105 ; 97525.601112554 ; 339579.1387806146 ; 9329191.440614933 ; 2.7535932093572747E7 ; 24990.000000000004
106 ; 97604.3645301039 ; 341391.63005970285 ; 9426717.041727487 ; 2.7875511232353363E7 ; 25228.000000000004
107 ; 97288.74739074358 ; 343206.056294425 ; 9524321.40625759 ; 2.8216902862413067E7 ; 25466.000000000004
108 ; 96534.03090866885 ; 345022.24178896344 ; 9621610.153648334 ; 2.8560108918707494E7 ; 25704.000000000004
109 ; 96589.87951857835 ; 346840.0144418681 ; 9718144.184557002 ; 2.890513116049646E7 ; 25942.000000000004
110 ; 96590.338202731 ; 348659.20564793824 ; 9814734.06407558 ; 2.9251971174938325E7 ; 26180.000000000004
111 ; 95932.0175951522 ; 350479.65020270296 ; 9911324.402278312 ; 2.9600630380586263E7 ; 26418.000000000004
112 ; 95845.36093627472 ; 352301.18620946567 ; 1.0007256419873463E7 ; 2.9951110030788966E7 ; 26656.000000000004
113 ; 95571.73785099515 ; 354123.6549888721 ; 1.0103101780809738E7 ; 3.030341121699843E7 ; 26894.000000000004
114 ; 95310.36346782059 ; 355946.900990962 ; 1.0198673518660733E7 ; 3.0657534871987306E7 ; 27132.000000000004
115 ; 95172.19939812415 ; 357770.7717096594 ; 1.0293983882128553E7 ; 3.101348177297827E7 ; 27370.000000000004
116 ; 94292.8165272903 ; 359595.1175996579 ; 1.0389156081526678E7 ; 3.1371252544687927E7 ; 27608.000000000004
117 ; 94128.35211607482 ; 361419.7919956512 ; 1.0483448898053968E7 ; 3.1730847662287585E7 ; 27846.000000000004
118 ; 93582.95469345633 ; 363244.6510338632 ; 1.0577577250170043E7 ; 3.2092267454283237E7 ; 28084.000000000004
119 ; 93660.4103899069 ; 365069.5535758267 ; 1.06711602048635E7 ; 3.24555121053171E7 ; 28322.000000000004
120 ; 92819.04569906027 ; 366894.3611343611 ; 1.0764820615253408E7 ; 3.2820581658892926E7 ; 28560.000000000004
121 ; 92383.99660069856 ; 368718.93780169945 ; 1.0857639660952467E7 ; 3.3187476020027287E7 ; 28798.000000000004
122 ; 92406.79066520184 ; 370543.1501797126 ; 1.0950023657553166E7 ; 3.355619495782898E7 ; 29036.000000000004
123 ; 91626.61890170274 ; 372366.86731218104 ; 1.1042430448218368E7 ; 3.39267381080087E7 ; 29274.000000000004
124 ; 91032.7764937383 ; 374189.96061906253 ; 1.1134057067120072E7 ; 3.4299104975320876E7 ; 29512.000000000004
125 ; 91300.53950860976 ; 376012.3038327058 ; 1.1225089843613809E7 ; 3.467329493593994E7 ; 29750.000000000004
126 ; 90565.8767551541 ; 377833.7729359593 ; 1.1316390383122418E7 ; 3.504930723977264E7 ; 29988.000000000004
127 ; 90126.51412409509 ; 379654.2461021251 ; 1.1406956259877572E7 ; 3.54271410127086E7 ; 30226.000000000004
128 ; 89534.25465778416 ; 381473.6036367094 ; 1.1497082774001667E7 ; 3.580679525881072E7 ; 30464.000000000004
129 ; 88830.5331022278 ; 383291.72792092024 ; 1.1586617028659452E7 ; 3.618826886244743E7 ; 30702.000000000004
130 ; 88573.39197255729 ; 385108.5033568637 ; 1.167544756176168E7 ; 3.657156059036835E7 ; 30940.000000000004
131 ; 88442.7524921471 ; 386923.81631439313 ; 1.1764020953734236E7 ; 3.695666909372522E7 ; 31178.000000000004
132 ; 87643.74730204322 ; 388737.5550795627 ; 1.1852463706226382E7 ; 3.734359291003961E7 ; 31416.000000000004
133 ; 86869.11686249045 ; 390549.60980464105 ; 1.1940107453528425E7 ; 3.7732330465119176E7 ; 31654.000000000004
134 ; 86819.36429943406 ; 392359.8724596396 ; 1.2026976570390915E7 ; 3.812288007492381E7 ; 31892.000000000004
135 ; 86210.55534738423 ; 394168.23678531154 ; 1.2113795934690349E7 ; 3.8515239947383456E7 ; 32130.000000000004
136 ; 85816.39495961438 ; 395974.5982475788 ; 1.2200006490037734E7 ; 3.890940818416877E7 ; 32368.000000000004
137 ; 84600.1318158406 ; 397778.85399334435 ; 1.2285822884997347E7 ; 3.930538278241635E7 ; 32606.000000000004
138 ; 84152.42455390391 ; 399580.9028076497 ; 1.2370423016813189E7 ; 3.970316163640969E7 ; 32844.00000000001
139 ; 83617.25749014886 ; 401380.64507213654 ; 1.2454575441367093E7 ; 4.0102742539217345E7 ; 33082.00000000001
140 ; 82958.31773510158 ; 403177.98272477335 ; 1.2538192698857242E7 ; 4.0504123184289485E7 ; 33320.00000000001
141 ; 82776.38688026438 ; 404972.81922080985 ; 1.2621151016592344E7 ; 4.0907301167014256E7 ; 33558.00000000001
142 ; 81863.1610369869 ; 406765.05949492066 ; 1.2703927403472608E7 ; 4.131227398623507E7 ; 33796.00000000001
143 ; 80826.94798510999 ; 408554.60992450296 ; 1.2785790564509595E7 ; 4.171903904572999E7 ; 34034.00000000001
144 ; 81178.55796075962 ; 410341.3782940928 ; 1.2866617512494706E7 ; 4.212759365565449E7 ; 34272.00000000001
145 ; 80529.08938802246 ; 412125.2737608643 ; 1.2947796070455465E7 ; 4.2537935033948585E7 ; 34510.00000000001
146 ; 80155.83646883676 ; 413906.20682118105 ; 1.3028325159843488E7 ; 4.295006030770945E7 ; 34748.00000000001
147 ; 80295.79773405388 ; 415684.0892781643 ; 1.3108480996312324E7 ; 4.336396651453063E7 ; 34986.00000000001
148 ; 80160.95145308599 ; 417458.8342102492 ; 1.3188776794046378E7 ; 4.377965060380879E7 ; 35224.00000000001
149 ; 79560.67923451884 ; 419230.35594069527 ; 1.3268937745499464E7 ; 4.419710943801904E7 ; 35462.00000000001
150 ; 79970.69652069741 ; 420998.57000802504 ; 1.3348498424733983E7 ; 4.461633979395973E7 ; 35700.00000000001
151 ; 79175.4054240934 ; 422763.3931373588 ; 1.342846912125468E7 ; 4.5037338363967754E7 ; 35938.00000000001
152 ; 79556.81978063493 ; 424524.74321261974 ; 1.3507644526678775E7 ; 4.546010175710511E7 ; 36176.00000000001
153 ; 79141.82000081424 ; 426282.5392495798 ; 1.358720134645941E7 ; 4.588462650031773E7 ; 36414.00000000001
154 ; 78873.26062865024 ; 428036.701369723 ; 1.3666343166460223E7 ; 4.631090903956731E7 ; 36652.00000000001
155 ; 78721.40675468503 ; 429787.1507748986 ; 1.3745216427088873E7 ; 4.673894574093703E7 ; 36890.00000000001
156 ; 78273.21584892609 ; 431533.8097227389 ; 1.3823937833843559E7 ; 4.716873289171193E7 ; 37128.00000000001
157 ; 78118.79277954956 ; 433276.6015028199 ; 1.3902211049692485E7 ; 4.7600266701434664E7 ; 37366.00000000001
158 ; 78258.4565192862 ; 435015.45041353867 ; 1.3980329842472035E7 ; 4.8033543302937485E7 ; 37604.00000000001
159 ; 77589.2066923212 ; 436750.28173968784 ; 1.4058588298991323E7 ; 4.8468558753351025E7 ; 37842.00000000001
160 ; 78032.29934524355 ; 438481.021730703 ; 1.4136177505683644E7 ; 4.8905309035090715E7 ; 38080.00000000001
161 ; 77144.11973828799 ; 440207.59757956275 ; 1.4214209805028887E7 ; 4.934379005682142E7 ; 38318.00000000001
162 ; 76883.40157131777 ; 441929.9374023214 ; 1.4291353924767176E7 ; 4.978399765440098E7 ; 38556.00000000001
163 ; 77090.65724151704 ; 443647.9702182535 ; 1.4368237326338494E7 ; 5.0225927591803305E7 ; 38794.00000000001
164 ; 76305.05019287058 ; 445361.62593059154 ; 1.4445327983580012E7 ; 5.066957556202156E7 ; 39032.00000000001
165 ; 76805.28767373253 ; 447070.83530783834 ; 1.4521633033772882E7 ; 5.111493718795215E7 ; 39270.00000000001
166 ; 76190.87016287641 ; 448775.5299656355 ; 1.4598438321446614E7 ; 5.156200802325999E7 ; 39508.00000000001
167 ; 76073.29110176321 ; 450475.6423491714 ; 1.467462919160949E7 ; 5.201078355322563E7 ; 39746.00000000001
168 ; 75744.76901681488 ; 452171.1057161105 ; 1.4750702482711254E7 ; 5.24612591955748E7 ; 39984.00000000001
169 ; 75294.92445590948 ; 453861.8541200295 ; 1.4826447251728069E7 ; 5.291343030129091E7 ; 40222.00000000001
170 ; 75016.06200256462 ; 455547.8223943423 ; 1.4901742176183978E7 ; 5.336729215541094E7 ; 40460.00000000001
171 ; 74802.41646171291 ; 457228.94613670086 ; 1.4976758238186542E7 ; 5.382283997780528E7 ; 40698.00000000001
172 ; 74163.04861984908 ; 458905.161693855 ; 1.5051560654648256E7 ; 5.428006892394198E7 ; 40936.00000000001
173 ; 75049.69138636623 ; 460576.40614695806 ; 1.5125723703268105E7 ; 5.473897408563583E7 ; 41174.00000000001
174 ; 74593.11399660693 ; 462242.6172973043 ; 1.5200773394654471E7 ; 5.519955049178279E7 ; 41412.00000000001
175 ; 74389.14748053439 ; 463903.73365248466 ; 1.5275366508651078E7 ; 5.56617931090801E7 ; 41650.00000000001
176 ; 74941.95269100321 ; 465559.69441294746 ; 1.5349755656131612E7 ; 5.6125696842732586E7 ; 41888.00000000001
177 ; 74336.4949135951 ; 467210.43945895194 ; 1.5424697608822616E7 ; 5.659125653714553E7 ; 42126.00000000001
178 ; 74771.44407789715 ; 468855.90933790285 ; 1.549903410373621E7 ; 5.7058466976604484E7 ; 42364.00000000001
179 ; 74691.14879148138 ; 470496.04525205295 ; 1.5573805547814108E7 ; 5.7527322885942385E7 ; 42602.00000000001
180 ; 75230.09898549927 ; 472130.78904656396 ; 1.564849669660559E7 ; 5.799781893119444E7 ; 42840.00000000001
181 ; 74898.43156005282 ; 473760.0831979129 ; 1.5723726795591088E7 ; 5.8469949720241E7 ; 43078.00000000001
182 ; 75001.04860659927 ; 474336.8310431481 ; 1.579862522715114E7 ; 5.894370980343892E7 ; 43316.00000000001
