CSV File for the Network on Day 113
1 - Minute m 
2 - Power Consumed at minute m 
3 - Power Produced at minute m 
4 - Energy Consumed since the beginning of the day 
5 - Energy Produced since the beginning of the day 
6 - Energy Lost since the beginning of the day 
 
No Production city : 2, Producer : 1
No Production city : 4, Producer : 1
No Production city : 4, Producer : 1
 
0 ; 60842.38612136148 ; 173603.6256288215 ; 0.0 ; 0.0 ; 0.0
1 ; 61661.05066441832 ; 173262.60049597995 ; 60842.38612136148 ; 173603.6256288215 ; 238.00000000000003
2 ; 62650.345194918336 ; 172956.40513424252 ; 122503.4367857798 ; 346866.22612480144 ; 476.00000000000006
3 ; 64035.19013156989 ; 172685.38760372222 ; 185153.78198069814 ; 519822.63125904393 ; 714.0000000000001
4 ; 64679.39165631212 ; 172449.8595327324 ; 249188.97211226803 ; 692508.0188627662 ; 952.0000000000001
5 ; 65609.11000792547 ; 172250.09449140128 ; 313868.36376858014 ; 864957.8783954986 ; 1190.0000000000002
6 ; 66760.11914758546 ; 172086.3265382846 ; 379477.4737765056 ; 1037207.9728869 ; 1428.0000000000002
7 ; 67443.06421347926 ; 171958.74895778147 ; 446237.5929240911 ; 1209294.2994251845 ; 1666.0000000000002
8 ; 68294.88642746437 ; 171867.51320416492 ; 513680.6571375703 ; 1381253.0483829658 ; 1904.0000000000002
9 ; 69396.0004382097 ; 171812.7280656826 ; 581975.5435650346 ; 1553120.5615871307 ; 2142.0000000000005
10 ; 69847.34702488549 ; 171794.45905954158 ; 651371.5440032444 ; 1724933.2896528132 ; 2380.0000000000005
11 ; 70929.33424935698 ; 171812.7280656826 ; 721218.8910281298 ; 1896727.7487123548 ; 2618.0000000000005
12 ; 71769.54649460183 ; 171867.51320416492 ; 792148.2252774868 ; 2068540.4767780374 ; 2856.0000000000005
13 ; 72601.96194318494 ; 171958.74895778147 ; 863917.7717720887 ; 2240407.989982202 ; 3094.0000000000005
14 ; 73832.90663607794 ; 172086.32653828448 ; 936519.7337152737 ; 2412366.738939984 ; 3332.0000000000005
15 ; 74363.69197529991 ; 172250.09449140128 ; 1010352.6403513516 ; 2584453.065478268 ; 3570.0000000000005
16 ; 75042.0805702662 ; 172449.8595327324 ; 1084716.3323266516 ; 2756703.1599696693 ; 3808.0000000000005
17 ; 76197.3964974645 ; 172685.38760372222 ; 1159758.4128969177 ; 2929153.019502402 ; 4046.0000000000005
18 ; 76554.87447404151 ; 172956.4051342426 ; 1235955.8093943822 ; 3101838.407106124 ; 4284.000000000001
19 ; 77445.83273959083 ; 173262.60049597983 ; 1312510.6838684236 ; 3274794.8122403664 ; 4522.000000000001
20 ; 78249.0072392912 ; 173603.62562882158 ; 1389956.5166080145 ; 3448057.412736346 ; 4760.000000000001
21 ; 79198.77159252005 ; 173979.09782082617 ; 1468205.5238473057 ; 3621661.0383651676 ; 4998.000000000001
22 ; 79797.71962662633 ; 174388.60162114596 ; 1547404.2954398256 ; 3795640.136185994 ; 5236.000000000001
23 ; 80575.62598351423 ; 174831.69086447763 ; 1627202.0150664519 ; 3970028.7378071398 ; 5474.000000000001
24 ; 81072.83950583132 ; 175307.89078521857 ; 1707777.641049966 ; 4144860.4286716175 ; 5712.000000000001
25 ; 82237.09203728651 ; 175816.700199508 ; 1788850.4805557972 ; 4320168.319456836 ; 5950.000000000001
26 ; 82217.26936294152 ; 176357.59373369254 ; 1871087.5725930838 ; 4495985.019656344 ; 6188.000000000001
27 ; 83416.66635330807 ; 176930.02407845296 ; 1953304.8419560255 ; 4672342.613390037 ; 6426.000000000001
28 ; 83911.02837198386 ; 177533.42424881214 ; 2036721.5083093336 ; 4849272.63746849 ; 6664.000000000001
29 ; 84677.40690877783 ; 178167.2098314834 ; 2120632.5366813173 ; 5026806.061717302 ; 6902.000000000001
30 ; 85087.38459265011 ; 178830.78120244632 ; 2205309.9435900953 ; 5204973.271548785 ; 7140.000000000001
31 ; 85369.83630014338 ; 179523.52569922898 ; 2290397.3281827453 ; 5383804.052751232 ; 7378.000000000001
32 ; 86280.03170409329 ; 180244.81973406678 ; 2375767.1644828888 ; 5563327.578450461 ; 7616.000000000001
33 ; 86920.12067877597 ; 180994.03083586282 ; 2462047.196186982 ; 5743572.398184528 ; 7854.000000000001
34 ; 87787.81673707384 ; 181770.5196106507 ; 2548967.316865758 ; 5924566.429020391 ; 8092.000000000001
35 ; 88555.71894824418 ; 182573.64161201916 ; 2636755.133602832 ; 6106336.948631042 ; 8330.000000000002
36 ; 88777.01475373397 ; 183402.74911466875 ; 2725310.852551076 ; 6288910.590243061 ; 8568.000000000002
37 ; 89400.69980422588 ; 184257.19278590445 ; 2814087.86730481 ; 6472313.33935773 ; 8806.000000000002
38 ; 90177.21185956473 ; 185136.32325140905 ; 2903488.567109036 ; 6656570.532143635 ; 9044.000000000002
39 ; 90239.35891221827 ; 186039.49255306294 ; 2993665.7789686006 ; 6841706.855395044 ; 9282.000000000002
40 ; 91099.87340006471 ; 186966.0554978758 ; 3083905.137880819 ; 7027746.347948107 ; 9520.000000000002
41 ; 91191.65841155108 ; 187915.3708982615 ; 3175005.0112808836 ; 7214712.403445982 ; 9758.000000000002
42 ; 91818.26584947546 ; 188886.80270491503 ; 3266196.669692435 ; 7402627.774344244 ; 9996.000000000002
43 ; 92434.52560477985 ; 189879.72103444484 ; 3358014.93554191 ; 7591514.577049159 ; 10234.000000000002
44 ; 93126.05673042762 ; 190893.50309467004 ; 3450449.46114669 ; 7781394.298083604 ; 10472.000000000002
45 ; 93171.07935897404 ; 191927.53401112615 ; 3543575.5178771177 ; 7972287.801178275 ; 10710.000000000002
46 ; 93508.12079824648 ; 192981.2075588315 ; 3636746.5972360917 ; 8164215.335189401 ; 10948.000000000002
47 ; 94087.88663946166 ; 194053.92680376355 ; 3730254.718034338 ; 8357196.542748232 ; 11186.000000000002
48 ; 94522.63773502094 ; 195145.10465879075 ; 3824342.6046738 ; 8551250.469551995 ; 11424.000000000002
49 ; 95058.84491783667 ; 196254.1643590072 ; 3918865.242408821 ; 8746395.574210785 ; 11662.000000000002
50 ; 95726.11812911132 ; 197380.5398615352 ; 4013924.0873266575 ; 8942649.738569792 ; 11900.000000000002
51 ; 95758.58868349681 ; 198523.6761749091 ; 4109650.205455769 ; 9140030.278431328 ; 12138.000000000002
52 ; 96197.69871984853 ; 199683.02962313822 ; 4205408.794139266 ; 9338553.954606237 ; 12376.000000000002
53 ; 96821.4598121059 ; 200858.0680494749 ; 4301606.492859115 ; 9538236.984229375 ; 12614.000000000002
54 ; 96793.2745012025 ; 202048.2709648033 ; 4398427.9526712205 ; 9739095.05227885 ; 12852.000000000002
55 ; 97202.7154535895 ; 203253.12964541165 ; 4495221.227172423 ; 9941143.323243653 ; 13090.000000000002
56 ; 97858.53565508926 ; 204472.14718473496 ; 4592423.9426260125 ; 1.0144396452889064E7 ; 13328.000000000002
57 ; 97962.02219105912 ; 205704.83850345007 ; 4690282.478281102 ; 1.03488686000738E7 ; 13566.000000000002
58 ; 98413.42482140884 ; 206950.73032209178 ; 4788244.500472161 ; 1.055457343857725E7 ; 13804.000000000002
59 ; 98777.33545421042 ; 208209.36110012812 ; 4886657.925293569 ; 1.076152416889934E7 ; 14042.000000000002
60 ; 99009.390294895 ; 209480.28094519826 ; 4985435.26074778 ; 1.0969733529999468E7 ; 14280.000000000002
61 ; 99082.01408388832 ; 210763.05149597963 ; 5084444.651042675 ; 1.1179213810944667E7 ; 14518.000000000002
62 ; 99412.89391558946 ; 212057.24578191346 ; 5183526.665126563 ; 1.1389976862440648E7 ; 14756.000000000002
63 ; 100139.06439441619 ; 213362.44806278456 ; 5282939.559042153 ; 1.1602034108222561E7 ; 14994.000000000002
64 ; 99965.14148398142 ; 214678.25365092314 ; 5383078.623436569 ; 1.1815396556285346E7 ; 15232.000000000002
65 ; 100388.87569674858 ; 216004.26871857536 ; 5483043.76492055 ; 1.2030074809936268E7 ; 15470.000000000002
66 ; 100553.62001791985 ; 217340.11009277668 ; 5583432.640617299 ; 1.2246079078654844E7 ; 15708.000000000002
67 ; 100569.10346418973 ; 218685.40503985953 ; 5683986.260635219 ; 1.246341918874762E7 ; 15946.000000000002
68 ; 101419.78758961234 ; 220039.79104153535 ; 5784555.3640994085 ; 1.268210459378748E7 ; 16184.000000000002
69 ; 101019.02213968783 ; 221402.91556430655 ; 5885975.151689021 ; 1.2902144384829016E7 ; 16422.000000000004
70 ; 101411.86430067009 ; 222774.43582379658 ; 5986994.173828709 ; 1.3123547300393322E7 ; 16660.000000000004
71 ; 101363.12310650547 ; 224154.0185454229 ; 6088406.038129379 ; 1.3346321736217119E7 ; 16898.000000000004
72 ; 101595.66798842042 ; 225541.33972269183 ; 6189769.161235885 ; 1.3570475754762542E7 ; 17136.000000000004
73 ; 101631.00440390826 ; 226936.08437425358 ; 6291364.829224305 ; 1.3796017094485233E7 ; 17374.000000000004
74 ; 102036.34069854362 ; 228337.94630072976 ; 6392995.833628213 ; 1.4022953178859485E7 ; 17612.000000000004
75 ; 101541.07421963764 ; 229746.62784220584 ; 6495032.174326757 ; 1.4251291125160215E7 ; 17850.000000000004
76 ; 102595.30511517866 ; 231161.83963717503 ; 6596573.2485463945 ; 1.4481037753002422E7 ; 18088.000000000004
77 ; 102187.13244726541 ; 232583.3003836185 ; 6699168.553661573 ; 1.4712199592639597E7 ; 18326.000000000004
78 ; 102239.47641570588 ; 234010.7366028191 ; 6801355.686108838 ; 1.4944782893023215E7 ; 18564.000000000004
79 ; 102648.65699797009 ; 235443.88240641952 ; 6903595.162524544 ; 1.5178793629626034E7 ; 18802.000000000004
80 ; 102799.10701554897 ; 236882.47926716556 ; 7006243.819522514 ; 1.5414237512032453E7 ; 19040.000000000004
81 ; 103054.6533016906 ; 238326.27579370333 ; 7109042.926538063 ; 1.5651119991299618E7 ; 19278.000000000004
82 ; 102199.33315338616 ; 239775.0275097406 ; 7212097.579839754 ; 1.5889446267093321E7 ; 19516.000000000004
83 ; 102349.80705081791 ; 241228.49663782708 ; 7314296.9129931405 ; 1.6129221294603063E7 ; 19754.000000000004
84 ; 102979.17049584148 ; 242686.45188795764 ; 7416646.720043958 ; 1.637044979124089E7 ; 19992.000000000004
85 ; 102700.90444529043 ; 244148.668251161 ; 7519625.8905398 ; 1.6613136243128847E7 ; 20230.000000000004
86 ; 102691.57337938064 ; 245614.92679819404 ; 7622326.79498509 ; 1.6857284911380008E7 ; 20468.000000000004
87 ; 103092.93178812586 ; 247085.01448342952 ; 7725018.368364471 ; 1.7102899838178203E7 ; 20706.000000000004
88 ; 102477.00178000022 ; 248558.72395399207 ; 7828111.300152597 ; 1.7349984852661632E7 ; 20944.000000000004
89 ; 102532.63746198952 ; 250035.8533641719 ; 7930588.3019325975 ; 1.7598543576615624E7 ; 21182.000000000004
90 ; 102526.17486079114 ; 251516.20619511936 ; 8033120.939394587 ; 1.7848579429979797E7 ; 21420.000000000004
91 ; 102445.17516704265 ; 252999.59107980516 ; 8135647.114255378 ; 1.8100095636174917E7 ; 21658.000000000004
92 ; 102405.00971212011 ; 254485.82163321038 ; 8238092.289422421 ; 1.8353095227254722E7 ; 21896.000000000004
93 ; 102569.47472061326 ; 255974.71628769662 ; 8340497.299134541 ; 1.860758104888793E7 ; 22134.000000000004
94 ; 102499.53098474292 ; 257466.0981334916 ; 8443066.773855155 ; 1.8863555765175626E7 ; 22372.000000000004
95 ; 102379.70566612852 ; 258959.7947642152 ; 8545566.304839898 ; 1.912102186330912E7 ; 22610.000000000004
96 ; 102084.17221989247 ; 260455.63812736011 ; 8647946.010506026 ; 1.9379981658073336E7 ; 22848.000000000004
97 ; 102062.1273085816 ; 261953.46437963366 ; 8750030.18272592 ; 1.9640437296200696E7 ; 23086.000000000004
98 ; 101458.35647953539 ; 263453.1137470613 ; 8852092.3100345 ; 1.990239076058033E7 ; 23324.000000000004
99 ; 101436.1762615964 ; 264954.4303897453 ; 8953550.666514035 ; 2.016584387432739E7 ; 23562.000000000004
100 ; 101469.36886464513 ; 266457.2622711692 ; 9054986.842775632 ; 2.043079830471714E7 ; 23800.000000000004
101 ; 101068.34114261992 ; 267961.46103193547 ; 9156456.211640276 ; 2.0697255566988308E7 ; 24038.000000000004
102 ; 100519.49498113462 ; 269466.88186781906 ; 9257524.552782895 ; 2.0965217028020244E7 ; 24276.000000000004
103 ; 100917.08302664764 ; 270973.3834120225 ; 9358044.04776403 ; 2.1234683909888063E7 ; 24514.000000000004
104 ; 100428.28957697492 ; 272480.8276215114 ; 9458961.130790677 ; 2.1505657293300085E7 ; 24752.000000000004
105 ; 99950.17599953515 ; 273989.0796673148 ; 9559389.420367653 ; 2.1778138120921597E7 ; 24990.000000000004
106 ; 100145.10202944596 ; 275498.00782867015 ; 9659339.596367188 ; 2.205212720058891E7 ; 25228.000000000004
107 ; 99684.1682546798 ; 277007.4833908969 ; 9759484.698396634 ; 2.2327625208417583E7 ; 25466.000000000004
108 ; 99352.28772796156 ; 278517.3805468812 ; 9859168.866651313 ; 2.260463269180848E7 ; 25704.000000000004
109 ; 99507.48425978076 ; 280027.5763020577 ; 9958521.154379275 ; 2.2883150072355364E7 ; 25942.000000000004
110 ; 99030.80564222847 ; 281537.95038277446 ; 1.0058028638639055E7 ; 2.3163177648657423E7 ; 26180.000000000004
111 ; 98515.87282313021 ; 283048.385147929 ; 1.0157059444281284E7 ; 2.3444715599040195E7 ; 26418.000000000004
112 ; 98487.97196945058 ; 284558.76550376846 ; 1.0255575317104414E7 ; 2.3727763984188125E7 ; 26656.000000000004
113 ; 98169.81126619542 ; 286068.9788217435 ; 1.0354063289073864E7 ; 2.4012322749691892E7 ; 26894.000000000004
114 ; 97481.68385155231 ; 287578.91485931416 ; 1.0452233100340059E7 ; 2.4298391728513636E7 ; 27132.000000000004
115 ; 97188.84188861088 ; 289088.4656836043 ; 1.0549714784191612E7 ; 2.458597064337295E7 ; 27370.000000000004
116 ; 97182.38573050269 ; 290597.5255978048 ; 1.0646903626080222E7 ; 2.4875059109056555E7 ; 27608.000000000004
117 ; 96956.14180179377 ; 292105.9910702299 ; 1.0744086011810726E7 ; 2.5165656634654358E7 ; 27846.000000000004
118 ; 96230.42881532546 ; 293613.7606659306 ; 1.0841042153612519E7 ; 2.5457762625724588E7 ; 28084.000000000004
119 ; 95836.40564419645 ; 295120.7349807758 ; 1.0937272582427844E7 ; 2.575137638639052E7 ; 28322.000000000004
120 ; 95519.14834117357 ; 296626.8165779109 ; 1.1033108988072041E7 ; 2.6046497121371295E7 ; 28560.000000000004
121 ; 95220.97819177897 ; 298131.90992650803 ; 1.1128628136413215E7 ; 2.6343123937949207E7 ; 28798.000000000004
122 ; 94511.89782278542 ; 299635.92134272493 ; 1.1223849114604993E7 ; 2.6641255847875714E7 ; 29036.000000000004
123 ; 94279.27452128768 ; 301138.75893279194 ; 1.1318361012427779E7 ; 2.6940891769218437E7 ; 29274.000000000004
124 ; 94130.44413645435 ; 302640.33253814816 ; 1.1412640286949066E7 ; 2.724203052815123E7 ; 29512.000000000004
125 ; 93537.3660175556 ; 304140.55368255277 ; 1.150677073108552E7 ; 2.7544670860689376E7 ; 29750.000000000004
126 ; 92666.40496635911 ; 305639.3355210964 ; 1.1600308097103076E7 ; 2.784881141437193E7 ; 29988.000000000004
127 ; 91929.29819030837 ; 307136.5927910452 ; 1.1692974502069436E7 ; 2.815445074989303E7 ; 30226.000000000004
128 ; 91892.31734644278 ; 308632.2417644464 ; 1.1784903800259745E7 ; 2.8461587342684075E7 ; 30464.000000000004
129 ; 91336.05781808664 ; 310126.2002024326 ; 1.1876796117606187E7 ; 2.877021958444852E7 ; 30702.000000000004
130 ; 90806.63585671112 ; 311618.38731115946 ; 1.1968132175424274E7 ; 2.908034578465095E7 ; 30940.000000000004
131 ; 90087.20305561274 ; 313108.72369931755 ; 1.2058938811280984E7 ; 2.9391964171962112E7 ; 31178.000000000004
132 ; 89976.9334190551 ; 314597.13133715803 ; 1.2149026014336597E7 ; 2.970507289566143E7 ; 31416.000000000004
133 ; 88703.83583866006 ; 316083.53351697675 ; 1.2239002947755652E7 ; 3.0019670026998587E7 ; 31654.000000000004
134 ; 88520.19461324507 ; 317567.85481500195 ; 1.2327706783594312E7 ; 3.0335753560515564E7 ; 31892.000000000004
135 ; 87511.19201007189 ; 319050.0210546331 ; 1.2416226978207557E7 ; 3.0653321415330566E7 ; 32130.000000000004
136 ; 86686.35789955933 ; 320529.9592709796 ; 1.2503738170217628E7 ; 3.09723714363852E7 ; 32368.000000000004
137 ; 86407.86707462526 ; 322007.5976766522 ; 1.2590424528117187E7 ; 3.129290139565618E7 ; 32606.000000000004
138 ; 85611.23664354341 ; 323482.8656287587 ; 1.2676832395191813E7 ; 3.1614908993332833E7 ; 32844.00000000001
139 ; 85198.19642908507 ; 324955.6935970606 ; 1.2762443631835356E7 ; 3.1938391858961593E7 ; 33082.00000000001
140 ; 84093.4005006965 ; 326426.01313324587 ; 1.2847641828264441E7 ; 3.2263347552558653E7 ; 33320.00000000001
141 ; 83909.8855120242 ; 327893.7568412764 ; 1.2931735228765137E7 ; 3.25897735656919E7 ; 33558.00000000001
142 ; 83041.51006629867 ; 329358.8583487719 ; 1.3015645114277162E7 ; 3.2917667322533175E7 ; 33796.00000000001
143 ; 82215.98525388878 ; 330821.25227938837 ; 1.309868662434346E7 ; 3.3247026180881947E7 ; 34034.00000000001
144 ; 81496.79614683856 ; 332280.8742261576 ; 1.318090260959735E7 ; 3.357784743316133E7 ; 34272.00000000001
145 ; 81036.31687975419 ; 333737.66072574933 ; 1.3262399405744188E7 ; 3.391012830738749E7 ; 34510.00000000001
146 ; 80855.24285767807 ; 335191.54923362314 ; 1.3343435722623942E7 ; 3.424386596811324E7 ; 34748.00000000001
147 ; 80523.20934635596 ; 336642.47810003755 ; 1.342429096548162E7 ; 3.457905751734687E7 ; 34986.00000000001
148 ; 80193.9521198622 ; 338090.386546883 ; 1.3504814174827976E7 ; 3.4915699995446905E7 ; 35224.00000000001
149 ; 80291.90105606723 ; 339535.2146453098 ; 1.3585008126947839E7 ; 3.5253790381993786E7 ; 35462.00000000001
150 ; 79962.21551103366 ; 340976.9032941212 ; 1.3665300028003907E7 ; 3.55933255966391E7 ; 35700.00000000001
151 ; 79608.09489182608 ; 342415.39419890393 ; 1.374526224351494E7 ; 3.593430249993322E7 ; 35938.00000000001
152 ; 79453.71843530334 ; 343850.6298518674 ; 1.3824870338406766E7 ; 3.627671789413212E7 ; 36176.00000000001
153 ; 79442.43884974593 ; 345282.55351236823 ; 1.390432405684207E7 ; 3.662056852398399E7 ; 36414.00000000001
154 ; 79021.92252118973 ; 346711.10918809345 ; 1.3983766495691815E7 ; 3.696585107749636E7 ; 36652.00000000001
155 ; 79013.15971276753 ; 348136.2416168782 ; 1.4062788418213004E7 ; 3.731256218668445E7 ; 36890.00000000001
156 ; 78685.075849774 ; 349557.8962491358 ; 1.4141801577925771E7 ; 3.766069842830133E7 ; 37128.00000000001
157 ; 78137.35354310149 ; 350976.01923087717 ; 1.4220486653775545E7 ; 3.8010256324550465E7 ; 37366.00000000001
158 ; 77174.84792257987 ; 352390.5573872989 ; 1.4298624007318646E7 ; 3.8361232343781345E7 ; 37604.00000000001
159 ; 77289.27293983399 ; 353801.4582069189 ; 1.4375798855241226E7 ; 3.8713622901168644E7 ; 37842.00000000001
160 ; 76948.09563458271 ; 355208.66982624 ; 1.445308812818106E7 ; 3.9067424359375566E7 ; 38080.00000000001
161 ; 76897.99469649437 ; 356612.14101492293 ; 1.4530036223815644E7 ; 3.9422633029201806E7 ; 38318.00000000001
162 ; 76517.00259040354 ; 358011.82116144995 ; 1.4606934218512138E7 ; 3.977924517021673E7 ; 38556.00000000001
163 ; 76527.39645210159 ; 359407.6602592621 ; 1.4683451221102541E7 ; 4.013725699137818E7 ; 38794.00000000001
164 ; 75795.82072695879 ; 360799.6088933522 ; 1.4759978617554642E7 ; 4.049666465163744E7 ; 39032.00000000001
165 ; 75722.7551292638 ; 362187.618227299 ; 1.4835774438281601E7 ; 4.085746426053079E7 ; 39270.00000000001
166 ; 75487.35024895976 ; 363571.63999072503 ; 1.4911497193410866E7 ; 4.121965187875809E7 ; 39508.00000000001
167 ; 75094.70251678699 ; 364951.6264671647 ; 1.4986984543659825E7 ; 4.158322351874881E7 ; 39746.00000000001
168 ; 74590.25819864483 ; 366327.53048232757 ; 1.5062079246176612E7 ; 4.194817514521598E7 ; 39984.00000000001
169 ; 74176.98911331025 ; 367699.30539274175 ; 1.5136669504375257E7 ; 4.231450267569831E7 ; 40222.00000000001
170 ; 73867.83039544692 ; 369066.905074767 ; 1.5210846493488567E7 ; 4.268220198109105E7 ; 40460.00000000001
171 ; 73587.02630628356 ; 370430.28391396155 ; 1.5284714323884014E7 ; 4.305126888616582E7 ; 40698.00000000001
172 ; 73460.76646228218 ; 371789.3967947921 ; 1.5358301350190297E7 ; 4.342169917007978E7 ; 40936.00000000001
173 ; 73017.79120997357 ; 373144.1990906743 ; 1.5431762116652578E7 ; 4.379348856687457E7 ; 41174.00000000001
174 ; 73314.85509598725 ; 374494.6466543328 ; 1.5504779907862552E7 ; 4.4166632765965246E7 ; 41412.00000000001
175 ; 73160.89262241057 ; 375840.69580846984 ; 1.557809476295854E7 ; 4.4541127412619576E7 ; 41650.00000000001
176 ; 73236.6168819663 ; 377182.30333673046 ; 1.565125565558095E7 ; 4.4916968108428046E7 ; 41888.00000000001
177 ; 72886.7514626899 ; 378519.4264749564 ; 1.5724492272462917E7 ; 4.529415041176478E7 ; 42126.00000000001
178 ; 72841.73258447563 ; 379852.02290271653 ; 1.5797379023925608E7 ; 4.567266983823974E7 ; 42364.00000000001
179 ; 72937.65110496472 ; 381180.05073510675 ; 1.5870220756510084E7 ; 4.605252186114246E7 ; 42602.00000000001
180 ; 73382.19052478658 ; 382503.4685148069 ; 1.5943158407615049E7 ; 4.6433701911877565E7 ; 42840.00000000001
181 ; 73229.17572221068 ; 383822.2352043899 ; 1.6016540598139836E7 ; 4.681620538039237E7 ; 43078.00000000001
