CSV File for the Network on Day 252
1 - Minute m 
2 - Power Consumed at minute m 
3 - Power Produced at minute m 
4 - Energy Consumed since the beginning of the day 
5 - Energy Produced since the beginning of the day 
6 - Energy Lost since the beginning of the day 
 
No Production city : 2, Producer : 1
No Production city : 4, Producer : 1
No Production city : 4, Producer : 1
 
0 ; 33627.037932928426 ; 126470.2701992644 ; 0.0 ; 0.0 ; 0.0
1 ; 35367.38621046517 ; 126068.62524018557 ; 33627.037932928426 ; 126470.2701992644 ; 238.00000000000003
2 ; 36702.00516073531 ; 125706.82688220136 ; 68994.4241433936 ; 252538.89543945 ; 476.00000000000006
3 ; 38198.50218878956 ; 125385.64997672277 ; 105696.4293041289 ; 378245.72232165135 ; 714.0000000000001
4 ; 40114.20647406018 ; 125105.79853216467 ; 143894.93149291846 ; 503631.37229837413 ; 952.0000000000001
5 ; 41489.97394741057 ; 124867.89870603872 ; 184009.13796697865 ; 628737.1708305388 ; 1190.0000000000002
6 ; 43195.819456525875 ; 124672.49234278344 ; 225499.11191438924 ; 753605.0695365776 ; 1428.0000000000002
7 ; 44002.74566652793 ; 124520.03120598629 ; 268694.93137091515 ; 878277.561879361 ; 1666.0000000000002
8 ; 45904.48131822979 ; 124410.87204387701 ; 312697.6770374431 ; 1002797.5930853473 ; 1904.0000000000002
9 ; 47649.37816761059 ; 124345.27261142527 ; 358602.1583556729 ; 1127208.4651292244 ; 2142.0000000000005
10 ; 48446.14582049759 ; 124323.38875143556 ; 406251.53652328346 ; 1251553.7377406496 ; 2380.0000000000005
11 ; 49815.72520343299 ; 124345.27261142527 ; 454697.68234378105 ; 1375877.1264920852 ; 2618.0000000000005
12 ; 51372.78698610886 ; 124410.87204387701 ; 504513.40754721407 ; 1500222.3991035104 ; 2856.0000000000005
13 ; 53021.249406179064 ; 124520.03120598629 ; 555886.1945333229 ; 1624633.2711473873 ; 3094.0000000000005
14 ; 54156.190863053765 ; 124672.49234278336 ; 608907.443939502 ; 1749153.3023533737 ; 3332.0000000000005
15 ; 55425.13160900918 ; 124867.89870603872 ; 663063.6348025558 ; 1873825.794696157 ; 3570.0000000000005
16 ; 56796.54254381061 ; 125105.79853216467 ; 718488.766411565 ; 1998693.6934021958 ; 3808.0000000000005
17 ; 58094.21525251151 ; 125385.64997672277 ; 775285.3089553756 ; 2123799.4919343605 ; 4046.0000000000005
18 ; 59076.49944567651 ; 125706.82688220136 ; 833379.5242078871 ; 2249185.1419110834 ; 4284.000000000001
19 ; 60639.49057172117 ; 126068.62524018552 ; 892456.0236535636 ; 2374891.9687932846 ; 4522.000000000001
20 ; 61593.718630956435 ; 126470.27019926447 ; 953095.5142252848 ; 2500960.59403347 ; 4760.000000000001
21 ; 62872.710979366784 ; 126910.92346605314 ; 1014689.2328562413 ; 2627430.8642327343 ; 4998.000000000001
22 ; 64111.82549222309 ; 127389.69094820652 ; 1077561.943835608 ; 2754341.7876987876 ; 5236.000000000001
23 ; 65788.25296586273 ; 127905.63049471941 ; 1141673.769327831 ; 2881731.478646994 ; 5474.000000000001
24 ; 67024.82795096895 ; 128457.7595993256 ; 1207462.0222936936 ; 3009637.1091417135 ; 5712.000000000001
25 ; 67636.37809181598 ; 129045.06294653623 ; 1274486.8502446625 ; 3138094.868741039 ; 5950.000000000001
26 ; 68704.90577309983 ; 129666.49969582404 ; 1342123.2283364786 ; 3267139.9316875753 ; 6188.000000000001
27 ; 70163.30098016377 ; 130321.01041672526 ; 1410828.1341095783 ; 3396806.4313833993 ; 6426.000000000001
28 ; 70860.29642431675 ; 131007.52360532967 ; 1480991.435089742 ; 3527127.4418001245 ; 6664.000000000001
29 ; 72487.31387359796 ; 131724.96173001488 ; 1551851.7315140588 ; 3658134.965405454 ; 6902.000000000001
30 ; 73185.71437121471 ; 132472.24677073077 ; 1624339.0453876567 ; 3789859.927135469 ; 7140.000000000001
31 ; 74335.21353396856 ; 133248.3052312111 ; 1697524.7597588713 ; 3922332.1739061996 ; 7378.000000000001
32 ; 75080.01600673355 ; 134052.07261684822 ; 1771859.97329284 ; 4055580.479137411 ; 7616.000000000001
33 ; 76088.45429053146 ; 134882.49738244654 ; 1846939.9892995735 ; 4189632.551754259 ; 7854.000000000001
34 ; 77111.9976661981 ; 135738.54436360532 ; 1923028.443590105 ; 4324515.049136706 ; 8092.000000000001
35 ; 78513.29789928805 ; 136619.19771310058 ; 2000140.441256303 ; 4460253.593500311 ; 8330.000000000002
36 ; 78871.97293563293 ; 137523.46336944707 ; 2078653.7391555912 ; 4596872.791213411 ; 8568.000000000002
37 ; 80362.79666119588 ; 138450.37108898367 ; 2157525.7120912243 ; 4734396.254582858 ; 8806.000000000002
38 ; 81326.2661028682 ; 139398.9760755236 ; 2237888.50875242 ; 4872846.625671841 ; 9044.000000000002
39 ; 82045.88733713015 ; 140368.36024305155 ; 2319214.774855288 ; 5012245.601747365 ; 9282.000000000002
40 ; 82751.55783611743 ; 141357.6331473372 ; 2401260.6621924182 ; 5152613.961990416 ; 9520.000000000002
41 ; 83612.16091951384 ; 142365.93262187735 ; 2484012.2200285355 ; 5293971.5951377535 ; 9758.000000000002
42 ; 84897.68694984025 ; 143392.4251524449 ; 2567624.3809480495 ; 5436337.527759631 ; 9996.000000000002
43 ; 85448.7108908669 ; 144436.30602290196 ; 2652522.0678978898 ; 5579729.952912076 ; 10234.000000000002
44 ; 85883.64463515871 ; 145496.79926294764 ; 2737970.7787887566 ; 5724166.258934978 ; 10472.000000000002
45 ; 87206.75360067912 ; 146573.15742626548 ; 2823854.423423915 ; 5869663.058197926 ; 10710.000000000002
46 ; 87528.43985126803 ; 147664.66122519376 ; 2911061.1770245945 ; 6016236.215624191 ; 10948.000000000002
47 ; 88741.41184380533 ; 148770.619045664 ; 2998589.6168758627 ; 6163900.876849385 ; 11186.000000000002
48 ; 88936.3602170402 ; 149890.3663637904 ; 3087331.028719668 ; 6312671.495895049 ; 11424.000000000002
49 ; 89447.3500155344 ; 151023.26508320592 ; 3176267.388936708 ; 6462561.862258839 ; 11662.000000000002
50 ; 90135.12597767658 ; 152168.70281005898 ; 3265714.738952243 ; 6613585.127342045 ; 11900.000000000002
51 ; 91172.27137198478 ; 153326.09208053254 ; 3355849.864929919 ; 6765753.830152105 ; 12138.000000000002
52 ; 91572.4411031563 ; 154494.86955384826 ; 3447022.136301904 ; 6919079.922232637 ; 12376.000000000002
53 ; 92678.49120428704 ; 155674.49518196686 ; 3538594.57740506 ; 7073574.791786485 ; 12614.000000000002
54 ; 92828.67761712958 ; 156864.45136560942 ; 3631273.068609347 ; 7229249.286968452 ; 12852.000000000002
55 ; 93681.41003966713 ; 158064.2421047869 ; 3724101.7462264765 ; 7386113.738334062 ; 13090.000000000002
56 ; 93954.4100242402 ; 159273.39215074404 ; 3817783.1562661435 ; 7544177.980438849 ; 13328.000000000002
57 ; 94860.41737098257 ; 160491.44616507686 ; 3911737.5662903837 ; 7703451.372589593 ; 13566.000000000002
58 ; 95665.31404497901 ; 161717.9678907795 ; 4006597.983661366 ; 7863942.818754669 ; 13804.000000000002
59 ; 96036.28218669408 ; 162952.5393390862 ; 4102263.297706345 ; 8025660.786645449 ; 14042.000000000002
60 ; 96368.1801209233 ; 164194.75999520402 ; 4198299.57989304 ; 8188613.325984535 ; 14280.000000000002
61 ; 97210.77995746028 ; 165444.24604535953 ; 4294667.760013963 ; 8352808.085979739 ; 14518.000000000002
62 ; 97118.80665033631 ; 166700.6296270074 ; 4391878.539971423 ; 8518252.3320251 ; 14756.000000000002
63 ; 97481.56772548101 ; 167963.55810355104 ; 4488997.346621759 ; 8684952.961652108 ; 14994.000000000002
64 ; 98122.45435718102 ; 169232.69336450435 ; 4586478.914347241 ; 8852916.519755658 ; 15232.000000000002
65 ; 98895.08717909575 ; 170507.7111516687 ; 4684601.368704421 ; 9022149.213120162 ; 15470.000000000002
66 ; 99157.5267098638 ; 171788.3004115972 ; 4783496.455883517 ; 9192656.924271831 ; 15708.000000000002
67 ; 99277.24944327606 ; 173074.16267436958 ; 4882653.982593381 ; 9364445.224683428 ; 15946.000000000002
68 ; 99927.83609864522 ; 174365.01145849712 ; 4981931.232036657 ; 9537519.387357797 ; 16184.000000000002
69 ; 100201.62908577004 ; 175660.5717016059 ; 5081859.068135302 ; 9711884.398816295 ; 16422.000000000004
70 ; 100705.0937612272 ; 176960.57921641445 ; 5182060.697221071 ; 9887544.970517902 ; 16660.000000000004
71 ; 100456.9514257967 ; 178264.7801714124 ; 5282765.790982299 ; 1.0064505549734317E7 ; 16898.000000000004
72 ; 100996.64428679242 ; 179572.9305955643 ; 5383222.742408095 ; 1.024277032990573E7 ; 17136.000000000004
73 ; 101587.07761537988 ; 180884.7959063017 ; 5484219.386694888 ; 1.0422343260501293E7 ; 17374.000000000004
74 ; 101505.14495260581 ; 182200.1504600172 ; 5585806.464310268 ; 1.0603228056407595E7 ; 17612.000000000004
75 ; 102289.88770470279 ; 183518.77712424812 ; 5687311.609262873 ; 1.0785428206867613E7 ; 17850.000000000004
76 ; 102409.85409852806 ; 184840.46687071485 ; 5789601.496967576 ; 1.0968946983991861E7 ; 18088.000000000004
77 ; 102555.92440227362 ; 186165.01838837255 ; 5892011.351066104 ; 1.1153787450862575E7 ; 18326.000000000004
78 ; 102278.57665474976 ; 187492.237715635 ; 5994567.275468377 ; 1.1339952469250947E7 ; 18564.000000000004
79 ; 102902.34908793113 ; 188821.93789093313 ; 6096845.852123127 ; 1.1527444706966583E7 ; 18802.000000000004
80 ; 102914.46696624155 ; 190153.93862078805 ; 6199748.201211059 ; 1.1716266644857517E7 ; 19040.000000000004
81 ; 103570.13702381513 ; 191488.06596458933 ; 6302662.6681773 ; 1.1906420583478305E7 ; 19278.000000000004
82 ; 103135.65516696124 ; 192824.15203529404 ; 6406232.805201115 ; 1.2097908649442894E7 ; 19516.000000000004
83 ; 103353.17801775386 ; 194162.03471528186 ; 6509368.460368076 ; 1.2290732801478188E7 ; 19754.000000000004
84 ; 103478.9161353802 ; 195501.55738662736 ; 6612721.63838583 ; 1.248489483619347E7 ; 19992.000000000004
85 ; 103158.08141795838 ; 196842.56867507656 ; 6716200.5545212105 ; 1.2680396393580098E7 ; 20230.000000000004
86 ; 104240.54694961816 ; 198184.9222070416 ; 6819358.635939169 ; 1.2877238962255174E7 ; 20468.000000000004
87 ; 103504.71319168623 ; 199528.47637895524 ; 6923599.182888787 ; 1.3075423884462215E7 ; 20706.000000000004
88 ; 103633.90638255427 ; 200873.09413835307 ; 7027103.896080473 ; 1.327495236084117E7 ; 20944.000000000004
89 ; 103565.22905088775 ; 202218.6427760822 ; 7130737.802463028 ; 1.3475825454979522E7 ; 21182.000000000004
90 ; 103881.75648957309 ; 203564.99372905795 ; 7234303.031513915 ; 1.3678044097755603E7 ; 21420.000000000004
91 ; 103507.49415549039 ; 204912.02239302115 ; 7338184.788003488 ; 1.3881609091484662E7 ; 21658.000000000004
92 ; 103514.52135486047 ; 206259.60794477194 ; 7441692.282158979 ; 1.4086521113877684E7 ; 21896.000000000004
93 ; 103370.81806244061 ; 207607.63317338255 ; 7545206.80351384 ; 1.4292780721822456E7 ; 22134.000000000004
94 ; 103077.44614296145 ; 208955.98431991716 ; 7648577.62157628 ; 1.4500388354995837E7 ; 22372.000000000004
95 ; 103132.10248633966 ; 210304.5509252079 ; 7751655.067719242 ; 1.4709344339315755E7 ; 22610.000000000004
96 ; 102879.68065167883 ; 211653.2256852634 ; 7854787.170205581 ; 1.4919648890240964E7 ; 22848.000000000004
97 ; 103221.10597240567 ; 213001.9043139037 ; 7957666.85085726 ; 1.5131302115926227E7 ; 23086.000000000004
98 ; 102715.70471925434 ; 214350.48541223962 ; 8060887.956829665 ; 1.534430402024013E7 ; 23324.000000000004
99 ; 102219.9650012446 ; 215698.87034463428 ; 8163603.66154892 ; 1.555865450565237E7 ; 23562.000000000004
100 ; 102235.67336126391 ; 217046.96312080236 ; 8265823.626550165 ; 1.5774353375997005E7 ; 23800.000000000004
101 ; 101907.31790046561 ; 218394.67028372316 ; 8368059.299911429 ; 1.5991400339117808E7 ; 24038.000000000004
102 ; 101724.21815473972 ; 219741.90080305916 ; 8469966.617811894 ; 1.6209795009401532E7 ; 24276.000000000004
103 ; 101664.07418910562 ; 221088.56597378972 ; 8571690.835966634 ; 1.6429536910204591E7 ; 24514.000000000004
104 ; 101243.24372614612 ; 222434.5793197843 ; 8673354.91015574 ; 1.6650625476178382E7 ; 24752.000000000004
105 ; 101145.16780759078 ; 223779.8565020557 ; 8774598.153881885 ; 1.6873060055498164E7 ; 24990.000000000004
106 ; 100810.59140668326 ; 225124.31523144746 ; 8875743.321689475 ; 1.709683991200022E7 ; 25228.000000000004
107 ; 100291.98979219251 ; 226467.87518552202 ; 8976553.913096158 ; 1.7321964227231666E7 ; 25466.000000000004
108 ; 100174.68037188365 ; 227810.45792943105 ; 9076845.90288835 ; 1.754843210241719E7 ; 25704.000000000004
109 ; 99160.09864046623 ; 229151.98684056022 ; 9177020.583260234 ; 1.7776242560346622E7 ; 25942.000000000004
110 ; 99779.89591822276 ; 230492.3870367508 ; 9276180.6819007 ; 1.8005394547187183E7 ; 26180.000000000004
111 ; 99123.85367271303 ; 231831.58530791505 ; 9375960.577818923 ; 1.8235886934223935E7 ; 26418.000000000004
112 ; 98818.63873510242 ; 233169.51005086763 ; 9475084.431491636 ; 1.846771851953185E7 ; 26656.000000000004
113 ; 98063.44384439802 ; 234506.09120720904 ; 9573903.070226738 ; 1.8700888029582717E7 ; 26894.000000000004
114 ; 97089.82064521492 ; 235841.26020410354 ; 9671966.514071137 ; 1.8935394120789926E7 ; 27132.000000000004
115 ; 97471.17679637003 ; 237174.9498978044 ; 9769056.334716352 ; 1.917123538099403E7 ; 27370.000000000004
116 ; 96670.58314786301 ; 238507.09451978572 ; 9866527.511512721 ; 1.9408410330891833E7 ; 27608.000000000004
117 ; 96177.09077727055 ; 239837.6296253489 ; 9963198.094660584 ; 1.964691742541162E7 ; 27846.000000000004
118 ; 95805.58324891503 ; 241166.49204457866 ; 1.0059375185437854E7 ; 1.988675505503697E7 ; 28084.000000000004
119 ; 95183.15856300185 ; 242493.61983553052 ; 1.015518076868677E7 ; 2.012792154708155E7 ; 28322.000000000004
120 ; 94308.86525213293 ; 243818.9522395376 ; 1.025036392724977E7 ; 2.037041516691708E7 ; 28560.000000000004
121 ; 94006.303503692 ; 245142.4296385306 ; 1.0344672792501904E7 ; 2.0614234119156614E7 ; 28798.000000000004
122 ; 93473.35560894985 ; 246463.99351427204 ; 1.0438679096005596E7 ; 2.0859376548795145E7 ; 29036.000000000004
123 ; 92634.76775261806 ; 247783.58640940848 ; 1.0532152451614546E7 ; 2.110584054230942E7 ; 29274.000000000004
124 ; 92244.97756532494 ; 249101.1518902523 ; 1.0624787219367163E7 ; 2.1353624128718827E7 ; 29512.000000000004
125 ; 91750.4483191553 ; 250416.63451120775 ; 1.0717032196932489E7 ; 2.160272528060908E7 ; 29750.000000000004
126 ; 90751.34875471421 ; 251729.9797807607 ; 1.0808782645251645E7 ; 2.1853141915120285E7 ; 29988.000000000004
127 ; 89868.04076577045 ; 253041.13412895653 ; 1.0899533994006358E7 ; 2.2104871894901045E7 ; 30226.000000000004
128 ; 89220.86557752317 ; 254350.04487629374 ; 1.0989402034772128E7 ; 2.2357913029030003E7 ; 30464.000000000004
129 ; 88934.62074806157 ; 255656.66020396567 ; 1.107862290034965E7 ; 2.2612263073906295E7 ; 30702.000000000004
130 ; 87642.28762563824 ; 256960.92912538443 ; 1.1167557521097712E7 ; 2.2867919734110262E7 ; 30940.000000000004
131 ; 87376.515302337 ; 258262.8014589275 ; 1.1255199808723351E7 ; 2.3124880663235646E7 ; 31178.000000000004
132 ; 86071.33723038122 ; 259562.22780184745 ; 1.1342576324025689E7 ; 2.3383143464694574E7 ; 31416.000000000004
133 ; 85908.95897700607 ; 260859.1595052908 ; 1.142864766125607E7 ; 2.3642705692496423E7 ; 31654.000000000004
134 ; 84622.59412182836 ; 262153.54865037306 ; 1.1514556620233076E7 ; 2.390356485200171E7 ; 31892.000000000004
135 ; 83726.21831065838 ; 263445.34802526125 ; 1.1599179214354904E7 ; 2.4165718400652084E7 ; 32130.000000000004
136 ; 82975.33008014367 ; 264734.51110321603 ; 1.1682905432665562E7 ; 2.4429163748677347E7 ; 32368.000000000004
137 ; 81793.95717483734 ; 266020.9920215497 ; 1.1765880762745706E7 ; 2.4693898259780563E7 ; 32606.000000000004
138 ; 81424.06985472463 ; 267304.7455614577 ; 1.1847674719920544E7 ; 2.4959919251802113E7 ; 32844.00000000001
139 ; 79858.74509471351 ; 268585.72712868283 ; 1.192909878977527E7 ; 2.522722399736357E7 ; 33082.00000000001
140 ; 79055.65936679427 ; 269863.89273497486 ; 1.2008957534869982E7 ; 2.5495809724492256E7 ; 33320.00000000001
141 ; 78814.23678142815 ; 271139.1989803089 ; 1.2088013194236776E7 ; 2.576567361722723E7 ; 33558.00000000001
142 ; 77504.54710703035 ; 272411.6030358286 ; 1.2166827431018203E7 ; 2.603681281620754E7 ; 33796.00000000001
143 ; 76307.55024734378 ; 273681.0626274809 ; 1.2244331978125233E7 ; 2.630922441924337E7 ; 34034.00000000001
144 ; 75186.53194982297 ; 274947.53602031193 ; 1.2320639528372576E7 ; 2.658290548187085E7 ; 34272.00000000001
145 ; 75692.23285647461 ; 276210.982003394 ; 1.23958260603224E7 ; 2.685785301789116E7 ; 34510.00000000001
146 ; 75102.36521001915 ; 277471.3598753562 ; 1.2471518293178875E7 ; 2.7134063999894556E7 ; 34748.00000000001
147 ; 75043.2316775792 ; 278728.6294304915 ; 1.2546620658388894E7 ; 2.741153535976991E7 ; 34986.00000000001
148 ; 74307.88078668987 ; 279982.75094541564 ; 1.2621663890066473E7 ; 2.7690263989200402E7 ; 35224.00000000001
149 ; 74769.55716185272 ; 281233.68516625225 ; 1.2695971770853162E7 ; 2.7970246740145817E7 ; 35462.00000000001
150 ; 73969.8298751085 ; 282481.3932963233 ; 1.2770741328015015E7 ; 2.825148042531207E7 ; 35700.00000000001
151 ; 74054.70297004706 ; 283725.83698432107 ; 1.2844711157890122E7 ; 2.8533961818608392E7 ; 35938.00000000001
152 ; 73366.95621571809 ; 284966.97831294226 ; 1.2918765860860169E7 ; 2.8817687655592714E7 ; 36176.00000000001
153 ; 73338.88742863233 ; 286204.7797879635 ; 1.2992132817075888E7 ; 2.9102654633905657E7 ; 36414.00000000001
154 ; 73246.57157249007 ; 287439.2043277397 ; 1.306547170450452E7 ; 2.938885941369362E7 ; 36652.00000000001
155 ; 73415.62660188122 ; 288670.2152531082 ; 1.313871827607701E7 ; 2.967629861802136E7 ; 36890.00000000001
156 ; 72513.14269831713 ; 289897.776277679 ; 1.321213390267889E7 ; 2.996496883327447E7 ; 37128.00000000001
157 ; 72250.27089798576 ; 291121.8514984981 ; 1.3284647045377208E7 ; 3.025486660955215E7 ; 37366.00000000001
158 ; 72479.02598335817 ; 292342.4053870657 ; 1.3356897316275194E7 ; 3.054598846105065E7 ; 37604.00000000001
159 ; 71694.96777483578 ; 293559.4027806959 ; 1.3429376342258552E7 ; 3.0838330866437715E7 ; 37842.00000000001
160 ; 71864.23865592299 ; 294772.80887420295 ; 1.3501071310033388E7 ; 3.113189026921841E7 ; 38080.00000000001
161 ; 71605.30428429451 ; 295982.58921190136 ; 1.3572935548689311E7 ; 3.1426663078092616E7 ; 38318.00000000001
162 ; 71254.33114000925 ; 297188.7096799058 ; 1.3644540852973606E7 ; 3.1722645667304516E7 ; 38556.00000000001
163 ; 70854.85648327222 ; 298391.1364987198 ; 1.3715795184113616E7 ; 3.201983437698442E7 ; 38794.00000000001
164 ; 70579.10804433754 ; 299589.83621610043 ; 1.3786650040596887E7 ; 3.231822551348314E7 ; 39032.00000000001
165 ; 69967.1731916659 ; 300784.7757001886 ; 1.3857229148641225E7 ; 3.261781534969924E7 ; 39270.00000000001
166 ; 70161.81836663141 ; 301975.9221328934 ; 1.3927196321832892E7 ; 3.291860012539943E7 ; 39508.00000000001
167 ; 69474.77575925119 ; 303163.2430035215 ; 1.3997358140199523E7 ; 3.3220576047532324E7 ; 39746.00000000001
168 ; 69078.99306403133 ; 304346.70610264 ; 1.4066832915958775E7 ; 3.3523739290535845E7 ; 39984.00000000001
169 ; 69155.18776092457 ; 305526.27951616544 ; 1.4135911909022806E7 ; 3.3828085996638484E7 ; 40222.00000000001
170 ; 68484.8903440116 ; 306701.9316196684 ; 1.4205067096783731E7 ; 3.413361227615465E7 ; 40460.00000000001
171 ; 68101.69883833666 ; 307873.6310728863 ; 1.4273551987127744E7 ; 3.444031420777432E7 ; 40698.00000000001
172 ; 67677.40452453564 ; 309041.34681443544 ; 1.434165368596608E7 ; 3.4748187838847205E7 ; 40936.00000000001
173 ; 67573.07822482348 ; 310205.04805671464 ; 1.4409331090490615E7 ; 3.5057229185661644E7 ; 41174.00000000001
174 ; 67604.91733900372 ; 311364.70428099396 ; 1.4476904168715438E7 ; 3.536743423371836E7 ; 41412.00000000001
175 ; 68009.8623519628 ; 312520.2852326795 ; 1.4544509086054442E7 ; 3.567879893799935E7 ; 41650.00000000001
176 ; 67690.95919574126 ; 313671.7609167492 ; 1.4612518948406406E7 ; 3.599131922323203E7 ; 41888.00000000001
177 ; 67975.11335047908 ; 314819.10159335216 ; 1.4680209907602146E7 ; 3.630499098414878E7 ; 42126.00000000001
178 ; 67764.90550947451 ; 315962.27777356573 ; 1.4748185020952625E7 ; 3.661981008574213E7 ; 42364.00000000001
179 ; 68487.30286521092 ; 317101.26021530345 ; 1.4815949926462099E7 ; 3.69357723635157E7 ; 42602.00000000001
180 ; 68779.68023211398 ; 318236.0199193696 ; 1.488443722932731E7 ; 3.7252873623731E7 ; 42840.00000000001
181 ; 68880.9621246083 ; 319366.5281256532 ; 1.4953216909559423E7 ; 3.7571109643650375E7 ; 43078.00000000001
