CSV File for the Network on Day 268
1 - Minute m 
2 - Power Consumed at minute m 
3 - Power Produced at minute m 
4 - Energy Consumed since the beginning of the day 
5 - Energy Produced since the beginning of the day 
6 - Energy Lost since the beginning of the day 
 
No Production city : 2, Producer : 1
No Production city : 4, Producer : 1
No Production city : 4, Producer : 1
 
0 ; 40537.00932839428 ; 167611.83585777605 ; 0.0 ; 0.0 ; 0.0
1 ; 42044.55531575456 ; 167271.08603706735 ; 40537.00932839428 ; 167611.83585777605 ; 238.00000000000003
2 ; 43038.27610345566 ; 166965.15184900837 ; 82581.56464414884 ; 334882.9218948434 ; 476.00000000000006
3 ; 44151.22148882329 ; 166694.37662345154 ; 125619.8407476045 ; 501848.07374385174 ; 714.0000000000001
4 ; 45896.39691884721 ; 166459.067690528 ; 169771.0622364278 ; 668542.4503673033 ; 952.0000000000001
5 ; 47318.100438408124 ; 166259.49479814785 ; 215667.45915527502 ; 835001.5180578313 ; 1190.0000000000002
6 ; 48226.39242829701 ; 166095.88869844025 ; 262985.55959368317 ; 1001261.0128559791 ; 1428.0000000000002
7 ; 50103.28586851273 ; 165968.43992022573 ; 311211.9520219802 ; 1167356.9015544194 ; 1666.0000000000002
8 ; 51321.26111891048 ; 165877.29774268396 ; 361315.2378904929 ; 1333325.341474645 ; 1904.0000000000002
9 ; 53117.86586957835 ; 165822.56938311868 ; 412636.4990094034 ; 1499202.639217329 ; 2142.0000000000005
10 ; 53961.8112670521 ; 165804.31940918037 ; 465754.3648789817 ; 1665025.2086004477 ; 2380.0000000000005
11 ; 55289.3584382063 ; 165822.56938311868 ; 519716.1761460338 ; 1830829.5280096282 ; 2618.0000000000005
12 ; 56288.89838006414 ; 165877.29774268396 ; 575005.53458424 ; 1996652.097392747 ; 2856.0000000000005
13 ; 57541.231837468 ; 165968.43992022573 ; 631294.4329643042 ; 2162529.395135431 ; 3094.0000000000005
14 ; 58961.17871046484 ; 166095.88869844016 ; 688835.6648017722 ; 2328497.8350556567 ; 3332.0000000000005
15 ; 60253.77986527186 ; 166259.49479814785 ; 747796.8435122371 ; 2494593.723754097 ; 3570.0000000000005
16 ; 61584.67734700674 ; 166459.067690528 ; 808050.623377509 ; 2660853.218552245 ; 3808.0000000000005
17 ; 62292.803816952146 ; 166694.37662345148 ; 869635.3007245157 ; 2827312.286242773 ; 4046.0000000000005
18 ; 64247.1803114975 ; 166965.15184900837 ; 931928.1045414679 ; 2994006.6628662245 ; 4284.000000000001
19 ; 64551.77341492143 ; 167271.08603706735 ; 996175.2848529654 ; 3160971.8147152327 ; 4522.000000000001
20 ; 65861.68501896587 ; 167611.83585777605 ; 1060727.0582678868 ; 3328242.9007523 ; 4760.000000000001
21 ; 67213.7728481834 ; 167987.02371435205 ; 1126588.7432868527 ; 3495854.736610076 ; 4998.000000000001
22 ; 67649.3999977793 ; 168396.23960632645 ; 1193802.516135036 ; 3663841.760324428 ; 5236.000000000001
23 ; 69107.36902746969 ; 168839.04310261837 ; 1261451.9161328154 ; 3832237.9999307543 ; 5474.000000000001
24 ; 70060.56710801602 ; 169314.96540340956 ; 1330559.2851602852 ; 4001077.0430333726 ; 5712.000000000001
25 ; 71124.67075503446 ; 169823.51146976146 ; 1400619.8522683012 ; 4170392.0084367823 ; 5950.000000000001
26 ; 72159.72106446612 ; 170364.1622002342 ; 1471744.5230233357 ; 4340215.519906544 ; 6188.000000000001
27 ; 73231.17061593117 ; 170936.3766344057 ; 1543904.2440878018 ; 4510579.682106778 ; 6426.000000000001
28 ; 74473.17644673266 ; 171539.5941641066 ; 1617135.414703733 ; 4681516.058741184 ; 6664.000000000001
29 ; 75041.79327329913 ; 172173.2367343465 ; 1691608.5911504657 ; 4853055.652905291 ; 6902.000000000001
30 ; 76174.8480533408 ; 172836.7110172591 ; 1766650.384423765 ; 5025228.889639637 ; 7140.000000000001
31 ; 76894.95330438147 ; 173529.41054390068 ; 1842825.2324771057 ; 5198065.600656897 ; 7378.000000000001
32 ; 78389.48872306471 ; 174250.71778034407 ; 1919720.1857814873 ; 5371595.011200798 ; 7616.000000000001
33 ; 78757.33543607536 ; 175000.0061361874 ; 1998109.674504552 ; 5545845.728981142 ; 7854.000000000001
34 ; 79899.31865305241 ; 175776.64189529564 ; 2076867.0099406275 ; 5720845.735117329 ; 8092.000000000001
35 ; 80670.39765232516 ; 176579.98606028038 ; 2156766.3285936797 ; 5896622.377012625 ; 8330.000000000002
36 ; 81518.33004974257 ; 177409.39610387292 ; 2237436.726246005 ; 6073202.363072906 ; 8568.000000000002
37 ; 82326.50903404347 ; 178264.22762192116 ; 2318955.0562957474 ; 6250611.759176779 ; 8806.000000000002
38 ; 82760.00988674932 ; 179143.83588423315 ; 2401281.565329791 ; 6428875.9867987 ; 9044.000000000002
39 ; 83979.61648858358 ; 180047.57728087384 ; 2484041.57521654 ; 6608019.822682933 ; 9282.000000000002
40 ; 85031.68943456223 ; 180974.81066278607 ; 2568021.1917051235 ; 6788067.399963806 ; 9520.000000000002
41 ; 85325.57810241886 ; 181924.89857674943 ; 2653052.881139686 ; 6969042.210626593 ; 9758.000000000002
42 ; 86023.07499737563 ; 182897.20839569965 ; 2738378.4592421046 ; 7150967.109203342 ; 9996.000000000002
43 ; 87046.05450640479 ; 183891.11334631592 ; 2824401.5342394803 ; 7333864.317599042 ; 10234.000000000002
44 ; 87428.45450003496 ; 184905.99343653262 ; 2911447.588745885 ; 7517755.430945358 ; 10472.000000000002
45 ; 88275.36204203253 ; 185941.23628626793 ; 2998876.04324592 ; 7702661.424381891 ; 10710.000000000002
46 ; 88997.1150212526 ; 186996.237865171 ; 3087151.4052879526 ; 7888602.660668159 ; 10948.000000000002
47 ; 89635.14173769935 ; 188070.403141598 ; 3176148.520309205 ; 8075598.89853333 ; 11186.000000000002
48 ; 90426.43306695574 ; 189163.14664733113 ; 3265783.6620469047 ; 8263669.3016749285 ; 11424.000000000002
49 ; 91140.04809781433 ; 190273.89296276972 ; 3356210.0951138604 ; 8452832.448322259 ; 11662.000000000002
50 ; 91799.95952708795 ; 191402.07712745594 ; 3447350.143211675 ; 8643106.34128503 ; 11900.000000000002
51 ; 91949.4774608101 ; 192547.14498085962 ; 3539150.1027387627 ; 8834508.418412486 ; 12138.000000000002
52 ; 92998.3222148576 ; 193708.5534383479 ; 3631099.5801995727 ; 9027055.563393345 ; 12376.000000000002
53 ; 93449.1095133496 ; 194885.77070720948 ; 3724097.9024144304 ; 9220764.116831694 ; 12614.000000000002
54 ; 93435.31179857095 ; 196078.27644750994 ; 3817547.0119277798 ; 9415649.887538902 ; 12852.000000000002
55 ; 94408.64158171957 ; 197285.5618824162 ; 3910982.323726351 ; 9611728.163986413 ; 13090.000000000002
56 ; 94750.96603691763 ; 198507.12986246805 ; 4005390.9653080706 ; 9809013.725868829 ; 13328.000000000002
57 ; 95341.48239742132 ; 199742.49488808482 ; 4100141.9313449883 ; 1.0007520855731297E7 ; 13566.000000000002
58 ; 96504.66390219844 ; 200991.18309439468 ; 4195483.41374241 ; 1.0207263350619381E7 ; 13804.000000000002
59 ; 95822.62599055874 ; 202252.7322022554 ; 4291988.077644609 ; 1.0408254533713777E7 ; 14042.000000000002
60 ; 96903.61812338655 ; 203526.69143911445 ; 4387810.703635167 ; 1.0610507265916033E7 ; 14280.000000000002
61 ; 97123.12986484746 ; 204812.621433129 ; 4484714.321758554 ; 1.0814033957355147E7 ; 14518.000000000002
62 ; 97626.15506885425 ; 206110.09408373688 ; 4581837.451623402 ; 1.1018846578788277E7 ; 14756.000000000002
63 ; 98187.59988765228 ; 207418.69241164823 ; 4679463.6066922555 ; 1.1224956672872014E7 ; 14994.000000000002
64 ; 98636.36469189705 ; 208738.01039100363 ; 4777651.206579908 ; 1.1432375365283662E7 ; 15232.000000000002
65 ; 98957.95984564838 ; 210067.65276623302 ; 4876287.571271805 ; 1.1641113375674667E7 ; 15470.000000000002
66 ; 99384.43587240289 ; 211407.23485594103 ; 4975245.531117453 ; 1.18511810284409E7 ; 15708.000000000002
67 ; 99795.6845612662 ; 212756.38234594755 ; 5074629.966989856 ; 1.206258826329684E7 ; 15946.000000000002
68 ; 99929.15952458147 ; 214114.7310734258 ; 5174425.651551123 ; 1.227534464564279E7 ; 16184.000000000002
69 ; 100480.91126559087 ; 215481.926803898 ; 5274354.811075704 ; 1.2489459376716215E7 ; 16422.000000000004
70 ; 100518.28768591884 ; 216857.62500268605 ; 5374835.722341295 ; 1.2704941303520113E7 ; 16660.000000000004
71 ; 100829.38600191707 ; 218241.49060225266 ; 5475354.010027214 ; 1.29217989285228E7 ; 16898.000000000004
72 ; 101218.47638093804 ; 219633.1977667248 ; 5576183.3960291315 ; 1.3140040419125052E7 ; 17136.000000000004
73 ; 101732.85785021016 ; 221032.42965475307 ; 5677401.872410069 ; 1.3359673616891777E7 ; 17374.000000000004
74 ; 101767.96919878342 ; 222438.87818173377 ; 5779134.730260279 ; 1.358070604654653E7 ; 17612.000000000004
75 ; 101654.13214164875 ; 223852.24378230475 ; 5880902.699459063 ; 1.3803144924728263E7 ; 17850.000000000004
76 ; 102234.9625215569 ; 225272.2351739176 ; 5982556.831600712 ; 1.4026997168510567E7 ; 18088.000000000004
77 ; 102018.28989358753 ; 226698.5691221896 ; 6084791.794122268 ; 1.4252269403684486E7 ; 18326.000000000004
78 ; 103051.30962704668 ; 228130.97020864958 ; 6186810.084015856 ; 1.4478967972806675E7 ; 18564.000000000004
79 ; 102616.25041881957 ; 229569.17060140782 ; 6289861.393642902 ; 1.4707098943015326E7 ; 18802.000000000004
80 ; 102669.00289595258 ; 231012.90982920752 ; 6392477.644061722 ; 1.4936668113616733E7 ; 19040.000000000004
81 ; 102679.08342483474 ; 232461.9345592439 ; 6495146.646957674 ; 1.516768102344594E7 ; 19278.000000000004
82 ; 102450.40223666365 ; 233915.99837907928 ; 6597825.730382509 ; 1.5400142958005184E7 ; 19516.000000000004
83 ; 103226.59523239073 ; 235374.8615829239 ; 6700276.132619172 ; 1.5634058956384264E7 ; 19754.000000000004
84 ; 103077.17818129473 ; 236838.29096250428 ; 6803502.727851563 ; 1.5869433817967188E7 ; 19992.000000000004
85 ; 103408.66616764254 ; 238306.0596026947 ; 6906579.9060328575 ; 1.6106272108929692E7 ; 20230.000000000004
86 ; 102994.25944147243 ; 239777.94668204995 ; 7009988.5722005 ; 1.6344578168532386E7 ; 20468.000000000004
87 ; 102725.58987055202 ; 241253.73727833742 ; 7112982.831641973 ; 1.6584356115214437E7 ; 20706.000000000004
88 ; 103107.16627991795 ; 242733.22217914055 ; 7215708.421512525 ; 1.6825609852492776E7 ; 20944.000000000004
89 ; 102793.71003682267 ; 244216.19769757305 ; 7318815.587792442 ; 1.7068343074671917E7 ; 21182.000000000004
90 ; 103027.0584124928 ; 245702.46549312124 ; 7421609.297829265 ; 1.731255927236949E7 ; 21420.000000000004
91 ; 103100.88610622048 ; 247191.83239760873 ; 7524636.356241758 ; 1.755826173786261E7 ; 21658.000000000004
92 ; 102293.08101753387 ; 248684.1102462606 ; 7627737.242347978 ; 1.780545357026022E7 ; 21896.000000000004
93 ; 102936.20780621252 ; 250179.11571382603 ; 7730030.323365512 ; 1.805413768050648E7 ; 22134.000000000004
94 ; 102865.45660451468 ; 251676.67015570472 ; 7832966.531171725 ; 1.8304316796220306E7 ; 22372.000000000004
95 ; 102293.62829253275 ; 253176.59945401142 ; 7935831.987776239 ; 1.855599346637601E7 ; 22610.000000000004
96 ; 102447.01997612852 ; 254678.73386850074 ; 8038125.616068772 ; 1.8809170065830022E7 ; 22848.000000000004
97 ; 102455.00658696042 ; 256182.9078922671 ; 8140572.636044901 ; 1.9063848799698524E7 ; 23086.000000000004
98 ; 102012.63134478846 ; 257688.960112127 ; 8243027.642631861 ; 1.9320031707590792E7 ; 23324.000000000004
99 ; 101796.5206665899 ; 259196.73307358485 ; 8345040.27397665 ; 1.957772066770292E7 ; 23562.000000000004
100 ; 101721.3409484882 ; 260706.07315027894 ; 8446836.79464324 ; 1.9836917400776505E7 ; 23800.000000000004
101 ; 101455.09230914101 ; 262216.83041780017 ; 8548558.135591729 ; 2.0097623473926783E7 ; 24038.000000000004
102 ; 101031.52648507379 ; 263728.8585317741 ; 8650013.22790087 ; 2.0359840304344583E7 ; 24276.000000000004
103 ; 100724.34728533434 ; 265242.0146100934 ; 8751044.754385944 ; 2.0623569162876356E7 ; 24514.000000000004
104 ; 101014.06526603471 ; 266756.15911918826 ; 8851769.101671278 ; 2.088881117748645E7 ; 24752.000000000004
105 ; 100543.78356349737 ; 268271.15576422086 ; 8952783.166937314 ; 2.115556733660564E7 ; 24990.000000000004
106 ; 100070.65047812347 ; 269786.87138308876 ; 9053326.95050081 ; 2.142383849236986E7 ; 25228.000000000004
107 ; 99752.8905471306 ; 271303.1758441251 ; 9153397.600978933 ; 2.169362536375295E7 ; 25466.000000000004
108 ; 99725.29515161875 ; 272819.94194738095 ; 9253150.491526064 ; 2.1964928539597075E7 ; 25704.000000000004
109 ; 98918.8232471699 ; 274337.0453293799 ; 9352875.786677683 ; 2.2237748481544457E7 ; 25942.000000000004
110 ; 98997.43340133892 ; 275854.3643712327 ; 9451794.609924853 ; 2.251208552687384E7 ; 26180.000000000004
111 ; 98301.01462753867 ; 277371.7801100043 ; 9550792.043326192 ; 2.278793989124507E7 ; 26418.000000000004
112 ; 97859.72719101349 ; 278889.1761532264 ; 9649093.05795373 ; 2.3065311671355076E7 ; 26656.000000000004
113 ; 97718.76492733836 ; 280406.43859645014 ; 9746952.785144744 ; 2.3344200847508304E7 ; 26894.000000000004
114 ; 97281.03921958641 ; 281923.45594373695 ; 9844671.550072083 ; 2.3624607286104754E7 ; 27132.000000000004
115 ; 96653.13059665519 ; 283440.1190309877 ; 9941952.58929167 ; 2.390653074204849E7 ; 27370.000000000004
116 ; 96207.0565062063 ; 284956.32095201086 ; 1.0038605719888324E7 ; 2.4189970861079477E7 ; 27608.000000000004
117 ; 95465.92915449756 ; 286471.9569872365 ; 1.0134812776394531E7 ; 2.4474927182031486E7 ; 27846.000000000004
118 ; 95136.46637668062 ; 287986.9245349816 ; 1.0230278705549028E7 ; 2.4761399139018722E7 ; 28084.000000000004
119 ; 94941.89959478851 ; 289501.1230451776 ; 1.0325415171925709E7 ; 2.5049386063553702E7 ; 28322.000000000004
120 ; 93810.66614398405 ; 291014.4539554718 ; 1.0420357071520498E7 ; 2.533888718659888E7 ; 28560.000000000004
121 ; 93654.06444231159 ; 292526.8206296189 ; 1.0514167737664482E7 ; 2.562990164055435E7 ; 28798.000000000004
122 ; 92982.85690928323 ; 294038.1282980786 ; 1.0607821802106794E7 ; 2.592242846118397E7 ; 29036.000000000004
123 ; 92668.53407420767 ; 295548.28400074114 ; 1.0700804659016076E7 ; 2.6216466589482047E7 ; 29274.000000000004
124 ; 92044.86635072881 ; 297057.19653170224 ; 1.0793473193090284E7 ; 2.6512014873482786E7 ; 29512.000000000004
125 ; 91281.19559152247 ; 298564.77638601366 ; 1.0885518059441013E7 ; 2.6809072070014488E7 ; 29750.000000000004
126 ; 90686.48680085938 ; 300070.9357083366 ; 1.0976799255032536E7 ; 2.7107636846400503E7 ; 29988.000000000004
127 ; 90015.16440220896 ; 301575.588243428 ; 1.1067485741833394E7 ; 2.740770778210884E7 ; 30226.000000000004
128 ; 89750.67442104827 ; 303078.6492883931 ; 1.1157500906235604E7 ; 2.770928337035227E7 ; 30464.000000000004
129 ; 88727.4355554454 ; 304580.0356466383 ; 1.1247251580656651E7 ; 2.801236201964066E7 ; 30702.000000000004
130 ; 87909.02562908428 ; 306079.66558346176 ; 1.1335979016212096E7 ; 2.83169420552873E7 ; 30940.000000000004
131 ; 86953.03036882813 ; 307577.4587832217 ; 1.1423888041841181E7 ; 2.8623021720870763E7 ; 31178.000000000004
132 ; 86770.07957047367 ; 309073.33630802314 ; 1.1510841072210008E7 ; 2.8930599179653984E7 ; 31416.000000000004
133 ; 85725.688144446 ; 310567.220557867 ; 1.1597611151780482E7 ; 2.923967251596201E7 ; 31654.000000000004
134 ; 85244.02144155142 ; 312059.03523220844 ; 1.1683336839924928E7 ; 2.9550239736519877E7 ; 31892.000000000004
135 ; 84379.96055842406 ; 313548.7052928698 ; 1.1768580861366479E7 ; 2.9862298771752086E7 ; 32130.000000000004
136 ; 83626.10904567789 ; 315036.1569282603 ; 1.1852960821924902E7 ; 3.0175847477044955E7 ; 32368.000000000004
137 ; 82811.96862435524 ; 316521.3175188521 ; 1.1936586930970581E7 ; 3.0490883633973215E7 ; 32606.000000000004
138 ; 81655.6429267483 ; 318004.1156038675 ; 1.2019398899594937E7 ; 3.0807404951492067E7 ; 32844.00000000001
139 ; 81066.32457420166 ; 319484.480849131 ; 1.2101054542521685E7 ; 3.1125409067095935E7 ; 33082.00000000001
140 ; 80626.35381327695 ; 320962.3440160443 ; 1.2182120867095888E7 ; 3.1444893547945067E7 ; 33320.00000000001
141 ; 79460.70388280564 ; 322437.636931641 ; 1.2262747220909165E7 ; 3.1765855891961113E7 ; 33558.00000000001
142 ; 78188.18746459096 ; 323910.29245968314 ; 1.2342207924791971E7 ; 3.2088293528892756E7 ; 33796.00000000001
143 ; 77471.34388185164 ; 325380.2444727591 ; 1.2420396112256562E7 ; 3.2412203821352437E7 ; 34034.00000000001
144 ; 76203.48576786106 ; 326847.4278253463 ; 1.2497867456138413E7 ; 3.2737584065825198E7 ; 34272.00000000001
145 ; 76226.41590238608 ; 328311.7783278041 ; 1.2574070941906275E7 ; 3.3064431493650544E7 ; 34510.00000000001
146 ; 75882.08785321667 ; 329773.2327212612 ; 1.265029735780866E7 ; 3.339274327197835E7 ; 34748.00000000001
147 ; 75728.56239808947 ; 331231.7286533652 ; 1.2726179445661878E7 ; 3.372251650469961E7 ; 34986.00000000001
148 ; 75577.65672345602 ; 332687.2046548633 ; 1.2801908008059967E7 ; 3.4053748233352974E7 ; 35224.00000000001
149 ; 75342.9593532169 ; 334139.6001169818 ; 1.2877485664783424E7 ; 3.438643543800784E7 ; 35462.00000000001
150 ; 75575.6019073816 ; 335588.85526957735 ; 1.295282862413664E7 ; 3.472057503812482E7 ; 35700.00000000001
151 ; 75085.1078182762 ; 337034.91116003017 ; 1.3028404226044022E7 ; 3.5056163893394396E7 ; 35938.00000000001
152 ; 75036.27714759445 ; 338477.70963285235 ; 1.3103489333862297E7 ; 3.5393198804554425E7 ; 36176.00000000001
153 ; 74942.22285778023 ; 339917.19330998574 ; 1.3178525611009892E7 ; 3.573167651418728E7 ; 36414.00000000001
154 ; 74748.284584709 ; 341353.3055717642 ; 1.3253467833867673E7 ; 3.607159370749726E7 ; 36652.00000000001
155 ; 73688.14158497067 ; 342785.9905385154 ; 1.3328216118452381E7 ; 3.6412947013069026E7 ; 36890.00000000001
156 ; 73634.72521797824 ; 344215.1930527804 ; 1.3401904260037351E7 ; 3.675573300360754E7 ; 37128.00000000001
157 ; 73810.36257504212 ; 345640.8586621269 ; 1.3475538985255329E7 ; 3.7099948196660325E7 ; 37366.00000000001
158 ; 73355.29833968505 ; 347062.933602536 ; 1.3549349347830372E7 ; 3.744558905532245E7 ; 37604.00000000001
159 ; 73420.35435602884 ; 348481.3647823424 ; 1.3622704646170057E7 ; 3.779265198892499E7 ; 37842.00000000001
160 ; 73024.83584916242 ; 349896.0997667061 ; 1.3696125000526085E7 ; 3.814113335370733E7 ; 38080.00000000001
161 ; 72653.74361373976 ; 351307.0867625985 ; 1.3769149836375248E7 ; 3.849102945347404E7 ; 38318.00000000001
162 ; 72338.56025489926 ; 352714.27460428386 ; 1.3841803579988988E7 ; 3.884233654023664E7 ; 38556.00000000001
163 ; 72122.50840949724 ; 354117.61273927835 ; 1.3914142140243888E7 ; 3.919505081484092E7 ; 38794.00000000001
164 ; 71442.37110693866 ; 355517.0512147701 ; 1.3986264648653384E7 ; 3.95491684275802E7 ; 39032.00000000001
165 ; 71209.38268299933 ; 356912.54066448327 ; 1.4057707019760324E7 ; 3.990468547879497E7 ; 39270.00000000001
166 ; 71355.49533272392 ; 358304.03229597147 ; 1.4128916402443323E7 ; 4.0261598019459456E7 ; 39508.00000000001
167 ; 70908.51971373726 ; 359691.47787832445 ; 1.4200271897776047E7 ; 4.061990205175543E7 ; 39746.00000000001
168 ; 70978.78269837156 ; 361074.8297302742 ; 1.4271180417489784E7 ; 4.097959352963375E7 ; 39984.00000000001
169 ; 70283.37246766599 ; 362454.0407086858 ; 1.4342159200188156E7 ; 4.1340668359364025E7 ; 40222.00000000001
170 ; 69723.18129612585 ; 363829.0641974205 ; 1.4412442572655823E7 ; 4.170312240007271E7 ; 40460.00000000001
171 ; 69231.16235445593 ; 365199.8540965572 ; 1.4482165753951948E7 ; 4.206695146427013E7 ; 40698.00000000001
172 ; 69305.28642473648 ; 366566.3648119604 ; 1.4551396916306404E7 ; 4.2432151318366684E7 ; 40936.00000000001
173 ; 68521.82338149654 ; 367928.5512451824 ; 1.462070220273114E7 ; 4.279871768317864E7 ; 41174.00000000001
174 ; 69017.40720357705 ; 369286.3687836886 ; 1.4689224026112637E7 ; 4.316664623442382E7 ; 41412.00000000001
175 ; 69008.5262937507 ; 370639.7732913934 ; 1.4758241433316214E7 ; 4.353593260320751E7 ; 41650.00000000001
176 ; 69143.82004448341 ; 371988.72109949886 ; 1.4827249959609965E7 ; 4.390657237649891E7 ; 41888.00000000001
177 ; 69103.10239829183 ; 373333.1689976221 ; 1.4896393779654449E7 ; 4.42785610975984E7 ; 42126.00000000001
178 ; 69476.13391191093 ; 374673.07422520465 ; 1.496549688205274E7 ; 4.465189426659603E7 ; 42364.00000000001
179 ; 69862.69370268728 ; 376008.39446319314 ; 1.5034973015964651E7 ; 4.502656734082123E7 ; 42602.00000000001
180 ; 69833.14410416863 ; 377339.08782598085 ; 1.5104835709667338E7 ; 4.5402575735284425E7 ; 42840.00000000001
181 ; 70001.48089683065 ; 378665.11285360344 ; 1.5174668853771506E7 ; 4.577991482311041E7 ; 43078.00000000001
