CSV File for the Network on Day 216
1 - Minute m 
2 - Power Consumed at minute m 
3 - Power Produced at minute m 
4 - Energy Consumed since the beginning of the day 
5 - Energy Produced since the beginning of the day 
6 - Energy Lost since the beginning of the day 
 
No Production city : 2, Producer : 1
No Production city : 4, Producer : 1
No Production city : 4, Producer : 1
 
0 ; 27283.45356824861 ; 104004.02001079229 ; 0.0 ; 0.0 ; 0.0
1 ; 28736.785001214666 ; 103430.10642052848 ; 27283.45356824861 ; 104004.02001079229 ; 238.00000000000003
2 ; 30894.55044491941 ; 102908.29427734869 ; 56020.238569463276 ; 207434.12643132076 ; 476.00000000000006
3 ; 32484.999873236768 ; 102441.05048237329 ; 86914.78901438268 ; 310342.42070866947 ; 714.0000000000001
4 ; 34720.540899373445 ; 102030.71486195126 ; 119399.78888761945 ; 412783.47119104274 ; 952.0000000000001
5 ; 35595.769342260166 ; 101679.45147959063 ; 154120.3297869929 ; 514814.186052994 ; 1190.0000000000002
6 ; 37943.022843967046 ; 101389.19908176751 ; 189716.09912925307 ; 616493.6375325846 ; 1428.0000000000002
7 ; 39775.11240688388 ; 101161.6229287616 ; 227659.1219732201 ; 717882.8366143521 ; 1666.0000000000002
8 ; 41120.83253128592 ; 100998.0705184792 ; 267434.234380104 ; 819044.4595431137 ; 1904.0000000000002
9 ; 43153.34078256102 ; 100899.53376554488 ; 308555.06691138993 ; 920042.5300615929 ; 2142.0000000000005
10 ; 44515.86971970435 ; 100866.62000752785 ; 351708.4076939509 ; 1020942.0638271378 ; 2380.0000000000005
11 ; 46414.29821044648 ; 100899.53376554488 ; 396224.2774136553 ; 1121808.6838346657 ; 2618.0000000000005
12 ; 47962.59029454893 ; 100998.0705184792 ; 442638.5756241018 ; 1222708.2176002106 ; 2856.0000000000005
13 ; 49485.01365988349 ; 101161.6229287616 ; 490601.16591865075 ; 1323706.2881186898 ; 3094.0000000000005
14 ; 51433.71450868049 ; 101389.19908176736 ; 540086.1795785342 ; 1424867.9110474514 ; 3332.0000000000005
15 ; 52289.74524174759 ; 101679.45147959063 ; 591519.8940872147 ; 1526257.1101292188 ; 3570.0000000000005
16 ; 54070.406548284576 ; 102030.71486195126 ; 643809.6393289623 ; 1627936.5616088095 ; 3808.0000000000005
17 ; 55204.99339515864 ; 102441.05048237318 ; 697880.0458772469 ; 1729967.2764707608 ; 4046.0000000000005
18 ; 57524.19658742141 ; 102908.2942773488 ; 753085.0392724056 ; 1832408.326953134 ; 4284.000000000001
19 ; 59026.37948082381 ; 103430.10642052836 ; 810609.2358598269 ; 1935316.6212304828 ; 4522.000000000001
20 ; 60143.257238918144 ; 104004.02001079243 ; 869635.6153406507 ; 2038746.7276510112 ; 4760.000000000001
21 ; 61417.29655359081 ; 104627.48704022128 ; 929778.8725795688 ; 2142750.747661804 ; 4998.000000000001
22 ; 62939.06821588966 ; 105297.92025750077 ; 991196.1691331596 ; 2247378.234702025 ; 5236.000000000001
23 ; 64461.90365816551 ; 106012.73002230462 ; 1054135.2373490492 ; 2352676.154959526 ; 5474.000000000001
24 ; 66405.6904594675 ; 106769.35568858513 ; 1118597.1410072148 ; 2458688.8849818306 ; 5712.000000000001
25 ; 67453.78435204767 ; 107565.29142831864 ; 1185002.8314666823 ; 2565458.2406704156 ; 5950.000000000001
26 ; 68676.25096903757 ; 108398.10669720761 ; 1252456.6158187299 ; 2673023.5320987343 ; 6188.000000000001
27 ; 69967.87492338938 ; 109265.4617485048 ; 1321132.8667877675 ; 2781421.638795942 ; 6426.000000000001
28 ; 71237.59683250125 ; 110165.11872805962 ; 1391100.741711157 ; 2890687.100544447 ; 6664.000000000001
29 ; 72722.66415552827 ; 111094.94894569137 ; 1462338.3385436581 ; 3000852.219272507 ; 6902.000000000001
30 ; 73842.64217306525 ; 112052.93692980998 ; 1535061.0026991863 ; 3111947.168218198 ; 7140.000000000001
31 ; 75201.45212287223 ; 113037.18184823128 ; 1608903.6448722517 ; 3224000.105148008 ; 7378.000000000001
32 ; 76325.27977006194 ; 114045.89683100847 ; 1684105.096995124 ; 3337037.2869962393 ; 7616.000000000001
33 ; 77785.47461072372 ; 115077.40667105855 ; 1760430.3767651857 ; 3451083.183827248 ; 7854.000000000001
34 ; 78542.35670993642 ; 116130.14431317424 ; 1838215.8513759095 ; 3566160.5904983063 ; 8092.000000000001
35 ; 79852.39769345686 ; 117202.64647711431 ; 1916758.208085846 ; 3682290.7348114806 ; 8330.000000000002
36 ; 81044.70614198258 ; 118293.54869942028 ; 1996610.6057793028 ; 3799493.381288595 ; 8568.000000000002
37 ; 81859.29018950359 ; 119401.58002346041 ; 2077655.3119212855 ; 3917786.9299880154 ; 8806.000000000002
38 ; 83381.0900201274 ; 120525.55751890842 ; 2159514.602110789 ; 4037188.510011476 ; 9044.000000000002
39 ; 84210.06090793927 ; 121664.38077061715 ; 2242895.6921309168 ; 4157714.0675303843 ; 9282.000000000002
40 ; 85622.29964400463 ; 122817.02644235277 ; 2327105.753038856 ; 4279378.448301001 ; 9520.000000000002
41 ; 86060.40165994129 ; 123982.54299253579 ; 2412728.0526828608 ; 4402195.474743354 ; 9758.000000000002
42 ; 87183.09749743616 ; 125160.04559627322 ; 2498788.454342802 ; 4526178.01773589 ; 9996.000000000002
43 ; 88363.54858742194 ; 126348.71130980323 ; 2585971.5518402383 ; 4651338.063332164 ; 10234.000000000002
44 ; 89323.42860857386 ; 127547.77449927178 ; 2674335.10042766 ; 4777686.774641967 ; 10472.000000000002
45 ; 90200.17555083933 ; 128756.52254484857 ; 2763658.529036234 ; 4905234.549141239 ; 10710.000000000002
46 ; 90912.65509235796 ; 129974.29182294721 ; 2853858.7045870735 ; 5033991.071686088 ; 10948.000000000002
47 ; 92230.40506308671 ; 131200.46396324394 ; 2944771.3596794317 ; 5163965.363509036 ; 11186.000000000002
48 ; 93139.61520011786 ; 132434.46237282106 ; 3037001.7647425183 ; 5295165.82747228 ; 11424.000000000002
49 ; 94093.39995466197 ; 133675.74901675413 ; 3130141.379942636 ; 5427600.289845101 ; 11662.000000000002
50 ; 94046.89894726737 ; 134923.82144249085 ; 3224234.779897298 ; 5561276.038861855 ; 11900.000000000002
51 ; 95111.50229378938 ; 136178.2100342041 ; 3318281.6788445655 ; 5696199.860304345 ; 12138.000000000002
52 ; 95656.05572935511 ; 137438.47548273916 ; 3413393.181138355 ; 5832378.070338549 ; 12376.000000000002
53 ; 96761.08345786583 ; 138704.20645666064 ; 3509049.23686771 ; 5969816.545821289 ; 12614.000000000002
54 ; 97739.90061634585 ; 139975.01746011194 ; 3605810.320325576 ; 6108520.752277949 ; 12852.000000000002
55 ; 98472.00852527109 ; 141250.54686364066 ; 3703550.2209419217 ; 6248495.76973806 ; 13090.000000000002
56 ; 98866.5980587549 ; 142530.45509473715 ; 3802022.2294671927 ; 6389746.316601701 ; 13328.000000000002
57 ; 99182.83266275584 ; 143814.42297552284 ; 3900888.8275259477 ; 6532276.771696438 ; 13566.000000000002
58 ; 100300.97246607761 ; 145102.15019577404 ; 4000071.6601887033 ; 6676091.194671961 ; 13804.000000000002
59 ; 100683.78639769532 ; 146393.35391024116 ; 4100372.632654781 ; 6821193.344867734 ; 14042.000000000002
60 ; 101232.18940082988 ; 147687.76744999242 ; 4201056.419052476 ; 6967586.6987779755 ; 14280.000000000002
61 ; 102419.18953382634 ; 148985.13913827203 ; 4302288.608453306 ; 7115274.466227968 ; 14518.000000000002
62 ; 102561.09200427606 ; 150285.23120209394 ; 4404707.797987132 ; 7264259.60536624 ; 14756.000000000002
63 ; 103046.24131358667 ; 151587.81877148757 ; 4507268.889991408 ; 7414544.836568334 ; 14994.000000000002
64 ; 103699.73163760117 ; 152892.68895897057 ; 4610315.131304995 ; 7566132.655339822 ; 15232.000000000002
65 ; 104353.81591969823 ; 154199.6400124419 ; 4714014.862942596 ; 7719025.344298793 ; 15470.000000000002
66 ; 104592.53097312676 ; 155508.4805352596 ; 4818368.678862294 ; 7873224.984311235 ; 15708.000000000002
67 ; 104919.29567496758 ; 156819.02876780296 ; 4922961.209835421 ; 8028733.464846495 ; 15946.000000000002
68 ; 105561.26872305266 ; 158131.11192530917 ; 5027880.505510389 ; 8185552.493614297 ; 16184.000000000002
69 ; 106151.00589653559 ; 159444.56558722717 ; 5133441.774233442 ; 8343683.605539607 ; 16422.000000000004
70 ; 106160.6055220902 ; 160759.2331337466 ; 5239592.7801299775 ; 8503128.171126833 ; 16660.000000000004
71 ; 106795.24355873375 ; 162074.96522554077 ; 5345753.385652068 ; 8663887.40426058 ; 16898.000000000004
72 ; 107067.8664704484 ; 163391.61932311038 ; 5452548.629210802 ; 8825962.36948612 ; 17136.000000000004
73 ; 107920.09053593763 ; 164709.05924243186 ; 5559616.4956812505 ; 8989353.98880923 ; 17374.000000000004
74 ; 107800.02242239054 ; 166027.15474390466 ; 5667536.586217188 ; 9154063.04805166 ; 17612.000000000004
75 ; 108037.74686160295 ; 167345.78115185554 ; 5775336.608639579 ; 9320090.202795565 ; 17850.000000000004
76 ; 108025.36433067739 ; 168664.81900209826 ; 5883374.355501182 ; 9487435.98394742 ; 18088.000000000004
77 ; 108643.07643411402 ; 169984.15371526618 ; 5991399.71983186 ; 9656100.802949518 ; 18326.000000000004
78 ; 108444.85482488037 ; 171303.67529383415 ; 6100042.796265974 ; 9826084.956664784 ; 18564.000000000004
79 ; 108672.00704080744 ; 172623.27804092734 ; 6208487.651090854 ; 9997388.631958619 ; 18802.000000000004
80 ; 108910.61524269368 ; 173942.8602991789 ; 6317159.658131661 ; 1.0170011909999546E7 ; 19040.000000000004
81 ; 109225.86760802114 ; 175262.32420804875 ; 6426070.2733743545 ; 1.0343954770298725E7 ; 19278.000000000004
82 ; 109292.42063230216 ; 176581.57547815182 ; 6535296.1409823755 ; 1.0519217094506774E7 ; 19516.000000000004
83 ; 109327.13723578543 ; 177900.5231812677 ; 6644588.561614677 ; 1.0695798669984926E7 ; 19754.000000000004
84 ; 109027.66244834683 ; 179219.07955481592 ; 6753915.698850463 ; 1.0873699193166193E7 ; 19992.000000000004
85 ; 109461.52943633037 ; 180537.1598196857 ; 6862943.36129881 ; 1.105291827272101E7 ; 20230.000000000004
86 ; 109822.62302014326 ; 181854.68201039959 ; 6972404.89073514 ; 1.1233455432540694E7 ; 20468.000000000004
87 ; 109930.10811573201 ; 183171.5668166772 ; 7082227.513755283 ; 1.1415310114551093E7 ; 20706.000000000004
88 ; 109779.5867728465 ; 184487.7374355423 ; 7192157.621871015 ; 1.159848168136777E7 ; 20944.000000000004
89 ; 109484.45506716304 ; 185803.1194331876 ; 7301937.208643861 ; 1.1782969418803312E7 ; 21182.000000000004
90 ; 109540.26382422533 ; 187117.6406158738 ; 7411421.663711024 ; 1.1968772538236499E7 ; 21420.000000000004
91 ; 109712.68040010649 ; 188431.23090920146 ; 7520961.92753525 ; 1.2155890178852372E7 ; 21658.000000000004
92 ; 109248.88157779418 ; 189743.82224514484 ; 7630674.607935356 ; 1.2344321409761574E7 ; 21896.000000000004
93 ; 109614.10410249616 ; 191055.34845628744 ; 7739923.48951315 ; 1.253406523200672E7 ; 22134.000000000004
94 ; 109329.44345893725 ; 192365.74517674252 ; 7849537.5936156465 ; 1.2725120580463007E7 ; 22372.000000000004
95 ; 109071.44029089011 ; 193674.94974928457 ; 7958867.037074584 ; 1.2917486325639749E7 ; 22610.000000000004
96 ; 108813.49699310065 ; 194982.90113825176 ; 8067938.477365473 ; 1.3111161275389034E7 ; 22848.000000000004
97 ; 108938.12054620653 ; 196289.53984781753 ; 8176751.974358574 ; 1.3306144176527286E7 ; 23086.000000000004
98 ; 108130.85177189637 ; 197594.80784525716 ; 8285690.09490478 ; 1.3502433716375103E7 ; 23324.000000000004
99 ; 108485.95693671037 ; 198898.64848886608 ; 8393820.946676677 ; 1.370002852422036E7 ; 23562.000000000004
100 ; 107908.48282974146 ; 200201.00646021214 ; 8502306.903613387 ; 1.3898927172709227E7 ; 23800.000000000004
101 ; 107614.17207783251 ; 201501.82770042805 ; 8610215.386443129 ; 1.4099128179169439E7 ; 24038.000000000004
102 ; 107588.86472063769 ; 202801.05935027203 ; 8717829.558520962 ; 1.4300630006869867E7 ; 24276.000000000004
103 ; 107061.51008983246 ; 204098.6496937063 ; 8825418.423241599 ; 1.450343106622014E7 ; 24514.000000000004
104 ; 106483.1649195531 ; 205394.54810475928 ; 8932479.933331432 ; 1.4707529715913847E7 ; 24752.000000000004
105 ; 106501.65587004862 ; 206688.70499745721 ; 9038963.098250985 ; 1.4912924264018606E7 ; 24990.000000000004
106 ; 106093.96273948028 ; 207981.07177862476 ; 9145464.754121033 ; 1.5119612969016064E7 ; 25228.000000000004
107 ; 105927.83013683124 ; 209271.6008033689 ; 9251558.716860514 ; 1.532759404079469E7 ; 25466.000000000004
108 ; 105429.37498477181 ; 210560.24533307468 ; 9357486.546997346 ; 1.5536865641598059E7 ; 25704.000000000004
109 ; 105069.7825036879 ; 211846.95949575258 ; 9462915.921982117 ; 1.5747425886931134E7 ; 25942.000000000004
110 ; 104165.14752033813 ; 213131.69824858912 ; 9567985.704485806 ; 1.5959272846426887E7 ; 26180.000000000004
111 ; 104238.24151722035 ; 214414.41734256325 ; 9672150.852006143 ; 1.6172404544675477E7 ; 26418.000000000004
112 ; 103340.87494872336 ; 215695.0732889991 ; 9776389.093523363 ; 1.6386818962018041E7 ; 26656.000000000004
113 ; 102732.47417731993 ; 216973.62332793677 ; 9879729.968472086 ; 1.660251403530704E7 ; 26894.000000000004
114 ; 102191.99597404848 ; 218250.02539820885 ; 9982462.442649405 ; 1.6819487658634976E7 ; 27132.000000000004
115 ; 101607.16484239518 ; 219524.23810912008 ; 1.0084654438623454E7 ; 1.7037737684033185E7 ; 27370.000000000004
116 ; 100887.45730837599 ; 220796.22071363265 ; 1.018626160346585E7 ; 1.7257261922142304E7 ; 27608.000000000004
117 ; 100575.2991957998 ; 222065.9330829677 ; 1.0287149060774226E7 ; 1.747805814285594E7 ; 27846.000000000004
118 ; 99931.9013468337 ; 223333.33568253816 ; 1.0387724359970026E7 ; 1.7700124075938907E7 ; 28084.000000000004
119 ; 99503.61199082478 ; 224598.3895491356 ; 1.048765626131686E7 ; 1.7923457411621444E7 ; 28322.000000000004
120 ; 98975.30634285869 ; 225861.05626929642 ; 1.0587159873307684E7 ; 1.814805580117058E7 ; 28560.000000000004
121 ; 98308.7723474447 ; 227121.2979587799 ; 1.0686135179650543E7 ; 1.8373916857439876E7 ; 28798.000000000004
122 ; 97079.64555119486 ; 228379.0772430937 ; 1.0784443951997988E7 ; 1.8601038155398656E7 ; 29036.000000000004
123 ; 96332.70283611161 ; 229634.35723900635 ; 1.0881523597549183E7 ; 1.882941723264175E7 ; 29274.000000000004
124 ; 95850.33193232105 ; 230887.10153699177 ; 1.0977856300385294E7 ; 1.9059051589880757E7 ; 29512.000000000004
125 ; 95009.93782673143 ; 232137.27418455193 ; 1.1073706632317616E7 ; 1.928993869141775E7 ; 29750.000000000004
126 ; 94421.22548727985 ; 233384.83967036972 ; 1.1168716570144348E7 ; 1.95220759656023E7 ; 29988.000000000004
127 ; 92716.79845480194 ; 234629.76290924472 ; 1.1263137795631628E7 ; 1.9755460805272672E7 ; 30226.000000000004
128 ; 92479.99384879544 ; 235872.00922776974 ; 1.1355854594086431E7 ; 1.9990090568181917E7 ; 30464.000000000004
129 ; 91523.93163598923 ; 237111.54435070674 ; 1.1448334587935226E7 ; 2.022596257740969E7 ; 30702.000000000004
130 ; 90918.97925421207 ; 238348.334388024 ; 1.1539858519571215E7 ; 2.0463074121760394E7 ; 30940.000000000004
131 ; 89437.15747668059 ; 239582.3458225598 ; 1.1630777498825427E7 ; 2.070142245614842E7 ; 31178.000000000004
132 ; 88507.31333742074 ; 240813.54549827756 ; 1.1720214656302107E7 ; 2.094100480197098E7 ; 31416.000000000004
133 ; 88367.28177516742 ; 242041.9006090822 ; 1.1808721969639529E7 ; 2.118181834746926E7 ; 31654.000000000004
134 ; 87208.0640472789 ; 243267.3786881668 ; 1.1897089251414696E7 ; 2.1423860248078343E7 ; 31892.000000000004
135 ; 85832.3822271425 ; 244489.9475978629 ; 1.1984297315461975E7 ; 2.166712762676651E7 ; 32130.000000000004
136 ; 84955.74902607828 ; 245709.57551996718 ; 1.2070129697689118E7 ; 2.191161757436437E7 ; 32368.000000000004
137 ; 83964.96908832062 ; 246926.23094652 ; 1.2155085446715197E7 ; 2.215732714988434E7 ; 32606.000000000004
138 ; 82466.57796710302 ; 248139.88267101295 ; 1.2239050415803518E7 ; 2.2404253380830858E7 ; 32844.00000000001
139 ; 81902.96397495121 ; 249350.49978000298 ; 1.2321516993770622E7 ; 2.265239326350187E7 ; 33082.00000000001
140 ; 80469.24767334727 ; 250558.05164511254 ; 1.2403419957745573E7 ; 2.2901743763281874E7 ; 33320.00000000001
141 ; 79220.66723947866 ; 251762.50791539624 ; 1.248388920541892E7 ; 2.3152301814926986E7 ; 33558.00000000001
142 ; 78002.89881976222 ; 252963.83851005553 ; 1.2563109872658398E7 ; 2.3404064322842382E7 ; 33796.00000000001
143 ; 76987.3462217325 ; 254162.0136114846 ; 1.264111277147816E7 ; 2.3657028161352437E7 ; 34034.00000000001
144 ; 76293.44636956228 ; 255357.00365862998 ; 1.2718100117699891E7 ; 2.391119017496392E7 ; 34272.00000000001
145 ; 75777.21228715344 ; 256548.77934064943 ; 1.2794393564069454E7 ; 2.416654717862255E7 ; 34510.00000000001
146 ; 75550.0606322435 ; 257737.31159085484 ; 1.2870170776356608E7 ; 2.4423095957963202E7 ; 34748.00000000001
147 ; 75295.4945911189 ; 258922.57158092558 ; 1.2945720836988851E7 ; 2.4680833269554056E7 ; 34986.00000000001
148 ; 74963.95503211318 ; 260104.5307153795 ; 1.302101633157997E7 ; 2.493975584113498E7 ; 35224.00000000001
149 ; 74744.09395517956 ; 261283.1606262883 ; 1.3095980286612084E7 ; 2.519986037185036E7 ; 35462.00000000001
150 ; 74335.94720515813 ; 262458.4331682265 ; 1.3170724380567264E7 ; 2.546114353247665E7 ; 35700.00000000001
151 ; 73916.38023150961 ; 263630.3204134427 ; 1.3245060327772422E7 ; 2.5723601965644874E7 ; 35938.00000000001
152 ; 73424.71379586402 ; 264798.7946472421 ; 1.331897670800393E7 ; 2.5987232286058318E7 ; 36176.00000000001
153 ; 73435.97014837357 ; 265963.8283635715 ; 1.3392401421799794E7 ; 2.625203108070556E7 ; 36414.00000000001
154 ; 73412.77612806395 ; 267125.39426079567 ; 1.3465837391948167E7 ; 2.6517994909069132E7 ; 36652.00000000001
155 ; 72846.39064259717 ; 268283.46523765806 ; 1.3539250168076232E7 ; 2.6785120303329926E7 ; 36890.00000000001
156 ; 72484.16414880256 ; 269438.01438941614 ; 1.3612096558718828E7 ; 2.7053403768567584E7 ; 37128.00000000001
157 ; 72404.83885169511 ; 270589.0150041434 ; 1.368458072286763E7 ; 2.7322841782957E7 ; 37366.00000000001
158 ; 71925.99610311542 ; 271736.44055919105 ; 1.3756985561719326E7 ; 2.7593430797961142E7 ; 37604.00000000001
159 ; 71620.83265123819 ; 272880.264717802 ; 1.3828911557822442E7 ; 2.786516723852033E7 ; 37842.00000000001
160 ; 70804.71506791127 ; 274020.4613258695 ; 1.390053239047368E7 ; 2.8138047503238134E7 ; 38080.00000000001
161 ; 70763.83652197092 ; 275157.0044088351 ; 1.3971337105541592E7 ; 2.8412067964564003E7 ; 38318.00000000001
162 ; 70510.54620696686 ; 276289.86816871894 ; 1.4042100942063563E7 ; 2.868722496897284E7 ; 38556.00000000001
163 ; 69909.43373568718 ; 277419.02698127675 ; 1.4112611488270529E7 ; 2.896351483714156E7 ; 38794.00000000001
164 ; 69615.43292642555 ; 278544.45539327787 ; 1.4182520922006216E7 ; 2.9240933864122834E7 ; 39032.00000000001
165 ; 69440.21451303306 ; 279666.12811989925 ; 1.4252136354932642E7 ; 2.951947831951611E7 ; 39270.00000000001
166 ; 69191.09893079357 ; 280784.0200422299 ; 1.4321576569445675E7 ; 2.9799144447636012E7 ; 39508.00000000001
167 ; 68469.87512149446 ; 281898.1062048817 ; 1.4390767668376468E7 ; 3.007992846767824E7 ; 39746.00000000001
168 ; 67848.02154764807 ; 283008.36181370117 ; 1.4459237543497963E7 ; 3.0361826573883124E7 ; 39984.00000000001
169 ; 67186.3931284872 ; 284114.7622335782 ; 1.452708556504561E7 ; 3.0644834935696825E7 ; 40222.00000000001
170 ; 67104.75144846822 ; 285217.28298634803 ; 1.4594271958174096E7 ; 3.0928949697930403E7 ; 40460.00000000001
171 ; 66479.36677931061 ; 286315.8997487817 ; 1.4661376709622564E7 ; 3.121416698091675E7 ; 40698.00000000001
172 ; 66447.73177648867 ; 287410.5883506621 ; 1.4727856076401874E7 ; 3.1500482880665533E7 ; 40936.00000000001
173 ; 66253.93278375245 ; 288501.3247729407 ; 1.4794303808178363E7 ; 3.1787893469016194E7 ; 41174.00000000001
174 ; 66596.86981396668 ; 289588.0851459737 ; 1.4860557740962116E7 ; 3.2076394793789133E7 ; 41412.00000000001
175 ; 66603.61223082972 ; 290670.84574783157 ; 1.4927154610776084E7 ; 3.2365982878935106E7 ; 41650.00000000001
176 ; 66842.6933444559 ; 291749.58300268167 ; 1.4993758223006913E7 ; 3.265665372468294E7 ; 41888.00000000001
177 ; 67365.604750409 ; 292824.27347923873 ; 1.5060600916351369E7 ; 3.294840330768562E7 ; 42126.00000000001
178 ; 67044.7597742928 ; 293894.89388928167 ; 1.5127966521101778E7 ; 3.324122758116486E7 ; 42364.00000000001
179 ; 67296.68608471795 ; 294961.4210862334 ; 1.519501128087607E7 ; 3.353512247505414E7 ; 42602.00000000001
180 ; 67569.83647043735 ; 296023.83206380194 ; 1.5262307966960788E7 ; 3.3830083896140374E7 ; 42840.00000000001
181 ; 67705.59155979028 ; 297082.10395467887 ; 1.5329877803431226E7 ; 3.4126107728204176E7 ; 43078.00000000001
