CSV File for the Network on Day 133
1 - Minute m 
2 - Power Consumed at minute m 
3 - Power Produced at minute m 
4 - Energy Consumed since the beginning of the day 
5 - Energy Produced since the beginning of the day 
6 - Energy Lost since the beginning of the day 
 
No Production city : 2, Producer : 1
No Production city : 4, Producer : 1
No Production city : 4, Producer : 1
 
0 ; 57285.20607998708 ; 170099.31421042286 ; 0.0 ; 0.0 ; 0.0
1 ; 57918.80660513149 ; 169758.4173850917 ; 57285.20607998708 ; 170099.31421042286 ; 238.00000000000003
2 ; 59189.390379656696 ; 169452.34341625433 ; 115204.01268511856 ; 339857.7315955146 ; 476.00000000000006
3 ; 60509.374003426274 ; 169181.43826345814 ; 174393.40306477525 ; 509310.0750117689 ; 714.0000000000001
4 ; 61653.07119603976 ; 168946.0116462022 ; 234902.7770682015 ; 678491.513275227 ; 952.0000000000001
5 ; 62685.369920259036 ; 168746.33543707855 ; 296555.84826424124 ; 847437.5249214292 ; 1190.0000000000002
6 ; 63641.018310590036 ; 168582.64222610884 ; 359241.2181845003 ; 1016183.8603585078 ; 1428.0000000000002
7 ; 64355.96171771746 ; 168455.1240737642 ; 422882.2364950903 ; 1184766.5025846167 ; 1666.0000000000002
8 ; 65561.10936400252 ; 168363.9314681866 ; 487238.19821280777 ; 1353221.626658381 ; 1904.0000000000002
9 ; 66416.69575448886 ; 168309.17249982615 ; 552799.3075768102 ; 1521585.5581265676 ; 2142.0000000000005
10 ; 67986.57612263376 ; 168290.91226409865 ; 619216.003331299 ; 1689894.7306263938 ; 2380.0000000000005
11 ; 68416.10904462135 ; 168309.17249982615 ; 687202.5794539328 ; 1858185.6428904925 ; 2618.0000000000005
12 ; 69480.32410367017 ; 168363.9314681866 ; 755618.6884985542 ; 2026494.8153903186 ; 2856.0000000000005
13 ; 70646.82898552631 ; 168455.1240737642 ; 825099.0126022244 ; 2194858.746858505 ; 3094.0000000000005
14 ; 71670.0640940178 ; 168582.64222610884 ; 895745.8415877507 ; 2363313.8709322694 ; 3332.0000000000005
15 ; 72302.81503564036 ; 168746.33543707855 ; 967415.9056817685 ; 2531896.513158378 ; 3570.0000000000005
16 ; 73544.49831624945 ; 168946.0116462022 ; 1039718.7207174089 ; 2700642.8485954567 ; 3808.0000000000005
17 ; 74331.58996745793 ; 169181.43826345814 ; 1113263.2190336583 ; 2869588.860241659 ; 4046.0000000000005
18 ; 74974.92273701732 ; 169452.34341625444 ; 1187594.809001116 ; 3038770.298505117 ; 4284.000000000001
19 ; 75566.743880393 ; 169758.4173850917 ; 1262569.7317381334 ; 3208222.6419213717 ; 4522.000000000001
20 ; 76840.76157847201 ; 170099.31421042286 ; 1338136.4756185263 ; 3377981.059306463 ; 4760.000000000001
21 ; 77514.86843926855 ; 170474.65345163355 ; 1414977.2371969984 ; 3548080.373516886 ; 4998.000000000001
22 ; 78495.05896520491 ; 170884.02207786893 ; 1492492.105636267 ; 3718555.0269685197 ; 5236.000000000001
23 ; 79094.74580424173 ; 171326.97646963794 ; 1570987.164601472 ; 3889439.049046389 ; 5474.000000000001
24 ; 79653.7821864834 ; 171803.04450972663 ; 1650081.9104057136 ; 4060766.0255160267 ; 5712.000000000001
25 ; 81041.64671739616 ; 172311.7277419396 ; 1729735.692592197 ; 4232569.070025753 ; 5950.000000000001
26 ; 81743.59637207049 ; 172852.50357652904 ; 1810777.3393095932 ; 4404880.797767693 ; 6188.000000000001
27 ; 82408.96836886276 ; 173424.8275218432 ; 1892520.9356816637 ; 4577733.301344222 ; 6426.000000000001
28 ; 83080.72809492196 ; 174028.13542267904 ; 1974929.9040505264 ; 4751158.128866065 ; 6664.000000000001
29 ; 83941.24844097326 ; 174661.84568702657 ; 2058010.6321454484 ; 4925186.264288744 ; 6902.000000000001
30 ; 84487.02151610333 ; 175325.36148428853 ; 2141951.8805864216 ; 5099848.10997577 ; 7140.000000000001
31 ; 85072.37217264922 ; 176018.07289961085 ; 2226438.902102525 ; 5275173.471460058 ; 7378.000000000001
32 ; 86266.94974061557 ; 176739.3590306152 ; 2311511.274275174 ; 5451191.544359669 ; 7616.000000000001
33 ; 86695.2775092659 ; 177488.59001454234 ; 2397778.2240157896 ; 5627930.903390285 ; 7854.000000000001
34 ; 87181.73512462538 ; 178265.1289755601 ; 2484473.5015250556 ; 5805419.493404827 ; 8092.000000000001
35 ; 88065.16161720922 ; 179068.33388371387 ; 2571655.236649681 ; 5983684.622380387 ; 8330.000000000002
36 ; 88665.1338993598 ; 179897.55931868136 ; 2659720.39826689 ; 6162752.956264101 ; 8568.000000000002
37 ; 89191.13436083667 ; 180752.1581331037 ; 2748385.53216625 ; 6342650.515582782 ; 8806.000000000002
38 ; 89790.76988761887 ; 181631.4830117806 ; 2837576.666527087 ; 6523402.673715886 ; 9044.000000000002
39 ; 90773.22296367589 ; 182534.88792442498 ; 2927367.4364147056 ; 6705034.156727666 ; 9282.000000000002
40 ; 91361.55601236848 ; 183461.7294709544 ; 3018140.6593783814 ; 6887569.044652091 ; 9520.000000000002
41 ; 92023.27249739267 ; 184411.36811945337 ; 3109502.2153907497 ; 7071030.774123046 ; 9758.000000000002
42 ; 92258.93481396795 ; 185383.16933796066 ; 3201525.4878881425 ; 7255442.142242499 ; 9996.000000000002
43 ; 92804.61574046176 ; 186376.50462212358 ; 3293784.4227021104 ; 7440825.31158046 ; 10234.000000000002
44 ; 93713.28303813271 ; 187390.75242151722 ; 3386589.038442572 ; 7627201.816202583 ; 10472.000000000002
45 ; 93648.60832375276 ; 188425.29896805988 ; 3480302.321480705 ; 7814592.5686241 ; 10710.000000000002
46 ; 94341.40398899546 ; 189479.53901046515 ; 3573950.929804458 ; 8003017.86759216 ; 10948.000000000002
47 ; 94796.91610518206 ; 190552.87645907447 ; 3668292.3337934534 ; 8192497.406602625 ; 11186.000000000002
48 ; 95268.90086539187 ; 191644.7249457119 ; 3763089.2498986353 ; 8383050.283061699 ; 11424.000000000002
49 ; 95613.68583604881 ; 192754.5083034122 ; 3858358.150764027 ; 8574695.00800741 ; 11662.000000000002
50 ; 96266.0978429932 ; 193881.66097099707 ; 3953971.836600076 ; 8767449.516310822 ; 11900.000000000002
51 ; 97146.04464891256 ; 195025.62832753005 ; 4050237.934443069 ; 8961331.17728182 ; 12138.000000000002
52 ; 97381.24927291146 ; 196185.86696166976 ; 4147383.979091982 ; 9156356.80560935 ; 12376.000000000002
53 ; 97631.46311847998 ; 197361.84488088157 ; 4244765.228364893 ; 9352542.672571018 ; 12614.000000000002
54 ; 98123.99201771051 ; 198553.041665358 ; 4342396.691483373 ; 9549904.5174519 ; 12852.000000000002
55 ; 98249.81116286709 ; 199758.94857135875 ; 4440520.683501083 ; 9748457.559117258 ; 13090.000000000002
56 ; 98616.23491912542 ; 200979.06858850716 ; 4538770.49466395 ; 9948216.507688615 ; 13328.000000000002
57 ; 99172.80747891801 ; 202212.9164553851 ; 4637386.729583075 ; 1.0149195576277122E7 ; 13566.000000000002
58 ; 99513.22254912484 ; 203460.01863755763 ; 4736559.537061993 ; 1.0351408492732506E7 ; 13804.000000000002
59 ; 99734.15281134448 ; 204719.91327193694 ; 4836072.759611118 ; 1.0554868511370065E7 ; 14042.000000000002
60 ; 99858.2648679222 ; 205992.1500811635 ; 4935806.912422462 ; 1.0759588424642002E7 ; 14280.000000000002
61 ; 100368.79142238117 ; 207276.29026145022 ; 5035665.177290385 ; 1.0965580574723165E7 ; 14518.000000000002
62 ; 100938.13488894496 ; 208571.90634710435 ; 5136033.968712766 ; 1.1172856864984617E7 ; 14756.000000000002
63 ; 100731.92382058038 ; 209878.58205470938 ; 5236972.103601711 ; 1.138142877133172E7 ; 14994.000000000002
64 ; 101453.45135500704 ; 211195.91210972652 ; 5337704.027422291 ; 1.159130735338643E7 ; 15232.000000000002
65 ; 101255.79393775448 ; 212523.50205805618 ; 5439157.478777299 ; 1.1802503265496157E7 ; 15470.000000000002
66 ; 101979.05216736083 ; 213860.96806489147 ; 5540413.2727150535 ; 1.2015026767554212E7 ; 15708.000000000002
67 ; 101857.52891425305 ; 215207.93670299219 ; 5642392.324882414 ; 1.2228887735619104E7 ; 15946.000000000002
68 ; 101909.75218318129 ; 216564.0447323225 ; 5744249.853796667 ; 1.2444095672322096E7 ; 16184.000000000002
69 ; 102443.71822096429 ; 217928.9388728086 ; 5846159.605979849 ; 1.266065971705442E7 ; 16422.000000000004
70 ; 102618.19114659222 ; 219302.27557180886 ; 5948603.324200813 ; 1.2878588655927228E7 ; 16660.000000000004
71 ; 102605.51983293927 ; 220683.72076772776 ; 6051221.515347405 ; 1.3097890931499036E7 ; 16898.000000000004
72 ; 102784.55527051074 ; 222072.94965105545 ; 6153827.035180344 ; 1.3318574652266763E7 ; 17136.000000000004
73 ; 103185.86141087294 ; 223469.64642398083 ; 6256611.590450855 ; 1.3540647601917818E7 ; 17374.000000000004
74 ; 102896.34972841591 ; 224873.5040595957 ; 6359797.451861728 ; 1.3764117248341799E7 ; 17612.000000000004
75 ; 103489.83735686076 ; 226284.22406159068 ; 6462693.801590144 ; 1.3988990752401395E7 ; 17850.000000000004
76 ; 103724.81312133586 ; 227701.51622523658 ; 6566183.638947004 ; 1.4215274976462986E7 ; 18088.000000000004
77 ; 102985.94449218539 ; 229125.09840034525 ; 6669908.45206834 ; 1.4442976492688224E7 ; 18326.000000000004
78 ; 103687.1568650122 ; 230554.69625681336 ; 6772894.3965605255 ; 1.4672101591088569E7 ; 18564.000000000004
79 ; 103978.21950188842 ; 231990.04305326927 ; 6876581.553425537 ; 1.4902656287345381E7 ; 18802.000000000004
80 ; 103122.0648963736 ; 233430.87940927153 ; 6980559.772927426 ; 1.513464633039865E7 ; 19040.000000000004
81 ; 103399.3180709706 ; 234876.95308143407 ; 7083681.8378238 ; 1.5368077209807923E7 ; 19278.000000000004
82 ; 103091.3984190987 ; 236328.01874379814 ; 7187081.15589477 ; 1.5602954162889358E7 ; 19516.000000000004
83 ; 103503.10601806897 ; 237783.83777271124 ; 7290172.554313869 ; 1.5839282181633156E7 ; 19754.000000000004
84 ; 103298.5483016365 ; 239244.17803642503 ; 7393675.660331938 ; 1.6077066019405868E7 ; 19992.000000000004
85 ; 103987.18885684306 ; 240708.81368958106 ; 7496974.208633575 ; 1.6316310197442293E7 ; 20230.000000000004
86 ; 103533.47973529372 ; 242177.52497271175 ; 7600961.397490418 ; 1.6557019011131873E7 ; 20468.000000000004
87 ; 103583.69499808695 ; 243650.0980168499 ; 7704494.877225711 ; 1.6799196536104586E7 ; 20706.000000000004
88 ; 103204.98347672568 ; 245126.32465330767 ; 7808078.572223798 ; 1.7042846634121437E7 ; 20944.000000000004
89 ; 103794.97204117377 ; 246606.00222866074 ; 7911283.555700524 ; 1.7287972958774745E7 ; 21182.000000000004
90 ; 103363.61869858333 ; 248088.9334249457 ; 8015078.527741698 ; 1.7534578961003408E7 ; 21420.000000000004
91 ; 103094.89275551785 ; 249574.9260850596 ; 8118442.146440281 ; 1.7782667894428354E7 ; 21658.000000000004
92 ; 102840.47846734172 ; 251063.7930433331 ; 8221537.039195798 ; 1.8032242820513412E7 ; 21896.000000000004
93 ; 102734.60183030806 ; 252555.3519612291 ; 8324377.51766314 ; 1.8283306613556746E7 ; 22134.000000000004
94 ; 102658.82645405529 ; 254049.42516810866 ; 8427112.119493447 ; 1.8535861965517975E7 ; 22372.000000000004
95 ; 102626.79134145124 ; 255545.83950699162 ; 8529770.945947502 ; 1.8789911390686084E7 ; 22610.000000000004
96 ; 102244.53976082726 ; 257044.4261852309 ; 8632397.737288954 ; 1.9045457230193075E7 ; 22848.000000000004
97 ; 102259.28695687072 ; 258545.02063001023 ; 8734642.277049782 ; 1.9302501656378306E7 ; 23086.000000000004
98 ; 102249.02966075281 ; 260047.4623485683 ; 8836901.564006653 ; 1.9561046677008316E7 ; 23324.000000000004
99 ; 101893.69927322578 ; 261551.59479304712 ; 8939150.593667405 ; 1.9821094139356885E7 ; 23562.000000000004
100 ; 101720.51690327 ; 263057.26522985694 ; 9041044.29294063 ; 2.0082645734149933E7 ; 23800.000000000004
101 ; 101241.5528876424 ; 264564.3246134482 ; 9142764.8098439 ; 2.034570299937979E7 ; 24038.000000000004
102 ; 100585.86720713909 ; 266072.6274643761 ; 9244006.362731542 ; 2.061026732399324E7 ; 24276.000000000004
103 ; 101017.02346081141 ; 267582.03175154445 ; 9344592.229938682 ; 2.0876339951457616E7 ; 24514.000000000004
104 ; 100375.47047083871 ; 269092.3987785113 ; 9445609.253399493 ; 2.114392198320916E7 ; 24752.000000000004
105 ; 100427.97236904103 ; 270603.5930737414 ; 9545984.723870331 ; 2.1413014381987672E7 ; 24990.000000000004
106 ; 99672.26919199739 ; 272115.4822846878 ; 9646412.696239373 ; 2.1683617975061413E7 ; 25228.000000000004
107 ; 99744.24828950304 ; 273627.93707558815 ; 9746084.96543137 ; 2.19557334573461E7 ; 25466.000000000004
108 ; 99001.21200744774 ; 275140.8310288594 ; 9845829.213720873 ; 2.222936139442169E7 ; 25704.000000000004
109 ; 98988.396360655 ; 276654.04054997896 ; 9944830.425728321 ; 2.250450222545055E7 ; 25942.000000000004
110 ; 98708.65448873179 ; 278167.44477573794 ; 1.0043818822088975E7 ; 2.2781156266000528E7 ; 26180.000000000004
111 ; 98188.80577298648 ; 279680.9254857592 ; 1.0142527476577707E7 ; 2.3059323710776266E7 ; 26418.000000000004
112 ; 97645.94337521918 ; 281194.36701716937 ; 1.0240716282350693E7 ; 2.3339004636262026E7 ; 26656.000000000004
113 ; 97042.8339190011 ; 282707.65618231986 ; 1.0338362225725912E7 ; 2.3620199003279194E7 ; 26894.000000000004
114 ; 96976.4175478944 ; 284220.68218945386 ; 1.0435405059644913E7 ; 2.3902906659461513E7 ; 27132.000000000004
115 ; 97098.36548951658 ; 285733.3365662166 ; 1.0532381477192808E7 ; 2.4187127341650967E7 ; 27370.000000000004
116 ; 96589.50671026474 ; 287245.5130859112 ; 1.0629479842682324E7 ; 2.4472860678217184E7 ; 27608.000000000004
117 ; 96407.24640331797 ; 288757.10769640363 ; 1.072606934939259E7 ; 2.4760106191303097E7 ; 27846.000000000004
118 ; 95047.28527681553 ; 290268.0184515827 ; 1.0822476595795907E7 ; 2.50488632989995E7 ; 28084.000000000004
119 ; 94639.73212101126 ; 291778.1454452855 ; 1.0917523881072722E7 ; 2.5339131317451082E7 ; 28322.000000000004
120 ; 94408.03169871349 ; 293287.3907475981 ; 1.1012163613193734E7 ; 2.563090946289637E7 ; 28560.000000000004
121 ; 93759.26474214828 ; 294795.658343448 ; 1.1106571644892447E7 ; 2.592419685364397E7 ; 28798.000000000004
122 ; 93526.56572329292 ; 296302.85407340433 ; 1.1200330909634596E7 ; 2.6218992511987418E7 ; 29036.000000000004
123 ; 92569.30286229342 ; 297808.88557660463 ; 1.1293857475357888E7 ; 2.6515295366060823E7 ; 29274.000000000004
124 ; 92371.66468898537 ; 299313.66223573283 ; 1.1386426778220182E7 ; 2.681310425163743E7 ; 29512.000000000004
125 ; 92201.29909476623 ; 300817.09512397123 ; 1.1478798442909168E7 ; 2.7112417913873162E7 ; 29750.000000000004
126 ; 91105.92947034823 ; 302319.09695385455 ; 1.1570999742003934E7 ; 2.7413235008997135E7 ; 29988.000000000004
127 ; 90699.96180030284 ; 303819.58202795655 ; 1.1662105671474284E7 ; 2.771555410595099E7 ; 30226.000000000004
128 ; 90027.8494750574 ; 305318.4661913401 ; 1.1752805633274587E7 ; 2.8019373687978946E7 ; 30464.000000000004
129 ; 89688.31707031696 ; 306815.666785707 ; 1.1842833482749645E7 ; 2.8324692154170286E7 ; 30702.000000000004
130 ; 88368.82350700934 ; 308311.1026051829 ; 1.1932521799819961E7 ; 2.863150782095599E7 ; 30940.000000000004
131 ; 88432.15412374477 ; 309804.6938536779 ; 1.202089062332697E7 ; 2.8939818923561174E7 ; 31178.000000000004
132 ; 87788.29919826252 ; 311296.3621037635 ; 1.2109322777450714E7 ; 2.924962361741485E7 ; 31416.000000000004
133 ; 87070.24946741007 ; 312786.0302570094 ; 1.2197111076648977E7 ; 2.9560919979518615E7 ; 31654.000000000004
134 ; 86071.15610629131 ; 314273.62250572577 ; 1.2284181326116387E7 ; 2.9873706009775624E7 ; 31892.000000000004
135 ; 85412.06819955588 ; 315759.0642960596 ; 1.2370252482222678E7 ; 3.0187979632281348E7 ; 32130.000000000004
136 ; 85146.16397070426 ; 317242.2822923926 ; 1.2455664550422234E7 ; 3.0503738696577407E7 ; 32368.000000000004
137 ; 84214.10733938176 ; 318723.20434299443 ; 1.254081071439294E7 ; 3.08209809788698E7 ; 32606.000000000004
138 ; 83423.77424658049 ; 320201.75944688235 ; 1.2625024821732322E7 ; 3.1139704183212794E7 ; 32844.00000000001
139 ; 82642.6264030243 ; 321677.8777218446 ; 1.2708448595978903E7 ; 3.1459905942659676E7 ; 33082.00000000001
140 ; 82090.73894448148 ; 323151.49037358153 ; 1.2791091222381927E7 ; 3.1781583820381522E7 ; 33320.00000000001
141 ; 81279.95923631947 ; 324622.5296659254 ; 1.287318196132641E7 ; 3.2104735310755104E7 ; 33558.00000000001
142 ; 80456.59954132192 ; 326090.9288920971 ; 1.295446192056273E7 ; 3.242935784042103E7 ; 33796.00000000001
143 ; 79795.02805087791 ; 327556.62234696205 ; 1.303491852010405E7 ; 3.2755448769313127E7 ; 34034.00000000001
144 ; 78961.12500024143 ; 329019.5453002477 ; 1.3114713548154928E7 ; 3.308300539166009E7 ; 34272.00000000001
145 ; 78578.22666863244 ; 330479.6339706874 ; 1.319367467315517E7 ; 3.341202493696034E7 ; 34510.00000000001
146 ; 78378.84304960855 ; 331936.8255010567 ; 1.3272252899823802E7 ; 3.3742504570931025E7 ; 34748.00000000001
147 ; 78197.00942746704 ; 333391.0579340676 ; 1.335063174287341E7 ; 3.407444139643208E7 ; 34986.00000000001
148 ; 77673.33661788724 ; 334842.2701890914 ; 1.3428828752300877E7 ; 3.440783245436615E7 ; 35224.00000000001
149 ; 77697.11985149873 ; 336290.40203967737 ; 1.3506502088918764E7 ; 3.474267472455524E7 ; 35462.00000000001
150 ; 77498.28258456594 ; 337735.39409183955 ; 1.3584199208770262E7 ; 3.5078965126594916E7 ; 35700.00000000001
151 ; 77298.81061690957 ; 339177.1877630829 ; 1.3661697491354829E7 ; 3.541670052068675E7 ; 35938.00000000001
152 ; 76855.84439755062 ; 340615.72526214167 ; 1.373899630197174E7 ; 3.575587770844983E7 ; 36176.00000000001
153 ; 77204.7560364631 ; 342050.94956940407 ; 1.381585214636929E7 ; 3.6096493433711976E7 ; 36414.00000000001
154 ; 76123.5178550607 ; 343482.8044179983 ; 1.3893056902405752E7 ; 3.643854438328138E7 ; 36652.00000000001
155 ; 75793.05112279768 ; 344911.2342755161 ; 1.3969180420260813E7 ; 3.678202718769938E7 ; 36890.00000000001
156 ; 75899.85146650113 ; 346336.1843263497 ; 1.404497347138361E7 ; 3.71269384219749E7 ; 37128.00000000001
157 ; 75472.17919822077 ; 347757.60045462125 ; 1.4120873322850112E7 ; 3.747327460630125E7 ; 37366.00000000001
158 ; 74950.52159566204 ; 349175.4292276823 ; 1.4196345502048332E7 ; 3.782103220675587E7 ; 37604.00000000001
159 ; 74590.17456260139 ; 350589.6178801637 ; 1.4271296023643995E7 ; 3.817020763598355E7 ; 37842.00000000001
160 ; 74702.78995432045 ; 352000.11429855507 ; 1.4345886198206596E7 ; 3.8520797253863715E7 ; 38080.00000000001
161 ; 74332.51134010617 ; 353406.86700629577 ; 1.4420588988160916E7 ; 3.887279736816227E7 ; 38318.00000000001
162 ; 73981.40702406687 ; 354809.8251493584 ; 1.4494921499501022E7 ; 3.922620423516856E7 ; 38556.00000000001
163 ; 73542.62095321252 ; 356208.93848230835 ; 1.4568902906525088E7 ; 3.958101406031792E7 ; 38794.00000000001
164 ; 73641.81437176849 ; 357604.15735482017 ; 1.4642445527478302E7 ; 3.9937222998800226E7 ; 39032.00000000001
165 ; 73186.92225033001 ; 358995.43269863754 ; 1.471608734185007E7 ; 4.029482715615504E7 ; 39270.00000000001
166 ; 72584.12433631136 ; 360382.7160149592 ; 1.47892742641004E7 ; 4.065382258885368E7 ; 39508.00000000001
167 ; 72053.9456497519 ; 361765.9593622358 ; 1.4861858388436712E7 ; 4.101420530486864E7 ; 39746.00000000001
168 ; 72414.56378661675 ; 363145.11534436425 ; 1.4933912334086465E7 ; 4.137597126423088E7 ; 39984.00000000001
169 ; 71722.97302358111 ; 364520.13709926454 ; 1.5006326897873081E7 ; 4.1739116379575245E7 ; 40222.00000000001
170 ; 71352.29024263975 ; 365890.97828782676 ; 1.5078049870896662E7 ; 4.210363651667451E7 ; 40460.00000000001
171 ; 70976.09775410783 ; 367257.5930832143 ; 1.5149402161139302E7 ; 4.2469527494962335E7 ; 40698.00000000001
172 ; 70686.05109194748 ; 368619.93616051134 ; 1.522037825889341E7 ; 4.283678508804555E7 ; 40936.00000000001
173 ; 70475.9178531158 ; 369977.9626867029 ; 1.5291064309985356E7 ; 4.3205405024206065E7 ; 41174.00000000001
174 ; 70817.71341964976 ; 371331.62831097574 ; 1.5361540227838472E7 ; 4.357538298689277E7 ; 41412.00000000001
175 ; 70827.40444948427 ; 372680.88915532856 ; 1.5432357941258121E7 ; 4.3946714615203746E7 ; 41650.00000000001
176 ; 70652.43032655561 ; 374025.70180548204 ; 1.5503185345707605E7 ; 4.4319395504359074E7 ; 41888.00000000001
177 ; 70921.86405429895 ; 375366.0233020769 ; 1.557383777603416E7 ; 4.4693421206164554E7 ; 42126.00000000001
178 ; 71019.68781861253 ; 376701.81113215163 ; 1.5644759640088458E7 ; 4.506878722946663E7 ; 42364.00000000001
179 ; 70819.90351885451 ; 378033.02322088974 ; 1.571577932790707E7 ; 4.544548904059878E7 ; 42602.00000000001
180 ; 71541.23485413229 ; 379359.6179236263 ; 1.5786599231425924E7 ; 4.582352206381967E7 ; 42840.00000000001
181 ; 70796.86428437124 ; 380681.55401810724 ; 1.5858140466280056E7 ; 4.6202881681743294E7 ; 43078.00000000001
