CSV File for the Network on Day 228
1 - Minute m 
2 - Power Consumed at minute m 
3 - Power Produced at minute m 
4 - Energy Consumed since the beginning of the day 
5 - Energy Produced since the beginning of the day 
6 - Energy Lost since the beginning of the day 
 
No Production city : 2, Producer : 1
No Production city : 4, Producer : 1
No Production city : 4, Producer : 1
 
0 ; 27506.652398244492 ; 86497.16816762883 ; 0.0 ; 0.0 ; 0.0
1 ; 29111.04553385642 ; 85422.8346331049 ; 27506.652398244492 ; 86497.16816762883 ; 238.00000000000003
2 ; 31073.67358283824 ; 84399.19347793628 ; 56617.69793210091 ; 171920.00280073372 ; 476.00000000000006
3 ; 32628.108741283635 ; 83436.89042578998 ; 87691.37151493915 ; 256319.19627867 ; 714.0000000000001
4 ; 34879.4536621614 ; 82548.78904576864 ; 120319.48025622279 ; 339756.08670446 ; 952.0000000000001
5 ; 35690.186914401005 ; 81750.1094050653 ; 155198.9339183842 ; 422304.87575022865 ; 1190.0000000000002
6 ; 37904.42200176972 ; 81058.25285410005 ; 190889.1208327852 ; 504054.98515529395 ; 1428.0000000000002
7 ; 39765.90044634258 ; 80492.07729615069 ; 228793.54283455492 ; 585113.238009394 ; 1666.0000000000002
8 ; 41175.11599401495 ; 80070.40163206037 ; 268559.4432808975 ; 665605.3153055448 ; 1904.0000000000002
9 ; 42939.32896756139 ; 79809.710179555 ; 309734.55927491246 ; 745675.7169376052 ; 2142.0000000000005
10 ; 44246.05779366485 ; 79721.441874007 ; 352673.8882424738 ; 825485.4271171602 ; 2380.0000000000005
11 ; 46106.60020611787 ; 79809.710179555 ; 396919.9460361387 ; 905206.8689911672 ; 2618.0000000000005
12 ; 47685.94875432139 ; 80070.40163206037 ; 443026.54624225653 ; 985016.5791707222 ; 2856.0000000000005
13 ; 49435.945746526595 ; 80492.07729615069 ; 490712.4949965779 ; 1065086.9808027826 ; 3094.0000000000005
14 ; 50411.27787127337 ; 81058.25285410005 ; 540148.4407431046 ; 1145579.0580989332 ; 3332.0000000000005
15 ; 52067.25113644564 ; 81750.1094050653 ; 590559.7186143779 ; 1226637.3109530332 ; 3570.0000000000005
16 ; 53219.9147733585 ; 82548.78904576864 ; 642626.9697508236 ; 1308387.4203580986 ; 3808.0000000000005
17 ; 54636.54550112001 ; 83436.89042578968 ; 695846.8845241821 ; 1390936.2094038671 ; 4046.0000000000005
18 ; 57356.2047644611 ; 84399.19347793628 ; 750483.4300253021 ; 1474373.0998296568 ; 4284.000000000001
19 ; 57861.95638137375 ; 85422.8346331049 ; 807839.6347897633 ; 1558772.293307593 ; 4522.000000000001
20 ; 59472.09690543824 ; 86497.16816762908 ; 865701.591171137 ; 1644195.127940698 ; 4760.000000000001
21 ; 60319.16380449047 ; 87613.4877179318 ; 925173.6880765753 ; 1730692.296108327 ; 4998.000000000001
22 ; 62090.333639532 ; 88764.71252803148 ; 985492.8518810658 ; 1818305.783826259 ; 5236.000000000001
23 ; 63636.13154725916 ; 89945.09135732104 ; 1047583.1855205977 ; 1907070.4963542905 ; 5474.000000000001
24 ; 64767.89034371005 ; 91149.94547621235 ; 1111219.317067857 ; 1997015.5877116115 ; 5712.000000000001
25 ; 65999.45852878809 ; 92375.45545674131 ; 1175987.207411567 ; 2088165.5331878238 ; 5950.000000000001
26 ; 67293.86504854952 ; 93618.48875237134 ; 1241986.665940355 ; 2180540.988644565 ; 6188.000000000001
27 ; 68605.05137523505 ; 94876.46222433698 ; 1309280.5309889046 ; 2274159.477396936 ; 6426.000000000001
28 ; 69594.83837376641 ; 96147.23331524311 ; 1377885.5823641396 ; 2369035.939621273 ; 6664.000000000001
29 ; 70881.02802559856 ; 97429.01413376967 ; 1447480.4207379061 ; 2465183.172936516 ; 6902.000000000001
30 ; 72134.87131993852 ; 98720.30361362417 ; 1518361.4487635046 ; 2562612.1870702854 ; 7140.000000000001
31 ; 73523.2343380419 ; 100019.83383109 ; 1590496.320083443 ; 2661332.4906839095 ; 7378.000000000001
32 ; 74572.10429096612 ; 101326.52738283858 ; 1664019.554421485 ; 2761352.3245149995 ; 7616.000000000001
33 ; 75563.98710830379 ; 102639.4634034286 ; 1738591.658712451 ; 2862678.851897838 ; 7854.000000000001
34 ; 76637.86723021351 ; 103957.85034387976 ; 1814155.6458207548 ; 2965318.3153012665 ; 8092.000000000001
35 ; 77651.95017906757 ; 105281.00405722822 ; 1890793.5130509683 ; 3069276.1656451463 ; 8330.000000000002
36 ; 78602.34572221094 ; 106608.33006570145 ; 1968445.463230036 ; 3174557.1697023744 ; 8568.000000000002
37 ; 80306.46636795477 ; 107939.30913715814 ; 2047047.8089522468 ; 3281165.499768076 ; 8806.000000000002
38 ; 80826.15598619943 ; 109273.48549268408 ; 2127354.2753202016 ; 3389104.808905234 ; 9044.000000000002
39 ; 81966.93284935386 ; 110610.45711636439 ; 2208180.4313064013 ; 3498378.294397918 ; 9282.000000000002
40 ; 82895.74756429438 ; 111949.86775289041 ; 2290147.364155755 ; 3608988.7515142825 ; 9520.000000000002
41 ; 84059.43693350986 ; 113291.4002670366 ; 2373043.1117200493 ; 3720938.619267173 ; 9758.000000000002
42 ; 85086.83989818786 ; 114634.77110737991 ; 2457102.5486535593 ; 3834230.0195342097 ; 9996.000000000002
43 ; 85937.30820152447 ; 115979.72566969493 ; 2542189.388551747 ; 3948864.7906415896 ; 10234.000000000002
44 ; 86669.20729518693 ; 117326.03439681292 ; 2628126.6967532714 ; 4064844.5163112846 ; 10472.000000000002
45 ; 87320.60217837515 ; 118673.48948412178 ; 2714795.904048458 ; 4182170.5507080974 ; 10710.000000000002
46 ; 88359.85420497965 ; 120021.90208534813 ; 2802116.5062268334 ; 4300844.040192219 ; 10948.000000000002
47 ; 89191.80866137033 ; 121371.09993338877 ; 2890476.360431813 ; 4420865.942277567 ; 11186.000000000002
48 ; 89896.82178742508 ; 122720.9253069216 ; 2979668.1690931837 ; 4542237.042210956 ; 11424.000000000002
49 ; 90961.74008016592 ; 124071.23328626312 ; 3069564.9908806086 ; 4664957.967517878 ; 11662.000000000002
50 ; 91953.69696638334 ; 125421.89025212797 ; 3160526.7309607747 ; 4789029.200804141 ; 11900.000000000002
51 ; 92668.80179847349 ; 126772.77258914696 ; 3252480.427927158 ; 4914451.09105627 ; 12138.000000000002
52 ; 93119.5584561396 ; 128123.76556262023 ; 3345149.2297256314 ; 5041223.863645417 ; 12376.000000000002
53 ; 93706.50057836395 ; 129474.76234235366 ; 3438268.788181771 ; 5169347.629208037 ; 12614.000000000002
54 ; 94720.03896234265 ; 130825.6631517985 ; 3531975.288760135 ; 5298822.39155039 ; 12852.000000000002
55 ; 95539.7872874074 ; 132176.37452429198 ; 3626695.3277224777 ; 5429648.054702189 ; 13090.000000000002
56 ; 95545.45085427821 ; 133526.80865112922 ; 3722235.1150098853 ; 5561824.42922648 ; 13328.000000000002
57 ; 96412.76438250268 ; 134876.88280861574 ; 3817780.5658641635 ; 5695351.237877609 ; 13566.000000000002
58 ; 97352.00719773842 ; 136226.51885324824 ; 3914193.330246666 ; 5830228.120686225 ; 13804.000000000002
59 ; 98144.46988558935 ; 137575.6427758313 ; 4011545.3374444046 ; 5966454.639539473 ; 14042.000000000002
60 ; 98861.73893568313 ; 138924.18430671588 ; 4109689.807329994 ; 6104030.2823153045 ; 14280.000000000002
61 ; 99218.22553285737 ; 140272.07656550143 ; 4208551.546265678 ; 6242954.46662202 ; 14518.000000000002
62 ; 99558.18561779527 ; 141619.25574951022 ; 4307769.771798535 ; 6383226.543187521 ; 14756.000000000002
63 ; 99713.7274322613 ; 142965.66085615288 ; 4407327.95741633 ; 6524845.798937032 ; 14994.000000000002
64 ; 100840.88631659347 ; 144311.2334349915 ; 4507041.684848592 ; 6667811.459793185 ; 15232.000000000002
65 ; 101240.88594577594 ; 145655.9173658863 ; 4607882.571165185 ; 6812122.693228177 ; 15470.000000000002
66 ; 101645.79927076444 ; 146999.65866010136 ; 4709123.457110961 ; 6957778.610594063 ; 15708.000000000002
67 ; 102056.56633698527 ; 148342.40528166492 ; 4810769.256381725 ; 7104778.269254165 ; 15946.000000000002
68 ; 102213.82835598414 ; 149684.10698663513 ; 4912825.822718711 ; 7253120.67453583 ; 16184.000000000002
69 ; 103103.39191784387 ; 151024.71517822685 ; 5015039.6510746945 ; 7402804.781522465 ; 16422.000000000004
70 ; 103413.19565500748 ; 152364.18277601743 ; 5118143.042992539 ; 7553829.496700692 ; 16660.000000000004
71 ; 103509.75887483594 ; 153702.46409767124 ; 5221556.238647547 ; 7706193.679476709 ; 16898.000000000004
72 ; 103796.43299221956 ; 155039.5147518192 ; 5325065.997522383 ; 7859896.14357438 ; 17136.000000000004
73 ; 104057.92502831851 ; 156375.29154089405 ; 5428862.430514603 ; 8014935.658326199 ; 17374.000000000004
74 ; 104451.87820046929 ; 157709.7523728674 ; 5532920.355542921 ; 8171310.949867093 ; 17612.000000000004
75 ; 105044.5915407337 ; 159042.8561809591 ; 5637372.233743391 ; 8329020.70223996 ; 17850.000000000004
76 ; 105025.15612873499 ; 160374.56285049926 ; 5742416.825284124 ; 8488063.558420919 ; 18088.000000000004
77 ; 105390.86059351677 ; 161704.8331522171 ; 5847441.98141286 ; 8648438.121271418 ; 18326.000000000004
78 ; 105656.98538926765 ; 163033.62868131374 ; 5952832.842006376 ; 8810142.954423636 ; 18564.000000000004
79 ; 106339.77824087317 ; 164360.91180174777 ; 6058489.827395644 ; 8973176.58310495 ; 18802.000000000004
80 ; 106081.7785903119 ; 165686.6455952268 ; 6164829.6056365175 ; 9137537.494906697 ; 19040.000000000004
81 ; 106475.2004327351 ; 167010.79381445225 ; 6270911.38422683 ; 9303224.140501924 ; 19278.000000000004
82 ; 106250.63901060204 ; 168333.3208402149 ; 6377386.584659565 ; 9470234.934316376 ; 19516.000000000004
83 ; 105961.17352281461 ; 169654.1916419802 ; 6483637.223670167 ; 9638568.255156592 ; 19754.000000000004
84 ; 106918.69880114717 ; 170973.37174164155 ; 6589598.397192981 ; 9808222.446798572 ; 19992.000000000004
85 ; 106297.09350445778 ; 172290.82718015218 ; 6696517.095994128 ; 9979195.818540214 ; 20230.000000000004
86 ; 106409.98544056658 ; 173606.52448677688 ; 6802814.189498586 ; 1.0151486645720366E7 ; 20468.000000000004
87 ; 106724.84031728894 ; 174920.4306507302 ; 6909224.174939152 ; 1.0325093170207143E7 ; 20706.000000000004
88 ; 106588.92627525279 ; 176232.51309499145 ; 7015949.015256441 ; 1.0500013600857873E7 ; 20944.000000000004
89 ; 106359.42592002774 ; 177542.739652108 ; 7122537.941531694 ; 1.0676246113952864E7 ; 21182.000000000004
90 ; 106150.00784242211 ; 178851.07854181546 ; 7228897.367451721 ; 1.0853788853604972E7 ; 21420.000000000004
91 ; 106622.97438949662 ; 180157.49835032178 ; 7335047.375294143 ; 1.1032639932146788E7 ; 21658.000000000004
92 ; 106657.06685070554 ; 181461.96801111544 ; 7441670.34968364 ; 1.121279743049711E7 ; 21896.000000000004
93 ; 106184.22057900942 ; 182764.45678717125 ; 7548327.416534346 ; 1.1394259398508225E7 ; 22134.000000000004
94 ; 106323.71600561844 ; 184064.9342544396 ; 7654511.637113355 ; 1.1577023855295395E7 ; 22372.000000000004
95 ; 106055.36751916952 ; 185363.3702865159 ; 7760835.353118974 ; 1.1761088789549835E7 ; 22610.000000000004
96 ; 105927.31955755867 ; 186659.73504039447 ; 7866890.720638143 ; 1.1946452159836352E7 ; 22848.000000000004
97 ; 105817.02025836523 ; 187953.99894322216 ; 7972818.040195702 ; 1.2133111894876746E7 ; 23086.000000000004
98 ; 105413.79244043051 ; 189246.13267997303 ; 8078635.060454067 ; 1.232106589381997E7 ; 23324.000000000004
99 ; 105315.06400103684 ; 190536.10718197236 ; 8184048.852894497 ; 1.2510312026499942E7 ; 23562.000000000004
100 ; 105046.09043742689 ; 191823.89361620595 ; 8289363.916895534 ; 1.2700848133681914E7 ; 23800.000000000004
101 ; 105358.17200554916 ; 193109.46337535416 ; 8394410.00733296 ; 1.2892672027298119E7 ; 24038.000000000004
102 ; 104655.74747816166 ; 194392.7880684964 ; 8499768.17933851 ; 1.3085781490673473E7 ; 24276.000000000004
103 ; 104378.64619386828 ; 195673.83951243738 ; 8604423.92681667 ; 1.3280174278741969E7 ; 24514.000000000004
104 ; 104113.48992648545 ; 196952.58972360764 ; 8708802.573010538 ; 1.3475848118254406E7 ; 24752.000000000004
105 ; 103844.35537235746 ; 198229.0109104985 ; 8812916.062937023 ; 1.3672800707978014E7 ; 24990.000000000004
106 ; 102757.0599580551 ; 199503.07546659117 ; 8916760.418309381 ; 1.3871029718888512E7 ; 25228.000000000004
107 ; 102701.55604985892 ; 200774.75596374634 ; 9019517.478267437 ; 1.4070532794355104E7 ; 25466.000000000004
108 ; 102715.94145538087 ; 202044.02514602029 ; 9122219.034317296 ; 1.427130755031885E7 ; 25704.000000000004
109 ; 101861.9685657001 ; 203310.85592387902 ; 9224934.975772677 ; 1.447335157546487E7 ; 25942.000000000004
110 ; 101764.97686377431 ; 204575.22136878164 ; 9326796.944338378 ; 1.467666243138875E7 ; 26180.000000000004
111 ; 101116.24009787884 ; 205837.09470810866 ; 9428561.921202151 ; 1.4881237652757533E7 ; 26418.000000000004
112 ; 100978.87164355002 ; 207096.44932041116 ; 9529678.16130003 ; 1.5087074747465642E7 ; 26656.000000000004
113 ; 100216.51617934214 ; 208353.25873095912 ; 9630657.03294358 ; 1.5294171196786053E7 ; 26894.000000000004
114 ; 99940.45531747973 ; 209607.4966075696 ; 9730873.549122922 ; 1.5502524455517013E7 ; 27132.000000000004
115 ; 99255.85149970591 ; 210859.13675669557 ; 9830814.004440403 ; 1.5712131952124583E7 ; 27370.000000000004
116 ; 98926.07325751505 ; 212108.15311975882 ; 9930069.85594011 ; 1.5922991088881278E7 ; 27608.000000000004
117 ; 97763.19668042994 ; 213354.51976971046 ; 1.0028995929197624E7 ; 1.6135099242001038E7 ; 27846.000000000004
118 ; 97330.48135387305 ; 214598.21090780527 ; 1.0126759125878055E7 ; 1.6348453761770748E7 ; 28084.000000000004
119 ; 96863.27977735833 ; 215839.2008605753 ; 1.0224089607231928E7 ; 1.6563051972678553E7 ; 28322.000000000004
120 ; 95824.73299906272 ; 217077.4640769906 ; 1.0320952887009287E7 ; 1.677889117353913E7 ; 28560.000000000004
121 ; 95482.8666096068 ; 218312.97512579552 ; 1.041677762000835E7 ; 1.699596863761612E7 ; 28798.000000000004
122 ; 95014.45690933113 ; 219545.70869300907 ; 1.0512260486617956E7 ; 1.7214281612741917E7 ; 29036.000000000004
123 ; 93750.88371777552 ; 220775.63957957958 ; 1.0607274943527287E7 ; 1.7433827321434926E7 ; 29274.000000000004
124 ; 93202.34432232694 ; 222002.7426991844 ; 1.0701025827245062E7 ; 1.7654602961014505E7 ; 29512.000000000004
125 ; 92839.6955147208 ; 223226.99307616524 ; 1.079422817156739E7 ; 1.787660570371369E7 ; 29750.000000000004
126 ; 92188.33315281186 ; 224448.36584359157 ; 1.088706786708211E7 ; 1.8099832696789853E7 ; 29988.000000000004
127 ; 91022.24248687703 ; 225666.8362414438 ; 1.0979256200234922E7 ; 1.8324281062633444E7 ; 30226.000000000004
128 ; 89856.91450190714 ; 226882.37961491005 ; 1.1070278442721799E7 ; 1.8549947898874886E7 ; 30464.000000000004
129 ; 89460.61618591512 ; 228094.97141278881 ; 1.1160135357223706E7 ; 1.8776830278489795E7 ; 30702.000000000004
130 ; 88774.24302125326 ; 229304.58718599184 ; 1.1249595973409621E7 ; 1.9004925249902584E7 ; 30940.000000000004
131 ; 88333.00558142 ; 230511.20258614144 ; 1.1338370216430875E7 ; 1.9234229837088574E7 ; 31178.000000000004
132 ; 87461.07115944331 ; 231714.79336425656 ; 1.1426703222012294E7 ; 1.9464741039674714E7 ; 31416.000000000004
133 ; 86592.03888978204 ; 232915.33536952295 ; 1.1514164293171737E7 ; 1.969645583303897E7 ; 31654.000000000004
134 ; 84956.17600383754 ; 234112.80454814178 ; 1.160075633206152E7 ; 1.9929371168408494E7 ; 31892.000000000004
135 ; 84768.92145689859 ; 235307.1769422536 ; 1.1685712508065358E7 ; 2.0163483972956635E7 ; 32130.000000000004
136 ; 82966.83396727512 ; 236498.42868893206 ; 1.1770481429522257E7 ; 2.039879114989889E7 ; 32368.000000000004
137 ; 82161.3445661765 ; 237686.5360192444 ; 1.1853448263489533E7 ; 2.0635289578587823E7 ; 32606.000000000004
138 ; 81200.40024997618 ; 238871.47525737464 ; 1.1935609608055709E7 ; 2.0872976114607066E7 ; 32844.00000000001
139 ; 80605.48897742196 ; 240053.22281980643 ; 1.2016810008305686E7 ; 2.111184758986444E7 ; 33082.00000000001
140 ; 79213.16727818256 ; 241231.7552145614 ; 1.2097415497283107E7 ; 2.1351900812684245E7 ; 33320.00000000001
141 ; 78258.14033239253 ; 242407.04904049123 ; 1.2176628664561288E7 ; 2.1593132567898806E7 ; 33558.00000000001
142 ; 77368.63756794107 ; 243579.08098661937 ; 1.2254886804893682E7 ; 2.18355396169393E7 ; 33796.00000000001
143 ; 76087.38336191073 ; 244747.8278315308 ; 1.2332255442461623E7 ; 2.2079118697925918E7 ; 34034.00000000001
144 ; 74941.88936560904 ; 245913.26644280623 ; 1.2408342825823534E7 ; 2.2323866525757447E7 ; 34272.00000000001
145 ; 74831.39124564594 ; 247075.37377649924 ; 1.2483284715189144E7 ; 2.2569779792200252E7 ; 34510.00000000001
146 ; 74740.31116903905 ; 248234.12687665378 ; 1.255811610643479E7 ; 2.281685516597675E7 ; 34748.00000000001
147 ; 74006.58676068929 ; 249389.50287485946 ; 1.263285641760383E7 ; 2.3065089292853404E7 ; 34986.00000000001
148 ; 74167.69930528433 ; 250541.47898984377 ; 1.2706863004364518E7 ; 2.3314478795728263E7 ; 35224.00000000001
149 ; 73727.04300896742 ; 251690.03252709808 ; 1.2781030703669803E7 ; 2.3565020274718106E7 ; 35462.00000000001
150 ; 73884.7906416551 ; 252835.14087853627 ; 1.2854757746678771E7 ; 2.3816710307245202E7 ; 35700.00000000001
151 ; 73455.98971341671 ; 253976.78152218467 ; 1.2928642537320426E7 ; 2.406954544812374E7 ; 35938.00000000001
152 ; 72643.1191366744 ; 255114.93202190084 ; 1.3002098527033843E7 ; 2.4323522229645923E7 ; 36176.00000000001
153 ; 72722.14586464233 ; 256249.57002712038 ; 1.3074741646170517E7 ; 2.4578637161667824E7 ; 36414.00000000001
154 ; 72082.20785628432 ; 257380.6732726301 ; 1.314746379203516E7 ; 2.4834886731694944E7 ; 36652.00000000001
155 ; 72347.11412115245 ; 258508.21957836646 ; 1.3219545999891445E7 ; 2.5092267404967573E7 ; 36890.00000000001
156 ; 71691.78779615641 ; 259632.18684923745 ; 1.3291893114012597E7 ; 2.535077562454594E7 ; 37128.00000000001
157 ; 71777.05186119032 ; 260752.55307496726 ; 1.3363584901808754E7 ; 2.5610407811395176E7 ; 37366.00000000001
158 ; 71504.52834530143 ; 261869.29632996258 ; 1.3435361953669945E7 ; 2.5871160364470143E7 ; 37604.00000000001
159 ; 71214.03216057448 ; 262982.39477319905 ; 1.3506866482015247E7 ; 2.6133029660800107E7 ; 37842.00000000001
160 ; 70655.54938919647 ; 264091.82664812723 ; 1.3578080514175821E7 ; 2.6396012055573307E7 ; 38080.00000000001
161 ; 70004.79293976034 ; 265197.5702825971 ; 1.3648736063565018E7 ; 2.6660103882221434E7 ; 38318.00000000001
162 ; 69908.37949840713 ; 266299.6040887996 ; 1.3718740856504777E7 ; 2.692530145250403E7 ; 38556.00000000001
163 ; 69622.02253320058 ; 267397.9065632259 ; 1.3788649236003185E7 ; 2.719160105659283E7 ; 38794.00000000001
164 ; 69470.58334071118 ; 268492.4562866408 ; 1.3858271258536385E7 ; 2.7458998963156056E7 ; 39032.00000000001
165 ; 68551.60214375966 ; 269583.23192407284 ; 1.3927741841877097E7 ; 2.7727491419442695E7 ; 39270.00000000001
166 ; 68137.90753461572 ; 270670.21222481807 ; 1.3996293444020856E7 ; 2.7997074651366767E7 ; 39508.00000000001
167 ; 67850.9850325745 ; 271753.37602245685 ; 1.4064431351555472E7 ; 2.8267744863591585E7 ; 39746.00000000001
168 ; 67726.82498248208 ; 272832.70223488455 ; 1.4132282336588047E7 ; 2.8539498239614043E7 ; 39984.00000000001
169 ; 67254.84055655597 ; 273908.1698643542 ; 1.420000916157053E7 ; 2.8812330941848926E7 ; 40222.00000000001
170 ; 66837.11738051279 ; 274979.7579975302 ; 1.4267264002127087E7 ; 2.908623911171328E7 ; 40460.00000000001
171 ; 66423.76371629693 ; 276047.4458055546 ; 1.43341011195076E7 ; 2.936121886971081E7 ; 40698.00000000001
172 ; 66253.2163244675 ; 277111.2125441223 ; 1.4400524883223897E7 ; 2.9637266315516364E7 ; 40936.00000000001
173 ; 65778.0004595982 ; 278171.0375535675 ; 1.4466778099548364E7 ; 2.9914377528060485E7 ; 41174.00000000001
174 ; 66160.02356697142 ; 279226.9002589591 ; 1.4532556100007962E7 ; 3.0192548565614052E7 ; 41412.00000000001
175 ; 66417.93225426383 ; 280278.78017020586 ; 1.4598716123574933E7 ; 3.047177546587301E7 ; 41650.00000000001
176 ; 66733.95634413064 ; 281326.65688216896 ; 1.4665134055829197E7 ; 3.0752054246043216E7 ; 41888.00000000001
177 ; 66714.3467832206 ; 282370.51007478434 ; 1.4731868012173329E7 ; 3.1033380902925387E7 ; 42126.00000000001
178 ; 67006.4284712352 ; 283410.3195131915 ; 1.479858235895655E7 ; 3.131575141300017E7 ; 42364.00000000001
179 ; 67096.72386291384 ; 284446.06504787086 ; 1.4865588787427785E7 ; 3.159916173251336E7 ; 42602.00000000001
180 ; 67366.54989593868 ; 285477.72661478695 ; 1.49326855112907E7 ; 3.1883607797561232E7 ; 42840.00000000001
181 ; 67503.65321055667 ; 286505.28423553944 ; 1.5000052061186638E7 ; 3.216908552417602E7 ; 43078.00000000001
182 ; 67862.71774499123 ; 287528.71801751986 ; 1.5067555714397194E7 ; 3.245559080841156E7 ; 43316.00000000001
