CSV File for the Network on Day 275
1 - Minute m 
2 - Power Consumed at minute m 
3 - Power Produced at minute m 
4 - Energy Consumed since the beginning of the day 
5 - Energy Produced since the beginning of the day 
6 - Energy Lost since the beginning of the day 
 
No Production city : 2, Producer : 1
No Production city : 4, Producer : 1
No Production city : 4, Producer : 1
 
0 ; 44486.89005868431 ; 184111.188029151 ; 0.0 ; 0.0 ; 0.0
1 ; 45560.77868382338 ; 183769.25266709947 ; 44486.89005868431 ; 184111.188029151 ; 238.00000000000003
2 ; 47164.65923253054 ; 183462.39253022138 ; 90047.6687425077 ; 367880.4406962505 ; 476.00000000000006
3 ; 48416.63650396724 ; 183190.9079198428 ; 137212.32797503824 ; 551342.8332264719 ; 714.0000000000001
4 ; 48839.762557708265 ; 182955.06710606214 ; 185628.9644790055 ; 734533.7411463147 ; 952.0000000000001
5 ; 51060.357630622675 ; 182755.10513252043 ; 234468.72703671374 ; 917488.8082523767 ; 1190.0000000000002
6 ; 52445.432467743245 ; 182591.22275329614 ; 285529.0846673364 ; 1100243.9133848972 ; 1428.0000000000002
7 ; 53592.99894226542 ; 182463.58551307814 ; 337974.51713507966 ; 1282835.1361381933 ; 1666.0000000000002
8 ; 54206.54459508971 ; 182372.32298044872 ; 391567.51607734506 ; 1465298.7216512715 ; 1904.0000000000002
9 ; 55911.51723551889 ; 182317.5281425935 ; 445774.06067243475 ; 1647671.04463172 ; 2142.0000000000005
10 ; 57198.27122400084 ; 182299.25696808612 ; 501685.57790795364 ; 1829988.5727743136 ; 2380.0000000000005
11 ; 58268.16163473528 ; 182317.5281425935 ; 558883.8491319545 ; 2012287.8297423997 ; 2618.0000000000005
12 ; 59558.357687524476 ; 182372.32298044872 ; 617152.0107666898 ; 2194605.3578849933 ; 2856.0000000000005
13 ; 60775.087895618664 ; 182463.58551307814 ; 676710.3684542143 ; 2376977.680865442 ; 3094.0000000000005
14 ; 62315.22133185163 ; 182591.22275329608 ; 737485.4563498329 ; 2559441.26637852 ; 3332.0000000000005
15 ; 62978.52156597967 ; 182755.10513252043 ; 799800.6776816846 ; 2742032.489131816 ; 3570.0000000000005
16 ; 63861.79976220459 ; 182955.06710606214 ; 862779.1992476643 ; 2924787.594264337 ; 3808.0000000000005
17 ; 64903.77678513499 ; 183190.90791984275 ; 926640.999009869 ; 3107742.661370399 ; 4046.0000000000005
18 ; 66015.67750469163 ; 183462.39253022138 ; 991544.775795004 ; 3290933.5692902417 ; 4284.000000000001
19 ; 67430.81883794049 ; 183769.2526670994 ; 1057560.4532996956 ; 3474395.961820463 ; 4522.000000000001
20 ; 68169.04161640671 ; 184111.18802915106 ; 1124991.272137636 ; 3658165.2144875624 ; 4760.000000000001
21 ; 69583.64150827375 ; 184487.86759890756 ; 1193160.3137540428 ; 3842276.4025167134 ; 4998.000000000001
22 ; 70453.11374505621 ; 184898.93106452632 ; 1262743.9552623166 ; 4026764.270115621 ; 5236.000000000001
23 ; 71632.63348291245 ; 185343.99033440923 ; 1333197.069007373 ; 4211663.201180147 ; 5474.000000000001
24 ; 71989.44498322606 ; 185822.63113039464 ; 1404829.7024902855 ; 4397007.191514556 ; 5712.000000000001
25 ; 73576.21203691822 ; 186334.414645039 ; 1476819.1474735115 ; 4582829.822644951 ; 5950.000000000001
26 ; 74431.39415842787 ; 186878.87924851326 ; 1550395.3595104297 ; 4769164.237289989 ; 6188.000000000001
27 ; 75019.19929922157 ; 187455.5422308494 ; 1624826.7536688575 ; 4956043.116538502 ; 6426.000000000001
28 ; 76610.34217960839 ; 188063.9015656784 ; 1699845.9529680791 ; 5143498.658769351 ; 6664.000000000001
29 ; 77530.06322710187 ; 188703.4376821661 ; 1776456.2951476874 ; 5331562.56033503 ; 6902.000000000001
30 ; 77914.35743894885 ; 189373.61523256954 ; 1853986.3583747894 ; 5520265.998017196 ; 7140.000000000001
31 ; 79001.28040701909 ; 190073.88484367068 ; 1931900.7158137383 ; 5709639.613249765 ; 7378.000000000001
32 ; 80197.00576647976 ; 190803.6848412766 ; 2010901.9962207575 ; 5899713.498093436 ; 7616.000000000001
33 ; 80582.7055132359 ; 191562.44293797633 ; 2091099.0019872373 ; 6090517.182934713 ; 7854.000000000001
34 ; 81882.23916694577 ; 192349.5778753998 ; 2171681.707500473 ; 6282079.625872689 ; 8092.000000000001
35 ; 82426.13652978317 ; 193164.50101329802 ; 2253563.946667419 ; 6474429.203748089 ; 8330.000000000002
36 ; 83574.09552587231 ; 194006.61785885016 ; 2335990.083197202 ; 6667593.704761387 ; 8568.000000000002
37 ; 84438.73866180275 ; 194875.32953066973 ; 2419564.1787230745 ; 6861600.322620237 ; 8806.000000000002
38 ; 85519.88839041609 ; 195770.03415302504 ; 2504002.9173848773 ; 7056475.652150907 ; 9044.000000000002
39 ; 85571.66318561247 ; 196690.12817678595 ; 2589522.8057752936 ; 7252245.686303931 ; 9282.000000000002
40 ; 86263.18504819451 ; 197635.00762455145 ; 2675094.468960906 ; 7448935.814480717 ; 9520.000000000002
41 ; 87549.62237435696 ; 198604.06925829468 ; 2761357.6540091005 ; 7646570.822105269 ; 9758.000000000002
42 ; 87726.2873235033 ; 199596.71166867067 ; 2848907.2763834577 ; 7845174.891363564 ; 9996.000000000002
43 ; 88619.32622302827 ; 200612.33628587238 ; 2936633.563706961 ; 8044771.603032235 ; 10234.000000000002
44 ; 89434.7407445585 ; 201650.34831257747 ; 3025252.8899299894 ; 8245383.939318107 ; 10472.000000000002
45 ; 90093.01092271411 ; 202710.1575801162 ; 3114687.630674548 ; 8447034.287630685 ; 10710.000000000002
46 ; 90939.65827964625 ; 203791.17932949675 ; 3204780.641597262 ; 8649744.445210801 ; 10948.000000000002
47 ; 91493.12184730073 ; 204892.83491935892 ; 3295720.2998769083 ; 8853535.624540297 ; 11186.000000000002
48 ; 91907.42100799682 ; 206014.55246329206 ; 3387213.421724209 ; 9058428.459459657 ; 11424.000000000002
49 ; 92444.12162967095 ; 207155.76739924742 ; 3479120.842732206 ; 9264443.011922948 ; 11662.000000000002
50 ; 93055.8077416572 ; 208315.92299401376 ; 3571564.9643618767 ; 9471598.779322196 ; 11900.000000000002
51 ; 93606.763429687 ; 209494.47078589725 ; 3664620.772103534 ; 9679914.70231621 ; 12138.000000000002
52 ; 93992.35958892491 ; 210690.8709688774 ; 3758227.535533221 ; 9889409.173102107 ; 12376.000000000002
53 ; 94960.80813963425 ; 211904.59272158492 ; 3852219.895122146 ; 1.0100100044070985E7 ; 12614.000000000002
54 ; 95482.46890700978 ; 213135.11448448646 ; 3947180.70326178 ; 1.031200463679257E7 ; 12852.000000000002
55 ; 95438.72407651263 ; 214381.9241886606 ; 4042663.17216879 ; 1.0525139751277057E7 ; 13090.000000000002
56 ; 96171.45105536094 ; 215644.51943952008 ; 4138101.8962453026 ; 1.0739521675465718E7 ; 13328.000000000002
57 ; 96837.83646747653 ; 216922.4076587741 ; 4234273.347300664 ; 1.0955166194905238E7 ; 13566.000000000002
58 ; 97443.87129653885 ; 218215.1061878464 ; 4331111.18376814 ; 1.1172088602564013E7 ; 13804.000000000002
59 ; 97755.72782595278 ; 219522.1423558665 ; 4428555.055064679 ; 1.139030370875186E7 ; 14042.000000000002
60 ; 98156.96253491778 ; 220843.0535152346 ; 4526310.782890632 ; 1.1609825851107726E7 ; 14280.000000000002
61 ; 98059.87471675388 ; 222177.38704763848 ; 4624467.745425549 ; 1.183066890462296E7 ; 14518.000000000002
62 ; 98766.5799362824 ; 223524.70034326578 ; 4722527.620142303 ; 1.20528462916706E7 ; 14756.000000000002
63 ; 99337.77622299528 ; 224884.56075581507 ; 4821294.200078586 ; 1.2276370992013866E7 ; 14994.000000000002
64 ; 99136.87118939834 ; 226256.54553576675 ; 4920631.976301582 ; 1.2501255552769681E7 ; 15232.000000000002
65 ; 99893.18305347397 ; 227640.2417442304 ; 5019768.84749098 ; 1.2727512098305449E7 ; 15470.000000000002
66 ; 100323.6560041791 ; 229035.24614953922 ; 5119662.030544454 ; 1.2955152340049678E7 ; 15708.000000000002
67 ; 100494.78988505217 ; 230441.1651086204 ; 5219985.6865486335 ; 1.3184187586199218E7 ; 15946.000000000002
68 ; 100452.8636873471 ; 231857.6144350306 ; 5320480.476433686 ; 1.341462875130784E7 ; 16184.000000000002
69 ; 100959.97865200645 ; 233284.21925540676 ; 5420933.340121033 ; 1.364648636574287E7 ; 16422.000000000004
70 ; 101665.55575946873 ; 234720.61385595382 ; 5521893.318773039 ; 1.3879770584998276E7 ; 16660.000000000004
71 ; 101838.27720643698 ; 236166.44152046065 ; 5623558.874532508 ; 1.411449119885423E7 ; 16898.000000000004
72 ; 102016.50466853277 ; 237621.35436121686 ; 5725397.151738944 ; 1.435065764037469E7 ; 17136.000000000004
73 ; 101998.47142784868 ; 239085.01314408585 ; 5827413.656407477 ; 1.4588278994735908E7 ; 17374.000000000004
74 ; 102236.49080417861 ; 240557.08710888104 ; 5929412.127835326 ; 1.4827364007879993E7 ; 17612.000000000004
75 ; 102555.09851486748 ; 242037.25378608785 ; 6031648.618639505 ; 1.5067921094988873E7 ; 17850.000000000004
76 ; 102919.26612937338 ; 243525.1988108782 ; 6134203.7171543725 ; 1.530995834877496E7 ; 18088.000000000004
77 ; 103268.22600757454 ; 245020.61573527195 ; 6237122.983283746 ; 1.5553483547585838E7 ; 18326.000000000004
78 ; 102839.23398851631 ; 246523.2058392155 ; 6340391.20929132 ; 1.579850416332111E7 ; 18564.000000000004
79 ; 103231.60126941434 ; 248032.67794126793 ; 6443230.443279836 ; 1.6045027369160324E7 ; 18802.000000000004
80 ; 103270.96794148088 ; 249548.7482095128 ; 6546462.044549251 ; 1.6293060047101593E7 ; 19040.000000000004
81 ; 103113.2759281796 ; 251071.13997324306 ; 6649733.012490732 ; 1.6542608795311105E7 ; 19278.000000000004
82 ; 103427.82943407554 ; 252599.5835359077 ; 6752846.288418911 ; 1.6793679935284346E7 ; 19516.000000000004
83 ; 103336.83892926009 ; 254133.81598974616 ; 6856274.117852987 ; 1.7046279518820252E7 ; 19754.000000000004
84 ; 103439.83192910888 ; 255673.5810324874 ; 6959610.956782247 ; 1.730041333481E7 ; 19992.000000000004
85 ; 103390.32307102467 ; 257218.6287864395 ; 7063050.788711356 ; 1.755608691584249E7 ; 20230.000000000004
86 ; 103934.72448295057 ; 258768.7156202516 ; 7166441.11178238 ; 1.781330554462893E7 ; 20468.000000000004
87 ; 103474.19551916102 ; 260323.60397358978 ; 7270375.836265331 ; 1.8072074260249183E7 ; 20706.000000000004
88 ; 103087.6110406712 ; 261883.06218493078 ; 7373850.031784493 ; 1.8332397864222772E7 ; 20944.000000000004
89 ; 102973.38983511337 ; 263446.8643226456 ; 7476937.642825164 ; 1.8594280926407702E7 ; 21182.000000000004
90 ; 103493.00871445301 ; 265014.79001951095 ; 7579911.032660278 ; 1.885772779073035E7 ; 21420.000000000004
91 ; 103372.89588864105 ; 266586.62431076495 ; 7683404.041374731 ; 1.9122742580749862E7 ; 21658.000000000004
92 ; 103497.00919116256 ; 268162.1574757919 ; 7786776.937263372 ; 1.9389329205060627E7 ; 21896.000000000004
93 ; 103240.31434050058 ; 269741.1848835057 ; 7890273.946454535 ; 1.965749136253642E7 ; 22134.000000000004
94 ; 103025.29804275004 ; 271323.506841475 ; 7993514.260795035 ; 1.9927232547419924E7 ; 22372.000000000004
95 ; 103224.51287275924 ; 272908.9284488221 ; 8096539.558837785 ; 2.0198556054261398E7 ; 22610.000000000004
96 ; 103056.82146855877 ; 274497.259452905 ; 8199764.071710545 ; 2.047146498271022E7 ; 22848.000000000004
97 ; 102487.89253030079 ; 276088.3141097852 ; 8302820.893179104 ; 2.0745962242163125E7 ; 23086.000000000004
98 ; 102527.9279122304 ; 277681.91104846436 ; 8405308.785709405 ; 2.102205055627291E7 ; 23324.000000000004
99 ; 102602.34208006479 ; 279277.8731388687 ; 8507836.713621635 ; 2.1299732467321374E7 ; 23562.000000000004
100 ; 102366.51419020453 ; 280876.0273635451 ; 8610439.0557017 ; 2.157901034046024E7 ; 23800.000000000004
101 ; 101512.87328106374 ; 282476.20469302894 ; 8712805.569891904 ; 2.1859886367823787E7 ; 24038.000000000004
102 ; 101442.82723133221 ; 284078.23996483383 ; 8814318.443172967 ; 2.2142362572516818E7 ; 24276.000000000004
103 ; 101230.30463675155 ; 285681.97176600737 ; 8915761.2704043 ; 2.2426440812481653E7 ; 24514.000000000004
104 ; 100950.37145029422 ; 287287.2423191952 ; 9016991.575041052 ; 2.271212278424766E7 ; 24752.000000000004
105 ; 101154.03501773464 ; 288893.89737214555 ; 9117941.946491346 ; 2.2999410026566856E7 ; 24990.000000000004
106 ; 100610.79106051647 ; 290501.7860905897 ; 9219095.98150908 ; 2.3288303923939E7 ; 25228.000000000004
107 ; 99907.53475537294 ; 292110.76095442433 ; 9319706.772569597 ; 2.357880571002959E7 ; 25466.000000000004
108 ; 99762.37568712767 ; 293720.6776571239 ; 9419614.30732497 ; 2.3870916470984016E7 ; 25704.000000000004
109 ; 99460.34700362396 ; 295331.39500830753 ; 9519376.683012098 ; 2.416463714864114E7 ; 25942.000000000004
110 ; 99467.11699636532 ; 296942.7748393845 ; 9618837.030015722 ; 2.4459968543649446E7 ; 26180.000000000004
111 ; 98649.10707227817 ; 298554.6819121998 ; 9718304.147012087 ; 2.475691131848883E7 ; 26418.000000000004
112 ; 98477.90788124557 ; 300166.9838306032 ; 9816953.254084365 ; 2.5055466000401028E7 ; 26656.000000000004
113 ; 98017.7213790196 ; 301779.55095486296 ; 9915431.16196561 ; 2.5355632984231632E7 ; 26894.000000000004
114 ; 97137.04956096895 ; 303392.25631884654 ; 1.001344888334463E7 ; 2.5657412535186496E7 ; 27132.000000000004
115 ; 96767.7710453822 ; 305004.97554989066 ; 1.01105859329056E7 ; 2.596080479150534E7 ; 27370.000000000004
116 ; 96547.8304803935 ; 306617.5867912841 ; 1.0207353703950983E7 ; 2.6265809767055232E7 ; 27608.000000000004
117 ; 95918.57349186036 ; 308229.9706272869 ; 1.0303901534431376E7 ; 2.6572427353846516E7 ; 27846.000000000004
118 ; 95899.88121085287 ; 309842.01001061004 ; 1.0399820107923236E7 ; 2.6880657324473802E7 ; 28084.000000000004
119 ; 95505.8851001564 ; 311453.5901922831 ; 1.0495719989134088E7 ; 2.7190499334484413E7 ; 28322.000000000004
120 ; 94496.11607830727 ; 313064.59865383507 ; 1.0591225874234244E7 ; 2.7501952924676698E7 ; 28560.000000000004
121 ; 93986.40695719142 ; 314674.9250417186 ; 1.0685721990312552E7 ; 2.7815017523330532E7 ; 28798.000000000004
122 ; 93600.43383502553 ; 316284.46110390633 ; 1.0779708397269744E7 ; 2.8129692448372252E7 ; 29036.000000000004
123 ; 92934.59552141033 ; 317893.10062859074 ; 1.087330883110477E7 ; 2.8445976909476157E7 ; 29274.000000000004
124 ; 92577.33115674222 ; 319500.7393849206 ; 1.0966243426626181E7 ; 2.876387001010475E7 ; 29512.000000000004
125 ; 92045.48631195491 ; 321107.27506570943 ; 1.1058820757782923E7 ; 2.908337074948967E7 ; 29750.000000000004
126 ; 91172.98228731833 ; 322712.6072320493 ; 1.1150866244094878E7 ; 2.9404478024555378E7 ; 29988.000000000004
127 ; 90850.99772450697 ; 324316.6372597706 ; 1.1242039226382196E7 ; 2.9727190631787427E7 ; 30226.000000000004
128 ; 89891.44528643944 ; 325919.26828768576 ; 1.1332890224106703E7 ; 3.0051507269047197E7 ; 30464.000000000004
129 ; 89217.04539039495 ; 327520.4051675575 ; 1.1422781669393143E7 ; 3.037742653733488E7 ; 30702.000000000004
130 ; 88804.73746366818 ; 329119.9544157343 ; 1.1511998714783538E7 ; 3.070494694250244E7 ; 30940.000000000004
131 ; 87743.85174386717 ; 330717.8241663988 ; 1.1600803452247206E7 ; 3.1034066896918174E7 ; 31178.000000000004
132 ; 86954.58944732882 ; 332313.9241263731 ; 1.1688547303991074E7 ; 3.1364784721084572E7 ; 31416.000000000004
133 ; 86342.7233148001 ; 333908.1655314288 ; 1.1775501893438403E7 ; 3.1697098645210944E7 ; 31654.000000000004
134 ; 85750.39175752141 ; 335500.46110405243 ; 1.1861844616753202E7 ; 3.2031006810742375E7 ; 31892.000000000004
135 ; 84741.29300561846 ; 337090.7250126142 ; 1.1947595008510724E7 ; 3.236650727184643E7 ; 32130.000000000004
136 ; 84192.9060460508 ; 338678.8728318953 ; 1.2032336301516343E7 ; 3.2703597996859044E7 ; 32368.000000000004
137 ; 83178.8170468868 ; 340264.82150492456 ; 1.2116529207562394E7 ; 3.304227686969094E7 ; 32606.000000000004
138 ; 82405.5290645921 ; 341848.48930608184 ; 1.219970802460928E7 ; 3.3382541691195864E7 ; 32844.00000000001
139 ; 81745.45148377566 ; 343429.7958054237 ; 1.2282113553673873E7 ; 3.3724390180501945E7 ; 33082.00000000001
140 ; 81078.13790574635 ; 345008.66183418926 ; 1.2363859005157648E7 ; 3.406781997630737E7 ; 33320.00000000001
141 ; 79635.87775157683 ; 346585.00945144665 ; 1.2444937143063394E7 ; 3.441282863814156E7 ; 33558.00000000001
142 ; 78717.77079543729 ; 348158.76191183954 ; 1.2524573020814972E7 ; 3.475941364759301E7 ; 33796.00000000001
143 ; 78194.2018323618 ; 349729.84363439755 ; 1.2603290791610409E7 ; 3.5107572409504846E7 ; 34034.00000000001
144 ; 77503.34114721022 ; 351298.1801723718 ; 1.268148499344277E7 ; 3.545730225313924E7 ; 34272.00000000001
145 ; 77144.38718659956 ; 352863.69818406174 ; 1.275898833458998E7 ; 3.580860043331161E7 ; 34510.00000000001
146 ; 76936.50061265726 ; 354426.3254045995 ; 1.283613272177658E7 ; 3.616146413149567E7 ; 34748.00000000001
147 ; 76734.22781556787 ; 355985.99061865656 ; 1.2913069222389238E7 ; 3.651589045690027E7 ; 34986.00000000001
148 ; 76338.82940768822 ; 357542.6236340437 ; 1.2989803450204806E7 ; 3.687187644751892E7 ; 35224.00000000001
149 ; 76449.57035469612 ; 359096.1552561712 ; 1.3066142279612495E7 ; 3.722941907115296E7 ; 35462.00000000001
150 ; 76139.96388800097 ; 360646.5172633407 ; 1.3142591849967191E7 ; 3.758851522640914E7 ; 35700.00000000001
151 ; 75844.96095364884 ; 362193.6423828407 ; 1.3218731813855192E7 ; 3.7949161743672475E7 ; 35938.00000000001
152 ; 75747.92409691252 ; 363737.4642678162 ; 1.329457677480884E7 ; 3.831135538605531E7 ; 36176.00000000001
153 ; 75348.57414718912 ; 365277.9174748876 ; 1.3370324698905753E7 ; 3.8675092850323126E7 ; 36414.00000000001
154 ; 75217.10056129804 ; 366814.9374424922 ; 1.3445673273052942E7 ; 3.9040370767798014E7 ; 36652.00000000001
155 ; 74894.35432048766 ; 368348.4604699245 ; 1.352089037361424E7 ; 3.94071857052405E7 ; 36890.00000000001
156 ; 74750.8198519435 ; 369878.4236970492 ; 1.3595784727934727E7 ; 3.977553416571043E7 ; 37128.00000000001
157 ; 74164.33251485693 ; 371404.765084667 ; 1.3670535547786672E7 ; 4.0145412589407474E7 ; 37366.00000000001
158 ; 74258.5731868314 ; 372927.42339550785 ; 1.3744699880301528E7 ; 4.051681735449214E7 ; 37604.00000000001
159 ; 74159.86517635568 ; 374446.33817583235 ; 1.381895845348836E7 ; 4.088974477788765E7 ; 37842.00000000001
160 ; 73684.5980113111 ; 375961.44973761955 ; 1.3893118318664715E7 ; 4.126419111606348E7 ; 38080.00000000001
161 ; 73194.99927233974 ; 377472.69914132124 ; 1.3966802916676026E7 ; 4.16401525658011E7 ; 38318.00000000001
162 ; 72676.33076803993 ; 378980.0281791641 ; 1.4039997915948365E7 ; 4.201762526494242E7 ; 38556.00000000001
163 ; 72458.42983191686 ; 380483.3793589806 ; 1.4112674246716404E7 ; 4.2396605293121584E7 ; 38794.00000000001
164 ; 72539.05524544322 ; 381982.69588855025 ; 1.418513267654832E7 ; 4.277708867248056E7 ; 39032.00000000001
165 ; 72435.20158204046 ; 383477.92166043556 ; 1.4257671731793763E7 ; 4.315907136836911E7 ; 39270.00000000001
166 ; 71828.97563346243 ; 384969.00123729435 ; 1.4330106933375804E7 ; 4.354254929002955E7 ; 39508.00000000001
167 ; 71423.5195167601 ; 386455.87983765313 ; 1.4401935909009267E7 ; 4.392751829126684E7 ; 39746.00000000001
168 ; 70608.5893795978 ; 387938.50332212634 ; 1.4473359428526027E7 ; 4.43139741711045E7 ; 39984.00000000001
169 ; 70998.62947039626 ; 389416.81818006554 ; 1.4543968017905625E7 ; 4.470191267442662E7 ; 40222.00000000001
170 ; 70837.60413523647 ; 390890.77151662525 ; 1.4614966647376021E7 ; 4.5091329492606685E7 ; 40460.00000000001
171 ; 70349.67370028634 ; 392360.3110402311 ; 1.4685804251511257E7 ; 4.548222026412331E7 ; 40698.00000000001
172 ; 69705.35157214769 ; 393825.3850504364 ; 1.4756153925211543E7 ; 4.587458057516354E7 ; 40936.00000000001
173 ; 69451.41114243686 ; 395285.94242615486 ; 1.4825859276783692E7 ; 4.626840596021398E7 ; 41174.00000000001
174 ; 69309.38579396225 ; 396741.93261425715 ; 1.4895310687926129E7 ; 4.6663691902640134E7 ; 41412.00000000001
175 ; 69552.17127390996 ; 398193.3056185183 ; 1.496462007372009E7 ; 4.706043383525439E7 ; 41650.00000000001
176 ; 69371.40140104736 ; 399640.0119889054 ; 1.5034172244994E7 ; 4.745862714087291E7 ; 41888.00000000001
177 ; 70428.66566023647 ; 401082.0028111937 ; 1.5103543646395046E7 ; 4.785826715286182E7 ; 42126.00000000001
178 ; 70395.74982034983 ; 402519.22969690064 ; 1.5173972312055282E7 ; 4.825934915567301E7 ; 42364.00000000001
179 ; 70420.23905962941 ; 403951.64477352786 ; 1.5244368061875632E7 ; 4.866186838536991E7 ; 42602.00000000001
180 ; 70234.24437016092 ; 405379.2006750996 ; 1.5314788300935261E7 ; 4.906582003014344E7 ; 42840.00000000001
181 ; 70662.4540428299 ; 406801.8505329896 ; 1.5385022545305422E7 ; 4.947119923081854E7 ; 43078.00000000001
