CSV File for the Network on Day 246
1 - Minute m 
2 - Power Consumed at minute m 
3 - Power Produced at minute m 
4 - Energy Consumed since the beginning of the day 
5 - Energy Produced since the beginning of the day 
6 - Energy Lost since the beginning of the day 
 
0 ; 1017319.8814900111 ; 2.1067104149269733E8 ; 0.0 ; 0.0 ; 0.0
1 ; 1021001.2509111908 ; 2.1097579211210826E8 ; 1017319.8814900111 ; 2.1067104149269733E8 ; 356.14
2 ; 1026145.1016770911 ; 2.1189819788440338E8 ; 2038321.1324012019 ; 4.216468336048056E8 ; 712.28
3 ; 1027757.4150751686 ; 2.13438270673905E8 ; 3064466.2340782927 ; 6.335450314892089E8 ; 1068.42
4 ; 1032343.5404772627 ; 2.1559602147082517E8 ; 4092223.649153461 ; 8.46983302163114E8 ; 1424.56
5 ; 1037859.6478033275 ; 2.1837146022202066E8 ; 5124567.189630724 ; 1.0625793236339391E9 ; 1780.6999999999998
6 ; 1041369.5581479121 ; 2.217645956680667E8 ; 6162426.837434052 ; 1.28095078385596E9 ; 2136.8399999999997
7 ; 1046375.7558286861 ; 2.2577543519232848E8 ; 7203796.3955819635 ; 1.5027153795240266E9 ; 2492.9799999999996
8 ; 1050299.8991855567 ; 2.3040398468774065E8 ; 8250172.1514106495 ; 1.728490814716355E9 ; 2849.1199999999994
9 ; 1054066.810013882 ; 2.3565024844667527E8 ; 9300472.050596206 ; 1.9588947994040956E9 ; 3205.2599999999993
10 ; 1057561.3747517606 ; 2.4151422907858023E8 ; 1.0354538860610086E7 ; 2.194545047850771E9 ; 3561.399999999999
11 ; 1060326.8845720976 ; 2.47995927459021E8 ; 1.1412100235361848E7 ; 2.4360592769293513E9 ; 3917.539999999999
12 ; 1061570.381544285 ; 2.5509534271243206E8 ; 1.2472427119933946E7 ; 2.6840552043883724E9 ; 4273.679999999999
13 ; 1064908.2707683612 ; 2.628124722293655E8 ; 1.353399750147823E7 ; 2.9391505471008043E9 ; 4629.82
14 ; 1069841.1053578765 ; 2.711473117174495E8 ; 1.4598905772246592E7 ; 3.2019630193301697E9 ; 4985.96
15 ; 1071237.1509329234 ; 2.8009985528374904E8 ; 1.5668746877604468E7 ; 3.4731103310476193E9 ; 5342.1
16 ; 1074064.670553476 ; 2.896700955448993E8 ; 1.673998402853739E7 ; 3.7532101863313684E9 ; 5698.240000000001
17 ; 1077785.2625259482 ; 2.998580237603248E8 ; 1.781404869909087E7 ; 4.042880281876268E9 ; 6054.380000000001
18 ; 1081308.9153591986 ; 3.1066362998316884E8 ; 1.8891833961616818E7 ; 4.342738305636593E9 ; 6410.520000000001
19 ; 1084014.344905195 ; 3.220869032232194E8 ; 1.9973142876976017E7 ; 4.653401935619761E9 ; 6766.660000000002
20 ; 1088818.6875345702 ; 3.341278316161541E8 ; 2.105715722188121E7 ; 4.975488838842981E9 ; 7122.800000000002
21 ; 1090639.0063044324 ; 3.46786402593769E8 ; 2.214597590941578E7 ; 5.309616670459135E9 ; 7478.940000000002
22 ; 1094259.4736274683 ; 3.600626030504475E8 ; 2.3236614915720213E7 ; 5.656403073052904E9 ; 7835.080000000003
23 ; 1097739.828188973 ; 3.739564195018858E8 ; 2.433087438934768E7 ; 6.016465676103352E9 ; 8191.220000000003
24 ; 1102264.3371973939 ; 3.8846783823293936E8 ; 2.5428614217536654E7 ; 6.390422095605237E9 ; 8547.360000000002
25 ; 1106112.3396625246 ; 4.009729272286917E8 ; 2.6530878554734048E7 ; 6.778889933838177E9 ; 8903.500000000002
26 ; 1108777.730500967 ; 4.009787683683584E8 ; 2.7636990894396573E7 ; 7.179862861066869E9 ; 9259.640000000001
27 ; 1111815.940133645 ; 4.009848865799173E8 ; 2.874576862489754E7 ; 7.580841629435227E9 ; 9615.78
28 ; 1114367.8310578784 ; 4.0099126842311823E8 ; 2.9857584565031186E7 ; 7.981826516015144E9 ; 9971.92
29 ; 1116684.2911654762 ; 4.009979007505162E8 ; 3.0971952396089066E7 ; 8.382817784438263E9 ; 10328.06
30 ; 1120236.4180467858 ; 4.010047707679144E8 ; 3.208863668725454E7 ; 8.78381568518878E9 ; 10684.199999999999
31 ; 1122352.303072731 ; 4.01011866081796E8 ; 3.3208873105301328E7 ; 9.184820455956694E9 ; 11040.339999999998
32 ; 1126059.2940742257 ; 4.010191747350011E8 ; 3.4331225408374056E7 ; 9.58583232203849E9 ; 11396.479999999998
33 ; 1128306.1383677088 ; 4.010266852319859E8 ; 3.545728470244828E7 ; 9.98685149677349E9 ; 11752.619999999997
34 ; 1131471.6750604066 ; 4.010343865550138E8 ; 3.658559084081599E7 ; 1.0387878182005476E10 ; 12108.759999999997
35 ; 1134144.2243303212 ; 4.0104226817259014E8 ; 3.77170625158764E7 ; 1.078891256856049E10 ; 12464.899999999996
36 ; 1135445.3960578959 ; 4.01050320041379E8 ; 3.885120674020672E7 ; 1.118995483673308E10 ; 12821.039999999995
37 ; 1140823.8381563877 ; 4.010585326027386E8 ; 3.9986652136264615E7 ; 1.159100515677446E10 ; 13177.179999999995
38 ; 1142603.2192999613 ; 4.0106689677490485E8 ; 4.1127475974421E7 ; 1.19920636893772E10 ; 13533.319999999994
39 ; 1145064.0992841988 ; 4.010754039417302E8 ; 4.227007919372097E7 ; 1.2393130586152103E10 ; 13889.459999999994
40 ; 1146303.9773189572 ; 4.0108404593877363E8 ; 4.341514329300517E7 ; 1.2794205990093834E10 ; 14245.599999999993
41 ; 1149843.9712726679 ; 4.0109281503742284E8 ; 4.4561447270324126E7 ; 1.3195290036032608E10 ; 14601.739999999993
42 ; 1150157.4057849334 ; 4.0110170392762625E8 ; 4.5711291241596796E7 ; 1.359638285107003E10 ; 14957.879999999992
43 ; 1149760.1363305694 ; 4.011107056997198E8 ; 4.686144864738173E7 ; 1.3997484554997656E10 ; 15314.019999999991
44 ; 1153784.0894474222 ; 4.011198138257459E8 ; 4.80112087837123E7 ; 1.4398595260697376E10 ; 15670.15999999999
45 ; 1155905.4816308373 ; 4.0112902214059126E8 ; 4.916499287315972E7 ; 1.4799715074523123E10 ; 16026.29999999999
46 ; 1160135.2311435586 ; 4.0113832482320213E8 ; 5.032089835479056E7 ; 1.5200844096663713E10 ; 16382.43999999999
47 ; 1161815.232804773 ; 4.011477163780823E8 ; 5.148103358593412E7 ; 1.5601982421486916E10 ; 16738.57999999999
48 ; 1163177.366684421 ; 4.011571916172318E8 ; 5.264284881873889E7 ; 1.6003130137864998E10 ; 17094.71999999999
49 ; 1166325.1022158568 ; 4.011667456426444E8 ; 5.3806026185423315E7 ; 1.640428732948223E10 ; 17450.85999999999
50 ; 1166541.0063066126 ; 4.0117637382945013E8 ; 5.497235128763917E7 ; 1.6805454075124874E10 ; 17806.99999999999
51 ; 1168020.7386122788 ; 4.011860718097603E8 ; 5.613889229394578E7 ; 1.7206630448954323E10 ; 18163.13999999999
52 ; 1169538.5254102824 ; 4.011958354572534E8 ; 5.730691303255806E7 ; 1.7607816520764084E10 ; 18519.279999999988
53 ; 1170325.8820679116 ; 4.012056608725203E8 ; 5.847645155796834E7 ; 1.8009012356221336E10 ; 18875.419999999987
54 ; 1172076.528638962 ; 4.0121554436917406E8 ; 5.964677744003625E7 ; 1.8410218017093857E10 ; 19231.559999999987
55 ; 1171446.92693683 ; 4.0122548246071875E8 ; 6.081885396867521E7 ; 1.881143356146303E10 ; 19587.699999999986
56 ; 1174943.636867828 ; 4.012354718481635E8 ; 6.199030089561204E7 ; 1.921265904392375E10 ; 19943.839999999986
57 ; 1176041.8651735396 ; 4.012455094083613E8 ; 6.316524453247987E7 ; 1.9613894515771915E10 ; 20299.979999999985
58 ; 1178427.2892821894 ; 4.0125559218304694E8 ; 6.434128639765341E7 ; 2.0015140025180275E10 ; 20656.119999999984
59 ; 1179690.7954660584 ; 4.0126571736854726E8 ; 6.5519713686935596E7 ; 2.0416395617363323E10 ; 21012.259999999984
60 ; 1181713.6659496324 ; 4.01275882306132E8 ; 6.6699404482401654E7 ; 2.081766133473187E10 ; 21368.399999999983
61 ; 1183812.6209664624 ; 4.0128608447297466E8 ; 6.788111814835128E7 ; 2.1218937217038002E10 ; 21724.539999999983
62 ; 1183682.7153211085 ; 4.0129632147369087E8 ; 6.906493076931775E7 ; 2.1620223301510975E10 ; 22080.679999999982
63 ; 1183354.6024547713 ; 4.0130659103242284E8 ; 7.024861348463885E7 ; 2.2021519622984665E10 ; 22436.81999999998
64 ; 1188314.9849965498 ; 4.0131689098543787E8 ; 7.143196808709362E7 ; 2.2422826214017086E10 ; 22792.95999999998
65 ; 1188368.0969816975 ; 4.013272192742102E8 ; 7.262028307209018E7 ; 2.2824143105002525E10 ; 23149.09999999998
66 ; 1192978.8622321244 ; 4.013375739389575E8 ; 7.380865116907188E7 ; 2.3225470324276737E10 ; 23505.23999999998
67 ; 1193316.8591040843 ; 4.013479531126013E8 ; 7.5001630031304E7 ; 2.3626807898215694E10 ; 23861.37999999998
68 ; 1192314.3460525325 ; 4.013583550151268E8 ; 7.619494689040808E7 ; 2.4028155851328297E10 ; 24217.51999999998
69 ; 1193460.3892196356 ; 4.0136877794831425E8 ; 7.738726123646061E7 ; 2.4429514206343422E10 ; 24573.659999999978
70 ; 1192266.7121396756 ; 4.013792202908172E8 ; 7.858072162568025E7 ; 2.4830882984291737E10 ; 24929.799999999977
71 ; 1196548.8579335753 ; 4.013896804935665E8 ; 7.977298833781993E7 ; 2.5232262204582554E10 ; 25285.939999999977
72 ; 1196914.1861541679 ; 4.014001570754755E8 ; 8.096953719575351E7 ; 2.563365188507612E10 ; 25642.079999999976
73 ; 1199205.3013839019 ; 4.014106486194283E8 ; 8.216645138190769E7 ; 2.6035052042151592E10 ; 25998.219999999976
74 ; 1198256.3348326713 ; 4.014211537685301E8 ; 8.336565668329158E7 ; 2.643646269077102E10 ; 26354.359999999975
75 ; 1198467.2902683099 ; 4.014316712226027E8 ; 8.456391301812425E7 ; 2.683788384453955E10 ; 26710.499999999975
76 ; 1198561.2580156303 ; 4.0144219973490846E8 ; 8.576238030839257E7 ; 2.7239315515762154E10 ; 27066.639999999974
77 ; 1200492.2969086955 ; 4.0145273810908604E8 ; 8.69609415664082E7 ; 2.7640757715497063E10 ; 27422.779999999973
78 ; 1201201.1337216643 ; 4.014632851962841E8 ; 8.81614338633169E7 ; 2.8042210453606148E10 ; 27778.919999999973
79 ; 1201738.8787799743 ; 4.0147383989247954E8 ; 8.936263499703856E7 ; 2.8443673738802433E10 ; 28135.059999999972
80 ; 1203762.2984621257 ; 4.0148440113596666E8 ; 9.056437387581854E7 ; 2.8845147578694912E10 ; 28491.19999999997
81 ; 1204706.7659308494 ; 4.014949679050069E8 ; 9.176813617428066E7 ; 2.924663197983088E10 ; 28847.33999999997
82 ; 1203875.4628089948 ; 4.0150553921562636E8 ; 9.29728429402115E7 ; 2.9648126947735886E10 ; 29203.47999999997
83 ; 1206914.2276269137 ; 4.0151611411955285E8 ; 9.41767184030205E7 ; 3.004963248695151E10 ; 29559.61999999997
84 ; 1207381.50172486 ; 4.015266917022815E8 ; 9.538363263064742E7 ; 3.0451148601071064E10 ; 29915.75999999997
85 ; 1208615.9149307667 ; 4.0153727108126056E8 ; 9.659101413237227E7 ; 3.0852675292773346E10 ; 30271.89999999997
86 ; 1207643.1193849829 ; 4.0154785140419066E8 ; 9.779963004730304E7 ; 3.1254212563854607E10 ; 30628.039999999968
87 ; 1208658.7483382737 ; 4.015584318474268E8 ; 9.900727316668802E7 ; 3.1655760415258797E10 ; 30984.179999999968
88 ; 1212362.7540829417 ; 4.015690116144794E8 ; 1.0021593191502629E8 ; 3.2057318847106224E10 ; 31340.319999999967
89 ; 1211137.3714451701 ; 4.0157958993460596E8 ; 1.0142829466910924E8 ; 3.2458887858720703E10 ; 31696.459999999966
90 ; 1210822.8214021525 ; 4.015901660614872E8 ; 1.026394320405544E8 ; 3.2860467448655308E10 ; 32052.599999999966
91 ; 1211929.3413314153 ; 4.0160073927198315E8 ; 1.0385025486195655E8 ; 3.3262057614716797E10 ; 32408.739999999965
92 ; 1214888.1266749885 ; 4.016113088649634E8 ; 1.0506218420328797E8 ; 3.366365835398878E10 ; 32764.879999999965
93 ; 1213643.2678364406 ; 4.016218741602056E8 ; 1.0627707232996297E8 ; 3.4065269662853745E10 ; 33121.01999999997
94 ; 1213153.0075984627 ; 4.0163243449736E8 ; 1.074907155977994E8 ; 3.446689153701395E10 ; 33477.15999999997
95 ; 1214092.6101130552 ; 4.016429892349732E8 ; 1.0870386860539787E8 ; 3.486852397151131E10 ; 33833.29999999997
96 ; 1213794.4296537675 ; 4.016535377495695E8 ; 1.0991796121551092E8 ; 3.527016696074628E10 ; 34189.439999999966
97 ; 1214564.9034207698 ; 4.016640794347843E8 ; 1.1113175564516468E8 ; 3.567182049849585E10 ; 34545.579999999965
98 ; 1215147.7147665753 ; 4.016746137005478E8 ; 1.1234632054858546E8 ; 3.607348457793063E10 ; 34901.719999999965
99 ; 1215330.1365641986 ; 4.016851399723147E8 ; 1.1356146826335204E8 ; 3.647515919163118E10 ; 35257.859999999964
100 ; 1216476.3406275632 ; 4.016956576903371E8 ; 1.1477679839991623E8 ; 3.687684433160349E10 ; 35613.99999999996
101 ; 1213608.9128322268 ; 4.0170616630897886E8 ; 1.159932747405438E8 ; 3.727853998929383E10 ; 35970.13999999996
102 ; 1215975.3490591275 ; 4.0171666529606736E8 ; 1.1720688365337603E8 ; 3.7680246155602806E10 ; 36326.27999999996
103 ; 1217592.9433581477 ; 4.0172715413228166E8 ; 1.1842285900243516E8 ; 3.808196282089887E10 ; 36682.41999999996
104 ; 1218109.79138704 ; 4.01737632310574E8 ; 1.1964045194579332E8 ; 3.848368997503115E10 ; 37038.55999999996
105 ; 1219437.053652502 ; 4.017480993356228E8 ; 1.2085856173718035E8 ; 3.888542760734173E10 ; 37394.69999999996
106 ; 1217044.623848797 ; 4.017585547233154E8 ; 1.2207799879083285E8 ; 3.928717570667735E10 ; 37750.83999999996
107 ; 1215959.7420603386 ; 4.017689980002587E8 ; 1.2329504341468164E8 ; 3.9688934261400665E10 ; 38106.97999999996
108 ; 1219590.1387673623 ; 4.0177942870331556E8 ; 1.2451100315674198E8 ; 4.0090703259400925E10 ; 38463.11999999996
109 ; 1218765.2458809444 ; 4.017898463791664E8 ; 1.2573059329550934E8 ; 4.049248268810424E10 ; 38819.25999999996
110 ; 1218087.505885931 ; 4.0180025058389354E8 ; 1.2694935854139028E8 ; 4.0894272534483406E10 ; 39175.39999999996
111 ; 1220905.9042597506 ; 4.0181064088258696E8 ; 1.2816744604727621E8 ; 4.12960727850673E10 ; 39531.53999999996
112 ; 1218566.110642854 ; 4.018210168489717E8 ; 1.2938835195153597E8 ; 4.169788342594988E10 ; 39887.67999999996
113 ; 1218413.58654954 ; 4.018313780650532E8 ; 1.3060691806217882E8 ; 4.209970444279885E10 ; 40243.819999999956
114 ; 1219722.0918097333 ; 4.018417241207816E8 ; 1.3182533164872836E8 ; 4.250153582086391E10 ; 40599.959999999955
115 ; 1218062.9107311436 ; 4.018520546137331E8 ; 1.3304505374053809E8 ; 4.290337754498469E10 ; 40956.099999999955
116 ; 1218935.8338362079 ; 4.018623691488073E8 ; 1.3426311665126923E8 ; 4.330522959959842E10 ; 41312.239999999954
117 ; 1218549.6775359053 ; 4.0187266733793986E8 ; 1.3548205248510543E8 ; 4.370709196874722E10 ; 41668.379999999954
118 ; 1218212.593139514 ; 4.018829487998296E8 ; 1.3670060216264132E8 ; 4.410896463608516E10 ; 42024.51999999995
119 ; 1219606.7128451075 ; 4.018932131596788E8 ; 1.3791881475578082E8 ; 4.451084758488499E10 ; 42380.65999999995
120 ; 1217774.9761139888 ; 4.0190346004894716E8 ; 1.3913842146862593E8 ; 4.491274079804466E10 ; 42736.79999999995
121 ; 1215911.2624214694 ; 4.0191368910511667E8 ; 1.403561964447399E8 ; 4.531464425809361E10 ; 43092.93999999995
122 ; 1218182.7038291018 ; 4.0192389997146904E8 ; 1.4157210770716137E8 ; 4.571655794719873E10 ; 43449.07999999995
123 ; 1216397.3314331593 ; 4.0193409229687345E8 ; 1.4279029041099048E8 ; 4.61184818471702E10 ; 43805.21999999995
124 ; 1217370.1678585336 ; 4.01944265735584E8 ; 1.4400668774242362E8 ; 4.652041593946707E10 ; 44161.35999999995
125 ; 1214826.3008155033 ; 4.0195441994704825E8 ; 1.4522405791028216E8 ; 4.692236020520265E10 ; 44517.49999999995
126 ; 1213554.1526374563 ; 4.019645545957233E8 ; 1.4643888421109766E8 ; 4.7324314625149704E10 ; 44873.63999999995
127 ; 1212983.306931952 ; 4.0197466935090166E8 ; 1.476524383637351E8 ; 4.772627917974543E10 ; 45229.77999999995
128 ; 1211842.4574328412 ; 4.0198476388654494E8 ; 1.4886542167066705E8 ; 4.812825384909633E10 ; 45585.91999999995
129 ; 1209137.102862682 ; 4.019948378811251E8 ; 1.500772641280999E8 ; 4.853023861298287E10 ; 45942.05999999995
130 ; 1209251.3686992442 ; 4.020048910174737E8 ; 1.5128640123096257E8 ; 4.8932233450864E10 ; 46298.199999999946
131 ; 1208178.8160528496 ; 4.020149229826375E8 ; 1.5249565259966183E8 ; 4.933423834188147E10 ; 46654.339999999946
132 ; 1203063.6420676338 ; 4.020249334677409E8 ; 1.5370383141571468E8 ; 4.9736253264864105E10 ; 47010.479999999945
133 ; 1205157.758329814 ; 4.020349221678548E8 ; 1.5490689505778232E8 ; 5.013827819833185E10 ; 47366.619999999944
134 ; 1205720.0429400767 ; 4.020448887818713E8 ; 1.5611205281611213E8 ; 5.05403131204997E10 ; 47722.759999999944
135 ; 1203861.1573544797 ; 4.0205483301238436E8 ; 1.573177728590522E8 ; 5.094235800928157E10 ; 48078.89999999994
136 ; 1203724.1815340405 ; 4.02064754565575E8 ; 1.585216340164067E8 ; 5.134441284229395E10 ; 48435.03999999994
137 ; 1205334.8302602477 ; 4.020746531511029E8 ; 1.5972535819794074E8 ; 5.174647759685953E10 ; 48791.17999999994
138 ; 1201315.9527151024 ; 4.0208452848200154E8 ; 1.6093069302820098E8 ; 5.214855225001063E10 ; 49147.31999999994
139 ; 1202892.1805407677 ; 4.02094380274579E8 ; 1.6213200898091608E8 ; 5.255063677849263E10 ; 49503.45999999994
140 ; 1202667.7590291514 ; 4.021042082483225E8 ; 1.6333490116145685E8 ; 5.295273115876721E10 ; 49859.59999999994
141 ; 1199440.6532443764 ; 4.0211401212580734E8 ; 1.64537568920486E8 ; 5.335483536701553E10 ; 50215.73999999994
142 ; 1198105.3168918842 ; 4.021237916326101E8 ; 1.6573700957373038E8 ; 5.375694937914134E10 ; 50571.87999999994
143 ; 1197660.4044974823 ; 4.021335464972247E8 ; 1.6693511489062226E8 ; 5.415907317077395E10 ; 50928.01999999994
144 ; 1196127.4025308827 ; 4.021432764509835E8 ; 1.6813277529511973E8 ; 5.456120671727117E10 ; 51284.15999999994
145 ; 1195646.4276268715 ; 4.021529812279805E8 ; 1.693289026976506E8 ; 5.496334999372215E10 ; 51640.29999999994
146 ; 1198916.7919277726 ; 4.021626605649983E8 ; 1.705245491252775E8 ; 5.5365502974950134E10 ; 51996.43999999994
147 ; 1199228.3660626076 ; 4.0217231420143855E8 ; 1.7172346591720527E8 ; 5.576766563551513E10 ; 52352.579999999936
148 ; 1198180.7001026927 ; 4.021819418792546E8 ; 1.729226942832679E8 ; 5.616983794971657E10 ; 52708.719999999936
149 ; 1199384.5920997143 ; 4.0219154334288776E8 ; 1.7412087498337057E8 ; 5.6572019891595825E10 ; 53064.859999999935
150 ; 1199714.589622757 ; 4.022011183392057E8 ; 1.753202595754703E8 ; 5.697421143493871E10 ; 53420.999999999935
151 ; 1200623.2546076018 ; 4.022106666174437E8 ; 1.7651997416509306E8 ; 5.7376412553277916E10 ; 53777.139999999934
152 ; 1201486.6867942326 ; 4.022201879291482E8 ; 1.7772059741970065E8 ; 5.777862321989536E10 ; 54133.27999999993
153 ; 1201259.4224143848 ; 4.0222968202812266E8 ; 1.7892208410649487E8 ; 5.818084340782451E10 ; 54489.41999999993
154 ; 1204166.2221060782 ; 4.022391486703762E8 ; 1.8012334352890927E8 ; 5.858307308985263E10 ; 54845.55999999993
155 ; 1206657.314701779 ; 4.022485876140732E8 ; 1.8132750975101534E8 ; 5.898531223852301E10 ; 55201.69999999993
156 ; 1205963.1315147216 ; 4.022579986194866E8 ; 1.825341670657171E8 ; 5.9387560826137085E10 ; 55557.83999999993
157 ; 1206199.6080951581 ; 4.0226738144895124E8 ; 1.8374013019723183E8 ; 5.978981882475657E10 ; 55913.97999999993
158 ; 1207978.3585616685 ; 4.022767358668208E8 ; 1.84946329805327E8 ; 6.019208620620552E10 ; 56270.11999999993
159 ; 1209451.783488171 ; 4.0228606163942564E8 ; 1.8615430816388866E8 ; 6.059436294207234E10 ; 56626.25999999993
160 ; 1208996.6795725585 ; 4.0229535853503203E8 ; 1.8736375994737685E8 ; 6.099664900371177E10 ; 56982.39999999993
161 ; 1211254.1637709478 ; 4.023046263238041E8 ; 1.885727566269494E8 ; 6.13989443622468E10 ; 57338.53999999993
162 ; 1209151.7267754509 ; 4.0231386477776605E8 ; 1.8978401079072034E8 ; 6.180124898857061E10 ; 57694.67999999993
163 ; 1212636.581343919 ; 4.0232307367076707E8 ; 1.9099316251749578E8 ; 6.220356285334837E10 ; 58050.81999999993
164 ; 1210270.7684257766 ; 4.023322527784468E8 ; 1.922057990988397E8 ; 6.260588592701914E10 ; 58406.95999999993
165 ; 1211979.0926246569 ; 4.0234140187820256E8 ; 1.9341606986726546E8 ; 6.300821817979759E10 ; 58763.099999999926
166 ; 1211355.4463171056 ; 4.023505207491579E8 ; 1.9462804895989013E8 ; 6.34105595816758E10 ; 59119.239999999925
167 ; 1212932.1348200773 ; 4.02359609172132E8 ; 1.9583940440620723E8 ; 6.381291010242496E10 ; 59475.379999999925
168 ; 1214596.7684666049 ; 4.0236866692961097E8 ; 1.970523365410273E8 ; 6.421526971159709E10 ; 59831.519999999924
169 ; 1214302.0219124833 ; 4.0237769380571973E8 ; 1.982669333094939E8 ; 6.46176383785267E10 ; 60187.65999999992
170 ; 1214419.5348311318 ; 4.023866895861951E8 ; 1.9948123533140638E8 ; 6.502001607233242E10 ; 60543.79999999992
171 ; 1214034.819333195 ; 4.023956540583601E8 ; 2.0069565486623752E8 ; 6.542240276191862E10 ; 60899.93999999992
172 ; 1214472.6557731514 ; 4.024045870110993E8 ; 2.0190968968557072E8 ; 6.5824798415976974E10 ; 61256.07999999992
173 ; 1216071.9850299098 ; 4.024134882348347E8 ; 2.0312416234134388E8 ; 6.6227203002988075E10 ; 61612.21999999992
174 ; 1217860.5723509805 ; 4.024223575215031E8 ; 2.043402343263738E8 ; 6.662961649122291E10 ; 61968.35999999992
175 ; 1218805.6427459926 ; 4.024311946645342E8 ; 2.0555809489872476E8 ; 6.703203884874441E10 ; 62324.49999999992
