CSV File for the Network on Day 301
1 - Minute m 
2 - Power Consumed at minute m 
3 - Power Produced at minute m 
4 - Energy Consumed since the beginning of the day 
5 - Energy Produced since the beginning of the day 
6 - Energy Lost since the beginning of the day 
 
No Production city : 2, Producer : 1
No Production city : 4, Producer : 1
No Production city : 4, Producer : 1
 
0 ; 59416.66290426031 ; 227009.58818523056 ; 0.0 ; 0.0 ; 0.0
1 ; 60643.84259856004 ; 226643.0317343949 ; 59416.66290426031 ; 227009.58818523056 ; 238.00000000000003
2 ; 61544.58785378275 ; 226314.25740969295 ; 120060.50550282035 ; 453652.61991962546 ; 476.00000000000006
3 ; 62645.65137875121 ; 226023.52881742036 ; 181605.09335660312 ; 679966.8773293184 ; 714.0000000000001
4 ; 63582.33867719161 ; 225771.08086642832 ; 244250.74473535432 ; 905990.4061467388 ; 952.0000000000001
5 ; 65116.591855179475 ; 225557.1189234074 ; 307833.08341254597 ; 1131761.4870131672 ; 1190.0000000000002
6 ; 65778.34095641709 ; 225381.81806541592 ; 372949.6752677254 ; 1357318.6059365747 ; 1428.0000000000002
7 ; 67054.28805193663 ; 225245.32243601116 ; 438728.0162241425 ; 1582700.4240019906 ; 1666.0000000000002
8 ; 68044.00306619772 ; 225147.7447105427 ; 505782.3042760792 ; 1807945.7464380017 ; 1904.0000000000002
9 ; 68831.655188325 ; 225089.1656752774 ; 573826.3073422769 ; 2033093.4911485445 ; 2142.0000000000005
10 ; 70069.47725280134 ; 225069.63392407043 ; 642657.9625306019 ; 2258182.656823822 ; 2380.0000000000005
11 ; 70935.8940558456 ; 225089.1656752774 ; 712727.4397834032 ; 2483252.290747892 ; 2618.0000000000005
12 ; 71793.16427529915 ; 225147.7447105427 ; 783663.3338392487 ; 2708341.4564231695 ; 2856.0000000000005
13 ; 72583.17464062298 ; 225245.32243601116 ; 855456.4981145479 ; 2933489.201133712 ; 3094.0000000000005
14 ; 73400.12083691149 ; 225381.81806541586 ; 928039.6727551708 ; 3158734.5235697236 ; 3332.0000000000005
15 ; 74673.61416646105 ; 225557.1189234074 ; 1001439.7935920823 ; 3384116.3416351397 ; 3570.0000000000005
16 ; 75555.04188332011 ; 225771.08086642832 ; 1076113.4077585433 ; 3609673.460558547 ; 3808.0000000000005
17 ; 76210.42105981868 ; 226023.5288174203 ; 1151668.4496418633 ; 3835444.5414249757 ; 4046.0000000000005
18 ; 77088.85776149787 ; 226314.257409693 ; 1227878.870701682 ; 4061468.070242396 ; 4284.000000000001
19 ; 78067.9339798105 ; 226643.03173439484 ; 1304967.72846318 ; 4287782.327652089 ; 4522.000000000001
20 ; 78726.83700386918 ; 227009.58818523062 ; 1383035.6624429903 ; 4514425.359386484 ; 4760.000000000001
21 ; 79686.40043727544 ; 227413.63539336078 ; 1461762.4994468596 ; 4741434.947571714 ; 4998.000000000001
22 ; 80920.53707999975 ; 227854.85524482207 ; 1541448.899884135 ; 4968848.582965075 ; 5236.000000000001
23 ; 81389.65440322316 ; 228332.90397231598 ; 1622369.4369641347 ; 5196703.438209897 ; 5474.000000000001
24 ; 82034.53313412073 ; 228847.4133128346 ; 1703759.0913673579 ; 5425036.3421822125 ; 5712.000000000001
25 ; 83071.97311243103 ; 229397.9917223333 ; 1785793.6245014786 ; 5653883.755495047 ; 5950.000000000001
26 ; 83887.10985263559 ; 229984.22563850763 ; 1868865.5976139097 ; 5883281.74721738 ; 6188.000000000001
27 ; 84605.27764999677 ; 230605.68078269644 ; 1952752.7074665453 ; 6113265.972855888 ; 6426.000000000001
28 ; 84970.14921417822 ; 231261.90349199405 ; 2037357.985116542 ; 6343871.653638585 ; 6664.000000000001
29 ; 85930.89271708828 ; 231952.42207282374 ; 2122328.13433072 ; 6575133.557130579 ; 6902.000000000001
30 ; 87031.66415770694 ; 232676.74816747257 ; 2208259.0270478083 ; 6807085.979203403 ; 7140.000000000001
31 ; 87677.40954159966 ; 233434.378125424 ; 2295290.691205515 ; 7039762.727370876 ; 7378.000000000001
32 ; 87971.38233980129 ; 234224.79437172815 ; 2382968.1007471145 ; 7273197.105496299 ; 7616.000000000001
33 ; 88853.29973370467 ; 235047.46676510922 ; 2470939.4830869157 ; 7507421.899868027 ; 7854.000000000001
34 ; 89387.90600451686 ; 235901.85393902467 ; 2559792.7828206206 ; 7742469.366633137 ; 8092.000000000001
35 ; 89934.13744855169 ; 236787.40461943622 ; 2649180.6888251374 ; 7978371.2205721615 ; 8330.000000000002
36 ; 90549.93071482264 ; 237703.558913629 ; 2739114.826273689 ; 8215158.625191597 ; 8568.000000000002
37 ; 91329.88259457593 ; 238649.7495650083 ; 2829664.756988512 ; 8452862.184105227 ; 8806.000000000002
38 ; 91913.9316670218 ; 239625.40316940073 ; 2920994.639583088 ; 8691511.933670236 ; 9044.000000000002
39 ; 91948.87904908866 ; 240629.9413489883 ; 3012908.57125011 ; 8931137.336839637 ; 9282.000000000002
40 ; 93010.78254759808 ; 241662.78188058842 ; 3104857.4502991987 ; 9171767.278188625 ; 9520.000000000002
41 ; 93143.1924336012 ; 242723.3397755695 ; 3197868.232846797 ; 9413430.060069215 ; 9758.000000000002
42 ; 94102.42770783087 ; 243811.02830924062 ; 3291011.425280398 ; 9656153.399844784 ; 9996.000000000002
43 ; 94683.95381822948 ; 244925.25999807857 ; 3385113.852988229 ; 9899964.428154025 ; 10234.000000000002
44 ; 95230.4181481127 ; 246065.44752364868 ; 3479797.8068064586 ; 1.0144889688152105E7 ; 10472.000000000002
45 ; 95753.13010565436 ; 247231.00460253432 ; 3575028.224954571 ; 1.0390955135675753E7 ; 10710.000000000002
46 ; 96260.59858307577 ; 248421.3468020151 ; 3670781.3550602254 ; 1.0638186140278287E7 ; 10948.000000000002
47 ; 96260.1170063962 ; 249635.8923016179 ; 3767041.953643301 ; 1.0886607487080302E7 ; 11186.000000000002
48 ; 97290.68108461087 ; 250874.0626010136 ; 3863302.0706496974 ; 1.113624337938192E7 ; 11424.000000000002
49 ; 97515.81516787996 ; 252135.28317504234 ; 3960592.7517343084 ; 1.1387117441982932E7 ; 11662.000000000002
50 ; 98104.67308068102 ; 253418.98407692334 ; 4058108.5669021886 ; 1.1639252725157974E7 ; 11900.000000000002
51 ; 98415.33377861785 ; 254724.60049093963 ; 4156213.2399828695 ; 1.1892671709234897E7 ; 12138.000000000002
52 ; 98881.63362516621 ; 256051.57323609173 ; 4254628.573761487 ; 1.2147396309725836E7 ; 12376.000000000002
53 ; 99280.4265293706 ; 257399.34922238087 ; 4353510.207386654 ; 1.2403447882961927E7 ; 12614.000000000002
54 ; 99907.32703646479 ; 258767.3818615195 ; 4452790.633916024 ; 1.2660847232184308E7 ; 12852.000000000002
55 ; 99821.53954427385 ; 260155.13143397507 ; 4552697.960952489 ; 1.2919614614045827E7 ; 13090.000000000002
56 ; 100128.94874800552 ; 261562.0654143353 ; 4652519.500496763 ; 1.3179769745479802E7 ; 13328.000000000002
57 ; 100615.65698501513 ; 262987.6587570366 ; 4752648.449244768 ; 1.3441331810894137E7 ; 13566.000000000002
58 ; 101040.06654898297 ; 264431.39414453594 ; 4853264.106229783 ; 1.3704319469651174E7 ; 13804.000000000002
59 ; 101539.54991902677 ; 265892.76220001915 ; 4954304.172778766 ; 1.3968750863795709E7 ; 14042.000000000002
60 ; 101866.88445099686 ; 267371.2616667359 ; 5055843.722697793 ; 1.4234643625995727E7 ; 14280.000000000002
61 ; 102104.17634139305 ; 268866.39955603436 ; 5157710.60714879 ; 1.4502014887662463E7 ; 14518.000000000002
62 ; 102304.26632449246 ; 270377.69126613735 ; 5259814.783490183 ; 1.4770881287218498E7 ; 14756.000000000002
63 ; 102759.09224056428 ; 271904.66067365836 ; 5362119.049814675 ; 1.5041258978484636E7 ; 14994.000000000002
64 ; 102789.23330689096 ; 273446.84019980405 ; 5464878.1420552395 ; 1.5313163639158294E7 ; 15232.000000000002
65 ; 103294.1682832222 ; 275003.7708531503 ; 5567667.375362131 ; 1.5586610479358098E7 ; 15470.000000000002
66 ; 103637.57041537995 ; 276575.00225081167 ; 5670961.543645353 ; 1.5861614250211248E7 ; 15708.000000000002
67 ; 103541.48481426969 ; 278160.0926197525 ; 5774599.1140607335 ; 1.613818925246206E7 ; 15946.000000000002
68 ; 103937.42731955551 ; 279758.6087799145 ; 5878140.598875003 ; 1.6416349345081812E7 ; 16184.000000000002
69 ; 103754.4971498214 ; 281370.1261107563 ; 5982078.0261945585 ; 1.6696107953861726E7 ; 16422.000000000004
70 ; 104300.35795849508 ; 282994.2285027217 ; 6085832.52334438 ; 1.6977478079972483E7 ; 16660.000000000004
71 ; 104529.97388940112 ; 284630.50829507364 ; 6190132.881302875 ; 1.7260472308475204E7 ; 16898.000000000004
72 ; 104570.57968903266 ; 286278.56620145147 ; 6294662.855192276 ; 1.7545102816770278E7 ; 17136.000000000004
73 ; 104773.94348271225 ; 287938.01122442796 ; 6399233.434881308 ; 1.783138138297173E7 ; 17374.000000000004
74 ; 104676.1919637298 ; 289608.4605602667 ; 6504007.37836402 ; 1.8119319394196156E7 ; 17612.000000000004
75 ; 105280.90634182286 ; 291289.5394950028 ; 6608683.5703277495 ; 1.8408927854756422E7 ; 17850.000000000004
76 ; 104943.17517841254 ; 292980.88129289565 ; 6713964.476669572 ; 1.8700217394251425E7 ; 18088.000000000004
77 ; 105522.22620823848 ; 294682.1270782305 ; 6818907.651847985 ; 1.899319827554432E7 ; 18326.000000000004
78 ; 104870.63299838854 ; 296392.9257113774 ; 6924429.8780562235 ; 1.928788040262255E7 ; 18564.000000000004
79 ; 105506.0674395525 ; 298112.93365994695 ; 7029300.511054612 ; 1.958427332833393E7 ; 18802.000000000004
80 ; 105362.96900854945 ; 299841.81486582133 ; 7134806.578494164 ; 1.9882386261993878E7 ; 19040.000000000004
81 ; 105350.85491740421 ; 301579.24060877686 ; 7240169.547502713 ; 2.0182228076859698E7 ; 19278.000000000004
82 ; 105496.48563134306 ; 303324.8893673561 ; 7345520.4024201175 ; 2.0483807317468476E7 ; 19516.000000000004
83 ; 105756.59614167688 ; 305078.44667759555 ; 7451016.8880514605 ; 2.0787132206835832E7 ; 19754.000000000004
84 ; 105527.97119360819 ; 306839.6049901597 ; 7556773.484193137 ; 2.1092210653513428E7 ; 19992.000000000004
85 ; 105558.22409427783 ; 308608.0635263867 ; 7662301.455386745 ; 2.1399050258503586E7 ; 20230.000000000004
86 ; 105332.82750746145 ; 310383.52813370386 ; 7767859.679481023 ; 2.1707658322029974E7 ; 20468.000000000004
87 ; 105248.44331731595 ; 312165.7111408283 ; 7873192.506988484 ; 2.201804185016368E7 ; 20706.000000000004
88 ; 105122.44588642172 ; 313954.3312131287 ; 7978440.9503058 ; 2.233020756130451E7 ; 20944.000000000004
89 ; 105133.03828466023 ; 315749.1132084863 ; 8083563.396192222 ; 2.2644161892517637E7 ; 21182.000000000004
90 ; 105043.83437620869 ; 317549.7880339587 ; 8188696.434476882 ; 2.2959911005726125E7 ; 21420.000000000004
91 ; 104808.86081620987 ; 319356.0925035176 ; 8293740.268853091 ; 2.3277460793760084E7 ; 21658.000000000004
92 ; 105010.28891553788 ; 321167.7691971021 ; 8398549.129669301 ; 2.35968168862636E7 ; 21896.000000000004
93 ; 104659.17075171228 ; 322984.56632119993 ; 8503559.418584839 ; 2.3917984655460704E7 ; 22134.000000000004
94 ; 104834.60537886279 ; 324806.23757114675 ; 8608218.589336552 ; 2.4240969221781906E7 ; 22372.000000000004
95 ; 103903.05213395049 ; 326632.5419953049 ; 8713053.194715414 ; 2.4565775459353052E7 ; 22610.000000000004
96 ; 104198.80586173804 ; 328463.2438612673 ; 8816956.246849366 ; 2.4892408001348358E7 ; 22848.000000000004
97 ; 103917.74867342404 ; 330298.1125242059 ; 8921155.052711103 ; 2.5220871245209623E7 ; 23086.000000000004
98 ; 104305.94456612888 ; 332136.9222974727 ; 9025072.801384527 ; 2.555116935773383E7 ; 23324.000000000004
99 ; 103705.36133512642 ; 333979.4523255377 ; 9129378.745950656 ; 2.5883306280031305E7 ; 23562.000000000004
100 ; 103341.6247410799 ; 335825.48645933735 ; 9233084.107285783 ; 2.6217285732356843E7 ; 23800.000000000004
101 ; 102848.27001502128 ; 337674.8131340936 ; 9336425.732026862 ; 2.655311121881618E7 ; 24038.000000000004
102 ; 103354.94482766186 ; 339527.22524964676 ; 9439274.002041884 ; 2.6890786031950273E7 ; 24276.000000000004
103 ; 102639.50246428746 ; 341382.5200533381 ; 9542628.946869547 ; 2.723031325719992E7 ; 24514.000000000004
104 ; 102435.26367542477 ; 343240.4990254663 ; 9645268.449333834 ; 2.757169577725326E7 ; 24752.000000000004
105 ; 102111.70289127028 ; 345100.967767332 ; 9747703.713009259 ; 2.7914936276278727E7 ; 24990.000000000004
106 ; 101816.6559947876 ; 346963.73589187633 ; 9849815.415900528 ; 2.826003724404606E7 ; 25228.000000000004
107 ; 101155.00752774326 ; 348828.6169169144 ; 9951632.071895316 ; 2.8607000979937933E7 ; 25466.000000000004
108 ; 101376.74359741769 ; 350695.4281609523 ; 1.0052787079423059E7 ; 2.8955829596854847E7 ; 25704.000000000004
109 ; 100855.64715754347 ; 352563.9906415765 ; 1.0154163823020477E7 ; 2.9306525025015797E7 ; 25942.000000000004
110 ; 100789.06468814277 ; 354434.12897639576 ; 1.0255019470178021E7 ; 2.9659089015657373E7 ; 26180.000000000004
111 ; 100152.10144639874 ; 356305.67128651 ; 1.0355808534866164E7 ; 3.001352314463377E7 ; 26418.000000000004
112 ; 99701.06202521473 ; 358178.4491024807 ; 1.0455960636312563E7 ; 3.036982881592028E7 ; 26656.000000000004
113 ; 99567.00700398607 ; 360052.2972727682 ; 1.0555661698337778E7 ; 3.072800726502276E7 ; 26894.000000000004
114 ; 98864.09335186551 ; 361927.05387460353 ; 1.0655228705341764E7 ; 3.1088059562295526E7 ; 27132.000000000004
115 ; 98318.59171703972 ; 363802.56012725533 ; 1.0754092798693629E7 ; 3.144998661617013E7 ; 27370.000000000004
116 ; 97868.7627011613 ; 365678.6603076533 ; 1.085241139041067E7 ; 3.1813789176297385E7 ; 27608.000000000004
117 ; 97883.68753976071 ; 367555.2016683255 ; 1.095028015311183E7 ; 3.217946783660504E7 ; 27846.000000000004
118 ; 96949.48022062806 ; 369432.0343576068 ; 1.104816384065159E7 ; 3.2547023038273364E7 ; 28084.000000000004
119 ; 96799.92258077463 ; 371309.0113420727 ; 1.114511332087222E7 ; 3.291645507263097E7 ; 28322.000000000004
120 ; 96574.52618333125 ; 373185.988331154 ; 1.1241913243452994E7 ; 3.3287764083973043E7 ; 28560.000000000004
121 ; 95967.24777748641 ; 375062.8237038847 ; 1.1338487769636326E7 ; 3.36609500723042E7 ; 28798.000000000004
122 ; 95082.9988822106 ; 376939.3784377367 ; 1.1434455017413812E7 ; 3.403601289600808E7 ; 29036.000000000004
123 ; 94738.37546710468 ; 378815.51603949285 ; 1.1529538016296022E7 ; 3.441295227444582E7 ; 29274.000000000004
124 ; 94303.28951838917 ; 380691.1024781115 ; 1.1624276391763126E7 ; 3.479176779048531E7 ; 29512.000000000004
125 ; 93818.87844240383 ; 382566.006119534 ; 1.1718579681281516E7 ; 3.517245889296342E7 ; 29750.000000000004
126 ; 93245.43494883087 ; 384440.0976633879 ; 1.181239855972392E7 ; 3.555502489908295E7 ; 29988.000000000004
127 ; 92466.9812121515 ; 386313.25008153723 ; 1.190564399467275E7 ; 3.593946499674634E7 ; 30226.000000000004
128 ; 91919.08655783853 ; 388185.33855843486 ; 1.1998110975884901E7 ; 3.632577824682788E7 ; 30464.000000000004
129 ; 91075.19910293898 ; 390056.240433227 ; 1.209003006244274E7 ; 3.671396358538631E7 ; 30702.000000000004
130 ; 90745.40999948878 ; 391925.83514356625 ; 1.2181105261545679E7 ; 3.710401982581954E7 ; 30940.000000000004
131 ; 89647.18535005442 ; 393794.0041710859 ; 1.2271850671545167E7 ; 3.74959456609631E7 ; 31178.000000000004
132 ; 89400.60935732469 ; 395660.6309884907 ; 1.2361497856895221E7 ; 3.788973966513419E7 ; 31416.000000000004
133 ; 88787.27145131465 ; 397525.60100822005 ; 1.2450898466252547E7 ; 3.8285400296122685E7 ; 31654.000000000004
134 ; 87934.17457878856 ; 399388.8015326391 ; 1.2539685737703862E7 ; 3.868292589713091E7 ; 31892.000000000004
135 ; 87427.26868334618 ; 401250.1217057159 ; 1.262761991228265E7 ; 3.908231469866355E7 ; 32130.000000000004
136 ; 87116.92929967758 ; 403109.4524661413 ; 1.2715047180965995E7 ; 3.9483564820369266E7 ; 32368.000000000004
137 ; 85802.24104606229 ; 404966.6865018519 ; 1.2802164110265672E7 ; 3.98866742728354E7 ; 32606.000000000004
138 ; 85511.40161708667 ; 406821.7182059131 ; 1.2887966351311734E7 ; 4.029164095933726E7 ; 32844.00000000001
139 ; 84382.82656890173 ; 408674.44363372645 ; 1.2973477752928821E7 ; 4.069846267754317E7 ; 33082.00000000001
140 ; 83607.42796812663 ; 410524.76046151837 ; 1.3057860579497723E7 ; 4.11071371211769E7 ; 33320.00000000001
141 ; 82963.82837940016 ; 412372.56794607645 ; 1.3141468007465849E7 ; 4.1517661881638415E7 ; 33558.00000000001
142 ; 82342.55431238856 ; 414217.76688569307 ; 1.3224431835845249E7 ; 4.193003444958449E7 ; 33796.00000000001
143 ; 81402.2647481171 ; 416060.2595822836 ; 1.3306774390157638E7 ; 4.234425221647018E7 ; 34034.00000000001
144 ; 80786.08547259882 ; 417899.9498046414 ; 1.3388176654905755E7 ; 4.276031247605246E7 ; 34272.00000000001
145 ; 80554.42777422233 ; 419736.7427527971 ; 1.3468962740378354E7 ; 4.3178212425857104E7 ; 34510.00000000001
146 ; 80417.70225031473 ; 421570.5450234483 ; 1.3549517168152576E7 ; 4.35979491686099E7 ; 34748.00000000001
147 ; 79646.38397515497 ; 423401.2645764276 ; 1.3629934870402891E7 ; 4.401951971363335E7 ; 34986.00000000001
148 ; 79625.4386016633 ; 425228.81070217764 ; 1.3709581254378047E7 ; 4.444292097820978E7 ; 35224.00000000001
149 ; 79372.22514267804 ; 427053.0939902014 ; 1.378920669297971E7 ; 4.486814978891195E7 ; 35462.00000000001
150 ; 79339.79250631573 ; 428874.0262984599 ; 1.3868578918122388E7 ; 4.529520288290215E7 ; 35700.00000000001
151 ; 79239.16503615853 ; 430691.52072368644 ; 1.3947918710628703E7 ; 4.5724076909200616E7 ; 35938.00000000001
152 ; 79327.40895327547 ; 432505.49157259084 ; 1.4027157875664862E7 ; 4.61547684299243E7 ; 36176.00000000001
153 ; 78257.53075732055 ; 434315.8543339251 ; 1.4106485284618137E7 ; 4.658727392149689E7 ; 36414.00000000001
154 ; 77777.27160657315 ; 436122.5256513849 ; 1.4184742815375458E7 ; 4.702158977583081E7 ; 36652.00000000001
155 ; 77920.85080227024 ; 437925.4232973209 ; 1.4262520086982032E7 ; 4.74577123014822E7 ; 36890.00000000001
156 ; 77462.17497200912 ; 439724.466147235 ; 1.4340440937784303E7 ; 4.7895637724779524E7 ; 37128.00000000001
157 ; 77430.53697519668 ; 441519.5741550366 ; 1.4417903112756312E7 ; 4.833536219092676E7 ; 37366.00000000001
158 ; 77231.50701417892 ; 443310.6683290366 ; 1.449533364973151E7 ; 4.87768817650818E7 ; 37604.00000000001
159 ; 76618.83952778499 ; 445097.6707086556 ; 1.4572565156745689E7 ; 4.922019243341084E7 ; 37842.00000000001
160 ; 76887.31309737425 ; 446880.50434182433 ; 1.4649183996273475E7 ; 4.9665290104119495E7 ; 38080.00000000001
161 ; 76554.16624973867 ; 448659.0932630546 ; 1.472607130937085E7 ; 5.011217060846132E7 ; 38318.00000000001
162 ; 76153.94252280972 ; 450433.36247216095 ; 1.4802625475620588E7 ; 5.056082970172437E7 ; 38556.00000000001
163 ; 75635.77591634986 ; 452203.2379136116 ; 1.4878779418143397E7 ; 5.1011263064196534E7 ; 38794.00000000001
164 ; 75665.72565463901 ; 453968.6464564905 ; 1.4954415194059746E7 ; 5.146346630211014E7 ; 39032.00000000001
165 ; 75143.94928336621 ; 455729.5158750504 ; 1.5030080919714386E7 ; 5.191743494856663E7 ; 39270.00000000001
166 ; 74721.8546897234 ; 457485.7748298396 ; 1.5105224868997753E7 ; 5.237316446444168E7 ; 39508.00000000001
167 ; 74734.4266172052 ; 459237.3528493841 ; 1.5179946723687476E7 ; 5.283065023927152E7 ; 39746.00000000001
168 ; 74310.70899548844 ; 460984.18031240837 ; 1.525468115030468E7 ; 5.328988759212091E7 ; 39984.00000000001
169 ; 73743.57923068685 ; 462726.1884305773 ; 1.5328991859300168E7 ; 5.375087177243332E7 ; 40222.00000000001
170 ; 73837.79611872608 ; 464463.30923174456 ; 1.5402735438530855E7 ; 5.4213597960863896E7 ; 40460.00000000001
171 ; 73768.02002470574 ; 466195.4755436907 ; 1.5476573234649582E7 ; 5.467806127009564E7 ; 40698.00000000001
172 ; 73150.32166045894 ; 467922.6209783362 ; 1.5550341254674288E7 ; 5.514425674563933E7 ; 40936.00000000001
173 ; 72720.90197762386 ; 469644.67991641455 ; 1.5623491576334747E7 ; 5.5612179366617665E7 ; 41174.00000000001
174 ; 72673.59385205054 ; 469771.74869886466 ; 1.5696212478312371E7 ; 5.608182404653408E7 ; 41412.00000000001
175 ; 72992.27876983615 ; 469771.74869886466 ; 1.5768886072164422E7 ; 5.6551595795232944E7 ; 41650.00000000001
176 ; 72778.99492107 ; 469771.74869886466 ; 1.5841878350934258E7 ; 5.702136754393181E7 ; 41888.00000000001
177 ; 73132.70423723958 ; 469771.74869886466 ; 1.5914657345855327E7 ; 5.749113929263068E7 ; 42126.00000000001
178 ; 73380.52773589669 ; 469771.74869886466 ; 1.5987790050092567E7 ; 5.796091104132955E7 ; 42364.00000000001
179 ; 72942.29106015511 ; 469771.74869886466 ; 1.6061170577828463E7 ; 5.8430682790028416E7 ; 42602.00000000001
180 ; 73062.38194293762 ; 469771.74869886466 ; 1.6134112868888618E7 ; 5.890045453872728E7 ; 42840.00000000001
181 ; 72882.60748251781 ; 469771.74869886466 ; 1.6207175250831556E7 ; 5.937022628742615E7 ; 43078.00000000001
