CSV File for the Network on Day 105
1 - Minute m 
2 - Power Consumed at minute m 
3 - Power Produced at minute m 
4 - Energy Consumed since the beginning of the day 
5 - Energy Produced since the beginning of the day 
6 - Energy Lost since the beginning of the day 
 
0 ; 4579421.160103683 ; 2.1110623758950627E8 ; 0.0 ; 0.0 ; 0.0
1 ; 4583748.396543182 ; 2.114121482832076E8 ; 4579421.160103683 ; 2.1110623758950627E8 ; 356.14
2 ; 4587842.444294964 ; 2.1233562174943805E8 ; 9163169.556646865 ; 4.2251838587271386E8 ; 712.28
3 ; 4592849.235052969 ; 2.138766608174476E8 ; 1.3751012000941828E7 ; 6.348540076221519E8 ; 1068.42
4 ; 4596266.432678768 ; 2.1603526802095282E8 ; 1.8343861235994797E7 ; 8.487306684395995E8 ; 1424.56
5 ; 4600932.433906933 ; 2.1881144558470732E8 ; 2.2940127668673567E7 ; 1.0647659364605523E9 ; 1780.6999999999998
6 ; 4607511.804523299 ; 2.2220519541249406E8 ; 2.7541060102580503E7 ; 1.2835773820452597E9 ; 2136.8399999999997
7 ; 4609294.191020843 ; 2.262165190766902E8 ; 3.2148571907103803E7 ; 1.5057825774577537E9 ; 2492.9799999999996
8 ; 4614186.7426054645 ; 2.3084541780953604E8 ; 3.6757866098124646E7 ; 1.7319990965344439E9 ; 2849.1199999999994
9 ; 4617364.057192573 ; 2.3609189249622178E8 ; 4.137205284073011E7 ; 1.9628445143439798E9 ; 3205.2599999999993
10 ; 4620927.723260607 ; 2.419559436698823E8 ; 4.598941689792268E7 ; 2.1989364068402014E9 ; 3561.399999999999
11 ; 4623589.749414271 ; 2.484375715085675E8 ; 5.061034462118328E7 ; 2.4408923505100837E9 ; 3917.539999999999
12 ; 4626306.760065395 ; 2.5553677583422744E8 ; 5.5233934370597556E7 ; 2.689329922018651E9 ; 4273.679999999999
13 ; 4630268.261865228 ; 2.6325355611372718E8 ; 5.986024113066295E7 ; 2.9448666978528786E9 ; 4629.82
14 ; 4634464.306301455 ; 2.715879114618768E8 ; 6.449050939252818E7 ; 3.2081202539666057E9 ; 4985.96
15 ; 4636437.052441957 ; 2.805398406464357E8 ; 6.912497369882964E7 ; 3.4797081654284825E9 ; 5342.1
16 ; 4640501.607218168 ; 2.901093420950269E8 ; 7.376141075127159E7 ; 3.7602480060749183E9 ; 5698.240000000001
17 ; 4644055.659754878 ; 3.0029641390386736E8 ; 7.840191235848975E7 ; 4.0503573481699452E9 ; 6054.380000000001
18 ; 4645718.295250945 ; 3.111010538482035E8 ; 8.304596801824462E7 ; 4.3506537620738125E9 ; 6410.520000000001
19 ; 4650646.43114175 ; 3.225232593943187E8 ; 8.769168631349558E7 ; 4.661754815922016E9 ; 6766.660000000002
20 ; 4654846.703967842 ; 3.34563027712963E8 ; 9.234233274463733E7 ; 4.984278075316335E9 ; 7122.800000000002
21 ; 4659231.567731572 ; 3.472203556940424E8 ; 9.699717944860516E7 ; 5.318841103029298E9 ; 7478.940000000002
22 ; 4662816.151764492 ; 3.604952399623956E8 ; 1.0165641101633674E8 ; 5.66606145872334E9 ; 7835.080000000003
23 ; 4665130.030460962 ; 3.743876768944788E8 ; 1.0631922716810124E8 ; 6.026556698685736E9 ; 8191.220000000003
24 ; 4668770.133393982 ; 3.888976626357753E8 ; 1.109843571985622E8 ; 6.4009443755802145E9 ; 8547.360000000002
25 ; 4673515.401297984 ; 4.014012749151175E8 ; 1.156531273319562E8 ; 6.78984203821599E9 ; 8903.500000000002
26 ; 4673680.489446524 ; 4.014056051367973E8 ; 1.2032664273325418E8 ; 7.191243313131107E9 ; 9259.640000000001
27 ; 4678766.513743358 ; 4.0141018744888556E8 ; 1.250003232227007E8 ; 7.592648918267904E9 ; 9615.78
28 ; 4682450.772650307 ; 4.014150172553177E8 ; 1.2967908973644406E8 ; 7.99405910571679E9 ; 9971.92
29 ; 4682545.580767516 ; 4.0142008982080203E8 ; 1.3436154050909436E8 ; 8.395474122972108E9 ; 10328.06
30 ; 4686915.818002449 ; 4.01425400288971E8 ; 1.3904408608986187E8 ; 8.79689421279291E9 ; 10684.199999999999
31 ; 4689520.281153053 ; 4.014309437001411E8 ; 1.4373100190786433E8 ; 9.19831961308188E9 ; 11040.339999999998
32 ; 4692884.509288494 ; 4.014367150085658E8 ; 1.484205221890174E8 ; 9.599750556782022E9 ; 11396.479999999998
33 ; 4695617.406500337 ; 4.01442709099085E8 ; 1.5311340669830588E8 ; 1.0001187271790588E10 ; 11752.619999999997
34 ; 4698928.557027264 ; 4.0144892080308616E8 ; 1.578090241048062E8 ; 1.0402629980889673E10 ; 12108.759999999997
35 ; 4700190.893516473 ; 4.0145534491370976E8 ; 1.6250795266183347E8 ; 1.0804078901692759E10 ; 12464.899999999996
36 ; 4701489.752295837 ; 4.01461976200243E8 ; 1.6720814355534995E8 ; 1.1205534246606468E10 ; 12821.039999999995
37 ; 4705091.074481445 ; 4.0146880942166317E8 ; 1.719096333076458E8 ; 1.1606996222806711E10 ; 13177.179999999995
38 ; 4710219.279571368 ; 4.014758393393003E8 ; 1.7661472438212726E8 ; 1.2008465032228374E10 ; 13533.319999999994
39 ; 4710515.408915127 ; 4.014830607286048E8 ; 1.813249436616986E8 ; 1.2409940871567675E10 ; 13889.459999999994
40 ; 4713867.930980836 ; 4.014904683900134E8 ; 1.8603545907061374E8 ; 1.281142393229628E10 ; 14245.599999999993
41 ; 4714713.113843753 ; 4.0149805715891737E8 ; 1.9074932700159457E8 ; 1.3212914400686293E10 ; 14601.739999999993
42 ; 4716859.77648404 ; 4.015058219147463E8 ; 1.954640401154383E8 ; 1.361441245784521E10 ; 14957.879999999992
43 ; 4718928.949628062 ; 4.015137575891857E8 ; 2.0018089989192235E8 ; 1.4015918279759956E10 ; 15314.019999999991
44 ; 4721855.69050652 ; 4.0152185917355585E8 ; 2.048998288415504E8 ; 1.4417432037349142E10 ; 15670.15999999999
45 ; 4723123.506251466 ; 4.0153012172538006E8 ; 2.0962168453205693E8 ; 1.4818953896522697E10 ; 16026.29999999999
46 ; 4724553.0353881745 ; 4.0153854037418056E8 ; 2.1434480803830838E8 ; 1.5220484018248077E10 ; 16382.43999999999
47 ; 4727009.876883236 ; 4.0154711032653695E8 ; 2.1906936107369655E8 ; 1.5622022558622257E10 ; 16738.57999999999
48 ; 4731092.674586494 ; 4.0155582687044847E8 ; 2.237963709505798E8 ; 1.6023569668948793E10 ; 17094.71999999999
49 ; 4730265.2957932 ; 4.0156468537904227E8 ; 2.285274636251663E8 ; 1.6425125495819242E10 ; 17450.85999999999
50 ; 4732809.808233495 ; 4.015736813136693E8 ; 2.332577289209595E8 ; 1.6826690181198284E10 ; 17806.99999999999
51 ; 4733014.13661045 ; 4.015828102264309E8 ; 2.37990538729193E8 ; 1.7228263862511955E10 ; 18163.13999999999
52 ; 4733977.255736375 ; 4.0159206776217806E8 ; 2.4272355286580345E8 ; 1.7629846672738388E10 ; 18519.279999999988
53 ; 4735953.367207939 ; 4.0160144966002566E8 ; 2.4745753012153983E8 ; 1.8031438740500565E10 ; 18875.419999999987
54 ; 4737491.834913843 ; 4.0161095175442195E8 ; 2.5219348348874778E8 ; 1.843304019016059E10 ; 19231.559999999987
55 ; 4734952.272231381 ; 4.0162056997581244E8 ; 2.5693097532366163E8 ; 1.8834651141915012E10 ; 19587.699999999986
56 ; 4737928.350196795 ; 4.016303003509359E8 ; 2.61665927595893E8 ; 1.9236271711890823E10 ; 19943.839999999986
57 ; 4740272.263579188 ; 4.0164013900278866E8 ; 2.664038559460898E8 ; 1.963790201224176E10 ; 20299.979999999985
58 ; 4740252.781447435 ; 4.016500821502913E8 ; 2.71144128209669E8 ; 2.003954215124455E10 ; 20656.119999999984
59 ; 4742485.61226847 ; 4.016601261076894E8 ; 2.758843809911164E8 ; 2.044119223339484E10 ; 21012.259999999984
60 ; 4746461.997326899 ; 4.0167026728371876E8 ; 2.8062686660338485E8 ; 2.084285235950253E10 ; 21368.399999999983
61 ; 4745280.649786777 ; 4.016805021805637E8 ; 2.8537332860071176E8 ; 2.1244522626786247E10 ; 21724.539999999983
62 ; 4747946.833953471 ; 4.016908273926337E8 ; 2.9011860925049853E8 ; 2.1646203128966812E10 ; 22080.679999999982
63 ; 4747958.971450295 ; 4.01701239605183E8 ; 2.9486655608445203E8 ; 2.2047893956359447E10 ; 22436.81999999998
64 ; 4750286.3209654465 ; 4.0171173559279644E8 ; 2.996145150559023E8 ; 2.244959519596463E10 ; 22792.95999999998
65 ; 4749879.971003502 ; 4.017223122177596E8 ; 3.043648013768678E8 ; 2.2851306931557426E10 ; 23149.09999999998
66 ; 4751928.108901756 ; 4.0173296642833483E8 ; 3.0911468134787124E8 ; 2.3253029243775185E10 ; 23505.23999999998
67 ; 4754540.180950995 ; 4.0174369525695825E8 ; 3.13866609456773E8 ; 2.3654762210203518E10 ; 23861.37999999998
68 ; 4753851.956436263 ; 4.017544958183738E8 ; 3.18621149637724E8 ; 2.4056505905460476E10 ; 24217.51999999998
69 ; 4754337.395050325 ; 4.017653653077188E8 ; 3.2337500159416026E8 ; 2.445826040127885E10 ; 24573.659999999978
70 ; 4755541.207265225 ; 4.0177630099857295E8 ; 3.281293389892106E8 ; 2.486002576658657E10 ; 24929.799999999977
71 ; 4755981.474479398 ; 4.017873002409819E8 ; 3.328848801964758E8 ; 2.5261802067585144E10 ; 25285.939999999977
72 ; 4756415.089285519 ; 4.017983604594668E8 ; 3.376408616709552E8 ; 2.5663589367826126E10 ; 25642.079999999976
73 ; 4757503.760797817 ; 4.0180947915102714E8 ; 3.423972767602407E8 ; 2.606538772828559E10 ; 25998.219999999976
74 ; 4757399.250416192 ; 4.0182065388314605E8 ; 3.471547805210385E8 ; 2.646719720743662E10 ; 26354.359999999975
75 ; 4757803.259016347 ; 4.018318822918041E8 ; 3.519121797714547E8 ; 2.6869017861319763E10 ; 26710.499999999975
76 ; 4757944.822933644 ; 4.0184316207950866E8 ; 3.56669983030471E8 ; 2.727084974361157E10 ; 27066.639999999974
77 ; 4758741.6729968535 ; 4.018544910133437E8 ; 3.6142792785340464E8 ; 2.767269290569108E10 ; 27422.779999999973
78 ; 4760560.0739232525 ; 4.018658669230436E8 ; 3.661866695264015E8 ; 2.8074547396704422E10 ; 27778.919999999973
79 ; 4757970.73528789 ; 4.018772876990977E8 ; 3.7094722960032475E8 ; 2.8476413263627464E10 ; 28135.059999999972
80 ; 4760113.611181557 ; 4.018887512908852E8 ; 3.7570520033561265E8 ; 2.887829055132656E10 ; 28491.19999999997
81 ; 4762039.87038082 ; 4.0190025570484656E8 ; 3.804653139467942E8 ; 2.9280179302617447E10 ; 28847.33999999997
82 ; 4760680.251492157 ; 4.019117990026915E8 ; 3.8522735381717503E8 ; 2.9682079558322292E10 ; 29203.47999999997
83 ; 4762798.65169608 ; 4.0192337929964656E8 ; 3.899880340686672E8 ; 3.0083991357324986E10 ; 29559.61999999997
84 ; 4763447.13644279 ; 4.0193499476274353E8 ; 3.9475083272036326E8 ; 3.0485914736624634E10 ; 29915.75999999997
85 ; 4763745.255255339 ; 4.0194664360914946E8 ; 3.9951427985680604E8 ; 3.088784973138738E10 ; 30271.89999999997
86 ; 4763642.4257393265 ; 4.0195832410453975E8 ; 4.042780251120614E8 ; 3.128979637499653E10 ; 30628.039999999968
87 ; 4764136.310040975 ; 4.0197003456151426E8 ; 4.090416675378007E8 ; 3.1691754699101067E10 ; 30984.179999999968
88 ; 4763333.089191338 ; 4.019817733380573E8 ; 4.138058038478417E8 ; 3.2093724733662582E10 ; 31340.319999999967
89 ; 4763964.20769071 ; 4.0199353883604103E8 ; 4.18569136937033E8 ; 3.249570650700064E10 ; 31696.459999999966
90 ; 4764284.74704439 ; 4.0200532949977314E8 ; 4.233331011447237E8 ; 3.289770004583668E10 ; 32052.599999999966
91 ; 4763834.417585249 ; 4.02017143814587E8 ; 4.280973858917681E8 ; 3.3299705375336456E10 ; 32408.739999999965
92 ; 4763663.312888443 ; 4.020289803054757E8 ; 4.3286122030935335E8 ; 3.3701722519151043E10 ; 32764.879999999965
93 ; 4765358.409031375 ; 4.020408375357683E8 ; 4.376248836222418E8 ; 3.410375149945652E10 ; 33121.01999999997
94 ; 4762778.770263318 ; 4.020527141058477E8 ; 4.423902420312732E8 ; 3.450579233699229E10 ; 33477.15999999997
95 ; 4766816.323399265 ; 4.0206460865191066E8 ; 4.471530208015365E8 ; 3.490784505109814E10 ; 33833.29999999997
96 ; 4763724.138729079 ; 4.020765198447673E8 ; 4.5191983712493575E8 ; 3.5309909659750046E10 ; 34189.439999999966
97 ; 4761919.081832633 ; 4.020884463886807E8 ; 4.5668356126366484E8 ; 3.571198617959481E10 ; 34545.579999999965
98 ; 4762638.368208098 ; 4.0210038702024573E8 ; 4.614454803454975E8 ; 3.611407462598349E10 ; 34901.719999999965
99 ; 4761899.474172009 ; 4.021123405073049E8 ; 4.662081187137056E8 ; 3.651617501300374E10 ; 35257.859999999964
100 ; 4762858.900384514 ; 4.021243056479019E8 ; 4.709700181878776E8 ; 3.691828735351104E10 ; 35613.99999999996
101 ; 4762547.663401155 ; 4.021362812692708E8 ; 4.757328770882621E8 ; 3.732041165915894E10 ; 35970.13999999996
102 ; 4764068.676790831 ; 4.0214826622686034E8 ; 4.804954247516632E8 ; 3.7722547940428215E10 ; 36326.27999999996
103 ; 4764689.534508684 ; 4.0216025940339243E8 ; 4.8525949342845404E8 ; 3.8124696206655075E10 ; 36682.41999999996
104 ; 4760676.7226065025 ; 4.021722597079531E8 ; 4.9002418296296275E8 ; 3.8526856466058464E10 ; 37038.55999999996
105 ; 4761267.82616713 ; 4.021842660751167E8 ; 4.947848596855692E8 ; 3.892902872576642E10 ; 37394.69999999996
106 ; 4763336.836455292 ; 4.0219627746409965E8 ; 4.9954612751173633E8 ; 3.933121299184154E10 ; 37750.83999999996
107 ; 4760701.970357704 ; 4.022082928579456E8 ; 5.043094643481916E8 ; 3.973340926930563E10 ; 38106.97999999996
108 ; 4759589.797835309 ; 4.022203112627392E8 ; 5.0907016631854934E8 ; 4.013561756216358E10 ; 38463.11999999996
109 ; 4761354.935181761 ; 4.0223233170684767E8 ; 5.138297561163846E8 ; 4.053783787342632E10 ; 38819.25999999996
110 ; 4759231.859424772 ; 4.0224435324019086E8 ; 5.1859111105156636E8 ; 4.094007020513317E10 ; 39175.39999999996
111 ; 4758161.691036231 ; 4.02256374933536E8 ; 5.2335034291099113E8 ; 4.134231455837336E10 ; 39531.53999999996
112 ; 4757371.979438586 ; 4.022683958778194E8 ; 5.2810850460202736E8 ; 4.174457093330689E10 ; 39887.67999999996
113 ; 4756995.866551211 ; 4.0228041518349195E8 ; 5.3286587658146596E8 ; 4.2146839329184715E10 ; 40243.819999999956
114 ; 4757061.553515641 ; 4.022924319798881E8 ; 5.376228724480171E8 ; 4.254911974436821E10 ; 40599.959999999955
115 ; 4755814.177822934 ; 4.0230444541461873E8 ; 5.423799340015328E8 ; 4.29514121763481E10 ; 40956.099999999955
116 ; 4753083.903157676 ; 4.02316454652985E8 ; 5.471357481793557E8 ; 4.335371662176272E10 ; 41312.239999999954
117 ; 4754202.6456057 ; 4.023284588774141E8 ; 5.518888320825135E8 ; 4.37560330764157E10 ; 41668.379999999954
118 ; 4752089.5991496015 ; 4.0234045728691566E8 ; 5.566430347281191E8 ; 4.415836153529311E10 ; 42024.51999999995
119 ; 4752162.242932494 ; 4.02352449096557E8 ; 5.613951243272687E8 ; 4.456070199258003E10 ; 42380.65999999995
120 ; 4751608.409935358 ; 4.023644335369589E8 ; 5.661472865702012E8 ; 4.496305444167659E10 ; 42736.79999999995
121 ; 4750930.495015962 ; 4.0237640985380805E8 ; 5.708988949801365E8 ; 4.536541887521355E10 ; 43092.93999999995
122 ; 4751857.844272662 ; 4.023883773073887E8 ; 5.756498254751525E8 ; 4.576779528506735E10 ; 43449.07999999995
123 ; 4748121.044031207 ; 4.024003351721306E8 ; 5.804016833194251E8 ; 4.617018366237474E10 ; 43805.21999999995
124 ; 4746764.999918718 ; 4.024122827361728E8 ; 5.851498043634564E8 ; 4.6572583997546875E10 ; 44161.35999999995
125 ; 4744889.759682853 ; 4.024242193009447E8 ; 5.898965693633751E8 ; 4.697499628028305E10 ; 44517.49999999995
126 ; 4741098.746008489 ; 4.0243614418076074E8 ; 5.94641459123058E8 ; 4.737742049958399E10 ; 44873.63999999995
127 ; 4741511.360146816 ; 4.0244805670243084E8 ; 5.993825578690665E8 ; 4.7779856643764755E10 ; 45229.77999999995
128 ; 4738231.707265506 ; 4.024599562048843E8 ; 6.041240692292132E8 ; 4.8182304700467186E10 ; 45585.91999999995
129 ; 4735429.081131326 ; 4.024718420388073E8 ; 6.088623009364787E8 ; 4.858476465667207E10 ; 45942.05999999995
130 ; 4732768.340218468 ; 4.0248371356629384E8 ; 6.135977300176101E8 ; 4.8987236498710884E10 ; 46298.199999999946
131 ; 4730649.572264519 ; 4.02495570160509E8 ; 6.183304983578285E8 ; 4.9389720212277176E10 ; 46654.339999999946
132 ; 4727628.033655878 ; 4.02507411205364E8 ; 6.23061147930093E8 ; 4.979221578243768E10 ; 47010.479999999945
133 ; 4726078.657095608 ; 4.0251923609520304E8 ; 6.277887759637489E8 ; 5.019472319364304E10 ; 47366.619999999944
134 ; 4725656.380869186 ; 4.0253104423450196E8 ; 6.325148546208445E8 ; 5.059724242973824E10 ; 47722.759999999944
135 ; 4726935.32019591 ; 4.0254283503757644E8 ; 6.372405110017136E8 ; 5.099977347397275E10 ; 48078.89999999994
136 ; 4725744.494531798 ; 4.0255460792830175E8 ; 6.419674463219095E8 ; 5.140231630901032E10 ; 48435.03999999994
137 ; 4723555.128243291 ; 4.025663623398415E8 ; 6.466931908164413E8 ; 5.180487091693862E10 ; 48791.17999999994
138 ; 4721600.822408864 ; 4.0257809771438694E8 ; 6.514167459446846E8 ; 5.2207437279278465E10 ; 49147.31999999994
139 ; 4719432.813014825 ; 4.0258981350290436E8 ; 6.561383467670935E8 ; 5.261001537699285E10 ; 49503.45999999994
140 ; 4716647.991314347 ; 4.0260150916489255E8 ; 6.608577795801084E8 ; 5.301260519049576E10 ; 49859.59999999994
141 ; 4715802.494008155 ; 4.026131841681479E8 ; 6.655744275714227E8 ; 5.341520669966065E10 ; 50215.73999999994
142 ; 4714721.765458317 ; 4.0262483798853827E8 ; 6.702902300654309E8 ; 5.38178198838288E10 ; 50571.87999999994
143 ; 4712675.924527218 ; 4.0263647010978436E8 ; 6.750049518308892E8 ; 5.422044472181734E10 ; 50928.01999999994
144 ; 4709441.779454223 ; 4.0264808002324903E8 ; 6.797176277554164E8 ; 5.4623081191927124E10 ; 51284.15999999994
145 ; 4709356.488943592 ; 4.02659667227734E8 ; 6.844270695348706E8 ; 5.502572927195037E10 ; 51640.29999999994
146 ; 4708371.166692642 ; 4.0267123122928333E8 ; 6.891364260238142E8 ; 5.542838893917811E10 ; 51996.43999999994
147 ; 4710442.902692444 ; 4.0268277154099375E8 ; 6.938447971905068E8 ; 5.5831060170407394E10 ; 52352.579999999936
148 ; 4708892.652981663 ; 4.0269428768283176E8 ; 6.985552400931993E8 ; 5.623374294194839E10 ; 52708.719999999936
149 ; 4706098.987363297 ; 4.027057791814569E8 ; 7.032641327461809E8 ; 5.663643722963122E10 ; 53064.859999999935
150 ; 4707489.029644493 ; 4.027172455700511E8 ; 7.079702317335442E8 ; 5.7039143008812675E10 ; 53420.999999999935
151 ; 4707825.453630602 ; 4.0272868638815355E8 ; 7.126777207631887E8 ; 5.744186025438273E10 ; 53777.139999999934
152 ; 4706265.9581218045 ; 4.027401011815021E8 ; 7.173855462168193E8 ; 5.784458894077088E10 ; 54133.27999999993
153 ; 4706285.013086929 ; 4.0275148950187904E8 ; 7.220918121749411E8 ; 5.8247329041952385E10 ; 54489.41999999993
154 ; 4706478.808720278 ; 4.0276285090696275E8 ; 7.26798097188028E8 ; 5.865008053145426E10 ; 54845.55999999993
155 ; 4706492.180457013 ; 4.027741849601842E8 ; 7.315045759967482E8 ; 5.905284338236122E10 ; 55201.69999999993
156 ; 4705501.665746504 ; 4.027854912305882E8 ; 7.362110681772052E8 ; 5.94556175673214E10 ; 55557.83999999993
157 ; 4707706.432059809 ; 4.027967692926996E8 ; 7.409165698429517E8 ; 5.9858403058551994E10 ; 55913.97999999993
158 ; 4705980.834051794 ; 4.0280801872639334E8 ; 7.456242762750114E8 ; 6.0261199827844696E10 ; 56270.11999999993
159 ; 4708459.894847392 ; 4.0281923911677027E8 ; 7.503302571090633E8 ; 6.066400784657109E10 ; 56626.25999999993
160 ; 4705012.40133374 ; 4.0283043005403507E8 ; 7.550387170039107E8 ; 6.106682708568786E10 ; 56982.39999999993
161 ; 4706247.436864922 ; 4.0284159113338E8 ; 7.597437294052444E8 ; 6.146965751574189E10 ; 57338.53999999993
162 ; 4703750.268645127 ; 4.0285272195487183E8 ; 7.644499768421093E8 ; 6.187249910687527E10 ; 57694.67999999993
163 ; 4703037.133360966 ; 4.028638221233423E8 ; 7.691537271107545E8 ; 6.227535182883014E10 ; 58050.81999999993
164 ; 4703571.518201451 ; 4.0287489124828255E8 ; 7.738567642441155E8 ; 6.267821565095348E10 ; 58406.95999999993
165 ; 4701673.667906922 ; 4.028859289437409E8 ; 7.78560335762317E8 ; 6.308109054220177E10 ; 58763.099999999926
166 ; 4701237.325984465 ; 4.028969348282242E8 ; 7.832620094302238E8 ; 6.348397647114551E10 ; 59119.239999999925
167 ; 4698931.962827345 ; 4.029079085246018E8 ; 7.879632467562083E8 ; 6.388687340597373E10 ; 59475.379999999925
168 ; 4701257.068216196 ; 4.029188496600137E8 ; 7.926621787190356E8 ; 6.428978131449834E10 ; 59831.519999999924
169 ; 4699818.876232103 ; 4.0292975786578023E8 ; 7.973634357872518E8 ; 6.469270016415835E10 ; 60187.65999999992
170 ; 4699953.803298903 ; 4.0294063277731633E8 ; 8.02063254663484E8 ; 6.509562992202413E10 ; 60543.79999999992
171 ; 4699392.476884815 ; 4.029514740340475E8 ; 8.067632084667829E8 ; 6.5498570554801445E10 ; 60899.93999999992
172 ; 4698281.644015238 ; 4.029622812793285E8 ; 8.114626009436678E8 ; 6.5901522028835495E10 ; 61256.07999999992
173 ; 4699216.89985349 ; 4.0297305416036534E8 ; 8.16160882587683E8 ; 6.630448431011482E10 ; 61612.21999999992
174 ; 4698851.702106235 ; 4.02983792328139E8 ; 8.208600994875364E8 ; 6.6707457364275185E10 ; 61968.35999999992
175 ; 4701313.156291698 ; 4.029944954373323E8 ; 8.255589511896427E8 ; 6.7110441156603325E10 ; 62324.49999999992
176 ; 4701297.04313463 ; 4.030051631462586E8 ; 8.302602643459344E8 ; 6.751343565204066E10 ; 62680.63999999992
177 ; 4701658.71147647 ; 4.0301579511679304E8 ; 8.349615613890691E8 ; 6.791644081518691E10 ; 63036.77999999992
