CSV File for the Network on Day 246
1 - Minute m 
2 - Power Consumed at minute m 
3 - Power Produced at minute m 
4 - Energy Consumed since the beginning of the day 
5 - Energy Produced since the beginning of the day 
6 - Energy Lost since the beginning of the day 
 
No Production city : 2, Producer : 1
No Production city : 4, Producer : 1
No Production city : 4, Producer : 1
 
0 ; 31612.9540320153 ; 111653.16975627934 ; 0.0 ; 0.0 ; 0.0
1 ; 33296.9327317123 ; 111166.75026907069 ; 31612.9540320153 ; 111653.16975627934 ; 238.00000000000003
2 ; 34748.32742370864 ; 110726.73106521738 ; 64909.8867637276 ; 222819.92002535003 ; 476.00000000000006
3 ; 35726.19864353206 ; 110334.59518501705 ; 99658.21418743624 ; 333546.6510905674 ; 714.0000000000001
4 ; 37692.481760818315 ; 109991.71640497776 ; 135384.4128309683 ; 443881.24627558445 ; 952.0000000000001
5 ; 39391.26075572569 ; 109699.33808219591 ; 173076.8945917866 ; 553872.9626805622 ; 1190.0000000000002
6 ; 40924.87549792691 ; 109458.55278856795 ; 212468.1553475123 ; 663572.3007627581 ; 1428.0000000000002
7 ; 42912.83742367253 ; 109270.28344474848 ; 253393.0308454392 ; 773030.8535513261 ; 1666.0000000000002
8 ; 43887.224541046504 ; 109135.26666756386 ; 296305.8682691117 ; 882301.1369960746 ; 1904.0000000000002
9 ; 45753.36464268093 ; 109054.0390035305 ; 340193.0928101582 ; 991436.4036636384 ; 2142.0000000000005
10 ; 47057.170196206775 ; 109026.92663361815 ; 385946.4574528391 ; 1100490.4426671688 ; 2380.0000000000005
11 ; 48300.51044383089 ; 109054.0390035305 ; 433003.6276490459 ; 1209517.3693007869 ; 2618.0000000000005
12 ; 49737.84436249938 ; 109135.26666756386 ; 481304.13809287676 ; 1318571.4083043174 ; 2856.0000000000005
13 ; 51251.0322194078 ; 109270.28344474848 ; 531041.9824553762 ; 1427706.6749718813 ; 3094.0000000000005
14 ; 52464.91051106907 ; 109458.55278856786 ; 582293.014674784 ; 1536976.9584166298 ; 3332.0000000000005
15 ; 54132.864216825845 ; 109699.33808219591 ; 634757.9251858531 ; 1646435.5112051978 ; 3570.0000000000005
16 ; 55943.42311325747 ; 109991.71640497776 ; 688890.789402679 ; 1756134.8492873937 ; 3808.0000000000005
17 ; 56731.65883534318 ; 110334.59518501705 ; 744834.2125159365 ; 1866126.5656923715 ; 4046.0000000000005
18 ; 57984.72171733716 ; 110726.73106521748 ; 801565.8713512797 ; 1976461.1608773884 ; 4284.000000000001
19 ; 59616.23118125182 ; 111166.75026907057 ; 859550.5930686168 ; 2087187.8919426058 ; 4522.000000000001
20 ; 60445.90778980733 ; 111653.16975627946 ; 919166.8242498686 ; 2198354.6422116766 ; 4760.000000000001
21 ; 62080.61876483189 ; 112184.41850135369 ; 979612.7320396759 ; 2310007.811967956 ; 4998.000000000001
22 ; 63138.544838833375 ; 112758.8583022208 ; 1041693.3508045078 ; 2422192.2304693097 ; 5236.000000000001
23 ; 64303.48462308501 ; 113374.80362088441 ; 1104831.8956433411 ; 2534951.0887715304 ; 5474.000000000001
24 ; 65605.95260007255 ; 114030.54006430933 ; 1169135.3802664261 ; 2648325.8923924146 ; 5712.000000000001
25 ; 66882.04647152788 ; 114724.34122205741 ; 1234741.3328664987 ; 2762356.432456724 ; 5950.000000000001
26 ; 67820.76798833645 ; 115454.48368039161 ; 1301623.3793380265 ; 2877080.7736787815 ; 6188.000000000001
27 ; 69065.36879739026 ; 116219.26012525543 ; 1369444.147326363 ; 2992535.257359173 ; 6426.000000000001
28 ; 70134.55979315922 ; 117016.99052536757 ; 1438509.5161237533 ; 3108754.5174844284 ; 6664.000000000001
29 ; 71452.95665204305 ; 117846.03145011351 ; 1508644.0759169124 ; 3225771.508009796 ; 6902.000000000001
30 ; 72608.89689900828 ; 118704.78362488894 ; 1580097.0325689556 ; 3343617.5394599093 ; 7140.000000000001
31 ; 73237.3926196926 ; 119591.69786008926 ; 1652705.9294679638 ; 3462322.323084798 ; 7378.000000000001
32 ; 74438.89112112005 ; 120505.27951073278 ; 1725943.3220876562 ; 3581914.0209448873 ; 7616.000000000001
33 ; 75264.97200201741 ; 121444.09163383757 ; 1800382.2132087762 ; 3702419.30045562 ; 7854.000000000001
34 ; 76569.81273523161 ; 122406.75701231552 ; 1875647.1852107935 ; 3823863.3920894577 ; 8092.000000000001
35 ; 77401.38272373355 ; 123391.95920935807 ; 1952216.997946025 ; 3946270.1491017733 ; 8330.000000000002
36 ; 78562.18703709784 ; 124398.44280795987 ; 2029618.3806697587 ; 4069662.108311131 ; 8568.000000000002
37 ; 79334.90976888094 ; 125425.01297792114 ; 2108180.5677068564 ; 4194060.551119091 ; 8806.000000000002
38 ; 80718.53758846747 ; 126470.53449870192 ; 2187515.477475737 ; 4319485.564097012 ; 9044.000000000002
39 ; 81675.88472644507 ; 127533.93035186552 ; 2268234.0150642046 ; 4445956.098595714 ; 9282.000000000002
40 ; 82157.39397355742 ; 128614.1799822963 ; 2349909.89979065 ; 4573490.02894758 ; 9520.000000000002
41 ; 83196.36621475352 ; 129710.31731344611 ; 2432067.293764207 ; 4702104.208929876 ; 9758.000000000002
42 ; 84249.40638362951 ; 130821.42858887807 ; 2515263.6599789606 ; 4831814.526243322 ; 9996.000000000002
43 ; 84996.41583157361 ; 131946.65010056473 ; 2599513.06636259 ; 4962635.9548322 ; 10234.000000000002
44 ; 85846.92390959057 ; 133085.1658538261 ; 2684509.482194164 ; 5094582.604932765 ; 10472.000000000002
45 ; 86522.95899287041 ; 134236.20520949975 ; 2770356.4061037544 ; 5227667.770786591 ; 10710.000000000002
46 ; 86916.04124719813 ; 135399.0405358597 ; 2856879.365096625 ; 5361903.975996091 ; 10948.000000000002
47 ; 87801.3171530334 ; 136572.98489587937 ; 2943795.4063438233 ; 5497303.016531951 ; 11186.000000000002
48 ; 88519.31124693637 ; 137757.3897895634 ; 3031596.7234968566 ; 5633876.00142783 ; 11424.000000000002
49 ; 89486.84922544315 ; 138951.64296614545 ; 3120116.034743793 ; 5771633.391217394 ; 11662.000000000002
50 ; 90462.09176462634 ; 140155.1663168596 ; 3209602.883969236 ; 5910585.034183539 ; 11900.000000000002
51 ; 90846.94220885809 ; 141367.4138556266 ; 3300064.9757338627 ; 6050740.200500399 ; 12138.000000000002
52 ; 91631.63529002534 ; 142587.86979226494 ; 3390911.917942721 ; 6192107.614356025 ; 12376.000000000002
53 ; 92109.82488678274 ; 143816.0467006306 ; 3482543.553232746 ; 6334695.48414829 ; 12614.000000000002
54 ; 92789.39373859219 ; 145051.48378234968 ; 3574653.3781195288 ; 6478511.53084892 ; 12852.000000000002
55 ; 93417.60376015192 ; 146293.745225435 ; 3667442.771858121 ; 6623563.01463127 ; 13090.000000000002
56 ; 94680.40342102731 ; 147542.41865603288 ; 3760860.375618273 ; 6769856.759856706 ; 13328.000000000002
57 ; 95015.04986815773 ; 148797.1136807528 ; 3855540.7790393 ; 6917399.178512738 ; 13566.000000000002
58 ; 95334.16506037768 ; 150057.46051645896 ; 3950555.8289074576 ; 7066196.292193491 ; 13804.000000000002
59 ; 96088.39827240237 ; 151323.1087040006 ; 4045889.9939678353 ; 7216253.75270995 ; 14042.000000000002
60 ; 96389.39560417504 ; 152593.72590209462 ; 4141978.392240238 ; 7367576.861413951 ; 14280.000000000002
61 ; 97321.92187550353 ; 153868.99675742362 ; 4238367.787844413 ; 7520170.587316046 ; 14518.000000000002
62 ; 98103.84568466923 ; 155148.6218469494 ; 4335689.709719917 ; 7674039.584073469 ; 14756.000000000002
63 ; 97953.42061678405 ; 156432.31668844714 ; 4433793.555404586 ; 7829188.205920419 ; 14994.000000000002
64 ; 98509.39271482688 ; 157719.8108153226 ; 4531746.97602137 ; 7985620.522608866 ; 15232.000000000002
65 ; 99229.2025063811 ; 159010.84691187352 ; 4630256.368736197 ; 8143340.333424188 ; 15470.000000000002
66 ; 99213.80955696129 ; 160305.1800052796 ; 4729485.571242578 ; 8302351.180336062 ; 15708.000000000002
67 ; 99690.6210886824 ; 161602.5767107543 ; 4828699.380799539 ; 8462656.360341342 ; 15946.000000000002
68 ; 99520.74995618762 ; 162902.81452644954 ; 4928390.001888222 ; 8624258.937052097 ; 16184.000000000002
69 ; 99890.16131423869 ; 164205.68117487198 ; 5027910.75184441 ; 8787161.751578547 ; 16422.000000000004
70 ; 100776.53538263813 ; 165510.97398774303 ; 5127800.913158649 ; 8951367.43275342 ; 16660.000000000004
71 ; 100988.12027719381 ; 166818.49933140283 ; 5228577.448541286 ; 9116878.406741163 ; 16898.000000000004
72 ; 101513.6751424736 ; 168128.07207003224 ; 5329565.56881848 ; 9283696.906072566 ; 17136.000000000004
73 ; 101858.3202753529 ; 169439.51506413077 ; 5431079.243960953 ; 9451824.978142599 ; 17374.000000000004
74 ; 102126.06337369863 ; 170752.658701849 ; 5532937.564236307 ; 9621264.49320673 ; 17612.000000000004
75 ; 102198.34719779348 ; 172067.34046092903 ; 5635063.627610005 ; 9792017.151908578 ; 17850.000000000004
76 ; 102082.74097935564 ; 173383.40449915442 ; 5737261.974807799 ; 9964084.492369507 ; 18088.000000000004
77 ; 102733.1245583492 ; 174700.7012713501 ; 5839344.715787155 ; 1.0137467896868661E7 ; 18326.000000000004
78 ; 102828.59151467343 ; 176019.0871711069 ; 5942077.840345504 ; 1.031216859814001E7 ; 18564.000000000004
79 ; 103155.04033872436 ; 177338.42419552914 ; 6044906.431860177 ; 1.0488187685311118E7 ; 18802.000000000004
80 ; 103491.37794437063 ; 178658.57963142265 ; 6148061.472198901 ; 1.0665526109506648E7 ; 19040.000000000004
81 ; 103822.18674560479 ; 179979.4257614506 ; 6251552.8501432715 ; 1.084418468913807E7 ; 19278.000000000004
82 ; 103700.25422575287 ; 181300.83958888787 ; 6355375.036888876 ; 1.102416411489952E7 ; 19516.000000000004
83 ; 103877.77124189206 ; 182622.7025797009 ; 6459075.291114629 ; 1.1205464954488408E7 ; 19754.000000000004
84 ; 103853.26214957479 ; 183944.90042077133 ; 6562953.062356521 ; 1.138808765706811E7 ; 19992.000000000004
85 ; 103804.69573655094 ; 185267.32279316493 ; 6666806.324506097 ; 1.1572032557488881E7 ; 20230.000000000004
86 ; 103765.72164418323 ; 186589.8631594248 ; 6770611.020242647 ; 1.1757299880282046E7 ; 20468.000000000004
87 ; 103569.62357934416 ; 187912.4185639419 ; 6874376.741886831 ; 1.1943889743441472E7 ; 20706.000000000004
88 ; 103899.74096379697 ; 189234.88944552274 ; 6977946.365466175 ; 1.2131802162005413E7 ; 20944.000000000004
89 ; 104124.2546833317 ; 190557.17946133733 ; 7081846.106429972 ; 1.2321037051450936E7 ; 21182.000000000004
90 ; 104052.1252267903 ; 191879.19532148686 ; 7185970.361113303 ; 1.2511594230912274E7 ; 21420.000000000004
91 ; 104057.97216416587 ; 193200.8466334872 ; 7290022.486340093 ; 1.2703473426233761E7 ; 21658.000000000004
92 ; 103943.9721507489 ; 194522.04575601313 ; 7394080.45850426 ; 1.2896674272867247E7 ; 21896.000000000004
93 ; 104130.27957066565 ; 195842.70766129304 ; 7498024.430655008 ; 1.309119631862326E7 ; 22134.000000000004
94 ; 103731.69769584072 ; 197162.74980559002 ; 7602154.710225673 ; 1.3287039026284553E7 ; 22372.000000000004
95 ; 103592.0164195493 ; 198482.09200724267 ; 7705886.4079215145 ; 1.3484201776090143E7 ; 22610.000000000004
96 ; 103252.69239020783 ; 199800.65633177594 ; 7809478.424341064 ; 1.3682683868097385E7 ; 22848.000000000004
97 ; 103492.56446542717 ; 201118.36698362848 ; 7912731.116731272 ; 1.3882484524429161E7 ; 23086.000000000004
98 ; 103440.61850826944 ; 202435.15020407242 ; 8016223.681196699 ; 1.4083602891412789E7 ; 23324.000000000004
99 ; 103107.90292536991 ; 203750.93417493172 ; 8119664.299704968 ; 1.428603804161686E7 ; 23562.000000000004
100 ; 103067.78668685073 ; 205065.6489277332 ; 8222772.202630338 ; 1.4489788975791793E7 ; 23800.000000000004
101 ; 101881.5245569463 ; 206379.22625794867 ; 8325839.989317189 ; 1.4694854624719527E7 ; 24038.000000000004
102 ; 102251.33236530662 ; 207691.59964400937 ; 8427721.513874136 ; 1.4901233850977475E7 ; 24276.000000000004
103 ; 102260.08645053022 ; 209002.7041707979 ; 8529972.846239442 ; 1.5108925450621484E7 ; 24514.000000000004
104 ; 102165.53249236391 ; 210312.47645734006 ; 8632232.932689972 ; 1.531792815479228E7 ; 24752.000000000004
105 ; 101167.06958599243 ; 211620.85458844004 ; 8734398.465182336 ; 1.5528240631249622E7 ; 24990.000000000004
106 ; 101244.62154877113 ; 212927.77805001795 ; 8835565.534768328 ; 1.5739861485838061E7 ; 25228.000000000004
107 ; 100927.63871953575 ; 214233.18766792648 ; 8936810.1563171 ; 1.595278926388808E7 ; 25466.000000000004
108 ; 100737.77372546785 ; 215537.02555003646 ; 9037737.795036636 ; 1.6167022451556006E7 ; 25704.000000000004
109 ; 99974.54272711756 ; 216839.23503139592 ; 9138475.568762105 ; 1.6382559477106042E7 ; 25942.000000000004
110 ; 99675.83724135844 ; 218139.76062228082 ; 9238450.111489223 ; 1.6599398712137438E7 ; 26180.000000000004
111 ; 98984.39892587357 ; 219438.5479589667 ; 9338125.948730582 ; 1.681753847275972E7 ; 26418.000000000004
112 ; 99142.13237380212 ; 220735.54375706037 ; 9437110.347656457 ; 1.7036977020718686E7 ; 26656.000000000004
113 ; 98280.90272772642 ; 222030.69576724444 ; 9536252.48003026 ; 1.7257712564475745E7 ; 26894.000000000004
114 ; 98221.52512781674 ; 223323.95273329312 ; 9634533.382757986 ; 1.747974326024299E7 ; 27132.000000000004
115 ; 97486.68724655596 ; 224615.26435223018 ; 9732754.907885803 ; 1.7703067212976284E7 ; 27370.000000000004
116 ; 97337.402342635 ; 225904.58123650582 ; 9830241.595132358 ; 1.7927682477328513E7 ; 27608.000000000004
117 ; 96598.69042639848 ; 227191.85487807775 ; 9927578.997474993 ; 1.8153587058565017E7 ; 27846.000000000004
118 ; 96072.61027198541 ; 228477.03761428955 ; 1.002417768790139E7 ; 1.8380778913443096E7 ; 28084.000000000004
119 ; 95341.15165346763 ; 229760.08259544504 ; 1.0120250298173375E7 ; 1.8609255951057386E7 ; 28322.000000000004
120 ; 94634.5989786114 ; 231040.94375398452 ; 1.0215591449826842E7 ; 1.883901603365283E7 ; 28560.000000000004
121 ; 94188.29368536222 ; 232319.57577517437 ; 1.0310226048805453E7 ; 1.9070056977406815E7 ; 28798.000000000004
122 ; 93154.23431868336 ; 233595.9340692262 ; 1.0404414342490815E7 ; 1.9302376553181987E7 ; 29036.000000000004
123 ; 93253.55495083288 ; 234869.974744768 ; 1.0497568576809498E7 ; 1.9535972487251215E7 ; 29274.000000000004
124 ; 92174.80426884229 ; 236141.65458359383 ; 1.059082213176033E7 ; 1.977084246199598E7 ; 29512.000000000004
125 ; 91515.93663231606 ; 237410.93101662298 ; 1.0682996936029173E7 ; 2.0006984116579577E7 ; 29750.000000000004
126 ; 90898.61536295677 ; 238677.76210100332 ; 1.077451287266149E7 ; 2.02443950475962E7 ; 29988.000000000004
127 ; 90244.02494103159 ; 239942.1064982991 ; 1.0865411488024447E7 ; 2.0483072809697203E7 ; 30226.000000000004
128 ; 89612.03360512618 ; 241203.9234537045 ; 1.0955655512965478E7 ; 2.07230149161955E7 ; 30464.000000000004
129 ; 88645.10780319458 ; 242463.17277622997 ; 1.1045267546570605E7 ; 2.0964218839649204E7 ; 30702.000000000004
130 ; 87528.72831212492 ; 243719.81481980957 ; 1.1133912654373799E7 ; 2.1206682012425434E7 ; 30940.000000000004
131 ; 87249.66189792192 ; 244973.8104652827 ; 1.1221441382685924E7 ; 2.1450401827245243E7 ; 31178.000000000004
132 ; 86593.05023803138 ; 246225.12110320397 ; 1.1308691044583846E7 ; 2.1695375637710527E7 ; 31416.000000000004
133 ; 85706.13104753665 ; 247473.7086174395 ; 1.1395284094821878E7 ; 2.194160075881373E7 ; 31654.000000000004
134 ; 84202.4059783055 ; 248719.53536950878 ; 1.1480990225869415E7 ; 2.2189074467431173E7 ; 31892.000000000004
135 ; 83795.03358766898 ; 249962.5641836357 ; 1.156519263184772E7 ; 2.243779400280068E7 ; 32130.000000000004
136 ; 83035.3020803725 ; 251202.75833247096 ; 1.1648987665435389E7 ; 2.268775656698432E7 ; 32368.000000000004
137 ; 81967.56580556794 ; 252440.08152345475 ; 1.1732022967515761E7 ; 2.293895932531679E7 ; 32606.000000000004
138 ; 80790.29942423914 ; 253674.49788578553 ; 1.1813990533321328E7 ; 2.3191399406840246E7 ; 32844.00000000001
139 ; 80299.4827193199 ; 254905.97195796674 ; 1.1894780832745567E7 ; 2.3445073904726032E7 ; 33082.00000000001
140 ; 79387.69457738394 ; 256134.46867590188 ; 1.1975080315464888E7 ; 2.3699979876684E7 ; 33320.00000000001
141 ; 78274.11092601194 ; 257359.95336151175 ; 1.2054468010042273E7 ; 2.39561143453599E7 ; 33558.00000000001
142 ; 77324.6425430576 ; 258582.3917118485 ; 1.2132742120968284E7 ; 2.421347429872141E7 ; 33796.00000000001
143 ; 76553.18982196791 ; 259801.74978868227 ; 1.2210066763511341E7 ; 2.447205669043326E7 ; 34034.00000000001
144 ; 75166.9246789738 ; 261017.99400853756 ; 1.2286619953333309E7 ; 2.4731858440221943E7 ; 34272.00000000001
145 ; 75170.54621053267 ; 262231.09113315906 ; 1.2361786878012283E7 ; 2.499287643423048E7 ; 34510.00000000001
146 ; 74536.51988378305 ; 263441.00826038467 ; 1.2436957424222816E7 ; 2.525510752536364E7 ; 34748.00000000001
147 ; 74713.23221863432 ; 264647.71281540825 ; 1.25114939441066E7 ; 2.5518548533624023E7 ; 34986.00000000001
148 ; 74564.06881786959 ; 265851.172542413 ; 1.2586207176325234E7 ; 2.578319624643943E7 ; 35224.00000000001
149 ; 74111.262243149 ; 267051.35549655824 ; 1.2660771245143102E7 ; 2.6049047418981843E7 ; 35462.00000000001
150 ; 74205.78023680732 ; 268248.23003630334 ; 1.2734882507386252E7 ; 2.6316098774478402E7 ; 35700.00000000001
151 ; 73770.56706204955 ; 269441.7648160535 ; 1.2809088287623059E7 ; 2.6584347004514705E7 ; 35938.00000000001
152 ; 73642.29626313833 ; 270631.9287791123 ; 1.288285885468511E7 ; 2.685378876933076E7 ; 36176.00000000001
153 ; 73310.81412411967 ; 271818.6911509265 ; 1.2956501150948247E7 ; 2.7124420698109873E7 ; 36414.00000000001
154 ; 72846.19070441205 ; 273002.0214326121 ; 1.3029811965072367E7 ; 2.73962393892608E7 ; 36652.00000000001
155 ; 73069.39460190687 ; 274181.8893947455 ; 1.310265815577678E7 ; 2.766924141069341E7 ; 36890.00000000001
156 ; 72667.00370271677 ; 275358.2650714114 ; 1.3175727550378688E7 ; 2.7943423300088156E7 ; 37128.00000000001
157 ; 72354.8408430938 ; 276531.1187544931 ; 1.3248394554081405E7 ; 2.8218781565159567E7 ; 37366.00000000001
158 ; 71898.99806504874 ; 277700.42098819686 ; 1.33207493949245E7 ; 2.8495312683914058E7 ; 37604.00000000001
159 ; 71984.56054291797 ; 278866.1425637982 ; 1.3392648392989548E7 ; 2.8773013104902256E7 ; 37842.00000000001
160 ; 71235.94918963063 ; 280028.2545146013 ; 1.3464632953532467E7 ; 2.9051879247466054E7 ; 38080.00000000001
161 ; 71379.90594191053 ; 281186.7281111023 ; 1.3535868902722098E7 ; 2.9331907501980655E7 ; 38318.00000000001
162 ; 70972.19899864694 ; 282341.5348563468 ; 1.3607248808664009E7 ; 2.9613094230091758E7 ; 38556.00000000001
163 ; 70507.31191902001 ; 283492.64648147445 ; 1.3678221007662656E7 ; 2.9895435764948104E7 ; 38794.00000000001
164 ; 70494.55328432572 ; 284640.03494144144 ; 1.3748728319581676E7 ; 3.0178928411429577E7 ; 39032.00000000001
165 ; 70119.13367563236 ; 285783.6724109139 ; 1.3819222872866003E7 ; 3.046356844637102E7 ; 39270.00000000001
166 ; 69309.31513528015 ; 286923.53128032514 ; 1.3889342006541636E7 ; 3.074935211878193E7 ; 39508.00000000001
167 ; 69286.18281085594 ; 288059.58415208897 ; 1.3958651321676916E7 ; 3.1036275650062256E7 ; 39746.00000000001
168 ; 69348.34025119743 ; 289191.80383696343 ; 1.4027937504487772E7 ; 3.1324335234214343E7 ; 39984.00000000001
169 ; 68699.52858425365 ; 290320.1633505581 ; 1.409728584473897E7 ; 3.1613527038051307E7 ; 40222.00000000001
170 ; 67986.64187956342 ; 291444.6359099794 ; 1.4165985373323223E7 ; 3.1903847201401867E7 ; 40460.00000000001
171 ; 67251.75374700301 ; 292565.1949306079 ; 1.4233972015202787E7 ; 3.2195291837311845E7 ; 40698.00000000001
172 ; 67654.9041544443 ; 293681.8140230019 ; 1.430122376894979E7 ; 3.2487857032242455E7 ; 40936.00000000001
173 ; 67142.78498612068 ; 294794.4669899227 ; 1.4368878673104234E7 ; 3.2781538846265458E7 ; 41174.00000000001
174 ; 67221.31800556884 ; 295903.12782347674 ; 1.4436021458090356E7 ; 3.307633331325538E7 ; 41412.00000000001
175 ; 67329.55300190535 ; 297007.77070236875 ; 1.4503242776095925E7 ; 3.3372236441078857E7 ; 41650.00000000001
176 ; 67439.49705621191 ; 298108.3699892626 ; 1.457057232909783E7 ; 3.3669244211781226E7 ; 41888.00000000001
177 ; 67998.38074336205 ; 299204.9002282448 ; 1.4638011826154042E7 ; 3.396735258177049E7 ; 42126.00000000001
178 ; 68146.24797156444 ; 300297.33614238683 ; 1.4706010206897404E7 ; 3.4266557481998734E7 ; 42364.00000000001
179 ; 68117.13834972809 ; 301385.65263140254 ; 1.4774156454868969E7 ; 3.456685481814112E7 ; 42602.00000000001
180 ; 68565.67111311416 ; 302469.8247693966 ; 1.4842273593218697E7 ; 3.486824047077252E7 ; 42840.00000000001
181 ; 68667.41601517782 ; 303549.8278026996 ; 1.4910839264331812E7 ; 3.517071029554192E7 ; 43078.00000000001
182 ; 69340.07014062902 ; 304625.6371477885 ; 1.497950668034699E7 ; 3.547426012334462E7 ; 43316.00000000001
