CSV File for the Network on Day 138
1 - Minute m 
2 - Power Consumed at minute m 
3 - Power Produced at minute m 
4 - Energy Consumed since the beginning of the day 
5 - Energy Produced since the beginning of the day 
6 - Energy Lost since the beginning of the day 
 
No Production city : 2, Producer : 1
No Production city : 4, Producer : 1
No Production city : 4, Producer : 1
 
0 ; 53905.152482324746 ; 168774.33795171615 ; 0.0 ; 0.0 ; 0.0
1 ; 55291.91155710303 ; 168433.32422737463 ; 53905.152482324746 ; 168774.33795171615 ; 238.00000000000003
2 ; 55917.58183733889 ; 168127.13964058767 ; 109197.06403942777 ; 337207.6621790908 ; 476.00000000000006
3 ; 57558.716690525325 ; 167856.13207067945 ; 165114.64587676665 ; 505334.80181967845 ; 714.0000000000001
4 ; 58424.4793860248 ; 167620.6129816706 ; 222673.36256729197 ; 673190.9338903578 ; 952.0000000000001
5 ; 59797.591969196015 ; 167420.8557975754 ; 281097.84195331676 ; 840811.5468720284 ; 1190.0000000000002
6 ; 60690.42050068936 ; 167257.09445054168 ; 340895.4339225128 ; 1008232.4026696038 ; 1428.0000000000002
7 ; 61588.24854291807 ; 167129.52211961313 ; 401585.85442320217 ; 1175489.4971201455 ; 1666.0000000000002
8 ; 63314.04851511289 ; 167038.2901758959 ; 463174.10296612023 ; 1342619.0192397586 ; 1904.0000000000002
9 ; 63631.07031046314 ; 166983.50734756878 ; 526488.1514812331 ; 1509657.3094156545 ; 2142.0000000000005
10 ; 65035.9366789308 ; 166965.2391155289 ; 590119.2217916963 ; 1676640.8167632234 ; 2380.0000000000005
11 ; 66013.68396539809 ; 166983.50734756878 ; 655155.158470627 ; 1843606.0558787524 ; 2618.0000000000005
12 ; 67205.09894716414 ; 167038.2901758959 ; 721168.8424360252 ; 2010589.5632263212 ; 2856.0000000000005
13 ; 68124.79663091897 ; 167129.52211961313 ; 788373.9413831893 ; 2177627.853402217 ; 3094.0000000000005
14 ; 69502.28742299356 ; 167257.0944505416 ; 856498.7380141083 ; 2344757.3755218303 ; 3332.0000000000005
15 ; 70389.34323470629 ; 167420.8557975754 ; 926001.0254371018 ; 2512014.469972372 ; 3570.0000000000005
16 ; 71370.84674365396 ; 167620.6129816706 ; 996390.3686718082 ; 2679435.3257699474 ; 3808.0000000000005
17 ; 71937.2420409426 ; 167856.13207067945 ; 1067761.2154154622 ; 2847055.938751618 ; 4046.0000000000005
18 ; 73009.48856758802 ; 168127.13964058773 ; 1139698.4574564048 ; 3014912.0708222976 ; 4284.000000000001
19 ; 73928.44587146727 ; 168433.32422737463 ; 1212707.9460239927 ; 3183039.2104628854 ; 4522.000000000001
20 ; 74482.3960089741 ; 168774.33795171627 ; 1286636.39189546 ; 3351472.53469026 ; 4760.000000000001
21 ; 75745.06801494629 ; 169149.79829714616 ; 1361118.7879044341 ; 3520246.872641976 ; 4998.000000000001
22 ; 77005.10679527401 ; 169559.29002107482 ; 1436863.8559193804 ; 3689396.6709391223 ; 5236.000000000001
23 ; 77546.56089311866 ; 170002.36717727105 ; 1513868.9627146544 ; 3858955.9609601973 ; 5474.000000000001
24 ; 77918.06279870485 ; 170478.5552280172 ; 1591415.523607773 ; 4028958.3281374685 ; 5712.000000000001
25 ; 79224.13634216871 ; 170987.35322414292 ; 1669333.586406478 ; 4199436.883365486 ; 5950.000000000001
26 ; 79952.70596356073 ; 171528.2360315076 ; 1748557.7227486467 ; 4370424.236589629 ; 6188.000000000001
27 ; 80574.09744466019 ; 172100.65658319174 ; 1828510.4287122074 ; 4541952.472621137 ; 6426.000000000001
28 ; 81540.94807946494 ; 172704.04813764204 ; 1909084.5261568676 ; 4714053.129204329 ; 6664.000000000001
29 ; 82478.86428853699 ; 173337.8265242462 ; 1990625.4742363326 ; 4886757.177341972 ; 6902.000000000001
30 ; 82982.30999995925 ; 174001.39235924475 ; 2073104.3385248696 ; 5060095.003866218 ; 7140.000000000001
31 ; 83869.74444968307 ; 174694.13321646917 ; 2156086.6485248287 ; 5234096.396225463 ; 7378.000000000001
32 ; 84536.07223680039 ; 175415.42573908955 ; 2239956.3929745117 ; 5408790.529441932 ; 7616.000000000001
33 ; 85442.36170255176 ; 176164.63768030182 ; 2324492.4652113123 ; 5584205.955181022 ; 7854.000000000001
34 ; 85859.7961025087 ; 176941.12986266115 ; 2409934.826913864 ; 5760370.592861324 ; 8092.000000000001
35 ; 86469.8478762068 ; 177744.25804752193 ; 2495794.623016373 ; 5937311.722723985 ; 8330.000000000002
36 ; 87344.34008498867 ; 178573.3747077539 ; 2582264.4708925798 ; 6115055.980771507 ; 8568.000000000002
37 ; 87783.29962735342 ; 179427.83069853563 ; 2669608.8109775684 ; 6293629.355479261 ; 8806.000000000002
38 ; 88557.53343539378 ; 180306.97682256508 ; 2757392.110604922 ; 6473057.186177797 ; 9044.000000000002
39 ; 89362.64417518665 ; 181210.16528744635 ; 2845949.6440403154 ; 6653364.163000362 ; 9282.000000000002
40 ; 89276.4000523476 ; 182136.75105431135 ; 2935312.288215502 ; 6834574.328287808 ; 9520.000000000002
41 ; 90334.0395765792 ; 183086.09307789907 ; 3024588.68826785 ; 7016711.079342119 ; 9758.000000000002
42 ; 91062.886830209 ; 184057.555439341 ; 3114922.727844429 ; 7199797.172420018 ; 9996.000000000002
43 ; 91684.25738375187 ; 185050.50837379834 ; 3205985.614674638 ; 7383854.727859359 ; 10234.000000000002
44 ; 92093.05674205985 ; 186064.32919584936 ; 3297669.8720583897 ; 7568905.236233158 ; 10472.000000000002
45 ; 92695.20744696201 ; 187098.4031261622 ; 3389762.9288004497 ; 7754969.565429008 ; 10710.000000000002
46 ; 93375.93171477814 ; 188152.12402349335 ; 3482458.136247412 ; 7942067.96855517 ; 10948.000000000002
47 ; 94065.84397770725 ; 189224.89502645534 ; 3575834.06796219 ; 8130220.0925786635 ; 11186.000000000002
48 ; 94531.43371068906 ; 190316.1291097871 ; 3669899.9119398976 ; 8319444.987605119 ; 11424.000000000002
49 ; 94505.83042022324 ; 191425.24956006778 ; 3764431.3456505868 ; 8509761.116714906 ; 11662.000000000002
50 ; 95671.73438383969 ; 192551.69037593104 ; 3858937.17607081 ; 8701186.366274973 ; 11900.000000000002
51 ; 96120.19824428903 ; 193694.89659788588 ; 3954608.9104546495 ; 8893738.056650905 ; 12138.000000000002
52 ; 96073.09767448824 ; 194854.32457283486 ; 4050729.1086989385 ; 9087432.953248791 ; 12376.000000000002
53 ; 96754.51194060776 ; 196029.44215831102 ; 4146802.2063734266 ; 9282287.277821627 ; 12614.000000000002
54 ; 97630.66905492012 ; 197219.7288713424 ; 4243556.718314034 ; 9478316.719979938 ; 12852.000000000002
55 ; 97802.84632790963 ; 198424.6759867029 ; 4341187.387368954 ; 9675536.44885128 ; 13090.000000000002
56 ; 97938.69219031553 ; 199643.78658913262 ; 4438990.233696863 ; 9873961.124837983 ; 13328.000000000002
57 ; 98320.93779511862 ; 200876.5755839054 ; 4536928.925887179 ; 1.0073604911427116E7 ; 13566.000000000002
58 ; 99089.77647075747 ; 202122.5696699098 ; 4635249.863682297 ; 1.0274481487011021E7 ; 13804.000000000002
59 ; 99087.82599119243 ; 203381.30727917817 ; 4734339.640153054 ; 1.047660405668093E7 ; 14042.000000000002
60 ; 99308.82161048237 ; 204652.33848656647 ; 4833427.466144247 ; 1.067998536396011E7 ; 14280.000000000002
61 ; 99568.2970865947 ; 205935.22489304803 ; 4932736.287754729 ; 1.0884637702446677E7 ; 14518.000000000002
62 ; 100030.57765506809 ; 207229.53948585133 ; 5032304.584841324 ; 1.1090572927339725E7 ; 14756.000000000002
63 ; 100406.57793650424 ; 208534.8664784341 ; 5132335.162496392 ; 1.1297802466825576E7 ; 14994.000000000002
64 ; 100844.93586305322 ; 209850.80113306254 ; 5232741.740432896 ; 1.150633733330401E7 ; 15232.000000000002
65 ; 100423.11607582303 ; 211176.9495685413 ; 5333586.676295949 ; 1.1716188134437073E7 ; 15470.000000000002
66 ; 101358.36022993707 ; 212512.9285554279 ; 5434009.792371772 ; 1.1927365084005615E7 ; 15708.000000000002
67 ; 101444.73217534619 ; 213858.36530086308 ; 5535368.15260171 ; 1.2139878012561042E7 ; 15946.000000000002
68 ; 101682.6098493982 ; 215212.897224958 ; 5636812.884777056 ; 1.2353736377861906E7 ; 16184.000000000002
69 ; 102057.45397965146 ; 216576.17173049197 ; 5738495.494626454 ; 1.2568949275086863E7 ; 16422.000000000004
70 ; 102153.71000510498 ; 217947.84596751234 ; 5840552.9486061055 ; 1.2785525446817355E7 ; 16660.000000000004
71 ; 102290.19441047423 ; 219327.5865942586 ; 5942706.65861121 ; 1.3003473292784868E7 ; 16898.000000000004
72 ; 102255.79102061414 ; 220715.06953569246 ; 6044996.853021684 ; 1.3222800879379127E7 ; 17136.000000000004
73 ; 102886.49122798794 ; 222109.97974077196 ; 6147252.644042298 ; 1.344351594891482E7 ; 17374.000000000004
74 ; 102474.59104347273 ; 223512.01093948208 ; 6250139.135270286 ; 1.3665625928655593E7 ; 17612.000000000004
75 ; 102485.51854835333 ; 224920.86540051596 ; 6352613.726313759 ; 1.3889137939595075E7 ; 17850.000000000004
76 ; 102993.33998020011 ; 226336.2536903928 ; 6455099.244862112 ; 1.411405880499559E7 ; 18088.000000000004
77 ; 103140.47983534796 ; 227757.89443469926 ; 6558092.584842312 ; 1.4340395058685984E7 ; 18326.000000000004
78 ; 103234.01593175434 ; 229185.51408205074 ; 6661233.06467766 ; 1.4568152953120684E7 ; 18564.000000000004
79 ; 103380.41698262224 ; 230618.84667128554 ; 6764467.080609415 ; 1.4797338467202734E7 ; 18802.000000000004
80 ; 103032.35725724953 ; 232057.63360233253 ; 6867847.497592037 ; 1.502795731387402E7 ; 19040.000000000004
81 ; 103529.9429389183 ; 233501.62341112163 ; 6970879.854849286 ; 1.5260014947476352E7 ; 19278.000000000004
82 ; 103582.06890685108 ; 234950.57154884888 ; 7074409.797788205 ; 1.5493516570887472E7 ; 19516.000000000004
83 ; 103373.5036849418 ; 236404.24016585012 ; 7177991.866695056 ; 1.5728467142436322E7 ; 19754.000000000004
84 ; 103512.38499049703 ; 237862.3979002896 ; 7281365.370379997 ; 1.5964871382602172E7 ; 19992.000000000004
85 ; 103623.74925607938 ; 239324.81967182492 ; 7384877.755370494 ; 1.620273378050246E7 ; 20230.000000000004
86 ; 102924.29962746215 ; 240791.28648037039 ; 7488501.504626573 ; 1.6442058600174285E7 ; 20468.000000000004
87 ; 103478.31757194328 ; 242261.58521004612 ; 7591425.804254035 ; 1.6682849886654656E7 ; 20706.000000000004
88 ; 103462.03137961468 ; 243735.50843836908 ; 7694904.121825979 ; 1.6925111471864704E7 ; 20944.000000000004
89 ; 103611.72346878806 ; 245212.8542507152 ; 7798366.153205594 ; 1.716884698030307E7 ; 21182.000000000004
90 ; 103088.81856429442 ; 246693.42606005698 ; 7901977.876674382 ; 1.7414059834553786E7 ; 21420.000000000004
91 ; 103298.39442075856 ; 248177.03243196107 ; 8005066.695238677 ; 1.7660753260613844E7 ; 21658.000000000004
92 ; 102932.52398146722 ; 249663.48691481084 ; 8108365.089659436 ; 1.7908930293045804E7 ; 21896.000000000004
93 ; 103107.61321382248 ; 251152.60787520465 ; 8211297.613640903 ; 1.8158593779960614E7 ; 22134.000000000004
94 ; 102495.07864381073 ; 252644.21833846509 ; 8314405.226854725 ; 1.840974638783582E7 ; 22372.000000000004
95 ; 102896.44912626757 ; 254138.1458341851 ; 8416900.305498535 ; 1.8662390606174283E7 ; 22610.000000000004
96 ; 102476.44984742919 ; 255634.22224672488 ; 8519796.754624803 ; 1.8916528752008468E7 ; 22848.000000000004
97 ; 102254.46356661 ; 257132.28367056727 ; 8622273.204472233 ; 1.9172162974255193E7 ; 23086.000000000004
98 ; 102046.83311327209 ; 258632.17027043106 ; 8724527.668038843 ; 1.942929525792576E7 ; 23324.000000000004
99 ; 101957.0529843825 ; 260133.72614603743 ; 8826574.501152115 ; 1.968792742819619E7 ; 23562.000000000004
100 ; 101440.90587352964 ; 261636.79920141955 ; 8928531.554136498 ; 1.994806115434223E7 ; 23800.000000000004
101 ; 101187.1960165315 ; 263141.2410186627 ; 9029972.460010028 ; 2.0209697953543648E7 ; 24038.000000000004
102 ; 100979.98032097949 ; 264646.90673595946 ; 9131159.656026559 ; 2.0472839194562312E7 ; 24276.000000000004
103 ; 101293.65443364013 ; 266153.65492986277 ; 9232139.636347538 ; 2.0737486101298273E7 ; 24514.000000000004
104 ; 100337.54850450586 ; 267661.34750161954 ; 9333433.290781178 ; 2.1003639756228134E7 ; 24752.000000000004
105 ; 100131.09437198479 ; 269169.84956746653 ; 9433770.839285683 ; 2.1271301103729755E7 ; 24990.000000000004
106 ; 99731.50209213642 ; 270679.0293527697 ; 9533901.933657669 ; 2.154047095329722E7 ; 25228.000000000004
107 ; 99847.15727931772 ; 272188.75808989163 ; 9633633.435749805 ; 2.181114998264999E7 ; 25466.000000000004
108 ; 99609.42522976032 ; 273698.90991966805 ; 9733480.593029123 ; 2.2083338740739882E7 ; 25704.000000000004
109 ; 98783.10376492633 ; 275209.36179638095 ; 9833090.018258883 ; 2.235703765065955E7 ; 25942.000000000004
110 ; 98597.62342745042 ; 276719.9933961139 ; 9931873.12202381 ; 2.2632247012455933E7 ; 26180.000000000004
111 ; 98504.46371066898 ; 278230.6870283786 ; 1.003047074545126E7 ; 2.2908967005852047E7 ; 26418.000000000004
112 ; 98074.256049226 ; 279741.32755090296 ; 1.012897520916193E7 ; 2.3187197692880426E7 ; 26656.000000000004
113 ; 97635.89371525859 ; 281251.8022874745 ; 1.0227049465211155E7 ; 2.346693902043133E7 ; 26894.000000000004
114 ; 97122.14850436093 ; 282762.0009487339 ; 1.0324685358926414E7 ; 2.3748190822718803E7 ; 27132.000000000004
115 ; 96875.62024282523 ; 284271.815555817 ; 1.0421807507430775E7 ; 2.4030952823667537E7 ; 27370.000000000004
116 ; 96227.47142301436 ; 285781.14036674576 ; 1.05186831276736E7 ; 2.4315224639223356E7 ; 27608.000000000004
117 ; 95859.0574413774 ; 287289.87180547114 ; 1.0614910599096615E7 ; 2.46010057795901E7 ; 27846.000000000004
118 ; 95263.64747097886 ; 288797.90839347383 ; 1.0710769656537993E7 ; 2.488829565139557E7 ; 28084.000000000004
119 ; 94645.82301614893 ; 290305.1506838318 ; 1.0806033304008972E7 ; 2.5177093559789043E7 ; 28322.000000000004
120 ; 94620.3371545861 ; 291811.5011976653 ; 1.090067912702512E7 ; 2.5467398710472874E7 ; 28560.000000000004
121 ; 93894.1275654984 ; 293316.86436287366 ; 1.0995299464179706E7 ; 2.575921021167054E7 ; 28798.000000000004
122 ; 93520.10290132265 ; 294821.146455081 ; 1.1089193591745203E7 ; 2.6052527076033413E7 ; 29036.000000000004
123 ; 92733.37232573738 ; 296324.25554070866 ; 1.1182713694646526E7 ; 2.6347348222488493E7 ; 29274.000000000004
124 ; 91913.81386296527 ; 297826.1014220988 ; 1.1275447066972263E7 ; 2.6643672478029203E7 ; 29512.000000000004
125 ; 91490.0020206102 ; 299326.5955846112 ; 1.1367360880835228E7 ; 2.69414985794513E7 ; 29750.000000000004
126 ; 90752.29315313695 ; 300825.65114562184 ; 1.1458850882855838E7 ; 2.7240825175035913E7 ; 29988.000000000004
127 ; 90466.93337649928 ; 302323.18280535314 ; 1.1549603176008975E7 ; 2.7541650826181535E7 ; 30226.000000000004
128 ; 89818.95217623438 ; 303819.10679946624 ; 1.1640070109385474E7 ; 2.7843974008986887E7 ; 30464.000000000004
129 ; 88969.71473712352 ; 305313.34085335257 ; 1.1729889061561707E7 ; 2.814779311578635E7 ; 30702.000000000004
130 ; 88240.94230062795 ; 306805.8041380576 ; 1.181885877629883E7 ; 2.8453106456639703E7 ; 30940.000000000004
131 ; 87828.34732579997 ; 308296.4172277805 ; 1.190709971859946E7 ; 2.875991226077776E7 ; 31178.000000000004
132 ; 87167.95891646009 ; 309785.10205888684 ; 1.199492806592526E7 ; 2.9068208678005543E7 ; 31416.000000000004
133 ; 87010.68390052237 ; 311271.78189038 ; 1.2082096024841718E7 ; 2.937799378006443E7 ; 31654.000000000004
134 ; 86122.64063370758 ; 312756.3812657769 ; 1.216910670874224E7 ; 2.968926556195481E7 ; 31892.000000000004
135 ; 85256.6690478005 ; 314238.8259763337 ; 1.2255229349375948E7 ; 3.000202194322059E7 ; 32130.000000000004
136 ; 84349.5029855512 ; 315719.0430255738 ; 1.234048601842375E7 ; 3.0316260769196924E7 ; 32368.000000000004
137 ; 83665.22014734549 ; 317196.960595066 ; 1.2424835521409301E7 ; 3.06319798122225E7 ; 32606.000000000004
138 ; 82820.49941210062 ; 318672.5080114102 ; 1.2508500741556646E7 ; 3.0949176772817567E7 ; 32844.00000000001
139 ; 81829.84795404933 ; 320145.61571438104 ; 1.2591321240968747E7 ; 3.126784928082898E7 ; 33082.00000000001
140 ; 81404.64928064213 ; 321616.21522619034 ; 1.2673151088922797E7 ; 3.158799489654336E7 ; 33320.00000000001
141 ; 80720.78825703767 ; 323084.239121824 ; 1.2754555738203438E7 ; 3.1909611111769553E7 ; 33558.00000000001
142 ; 80137.79025284617 ; 324549.6210004136 ; 1.2835276526460476E7 ; 3.2232695350891378E7 ; 33796.00000000001
143 ; 78565.64450366641 ; 326012.29545760615 ; 1.2915414316713322E7 ; 3.255724497189179E7 ; 34034.00000000001
144 ; 78029.37003194499 ; 327472.1980588918 ; 1.2993979961216988E7 ; 3.2883257267349396E7 ; 34272.00000000001
145 ; 77873.23514735806 ; 328929.2653138567 ; 1.3072009331248933E7 ; 3.3210729465408288E7 ; 34510.00000000001
146 ; 77751.82877151883 ; 330383.43465132493 ; 1.3149882566396292E7 ; 3.3539658730722144E7 ; 34748.00000000001
147 ; 77346.87426699128 ; 331834.64439535694 ; 1.322763439516781E7 ; 3.387004216537347E7 ; 34986.00000000001
148 ; 77196.87096991172 ; 333282.8337420746 ; 1.3304981269434802E7 ; 3.4201876809768826E7 ; 35224.00000000001
149 ; 77400.2121136544 ; 334727.9427372787 ; 1.3382178140404714E7 ; 3.45351596435109E7 ; 35462.00000000001
150 ; 76882.25098636733 ; 336169.9122548331 ; 1.3459578352518369E7 ; 3.486988758624818E7 ; 35700.00000000001
151 ; 76578.15997751604 ; 337608.6839757866 ; 1.3536460603504736E7 ; 3.5206057498503014E7 ; 35938.00000000001
152 ; 76470.61627857995 ; 339044.20036820375 ; 1.3613038763482252E7 ; 3.55436661824788E7 ; 36176.00000000001
153 ; 76166.60537998198 ; 340476.4046676803 ; 1.3689509379760832E7 ; 3.5882710382847E7 ; 36414.00000000001
154 ; 75739.88312147981 ; 341905.24085851846 ; 1.3765675985140814E7 ; 3.622318678751469E7 ; 36652.00000000001
155 ; 75232.58510300626 ; 343330.6536555364 ; 1.3841415868262293E7 ; 3.6565092028373204E7 ; 36890.00000000001
156 ; 75354.89948582629 ; 344752.5884864906 ; 1.39166484533653E7 ; 3.690842268202874E7 ; 37128.00000000001
157 ; 75491.30610844922 ; 346170.9914750874 ; 1.3992003352851126E7 ; 3.725317527051523E7 ; 37366.00000000001
158 ; 75038.3100933093 ; 347585.80942456337 ; 1.4067494658959575E7 ; 3.759934626199032E7 ; 37604.00000000001
159 ; 74741.99690379402 ; 348996.989801814 ; 1.4142532969052885E7 ; 3.794693207141489E7 ; 37842.00000000001
160 ; 74631.30456674901 ; 350404.4807220499 ; 1.4217274965956679E7 ; 3.8295929061216705E7 ; 38080.00000000001
161 ; 73802.94380308263 ; 351808.2309339629 ; 1.4291906270523427E7 ; 3.864633354193875E7 ; 38318.00000000001
162 ; 73416.78135247272 ; 353208.1898053826 ; 1.436570921432651E7 ; 3.8998141772872716E7 ; 38556.00000000001
163 ; 73450.62404833536 ; 354604.3073094072 ; 1.4439125995678984E7 ; 3.93513499626781E7 ; 38794.00000000001
164 ; 73192.21237168103 ; 355996.5340109901 ; 1.451257661972732E7 ; 3.97059542699875E7 ; 39032.00000000001
165 ; 72932.47897388454 ; 357384.8210539674 ; 1.4585768832099E7 ; 4.006195080399849E7 ; 39270.00000000001
166 ; 72419.15057619388 ; 358769.12014850957 ; 1.4658701311072884E7 ; 4.041933562505246E7 ; 39508.00000000001
167 ; 72057.46279584932 ; 360149.3835589841 ; 1.4731120461649079E7 ; 4.077810474520097E7 ; 39746.00000000001
168 ; 72226.51990159303 ; 361525.5640922117 ; 1.4803177924444929E7 ; 4.113825412875995E7 ; 39984.00000000001
169 ; 71445.33052739345 ; 362897.6150861057 ; 1.4875404444346521E7 ; 4.149977969285216E7 ; 40222.00000000001
170 ; 71890.74745531572 ; 364265.4903986778 ; 1.4946849774873914E7 ; 4.186267730793827E7 ; 40460.00000000001
171 ; 70968.25846802171 ; 365629.1443974007 ; 1.501874052232923E7 ; 4.2226942798336945E7 ; 40698.00000000001
172 ; 70803.37206810943 ; 366988.53194891213 ; 1.5089708780797252E7 ; 4.2592571942734346E7 ; 40936.00000000001
173 ; 70347.90429188973 ; 368343.6084090502 ; 1.5160512152865361E7 ; 4.2959560474683255E7 ; 41174.00000000001
174 ; 70719.35347445568 ; 369694.3296132088 ; 1.5230860057157252E7 ; 4.33279040830923E7 ; 41412.00000000001
175 ; 70409.45444636926 ; 371040.6518670009 ; 1.5301579410631707E7 ; 4.369759841270551E7 ; 41650.00000000001
176 ; 70498.78723201787 ; 372382.5319372189 ; 1.5371988865078077E7 ; 4.406863906457251E7 ; 41888.00000000001
177 ; 70313.36620037789 ; 373719.92704308435 ; 1.5442487652310094E7 ; 4.444102159650973E7 ; 42126.00000000001
178 ; 70455.72602587719 ; 375052.79484777333 ; 1.5512801018510472E7 ; 4.481474152355282E7 ; 42364.00000000001
179 ; 70557.55464471312 ; 376381.09345021186 ; 1.558325674453635E7 ; 4.518979431840059E7 ; 42602.00000000001
180 ; 70665.73043709366 ; 377704.78137712897 ; 1.5653814299181063E7 ; 4.55661754118508E7 ; 42840.00000000001
181 ; 70423.3760334544 ; 379023.8175753612 ; 1.5724480029618157E7 ; 4.594388019322793E7 ; 43078.00000000001
