CSV File for the Network on Day 152
1 - Minute m 
2 - Power Consumed at minute m 
3 - Power Produced at minute m 
4 - Energy Consumed since the beginning of the day 
5 - Energy Produced since the beginning of the day 
6 - Energy Lost since the beginning of the day 
 
No Production city : 2, Producer : 1
No Production city : 4, Producer : 1
No Production city : 4, Producer : 1
 
0 ; 46335.31218384699 ; 162887.18022583314 ; 0.0 ; 0.0 ; 0.0
1 ; 46986.22939338456 ; 162545.28437912907 ; 46335.31218384699 ; 162887.18022583314 ; 238.00000000000003
2 ; 48917.46352648095 ; 162238.27316420182 ; 93321.54157723155 ; 325432.4646049622 ; 476.00000000000006
3 ; 49836.39189307801 ; 161966.50636014476 ; 142239.0051037125 ; 487670.737769164 ; 714.0000000000001
4 ; 50719.90612792346 ; 161730.30624815752 ; 192075.3969967905 ; 649637.2441293087 ; 952.0000000000001
5 ; 51819.573826891254 ; 161529.95587504574 ; 242795.30312471397 ; 811367.5503774663 ; 1190.0000000000002
6 ; 53573.41634627864 ; 161365.6974998013 ; 294614.8769516052 ; 972897.506252512 ; 1428.0000000000002
7 ; 54599.96460816845 ; 161237.73124290124 ; 348188.2932978838 ; 1134263.2037523133 ; 1666.0000000000002
8 ; 55988.94373132156 ; 161146.21395578433 ; 402788.2579060523 ; 1295500.9349952145 ; 1904.0000000000002
9 ; 57080.669096042 ; 161091.25832539506 ; 458777.20163737383 ; 1456647.1489509987 ; 2142.0000000000005
10 ; 58020.403683482364 ; 161072.93222576502 ; 515857.8707334158 ; 1617738.4072763938 ; 2380.0000000000005
11 ; 59386.21161059475 ; 161091.25832539506 ; 573878.2744168981 ; 1778811.3395021588 ; 2618.0000000000005
12 ; 60589.39674431288 ; 161146.21395578433 ; 633264.4860274929 ; 1939902.5978275537 ; 2856.0000000000005
13 ; 61364.53829610253 ; 161237.73124290124 ; 693853.8827718057 ; 2101048.811783338 ; 3094.0000000000005
14 ; 62992.49821736655 ; 161365.69749980117 ; 755218.4210679083 ; 2262286.543026239 ; 3332.0000000000005
15 ; 63867.845845723554 ; 161529.95587504574 ; 818210.9192852748 ; 2423652.24052604 ; 3570.0000000000005
16 ; 64833.18859378344 ; 161730.30624815752 ; 882078.7651309983 ; 2585182.1964010857 ; 3808.0000000000005
17 ; 66164.1390009923 ; 161966.50636014476 ; 946911.9537247817 ; 2746912.502649243 ; 4046.0000000000005
18 ; 67038.26303617182 ; 162238.27316420188 ; 1013076.092725774 ; 2908879.009009388 ; 4284.000000000001
19 ; 67984.50865532886 ; 162545.28437912895 ; 1080114.355761946 ; 3071117.28217359 ; 4522.000000000001
20 ; 69507.27366489518 ; 162887.18022583314 ; 1148098.8644172747 ; 3233662.5665527186 ; 4760.000000000001
21 ; 70518.06864784405 ; 163263.56532554346 ; 1217606.13808217 ; 3396549.746778552 ; 4998.000000000001
22 ; 71388.15972735692 ; 163674.01073708705 ; 1288124.206730014 ; 3559813.3121040952 ; 5236.000000000001
23 ; 71856.06578215108 ; 164118.05610975978 ; 1359512.3664573708 ; 3723487.3228411824 ; 5474.000000000001
24 ; 72680.75655416392 ; 164595.21192796231 ; 1431368.432239522 ; 3887605.3789509423 ; 5712.000000000001
25 ; 74081.52245590421 ; 165104.9618238496 ; 1504049.188793686 ; 4052200.590878905 ; 5950.000000000001
26 ; 74689.41748910901 ; 165646.76493472402 ; 1578130.7112495902 ; 4217305.552702755 ; 6188.000000000001
27 ; 75635.47387464822 ; 166220.0582827477 ; 1652820.1287386992 ; 4382952.317637479 ; 6426.000000000001
28 ; 76852.43389668192 ; 166824.2591557139 ; 1728455.6026133476 ; 4549172.375920227 ; 6664.000000000001
29 ; 77736.09844238445 ; 167458.76746904833 ; 1805308.0365100296 ; 4715996.635075941 ; 6902.000000000001
30 ; 78735.93667184192 ; 168122.968090855 ; 1883044.134952414 ; 4883455.402544989 ; 7140.000000000001
31 ; 79582.70318329596 ; 168816.233113617 ; 1961780.071624256 ; 5051578.370635844 ; 7378.000000000001
32 ; 80273.36719658767 ; 169537.9240580728 ; 2041362.7748075519 ; 5220394.603749461 ; 7616.000000000001
33 ; 80919.71680819093 ; 170287.39399674092 ; 2121636.1420041397 ; 5389932.527807534 ; 7854.000000000001
34 ; 81763.26075924867 ; 171063.98958653794 ; 2202555.8588123308 ; 5560219.921804274 ; 8092.000000000001
35 ; 82689.81101918346 ; 171867.05300186953 ; 2284319.1195715796 ; 5731283.911390812 ; 8330.000000000002
36 ; 83356.33843796107 ; 172695.92376144015 ; 2367008.930590763 ; 5903150.964392682 ; 8568.000000000002
37 ; 84190.47794892231 ; 173549.94044380652 ; 2450365.269028724 ; 6075846.888154122 ; 8806.000000000002
38 ; 84791.65811605114 ; 174428.44228835026 ; 2534555.7469776464 ; 6249396.828597928 ; 9044.000000000002
39 ; 84998.84081179576 ; 175330.77067987184 ; 2619347.4050936974 ; 6423825.270886279 ; 9282.000000000002
40 ; 86416.06427786623 ; 176256.27051637968 ; 2704346.245905493 ; 6599156.04156615 ; 9520.000000000002
41 ; 86799.80740753257 ; 177204.29146087274 ; 2790762.3101833593 ; 6775412.31208253 ; 9758.000000000002
42 ; 87244.29137732011 ; 178174.1890789849 ; 2877562.1175908917 ; 6952616.603543403 ; 9996.000000000002
43 ; 88222.21307526331 ; 179165.32586527278 ; 2964806.4089682116 ; 7130790.792622387 ; 10234.000000000002
44 ; 88923.64472769617 ; 180177.0721617001 ; 3053028.622043475 ; 7309956.11848766 ; 10472.000000000002
45 ; 89448.82540408918 ; 181208.80697249813 ; 3141952.2667711712 ; 7490133.19064936 ; 10710.000000000002
46 ; 89900.81765195221 ; 182259.91868007736 ; 3231401.09217526 ; 7671341.9976218585 ; 10948.000000000002
47 ; 90711.78179942518 ; 183329.80566704244 ; 3321301.9098272123 ; 7853601.916301936 ; 11186.000000000002
48 ; 91390.1526801466 ; 184417.8768496291 ; 3412013.6916266377 ; 8036931.721968979 ; 11424.000000000002
49 ; 92087.8858509618 ; 185523.5521280453 ; 3503403.844306784 ; 8221349.598818608 ; 11662.000000000002
50 ; 92377.10506131417 ; 186646.26275928755 ; 3595491.730157746 ; 8406873.150946653 ; 11900.000000000002
51 ; 93120.28467068146 ; 187785.4516580018 ; 3687868.83521906 ; 8593519.41370594 ; 12138.000000000002
52 ; 93899.3922521004 ; 188940.57363090728 ; 3780989.1198897418 ; 8781304.86536394 ; 12376.000000000002
53 ; 94259.4881645191 ; 190111.09555018874 ; 3874888.5121418424 ; 8970245.438994847 ; 12614.000000000002
54 ; 94226.88968366268 ; 191296.49647110613 ; 3969148.0003063614 ; 9160356.534545036 ; 12852.000000000002
55 ; 94713.27699754146 ; 192496.26769888517 ; 4063374.8899900243 ; 9351653.031016143 ; 13090.000000000002
56 ; 95539.45423729696 ; 193709.91280973132 ; 4158088.166987566 ; 9544149.298715029 ; 13328.000000000002
57 ; 96003.06838352898 ; 194936.94763057533 ; 4253627.6212248625 ; 9737859.21152476 ; 13566.000000000002
58 ; 96312.99697791309 ; 196176.9001819071 ; 4349630.689608391 ; 9932796.159155335 ; 13804.000000000002
59 ; 96580.11121401253 ; 197429.310587795 ; 4445943.686586305 ; 1.0128973059337242E7 ; 14042.000000000002
60 ; 97415.10743930627 ; 198693.73095692415 ; 4542523.797800317 ; 1.0326402369925037E7 ; 14280.000000000002
61 ; 97555.79986080079 ; 199969.72523822635 ; 4639938.905239624 ; 1.052509610088196E7 ; 14518.000000000002
62 ; 97729.19939226662 ; 201256.86905441084 ; 4737494.705100425 ; 1.0725065826120187E7 ; 14756.000000000002
63 ; 98686.17002587001 ; 202554.74951645266 ; 4835223.904492691 ; 1.0926322695174597E7 ; 14994.000000000002
64 ; 99068.92102220608 ; 203862.9650218502 ; 4933910.074518561 ; 1.112887744469105E7 ; 15232.000000000002
65 ; 98897.9633337473 ; 205181.1250392238 ; 5032978.995540768 ; 1.1332740409712901E7 ; 15470.000000000002
66 ; 98952.71244578279 ; 206508.84988160332 ; 5131876.958874515 ; 1.1537921534752125E7 ; 15708.000000000002
67 ; 99622.42191299328 ; 207845.77047053608 ; 5230829.671320298 ; 1.1744430384633727E7 ; 15946.000000000002
68 ; 99752.7912734488 ; 209191.5280929472 ; 5330452.093233291 ; 1.1952276155104263E7 ; 16184.000000000002
69 ; 99729.49569768057 ; 210545.7741524884 ; 5430204.88450674 ; 1.216146768319721E7 ; 16422.000000000004
70 ; 100057.88583067412 ; 211908.1699169401 ; 5529934.380204421 ; 1.2372013457349697E7 ; 16660.000000000004
71 ; 100696.775335223 ; 213278.38626306073 ; 5629992.266035095 ; 1.2583921627266638E7 ; 16898.000000000004
72 ; 100821.89811911463 ; 214656.10342012614 ; 5730689.041370318 ; 1.27972000135297E7 ; 17136.000000000004
73 ; 101106.630324673 ; 216041.0107132604 ; 5831510.939489433 ; 1.3011856116949825E7 ; 17374.000000000004
74 ; 101541.24891993705 ; 217432.806307528 ; 5932617.5698141055 ; 1.3227897127663085E7 ; 17612.000000000004
75 ; 101088.76184636871 ; 218831.19695363735 ; 6034158.818734042 ; 1.3445329933970613E7 ; 17850.000000000004
76 ; 101624.46886375042 ; 220235.89773599728 ; 6135247.5805804115 ; 1.366416113092425E7 ; 18088.000000000004
77 ; 101643.10835642462 ; 221646.63182376756 ; 6236872.049444162 ; 1.3884397028660249E7 ; 18326.000000000004
78 ; 102210.75618664995 ; 223063.13022545527 ; 6338515.157800587 ; 1.4106043660484016E7 ; 18564.000000000004
79 ; 102163.71638269087 ; 224485.13154752285 ; 6440725.913987237 ; 1.4329106790709471E7 ; 18802.000000000004
80 ; 102167.79686251892 ; 225912.3817574064 ; 6542889.630369928 ; 1.4553591922256995E7 ; 19040.000000000004
81 ; 102471.48118258653 ; 227344.63395126734 ; 6645057.427232447 ; 1.4779504304014402E7 ; 19278.000000000004
82 ; 102689.08595228236 ; 228781.6481267492 ; 6747528.9084150335 ; 1.5006848937965669E7 ; 19516.000000000004
83 ; 102457.45961118968 ; 230223.19096095045 ; 6850217.994367315 ; 1.5235630586092418E7 ; 19754.000000000004
84 ; 102369.9670533118 ; 231669.03559378162 ; 6952675.453978505 ; 1.546585377705337E7 ; 19992.000000000004
85 ; 102532.00517879054 ; 233118.9614168289 ; 7055045.421031817 ; 1.569752281264715E7 ; 20230.000000000004
86 ; 102572.66314690628 ; 234572.75386781088 ; 7157577.426210607 ; 1.593064177406398E7 ; 20468.000000000004
87 ; 102157.6354049275 ; 236030.20423068083 ; 7260150.089357514 ; 1.616521452793179E7 ; 20706.000000000004
88 ; 102118.15425165201 ; 237491.1094413972 ; 7362307.724762442 ; 1.6401244732162472E7 ; 20944.000000000004
89 ; 102139.03162798843 ; 238955.2718993611 ; 7464425.879014093 ; 1.663873584160387E7 ; 21182.000000000004
90 ; 101700.69775899779 ; 240422.49928449508 ; 7566564.910642082 ; 1.687769111350323E7 ; 21420.000000000004
91 ; 101963.31826752271 ; 241892.60437991953 ; 7668265.60840108 ; 1.7118113612787724E7 ; 21658.000000000004
92 ; 102127.49128658521 ; 243365.40490016667 ; 7770228.926668602 ; 1.7360006217167642E7 ; 21896.000000000004
93 ; 101773.26195338125 ; 244840.7233248563 ; 7872356.417955187 ; 1.760337162206781E7 ; 22134.000000000004
94 ; 101717.75409026629 ; 246318.38673774764 ; 7974129.679908568 ; 1.7848212345392667E7 ; 22372.000000000004
95 ; 101455.32373048237 ; 247798.22667106887 ; 8075847.433998834 ; 1.8094530732130416E7 ; 22610.000000000004
96 ; 101592.04758075182 ; 249280.0789550208 ; 8177302.757729317 ; 1.8342328958801486E7 ; 22848.000000000004
97 ; 101561.7076696631 ; 250763.78357234108 ; 8278894.805310069 ; 1.8591609037756506E7 ; 23086.000000000004
98 ; 101437.87076674702 ; 252249.18451781193 ; 8380456.512979732 ; 1.884237282132885E7 ; 23324.000000000004
99 ; 100773.75499029501 ; 253736.1296625901 ; 8481894.383746479 ; 1.909462200584666E7 ; 23562.000000000004
100 ; 101001.90231677715 ; 255224.4706232336 ; 8582668.138736773 ; 1.9348358135509253E7 ; 23800.000000000004
101 ; 100664.74651686159 ; 256714.06263529783 ; 8683670.04105355 ; 1.9603582606132485E7 ; 24038.000000000004
102 ; 100405.7166065206 ; 258204.76443137386 ; 8784334.787570411 ; 1.9860296668767784E7 ; 24276.000000000004
103 ; 100019.36768564492 ; 259696.43812343793 ; 8884740.504176931 ; 2.0118501433199156E7 ; 24514.000000000004
104 ; 100011.54188876273 ; 261188.94908938458 ; 8984759.871862577 ; 2.0378197871322595E7 ; 24752.000000000004
105 ; 99606.11580849762 ; 262682.1658636145 ; 9084771.41375134 ; 2.063938682041198E7 ; 24990.000000000004
106 ; 99010.11058590643 ; 264175.96003154805 ; 9184377.529559838 ; 2.0902068986275595E7 ; 25228.000000000004
107 ; 98785.36765824773 ; 265670.206127941 ; 9283387.640145743 ; 2.116624494630714E7 ; 25466.000000000004
108 ; 98718.24324348263 ; 267164.78153887513 ; 9382173.007803991 ; 2.1431915152435083E7 ; 25704.000000000004
109 ; 98079.36739772926 ; 268659.5664073026 ; 9480891.251047473 ; 2.1699079933973957E7 ; 25942.000000000004
110 ; 98014.35119301727 ; 270154.44354202505 ; 9578970.618445203 ; 2.196773950038126E7 ; 26180.000000000004
111 ; 97864.25389067718 ; 271649.2983299871 ; 9676984.96963822 ; 2.2237893943923287E7 ; 26418.000000000004
112 ; 96823.35846098806 ; 273144.0186517718 ; 9774849.223528896 ; 2.2509543242253274E7 ; 26656.000000000004
113 ; 96673.43027967637 ; 274638.4948001838 ; 9871672.581989884 ; 2.2782687260905046E7 ; 26894.000000000004
114 ; 96149.55669450793 ; 276132.6194018119 ; 9968346.01226956 ; 2.305732575570523E7 ; 27132.000000000004
115 ; 95415.74656689112 ; 277626.28734146437 ; 1.0064495568964068E7 ; 2.3333458375107042E7 ; 27370.000000000004
116 ; 95378.61494162095 ; 279119.395689373 ; 1.015991131553096E7 ; 2.3611084662448507E7 ; 27608.000000000004
117 ; 94695.82510018923 ; 280611.84363106557 ; 1.025528993047258E7 ; 2.389020405813788E7 ; 27846.000000000004
118 ; 94401.33205019741 ; 282103.5323998097 ; 1.034998575557277E7 ; 2.4170815901768945E7 ; 28084.000000000004
119 ; 93227.06685558132 ; 283594.36521153233 ; 1.0444387087622967E7 ; 2.4452919434168756E7 ; 28322.000000000004
120 ; 93406.57084202804 ; 285084.2472021252 ; 1.0537614154478548E7 ; 2.4736513799380288E7 ; 28560.000000000004
121 ; 92360.13045687972 ; 286573.085367046 ; 1.0631020725320576E7 ; 2.5021598046582412E7 ; 28798.000000000004
122 ; 92021.63108579705 ; 288060.7885031303 ; 1.0723380855777455E7 ; 2.530817113194946E7 ; 29036.000000000004
123 ; 91762.63569694872 ; 289547.26715253206 ; 1.0815402486863252E7 ; 2.5596231920452587E7 ; 29274.000000000004
124 ; 91314.5968907897 ; 291032.43354871194 ; 1.0907165122560201E7 ; 2.588577918760512E7 ; 29512.000000000004
125 ; 90232.92097741122 ; 292516.20156439696 ; 1.0998479719450992E7 ; 2.617681162115383E7 ; 29750.000000000004
126 ; 89948.82470194966 ; 293998.48666143673 ; 1.1088712640428403E7 ; 2.646932782271823E7 ; 29988.000000000004
127 ; 89527.94310057102 ; 295479.205842485 ; 1.1178661465130353E7 ; 2.6763326309379667E7 ; 30226.000000000004
128 ; 88595.97502075408 ; 296958.277604437 ; 1.1268189408230925E7 ; 2.705880551522215E7 ; 30464.000000000004
129 ; 88123.17034234358 ; 298435.6218935564 ; 1.1356785383251678E7 ; 2.735576379282659E7 ; 30702.000000000004
130 ; 87138.55899800164 ; 299911.160062227 ; 1.1444908553594021E7 ; 2.7654199414720144E7 ; 30940.000000000004
131 ; 86996.37657032066 ; 301384.81482726894 ; 1.1532047112592023E7 ; 2.795411057478237E7 ; 31178.000000000004
132 ; 86029.09692581857 ; 302856.51022975775 ; 1.1619043489162343E7 ; 2.8255495389609642E7 ; 31416.000000000004
133 ; 85230.9564078282 ; 304326.17159629165 ; 1.1705072586088162E7 ; 2.85583518998394E7 ; 31654.000000000004
134 ; 84684.78951935038 ; 305793.72550164955 ; 1.179030354249599E7 ; 2.8862678071435694E7 ; 31892.000000000004
135 ; 83527.90408279034 ; 307259.09973278904 ; 1.1874988332015341E7 ; 2.9168471796937343E7 ; 32130.000000000004
136 ; 82999.13680103378 ; 308722.22325413156 ; 1.1958516236098131E7 ; 2.9475730896670133E7 ; 32368.000000000004
137 ; 81857.03443396816 ; 310183.02617408783 ; 1.2041515372899165E7 ; 2.9784453119924266E7 ; 32606.000000000004
138 ; 81606.8760717862 ; 311641.439712774 ; 1.2123372407333134E7 ; 3.0094636146098353E7 ; 32844.00000000001
139 ; 80383.8775746633 ; 313097.3961708764 ; 1.220497928340492E7 ; 3.0406277585811127E7 ; 33082.00000000001
140 ; 79257.30729955748 ; 314550.8288996181 ; 1.2285363160979584E7 ; 3.0719374981982004E7 ; 33320.00000000001
141 ; 78885.26416064118 ; 316001.67227178824 ; 1.2364620468279142E7 ; 3.1033925810881622E7 ; 33558.00000000001
142 ; 78180.30403103113 ; 317449.8616537923 ; 1.2443505732439782E7 ; 3.134992748315341E7 ; 33796.00000000001
143 ; 77045.08405233339 ; 318895.3333786861 ; 1.2521686036470814E7 ; 3.1667377344807204E7 ; 34034.00000000001
144 ; 76165.34906139318 ; 320338.02472015464 ; 1.2598731120523147E7 ; 3.198627267818589E7 ; 34272.00000000001
145 ; 75923.22225860343 ; 321777.8738674022 ; 1.267489646958454E7 ; 3.2306610702906046E7 ; 34510.00000000001
146 ; 75973.03637844161 ; 323214.8199009182 ; 1.2750819691843143E7 ; 3.262838857677345E7 ; 34748.00000000001
147 ; 75685.76466230617 ; 324648.8027690861 ; 1.2826792728221584E7 ; 3.295160339667437E7 ; 34986.00000000001
148 ; 75308.74861974656 ; 326079.7632656047 ; 1.290247849288389E7 ; 3.3276252199443456E7 ; 35224.00000000001
149 ; 75522.2715277136 ; 327507.64300768997 ; 1.2977787241503637E7 ; 3.360233196270906E7 ; 35462.00000000001
150 ; 75057.22673309167 ; 328932.3844150298 ; 1.305330951303135E7 ; 3.392983960571675E7 ; 35700.00000000001
151 ; 74319.24665324017 ; 330353.93068946275 ; 1.3128366739764443E7 ; 3.425877199013178E7 ; 35938.00000000001
152 ; 74535.26474524185 ; 331772.22579535434 ; 1.3202685986417683E7 ; 3.458912592082124E7 ; 36176.00000000001
153 ; 74309.81691180426 ; 333187.2144406445 ; 1.3277221251162924E7 ; 3.492089814661659E7 ; 36414.00000000001
154 ; 74109.22911400994 ; 334598.84205854224 ; 1.3351531068074727E7 ; 3.525408536105724E7 ; 36652.00000000001
155 ; 73841.719072214 ; 336007.0547898434 ; 1.3425640297188736E7 ; 3.5588684203115776E7 ; 36890.00000000001
156 ; 73745.76002014424 ; 337411.7994658478 ; 1.349948201626095E7 ; 3.592469125790562E7 ; 37128.00000000001
157 ; 73081.9517891396 ; 338813.0235918547 ; 1.3573227776281094E7 ; 3.626210305737147E7 ; 37366.00000000001
158 ; 73043.69215118015 ; 340210.6753312157 ; 1.3646309728070233E7 ; 3.660091608096332E7 ; 37604.00000000001
159 ; 72785.57279247862 ; 341604.7034899231 ; 1.3719353420221413E7 ; 3.694112675629453E7 ; 37842.00000000001
160 ; 72358.78208691941 ; 342995.05750171654 ; 1.379213899301389E7 ; 3.7282731459784456E7 ; 38080.00000000001
161 ; 71962.67430905148 ; 344381.68741368694 ; 1.386449777510081E7 ; 3.7625726517286174E7 ; 38318.00000000001
162 ; 72315.5542535749 ; 345764.5438723615 ; 1.3936460449409861E7 ; 3.797010820469986E7 ; 38556.00000000001
163 ; 71466.81906266516 ; 347143.5781102509 ; 1.4008776003663436E7 ; 3.831587274857222E7 ; 38794.00000000001
164 ; 71243.91648961978 ; 348518.7419328434 ; 1.40802428227261E7 ; 3.866301632668247E7 ; 39032.00000000001
165 ; 71141.65518356196 ; 349889.9877060292 ; 1.415148673921572E7 ; 3.901153506861532E7 ; 39270.00000000001
166 ; 70969.60811192058 ; 351257.26834393933 ; 1.4222628394399282E7 ; 3.9361425056321345E7 ; 39508.00000000001
167 ; 70457.67776781949 ; 352620.53729718446 ; 1.4293598002511201E7 ; 3.9712682324665286E7 ; 39746.00000000001
168 ; 69932.30736460768 ; 353979.7485414807 ; 1.436405568027902E7 ; 4.006530286196247E7 ; 39984.00000000001
169 ; 69759.79265846086 ; 355334.85656664625 ; 1.4433987987643627E7 ; 4.041928261050395E7 ; 40222.00000000001
170 ; 69491.22703823773 ; 356685.81636595784 ; 1.4503747780302089E7 ; 4.0774617467070594E7 ; 40460.00000000001
171 ; 68952.90742892369 ; 358032.5834258535 ; 1.4573239007340327E7 ; 4.113130328343655E7 ; 40698.00000000001
172 ; 68719.32866029035 ; 359375.11371596943 ; 1.464219191476925E7 ; 4.148933586686241E7 ; 40936.00000000001
173 ; 68542.25368516878 ; 360713.36367949896 ; 1.4710911243429542E7 ; 4.184871098057838E7 ; 41174.00000000001
174 ; 68252.15634379335 ; 362047.29022386397 ; 1.477945349711471E7 ; 4.220942434425788E7 ; 41412.00000000001
175 ; 68532.96838419363 ; 363376.85071168526 ; 1.4847705653458504E7 ; 4.257147163448174E7 ; 41650.00000000001
176 ; 68883.02609675276 ; 364702.0029520439 ; 1.4916238621842697E7 ; 4.293484848519343E7 ; 41888.00000000001
177 ; 69183.79586356317 ; 366022.7051920221 ; 1.498512164793945E7 ; 4.329955048814548E7 ; 42126.00000000001
178 ; 69016.45298943366 ; 367338.9161085147 ; 1.5054305443803012E7 ; 4.36655731933375E7 ; 42364.00000000001
179 ; 69349.92879996858 ; 368650.594800301 ; 1.5123321896792445E7 ; 4.403291210944601E7 ; 42602.00000000001
180 ; 69430.0666366485 ; 369957.7007803699 ; 1.5192671825592414E7 ; 4.440156270424631E7 ; 42840.00000000001
181 ; 69745.79023904838 ; 371260.19396848686 ; 1.5262101892229062E7 ; 4.477152040502668E7 ; 43078.00000000001
182 ; 69717.86508289697 ; 372558.0346839973 ; 1.533184768246811E7 ; 4.514278059899517E7 ; 43316.00000000001
