CSV File for the Network on Day 338
1 - Minute m 
2 - Power Consumed at minute m 
3 - Power Produced at minute m 
4 - Energy Consumed since the beginning of the day 
5 - Energy Produced since the beginning of the day 
6 - Energy Lost since the beginning of the day 
 
No Production city : 2, Producer : 1
No Production city : 4, Producer : 1
No Production city : 4, Producer : 1
 
0 ; 58439.8237184179 ; 201897.60912351529 ; 0.0 ; 0.0 ; 0.0
1 ; 59501.18687478181 ; 201552.31794800414 ; 58439.8237184179 ; 201897.60912351529 ; 238.00000000000003
2 ; 60057.31530449433 ; 201242.49841064968 ; 117941.01059319971 ; 403449.9270715194 ; 476.00000000000006
3 ; 60918.691266344176 ; 200968.4370215396 ; 177998.32589769404 ; 604692.4254821691 ; 714.0000000000001
4 ; 61917.85657833765 ; 200730.38953759073 ; 238917.0171640382 ; 805660.8625037088 ; 952.0000000000001
5 ; 62621.64246333218 ; 200528.57988987118 ; 300834.8737423759 ; 1006391.2520412996 ; 1190.0000000000002
6 ; 63340.25846346785 ; 200363.19923100443 ; 363456.51620570803 ; 1206919.8319311708 ; 1428.0000000000002
7 ; 63911.10575286904 ; 200234.40511207885 ; 426796.77466917585 ; 1407283.0311621751 ; 1666.0000000000002
8 ; 64354.468286465024 ; 200142.32079734266 ; 490707.8804220449 ; 1607517.436274254 ; 1904.0000000000002
9 ; 65360.81604080676 ; 200087.0347236778 ; 555062.3487085099 ; 1807659.7570715966 ; 2142.0000000000005
10 ; 66035.2079625158 ; 200068.6001104332 ; 620423.1647493166 ; 2007746.7917952742 ; 2380.0000000000005
11 ; 66710.09149802697 ; 200087.0347236778 ; 686458.3727118324 ; 2207815.3919057073 ; 2618.0000000000005
12 ; 67601.90459753663 ; 200142.32079734266 ; 753168.4642098594 ; 2407902.426629385 ; 2856.0000000000005
13 ; 68565.25253996655 ; 200234.40511207885 ; 820770.368807396 ; 2608044.747426728 ; 3094.0000000000005
14 ; 69289.02601782446 ; 200363.19923100443 ; 889335.6213473626 ; 2808279.1525388067 ; 3332.0000000000005
15 ; 69481.35306108858 ; 200528.57988987118 ; 958624.6473651871 ; 3008642.351769811 ; 3570.0000000000005
16 ; 70398.35043452546 ; 200730.38953759073 ; 1028106.0004262757 ; 3209170.931659682 ; 3808.0000000000005
17 ; 70780.56445552662 ; 200968.43702153955 ; 1098504.350860801 ; 3409901.3211972727 ; 4046.0000000000005
18 ; 71879.18865823462 ; 201242.49841064974 ; 1169284.9153163277 ; 3610869.7582188123 ; 4284.000000000001
19 ; 72303.73598747929 ; 201552.31794800406 ; 1241164.1039745624 ; 3812112.256629462 ; 4522.000000000001
20 ; 72831.98882183208 ; 201897.60912351534 ; 1313467.8399620417 ; 4013664.574577466 ; 4760.000000000001
21 ; 73018.44245526157 ; 202278.05585629508 ; 1386299.8287838737 ; 4215562.183700982 ; 4998.000000000001
22 ; 73741.6481545092 ; 202693.31377551958 ; 1459318.2712391352 ; 4417840.2395572765 ; 5236.000000000001
23 ; 74703.11700697907 ; 203143.01158798844 ; 1533059.9193936444 ; 4620533.553332796 ; 5474.000000000001
24 ; 75131.2511653387 ; 203626.75252014183 ; 1607763.0364006236 ; 4823676.564920785 ; 5712.000000000001
25 ; 75063.45244962924 ; 204144.11582206722 ; 1682894.2875659624 ; 5027303.317440927 ; 5950.000000000001
26 ; 76170.8216113151 ; 204694.65832096117 ; 1757957.7400155917 ; 5231447.4332629945 ; 6188.000000000001
27 ; 77327.9386807095 ; 205277.91601162739 ; 1834128.5616269067 ; 5436142.091583956 ; 6426.000000000001
28 ; 77210.33691103155 ; 205893.40567185884 ; 1911456.5003076163 ; 5641420.007595584 ; 6664.000000000001
29 ; 77726.79716622017 ; 206540.6264909673 ; 1988666.8372186478 ; 5847313.413267443 ; 6902.000000000001
30 ; 78162.5593289221 ; 207219.06170026175 ; 2066393.634384868 ; 6053854.03975841 ; 7140.000000000001
31 ; 78748.60771890834 ; 207928.18019492712 ; 2144556.1937137903 ; 6261073.101458672 ; 7378.000000000001
32 ; 79658.1506221092 ; 208667.43813749068 ; 2223304.8014326985 ; 6469001.2816536 ; 7616.000000000001
33 ; 80038.99753784406 ; 209436.2805338711 ; 2302962.952054808 ; 6677668.71979109 ; 7854.000000000001
34 ; 80555.7132386805 ; 210234.14277386223 ; 2383001.949592652 ; 6887105.000324961 ; 8092.000000000001
35 ; 80415.41739633618 ; 211060.4521287949 ; 2463557.6628313325 ; 7097339.143098823 ; 8330.000000000002
36 ; 81297.9488718494 ; 211914.62920002302 ; 2543973.080227669 ; 7308399.595227618 ; 8568.000000000002
37 ; 81787.42440647773 ; 212796.08931278778 ; 2625271.0290995184 ; 7520314.22442764 ; 8806.000000000002
38 ; 81919.62525631582 ; 213704.24385090248 ; 2707058.453505996 ; 7733110.313740429 ; 9044.000000000002
39 ; 82923.83662228429 ; 214638.5015285653 ; 2788978.078762312 ; 7946814.557591331 ; 9282.000000000002
40 ; 83101.3669501667 ; 215598.26959643356 ; 2871901.915384596 ; 8161453.059119897 ; 9520.000000000002
41 ; 83880.91476114168 ; 216582.95497987562 ; 2955003.282334763 ; 8377051.32871633 ; 9758.000000000002
42 ; 83434.38219283568 ; 217591.96534804523 ; 3038884.197095905 ; 8593634.283696206 ; 9996.000000000002
43 ; 84341.09000596077 ; 218624.71011309657 ; 3122318.5792887406 ; 8811226.24904425 ; 10234.000000000002
44 ; 84787.05415783508 ; 219680.6013594701 ; 3206659.6692947014 ; 9029850.959157348 ; 10472.000000000002
45 ; 84736.8542094053 ; 220759.05470373068 ; 3291446.7234525364 ; 9249531.560516817 ; 10710.000000000002
46 ; 85587.0850484912 ; 221859.49008592858 ; 3376183.5776619418 ; 9470290.615220549 ; 10948.000000000002
47 ; 85998.05221975733 ; 222981.3324938791 ; 3461770.662710433 ; 9692150.105306476 ; 11186.000000000002
48 ; 86259.09053063672 ; 224124.01262212504 ; 3547768.7149301902 ; 9915131.437800355 ; 11424.000000000002
49 ; 86620.7934482682 ; 225286.96746765496 ; 3634027.805460827 ; 1.013925545042248E7 ; 11662.000000000002
50 ; 86864.80899106586 ; 226469.64086470503 ; 3720648.598909095 ; 1.0364542417890135E7 ; 11900.000000000002
51 ; 87291.2013211701 ; 227671.48396117677 ; 3807513.4079001606 ; 1.059101205875484E7 ; 12138.000000000002
52 ; 87733.9936156608 ; 228891.95563935852 ; 3894804.609221331 ; 1.0818683542716017E7 ; 12376.000000000002
53 ; 87817.29747149034 ; 230130.52288375425 ; 3982538.6028369917 ; 1.1047575498355376E7 ; 12614.000000000002
54 ; 87884.3920521142 ; 231386.66109889484 ; 4070355.900308482 ; 1.127770602123913E7 ; 12852.000000000002
55 ; 88698.92411066814 ; 232659.8543800505 ; 4158240.292360596 ; 1.1509092682338025E7 ; 13090.000000000002
56 ; 88783.39810836052 ; 233949.59573977068 ; 4246939.216471264 ; 1.1741752536718076E7 ; 13328.000000000002
57 ; 88927.45914942675 ; 235255.38729315752 ; 4335722.6145796245 ; 1.1975702132457847E7 ; 13566.000000000002
58 ; 88713.97291352293 ; 236576.7404047438 ; 4424650.073729051 ; 1.2210957519751005E7 ; 13804.000000000002
59 ; 89026.90381160653 ; 237913.1757997805 ; 4513364.0466425745 ; 1.2447534260155749E7 ; 14042.000000000002
60 ; 89406.96308569923 ; 239264.22364266656 ; 4602390.950454181 ; 1.2685447435955528E7 ; 14280.000000000002
61 ; 90077.7537399272 ; 240629.42358516014 ; 4691797.91353988 ; 1.2924711659598194E7 ; 14518.000000000002
62 ; 89611.13656903502 ; 242008.32478691393 ; 4781875.667279807 ; 1.3165341083183354E7 ; 14756.000000000002
63 ; 90015.24710723496 ; 243400.48591076533 ; 4871486.803848842 ; 1.3407349407970268E7 ; 14994.000000000002
64 ; 90296.26541178903 ; 244805.47509509977 ; 4961502.050956077 ; 1.3650749893881034E7 ; 15232.000000000002
65 ; 90487.87902826277 ; 246222.86990548726 ; 5051798.316367866 ; 1.3895555368976135E7 ; 15470.000000000002
66 ; 91008.49574868848 ; 247652.25726767106 ; 5142286.195396128 ; 1.4141778238881622E7 ; 15708.000000000002
67 ; 90807.99858882595 ; 249093.23338386609 ; 5233294.691144817 ; 1.4389430496149292E7 ; 15946.000000000002
68 ; 91180.88948897776 ; 250545.40363420534 ; 5324102.689733642 ; 1.4638523729533158E7 ; 16184.000000000002
69 ; 90760.38160098685 ; 252008.3824650521 ; 5415283.5792226195 ; 1.4889069133167364E7 ; 16422.000000000004
70 ; 91573.00669051746 ; 253481.7932657801 ; 5506043.960823607 ; 1.5141077515632415E7 ; 16660.000000000004
71 ; 91856.175205008 ; 254965.26823550937 ; 5597616.967514124 ; 1.5394559308898196E7 ; 16898.000000000004
72 ; 91864.24601701836 ; 256458.4482411771 ; 5689473.142719132 ; 1.5649524577133706E7 ; 17136.000000000004
73 ; 91764.15280987583 ; 257960.98266821678 ; 5781337.38873615 ; 1.5905983025374884E7 ; 17374.000000000004
74 ; 92344.03837073167 ; 259472.5292650176 ; 5873101.541546026 ; 1.6163944008043101E7 ; 17612.000000000004
75 ; 92168.99673217698 ; 260992.75398224042 ; 5965445.5799167575 ; 1.642341653730812E7 ; 17850.000000000004
76 ; 92145.74267951507 ; 262521.3308079762 ; 6057614.576648935 ; 1.668440929129036E7 ; 18088.000000000004
77 ; 91986.71986341676 ; 264057.9415996436 ; 6149760.31932845 ; 1.6946930622098334E7 ; 18326.000000000004
78 ; 91694.18751054468 ; 265602.27591344656 ; 6241747.039191866 ; 1.721098856369798E7 ; 18564.000000000004
79 ; 92116.05553714017 ; 267154.03083212976 ; 6333441.226702411 ; 1.7476590839611426E7 ; 18802.000000000004
80 ; 92428.45431502204 ; 268712.9107917039 ; 6425557.282239551 ; 1.7743744870443556E7 ; 19040.000000000004
81 ; 92557.93819341052 ; 270278.62740774354 ; 6517985.736554572 ; 1.801245778123526E7 ; 19278.000000000004
82 ; 92338.13526787823 ; 271850.8993017986 ; 6610543.674747983 ; 1.8282736408643004E7 ; 19516.000000000004
83 ; 92351.20106843882 ; 273429.451928403 ; 6702881.810015861 ; 1.85545873079448E7 ; 19754.000000000004
84 ; 91867.99141042166 ; 275014.0174031108 ; 6795233.0110843 ; 1.8828016759873204E7 ; 19992.000000000004
85 ; 92464.22343832036 ; 276604.3343319411 ; 6887101.002494721 ; 1.9103030777276315E7 ; 20230.000000000004
86 ; 92133.7557968221 ; 278200.1476425664 ; 6979565.225933041 ; 1.9379635111608256E7 ; 20468.000000000004
87 ; 91978.451453655 ; 279801.20841753954 ; 7071698.981729863 ; 1.9657835259250823E7 ; 20706.000000000004
88 ; 92306.7941069898 ; 281407.27372981276 ; 7163677.433183518 ; 1.9937636467668362E7 ; 20944.000000000004
89 ; 92352.87216946368 ; 283018.10648077214 ; 7255984.227290508 ; 2.0219043741398174E7 ; 21182.000000000004
90 ; 92128.57096999002 ; 284633.4752409727 ; 7348337.099459972 ; 2.0502061847878948E7 ; 21420.000000000004
91 ; 91771.49310780516 ; 286253.1540937353 ; 7440465.670429963 ; 2.078669532311992E7 ; 21658.000000000004
92 ; 92054.70223014592 ; 287876.92248173844 ; 7532237.163537768 ; 2.1072948477213655E7 ; 21896.000000000004
93 ; 92051.35637262466 ; 289504.5650567116 ; 7624291.865767914 ; 2.1360825399695393E7 ; 22134.000000000004
94 ; 91848.6810108184 ; 291135.8715323197 ; 7716343.2221405385 ; 2.1650329964752104E7 ; 22372.000000000004
95 ; 91383.42008992836 ; 292770.6365403039 ; 7808191.903151357 ; 2.1941465836284425E7 ; 22610.000000000004
96 ; 91846.36267933085 ; 294408.65948992915 ; 7899575.323241285 ; 2.223423647282473E7 ; 22848.000000000004
97 ; 91464.76872717286 ; 296049.7444307734 ; 7991421.685920616 ; 2.252864513231466E7 ; 23086.000000000004
98 ; 91141.25041367685 ; 297693.69991887634 ; 8082886.454647789 ; 2.2824694876745433E7 ; 23324.000000000004
99 ; 91454.33486183782 ; 299340.33888625575 ; 8174027.7050614655 ; 2.312238857666431E7 ; 23562.000000000004
100 ; 91231.18772294244 ; 300989.47851378814 ; 8265482.039923304 ; 2.3421728915550567E7 ; 23800.000000000004
101 ; 90809.49571696237 ; 302640.9401074373 ; 8356713.227646247 ; 2.3722718394064356E7 ; 24038.000000000004
102 ; 90634.97502144391 ; 304294.54897781083 ; 8447522.72336321 ; 2.4025359334171794E7 ; 24276.000000000004
103 ; 90899.87727942826 ; 305950.13432301156 ; 8538157.698384654 ; 2.4329653883149605E7 ; 24514.000000000004
104 ; 90624.08319222569 ; 307607.52911474847 ; 8629057.575664083 ; 2.4635604017472617E7 ; 24752.000000000004
105 ; 90123.15172877809 ; 309266.56998766353 ; 8719681.658856308 ; 2.4943211546587367E7 ; 24990.000000000004
106 ; 89754.28782955829 ; 310927.0971318264 ; 8809804.810585085 ; 2.525247811657503E7 ; 25228.000000000004
107 ; 90008.35573708941 ; 312588.95418834506 ; 8899559.098414643 ; 2.5563405213706855E7 ; 25466.000000000004
108 ; 89310.07033657501 ; 314251.98814803665 ; 8989567.454151733 ; 2.58759941678952E7 ; 25704.000000000004
109 ; 89285.4261553385 ; 315916.04925309925 ; 9078877.524488308 ; 2.619024615604324E7 ; 25942.000000000004
110 ; 88714.34395583937 ; 317580.9909017244 ; 9168162.950643646 ; 2.6506162205296338E7 ; 26180.000000000004
111 ; 88647.34020167861 ; 319246.6695555861 ; 9256877.294599485 ; 2.682374319619806E7 ; 26418.000000000004
112 ; 88227.98723516568 ; 320912.94465014286 ; 9345524.634801162 ; 2.7142989865753647E7 ; 26656.000000000004
113 ; 87993.69842110015 ; 322579.6785076854 ; 9433752.622036329 ; 2.746390281040379E7 ; 26894.000000000004
114 ; 88126.38388784148 ; 324246.73625306535 ; 9521746.320457429 ; 2.7786482488911476E7 ; 27132.000000000004
115 ; 87761.92570843142 ; 325913.98573203606 ; 9609872.704345271 ; 2.811072922516454E7 ; 27370.000000000004
116 ; 86797.35365220247 ; 327581.2974321401 ; 9697634.630053703 ; 2.8436643210896578E7 ; 27608.000000000004
117 ; 86820.84215860796 ; 329248.54440607416 ; 9784431.983705904 ; 2.8764224508328717E7 ; 27846.000000000004
118 ; 86190.85284313811 ; 330915.6021974666 ; 9871252.825864512 ; 2.9093473052734792E7 ; 28084.000000000004
119 ; 85722.5477276851 ; 332582.3487689996 ; 9957443.67870765 ; 2.942438865493226E7 ; 28322.000000000004
120 ; 85727.6683721162 ; 334248.6644328105 ; 1.0043166226435335E7 ; 2.975697100370126E7 ; 28560.000000000004
121 ; 85457.24212438174 ; 335914.43178310734 ; 1.0128893894807452E7 ; 3.0091219668134067E7 ; 28798.000000000004
122 ; 84938.84119774442 ; 337579.5356309346 ; 1.0214351136931835E7 ; 3.0427134099917173E7 ; 29036.000000000004
123 ; 84390.75157290604 ; 339243.8629410248 ; 1.0299289978129579E7 ; 3.0764713635548107E7 ; 29274.000000000004
124 ; 84303.79097061312 ; 340907.30277067545 ; 1.0383680729702484E7 ; 3.1103957498489134E7 ; 29512.000000000004
125 ; 83538.85218474336 ; 342569.7462105882 ; 1.0467984520673096E7 ; 3.144486480125981E7 ; 29750.000000000004
126 ; 83008.26021855649 ; 344231.0863276124 ; 1.0551523372857839E7 ; 3.17874345474704E7 ; 29988.000000000004
127 ; 82593.0823457263 ; 345891.2181093331 ; 1.0634531633076396E7 ; 3.213166563379801E7 ; 30226.000000000004
128 ; 82672.29045019929 ; 347550.03841044643 ; 1.0717124715422122E7 ; 3.2477556851907343E7 ; 30464.000000000004
129 ; 81805.81712122618 ; 349207.44590086746 ; 1.079979700587232E7 ; 3.282510689031779E7 ; 30702.000000000004
130 ; 81164.81247275643 ; 350863.3410155134 ; 1.0881602822993547E7 ; 3.317431433621866E7 ; 30940.000000000004
131 ; 80769.92306115398 ; 352517.6259057125 ; 1.0962767635466304E7 ; 3.3525177677234173E7 ; 31178.000000000004
132 ; 80622.14101399962 ; 354170.20439218264 ; 1.1043537558527458E7 ; 3.387769530313989E7 ; 31416.000000000004
133 ; 80414.46315630354 ; 355820.9819195332 ; 1.1124159699541459E7 ; 3.423186550753207E7 ; 31654.000000000004
134 ; 79950.85837010127 ; 357469.86551223765 ; 1.1204574162697762E7 ; 3.45876864894516E7 ; 31892.000000000004
135 ; 79316.86833388495 ; 359116.7637320309 ; 1.1284525021067863E7 ; 3.494515635496384E7 ; 32130.000000000004
136 ; 78561.14991049876 ; 360761.58663668495 ; 1.1363841889401749E7 ; 3.530427311869587E7 ; 32368.000000000004
137 ; 78205.54947541823 ; 362404.2457401169 ; 1.1442403039312247E7 ; 3.5665034705332555E7 ; 32606.000000000004
138 ; 77573.33427160903 ; 364044.65397378645 ; 1.1520608588787666E7 ; 3.602743895107267E7 ; 32844.00000000001
139 ; 77093.552975419 ; 365682.7256493397 ; 1.1598181923059275E7 ; 3.639148360504646E7 ; 33082.00000000001
140 ; 75990.05097995535 ; 367318.3764224591 ; 1.1675275476034695E7 ; 3.67571663306958E7 ; 33320.00000000001
141 ; 75715.74808998461 ; 368951.5232578781 ; 1.175126552701465E7 ; 3.712448470711826E7 ; 33558.00000000001
142 ; 75760.10527837486 ; 370582.08439552365 ; 1.1826981275104634E7 ; 3.749343623037614E7 ; 33796.00000000001
143 ; 75241.11777900963 ; 372209.979317748 ; 1.190274138038301E7 ; 3.786401831477166E7 ; 34034.00000000001
144 ; 74424.16904590817 ; 373835.12871761306 ; 1.1977982498162018E7 ; 3.823622829408941E7 ; 34272.00000000001
145 ; 74030.78742774215 ; 375457.4544681944 ; 1.2052406667207927E7 ; 3.861006342280702E7 ; 34510.00000000001
146 ; 74178.83087037803 ; 377076.87959286827 ; 1.2126437454635669E7 ; 3.898552087727521E7 ; 34748.00000000001
147 ; 73479.57033804363 ; 378693.3282365502 ; 1.2200616285506047E7 ; 3.936259775686808E7 ; 34986.00000000001
148 ; 73712.52388578023 ; 380306.72563785414 ; 1.2274095855844092E7 ; 3.974129108510463E7 ; 35224.00000000001
149 ; 73357.04984335884 ; 381916.99810213916 ; 1.2347808379729873E7 ; 4.012159781074248E7 ; 35462.00000000001
150 ; 73315.13459548034 ; 383524.07297541614 ; 1.2421165429573232E7 ; 4.050351480884462E7 ; 35700.00000000001
151 ; 73299.9581787405 ; 385127.8786190849 ; 1.2494480564168712E7 ; 4.088703888182004E7 ; 35938.00000000001
152 ; 72833.48053237206 ; 386728.3443854738 ; 1.2567780522347452E7 ; 4.127216676043912E7 ; 36176.00000000001
153 ; 72966.62523752362 ; 388325.4005941552 ; 1.2640614002879824E7 ; 4.1658895104824595E7 ; 36414.00000000001
154 ; 72480.4789413829 ; 389918.9785090107 ; 1.2713580628117349E7 ; 4.204722050541875E7 ; 36652.00000000001
155 ; 72324.6830164387 ; 391509.010316022 ; 1.2786061107058732E7 ; 4.243713948392776E7 ; 36890.00000000001
156 ; 71968.93568034224 ; 393095.4291017614 ; 1.285838579007517E7 ; 4.282864849424378E7 ; 37128.00000000001
157 ; 71870.89481904726 ; 394678.1688325604 ; 1.2930354725755513E7 ; 4.3221743923345536E7 ; 37366.00000000001
158 ; 71523.02574268493 ; 396257.1643343331 ; 1.300222562057456E7 ; 4.36164220921781E7 ; 37604.00000000001
159 ; 71541.1501590847 ; 397832.35127303144 ; 1.3073748646317245E7 ; 4.401267925651243E7 ; 37842.00000000001
160 ; 70879.05603505006 ; 399403.6661357141 ; 1.314528979647633E7 ; 4.441051160778546E7 ; 38080.00000000001
161 ; 70740.79214439765 ; 400971.046212205 ; 1.321616885251138E7 ; 4.480991527392118E7 ; 38318.00000000001
162 ; 70818.1598012403 ; 402534.4295773259 ; 1.3286909644655777E7 ; 4.521088632013338E7 ; 38556.00000000001
163 ; 70431.34386241136 ; 404093.7550736796 ; 1.3357727804457018E7 ; 4.561342074971071E7 ; 38794.00000000001
164 ; 70301.42439906465 ; 405648.9622949699 ; 1.3428159148319429E7 ; 4.601751450478439E7 ; 39032.00000000001
165 ; 70327.34156189862 ; 407199.9915698371 ; 1.3498460572718494E7 ; 4.6423163467079364E7 ; 39270.00000000001
166 ; 70101.81811326733 ; 408746.78394619445 ; 1.3568787914280392E7 ; 4.68303634586492E7 ; 39508.00000000001
167 ; 70281.52352559015 ; 410289.2811760473 ; 1.363888973239366E7 ; 4.72391102425954E7 ; 39746.00000000001
168 ; 69721.08406252124 ; 411827.4257007804 ; 1.370917125591925E7 ; 4.764939952377144E7 ; 39984.00000000001
169 ; 69446.11546094262 ; 413361.1606368969 ; 1.377889233998177E7 ; 4.8061226949472226E7 ; 40222.00000000001
170 ; 68826.58623037575 ; 414890.42976219516 ; 1.3848338455442714E7 ; 4.847458811010912E7 ; 40460.00000000001
171 ; 68674.11562651927 ; 416415.1775023684 ; 1.3917165041673088E7 ; 4.888947853987131E7 ; 40698.00000000001
172 ; 68584.41265242551 ; 417935.34891801386 ; 1.3985839157299608E7 ; 4.9305893717373684E7 ; 40936.00000000001
173 ; 67964.59176057021 ; 419450.8896920373 ; 1.4054423569952033E7 ; 4.97238290662917E7 ; 41174.00000000001
174 ; 68765.18527463196 ; 420961.7461174415 ; 1.4122388161712604E7 ; 5.0143279955983736E7 ; 41412.00000000001
175 ; 68520.03939236535 ; 422467.8650854845 ; 1.4191153346987236E7 ; 5.056424170210118E7 ; 41650.00000000001
176 ; 68256.5273186392 ; 423969.1940741968 ; 1.4259673386379601E7 ; 5.098670956718666E7 ; 41888.00000000001
177 ; 68871.10573906267 ; 425465.68113724556 ; 1.4327929913698241E7 ; 5.141067876126086E7 ; 42126.00000000001
178 ; 68874.62173426745 ; 426957.27489313454 ; 1.4396801019437304E7 ; 5.183614444239811E7 ; 42364.00000000001
179 ; 68925.60624798854 ; 428443.92451472935 ; 1.446567564117157E7 ; 5.226310171729124E7 ; 42602.00000000001
180 ; 68988.27516099362 ; 429925.57971909695 ; 1.453460124741956E7 ; 5.269154564180597E7 ; 42840.00000000001
181 ; 69209.3342817086 ; 431402.19075764937 ; 1.4603589522580555E7 ; 5.3121471221525066E7 ; 43078.00000000001
182 ; 69299.0091835186 ; 432873.7084065831 ; 1.4672798856862264E7 ; 5.355287341228271E7 ; 43316.00000000001
