CSV File for the Network on Day 239
1 - Minute m 
2 - Power Consumed at minute m 
3 - Power Produced at minute m 
4 - Energy Consumed since the beginning of the day 
5 - Energy Produced since the beginning of the day 
6 - Energy Lost since the beginning of the day 
 
No Production city : 2, Producer : 1
No Production city : 4, Producer : 1
No Production city : 4, Producer : 1
 
0 ; 29556.835514639082 ; 95688.36603032016 ; 0.0 ; 0.0 ; 0.0
1 ; 31148.557663799114 ; 94978.86937031226 ; 29556.835514639082 ; 95688.36603032016 ; 238.00000000000003
2 ; 32893.77603974863 ; 94327.58371687315 ; 60705.3931784382 ; 190667.23540063243 ; 476.00000000000006
3 ; 34948.752046015616 ; 93739.01321244519 ; 93599.16921818683 ; 284994.81911750557 ; 714.0000000000001
4 ; 36329.51389335164 ; 93217.62982850532 ; 128547.92126420245 ; 378733.83232995076 ; 952.0000000000001
5 ; 38043.77511184948 ; 92767.75133982886 ; 164877.4351575541 ; 471951.4621584561 ; 1190.0000000000002
6 ; 39344.57420994704 ; 92393.40111779694 ; 202921.2102694036 ; 564719.2134982849 ; 1428.0000000000002
7 ; 41288.10035180992 ; 92098.15693483883 ; 242265.7844793506 ; 657112.6146160818 ; 1666.0000000000002
8 ; 43112.953150056725 ; 91884.9993308991 ; 283553.88483116054 ; 749210.7715509207 ; 1904.0000000000002
9 ; 44279.622966611205 ; 91756.17262025742 ; 326666.83798121725 ; 841095.7708818198 ; 2142.0000000000005
10 ; 46102.03937728933 ; 91713.07247698461 ; 370946.4609478285 ; 932851.9435020771 ; 2380.0000000000005
11 ; 47145.00658513887 ; 91756.17262025742 ; 417048.50032511784 ; 1024565.0159790617 ; 2618.0000000000005
12 ; 49016.742288476176 ; 91884.9993308991 ; 464193.5069102567 ; 1116321.1885993192 ; 2856.0000000000005
13 ; 50355.37814459644 ; 92098.15693483883 ; 513210.2491987329 ; 1208206.1879302184 ; 3094.0000000000005
14 ; 52095.76716056296 ; 92393.40111779676 ; 563565.6273433294 ; 1300304.3448650572 ; 3332.0000000000005
15 ; 52550.942534439244 ; 92767.75133982886 ; 615661.3945038923 ; 1392697.745982854 ; 3570.0000000000005
16 ; 54829.0030146279 ; 93217.62982850532 ; 668212.3370383315 ; 1485465.4973226828 ; 3808.0000000000005
17 ; 55540.74453056555 ; 93739.01321244502 ; 723041.3400529595 ; 1578683.127151188 ; 4046.0000000000005
18 ; 57663.82788143214 ; 94327.58371687333 ; 778582.0845835251 ; 1672422.140363633 ; 4284.000000000001
19 ; 58790.213835970884 ; 94978.86937031208 ; 836245.9124649572 ; 1766749.7240805062 ; 4522.000000000001
20 ; 59769.56848118758 ; 95688.36603032016 ; 895036.1263009281 ; 1861728.5934508182 ; 4760.000000000001
21 ; 61006.71825771263 ; 96451.6374443863 ; 954805.6947821156 ; 1957416.9594811383 ; 4998.000000000001
22 ; 62226.392238172804 ; 97264.39246823723 ; 1015812.4130398283 ; 2053868.5969255245 ; 5236.000000000001
23 ; 63467.15859745508 ; 98122.54069619262 ; 1078038.8052780011 ; 2151132.989393762 ; 5474.000000000001
24 ; 64532.528044532184 ; 99022.22908044337 ; 1141505.9638754562 ; 2249255.5300899544 ; 5712.000000000001
25 ; 65867.74914394839 ; 99959.8627417645 ; 1206038.4919199885 ; 2348277.7591703977 ; 5950.000000000001
26 ; 67658.67257257798 ; 100932.11328230725 ; 1271906.2410639368 ; 2448237.6219121623 ; 6188.000000000001
27 ; 68382.95145081135 ; 101935.91768530804 ; 1339564.913636515 ; 2549169.7351944693 ; 6426.000000000001
28 ; 69757.86503615198 ; 102968.47048095764 ; 1407947.8650873262 ; 2651105.6528797774 ; 6664.000000000001
29 ; 71105.53964841312 ; 104027.21138505994 ; 1477705.7301234782 ; 2754074.123360735 ; 6902.000000000001
30 ; 71741.22804371205 ; 105109.81015034729 ; 1548811.2697718914 ; 2858101.334745795 ; 7140.000000000001
31 ; 73280.22558329474 ; 106214.14995021942 ; 1620552.4978156034 ; 2963211.144896142 ; 7378.000000000001
32 ; 74381.80776793213 ; 107338.31025921066 ; 1693832.723398898 ; 3069425.2948463615 ; 7616.000000000001
33 ; 75227.74543101301 ; 108480.5499071258 ; 1768214.53116683 ; 3176763.6051055724 ; 7854.000000000001
34 ; 75974.6492985504 ; 109639.29075977717 ; 1843442.276597843 ; 3285244.1550126984 ; 8092.000000000001
35 ; 77114.71605541122 ; 110813.10230999418 ; 1919416.9258963934 ; 3394883.4457724756 ; 8330.000000000002
36 ; 78477.61029304742 ; 112000.6873383221 ; 1996531.6419518045 ; 3505696.54808247 ; 8568.000000000002
37 ; 79663.09231440155 ; 113200.86871423192 ; 2075009.252244852 ; 3617697.235420792 ; 8806.000000000002
38 ; 80162.68417758666 ; 114412.57734748557 ; 2154672.3445592537 ; 3730898.104135024 ; 9044.000000000002
39 ; 81293.14568945733 ; 115634.84125870657 ; 2234835.0287368405 ; 3845310.6814825092 ; 9282.000000000002
40 ; 81953.27751271188 ; 116866.77571269765 ; 2316128.1744262977 ; 3960945.522741216 ; 9520.000000000002
41 ; 83021.92067413464 ; 118107.57434336959 ; 2398081.4519390096 ; 4077812.2984539135 ; 9758.000000000002
42 ; 83756.1663729875 ; 119356.50119205636 ; 2481103.372613144 ; 4195919.872797283 ; 9996.000000000002
43 ; 84754.48155748041 ; 120612.8835790777 ; 2564859.5389861315 ; 4315276.37398934 ; 10234.000000000002
44 ; 85658.36847651258 ; 121876.10572990675 ; 2649614.020543612 ; 4435889.257568418 ; 10472.000000000002
45 ; 86629.32377638653 ; 123145.60308093946 ; 2735272.3890201245 ; 4557765.363298325 ; 10710.000000000002
46 ; 87899.2489779984 ; 124420.85719474712 ; 2821901.712796511 ; 4680910.966379264 ; 10948.000000000002
47 ; 88060.44032100083 ; 125701.39122019593 ; 2909800.9617745094 ; 4805331.823574011 ; 11186.000000000002
48 ; 88427.14758273977 ; 126986.76583853284 ; 2997861.40209551 ; 4931033.214794207 ; 11424.000000000002
49 ; 89883.47391937874 ; 128276.57564216845 ; 3086288.5496782498 ; 5058019.98063274 ; 11662.000000000002
50 ; 90103.80298781591 ; 129570.44589828787 ; 3176172.0235976283 ; 5186296.556274909 ; 11900.000000000002
51 ; 91257.4919095235 ; 130868.0296544609 ; 3266275.826585444 ; 5315867.0021731965 ; 12138.000000000002
52 ; 91461.16061689949 ; 132169.005148081 ; 3357533.3184949677 ; 5446735.0318276575 ; 12376.000000000002
53 ; 92747.39116670731 ; 133473.0734856948 ; 3448994.479111867 ; 5578904.036975739 ; 12614.000000000002
54 ; 93157.8300839198 ; 134779.95656211214 ; 3541741.8702785745 ; 5712377.110461433 ; 12852.000000000002
55 ; 94255.37220175556 ; 136089.39519261743 ; 3634899.700362494 ; 5847157.0670235455 ; 13090.000000000002
56 ; 94779.7314656546 ; 137401.14743466795 ; 3729155.07256425 ; 5983246.462216163 ; 13328.000000000002
57 ; 95162.53306035043 ; 138714.98707818653 ; 3823934.8040299043 ; 6120647.609650831 ; 13566.000000000002
58 ; 95790.55834732359 ; 140030.70228597237 ; 3919097.3370902548 ; 6259362.596729017 ; 13804.000000000002
59 ; 96566.602131648 ; 141348.09436788884 ; 4014887.895437578 ; 6399393.299014989 ; 14042.000000000002
60 ; 96605.08856540106 ; 142666.9766743738 ; 4111454.497569226 ; 6540741.393382878 ; 14280.000000000002
61 ; 97428.11232551007 ; 143987.17359648147 ; 4208059.586134627 ; 6683408.370057252 ; 14518.000000000002
62 ; 98102.89558057848 ; 145308.51966113364 ; 4305487.6984601375 ; 6827395.543653734 ; 14756.000000000002
63 ; 98363.73998415258 ; 146630.8587115475 ; 4403590.594040716 ; 6972704.063314868 ; 14994.000000000002
64 ; 99163.65640928224 ; 147954.0431639496 ; 4501954.334024869 ; 7119334.922026415 ; 15232.000000000002
65 ; 99706.53158178124 ; 149277.93333268515 ; 4601117.990434151 ; 7267288.965190365 ; 15470.000000000002
66 ; 99820.42192351849 ; 150602.39681671906 ; 4700824.522015932 ; 7416566.89852305 ; 15708.000000000002
67 ; 100192.053143372 ; 151927.30794130158 ; 4800644.94393945 ; 7567169.29533977 ; 15946.000000000002
68 ; 100297.68319884554 ; 153252.54724926112 ; 4900836.997082822 ; 7719096.603281071 ; 16184.000000000002
69 ; 101271.10425354468 ; 154578.00103699102 ; 5001134.680281668 ; 7872349.150530333 ; 16422.000000000004
70 ; 101548.66480604137 ; 155903.56093073514 ; 5102405.784535212 ; 8026927.151567324 ; 16660.000000000004
71 ; 101636.33637976066 ; 157229.1234992483 ; 5203954.449341253 ; 8182830.7124980595 ; 16898.000000000004
72 ; 102171.08552726838 ; 158554.58989932778 ; 5305590.785721014 ; 8340059.835997308 ; 17136.000000000004
73 ; 102209.85167111845 ; 159879.86555108216 ; 5407761.8712482825 ; 8498614.425896635 ; 17374.000000000004
74 ; 102766.28660371738 ; 161204.85984013218 ; 5509971.722919401 ; 8658494.291447718 ; 17612.000000000004
75 ; 102762.90546878829 ; 162529.48584423048 ; 5612738.009523118 ; 8819699.15128785 ; 17850.000000000004
76 ; 103368.84222929846 ; 163853.66008204376 ; 5715500.914991906 ; 8982228.63713208 ; 18088.000000000004
77 ; 103372.2690108972 ; 165177.30228207295 ; 5818869.757221204 ; 9146082.297214124 ; 18326.000000000004
78 ; 103757.73471310652 ; 166500.33516989087 ; 5922242.026232101 ; 9311259.599496197 ; 18564.000000000004
79 ; 103431.29699689109 ; 167822.68427205677 ; 6025999.760945207 ; 9477759.934666088 ; 18802.000000000004
80 ; 104632.05073903376 ; 169144.2777352332 ; 6129431.057942099 ; 9645582.618938144 ; 19040.000000000004
81 ; 104327.48511795951 ; 170465.046159172 ; 6234063.108681133 ; 9814726.896673378 ; 19278.000000000004
82 ; 104191.1193909264 ; 171784.92244236768 ; 6338390.593799093 ; 9985191.94283255 ; 19516.000000000004
83 ; 104555.48694668533 ; 173103.84163929135 ; 6442581.713190019 ; 1.0156976865274917E7 ; 19754.000000000004
84 ; 104162.13448285208 ; 174421.7408282211 ; 6547137.200136704 ; 1.0330080706914209E7 ; 19992.000000000004
85 ; 104602.81748520023 ; 175738.55898878063 ; 6651299.334619557 ; 1.050450244774243E7 ; 20230.000000000004
86 ; 105030.28735107141 ; 177054.2368883755 ; 6755902.152104757 ; 1.068024100673121E7 ; 20468.000000000004
87 ; 104710.33889664241 ; 178368.71697679735 ; 6860932.439455829 ; 1.0857295243619585E7 ; 20706.000000000004
88 ; 104436.48107727886 ; 179681.94328832897 ; 6965642.778352471 ; 1.1035663960596383E7 ; 20944.000000000004
89 ; 104899.55845178034 ; 180993.86135074624 ; 7070079.25942975 ; 1.121534590388471E7 ; 21182.000000000004
90 ; 104805.79349118254 ; 182304.41810066477 ; 7174978.81788153 ; 1.1396339765235458E7 ; 21420.000000000004
91 ; 104907.5850134771 ; 183613.56180473117 ; 7279784.611372713 ; 1.1578644183336122E7 ; 21658.000000000004
92 ; 104635.81474896008 ; 184921.24198620085 ; 7384692.19638619 ; 1.1762257745140852E7 ; 21896.000000000004
93 ; 104582.87509228021 ; 186227.40935648486 ; 7489328.01113515 ; 1.1947178987127053E7 ; 22134.000000000004
94 ; 104844.9670807633 ; 187532.01575128429 ; 7593910.88622743 ; 1.2133406396483537E7 ; 22372.000000000004
95 ; 104675.55673576173 ; 188835.01407096433 ; 7698755.853308193 ; 1.232093841223482E7 ; 22610.000000000004
96 ; 104481.50604969768 ; 190136.35822484826 ; 7803431.410043955 ; 1.2509773426305784E7 ; 22848.000000000004
97 ; 104011.24073884138 ; 191436.00307913925 ; 7907912.916093652 ; 1.2699909784530632E7 ; 23086.000000000004
98 ; 103922.20336930142 ; 192733.90440820277 ; 8011924.156832494 ; 1.289134578760977E7 ; 23324.000000000004
99 ; 103575.10113779645 ; 194030.01884896302 ; 8115846.360201796 ; 1.3084079692017974E7 ; 23562.000000000004
100 ; 103339.19370155026 ; 195324.3038581885 ; 8219421.461339592 ; 1.3278109710866937E7 ; 23800.000000000004
101 ; 103164.50342708497 ; 196616.71767245917 ; 8322760.655041142 ; 1.3473434014725126E7 ; 24038.000000000004
102 ; 103528.94274809034 ; 197907.21927062442 ; 8425925.158468228 ; 1.3670050732397586E7 ; 24276.000000000004
103 ; 102708.4337836803 ; 199195.76833857675 ; 8529454.101216318 ; 1.386795795166821E7 ; 24514.000000000004
104 ; 102027.75649461808 ; 200482.32523617896 ; 8632162.534999998 ; 1.4067153720006786E7 ; 24752.000000000004
105 ; 101972.22955789686 ; 201766.8509661968 ; 8734190.291494617 ; 1.4267636045242965E7 ; 24990.000000000004
106 ; 102041.47041047076 ; 203049.30714509866 ; 8836162.521052513 ; 1.4469402896209162E7 ; 25228.000000000004
107 ; 101916.60204474287 ; 204329.65597559654 ; 8938203.991462983 ; 1.467245220335426E7 ; 25466.000000000004
108 ; 100996.30323274486 ; 205607.86022080982 ; 9040120.593507726 ; 1.4876781859329857E7 ; 25704.000000000004
109 ; 100918.22120934661 ; 206883.88317994468 ; 9141116.89674047 ; 1.5082389719550667E7 ; 25942.000000000004
110 ; 100325.87073584247 ; 208157.68866538847 ; 9242035.117949817 ; 1.5289273602730611E7 ; 26180.000000000004
111 ; 99672.63118663707 ; 209429.24098112606 ; 9342360.98868566 ; 1.5497431291396E7 ; 26418.000000000004
112 ; 99066.81575405199 ; 210698.50490239263 ; 9442033.619872296 ; 1.5706860532377126E7 ; 26656.000000000004
113 ; 99184.9143895465 ; 211965.445656483 ; 9541100.435626348 ; 1.5917559037279518E7 ; 26894.000000000004
114 ; 98633.77966184262 ; 213230.02890464352 ; 9640285.350015895 ; 1.6129524482936E7 ; 27132.000000000004
115 ; 98142.76282879172 ; 214492.22072497805 ; 9738919.129677739 ; 1.6342754511840643E7 ; 27370.000000000004
116 ; 97385.79901824886 ; 215751.9875963046 ; 9837061.89250653 ; 1.655724673256562E7 ; 27608.000000000004
117 ; 97024.50149538071 ; 217009.2963829028 ; 9934447.69152478 ; 1.6772998720161926E7 ; 27846.000000000004
118 ; 95822.95492309518 ; 218264.1143200974 ; 1.003147219302016E7 ; 1.699000801654483E7 ; 28084.000000000004
119 ; 95445.16909218855 ; 219516.4090006269 ; 1.0127295147943255E7 ; 1.7208272130864926E7 ; 28322.000000000004
120 ; 95340.63528435197 ; 220766.14836174913 ; 1.0222740317035442E7 ; 1.7427788539865553E7 ; 28560.000000000004
121 ; 94390.84582246921 ; 222013.30067303925 ; 1.0318080952319793E7 ; 1.7648554688227303E7 ; 28798.000000000004
122 ; 93919.7648763828 ; 223257.8345248396 ; 1.0412471798142262E7 ; 1.787056798890034E7 ; 29036.000000000004
123 ; 93332.6567499974 ; 224499.7188173214 ; 1.0506391563018644E7 ; 1.809382582342518E7 ; 29274.000000000004
124 ; 92994.54459928909 ; 225738.92275012354 ; 1.0599724219768642E7 ; 1.83183255422425E7 ; 29512.000000000004
125 ; 92156.51216981604 ; 226975.41581253379 ; 1.069271876436793E7 ; 1.8544064464992624E7 ; 29750.000000000004
126 ; 91509.17460932658 ; 228209.16777418155 ; 1.0784875276537746E7 ; 1.8771039880805157E7 ; 29988.000000000004
127 ; 90424.79436362276 ; 229440.14867621235 ; 1.0876384451147072E7 ; 1.899924904857934E7 ; 30226.000000000004
128 ; 89900.10576492292 ; 230668.32882291716 ; 1.0966809245510696E7 ; 1.922868919725555E7 ; 30464.000000000004
129 ; 88820.00999278514 ; 231893.67877378993 ; 1.105670935127562E7 ; 1.945935752607847E7 ; 30702.000000000004
130 ; 88452.50699258788 ; 233116.16933598957 ; 1.1145529361268405E7 ; 1.969125120485226E7 ; 30940.000000000004
131 ; 87252.23462565453 ; 234335.77155718475 ; 1.1233981868260993E7 ; 1.992436737418825E7 ; 31178.000000000004
132 ; 86633.61428181596 ; 235552.4567187583 ; 1.1321234102886647E7 ; 2.0158703145745438E7 ; 31416.000000000004
133 ; 85687.01151407775 ; 236766.19632935367 ; 1.1407867717168463E7 ; 2.0394255602464195E7 ; 31654.000000000004
134 ; 84650.58094587401 ; 237976.96211874287 ; 1.149355472868254E7 ; 2.063102179879355E7 ; 31892.000000000004
135 ; 83898.2067387036 ; 239184.72603199977 ; 1.1578205309628414E7 ; 2.086899876091229E7 ; 32130.000000000004
136 ; 82996.45011958863 ; 240389.46022396174 ; 1.1662103516367117E7 ; 2.110818348694429E7 ; 32368.000000000004
137 ; 82092.39817244164 ; 241591.13705396408 ; 1.1745099966486705E7 ; 2.1348572947168253E7 ; 32606.000000000004
138 ; 81345.82015669723 ; 242789.72908083326 ; 1.1827192364659147E7 ; 2.1590164084222216E7 ; 32844.00000000001
139 ; 79783.42409149001 ; 243985.2090581251 ; 1.1908538184815845E7 ; 2.183295381330305E7 ; 33082.00000000001
140 ; 79270.46100363765 ; 245177.5499295946 ; 1.1988321608907335E7 ; 2.2076939022361174E7 ; 33320.00000000001
141 ; 78063.17337818397 ; 246366.7248248862 ; 1.2067592069910971E7 ; 2.2322116572290767E7 ; 33558.00000000001
142 ; 76739.73405812788 ; 247552.70705543243 ; 1.2145655243289156E7 ; 2.2568483297115654E7 ; 33796.00000000001
143 ; 76116.17970919517 ; 248735.47011055076 ; 1.2222394977347285E7 ; 2.2816036004171085E7 ; 34034.00000000001
144 ; 75198.97702923449 ; 249914.9876537281 ; 1.229851115705648E7 ; 2.3064771474281635E7 ; 34272.00000000001
145 ; 74490.57445302425 ; 251091.2335190835 ; 1.2373710134085715E7 ; 2.3314686461935364E7 ; 34510.00000000001
146 ; 74768.8970176999 ; 252264.18170800054 ; 1.2448200708538739E7 ; 2.356577769545445E7 ; 34748.00000000001
147 ; 74252.79755756697 ; 253433.80638592035 ; 1.252296960555644E7 ; 2.381804187716245E7 ; 34986.00000000001
148 ; 73670.12023813912 ; 254600.0818792877 ; 1.2597222403114006E7 ; 2.407147568354837E7 ; 35224.00000000001
149 ; 74143.38363606801 ; 255762.98267264248 ; 1.2670892523352144E7 ; 2.4326075765427656E7 ; 35462.00000000001
150 ; 73662.2617217468 ; 256922.48340584897 ; 1.2745035906988213E7 ; 2.45818387481003E7 ; 35700.00000000001
151 ; 73515.86172495876 ; 258078.5588714573 ; 1.281869816870996E7 ; 2.4838761231506146E7 ; 35938.00000000001
152 ; 72913.96124507584 ; 259231.18401218942 ; 1.2892214030434918E7 ; 2.5096839790377602E7 ; 36176.00000000001
153 ; 72583.07759135526 ; 260380.3339185444 ; 1.2965127991679994E7 ; 2.535607097438979E7 ; 36414.00000000001
154 ; 72629.623584562 ; 261525.98382651716 ; 1.303771106927135E7 ; 2.5616451308308337E7 ; 36652.00000000001
155 ; 72337.15638964194 ; 262668.1091154251 ; 1.3110340692855913E7 ; 2.5877977292134855E7 ; 36890.00000000001
156 ; 71849.15133812891 ; 263806.6853058376 ; 1.3182677849245556E7 ; 2.614064540125028E7 ; 37128.00000000001
157 ; 71635.7655810306 ; 264941.6880576035 ; 1.3254527000583684E7 ; 2.6404452086556118E7 ; 37366.00000000001
158 ; 71525.79516666866 ; 266073.09316797217 ; 1.3326162766164714E7 ; 2.6669393774613723E7 ; 37604.00000000001
159 ; 70979.3606902411 ; 267200.8765698035 ; 1.3397688561331384E7 ; 2.6935466867781695E7 ; 37842.00000000001
160 ; 70928.20241744284 ; 268325.01432986336 ; 1.3468667922021626E7 ; 2.72026677443515E7 ; 38080.00000000001
161 ; 70205.08191063277 ; 269445.48264719883 ; 1.3539596124439068E7 ; 2.747099275868136E7 ; 38318.00000000001
162 ; 70602.00285937161 ; 270562.2578515927 ; 1.36098012063497E7 ; 2.774043824132856E7 ; 38556.00000000001
163 ; 69856.7654956705 ; 271675.31640208984 ; 1.3680403209209071E7 ; 2.8011000499180153E7 ; 38794.00000000001
164 ; 69537.2335301094 ; 272784.6348855958 ; 1.3750259974704742E7 ; 2.8282675815582242E7 ; 39032.00000000001
165 ; 69290.45409982259 ; 273890.19001554104 ; 1.3819797208234852E7 ; 2.8555460450467836E7 ; 39270.00000000001
166 ; 68823.63454878537 ; 274991.9586306109 ; 1.3889087662334675E7 ; 2.8829350640483376E7 ; 39508.00000000001
167 ; 67880.0334061698 ; 276089.9176935361 ; 1.395791129688346E7 ; 2.9104342599113986E7 ; 39746.00000000001
168 ; 67997.29602054125 ; 277184.04428994213 ; 1.402579133028963E7 ; 2.9380432516807523E7 ; 39984.00000000001
169 ; 68010.34132809039 ; 278274.3156272548 ; 1.4093788626310172E7 ; 2.9657616561097465E7 ; 40222.00000000001
170 ; 67453.80453377632 ; 279360.7090336594 ; 1.4161798967638262E7 ; 2.993589087672472E7 ; 40460.00000000001
171 ; 66803.05103361298 ; 280443.20195711136 ; 1.4229252772172038E7 ; 3.021525158575838E7 ; 40698.00000000001
172 ; 66461.57788899197 ; 281521.77196439524 ; 1.429605582320565E7 ; 3.049569478771549E7 ; 40936.00000000001
173 ; 66024.09814753791 ; 282596.39674023126 ; 1.4362517401094642E7 ; 3.0777216559679884E7 ; 41174.00000000001
174 ; 66848.44771772028 ; 283667.05408642674 ; 1.442854149924218E7 ; 3.1059812956420116E7 ; 41412.00000000001
175 ; 66825.53736475781 ; 284733.7219210699 ; 1.44953899469599E7 ; 3.1343480010506544E7 ; 41650.00000000001
176 ; 66828.4958260546 ; 285796.3782777654 ; 1.4562215484324658E7 ; 3.1628213732427616E7 ; 41888.00000000001
177 ; 67324.8110697875 ; 286855.0013049089 ; 1.4629043980150713E7 ; 3.191401011070538E7 ; 42126.00000000001
178 ; 67031.20750976978 ; 287909.56926499924 ; 1.4696368791220501E7 ; 3.220086511201029E7 ; 42364.00000000001
179 ; 67618.38382745892 ; 288960.0605339869 ; 1.476339999873027E7 ; 3.248877468127529E7 ; 42602.00000000001
180 ; 67634.63379177923 ; 290006.45360065677 ; 1.483101838255773E7 ; 3.2777734741809275E7 ; 42840.00000000001
181 ; 68082.52927742728 ; 291048.72706604446 ; 1.489865301634951E7 ; 3.306774119540993E7 ; 43078.00000000001
182 ; 67283.73645292477 ; 292086.8596428836 ; 1.4966735545626936E7 ; 3.3358789922475975E7 ; 43316.00000000001
