CSV File for the Network on Day 157
1 - Minute m 
2 - Power Consumed at minute m 
3 - Power Produced at minute m 
4 - Energy Consumed since the beginning of the day 
5 - Energy Produced since the beginning of the day 
6 - Energy Lost since the beginning of the day 
 
No Production city : 2, Producer : 1
No Production city : 4, Producer : 1
No Production city : 4, Producer : 1
 
0 ; 43740.84096051314 ; 161337.94120618122 ; 0.0 ; 0.0 ; 0.0
1 ; 44235.45711524997 ; 160995.3833761117 ; 43740.84096051314 ; 161337.94120618122 ; 238.00000000000003
2 ; 46099.13430287386 ; 160687.75667574408 ; 87976.2980757631 ; 322333.32458229293 ; 476.00000000000006
3 ; 47367.21113237742 ; 160415.4282629222 ; 134075.43237863696 ; 483021.081258037 ; 714.0000000000001
4 ; 48316.15400434345 ; 160178.72712963264 ; 181442.64351101438 ; 643436.5095209592 ; 952.0000000000001
5 ; 49643.54984979961 ; 159977.94229511908 ; 229758.79751535784 ; 803615.2366505918 ; 1190.0000000000002
6 ; 51048.236263243816 ; 159813.32118845204 ; 279402.34736515745 ; 963593.1789457109 ; 1428.0000000000002
7 ; 52258.97174306485 ; 159685.0682413846 ; 330450.5836284013 ; 1123406.5001341628 ; 1666.0000000000002
8 ; 53847.0321012408 ; 159593.3437100381 ; 382709.55537146615 ; 1283091.5683755474 ; 1904.0000000000002
9 ; 55081.82414351341 ; 159538.26274124262 ; 436556.587472707 ; 1442684.9120855855 ; 2142.0000000000005
10 ; 56179.39686020308 ; 159519.89469626368 ; 491638.4116162204 ; 1602223.174826828 ; 2380.0000000000005
11 ; 57303.85736669369 ; 159538.26274124262 ; 547817.8084764235 ; 1761743.0695230917 ; 2618.0000000000005
12 ; 58400.17865155313 ; 159593.3437100381 ; 605121.6658431172 ; 1921281.3322643342 ; 2856.0000000000005
13 ; 59821.6779318935 ; 159685.0682413846 ; 663521.8444946703 ; 2080874.6759743723 ; 3094.0000000000005
14 ; 60655.365851660245 ; 159813.32118845196 ; 723343.5224265638 ; 2240559.744215757 ; 3332.0000000000005
15 ; 61774.87021478235 ; 159977.94229511908 ; 783998.888278224 ; 2400373.0654042093 ; 3570.0000000000005
16 ; 63085.676688889136 ; 160178.72712963264 ; 845773.7584930063 ; 2560351.0076993285 ; 3808.0000000000005
17 ; 64549.03801657114 ; 160415.42826292213 ; 908859.4351818955 ; 2720529.734828961 ; 4046.0000000000005
18 ; 65234.88116780839 ; 160687.75667574417 ; 973408.4731984667 ; 2880945.163091883 ; 4284.000000000001
19 ; 66059.63309632982 ; 160995.3833761116 ; 1038643.3543662751 ; 3041632.919767627 ; 4522.000000000001
20 ; 67374.27885159492 ; 161337.94120618122 ; 1104702.987462605 ; 3202628.303143739 ; 4760.000000000001
21 ; 68662.53974694651 ; 161715.02681595238 ; 1172077.2663142 ; 3363966.24434992 ; 4998.000000000001
22 ; 69315.82456426906 ; 162126.20277981114 ; 1240739.8060611463 ; 3525681.2711658725 ; 5236.000000000001
23 ; 70512.83605120605 ; 162570.99983112924 ; 1310055.6306254154 ; 3687807.473945684 ; 5474.000000000001
24 ; 71283.44422748065 ; 163048.91918978785 ; 1380568.4666766215 ; 3850378.473776813 ; 5712.000000000001
25 ; 72616.83179377708 ; 163559.43495763474 ; 1451851.910904102 ; 4013427.392966601 ; 5950.000000000001
26 ; 73787.51023629434 ; 164101.99655743924 ; 1524468.7426978792 ; 4176986.8279242357 ; 6188.000000000001
27 ; 74859.92497714752 ; 164676.03119186382 ; 1598256.2529341734 ; 4341088.824481675 ; 6426.000000000001
28 ; 75619.01383124627 ; 165280.94630025158 ; 1673116.177911321 ; 4505764.855673539 ; 6664.000000000001
29 ; 76253.12453301589 ; 165916.13199259224 ; 1748735.191742567 ; 4671045.801973791 ; 6902.000000000001
30 ; 77031.76670735651 ; 166580.96344180813 ; 1824988.316275583 ; 4836961.933966383 ; 7140.000000000001
31 ; 77933.35826544679 ; 167274.8032174421 ; 1902020.0829829397 ; 5003542.897408191 ; 7378.000000000001
32 ; 79084.08796513845 ; 167997.00354587208 ; 1979953.4412483864 ; 5170817.700625633 ; 7616.000000000001
33 ; 80087.39504791032 ; 168746.90848426495 ; 2059037.529213525 ; 5338814.704171505 ; 7854.000000000001
34 ; 80757.52262663568 ; 169523.855997577 ; 2139124.9242614354 ; 5507561.61265577 ; 8092.000000000001
35 ; 81384.72423812309 ; 170327.17992995592 ; 2219882.446888071 ; 5677085.468653347 ; 8330.000000000002
36 ; 81890.43359092982 ; 171156.21186386675 ; 2301267.1711261943 ; 5847412.648583303 ; 8568.000000000002
37 ; 82930.11957390055 ; 172010.28286212982 ; 2383157.6047171243 ; 6018568.86044717 ; 8806.000000000002
38 ; 83806.04255271846 ; 172888.7250897836 ; 2466087.7242910247 ; 6190579.1433093 ; 9044.000000000002
39 ; 84257.08594192323 ; 173790.87331427168 ; 2549893.766843743 ; 6363467.868399084 ; 9282.000000000002
40 ; 85453.18890549125 ; 174716.06628386927 ; 2634150.8527856665 ; 6537258.741713355 ; 9520.000000000002
41 ; 86430.94415104252 ; 175663.64798552744 ; 2719604.0416911575 ; 6711974.807997225 ; 9758.000000000002
42 ; 86578.07517793354 ; 176632.96878439983 ; 2806034.9858422 ; 6887638.455982752 ; 9996.000000000002
43 ; 87268.56373924135 ; 177623.38644824736 ; 2892613.0610201336 ; 7064271.424767152 ; 10234.000000000002
44 ; 88079.31496938171 ; 178634.2670606877 ; 2979881.624759375 ; 7241894.8112154 ; 10472.000000000002
45 ; 88444.7508628619 ; 179664.98582787695 ; 3067960.939728757 ; 7420529.0782760875 ; 10710.000000000002
46 ; 89310.24426945587 ; 180714.92778369936 ; 3156405.690591619 ; 7600194.064103965 ; 10948.000000000002
47 ; 89995.65659424492 ; 181783.48839889892 ; 3245715.9348610747 ; 7780908.991887664 ; 11186.000000000002
48 ; 90550.08091158059 ; 182870.07409982948 ; 3335711.5914553194 ; 7962692.480286564 ; 11424.000000000002
49 ; 90884.6378647486 ; 183974.10270264835 ; 3426261.6723669 ; 8145562.554386393 ; 11662.000000000002
50 ; 91984.72627582996 ; 185095.00376883286 ; 3517146.3102316484 ; 8329536.657089042 ; 11900.000000000002
51 ; 92480.60002212776 ; 186232.21888787596 ; 3609131.0365074784 ; 8514631.660857875 ; 12138.000000000002
52 ; 92791.5827365212 ; 187385.20189293945 ; 3701611.6365296063 ; 8700863.879745752 ; 12376.000000000002
53 ; 93686.39754661944 ; 188553.41901509868 ; 3794403.2192661273 ; 8888249.081638692 ; 12614.000000000002
54 ; 93500.32143041035 ; 189736.34898163585 ; 3888089.616812747 ; 9076802.50065379 ; 12852.000000000002
55 ; 94494.57863271696 ; 190933.48306362206 ; 3981589.938243157 ; 9266538.849635426 ; 13090.000000000002
56 ; 95080.6587169926 ; 192144.32507778978 ; 4076084.5168758743 ; 9457472.332699047 ; 13328.000000000002
57 ; 95688.44367197185 ; 193368.39134743257 ; 4171165.1755928667 ; 9649616.657776836 ; 13566.000000000002
58 ; 95910.6996692886 ; 194605.21062680395 ; 4266853.619264838 ; 9842985.049124269 ; 13804.000000000002
59 ; 96638.51340381993 ; 195854.32399320352 ; 4362764.318934127 ; 1.0037590259751072E7 ; 14042.000000000002
60 ; 96794.86363278516 ; 197115.28471065933 ; 4459402.832337947 ; 1.0233444583744276E7 ; 14280.000000000002
61 ; 97373.32160797987 ; 198387.65806883798 ; 4556197.695970732 ; 1.0430559868454935E7 ; 14518.000000000002
62 ; 97776.0440715295 ; 199671.0212005361 ; 4653571.017578712 ; 1.0628947526523773E7 ; 14756.000000000002
63 ; 97728.12729390274 ; 200964.96288084477 ; 4751347.061650241 ; 1.0828618547724308E7 ; 14994.000000000002
64 ; 98283.27803218036 ; 202269.08331081585 ; 4849075.188944143 ; 1.1029583510605153E7 ; 15232.000000000002
65 ; 98320.48536892436 ; 203582.99388821793 ; 4947358.466976323 ; 1.123185259391597E7 ; 15470.000000000002
66 ; 98918.63006545769 ; 204906.3169677307 ; 5045678.952345247 ; 1.1435435587804187E7 ; 15708.000000000002
67 ; 99305.68413705038 ; 206238.68561270725 ; 5144597.582410705 ; 1.1640341904771918E7 ; 15946.000000000002
68 ; 99773.69197170537 ; 207579.74334042575 ; 5243903.266547755 ; 1.1846580590384625E7 ; 16184.000000000002
69 ; 100119.17080977249 ; 208929.14386255346 ; 5343676.958519461 ; 1.205416033372505E7 ; 16422.000000000004
70 ; 100108.31316107337 ; 210286.55082236903 ; 5443796.129329233 ; 1.2263089477587603E7 ; 16660.000000000004
71 ; 100560.3706189555 ; 211651.63753011532 ; 5543904.442490307 ; 1.2473376028409973E7 ; 16898.000000000004
72 ; 100523.09046696933 ; 213024.08669770253 ; 5644464.813109262 ; 1.2685027665940087E7 ; 17136.000000000004
73 ; 101067.83132307125 ; 214403.59017383662 ; 5744987.903576232 ; 1.289805175263779E7 ; 17374.000000000004
74 ; 100826.92373493793 ; 215789.8486805151 ; 5846055.734899303 ; 1.3112455342811627E7 ; 17612.000000000004
75 ; 101578.35503308356 ; 217182.5715517136 ; 5946882.658634241 ; 1.3328245191492142E7 ; 17850.000000000004
76 ; 101223.16121604407 ; 218581.47647497526 ; 6048461.013667325 ; 1.3545427763043856E7 ; 18088.000000000004
77 ; 101680.82046245104 ; 219986.2892365159 ; 6149684.174883368 ; 1.3764009239518832E7 ; 18326.000000000004
78 ; 101709.61737665934 ; 221396.74347036722 ; 6251364.99534582 ; 1.3983995528755348E7 ; 18564.000000000004
79 ; 101964.64247720005 ; 222812.58041199794 ; 6353074.612722479 ; 1.4205392272225715E7 ; 18802.000000000004
80 ; 101978.46710616589 ; 224233.54865678077 ; 6455039.255199679 ; 1.4428204852637714E7 ; 19040.000000000004
81 ; 101753.70024879051 ; 225659.40392360478 ; 6557017.7223058455 ; 1.4652438401294494E7 ; 19278.000000000004
82 ; 102095.02565617557 ; 227089.90882387586 ; 6658771.422554636 ; 1.4878097805218099E7 ; 19516.000000000004
83 ; 102549.76274625544 ; 228524.83263609334 ; 6760866.448210812 ; 1.5105187714041974E7 ; 19754.000000000004
84 ; 102136.59324449171 ; 229963.95108614588 ; 6863416.210957068 ; 1.5333712546678068E7 ; 19992.000000000004
85 ; 101981.99955496019 ; 231407.04613342602 ; 6965552.80420156 ; 1.5563676497764215E7 ; 20230.000000000004
86 ; 102240.63807124055 ; 232853.90576282775 ; 7067534.80375652 ; 1.579508354389764E7 ; 20468.000000000004
87 ; 101900.46958945351 ; 234304.3237826592 ; 7169775.441827761 ; 1.6027937449660467E7 ; 20706.000000000004
88 ; 102375.66489737792 ; 235758.09962847282 ; 7271675.911417214 ; 1.6262241773443127E7 ; 20944.000000000004
89 ; 102175.4394619974 ; 237215.0381727934 ; 7374051.576314592 ; 1.64979998730716E7 ; 21182.000000000004
90 ; 102005.94049458226 ; 238674.94954070024 ; 7476227.0157765895 ; 1.6735214911244392E7 ; 21420.000000000004
91 ; 102183.93702841063 ; 240137.64893120358 ; 7578232.956271172 ; 1.6973889860785093E7 ; 21658.000000000004
92 ; 102112.3867998918 ; 241602.9564443394 ; 7680416.893299582 ; 1.72140275097163E7 ; 21896.000000000004
93 ; 101751.74207928713 ; 243070.6969138921 ; 7782529.280099474 ; 1.7455630466160636E7 ; 22134.000000000004
94 ; 101946.5992649479 ; 244540.69974564557 ; 7884281.022178761 ; 1.7698701163074527E7 ; 22372.000000000004
95 ; 102082.50040944159 ; 246012.79876105205 ; 7986227.621443708 ; 1.794324186282017E7 ; 22610.000000000004
96 ; 101487.62008122462 ; 247486.83204620212 ; 8088310.12185315 ; 1.8189254661581222E7 ; 22848.000000000004
97 ; 101608.54869026567 ; 248962.64180597244 ; 8189797.741934375 ; 1.8436741493627425E7 ; 23086.000000000004
98 ; 101464.43057301508 ; 250440.0742232228 ; 8291406.290624641 ; 1.86857041354334E7 ; 23324.000000000004
99 ; 101030.674586635 ; 251918.97932291208 ; 8392870.721197655 ; 1.8936144209656622E7 ; 23562.000000000004
100 ; 100917.07828484665 ; 253399.2108409983 ; 8493901.39578429 ; 1.9188063188979533E7 ; 23800.000000000004
101 ; 101101.36067568837 ; 254880.62609798813 ; 8594818.474069137 ; 1.9441462399820533E7 ; 24038.000000000004
102 ; 100672.67258499732 ; 256363.08587699887 ; 8695919.834744826 ; 1.969634302591852E7 ; 24276.000000000004
103 ; 100064.29472904098 ; 257846.45430619785 ; 8796592.507329823 ; 1.995270611179552E7 ; 24514.000000000004
104 ; 99579.27495723784 ; 259330.59874548198 ; 8896656.802058864 ; 2.0210552566101715E7 ; 24752.000000000004
105 ; 99751.38709756643 ; 260815.38967726467 ; 8996236.077016102 ; 2.0469883164847195E7 ; 24990.000000000004
106 ; 99274.99938364088 ; 262300.70060123503 ; 9095987.46411367 ; 2.073069855452446E7 ; 25228.000000000004
107 ; 99255.30519778597 ; 263786.4079329597 ; 9195262.46349731 ; 2.0992999255125694E7 ; 25466.000000000004
108 ; 98851.91233637539 ; 265272.3909061965 ; 9294517.768695097 ; 2.1256785663058653E7 ; 25704.000000000004
109 ; 98117.35011089545 ; 266758.5314787949 ; 9393369.681031473 ; 2.152205805396485E7 ; 25942.000000000004
110 ; 98031.69543281867 ; 268244.7142420573 ; 9491487.031142369 ; 2.1788816585443646E7 ; 26180.000000000004
111 ; 97239.6021075535 ; 269730.8263334417 ; 9589518.726575188 ; 2.20570612996857E7 ; 26418.000000000004
112 ; 97118.94978394028 ; 271216.7573524854 ; 9686758.328682741 ; 2.2326792126019143E7 ; 26656.000000000004
113 ; 96739.80312335213 ; 272702.3992798362 ; 9783877.278466681 ; 2.259800888337163E7 ; 26894.000000000004
114 ; 96228.56710163796 ; 274187.64639927767 ; 9880617.081590034 ; 2.2870711282651465E7 ; 27132.000000000004
115 ; 95499.14572610712 ; 275672.3952226397 ; 9976845.648691673 ; 2.3144898929050744E7 ; 27370.000000000004
116 ; 95488.25539839923 ; 277156.544417489 ; 1.007234479441778E7 ; 2.3420571324273385E7 ; 27608.000000000004
117 ; 95009.35516045283 ; 278639.99473749596 ; 1.016783304981618E7 ; 2.3697727868690874E7 ; 27846.000000000004
118 ; 94604.06909023541 ; 280122.6489553793 ; 1.0262842404976632E7 ; 2.397636786342837E7 ; 28084.000000000004
119 ; 93808.88501713134 ; 281604.4117983323 ; 1.0357446474066868E7 ; 2.4256490512383748E7 ; 28322.000000000004
120 ; 93291.84742663353 ; 283085.189885836 ; 1.0451255359083999E7 ; 2.453809492418208E7 ; 28560.000000000004
121 ; 93007.08277687209 ; 284564.89166977187 ; 1.0544547206510633E7 ; 2.4821180114067916E7 ; 28798.000000000004
122 ; 92357.11889613407 ; 286043.42737674544 ; 1.0637554289287506E7 ; 2.510574500573769E7 ; 29036.000000000004
123 ; 92236.61207735894 ; 287520.7089525366 ; 1.072991140818364E7 ; 2.5391788433114436E7 ; 29274.000000000004
124 ; 91021.84326775976 ; 288996.6500085974 ; 1.0822148020260999E7 ; 2.567930914206697E7 ; 29512.000000000004
125 ; 90653.79456141108 ; 290471.1657705186 ; 1.0913169863528758E7 ; 2.5968305792075567E7 ; 29750.000000000004
126 ; 89506.37734954161 ; 291944.17302838794 ; 1.1003823658090169E7 ; 2.6258776957846086E7 ; 29988.000000000004
127 ; 88925.6840125883 ; 293415.59008897166 ; 1.1093330035439711E7 ; 2.6550721130874474E7 ; 30226.000000000004
128 ; 88783.05539567227 ; 294885.3367296452 ; 1.11822557194523E7 ; 2.6844136720963445E7 ; 30464.000000000004
129 ; 88451.93704465323 ; 296353.33415400935 ; 1.1271038774847971E7 ; 2.713902205769309E7 ; 30702.000000000004
130 ; 86936.77858099276 ; 297819.50494912505 ; 1.1359490711892625E7 ; 2.74353753918471E7 ; 30940.000000000004
131 ; 86773.1942887619 ; 299283.7730443057 ; 1.1446427490473619E7 ; 2.7733194896796227E7 ; 31178.000000000004
132 ; 86046.7595407456 ; 300746.063671407 ; 1.1533200684762381E7 ; 2.8032478669840533E7 ; 31416.000000000004
133 ; 85382.8229088259 ; 302206.3033265567 ; 1.1619247444303127E7 ; 2.833322473351194E7 ; 31654.000000000004
134 ; 84811.88390190175 ; 303664.4197332688 ; 1.1704630267211953E7 ; 2.8635431036838498E7 ; 31892.000000000004
135 ; 83753.84040767621 ; 305120.34180688957 ; 1.1789442151113855E7 ; 2.8939095456571765E7 ; 32130.000000000004
136 ; 82793.39420190868 ; 306573.99962032423 ; 1.1873195991521532E7 ; 2.9244215798378654E7 ; 32368.000000000004
137 ; 82192.04014431742 ; 308025.3243709937 ; 1.195598938572344E7 ; 2.955078979799898E7 ; 32606.000000000004
138 ; 81144.25716382336 ; 309474.2483489774 ; 1.2038181425867757E7 ; 2.9858815122369975E7 ; 32844.00000000001
139 ; 80402.32538517016 ; 310920.7049062939 ; 1.211932568303158E7 ; 3.0168289370718952E7 ; 33082.00000000001
140 ; 79728.50514851621 ; 312364.6284272764 ; 1.219972800841675E7 ; 3.0479210075625245E7 ; 33320.00000000001
141 ; 78678.3697325392 ; 313805.954300003 ; 1.2279456513565267E7 ; 3.0791574704052523E7 ; 33558.00000000001
142 ; 78134.91368999891 ; 315244.6188887398 ; 1.2358134883297807E7 ; 3.1105380658352524E7 ; 33796.00000000001
143 ; 76875.02667495653 ; 316680.55950735847 ; 1.2436269796987806E7 ; 3.1420625277241264E7 ; 34034.00000000001
144 ; 76152.62912481761 ; 318113.71439369227 ; 1.2513144823662762E7 ; 3.1737305836748622E7 ; 34272.00000000001
145 ; 75767.22578267934 ; 319544.0226847941 ; 1.258929745278758E7 ; 3.2055419551142316E7 ; 34510.00000000001
146 ; 75193.81859068299 ; 320971.4243930622 ; 1.266506467857026E7 ; 3.237496357382711E7 ; 34748.00000000001
147 ; 75700.52856399206 ; 322395.8603832019 ; 1.2740258497160943E7 ; 3.269593499822017E7 ; 34986.00000000001
148 ; 75399.28067784905 ; 323817.272349991 ; 1.2815959025724934E7 ; 3.3018330858603373E7 ; 35224.00000000001
149 ; 74937.01108074602 ; 325235.60279681836 ; 1.2891358306402784E7 ; 3.3342148130953364E7 ; 35462.00000000001
150 ; 74795.63740208134 ; 326650.79501496686 ; 1.296629531748353E7 ; 3.366738373375018E7 ; 35700.00000000001
151 ; 74660.4968953627 ; 328062.7930636142 ; 1.3041090954885611E7 ; 3.399403452876515E7 ; 35938.00000000001
152 ; 74101.5091582844 ; 329471.5417505225 ; 1.3115751451780975E7 ; 3.432209732182876E7 ; 36176.00000000001
153 ; 74217.4454002388 ; 330876.98661339213 ; 1.3189852960939258E7 ; 3.465156886357928E7 ; 36414.00000000001
154 ; 73852.77715746775 ; 332279.0739018558 ; 1.3264070406339496E7 ; 3.498244585019267E7 ; 36652.00000000001
155 ; 73257.80499158711 ; 333677.7505600875 ; 1.3337923183496963E7 ; 3.531472492409453E7 ; 36890.00000000001
156 ; 73194.28651303874 ; 335072.96421000536 ; 1.3411180988488551E7 ; 3.564840267465462E7 ; 37128.00000000001
157 ; 72909.42321019153 ; 336464.66313504474 ; 1.348437527500159E7 ; 3.598347563886462E7 ; 37366.00000000001
158 ; 73169.62836650865 ; 337852.79626448185 ; 1.355728469821178E7 ; 3.6319940301999666E7 ; 37604.00000000001
159 ; 72646.61540887735 ; 339237.313158288 ; 1.363045432657829E7 ; 3.665779309826415E7 ; 37842.00000000001
160 ; 72121.40411231255 ; 340618.1639924928 ; 1.3703100941987166E7 ; 3.699703041142244E7 ; 38080.00000000001
161 ; 72280.91276989641 ; 341995.29954504094 ; 1.377522234609948E7 ; 3.733764857541493E7 ; 38318.00000000001
162 ; 71782.18219350354 ; 343368.6711821218 ; 1.3847503258869376E7 ; 3.7679643874959975E7 ; 38556.00000000001
163 ; 70837.81943212065 ; 344738.23084495676 ; 1.3919285441062879E7 ; 3.8023012546142094E7 ; 38794.00000000001
164 ; 70807.25160642152 ; 346103.93103702605 ; 1.3990123260495E7 ; 3.836775077698705E7 ; 39032.00000000001
165 ; 70532.80503530483 ; 347465.7248117207 ; 1.4060930512101421E7 ; 3.871385470802408E7 ; 39270.00000000001
166 ; 70454.10995359499 ; 348823.56576040346 ; 1.4131463317136725E7 ; 3.9061320432835795E7 ; 39508.00000000001
167 ; 70469.87876400033 ; 350177.4080008638 ; 1.420191742709032E7 ; 3.94101439985962E7 ; 39746.00000000001
168 ; 70074.15466771895 ; 351527.20616615383 ; 1.427238730585432E7 ; 3.976032140659706E7 ; 39984.00000000001
169 ; 69338.92796938017 ; 352872.91539379116 ; 1.4342461460522039E7 ; 4.011184861276322E7 ; 40222.00000000001
170 ; 68885.71574015275 ; 354214.491315315 ; 1.4411800388491418E7 ; 4.046472152815701E7 ; 40460.00000000001
171 ; 68345.87900928766 ; 355551.89004618424 ; 1.4480686104231572E7 ; 4.081893601947232E7 ; 40698.00000000001
172 ; 68205.23054016731 ; 356885.06817600416 ; 1.454903198324086E7 ; 4.117448790951851E7 ; 40936.00000000001
173 ; 68122.66724398514 ; 358213.9827590713 ; 1.4617237213781027E7 ; 4.153137297769451E7 ; 41174.00000000001
174 ; 68163.639928518 ; 359538.59130522446 ; 1.4685359881025013E7 ; 4.1889586960453585E7 ; 41412.00000000001
175 ; 67841.30787031211 ; 360858.85177099216 ; 1.475352352095353E7 ; 4.224912555175881E7 ; 41650.00000000001
176 ; 68644.94079990334 ; 362174.72255102446 ; 1.4821364828823842E7 ; 4.26099844035298E7 ; 41888.00000000001
177 ; 68527.77425685545 ; 363486.16246980126 ; 1.4890009769623745E7 ; 4.2972159126080826E7 ; 42126.00000000001
178 ; 69050.67520135193 ; 364793.1307736068 ; 1.49585375438806E7 ; 4.333564528855063E7 ; 42364.00000000001
179 ; 68885.55799401022 ; 366095.58712276 ; 1.5027588219081953E7 ; 4.3700438419324234E7 ; 42602.00000000001
180 ; 68802.36726850865 ; 367393.4915840938 ; 1.5096473777075963E7 ; 4.4066534006446995E7 ; 42840.00000000001
181 ; 68982.78193405266 ; 368686.80462367303 ; 1.5165276144344471E7 ; 4.443392749803109E7 ; 43078.00000000001
