CSV File for the Network on Day 292
1 - Minute m 
2 - Power Consumed at minute m 
3 - Power Produced at minute m 
4 - Energy Consumed since the beginning of the day 
5 - Energy Produced since the beginning of the day 
6 - Energy Lost since the beginning of the day 
 
No Production city : 2, Producer : 1
No Production city : 4, Producer : 1
No Production city : 4, Producer : 1
 
0 ; 53955.6830063095 ; 216537.97841251804 ; 0.0 ; 0.0 ; 0.0
1 ; 54764.143717362145 ; 216178.56522230923 ; 53955.6830063095 ; 216537.97841251804 ; 238.00000000000003
2 ; 56611.43273561938 ; 215856.17089872225 ; 108719.82672367163 ; 432716.54363482725 ; 476.00000000000006
3 ; 57659.34828029268 ; 215571.06261819386 ; 165331.259459291 ; 648572.7145335495 ; 714.0000000000001
4 ; 58440.00046725222 ; 215323.47856014493 ; 222990.60773958368 ; 864143.7771517434 ; 952.0000000000001
5 ; 59707.159133571884 ; 215113.6270192412 ; 281430.6082068359 ; 1079467.2557118884 ; 1190.0000000000002
6 ; 60775.52600257936 ; 214941.6856192362 ; 341137.7673404078 ; 1294580.8827311296 ; 1428.0000000000002
7 ; 61646.69473788504 ; 214807.80063532505 ; 401913.2933429872 ; 1509522.5683503659 ; 1666.0000000000002
8 ; 63285.12965803065 ; 214712.08643107084 ; 463559.9880808722 ; 1724330.3689856909 ; 1904.0000000000002
9 ; 64564.63208033892 ; 214654.62501500198 ; 526845.1177389029 ; 1939042.4554167618 ; 2142.0000000000005
10 ; 65216.14170284393 ; 214635.4657209398 ; 591409.7498192418 ; 2153697.080431764 ; 2380.0000000000005
11 ; 66493.41950168785 ; 214654.62501500198 ; 656625.8915220858 ; 2368332.546152704 ; 2618.0000000000005
12 ; 66926.55757540319 ; 214712.08643107084 ; 723119.3110237736 ; 2582987.171167706 ; 2856.0000000000005
13 ; 68150.10539101974 ; 214807.80063532505 ; 790045.8685991769 ; 2797699.257598777 ; 3094.0000000000005
14 ; 69293.57985906056 ; 214941.68561923614 ; 858195.9739901966 ; 3012507.058234102 ; 3332.0000000000005
15 ; 70421.5155079374 ; 215113.6270192412 ; 927489.5538492572 ; 3227448.743853338 ; 3570.0000000000005
16 ; 71371.76386156784 ; 215323.47856014493 ; 997911.0693571946 ; 3442562.370872579 ; 3808.0000000000005
17 ; 72115.42517288239 ; 215571.0626181938 ; 1069282.8332187624 ; 3657885.849432724 ; 4046.0000000000005
18 ; 73314.16631140035 ; 215856.1708987223 ; 1141398.2583916448 ; 3873456.9120509177 ; 4284.000000000001
19 ; 73944.45251468901 ; 216178.56522230917 ; 1214712.424703045 ; 4089313.08294964 ; 4522.000000000001
20 ; 74956.68264111865 ; 216537.9784125181 ; 1288656.877217734 ; 4305491.648171949 ; 4760.000000000001
21 ; 75903.10928888625 ; 216934.11527754113 ; 1363613.5598588525 ; 4522029.6265844675 ; 4998.000000000001
22 ; 76880.0349203948 ; 217366.65367742287 ; 1439516.6691477387 ; 4738963.741862008 ; 5236.000000000001
23 ; 77989.1834110891 ; 217835.24566803063 ; 1516396.7040681336 ; 4956330.395539431 ; 5474.000000000001
24 ; 79038.43957851912 ; 218339.51871254228 ; 1594385.8874792226 ; 5174165.641207461 ; 5712.000000000001
25 ; 79632.02952283237 ; 218879.07695096682 ; 1673424.3270577418 ; 5392505.159920003 ; 5950.000000000001
26 ; 80297.74143059507 ; 219453.50251807377 ; 1753056.356580574 ; 5611384.23687097 ; 6188.000000000001
27 ; 80906.0601487616 ; 220062.35690009443 ; 1833354.0980111691 ; 5830837.739389043 ; 6426.000000000001
28 ; 82005.65600608315 ; 220705.1823206582 ; 1914260.1581599307 ; 6050900.096289137 ; 6664.000000000001
29 ; 83036.36433736581 ; 221381.50314663583 ; 1996265.8141660138 ; 6271605.2786097955 ; 6902.000000000001
30 ; 83242.14433607156 ; 222090.8273048629 ; 2079302.1785033797 ; 6492986.781756431 ; 7140.000000000001
31 ; 84195.75328189733 ; 222832.64770111 ; 2162544.322839451 ; 6715077.609061293 ; 7378.000000000001
32 ; 85215.04430508535 ; 223606.44363312895 ; 2246740.0761213484 ; 6937910.256762403 ; 7616.000000000001
33 ; 86146.90367194434 ; 224411.68219013003 ; 2331955.1204264336 ; 7161516.700395532 ; 7854.000000000001
34 ; 86293.33787157503 ; 225247.81963162287 ; 2418102.024098378 ; 7385928.382585662 ; 8092.000000000001
35 ; 87514.31803192369 ; 226114.30273916433 ; 2504395.3619699534 ; 7611176.2022172855 ; 8330.000000000002
36 ; 87697.74342662645 ; 227010.57013519757 ; 2591909.6800018772 ; 7837290.50495645 ; 8568.000000000002
37 ; 88515.0635323557 ; 227936.05356381607 ; 2679607.423428504 ; 8064301.075091648 ; 8806.000000000002
38 ; 89493.60394157108 ; 228890.17912894604 ; 2768122.4869608595 ; 8292237.128655464 ; 9044.000000000002
39 ; 89767.94056284025 ; 229872.36848608922 ; 2857616.0909024305 ; 8521127.30778441 ; 9282.000000000002
40 ; 90786.80825601766 ; 230882.03998440495 ; 2947384.0314652706 ; 8750999.6762705 ; 9520.000000000002
41 ; 91068.08957847134 ; 231918.6097565268 ; 3038170.839721288 ; 8981881.716254905 ; 9758.000000000002
42 ; 91732.36112199687 ; 232981.49275409608 ; 3129238.929299759 ; 9213800.326011432 ; 9996.000000000002
43 ; 92215.0179726981 ; 234070.10372755144 ; 3220971.290421756 ; 9446781.818765529 ; 10234.000000000002
44 ; 92780.3476426141 ; 235183.85814923045 ; 3313186.308394454 ; 9680851.92249308 ; 10472.000000000002
45 ; 93401.71796118713 ; 236322.17307932224 ; 3405966.656037068 ; 9916035.78064231 ; 10710.000000000002
46 ; 94107.44778895786 ; 237484.46797464654 ; 3499368.373998255 ; 1.0152357953721633E7 ; 10948.000000000002
47 ; 94776.59620365311 ; 238670.1654406335 ; 3593475.821787213 ; 1.038984242169628E7 ; 11186.000000000002
48 ; 95142.64689169056 ; 239878.69192722958 ; 3688252.417990866 ; 1.0628512587136913E7 ; 11424.000000000002
49 ; 95851.05722495992 ; 241109.47836977147 ; 3783395.064882557 ; 1.0868391279064143E7 ; 11662.000000000002
50 ; 95988.33190114822 ; 242361.9607761389 ; 3879246.122107517 ; 1.1109500757433914E7 ; 11900.000000000002
51 ; 96396.27958723684 ; 243635.58076172668 ; 3975234.4540086654 ; 1.1351862718210053E7 ; 12138.000000000002
52 ; 97386.08209827582 ; 244929.78603397775 ; 4071630.733595902 ; 1.159549829897178E7 ; 12376.000000000002
53 ; 97312.69823803587 ; 246244.0308283695 ; 4169016.815694178 ; 1.1840428085005756E7 ; 12614.000000000002
54 ; 97927.38988211166 ; 247577.7762978779 ; 4266329.513932214 ; 1.2086672115834126E7 ; 12852.000000000002
55 ; 98002.0904214213 ; 248930.4908580354 ; 4364256.903814326 ; 1.2334249892132005E7 ; 13090.000000000002
56 ; 98858.50851622096 ; 250301.65048976985 ; 4462258.9942357475 ; 1.258318038299004E7 ; 13328.000000000002
57 ; 99090.0008323778 ; 251690.7390022499 ; 4561117.502751969 ; 1.283348203347981E7 ; 13566.000000000002
58 ; 99247.06984170795 ; 253097.24825798592 ; 4660207.503584347 ; 1.308517277248206E7 ; 13804.000000000002
59 ; 99593.78097771271 ; 254520.67836243412 ; 4759454.573426055 ; 1.3338270020740045E7 ; 14042.000000000002
60 ; 100210.72349107177 ; 255960.53782033356 ; 4859048.354403768 ; 1.359279069910248E7 ; 14280.000000000002
61 ; 100787.92481363604 ; 257416.34366097377 ; 4959259.077894839 ; 1.3848751236922814E7 ; 14518.000000000002
62 ; 101343.11361023804 ; 258887.6215345455 ; 5060047.002708475 ; 1.4106167580583787E7 ; 14756.000000000002
63 ; 101611.67583362342 ; 260373.9057816703 ; 5161390.116318713 ; 1.4365055202118332E7 ; 14994.000000000002
64 ; 101032.15040333854 ; 261874.73947813894 ; 5263001.792152337 ; 1.4625429107900001E7 ; 15232.000000000002
65 ; 101825.24256786425 ; 263389.6744568181 ; 5364033.942555675 ; 1.488730384737814E7 ; 15470.000000000002
66 ; 101740.10851365494 ; 264918.2713086046 ; 5465859.1851235395 ; 1.5150693521834958E7 ; 15708.000000000002
67 ; 102372.56194405427 ; 266460.09936422564 ; 5567599.293637195 ; 1.5415611793143563E7 ; 15946.000000000002
68 ; 102407.05704427401 ; 268014.73665859853 ; 5669971.855581249 ; 1.5682071892507788E7 ; 16184.000000000002
69 ; 103154.38475328144 ; 269581.76987937547 ; 5772378.912625523 ; 1.5950086629166387E7 ; 16422.000000000004
70 ; 102529.16495204548 ; 271160.7943012139 ; 5875533.297378805 ; 1.6219668399045762E7 ; 16660.000000000004
71 ; 103241.77011624679 ; 272751.41370722133 ; 5978062.46233085 ; 1.6490829193346975E7 ; 16898.000000000004
72 ; 103303.3439762372 ; 274353.240298942 ; 6081304.232447097 ; 1.6763580607054196E7 ; 17136.000000000004
73 ; 103388.02910180809 ; 275965.8945961631 ; 6184607.576423334 ; 1.7037933847353138E7 ; 17374.000000000004
74 ; 103846.09156106832 ; 277589.0053277369 ; 6287995.605525142 ; 1.73138997419493E7 ; 17612.000000000004
75 ; 103708.2531637147 ; 279222.20931453473 ; 6391841.697086209 ; 1.7591488747277036E7 ; 17850.000000000004
76 ; 103823.80032304389 ; 280865.1513455689 ; 6495549.950249924 ; 1.7870710956591573E7 ; 18088.000000000004
77 ; 104113.36846883199 ; 282517.484048243 ; 6599373.750572968 ; 1.8151576107937142E7 ; 18326.000000000004
78 ; 104138.83312266541 ; 284178.8677536228 ; 6703487.1190418005 ; 1.8434093591985386E7 ; 18564.000000000004
79 ; 104186.09923621897 ; 285848.97035754303 ; 6807625.952164466 ; 1.8718272459739007E7 ; 18802.000000000004
80 ; 104291.04349115705 ; 287527.46717830945 ; 6911812.051400685 ; 1.900412143009655E7 ; 19040.000000000004
81 ; 104390.68786146499 ; 289214.040811684 ; 7016103.0948918415 ; 1.9291648897274863E7 ; 19278.000000000004
82 ; 104672.78074059811 ; 290908.3809837894 ; 7120493.782753306 ; 1.9580862938086547E7 ; 19516.000000000004
83 ; 104403.17645216666 ; 292610.18440250924 ; 7225166.563493905 ; 1.9871771319070335E7 ; 19754.000000000004
84 ; 104263.66064297732 ; 294319.1546079097 ; 7329569.739946071 ; 2.0164381503472846E7 ; 19992.000000000004
85 ; 104473.49517615323 ; 296035.0018221588 ; 7433833.400589048 ; 2.0458700658080757E7 ; 20230.000000000004
86 ; 104098.05427421066 ; 297757.44279937574 ; 7538306.895765201 ; 2.0754735659902915E7 ; 20468.000000000004
87 ; 104365.52720999844 ; 299486.2006757958 ; 7642404.950039412 ; 2.105249310270229E7 ; 20706.000000000004
88 ; 103980.04506081004 ; 301221.0048206015 ; 7746770.47724941 ; 2.1351979303378087E7 ; 20944.000000000004
89 ; 103810.56756811595 ; 302961.59068773064 ; 7850750.52231022 ; 2.1653200308198687E7 ; 21182.000000000004
90 ; 104069.72052210005 ; 304707.6996689373 ; 7954561.089878336 ; 2.1956161898886416E7 ; 21420.000000000004
91 ; 103945.18733290843 ; 306459.07894835295 ; 8058630.810400436 ; 2.2260869598555353E7 ; 21658.000000000004
92 ; 103968.3548473782 ; 308215.4813587628 ; 8162575.997733344 ; 2.2567328677503705E7 ; 21896.000000000004
93 ; 104084.3053554833 ; 309976.66523978615 ; 8266544.352580722 ; 2.2875544158862468E7 ; 22134.000000000004
94 ; 103849.94427214061 ; 311742.39429812663 ; 8370628.657936206 ; 2.3185520824102253E7 ; 22372.000000000004
95 ; 103525.13986773364 ; 313512.4374700323 ; 8474478.602208346 ; 2.3497263218400378E7 ; 22610.000000000004
96 ; 103262.94683934913 ; 315286.56878608797 ; 8578003.74207608 ; 2.381077565587041E7 ; 22848.000000000004
97 ; 103433.74318471708 ; 317064.5672384394 ; 8681266.68891543 ; 2.41260622246565E7 ; 23086.000000000004
98 ; 102901.56863347396 ; 318846.2166505366 ; 8784700.432100147 ; 2.444312679189494E7 ; 23324.000000000004
99 ; 102910.80866690153 ; 320631.30554946186 ; 8887602.000733621 ; 2.4761973008545477E7 ; 23562.000000000004
100 ; 102513.94928291708 ; 322419.62704089895 ; 8990512.809400523 ; 2.508260431409494E7 ; 23800.000000000004
101 ; 102279.75983312196 ; 324210.97868678323 ; 9093026.75868344 ; 2.540502394113584E7 ; 24038.000000000004
102 ; 102152.72793396568 ; 326005.1623856631 ; 9195306.518516561 ; 2.5729234919822622E7 ; 24276.000000000004
103 ; 101966.6993201947 ; 327801.98425579094 ; 9297459.246450527 ; 2.6055240082208287E7 ; 24514.000000000004
104 ; 101645.02078345048 ; 329601.2545209538 ; 9399425.945770722 ; 2.6383042066464078E7 ; 24752.000000000004
105 ; 101585.7679489927 ; 331402.7873990432 ; 9501070.966554172 ; 2.671264332098503E7 ; 24990.000000000004
106 ; 100678.8420392058 ; 333206.40099335863 ; 9602656.734503165 ; 2.7044046108384073E7 ; 25228.000000000004
107 ; 100526.14435484211 ; 335011.9171866315 ; 9703335.57654237 ; 2.737725250937743E7 ; 25466.000000000004
108 ; 100265.89052027094 ; 336819.16153774754 ; 9803861.720897213 ; 2.7712264426564064E7 ; 25704.000000000004
109 ; 100068.90976409413 ; 338627.96318114595 ; 9904127.611417484 ; 2.804908358810181E7 ; 25942.000000000004
110 ; 99685.42991678584 ; 340438.15472886374 ; 1.0004196521181578E7 ; 2.8387711551282957E7 ; 26180.000000000004
111 ; 99545.8255195987 ; 342249.5721751923 ; 1.0103881951098364E7 ; 2.872814970601182E7 ; 26418.000000000004
112 ; 98565.82793429418 ; 344062.0548039094 ; 1.0203427776617963E7 ; 2.9070399278187014E7 ; 26656.000000000004
113 ; 98254.79884413224 ; 345875.4450980461 ; 1.0301993604552258E7 ; 2.9414461332990922E7 ; 26894.000000000004
114 ; 97842.84079122302 ; 347689.58865214634 ; 1.040024840339639E7 ; 2.976033677808897E7 ; 27132.000000000004
115 ; 98087.54915441664 ; 349504.3340869741 ; 1.0498091244187614E7 ; 3.0108026366741113E7 ; 27370.000000000004
116 ; 97717.39783948469 ; 351319.5329666215 ; 1.059617879334203E7 ; 3.0457530700828087E7 ; 27608.000000000004
117 ; 96861.64035776019 ; 353135.0397179706 ; 1.0693896191181514E7 ; 3.0808850233794708E7 ; 27846.000000000004
118 ; 96571.34716961332 ; 354950.7115524574 ; 1.0790757831539275E7 ; 3.116198527351268E7 ; 28084.000000000004
119 ; 95884.82971775513 ; 356766.4083900915 ; 1.0887329178708889E7 ; 3.1516935985065136E7 ; 28322.000000000004
120 ; 95419.7966292401 ; 358581.992785677 ; 1.0983214008426644E7 ; 3.1873702393455226E7 ; 28560.000000000004
121 ; 95024.2584058225 ; 360397.3298571859 ; 1.1078633805055885E7 ; 3.2232284386240903E7 ; 28798.000000000004
122 ; 94401.40961916323 ; 362212.28721623146 ; 1.1173658063461708E7 ; 3.259268171609809E7 ; 29036.000000000004
123 ; 93931.75074349818 ; 364026.73490059044 ; 1.1268059473080872E7 ; 3.295489400331432E7 ; 29274.000000000004
124 ; 93368.19367008432 ; 365840.54530872294 ; 1.136199122382437E7 ; 3.331892073821491E7 ; 29512.000000000004
125 ; 92951.85513031227 ; 367653.59313623764 ; 1.1455359417494455E7 ; 3.3684761283523634E7 ; 29750.000000000004
126 ; 92173.55735600465 ; 369465.7553142539 ; 1.1548311272624768E7 ; 3.405241487665987E7 ; 29988.000000000004
127 ; 92124.60428862528 ; 371276.91094960744 ; 1.1640484829980774E7 ; 3.442188063197412E7 ; 30226.000000000004
128 ; 91109.62667106745 ; 373086.9412668526 ; 1.1732609434269398E7 ; 3.479315754292373E7 ; 30464.000000000004
129 ; 90325.52101141693 ; 374895.7295520105 ; 1.1823719060940467E7 ; 3.516624448419058E7 ; 30702.000000000004
130 ; 89449.12523311753 ; 376703.1610980143 ; 1.1914044581951885E7 ; 3.554114021374259E7 ; 30940.000000000004
131 ; 89047.52922507432 ; 378509.12315180607 ; 1.2003493707185002E7 ; 3.59178433748406E7 ; 31178.000000000004
132 ; 88360.78454876493 ; 380313.5048630359 ; 1.2092541236410076E7 ; 3.629635249799241E7 ; 31416.000000000004
133 ; 87850.82085551243 ; 382116.19723431877 ; 1.218090202095884E7 ; 3.667666600285545E7 ; 31654.000000000004
134 ; 87077.23560121127 ; 383917.09307300375 ; 1.2268752841814354E7 ; 3.705878220008977E7 ; 31892.000000000004
135 ; 86067.43418169516 ; 385716.0869444117 ; 1.2355830077415565E7 ; 3.744269929316277E7 ; 32130.000000000004
136 ; 85208.42184381334 ; 387513.07512649754 ; 1.244189751159726E7 ; 3.782841538010718E7 ; 32368.000000000004
137 ; 84820.96915197256 ; 389307.9555658955 ; 1.2527105933441075E7 ; 3.821592845523368E7 ; 32606.000000000004
138 ; 84103.0275606764 ; 391100.6278353062 ; 1.2611926902593046E7 ; 3.860523641079957E7 ; 32844.00000000001
139 ; 83766.87955229814 ; 392890.9930921848 ; 1.2696029930153722E7 ; 3.8996337038634874E7 ; 33082.00000000001
140 ; 82892.97774634855 ; 394678.95403869095 ; 1.277979680970602E7 ; 3.938922803172706E7 ; 33320.00000000001
141 ; 82065.28677153285 ; 396464.414882863 ; 1.2862689787452368E7 ; 3.9783906985765755E7 ; 33558.00000000001
142 ; 81013.27501692822 ; 398247.28130097856 ; 1.29447550742239E7 ; 4.0180371400648616E7 ; 33796.00000000001
143 ; 80256.20648198709 ; 400027.46040106483 ; 1.3025768349240828E7 ; 4.057861868194959E7 ; 34034.00000000001
144 ; 79400.60690187008 ; 401804.8606875244 ; 1.3106024555722816E7 ; 4.097864614235066E7 ; 34272.00000000001
145 ; 79227.13809934778 ; 403579.3920268408 ; 1.3185425162624685E7 ; 4.138045100303818E7 ; 34510.00000000001
146 ; 79417.88161834984 ; 405350.9656143322 ; 1.3264652300724033E7 ; 4.1784030395065024E7 ; 34748.00000000001
147 ; 78987.98739425006 ; 407119.493941918 ; 1.3344070182342384E7 ; 4.218938136067936E7 ; 34986.00000000001
148 ; 78619.66466501303 ; 408884.8907668705 ; 1.3423058169736635E7 ; 4.2596500854621276E7 ; 35224.00000000001
149 ; 78749.57291948397 ; 410647.07108151726 ; 1.3501677834401648E7 ; 4.300538574538815E7 ; 35462.00000000001
150 ; 78237.3083316967 ; 412405.9510838671 ; 1.3580427407321133E7 ; 4.341603281646967E7 ; 35700.00000000001
151 ; 78080.31405519671 ; 414161.4481491295 ; 1.3658664715652829E7 ; 4.382843876755354E7 ; 35938.00000000001
152 ; 77530.28556707001 ; 415913.48080210027 ; 1.3736745029708026E7 ; 4.424260021570267E7 ; 36176.00000000001
153 ; 77555.22740526813 ; 417661.96869038494 ; 1.3814275315275095E7 ; 4.465851369650477E7 ; 36414.00000000001
154 ; 77088.33661890375 ; 419406.8325584356 ; 1.3891830542680364E7 ; 4.507617566519516E7 ; 36652.00000000001
155 ; 76767.9705335624 ; 421147.9942223737 ; 1.3968918879299268E7 ; 4.54955824977536E7 ; 36890.00000000001
156 ; 76579.5472352848 ; 422885.37654557516 ; 1.4045686849832831E7 ; 4.591673049197597E7 ; 37128.00000000001
157 ; 76049.58785252515 ; 424618.9034149935 ; 1.4122266397068115E7 ; 4.633961586852155E7 ; 37366.00000000001
158 ; 76289.67033447436 ; 426348.4997181976 ; 1.419831598492064E7 ; 4.676423477193654E7 ; 37604.00000000001
159 ; 75769.4244180177 ; 428074.0913211023 ; 1.4274605655255115E7 ; 4.719058327165474E7 ; 37842.00000000001
160 ; 75591.47260341083 ; 429795.6050463685 ; 1.4350375079673132E7 ; 4.761865736297584E7 ; 38080.00000000001
161 ; 75113.01737191284 ; 431512.96865245356 ; 1.4425966552276542E7 ; 4.804845296802221E7 ; 38318.00000000001
162 ; 75078.28209928556 ; 433226.11081329006 ; 1.4501079569648456E7 ; 4.847996593667467E7 ; 38556.00000000001
163 ; 74759.6212424018 ; 434934.9610985739 ; 1.4576157851747742E7 ; 4.891319204748796E7 ; 38794.00000000001
164 ; 74616.15261413573 ; 436639.44995464216 ; 1.4650917472990144E7 ; 4.934812700858653E7 ; 39032.00000000001
165 ; 74098.94285815515 ; 438339.5086859221 ; 1.472553362560428E7 ; 4.978476645854118E7 ; 39270.00000000001
166 ; 73323.59113780613 ; 440035.0694369343 ; 1.4799632568462435E7 ; 5.02231059672271E7 ; 39508.00000000001
167 ; 73521.375998507 ; 441726.0651748313 ; 1.4872956159600241E7 ; 5.066314103666404E7 ; 39746.00000000001
168 ; 72990.29900520909 ; 443412.42967245536 ; 1.4946477535598747E7 ; 5.110486710183887E7 ; 39984.00000000001
169 ; 72588.69438110391 ; 445094.0974918991 ; 1.5019467834603956E7 ; 5.154827953151133E7 ; 40222.00000000001
170 ; 71991.23840005271 ; 446771.0039685537 ; 1.509205652898506E7 ; 5.199337362900323E7 ; 40460.00000000001
171 ; 72367.2650211805 ; 448443.08519562864 ; 1.5164047767385114E7 ; 5.244014463297178E7 ; 40698.00000000001
172 ; 71840.57015707735 ; 450110.2780091289 ; 1.5236415032406295E7 ; 5.288858771816741E7 ; 40936.00000000001
173 ; 71301.51149585898 ; 451772.5199732743 ; 1.5308255602563372E7 ; 5.333869799617654E7 ; 41174.00000000001
174 ; 71757.60933035976 ; 453429.749366349 ; 1.537955711405923E7 ; 5.379047051614982E7 ; 41412.00000000001
175 ; 71362.98160771163 ; 455081.90516696573 ; 1.545131472338959E7 ; 5.424390026551617E7 ; 41650.00000000001
176 ; 71860.68026956066 ; 456728.92704073305 ; 1.5522677704997301E7 ; 5.469898217068314E7 ; 41888.00000000001
177 ; 71464.49208553809 ; 458370.75532731344 ; 1.5594538385266861E7 ; 5.515571109772387E7 ; 42126.00000000001
178 ; 71883.99919576348 ; 460007.3310278585 ; 1.56660028773524E7 ; 5.5614081853051186E7 ; 42364.00000000001
179 ; 72379.93020151874 ; 461638.59579281154 ; 1.5737886876548164E7 ; 5.607408918407904E7 ; 42602.00000000001
180 ; 72120.54654768045 ; 463264.4919100649 ; 1.5810266806749683E7 ; 5.653572777987186E7 ; 42840.00000000001
181 ; 72298.55522790898 ; 464884.962293461 ; 1.5882387353297364E7 ; 5.699899227178192E7 ; 43078.00000000001
