CSV File for the Network on Day 214
1 - Minute m 
2 - Power Consumed at minute m 
3 - Power Produced at minute m 
4 - Energy Consumed since the beginning of the day 
5 - Energy Produced since the beginning of the day 
6 - Energy Lost since the beginning of the day 
 
No Production city : 2, Producer : 1
No Production city : 4, Producer : 1
No Production city : 4, Producer : 1
 
0 ; 26960.784399201864 ; 107262.86893002297 ; 0.0 ; 0.0 ; 0.0
1 ; 28589.8502574354 ; 106729.27297705524 ; 26960.784399201864 ; 107262.86893002297 ; 238.00000000000003
2 ; 30310.105712566925 ; 106245.30183339273 ; 55550.63465663727 ; 213992.1419070782 ; 476.00000000000006
3 ; 32278.59613411787 ; 105812.9357963128 ; 85860.7403692042 ; 320237.4437404709 ; 714.0000000000001
4 ; 34036.16648715727 ; 105434.03182960216 ; 118139.33650332206 ; 426050.37953678373 ; 952.0000000000001
5 ; 35744.11526526954 ; 105110.28945329376 ; 152175.50299047935 ; 531484.4113663859 ; 1190.0000000000002
6 ; 37650.29607681187 ; 104843.21696371384 ; 187919.61825574888 ; 636594.7008196797 ; 1428.0000000000002
7 ; 39328.98734953887 ; 104634.09936515102 ; 225569.91433256076 ; 741437.9177833935 ; 1666.0000000000002
8 ; 40707.86371083342 ; 104483.96947443252 ; 264898.9016820996 ; 846072.0171485445 ; 1904.0000000000002
9 ; 42429.04233774255 ; 104393.58363253174 ; 305606.76539293304 ; 950555.9866229771 ; 2142.0000000000005
10 ; 44161.389884930264 ; 104363.40331050925 ; 348035.80773067556 ; 1054949.5702555089 ; 2380.0000000000005
11 ; 46474.62196749973 ; 104393.58363253174 ; 392197.19761560584 ; 1159312.973566018 ; 2618.0000000000005
12 ; 47690.60066077771 ; 104483.96947443252 ; 438671.81958310556 ; 1263706.5571985499 ; 2856.0000000000005
13 ; 49578.60299738139 ; 104634.09936515102 ; 486362.4202438833 ; 1368190.5266729824 ; 3094.0000000000005
14 ; 51070.495687488525 ; 104843.21696371384 ; 535941.0232412646 ; 1472824.6260381334 ; 3332.0000000000005
15 ; 52394.484272365895 ; 105110.28945329376 ; 587011.5189287532 ; 1577667.8430018472 ; 3570.0000000000005
16 ; 54196.14636430117 ; 105434.03182960216 ; 639406.0032011191 ; 1682778.1324551408 ; 3808.0000000000005
17 ; 55431.49763091844 ; 105812.93579631268 ; 693602.1495654203 ; 1788212.164284743 ; 4046.0000000000005
18 ; 57503.66249837205 ; 106245.30183339285 ; 749033.6471963387 ; 1894025.1000810557 ; 4284.000000000001
19 ; 58528.34814100788 ; 106729.27297705512 ; 806537.3096947108 ; 2000270.4019144485 ; 4522.000000000001
20 ; 59918.543047789884 ; 107262.86893002297 ; 865065.6578357187 ; 2106999.6748915035 ; 4760.000000000001
21 ; 61804.58111628025 ; 107844.01928499487 ; 924984.2008835085 ; 2214262.5438215267 ; 4998.000000000001
22 ; 62978.756323105816 ; 108470.59486417157 ; 986788.7819997888 ; 2322106.5631065215 ; 5236.000000000001
23 ; 64366.834391334676 ; 109140.43642452374 ; 1049767.5383228946 ; 2430577.157970693 ; 5474.000000000001
24 ; 65754.50649121216 ; 109851.38022642281 ; 1114134.3727142294 ; 2539717.5943952166 ; 5712.000000000001
25 ; 67025.51407489264 ; 110601.28019241588 ; 1179888.8792054416 ; 2649568.9746216396 ; 5950.000000000001
26 ; 68382.63129751028 ; 111388.02657997509 ; 1246914.3932803343 ; 2760170.2548140553 ; 6188.000000000001
27 ; 69315.30460667824 ; 112209.5612501228 ; 1315297.0245778447 ; 2871558.2813940304 ; 6426.000000000001
28 ; 70674.30523662943 ; 113063.88973140692 ; 1384612.3291845229 ; 2983767.842644153 ; 6664.000000000001
29 ; 72245.91378745057 ; 113949.09035816748 ; 1455286.6344211523 ; 3096831.73237556 ; 6902.000000000001
30 ; 73397.99021392125 ; 114863.32080830842 ; 1527532.548208603 ; 3210780.8227337273 ; 7140.000000000001
31 ; 74648.31520316494 ; 115804.82238497397 ; 1600930.5384225242 ; 3325644.1435420355 ; 7378.000000000001
32 ; 75943.37192198519 ; 116771.92238498274 ; 1675578.8536256892 ; 3441448.9659270095 ; 7616.000000000001
33 ; 76826.92074284927 ; 117763.03488053284 ; 1751522.2255476743 ; 3558220.8883119924 ; 7854.000000000001
34 ; 78117.38428207429 ; 118776.66021470515 ; 1828349.1462905237 ; 3675983.9231925253 ; 8092.000000000001
35 ; 79282.63833746545 ; 119811.38347982385 ; 1906466.5305725979 ; 3794760.58340723 ; 8330.000000000002
36 ; 80500.2306074831 ; 120865.87221401288 ; 1985749.1689100633 ; 3914571.966887054 ; 8568.000000000002
37 ; 81590.07016261609 ; 121938.87351761853 ; 2066249.3995175464 ; 4035437.839101067 ; 8806.000000000002
38 ; 82742.04865246575 ; 123029.21075914914 ; 2147839.4696801626 ; 4157376.7126186853 ; 9044.000000000002
39 ; 83360.4788005419 ; 124135.7800109661 ; 2230581.5183326285 ; 4280405.923377834 ; 9282.000000000002
40 ; 84837.52111357822 ; 125257.54632867749 ; 2313941.9971331703 ; 4404541.7033888 ; 9520.000000000002
41 ; 86009.23386404273 ; 126393.53996521198 ; 2398779.5182467485 ; 4529799.249717478 ; 9758.000000000002
42 ; 86695.45003067244 ; 127542.85259083657 ; 2484788.7521107914 ; 4656192.78968269 ; 9996.000000000002
43 ; 88041.40345209162 ; 128704.6335737503 ; 2571484.2021414638 ; 4783735.642273527 ; 10234.000000000002
44 ; 88715.86050058273 ; 129878.08636204271 ; 2659525.6055935556 ; 4912440.275847277 ; 10472.000000000002
45 ; 89497.22822183526 ; 131062.46499645353 ; 2748241.466094138 ; 5042318.362209319 ; 10710.000000000002
46 ; 90060.29057108339 ; 132257.07077417214 ; 2837738.694315973 ; 5173380.8272057725 ; 10948.000000000002
47 ; 91176.78089852796 ; 133461.24907656628 ; 2927798.9848870565 ; 5305637.897979945 ; 11186.000000000002
48 ; 92090.0920831408 ; 134674.38636793575 ; 3018975.7657855847 ; 5439099.147056512 ; 11424.000000000002
49 ; 93151.42666814754 ; 135895.9073678908 ; 3111065.8578687254 ; 5573773.533424447 ; 11662.000000000002
50 ; 93595.84262216199 ; 137125.27239652304 ; 3204217.284536873 ; 5709669.440792338 ; 11900.000000000002
51 ; 94567.17229429344 ; 138361.97488897556 ; 3297813.127159035 ; 5846794.713188861 ; 12138.000000000002
52 ; 95548.09824183006 ; 139605.53907416094 ; 3392380.2994533284 ; 5985156.688077836 ; 12376.000000000002
53 ; 95892.0475844681 ; 140855.51781106897 ; 3487928.3976951586 ; 6124762.227151997 ; 12614.000000000002
54 ; 96856.88292676033 ; 142111.49057525367 ; 3583820.4452796266 ; 6265617.744963067 ; 12852.000000000002
55 ; 97608.16076212605 ; 143373.06158756802 ; 3680677.328206387 ; 6407729.235538321 ; 13090.000000000002
56 ; 98033.53057975107 ; 144639.85807697236 ; 3778285.488968513 ; 6551102.297125889 ; 13328.000000000002
57 ; 98573.04198009512 ; 145911.52866919182 ; 3876319.019548264 ; 6695742.155202861 ; 13566.000000000002
58 ; 99391.4492588674 ; 147187.74189310567 ; 3974892.061528359 ; 6841653.6838720525 ; 13804.000000000002
59 ; 100268.62501650282 ; 148468.18479696562 ; 4074283.5107872263 ; 6988841.425765159 ; 14042.000000000002
60 ; 100841.47133667395 ; 149752.56166683 ; 4174552.1358037293 ; 7137309.610562124 ; 14280.000000000002
61 ; 101476.79711948126 ; 151040.59283994767 ; 4275393.607140403 ; 7287062.172228955 ; 14518.000000000002
62 ; 101968.78930473147 ; 152332.01360619997 ; 4376870.404259885 ; 7438102.765068903 ; 14756.000000000002
63 ; 102627.18485737781 ; 153626.57319110277 ; 4478839.193564616 ; 7590434.778675103 ; 14994.000000000002
64 ; 102669.68244541853 ; 154924.03381427075 ; 4581466.378421994 ; 7744061.351866205 ; 15232.000000000002
65 ; 103859.6529975427 ; 156224.1698176424 ; 4684136.060867412 ; 7898985.385680476 ; 15470.000000000002
66 ; 104526.31735437305 ; 157526.7668581521 ; 4787995.713864955 ; 8055209.5554981185 ; 15708.000000000002
67 ; 104780.23526201013 ; 158831.6211599091 ; 4892522.031219328 ; 8212736.322356271 ; 15946.000000000002
68 ; 104880.48049771864 ; 160138.53882130285 ; 4997302.266481338 ; 8371567.94351618 ; 16184.000000000002
69 ; 105580.13724934621 ; 161447.33517279234 ; 5102182.746979057 ; 8531706.482337482 ; 16422.000000000004
70 ; 105780.80984433761 ; 162757.8341814588 ; 5207762.884228403 ; 8693153.817510275 ; 16660.000000000004
71 ; 106099.06743102882 ; 164069.867898701 ; 5313543.69407274 ; 8855911.651691735 ; 16898.000000000004
72 ; 106208.39185525225 ; 165383.27594773262 ; 5419642.761503769 ; 9019981.519590436 ; 17136.000000000004
73 ; 106321.97101103766 ; 166697.9050478063 ; 5525851.153359021 ; 9185364.795538168 ; 17374.000000000004
74 ; 106774.7957468427 ; 168013.60857232692 ; 5632173.124370059 ; 9352062.700585974 ; 17612.000000000004
75 ; 107630.7806660882 ; 169330.24613824562 ; 5738947.920116901 ; 9520076.309158301 ; 17850.000000000004
76 ; 107707.11580850134 ; 170647.6832243331 ; 5846578.700782989 ; 9689406.555296546 ; 18088.000000000004
77 ; 107963.9549431628 ; 171965.79081612156 ; 5954285.81659149 ; 9860054.23852088 ; 18326.000000000004
78 ; 108181.69730228146 ; 173284.44507548428 ; 6062249.771534652 ; 1.0032020029337E7 ; 18564.000000000004
79 ; 108042.78638537585 ; 174603.52703298168 ; 6170431.468836934 ; 1.0205304474412484E7 ; 18802.000000000004
80 ; 108541.18019542117 ; 175922.9223012551 ; 6278474.25522231 ; 1.0379908001445467E7 ; 19040.000000000004
81 ; 108553.63431125456 ; 177242.52080788667 ; 6387015.435417731 ; 1.0555830923746722E7 ; 19278.000000000004
82 ; 108860.92498872905 ; 178562.2165462686 ; 6495569.069728985 ; 1.0733073444554608E7 ; 19516.000000000004
83 ; 108971.9553287198 ; 179881.90734314497 ; 6604429.994717714 ; 1.0911635661100877E7 ; 19754.000000000004
84 ; 108792.75628412764 ; 181201.4946415911 ; 6713401.950046434 ; 1.1091517568444023E7 ; 19992.000000000004
85 ; 108773.35264663199 ; 182520.88329829831 ; 6822194.706330562 ; 1.1272719063085614E7 ; 20230.000000000004
86 ; 109044.13934887742 ; 183839.98139411717 ; 6930968.058977194 ; 1.1455239946383912E7 ; 20468.000000000004
87 ; 108898.92475165409 ; 185158.70005689852 ; 7040012.198326072 ; 1.163907992777803E7 ; 20706.000000000004
88 ; 109016.94095947851 ; 186476.95329574385 ; 7148911.123077726 ; 1.182423862783493E7 ; 20944.000000000004
89 ; 109208.79792554796 ; 187794.6578458495 ; 7257928.064037205 ; 1.2010715581130672E7 ; 21182.000000000004
90 ; 109073.13062534783 ; 189111.73302318834 ; 7367136.861962752 ; 1.2198510238976521E7 ; 21420.000000000004
91 ; 109124.76544993007 ; 190428.1005883353 ; 7476209.9925881 ; 1.238762197199971E7 ; 21658.000000000004
92 ; 108844.09759351682 ; 191743.6846187943 ; 7585334.75803803 ; 1.2578050072588045E7 ; 21896.000000000004
93 ; 108932.86898981051 ; 193058.41138923296 ; 7694178.855631547 ; 1.2769793757206839E7 ; 22134.000000000004
94 ; 108530.58696501741 ; 194372.20925907858 ; 7803111.724621357 ; 1.2962852168596072E7 ; 22372.000000000004
95 ; 108227.64500239596 ; 195685.00856696893 ; 7911642.311586374 ; 1.315722437785515E7 ; 22610.000000000004
96 ; 108509.67046991608 ; 196996.74153158942 ; 8019869.95658877 ; 1.3352909386422118E7 ; 22848.000000000004
97 ; 108474.95344881408 ; 198307.34215846437 ; 8128379.627058687 ; 1.3549906127953708E7 ; 23086.000000000004
98 ; 107800.54284351124 ; 199616.7461523015 ; 8236854.580507501 ; 1.3748213470112173E7 ; 23324.000000000004
99 ; 107644.44846405234 ; 200924.89083451792 ; 8344655.123351012 ; 1.3947830216264475E7 ; 23562.000000000004
100 ; 107403.47738298705 ; 202231.71506560518 ; 8452299.571815064 ; 1.4148755107098993E7 ; 23800.000000000004
101 ; 107203.97333593576 ; 203537.15917201366 ; 8559703.049198052 ; 1.4350986822164599E7 ; 24038.000000000004
102 ; 106984.80617323355 ; 204841.1648772612 ; 8666907.022533989 ; 1.4554523981336612E7 ; 24276.000000000004
103 ; 106511.50209113723 ; 206143.6752369917 ; 8773891.828707222 ; 1.4759365146213874E7 ; 24514.000000000004
104 ; 106234.78254676198 ; 207444.63457772933 ; 8880403.33079836 ; 1.4965508821450867E7 ; 24752.000000000004
105 ; 106270.28511425955 ; 208743.98843909195 ; 8986638.113345122 ; 1.5172953456028596E7 ; 24990.000000000004
106 ; 105653.2544909847 ; 210041.68351924376 ; 9092908.398459382 ; 1.5381697444467688E7 ; 25228.000000000004
107 ; 105355.97806253286 ; 211337.6676233836 ; 9198561.652950367 ; 1.5591739127986932E7 ; 25466.000000000004
108 ; 104466.95171890031 ; 212631.88961507805 ; 9303917.6310129 ; 1.5803076795610316E7 ; 25704.000000000004
109 ; 104075.65204964136 ; 213924.2993702636 ; 9408384.5827318 ; 1.6015708685225394E7 ; 25942.000000000004
110 ; 104097.64776735123 ; 215214.8477337522 ; 9512460.234781442 ; 1.6229632984595656E7 ; 26180.000000000004
111 ; 103592.910264176 ; 216503.4864780881 ; 9616557.882548794 ; 1.644484783232941E7 ; 26418.000000000004
112 ; 102651.73042104635 ; 217790.16826461177 ; 9720150.79281297 ; 1.6661351318807498E7 ; 26656.000000000004
113 ; 102363.44640793528 ; 219074.84660659876 ; 9822802.523234015 ; 1.687914148707211E7 ; 26894.000000000004
114 ; 101966.03510604486 ; 220357.47583434833 ; 9925165.96964195 ; 1.7098216333678707E7 ; 27132.000000000004
115 ; 101258.4541081626 ; 221638.01106210653 ; 1.0027132004747994E7 ; 1.7318573809513055E7 ; 27370.000000000004
116 ; 100553.00365448906 ; 222916.4081567151 ; 1.0128390458856156E7 ; 1.7540211820575163E7 ; 27608.000000000004
117 ; 99572.20177411342 ; 224192.6237078848 ; 1.0228943462510645E7 ; 1.7763128228731878E7 ; 27846.000000000004
118 ; 98993.39222617756 ; 225466.61499999874 ; 1.0328515664284758E7 ; 1.798732085243976E7 ; 28084.000000000004
119 ; 99033.41424712751 ; 226738.33998535725 ; 1.0427509056510936E7 ; 1.821278746743976E7 ; 28322.000000000004
120 ; 97712.67793775981 ; 228007.75725878173 ; 1.0526542470758064E7 ; 1.8439525807425115E7 ; 28560.000000000004
121 ; 97323.07476598029 ; 229274.82603349944 ; 1.0624255148695823E7 ; 1.8667533564683896E7 ; 28798.000000000004
122 ; 96642.46860780538 ; 230539.5061182373 ; 1.0721578223461803E7 ; 1.8896808390717395E7 ; 29036.000000000004
123 ; 95789.74328057986 ; 231801.75789545634 ; 1.0818220692069609E7 ; 1.9127347896835633E7 ; 29274.000000000004
124 ; 94983.7065069951 ; 233061.54230066334 ; 1.0914010435350189E7 ; 1.9359149654731087E7 ; 29512.000000000004
125 ; 94172.33417511806 ; 234318.82080273997 ; 1.1008994141857184E7 ; 1.959221119703175E7 ; 29750.000000000004
126 ; 93409.35915513046 ; 235573.5553852329 ; 1.1103166476032302E7 ; 1.9826530017834492E7 ; 29988.000000000004
127 ; 92704.79101670596 ; 236825.70852855305 ; 1.1196575835187431E7 ; 2.0062103573219724E7 ; 30226.000000000004
128 ; 92233.4429188444 ; 238075.24319303426 ; 1.1289280626204137E7 ; 2.0298929281748276E7 ; 30464.000000000004
129 ; 91117.91537483296 ; 239322.1228028048 ; 1.1381514069122981E7 ; 2.053700452494131E7 ; 30702.000000000004
130 ; 90008.92500632357 ; 240566.31123042825 ; 1.1472631984497814E7 ; 2.0776326647744115E7 ; 30940.000000000004
131 ; 89123.72602554636 ; 241807.77278227353 ; 1.1562640909504138E7 ; 2.1016892958974544E7 ; 31178.000000000004
132 ; 88071.46672670986 ; 243046.4721845741 ; 1.1651764635529684E7 ; 2.1258700731756818E7 ; 31416.000000000004
133 ; 87565.79784209872 ; 244282.37457014155 ; 1.1739836102256393E7 ; 2.150174720394139E7 ; 31654.000000000004
134 ; 86416.07405174163 ; 245515.44546569837 ; 1.1827401900098491E7 ; 2.1746029578511532E7 ; 31892.000000000004
135 ; 85216.44976220845 ; 246745.6507797988 ; 1.1913817974150233E7 ; 2.199154502397723E7 ; 32130.000000000004
136 ; 83935.6894262774 ; 247972.95679130612 ; 1.1999034423912441E7 ; 2.223829067475703E7 ; 32368.000000000004
137 ; 83384.8332082932 ; 249197.33013839953 ; 1.2082970113338718E7 ; 2.2486263631548338E7 ; 32606.000000000004
138 ; 81896.5556011851 ; 250418.7378080823 ; 1.216635494654701E7 ; 2.2735460961686738E7 ; 32844.00000000001
139 ; 81062.27380492921 ; 251637.14712616682 ; 1.2248251502148196E7 ; 2.298587969949482E7 ; 33082.00000000001
140 ; 80349.78453607089 ; 252852.52574771192 ; 1.2329313775953125E7 ; 2.3237516846620988E7 ; 33320.00000000001
141 ; 78870.02911441521 ; 254064.8416478904 ; 1.2409663560489196E7 ; 2.34903693723687E7 ; 33558.00000000001
142 ; 77451.57782973633 ; 255274.06311326515 ; 1.2488533589603612E7 ; 2.374443421401659E7 ; 33796.00000000001
143 ; 76446.98367457087 ; 256480.15873345418 ; 1.256598516743335E7 ; 2.3999708277129855E7 ; 34034.00000000001
144 ; 75049.76216493013 ; 257683.09739316461 ; 1.264243215110792E7 ; 2.425618843586331E7 ; 34272.00000000001
145 ; 75127.9772009016 ; 258882.84826457882 ; 1.271748191327285E7 ; 2.4513871533256475E7 ; 34510.00000000001
146 ; 74985.10780027157 ; 260079.38080007475 ; 1.2792609890473751E7 ; 2.4772754381521054E7 ; 34748.00000000001
147 ; 74577.75748626716 ; 261272.6647252649 ; 1.2867594998274023E7 ; 2.503283376232113E7 ; 34986.00000000001
148 ; 74403.31951837172 ; 262462.6700323389 ; 1.294217275576029E7 ; 2.5294106427046396E7 ; 35224.00000000001
149 ; 74263.93521896531 ; 263649.36697369406 ; 1.3016576075278662E7 ; 2.5556569097078733E7 ; 35462.00000000001
150 ; 74102.6567670935 ; 264832.72605584236 ; 1.3090840010497628E7 ; 2.5820218464052428E7 ; 35700.00000000001
151 ; 74136.59796444996 ; 266012.7180335789 ; 1.316494266726472E7 ; 2.608505119010827E7 ; 35938.00000000001
152 ; 73074.80727009007 ; 267189.3139044006 ; 1.3239079265229171E7 ; 2.6351063908141848E7 ; 36176.00000000001
153 ; 73097.43765891067 ; 268362.484903164 ; 1.331215407249926E7 ; 2.661825322204625E7 ; 36414.00000000001
154 ; 72856.45830136214 ; 269532.2024969694 ; 1.3385251510158172E7 ; 2.6886615706949413E7 ; 36652.00000000001
155 ; 72331.69438266446 ; 270698.4383802635 ; 1.3458107968459534E7 ; 2.715614790944638E7 ; 36890.00000000001
156 ; 71772.48877591253 ; 271861.1644701482 ; 1.3530439662842197E7 ; 2.7426846347826645E7 ; 37128.00000000001
157 ; 71736.03313905813 ; 273020.3529018872 ; 1.360221215161811E7 ; 2.7698707512296792E7 ; 37366.00000000001
158 ; 71571.45662909854 ; 274175.9760246021 ; 1.3673948184757167E7 ; 2.797172786519868E7 ; 37604.00000000001
159 ; 70611.9499535625 ; 275328.0063971486 ; 1.3745519641386267E7 ; 2.824590384122328E7 ; 37842.00000000001
160 ; 70556.87247614021 ; 276476.41678416485 ; 1.3816131591339828E7 ; 2.8521231847620428E7 ; 38080.00000000001
161 ; 70322.64598060769 ; 277621.1801522848 ; 1.3886688463815968E7 ; 2.879770826440459E7 ; 38318.00000000001
162 ; 69851.64756604726 ; 278762.269666509 ; 1.3957011109796576E7 ; 2.9075329444556877E7 ; 38556.00000000001
163 ; 69623.21494021328 ; 279899.65868672583 ; 1.4026862757362623E7 ; 2.9354091714223385E7 ; 38794.00000000001
164 ; 69112.722842161 ; 281033.32076437655 ; 1.4096485972302835E7 ; 2.9633991372910112E7 ; 39032.00000000001
165 ; 68699.57186535014 ; 282163.2296392588 ; 1.4165598695144996E7 ; 2.991502469367449E7 ; 39270.00000000001
166 ; 68708.35644252297 ; 283289.35923646117 ; 1.4234298267010346E7 ; 3.0197187923313748E7 ; 39508.00000000001
167 ; 68638.87648775397 ; 284411.6836634239 ; 1.4303006623452868E7 ; 3.048047728255021E7 ; 39746.00000000001
168 ; 67708.63437867007 ; 285530.177207121 ; 1.4371645499940623E7 ; 3.0764888966213632E7 ; 39984.00000000001
169 ; 67473.64020360164 ; 286644.81433135737 ; 1.4439354134319292E7 ; 3.1050419143420752E7 ; 40222.00000000001
170 ; 66950.50227022303 ; 287755.5696741767 ; 1.4506827774522893E7 ; 3.133706395775211E7 ; 40460.00000000001
171 ; 66166.31165685994 ; 288862.41804537585 ; 1.4573778276793117E7 ; 3.1624819527426284E7 ; 40698.00000000001
172 ; 65939.41529432348 ; 289965.3344241204 ; 1.4639944588449977E7 ; 3.191368194547166E7 ; 40936.00000000001
173 ; 65834.6093999671 ; 291064.2939566575 ; 1.47058840037443E7 ; 3.220364727989578E7 ; 41174.00000000001
174 ; 65301.74930305385 ; 292159.2719541228 ; 1.4771718613144267E7 ; 3.2494711573852435E7 ; 41412.00000000001
175 ; 66110.29226204244 ; 293250.2438904361 ; 1.4837020362447321E7 ; 3.2786870845806558E7 ; 41650.00000000001
176 ; 66373.70913256763 ; 294337.1854002828 ; 1.4903130654709363E7 ; 3.3080121089696992E7 ; 41888.00000000001
177 ; 66291.9108027984 ; 295420.0722771784 ; 1.496950436384193E7 ; 3.3374458275097273E7 ; 42126.00000000001
178 ; 66903.02710584606 ; 296498.8804716113 ; 1.5035796274644729E7 ; 3.3669878347374454E7 ; 42364.00000000001
179 ; 66962.09936376207 ; 297573.58608926134 ; 1.5102699301750574E7 ; 3.396637722784606E7 ; 42602.00000000001
180 ; 66914.60740352799 ; 298644.1653892915 ; 1.5169661401114337E7 ; 3.4263950813935325E7 ; 42840.00000000001
181 ; 67251.29609954407 ; 299710.5947827087 ; 1.5236576008517865E7 ; 3.456259497932462E7 ; 43078.00000000001
