CSV File for the Network on Day 272
1 - Minute m 
2 - Power Consumed at minute m 
3 - Power Produced at minute m 
4 - Energy Consumed since the beginning of the day 
5 - Energy Produced since the beginning of the day 
6 - Energy Lost since the beginning of the day 
 
No Production city : 2, Producer : 1
No Production city : 4, Producer : 1
No Production city : 4, Producer : 1
 
0 ; 42936.4636807427 ; 176988.6182835103 ; 0.0 ; 0.0 ; 0.0
1 ; 44042.96905331769 ; 176648.12259375994 ; 42936.4636807427 ; 176988.6182835103 ; 238.00000000000003
2 ; 45486.77647618365 ; 176342.5046410262 ; 86979.43273406039 ; 353636.74087727023 ; 476.00000000000006
3 ; 47102.122397636864 ; 176072.07940311386 ; 132466.20921024404 ; 529979.2455182965 ; 714.0000000000001
4 ; 48064.425603421296 ; 175837.12846676965 ; 179568.3316078809 ; 706051.3249214103 ; 952.0000000000001
5 ; 49411.6763400146 ; 175637.8987022547 ; 227632.75721130217 ; 881888.4533881799 ; 1190.0000000000002
6 ; 50711.81107360689 ; 175474.60108262472 ; 277044.4335513168 ; 1057526.3520904346 ; 1428.0000000000002
7 ; 52171.19731440518 ; 175347.4096607932 ; 327756.2446249237 ; 1233000.9531730593 ; 1666.0000000000002
8 ; 53376.180854628736 ; 175256.4607159267 ; 379927.44193932886 ; 1408348.3628338524 ; 1904.0000000000002
9 ; 54752.8563946426 ; 175201.85207896473 ; 433303.6227939576 ; 1583604.8235497791 ; 2142.0000000000005
10 ; 56456.63866639197 ; 175183.64264510368 ; 488056.4791886002 ; 1758806.6756287438 ; 2380.0000000000005
11 ; 57606.95885009089 ; 175201.85207896473 ; 544513.1178549922 ; 1933990.3182738475 ; 2618.0000000000005
12 ; 58316.00019428901 ; 175256.4607159267 ; 602120.076705083 ; 2109192.1703528124 ; 2856.0000000000005
13 ; 59548.9362125811 ; 175347.4096607932 ; 660436.076899372 ; 2284448.631068739 ; 3094.0000000000005
14 ; 60706.041125985095 ; 175474.60108262472 ; 719985.0131119532 ; 2459796.0407295325 ; 3332.0000000000005
15 ; 62219.32219701735 ; 175637.8987022547 ; 780691.0542379383 ; 2635270.6418121574 ; 3570.0000000000005
16 ; 63196.39812161528 ; 175837.12846676965 ; 842910.3764349556 ; 2810908.540514412 ; 3808.0000000000005
17 ; 64336.98774997707 ; 176072.07940311386 ; 906106.7745565709 ; 2986745.6689811815 ; 4046.0000000000005
18 ; 64956.25493688628 ; 176342.50464102632 ; 970443.762306548 ; 3162817.7483842955 ; 4284.000000000001
19 ; 66010.92727062322 ; 176648.12259375985 ; 1035400.0172434342 ; 3339160.2530253218 ; 4522.000000000001
20 ; 67834.69458227533 ; 176988.61828351038 ; 1101410.9445140574 ; 3515808.375619082 ; 4760.000000000001
21 ; 68519.29736548575 ; 177363.64479721428 ; 1169245.6390963327 ; 3692796.993902592 ; 4998.000000000001
22 ; 69751.54784707968 ; 177772.8248573743 ; 1237764.9364618184 ; 3870160.6386998063 ; 5236.000000000001
23 ; 70471.68143429108 ; 178215.75249185704 ; 1307516.484308898 ; 4047933.4635571805 ; 5474.000000000001
24 ; 71950.23340247587 ; 178691.99478616548 ; 1377988.1657431892 ; 4226149.216049038 ; 5712.000000000001
25 ; 73347.72720494945 ; 179201.09370152734 ; 1449938.399145665 ; 4404841.2108352035 ; 5950.000000000001
26 ; 73706.02984921398 ; 179742.5679422366 ; 1523286.1263506145 ; 4584042.304536731 ; 6188.000000000001
27 ; 74545.3375728871 ; 180315.91485602478 ; 1596992.1561998285 ; 4763784.8724789675 ; 6426.000000000001
28 ; 75570.4432152816 ; 180920.6123517964 ; 1671537.4937727156 ; 4944100.787334993 ; 6664.000000000001
29 ; 76585.11811037484 ; 181556.12081981706 ; 1747107.9369879973 ; 5125021.399686789 ; 6902.000000000001
30 ; 77506.76140790246 ; 182221.88504035212 ; 1823693.055098372 ; 5306577.520506606 ; 7140.000000000001
31 ; 78366.68079544547 ; 182917.33606780582 ; 1901199.8165062745 ; 5488799.405546959 ; 7378.000000000001
32 ; 79334.20844947326 ; 183641.89307855826 ; 1979566.49730172 ; 5671716.741614765 ; 7616.000000000001
33 ; 79843.93619219007 ; 184394.9651719171 ; 2058900.7057511932 ; 5855358.634693323 ; 7854.000000000001
34 ; 81649.19585826856 ; 185175.9531148678 ; 2138744.6419433835 ; 6039753.59986524 ; 8092.000000000001
35 ; 81501.15860826764 ; 185984.25102258538 ; 2220393.837801652 ; 6224929.552980108 ; 8330.000000000002
36 ; 82304.54474473868 ; 186819.24796794326 ; 2301894.9964099196 ; 6410913.804002694 ; 8568.000000000002
37 ; 83868.07421813594 ; 187680.3295144975 ; 2384199.5411546584 ; 6597733.051970637 ; 8806.000000000002
38 ; 84248.31042330162 ; 188566.87916862196 ; 2468067.615372794 ; 6785413.381485135 ; 9044.000000000002
39 ; 85325.13884442329 ; 189478.2797476039 ; 2552315.9257960957 ; 6973980.2606537575 ; 9282.000000000002
40 ; 85697.12575805662 ; 190413.91466156652 ; 2637641.064640519 ; 7163458.540401361 ; 9520.000000000002
41 ; 86712.4011619918 ; 191373.16910806514 ; 2723338.1903985757 ; 7353872.455062928 ; 9758.000000000002
42 ; 87762.87807769042 ; 192355.43117908674 ; 2810050.5915605677 ; 7545245.6241709925 ; 9996.000000000002
43 ; 88656.5184340282 ; 193360.09288098384 ; 2897813.469638258 ; 7737601.055350079 ; 10234.000000000002
44 ; 88351.45488936722 ; 194386.55106856828 ; 2986469.9880722864 ; 7930961.148231063 ; 10472.000000000002
45 ; 89450.83250462335 ; 195434.20829520634 ; 3074821.4429616537 ; 8125347.699299632 ; 10710.000000000002
46 ; 90027.46295803339 ; 196502.47358127031 ; 3164272.2754662773 ; 8320781.907594838 ; 10948.000000000002
47 ; 90778.15406377969 ; 197590.76310373936 ; 3254299.7384243105 ; 8517284.381176108 ; 11186.000000000002
48 ; 91602.97481473324 ; 198698.50081008842 ; 3345077.8924880903 ; 8714875.144279849 ; 11424.000000000002
49 ; 91957.90868096783 ; 199825.1189598851 ; 3436680.8673028233 ; 8913573.645089937 ; 11662.000000000002
50 ; 92434.7835530921 ; 200970.05859771813 ; 3528638.7759837913 ; 9113398.764049822 ; 11900.000000000002
51 ; 92838.45658271524 ; 202132.76996122283 ; 3621073.5595368836 ; 9314368.82264754 ; 12138.000000000002
52 ; 93931.09666029848 ; 203312.71282806038 ; 3713912.016119599 ; 9516501.592608763 ; 12376.000000000002
53 ; 94754.9622017658 ; 204509.35680574022 ; 3807843.112779897 ; 9719814.305436824 ; 12614.000000000002
54 ; 94664.50675676741 ; 205722.18156817142 ; 3902598.074981663 ; 9924323.662242563 ; 12852.000000000002
55 ; 95458.99698890978 ; 206950.67704278423 ; 3997262.5817384305 ; 1.0130045843810735E7 ; 13090.000000000002
56 ; 95841.9232943012 ; 208194.3435519882 ; 4092721.5787273403 ; 1.033699652085352E7 ; 13328.000000000002
57 ; 96464.79209986946 ; 209452.69191263197 ; 4188563.5020216415 ; 1.0545190864405507E7 ; 13566.000000000002
58 ; 96884.85597996159 ; 210725.24349700683 ; 4285028.294121511 ; 1.075464355631814E7 ; 13804.000000000002
59 ; 97375.19310575274 ; 212011.5302587974 ; 4381913.150101473 ; 1.0965368799815146E7 ; 14042.000000000002
60 ; 97915.6066991132 ; 213311.0947272316 ; 4479288.343207225 ; 1.1177380330073943E7 ; 14280.000000000002
61 ; 98347.97074276158 ; 214623.4899725183 ; 4577203.949906338 ; 1.1390691424801175E7 ; 14518.000000000002
62 ; 98690.76394635737 ; 215948.2795454982 ; 4675551.920649099 ; 1.1605314914773693E7 ; 14756.000000000002
63 ; 99162.77296771531 ; 217285.03739425872 ; 4774242.684595456 ; 1.1821263194319192E7 ; 14994.000000000002
64 ; 99342.08713060096 ; 218633.34776029555 ; 4873405.457563172 ; 1.2038548231713451E7 ; 15232.000000000002
65 ; 99677.31310173395 ; 219992.80505663215 ; 4972747.544693773 ; 1.2257181579473747E7 ; 15470.000000000002
66 ; 100182.29072775622 ; 221363.0137301404 ; 5072424.857795507 ; 1.2477174384530379E7 ; 15708.000000000002
67 ; 100363.9046919483 ; 222743.5881101431 ; 5172607.148523263 ; 1.2698537398260519E7 ; 15946.000000000002
68 ; 100475.9153142667 ; 224134.1522452201 ; 5272971.053215211 ; 1.2921280986370662E7 ; 16184.000000000002
69 ; 100877.34937396288 ; 225534.3397299864 ; 5373446.968529478 ; 1.3145415138615882E7 ; 16422.000000000004
70 ; 100829.21865110903 ; 226943.7935234671 ; 5474324.31790344 ; 1.337094947834587E7 ; 16660.000000000004
71 ; 101204.83616466286 ; 228362.1657605514 ; 5575153.53655455 ; 1.3597893271869335E7 ; 16898.000000000004
72 ; 102010.23634737129 ; 229789.11755788006 ; 5676358.372719212 ; 1.3826255437629886E7 ; 17136.000000000004
73 ; 102033.01812173995 ; 231224.31881539355 ; 5778368.609066584 ; 1.4056044555187766E7 ; 17374.000000000004
74 ; 102078.34284249473 ; 232667.44801465323 ; 5880401.627188324 ; 1.4287268874003159E7 ; 17612.000000000004
75 ; 102147.65703408608 ; 234118.19201493764 ; 5982479.970030819 ; 1.4519936322017811E7 ; 17850.000000000004
76 ; 102667.29117677634 ; 235576.24584801454 ; 6084627.627064905 ; 1.475405451403275E7 ; 18088.000000000004
77 ; 102641.15279400053 ; 237041.31251239474 ; 6187294.9182416815 ; 1.4989630759880764E7 ; 18326.000000000004
78 ; 102677.68630308167 ; 238513.102767786 ; 6289936.071035682 ; 1.5226672072393158E7 ; 18564.000000000004
79 ; 102790.17903950132 ; 239991.33493038284 ; 6392613.757338764 ; 1.5465185175160944E7 ; 18802.000000000004
80 ; 102692.59924908848 ; 241475.7346695559 ; 6495403.936378266 ; 1.5705176510091327E7 ; 19040.000000000004
81 ; 103227.51333926078 ; 242966.03480643337 ; 6598096.535627354 ; 1.5946652244760882E7 ; 19278.000000000004
82 ; 103106.19894662725 ; 244461.9751148051 ; 6701324.0489666145 ; 1.6189618279567316E7 ; 19516.000000000004
83 ; 103406.40266768655 ; 245963.3021247231 ; 6804430.247913241 ; 1.6434080254682122E7 ; 19754.000000000004
84 ; 103722.34941521354 ; 247469.768929118 ; 6907836.650580928 ; 1.6680043556806846E7 ; 19992.000000000004
85 ; 103558.42470133498 ; 248981.13499370514 ; 7011558.9999961415 ; 1.6927513325735964E7 ; 20230.000000000004
86 ; 103167.09507214058 ; 250497.16597040923 ; 7115117.424697476 ; 1.717649446072967E7 ; 20468.000000000004
87 ; 103547.4127425221 ; 252017.63351449842 ; 7218284.519769617 ; 1.7426991626700077E7 ; 20706.000000000004
88 ; 103635.18824952976 ; 253542.31510558317 ; 7321831.93251214 ; 1.7679009260214575E7 ; 20944.000000000004
89 ; 103380.43025101488 ; 255070.9938726024 ; 7425467.120761669 ; 1.793255157532016E7 ; 21182.000000000004
90 ; 103302.25096475132 ; 256603.45842289302 ; 7528847.551012684 ; 1.818762256919276E7 ; 21420.000000000004
91 ; 103282.56909591584 ; 258139.50267541123 ; 7632149.801977435 ; 1.844422602761565E7 ; 21658.000000000004
92 ; 103187.43014279818 ; 259678.92569815274 ; 7735432.371073351 ; 1.870236553029106E7 ; 21896.000000000004
93 ; 102913.67377587047 ; 261221.5315497988 ; 7838619.80121615 ; 1.8962044455989216E7 ; 22134.000000000004
94 ; 102793.99116516866 ; 262767.12912559544 ; 7941533.47499202 ; 1.9223265987539016E7 ; 22372.000000000004
95 ; 103184.27850876455 ; 264315.5320074607 ; 8044327.466157189 ; 1.948603311666461E7 ; 22610.000000000004
96 ; 102553.86019405042 ; 265866.5583182969 ; 8147511.744665953 ; 1.975034864867207E7 ; 22848.000000000004
97 ; 102773.35940254433 ; 267420.0305804763 ; 8250065.604860004 ; 2.001621520699037E7 ; 23086.000000000004
98 ; 102589.9011012494 ; 268975.775578456 ; 8352838.964262549 ; 2.0283635237570845E7 ; 23324.000000000004
99 ; 102373.97482140103 ; 270533.6242254703 ; 8455428.865363799 ; 2.05526110131493E7 ; 23562.000000000004
100 ; 102531.67875470559 ; 272093.4114342385 ; 8557802.8401852 ; 2.082314463737477E7 ; 23800.000000000004
101 ; 101937.62668193149 ; 273654.97599162365 ; 8660334.518939907 ; 2.1095238048809007E7 ; 24038.000000000004
102 ; 101439.85206451794 ; 275218.16043716756 ; 8762272.145621838 ; 2.1368893024800632E7 ; 24276.000000000004
103 ; 101752.50130712296 ; 276782.8109454268 ; 8863711.997686356 ; 2.16441111852378E7 ; 24514.000000000004
104 ; 101037.48298192015 ; 278348.7772120276 ; 8965464.498993479 ; 2.1920893996183224E7 ; 24752.000000000004
105 ; 101220.90281258679 ; 279915.9123433568 ; 9066501.981975399 ; 2.219924277339525E7 ; 24990.000000000004
106 ; 100520.39425400407 ; 281484.07274980337 ; 9167722.884787986 ; 2.247915868573861E7 ; 25228.000000000004
107 ; 100196.95570020984 ; 283053.1180424609 ; 9268243.27904199 ; 2.2760642758488413E7 ; 25466.000000000004
108 ; 100006.96846175299 ; 284622.9109332044 ; 9368440.2347422 ; 2.3043695876530875E7 ; 25704.000000000004
109 ; 99553.23804876556 ; 286193.3171380503 ; 9468447.203203954 ; 2.332831878746408E7 ; 25942.000000000004
110 ; 99386.86905016875 ; 287764.2052837108 ; 9568000.44125272 ; 2.361451210460213E7 ; 26180.000000000004
111 ; 98653.40107207015 ; 289335.4468172526 ; 9667387.310302889 ; 2.390227630988584E7 ; 26418.000000000004
112 ; 97961.37818425863 ; 290906.9159187701 ; 9766040.711374959 ; 2.4191611756703094E7 ; 26656.000000000004
113 ; 98155.78837285291 ; 292478.48941698537 ; 9864002.089559218 ; 2.4482518672621865E7 ; 26894.000000000004
114 ; 97530.65084005735 ; 294050.04670768697 ; 9962157.877932072 ; 2.477499716203885E7 ; 27132.000000000004
115 ; 96959.80411432993 ; 295621.4696749201 ; 1.0059688528772129E7 ; 2.5069047208746538E7 ; 27370.000000000004
116 ; 96968.64701166695 ; 297192.6426148443 ; 1.015664833288646E7 ; 2.5364668678421456E7 ; 27608.000000000004
117 ; 96396.48741384187 ; 298763.45216217404 ; 1.0253616979898127E7 ; 2.56618613210363E7 ; 27846.000000000004
118 ; 95448.04163477899 ; 300333.7872191192 ; 1.0350013467311969E7 ; 2.5960624773198474E7 ; 28084.000000000004
119 ; 94979.40840506364 ; 301903.5388867471 ; 1.0445461508946748E7 ; 2.6260958560417593E7 ; 28322.000000000004
120 ; 94522.45766231649 ; 303472.60039868474 ; 1.0540440917351812E7 ; 2.656286209930434E7 ; 28560.000000000004
121 ; 94561.02528125548 ; 305040.8670570856 ; 1.0634963375014128E7 ; 2.6866334699703027E7 ; 28798.000000000004
122 ; 93601.91869271129 ; 306608.2361707866 ; 1.0729524400295384E7 ; 2.717137556676011E7 ; 29036.000000000004
123 ; 93259.59497828042 ; 308174.60699557926 ; 1.0823126318988096E7 ; 2.74779838029309E7 ; 29274.000000000004
124 ; 92669.94654022407 ; 309739.88067652757 ; 1.0916385913966376E7 ; 2.7786158409926478E7 ; 29512.000000000004
125 ; 91510.0875849129 ; 311303.96019225987 ; 1.10090558605066E7 ; 2.8095898290603004E7 ; 29750.000000000004
126 ; 91270.38255483436 ; 312866.7503011694 ; 1.1100565948091513E7 ; 2.8407202250795264E7 ; 29988.000000000004
127 ; 90709.42574382776 ; 314428.1574894573 ; 1.1191836330646347E7 ; 2.8720069001096435E7 ; 30226.000000000004
128 ; 90037.72035522741 ; 315988.0899209545 ; 1.1282545756390175E7 ; 2.903449715858589E7 ; 30464.000000000004
129 ; 89145.595543389 ; 317546.45738866157 ; 1.1372583476745402E7 ; 2.9350485248506844E7 ; 30702.000000000004
130 ; 88784.87811101021 ; 319103.1712679461 ; 1.146172907228879E7 ; 2.9668031705895506E7 ; 30940.000000000004
131 ; 88213.34475090943 ; 320658.14447134006 ; 1.1550513950399801E7 ; 2.998713487716345E7 ; 31178.000000000004
132 ; 87592.57464660713 ; 322211.29140488175 ; 1.163872729515071E7 ; 3.030779302163479E7 ; 31416.000000000004
133 ; 86709.28161161565 ; 323762.52792594733 ; 1.1726319869797317E7 ; 3.063000431303967E7 ; 31654.000000000004
134 ; 86065.51219021059 ; 325311.7713025198 ; 1.1813029151408933E7 ; 3.0953766840965617E7 ; 31892.000000000004
135 ; 84902.13702430845 ; 326858.9401738455 ; 1.1899094663599143E7 ; 3.127907861226814E7 ; 32130.000000000004
136 ; 84360.9743196231 ; 328403.9545124285 ; 1.198399680062345E7 ; 3.1605937552441984E7 ; 32368.000000000004
137 ; 83042.83263588551 ; 329946.7355873151 ; 1.2068357774943074E7 ; 3.1934341506954413E7 ; 32606.000000000004
138 ; 82374.22897913649 ; 331487.20592862455 ; 1.215140060757896E7 ; 3.2264288242541727E7 ; 32844.00000000001
139 ; 81988.073701777 ; 333025.2892932801 ; 1.2233774836558096E7 ; 3.259577544847035E7 ; 33082.00000000001
140 ; 80800.9237692844 ; 334560.9106318988 ; 1.2315762910259873E7 ; 3.2928800737763632E7 ; 33320.00000000001
141 ; 79693.34119362889 ; 336093.9960567986 ; 1.2396563834029157E7 ; 3.326336164839553E7 ; 33558.00000000001
142 ; 79587.90528133194 ; 337624.4728110835 ; 1.2476257175222786E7 ; 3.3599455644452326E7 ; 33796.00000000001
143 ; 78183.5996139056 ; 339152.26923876797 ; 1.2555845080504118E7 ; 3.393708011726341E7 ; 34034.00000000001
144 ; 77058.24408643934 ; 340677.31475590466 ; 1.2634028680118022E7 ; 3.427623238650218E7 ; 34272.00000000001
145 ; 76737.1271454766 ; 342199.5398226788 ; 1.2711086924204461E7 ; 3.461690970125808E7 ; 34510.00000000001
146 ; 76526.04489701916 ; 343718.8759164354 ; 1.2787824051349938E7 ; 3.495910924108075E7 ; 34748.00000000001
147 ; 76511.32220789081 ; 345235.25550560735 ; 1.2864350096246958E7 ; 3.530282811699719E7 ; 34986.00000000001
148 ; 76019.04723826013 ; 346748.61202451034 ; 1.2940861418454848E7 ; 3.56480633725028E7 ; 35224.00000000001
149 ; 76364.00896285719 ; 348258.87984897604 ; 1.3016880465693109E7 ; 3.5994811984527305E7 ; 35462.00000000001
150 ; 76181.59843017766 ; 349765.9942727923 ; 1.3093244474655965E7 ; 3.6343070864376284E7 ; 35700.00000000001
151 ; 76106.71871516308 ; 351269.89148492366 ; 1.3169426073086143E7 ; 3.6692836858649075E7 ; 35938.00000000001
152 ; 75043.01137202047 ; 352770.50854748255 ; 1.3245532791801305E7 ; 3.7044106750134E7 ; 36176.00000000001
153 ; 75244.79772509297 ; 354267.7833744267 ; 1.3320575803173326E7 ; 3.739687725868148E7 ; 36414.00000000001
154 ; 74957.6231836905 ; 355761.65471095586 ; 1.3395820600898419E7 ; 3.775114504205591E7 ; 36652.00000000001
155 ; 74840.04499788804 ; 357252.0621135841 ; 1.3470778224082109E7 ; 3.810690669676687E7 ; 36890.00000000001
156 ; 74473.82300605765 ; 358738.94593086396 ; 1.3545618269079996E7 ; 3.846415875888045E7 ; 37128.00000000001
157 ; 74327.8235111357 ; 360222.24728473864 ; 1.3620092092086054E7 ; 3.882289770481131E7 ; 37366.00000000001
158 ; 74327.69655349276 ; 361701.90805250214 ; 1.369441991559719E7 ; 3.918311995209605E7 ; 37604.00000000001
159 ; 73540.10853344692 ; 363177.8708493442 ; 1.3768747612150682E7 ; 3.954482186014856E7 ; 37842.00000000001
160 ; 73397.65720431734 ; 364650.07901146106 ; 1.384228772068413E7 ; 3.99079997309979E7 ; 38080.00000000001
161 ; 73174.30259844247 ; 366118.476579712 ; 1.3915685377888447E7 ; 4.027264981000936E7 ; 38318.00000000001
162 ; 72959.38507888914 ; 367583.00828380225 ; 1.398885968048689E7 ; 4.063876828658907E7 ; 38556.00000000001
163 ; 72396.26256038966 ; 369043.61952697515 ; 1.4061819065565778E7 ; 4.100635129487287E7 ; 38794.00000000001
164 ; 72245.41670765785 ; 370500.25637119444 ; 1.4134215328126168E7 ; 4.137539491439985E7 ; 39032.00000000001
165 ; 71882.2975401491 ; 371952.8655228014 ; 1.4206460744833825E7 ; 4.174589517077104E7 ; 39270.00000000001
166 ; 71553.92061679838 ; 373401.39431863005 ; 1.4278343042373974E7 ; 4.211784803629384E7 ; 39508.00000000001
167 ; 71018.1349271765 ; 374845.79071256315 ; 1.4349896962990772E7 ; 4.2491249430612475E7 ; 39746.00000000001
168 ; 70942.21550983249 ; 376286.003262517 ; 1.4420915097917948E7 ; 4.286609522132504E7 ; 39984.00000000001
169 ; 70722.86263635039 ; 377721.9811178373 ; 1.449185731342778E7 ; 4.324238122458756E7 ; 40222.00000000001
170 ; 70197.66929244976 ; 379153.67400709394 ; 1.456258017606413E7 ; 4.36201032057054E7 ; 40460.00000000001
171 ; 70013.33265378707 ; 380581.03222626104 ; 1.463277784535658E7 ; 4.399925687971249E7 ; 40698.00000000001
172 ; 69462.59094636723 ; 382004.006627268 ; 1.4702791178010367E7 ; 4.437983791193876E7 ; 40936.00000000001
173 ; 69218.51240737448 ; 383422.5486069106 ; 1.4772253768956734E7 ; 4.4761841918566026E7 ; 41174.00000000001
174 ; 69618.83625924683 ; 384836.6100961091 ; 1.4841472281364108E7 ; 4.5145264467172936E7 ; 41412.00000000001
175 ; 69524.94698411389 ; 386246.1435495013 ; 1.4911091117623355E7 ; 4.553010107726905E7 ; 41650.00000000001
176 ; 69420.21290039539 ; 387651.10193536064 ; 1.498061606460747E7 ; 4.591634722081855E7 ; 41888.00000000001
177 ; 70245.59621514948 ; 389051.4387258274 ; 1.5050036277507864E7 ; 4.630399832275391E7 ; 42126.00000000001
178 ; 70031.03197303387 ; 390447.10788744234 ; 1.5120281873723013E7 ; 4.669304976147974E7 ; 42364.00000000001
179 ; 70405.66329350276 ; 391838.0638719746 ; 1.5190312905696047E7 ; 4.708349686936718E7 ; 42602.00000000001
180 ; 70635.7890222869 ; 393224.2616075311 ; 1.526071856898955E7 ; 4.7475334933239155E7 ; 42840.00000000001
181 ; 69880.43116175252 ; 394605.65648994106 ; 1.5331354358011838E7 ; 4.786855919484668E7 ; 43078.00000000001
