CSV File for the Network on Day 153
1 - Minute m 
2 - Power Consumed at minute m 
3 - Power Produced at minute m 
4 - Energy Consumed since the beginning of the day 
5 - Energy Produced since the beginning of the day 
6 - Energy Lost since the beginning of the day 
 
No Production city : 2, Producer : 1
No Production city : 4, Producer : 1
No Production city : 4, Producer : 1
 
0 ; 45267.420950475964 ; 162590.36350535092 ; 0.0 ; 0.0 ; 0.0
1 ; 46911.245724643624 ; 162248.35554960376 ; 45267.420950475964 ; 162590.36350535092 ; 238.00000000000003
2 ; 47988.5517191559 ; 161941.23989874858 ; 92178.66667511959 ; 324838.7190549547 ; 476.00000000000006
3 ; 49196.43887630908 ; 161669.3776459382 ; 140167.2183942755 ; 486779.9589537033 ; 714.0000000000001
4 ; 50637.15240077428 ; 161433.0922672868 ; 189363.65727058458 ; 648449.3365996415 ; 952.0000000000001
5 ; 51932.26469858682 ; 161232.66787289578 ; 240000.80967135885 ; 809882.4288669282 ; 1190.0000000000002
6 ; 53175.389243509075 ; 161068.34764209355 ; 291933.0743699457 ; 971115.0967398239 ; 1428.0000000000002
7 ; 54609.3076208155 ; 160940.33246273734 ; 345108.4636134548 ; 1132183.4443819174 ; 1666.0000000000002
8 ; 56146.90139201157 ; 160848.7797922279 ; 399717.7712342703 ; 1293123.7768446547 ; 1904.0000000000002
9 ; 56616.61486252913 ; 160793.80275529018 ; 455864.67262628186 ; 1453972.5566368825 ; 2142.0000000000005
10 ; 57958.706810642005 ; 160775.46949062456 ; 512481.287488811 ; 1614766.3593921727 ; 2380.0000000000005
11 ; 59232.937865433356 ; 160793.80275529018 ; 570439.994299453 ; 1775541.8288827972 ; 2618.0000000000005
12 ; 60512.5130871211 ; 160848.7797922279 ; 629672.9321648864 ; 1936335.6316380873 ; 2856.0000000000005
13 ; 61165.36343614518 ; 160940.33246273734 ; 690185.4452520075 ; 2097184.411430315 ; 3094.0000000000005
14 ; 62167.84008665795 ; 161068.34764209343 ; 751350.8086881526 ; 2258124.7438930525 ; 3332.0000000000005
15 ; 63594.082841436306 ; 161232.66787289578 ; 813518.6487748105 ; 2419193.091535146 ; 3570.0000000000005
16 ; 64715.3944471044 ; 161433.0922672868 ; 877112.7316162467 ; 2580425.759408042 ; 3808.0000000000005
17 ; 65834.95033005986 ; 161669.37764593808 ; 941828.1260633512 ; 2741858.851675329 ; 4046.0000000000005
18 ; 66736.13181989185 ; 161941.23989874867 ; 1007663.076393411 ; 2903528.229321267 ; 4284.000000000001
19 ; 68174.38471956088 ; 162248.35554960376 ; 1074399.2082133028 ; 3065469.4692200157 ; 4522.000000000001
20 ; 68986.7855216243 ; 162590.363505351 ; 1142573.5929328636 ; 3227717.8247696194 ; 4760.000000000001
21 ; 70232.10817836509 ; 162966.8669673989 ; 1211560.378454488 ; 3390308.1882749703 ; 4998.000000000001
22 ; 70538.22470443396 ; 163377.4354830537 ; 1281792.486632853 ; 3553275.055242369 ; 5236.000000000001
23 ; 71803.14591652526 ; 163821.60711289436 ; 1352330.711337287 ; 3716652.4907254227 ; 5474.000000000001
24 ; 73263.5862063687 ; 164298.89069012774 ; 1424133.8572538123 ; 3880474.097838317 ; 5712.000000000001
25 ; 73949.33680011652 ; 164808.7681479518 ; 1497397.443460181 ; 4044772.988528445 ; 5950.000000000001
26 ; 75308.27745132882 ; 165350.69689145172 ; 1571346.7802602975 ; 4209581.756676396 ; 6188.000000000001
27 ; 75759.19143186373 ; 165924.11219141557 ; 1646655.0577116264 ; 4374932.453567848 ; 6426.000000000001
28 ; 76312.44554525748 ; 166528.42957864318 ; 1722414.24914349 ; 4540856.565759263 ; 6664.000000000001
29 ; 77219.3977521539 ; 167163.04721877695 ; 1798726.6946887476 ; 4707384.995337906 ; 6902.000000000001
30 ; 78365.2244791747 ; 167827.34824934404 ; 1875946.0924409016 ; 4874548.0425566835 ; 7140.000000000001
31 ; 79280.55775060676 ; 168520.70306253113 ; 1954311.3169200763 ; 5042375.390806028 ; 7378.000000000001
32 ; 80456.09695735964 ; 169242.47151913674 ; 2033591.874670683 ; 5210896.093868559 ; 7616.000000000001
33 ; 80980.66513162435 ; 169992.00508112856 ; 2114047.9716280424 ; 5380138.565387696 ; 7854.000000000001
34 ; 82029.46101058522 ; 170768.64885222405 ; 2195028.6367596667 ; 5550130.570468824 ; 8092.000000000001
35 ; 82659.52225429792 ; 171571.7435178677 ; 2277058.097770252 ; 5720899.219321049 ; 8330.000000000002
36 ; 83840.00411664473 ; 172400.62717786408 ; 2359717.62002455 ; 5892470.962838916 ; 8568.000000000002
37 ; 84261.93359130195 ; 173254.6370667176 ; 2443557.6241411944 ; 6064871.59001678 ; 8806.000000000002
38 ; 84578.78326689135 ; 174133.1111583971 ; 2527819.5577324964 ; 6238126.227083498 ; 9044.000000000002
39 ; 85494.30965794652 ; 175035.389653777 ; 2612398.3409993877 ; 6412259.338241895 ; 9282.000000000002
40 ; 86523.39236670505 ; 175960.81635038956 ; 2697892.6506573344 ; 6587294.7278956715 ; 9520.000000000002
41 ; 86908.29078515532 ; 176908.7398953532 ; 2784416.0430240394 ; 6763255.544246061 ; 9758.000000000002
42 ; 88015.26777821992 ; 177878.51492341462 ; 2871324.3338091946 ; 6940164.284141414 ; 9996.000000000002
43 ; 88338.97224561423 ; 178869.50308295892 ; 2959339.6015874147 ; 7118042.799064828 ; 10234.000000000002
44 ; 88461.13983057496 ; 179881.0739536147 ; 3047678.573833029 ; 7296912.302147787 ; 10472.000000000002
45 ; 89782.78026474202 ; 180912.60585970455 ; 3136139.7136636036 ; 7476793.376101402 ; 10710.000000000002
46 ; 90188.73898349158 ; 181963.48658428888 ; 3225922.493928346 ; 7657705.981961106 ; 10948.000000000002
47 ; 90840.93167259725 ; 183033.1139889218 ; 3316111.2329118373 ; 7839669.468545395 ; 11186.000000000002
48 ; 91447.1586900287 ; 184120.89654450107 ; 3406952.1645844346 ; 8022702.582534317 ; 11424.000000000002
49 ; 91669.55120836993 ; 185226.25377875753 ; 3498399.3232744634 ; 8206823.479078818 ; 11662.000000000002
50 ; 92506.98577272815 ; 186348.61664600676 ; 3590068.8744828333 ; 8392049.732857576 ; 11900.000000000002
51 ; 93313.95051615092 ; 187487.42782478716 ; 3682575.8602555613 ; 8578398.349503582 ; 12138.000000000002
52 ; 93204.84138166923 ; 188642.1419489474 ; 3775889.810771712 ; 8765885.77732837 ; 12376.000000000002
53 ; 94438.47396768714 ; 189812.2257776297 ; 3869094.652153381 ; 8954527.919277318 ; 12614.000000000002
54 ; 94768.16596031468 ; 190997.15830943687 ; 3963533.1261210684 ; 9144340.145054948 ; 12852.000000000002
55 ; 94799.69776674431 ; 192196.43084587634 ; 4058301.292081383 ; 9335337.303364385 ; 13090.000000000002
56 ; 95571.06068856434 ; 193409.54700895504 ; 4153100.9898481276 ; 9527533.734210262 ; 13328.000000000002
57 ; 95443.07381174831 ; 194636.02271755377 ; 4248672.050536692 ; 9720943.281219218 ; 13566.000000000002
58 ; 96620.55353563634 ; 195875.38612696133 ; 4344115.12434844 ; 9915579.303936772 ; 13804.000000000002
59 ; 97362.38340152144 ; 197127.1775356803 ; 4440735.677884077 ; 1.0111454690063734E7 ; 14042.000000000002
60 ; 97588.37752530765 ; 198390.94926335313 ; 4538098.061285598 ; 1.0308581867599415E7 ; 14280.000000000002
61 ; 97925.68355317184 ; 199666.2655033908 ; 4635686.438810905 ; 1.0506972816862768E7 ; 14518.000000000002
62 ; 98392.23637008865 ; 200952.70215362264 ; 4733612.122364078 ; 1.070663908236616E7 ; 14756.000000000002
63 ; 98287.96535295738 ; 202249.84662803053 ; 4832004.358734166 ; 1.0907591784519782E7 ; 14994.000000000002
64 ; 98670.72714037659 ; 203557.29765238054 ; 4930292.324087123 ; 1.1109841631147813E7 ; 15232.000000000002
65 ; 99398.73809307031 ; 204874.6650463306 ; 5028963.0512275 ; 1.1313398928800194E7 ; 15470.000000000002
66 ; 99546.60714670001 ; 206201.56949435832 ; 5128361.78932057 ; 1.1518273593846524E7 ; 15708.000000000002
67 ; 99576.8930076386 ; 207537.6423076446 ; 5227908.39646727 ; 1.1724475163340883E7 ; 15946.000000000002
68 ; 100032.68858835415 ; 208882.52517883835 ; 5327485.289474909 ; 1.1932012805648528E7 ; 16184.000000000002
69 ; 100305.80569124095 ; 210235.86993144162 ; 5427517.978063263 ; 1.2140895330827367E7 ; 16422.000000000004
70 ; 100390.37964514259 ; 211597.33826537215 ; 5527823.783754504 ; 1.2351131200758807E7 ; 16660.000000000004
71 ; 100624.43008709395 ; 212966.60150009667 ; 5628214.163399647 ; 1.256272853902418E7 ; 16898.000000000004
72 ; 100922.30022479035 ; 214343.340316572 ; 5728838.593486741 ; 1.2775695140524276E7 ; 17136.000000000004
73 ; 101728.76281882472 ; 215727.2444990913 ; 5829760.893711532 ; 1.2990038480840847E7 ; 17374.000000000004
74 ; 101744.62628691 ; 217118.01267800067 ; 5931489.656530356 ; 1.3205765725339938E7 ; 17612.000000000004
75 ; 101840.49697013572 ; 218515.3520741312 ; 6033234.282817266 ; 1.3422883738017939E7 ; 17850.000000000004
76 ; 102088.19241343002 ; 219918.97824568267 ; 6135074.779787402 ; 1.364139909009207E7 ; 18088.000000000004
77 ; 102222.35079408539 ; 221328.6148381955 ; 6237162.972200831 ; 1.3861318068337753E7 ; 18326.000000000004
78 ; 102032.59639012624 ; 222743.99333815684 ; 6339385.322994917 ; 1.408264668317595E7 ; 18564.000000000004
79 ; 102265.46657753101 ; 224164.85283070296 ; 6441417.919385043 ; 1.4305390676514106E7 ; 18802.000000000004
80 ; 102109.54505108243 ; 225590.93976180954 ; 6543683.385962574 ; 1.4529555529344808E7 ; 19040.000000000004
81 ; 102966.2056295269 ; 227022.0077052908 ; 6645792.931013656 ; 1.4755146469106618E7 ; 19278.000000000004
82 ; 102246.50512138693 ; 228457.81713487196 ; 6748759.1366431825 ; 1.4982168476811908E7 ; 19516.000000000004
83 ; 102288.75097912297 ; 229898.13520154363 ; 6851005.641764569 ; 1.521062629394678E7 ; 19754.000000000004
84 ; 102869.22500966456 ; 231342.73551636032 ; 6953294.392743692 ; 1.5440524429148324E7 ; 19992.000000000004
85 ; 102055.24580805954 ; 232791.39793880272 ; 7056163.617753357 ; 1.5671867164664684E7 ; 20230.000000000004
86 ; 102247.6970347891 ; 234243.90837078512 ; 7158218.863561416 ; 1.5904658562603487E7 ; 20468.000000000004
87 ; 102605.88058151839 ; 235700.0585563571 ; 7260466.560596205 ; 1.6138902470974272E7 ; 20706.000000000004
88 ; 102714.89123973243 ; 237159.645887119 ; 7363072.441177724 ; 1.637460252953063E7 ; 20944.000000000004
89 ; 102279.36683266875 ; 238622.47321334644 ; 7465787.332417456 ; 1.661176217541775E7 ; 21182.000000000004
90 ; 102249.62649759861 ; 240088.3486607938 ; 7568066.699250125 ; 1.6850384648631096E7 ; 21420.000000000004
91 ; 102238.40436055632 ; 241557.0854531324 ; 7670316.325747724 ; 1.709047299729189E7 ; 21658.000000000004
92 ; 102430.19619153194 ; 243028.50173995795 ; 7772554.73010828 ; 1.7332030082745023E7 ; 21896.000000000004
93 ; 102536.91161048955 ; 244502.42043029086 ; 7874984.926299811 ; 1.757505858448498E7 ; 22134.000000000004
94 ; 102609.79893633004 ; 245978.66903147945 ; 7977521.837910301 ; 1.781956100491527E7 ; 22372.000000000004
95 ; 101813.2706813506 ; 247457.07949340745 ; 8080131.636846631 ; 1.806553967394675E7 ; 22610.000000000004
96 ; 102427.55760096126 ; 248937.48805789783 ; 8181944.907527981 ; 1.8312996753440157E7 ; 22848.000000000004
97 ; 101373.28686037018 ; 250419.7351131991 ; 8284372.465128942 ; 1.8561934241498053E7 ; 23086.000000000004
98 ; 101519.74281187376 ; 251903.66505343403 ; 8385745.7519893125 ; 1.8812353976611253E7 ; 23324.000000000004
99 ; 101072.25453670596 ; 253389.1261428888 ; 8487265.494801186 ; 1.9064257641664688E7 ; 23562.000000000004
100 ; 101249.03195427067 ; 254875.9703850143 ; 8588337.749337891 ; 1.9317646767807577E7 ; 23800.000000000004
101 ; 101285.19526337316 ; 256364.05339601182 ; 8689586.781292161 ; 1.957252273819259E7 ; 24038.000000000004
102 ; 101137.87263232116 ; 257853.2342828735 ; 8790871.976555534 ; 1.9828886791588604E7 ; 24276.000000000004
103 ; 100781.33394881824 ; 259343.3755257466 ; 8892009.849187855 ; 2.0086740025871478E7 ; 24514.000000000004
104 ; 100282.75290863129 ; 260834.34286449134 ; 8992791.183136674 ; 2.0346083401397225E7 ; 24752.000000000004
105 ; 99843.24135347732 ; 262326.0051893027 ; 9093073.936045306 ; 2.0606917744261716E7 ; 24990.000000000004
106 ; 99578.57993139137 ; 263818.23443526804 ; 9192917.177398782 ; 2.086924374945102E7 ; 25228.000000000004
107 ; 99544.15132477642 ; 265310.9054807322 ; 9292495.757330174 ; 2.1133061983886287E7 ; 25466.000000000004
108 ; 99087.41274273912 ; 266803.896049346 ; 9392039.90865495 ; 2.1398372889367018E7 ; 25704.000000000004
109 ; 98871.0810488454 ; 268297.0866156741 ; 9491127.32139769 ; 2.1665176785416365E7 ; 25942.000000000004
110 ; 98740.07765959747 ; 269790.3603142415 ; 9589998.402446536 ; 2.193347387203204E7 ; 26180.000000000004
111 ; 98130.9116915736 ; 271283.60285190115 ; 9688738.480106134 ; 2.220326423234628E7 ; 26418.000000000004
112 ; 97626.75352727284 ; 272776.7024234055 ; 9786869.391797708 ; 2.2474547835198183E7 ; 26656.000000000004
113 ; 97127.35871409945 ; 274269.5496300703 ; 9884496.14532498 ; 2.2747324537621588E7 ; 26894.000000000004
114 ; 96847.25344993835 ; 275762.0374014201 ; 9981623.50403908 ; 2.302159408725166E7 ; 27132.000000000004
115 ; 96427.46044627788 ; 277254.06091970945 ; 1.007847075748902E7 ; 2.329735612465308E7 ; 27370.000000000004
116 ; 95983.49803368366 ; 278745.5175472137 ; 1.0174898217935298E7 ; 2.3574610185572788E7 ; 27608.000000000004
117 ; 95104.29746251421 ; 280236.3067561916 ; 1.0270881715968981E7 ; 2.385335570312E7 ; 27846.000000000004
118 ; 94711.53929859065 ; 281726.33006141835 ; 1.0365986013431495E7 ; 2.413359200987619E7 ; 28084.000000000004
119 ; 94307.32085141882 ; 283215.49095519766 ; 1.0460697552730085E7 ; 2.441531833993761E7 ; 28322.000000000004
120 ; 93808.72332334142 ; 284703.69484475773 ; 1.0555004873581504E7 ; 2.4698533830892805E7 ; 28560.000000000004
121 ; 93448.54968374173 ; 286190.84899194574 ; 1.0648813596904846E7 ; 2.498323752573756E7 ; 28798.000000000004
122 ; 92593.88881946949 ; 287676.8624551316 ; 1.0742262146588588E7 ; 2.5269428374729507E7 ; 29036.000000000004
123 ; 92046.25519657321 ; 289161.64603324124 ; 1.0834856035408057E7 ; 2.555710523718464E7 ; 29274.000000000004
124 ; 91940.89226917634 ; 290645.1122118367 ; 1.092690229060463E7 ; 2.5846266883217882E7 ; 29512.000000000004
125 ; 91205.4190922693 ; 292127.17511116737 ; 1.1018843182873806E7 ; 2.613691199542972E7 ; 29750.000000000004
126 ; 90215.0707179334 ; 293607.75043611776 ; 1.1110048601966076E7 ; 2.6429039170540888E7 ; 29988.000000000004
127 ; 89819.75117848434 ; 295086.755427979 ; 1.1200263672684008E7 ; 2.6722646920977004E7 ; 30226.000000000004
128 ; 88893.3459347062 ; 296564.10881797574 ; 1.1290083423862493E7 ; 2.7017733676404983E7 ; 30464.000000000004
129 ; 88573.5445837219 ; 298039.7307824819 ; 1.1378976769797198E7 ; 2.731429778522296E7 ; 30702.000000000004
130 ; 87863.77815007255 ; 299513.54289986 ; 1.146755031438092E7 ; 2.761233751600544E7 ; 30940.000000000004
131 ; 86646.11057584392 ; 300985.4681088634 ; 1.1555414092530992E7 ; 2.79118510589053E7 ; 31178.000000000004
132 ; 86630.77098060223 ; 302455.430668541 ; 1.1642060203106835E7 ; 2.8212836527014162E7 ; 31416.000000000004
133 ; 85345.4026351537 ; 303923.35611958837 ; 1.1728690974087438E7 ; 2.8515291957682703E7 ; 31654.000000000004
134 ; 85100.32959045387 ; 305389.17124708864 ; 1.1814036376722591E7 ; 2.881921531380229E7 ; 31892.000000000004
135 ; 83997.73183824615 ; 306852.8040445917 ; 1.1899136706313046E7 ; 2.9124604485049378E7 ; 32130.000000000004
136 ; 83306.26334370895 ; 308314.1836794797 ; 1.1983134438151293E7 ; 2.943145728909397E7 ; 32368.000000000004
137 ; 82863.58917077127 ; 309773.24045957054 ; 1.2066440701495001E7 ; 2.973977147277345E7 ; 32606.000000000004
138 ; 81777.40060601087 ; 311229.90580091195 ; 1.2149304290665772E7 ; 3.004954471323302E7 ; 32844.00000000001
139 ; 80868.32888088973 ; 312684.11219672125 ; 1.2231081691271782E7 ; 3.0360774619033933E7 ; 33082.00000000001
140 ; 80237.96735066824 ; 314135.79318742687 ; 1.2311950020152671E7 ; 3.0673458731230654E7 ; 33320.00000000001
141 ; 79707.52999484983 ; 315584.8833317701 ; 1.2392187987503339E7 ; 3.0987594524418082E7 ; 33558.00000000001
142 ; 78820.2613265321 ; 317031.3181789268 ; 1.2471895517498188E7 ; 3.1303179407749854E7 ; 33796.00000000001
143 ; 77816.60933506038 ; 318475.0342416114 ; 1.255071577882472E7 ; 3.162021072592878E7 ; 34034.00000000001
144 ; 76464.37734975752 ; 319915.96897012426 ; 1.2628532388159782E7 ; 3.1938685760170393E7 ; 34272.00000000001
145 ; 76441.9342625078 ; 321354.0607273084 ; 1.2704996765509538E7 ; 3.2258601729140516E7 ; 34510.00000000001
146 ; 76275.82619234451 ; 322789.2487643812 ; 1.2781438699772047E7 ; 3.2579955789867826E7 ; 34748.00000000001
147 ; 75858.18521542217 ; 324221.47319760744 ; 1.285771452596439E7 ; 3.2902745038632207E7 ; 34986.00000000001
148 ; 75948.2632134083 ; 325650.6749857829 ; 1.2933572711179813E7 ; 3.3226966511829816E7 ; 35224.00000000001
149 ; 76073.44525932625 ; 327076.7959084979 ; 1.3009520974393222E7 ; 3.3552617186815597E7 ; 35462.00000000001
150 ; 75063.54826461017 ; 328499.77854515146 ; 1.308559441965255E7 ; 3.387969398272409E7 ; 35700.00000000001
151 ; 75105.65017539404 ; 329919.5662546891 ; 1.316065796791716E7 ; 3.420819376126924E7 ; 35938.00000000001
152 ; 74772.881054072 ; 331336.10315603553 ; 1.3235763618092554E7 ; 3.453811332752393E7 ; 36176.00000000001
153 ; 74483.76057519081 ; 332749.33410919853 ; 1.3310536499146625E7 ; 3.486944943067997E7 ; 36414.00000000001
154 ; 74431.27290717718 ; 334159.2046970179 ; 1.3385020259721816E7 ; 3.520219876478917E7 ; 36652.00000000001
155 ; 74279.37440905377 ; 335565.661207536 ; 1.3459451532628993E7 ; 3.553635796948619E7 ; 36890.00000000001
156 ; 73565.68915064877 ; 336968.65061696724 ; 1.3533730907038046E7 ; 3.5871923630693726E7 ; 37128.00000000001
157 ; 73726.08440322272 ; 338368.1205732444 ; 1.3607296596188694E7 ; 3.620889228131069E7 ; 37366.00000000001
158 ; 73362.22503052623 ; 339764.0193801201 ; 1.3681022680591917E7 ; 3.654726040188394E7 ; 37604.00000000001
159 ; 73131.59403734119 ; 341156.29598180414 ; 1.3754384905622443E7 ; 3.688702442126406E7 ; 37842.00000000001
160 ; 72472.78490338637 ; 342544.899948117 ; 1.3827516499659784E7 ; 3.722818071724586E7 ; 38080.00000000001
161 ; 72879.98759928893 ; 343929.7814601393 ; 1.389998928456317E7 ; 3.757072561719398E7 ; 38318.00000000001
162 ; 72163.40079124413 ; 345310.8912963419 ; 1.397286927216246E7 ; 3.791465539865412E7 ; 38556.00000000001
163 ; 71692.31698412445 ; 346688.18081917695 ; 1.4045032672953704E7 ; 3.825996628995046E7 ; 38794.00000000001
164 ; 71354.27336716796 ; 348061.60196211387 ; 1.4116724989937829E7 ; 3.860665447076964E7 ; 39032.00000000001
165 ; 71180.71917129261 ; 349431.1072171056 ; 1.4188079263304997E7 ; 3.895471607273175E7 ; 39270.00000000001
166 ; 71407.69500270425 ; 350796.6496224676 ; 1.425925998247629E7 ; 3.930414717994885E7 ; 39508.00000000001
167 ; 70223.9213226107 ; 352158.1827511571 ; 1.4330667677478995E7 ; 3.965494382957132E7 ; 39746.00000000001
168 ; 70396.86837252826 ; 353515.66069943586 ; 1.4400891598801605E7 ; 4.000710201232248E7 ; 39984.00000000001
169 ; 69688.40701625223 ; 354869.0380759054 ; 1.4471288467174133E7 ; 4.036061767302191E7 ; 40222.00000000001
170 ; 69482.563767059 ; 356218.26999089925 ; 1.4540976874190386E7 ; 4.071548671109782E7 ; 40460.00000000001
171 ; 69250.7267103857 ; 357563.3120462219 ; 1.4610459437957445E7 ; 4.107170498108872E7 ; 40698.00000000001
172 ; 68929.12049752874 ; 358904.1203252198 ; 1.4679710164667832E7 ; 4.142926829313494E7 ; 40936.00000000001
173 ; 68990.13653625234 ; 360240.6513831748 ; 1.474863928516536E7 ; 4.1788172413460165E7 ; 41174.00000000001
174 ; 68690.84835717051 ; 361572.8622380077 ; 1.4817629421701612E7 ; 4.214841306484334E7 ; 41412.00000000001
175 ; 68743.39716251183 ; 362900.7103612815 ; 1.4886320270058783E7 ; 4.250998592708135E7 ; 41650.00000000001
176 ; 68952.57344822005 ; 364224.1536694933 ; 1.4955063667221295E7 ; 4.2872886637442626E7 ; 41888.00000000001
177 ; 69101.0440644731 ; 365543.1505156462 ; 1.5024016240669515E7 ; 4.323711079111212E7 ; 42126.00000000001
178 ; 69153.79033043816 ; 366857.65968109027 ; 1.5093117284733988E7 ; 4.360265394162776E7 ; 42364.00000000001
179 ; 69262.47435702705 ; 368167.6403676239 ; 1.5162271075064426E7 ; 4.396951160130885E7 ; 42602.00000000001
180 ; 69601.20635314549 ; 369473.0521898457 ; 1.5231533549421454E7 ; 4.433767924167648E7 ; 42840.00000000001
181 ; 69705.73994652668 ; 370773.85516775073 ; 1.5301134755774599E7 ; 4.470715229386633E7 ; 43078.00000000001
182 ; 69845.80747727363 ; 372070.0097195596 ; 1.5370840495721126E7 ; 4.507792614903408E7 ; 43316.00000000001
