CSV File for the Network on Day 279
1 - Minute m 
2 - Power Consumed at minute m 
3 - Power Produced at minute m 
4 - Energy Consumed since the beginning of the day 
5 - Energy Produced since the beginning of the day 
6 - Energy Lost since the beginning of the day 
 
No Production city : 2, Producer : 1
No Production city : 4, Producer : 1
No Production city : 4, Producer : 1
 
0 ; 46345.48906568708 ; 192486.54443375816 ; 0.0 ; 0.0 ; 0.0
1 ; 47514.13480935714 ; 192141.29610279464 ; 46345.48906568708 ; 192486.54443375816 ; 238.00000000000003
2 ; 49148.85460350745 ; 191831.51451931067 ; 93859.62387504423 ; 384627.84053655283 ; 476.00000000000006
3 ; 50229.52145567177 ; 191557.48631498206 ; 143008.47847855167 ; 576459.3550558635 ; 714.0000000000001
4 ; 51494.71264647357 ; 191319.46735707193 ; 193237.99993422342 ; 768016.8413708456 ; 952.0000000000001
5 ; 52677.100224161746 ; 191117.68167466225 ; 244732.712580697 ; 959336.3087279175 ; 1190.0000000000002
6 ; 53580.28031783993 ; 190952.32050507475 ; 297409.8128048587 ; 1150453.9904025798 ; 1428.0000000000002
7 ; 54984.27192192665 ; 190823.5414699203 ; 350990.09312269866 ; 1341406.3109076545 ; 1666.0000000000002
8 ; 56445.55117811402 ; 190731.46788907138 ; 405974.3650446253 ; 1532229.852377575 ; 1904.0000000000002
9 ; 57457.63627575912 ; 190676.18823956046 ; 462419.9162227393 ; 1722961.3202666463 ; 2142.0000000000005
10 ; 58779.29310724633 ; 190657.75576499564 ; 519877.55249849847 ; 1913637.5085062068 ; 2380.0000000000005
11 ; 59884.93979568743 ; 190676.18823956046 ; 578656.8456057447 ; 2104295.2642712025 ; 2618.0000000000005
12 ; 61250.60577446109 ; 190731.46788907138 ; 638541.7854014322 ; 2294971.452510763 ; 2856.0000000000005
13 ; 62758.56706336985 ; 190823.5414699203 ; 699792.3911758933 ; 2485702.9203998344 ; 3094.0000000000005
14 ; 63253.842027548504 ; 190952.3205050747 ; 762550.9582392632 ; 2676526.461869755 ; 3332.0000000000005
15 ; 64640.73198317309 ; 191117.68167466225 ; 825804.8002668116 ; 2867478.7823748295 ; 3570.0000000000005
16 ; 65544.90771434562 ; 191319.46735707193 ; 890445.5322499847 ; 3058596.4640494916 ; 3808.0000000000005
17 ; 66337.9456530316 ; 191557.48631498197 ; 955990.4399643303 ; 3249915.9314065636 ; 4046.0000000000005
18 ; 67465.66290123436 ; 191831.51451931073 ; 1022328.3856173619 ; 3441473.417721546 ; 4284.000000000001
19 ; 68620.73953935225 ; 192141.2961027946 ; 1089794.0485185962 ; 3633304.9322408563 ; 4522.000000000001
20 ; 69624.43306848074 ; 192486.54443375824 ; 1158414.7880579485 ; 3825446.2283436507 ; 4760.000000000001
21 ; 70608.69622014507 ; 192866.94329966593 ; 1228039.2211264293 ; 4017932.772777409 ; 4998.000000000001
22 ; 71439.67796373197 ; 193282.14818924485 ; 1298647.9173465744 ; 4210799.716077074 ; 5236.000000000001
23 ; 72651.54660471765 ; 193731.7876613562 ; 1370087.5953103064 ; 4404081.864266319 ; 5474.000000000001
24 ; 73696.37456864915 ; 194215.46478836535 ; 1442739.141915024 ; 4597813.651927675 ; 5712.000000000001
25 ; 74790.3329096442 ; 194732.75866152 ; 1516435.5164836731 ; 4792029.11671604 ; 5950.000000000001
26 ; 75875.13455614774 ; 195283.22594578908 ; 1591225.8493933172 ; 4986761.87537756 ; 6188.000000000001
27 ; 76489.19966075874 ; 195866.40247172368 ; 1667100.983949465 ; 5182045.101323349 ; 6426.000000000001
28 ; 77315.41199824704 ; 196481.80485217395 ; 1743590.1836102237 ; 5377911.503795073 ; 6664.000000000001
29 ; 78398.89890651287 ; 197128.93211211183 ; 1820905.5956084707 ; 5574393.308647247 ; 6902.000000000001
30 ; 78933.82538072605 ; 197807.2673203476 ; 1899304.4945149836 ; 5771522.240759359 ; 7140.000000000001
31 ; 80277.5818994647 ; 198516.27921258175 ; 1978238.3198957096 ; 5969329.508079707 ; 7378.000000000001
32 ; 80591.13607157525 ; 199255.42379596917 ; 2058515.9017951742 ; 6167845.787292289 ; 7616.000000000001
33 ; 81234.72279013266 ; 200024.14592618478 ; 2139107.0378667493 ; 6367101.211088258 ; 7854.000000000001
34 ; 82500.89556886739 ; 200821.88084883476 ; 2220341.760656882 ; 6567125.357014443 ; 8092.000000000001
35 ; 83290.49505478305 ; 201648.0556979549 ; 2302842.6562257493 ; 6767947.237863278 ; 8330.000000000002
36 ; 83921.47324379107 ; 202502.09094523801 ; 2386133.151280532 ; 6969595.293561233 ; 8568.000000000002
37 ; 85060.07620819853 ; 203383.40179454378 ; 2470054.6245243233 ; 7172097.384506471 ; 8806.000000000002
38 ; 85552.69613577187 ; 204291.399517134 ; 2555114.7007325217 ; 7375480.786301015 ; 9044.000000000002
39 ; 86693.10492885803 ; 205225.49272394186 ; 2640667.3968682936 ; 7579772.185818149 ; 9282.000000000002
40 ; 86974.43837225619 ; 206185.08857201127 ; 2727360.5017971518 ; 7784997.678542091 ; 9520.000000000002
41 ; 87738.68974679935 ; 207169.5939030259 ; 2814334.940169408 ; 7991182.767114102 ; 9758.000000000002
42 ; 88538.17351051744 ; 208178.41631257685 ; 2902073.6299162074 ; 8198352.3610171275 ; 9996.000000000002
43 ; 88894.58055939301 ; 209210.96514949278 ; 2990611.803426725 ; 8406530.777329704 ; 10234.000000000002
44 ; 89911.76632214426 ; 210266.65244516672 ; 3079506.383986118 ; 8615741.742479196 ; 10472.000000000002
45 ; 90645.73720566886 ; 211344.89377336763 ; 3169418.150308262 ; 8826008.394924363 ; 10710.000000000002
46 ; 90774.31695742256 ; 212445.10904151318 ; 3260063.887513931 ; 9037353.28869773 ; 10948.000000000002
47 ; 91285.74831287378 ; 213566.72321480484 ; 3350838.2044713534 ; 9249798.397739245 ; 11186.000000000002
48 ; 92484.4583098663 ; 214709.16697499593 ; 3442123.952784227 ; 9463365.12095405 ; 11424.000000000002
49 ; 92876.00299302241 ; 215871.87731587142 ; 3534608.4110940937 ; 9678074.287929045 ; 11662.000000000002
50 ; 93266.77558882003 ; 217054.298077774 ; 3627484.4140871163 ; 9893946.165244916 ; 11900.000000000002
51 ; 93588.67001082783 ; 218255.88042371167 ; 3720751.1896759365 ; 1.011100046332269E7 ; 12138.000000000002
52 ; 94178.76945034113 ; 219476.08325974375 ; 3814339.8596867644 ; 1.0329256343746401E7 ; 12376.000000000002
53 ; 94731.58059076808 ; 220714.3736024499 ; 3908518.629137106 ; 1.0548732427006146E7 ; 12614.000000000002
54 ; 95083.45787629228 ; 221970.22689636576 ; 4003250.209727874 ; 1.0769446800608596E7 ; 12852.000000000002
55 ; 95656.07561057512 ; 223243.12728430546 ; 4098333.667604166 ; 1.0991417027504962E7 ; 13090.000000000002
56 ; 96500.79711789597 ; 224532.56783350202 ; 4193989.7432147413 ; 1.1214660154789267E7 ; 13328.000000000002
57 ; 96627.18704998276 ; 225838.05072047736 ; 4290490.540332638 ; 1.1439192722622769E7 ; 13566.000000000002
58 ; 97513.32594822711 ; 227159.08737751178 ; 4387117.727382621 ; 1.1665030773343246E7 ; 13804.000000000002
59 ; 97192.09858313309 ; 228495.19860352663 ; 4484631.053330848 ; 1.1892189860720757E7 ; 14042.000000000002
60 ; 98068.51591509515 ; 229845.91464210948 ; 4581823.151913981 ; 1.2120685059324283E7 ; 14280.000000000002
61 ; 98368.66722134309 ; 231210.77522932843 ; 4679891.667829076 ; 1.2350530973966392E7 ; 14518.000000000002
62 ; 99042.15363532022 ; 232589.329613877 ; 4778260.335050419 ; 1.2581741749195721E7 ; 14756.000000000002
63 ; 98941.3009262625 ; 233981.1365519826 ; 4877302.488685739 ; 1.2814331078809598E7 ; 14994.000000000002
64 ; 99722.14736529751 ; 235385.7642793996 ; 4976243.789612002 ; 1.304831221536158E7 ; 15232.000000000002
65 ; 99701.38778629244 ; 236802.7904626864 ; 5075965.936977299 ; 1.328369797964098E7 ; 15470.000000000002
66 ; 100233.92797114374 ; 238231.8021318479 ; 5175667.324763591 ; 1.3520500770103665E7 ; 15708.000000000002
67 ; 100674.75514752333 ; 239672.3955963009 ; 5275901.252734736 ; 1.3758732572235513E7 ; 15946.000000000002
68 ; 100698.95585927427 ; 241124.17634600116 ; 5376576.007882259 ; 1.3998404967831815E7 ; 16184.000000000002
69 ; 101023.32672350669 ; 242586.75893945107 ; 5477274.963741533 ; 1.4239529144177815E7 ; 16422.000000000004
70 ; 101682.80735804752 ; 244059.76688018919 ; 5578298.29046504 ; 1.4482115903117266E7 ; 16660.000000000004
71 ; 101619.01946321492 ; 245542.83248325053 ; 5679981.097823088 ; 1.4726175669997456E7 ; 16898.000000000004
72 ; 101787.77225854337 ; 247035.59673297656 ; 5781600.117286303 ; 1.4971718502480706E7 ; 17136.000000000004
73 ; 101700.91385865392 ; 248537.7091334476 ; 5883387.8895448465 ; 1.5218754099213682E7 ; 17374.000000000004
74 ; 102012.88037630348 ; 250048.8275527099 ; 5985088.8034035005 ; 1.546729180834713E7 ; 17612.000000000004
75 ; 102354.64334696328 ; 251568.61806187395 ; 6087101.683779804 ; 1.571734063589984E7 ; 17850.000000000004
76 ; 102272.74665471617 ; 253096.75477006787 ; 6189456.3271267675 ; 1.5968909253961714E7 ; 18088.000000000004
77 ; 102019.92776534645 ; 254632.9196561445 ; 6291729.073781484 ; 1.6222006008731782E7 ; 18326.000000000004
78 ; 102554.02717173738 ; 256176.8023979604 ; 6393749.00154683 ; 1.6476638928387927E7 ; 18564.000000000004
79 ; 103007.48405361352 ; 257728.10019996553 ; 6496303.028718567 ; 1.6732815730785888E7 ; 18802.000000000004
80 ; 102649.3595187772 ; 259286.51761977532 ; 6599310.512772181 ; 1.699054383098585E7 ; 19040.000000000004
81 ; 102633.70982433639 ; 260851.76639432623 ; 6701959.872290959 ; 1.7249830348605625E7 ; 19278.000000000004
82 ; 103261.25292204873 ; 262423.56526615564 ; 6804593.582115295 ; 1.751068211499995E7 ; 19516.000000000004
83 ; 103056.5832386902 ; 264001.63981029013 ; 6907854.835037344 ; 1.7773105680266105E7 ; 19754.000000000004
84 ; 103248.15062342094 ; 265585.72226217116 ; 7010911.418276034 ; 1.8037107320076395E7 ; 19992.000000000004
85 ; 103306.40111327491 ; 267175.55134699825 ; 7114159.5688994555 ; 1.8302693042338565E7 ; 20230.000000000004
86 ; 103326.75072110255 ; 268770.8721108256 ; 7217465.97001273 ; 1.8569868593685564E7 ; 20468.000000000004
87 ; 103469.2894992184 ; 270371.435753705 ; 7320792.720733833 ; 1.883863946579639E7 ; 20706.000000000004
88 ; 103042.55231944306 ; 271976.9994651295 ; 7424262.010233051 ; 1.910901090155009E7 ; 20944.000000000004
89 ; 103380.12878856724 ; 273587.3262619993 ; 7527304.562552494 ; 1.9380987901015222E7 ; 21182.000000000004
90 ; 103004.76650813452 ; 275202.1848292959 ; 7630684.691341061 ; 1.9654575227277223E7 ; 21420.000000000004
91 ; 102932.8746077836 ; 276821.34936362476 ; 7733689.457849195 ; 1.9929777412106518E7 ; 21658.000000000004
92 ; 102980.47508489303 ; 278444.59941975854 ; 7836622.332456979 ; 2.0206598761470143E7 ; 21896.000000000004
93 ; 102823.82254146601 ; 280071.71976028854 ; 7939602.807541872 ; 2.04850433608899E7 ; 22134.000000000004
94 ; 102956.09173944675 ; 281702.50020847155 ; 8042426.630083338 ; 2.0765115080650188E7 ; 22372.000000000004
95 ; 103016.73504372044 ; 283336.735504339 ; 8145382.721822785 ; 2.104681758085866E7 ; 22610.000000000004
96 ; 102586.33767983856 ; 284974.2251641177 ; 8248399.456866506 ; 2.1330154316363E7 ; 22848.000000000004
97 ; 102621.81762376789 ; 286614.7733429955 ; 8350985.794546344 ; 2.161512854152712E7 ; 23086.000000000004
98 ; 101944.85546920681 ; 288258.18870125175 ; 8453607.612170111 ; 2.1901743314870115E7 ; 23324.000000000004
99 ; 102048.59096853198 ; 289904.2842737585 ; 8555552.467639318 ; 2.219000150357137E7 ; 23562.000000000004
100 ; 102010.43678650245 ; 291552.877342849 ; 8657601.05860785 ; 2.2479905787845127E7 ; 23800.000000000004
101 ; 101661.00095733932 ; 293203.7893145388 ; 8759611.495394353 ; 2.2771458665187977E7 ; 24038.000000000004
102 ; 101362.1823203043 ; 294856.8455980759 ; 8861272.496351693 ; 2.3064662454502515E7 ; 24276.000000000004
103 ; 100778.03868250431 ; 296511.8754887898 ; 8962634.678671997 ; 2.335951930010059E7 ; 24514.000000000004
104 ; 101156.13344263771 ; 298168.71205420204 ; 9063412.7173545 ; 2.3656031175589383E7 ; 24752.000000000004
105 ; 100712.7868982342 ; 299827.192023355 ; 9164568.85079714 ; 2.3954199887643583E7 ; 24990.000000000004
106 ; 100318.45343305593 ; 301487.1556793103 ; 9265281.637695374 ; 2.425402707966694E7 ; 25228.000000000004
107 ; 100248.78484228865 ; 303148.44675476576 ; 9365600.09112843 ; 2.455551423534625E7 ; 25466.000000000004
108 ; 99993.96198277103 ; 304810.91233073315 ; 9465848.875970718 ; 2.4858662682101015E7 ; 25704.000000000004
109 ; 99422.95392810977 ; 306474.4027382197 ; 9565842.83795349 ; 2.5163473594431747E7 ; 25942.000000000004
110 ; 98663.71435745219 ; 308138.7714628505 ; 9665265.791881599 ; 2.5469947997169968E7 ; 26180.000000000004
111 ; 98466.90405863988 ; 309803.8750523698 ; 9763929.506239051 ; 2.5778086768632818E7 ; 26418.000000000004
112 ; 98042.55531419953 ; 311469.5730269552 ; 9862396.41029769 ; 2.608789064368519E7 ; 26656.000000000004
113 ; 97733.38432127958 ; 313135.7277922798 ; 9960438.96561189 ; 2.6399360216712143E7 ; 26894.000000000004
114 ; 97446.52832937699 ; 314802.2045552551 ; 1.005817234993317E7 ; 2.6712495944504425E7 ; 27132.000000000004
115 ; 96874.85571575834 ; 316468.87124238786 ; 1.0155618878262546E7 ; 2.702729814905968E7 ; 27370.000000000004
116 ; 96643.27248431857 ; 318135.5984206827 ; 1.0252493733978305E7 ; 2.734376702030207E7 ; 27608.000000000004
117 ; 96122.75876881543 ; 319802.25922102504 ; 1.0349137006462624E7 ; 2.766190261872275E7 ; 27846.000000000004
118 ; 95394.76427978708 ; 321468.72926397494 ; 1.044525976523144E7 ; 2.7981704877943777E7 ; 28084.000000000004
119 ; 95256.09148735274 ; 323134.8865879071 ; 1.0540654529511226E7 ; 2.8303173607207753E7 ; 28322.000000000004
120 ; 94488.94074185634 ; 324800.6115794305 ; 1.063591062099858E7 ; 2.862630849379566E7 ; 28560.000000000004
121 ; 94269.56624623289 ; 326465.786906022 ; 1.0730399561740436E7 ; 2.895110910537509E7 ; 28798.000000000004
122 ; 93524.86952443536 ; 328130.2974508107 ; 1.0824669127986668E7 ; 2.927757489228111E7 ; 29036.000000000004
123 ; 92928.99842446907 ; 329794.03024944843 ; 1.0918193997511104E7 ; 2.9605705189731922E7 ; 29274.000000000004
124 ; 92359.1516889216 ; 331456.8744290051 ; 1.1011122995935572E7 ; 2.993549921998137E7 ; 29512.000000000004
125 ; 91785.49473380487 ; 333118.7211488272 ; 1.1103482147624495E7 ; 3.0266956094410375E7 ; 29750.000000000004
126 ; 91308.72653643048 ; 334779.4635433005 ; 1.11952676423583E7 ; 3.06000748155592E7 ; 29988.000000000004
127 ; 90433.56127992584 ; 336438.99666645646 ; 1.128657636889473E7 ; 3.09348542791025E7 ; 30226.000000000004
128 ; 89898.45776230984 ; 338097.21743836714 ; 1.1377009930174656E7 ; 3.1271293275768958E7 ; 30464.000000000004
129 ; 89359.04729538635 ; 339754.0245932715 ; 1.1466908387936966E7 ; 3.1609390493207324E7 ; 30702.000000000004
130 ; 88332.44105842093 ; 341409.31862937787 ; 1.1556267435232352E7 ; 3.1949144517800596E7 ; 30940.000000000004
131 ; 87965.63249605385 ; 343063.001760291 ; 1.1644599876290774E7 ; 3.2290553836429972E7 ; 31178.000000000004
132 ; 87165.73998383916 ; 344714.97786801 ; 1.1732565508786827E7 ; 3.2633616838190265E7 ; 31416.000000000004
133 ; 87106.47678596989 ; 346365.1524574477 ; 1.1819731248770667E7 ; 3.2978331816058274E7 ; 31654.000000000004
134 ; 85574.60149370012 ; 348013.43261242216 ; 1.1906837725556636E7 ; 3.3324696968515724E7 ; 31892.000000000004
135 ; 84801.15734082673 ; 349659.7269530718 ; 1.1992412327050336E7 ; 3.367271040112814E7 ; 32130.000000000004
136 ; 84273.47115149742 ; 351303.9455946488 ; 1.2077213484391162E7 ; 3.402237012808122E7 ; 32368.000000000004
137 ; 83420.0879068904 ; 352946.00010764477 ; 1.216148695554266E7 ; 3.437367407367586E7 ; 32606.000000000004
138 ; 82516.8902699505 ; 354585.8034792059 ; 1.2244907043449549E7 ; 3.472662007378351E7 ; 32844.00000000001
139 ; 81854.22549440069 ; 356223.2700757935 ; 1.2327423933719499E7 ; 3.508120587726272E7 ; 33082.00000000001
140 ; 81149.76608014111 ; 357858.315607051 ; 1.24092781592139E7 ; 3.543742914733851E7 ; 33320.00000000001
141 ; 80131.39598214212 ; 359490.85709083534 ; 1.2490427925294042E7 ; 3.579528746294556E7 ; 33558.00000000001
142 ; 79256.96654910983 ; 361120.81281937566 ; 1.2570559321276184E7 ; 3.61547783200364E7 ; 33796.00000000001
143 ; 78334.86411356881 ; 362748.1023265211 ; 1.2649816287825294E7 ; 3.651589913285577E7 ; 34034.00000000001
144 ; 77360.29620978917 ; 364372.6463560418 ; 1.2728151151938863E7 ; 3.687864723518229E7 ; 34272.00000000001
145 ; 77395.83462308174 ; 365994.36683094717 ; 1.2805511448148653E7 ; 3.724301988153833E7 ; 34510.00000000001
146 ; 77117.59711703056 ; 367613.1868237891 ; 1.2882907282771735E7 ; 3.760901424836928E7 ; 34748.00000000001
147 ; 76747.92565216181 ; 369229.03052791546 ; 1.2960024879888766E7 ; 3.797662743519307E7 ; 34986.00000000001
148 ; 76741.71092395496 ; 370841.8232296435 ; 1.3036772805540927E7 ; 3.834585646572098E7 ; 35224.00000000001
149 ; 76807.52235696814 ; 372451.4912813218 ; 1.3113514516464882E7 ; 3.871669828895062E7 ; 35462.00000000001
150 ; 76277.65054651554 ; 374057.96207525017 ; 1.319032203882185E7 ; 3.9089149780231945E7 ; 35700.00000000001
151 ; 76000.67011941958 ; 375661.16401843156 ; 1.3266599689368365E7 ; 3.946320774230719E7 ; 35938.00000000001
152 ; 75794.22927127802 ; 377261.02650812455 ; 1.3342600359487785E7 ; 3.983886890632562E7 ; 36176.00000000001
153 ; 75341.51165780373 ; 378857.4799081725 ; 1.3418394588759063E7 ; 4.0216129932833746E7 ; 36414.00000000001
154 ; 75566.24169808422 ; 380450.45552608214 ; 1.3493736100416867E7 ; 4.059498741274192E7 ; 36652.00000000001
155 ; 74887.62285261974 ; 382039.8855908264 ; 1.3569302342114951E7 ; 4.0975437868268006E7 ; 36890.00000000001
156 ; 74527.42570511132 ; 383625.7032313484 ; 1.3644189964967571E7 ; 4.1357477753858835E7 ; 37128.00000000001
157 ; 75130.91262053783 ; 385207.84245574166 ; 1.3718717390672682E7 ; 4.1741103457090184E7 ; 37366.00000000001
158 ; 73706.18156644053 ; 386786.23813108535 ; 1.3793848303293219E7 ; 4.212631129954593E7 ; 37604.00000000001
159 ; 73981.10153180287 ; 388360.8259639121 ; 1.386755448485966E7 ; 4.251309753767701E7 ; 37842.00000000001
160 ; 73313.7397721494 ; 389931.5424812876 ; 1.3941535586391464E7 ; 4.290145836364093E7 ; 38080.00000000001
161 ; 73412.00022887553 ; 391498.32501248084 ; 1.4014849326163614E7 ; 4.3291389906122215E7 ; 38318.00000000001
162 ; 73347.65713220986 ; 393061.11167120683 ; 1.408826132639249E7 ; 4.36828882311347E7 ; 38556.00000000001
163 ; 72831.65279857889 ; 394619.841338422 ; 1.41616089835247E7 ; 4.407594934280591E7 ; 38794.00000000001
164 ; 72707.77737430469 ; 396174.45364565315 ; 1.4234440636323279E7 ; 4.4470569184144326E7 ; 39032.00000000001
165 ; 72035.14406387914 ; 397724.8889588442 ; 1.4307148413697584E7 ; 4.486674363778998E7 ; 39270.00000000001
166 ; 71899.5270979008 ; 399271.08836270217 ; 1.4379183557761462E7 ; 4.526446852674882E7 ; 39508.00000000001
167 ; 71727.83167361197 ; 400812.9936455264 ; 1.4451083084859364E7 ; 4.566373961511152E7 ; 39746.00000000001
168 ; 71194.1996820126 ; 402350.54728450516 ; 1.4522810916532977E7 ; 4.606455260875705E7 ; 39984.00000000001
169 ; 71118.43375315203 ; 403883.69243146427 ; 1.4594005116214989E7 ; 4.6466903156041555E7 ; 40222.00000000001
170 ; 70828.43310331981 ; 405412.3728990528 ; 1.466512354996814E7 ; 4.687078684847302E7 ; 40460.00000000001
171 ; 69948.06193265486 ; 406936.5331473519 ; 1.473595198307146E7 ; 4.7276199221372075E7 ; 40698.00000000001
172 ; 69740.67260575494 ; 408456.11827089224 ; 1.4805900045004115E7 ; 4.7683135754519425E7 ; 40936.00000000001
173 ; 69882.22578854265 ; 409971.0739860677 ; 1.487564071760987E7 ; 4.8091591872790314E7 ; 41174.00000000001
174 ; 69771.63552376215 ; 411481.3466189316 ; 1.4945522943398412E7 ; 4.850156294677638E7 ; 41412.00000000001
175 ; 70243.33141841125 ; 412986.88309336314 ; 1.5015294578922175E7 ; 4.891304429339531E7 ; 41650.00000000001
176 ; 70164.74482814189 ; 414487.63091959275 ; 1.5085537910340587E7 ; 4.9326031176488675E7 ; 41888.00000000001
177 ; 69604.12707516717 ; 415983.53818307375 ; 1.5155702655168729E7 ; 4.9740518807408266E7 ; 42126.00000000001
178 ; 70539.46083617337 ; 417474.55353369034 ; 1.5225306782243896E7 ; 5.015650234559134E7 ; 42364.00000000001
179 ; 70679.8454004373 ; 418960.6261752895 ; 1.529584624308007E7 ; 5.0573976899125025E7 ; 42602.00000000001
180 ; 70442.11597724952 ; 420441.70585552824 ; 1.5366526088480508E7 ; 5.099293752530032E7 ; 42840.00000000001
181 ; 70676.49627377935 ; 421917.7428560242 ; 1.5436968204457758E7 ; 5.141337923115584E7 ; 43078.00000000001
