CSV File for the Network on Day 248
1 - Minute m 
2 - Power Consumed at minute m 
3 - Power Produced at minute m 
4 - Energy Consumed since the beginning of the day 
5 - Energy Produced since the beginning of the day 
6 - Energy Lost since the beginning of the day 
 
No Production city : 2, Producer : 1
No Production city : 4, Producer : 1
No Production city : 4, Producer : 1
 
0 ; 32849.92830995758 ; 116519.3037163784 ; 0.0 ; 0.0 ; 0.0
1 ; 34351.956583747 ; 116068.31709150237 ; 32849.92830995758 ; 116519.3037163784 ; 238.00000000000003
2 ; 36270.46738080194 ; 115661.09997248393 ; 67201.88489370458 ; 232587.62080788077 ; 476.00000000000006
3 ; 37510.62274162694 ; 115298.81179808173 ; 103472.35227450653 ; 348248.7207803647 ; 714.0000000000001
4 ; 38840.56481507733 ; 114982.51755048917 ; 140982.97501613345 ; 463547.53257844644 ; 952.0000000000001
5 ; 40368.00721830983 ; 114713.17376747317 ; 179823.53983121077 ; 578530.0501289356 ; 1190.0000000000002
6 ; 42364.072270953744 ; 114491.61533062631 ; 220191.5470495206 ; 693243.2238964088 ; 1428.0000000000002
7 ; 43472.72308679587 ; 114318.54342633681 ; 262555.61932047433 ; 807734.8392270352 ; 1666.0000000000002
8 ; 45445.5480915824 ; 114194.51506526215 ; 306028.3424072702 ; 922053.382653372 ; 1904.0000000000002
9 ; 46252.38097602373 ; 114119.93451435154 ; 351473.8904988526 ; 1036247.8977186342 ; 2142.0000000000005
10 ; 47893.50924859273 ; 114095.04694305907 ; 397726.2714748763 ; 1150367.8322329856 ; 2380.0000000000005
11 ; 49547.658066449614 ; 114119.93451435154 ; 445619.78072346904 ; 1264462.8791760448 ; 2618.0000000000005
12 ; 51017.2193002493 ; 114194.51506526215 ; 495167.43878991867 ; 1378582.8136903965 ; 2856.0000000000005
13 ; 52601.718115197844 ; 114318.54342633681 ; 546184.6580901679 ; 1492777.3287556586 ; 3094.0000000000005
14 ; 52996.34227281598 ; 114491.61533062623 ; 598786.3762053658 ; 1607095.8721819953 ; 3332.0000000000005
15 ; 54342.133317997046 ; 114713.17376747317 ; 651782.7184781817 ; 1721587.4875126216 ; 3570.0000000000005
16 ; 56201.52047996181 ; 114982.51755048917 ; 706124.8517961788 ; 1836300.6612800946 ; 3808.0000000000005
17 ; 57692.98821442671 ; 115298.81179808162 ; 762326.3722761406 ; 1951283.1788305838 ; 4046.0000000000005
18 ; 58850.81342173828 ; 115661.09997248402 ; 820019.3604905673 ; 2066581.9906286653 ; 4284.000000000001
19 ; 60063.741569898644 ; 116068.31709150228 ; 878870.1739123056 ; 2182243.0906011495 ; 4522.000000000001
20 ; 61495.00398944144 ; 116519.30371637849 ; 938933.9154822043 ; 2298311.4076926517 ; 4760.000000000001
21 ; 62940.06198058219 ; 117012.82032785757 ; 1000428.9194716457 ; 2414830.71140903 ; 4998.000000000001
22 ; 63805.400491839566 ; 117547.56172801179 ; 1063368.981452228 ; 2531843.5317368875 ; 5236.000000000001
23 ; 65341.18039337531 ; 118122.17114401434 ; 1127174.3819440675 ; 2649391.0934648993 ; 5474.000000000001
24 ; 66240.71801064581 ; 118735.25375780647 ; 1192515.5623374428 ; 2767513.2646089136 ; 5712.000000000001
25 ; 67545.21016439934 ; 119385.38943844454 ; 1258756.2803480886 ; 2886248.51836672 ; 5950.000000000001
26 ; 68446.68156595815 ; 120071.1445081314 ; 1326301.490512488 ; 3005633.907805165 ; 6188.000000000001
27 ; 69843.1918827088 ; 120791.08242542969 ; 1394748.172078446 ; 3125705.052313296 ; 6426.000000000001
28 ; 70759.22871608626 ; 121543.77331752673 ; 1464591.3639611548 ; 3246496.1347387256 ; 6664.000000000001
29 ; 72434.00868753332 ; 122327.80233602194 ; 1535350.5926772412 ; 3368039.908056252 ; 6902.000000000001
30 ; 73112.56875382256 ; 123141.776846611 ; 1607784.6013647746 ; 3490367.710392274 ; 7140.000000000001
31 ; 74025.01634222761 ; 123984.33249190604 ; 1680897.170118597 ; 3613509.487238885 ; 7378.000000000001
32 ; 75413.6180767611 ; 124854.13818862304 ; 1754922.1864608247 ; 3737493.819730791 ; 7616.000000000001
33 ; 75979.48952145285 ; 125749.90013598182 ; 1830335.8045375857 ; 3862347.9579194137 ; 7854.000000000001
34 ; 76875.59412859454 ; 126670.3649221476 ; 1906315.2940590386 ; 3988097.8580553955 ; 8092.000000000001
35 ; 78204.0837728725 ; 127614.32182073157 ; 1983190.8881876331 ; 4114768.2229775432 ; 8330.000000000002
36 ; 78932.11190581837 ; 128580.60437066178 ; 2061394.9719605057 ; 4242382.5447982745 ; 8568.000000000002
37 ; 80030.26067715065 ; 129568.09133097561 ; 2140327.0838663243 ; 4370963.149168937 ; 8806.000000000002
38 ; 81051.75942486108 ; 130575.70709806465 ; 2220357.3445434747 ; 4500531.240499912 ; 9044.000000000002
39 ; 82005.80024832196 ; 131602.42166729728 ; 2301409.103968336 ; 4631106.947597977 ; 9282.000000000002
40 ; 82918.27797249879 ; 132647.25021433126 ; 2383414.904216658 ; 4762709.369265274 ; 9520.000000000002
41 ; 83968.14252877049 ; 133709.25236428602 ; 2466333.1821891568 ; 4895356.619479605 ; 9758.000000000002
42 ; 84741.18378587811 ; 134787.53120962167 ; 2550301.3247179273 ; 5029065.871843891 ; 9996.000000000002
43 ; 85476.2980555664 ; 135881.2321303638 ; 2635042.5085038054 ; 5163853.403053513 ; 10234.000000000002
44 ; 86331.466822527 ; 136989.54146340108 ; 2720518.8065593718 ; 5299734.635183876 ; 10472.000000000002
45 ; 87224.49296682002 ; 138111.68506111804 ; 2806850.2733818986 ; 5436724.176647278 ; 10710.000000000002
46 ; 87995.67132448961 ; 139246.9267736687 ; 2894074.7663487187 ; 5574835.861708395 ; 10948.000000000002
47 ; 88822.75266590557 ; 140394.56688381318 ; 2982070.4376732083 ; 5714082.788482063 ; 11186.000000000002
48 ; 89667.5745615678 ; 141553.94051841603 ; 3070893.190339114 ; 5854477.355365877 ; 11424.000000000002
49 ; 90110.56553291708 ; 142724.41605645075 ; 3160560.764900682 ; 5996031.2958842935 ; 11662.000000000002
50 ; 90860.82636173065 ; 143905.39354963062 ; 3250671.330433599 ; 6138755.711940744 ; 11900.000000000002
51 ; 91419.05729820217 ; 145096.30316855764 ; 3341532.15679533 ; 6282661.105490374 ; 12138.000000000002
52 ; 92468.98812978175 ; 146296.60368451528 ; 3432951.214093532 ; 6427757.408658932 ; 12376.000000000002
53 ; 93014.64482330254 ; 147505.7809946677 ; 3525420.2022233135 ; 6574054.012343448 ; 12614.000000000002
54 ; 93672.74147928129 ; 148723.34669643972 ; 3618434.847046616 ; 6721559.793338115 ; 12852.000000000002
55 ; 94228.24289952597 ; 149948.83671518255 ; 3712107.5885258974 ; 6870283.140034555 ; 13090.000000000002
56 ; 94792.28449284892 ; 151181.80998784688 ; 3806335.8314254233 ; 7020231.976749738 ; 13328.000000000002
57 ; 95082.29279969083 ; 152421.84720424586 ; 3901128.115918272 ; 7171413.7867375845 ; 13566.000000000002
58 ; 95866.30643145382 ; 153668.54960656282 ; 3996210.408717963 ; 7323835.63394183 ; 13804.000000000002
59 ; 95886.36750064488 ; 154921.53784701426 ; 4092076.7151494166 ; 7477504.183548393 ; 14042.000000000002
60 ; 97156.84466995453 ; 156180.45090298375 ; 4187963.0826500617 ; 7632425.721395407 ; 14280.000000000002
61 ; 97281.81244667353 ; 157444.94504848018 ; 4285119.927320017 ; 7788606.17229839 ; 14518.000000000002
62 ; 98000.87904815236 ; 158714.69288041984 ; 4382401.73976669 ; 7946051.117346871 ; 14756.000000000002
63 ; 98862.53765271192 ; 159989.38239796567 ; 4480402.618814843 ; 8104765.810227291 ; 14994.000000000002
64 ; 98826.69976949214 ; 161268.71613296974 ; 4579265.156467555 ; 8264755.192625256 ; 15232.000000000002
65 ; 99272.82586484439 ; 162552.41032943618 ; 4678091.856237047 ; 8426023.908758227 ; 15470.000000000002
66 ; 100005.34515561044 ; 163840.19416984348 ; 4777364.682101891 ; 8588576.319087664 ; 15708.000000000002
67 ; 99873.5457953017 ; 165131.80904612766 ; 4877370.027257502 ; 8752416.513257507 ; 15946.000000000002
68 ; 100498.24027703011 ; 166427.00787312494 ; 4977243.573052804 ; 8917548.322303634 ; 16184.000000000002
69 ; 100712.35287152167 ; 167725.55444228873 ; 5077741.8133298345 ; 9083975.33017676 ; 16422.000000000004
70 ; 100917.89485993022 ; 169027.22281354 ; 5178454.166201356 ; 9251700.884619048 ; 16660.000000000004
71 ; 102034.9334552396 ; 170331.79674316308 ; 5279372.061061286 ; 9420728.107432587 ; 16898.000000000004
72 ; 102027.6383528138 ; 171639.0691457262 ; 5381406.994516526 ; 9591059.90417575 ; 17136.000000000004
73 ; 101818.87314296166 ; 172948.84158808104 ; 5483434.6328693405 ; 9762698.973321477 ; 17374.000000000004
74 ; 102600.48978214726 ; 174260.92381357544 ; 5585253.506012302 ; 9935647.814909559 ; 17612.000000000004
75 ; 102563.46966811626 ; 175575.1332946964 ; 5687853.995794449 ; 1.0109908738723135E7 ; 17850.000000000004
76 ; 103284.39142225364 ; 176891.29481244614 ; 5790417.465462565 ; 1.028548387201783E7 ; 18088.000000000004
77 ; 103355.39298282257 ; 178209.24006084003 ; 5893701.856884819 ; 1.0462375166830277E7 ; 18326.000000000004
78 ; 103843.89976978867 ; 179528.8072749983 ; 5997057.249867642 ; 1.0640584406891117E7 ; 18564.000000000004
79 ; 103462.46964634588 ; 180849.8408813881 ; 6100901.149637431 ; 1.0820113214166116E7 ; 18802.000000000004
80 ; 104145.45689291797 ; 182172.19116885331 ; 6204363.619283777 ; 1.1000963055047505E7 ; 19040.000000000004
81 ; 103837.7623435393 ; 183495.71397914633 ; 6308509.076176695 ; 1.1183135246216359E7 ; 19278.000000000004
82 ; 103968.87135527893 ; 184820.27041575444 ; 6412346.8385202335 ; 1.1366630960195504E7 ; 19516.000000000004
83 ; 104134.06691191622 ; 186145.72656988248 ; 6516315.709875513 ; 1.155145123061126E7 ; 19754.000000000004
84 ; 104233.13175722772 ; 187471.95326252456 ; 6620449.776787429 ; 1.173759695718114E7 ; 19992.000000000004
85 ; 104276.32333471764 ; 188798.82580162314 ; 6724682.908544657 ; 1.1925068910443665E7 ; 20230.000000000004
86 ; 104065.1098432165 ; 190126.2237533742 ; 6828959.231879374 ; 1.211386773624529E7 ; 20468.000000000004
87 ; 103984.12165037548 ; 191454.0307267987 ; 6933024.341722591 ; 1.2303993959998664E7 ; 20706.000000000004
88 ; 104197.17813856501 ; 192782.13417075374 ; 7037008.463372966 ; 1.2495447990725461E7 ; 20944.000000000004
89 ; 104455.09792941643 ; 194110.42518261174 ; 7141205.641511532 ; 1.2688230124896215E7 ; 21182.000000000004
90 ; 104244.89454440575 ; 195438.79832788193 ; 7245660.739440948 ; 1.2882340550078828E7 ; 21420.000000000004
91 ; 104199.30417423493 ; 196767.15147009853 ; 7349905.633985354 ; 1.307777934840671E7 ; 21658.000000000004
92 ; 104086.75798910361 ; 198095.385610341 ; 7454104.938159589 ; 1.3274546499876808E7 ; 21896.000000000004
93 ; 104501.76323185331 ; 199423.40473579313 ; 7558191.696148693 ; 1.3472641885487149E7 ; 22134.000000000004
94 ; 103692.88428541642 ; 200751.11567678628 ; 7662693.459380546 ; 1.3672065290222941E7 ; 22372.000000000004
95 ; 103870.58680979245 ; 202078.4279718082 ; 7766386.343665962 ; 1.3872816405899728E7 ; 22610.000000000004
96 ; 103428.76141550805 ; 203405.25373999125 ; 7870256.930475755 ; 1.4074894833871536E7 ; 22848.000000000004
97 ; 103799.64533800974 ; 204731.50756062602 ; 7973685.691891262 ; 1.4278300087611528E7 ; 23086.000000000004
98 ; 103271.87715105634 ; 206057.1063592759 ; 8077485.337229272 ; 1.4483031595172154E7 ; 23324.000000000004
99 ; 103648.51684024182 ; 207381.9693000943 ; 8180757.214380329 ; 1.4689088701531429E7 ; 23562.000000000004
100 ; 102965.00068524446 ; 208706.01768397322 ; 8284405.73122057 ; 1.4896470670831524E7 ; 23800.000000000004
101 ; 102724.67557081018 ; 210029.17485217503 ; 8387370.731905815 ; 1.5105176688515497E7 ; 24038.000000000004
102 ; 102383.65224772537 ; 211351.36609512096 ; 8490095.407476624 ; 1.5315205863367673E7 ; 24276.000000000004
103 ; 101741.9061091804 ; 212672.51856603232 ; 8592479.05972435 ; 1.5526557229462793E7 ; 24514.000000000004
104 ; 101994.69413170684 ; 213992.56119913835 ; 8694220.96583353 ; 1.5739229748028826E7 ; 24752.000000000004
105 ; 101447.67177252391 ; 215311.4246321831 ; 8796215.659965236 ; 1.5953222309227964E7 ; 24990.000000000004
106 ; 100968.74849278093 ; 216629.0411329817 ; 8897663.33173776 ; 1.6168533733860146E7 ; 25228.000000000004
107 ; 100892.64410231724 ; 217945.34452979063 ; 8998632.080230542 ; 1.6385162774993127E7 ; 25466.000000000004
108 ; 100016.74834986479 ; 219260.27014527214 ; 9099524.724332858 ; 1.6603108119522918E7 ; 25704.000000000004
109 ; 99834.13077413029 ; 220573.75473384705 ; 9199541.472682722 ; 1.682236838966819E7 ; 25942.000000000004
110 ; 99538.15215449422 ; 221885.73642224265 ; 9299375.603456853 ; 1.7042942144402035E7 ; 26180.000000000004
111 ; 99046.34924003214 ; 223196.15465305405 ; 9398913.755611347 ; 1.726482788082428E7 ; 26418.000000000004
112 ; 98929.05206245859 ; 224504.95013114958 ; 9497960.10485138 ; 1.7488024035477333E7 ; 26656.000000000004
113 ; 98892.99596837784 ; 225812.06477275988 ; 9596889.15691384 ; 1.771252898560848E7 ; 26894.000000000004
114 ; 98332.81309620864 ; 227117.44165710176 ; 9695782.152882216 ; 1.793834105038124E7 ; 27132.000000000004
115 ; 97659.68139766617 ; 228421.02498039586 ; 9794114.965978425 ; 1.8165458492038343E7 ; 27370.000000000004
116 ; 97031.6058031014 ; 229722.76001214585 ; 9891774.64737609 ; 1.839387951701874E7 ; 27608.000000000004
117 ; 96666.28689063298 ; 231022.59305355555 ; 9988806.253179193 ; 1.8623602277030885E7 ; 27846.000000000004
118 ; 96126.43702730103 ; 232320.47139796687 ; 1.0085472540069826E7 ; 1.8854624870084442E7 ; 28084.000000000004
119 ; 95432.28392109799 ; 233616.34329320956 ; 1.0181598977097128E7 ; 1.908694534148241E7 ; 28322.000000000004
120 ; 95033.47622598604 ; 234910.1579057593 ; 1.0277031261018226E7 ; 1.9320561684775617E7 ; 28560.000000000004
121 ; 93794.63190224877 ; 236201.865286607 ; 1.0372064737244211E7 ; 1.9555471842681378E7 ; 28798.000000000004
122 ; 93429.78063154247 ; 237491.41633874906 ; 1.046585936914646E7 ; 1.9791673707967985E7 ; 29036.000000000004
123 ; 92850.87546325545 ; 238778.76278621115 ; 1.0559289149778003E7 ; 2.0029165124306735E7 ; 29274.000000000004
124 ; 92352.74242670374 ; 240063.85714452653 ; 1.0652140025241258E7 ; 2.0267943887092944E7 ; 29512.000000000004
125 ; 91684.20028873396 ; 241346.652692591 ; 1.0744492767667962E7 ; 2.050800774423747E7 ; 29750.000000000004
126 ; 91116.10142513392 ; 242627.10344582415 ; 1.0836176967956696E7 ; 2.074935439693006E7 ; 29988.000000000004
127 ; 90131.69522155152 ; 243905.16413056848 ; 1.092729306938183E7 ; 2.0991981500375886E7 ; 30226.000000000004
128 ; 89251.9760835213 ; 245180.7901596629 ; 1.101742476460338E7 ; 2.1235886664506454E7 ; 30464.000000000004
129 ; 88909.198932271 ; 246453.93760913078 ; 1.11066767406869E7 ; 2.1481067454666115E7 ; 30702.000000000004
130 ; 87944.3879044539 ; 247724.5631959252 ; 1.1195585939619172E7 ; 2.1727521392275248E7 ; 30940.000000000004
131 ; 87054.42344753664 ; 248992.62425667883 ; 1.1283530327523626E7 ; 2.1975245955471173E7 ; 31178.000000000004
132 ; 86418.29480650836 ; 250258.07872740686 ; 1.1370584750971163E7 ; 2.222423857972785E7 ; 31416.000000000004
133 ; 85245.6524552426 ; 251520.88512411644 ; 1.1457003045777671E7 ; 2.2474496658455256E7 ; 31654.000000000004
134 ; 84639.49934276941 ; 252781.00252427656 ; 1.1542248698232913E7 ; 2.2726017543579374E7 ; 31892.000000000004
135 ; 83804.79548379908 ; 254038.39054910655 ; 1.1626888197575683E7 ; 2.297879854610365E7 ; 32130.000000000004
136 ; 83165.43034730501 ; 255293.00934664268 ; 1.1710692993059482E7 ; 2.3232836936652757E7 ; 32368.000000000004
137 ; 81836.71849317002 ; 256544.81957554456 ; 1.1793858423406787E7 ; 2.34881299459994E7 ; 32606.000000000004
138 ; 81408.79209116407 ; 257793.78238960635 ; 1.1875695141899956E7 ; 2.3744674765574943E7 ; 32844.00000000001
139 ; 80082.21049106674 ; 259039.8594229374 ; 1.1957103933991121E7 ; 2.400246854796455E7 ; 33082.00000000001
140 ; 79581.78919934039 ; 260283.01277578156 ; 1.2037186144482188E7 ; 2.4261508407387488E7 ; 33320.00000000001
141 ; 78492.8434607715 ; 261523.20500094304 ; 1.2116767933681529E7 ; 2.452179142016327E7 ; 33558.00000000001
142 ; 77312.11231544553 ; 262760.3990907919 ; 1.2195260777142301E7 ; 2.4783314625164215E7 ; 33796.00000000001
143 ; 76157.33583085272 ; 263994.55846482026 ; 1.2272572889457747E7 ; 2.5046075024255008E7 ; 34034.00000000001
144 ; 75453.60888530547 ; 265225.646957724 ; 1.23487302252886E7 ; 2.531006958271983E7 ; 34272.00000000001
145 ; 74797.4603885858 ; 266453.6288079857 ; 1.2424183834173905E7 ; 2.5575295229677554E7 ; 34510.00000000001
146 ; 74926.40486671179 ; 267678.4686469344 ; 1.249898129456249E7 ; 2.584174885848554E7 ; 34748.00000000001
147 ; 75138.40171104715 ; 268900.1314882618 ; 1.2573907699429203E7 ; 2.6109427327132475E7 ; 34986.00000000001
148 ; 74659.63095098079 ; 270118.5827179731 ; 1.264904610114025E7 ; 2.637832745862074E7 ; 35224.00000000001
149 ; 74324.84424688965 ; 271333.7880847514 ; 1.272370573209123E7 ; 2.6648446041338712E7 ; 35462.00000000001
150 ; 74024.00877520572 ; 272545.7136907196 ; 1.279803057633812E7 ; 2.6919779829423465E7 ; 35700.00000000001
151 ; 74017.7010380809 ; 273754.3259825798 ; 1.2872054585113326E7 ; 2.7192325543114185E7 ; 35938.00000000001
152 ; 74126.1568920076 ; 274959.5917431128 ; 1.2946072286151407E7 ; 2.7466079869096763E7 ; 36176.00000000001
153 ; 73750.5675555435 ; 276161.4780830245 ; 1.3020198443043415E7 ; 2.7741039460839875E7 ; 36414.00000000001
154 ; 73216.32622463534 ; 277359.95243311994 ; 1.3093949010598958E7 ; 2.80172009389229E7 ; 36652.00000000001
155 ; 72903.85082953214 ; 278554.9825367937 ; 1.3167165336823592E7 ; 2.829456089135602E7 ; 36890.00000000001
156 ; 72726.34438920817 ; 279746.536442821 ; 1.3240069187653124E7 ; 2.8573115873892814E7 ; 37128.00000000001
157 ; 72598.1388978422 ; 280934.58249843627 ; 1.3312795532042332E7 ; 2.8852862410335634E7 ; 37366.00000000001
158 ; 72740.19028955436 ; 282119.08934268844 ; 1.3385393670940174E7 ; 2.913379699283407E7 ; 37604.00000000001
159 ; 72099.07983144611 ; 283300.02590005856 ; 1.3458133861229729E7 ; 2.9415916082176756E7 ; 37842.00000000001
160 ; 71331.86076103039 ; 284477.3613743302 ; 1.3530232941061174E7 ; 2.9699216108076815E7 ; 38080.00000000001
161 ; 71469.27240879249 ; 285651.0652427009 ; 1.3601564801822204E7 ; 2.9983693469451144E7 ; 38318.00000000001
162 ; 70812.77056220727 ; 286821.10725012544 ; 1.3673034074230997E7 ; 3.0269344534693845E7 ; 38556.00000000001
163 ; 70876.03929415613 ; 287987.45740387915 ; 1.3743846844793204E7 ; 3.055616564194397E7 ; 38794.00000000001
164 ; 70434.37411019346 ; 289150.0859683345 ; 1.381472288408736E7 ; 3.084415309934785E7 ; 39032.00000000001
165 ; 70243.72474152225 ; 290308.96345993964 ; 1.3885157258197553E7 ; 3.1133303185316183E7 ; 39270.00000000001
166 ; 69658.91364151714 ; 291464.06064239243 ; 1.3955400982939076E7 ; 3.142361214877612E7 ; 39508.00000000001
167 ; 69231.35169276982 ; 292615.348522 ; 1.4025059896580594E7 ; 3.1715076209418513E7 ; 39746.00000000001
168 ; 68998.50509341467 ; 293762.7983432181 ; 1.4094291248273363E7 ; 3.2007691557940513E7 ; 39984.00000000001
169 ; 68666.26490990164 ; 294906.38158436096 ; 1.4163289753366778E7 ; 3.230145435628373E7 ; 40222.00000000001
170 ; 67943.57912823456 ; 296046.0699534758 ; 1.4231956018276678E7 ; 3.2596360737868093E7 ; 40460.00000000001
171 ; 67997.27995206715 ; 297181.8353843754 ; 1.4299899597404912E7 ; 3.2892406807821568E7 ; 40698.00000000001
172 ; 67757.11121393557 ; 298313.6500328218 ; 1.436789687735698E7 ; 3.3189588643205944E7 ; 40936.00000000001
173 ; 67652.70430842036 ; 299441.4862728544 ; 1.4435653988570916E7 ; 3.3487902293238766E7 ; 41174.00000000001
174 ; 67590.842845405 ; 300565.3166932586 ; 1.4503306692879336E7 ; 3.378734377951162E7 ; 41412.00000000001
175 ; 67373.10308722284 ; 301685.11409416737 ; 1.457089753572474E7 ; 3.4087909096204884E7 ; 41650.00000000001
176 ; 67789.73220972023 ; 302800.8514837915 ; 1.4638270638811963E7 ; 3.438959421029905E7 ; 41888.00000000001
177 ; 68217.93847783653 ; 303912.5020752732 ; 1.4706060371021682E7 ; 3.4692395061782844E7 ; 42126.00000000001
178 ; 68270.1743637404 ; 305020.0392836581 ; 1.4774278309499519E7 ; 3.4996307563858114E7 ; 42364.00000000001
179 ; 68560.57162231344 ; 306123.4367229815 ; 1.4842548483863259E7 ; 3.530132760314177E7 ; 42602.00000000001
180 ; 68311.8656199915 ; 307222.668203463 ; 1.4911109055485573E7 ; 3.560745103986475E7 ; 42840.00000000001
181 ; 68782.80800545593 ; 308317.7077288071 ; 1.4979420921105564E7 ; 3.5914673708068214E7 ; 43078.00000000001
