CSV File for the Network on Day 307
1 - Minute m 
2 - Power Consumed at minute m 
3 - Power Produced at minute m 
4 - Energy Consumed since the beginning of the day 
5 - Energy Produced since the beginning of the day 
6 - Energy Lost since the beginning of the day 
 
No Production city : 2, Producer : 1
No Production city : 4, Producer : 1
No Production city : 4, Producer : 1
 
0 ; 62913.12373824819 ; 230594.53016394784 ; 0.0 ; 0.0 ; 0.0
1 ; 63957.80275443973 ; 230226.0220551527 ; 62913.12373824819 ; 230594.53016394784 ; 238.00000000000003
2 ; 64693.548864955934 ; 229895.50362052588 ; 126870.92649268793 ; 460820.55221910053 ; 476.00000000000006
3 ; 66047.41958878966 ; 229603.23780803866 ; 191564.47535764385 ; 690716.0558396264 ; 714.0000000000001
4 ; 67187.21935721202 ; 229349.45891965798 ; 257611.89494643352 ; 920319.2936476651 ; 952.0000000000001
5 ; 67917.69321351442 ; 229134.3717759219 ; 324799.11430364556 ; 1149668.752567323 ; 1190.0000000000002
6 ; 68981.05510085348 ; 228958.15097681968 ; 392716.80751715996 ; 1378803.1243432448 ; 1428.0000000000002
7 ; 70135.95768822188 ; 228820.94026521873 ; 461697.86261801346 ; 1607761.2753200645 ; 1666.0000000000002
8 ; 71186.86321877288 ; 228722.8519982829 ; 531833.8203062353 ; 1836582.2155852832 ; 1904.0000000000002
9 ; 71414.25941694727 ; 228663.96673146304 ; 603020.6835250083 ; 2065305.067583566 ; 2142.0000000000005
10 ; 73104.71980038616 ; 228644.3329186971 ; 674434.9429419555 ; 2293969.034315029 ; 2380.0000000000005
11 ; 73903.438483469 ; 228663.96673146304 ; 747539.6627423416 ; 2522613.367233726 ; 2618.0000000000005
12 ; 74443.38851993234 ; 228722.8519982829 ; 821443.1012258106 ; 2751277.3339651893 ; 2856.0000000000005
13 ; 75485.85223397518 ; 228820.94026521873 ; 895886.4897457429 ; 2980000.1859634724 ; 3094.0000000000005
14 ; 76088.65268572638 ; 228958.15097681957 ; 971372.3419797181 ; 3208821.126228691 ; 3332.0000000000005
15 ; 77638.87863969318 ; 229134.3717759219 ; 1047460.9946654445 ; 3437779.2772055105 ; 3570.0000000000005
16 ; 78162.73352459194 ; 229349.45891965798 ; 1125099.8733051377 ; 3666913.6489814324 ; 3808.0000000000005
17 ; 79100.92025167742 ; 229603.23780803854 ; 1203262.6068297296 ; 3896263.1079010903 ; 4046.0000000000005
18 ; 79853.49361491424 ; 229895.503620526 ; 1282363.5270814071 ; 4125866.345709129 ; 4284.000000000001
19 ; 80625.71059870088 ; 230226.0220551527 ; 1362217.0206963215 ; 4355761.849329655 ; 4522.000000000001
20 ; 81418.6777752147 ; 230594.53016394796 ; 1442842.7312950224 ; 4585987.871384808 ; 4760.000000000001
21 ; 81816.19553683515 ; 231000.73727774667 ; 1524261.409070237 ; 4816582.401548756 ; 4998.000000000001
22 ; 82665.17652512481 ; 231444.3260128583 ; 1606077.6046070722 ; 5047583.1388265025 ; 5236.000000000001
23 ; 83293.46034056295 ; 231924.95335159375 ; 1688742.781132197 ; 5279027.464839361 ; 5474.000000000001
24 ; 84520.44663088 ; 232442.2517882706 ; 1772036.24147276 ; 5510952.418190954 ; 5712.000000000001
25 ; 85076.8823410194 ; 232995.830532056 ; 1856556.68810364 ; 5743394.669979225 ; 5950.000000000001
26 ; 86191.19820252016 ; 233585.27675785503 ; 1941633.5704446593 ; 5976390.500511281 ; 6188.000000000001
27 ; 86376.45363255151 ; 234210.15689640824 ; 2027824.7686471795 ; 6209975.777269136 ; 6426.000000000001
28 ; 86931.17226626567 ; 234870.01795481826 ; 2114201.222279731 ; 6444185.934165545 ; 6664.000000000001
29 ; 87622.42709429907 ; 235564.3888588841 ; 2201132.394545997 ; 6679055.952120363 ; 6902.000000000001
30 ; 88278.90519594784 ; 236292.78180885746 ; 2288754.821640296 ; 6914620.340979246 ; 7140.000000000001
31 ; 89144.41075602372 ; 237054.69364056387 ; 2377033.7268362436 ; 7150913.122788104 ; 7378.000000000001
32 ; 89547.6256007841 ; 237849.60718421522 ; 2466178.1375922672 ; 7387967.816428668 ; 7616.000000000001
33 ; 90261.00402203163 ; 238676.99261369254 ; 2555725.7631930513 ; 7625817.423612883 ; 7854.000000000001
34 ; 90845.42527664163 ; 239536.30877957388 ; 2645986.767215083 ; 7864494.416226576 ; 8092.000000000001
35 ; 91664.94868415873 ; 240427.00451971684 ; 2736832.1924917246 ; 8104030.72500615 ; 8330.000000000002
36 ; 92299.06327350576 ; 241348.5199417657 ; 2828497.1411758834 ; 8344457.729525867 ; 8568.000000000002
37 ; 93092.31928434767 ; 242300.28767253476 ; 2920796.204449389 ; 8585806.249467632 ; 8806.000000000002
38 ; 93582.60056439471 ; 243281.7340698025 ; 3013888.523733737 ; 8828106.537140166 ; 9044.000000000002
39 ; 93780.0395861627 ; 244292.2803926426 ; 3107471.1242981316 ; 9071388.271209968 ; 9282.000000000002
40 ; 94496.43621298973 ; 245331.34392699093 ; 3201251.163884294 ; 9315680.551602611 ; 9520.000000000002
41 ; 94874.86441315763 ; 246398.33906371624 ; 3295747.6000972837 ; 9561011.895529602 ; 9758.000000000002
42 ; 95923.7824795985 ; 247492.67832699942 ; 3390622.4645104413 ; 9807410.234593319 ; 9996.000000000002
43 ; 95875.13714282478 ; 248613.77335134934 ; 3486546.24699004 ; 1.0054902912920319E7 ; 10234.000000000002
44 ; 96577.40397410175 ; 249761.0358060642 ; 3582421.384132865 ; 1.0303516686271667E7 ; 10472.000000000002
45 ; 96836.74764884767 ; 250933.87826640706 ; 3678998.7881069668 ; 1.0553277722077731E7 ; 10710.000000000002
46 ; 97765.30499115722 ; 252131.71503118047 ; 3775835.5357558145 ; 1.0804211600344138E7 ; 10948.000000000002
47 ; 97898.16515022333 ; 253353.962886771 ; 3873600.840746972 ; 1.1056343315375319E7 ; 11186.000000000002
48 ; 98273.89741928007 ; 254600.04181807867 ; 3971499.005897195 ; 1.130969727826209E7 ; 11424.000000000002
49 ; 98756.94453071064 ; 255869.37566705747 ; 4069772.903316475 ; 1.1564297320080169E7 ; 11662.000000000002
50 ; 99113.9759969683 ; 257161.39273986517 ; 4168529.8478471856 ; 1.1820166695747226E7 ; 11900.000000000002
51 ; 99443.71344590161 ; 258475.5263638564 ; 4267643.823844153 ; 1.2077328088487092E7 ; 12138.000000000002
52 ; 99997.50444653693 ; 259811.2153958585 ; 4367087.537290055 ; 1.233580361485095E7 ; 12376.000000000002
53 ; 100348.68319393042 ; 261167.90468333766 ; 4467085.041736593 ; 1.2595614830246808E7 ; 12614.000000000002
54 ; 100804.08176036063 ; 262545.0454802014 ; 4567433.724930523 ; 1.2856782734930146E7 ; 12852.000000000002
55 ; 101088.60022357969 ; 263942.0958190978 ; 4668237.806690884 ; 1.3119327780410348E7 ; 13090.000000000002
56 ; 101116.59860262508 ; 265358.5208421519 ; 4769326.406914463 ; 1.3383269876229445E7 ; 13328.000000000002
57 ; 101872.07029277769 ; 266793.79309214116 ; 4870443.005517088 ; 1.3648628397071596E7 ; 13566.000000000002
58 ; 101964.90643251078 ; 268247.39276615204 ; 4972315.075809865 ; 1.3915422190163737E7 ; 13804.000000000002
59 ; 102353.46213999395 ; 269718.80793377303 ; 5074279.982242376 ; 1.4183669582929889E7 ; 14042.000000000002
60 ; 102798.17392019999 ; 271207.53472188563 ; 5176633.4443823695 ; 1.4453388390863663E7 ; 14280.000000000002
61 ; 102890.65218362432 ; 272713.0774680951 ; 5279431.61830257 ; 1.4724595925585547E7 ; 14518.000000000002
62 ; 103467.72475453645 ; 274234.94884481997 ; 5382322.270486194 ; 1.4997309003053643E7 ; 14756.000000000002
63 ; 103084.94254583879 ; 275772.6699560131 ; 5485789.99524073 ; 1.5271543951898463E7 ; 14994.000000000002
64 ; 103975.49010781405 ; 277325.7704084448 ; 5588874.937786569 ; 1.5547316621854477E7 ; 15232.000000000002
65 ; 103653.9613434452 ; 278893.7883594172 ; 5692850.427894383 ; 1.582464239226292E7 ; 15470.000000000002
66 ; 103790.46610606939 ; 280476.2705427144 ; 5796504.389237828 ; 1.6103536180622337E7 ; 15708.000000000002
67 ; 103448.44057985989 ; 282072.7722745287 ; 5900294.855343897 ; 1.6384012451165052E7 ; 15946.000000000002
68 ; 104490.20974580635 ; 283682.8574410249 ; 6003743.295923756 ; 1.6666085223439582E7 ; 16184.000000000002
69 ; 104743.45855315494 ; 285306.09846913326 ; 6108233.505669563 ; 1.694976808088061E7 ; 16422.000000000004
70 ; 104458.75605110844 ; 286942.07628208265 ; 6212976.964222718 ; 1.7235074179349743E7 ; 16660.000000000004
71 ; 104376.84904354127 ; 288590.3802411065 ; 6317435.720273826 ; 1.7522016255631827E7 ; 16898.000000000004
72 ; 105146.46416628934 ; 290250.6080746778 ; 6421812.569317368 ; 1.7810606635872934E7 ; 17136.000000000004
73 ; 105017.06500845584 ; 291922.36579654994 ; 6526959.033483657 ; 1.810085724394761E7 ; 17374.000000000004
74 ; 105623.41421907805 ; 293605.26761380344 ; 6631976.098492113 ; 1.839277960974416E7 ; 17612.000000000004
75 ; 104956.9308930603 ; 295298.9358260243 ; 6737599.512711191 ; 1.8686384877357963E7 ; 17850.000000000004
76 ; 105380.40821303093 ; 297003.0007166652 ; 6842556.443604251 ; 1.898168381318399E7 ; 18088.000000000004
77 ; 105325.3960512814 ; 298717.10043757025 ; 6947936.851817282 ; 1.9278686813900653E7 ; 18326.000000000004
78 ; 105696.9536274159 ; 300440.8808875758 ; 7053262.247868563 ; 1.9577403914338224E7 ; 18564.000000000004
79 ; 105522.71397586411 ; 302173.99558603164 ; 7158959.201495979 ; 1.98778447952258E7 ; 18802.000000000004
80 ; 105149.50819154977 ; 303916.1055420271 ; 7264481.915471843 ; 2.018001879081183E7 ; 19040.000000000004
81 ; 105910.03841470562 ; 305666.87912004243 ; 7369631.423663394 ; 2.0483934896353856E7 ; 19278.000000000004
82 ; 105355.95652270305 ; 307425.99190269224 ; 7475541.462078099 ; 2.0789601775473896E7 ; 19516.000000000004
83 ; 105438.28959651833 ; 309193.1265511701 ; 7580897.418600802 ; 2.1097027767376587E7 ; 19754.000000000004
84 ; 105300.15461905363 ; 310967.97266395367 ; 7686335.708197321 ; 2.1406220893927757E7 ; 19992.000000000004
85 ; 105244.59495771138 ; 312750.22663428204 ; 7791635.862816375 ; 2.171718886659171E7 ; 20230.000000000004
86 ; 105512.20313598374 ; 314539.591506868 ; 7896880.457774086 ; 2.2029939093225993E7 ; 20468.000000000004
87 ; 105274.6555822931 ; 316335.77683427033 ; 8002392.66091007 ; 2.234447868473286E7 ; 20706.000000000004
88 ; 105505.92499644504 ; 318138.49853330484 ; 8107667.316492363 ; 2.2660814461567134E7 ; 20944.000000000004
89 ; 105383.16308215148 ; 319947.4787418423 ; 8213173.241488808 ; 2.297895296010044E7 ; 21182.000000000004
90 ; 105416.74229902645 ; 321762.4456763001 ; 8318556.4045709595 ; 2.329890043884228E7 ; 21420.000000000004
91 ; 105015.6250545597 ; 323583.1334901069 ; 8423973.146869985 ; 2.3620662884518582E7 ; 21658.000000000004
92 ; 104639.47899969146 ; 325409.2821333866 ; 8528988.771924546 ; 2.394424601800869E7 ; 21896.000000000004
93 ; 104677.68971423006 ; 327240.63721408107 ; 8633628.250924237 ; 2.4269655300142076E7 ; 22134.000000000004
94 ; 104061.12459457447 ; 329076.9498607054 ; 8738305.940638468 ; 2.4596895937356155E7 ; 22372.000000000004
95 ; 104571.07316690459 ; 330917.9765869054 ; 8842367.065233042 ; 2.4925972887216862E7 ; 22610.000000000004
96 ; 104166.18127430342 ; 332763.4791579648 ; 8946938.138399947 ; 2.5256890863803767E7 ; 22848.000000000004
97 ; 104433.83311730201 ; 334613.2244593903 ; 9051104.319674252 ; 2.5589654342961732E7 ; 23086.000000000004
98 ; 104148.68965652237 ; 336466.98436768306 ; 9155538.152791554 ; 2.5924267567421123E7 ; 23324.000000000004
99 ; 103473.96396296131 ; 338324.5356233892 ; 9259686.842448076 ; 2.6260734551788807E7 ; 23562.000000000004
100 ; 103302.15433363555 ; 340185.6597065064 ; 9363160.806411037 ; 2.6599059087412197E7 ; 23800.000000000004
101 ; 103330.73112088261 ; 342050.1427143086 ; 9466462.960744673 ; 2.6939244747118704E7 ; 24038.000000000004
102 ; 102956.82220297316 ; 343917.77524163865 ; 9569793.691865556 ; 2.728129488983301E7 ; 24276.000000000004
103 ; 102500.15988586671 ; 345788.3522637079 ; 9672750.514068529 ; 2.762521266507465E7 ; 24514.000000000004
104 ; 102660.07475575803 ; 347661.6730214291 ; 9775250.673954396 ; 2.7971001017338358E7 ; 24752.000000000004
105 ; 102311.17747431016 ; 349537.5409093015 ; 9877910.748710154 ; 2.8318662690359786E7 ; 24990.000000000004
106 ; 101657.7842142264 ; 351415.7633658579 ; 9980221.926184464 ; 2.8668200231269088E7 ; 25228.000000000004
107 ; 101171.05343186395 ; 353296.1517666741 ; 1.008187971039869E7 ; 2.9019615994634945E7 ; 25466.000000000004
108 ; 100946.39996523196 ; 355178.5213199374 ; 1.0183050763830556E7 ; 2.9372912146401618E7 ; 25704.000000000004
109 ; 100850.37819280358 ; 357062.6909645604 ; 1.0283997163795788E7 ; 2.9728090667721555E7 ; 25942.000000000004
110 ; 100191.4697450452 ; 358948.48327082617 ; 1.038484754198859E7 ; 3.0085153358686116E7 ; 26180.000000000004
111 ; 100549.03270443347 ; 360835.7243435406 ; 1.0485039011733636E7 ; 3.0444101841956943E7 ; 26418.000000000004
112 ; 99736.13599002216 ; 362724.2437276677 ; 1.058558804443807E7 ; 3.0804937566300485E7 ; 26656.000000000004
113 ; 99242.75713826151 ; 364613.8743164168 ; 1.0685324180428091E7 ; 3.1167661810028154E7 ; 26894.000000000004
114 ; 99077.52737601745 ; 366504.4522617498 ; 1.0784566937566353E7 ; 3.153227568434457E7 ; 27132.000000000004
115 ; 98379.52571401725 ; 368395.8168872715 ; 1.088364446494237E7 ; 3.189878013660632E7 ; 27370.000000000004
116 ; 98367.7081651848 ; 370287.810603466 ; 1.0982023990656387E7 ; 3.226717595349359E7 ; 27608.000000000004
117 ; 97303.48936748494 ; 372180.27882523846 ; 1.1080391698821573E7 ; 3.2637463764097057E7 ; 27846.000000000004
118 ; 97240.63076374965 ; 374073.0698917187 ; 1.1177695188189058E7 ; 3.3009644042922296E7 ; 28084.000000000004
119 ; 96821.9515528963 ; 375966.03498828644 ; 1.1274935818952808E7 ; 3.3383717112814013E7 ; 28322.000000000004
120 ; 96423.11856079561 ; 377859.02807076974 ; 1.1371757770505704E7 ; 3.37596831478023E7 ; 28560.000000000004
121 ; 96164.51818937392 ; 379751.9057917743 ; 1.1468180889066499E7 ; 3.413754217587307E7 ; 28798.000000000004
122 ; 95423.51751131972 ; 381644.52742909617 ; 1.1564345407255873E7 ; 3.4517294081664845E7 ; 29036.000000000004
123 ; 95250.36653890644 ; 383536.7548161703 ; 1.1659768924767192E7 ; 3.489893860909394E7 ; 29274.000000000004
124 ; 94286.60589950797 ; 385428.4522745104 ; 1.1755019291306099E7 ; 3.528247536391011E7 ; 29512.000000000004
125 ; 93420.71185822561 ; 387319.48654809035 ; 1.1849305897205606E7 ; 3.566790381618462E7 ; 29750.000000000004
126 ; 93261.43882281226 ; 389209.72673962254 ; 1.1942726609063832E7 ; 3.6055223302732706E7 ; 29988.000000000004
127 ; 92575.44476571934 ; 391099.0442486837 ; 1.2035988047886644E7 ; 3.644443302947233E7 ; 30226.000000000004
128 ; 92192.37890104453 ; 392987.3127116448 ; 1.2128563492652362E7 ; 3.6835532073721014E7 ; 30464.000000000004
129 ; 92067.04092785703 ; 394874.40794335527 ; 1.2220755871553406E7 ; 3.7228519386432655E7 ; 30702.000000000004
130 ; 90767.92677102968 ; 396760.2078805381 ; 1.2312822912481263E7 ; 3.762339379437601E7 ; 30940.000000000004
131 ; 90437.73573345954 ; 398644.59252685006 ; 1.2403590839252293E7 ; 3.802015400225655E7 ; 31178.000000000004
132 ; 90033.3383082996 ; 400527.4438995613 ; 1.2494028574985752E7 ; 3.84187985947834E7 ; 31416.000000000004
133 ; 89196.1619250399 ; 402408.6459778114 ; 1.258406191329405E7 ; 3.881932603868297E7 ; 31654.000000000004
134 ; 88935.62905915444 ; 404288.08465239825 ; 1.2673258075219091E7 ; 3.922173468466078E7 ; 31892.000000000004
135 ; 88038.59092561685 ; 406165.6476770558 ; 1.2762193704278246E7 ; 3.962602276931318E7 ; 32130.000000000004
136 ; 86893.9326904457 ; 408041.2246211823 ; 1.2850232295203863E7 ; 4.0032188416990235E7 ; 32368.000000000004
137 ; 86785.56902140834 ; 409914.706823973 ; 1.2937126227894308E7 ; 4.044022964161142E7 ; 32606.000000000004
138 ; 85468.78531973413 ; 411785.9873499214 ; 1.3023911796915716E7 ; 4.0850144348435394E7 ; 32844.00000000001
139 ; 85609.15862942973 ; 413654.9609456484 ; 1.310938058223545E7 ; 4.1261930335785314E7 ; 33082.00000000001
140 ; 84218.33150589207 ; 415521.5239980188 ; 1.319498974086488E7 ; 4.1675585296730965E7 ; 33320.00000000001
141 ; 83741.55199564068 ; 417385.57449351123 ; 1.3279208072370773E7 ; 4.209110682072899E7 ; 33558.00000000001
142 ; 82821.27941365013 ; 419247.01197880064 ; 1.3362949624366414E7 ; 4.25084923952225E7 ; 33796.00000000001
143 ; 82043.46316035205 ; 421105.73752252245 ; 1.3445770903780064E7 ; 4.29277394072013E7 ; 34034.00000000001
144 ; 81448.73120101077 ; 422961.653678178 ; 1.3527814366940416E7 ; 4.334884514472382E7 ; 34272.00000000001
145 ; 80982.0206854317 ; 424814.6644481508 ; 1.3609263098141428E7 ; 4.3771806798402E7 ; 34510.00000000001
146 ; 80891.89418792384 ; 426664.6752488001 ; 1.369024511882686E7 ; 4.4196621462850146E7 ; 34748.00000000001
147 ; 80793.21535839286 ; 428511.5928765972 ; 1.3771137013014784E7 ; 4.462328613809895E7 ; 34986.00000000001
148 ; 80645.39982205557 ; 430355.32547527645 ; 1.3851930228373177E7 ; 4.5051797730975546E7 ; 35224.00000000001
149 ; 80494.8863953089 ; 432195.7825039665 ; 1.3932575628195234E7 ; 4.548215305645082E7 ; 35462.00000000001
150 ; 79264.45761917115 ; 434032.87470627483 ; 1.4013070514590543E7 ; 4.591434883895479E7 ; 35700.00000000001
151 ; 80021.2308365476 ; 435866.5140802966 ; 1.4092334972209714E7 ; 4.634838171366107E7 ; 35938.00000000001
152 ; 79490.4113981614 ; 437696.6138495171 ; 1.4172356203046262E7 ; 4.678424822774136E7 ; 36176.00000000001
153 ; 79322.6906575086 ; 439523.0884345829 ; 1.4251846614444423E7 ; 4.722194484159088E7 ; 36414.00000000001
154 ; 78783.39720791578 ; 441345.85342591535 ; 1.4331169305101933E7 ; 4.7661467930025466E7 ; 36652.00000000001
155 ; 78192.9272642942 ; 443164.8255571382 ; 1.4409952702309849E7 ; 4.810281378345138E7 ; 36890.00000000001
156 ; 78255.55446190729 ; 444979.9226792968 ; 1.4488145629574142E7 ; 4.854597860900851E7 ; 37128.00000000001
157 ; 77902.13816772954 ; 446791.06373584387 ; 1.456640118403605E7 ; 4.899095853168781E7 ; 37366.00000000001
158 ; 77705.00326879238 ; 448598.16873836657 ; 1.464430332220378E7 ; 4.943774959542365E7 ; 37604.00000000001
159 ; 77514.77951398009 ; 450401.158743036 ; 1.4722008325472573E7 ; 4.988634776416202E7 ; 37842.00000000001
160 ; 77505.11628562694 ; 452199.9558277521 ; 1.4799523104986552E7 ; 5.033674892290506E7 ; 38080.00000000001
161 ; 76644.14657991004 ; 453994.48306996597 ; 1.487702822127218E7 ; 5.078894887873281E7 ; 38318.00000000001
162 ; 76431.32097194347 ; 455784.66452515824 ; 1.495367236785209E7 ; 5.124294336180277E7 ; 38556.00000000001
163 ; 76434.71682974279 ; 457570.4252059512 ; 1.5030103688824033E7 ; 5.169872802632793E7 ; 38794.00000000001
164 ; 76464.89529563907 ; 459351.69106183795 ; 1.5106538405653777E7 ; 5.2156298451533884E7 ; 39032.00000000001
165 ; 75649.2993989966 ; 461128.38895950746 ; 1.5183003300949415E7 ; 5.261565014259572E7 ; 39270.00000000001
166 ; 75620.17449139089 ; 462900.4466637488 ; 1.5258652600348411E7 ; 5.307677853155523E7 ; 39508.00000000001
167 ; 75149.32817040113 ; 464667.7928189151 ; 1.5334272774839802E7 ; 5.353967897821898E7 ; 39746.00000000001
168 ; 74815.966040311 ; 466430.35693093075 ; 1.5409422103010204E7 ; 5.400434677103789E7 ; 39984.00000000001
169 ; 74122.1359818433 ; 468188.06934982643 ; 1.5484238069050515E7 ; 5.4470777127968825E7 ; 40222.00000000001
170 ; 74209.53846797986 ; 469940.86125278275 ; 1.5558360205032358E7 ; 5.493896519731865E7 ; 40460.00000000001
171 ; 73442.76728047314 ; 471134.16526474897 ; 1.5632569743500337E7 ; 5.5408906058571436E7 ; 40698.00000000001
172 ; 73248.8863657332 ; 471134.16526474897 ; 1.570601251078081E7 ; 5.588004022383618E7 ; 40936.00000000001
173 ; 73113.70965968528 ; 471134.16526474897 ; 1.5779261397146543E7 ; 5.635117438910093E7 ; 41174.00000000001
174 ; 73307.6353618993 ; 471134.16526474897 ; 1.5852375106806228E7 ; 5.682230855436568E7 ; 41412.00000000001
175 ; 73498.48441116493 ; 471134.16526474897 ; 1.5925682742168127E7 ; 5.729344271963043E7 ; 41650.00000000001
176 ; 73590.19259361345 ; 471134.16526474897 ; 1.5999181226579292E7 ; 5.7764576884895176E7 ; 41888.00000000001
177 ; 73832.82246296087 ; 471134.16526474897 ; 1.6072771419172905E7 ; 5.8235711050159924E7 ; 42126.00000000001
178 ; 73795.49253028358 ; 471134.16526474897 ; 1.6146604241635866E7 ; 5.870684521542467E7 ; 42364.00000000001
179 ; 73566.26261597303 ; 471134.16526474897 ; 1.622039973416615E7 ; 5.917797938068942E7 ; 42602.00000000001
180 ; 73921.39440104575 ; 471134.16526474897 ; 1.6293965996782124E7 ; 5.964911354595417E7 ; 42840.00000000001
181 ; 73688.66998030822 ; 471134.16526474897 ; 1.636788739118317E7 ; 6.0120247711218916E7 ; 43078.00000000001
