CSV File for the Network on Day 164
1 - Minute m 
2 - Power Consumed at minute m 
3 - Power Produced at minute m 
4 - Energy Consumed since the beginning of the day 
5 - Energy Produced since the beginning of the day 
6 - Energy Lost since the beginning of the day 
 
No Production city : 2, Producer : 1
No Production city : 4, Producer : 1
No Production city : 4, Producer : 1
 
0 ; 39347.52755012606 ; 158331.14436093534 ; 0.0 ; 0.0 ; 0.0
1 ; 41447.66392803173 ; 157987.0921948612 ; 39347.52755012606 ; 158331.14436093534 ; 238.00000000000003
2 ; 42471.50751916583 ; 157678.08297924174 ; 80795.1914781578 ; 316318.2365557966 ; 476.00000000000006
3 ; 43942.52097173607 ; 157404.4983325782 ; 123266.69899732363 ; 473996.3195350383 ; 714.0000000000001
4 ; 45256.30155702102 ; 157166.68040608178 ; 167209.2199690597 ; 631400.8178676165 ; 952.0000000000001
5 ; 46673.418170401885 ; 156964.92993641392 ; 212465.5215260807 ; 788567.4982736984 ; 1190.0000000000002
6 ; 47533.52696221016 ; 156799.50450042923 ; 259138.9396964826 ; 945532.4282101123 ; 1428.0000000000002
7 ; 50007.12719440786 ; 156670.61699519676 ; 306672.46665869275 ; 1102331.9327105414 ; 1666.0000000000002
8 ; 50947.509935735994 ; 156578.43436405936 ; 356679.5938531006 ; 1259002.5497057382 ; 1904.0000000000002
9 ; 51956.17616688476 ; 156523.0765864754 ; 407627.1037888366 ; 1415580.9840697977 ; 2142.0000000000005
10 ; 53312.99862633214 ; 156504.61594594156 ; 459583.2799557214 ; 1572104.060656273 ; 2380.0000000000005
11 ; 54568.173683348985 ; 156523.0765864754 ; 512896.27858205355 ; 1728608.6766022146 ; 2618.0000000000005
12 ; 55885.805241057635 ; 156578.43436405936 ; 567464.4522654025 ; 1885131.75318869 ; 2856.0000000000005
13 ; 57140.44162460628 ; 156670.61699519676 ; 623350.2575064602 ; 2041710.1875527492 ; 3094.0000000000005
14 ; 58270.61748385432 ; 156799.50450042915 ; 680490.6991310664 ; 2198380.804547946 ; 3332.0000000000005
15 ; 59722.998174250904 ; 156964.92993641392 ; 738761.3166149207 ; 2355180.309048375 ; 3570.0000000000005
16 ; 60655.07419038554 ; 157166.68040608178 ; 798484.3147891717 ; 2512145.2389847892 ; 3808.0000000000005
17 ; 61734.77703535608 ; 157404.4983325781 ; 859139.3889795572 ; 2669311.919390871 ; 4046.0000000000005
18 ; 63173.18689844637 ; 157678.08297924185 ; 920874.1660149132 ; 2826716.4177234494 ; 4284.000000000001
19 ; 64236.28398423298 ; 157987.0921948612 ; 984047.3529133596 ; 2984394.5007026913 ; 4522.000000000001
20 ; 64976.97077089885 ; 158331.14436093534 ; 1048283.6368975926 ; 3142381.5928975525 ; 4760.000000000001
21 ; 66357.60113717018 ; 158709.8205156986 ; 1113260.6076684913 ; 3300712.737258488 ; 4998.000000000001
22 ; 67470.91503323986 ; 159122.66662826482 ; 1179618.2088056614 ; 3459422.5577741866 ; 5236.000000000001
23 ; 68299.21763627623 ; 159569.1959954154 ; 1247089.1238389013 ; 3618545.2244024514 ; 5474.000000000001
24 ; 69637.30639467615 ; 160048.8917332836 ; 1315388.3414751776 ; 3778114.420397867 ; 5712.000000000001
25 ; 70471.46216678199 ; 160561.2093364365 ; 1385025.6478698538 ; 3938163.3121311506 ; 5950.000000000001
26 ; 71457.90658480256 ; 161105.5792776005 ; 1455497.1100366358 ; 4098724.521467587 ; 6188.000000000001
27 ; 72608.59204534779 ; 161681.40962243828 ; 1526955.0166214383 ; 4259830.100745187 ; 6426.000000000001
28 ; 74030.00302044205 ; 162288.08863532078 ; 1599563.608666786 ; 4421511.510367625 ; 6664.000000000001
29 ; 74191.30693135704 ; 162924.98735387615 ; 1673593.611687228 ; 4583799.599002946 ; 6902.000000000001
30 ; 75155.78458559638 ; 163591.4621121553 ; 1747784.9186185852 ; 4746724.586356822 ; 7140.000000000001
31 ; 76516.0838689112 ; 164286.85699448784 ; 1822940.7032041815 ; 4910316.048468978 ; 7378.000000000001
32 ; 77271.8651641339 ; 165010.50620441927 ; 1899456.7870730928 ; 5074602.905463466 ; 7616.000000000001
33 ; 78313.55990339842 ; 165761.73633548312 ; 1976728.6522372267 ; 5239613.411667885 ; 7854.000000000001
34 ; 79115.81904944568 ; 166539.86853289863 ; 2055042.212140625 ; 5405375.148003369 ; 8092.000000000001
35 ; 80138.19806466665 ; 167344.22053756114 ; 2134158.031190071 ; 5571915.0165362675 ; 8330.000000000002
36 ; 80672.53803993916 ; 168174.10860585805 ; 2214296.2292547375 ; 5739259.2370738285 ; 8568.000000000002
37 ; 81400.61463332183 ; 169028.84930087734 ; 2294968.7672946765 ; 5907433.345679686 ; 8806.000000000002
38 ; 82452.95410953673 ; 169907.7611524447 ; 2376369.3819279983 ; 6076462.194980564 ; 9044.000000000002
39 ; 83502.4990904255 ; 170810.16618512283 ; 2458822.336037535 ; 6246369.956133008 ; 9282.000000000002
40 ; 84535.53963513985 ; 171735.39131481014 ; 2542324.835127961 ; 6417180.122318131 ; 9520.000000000002
41 ; 84740.5825687465 ; 172682.76961589736 ; 2626860.374763101 ; 6588915.513632941 ; 9758.000000000002
42 ; 85530.7818933017 ; 173651.64146206682 ; 2711600.9573318474 ; 6761598.283248838 ; 9996.000000000002
43 ; 86506.46523298873 ; 174641.35554476743 ; 2797131.739225149 ; 6935249.924710905 ; 10234.000000000002
44 ; 87446.44576320244 ; 175651.26977416323 ; 2883638.204458138 ; 7109891.2802556725 ; 10472.000000000002
45 ; 87767.45803333726 ; 176680.7520679681 ; 2971084.6502213404 ; 7285542.550029836 ; 10710.000000000002
46 ; 88586.91053695836 ; 177729.18103403013 ; 3058852.1082546776 ; 7462223.302097804 ; 10948.000000000002
47 ; 89441.50638081937 ; 178795.94655285488 ; 3147439.018791636 ; 7639952.483131834 ; 11186.000000000002
48 ; 89783.02880727683 ; 179880.450266453 ; 3236880.5251724552 ; 7818748.429684689 ; 11424.000000000002
49 ; 90446.28447471574 ; 180982.10597999606 ; 3326663.553979732 ; 7998628.879951143 ; 11662.000000000002
50 ; 91581.18038793547 ; 182100.3399827639 ; 3417109.8384544477 ; 8179610.9859311385 ; 11900.000000000002
51 ; 91880.80261701361 ; 183234.59129479187 ; 3508691.0188423833 ; 8361711.325913902 ; 12138.000000000002
52 ; 92081.34260969335 ; 184384.31184548783 ; 3600571.8214593967 ; 8544945.917208694 ; 12376.000000000002
53 ; 92775.9636749927 ; 185548.9665902944 ; 3692653.16406909 ; 8729330.22905418 ; 12614.000000000002
54 ; 93368.818695158 ; 186728.03357123988 ; 3785429.127744083 ; 8914879.195644476 ; 12852.000000000002
55 ; 93983.07842138442 ; 187921.00392695292 ; 3878797.946439241 ; 9101607.229215715 ; 13090.000000000002
56 ; 94579.09351792427 ; 189127.3818574313 ; 3972781.0248606256 ; 9289528.233142668 ; 13328.000000000002
57 ; 95083.6045606505 ; 190346.68454854665 ; 4067360.11837855 ; 9478655.615000099 ; 13566.000000000002
58 ; 95464.02353868289 ; 191578.44206095775 ; 4162443.7229392002 ; 9669002.299548646 ; 13804.000000000002
59 ; 95526.75443518072 ; 192822.19718778747 ; 4257907.746477883 ; 9860580.741609605 ; 14042.000000000002
60 ; 96664.6693100741 ; 194077.5052851048 ; 4353434.500913064 ; 1.0053402938797392E7 ; 14280.000000000002
61 ; 96991.83113178078 ; 195343.9340789425 ; 4450099.170223138 ; 1.0247480444082497E7 ; 14518.000000000002
62 ; 97409.08774254196 ; 196621.06345228243 ; 4547091.001354919 ; 1.044282437816144E7 ; 14756.000000000002
63 ; 97689.44512296117 ; 197908.4852151474 ; 4644500.089097461 ; 1.0639445441613723E7 ; 14994.000000000002
64 ; 98329.72657014927 ; 199205.80286066319 ; 4742189.534220422 ; 1.083735392682887E7 ; 15232.000000000002
65 ; 98526.56876618844 ; 200512.63130968783 ; 4840519.260790571 ; 1.1036559729689533E7 ; 15470.000000000002
66 ; 99051.90741918917 ; 201828.59664635788 ; 4939045.829556759 ; 1.1237072360999221E7 ; 15708.000000000002
67 ; 99253.98700948509 ; 203153.33584666435 ; 5038097.736975948 ; 1.1438900957645578E7 ; 15946.000000000002
68 ; 99595.15504462364 ; 204486.49650195477 ; 5137351.723985434 ; 1.1642054293492243E7 ; 16184.000000000002
69 ; 100122.82945050567 ; 205827.73653905143 ; 5236946.879030057 ; 1.1846540789994197E7 ; 16422.000000000004
70 ; 100086.61967322884 ; 207176.72393848907 ; 5337069.708480563 ; 1.2052368526533248E7 ; 16660.000000000004
71 ; 100348.39107580796 ; 208533.13645219905 ; 5437156.328153792 ; 1.2259545250471737E7 ; 16898.000000000004
72 ; 100805.1090749614 ; 209896.66132180797 ; 5537504.719229599 ; 1.2468078386923937E7 ; 17136.000000000004
73 ; 100937.40329153696 ; 211266.9949985734 ; 5638309.828304561 ; 1.2677975048245745E7 ; 17374.000000000004
74 ; 101240.78175273623 ; 212643.84286584254 ; 5739247.231596097 ; 1.2889242043244319E7 ; 17612.000000000004
75 ; 101077.9288969727 ; 214026.91896479993 ; 5840488.013348834 ; 1.3101885886110162E7 ; 17850.000000000004
76 ; 101621.2373179707 ; 215415.94572416056 ; 5941565.942245807 ; 1.3315912805074962E7 ; 18088.000000000004
77 ; 102169.97003687646 ; 216810.65369436264 ; 6043187.1795637775 ; 1.3531328750799123E7 ; 18326.000000000004
78 ; 101409.07208724173 ; 218210.78128672732 ; 6145357.149600654 ; 1.3748139404493487E7 ; 18564.000000000004
79 ; 102190.91373300209 ; 219616.074517969 ; 6246766.221687895 ; 1.3966350185780214E7 ; 18802.000000000004
80 ; 102214.67683800636 ; 221026.2867603711 ; 6348957.135420897 ; 1.4185966260298183E7 ; 19040.000000000004
81 ; 102791.80596932663 ; 222441.17849787392 ; 6451171.812258903 ; 1.4406992547058554E7 ; 19278.000000000004
82 ; 102141.30128991615 ; 223860.51708826728 ; 6553963.61822823 ; 1.4629433725556428E7 ; 19516.000000000004
83 ; 102696.20123159449 ; 225284.0765316283 ; 6656104.919518146 ; 1.4853294242644696E7 ; 19754.000000000004
84 ; 102386.38542058789 ; 226711.63724509926 ; 6758801.12074974 ; 1.5078578319176324E7 ; 19992.000000000004
85 ; 102308.55728775574 ; 228142.98584406343 ; 6861187.506170328 ; 1.5305289956421424E7 ; 20230.000000000004
86 ; 102444.70915201545 ; 229577.9149297394 ; 6963496.063458083 ; 1.5533432942265486E7 ; 20468.000000000004
87 ; 102717.78871230382 ; 231016.2228831868 ; 7065940.772610099 ; 1.5763010857195226E7 ; 20706.000000000004
88 ; 102372.41671221692 ; 232457.71366568867 ; 7168658.561322403 ; 1.5994027080078414E7 ; 20944.000000000004
89 ; 102174.09894324078 ; 233902.1966254555 ; 7271030.97803462 ; 1.6226484793744102E7 ; 21182.000000000004
90 ; 102658.40324746785 ; 235349.48631057303 ; 7373205.076977861 ; 1.6460386990369558E7 ; 21420.000000000004
91 ; 102245.86601463822 ; 236799.40228810385 ; 7475863.480225329 ; 1.6695736476680132E7 ; 21658.000000000004
92 ; 102245.24603145763 ; 238251.76896923696 ; 7578109.346239967 ; 1.6932535878968235E7 ; 21896.000000000004
93 ; 102396.17240582757 ; 239706.41544036762 ; 7680354.592271425 ; 1.7170787647937473E7 ; 22134.000000000004
94 ; 101883.30988765157 ; 241163.17529998222 ; 7782750.764677253 ; 1.7410494063377842E7 ; 22372.000000000004
95 ; 101870.80346364368 ; 242621.88650121432 ; 7884634.074564904 ; 1.7651657238677826E7 ; 22610.000000000004
96 ; 101597.15768382665 ; 244082.3911999323 ; 7986504.878028547 ; 1.789427912517904E7 ; 22848.000000000004
97 ; 101640.88402178104 ; 245544.53560821494 ; 8088102.035712374 ; 1.8138361516378973E7 ; 23086.000000000004
98 ; 101689.53332790028 ; 247008.16985306752 ; 8189742.919734156 ; 1.8383906051987186E7 ; 23324.000000000004
99 ; 101574.2013321127 ; 248473.14784022953 ; 8291432.453062056 ; 1.8630914221840255E7 ; 23562.000000000004
100 ; 101014.68475566155 ; 249939.32712292395 ; 8393006.654394168 ; 1.8879387369680483E7 ; 23800.000000000004
101 ; 101057.16862847918 ; 251406.568775397 ; 8494021.33914983 ; 1.9129326696803406E7 ; 24038.000000000004
102 ; 100680.79388009498 ; 252874.73727109816 ; 8595078.50777831 ; 1.9380733265578803E7 ; 24276.000000000004
103 ; 100451.34191591165 ; 254343.70036535166 ; 8695759.301658405 ; 1.96336080028499E7 ; 24514.000000000004
104 ; 100231.39791625473 ; 255813.3289823717 ; 8796210.643574316 ; 1.9887951703215253E7 ; 24752.000000000004
105 ; 100132.73175609959 ; 257283.49710647497 ; 8896442.041490572 ; 2.0143765032197624E7 ; 24990.000000000004
106 ; 99781.53061091293 ; 258754.08167734844 ; 8996574.773246672 ; 2.04010485293041E7 ; 25228.000000000004
107 ; 99328.90396807934 ; 260224.9624892307 ; 9096356.303857585 ; 2.0659802610981446E7 ; 25466.000000000004
108 ; 98621.01407414867 ; 261696.02209386948 ; 9195685.207825664 ; 2.092002757347068E7 ; 25704.000000000004
109 ; 98613.10666037751 ; 263167.145707121 ; 9294306.221899813 ; 2.1181723595564548E7 ; 25942.000000000004
110 ; 98562.89232068128 ; 264638.22111905925 ; 9392919.32856019 ; 2.1444890741271667E7 ; 26180.000000000004
111 ; 97636.56644348071 ; 266109.13860746793 ; 9491482.220880872 ; 2.170952896239073E7 ; 26418.000000000004
112 ; 97145.1776053624 ; 267579.7908545902 ; 9589118.787324352 ; 2.1975638100998197E7 ; 26656.000000000004
113 ; 96966.88802759876 ; 269050.07286701584 ; 9686263.964929715 ; 2.224321789185279E7 ; 26894.000000000004
114 ; 96382.74526631384 ; 270519.88189858804 ; 9783230.852957314 ; 2.2512267964719806E7 ; 27132.000000000004
115 ; 96164.87835971119 ; 271989.11737621686 ; 9879613.598223628 ; 2.2782787846618395E7 ; 27370.000000000004
116 ; 95621.087146088 ; 273457.6808284888 ; 9975778.47658334 ; 2.305477696399461E7 ; 27608.000000000004
117 ; 95210.11221832641 ; 274925.4758169667 ; 1.0071399563729428E7 ; 2.33282346448231E7 ; 27846.000000000004
118 ; 94776.64773968498 ; 276392.4078700765 ; 1.0166609675947754E7 ; 2.3603160120640066E7 ; 28084.000000000004
119 ; 94255.56146377727 ; 277858.38441948226 ; 1.0261386323687438E7 ; 2.3879552528510142E7 ; 28322.000000000004
120 ; 93669.15510150831 ; 279323.31473885267 ; 1.0355641885151215E7 ; 2.4157410912929624E7 ; 28560.000000000004
121 ; 92512.51069721564 ; 280787.109884928 ; 1.0449311040252723E7 ; 2.4436734227668475E7 ; 28798.000000000004
122 ; 92651.36657851125 ; 282249.6826407965 ; 1.0541823550949939E7 ; 2.4717521337553404E7 ; 29036.000000000004
123 ; 91751.47727494614 ; 283710.947461297 ; 1.063447491752845E7 ; 2.4999771020194203E7 ; 29274.000000000004
124 ; 91179.57040707597 ; 285170.8204204613 ; 1.0726226394803397E7 ; 2.52834819676555E7 ; 29512.000000000004
125 ; 90132.0558045599 ; 286629.2191609211 ; 1.0817405965210473E7 ; 2.556865278807596E7 ; 29750.000000000004
126 ; 89815.89016210742 ; 288086.0628451994 ; 1.0907538021015033E7 ; 2.5855282007236883E7 ; 29988.000000000004
127 ; 89248.26984752771 ; 289541.2721088144 ; 1.099735391117714E7 ; 2.6143368070082083E7 ; 30226.000000000004
128 ; 88795.06791730307 ; 290994.7690151243 ; 1.1086602181024667E7 ; 2.64329093421909E7 ; 30464.000000000004
129 ; 87986.39461296692 ; 292446.4770118461 ; 1.117539724894197E7 ; 2.6723904111206025E7 ; 30702.000000000004
130 ; 87433.08446206014 ; 293896.320889181 ; 1.1263383643554935E7 ; 2.701635058821787E7 ; 30940.000000000004
131 ; 86463.81696286137 ; 295344.2267394854 ; 1.1350816728016995E7 ; 2.731024690910705E7 ; 31178.000000000004
132 ; 85737.42190717181 ; 296790.12191842566 ; 1.1437280544979855E7 ; 2.7605591135846537E7 ; 31416.000000000004
133 ; 84255.41513016066 ; 298233.93500755983 ; 1.1523017966887027E7 ; 2.790238125776496E7 ; 31654.000000000004
134 ; 84195.81960321836 ; 299675.59577828913 ; 1.1607273382017188E7 ; 2.8200615192772523E7 ; 31892.000000000004
135 ; 83536.360374317 ; 301115.03515712754 ; 1.1691469201620406E7 ; 2.8500290788550813E7 ; 32130.000000000004
136 ; 82353.25325074099 ; 302552.1851922362 ; 1.1775005561994722E7 ; 2.8801405823707942E7 ; 32368.000000000004
137 ; 82432.49435217968 ; 303986.97902117454 ; 1.1857358815245463E7 ; 2.9103958008900177E7 ; 32606.000000000004
138 ; 80661.92487831404 ; 305419.3508398207 ; 1.1939791309597643E7 ; 2.940794498792135E7 ; 32844.00000000001
139 ; 79900.88775135712 ; 306849.23587241536 ; 1.2020453234475957E7 ; 2.971336433876117E7 ; 33082.00000000001
140 ; 79058.68839775988 ; 308276.5703426855 ; 1.2100354122227315E7 ; 3.0020213574633583E7 ; 33320.00000000001
141 ; 78132.05038628058 ; 309701.29144600674 ; 1.2179412810625074E7 ; 3.032849014497627E7 ; 33558.00000000001
142 ; 77068.50908352516 ; 311123.3373225631 ; 1.2257544861011354E7 ; 3.0638191436422277E7 ; 33796.00000000001
143 ; 76288.06812196088 ; 312542.6470314676 ; 1.2334613370094879E7 ; 3.094931477374484E7 ; 34034.00000000001
144 ; 75699.73734642177 ; 313959.1605258035 ; 1.2410901438216839E7 ; 3.1261857420776308E7 ; 34272.00000000001
145 ; 75198.79208640367 ; 315372.8186285547 ; 1.248660117556326E7 ; 3.157581658130211E7 ; 34510.00000000001
146 ; 75653.42330672638 ; 316783.56300938776 ; 1.2561799967649665E7 ; 3.1891189399930663E7 ; 34748.00000000001
147 ; 75084.40700475432 ; 318191.3361622551 ; 1.263745339095639E7 ; 3.2207972962940052E7 ; 34986.00000000001
148 ; 74828.2891147483 ; 319596.0813837871 ; 1.2712537797961146E7 ; 3.2526164299102306E7 ; 35224.00000000001
149 ; 74312.46908697608 ; 320997.74275244353 ; 1.2787366087075895E7 ; 3.2845760380486093E7 ; 35462.00000000001
150 ; 74126.44583644747 ; 322396.2651083947 ; 1.2861678556162871E7 ; 3.3166758123238537E7 ; 35700.00000000001
151 ; 73978.37931664575 ; 323791.5940341056 ; 1.2935805001999319E7 ; 3.3489154388346933E7 ; 35938.00000000001
152 ; 73398.39294947626 ; 325183.675835596 ; 1.3009783381315965E7 ; 3.381294598238104E7 ; 36176.00000000001
153 ; 73522.85114041298 ; 326572.4575243508 ; 1.3083181774265442E7 ; 3.413812965821663E7 ; 36414.00000000001
154 ; 73500.18795188442 ; 327957.8867998566 ; 1.3156704625405855E7 ; 3.4464702115740985E7 ; 36652.00000000001
155 ; 73623.14025525603 ; 329339.912032741 ; 1.323020481335774E7 ; 3.479266000254084E7 ; 36890.00000000001
156 ; 72697.09913022094 ; 330718.4822484916 ; 1.3303827953612996E7 ; 3.512199991457358E7 ; 37128.00000000001
157 ; 72518.60713767272 ; 332093.54711173376 ; 1.3376525052743217E7 ; 3.545271839682207E7 ; 37366.00000000001
158 ; 72230.44276872685 ; 333465.0569110454 ; 1.344904365988089E7 ; 3.578481194393381E7 ; 37604.00000000001
159 ; 72179.53987910486 ; 334832.9625442905 ; 1.3521274102649616E7 ; 3.611827700084485E7 ; 37842.00000000001
160 ; 71367.67826194163 ; 336197.21550445055 ; 1.359345364252872E7 ; 3.645310996338914E7 ; 38080.00000000001
161 ; 71186.17899712372 ; 337557.76786593575 ; 1.3664821320790661E7 ; 3.6789307178893596E7 ; 38318.00000000001
162 ; 71290.77051853076 ; 338914.5722713601 ; 1.3736007499787785E7 ; 3.712686494675953E7 ; 38556.00000000001
163 ; 70922.22715430414 ; 340267.58191876067 ; 1.3807298270306315E7 ; 3.746577951903089E7 ; 38794.00000000001
164 ; 70440.23259408925 ; 341616.75054924743 ; 1.3878220497460619E7 ; 3.780604710094965E7 ; 39032.00000000001
165 ; 70522.89029673715 ; 342962.0324350657 ; 1.3948660730054708E7 ; 3.81476638514989E7 ; 39270.00000000001
166 ; 69940.15070548597 ; 344303.38236805855 ; 1.4019183620351445E7 ; 3.849062588393397E7 ; 39508.00000000001
167 ; 69479.39167464836 ; 345640.75564851204 ; 1.4089123771056931E7 ; 3.883492926630203E7 ; 39746.00000000001
168 ; 69332.21701145748 ; 346974.10807437234 ; 1.415860316273158E7 ; 3.9180570021950535E7 ; 39984.00000000001
169 ; 68319.59313646347 ; 348303.39593081875 ; 1.4227935379743038E7 ; 3.952754413002491E7 ; 40222.00000000001
170 ; 68525.45050270461 ; 349628.57598018175 ; 1.4296254972879501E7 ; 3.987584752595573E7 ; 40460.00000000001
171 ; 68196.58225755315 ; 350949.6054521932 ; 1.4364780423382206E7 ; 4.022547610193591E7 ; 40698.00000000001
172 ; 67682.19693177997 ; 352266.4420345557 ; 1.443297700563976E7 ; 4.05764257073881E7 ; 40936.00000000001
173 ; 67514.43120838681 ; 353579.04386382224 ; 1.450065920257154E7 ; 4.092869214942266E7 ; 41174.00000000001
174 ; 67750.14710306862 ; 354887.3695165724 ; 1.4568173633779926E7 ; 4.1282271193286486E7 ; 41412.00000000001
175 ; 67872.37993703294 ; 356191.37800087716 ; 1.4635923780882996E7 ; 4.163715856280306E7 ; 41650.00000000001
176 ; 68154.2652078369 ; 357491.02874803985 ; 1.4703796160820028E7 ; 4.199334994080394E7 ; 41888.00000000001
177 ; 68217.31580152828 ; 358786.2816046057 ; 1.4771950426027864E7 ; 4.235084096955198E7 ; 42126.00000000001
178 ; 68468.93755227554 ; 360077.0968246291 ; 1.4840167741829392E7 ; 4.270962725115658E7 ; 42364.00000000001
179 ; 68762.89347103899 ; 361363.43506219017 ; 1.4908636679381667E7 ; 4.3069704347981215E7 ; 42602.00000000001
180 ; 68947.75879642915 ; 362645.2573641522 ; 1.4977399572852707E7 ; 4.343106778304341E7 ; 42840.00000000001
181 ; 68692.43662007869 ; 363922.52516315086 ; 1.5046347331649136E7 ; 4.379371304040756E7 ; 43078.00000000001
