CSV File for the Network on Day 283
1 - Minute m 
2 - Power Consumed at minute m 
3 - Power Produced at minute m 
4 - Energy Consumed since the beginning of the day 
5 - Energy Produced since the beginning of the day 
6 - Energy Lost since the beginning of the day 
 
No Production city : 2, Producer : 1
No Production city : 4, Producer : 1
No Production city : 4, Producer : 1
 
0 ; 48529.75572831501 ; 200615.8291654837 ; 0.0 ; 0.0 ; 0.0
1 ; 50450.74251787142 ; 200266.36297419382 ; 48529.75572831501 ; 200615.8291654837 ; 238.00000000000003
2 ; 51495.71083643318 ; 199952.8358078731 ; 98980.49824618643 ; 400882.1921396775 ; 476.00000000000006
3 ; 52024.84793968224 ; 199675.52526862538 ; 150476.2090826196 ; 600835.0279475506 ; 714.0000000000001
4 ; 53864.92467265364 ; 199434.67902542878 ; 202501.05702230183 ; 800510.553216176 ; 952.0000000000001
5 ; 55298.14716802665 ; 199230.51382271491 ; 256365.98169495547 ; 999945.2322416047 ; 1190.0000000000002
6 ; 56008.88566511058 ; 199063.21460094614 ; 311664.1288629821 ; 1199175.7460643197 ; 1428.0000000000002
7 ; 57168.67305711235 ; 198932.93373749976 ; 367673.0145280927 ; 1398238.9606652658 ; 1666.0000000000002
8 ; 58659.01483057201 ; 198839.79041515145 ; 424841.6875852051 ; 1597171.8944027657 ; 1904.0000000000002
9 ; 59999.00290493987 ; 198783.870124304 ; 483500.7024157771 ; 1796011.6848179172 ; 2142.0000000000005
10 ; 61034.56556627646 ; 198765.2243038603 ; 543499.705320717 ; 1994795.5549422211 ; 2380.0000000000005
11 ; 61937.52333650056 ; 198783.870124304 ; 604534.2708869934 ; 2193560.7792460816 ; 2618.0000000000005
12 ; 62765.85524380508 ; 198839.79041515145 ; 666471.7942234939 ; 2392344.649370386 ; 2856.0000000000005
13 ; 64447.83481154098 ; 198932.93373749976 ; 729237.649467299 ; 2591184.4397855373 ; 3094.0000000000005
14 ; 65216.17110707468 ; 199063.21460094614 ; 793685.48427884 ; 2790117.373523037 ; 3332.0000000000005
15 ; 66647.50750172579 ; 199230.51382271491 ; 858901.6553859147 ; 2989180.5881239832 ; 3570.0000000000005
16 ; 67669.90311007353 ; 199434.67902542878 ; 925549.1628876405 ; 3188411.101946698 ; 3808.0000000000005
17 ; 68733.20447514078 ; 199675.52526862532 ; 993219.0659977141 ; 3387845.780972127 ; 4046.0000000000005
18 ; 69808.65301779663 ; 199952.8358078732 ; 1061952.2704728548 ; 3587521.3062407523 ; 4284.000000000001
19 ; 70221.37921564965 ; 200266.36297419382 ; 1131760.9234906514 ; 3787474.1420486257 ; 4522.000000000001
20 ; 71597.55934170258 ; 200615.82916548377 ; 1201982.302706301 ; 3987740.5050228196 ; 4760.000000000001
21 ; 72220.47901600512 ; 201000.92794074837 ; 1273579.8620480036 ; 4188356.3341883034 ; 4998.000000000001
22 ; 73638.88867264618 ; 201421.32520723037 ; 1345800.3410640087 ; 4389357.262129052 ; 5236.000000000001
23 ; 74446.99661468457 ; 201876.66048994544 ; 1419439.2297366548 ; 4590778.587336282 ; 5474.000000000001
24 ; 75078.30025189323 ; 202366.54827272022 ; 1493886.2263513394 ; 4792655.247826228 ; 5712.000000000001
25 ; 76308.7845898798 ; 202890.5793995801 ; 1568964.5266032326 ; 4995021.796098948 ; 5950.000000000001
26 ; 77118.11913915793 ; 203448.3225252326 ; 1645273.3111931123 ; 5197912.375498529 ; 6188.000000000001
27 ; 78382.74044844907 ; 204039.32560344719 ; 1722391.4303322702 ; 5401360.698023762 ; 6426.000000000001
28 ; 79146.04468844879 ; 204663.11740232073 ; 1800774.1707807193 ; 5605400.023627209 ; 6664.000000000001
29 ; 79707.11039054886 ; 205319.20903573974 ; 1879920.215469168 ; 5810063.141029529 ; 6902.000000000001
30 ; 80963.44838314671 ; 206007.0955007798 ; 1959627.3258597169 ; 6015382.350065269 ; 7140.000000000001
31 ; 81465.50775054308 ; 206726.25721131658 ; 2040590.7742428635 ; 6221389.445566049 ; 7378.000000000001
32 ; 82303.28714714127 ; 207476.16151873663 ; 2122056.281993407 ; 6428115.702777365 ; 7616.000000000001
33 ; 83396.62341769699 ; 208256.26421131621 ; 2204359.569140548 ; 6635591.864296102 ; 7854.000000000001
34 ; 83962.2904418996 ; 209066.0109845714 ; 2287756.192558245 ; 6843848.128507419 ; 8092.000000000001
35 ; 84672.29260014775 ; 209904.8388756483 ; 2371718.4830001444 ; 7052914.13949199 ; 8330.000000000002
36 ; 85789.54712855892 ; 210772.1776556108 ; 2456390.7756002923 ; 7262818.978367639 ; 8568.000000000002
37 ; 86095.15582630868 ; 211667.4511742779 ; 2542180.3227288513 ; 7473591.15602325 ; 8806.000000000002
38 ; 86584.09530429055 ; 212590.0786530528 ; 2628275.47855516 ; 7685258.607197528 ; 9044.000000000002
39 ; 87354.7406649311 ; 213539.47592195697 ; 2714859.573859451 ; 7897848.68585058 ; 9282.000000000002
40 ; 88275.61389742773 ; 214515.05659782718 ; 2802214.314524382 ; 8111388.161772537 ; 9520.000000000002
41 ; 88886.61921736029 ; 215516.23320134872 ; 2890489.92842181 ; 8325903.218370364 ; 9758.000000000002
42 ; 89277.81043038786 ; 216542.41821126326 ; 2979376.54763917 ; 8541419.451571712 ; 9996.000000000002
43 ; 90335.97158815763 ; 217593.02505471907 ; 3068654.358069558 ; 8757961.869782975 ; 10234.000000000002
44 ; 90837.91207025888 ; 218667.46903330262 ; 3158990.3296577157 ; 8975554.894837694 ; 10472.000000000002
45 ; 91858.87833221207 ; 219765.16818481602 ; 3249828.2417279747 ; 9194222.363870997 ; 10710.000000000002
46 ; 92245.67125229306 ; 220885.54408133266 ; 3341687.120060187 ; 9413987.532055814 ; 10948.000000000002
47 ; 92800.40282378618 ; 222028.02256448258 ; 3433932.79131248 ; 9634873.076137146 ; 11186.000000000002
48 ; 93108.33220034378 ; 223192.03441927972 ; 3526733.194136266 ; 9856901.098701628 ; 11424.000000000002
49 ; 93631.87417367943 ; 224377.01598811973 ; 3619841.52633661 ; 1.0080093133120907E7 ; 11662.000000000002
50 ; 94684.04678508331 ; 225582.40972684065 ; 3713473.4005102892 ; 1.0304470149109026E7 ; 11900.000000000002
51 ; 94574.19817180315 ; 226807.66470495387 ; 3808157.4472953724 ; 1.0530052558835868E7 ; 12138.000000000002
52 ; 96007.24723395909 ; 228052.23705233276 ; 3902731.6454671756 ; 1.0756860223540822E7 ; 12376.000000000002
53 ; 96521.84190246982 ; 229315.59035477662 ; 3998738.8927011346 ; 1.0984912460593155E7 ; 12614.000000000002
54 ; 96493.94830705656 ; 230597.19600096816 ; 4095260.7346036043 ; 1.121422805094793E7 ; 12852.000000000002
55 ; 97188.77780474913 ; 231896.53348340653 ; 4191754.6829106607 ; 1.14448252469489E7 ; 13090.000000000002
56 ; 97371.47834327574 ; 233213.09065593462 ; 4288943.46071541 ; 1.1676721780432306E7 ; 13328.000000000002
57 ; 98093.63514729153 ; 234546.363950486 ; 4386314.939058686 ; 1.190993487108824E7 ; 13566.000000000002
58 ; 98440.57278096859 ; 235895.85855566367 ; 4484408.574205977 ; 1.2144481235038726E7 ; 13804.000000000002
59 ; 98398.1062703087 ; 237261.08855973007 ; 4582849.1469869455 ; 1.2380377093594389E7 ; 14042.000000000002
60 ; 99551.54914169446 ; 238641.57706053345 ; 4681247.253257254 ; 1.2617638182154119E7 ; 14280.000000000002
61 ; 99387.10842874821 ; 240036.85624483318 ; 4780798.802398949 ; 1.2856279759214653E7 ; 14518.000000000002
62 ; 100062.32559957955 ; 241446.46743940774 ; 4880185.910827697 ; 1.3096316615459485E7 ; 14756.000000000002
63 ; 100510.3790830727 ; 242869.9611362436 ; 4980248.236427276 ; 1.3337763082898892E7 ; 14994.000000000002
64 ; 100648.62404682788 ; 244306.89699400842 ; 5080758.615510349 ; 1.3580633044035137E7 ; 15232.000000000002
65 ; 101119.43696072369 ; 245756.84381791437 ; 5181407.239557177 ; 1.3824939941029144E7 ; 15470.000000000002
66 ; 101215.23856653848 ; 247219.37951997286 ; 5282526.6765179 ; 1.4070696784847058E7 ; 15708.000000000002
67 ; 101391.54573414008 ; 248694.09106153765 ; 5383741.915084438 ; 1.4317916164367031E7 ; 15946.000000000002
68 ; 101926.48434885117 ; 250180.57437992792 ; 5485133.4608185785 ; 1.456661025542857E7 ; 16184.000000000002
69 ; 101729.458402272 ; 251678.43430081525 ; 5587059.94516743 ; 1.4816790829808498E7 ; 16422.000000000004
70 ; 102423.47265605081 ; 253187.28443795544 ; 5688789.403569702 ; 1.5068469264109313E7 ; 16660.000000000004
71 ; 102288.51938607739 ; 254706.74708174137 ; 5791212.876225753 ; 1.532165654854727E7 ; 16898.000000000004
72 ; 102764.71689391817 ; 256236.45307795441 ; 5893501.39561183 ; 1.5576363295629011E7 ; 17136.000000000004
73 ; 102925.61767080665 ; 257776.04169799286 ; 5996266.112505748 ; 1.5832599748706967E7 ; 17374.000000000004
74 ; 103222.56460079021 ; 259325.1605017627 ; 6099191.730176555 ; 1.6090375790404959E7 ; 17612.000000000004
75 ; 102966.1205596525 ; 260883.4651943257 ; 6202414.294777345 ; 1.6349700950906722E7 ; 17850.000000000004
76 ; 103418.95369154036 ; 262450.6194773129 ; 6305380.415336997 ; 1.6610584416101048E7 ; 18088.000000000004
77 ; 103380.08497421087 ; 264026.2948960307 ; 6408799.3690285375 ; 1.687303503557836E7 ; 18326.000000000004
78 ; 103718.66381617055 ; 265610.1706831079 ; 6512179.454002748 ; 1.7137061330474388E7 ; 18564.000000000004
79 ; 104030.04566660256 ; 267201.9335994583 ; 6615898.117818919 ; 1.7402671501157496E7 ; 18802.000000000004
80 ; 103801.94194390347 ; 268801.277773265 ; 6719928.163485521 ; 1.7669873434756953E7 ; 19040.000000000004
81 ; 103886.56634199902 ; 270407.9045376271 ; 6823730.105429425 ; 1.7938674712530218E7 ; 19278.000000000004
82 ; 103373.84828508792 ; 272021.5222674471 ; 6927616.671771424 ; 1.8209082617067844E7 ; 19516.000000000004
83 ; 103826.32738150719 ; 273641.84621608385 ; 7030990.520056512 ; 1.848110413933529E7 ; 19754.000000000004
84 ; 103839.5551836204 ; 275268.5983522384 ; 7134816.84743802 ; 1.8754745985551372E7 ; 19992.000000000004
85 ; 104467.20788930003 ; 276901.5071974937 ; 7238656.40262164 ; 1.903001458390361E7 ; 20230.000000000004
86 ; 104276.03833801267 ; 278540.307664883 ; 7343123.61051094 ; 1.9306916091101103E7 ; 20468.000000000004
87 ; 104160.13209145742 ; 280184.7408988185 ; 7447399.648848953 ; 1.9585456398765985E7 ; 20706.000000000004
88 ; 104193.71845930266 ; 281834.55411667353 ; 7551559.78094041 ; 1.9865641139664803E7 ; 20944.000000000004
89 ; 104144.33572210133 ; 283489.50045227585 ; 7655753.499399712 ; 2.0147475693781476E7 ; 21182.000000000004
90 ; 103800.61114157327 ; 285149.33880153496 ; 7759897.835121813 ; 2.0430965194233753E7 ; 21420.000000000004
91 ; 103649.76332057144 ; 286813.8336703981 ; 7863698.446263387 ; 2.071611453303529E7 ; 21658.000000000004
92 ; 103507.00439983523 ; 288482.75502530194 ; 7967348.209583959 ; 2.1002928366705686E7 ; 21896.000000000004
93 ; 104246.8577322818 ; 290155.8781462587 ; 8070855.213983794 ; 2.1291411121730987E7 ; 22134.000000000004
94 ; 103295.38772058788 ; 291832.98348269565 ; 8175102.071716076 ; 2.1581566999877244E7 ; 22372.000000000004
95 ; 103132.95838530324 ; 293513.8565121448 ; 8278397.459436663 ; 2.187339998335994E7 ; 22610.000000000004
96 ; 103477.69272159415 ; 295198.2876018609 ; 8381530.417821967 ; 2.2166913839872085E7 ; 22848.000000000004
97 ; 102738.74991259143 ; 296886.071873427 ; 8485008.110543562 ; 2.2462112127473947E7 ; 23086.000000000004
98 ; 103012.35782253966 ; 298577.0090703949 ; 8587746.860456154 ; 2.2758998199347373E7 ; 23324.000000000004
99 ; 102601.53082187116 ; 300270.90342898935 ; 8690759.218278693 ; 2.305757520841777E7 ; 23562.000000000004
100 ; 102698.72423194547 ; 301967.5635518973 ; 8793360.749100564 ; 2.335784611184676E7 ; 23800.000000000004
101 ; 102218.59271264858 ; 303666.80228514713 ; 8896059.47333251 ; 2.365981367539866E7 ; 24038.000000000004
102 ; 101982.1933525435 ; 305368.43659807823 ; 8998278.066045158 ; 2.3963480477683805E7 ; 24276.000000000004
103 ; 101908.8468202246 ; 307072.2874663868 ; 9100260.2593977 ; 2.4268848914281882E7 ; 24514.000000000004
104 ; 101200.22914504196 ; 308778.1797582316 ; 9202169.106217925 ; 2.457592120174827E7 ; 24752.000000000004
105 ; 101034.26806363398 ; 310485.9421233715 ; 9303369.335362967 ; 2.4884699381506503E7 ; 24990.000000000004
106 ; 101187.51973544233 ; 312195.40688530414 ; 9404403.603426602 ; 2.5195185323629875E7 ; 25228.000000000004
107 ; 100825.84633188279 ; 313906.4099363686 ; 9505591.123162044 ; 2.550738073051518E7 ; 25466.000000000004
108 ; 100027.77086343821 ; 315618.7906357689 ; 9606416.969493927 ; 2.5821287140451547E7 ; 25704.000000000004
109 ; 99602.25057874786 ; 317332.3917104744 ; 9706444.740357365 ; 2.6136905931087315E7 ; 25942.000000000004
110 ; 99639.40176283632 ; 319047.0591589472 ; 9806046.990936114 ; 2.645423832279779E7 ; 26180.000000000004
111 ; 99073.38070950986 ; 320762.6421576445 ; 9905686.39269895 ; 2.6773285381956737E7 ; 26418.000000000004
112 ; 99407.29643157095 ; 322478.99297024345 ; 1.000475977340846E7 ; 2.709404802411438E7 ; 26656.000000000004
113 ; 98549.33221160332 ; 324195.9668595302 ; 1.010416706984003E7 ; 2.7416527017084625E7 ; 26894.000000000004
114 ; 97955.6518113178 ; 325913.4220018976 ; 1.0202716402051633E7 ; 2.7740722983944155E7 ; 27132.000000000004
115 ; 97727.6652668806 ; 327631.2194043924 ; 1.0300672053862952E7 ; 2.8066636405946054E7 ; 27370.000000000004
116 ; 97435.34322057606 ; 329349.22282425314 ; 1.0398399719129832E7 ; 2.8394267625350446E7 ; 27608.000000000004
117 ; 96592.48638861829 ; 331067.29869087704 ; 1.049583506235041E7 ; 2.87236168481747E7 ; 27846.000000000004
118 ; 96396.00999543878 ; 332785.31603015854 ; 1.0592427548739027E7 ; 2.9054684146865577E7 ; 28084.000000000004
119 ; 95571.20906032127 ; 334503.1463911359 ; 1.0688823558734465E7 ; 2.9387469462895736E7 ; 28322.000000000004
120 ; 95202.90292426808 ; 336220.6637748894 ; 1.0784394767794786E7 ; 2.972197260928687E7 ; 28560.000000000004
121 ; 94671.45432602256 ; 337937.74456562824 ; 1.0879597670719054E7 ; 3.005819327306176E7 ; 28798.000000000004
122 ; 93945.4701628555 ; 339654.26746390783 ; 1.0974269125045076E7 ; 3.039613101762739E7 ; 29036.000000000004
123 ; 93787.06967985476 ; 341370.1134219194 ; 1.1068214595207931E7 ; 3.0735785285091296E7 ; 29274.000000000004
124 ; 93480.86731547565 ; 343085.1655807928 ; 1.1162001664887786E7 ; 3.1077155398513217E7 ; 29512.000000000004
125 ; 92661.35482564352 ; 344799.30920985586 ; 1.125548253220326E7 ; 3.142024056409401E7 ; 29750.000000000004
126 ; 91975.8057989424 ; 346512.4316477928 ; 1.1348143887028905E7 ; 3.1765039873303868E7 ; 29988.000000000004
127 ; 91179.47041494236 ; 348224.4222456482 ; 1.1440119692827847E7 ; 3.211155230495166E7 ; 30226.000000000004
128 ; 90776.14712800276 ; 349935.1723116195 ; 1.1531299163242789E7 ; 3.2459776727197308E7 ; 30464.000000000004
129 ; 90030.3036982157 ; 351644.5750575876 ; 1.1622075310370792E7 ; 3.2809711899508927E7 ; 30702.000000000004
130 ; 89344.2373887765 ; 353352.52554732934 ; 1.1712105614069007E7 ; 3.3161356474566516E7 ; 30940.000000000004
131 ; 88719.8808105311 ; 355058.92064636596 ; 1.1801449851457784E7 ; 3.3514709000113845E7 ; 31178.000000000004
132 ; 87628.12830292995 ; 356763.65897339187 ; 1.1890169732268315E7 ; 3.3869767920760214E7 ; 31416.000000000004
133 ; 87346.78209279221 ; 358466.6408532397 ; 1.1977797860571245E7 ; 3.42265315797336E7 ; 31654.000000000004
134 ; 86679.17317310566 ; 360167.7682713304 ; 1.2065144642664038E7 ; 3.4584998220586844E7 ; 31892.000000000004
135 ; 85778.19266719092 ; 361866.9448295648 ; 1.2151823815837143E7 ; 3.494516598885817E7 ; 32130.000000000004
136 ; 85193.0589340392 ; 363564.0757036094 ; 1.2237602008504335E7 ; 3.530703293368774E7 ; 32368.000000000004
137 ; 84151.68996825072 ; 365259.0676015336 ; 1.2322795067438373E7 ; 3.5670597009391345E7 ; 32606.000000000004
138 ; 83845.7160318661 ; 366951.8287237546 ; 1.2406946757406624E7 ; 3.603585607699288E7 ; 32844.00000000001
139 ; 82964.05707938343 ; 368642.2687242493 ; 1.249079247343849E7 ; 3.640280790571663E7 ; 33082.00000000001
140 ; 81499.24398456367 ; 370330.2986729926 ; 1.2573756530517874E7 ; 3.6771450174440876E7 ; 33320.00000000001
141 ; 81209.6299198897 ; 372015.8310195812 ; 1.2655255774502438E7 ; 3.7141780473113865E7 ; 33558.00000000001
142 ; 80533.96459311174 ; 373698.779558007 ; 1.2736465404422328E7 ; 3.7513796304133445E7 ; 33796.00000000001
143 ; 79429.28375991945 ; 375379.0593925433 ; 1.281699936901544E7 ; 3.7887495083691455E7 ; 34034.00000000001
144 ; 78892.56669341846 ; 377056.5869047039 ; 1.289642865277536E7 ; 3.8262874143084E7 ; 34272.00000000001
145 ; 78714.56105558708 ; 378731.2797212454 ; 1.2975321219468778E7 ; 3.86399307299887E7 ; 34510.00000000001
146 ; 77856.96282100436 ; 380403.0566831761 ; 1.3054035780524366E7 ; 3.901866200970995E7 ; 34748.00000000001
147 ; 78200.98918540955 ; 382071.83781573863 ; 1.313189274334537E7 ; 3.939906506639312E7 ; 34986.00000000001
148 ; 77743.29788734872 ; 383737.54429933627 ; 1.321009373253078E7 ; 3.978113690420886E7 ; 35224.00000000001
149 ; 77504.82139034085 ; 385400.0984413711 ; 1.328783703041813E7 ; 4.0164874448508196E7 ; 35462.00000000001
150 ; 76712.36016195554 ; 387059.42364896345 ; 1.336534185180847E7 ; 4.0550274546949565E7 ; 35700.00000000001
151 ; 77243.45973425564 ; 388715.4444025267 ; 1.3442054211970426E7 ; 4.093733397059853E7 ; 35938.00000000001
152 ; 77204.75853837543 ; 390368.08623016614 ; 1.3519297671704682E7 ; 4.132604941500105E7 ; 36176.00000000001
153 ; 76659.02546827937 ; 392017.2756828775 ; 1.3596502430243056E7 ; 4.1716417501231216E7 ; 36414.00000000001
154 ; 76399.02173849093 ; 393662.9403105177 ; 1.3673161455711335E7 ; 4.210843477691409E7 ; 36652.00000000001
155 ; 75903.28621387354 ; 395305.00863852317 ; 1.3749560477449825E7 ; 4.2502097717224605E7 ; 36890.00000000001
156 ; 75788.95684177308 ; 396943.41014535166 ; 1.3825463763663698E7 ; 4.289740272586313E7 ; 37128.00000000001
157 ; 75526.95281351304 ; 398578.0752406225 ; 1.390125272050547E7 ; 4.329434613600848E7 ; 37366.00000000001
158 ; 75248.47178618569 ; 400208.93524393404 ; 1.3976779673318984E7 ; 4.36929242112491E7 ; 37604.00000000001
159 ; 74989.1512469871 ; 401835.92236433586 ; 1.405202814510517E7 ; 4.409313314649303E7 ; 37842.00000000001
160 ; 74879.89951788574 ; 403458.96968043386 ; 1.4127017296352157E7 ; 4.449496906885737E7 ; 38080.00000000001
161 ; 74423.84700831486 ; 405078.01112110785 ; 1.4201897195870044E7 ; 4.489842803853781E7 ; 38318.00000000001
162 ; 74204.75124522325 ; 406692.9814468217 ; 1.4276321042878358E7 ; 4.530350604965892E7 ; 38556.00000000001
163 ; 73647.58764116911 ; 408303.8162315077 ; 1.435052579412358E7 ; 4.571019903110574E7 ; 38794.00000000001
164 ; 73472.47731550112 ; 409910.4518450046 ; 1.4424173381764749E7 ; 4.6118502847337246E7 ; 39032.00000000001
165 ; 73661.03428822689 ; 411512.82543603284 ; 1.449764585908025E7 ; 4.652841329918225E7 ; 39270.00000000001
166 ; 73259.46007694675 ; 413110.87491568935 ; 1.4571306893368477E7 ; 4.6939926124618284E7 ; 39508.00000000001
167 ; 72809.59627353726 ; 414704.53894144483 ; 1.4644566353445424E7 ; 4.735303699953397E7 ; 39746.00000000001
168 ; 73041.52869896902 ; 416293.75690162694 ; 1.4717375949718961E7 ; 4.776774153847542E7 ; 39984.00000000001
169 ; 72325.17665290301 ; 417878.46890037437 ; 1.4790417478417931E7 ; 4.8184035295377046E7 ; 40222.00000000001
170 ; 71945.57105111069 ; 419458.61574304674 ; 1.4862742655070834E7 ; 4.860191376427742E7 ; 40460.00000000001
171 ; 71646.72775055675 ; 421034.1389220748 ; 1.4934688226121945E7 ; 4.902137238002047E7 ; 40698.00000000001
172 ; 71424.83037118631 ; 422604.98060323717 ; 1.5006334953872502E7 ; 4.944240651894254E7 ; 40936.00000000001
173 ; 70909.93551581194 ; 424171.0836123504 ; 1.5077759784243688E7 ; 4.986501149954578E7 ; 41174.00000000001
174 ; 70877.20587191384 ; 425732.3914223588 ; 1.51486697197595E7 ; 5.0289182583158135E7 ; 41412.00000000001
175 ; 71108.22081922852 ; 427288.84814081085 ; 1.5219546925631413E7 ; 5.07149149745805E7 ; 41650.00000000001
176 ; 71651.20630253044 ; 428840.39849771024 ; 1.5290655146450642E7 ; 5.114220382272131E7 ; 41888.00000000001
177 ; 71337.63286520695 ; 430386.9878337302 ; 1.5362306352753174E7 ; 5.157104422121902E7 ; 42126.00000000001
178 ; 71432.12247087281 ; 431928.5620887781 ; 1.543364398561838E7 ; 5.200143120905275E7 ; 42364.00000000001
179 ; 71386.7556884113 ; 433465.0677909007 ; 1.5505076108089253E7 ; 5.243335977114153E7 ; 42602.00000000001
180 ; 72052.83784404799 ; 434996.4520455187 ; 1.5576462863777665E7 ; 5.286682483893243E7 ; 42840.00000000001
181 ; 71291.69125648978 ; 436522.662524979 ; 1.5648515701621713E7 ; 5.330182129097795E7 ; 43078.00000000001
