CSV File for the Network on Day 178
1 - Minute m 
2 - Power Consumed at minute m 
3 - Power Produced at minute m 
4 - Energy Consumed since the beginning of the day 
5 - Energy Produced since the beginning of the day 
6 - Energy Lost since the beginning of the day 
 
No Production city : 2, Producer : 1
No Production city : 4, Producer : 1
No Production city : 4, Producer : 1
 
0 ; 33841.59193089744 ; 150262.2568117188 ; 0.0 ; 0.0 ; 0.0
1 ; 35396.61371895937 ; 149911.2640275187 ; 33841.59193089744 ; 150262.2568117188 ; 238.00000000000003
2 ; 36836.032031804 ; 149595.87528766104 ; 69238.20564985681 ; 300173.5208392375 ; 476.00000000000006
3 ; 38614.60310379525 ; 149316.52594766475 ; 106074.23768166082 ; 449769.39612689853 ; 714.0000000000001
4 ; 39779.25985235647 ; 149073.60715115085 ; 144688.84078545606 ; 599085.9220745633 ; 952.0000000000001
5 ; 41193.87075706002 ; 148867.4633317397 ; 184468.10063781252 ; 748159.5292257142 ; 1190.0000000000002
6 ; 42895.83456458307 ; 148698.3899642171 ; 225661.97139487253 ; 897026.9925574539 ; 1428.0000000000002
7 ; 44523.33218327375 ; 148566.6315985431 ; 268557.8059594556 ; 1045725.382521671 ; 1666.0000000000002
8 ; 45209.44820148031 ; 148472.38020685996 ; 313081.13814272935 ; 1194292.0141202142 ; 1904.0000000000002
9 ; 47012.17140284786 ; 148415.7738694292 ; 358290.5863442097 ; 1342764.394327074 ; 2142.0000000000005
10 ; 48661.012439920545 ; 148396.89582048298 ; 405302.75774705753 ; 1491180.1681965033 ; 2380.0000000000005
11 ; 50225.78449177244 ; 148415.7738694292 ; 453963.7701869781 ; 1639577.0640169862 ; 2618.0000000000005
12 ; 51147.72521796947 ; 148472.38020685996 ; 504189.5546787506 ; 1787992.8378864154 ; 2856.0000000000005
13 ; 52950.14589021285 ; 148566.6315985431 ; 555337.2798967201 ; 1936465.2180932753 ; 3094.0000000000005
14 ; 54159.32234712146 ; 148698.3899642171 ; 608287.4257869329 ; 2085031.8496918185 ; 3332.0000000000005
15 ; 55327.75443568936 ; 148867.4633317397 ; 662446.7481340544 ; 2233730.239656036 ; 3570.0000000000005
16 ; 56380.95109707129 ; 149073.60715115085 ; 717774.5025697437 ; 2382597.7029877757 ; 3808.0000000000005
17 ; 57979.15301099741 ; 149316.52594766463 ; 774155.453666815 ; 2531671.3101389264 ; 4046.0000000000005
18 ; 58909.33561985771 ; 149595.87528766115 ; 832134.6066778124 ; 2680987.836086591 ; 4284.000000000001
19 ; 60137.30795318245 ; 149911.2640275187 ; 891043.9422976701 ; 2830583.711374252 ; 4522.000000000001
20 ; 61833.11892463996 ; 150262.2568117188 ; 951181.2502508526 ; 2980494.975401771 ; 4760.000000000001
21 ; 62589.04412797649 ; 150648.37678411618 ; 1013014.3691754926 ; 3130757.2322134897 ; 4998.000000000001
22 ; 63688.188318515255 ; 151069.10847462242 ; 1075603.413303469 ; 3281405.6089976057 ; 5236.000000000001
23 ; 65367.37507827345 ; 151523.90082280728 ; 1139291.6016219843 ; 3432474.717472228 ; 5474.000000000001
24 ; 66372.20359964232 ; 152012.17030001295 ; 1204658.9767002577 ; 3583998.6182950353 ; 5712.000000000001
25 ; 67239.23907441934 ; 152533.30409246925 ; 1271031.1802999 ; 3736010.7885950482 ; 5950.000000000001
26 ; 67989.42161734769 ; 153086.66330948035 ; 1338270.4193743193 ; 3888544.0926875174 ; 6188.000000000001
27 ; 69606.47729837423 ; 153671.5861829369 ; 1406259.840991667 ; 4041630.755996998 ; 6426.000000000001
28 ; 71045.04735724907 ; 154287.39122707755 ; 1475866.3182900413 ; 4195302.3421799345 ; 6664.000000000001
29 ; 71675.59664964738 ; 154933.38033046614 ; 1546911.3656472904 ; 4349589.733407012 ; 6902.000000000001
30 ; 72926.24222503464 ; 155608.84175544465 ; 1618586.9622969378 ; 4504523.113737478 ; 7140.000000000001
31 ; 73756.38284723034 ; 156313.05302376562 ; 1691513.2045219725 ; 4660131.955492923 ; 7378.000000000001
32 ; 74707.06936591143 ; 157045.28367059754 ; 1765269.5873692029 ; 4816445.008516689 ; 7616.000000000001
33 ; 75981.4295758384 ; 157804.79785253713 ; 1839976.6567351143 ; 4973490.292187287 ; 7854.000000000001
34 ; 76330.70899914442 ; 158590.85679859036 ; 1915958.0863109527 ; 5131295.090039823 ; 8092.000000000001
35 ; 77668.0153252159 ; 159402.7210962242 ; 1992288.795310097 ; 5289885.946838413 ; 8330.000000000002
36 ; 78614.33527557805 ; 160239.65280750216 ; 2069956.810635313 ; 5449288.6679346375 ; 8568.000000000002
37 ; 79844.20767135693 ; 161100.91741296375 ; 2148571.145910891 ; 5609528.32074214 ; 8806.000000000002
38 ; 80206.70818607319 ; 161985.78558326745 ; 2228415.3535822476 ; 5770629.238155103 ; 9044.000000000002
39 ; 81448.09178168229 ; 162893.5347806788 ; 2308622.061768321 ; 5932615.023738371 ; 9282.000000000002
40 ; 82293.96436030728 ; 163823.45069424517 ; 2390070.153550003 ; 6095508.5585190505 ; 9520.000000000002
41 ; 83561.20711102363 ; 164774.8285139749 ; 2472364.1179103106 ; 6259332.009213296 ; 9758.000000000002
42 ; 83844.4470534497 ; 165746.97405052424 ; 2555925.3250213345 ; 6424106.837727271 ; 9996.000000000002
43 ; 84615.49253893954 ; 166739.20470783458 ; 2639769.772074784 ; 6589853.811777796 ; 10234.000000000002
44 ; 85475.2219744335 ; 167750.85031684831 ; 2724385.264613724 ; 6756593.016485631 ; 10472.000000000002
45 ; 86254.15926167072 ; 168781.25383891724 ; 2809860.4865881572 ; 6924343.866802479 ; 10710.000000000002
46 ; 86754.28952031188 ; 169829.77194780041 ; 2896114.645849828 ; 7093125.120641396 ; 10948.000000000002
47 ; 87591.41883189496 ; 170895.77549927367 ; 2982868.9353701402 ; 7262954.892589197 ; 11186.000000000002
48 ; 88533.80566236384 ; 171978.64989735396 ; 3070460.3542020353 ; 7433850.668088471 ; 11424.000000000002
49 ; 89181.19099806577 ; 173077.79536600586 ; 3158994.159864399 ; 7605829.317985824 ; 11662.000000000002
50 ; 89477.97906652265 ; 174192.6271349658 ; 3248175.350862465 ; 7778907.11335183 ; 11900.000000000002
51 ; 90650.40287392195 ; 175322.57554800715 ; 3337653.3299289877 ; 7953099.740486796 ; 12138.000000000002
52 ; 91077.14949430995 ; 176467.08610160602 ; 3428303.73280291 ; 8128422.316034803 ; 12376.000000000002
53 ; 91514.99235789478 ; 177625.61942155095 ; 3519380.8822972197 ; 8304889.40213641 ; 12614.000000000002
54 ; 92757.3208896239 ; 178797.6511846017 ; 3610895.8746551145 ; 8482515.02155796 ; 12852.000000000002
55 ; 92757.33348376566 ; 179982.6719918428 ; 3703653.1955447383 ; 8661312.672742562 ; 13090.000000000002
56 ; 94081.56923452725 ; 181180.18719990982 ; 3796410.529028504 ; 8841295.344734404 ; 13328.000000000002
57 ; 93929.83386808382 ; 182389.7167158004 ; 3890492.0982630313 ; 9022475.531934313 ; 13566.000000000002
58 ; 95091.30260752332 ; 183610.79476052272 ; 3984421.9321311153 ; 9204865.248650113 ; 13804.000000000002
59 ; 94986.33654491606 ; 184842.96960638656 ; 4079513.2347386386 ; 9388476.043410636 ; 14042.000000000002
60 ; 95929.60592607214 ; 186085.80329231167 ; 4174499.5712835547 ; 9573319.013017023 ; 14280.000000000002
61 ; 96679.74605988823 ; 187338.87132111687 ; 4270429.177209627 ; 9759404.816309335 ; 14518.000000000002
62 ; 96673.34546492677 ; 188601.76234236447 ; 4367108.923269515 ; 9946743.687630452 ; 14756.000000000002
63 ; 97331.46908069019 ; 189874.0778239668 ; 4463782.268734442 ; 1.0135345449972816E7 ; 14994.000000000002
64 ; 97728.80524305283 ; 191155.43171542144 ; 4561113.737815132 ; 1.0325219527796783E7 ; 15232.000000000002
65 ; 98403.06672467898 ; 192445.450105222 ; 4658842.543058185 ; 1.0516374959512204E7 ; 15470.000000000002
66 ; 98391.13048435445 ; 193743.77087469655 ; 4757245.609782864 ; 1.0708820409617426E7 ; 15708.000000000002
67 ; 99198.54126067093 ; 195050.04335025605 ; 4855636.740267219 ; 1.0902564180492122E7 ; 15946.000000000002
68 ; 99019.73639079106 ; 196363.92795578757 ; 4954835.28152789 ; 1.1097614223842379E7 ; 16184.000000000002
69 ; 99385.82165721913 ; 197685.09586669726 ; 5053855.017918681 ; 1.1293978151798166E7 ; 16422.000000000004
70 ; 99662.37811851414 ; 199013.22866690753 ; 5153240.8395759 ; 1.1491663247664863E7 ; 16660.000000000004
71 ; 99719.48521817298 ; 200348.01800992142 ; 5252903.217694414 ; 1.169067647633177E7 ; 16898.000000000004
72 ; 100218.25749355367 ; 201689.1652849032 ; 5352622.702912587 ; 1.1891024494341692E7 ; 17136.000000000004
73 ; 100660.91540124353 ; 203036.38128857047 ; 5452840.96040614 ; 1.2092713659626596E7 ; 17374.000000000004
74 ; 100749.27654968137 ; 204389.3859035605 ; 5553501.875807384 ; 1.2295750040915167E7 ; 17612.000000000004
75 ; 101063.5459920867 ; 205747.90778380976 ; 5654251.152357065 ; 1.2500139426818727E7 ; 17850.000000000004
76 ; 101318.50934903466 ; 207111.68404738238 ; 5755314.698349152 ; 1.2705887334602537E7 ; 18088.000000000004
77 ; 101297.94542789937 ; 208480.459977084 ; 5856633.207698187 ; 1.2912999018649919E7 ; 18326.000000000004
78 ; 102151.43335867359 ; 209853.98872911872 ; 5957931.153126086 ; 1.3121479478627004E7 ; 18564.000000000004
79 ; 101601.65374093922 ; 211232.03104996728 ; 6060082.58648476 ; 1.3331333467356123E7 ; 18802.000000000004
80 ; 101910.90921436076 ; 212614.35500160727 ; 6161684.240225699 ; 1.354256549840609E7 ; 19040.000000000004
81 ; 102561.1739973353 ; 214000.73569513316 ; 6263595.149440059 ; 1.3755179853407698E7 ; 19278.000000000004
82 ; 102419.00271281906 ; 215390.95503279084 ; 6366156.323437395 ; 1.396918058910283E7 ; 19516.000000000004
83 ; 102442.6548777139 ; 216784.80145839677 ; 6468575.326150213 ; 1.418457154413562E7 ; 19754.000000000004
84 ; 102231.66284572451 ; 218182.06971607596 ; 6571017.981027927 ; 1.4401356345594017E7 ; 19992.000000000004
85 ; 102563.13812083167 ; 219582.56061722495 ; 6673249.6438736515 ; 1.4619538415310092E7 ; 20230.000000000004
86 ; 103004.31448251098 ; 220986.0808155769 ; 6775812.781994483 ; 1.4839120975927318E7 ; 20468.000000000004
87 ; 102931.82617978755 ; 222392.44259022793 ; 6878817.096476994 ; 1.5060107056742894E7 ; 20706.000000000004
88 ; 102536.58566920734 ; 223801.46363646298 ; 6981748.922656782 ; 1.528249949933312E7 ; 20944.000000000004
89 ; 102877.11653903505 ; 225212.96686420898 ; 7084285.508325989 ; 1.5506300962969584E7 ; 21182.000000000004
90 ; 102551.0726082693 ; 226626.78020392754 ; 7187162.624865024 ; 1.5731513929833794E7 ; 21420.000000000004
91 ; 102711.4767814384 ; 228042.73641975404 ; 7289713.697473294 ; 1.5958140710037721E7 ; 21658.000000000004
92 ; 102742.58878645548 ; 229460.67292968207 ; 7392425.174254732 ; 1.6186183446457475E7 ; 21896.000000000004
93 ; 102921.91460174264 ; 230880.4316325864 ; 7495167.763041188 ; 1.6415644119387157E7 ; 22134.000000000004
94 ; 102238.03015217112 ; 232301.85874187812 ; 7598089.67764293 ; 1.6646524551019743E7 ; 22372.000000000004
95 ; 102321.43995573108 ; 233724.80462558015 ; 7700327.707795101 ; 1.6878826409761623E7 ; 22610.000000000004
96 ; 102658.10089144108 ; 235149.1236526142 ; 7802649.147750832 ; 1.7112551214387204E7 ; 22848.000000000004
97 ; 102185.43777348532 ; 236574.67404508963 ; 7905307.248642273 ; 1.734770033803982E7 ; 23086.000000000004
98 ; 101744.56214678055 ; 238001.3177363875 ; 8007492.686415759 ; 1.758427501208491E7 ; 23324.000000000004
99 ; 101747.71483609133 ; 239428.92023483425 ; 8109237.248562539 ; 1.7822276329821296E7 ; 23562.000000000004
100 ; 101140.21515327416 ; 240857.3504927646 ; 8210984.963398631 ; 1.806170525005613E7 ; 23800.000000000004
101 ; 101347.61892474718 ; 242286.48078077566 ; 8312125.178551905 ; 1.8302562600548893E7 ; 24038.000000000004
102 ; 101295.48535628409 ; 243716.18656697846 ; 8413472.797476651 ; 1.854484908132967E7 ; 24276.000000000004
103 ; 100959.19835891358 ; 245146.3464010589 ; 8514768.282832935 ; 1.878856526789665E7 ; 24514.000000000004
104 ; 100590.53073385979 ; 246576.84180296358 ; 8615727.48119185 ; 1.9033711614297707E7 ; 24752.000000000004
105 ; 99819.67931739517 ; 248007.55715603172 ; 8716318.011925709 ; 1.928028845610067E7 ; 24990.000000000004
106 ; 99751.24870580318 ; 249438.3796043998 ; 8816137.691243103 ; 1.95282960132567E7 ; 25228.000000000004
107 ; 99233.41178617191 ; 250869.19895450986 ; 8915888.939948905 ; 1.9777734392861098E7 ; 25466.000000000004
108 ; 99034.98978926982 ; 252299.90758055856 ; 9015122.351735078 ; 2.002860359181561E7 ; 25704.000000000004
109 ; 98725.52776757967 ; 253730.40033373015 ; 9114157.341524348 ; 2.0280903499396168E7 ; 25942.000000000004
110 ; 98432.21415418008 ; 255160.57445505966 ; 9212882.869291928 ; 2.0534633899729896E7 ; 26180.000000000004
111 ; 98127.01105696251 ; 256590.32949178037 ; 9311315.083446108 ; 2.0789794474184956E7 ; 26418.000000000004
112 ; 97439.57170811927 ; 258019.56721701322 ; 9409442.094503071 ; 2.1046384803676736E7 ; 26656.000000000004
113 ; 97004.48456212993 ; 259448.19155266217 ; 9506881.66621119 ; 2.130440437089375E7 ; 26894.000000000004
114 ; 97105.89199159948 ; 260876.10849538335 ; 9603886.15077332 ; 2.156385256244641E7 ; 27132.000000000004
115 ; 96032.45122106871 ; 262303.2260455022 ; 9700992.04276492 ; 2.1824728670941796E7 ; 27370.000000000004
116 ; 95758.06383210543 ; 263729.45413875685 ; 9797024.49398599 ; 2.2087031896987297E7 ; 27608.000000000004
117 ; 95120.30589979778 ; 265154.70458075084 ; 9892782.557818096 ; 2.2350761351126052E7 ; 27846.000000000004
118 ; 94625.08406551307 ; 266578.89098400285 ; 9987902.863717893 ; 2.2615916055706803E7 ; 28084.000000000004
119 ; 94641.31093029909 ; 268001.92870748596 ; 1.0082527947783407E7 ; 2.2882494946690805E7 ; 28322.000000000004
120 ; 93385.93626356985 ; 269423.7347985534 ; 1.0177169258713705E7 ; 2.315049687539829E7 ; 28560.000000000004
121 ; 92814.39985792636 ; 270844.2279371506 ; 1.0270555194977276E7 ; 2.3419920610196844E7 ; 28798.000000000004
122 ; 92152.40059080749 ; 272263.3283822201 ; 1.0363369594835203E7 ; 2.3690764838133994E7 ; 29036.000000000004
123 ; 91619.71068860465 ; 273680.9579202064 ; 1.045552199542601E7 ; 2.3963028166516215E7 ; 29274.000000000004
124 ; 91120.82597009133 ; 275097.0398155748 ; 1.0547141706114614E7 ; 2.423670912443642E7 ; 29512.000000000004
125 ; 90828.13701047242 ; 276511.4987632599 ; 1.0638262532084705E7 ; 2.4511806164251994E7 ; 29750.000000000004
126 ; 89907.10962301366 ; 277924.26084296376 ; 1.0729090669095177E7 ; 2.4788317663015254E7 ; 29988.000000000004
127 ; 88942.42705020095 ; 279335.25347522664 ; 1.081899777871819E7 ; 2.5066241923858218E7 ; 30226.000000000004
128 ; 88405.06975556977 ; 280744.40537919785 ; 1.0907940205768391E7 ; 2.5345577177333444E7 ; 30464.000000000004
129 ; 87948.53070672184 ; 282151.6465320347 ; 1.099634527552396E7 ; 2.5626321582712643E7 ; 30702.000000000004
130 ; 86981.08831075924 ; 283556.90812986315 ; 1.1084293806230683E7 ; 2.590847322924468E7 ; 30940.000000000004
131 ; 86093.94396327977 ; 284960.1225502363 ; 1.1171274894541442E7 ; 2.6192030137374543E7 ; 31178.000000000004
132 ; 85404.35035761521 ; 286361.2233160269 ; 1.1257368838504722E7 ; 2.647699025992478E7 ; 31416.000000000004
133 ; 84379.4672946257 ; 287760.14506069734 ; 1.1342773188862337E7 ; 2.676335148324081E7 ; 31654.000000000004
134 ; 83912.76518592637 ; 289156.8234948882 ; 1.1427152656156963E7 ; 2.7051111628301505E7 ; 31892.000000000004
135 ; 83086.98168447833 ; 290551.19537427323 ; 1.1511065421342889E7 ; 2.7340268451796394E7 ; 32130.000000000004
136 ; 81968.13262546324 ; 291943.1984686273 ; 1.1594152403027367E7 ; 2.7630819647170667E7 ; 32368.000000000004
137 ; 81155.76812043182 ; 293332.7715320589 ; 1.167612053565283E7 ; 2.7922762845639292E7 ; 32606.000000000004
138 ; 80616.71002628583 ; 294719.8542743594 ; 1.1757276303773262E7 ; 2.821609561717135E7 ; 32844.00000000001
139 ; 79185.55463529254 ; 296104.38733342336 ; 1.1837893013799548E7 ; 2.851081547144571E7 ; 33082.00000000001
140 ; 78099.80799353738 ; 297486.3122486972 ; 1.191707856843484E7 ; 2.8806919858779132E7 ; 33320.00000000001
141 ; 77312.82844668471 ; 298865.57143561344 ; 1.1995178376428377E7 ; 2.9104406171027828E7 ; 33558.00000000001
142 ; 76666.98713140732 ; 300242.1081609719 ; 1.2072491204875061E7 ; 2.940327174246344E7 ; 33796.00000000001
143 ; 75369.6682852012 ; 301615.86651922995 ; 1.2149158192006469E7 ; 2.9703513850624412E7 ; 34034.00000000001
144 ; 74588.87642261447 ; 302986.7914096638 ; 1.222452786029167E7 ; 3.0005129717143644E7 ; 34272.00000000001
145 ; 74358.23290450111 ; 304354.8285143671 ; 1.2299116736714283E7 ; 3.0308116508553308E7 ; 34510.00000000001
146 ; 74266.21791347665 ; 305719.92427705426 ; 1.2373474969618784E7 ; 3.0612471337067675E7 ; 34748.00000000001
147 ; 73854.29486261129 ; 307082.02588263404 ; 1.2447741187532261E7 ; 3.091819126134473E7 ; 34986.00000000001
148 ; 73722.99524085833 ; 308441.0812375257 ; 1.2521595482394872E7 ; 3.1225273287227366E7 ; 35224.00000000001
149 ; 73619.39968802115 ; 309797.0389506867 ; 1.259531847763573E7 ; 3.153371436846489E7 ; 35462.00000000001
150 ; 73402.52217116507 ; 311149.8483153234 ; 1.266893787732375E7 ; 3.1843511407415576E7 ; 35700.00000000001
151 ; 72766.93021903755 ; 312499.45929126034 ; 1.2742340399494916E7 ; 3.21546612557309E7 ; 35938.00000000001
152 ; 72556.01217724747 ; 313845.8224879396 ; 1.2815107329713954E7 ; 3.246716071502216E7 ; 36176.00000000001
153 ; 72397.8739538753 ; 315188.88914802717 ; 1.2887663341891201E7 ; 3.27810065375101E7 ; 36414.00000000001
154 ; 72229.5497670884 ; 316528.61113160267 ; 1.2960061215845076E7 ; 3.3096195426658127E7 ; 36652.00000000001
155 ; 71805.56698460739 ; 317864.94090090925 ; 1.3032290765612165E7 ; 3.341272403778973E7 ; 36890.00000000001
156 ; 71775.35765432191 ; 319197.8315056425 ; 1.3104096332596771E7 ; 3.373058897869064E7 ; 37128.00000000001
157 ; 71424.1173129307 ; 320527.2365687577 ; 1.3175871690251093E7 ; 3.404978681019628E7 ; 37366.00000000001
158 ; 71418.29128245429 ; 321853.11027277424 ; 1.3247295807564024E7 ; 3.437031404676504E7 ; 37604.00000000001
159 ; 70954.63826091638 ; 323175.40734656085 ; 1.3318714098846478E7 ; 3.469216715703781E7 ; 37842.00000000001
160 ; 70967.58909950886 ; 324494.0830525805 ; 1.3389668737107394E7 ; 3.501534256438437E7 ; 38080.00000000001
161 ; 70502.35996936075 ; 325809.09317457874 ; 1.3460636326206904E7 ; 3.5339836647436954E7 ; 38318.00000000001
162 ; 70053.84209773986 ; 327120.3940056998 ; 1.3531138686176265E7 ; 3.566564574061153E7 ; 38556.00000000001
163 ; 69943.72442730839 ; 328427.9423370119 ; 1.3601192528274005E7 ; 3.599276613461723E7 ; 38794.00000000001
164 ; 69676.18526435847 ; 329731.6954464284 ; 1.3671136252701314E7 ; 3.6321194076954246E7 ; 39032.00000000001
165 ; 69077.29918708233 ; 331031.6110880092 ; 1.3740812437965672E7 ; 3.665092577240068E7 ; 39270.00000000001
166 ; 68870.43479381749 ; 332327.64748162846 ; 1.3809889737152755E7 ; 3.6981957383488685E7 ; 39508.00000000001
167 ; 67814.45000351111 ; 333619.7633029941 ; 1.3878760171946572E7 ; 3.731428503097031E7 ; 39746.00000000001
168 ; 67892.66021154872 ; 334907.9176740078 ; 1.3946574621950082E7 ; 3.764790479427331E7 ; 39984.00000000001
169 ; 67357.16435138606 ; 336192.07015345164 ; 1.401446728216163E7 ; 3.7982812711947314E7 ; 40222.00000000001
170 ; 67451.56565679322 ; 337472.1807279886 ; 1.4081824446513018E7 ; 3.831900478210077E7 ; 40460.00000000001
171 ; 67136.43949422459 ; 338748.2098034683 ; 1.414927601216981E7 ; 3.8656476962828755E7 ; 40698.00000000001
172 ; 66582.8286058532 ; 340020.11819652375 ; 1.4216412451664034E7 ; 3.8995225172632225E7 ; 40936.00000000001
173 ; 66468.70260557883 ; 341287.8671264498 ; 1.4282995280269887E7 ; 3.933524529082875E7 ; 41174.00000000001
174 ; 66824.99999913567 ; 342551.4182073539 ; 1.4349463982875466E7 ; 3.96765331579552E7 ; 41412.00000000001
175 ; 66757.53675462754 ; 343810.7334405676 ; 1.4416288982874602E7 ; 4.0019084576162554E7 ; 41650.00000000001
176 ; 66874.40353908009 ; 345065.7752073107 ; 1.4483046519629229E7 ; 4.0362895309603125E7 ; 41888.00000000001
177 ; 66855.8492908834 ; 346316.50626159855 ; 1.4549920923168309E7 ; 4.0707961084810436E7 ; 42126.00000000001
178 ; 67289.01161019965 ; 347562.88972338394 ; 1.4616776772459192E7 ; 4.105427759107204E7 ; 42364.00000000001
179 ; 67548.69647874631 ; 348804.8890719251 ; 1.4684065784069391E7 ; 4.140184048079542E7 ; 42602.00000000001
180 ; 67410.06155280763 ; 350042.46813937137 ; 1.4751614480548138E7 ; 4.175064536986735E7 ; 42840.00000000001
181 ; 67959.13415568438 ; 351275.59110455983 ; 1.4819024542100945E7 ; 4.210068783800672E7 ; 43078.00000000001
