CSV File for the Network on Day 345
1 - Minute m 
2 - Power Consumed at minute m 
3 - Power Produced at minute m 
4 - Energy Consumed since the beginning of the day 
5 - Energy Produced since the beginning of the day 
6 - Energy Lost since the beginning of the day 
 
No Production city : 2, Producer : 1
No Production city : 4, Producer : 1
No Production city : 4, Producer : 1
 
0 ; 56878.64985566448 ; 186952.36444775408 ; 0.0 ; 0.0 ; 0.0
1 ; 57981.15565837623 ; 186611.85619005057 ; 56878.64985566448 ; 186952.36444775408 ; 238.00000000000003
2 ; 58733.67829482018 ; 186306.2277779232 ; 114859.80551404071 ; 373564.22063780465 ; 476.00000000000006
3 ; 59437.22298422203 ; 186035.79393828395 ; 173593.48380886088 ; 559870.4484157278 ; 714.0000000000001
4 ; 59886.57185082656 ; 185800.8360301948 ; 233030.7067930829 ; 745906.2423540117 ; 952.0000000000001
5 ; 60502.02067675463 ; 185601.6007216772 ; 292917.2786439095 ; 931707.0783842065 ; 1190.0000000000002
6 ; 61468.06670821738 ; 185438.29881101366 ; 353419.29932066414 ; 1117308.6791058837 ; 1428.0000000000002
7 ; 62075.32869233129 ; 185311.1042055853 ; 414887.3660288815 ; 1302746.9779168973 ; 1666.0000000000002
8 ; 63104.02944334489 ; 185220.15306976327 ; 476962.6947212128 ; 1488058.0821224826 ; 1904.0000000000002
9 ; 63643.16820252885 ; 185165.5431516205 ; 540066.7241645576 ; 1673278.2351922458 ; 2142.0000000000005
10 ; 64195.53914623801 ; 185147.33329628228 ; 603709.8923670865 ; 1858443.7783438663 ; 2380.0000000000005
11 ; 65243.244086352744 ; 185165.5431516205 ; 667905.4315133245 ; 2043591.1116401486 ; 2618.0000000000005
12 ; 65946.90694382913 ; 185220.15306976327 ; 733148.6755996773 ; 2228756.654791769 ; 2856.0000000000005
13 ; 66229.62615343505 ; 185311.1042055853 ; 799095.5825435064 ; 2413976.8078615326 ; 3094.0000000000005
14 ; 66845.73916379931 ; 185438.2988110136 ; 865325.2086969415 ; 2599287.9120671176 ; 3332.0000000000005
15 ; 67381.81932575743 ; 185601.6007216772 ; 932170.9478607408 ; 2784726.2108781314 ; 3570.0000000000005
16 ; 68052.37646102505 ; 185800.8360301948 ; 999552.7671864983 ; 2970327.8115998087 ; 3808.0000000000005
17 ; 68826.52257353702 ; 186035.79393828387 ; 1067605.1436475234 ; 3156128.6476300037 ; 4046.0000000000005
18 ; 69128.37158500934 ; 186306.2277779233 ; 1136431.6662210603 ; 3342164.4415682876 ; 4284.000000000001
19 ; 69751.0057580309 ; 186611.85619005046 ; 1205560.0378060697 ; 3528470.669346211 ; 4522.000000000001
20 ; 70459.57240449521 ; 186952.36444775414 ; 1275311.0435641005 ; 3715082.5255362615 ; 4760.000000000001
21 ; 70752.56999702177 ; 187327.40590965666 ; 1345770.6159685957 ; 3902034.889984016 ; 4998.000000000001
22 ; 71445.85249767969 ; 187736.60358818545 ; 1416523.1859656174 ; 4089362.2958936724 ; 5236.000000000001
23 ; 71914.7589540727 ; 188179.55181671388 ; 1487969.038463297 ; 4277098.899481858 ; 5474.000000000001
24 ; 72574.25785586095 ; 188655.81799911408 ; 1559883.7974173697 ; 4465278.451298572 ; 5712.000000000001
25 ; 73290.84372470972 ; 189164.94442510113 ; 1632458.0552732307 ; 4653934.269297686 ; 5950.000000000001
26 ; 73447.23339252402 ; 189706.45013484 ; 1705748.8989979404 ; 4843099.213722788 ; 6188.000000000001
27 ; 74004.08640090375 ; 190279.83281662772 ; 1779196.1323904644 ; 5032805.663857628 ; 6426.000000000001
28 ; 74492.14204959842 ; 190884.57072201467 ; 1853200.2187913682 ; 5223085.4966742555 ; 6664.000000000001
29 ; 74927.06574191918 ; 191520.1245834812 ; 1927692.3608409667 ; 5413970.06739627 ; 6902.000000000001
30 ; 75690.04446244227 ; 192185.9395206926 ; 2002619.426582886 ; 5605490.191979751 ; 7140.000000000001
31 ; 75908.43048300513 ; 192881.44692240053 ; 2078309.471045328 ; 5797676.131500443 ; 7378.000000000001
32 ; 76312.03560686564 ; 193606.06629220722 ; 2154217.9015283333 ; 5990557.578422844 ; 7616.000000000001
33 ; 76801.62981387058 ; 194359.20704761954 ; 2230529.937135199 ; 6184163.644715052 ; 7854.000000000001
34 ; 77269.88365813396 ; 195140.27026308808 ; 2307331.5669490695 ; 6378522.851762672 ; 8092.000000000001
35 ; 77828.78322354516 ; 195948.65034899715 ; 2384601.4506072034 ; 6573663.12202576 ; 8330.000000000002
36 ; 77993.93691129076 ; 196783.73665984496 ; 2462430.2338307486 ; 6769611.772374757 ; 8568.000000000002
37 ; 78678.17824189963 ; 197644.91502609148 ; 2540424.1707420396 ; 6966395.509034602 ; 8806.000000000002
38 ; 79248.65761538365 ; 198531.5692053453 ; 2619102.3489839393 ; 7164040.424060693 ; 9044.000000000002
39 ; 79661.79859044391 ; 199443.08224969378 ; 2698351.006599323 ; 7362571.993266039 ; 9282.000000000002
40 ; 80213.93279659953 ; 200378.837787035 ; 2778012.805189767 ; 7562015.075515732 ; 9520.000000000002
41 ; 79932.0461689664 ; 201338.22121524886 ; 2858226.7379863663 ; 7762393.913302767 ; 9758.000000000002
42 ; 80805.19475134181 ; 202320.62080892778 ; 2938158.7841553325 ; 7963732.134518016 ; 9996.000000000002
43 ; 81017.74904895516 ; 203325.42873918454 ; 3018963.9789066743 ; 8166052.7553269435 ; 10234.000000000002
44 ; 81226.72390070846 ; 204352.04200775237 ; 3099981.7279556296 ; 8369378.184066128 ; 10472.000000000002
45 ; 81643.40356120141 ; 205399.86329720565 ; 3181208.451856338 ; 8573730.22607388 ; 10710.000000000002
46 ; 82749.60171145666 ; 206468.301739645 ; 3262851.8554175394 ; 8779130.089371085 ; 10948.000000000002
47 ; 82060.08695908164 ; 207556.77360662437 ; 3345601.457128996 ; 8985598.39111073 ; 11186.000000000002
48 ; 82619.00490928016 ; 208664.70292345097 ; 3427661.5440880777 ; 9193155.164717354 ; 11424.000000000002
49 ; 83201.86445999978 ; 209791.52201126277 ; 3510280.548997358 ; 9401819.867640804 ; 11662.000000000002
50 ; 83276.54162326167 ; 210936.67196049742 ; 3593482.413457358 ; 9611611.389652068 ; 11900.000000000002
51 ; 83784.16449901651 ; 212099.60303950813 ; 3676758.9550806195 ; 9822548.061612565 ; 12138.000000000002
52 ; 84048.4091919211 ; 213279.77504217246 ; 3760543.119579636 ; 1.0034647664652074E7 ; 12376.000000000002
53 ; 83740.83467860197 ; 214476.6575783742 ; 3844591.528771557 ; 1.0247927439694246E7 ; 12614.000000000002
54 ; 84194.10193469633 ; 215689.73031123777 ; 3928332.363450159 ; 1.046240409727262E7 ; 12852.000000000002
55 ; 84091.93050696237 ; 216918.4831449454 ; 4012526.4653848554 ; 1.0678093827583857E7 ; 13090.000000000002
56 ; 84821.9584096965 ; 218162.41636690128 ; 4096618.3958918178 ; 1.0895012310728801E7 ; 13328.000000000002
57 ; 84946.14203969424 ; 219421.0407478968 ; 4181440.354301514 ; 1.1113174727095703E7 ; 13566.000000000002
58 ; 85289.51205232443 ; 220693.8776038173 ; 4266386.496341208 ; 1.13325957678436E7 ; 13804.000000000002
59 ; 85650.23806837188 ; 221980.45882228838 ; 4351676.008393533 ; 1.1553289645447418E7 ; 14042.000000000002
60 ; 85446.9707763383 ; 223280.326857508 ; 4437326.246461905 ; 1.1775270104269706E7 ; 14280.000000000002
61 ; 85814.47774132724 ; 224593.03469635226 ; 4522773.217238243 ; 1.1998550431127213E7 ; 14518.000000000002
62 ; 86225.3371514951 ; 225918.1457986755 ; 4608587.69497957 ; 1.2223143465823565E7 ; 14756.000000000002
63 ; 86531.78169379974 ; 227255.23401455377 ; 4694813.032131065 ; 1.244906161162224E7 ; 14994.000000000002
64 ; 86337.52945851629 ; 228603.88348105305 ; 4781344.813824864 ; 1.2676316845636794E7 ; 15232.000000000002
65 ; 86623.26543995718 ; 229963.68850093128 ; 4867682.34328338 ; 1.2904920729117848E7 ; 15470.000000000002
66 ; 86602.05612556776 ; 231334.25340551697 ; 4954305.608723338 ; 1.313488441761878E7 ; 15708.000000000002
67 ; 86948.91704833989 ; 232715.1924038438 ; 5040907.664848905 ; 1.3366218671024296E7 ; 15946.000000000002
68 ; 86713.78040816801 ; 234106.12941996328 ; 5127856.581897245 ; 1.359893386342814E7 ; 16184.000000000002
69 ; 87415.1757862229 ; 235506.69792020303 ; 5214570.362305413 ; 1.3833039992848104E7 ; 16422.000000000004
70 ; 87240.55777850881 ; 236916.54073199572 ; 5301985.538091636 ; 1.4068546690768307E7 ; 16660.000000000004
71 ; 87084.42924612325 ; 238335.3098557615 ; 5389226.095870145 ; 1.4305463231500303E7 ; 16898.000000000004
72 ; 87750.59025014611 ; 239762.66627119845 ; 5476310.525116268 ; 1.4543798541356064E7 ; 17136.000000000004
73 ; 87619.72709373703 ; 241198.27973920872 ; 5564061.115366414 ; 1.4783561207627263E7 ; 17374.000000000004
74 ; 87831.9557250636 ; 242641.82860057347 ; 5651680.842460151 ; 1.5024759487366471E7 ; 17612.000000000004
75 ; 87743.24755164805 ; 244092.99957237954 ; 5739512.798185214 ; 1.5267401315967046E7 ; 17850.000000000004
76 ; 88083.6094495419 ; 245551.48754309947 ; 5827256.045736862 ; 1.5511494315539425E7 ; 18088.000000000004
77 ; 88185.12366414176 ; 247016.99536713088 ; 5915339.6551864045 ; 1.5757045803082524E7 ; 18326.000000000004
78 ; 87991.25471265386 ; 248489.2336595154 ; 6003524.778850546 ; 1.6004062798449654E7 ; 18564.000000000004
79 ; 87771.31456661744 ; 249967.92059147358 ; 6091516.0335632 ; 1.625255203210917E7 ; 18802.000000000004
80 ; 88011.96881585752 ; 251452.78168732053 ; 6179287.348129818 ; 1.6502519952700643E7 ; 19040.000000000004
81 ; 88272.35740418115 ; 252943.54962325457 ; 6267299.316945676 ; 1.6753972734387964E7 ; 19278.000000000004
82 ; 87758.6152910557 ; 254439.96402845264 ; 6355571.674349857 ; 1.700691628401122E7 ; 19516.000000000004
83 ; 88440.39805237178 ; 255941.7712888451 ; 6443330.289640912 ; 1.726135624803967E7 ; 19754.000000000004
84 ; 87790.53351383936 ; 257448.72435389133 ; 6531770.687693284 ; 1.7517298019328516E7 ; 19992.000000000004
85 ; 88038.58117539177 ; 258960.58254663064 ; 6619561.221207123 ; 1.7774746743682407E7 ; 20230.000000000004
86 ; 88076.95521483157 ; 260477.11137723795 ; 6707599.802382515 ; 1.8033707326229036E7 ; 20468.000000000004
87 ; 87879.92925250232 ; 261998.0823602769 ; 6795676.757597347 ; 1.8294184437606275E7 ; 20706.000000000004
88 ; 87794.72908014333 ; 263523.2728358043 ; 6883556.686849849 ; 1.855618251996655E7 ; 20944.000000000004
89 ; 88077.91876821854 ; 265052.465794453 ; 6971351.415929993 ; 1.8819705792802356E7 ; 21182.000000000004
90 ; 88253.88527528624 ; 266585.4497065853 ; 7059429.334698211 ; 1.9084758258596808E7 ; 21420.000000000004
91 ; 87855.4098202349 ; 268122.01835559006 ; 7147683.219973498 ; 1.9351343708303392E7 ; 21658.000000000004
92 ; 87711.42406013035 ; 269661.97067536955 ; 7235538.629793733 ; 1.961946572665898E7 ; 21896.000000000004
93 ; 87190.04666954138 ; 271205.1105920431 ; 7323250.053853864 ; 1.988912769733435E7 ; 22134.000000000004
94 ; 87587.65527525682 ; 272751.24686987663 ; 7410440.100523405 ; 2.0160332807926394E7 ; 22372.000000000004
95 ; 87185.05819857033 ; 274300.1929614331 ; 7498027.755798661 ; 2.043308405479627E7 ; 22610.000000000004
96 ; 87603.85931063337 ; 275851.76686192106 ; 7585212.813997231 ; 2.0707384247757703E7 ; 22848.000000000004
97 ; 87317.42276122258 ; 277405.79096771084 ; 7672816.673307865 ; 2.0983236014619622E7 ; 23086.000000000004
98 ; 87263.33198373347 ; 278962.09193897404 ; 7760134.096069087 ; 2.1260641805587333E7 ; 23324.000000000004
99 ; 87228.46871867057 ; 280520.50056639523 ; 7847397.428052821 ; 2.1539603897526305E7 ; 23562.000000000004
100 ; 86635.2058712928 ; 282080.8516418948 ; 7934625.8967714915 ; 2.1820124398092702E7 ; 23800.000000000004
101 ; 86995.74509347999 ; 283642.983833298 ; 8021261.102642784 ; 2.2102205249734595E7 ; 24038.000000000004
102 ; 86233.8048256506 ; 285206.73956287646 ; 8108256.847736264 ; 2.2385848233567894E7 ; 24276.000000000004
103 ; 86219.80129616085 ; 286771.9648896867 ; 8194490.652561914 ; 2.267105497313077E7 ; 24514.000000000004
104 ; 86433.41045834779 ; 288338.50939562486 ; 8280710.453858075 ; 2.2957826938020457E7 ; 24752.000000000004
105 ; 85790.49495976661 ; 289906.22607511445 ; 8367143.8643164225 ; 2.3246165447416082E7 ; 24990.000000000004
106 ; 85459.47819901869 ; 291474.9712283405 ; 8452934.359276189 ; 2.3536071673491195E7 ; 25228.000000000004
107 ; 85701.7925199743 ; 293044.6043579449 ; 8538393.837475207 ; 2.3827546644719534E7 ; 25466.000000000004
108 ; 85142.0306906273 ; 294614.9880690909 ; 8624095.62999518 ; 2.412059124907748E7 ; 25704.000000000004
109 ; 85212.48018622524 ; 296185.9879728112 ; 8709237.660685807 ; 2.441520623714657E7 ; 25942.000000000004
110 ; 85467.45941444069 ; 297757.4725925474 ; 8794450.140872033 ; 2.4711392225119382E7 ; 26180.000000000004
111 ; 84828.95087052624 ; 299329.3132737923 ; 8879917.600286474 ; 2.500914969771193E7 ; 26418.000000000004
112 ; 83903.26267699453 ; 300901.3840967452 ; 8964746.551157001 ; 2.530847901098572E7 ; 26656.000000000004
113 ; 84048.36283608575 ; 302473.56179189426 ; 9048649.813833997 ; 2.5609380395082466E7 ; 26894.000000000004
114 ; 83886.81744259855 ; 304045.7256584337 ; 9132698.176670082 ; 2.591185395687436E7 ; 27132.000000000004
115 ; 83360.69526512282 ; 305617.75748543406 ; 9216584.99411268 ; 2.6215899682532795E7 ; 27370.000000000004
116 ; 83114.97803512555 ; 307189.541475678 ; 9299945.689377803 ; 2.652151744001823E7 ; 27608.000000000004
117 ; 82759.55799299788 ; 308760.9641720781 ; 9383060.66741293 ; 2.682870698149391E7 ; 27846.000000000004
118 ; 82467.51213767366 ; 310331.91438659525 ; 9465820.225405928 ; 2.7137467945665985E7 ; 28084.000000000004
119 ; 82489.34822706819 ; 311902.28313157585 ; 9548287.737543602 ; 2.7447799860052582E7 ; 28322.000000000004
120 ; 81847.47040417224 ; 313471.9635534311 ; 9630777.08577067 ; 2.775970214318416E7 ; 28560.000000000004
121 ; 81600.24284389851 ; 315040.8508685797 ; 9712624.556174843 ; 2.807317410673759E7 ; 28798.000000000004
122 ; 81065.66219146075 ; 316608.84230157937 ; 9794224.79901874 ; 2.838821495760617E7 ; 29036.000000000004
123 ; 80826.99533271136 ; 318175.83702537464 ; 9875290.4612102 ; 2.870482379990775E7 ; 29274.000000000004
124 ; 80710.74695317636 ; 319741.73610358906 ; 9956117.456542911 ; 2.9022999636933126E7 ; 29512.000000000004
125 ; 80484.19761197135 ; 321306.4424347929 ; 1.0036828203496087E7 ; 2.9342741373036716E7 ; 29750.000000000004
126 ; 79811.74336824763 ; 322869.8606986784 ; 1.0117312401108058E7 ; 2.9664047815471508E7 ; 29988.000000000004
127 ; 79405.15589821068 ; 324431.8973040787 ; 1.0197124144476306E7 ; 2.9986917676170185E7 ; 30226.000000000004
128 ; 79083.56328820433 ; 325992.4603387647 ; 1.0276529300374517E7 ; 3.0311349573474266E7 ; 30464.000000000004
129 ; 79120.57594554384 ; 327551.4595209607 ; 1.0355612863662722E7 ; 3.063734203381303E7 ; 30702.000000000004
130 ; 78217.2425628023 ; 329108.80615251686 ; 1.0434733439608265E7 ; 3.096489349333399E7 ; 30940.000000000004
131 ; 78021.01537242184 ; 330664.41307368345 ; 1.0512950682171067E7 ; 3.1294002299486507E7 ; 31178.000000000004
132 ; 77306.16074168897 ; 332218.19461942825 ; 1.0590971697543489E7 ; 3.162466671256019E7 ; 31416.000000000004
133 ; 76829.76682690707 ; 333770.0665772445 ; 1.0668277858285177E7 ; 3.195688490717962E7 ; 31654.000000000004
134 ; 76346.19597265123 ; 335319.94614639675 ; 1.0745107625112085E7 ; 3.2290654973756865E7 ; 31892.000000000004
135 ; 75921.54344583627 ; 336867.75189855404 ; 1.0821453821084736E7 ; 3.262597491990326E7 ; 32130.000000000004
136 ; 75415.96631225823 ; 338413.4037397618 ; 1.0897375364530573E7 ; 3.2962842671801813E7 ; 32368.000000000004
137 ; 74619.32604339284 ; 339956.8228737037 ; 1.097279133084283E7 ; 3.3301256075541575E7 ; 32606.000000000004
138 ; 74525.83310143335 ; 341497.93176621036 ; 1.1047410656886224E7 ; 3.3641212898415275E7 ; 32844.00000000001
139 ; 73571.51558721685 ; 343036.65411096864 ; 1.1121936489987656E7 ; 3.398271083018149E7 ; 33082.00000000001
140 ; 73900.64455337223 ; 344572.91479639005 ; 1.1195508005574873E7 ; 3.4325747484292455E7 ; 33320.00000000001
141 ; 72791.66375134035 ; 346106.63987359666 ; 1.1269408650128245E7 ; 3.4670320399088845E7 ; 33558.00000000001
142 ; 71920.70863971917 ; 347637.75652548566 ; 1.1342200313879585E7 ; 3.501642703896244E7 ; 33796.00000000001
143 ; 71652.43627191216 ; 349166.1930368336 ; 1.1414121022519303E7 ; 3.5364064795487925E7 ; 34034.00000000001
144 ; 71223.54276033348 ; 350691.87876540393 ; 1.1485773458791215E7 ; 3.571323098852476E7 ; 34272.00000000001
145 ; 70795.1671952752 ; 352214.7441140218 ; 1.1556997001551548E7 ; 3.606392286729016E7 ; 34510.00000000001
146 ; 71035.42939108275 ; 353734.7205035826 ; 1.1627792168746823E7 ; 3.641613761140418E7 ; 34748.00000000001
147 ; 70175.97002420055 ; 355251.7403469603 ; 1.1698827598137906E7 ; 3.6769872331907764E7 ; 34986.00000000001
148 ; 70768.36082073269 ; 356765.7370237848 ; 1.1769003568162106E7 ; 3.7125124072254725E7 ; 35224.00000000001
149 ; 70386.7619306334 ; 358276.6448560564 ; 1.1839771928982839E7 ; 3.748188980927851E7 ; 35462.00000000001
150 ; 70371.17363322972 ; 359784.3990845689 ; 1.1910158690913472E7 ; 3.784016645413457E7 ; 35700.00000000001
151 ; 69985.37143624813 ; 361288.9358461122 ; 1.1980529864546701E7 ; 3.819995085321914E7 ; 35938.00000000001
152 ; 70082.92475516365 ; 362790.19215142704 ; 1.2050515235982949E7 ; 3.856123978906525E7 ; 36176.00000000001
153 ; 69529.61749782442 ; 364288.1058638853 ; 1.2120598160738112E7 ; 3.892402998121668E7 ; 36414.00000000001
154 ; 69467.56036193878 ; 365782.615678871 ; 1.2190127778235937E7 ; 3.928831808708056E7 ; 36652.00000000001
155 ; 69599.90329157183 ; 367273.6611038363 ; 1.2259595338597875E7 ; 3.965410070275943E7 ; 36890.00000000001
156 ; 69504.16332759186 ; 368761.1824390104 ; 1.2329195241889447E7 ; 4.002137436386327E7 ; 37128.00000000001
157 ; 68862.33582376043 ; 370245.12075873645 ; 1.2398699405217038E7 ; 4.0390135546302274E7 ; 37366.00000000001
158 ; 68810.49901459368 ; 371725.41789341654 ; 1.24675617410408E7 ; 4.076038066706101E7 ; 37604.00000000001
159 ; 68665.05579687614 ; 373202.01641204284 ; 1.2536372240055393E7 ; 4.1132106084954426E7 ; 37842.00000000001
160 ; 68526.2152654349 ; 374674.85960529366 ; 1.260503729585227E7 ; 4.150530810136647E7 ; 38080.00000000001
161 ; 67993.39028009158 ; 376143.89146917587 ; 1.2673563511117704E7 ; 4.187998296097176E7 ; 38318.00000000001
162 ; 67767.03543995699 ; 377609.0566891952 ; 1.2741556901397796E7 ; 4.225612685244093E7 ; 38556.00000000001
163 ; 67707.90345055735 ; 379070.3006250343 ; 1.2809323936837753E7 ; 4.2633735909130126E7 ; 38794.00000000001
164 ; 67975.38803362545 ; 380527.56929572264 ; 1.2877031840288311E7 ; 4.301280620975516E7 ; 39032.00000000001
165 ; 67465.69768598484 ; 381980.8093652808 ; 1.2945007228321936E7 ; 4.339333377905088E7 ; 39270.00000000001
166 ; 66927.65305794898 ; 383429.9681288233 ; 1.301247292600792E7 ; 4.377531458841616E7 ; 39508.00000000001
167 ; 66825.93575661813 ; 384874.9934991032 ; 1.307940057906587E7 ; 4.415874455654498E7 ; 39746.00000000001
168 ; 66380.4840689565 ; 386315.8339934842 ; 1.3146226514822489E7 ; 4.454361955004408E7 ; 39984.00000000001
169 ; 66450.60150348337 ; 387752.4387213258 ; 1.3212606998891445E7 ; 4.492993538403757E7 ; 40222.00000000001
170 ; 66289.8155155206 ; 389184.7573717667 ; 1.3279057600394929E7 ; 4.53176878227589E7 ; 40460.00000000001
171 ; 65836.80171728732 ; 390612.7402018939 ; 1.3345347415910449E7 ; 4.570687258013067E7 ; 40698.00000000001
172 ; 66023.01825845859 ; 392036.3380252833 ; 1.3411184217627736E7 ; 4.609748532033256E7 ; 40936.00000000001
173 ; 65403.81604230123 ; 393455.5022008999 ; 1.3477207235886194E7 ; 4.6489521658357844E7 ; 41174.00000000001
174 ; 65441.00093126297 ; 394870.18462234625 ; 1.3542611051928494E7 ; 4.6882977160558745E7 ; 41412.00000000001
175 ; 65816.2270425677 ; 396280.33770744584 ; 1.3608052052859757E7 ; 4.727784734518109E7 ; 41650.00000000001
176 ; 65664.78228334371 ; 397685.9143881508 ; 1.3673868279902324E7 ; 4.767412768288854E7 ; 41888.00000000001
177 ; 65507.673995840276 ; 399086.86810076423 ; 1.3739533062185667E7 ; 4.807181359727669E7 ; 42126.00000000001
178 ; 65742.37211916296 ; 400483.1527764648 ; 1.3805040736181507E7 ; 4.847090046537745E7 ; 42364.00000000001
179 ; 65899.8654626403 ; 401874.7228321251 ; 1.387078310830067E7 ; 4.8871383618153915E7 ; 42602.00000000001
180 ; 65940.65774997663 ; 403261.5331614129 ; 1.393668297376331E7 ; 4.927325834098604E7 ; 42840.00000000001
181 ; 65804.56058489264 ; 404643.53912616667 ; 1.4002623631513286E7 ; 4.967651987414746E7 ; 43078.00000000001
182 ; 65656.562631431 ; 406020.6965480361 ; 1.406842819209818E7 ; 5.0081163413273625E7 ; 43316.00000000001
