CSV File for the Network on Day 215
1 - Minute m 
2 - Power Consumed at minute m 
3 - Power Produced at minute m 
4 - Energy Consumed since the beginning of the day 
5 - Energy Produced since the beginning of the day 
6 - Energy Lost since the beginning of the day 
 
No Production city : 2, Producer : 1
No Production city : 4, Producer : 1
No Production city : 4, Producer : 1
 
0 ; 27251.806664191186 ; 105626.75294776347 ; 0.0 ; 0.0 ; 0.0
1 ; 28935.41113346607 ; 105074.11374205885 ; 27251.806664191186 ; 105626.75294776347 ; 238.00000000000003
2 ; 30829.71956545787 ; 104572.30284740437 ; 56187.21779765726 ; 210700.86668982232 ; 476.00000000000006
3 ; 32465.46211543509 ; 104123.52329403676 ; 87016.93736311512 ; 315273.16953722667 ; 714.0000000000001
4 ; 34181.704682315 ; 103729.85183830386 ; 119482.39947855021 ; 419396.6928312634 ; 952.0000000000001
5 ; 36029.87006566238 ; 103393.19838981636 ; 153664.10416086522 ; 523126.54466956726 ; 1190.0000000000002
6 ; 38080.43355365918 ; 103115.26532484197 ; 189693.97422652759 ; 626519.7430593836 ; 1428.0000000000002
7 ; 39696.86111416512 ; 102897.5084405236 ; 227774.40778018677 ; 729635.0083842255 ; 1666.0000000000002
8 ; 41369.82401489103 ; 102741.10144997436 ; 267471.2688943519 ; 832532.5168247492 ; 1904.0000000000002
9 ; 43238.115977232046 ; 102646.90591735387 ; 308841.09290924296 ; 935273.6182747235 ; 2142.0000000000005
10 ; 44797.46732454505 ; 102615.4483617227 ; 352079.208886475 ; 1037920.5241920773 ; 2380.0000000000005
11 ; 46783.779085796574 ; 102646.90591735387 ; 396876.67621102004 ; 1140535.9725538 ; 2618.0000000000005
12 ; 48242.973266793066 ; 102741.10144997436 ; 443660.4552968166 ; 1243182.878471154 ; 2856.0000000000005
13 ; 49681.548683299654 ; 102897.5084405236 ; 491903.42856360966 ; 1345923.9799211284 ; 3094.0000000000005
14 ; 51457.09058687033 ; 103115.26532484182 ; 541584.9772469093 ; 1448821.488361652 ; 3332.0000000000005
15 ; 53017.01204643828 ; 103393.19838981636 ; 593042.0678337796 ; 1551936.7536864937 ; 3570.0000000000005
16 ; 54485.89315621973 ; 103729.85183830386 ; 646059.0798802179 ; 1655329.95207631 ; 3808.0000000000005
17 ; 55682.964682013946 ; 104123.52329403661 ; 700544.9730364376 ; 1759059.803914614 ; 4046.0000000000005
18 ; 57439.87797599988 ; 104572.30284740448 ; 756227.9377184516 ; 1863183.3272086505 ; 4284.000000000001
19 ; 58617.974313702536 ; 105074.11374205872 ; 813667.8156944514 ; 1967755.630056055 ; 4522.000000000001
20 ; 60580.92860804882 ; 105626.7529477636 ; 872285.790008154 ; 2072829.7437981137 ; 4760.000000000001
21 ; 61375.745549065876 ; 106227.93011936026 ; 932866.7186162028 ; 2178456.4967458774 ; 4998.000000000001
22 ; 63343.592380125905 ; 106875.3037615276 ; 994242.4641652687 ; 2284684.4268652378 ; 5236.000000000001
23 ; 64809.09870970958 ; 107566.51376198596 ; 1057586.0565453947 ; 2391559.730626765 ; 5474.000000000001
24 ; 65985.67032625602 ; 108299.20978666782 ; 1122395.1552551042 ; 2499126.244388751 ; 5712.000000000001
25 ; 67170.6464869401 ; 109071.07532377393 ; 1188380.8255813601 ; 2607425.454175419 ; 5950.000000000001
26 ; 68725.07969295631 ; 109879.84740464276 ; 1255551.4720683002 ; 2716496.529499193 ; 6188.000000000001
27 ; 70320.62402082683 ; 110723.33221234394 ; 1324276.5517612565 ; 2826376.376903836 ; 6426.000000000001
28 ; 71368.9280243019 ; 111599.41691539825 ; 1394597.1757820833 ; 2937099.70911618 ; 6664.000000000001
29 ; 72765.87947600236 ; 112506.07814031451 ; 1465966.1038063853 ; 3048699.126031578 ; 6902.000000000001
30 ; 74106.73988472587 ; 113441.38753148477 ; 1538731.9832823877 ; 3161205.2041718927 ; 7140.000000000001
31 ; 75460.12344412712 ; 114403.5148500037 ; 1612838.7231671135 ; 3274646.5917033777 ; 7378.000000000001
32 ; 76496.37394875669 ; 115390.72904324559 ; 1688298.8466112406 ; 3389050.1065533813 ; 7616.000000000001
33 ; 77778.94327885257 ; 116401.39768251788 ; 1764795.2205599973 ; 3504440.835596627 ; 7854.000000000001
34 ; 78939.5202185194 ; 117433.9851232492 ; 1842574.1638388499 ; 3620842.233279145 ; 8092.000000000001
35 ; 79912.42132846084 ; 118487.04969589192 ; 1921513.6840573694 ; 3738276.218402394 ; 8330.000000000002
36 ; 80931.4487330495 ; 119559.2401895454 ; 2001426.1053858302 ; 3856763.268098286 ; 8568.000000000002
37 ; 81894.8601877096 ; 120649.29184657599 ; 2082357.5541188796 ; 3976322.508287831 ; 8806.000000000002
38 ; 83489.72932907597 ; 121756.0220466413 ; 2164252.4143065894 ; 4096971.8001344074 ; 9044.000000000002
39 ; 84099.78438296981 ; 122878.32582321063 ; 2247742.1436356655 ; 4218727.822181049 ; 9282.000000000002
40 ; 85173.841873587 ; 124015.17132512758 ; 2331841.928018635 ; 4341606.148004259 ; 9520.000000000002
41 ; 86083.72351462713 ; 125165.5953098572 ; 2417015.7698922222 ; 4465621.319329387 ; 9758.000000000002
42 ; 87201.4350370636 ; 126328.69873347018 ; 2503099.4934068494 ; 4590786.914639244 ; 9996.000000000002
43 ; 88488.47649408728 ; 127503.64248469794 ; 2590300.928443913 ; 4717115.613372714 ; 10234.000000000002
44 ; 89125.89248983956 ; 128689.64329606881 ; 2678789.4049380003 ; 4844619.255857412 ; 10472.000000000002
45 ; 90267.96891554304 ; 129885.96985371866 ; 2767915.2974278396 ; 4973308.89915348 ; 10710.000000000002
46 ; 91142.61550061629 ; 131091.93911849847 ; 2858183.2663433827 ; 5103194.869007199 ; 10948.000000000002
47 ; 91925.45145820397 ; 132306.9128640755 ; 2949325.881843999 ; 5234286.808125697 ; 11186.000000000002
48 ; 92582.36047638248 ; 133530.2944324572 ; 3041251.333302203 ; 5366593.720989773 ; 11424.000000000002
49 ; 93558.47343927683 ; 134761.52570346126 ; 3133833.6937785856 ; 5500124.015422231 ; 11662.000000000002
50 ; 94904.91708600687 ; 136000.0842718262 ; 3227392.1672178623 ; 5634885.5411256915 ; 11900.000000000002
51 ; 94853.76554240353 ; 137245.4808236891 ; 3322297.0843038694 ; 5770885.625397517 ; 12138.000000000002
52 ; 95533.6384642734 ; 138497.25670286492 ; 3417150.8498462727 ; 5908131.1062212065 ; 12376.000000000002
53 ; 96562.50358383442 ; 139754.98165658183 ; 3512684.488310546 ; 6046628.362924071 ; 12614.000000000002
54 ; 97290.84484237153 ; 141018.25174995413 ; 3609246.9918943807 ; 6186383.344580653 ; 12852.000000000002
55 ; 98448.11323899508 ; 142286.6874383929 ; 3706537.836736752 ; 6327401.596330607 ; 13090.000000000002
56 ; 98980.62160525148 ; 143559.93178729742 ; 3804985.949975747 ; 6469688.283769 ; 13328.000000000002
57 ; 99468.89465107712 ; 144837.64882866625 ; 3903966.5715809986 ; 6613248.215556297 ; 13566.000000000002
58 ; 100557.33432954208 ; 146119.52204467863 ; 4003435.466232076 ; 6758085.864384964 ; 13804.000000000002
59 ; 100816.03731094363 ; 147405.2529687743 ; 4103992.800561618 ; 6904205.386429642 ; 14042.000000000002
60 ; 101831.56167117445 ; 148694.55989528442 ; 4204808.837872562 ; 7051610.6393984165 ; 14280.000000000002
61 ; 102557.44609071653 ; 149987.17668920808 ; 4306640.399543736 ; 7200305.199293701 ; 14518.000000000002
62 ; 102617.22415400455 ; 151282.8516882824 ; 4409197.845634453 ; 7350292.375982909 ; 14756.000000000002
63 ; 103139.33514390129 ; 152581.34669003193 ; 4511815.069788458 ; 7501575.227671192 ; 14994.000000000002
64 ; 103755.00844454377 ; 153882.43601701304 ; 4614954.404932359 ; 7654156.574361224 ; 15232.000000000002
65 ; 104417.55549901038 ; 155185.90565397538 ; 4718709.413376903 ; 7808039.010378237 ; 15470.000000000002
66 ; 104673.24848220182 ; 156491.552451141 ; 4823126.968875914 ; 7963224.916032212 ; 15708.000000000002
67 ; 105107.5825885708 ; 157799.18338825804 ; 4927800.217358116 ; 8119716.468483353 ; 15946.000000000002
68 ; 105613.90315284807 ; 159108.61489451124 ; 5032907.799946687 ; 8277515.651871611 ; 16184.000000000002
69 ; 105986.8739384453 ; 160419.6722197676 ; 5138521.703099535 ; 8436624.266766123 ; 16422.000000000004
70 ; 106450.39835946765 ; 161732.1888530066 ; 5244508.57703798 ; 8597043.938985892 ; 16660.000000000004
71 ; 106847.75948259381 ; 163046.00598412362 ; 5350958.975397447 ; 8758776.127838898 ; 16898.000000000004
72 ; 107015.03966100805 ; 164360.9720056143 ; 5457806.734880041 ; 8921822.133823022 ; 17136.000000000004
73 ; 107500.77268967284 ; 165676.94205093622 ; 5564821.774541049 ; 9086183.105828637 ; 17374.000000000004
74 ; 107588.97695253245 ; 166993.77756661212 ; 5672322.547230722 ; 9251860.047879573 ; 17612.000000000004
75 ; 107694.04404878677 ; 168311.34591538663 ; 5779911.524183255 ; 9418853.825446185 ; 17850.000000000004
76 ; 108498.57778630906 ; 169629.52000797034 ; 5887605.568232042 ; 9587165.171361571 ; 18088.000000000004
77 ; 108661.64248686237 ; 170948.17796111607 ; 5996104.1460183505 ; 9756794.691369541 ; 18326.000000000004
78 ; 108494.61672101429 ; 172267.2027799575 ; 6104765.788505213 ; 9927742.869330658 ; 18564.000000000004
79 ; 109131.65170675862 ; 173586.48206271481 ; 6213260.405226228 ; 1.0100010072110616E7 ; 18802.000000000004
80 ; 109375.084149069 ; 174905.9077260309 ; 6322392.056932987 ; 1.027359655417333E7 ; 19040.000000000004
81 ; 109541.26436261101 ; 176225.37574934418 ; 6431767.141082056 ; 1.044850246189936E7 ; 19278.000000000004
82 ; 109284.60044704782 ; 177544.78593683912 ; 6541308.405444667 ; 1.0624727837648705E7 ; 19516.000000000004
83 ; 109332.22345791604 ; 178864.04169563268 ; 6650593.005891714 ; 1.0802272623585545E7 ; 19754.000000000004
84 ; 109556.54156544722 ; 180183.04982896912 ; 6759925.22934963 ; 1.0981136665281177E7 ; 19992.000000000004
85 ; 110073.24715589143 ; 181501.72034329228 ; 6869481.770915077 ; 1.1161319715110146E7 ; 20230.000000000004
86 ; 109743.99210394047 ; 182819.96626816102 ; 6979555.018070969 ; 1.1342821435453437E7 ; 20468.000000000004
87 ; 109724.02798188219 ; 184137.7034880526 ; 7089299.01017491 ; 1.1525641401721599E7 ; 20706.000000000004
88 ; 109991.03990860633 ; 185454.85058518028 ; 7199023.038156792 ; 1.170977910520965E7 ; 20944.000000000004
89 ; 109978.28211375876 ; 186771.32869251963 ; 7309014.078065398 ; 1.189523395579483E7 ; 21182.000000000004
90 ; 109644.5341262346 ; 188087.0613563012 ; 7418992.360179157 ; 1.208200528448735E7 ; 21420.000000000004
91 ; 109833.13319329503 ; 189401.97440728825 ; 7528636.894305391 ; 1.227009234584365E7 ; 21658.000000000004
92 ; 109202.57404794155 ; 190715.99584021192 ; 7638470.027498687 ; 1.245949432025094E7 ; 21896.000000000004
93 ; 109496.27091843079 ; 192029.05570078292 ; 7747672.601546628 ; 1.2650210316091152E7 ; 22134.000000000004
94 ; 109144.92158839646 ; 193341.0859797469 ; 7857168.872465059 ; 1.2842239371791935E7 ; 22372.000000000004
95 ; 109368.10803714272 ; 194652.02051349147 ; 7966313.794053456 ; 1.3035580457771681E7 ; 22610.000000000004
96 ; 109388.37029723375 ; 195961.79489074834 ; 8075681.902090599 ; 1.3230232478285173E7 ; 22848.000000000004
97 ; 108540.61107033223 ; 197270.34636497265 ; 8185070.272387832 ; 1.3426194273175921E7 ; 23086.000000000004
98 ; 108367.85463005304 ; 198577.61377200973 ; 8293610.8834581645 ; 1.3623464619540894E7 ; 23324.000000000004
99 ; 108326.94987818976 ; 199883.53745269182 ; 8401978.738088217 ; 1.3822042233312905E7 ; 23562.000000000004
100 ; 108157.82740281492 ; 201188.05918003182 ; 8510305.687966406 ; 1.4021925770765597E7 ; 23800.000000000004
101 ; 107782.7793603467 ; 202491.12209070794 ; 8618463.515369222 ; 1.422311382994563E7 ; 24038.000000000004
102 ; 107485.01809564763 ; 203792.67062055343 ; 8726246.294729568 ; 1.4425604952036338E7 ; 24276.000000000004
103 ; 107109.70939265727 ; 205092.65044378914 ; 8833731.312825216 ; 1.4629397622656891E7 ; 24514.000000000004
104 ; 106848.92607383837 ; 206391.00841575366 ; 8940841.022217873 ; 1.483449027310068E7 ; 24752.000000000004
105 ; 106417.00374337625 ; 207687.69251890416 ; 9047689.948291712 ; 1.5040881281516433E7 ; 24990.000000000004
106 ; 106655.80270315244 ; 208982.65181187855 ; 9154106.952035088 ; 1.5248568974035338E7 ; 25228.000000000004
107 ; 105846.07752571495 ; 210275.83638142282 ; 9260762.754738241 ; 1.5457551625847217E7 ; 25466.000000000004
108 ; 105243.03450946281 ; 211567.19729700166 ; 9366608.832263956 ; 1.5667827462228639E7 ; 25704.000000000004
109 ; 105127.61766814886 ; 212856.6865679248 ; 9471851.86677342 ; 1.587939465952564E7 ; 25942.000000000004
110 ; 104738.16139150284 ; 214144.25710283092 ; 9576979.484441567 ; 1.6092251346093565E7 ; 26180.000000000004
111 ; 103929.5332269076 ; 215429.86267138383 ; 9681717.64583307 ; 1.6306395603196396E7 ; 26418.000000000004
112 ; 103627.3138935484 ; 216713.45786804467 ; 9785647.179059977 ; 1.652182546586778E7 ; 26656.000000000004
113 ; 102575.81341074989 ; 217994.9980777934 ; 9889274.492953526 ; 1.6738538923735825E7 ; 26894.000000000004
114 ; 102606.21835929067 ; 219274.4394436815 ; 9991850.306364276 ; 1.695653392181362E7 ; 27132.000000000004
115 ; 101880.78226912768 ; 220551.73883610603 ; 1.0094456524723567E7 ; 1.71758083612573E7 ; 27370.000000000004
116 ; 101613.62127894863 ; 221826.8538237019 ; 1.0196337306992695E7 ; 1.7396360100093406E7 ; 27608.000000000004
117 ; 100753.19293449927 ; 223099.74264575721 ; 1.0297950928271644E7 ; 1.761818695391711E7 ; 27846.000000000004
118 ; 99991.37786121694 ; 224370.36418606073 ; 1.0398704121206144E7 ; 1.7841286696562864E7 ; 28084.000000000004
119 ; 99617.66509950666 ; 225638.6779480998 ; 1.049869549906736E7 ; 1.8065657060748924E7 ; 28322.000000000004
120 ; 98659.3483253057 ; 226904.64403152867 ; 1.0598313164166868E7 ; 1.8291295738697022E7 ; 28560.000000000004
121 ; 97971.8225812199 ; 228168.22310983477 ; 1.0696972512492174E7 ; 1.851820038272855E7 ; 28798.000000000004
122 ; 96997.44352603023 ; 229429.3764091353 ; 1.0794944335073395E7 ; 1.8746368605838384E7 ; 29036.000000000004
123 ; 96404.41700259414 ; 230688.06568803824 ; 1.0891941778599424E7 ; 1.897579798224752E7 ; 29274.000000000004
124 ; 95609.67661438616 ; 231944.25321850978 ; 1.0988346195602018E7 ; 1.920648604793556E7 ; 29512.000000000004
125 ; 95099.94791346639 ; 233197.9017676902 ; 1.1083955872216405E7 ; 1.943843030115407E7 ; 29750.000000000004
126 ; 94479.96427072557 ; 234448.9745806069 ; 1.1179055820129871E7 ; 1.967162820292176E7 ; 29988.000000000004
127 ; 92980.28086443282 ; 235697.43536373385 ; 1.1273535784400597E7 ; 1.9906077177502368E7 ; 30226.000000000004
128 ; 92448.37302361918 ; 236943.2482693522 ; 1.136651606526503E7 ; 2.01417746128661E7 ; 30464.000000000004
129 ; 91252.69376029058 ; 238186.37788066798 ; 1.145896443828865E7 ; 2.0378717861135453E7 ; 30702.000000000004
130 ; 90972.81891833186 ; 239426.78919764562 ; 1.155021713204894E7 ; 2.061690423901612E7 ; 30940.000000000004
131 ; 89736.894194752 ; 240664.44762351975 ; 1.1641189950967273E7 ; 2.0856331028213765E7 ; 31178.000000000004
132 ; 88721.34321155958 ; 241899.3189519482 ; 1.1730926845162025E7 ; 2.1096995475837287E7 ; 31416.000000000004
133 ; 87789.0578612781 ; 243131.36935477325 ; 1.1819648188373584E7 ; 2.1338894794789236E7 ; 31654.000000000004
134 ; 86618.8739783676 ; 244360.5653703583 ; 1.1907437246234862E7 ; 2.158202616414401E7 ; 31892.000000000004
135 ; 86154.88095266267 ; 245586.87389247026 ; 1.199405612021323E7 ; 2.1826386729514368E7 ; 32130.000000000004
136 ; 84829.63890135316 ; 246810.26215967938 ; 1.2080211001165891E7 ; 2.207197360340684E7 ; 32368.000000000004
137 ; 83414.02553606304 ; 248030.69774524996 ; 1.2165040640067244E7 ; 2.231878386556652E7 ; 32606.000000000004
138 ; 82311.61702937218 ; 249248.1485474963 ; 1.2248454665603306E7 ; 2.2566814563311767E7 ; 32844.00000000001
139 ; 81606.28101193262 ; 250462.58278058108 ; 1.2330766282632679E7 ; 2.2816062711859263E7 ; 33082.00000000001
140 ; 80459.64314610146 ; 251673.96896573296 ; 1.2412372563644612E7 ; 2.3066525294639844E7 ; 33320.00000000001
141 ; 79643.72237108153 ; 252882.27592286258 ; 1.2492832206790714E7 ; 2.3318199263605576E7 ; 33558.00000000001
142 ; 78225.54737080261 ; 254087.47276255774 ; 1.2572475929161794E7 ; 2.3571081539528437E7 ; 33796.00000000001
143 ; 76921.48134564675 ; 255289.52887843788 ; 1.2650701476532597E7 ; 2.3825169012290996E7 ; 34034.00000000001
144 ; 75518.00675346212 ; 256488.41393985105 ; 1.2727622957878243E7 ; 2.4080458541169435E7 ; 34272.00000000001
145 ; 75370.41582400369 ; 257684.09788489615 ; 1.2803140964631705E7 ; 2.4336946955109287E7 ; 34510.00000000001
146 ; 75166.95747949605 ; 258876.55091375462 ; 1.2878511380455708E7 ; 2.4594631052994184E7 ; 34748.00000000001
147 ; 75079.48843551718 ; 260065.74348231684 ; 1.2953678337935204E7 ; 2.485350760390794E7 ; 34986.00000000001
148 ; 74824.6494128122 ; 261251.6462960891 ; 1.3028757826370722E7 ; 2.5113573347390257E7 ; 35224.00000000001
149 ; 74633.62966874188 ; 262434.2303043672 ; 1.3103582475783534E7 ; 2.5374824993686344E7 ; 35462.00000000001
150 ; 74556.80567786263 ; 263613.4666946647 ; 1.3178216105452277E7 ; 2.5637259223990712E7 ; 35700.00000000001
151 ; 74006.10113766533 ; 264789.3268873835 ; 1.325277291113014E7 ; 2.5900872690685377E7 ; 35938.00000000001
152 ; 73147.6079567384 ; 265961.7825307153 ; 1.3326779012267806E7 ; 2.616566201757276E7 ; 36176.00000000001
153 ; 73368.28540876955 ; 267130.8054957634 ; 1.3399926620224545E7 ; 2.6431623800103474E7 ; 36414.00000000001
154 ; 72940.28365956452 ; 268296.36787187395 ; 1.3473294905633314E7 ; 2.669875460559924E7 ; 36652.00000000001
155 ; 73010.35737629207 ; 269458.44196216867 ; 1.3546235189292878E7 ; 2.6967050973471113E7 ; 36890.00000000001
156 ; 72528.33173270755 ; 270617.0002792674 ; 1.361924554666917E7 ; 2.723650941543328E7 ; 37128.00000000001
157 ; 72352.00174238553 ; 271772.0155411936 ; 1.3691773878401877E7 ; 2.7507126415712547E7 ; 37366.00000000001
158 ; 71629.62570046454 ; 272923.4606674544 ; 1.3764125880144263E7 ; 2.777889843125374E7 ; 37604.00000000001
159 ; 71558.78589753671 ; 274071.3087752864 ; 1.3835755505844727E7 ; 2.8051821891921192E7 ; 37842.00000000001
160 ; 71381.4616692882 ; 275215.5331760602 ; 1.3907314291742263E7 ; 2.832589320069648E7 ; 38080.00000000001
161 ; 71002.59027496033 ; 276356.1073718373 ; 1.3978695753411552E7 ; 2.860110873387254E7 ; 38318.00000000001
162 ; 70434.51807621478 ; 277493.00505207165 ; 1.4049698343686512E7 ; 2.8877464841244377E7 ; 38556.00000000001
163 ; 69941.27319963236 ; 278626.2000904497 ; 1.4120132861762727E7 ; 2.915495784629645E7 ; 38794.00000000001
164 ; 69439.19916287338 ; 279755.6665418634 ; 1.419007413496236E7 ; 2.9433584046386898E7 ; 39032.00000000001
165 ; 69153.37471505378 ; 280881.3786395095 ; 1.4259513334125232E7 ; 2.971333971292876E7 ; 39270.00000000001
166 ; 68733.04847184756 ; 282003.3107921106 ; 1.4328666708840286E7 ; 2.999422109156827E7 ; 39508.00000000001
167 ; 68283.89151973453 ; 283121.4375812519 ; 1.4397399757312134E7 ; 3.027622440236038E7 ; 39746.00000000001
168 ; 68202.5862204916 ; 284235.733758829 ; 1.4465683648831869E7 ; 3.0559345839941632E7 ; 39984.00000000001
169 ; 67380.74460690131 ; 285346.1742446025 ; 1.453388623505236E7 ; 3.084358157370046E7 ; 40222.00000000001
170 ; 66775.55888833605 ; 286452.7341238533 ; 1.4601266979659261E7 ; 3.1128927747945063E7 ; 40460.00000000001
171 ; 66239.24602352816 ; 287555.3886451367 ; 1.4668042538547598E7 ; 3.1415380482068915E7 ; 40698.00000000001
172 ; 66747.84171657436 ; 288654.113218129 ; 1.4734281784571126E7 ; 3.1702935870714054E7 ; 40936.00000000001
173 ; 65817.4137086101 ; 289748.8834115633 ; 1.48010296262877E7 ; 3.1991589983932182E7 ; 41174.00000000001
174 ; 66233.83380727482 ; 290839.67495125235 ; 1.4866847039996311E7 ; 3.2281338867343746E7 ; 41412.00000000001
175 ; 66320.99138108979 ; 291926.46371819224 ; 1.4933080873803586E7 ; 3.2572178542294998E7 ; 41650.00000000001
176 ; 66699.0932631648 ; 293009.225746745 ; 1.4999401865184676E7 ; 3.286410500601319E7 ; 41888.00000000001
177 ; 67178.32596948599 ; 294087.9372228977 ; 1.506610095844784E7 ; 3.3157114231759932E7 ; 42126.00000000001
178 ; 67299.25637939983 ; 295162.5744825927 ; 1.5133279284417326E7 ; 3.345120216898283E7 ; 42364.00000000001
179 ; 67210.84947459758 ; 296233.1140101286 ; 1.5200578540796725E7 ; 3.374636474346542E7 ; 42602.00000000001
180 ; 67677.55116421581 ; 297299.5324366269 ; 1.5267789390271323E7 ; 3.404259785747555E7 ; 42840.00000000001
181 ; 67727.06561119476 ; 298361.8065385628 ; 1.5335466941435538E7 ; 3.433989738991217E7 ; 43078.00000000001
