CSV File for the Network on Day 202
1 - Minute m 
2 - Power Consumed at minute m 
3 - Power Produced at minute m 
4 - Energy Consumed since the beginning of the day 
5 - Energy Produced since the beginning of the day 
6 - Energy Lost since the beginning of the day 
 
No Production city : 2, Producer : 1
No Production city : 4, Producer : 1
No Production city : 4, Producer : 1
 
0 ; 27646.0833332937 ; 125792.68677662803 ; 0.0 ; 0.0 ; 0.0
1 ; 29409.313460257683 ; 125383.84112689446 ; 27646.0833332937 ; 125792.68677662803 ; 238.00000000000003
2 ; 31274.74018552873 ; 125015.43131645437 ; 57055.39679355138 ; 251176.52790352248 ; 476.00000000000006
3 ; 32558.083378972024 ; 124688.28393480513 ; 88330.13697908011 ; 376191.95921997685 ; 714.0000000000001
4 ; 34236.769206075274 ; 124403.15115857538 ; 120888.22035805213 ; 500880.243154782 ; 952.0000000000001
5 ; 36170.63551337472 ; 124160.70291226803 ; 155124.9895641274 ; 625283.3943133573 ; 1190.0000000000002
6 ; 37813.32891204452 ; 123961.51961515282 ; 191295.62507750213 ; 749444.0972256253 ; 1428.0000000000002
7 ; 39164.53761459585 ; 123806.08568873303 ; 229108.95398954666 ; 873405.6168407782 ; 1666.0000000000002
8 ; 41305.5212672876 ; 123694.78398865732 ; 268273.49160414253 ; 997211.7025295112 ; 1904.0000000000002
9 ; 43079.23990842635 ; 123627.89130726446 ; 309579.01287143014 ; 1120906.4865181686 ; 2142.0000000000005
10 ; 44566.7203092298 ; 123605.57506856672 ; 352658.2527798565 ; 1244534.3778254332 ; 2380.0000000000005
11 ; 46265.284157951464 ; 123627.89130726446 ; 397224.9730890863 ; 1368139.9528939999 ; 2618.0000000000005
12 ; 47445.890149099236 ; 123694.78398865732 ; 443490.2572470378 ; 1491767.8442012644 ; 2856.0000000000005
13 ; 48838.467120476584 ; 123806.08568873303 ; 490936.147396137 ; 1615462.6281899218 ; 3094.0000000000005
14 ; 50173.571269841705 ; 123961.51961515273 ; 539774.6145166135 ; 1739268.7138786549 ; 3332.0000000000005
15 ; 51911.64976417067 ; 124160.70291226803 ; 589948.1857864553 ; 1863230.2334938077 ; 3570.0000000000005
16 ; 53521.000424505015 ; 124403.15115857538 ; 641859.8355506259 ; 1987390.9364060757 ; 3808.0000000000005
17 ; 54835.83515493547 ; 124688.28393480506 ; 695380.8359751309 ; 2111794.087564651 ; 4046.0000000000005
18 ; 56486.903241745036 ; 125015.43131645446 ; 750216.6711300664 ; 2236482.371499456 ; 4284.000000000001
19 ; 57817.62232686762 ; 125383.84112689437 ; 806703.5743718115 ; 2361497.8028159104 ; 4522.000000000001
20 ; 59166.47128299445 ; 125792.6867766281 ; 864521.1966986791 ; 2486881.643942805 ; 4760.000000000001
21 ; 60879.36442261923 ; 126241.07551080096 ; 923687.6679816736 ; 2612674.3307194333 ; 4998.000000000001
22 ; 62049.80034332989 ; 126728.05689020082 ; 984567.0324042928 ; 2738915.406230234 ; 5236.000000000001
23 ; 63245.112522873125 ; 127252.63133994391 ; 1046616.8327476227 ; 2865643.463120435 ; 5474.000000000001
24 ; 64484.895421754525 ; 127813.75861377249 ; 1109861.945270496 ; 2992896.094460379 ; 5712.000000000001
25 ; 65505.00740048174 ; 128410.36603922592 ; 1174346.8406922505 ; 3120709.8530741516 ; 5950.000000000001
26 ; 67017.185376382 ; 129041.35642866534 ; 1239851.8480927323 ; 3249120.2191133774 ; 6188.000000000001
27 ; 68606.84622306381 ; 129705.61556208128 ; 1306869.0334691142 ; 3378161.575542043 ; 6426.000000000001
28 ; 69497.97416666582 ; 130402.01916873561 ; 1375475.879692178 ; 3507867.1911041243 ; 6664.000000000001
29 ; 70946.72993460066 ; 131129.43935511226 ; 1444973.853858844 ; 3638269.21027286 ; 6902.000000000001
30 ; 72152.13430553871 ; 131886.75044567208 ; 1515920.5837934446 ; 3769398.649627972 ; 7140.000000000001
31 ; 72778.54337247982 ; 132672.8342200294 ; 1588072.7180989832 ; 3901285.400073644 ; 7378.000000000001
32 ; 74071.56718757752 ; 133486.58454507633 ; 1660851.261471463 ; 4033958.234293673 ; 7616.000000000001
33 ; 75877.7240321128 ; 134326.91141311388 ; 1734922.8286590404 ; 4167444.8188387495 ; 7854.000000000001
34 ; 76466.14829682207 ; 135192.7444072112 ; 1810800.5526911533 ; 4301771.730251864 ; 8092.000000000001
35 ; 77097.92776320557 ; 136083.03562287654 ; 1887266.7009879753 ; 4436964.474659075 ; 8330.000000000002
36 ; 78538.63844608859 ; 136996.76208087816 ; 1964364.6287511808 ; 4573047.510281951 ; 8568.000000000002
37 ; 79808.88443012952 ; 137932.9276699136 ; 2042903.2671972695 ; 4710044.272362829 ; 8806.000000000002
38 ; 80564.30822166066 ; 138890.56466004835 ; 2122712.151627399 ; 4847977.200032743 ; 9044.000000000002
39 ; 81892.53641135925 ; 139868.734828691 ; 2203276.4598490596 ; 4986867.764692791 ; 9282.000000000002
40 ; 82628.28867299447 ; 140866.5302405951 ; 2285168.996260419 ; 5126736.499521482 ; 9520.000000000002
41 ; 83580.5219028134 ; 141883.07372222547 ; 2367797.2849334134 ; 5267603.029762077 ; 9758.000000000002
42 ; 84554.33221977555 ; 142917.51906900195 ; 2451377.806836227 ; 5409486.103484303 ; 9996.000000000002
43 ; 85684.85361706956 ; 143969.0510216468 ; 2535932.1390560027 ; 5552403.622553305 ; 10234.000000000002
44 ; 86424.16617513078 ; 145036.88504525166 ; 2621616.9926730725 ; 5696372.6735749515 ; 10472.000000000002
45 ; 87327.8329425671 ; 146120.266941905 ; 2708041.1588482033 ; 5841409.558620203 ; 10710.000000000002
46 ; 87765.76379693227 ; 147218.47232487018 ; 2795368.9917907706 ; 5987529.825562108 ; 10948.000000000002
47 ; 89251.84703807606 ; 148330.8059794767 ; 2883134.7555877026 ; 6134748.297886979 ; 11186.000000000002
48 ; 90009.47249894927 ; 149456.60113313727 ; 2972386.602625779 ; 6283079.103866455 ; 11424.000000000002
49 ; 90392.55060665503 ; 150595.2186542877 ; 3062396.075124728 ; 6432535.704999592 ; 11662.000000000002
50 ; 91257.7396341002 ; 151746.04619758815 ; 3152788.625731383 ; 6583130.92365388 ; 11900.000000000002
51 ; 92451.98031319272 ; 152908.4973104464 ; 3244046.3653654833 ; 6734876.969851469 ; 12138.000000000002
52 ; 93141.31534837204 ; 154082.01051384144 ; 3336498.345678676 ; 6887785.467161915 ; 12376.000000000002
53 ; 93675.29131646932 ; 155266.04836853026 ; 3429639.661027048 ; 7041867.477675756 ; 12614.000000000002
54 ; 94516.55758553003 ; 156460.09653602215 ; 3523314.952343517 ; 7197133.526044287 ; 12852.000000000002
55 ; 94941.64510373301 ; 157663.66284218561 ; 3617831.509929047 ; 7353593.6225803085 ; 13090.000000000002
56 ; 95487.33574228248 ; 158876.27635001024 ; 3712773.15503278 ; 7511257.285422494 ; 13328.000000000002
57 ; 95992.87771345902 ; 160097.48644686243 ; 3808260.4907750627 ; 7670133.561772504 ; 13566.000000000002
58 ; 96853.383328361 ; 161326.86195054208 ; 3904253.368488522 ; 7830231.048219366 ; 13804.000000000002
59 ; 97469.29020593723 ; 162563.9902375509 ; 4001106.7518168828 ; 7991557.910169908 ; 14042.000000000002
60 ; 98259.82911772054 ; 163808.47639620854 ; 4098576.04202282 ; 8154121.900407459 ; 14280.000000000002
61 ; 98935.79951710501 ; 165059.94240659013 ; 4196835.871140541 ; 8317930.376803667 ; 14518.000000000002
62 ; 99451.29443600072 ; 166318.02634869333 ; 4295771.670657646 ; 8482990.319210257 ; 14756.000000000002
63 ; 99450.12694303448 ; 167582.38163976587 ; 4395222.965093646 ; 8649308.34555895 ; 14994.000000000002
64 ; 100016.53867423482 ; 168852.67630132192 ; 4494673.09203668 ; 8816890.727198716 ; 15232.000000000002
65 ; 100802.66945309976 ; 170128.59225604273 ; 4594689.630710915 ; 8985743.403500037 ; 15470.000000000002
66 ; 101403.2489099213 ; 171409.82465447948 ; 4695492.300164014 ; 9155871.99575608 ; 15708.000000000002
67 ; 101747.81121081015 ; 172696.0812312508 ; 4796895.5490739355 ; 9327281.820410559 ; 15946.000000000002
68 ; 101917.76722041231 ; 173987.08169024787 ; 4898643.360284746 ; 9499977.90164181 ; 16184.000000000002
69 ; 101921.35996244421 ; 175282.5571182102 ; 5000561.127505158 ; 9673964.983332058 ; 16422.000000000004
70 ; 102750.97569858308 ; 176582.2494259292 ; 5102482.487467602 ; 9849247.54045027 ; 16660.000000000004
71 ; 103187.83155501529 ; 177885.91081624475 ; 5205233.463166185 ; 1.0025829789876198E7 ; 16898.000000000004
72 ; 103839.87345757218 ; 179193.30327794104 ; 5308421.2947212 ; 1.0203715700692443E7 ; 17136.000000000004
73 ; 103864.03320124085 ; 180504.19810460453 ; 5412261.168178773 ; 1.0382909003970385E7 ; 17374.000000000004
74 ; 103836.026235464 ; 181818.37543747635 ; 5516125.2013800135 ; 1.056341320207499E7 ; 17612.000000000004
75 ; 104423.89347454501 ; 183135.62383132128 ; 5619961.2276154775 ; 1.0745231577512465E7 ; 17850.000000000004
76 ; 104297.48207479711 ; 184455.7398423299 ; 5724385.121090023 ; 1.0928367201343786E7 ; 18088.000000000004
77 ; 104878.08530472896 ; 185778.52763707686 ; 5828682.60316482 ; 1.1112822941186115E7 ; 18326.000000000004
78 ; 105109.26800308829 ; 187103.7986215728 ; 5933560.688469549 ; 1.1298601468823193E7 ; 18564.000000000004
79 ; 105427.33025137593 ; 188431.3710894623 ; 6038669.956472637 ; 1.1485705267444765E7 ; 18802.000000000004
80 ; 105535.44803230815 ; 189761.06988844977 ; 6144097.286724013 ; 1.1674136638534227E7 ; 19040.000000000004
81 ; 105389.01883272045 ; 191092.72610405475 ; 6249632.734756322 ; 1.1863897708422678E7 ; 19278.000000000004
82 ; 105836.28860596169 ; 192426.17675983292 ; 6355021.753589042 ; 1.2054990434526732E7 ; 19516.000000000004
83 ; 105838.4537449234 ; 193761.26453322824 ; 6460858.042195004 ; 1.2247416611286566E7 ; 19754.000000000004
84 ; 105576.48055209314 ; 195097.83748625193 ; 6566696.495939928 ; 1.2441177875819795E7 ; 19992.000000000004
85 ; 106092.83630377466 ; 196435.74881022048 ; 6672272.976492021 ; 1.2636275713306047E7 ; 20230.000000000004
86 ; 106005.70892591975 ; 197774.8565838151 ; 6778365.8127957955 ; 1.2832711462116268E7 ; 20468.000000000004
87 ; 106462.04310566906 ; 199115.0235437595 ; 6884371.521721715 ; 1.3030486318700083E7 ; 20706.000000000004
88 ; 106100.16034097933 ; 200456.1168674451 ; 6990833.564827384 ; 1.3229601342243843E7 ; 20944.000000000004
89 ; 106454.00877097023 ; 201798.00796686477 ; 7096933.725168364 ; 1.3430057459111288E7 ; 21182.000000000004
90 ; 106207.31690411795 ; 203140.57229324811 ; 7203387.733939335 ; 1.3631855467078153E7 ; 21420.000000000004
91 ; 106362.92666779702 ; 204483.68915182073 ; 7309595.050843453 ; 1.3834996039371401E7 ; 21658.000000000004
92 ; 105838.73677911323 ; 205827.24152614057 ; 7415957.97751125 ; 1.403947972852322E7 ; 21896.000000000004
93 ; 105919.16342315305 ; 207171.11591149165 ; 7521796.714290364 ; 1.424530697004936E7 ; 22134.000000000004
94 ; 106163.39228757152 ; 208515.2021568442 ; 7627715.877713516 ; 1.4452478085960852E7 ; 22372.000000000004
95 ; 105733.30021373508 ; 209859.39331491472 ; 7733879.270001088 ; 1.4660993288117696E7 ; 22610.000000000004
96 ; 105747.52351580866 ; 211203.585499886 ; 7839612.570214823 ; 1.487085268143261E7 ; 22848.000000000004
97 ; 105178.52371452066 ; 212547.6777523706 ; 7945360.093730631 ; 1.5082056266932497E7 ; 23086.000000000004
98 ; 105133.48415430068 ; 213891.57191122326 ; 8050538.617445152 ; 1.5294603944684867E7 ; 23324.000000000004
99 ; 105175.51964942792 ; 215235.17249183092 ; 8155672.101599453 ; 1.550849551659609E7 ; 23562.000000000004
100 ; 104856.10402038645 ; 216578.38657052824 ; 8260847.621248881 ; 1.5723730689087922E7 ; 23800.000000000004
101 ; 104503.00618461998 ; 217921.12367480694 ; 8365703.725269267 ; 1.594030907565845E7 ; 24038.000000000004
102 ; 104076.58267314841 ; 219263.29567900518 ; 8470206.731453888 ; 1.6158230199333256E7 ; 24276.000000000004
103 ; 103970.6829918484 ; 220604.81670518144 ; 8574283.314127037 ; 1.6377493495012261E7 ; 24514.000000000004
104 ; 103588.00655633747 ; 221945.6030288932 ; 8678253.997118887 ; 1.6598098311717443E7 ; 24752.000000000004
105 ; 103476.80589510353 ; 223285.57298961718 ; 8781842.003675224 ; 1.6820043914746337E7 ; 24990.000000000004
106 ; 102914.27333858743 ; 224624.64690556203 ; 8885318.809570327 ; 1.7043329487735953E7 ; 25228.000000000004
107 ; 102660.45109259455 ; 225962.74699263903 ; 8988233.082908915 ; 1.7267954134641517E7 ; 25466.000000000004
108 ; 102239.72206524663 ; 227299.797287369 ; 9090893.53400151 ; 1.7493916881634157E7 ; 25704.000000000004
109 ; 101737.561307673 ; 228635.72357351656 ; 9193133.256066756 ; 1.7721216678921524E7 ; 25942.000000000004
110 ; 101191.5052566163 ; 229970.4533122542 ; 9294870.817374429 ; 1.794985240249504E7 ; 26180.000000000004
111 ; 100727.61026674927 ; 231303.91557567066 ; 9396062.322631044 ; 1.8179822855807297E7 ; 26418.000000000004
112 ; 100691.82951277925 ; 232636.04098344696 ; 9496789.932897793 ; 1.841112677138297E7 ; 26656.000000000004
113 ; 99738.28298166375 ; 233966.76164253504 ; 9597481.762410572 ; 1.8643762812366415E7 ; 26894.000000000004
114 ; 99079.72821459976 ; 235296.01108968194 ; 9697220.045392236 ; 1.887772957400895E7 ; 27132.000000000004
115 ; 98794.89838383594 ; 236623.72423665202 ; 9796299.773606835 ; 1.911302558509863E7 ; 27370.000000000004
116 ; 98258.09976791321 ; 237949.83731800798 ; 9895094.67199067 ; 1.9349649309335284E7 ; 27608.000000000004
117 ; 97639.61854741679 ; 239274.28784131788 ; 9993352.771758584 ; 1.958759914665329E7 ; 27846.000000000004
118 ; 97205.9726697666 ; 240597.01453966505 ; 1.0090992390306002E7 ; 1.9826873434494607E7 ; 28084.000000000004
119 ; 96422.4904426359 ; 241917.95732634224 ; 1.0188198362975769E7 ; 2.0067470449034274E7 ; 28322.000000000004
120 ; 95940.08430258189 ; 243237.05725161964 ; 1.0284620853418404E7 ; 2.0309388406360615E7 ; 28560.000000000004
121 ; 95113.27013713223 ; 244554.25646148148 ; 1.0380560937720986E7 ; 2.0552625463612236E7 ; 28798.000000000004
122 ; 94973.77182848859 ; 245869.49815823234 ; 1.047567420785812E7 ; 2.079717972007372E7 ; 29036.000000000004
123 ; 93940.48655326111 ; 247182.72656287905 ; 1.0570647979686609E7 ; 2.104304921823195E7 ; 29274.000000000004
124 ; 93223.39460085524 ; 248493.88687919982 ; 1.066458846623987E7 ; 2.129023194479483E7 ; 29512.000000000004
125 ; 92626.94201771918 ; 249802.9252594169 ; 1.0757811860840725E7 ; 2.153872583167403E7 ; 29750.000000000004
126 ; 91849.11988550716 ; 251109.78877139295 ; 1.0850438802858444E7 ; 2.1788528756933443E7 ; 29988.000000000004
127 ; 91024.24304451056 ; 252414.42536727694 ; 1.0942287922743952E7 ; 2.2039638545704838E7 ; 30226.000000000004
128 ; 90219.63807244015 ; 253716.78385352783 ; 1.1033312165788462E7 ; 2.2292052971072115E7 ; 30464.000000000004
129 ; 89504.1877836794 ; 255016.81386224958 ; 1.1123531803860903E7 ; 2.2545769754925642E7 ; 30702.000000000004
130 ; 88065.00197065214 ; 256314.46582377303 ; 1.1213035991644582E7 ; 2.280078656878789E7 ; 30940.000000000004
131 ; 87572.62740813036 ; 257609.69094042573 ; 1.1301100993615234E7 ; 2.3057101034611665E7 ; 31178.000000000004
132 ; 86705.68729655654 ; 258902.44116143114 ; 1.1388673621023364E7 ; 2.331471072555209E7 ; 31416.000000000004
133 ; 85881.78262342223 ; 260192.66915888494 ; 1.147537930831992E7 ; 2.357361316671352E7 ; 31654.000000000004
134 ; 84780.21399580048 ; 261480.32830475539 ; 1.1561261090943342E7 ; 2.3833805835872404E7 ; 31892.000000000004
135 ; 83532.70894776318 ; 262765.372648861 ; 1.1646041304939143E7 ; 2.409528616417716E7 ; 32130.000000000004
136 ; 83342.06984346855 ; 264047.75689777866 ; 1.1729574013886906E7 ; 2.4358051536826022E7 ; 32368.000000000004
137 ; 82020.44675574699 ; 265327.43639463774 ; 1.1812916083730375E7 ; 2.46220992937238E7 ; 32606.000000000004
138 ; 80797.18608266005 ; 266604.36709976156 ; 1.1894936530486122E7 ; 2.488742673011844E7 ; 32844.00000000001
139 ; 80047.53959020451 ; 267878.5055721138 ; 1.1975733716568781E7 ; 2.51540310972182E7 ; 33082.00000000001
140 ; 79208.97816181724 ; 269149.8089515148 ; 1.2055781256158985E7 ; 2.5421909602790315E7 ; 33320.00000000001
141 ; 77909.36956120425 ; 270418.2349415914 ; 1.2134990234320803E7 ; 2.569105941174183E7 ; 33558.00000000001
142 ; 76835.03494748355 ; 271683.7417934275 ; 1.2212899603882007E7 ; 2.596147764668342E7 ; 33796.00000000001
143 ; 76032.16357177532 ; 272946.28828988306 ; 1.228973463882949E7 ; 2.623316138847685E7 ; 34034.00000000001
144 ; 75089.15628974503 ; 274205.8337305508 ; 1.2365766802401265E7 ; 2.650610767676673E7 ; 34272.00000000001
145 ; 74232.18721478309 ; 275462.3379173234 ; 1.244085595869101E7 ; 2.6780313510497283E7 ; 34510.00000000001
146 ; 73933.61272486272 ; 276715.76114054234 ; 1.2515088145905793E7 ; 2.7055775848414607E7 ; 34748.00000000001
147 ; 73851.19098474747 ; 277966.06416570296 ; 1.2589021758630656E7 ; 2.733249160955515E7 ; 34986.00000000001
148 ; 74147.04964591205 ; 279213.2082206919 ; 1.2662872949615404E7 ; 2.7610457673720855E7 ; 35224.00000000001
149 ; 73765.9080965941 ; 280457.15498353174 ; 1.2737019999261316E7 ; 2.7889670881941546E7 ; 35462.00000000001
150 ; 72953.70992250716 ; 281697.8665706125 ; 1.281078590735791E7 ; 2.8170128036925077E7 ; 35700.00000000001
151 ; 73091.7281800916 ; 282935.30552538694 ; 1.2883739617280418E7 ; 2.845182590349569E7 ; 35938.00000000001
152 ; 72572.30344583937 ; 284169.4348075113 ; 1.295683134546051E7 ; 2.873476120902108E7 ; 36176.00000000001
153 ; 72873.4095015813 ; 285400.21778241 ; 1.302940364890635E7 ; 2.9018930643828593E7 ; 36414.00000000001
154 ; 72315.70535188075 ; 286627.6182112488 ; 1.310227705840793E7 ; 2.9304330861611005E7 ; 36652.00000000001
155 ; 71808.41274933155 ; 287851.60024129617 ; 1.317459276375981E7 ; 2.9590958479822252E7 ; 36890.00000000001
156 ; 71822.39274914513 ; 289072.12839665846 ; 1.3246401176509142E7 ; 2.9878810080063548E7 ; 37128.00000000001
157 ; 71448.05996086389 ; 290289.1675693716 ; 1.3318223569258288E7 ; 3.0167882208460208E7 ; 37366.00000000001
158 ; 71368.36618324679 ; 291502.6830108351 ; 1.3389671629219152E7 ; 3.045817137602958E7 ; 37604.00000000001
159 ; 71148.66006891416 ; 292712.64032357396 ; 1.34610399954024E7 ; 3.0749674059040416E7 ; 37842.00000000001
160 ; 70172.18346236303 ; 293919.005453314 ; 1.3532188655471314E7 ; 3.104238669936399E7 ; 38080.00000000001
161 ; 69826.90184048885 ; 295121.7446813585 ; 1.3602360838933676E7 ; 3.1336305704817306E7 ; 38318.00000000001
162 ; 69990.4086571725 ; 296320.82461725315 ; 1.3672187740774166E7 ; 3.1631427449498665E7 ; 38556.00000000001
163 ; 69173.6619761043 ; 297516.21219172754 ; 1.3742178149431339E7 ; 3.1927748274115916E7 ; 38794.00000000001
164 ; 69243.26737372289 ; 298707.874649902 ; 1.3811351811407443E7 ; 3.2225264486307643E7 ; 39032.00000000001
165 ; 68914.3684753461 ; 299895.7795447488 ; 1.3880595078781165E7 ; 3.2523972360957544E7 ; 39270.00000000001
166 ; 68561.97483151648 ; 301079.89473079727 ; 1.3949509447256511E7 ; 3.2823868140502293E7 ; 39508.00000000001
167 ; 67879.4553654616 ; 302260.1883580734 ; 1.4018071422088027E7 ; 3.312494803523309E7 ; 39746.00000000001
168 ; 67326.71027853874 ; 303436.6288662639 ; 1.408595087745349E7 ; 3.3427208223591164E7 ; 39984.00000000001
169 ; 67414.65887644023 ; 304609.1849790962 ; 1.4153277587732028E7 ; 3.373064485245743E7 ; 40222.00000000001
170 ; 67055.42325089677 ; 305777.82569892536 ; 1.4220692246608468E7 ; 3.403525403743652E7 ; 40460.00000000001
171 ; 66154.25488209893 ; 306942.52030152077 ; 1.4287747669859365E7 ; 3.434103186313545E7 ; 40698.00000000001
172 ; 65857.493096277 ; 308103.2383310425 ; 1.4353901924741464E7 ; 3.464797438343697E7 ; 40936.00000000001
173 ; 66141.23150082826 ; 309259.9495952025 ; 1.441975941783774E7 ; 3.495607762176801E7 ; 41174.00000000001
174 ; 66455.89856035428 ; 310412.62416060135 ; 1.448590064933857E7 ; 3.526533757136322E7 ; 41412.00000000001
175 ; 66297.78867322758 ; 311561.23234823527 ; 1.4552356547898924E7 ; 3.557575019552382E7 ; 41650.00000000001
176 ; 66425.00375128699 ; 312705.74472916475 ; 1.4618654336572152E7 ; 3.5887311427872054E7 ; 41888.00000000001
177 ; 66873.16728276237 ; 313846.1321203415 ; 1.4685079340323439E7 ; 3.6200017172601216E7 ; 42126.00000000001
178 ; 66561.87242052218 ; 314982.3655805846 ; 1.47519525076062E7 ; 3.651386330472156E7 ; 42364.00000000001
179 ; 67062.55255821251 ; 316114.4164067021 ; 1.4818514380026722E7 ; 3.682884567030214E7 ; 42602.00000000001
180 ; 67129.55436168503 ; 317242.25612975186 ; 1.4885576932584934E7 ; 3.7144960086708836E7 ; 42840.00000000001
181 ; 67738.63929725302 ; 318365.856511436 ; 1.4952706486946618E7 ; 3.7462202342838585E7 ; 43078.00000000001
