CSV File for the Network on Day 111
1 - Minute m 
2 - Power Consumed at minute m 
3 - Power Produced at minute m 
4 - Energy Consumed since the beginning of the day 
5 - Energy Produced since the beginning of the day 
6 - Energy Lost since the beginning of the day 
 
No Production city : 2, Producer : 1
No Production city : 4, Producer : 1
No Production city : 4, Producer : 1
 
0 ; 60448.585040013015 ; 173658.28115111552 ; 0.0 ; 0.0 ; 0.0
1 ; 61230.53777468663 ; 173317.18492326172 ; 60448.585040013015 ; 173658.28115111552 ; 238.00000000000003
2 ; 62103.47651426423 ; 173010.92248671298 ; 121679.12281469964 ; 346975.46607437724 ; 476.00000000000006
3 ; 63429.18892836613 ; 172739.8430051907 ; 183782.59932896387 ; 519986.3885610902 ; 714.0000000000001
4 ; 63832.69413627605 ; 172504.2591099528 ; 247211.78825733002 ; 692726.2315662809 ; 952.0000000000001
5 ; 64403.874651004335 ; 172304.44526312294 ; 311044.48239360604 ; 865230.4906762338 ; 1190.0000000000002
6 ; 66188.12869118096 ; 172140.63629496636 ; 375448.35704461037 ; 1037534.9359393567 ; 1428.0000000000002
7 ; 66820.18402000384 ; 172013.02613308615 ; 441636.4857357913 ; 1209675.572234323 ; 1666.0000000000002
8 ; 67745.73451321144 ; 171921.76673950077 ; 508456.66975579516 ; 1381688.598367409 ; 1904.0000000000002
9 ; 68704.36257594815 ; 171866.967269194 ; 576202.4042690066 ; 1553610.3651069098 ; 2142.0000000000005
10 ; 69636.519391408 ; 171848.69346105517 ; 644906.7668449547 ; 1725477.3323761038 ; 2380.0000000000005
11 ; 70210.6850202196 ; 171866.967269194 ; 714543.2862363626 ; 1897326.025837159 ; 2618.0000000000005
12 ; 71121.5722324654 ; 171921.76673950077 ; 784753.9712565823 ; 2069192.993106353 ; 2856.0000000000005
13 ; 72200.5338545678 ; 172013.02613308615 ; 855875.5434890477 ; 2241114.759845854 ; 3094.0000000000005
14 ; 72776.56850600873 ; 172140.63629496636 ; 928076.0773436155 ; 2413127.78597894 ; 3332.0000000000005
15 ; 73341.50556564593 ; 172304.44526312294 ; 1000852.6458496242 ; 2585268.4222739064 ; 3570.0000000000005
16 ; 74141.95425577153 ; 172504.2591099528 ; 1074194.15141527 ; 2757572.8675370296 ; 3808.0000000000005
17 ; 74896.99261219925 ; 172739.8430051907 ; 1148336.1056710416 ; 2930077.1266469825 ; 4046.0000000000005
18 ; 75388.0962029063 ; 173010.92248671307 ; 1223233.0982832408 ; 3102816.969652173 ; 4284.000000000001
19 ; 76523.90705113029 ; 173317.18492326172 ; 1298621.194486147 ; 3275827.8921388863 ; 4522.000000000001
20 ; 77249.85357903602 ; 173658.2811511156 ; 1375145.1015372772 ; 3449145.077062148 ; 4760.000000000001
21 ; 78121.81853393567 ; 174033.82726511182 ; 1452394.9551163132 ; 3622803.3582132636 ; 4998.000000000001
22 ; 78712.69750848829 ; 174443.40654320104 ; 1530516.7736502488 ; 3796837.1854783753 ; 5236.000000000001
23 ; 79577.79426198124 ; 174886.57148292134 ; 1609229.471158737 ; 3971280.592021576 ; 5474.000000000001
24 ; 80482.20769148802 ; 175362.84592778402 ; 1688807.2654207184 ; 4146167.1635044976 ; 5712.000000000001
25 ; 81094.22080105262 ; 175871.72726156816 ; 1769289.4731122064 ; 4321530.009432281 ; 5950.000000000001
26 ; 82013.89662788121 ; 176412.6886488983 ; 1850383.693913259 ; 4497401.73669385 ; 6188.000000000001
27 ; 82400.22852980149 ; 176985.1813011842 ; 1932397.5905411402 ; 4673814.425342748 ; 6426.000000000001
28 ; 82736.12189624153 ; 177588.6367480052 ; 2014797.8190709418 ; 4850799.606643932 ; 6664.000000000001
29 ; 83846.86144299954 ; 178222.469095276 ; 2097533.940967183 ; 5028388.243391938 ; 6902.000000000001
30 ; 84323.65130219734 ; 178886.07725298064 ; 2181380.8024101825 ; 5206610.712487213 ; 7140.000000000001
31 ; 84828.05334007452 ; 179578.84711686973 ; 2265704.45371238 ; 5385496.789740194 ; 7378.000000000001
32 ; 85449.84181797896 ; 180300.1536902294 ; 2350532.5070524546 ; 5565075.6368570635 ; 7616.000000000001
33 ; 85720.14457338289 ; 181049.36313360117 ; 2435982.3488704334 ; 5745375.790547293 ; 7854.000000000001
34 ; 86340.14584071851 ; 181825.83473212933 ; 2521702.4934438164 ; 5926425.153680894 ; 8092.000000000001
35 ; 87169.94217574333 ; 182628.92277198384 ; 2608042.639284535 ; 6108250.988413023 ; 8330.000000000002
36 ; 87781.23072757202 ; 183457.97831903503 ; 2695212.581460278 ; 6290879.911185007 ; 8568.000000000002
37 ; 87791.63906366366 ; 184312.35089460234 ; 2782993.81218785 ; 6474337.8895040415 ; 8806.000000000002
38 ; 88788.15930272706 ; 185191.39004464968 ; 2870785.451251514 ; 6658650.240398644 ; 9044.000000000002
39 ; 89389.06550755963 ; 186094.4468002345 ; 2959573.6105542406 ; 6843841.630443294 ; 9282.000000000002
40 ; 89651.91923069804 ; 187020.87502831916 ; 3048962.6760618 ; 7029936.077243528 ; 9520.000000000002
41 ; 90170.2508863309 ; 187970.0326732306 ; 3138614.5952924984 ; 7216956.952271847 ; 9758.000000000002
42 ; 90933.58089907789 ; 188941.2828900809 ; 3228784.846178829 ; 7404926.984945077 ; 9996.000000000002
43 ; 91462.23203841451 ; 189933.9950723606 ; 3319718.427077907 ; 7593868.267835158 ; 10234.000000000002
44 ; 91705.08950813588 ; 190947.54577667455 ; 3411180.6591163217 ; 7783802.262907518 ; 10472.000000000002
45 ; 92235.53415521415 ; 191981.31954822288 ; 3502885.7486244575 ; 7974749.808684193 ; 10710.000000000002
46 ; 92378.4655253281 ; 193034.70965113668 ; 3595121.2827796717 ; 8166731.128232416 ; 10948.000000000002
47 ; 92879.33032019675 ; 194107.11870817502 ; 3687499.748305 ; 8359765.837883553 ; 11186.000000000002
48 ; 93596.84064793712 ; 195197.9592545825 ; 3780379.0786251966 ; 8553872.956591727 ; 11424.000000000002
49 ; 93804.30814511552 ; 196306.65421110476 ; 3873975.919273134 ; 8749070.91584631 ; 11662.000000000002
50 ; 93987.66658563037 ; 197432.63728127533 ; 3967780.2274182495 ; 8945377.570057414 ; 11900.000000000002
51 ; 94654.99508666026 ; 198575.35327813067 ; 4061767.8940038797 ; 9142810.207338689 ; 12138.000000000002
52 ; 95105.27818828855 ; 199734.25838549042 ; 4156422.88909054 ; 9341385.56061682 ; 12376.000000000002
53 ; 95185.16703360884 ; 200908.8203588661 ; 4251528.167278828 ; 9541119.81900231 ; 12614.000000000002
54 ; 95798.5782884983 ; 202098.51867094505 ; 4346713.334312437 ; 9742028.639361177 ; 12852.000000000002
55 ; 96672.3864262112 ; 203302.84460644223 ; 4442511.912600935 ; 9944127.158032121 ; 13090.000000000002
56 ; 96256.9995448768 ; 204521.30131093026 ; 4539184.299027147 ; 1.0147430002638564E7 ; 13328.000000000002
57 ; 96915.97749797054 ; 205753.40379805333 ; 4635441.298572023 ; 1.0351951303949494E7 ; 13566.000000000002
58 ; 97230.17585092355 ; 206998.67891931042 ; 4732357.276069994 ; 1.0557704707747547E7 ; 13804.000000000002
59 ; 97578.86069366553 ; 208256.66530036187 ; 4829587.451920917 ; 1.0764703386666857E7 ; 14042.000000000002
60 ; 97698.48315560102 ; 209526.913247577 ; 4927166.3126145825 ; 1.0972960051967219E7 ; 14280.000000000002
61 ; 98171.11102047701 ; 210808.98462829765 ; 5024864.795770183 ; 1.1182486965214796E7 ; 14518.000000000002
62 ; 98320.70581208356 ; 212102.45272805687 ; 5123035.90679066 ; 1.1393295949843094E7 ; 14756.000000000002
63 ; 98537.80622191349 ; 213406.90208775457 ; 5221356.612602743 ; 1.1605398402571151E7 ; 14994.000000000002
64 ; 99142.98337014671 ; 214721.92832356069 ; 5319894.418824657 ; 1.1818805304658905E7 ; 15232.000000000002
65 ; 99073.25309079606 ; 216047.13793209803 ; 5419037.402194804 ; 1.2033527232982466E7 ; 15470.000000000002
66 ; 99163.8663152892 ; 217382.1480832387 ; 5518110.6552856 ; 1.2249574370914564E7 ; 15708.000000000002
67 ; 99324.28038136747 ; 218726.58640264662 ; 5617274.521600889 ; 1.2466956518997801E7 ; 15946.000000000002
68 ; 99968.00347093852 ; 220080.09074600576 ; 5716598.801982257 ; 1.2685683105400449E7 ; 16184.000000000002
69 ; 99030.87775735195 ; 221442.30896668776 ; 5816566.805453195 ; 1.2905763196146455E7 ; 16422.000000000004
70 ; 100155.19727794877 ; 222812.89867844555 ; 5915597.683210547 ; 1.3127205505113142E7 ; 16660.000000000004
71 ; 99983.76441004762 ; 224191.52701455486 ; 6015752.880488496 ; 1.3350018403791588E7 ; 16898.000000000004
72 ; 100221.32889389724 ; 225577.87038467923 ; 6115736.644898544 ; 1.3574209930806143E7 ; 17136.000000000004
73 ; 100611.27258824656 ; 226971.6142305938 ; 6215957.973792441 ; 1.3799787801190823E7 ; 17374.000000000004
74 ; 100740.81553375254 ; 228372.45278177594 ; 6316569.246380688 ; 1.4026759415421417E7 ; 17612.000000000004
75 ; 100794.45612771773 ; 229780.08881175154 ; 6417310.06191444 ; 1.4255131868203193E7 ; 17850.000000000004
76 ; 100676.84541559785 ; 231194.23339597936 ; 6518104.518042158 ; 1.4484911957014944E7 ; 18088.000000000004
77 ; 100826.12926153385 ; 232614.6056719537 ; 6618781.363457756 ; 1.4716106190410923E7 ; 18326.000000000004
78 ; 100911.28130469497 ; 234040.93260211893 ; 6719607.49271929 ; 1.4948720796082877E7 ; 18564.000000000004
79 ; 100728.20975406443 ; 235472.94874010255 ; 6820518.774023985 ; 1.5182761728684995E7 ; 18802.000000000004
80 ; 100881.73679186839 ; 236910.39600070287 ; 6921246.983778049 ; 1.5418234677425098E7 ; 19040.000000000004
81 ; 101445.56924533437 ; 238353.02343399636 ; 7022128.720569918 ; 1.56551450734258E7 ; 19278.000000000004
82 ; 101102.56465519808 ; 239800.58700387162 ; 7123574.289815253 ; 1.5893498096859796E7 ; 19516.000000000004
83 ; 101085.0876035225 ; 241252.8493712391 ; 7224676.85447045 ; 1.6133298683863668E7 ; 19754.000000000004
84 ; 101279.72839814678 ; 242709.5796821191 ; 7325761.942073973 ; 1.6374551533234907E7 ; 19992.000000000004
85 ; 101027.79640873361 ; 244170.55336076522 ; 7427041.67047212 ; 1.6617261112917027E7 ; 20230.000000000004
86 ; 101072.22285908154 ; 245635.55190794115 ; 7528069.466880853 ; 1.6861431666277792E7 ; 20468.000000000004
87 ; 101392.9601439915 ; 247104.36270443437 ; 7629141.689739935 ; 1.7107067218185734E7 ; 20706.000000000004
88 ; 101348.18279232178 ; 248576.77881985946 ; 7730534.649883927 ; 1.7354171580890168E7 ; 20944.000000000004
89 ; 100965.47161207465 ; 250052.59882677696 ; 7831882.832676249 ; 1.7602748359710027E7 ; 21182.000000000004
90 ; 100572.07889214843 ; 251531.62662012796 ; 7932848.304288323 ; 1.7852800958536804E7 ; 21420.000000000004
91 ; 100981.2839982868 ; 253013.6712419671 ; 8033420.383180471 ; 1.8104332585156932E7 ; 21658.000000000004
92 ; 100995.46538797591 ; 254498.54671145533 ; 8134401.6671787575 ; 1.83573462563989E7 ; 21896.000000000004
93 ; 101014.19053804278 ; 255986.07186006045 ; 8235397.132566733 ; 1.8611844803110357E7 ; 22134.000000000004
94 ; 100971.20665419995 ; 257476.07017189835 ; 8336411.323104776 ; 1.8867830874970417E7 ; 22372.000000000004
95 ; 100530.66925934257 ; 258968.3696291385 ; 8437382.529758977 ; 1.9125306945142318E7 ; 22610.000000000004
96 ; 100411.52273024041 ; 260462.80256238484 ; 8537913.19901832 ; 1.9384275314771455E7 ; 22848.000000000004
97 ; 100442.2801047854 ; 261959.2055059385 ; 8638324.72174856 ; 1.964473811733384E7 ; 23086.000000000004
98 ; 100331.16311439547 ; 263457.4190578389 ; 8738767.001853347 ; 1.9906697322839778E7 ; 23324.000000000004
99 ; 100233.757283574 ; 264957.2877445774 ; 8839098.164967742 ; 2.0170154741897617E7 ; 23562.000000000004
100 ; 100254.3828671796 ; 266458.6598903713 ; 8939331.922251316 ; 2.0435112029642195E7 ; 23800.000000000004
101 ; 99568.69032853161 ; 267961.3874908843 ; 9039586.305118496 ; 2.0701570689532567E7 ; 24038.000000000004
102 ; 99320.92495985216 ; 269465.3260912757 ; 9139154.995447027 ; 2.096953207702345E7 ; 24276.000000000004
103 ; 99202.67070983336 ; 270970.334668462 ; 9238475.920406878 ; 2.1238997403114725E7 ; 24514.000000000004
104 ; 99062.56228543771 ; 272476.27551746863 ; 9337678.591116711 ; 2.1509967737783186E7 ; 24752.000000000004
105 ; 99490.46042805933 ; 273983.01414175605 ; 9436741.15340215 ; 2.1782444013300654E7 ; 24990.000000000004
106 ; 98789.1443739313 ; 275490.4191473984 ; 9536231.613830209 ; 2.205642702744241E7 ; 25228.000000000004
107 ; 98581.31317818795 ; 276998.3621409977 ; 9635020.75820414 ; 2.233191744658981E7 ; 25466.000000000004
108 ; 98246.6663171931 ; 278506.7176312165 ; 9733602.071382327 ; 2.2608915808730807E7 ; 25704.000000000004
109 ; 97552.05664635231 ; 280015.36293381173 ; 9831848.73769952 ; 2.2887422526362024E7 ; 25942.000000000004
110 ; 97782.40637176188 ; 281524.17808005837 ; 9929400.794345872 ; 2.3167437889295835E7 ; 26180.000000000004
111 ; 97227.80978038718 ; 283033.04572844814 ; 1.0027183200717634E7 ; 2.3448962067375895E7 ; 26418.000000000004
112 ; 96843.95604166243 ; 284541.85107955546 ; 1.012441101049802E7 ; 2.3731995113104343E7 ; 26656.000000000004
113 ; 96631.87741149846 ; 286050.48179396155 ; 1.0221254966539683E7 ; 2.40165369641839E7 ; 26894.000000000004
114 ; 95905.71654732226 ; 287558.8279131328 ; 1.031788684395118E7 ; 2.4302587445977863E7 ; 27132.000000000004
115 ; 96145.19767039709 ; 289066.7817831498 ; 1.0413792560498502E7 ; 2.4590146273890994E7 ; 27370.000000000004
116 ; 95730.55739911363 ; 290574.2379811886 ; 1.0509937758168899E7 ; 2.4879213055674143E7 ; 27608.000000000004
117 ; 95542.39919584556 ; 292081.09324465436 ; 1.0605668315568011E7 ; 2.5169787293655332E7 ; 27846.000000000004
118 ; 94626.86856982873 ; 293587.2464028764 ; 1.0701210714763857E7 ; 2.5461868386899985E7 ; 28084.000000000004
119 ; 94584.00215712778 ; 295092.5983112693 ; 1.0795837583333686E7 ; 2.575545563330286E7 ; 28322.000000000004
120 ; 93832.72250196211 ; 296597.05178787414 ; 1.0890421585490813E7 ; 2.6050548231614128E7 ; 28560.000000000004
121 ; 93503.65427131619 ; 298100.5115521904 ; 1.0984254307992775E7 ; 2.6347145283402003E7 ; 28798.000000000004
122 ; 93448.52229077953 ; 299602.8841662187 ; 1.107775796226409E7 ; 2.6645245794954196E7 ; 29036.000000000004
123 ; 92990.40301439789 ; 301104.07797762926 ; 1.117120648455487E7 ; 2.6944848679120414E7 ; 29274.000000000004
124 ; 92384.65241195074 ; 302604.00306498224 ; 1.1264196887569267E7 ; 2.724595275709804E7 ; 29512.000000000004
125 ; 92014.94908438109 ; 304102.5711849204 ; 1.1356581539981218E7 ; 2.7548556760163024E7 ; 29750.000000000004
126 ; 91999.04293293842 ; 305599.69572126324 ; 1.1448596489065599E7 ; 2.7852659331347946E7 ; 29988.000000000004
127 ; 91483.12013604179 ; 307095.29163593234 ; 1.1540595531998537E7 ; 2.815825902706921E7 ; 30226.000000000004
128 ; 90604.9763808171 ; 308589.2754216383 ; 1.1632078652134579E7 ; 2.846535431870514E7 ; 30464.000000000004
129 ; 89835.25331725238 ; 310081.56505626475 ; 1.1722683628515396E7 ; 2.877394359412678E7 ; 30702.000000000004
130 ; 89605.19796065392 ; 311572.0799588857 ; 1.1812518881832648E7 ; 2.9084025159183044E7 ; 30940.000000000004
131 ; 89475.33725856169 ; 313060.74094735575 ; 1.1902124079793302E7 ; 2.939559723914193E7 ; 31178.000000000004
132 ; 88758.68646969527 ; 314547.4701974131 ; 1.1991599417051865E7 ; 2.9708657980089284E7 ; 31416.000000000004
133 ; 88041.07728157262 ; 316032.1912032409 ; 1.208035810352156E7 ; 3.0023205450286698E7 ; 31654.000000000004
134 ; 87397.02590329968 ; 317514.82873942895 ; 1.2168399180803131E7 ; 3.0339237641489938E7 ; 31892.000000000004
135 ; 86965.25274711629 ; 318995.30882428755 ; 1.225579620670643E7 ; 3.065675247022937E7 ; 32130.000000000004
136 ; 86476.3184818213 ; 320473.55868445925 ; 1.2342761459453547E7 ; 3.0975747779053655E7 ; 32368.000000000004
137 ; 85705.87842717368 ; 321949.5067207816 ; 1.2429237777935369E7 ; 3.1296221337738115E7 ; 32606.000000000004
138 ; 85237.24818770864 ; 323423.08247535396 ; 1.2514943656362543E7 ; 3.1618170844458897E7 ; 32844.00000000001
139 ; 84509.56836986056 ; 324894.2165997628 ; 1.260018090455025E7 ; 3.194159392693425E7 ; 33082.00000000001
140 ; 84243.42036520562 ; 326362.84082442295 ; 1.268469047292011E7 ; 3.2266488143534012E7 ; 33320.00000000001
141 ; 83312.63923177612 ; 327828.88792899164 ; 1.2768933893285315E7 ; 3.2592850984358434E7 ; 33558.00000000001
142 ; 82331.03277181696 ; 329292.2917138175 ; 1.2852246532517092E7 ; 3.2920679872287426E7 ; 33796.00000000001
143 ; 82215.67399195858 ; 330752.9869723838 ; 1.2934577565288909E7 ; 3.3249972164001245E7 ; 34034.00000000001
144 ; 81203.67146313709 ; 332210.9094647101 ; 1.3016793239280866E7 ; 3.3580725150973625E7 ; 34272.00000000001
145 ; 81325.83050648378 ; 333665.9958916764 ; 1.3097996910744004E7 ; 3.3912936060438335E7 ; 34510.00000000001
146 ; 80821.99389334716 ; 335118.1838702351 ; 1.3179322741250487E7 ; 3.424660205633001E7 ; 34748.00000000001
147 ; 81069.6433418178 ; 336567.4119094787 ; 1.3260144735143835E7 ; 3.4581720240200244E7 ; 34986.00000000001
148 ; 80529.99127704423 ; 338013.61938753125 ; 1.3341214378485652E7 ; 3.491828765210972E7 ; 35224.00000000001
149 ; 80231.49094715988 ; 339456.74652923184 ; 1.3421744369762696E7 ; 3.525630127149725E7 ; 35462.00000000001
150 ; 79607.91827174334 ; 340896.7343845836 ; 1.3501975860709855E7 ; 3.559575801802648E7 ; 35700.00000000001
151 ; 80298.44904037066 ; 342333.52480793704 ; 1.3581583778981598E7 ; 3.593665475241106E7 ; 35938.00000000001
152 ; 80091.56130983541 ; 343767.0604378833 ; 1.3661882228021968E7 ; 3.6278988277219E7 ; 36176.00000000001
153 ; 79372.6727893882 ; 345197.2846778293 ; 1.3741973789331803E7 ; 3.662275533765688E7 ; 36414.00000000001
154 ; 79172.81747370456 ; 346624.1416772312 ; 1.382134646212119E7 ; 3.6967952622334704E7 ; 36652.00000000001
155 ; 78983.90180650486 ; 348047.57631346147 ; 1.3900519279594894E7 ; 3.7314576764011934E7 ; 36890.00000000001
156 ; 78245.35348224799 ; 349467.53417428705 ; 1.39795031814014E7 ; 3.766262434032539E7 ; 37128.00000000001
157 ; 78138.502710886 ; 350883.96154093527 ; 1.4057748534883648E7 ; 3.801209187449968E7 ; 37366.00000000001
158 ; 78268.23675279474 ; 352296.80537172774 ; 1.4135887037594534E7 ; 3.8362975836040616E7 ; 37604.00000000001
159 ; 77675.29464547604 ; 353706.0132862603 ; 1.421415527434733E7 ; 3.871527264141234E7 ; 37842.00000000001
160 ; 77385.19548414773 ; 355111.53355011105 ; 1.4291830568992805E7 ; 3.90689786546986E7 ; 38080.00000000001
161 ; 76929.77334190943 ; 356513.3150600548 ; 1.4369215764476953E7 ; 3.942409018824872E7 ; 38318.00000000001
162 ; 77112.95009825025 ; 357911.3073297689 ; 1.4446145537818862E7 ; 3.978060350330877E7 ; 38556.00000000001
163 ; 76498.85784858205 ; 359305.46047601005 ; 1.4523258487917112E7 ; 4.013851481063854E7 ; 38794.00000000001
164 ; 76158.573991095 ; 360695.7252052478 ; 1.4599757345765695E7 ; 4.049782027111455E7 ; 39032.00000000001
165 ; 75615.74987748763 ; 362082.0528007364 ; 1.467591591975679E7 ; 4.08585159963198E7 ; 39270.00000000001
166 ; 75630.90635816532 ; 363464.39511001046 ; 1.4751531669634279E7 ; 4.122059804912054E7 ; 39508.00000000001
167 ; 74975.82699798465 ; 364842.70453278976 ; 1.4827162575992445E7 ; 4.158406244423055E7 ; 39746.00000000001
168 ; 75129.29348788393 ; 366216.93400927755 ; 1.4902138402990429E7 ; 4.1948905148763336E7 ; 39984.00000000001
169 ; 74445.24877010005 ; 367587.0370088397 ; 1.4977267696478313E7 ; 4.231512208277261E7 ; 40222.00000000001
170 ; 74736.03289423265 ; 368952.96751905116 ; 1.5051712945248412E7 ; 4.268270911978145E7 ; 40460.00000000001
171 ; 74032.24276964949 ; 370314.6800350958 ; 1.5126448978142645E7 ; 4.30516620873005E7 ; 40698.00000000001
172 ; 73593.17860427493 ; 371672.1295495088 ; 1.5200481220912294E7 ; 4.34219767673356E7 ; 40936.00000000001
173 ; 73153.57022016672 ; 373025.2715422488 ; 1.527407439951657E7 ; 4.379364889688511E7 ; 41174.00000000001
174 ; 73319.82575550948 ; 374374.061971088 ; 1.5347227969736736E7 ; 4.416667416842736E7 ; 41412.00000000001
175 ; 73241.89704685606 ; 375718.45726231113 ; 1.5420547795492245E7 ; 4.4541048230398454E7 ; 41650.00000000001
176 ; 73163.91800939257 ; 377058.41430170974 ; 1.5493789692539101E7 ; 4.491676668766077E7 ; 41888.00000000001
177 ; 73327.35320492588 ; 378393.8904258642 ; 1.5566953610548494E7 ; 4.529382510196248E7 ; 42126.00000000001
178 ; 73436.1365404767 ; 379724.84341370215 ; 1.564028096375342E7 ; 4.567221899238834E7 ; 42364.00000000001
179 ; 73455.49964114556 ; 381051.23147832486 ; 1.5713717100293897E7 ; 4.605194383580204E7 ; 42602.00000000001
180 ; 73461.81230165946 ; 382373.0132590911 ; 1.5787172599935042E7 ; 4.643299506728037E7 ; 42840.00000000001
181 ; 72985.04099182281 ; 383690.1478139514 ; 1.5860634412236702E7 ; 4.681536808053946E7 ; 43078.00000000001
