CSV File for the Network on Day 189
1 - Minute m 
2 - Power Consumed at minute m 
3 - Power Produced at minute m 
4 - Energy Consumed since the beginning of the day 
5 - Energy Produced since the beginning of the day 
6 - Energy Lost since the beginning of the day 
 
No Production city : 2, Producer : 1
No Production city : 4, Producer : 1
No Production city : 4, Producer : 1
 
0 ; 30199.49485591806 ; 140979.2224479891 ; 0.0 ; 0.0 ; 0.0
1 ; 31476.34388072704 ; 140614.24705326968 ; 30199.49485591806 ; 140979.2224479891 ; 238.00000000000003
2 ; 33271.06961438386 ; 140286.05161694612 ; 61675.8387366451 ; 281593.4695012588 ; 476.00000000000006
3 ; 34805.66045803259 ; 139995.16471459978 ; 94946.90835102895 ; 421879.5211182049 ; 714.0000000000001
4 ; 36530.89457980215 ; 139742.0628279466 ; 129752.56880906154 ; 561874.6858328048 ; 952.0000000000001
5 ; 37960.59925341057 ; 139527.16678133945 ; 166283.4633888637 ; 701616.7486607514 ; 1190.0000000000002
6 ; 39564.7808793186 ; 139350.8385110327 ; 204244.06264227425 ; 841143.9154420908 ; 1428.0000000000002
7 ; 41404.828672886695 ; 139213.37822348194 ; 243808.84352159285 ; 980494.7539531235 ; 1666.0000000000002
8 ; 42904.33964167916 ; 139115.02199381357 ; 285213.67219447956 ; 1119708.1321766055 ; 1904.0000000000002
9 ; 44188.38776905381 ; 139055.9398488461 ; 328118.0118361587 ; 1258823.154170419 ; 2142.0000000000005
10 ; 46129.29921370729 ; 139036.23437085366 ; 372306.3996052125 ; 1397879.0940192651 ; 2380.0000000000005
11 ; 47450.84807218045 ; 139055.9398488461 ; 418435.6988189198 ; 1536915.328390119 ; 2618.0000000000005
12 ; 48612.744354208975 ; 139115.02199381357 ; 465886.54689110024 ; 1675971.268238965 ; 2856.0000000000005
13 ; 49956.09327296456 ; 139213.37822348194 ; 514499.2912453092 ; 1815086.2902327785 ; 3094.0000000000005
14 ; 52036.92090184951 ; 139350.83851103263 ; 564455.3845182738 ; 1954299.6684562606 ; 3332.0000000000005
15 ; 52846.33600145756 ; 139527.16678133945 ; 616492.3054201233 ; 2093650.506967293 ; 3570.0000000000005
16 ; 54513.88373085642 ; 139742.0628279466 ; 669338.6414215808 ; 2233177.6737486324 ; 3808.0000000000005
17 ; 55537.40543726319 ; 139995.16471459973 ; 723852.5251524373 ; 2372919.736576579 ; 4046.0000000000005
18 ; 57213.83031471242 ; 140286.0516169462 ; 779389.9305897005 ; 2512914.9012911785 ; 4284.000000000001
19 ; 58167.540750108274 ; 140614.24705326962 ; 836603.7609044128 ; 2653200.952908125 ; 4522.000000000001
20 ; 59500.07417447225 ; 140979.22244798916 ; 894771.3016545211 ; 2793815.1999613945 ; 4760.000000000001
21 ; 60785.561461248115 ; 141380.40096820754 ; 954271.3758289934 ; 2934794.4224093836 ; 4998.000000000001
22 ; 61918.2032573611 ; 141817.1615718523 ; 1015056.9372902415 ; 3076174.823377591 ; 5236.000000000001
23 ; 63150.28875946649 ; 142288.84320585357 ; 1076975.1405476027 ; 3217991.9849494435 ; 5474.000000000001
24 ; 64465.93883175682 ; 142794.74909421243 ; 1140125.4293070692 ; 3360280.828155297 ; 5712.000000000001
25 ; 65586.55103796582 ; 143334.15105857106 ; 1204591.368138826 ; 3503075.5772495093 ; 5950.000000000001
26 ; 66698.44081035069 ; 143906.29381777538 ; 1270177.9191767918 ; 3646409.72830808 ; 6188.000000000001
27 ; 68104.03894775687 ; 144510.39921770382 ; 1336876.3599871425 ; 3790316.0221258556 ; 6426.000000000001
28 ; 69210.48327069866 ; 145145.6703480742 ; 1404980.3989348994 ; 3934826.4213435594 ; 6664.000000000001
29 ; 70338.55147992949 ; 145811.29550880115 ; 1474190.882205598 ; 4079972.0916916337 ; 6902.000000000001
30 ; 71517.22913692836 ; 146506.4519945371 ; 1544529.4336855276 ; 4225783.387200435 ; 7140.000000000001
31 ; 72514.14135458964 ; 147230.30967209412 ; 1616046.662822456 ; 4372289.839194972 ; 7378.000000000001
32 ; 73964.54962025788 ; 147982.0343313355 ; 1688560.8041770458 ; 4519520.148867066 ; 7616.000000000001
33 ; 74989.91169996401 ; 148760.79079571035 ; 1762525.3537973037 ; 4667502.183198402 ; 7854.000000000001
34 ; 75489.93679649141 ; 149565.74578377095 ; 1837515.2654972677 ; 4816262.973994112 ; 8092.000000000001
35 ; 76420.88746412966 ; 150396.0705176823 ; 1913005.2022937592 ; 4965828.719777883 ; 8330.000000000002
36 ; 77396.28416258264 ; 151250.94307886076 ; 1989426.0897578888 ; 5116224.7902955655 ; 8568.000000000002
37 ; 79074.9169533618 ; 152129.5505144383 ; 2066822.3739204714 ; 5267475.733374426 ; 8806.000000000002
38 ; 79776.43477610599 ; 153031.09070124355 ; 2145897.290873833 ; 5419605.283888864 ; 9044.000000000002
39 ; 80716.24444193776 ; 153954.77397643117 ; 2225673.725649939 ; 5572636.374590108 ; 9282.000000000002
40 ; 81499.00265710414 ; 154899.82454581326 ; 2306389.9700918766 ; 5726591.148566539 ; 9520.000000000002
41 ; 82813.35011082642 ; 155865.4816823885 ; 2387888.972748981 ; 5881490.973112352 ; 9758.000000000002
42 ; 83028.18186799457 ; 156851.00072857234 ; 2470702.3228598074 ; 6037356.45479474 ; 9996.000000000002
43 ; 84007.27457505379 ; 157855.65391626046 ; 2553730.504727802 ; 6194207.455523313 ; 10234.000000000002
44 ; 85005.64819927236 ; 158878.73101914887 ; 2637737.7793028555 ; 6352063.109439573 ; 10472.000000000002
45 ; 86580.24101611644 ; 159919.5398517538 ; 2722743.427502128 ; 6510941.840458722 ; 10710.000000000002
46 ; 86650.7824870831 ; 160977.40662935577 ; 2809323.6685182443 ; 6670861.380310476 ; 10948.000000000002
47 ; 87366.01077429081 ; 162051.67620269075 ; 2895974.4510053275 ; 6831838.786939831 ; 11186.000000000002
48 ; 88001.47753262108 ; 163141.71218066328 ; 2983340.461779618 ; 6993890.463142523 ; 11424.000000000002
49 ; 88725.65276388894 ; 164246.8969536991 ; 3071341.939312239 ; 7157032.1753231855 ; 11662.000000000002
50 ; 90041.35020328258 ; 165366.6316296235 ; 3160067.5920761283 ; 7321279.072276885 ; 11900.000000000002
51 ; 90193.34617193883 ; 166500.335893164 ; 3250108.942279411 ; 7486645.703906508 ; 12138.000000000002
52 ; 90934.31613191437 ; 167647.4477993718 ; 3340302.28845135 ; 7653146.039799673 ; 12376.000000000002
53 ; 91867.74054692894 ; 168807.42351043504 ; 3431236.6045832643 ; 7820793.487599044 ; 12614.000000000002
54 ; 92755.88759747414 ; 169979.7369845515 ; 3523104.345130193 ; 7989600.911109479 ; 12852.000000000002
55 ; 92953.82390226278 ; 171163.87962473708 ; 3615860.2327276673 ; 8159580.648094031 ; 13090.000000000002
56 ; 93919.69283090383 ; 172359.3598946906 ; 3708814.05662993 ; 8330744.527718768 ; 13328.000000000002
57 ; 94326.71873510118 ; 173565.7029081099 ; 3802733.749460834 ; 8503103.887613459 ; 13566.000000000002
58 ; 94818.62802690791 ; 174782.44999717455 ; 3897060.4681959352 ; 8676669.590521568 ; 13804.000000000002
59 ; 95612.87901194111 ; 176009.1582652723 ; 3991879.096222843 ; 8851452.040518742 ; 14042.000000000002
60 ; 96438.94566652144 ; 177245.4001284557 ; 4087491.975234784 ; 9027461.198784014 ; 14280.000000000002
61 ; 97025.20345949013 ; 178490.76284956673 ; 4183930.9209013055 ; 9204706.59891247 ; 14518.000000000002
62 ; 96872.07430368479 ; 179744.84806847 ; 4280956.124360796 ; 9383197.361762038 ; 14756.000000000002
63 ; 97687.62249531403 ; 181007.27133137643 ; 4377828.198664481 ; 9562942.209830508 ; 14994.000000000002
64 ; 98328.46413935017 ; 182277.6616218265 ; 4475515.821159795 ; 9743949.481161885 ; 15232.000000000002
65 ; 98335.41428734823 ; 183555.66089552842 ; 4573844.285299145 ; 9926227.14278371 ; 15470.000000000002
66 ; 99109.44232472013 ; 184840.92362091082 ; 4672179.699586493 ; 1.0109782803679239E7 ; 15708.000000000002
67 ; 99797.579019056 ; 186133.11632694912 ; 4771289.141911213 ; 1.029462372730015E7 ; 15946.000000000002
68 ; 99741.92999301247 ; 187431.9171595587 ; 4871086.720930269 ; 1.0480756843627099E7 ; 16184.000000000002
69 ; 100165.9709987887 ; 188737.0154476092 ; 4970828.650923282 ; 1.0668188760786658E7 ; 16422.000000000004
70 ; 100519.82794331116 ; 190048.11127940632 ; 5070994.62192207 ; 1.0856925776234267E7 ; 16660.000000000004
71 ; 100886.59482693337 ; 191364.91509030314 ; 5171514.449865381 ; 1.1046973887513673E7 ; 16898.000000000004
72 ; 101675.63554508472 ; 192687.14726194166 ; 5272401.044692314 ; 1.1238338802603977E7 ; 17136.000000000004
73 ; 101786.41038129778 ; 194014.537733486 ; 5374076.680237399 ; 1.1431025949865919E7 ; 17374.000000000004
74 ; 101877.89523338896 ; 195346.8256250855 ; 5475863.090618697 ; 1.1625040487599405E7 ; 17612.000000000004
75 ; 102066.18748290991 ; 196683.75887370328 ; 5577740.985852086 ; 1.182038731322449E7 ; 17850.000000000004
76 ; 102453.20412228136 ; 198025.0938813536 ; 5679807.173334996 ; 1.2017071072098194E7 ; 18088.000000000004
77 ; 103162.56910240398 ; 199370.59517571688 ; 5782260.377457278 ; 1.2215096165979547E7 ; 18326.000000000004
78 ; 102788.33446191787 ; 200720.0350830359 ; 5885422.946559682 ; 1.2414466761155264E7 ; 18564.000000000004
79 ; 102990.36462933481 ; 202073.19341314115 ; 5988211.2810216 ; 1.26151867962383E7 ; 18802.000000000004
80 ; 102940.12351882651 ; 203429.85715641073 ; 6091201.645650934 ; 1.281725998965144E7 ; 19040.000000000004
81 ; 103599.94267357832 ; 204789.82019243066 ; 6194141.769169761 ; 1.302068984680785E7 ; 19278.000000000004
82 ; 103481.5228994775 ; 206152.88301009437 ; 6297741.711843339 ; 1.322547966700028E7 ; 19516.000000000004
83 ; 103742.52019726533 ; 207518.8524388538 ; 6401223.234742817 ; 1.3431632550010376E7 ; 19754.000000000004
84 ; 103887.42351164574 ; 208887.54139081735 ; 6504965.754940082 ; 1.363915140244923E7 ; 19992.000000000004
85 ; 103311.29769954119 ; 210258.76861337843 ; 6608853.178451728 ; 1.3848038943840047E7 ; 20230.000000000004
86 ; 103636.10125910175 ; 211632.35845204434 ; 6712164.476151269 ; 1.4058297712453425E7 ; 20468.000000000004
87 ; 103936.05348163348 ; 213008.14062313302 ; 6815800.577410371 ; 1.426993007090547E7 ; 20706.000000000004
88 ; 103668.3991867576 ; 214385.94999600024 ; 6919736.630892005 ; 1.4482938211528603E7 ; 20944.000000000004
89 ; 104007.59409314227 ; 215765.6263844598 ; 7023405.030078762 ; 1.4697324161524603E7 ; 21182.000000000004
90 ; 103839.68657170398 ; 217147.01434705933 ; 7127412.624171904 ; 1.4913089787909063E7 ; 21420.000000000004
91 ; 103615.66310423397 ; 218529.96299587996 ; 7231252.3107436085 ; 1.5130236802256122E7 ; 21658.000000000004
92 ; 103662.90579464824 ; 219914.32581353004 ; 7334867.973847843 ; 1.5348766765252002E7 ; 21896.000000000004
93 ; 103447.13839459406 ; 221299.96047801126 ; 7438530.879642491 ; 1.5568681091065532E7 ; 22134.000000000004
94 ; 103700.49860949672 ; 222686.72869514083 ; 7541978.018037085 ; 1.5789981051543543E7 ; 22372.000000000004
95 ; 103035.68973393796 ; 224074.49603822196 ; 7645678.516646582 ; 1.6012667780238684E7 ; 22610.000000000004
96 ; 103157.8398677025 ; 225463.13179466248 ; 7748714.20638052 ; 1.6236742276276907E7 ; 22848.000000000004
97 ; 103367.09359456289 ; 226852.50881925024 ; 7851872.046248223 ; 1.646220540807157E7 ; 23086.000000000004
98 ; 102736.34106519415 ; 228242.5033938034 ; 7955239.139842786 ; 1.668905791689082E7 ; 23324.000000000004
99 ; 102858.0485980753 ; 229632.99509292256 ; 8057975.48090798 ; 1.6917300420284625E7 ; 23562.000000000004
100 ; 102542.61086160448 ; 231023.8666555812 ; 8160833.529506056 ; 1.7146933415377546E7 ; 23800.000000000004
101 ; 102395.7824926665 ; 232415.00386230016 ; 8263376.14036766 ; 1.7377957282033127E7 ; 24038.000000000004
102 ; 101982.82371237826 ; 233806.29541766128 ; 8365771.922860326 ; 1.7610372285895426E7 ; 24276.000000000004
103 ; 101890.45226070553 ; 235197.63283792514 ; 8467754.746572705 ; 1.784417858131309E7 ; 24514.000000000004
104 ; 101629.95767004721 ; 236588.9103435266 ; 8569645.19883341 ; 1.8079376214151014E7 ; 24752.000000000004
105 ; 101412.4736890329 ; 237980.02475623073 ; 8671275.156503458 ; 1.831596512449454E7 ; 24990.000000000004
106 ; 101311.99220657285 ; 239370.87540074144 ; 8772687.63019249 ; 1.855394514925077E7 ; 25228.000000000004
107 ; 100583.29839017068 ; 240761.36401056268 ; 8873999.622399064 ; 1.8793316024651513E7 ; 25466.000000000004
108 ; 100293.10398313457 ; 242151.39463792133 ; 8974582.920789234 ; 1.9034077388662074E7 ; 25704.000000000004
109 ; 100005.84039353352 ; 243540.8735675691 ; 9074876.024772368 ; 1.9276228783299994E7 ; 25942.000000000004
110 ; 99429.74123091674 ; 244929.70923428793 ; 9174881.865165902 ; 1.9519769656867564E7 ; 26180.000000000004
111 ; 98902.73581352898 ; 246317.81214393213 ; 9274311.606396819 ; 1.976469936610185E7 ; 26418.000000000004
112 ; 98230.08836168352 ; 247705.094797847 ; 9373214.342210347 ; 2.0011017178245783E7 ; 26656.000000000004
113 ; 98263.42567248899 ; 249091.47162051106 ; 9471444.430572031 ; 2.025872227304363E7 ; 26894.000000000004
114 ; 97566.78775639483 ; 250476.85889025687 ; 9569707.85624452 ; 2.050781374466414E7 ; 27132.000000000004
115 ; 97154.54062999522 ; 251861.17467293012 ; 9667274.644000914 ; 2.0758290603554398E7 ; 27370.000000000004
116 ; 96516.77511950945 ; 253244.33875835486 ; 9764429.18463091 ; 2.101015177822733E7 ; 27608.000000000004
117 ; 96043.45483223547 ; 254626.27259947782 ; 9860945.95975042 ; 2.1263396116985682E7 ; 27846.000000000004
118 ; 95494.77879803166 ; 256006.89925407057 ; 9956989.414582655 ; 2.151802238958516E7 ; 28084.000000000004
119 ; 94887.79096093698 ; 257386.14332887492 ; 1.0052484193380687E7 ; 2.177402928883923E7 ; 28322.000000000004
120 ; 94563.00236406691 ; 258763.93092608076 ; 1.0147371984341625E7 ; 2.2031415432168104E7 ; 28560.000000000004
121 ; 93951.17754930761 ; 260140.18959203173 ; 1.0241934986705692E7 ; 2.2290179363094185E7 ; 28798.000000000004
122 ; 92964.10364905819 ; 261514.84826805905 ; 1.0335886164255E7 ; 2.2550319552686214E7 ; 29036.000000000004
123 ; 92270.13259690691 ; 262887.83724334755 ; 1.0428850267904058E7 ; 2.2811834400954273E7 ; 29274.000000000004
124 ; 92180.39263258931 ; 264259.0881097431 ; 1.0521120400500964E7 ; 2.307472223819762E7 ; 29512.000000000004
125 ; 90721.69567245556 ; 265628.5337184159 ; 1.0613300793133553E7 ; 2.3338981326307364E7 ; 29750.000000000004
126 ; 90302.38371304635 ; 266996.1081382953 ; 1.070402248880601E7 ; 2.360460986002578E7 ; 29988.000000000004
127 ; 89640.34426577459 ; 268361.74661619874 ; 1.0794324872519055E7 ; 2.3871605968164075E7 ; 30226.000000000004
128 ; 88436.608700318 ; 269725.38553857943 ; 1.088396521678483E7 ; 2.4139967714780275E7 ; 30464.000000000004
129 ; 88075.82453346865 ; 271086.96239482093 ; 1.0972401825485148E7 ; 2.4409693100318853E7 ; 30702.000000000004
130 ; 87402.73366270059 ; 272446.4157420112 ; 1.1060477650018616E7 ; 2.4680780062713675E7 ; 30940.000000000004
131 ; 86424.95652521313 ; 273803.6851711307 ; 1.1147880383681316E7 ; 2.4953226478455685E7 ; 31178.000000000004
132 ; 85671.05109860434 ; 275158.711274592 ; 1.123430534020653E7 ; 2.5227030163626816E7 ; 31416.000000000004
133 ; 84941.40482395877 ; 276511.4356150737 ; 1.1319976391305134E7 ; 2.5502188874901406E7 ; 31654.000000000004
134 ; 83704.72362193515 ; 277861.8006955902 ; 1.1404917796129093E7 ; 2.577870031051648E7 ; 31892.000000000004
135 ; 82962.14429816214 ; 279209.74993074534 ; 1.1488622519751027E7 ; 2.605656211121207E7 ; 32130.000000000004
136 ; 81835.51637972628 ; 280555.2276191178 ; 1.157158466404919E7 ; 2.6335771861142818E7 ; 32368.000000000004
137 ; 81212.76900454501 ; 281898.1789167297 ; 1.1653420180428917E7 ; 2.6616327088761937E7 ; 32606.000000000004
138 ; 80352.03178344574 ; 283238.54981155257 ; 1.173463294943346E7 ; 2.6898225267678667E7 ; 32844.00000000001
139 ; 79535.93985402818 ; 284576.28709900484 ; 1.1814984981216908E7 ; 2.718146381749022E7 ; 33082.00000000001
140 ; 78668.71235070308 ; 285911.3383584004 ; 1.1894520921070935E7 ; 2.7466040104589224E7 ; 33320.00000000001
141 ; 77462.67939112973 ; 287243.65193030605 ; 1.1973189633421639E7 ; 2.7751951442947626E7 ; 33558.00000000001
142 ; 76482.83642691918 ; 288573.1768947708 ; 1.2050652312812768E7 ; 2.8039195094877932E7 ; 33796.00000000001
143 ; 75515.22435248698 ; 289899.863050389 ; 1.2127135149239687E7 ; 2.83277682717727E7 ; 34034.00000000001
144 ; 74018.38066691517 ; 291223.66089416377 ; 1.2202650373592174E7 ; 2.861766813482309E7 ; 34272.00000000001
145 ; 74307.19535307662 ; 292544.52160213527 ; 1.2276668754259089E7 ; 2.8908891795717254E7 ; 34510.00000000001
146 ; 74153.67667055677 ; 293862.3970107439 ; 1.2350975949612165E7 ; 2.920143631731939E7 ; 34748.00000000001
147 ; 73530.03552381304 ; 295177.2395988965 ; 1.2425129626282722E7 ; 2.9495298714330133E7 ; 34986.00000000001
148 ; 73459.8617235437 ; 296489.0024707072 ; 1.2498659661806535E7 ; 2.979047595392903E7 ; 35224.00000000001
149 ; 73133.03310389878 ; 297797.63933888444 ; 1.2572119523530079E7 ; 3.0086964956399735E7 ; 35462.00000000001
150 ; 73398.82419989712 ; 299103.10450873827 ; 1.2645252556633977E7 ; 3.038476259573862E7 ; 35700.00000000001
151 ; 72793.6090928628 ; 300405.35286278254 ; 1.2718651380833874E7 ; 3.068386570024736E7 ; 35938.00000000001
152 ; 72680.65948808922 ; 301704.3398459071 ; 1.2791444989926737E7 ; 3.098427105311014E7 ; 36176.00000000001
153 ; 72159.43717339693 ; 303000.0214510973 ; 1.2864125649414826E7 ; 3.128597539295605E7 ; 36414.00000000001
154 ; 71865.08925055596 ; 304292.35420567886 ; 1.2936285086588223E7 ; 3.1588975414407145E7 ; 36652.00000000001
155 ; 71714.17428674473 ; 305581.2951580666 ; 1.3008150175838778E7 ; 3.1893267768612824E7 ; 36890.00000000001
156 ; 71371.98245729259 ; 306866.8018649971 ; 1.3079864350125523E7 ; 3.219884906377089E7 ; 37128.00000000001
157 ; 71859.55848479064 ; 308148.8323792251 ; 1.3151236332582816E7 ; 3.2505715865635887E7 ; 37366.00000000001
158 ; 70950.94082799961 ; 309427.3452376672 ; 1.3223095891067607E7 ; 3.2813864698015112E7 ; 37604.00000000001
159 ; 70264.57841476912 ; 310702.29944997246 ; 1.3294046831895607E7 ; 3.312329204325278E7 ; 37842.00000000001
160 ; 70426.81525176292 ; 311973.6544875054 ; 1.3364311410310376E7 ; 3.3433994342702754E7 ; 38080.00000000001
161 ; 70132.110880067 ; 313241.37027272326 ; 1.3434738225562138E7 ; 3.374596799719026E7 ; 38318.00000000001
162 ; 69587.99145398557 ; 314505.40716893435 ; 1.3504870336442206E7 ; 3.4059209367462985E7 ; 38556.00000000001
163 ; 69692.07904978897 ; 315765.7259704197 ; 1.357445832789619E7 ; 3.437371477463192E7 ; 38794.00000000001
164 ; 69065.02304013916 ; 317022.28789290687 ; 1.364415040694598E7 ; 3.4689480500602335E7 ; 39032.00000000001
165 ; 68730.94674590134 ; 318275.0545643799 ; 1.371321542998612E7 ; 3.500650278849524E7 ; 39270.00000000001
166 ; 68490.20558289606 ; 319523.9880162141 ; 1.378194637673202E7 ; 3.532477784305962E7 ; 39508.00000000001
167 ; 68445.55682513773 ; 320769.0506746225 ; 1.3850436582314916E7 ; 3.564430183107583E7 ; 39746.00000000001
168 ; 67289.86199832149 ; 322010.2053524016 ; 1.3918882139140055E7 ; 3.596507088175046E7 ; 39984.00000000001
169 ; 67467.56669398995 ; 323247.4152409661 ; 1.3986172001138376E7 ; 3.628708108710286E7 ; 40222.00000000001
170 ; 66850.20190437006 ; 324480.64390266105 ; 1.4053639567832366E7 ; 3.6610328502343826E7 ; 40460.00000000001
171 ; 66250.9345731236 ; 325709.8552633408 ; 1.4120489769736735E7 ; 3.6934809146246485E7 ; 40698.00000000001
172 ; 66176.01549407249 ; 326935.01360520476 ; 1.4186740704309858E7 ; 3.726051900150982E7 ; 40936.00000000001
173 ; 65912.9732993608 ; 328156.0835598808 ; 1.4252916719803931E7 ; 3.758745401511503E7 ; 41174.00000000001
174 ; 65944.68761763874 ; 329373.0301017465 ; 1.4318829693103291E7 ; 3.791561009867491E7 ; 41412.00000000001
175 ; 66065.9413553712 ; 330585.81854148005 ; 1.438477438072093E7 ; 3.8244983128776655E7 ; 41650.00000000001
176 ; 66347.53741029254 ; 331794.4145198312 ; 1.4450840322076302E7 ; 3.857556894731814E7 ; 41888.00000000001
177 ; 66996.16451207128 ; 332998.7840016052 ; 1.4517187859486595E7 ; 3.890736336183797E7 ; 42126.00000000001
178 ; 67315.14567278593 ; 334198.89326985163 ; 1.4584184023998667E7 ; 3.924036214583957E7 ; 42364.00000000001
179 ; 67064.97538386719 ; 335394.7089202506 ; 1.4651499169671452E7 ; 3.9574561039109424E7 ; 42602.00000000001
180 ; 67260.44924957528 ; 336586.1978556884 ; 1.4718564145055318E7 ; 3.990995574802967E7 ; 42840.00000000001
181 ; 67472.25762838271 ; 337773.3272810171 ; 1.4785824594304893E7 ; 4.024654194588536E7 ; 43078.00000000001
182 ; 67968.1575658873 ; 338956.06469799025 ; 1.4853296851933276E7 ; 4.058431527316638E7 ; 43316.00000000001
