CSV File for the Network on Day 205
1 - Minute m 
2 - Power Consumed at minute m 
3 - Power Produced at minute m 
4 - Energy Consumed since the beginning of the day 
5 - Energy Produced since the beginning of the day 
6 - Energy Lost since the beginning of the day 
 
No Production city : 2, Producer : 1
No Production city : 4, Producer : 1
No Production city : 4, Producer : 1
 
0 ; 26682.822943201973 ; 121443.47402941351 ; 0.0 ; 0.0 ; 0.0
1 ; 28641.76491214167 ; 121015.43186497629 ; 26682.822943201973 ; 121443.47402941351 ; 238.00000000000003
2 ; 30512.372491551185 ; 120629.36964429895 ; 55324.58785534364 ; 242458.90589438978 ; 476.00000000000006
3 ; 32278.014442636893 ; 120286.25894333325 ; 85836.96034689483 ; 363088.27553868876 ; 714.0000000000001
4 ; 34049.01046545798 ; 119986.98757999839 ; 118114.97478953173 ; 483374.534482022 ; 952.0000000000001
5 ; 35780.77493858041 ; 119732.34926140273 ; 152163.9852549897 ; 603361.5220620204 ; 1190.0000000000002
6 ; 37308.26271197527 ; 119523.03391694653 ; 187944.7601935701 ; 723093.8713234231 ; 1428.0000000000002
7 ; 39041.64299742314 ; 119359.6189763313 ; 225253.02290554537 ; 842616.9052403696 ; 1666.0000000000002
8 ; 40859.109916864516 ; 119242.56183958739 ; 264294.6659029685 ; 961976.5242167009 ; 1904.0000000000002
9 ; 42722.895359623595 ; 119172.19376234457 ; 305153.77581983304 ; 1081219.0860562883 ; 2142.0000000000005
10 ; 43907.23490261256 ; 119148.71534418233 ; 347876.67117945664 ; 1200391.2798186329 ; 2380.0000000000005
11 ; 45434.645667535704 ; 119172.19376234457 ; 391783.9060820692 ; 1319539.9951628153 ; 2618.0000000000005
12 ; 47604.21463084765 ; 119242.56183958739 ; 437218.5517496049 ; 1438712.1889251599 ; 2856.0000000000005
13 ; 49111.22214463682 ; 119359.6189763313 ; 484822.76638045255 ; 1557954.7507647472 ; 3094.0000000000005
14 ; 50301.20924813995 ; 119523.03391694653 ; 533933.9885250893 ; 1677314.3697410785 ; 3332.0000000000005
15 ; 51931.273233807835 ; 119732.34926140273 ; 584235.1977732293 ; 1796837.403658025 ; 3570.0000000000005
16 ; 52999.80154959501 ; 119986.98757999839 ; 636166.4710070372 ; 1916569.7529194276 ; 3808.0000000000005
17 ; 54481.64328382382 ; 120286.25894333314 ; 689166.2725566322 ; 2036556.740499426 ; 4046.0000000000005
18 ; 56206.66511411867 ; 120629.36964429902 ; 743647.915840456 ; 2156842.999442759 ; 4284.000000000001
19 ; 57756.53955614878 ; 121015.43186497629 ; 799854.5809545747 ; 2277472.369087058 ; 4522.000000000001
20 ; 58941.7310787708 ; 121443.4740294136 ; 857611.1205107236 ; 2398487.8009520345 ; 4760.000000000001
21 ; 60300.2547785645 ; 121912.45158291585 ; 916552.8515894944 ; 2519931.274981448 ; 4998.000000000001
22 ; 61694.336223210645 ; 122421.25794855403 ; 976853.1063680588 ; 2641843.7265643636 ; 5236.000000000001
23 ; 62799.44394376839 ; 122968.73543044807 ; 1038547.4425912695 ; 2764264.9845129177 ; 5474.000000000001
24 ; 64566.63792177881 ; 123553.68585893593 ; 1101346.8865350378 ; 2887233.7199433655 ; 5712.000000000001
25 ; 65728.19928922378 ; 124174.88080286681 ; 1165913.5244568165 ; 3010787.4058023016 ; 5950.000000000001
26 ; 66677.01156815399 ; 124831.07120683088 ; 1231641.7237460404 ; 3134962.2866051686 ; 6188.000000000001
27 ; 68316.50173714952 ; 125520.99634424719 ; 1298318.7353141943 ; 3259793.3578119995 ; 6426.000000000001
28 ; 69319.15490110674 ; 126243.39200926796 ; 1366635.2370513438 ; 3385314.354156247 ; 6664.000000000001
29 ; 70598.48003857456 ; 126996.99790016157 ; 1435954.3919524506 ; 3511557.746165515 ; 6902.000000000001
30 ; 71806.0995428284 ; 127780.56417331847 ; 1506552.8719910253 ; 3638554.7440656764 ; 7140.000000000001
31 ; 73379.27040087937 ; 128592.85716975879 ; 1578358.9715338536 ; 3766335.308238995 ; 7378.000000000001
32 ; 74571.37406143562 ; 129432.66433476526 ; 1651738.241934733 ; 3894928.165408754 ; 7616.000000000001
33 ; 75637.94003210176 ; 130298.79836605361 ; 1726309.6159961687 ; 4024360.829743519 ; 7854.000000000001
34 ; 76551.43558805168 ; 131190.10063694077 ; 1801947.5560282704 ; 4154659.6281095725 ; 8092.000000000001
35 ; 77968.67556317036 ; 132105.44394861755 ; 1878498.9916163222 ; 4285849.728746513 ; 8330.000000000002
36 ; 78365.55050874119 ; 133043.73467031686 ; 1956467.6671794925 ; 4417955.17269513 ; 8568.000000000002
37 ; 79501.47321410348 ; 134003.91432834588 ; 2034833.2176882338 ; 4550998.907365447 ; 8806.000000000002
38 ; 80955.32564579105 ; 134984.96070508985 ; 2114334.6909023374 ; 4685002.821693793 ; 9044.000000000002
39 ; 81698.43844387333 ; 135985.88850763487 ; 2195290.0165481283 ; 4819987.782398883 ; 9282.000000000002
40 ; 82945.40542727828 ; 137005.7496629991 ; 2276988.454992002 ; 4955973.670906518 ; 9520.000000000002
41 ; 83561.55593382646 ; 138043.63329346012 ; 2359933.8604192804 ; 5092979.420569517 ; 9758.000000000002
42 ; 84817.36962844776 ; 139098.6654214112 ; 2443495.416353107 ; 5231023.053862977 ; 9996.000000000002
43 ; 85682.191062145 ; 140170.00844882618 ; 2528312.7859815545 ; 5370121.719284388 ; 10234.000000000002
44 ; 86784.7741560063 ; 141256.86045194595 ; 2613994.9770436995 ; 5510291.727733214 ; 10472.000000000002
45 ; 87219.23383377405 ; 142358.45432737836 ; 2700779.751199706 ; 5651548.58818516 ; 10710.000000000002
46 ; 88037.44774021227 ; 143474.05682153342 ; 2787998.98503348 ; 5793907.042512539 ; 10948.000000000002
47 ; 89122.19275491293 ; 144602.9674712765 ; 2876036.432773692 ; 5937381.099334072 ; 11186.000000000002
48 ; 90165.72078047256 ; 145744.51747992332 ; 2965158.625528605 ; 6081984.066805349 ; 11424.000000000002
49 ; 91061.48942648186 ; 146898.0685492578 ; 3055324.346309078 ; 6227728.584285272 ; 11662.000000000002
50 ; 91364.05671984293 ; 148063.01168512658 ; 3146385.83573556 ; 6374626.65283453 ; 11900.000000000002
51 ; 92350.33079397646 ; 149238.76599136606 ; 3237749.8924554028 ; 6522689.664519656 ; 12138.000000000002
52 ; 93106.63825416859 ; 150424.77746433023 ; 3330100.223249379 ; 6671928.430511023 ; 12376.000000000002
53 ; 93858.39602883342 ; 151620.51779809754 ; 3423206.8615035475 ; 6822353.207975353 ; 12614.000000000002
54 ; 94442.36295258833 ; 152825.48320852133 ; 3517065.257532381 ; 6973973.725773451 ; 12852.000000000002
55 ; 95054.82290355362 ; 154039.1932826322 ; 3611507.620484969 ; 7126799.208981972 ; 13090.000000000002
56 ; 95902.39214875619 ; 155261.18985847192 ; 3706562.4433885226 ; 7280838.402264604 ; 13328.000000000002
57 ; 96740.14881630745 ; 156491.03593922008 ; 3802464.835537279 ; 7436099.592123076 ; 13566.000000000002
58 ; 96878.29370058267 ; 157728.31464444014 ; 3899204.9843535866 ; 7592590.628062297 ; 13804.000000000002
59 ; 97555.2950359635 ; 158972.62820040135 ; 3996083.2780541694 ; 7750318.942706737 ; 14042.000000000002
60 ; 98424.71916062967 ; 160223.59697070514 ; 4093638.573090133 ; 7909291.570907138 ; 14280.000000000002
61 ; 99299.18875514371 ; 161480.858527842 ; 4192063.2922507627 ; 8069515.167877844 ; 14518.000000000002
62 ; 99199.2454996531 ; 162744.0667658108 ; 4291362.481005906 ; 8230996.026405686 ; 14756.000000000002
63 ; 99985.89004910857 ; 164012.89105353117 ; 4390561.726505559 ; 8393740.093171496 ; 14994.000000000002
64 ; 100715.4720295378 ; 165287.01542845773 ; 4490547.616554667 ; 8557752.984225027 ; 15232.000000000002
65 ; 101024.7951608976 ; 166566.13782955168 ; 4591263.088584205 ; 8723039.999653485 ; 15470.000000000002
66 ; 101742.10970198779 ; 167849.96936856903 ; 4692287.883745103 ; 8889606.137483036 ; 15708.000000000002
67 ; 102354.02559409979 ; 169138.23363847582 ; 4794029.9934470905 ; 9057456.106851606 ; 15946.000000000002
68 ; 102217.41713319413 ; 170430.66605769555 ; 4896384.01904119 ; 9226594.340490082 ; 16184.000000000002
69 ; 102860.53900974366 ; 171727.01324881715 ; 4998601.436174384 ; 9397025.006547777 ; 16422.000000000004
70 ; 103252.81256961878 ; 173027.03245034983 ; 5101461.975184128 ; 9568752.019796595 ; 16660.000000000004
71 ; 103559.30537536125 ; 174330.4909600836 ; 5204714.787753747 ; 9741779.052246945 ; 16898.000000000004
72 ; 103446.91575644625 ; 175637.16560861366 ; 5308274.093129108 ; 9916109.543207029 ; 17136.000000000004
73 ; 104101.39102089238 ; 176946.84226159428 ; 5411721.008885554 ; 1.0091746708815642E7 ; 17374.000000000004
74 ; 104632.2647072591 ; 178259.3153493112 ; 5515822.399906446 ; 1.0268693551077235E7 ; 17612.000000000004
75 ; 104614.12598534777 ; 179574.38742219217 ; 5620454.664613705 ; 1.0446952866426546E7 ; 17850.000000000004
76 ; 104940.51286019447 ; 180891.86873091423 ; 5725068.790599053 ; 1.0626527253848739E7 ; 18088.000000000004
77 ; 105197.68472253464 ; 182211.57682980841 ; 5830009.303459248 ; 1.0807419122579653E7 ; 18326.000000000004
78 ; 105353.7772630735 ; 183533.3362023125 ; 5935206.988181782 ; 1.098963069940946E7 ; 18564.000000000004
79 ; 105540.68870745516 ; 184856.97790726807 ; 6040560.765444855 ; 1.1173164035611773E7 ; 18802.000000000004
80 ; 105653.3273040306 ; 186182.33924491447 ; 6146101.45415231 ; 1.1358021013519041E7 ; 19040.000000000004
81 ; 106096.72078598243 ; 187509.2634414794 ; 6251754.781456341 ; 1.1544203352763956E7 ; 19278.000000000004
82 ; 105919.1207689473 ; 188837.5993513211 ; 6357851.502242323 ; 1.1731712616205435E7 ; 19516.000000000004
83 ; 106126.05065466063 ; 190167.201175628 ; 6463770.623011271 ; 1.1920550215556756E7 ; 19754.000000000004
84 ; 106468.55691644424 ; 191497.92819672977 ; 6569896.673665931 ; 1.2110717416732384E7 ; 19992.000000000004
85 ; 106555.50884417888 ; 192829.64452712765 ; 6676365.230582376 ; 1.2302215344929114E7 ; 20230.000000000004
86 ; 106824.16755540094 ; 194162.21887239514 ; 6782920.739426555 ; 1.2495044989456242E7 ; 20468.000000000004
87 ; 106734.9069080191 ; 195495.5243071495 ; 6889744.906981956 ; 1.2689207208328636E7 ; 20706.000000000004
88 ; 106786.39658495065 ; 196829.4380633366 ; 6996479.813889976 ; 1.2884702732635787E7 ; 20944.000000000004
89 ; 106471.55860201869 ; 198163.84133011766 ; 7103266.210474926 ; 1.3081532170699123E7 ; 21182.000000000004
90 ; 106576.47400006047 ; 199498.61906468205 ; 7209737.769076944 ; 1.3279696012029242E7 ; 21420.000000000004
91 ; 106623.11155528447 ; 200833.65981335388 ; 7316314.243077004 ; 1.3479194631093923E7 ; 21658.000000000004
92 ; 106364.82824655622 ; 202168.85554239477 ; 7422937.354632289 ; 1.3680028290907277E7 ; 21896.000000000004
93 ; 106682.88081569459 ; 203504.10147793952 ; 7529302.182878845 ; 1.3882197146449672E7 ; 22134.000000000004
94 ; 106425.76711241344 ; 204839.29595453595 ; 7635985.06369454 ; 1.4085701247927612E7 ; 22372.000000000004
95 ; 106325.07893269094 ; 206174.34027179153 ; 7742410.830806954 ; 1.4290540543882148E7 ; 22610.000000000004
96 ; 106365.2722136082 ; 207509.13855865743 ; 7848735.909739645 ; 1.449671488415394E7 ; 22848.000000000004
97 ; 105642.26879295098 ; 208843.5976449105 ; 7955101.181953253 ; 1.4704224022712598E7 ; 23086.000000000004
98 ; 105491.72381153022 ; 210177.626939419 ; 8060743.450746204 ; 1.4913067620357508E7 ; 23324.000000000004
99 ; 105851.74281987436 ; 211511.13831480243 ; 8166235.174557734 ; 1.5123245247296927E7 ; 23562.000000000004
100 ; 105269.141104938 ; 212844.0459981209 ; 8272086.917377609 ; 1.533475638561173E7 ; 23800.000000000004
101 ; 104886.46622864377 ; 214176.26646724888 ; 8377356.058482546 ; 1.554760043160985E7 ; 24038.000000000004
102 ; 104772.9305014912 ; 215507.71835261106 ; 8482242.52471119 ; 1.57617766980771E7 ; 24276.000000000004
103 ; 104482.81442594962 ; 216838.3223439766 ; 8587015.45521268 ; 1.597728441642971E7 ; 24514.000000000004
104 ; 103983.77478418079 ; 218168.00110202594 ; 8691498.26963863 ; 1.6194122738773687E7 ; 24752.000000000004
105 ; 103505.671914265 ; 219496.67917442232 ; 8795482.04442281 ; 1.6412290739875713E7 ; 24990.000000000004
106 ; 103338.84506403534 ; 220824.2829161356 ; 8898987.716337075 ; 1.6631787419050137E7 ; 25228.000000000004
107 ; 103088.25041915785 ; 222150.74041378126 ; 9002326.56140111 ; 1.685261170196627E7 ; 25466.000000000004
108 ; 102795.13542711221 ; 223475.9814137518 ; 9105414.811820269 ; 1.7074762442380052E7 ; 25704.000000000004
109 ; 101800.4195200454 ; 224799.93725393058 ; 9208209.94724738 ; 1.7298238423793804E7 ; 25942.000000000004
110 ; 101816.43719819536 ; 226122.54079879128 ; 9310010.366767425 ; 1.7523038361047734E7 ; 26180.000000000004
111 ; 101431.07377761592 ; 227443.72637769766 ; 9411826.80396562 ; 1.7749160901846524E7 ; 26418.000000000004
112 ; 100844.87047620237 ; 228763.42972622835 ; 9513257.877743237 ; 1.7976604628224224E7 ; 26656.000000000004
113 ; 100566.7267411916 ; 230081.5879303633 ; 9614102.74821944 ; 1.8205368057950452E7 ; 26894.000000000004
114 ; 99897.14813416183 ; 231398.13937337697 ; 9714669.47496063 ; 1.8435449645880815E7 ; 27132.000000000004
115 ; 99076.01864253216 ; 232713.02368529257 ; 9814566.623094793 ; 1.866684778525419E7 ; 27370.000000000004
116 ; 98687.57037194961 ; 234026.18169476124 ; 9913642.641737325 ; 1.8899560808939483E7 ; 27608.000000000004
117 ; 98145.53501276713 ; 235337.55538323574 ; 1.0012330212109275E7 ; 1.9133586990634244E7 ; 27846.000000000004
118 ; 97483.66608549688 ; 236647.08784131848 ; 1.0110475747122042E7 ; 1.936892454601748E7 ; 28084.000000000004
119 ; 96548.31580523797 ; 237954.72322716855 ; 1.0207959413207538E7 ; 1.9605571633858796E7 ; 28322.000000000004
120 ; 96218.2018615504 ; 239260.40672686018 ; 1.0304507729012776E7 ; 1.9843526357085966E7 ; 28560.000000000004
121 ; 95266.05315936271 ; 240564.0845165906 ; 1.0400725930874327E7 ; 2.0082786763812825E7 ; 28798.000000000004
122 ; 95050.52091894305 ; 241865.70372664186 ; 1.049599198403369E7 ; 2.0323350848329417E7 ; 29036.000000000004
123 ; 94180.59382490366 ; 243165.21240700549 ; 1.0591042504952634E7 ; 2.056521655205606E7 ; 29274.000000000004
124 ; 93641.55015191123 ; 244462.559494585 ; 1.0685223098777538E7 ; 2.0808381764463063E7 ; 29512.000000000004
125 ; 93072.08516293089 ; 245757.6947818959 ; 1.0778864648929449E7 ; 2.1052844323957648E7 ; 29750.000000000004
126 ; 91968.96414131552 ; 247050.5688871866 ; 1.0871936734092379E7 ; 2.1298602018739544E7 ; 29988.000000000004
127 ; 90992.47741370712 ; 248341.13322590862 ; 1.0963905698233694E7 ; 2.154565258762673E7 ; 30226.000000000004
128 ; 90438.64463831176 ; 249629.3399834689 ; 1.10548981756474E7 ; 2.179399372085264E7 ; 30464.000000000004
129 ; 89650.30644901535 ; 250915.14208919916 ; 1.1145336820285711E7 ; 2.204362306083611E7 ; 30702.000000000004
130 ; 88761.0786647963 ; 252198.49319148232 ; 1.1234987126734726E7 ; 2.229453820292531E7 ; 30940.000000000004
131 ; 87664.72307065177 ; 253479.34763397905 ; 1.1323748205399523E7 ; 2.254673669611679E7 ; 31178.000000000004
132 ; 87190.97579377612 ; 254757.6604328997 ; 1.1411412928470174E7 ; 2.280021604375077E7 ; 31416.000000000004
133 ; 86039.57210538795 ; 256033.38725527085 ; 1.149860390426395E7 ; 2.305497370418367E7 ; 31654.000000000004
134 ; 84963.2509138923 ; 257306.4843981482 ; 1.1584643476369338E7 ; 2.331100709143894E7 ; 31892.000000000004
135 ; 84234.91791950188 ; 258576.90876872969 ; 1.166960672728323E7 ; 2.356831357583709E7 ; 32130.000000000004
136 ; 83194.90777949114 ; 259844.6178653256 ; 1.1753841645202732E7 ; 2.382689048460582E7 ; 32368.000000000004
137 ; 82466.49237146543 ; 261109.56975914483 ; 1.1837036552982222E7 ; 2.4086735102471143E7 ; 32606.000000000004
138 ; 80942.67283031557 ; 262371.7230768582 ; 1.1919503045353688E7 ; 2.434784467223029E7 ; 32844.00000000001
139 ; 80627.82160618932 ; 263631.0369839024 ; 1.2000445718184004E7 ; 2.4610216395307146E7 ; 33082.00000000001
140 ; 79494.24081303203 ; 264887.47116848873 ; 1.2081073539790193E7 ; 2.487384743229105E7 ; 33320.00000000001
141 ; 78485.21605801772 ; 266140.985826285 ; 1.2160567780603224E7 ; 2.5138734903459538E7 ; 33558.00000000001
142 ; 77112.78321608811 ; 267391.54164573806 ; 1.2239052996661242E7 ; 2.540487588928582E7 ; 33796.00000000001
143 ; 75656.18562632984 ; 268639.099794008 ; 1.2316165779877331E7 ; 2.567226743093156E7 ; 34034.00000000001
144 ; 74738.32058866456 ; 269883.62190348504 ; 1.2391821965503661E7 ; 2.594090653072557E7 ; 34272.00000000001
145 ; 74156.83507506328 ; 271125.07005886326 ; 1.2466560286092326E7 ; 2.6210790152629055E7 ; 34510.00000000001
146 ; 74378.6805480032 ; 272363.4067847454 ; 1.254071712116739E7 ; 2.648191522268792E7 ; 34748.00000000001
147 ; 74068.15455845655 ; 273598.5950337538 ; 1.2615095801715393E7 ; 2.6754278629472665E7 ; 34986.00000000001
148 ; 73774.31407101163 ; 274830.5981751266 ; 1.268916395627385E7 ; 2.702787722450642E7 ; 35224.00000000001
149 ; 73390.88826972723 ; 276059.37998377555 ; 1.276293827034486E7 ; 2.7302707822681546E7 ; 35462.00000000001
150 ; 73033.05025369921 ; 277284.9046297851 ; 1.2836329158614589E7 ; 2.757876720266532E7 ; 35700.00000000001
151 ; 72420.73336628271 ; 278507.13666833413 ; 1.2909362208868288E7 ; 2.7856052107295107E7 ; 35938.00000000001
152 ; 72893.05198537643 ; 279726.0410300211 ; 1.298178294223457E7 ; 2.8134559243963443E7 ; 36176.00000000001
153 ; 72247.27079453439 ; 280941.5830115742 ; 1.3054675994219946E7 ; 2.8414285284993462E7 ; 36414.00000000001
154 ; 72406.69274887146 ; 282153.72826693085 ; 1.312692326501448E7 ; 2.8695226868005037E7 ; 36652.00000000001
155 ; 72133.72932906786 ; 283362.44279866933 ; 1.3199329957763352E7 ; 2.897738059627197E7 ; 36890.00000000001
156 ; 71703.99395440838 ; 284567.6929497784 ; 1.327146368709242E7 ; 2.926074303907064E7 ; 37128.00000000001
157 ; 71183.37281158475 ; 285769.44539574964 ; 1.3343167681046829E7 ; 2.954531073202042E7 ; 37366.00000000001
158 ; 71302.1876855448 ; 286967.6671369782 ; 1.3414351053858414E7 ; 2.983108017741617E7 ; 37604.00000000001
159 ; 70671.76288608293 ; 288162.32549146016 ; 1.348565324154396E7 ; 3.0118047844553147E7 ; 37842.00000000001
160 ; 70477.70083382448 ; 289353.3880877732 ; 1.3556325004430043E7 ; 3.040621017004461E7 ; 38080.00000000001
161 ; 70257.03878899221 ; 290540.82285832753 ; 1.3626802705263868E7 ; 3.069556355813238E7 ; 38318.00000000001
162 ; 69737.95260489447 ; 291724.5980328786 ; 1.369705974405286E7 ; 3.0986104380990706E7 ; 38556.00000000001
163 ; 69419.99384082708 ; 292904.68213228683 ; 1.3766797696657754E7 ; 3.1277828979023583E7 ; 38794.00000000001
164 ; 69301.97089811855 ; 294081.0439625172 ; 1.3836217690498581E7 ; 3.157073366115587E7 ; 39032.00000000001
165 ; 68953.39699746214 ; 295253.65260886773 ; 1.3905519661396699E7 ; 3.1864814705118384E7 ; 39270.00000000001
166 ; 67970.59682468207 ; 296422.4774304166 ; 1.3974473058394162E7 ; 3.2160068357727252E7 ; 39508.00000000001
167 ; 68062.11573004472 ; 297587.4880546804 ; 1.4042443655218843E7 ; 3.245649083515767E7 ; 39746.00000000001
168 ; 67232.29351615265 ; 298748.6543724736 ; 1.4110505770948889E7 ; 3.275407832321235E7 ; 39984.00000000001
169 ; 67302.9148110421 ; 299905.9465329619 ; 1.4177738064465042E7 ; 3.3052826977584824E7 ; 40222.00000000001
170 ; 66650.50209314251 ; 301059.33493890124 ; 1.4245040979276083E7 ; 3.3352732924117785E7 ; 40460.00000000001
171 ; 66511.67506851206 ; 302208.7902420552 ; 1.4311691481369225E7 ; 3.365379225905669E7 ; 40698.00000000001
172 ; 65563.84841139526 ; 303354.2833387834 ; 1.4378203156437738E7 ; 3.395600104929874E7 ; 40936.00000000001
173 ; 65514.24691530793 ; 304495.7853657943 ; 1.4443767004849134E7 ; 3.4259355332637526E7 ; 41174.00000000001
174 ; 65653.65440605031 ; 305633.26769605605 ; 1.4509281251764443E7 ; 3.456385111800332E7 ; 41412.00000000001
175 ; 65808.19854934384 ; 306766.7019348582 ; 1.4574934906170493E7 ; 3.486948438569938E7 ; 41650.00000000001
176 ; 66574.34764026635 ; 307896.0599160198 ; 1.4640743104719836E7 ; 3.5176251087634236E7 ; 41888.00000000001
177 ; 66204.3994262329 ; 309021.31369823706 ; 1.4707317452360103E7 ; 3.5484147147550255E7 ; 42126.00000000001
178 ; 66571.25843486018 ; 310142.43556156533 ; 1.4773521851786336E7 ; 3.5793168461248495E7 ; 42364.00000000001
179 ; 67332.9147478588 ; 311259.3980040306 ; 1.4840093110221196E7 ; 3.610331089681006E7 ; 42602.00000000001
180 ; 67038.45542993015 ; 312372.17373836495 ; 1.4907426024969054E7 ; 3.6414570294814095E7 ; 42840.00000000001
181 ; 67403.90257449223 ; 313480.7356888618 ; 1.4974464480398985E7 ; 3.672694246855246E7 ; 43078.00000000001
