CSV File for the Network on Day 232
1 - Minute m 
2 - Power Consumed at minute m 
3 - Power Produced at minute m 
4 - Energy Consumed since the beginning of the day 
5 - Energy Produced since the beginning of the day 
6 - Energy Lost since the beginning of the day 
 
0 ; 622942.8306456944 ; 2.1046203471470922E8 ; 0.0 ; 0.0 ; 0.0
1 ; 626837.5428562922 ; 2.10761910989222E8 ; 622942.8306456944 ; 2.1046203471470922E8 ; 356.14
2 ; 633882.506424858 ; 2.1167946170210958E8 ; 1249780.3735019867 ; 4.212239457039312E8 ; 712.28
3 ; 637760.9375227639 ; 2.1321477315323734E8 ; 1883662.8799268447 ; 6.329034074060408E8 ; 1068.42
4 ; 642577.041161208 ; 2.15367951298288E8 ; 2521423.817449609 ; 8.461181805592781E8 ; 1424.56
5 ; 646637.5518594265 ; 2.181391237787683E8 ; 3164000.8586108168 ; 1.0614861318575661E9 ; 1780.6999999999998
6 ; 650317.646443526 ; 2.215284394388991E8 ; 3810638.4104702435 ; 1.2796252556363344E9 ; 2136.8399999999997
7 ; 655473.702737556 ; 2.2553606296822995E8 ; 4460956.05691377 ; 1.5011536950752335E9 ; 2492.9799999999996
8 ; 662698.0014014512 ; 2.3016216212441385E8 ; 5116429.759651326 ; 1.7266897580434635E9 ; 2849.1199999999994
9 ; 664745.8226068894 ; 2.354068865843615E8 ; 5779127.761052777 ; 1.9568519201678772E9 ; 3205.2599999999993
10 ; 667078.3657473604 ; 2.412703416848595E8 ; 6443873.583659667 ; 2.1922588067522388E9 ; 3561.399999999999
11 ; 671541.066024468 ; 2.4775256559670722E8 ; 7110951.949407027 ; 2.4335291484370985E9 ; 3917.539999999999
12 ; 675351.8760772179 ; 2.5485352014910525E8 ; 7782493.015431495 ; 2.681281714033806E9 ; 4273.679999999999
13 ; 677744.2206739162 ; 2.6257310000526696E8 ; 8457844.891508713 ; 2.936135234182911E9 ; 4629.82
14 ; 682114.7432789581 ; 2.7091115548828185E8 ; 9135589.11218263 ; 3.198708334188178E9 ; 4985.96
15 ; 686213.868368225 ; 2.7986751884049666E8 ; 9817703.855461588 ; 3.46961948967646E9 ; 5342.1
16 ; 690554.676066575 ; 2.89442025372362E8 ; 1.0503917723829813E7 ; 3.7494870085169563E9 ; 5698.240000000001
17 ; 692505.0325761327 ; 2.9963452623965704E8 ; 1.1194472399896389E7 ; 4.0389290338893185E9 ; 6054.380000000001
18 ; 696295.7105416055 ; 3.1044489380087495E8 ; 1.1886977432472521E7 ; 4.338563560128976E9 ; 6410.520000000001
19 ; 701235.3852273389 ; 3.218730221003331E8 ; 1.2583273143014127E7 ; 4.649008453929851E9 ; 6766.660000000002
20 ; 703528.5372966507 ; 3.339188248381659E8 ; 1.3284508528241467E7 ; 4.970881476030184E9 ; 7122.800000000002
21 ; 707191.3265112322 ; 3.465822324106089E8 ; 1.3988037065538118E7 ; 5.30480030086835E9 ; 7478.940000000002
22 ; 712993.7838477379 ; 3.598631888851074E8 ; 1.469522839204935E7 ; 5.651382533278959E9 ; 7835.080000000003
23 ; 718756.4814349479 ; 3.7376164929664063E8 ; 1.5408222175897088E7 ; 6.011245722164066E9 ; 8191.220000000003
24 ; 721273.8195825947 ; 3.8827757738644457E8 ; 1.6126978657332037E7 ; 6.385007371460707E9 ; 8547.360000000002
25 ; 725877.6291819444 ; 4.0078702557386434E8 ; 1.6848252476914633E7 ; 6.773284948847151E9 ; 8903.500000000002
26 ; 729278.2251083986 ; 4.007970655866102E8 ; 1.7574130106096577E7 ; 7.174071974421015E9 ; 9259.640000000001
27 ; 730327.282304292 ; 4.0080721637984633E8 ; 1.8303408331204977E7 ; 7.574869040007625E9 ; 9615.78
28 ; 733777.6574331676 ; 4.0081746174768144E8 ; 1.9033735613509268E7 ; 7.975676256387471E9 ; 9971.92
29 ; 738238.1082979196 ; 4.0082778822182757E8 ; 1.9767513270942435E7 ; 8.376493718135153E9 ; 10328.06
30 ; 741489.7851188414 ; 4.0083818453411937E8 ; 2.0505751379240353E7 ; 8.777321506356981E9 ; 10684.199999999999
31 ; 744082.5252133481 ; 4.0084864119500023E8 ; 2.1247241164359193E7 ; 9.1781596908911E9 ; 11040.339999999998
32 ; 747456.0261255829 ; 4.008591501614331E8 ; 2.1991323689572543E7 ; 9.5790083320861E9 ; 11396.479999999998
33 ; 752195.2127359563 ; 4.008697045739023E8 ; 2.2738779715698127E7 ; 9.979867482247532E9 ; 11752.619999999997
34 ; 754419.1366438806 ; 4.0088029854697776E8 ; 2.349097492843408E7 ; 1.0380737186821434E10 ; 12108.759999999997
35 ; 759163.7745551935 ; 4.008909270015807E8 ; 2.424539406507796E7 ; 1.0781617485368412E10 ; 12464.899999999996
36 ; 760918.2004489126 ; 4.0090158552987653E8 ; 2.5004557839633156E7 ; 1.1182508412369993E10 ; 12821.039999999995
37 ; 763003.2931541422 ; 4.0091227028582644E8 ; 2.5765476040082067E7 ; 1.158340999789987E10 ; 13177.179999999995
38 ; 765922.4361099178 ; 4.009229778960302E8 ; 2.652847933323621E7 ; 1.1984322268185696E10 ; 13533.319999999994
39 ; 770026.2898190159 ; 4.0093370538669956E8 ; 2.729440176934613E7 ; 1.2385245246081726E10 ; 13889.459999999994
40 ; 772278.376446898 ; 4.009444501235279E8 ; 2.8064428059165146E7 ; 1.2786178951468426E10 ; 14245.599999999993
41 ; 775160.1888887568 ; 4.009552097619246E8 ; 2.8836706435612045E7 ; 1.3187123401591953E10 ; 14601.739999999993
42 ; 780410.7154637929 ; 4.0096598220562375E8 ; 2.9611866624500804E7 ; 1.3588078611353878E10 ; 14957.879999999992
43 ; 781298.3836864006 ; 4.009767655720945E8 ; 3.03922773399646E7 ; 1.3989044593559502E10 ; 15314.019999999991
44 ; 783264.9540322706 ; 4.0098755816350245E8 ; 3.1173575723651E7 ; 1.4390021359131596E10 ; 15670.15999999999
45 ; 785339.0411927354 ; 4.009983584422256E8 ; 3.195684067768327E7 ; 1.4791008917295097E10 ; 16026.29999999999
46 ; 787953.6539289166 ; 4.010091650101212E8 ; 3.2742179718876008E7 ; 1.5192007275737324E10 ; 16382.43999999999
47 ; 793361.2950103063 ; 4.010199765909007E8 ; 3.3530133372804925E7 ; 1.5593016440747444E10 ; 16738.57999999999
48 ; 794492.4017608267 ; 4.0103079201508576E8 ; 3.432349466781523E7 ; 1.5994036417338345E10 ; 17094.71999999999
49 ; 795482.1913761637 ; 4.0104161020712173E8 ; 3.5117987069576055E7 ; 1.639506720935343E10 ; 17450.85999999999
50 ; 797892.1913422244 ; 4.010524301742989E8 ; 3.591346926095222E7 ; 1.679610881956055E10 ; 17806.99999999999
51 ; 801242.4835976182 ; 4.010632509971949E8 ; 3.671136145229445E7 ; 1.7197161249734848E10 ; 18163.13999999999
52 ; 804044.5834978705 ; 4.010740718214035E8 ; 3.751260393589207E7 ; 1.7598224500732044E10 ; 18519.279999999988
53 ; 805161.3565739118 ; 4.010848918503523E8 ; 3.8316648519389935E7 ; 1.7999298572553448E10 ; 18875.419999999987
54 ; 803586.6997057504 ; 4.0109571033904886E8 ; 3.9121809875963844E7 ; 1.84003834644038E10 ; 19231.559999999987
55 ; 806102.0444546646 ; 4.011065265886178E8 ; 3.9925396575669594E7 ; 1.880147917474285E10 ; 19587.699999999986
56 ; 808198.312073225 ; 4.0111733994151664E8 ; 4.073149862012426E7 ; 1.920258570133147E10 ; 19943.839999999986
57 ; 809550.7337352968 ; 4.011281497773341E8 ; 4.153969693219748E7 ; 1.9603703041272987E10 ; 20299.979999999985
58 ; 812276.6489959349 ; 4.0113895550909036E8 ; 4.2349247665932775E7 ; 2.000483119105032E10 ; 20656.119999999984
59 ; 817001.7631082933 ; 4.011497565799717E8 ; 4.316152431492871E7 ; 2.040597014655941E10 ; 21012.259999999984
60 ; 818094.2967023863 ; 4.011605524604409E8 ; 4.3978526078037E7 ; 2.080711990313938E10 ; 21368.399999999983
61 ; 820799.1300212266 ; 4.0117134264567506E8 ; 4.4796620374739386E7 ; 2.1208280455599823E10 ; 21724.539999999983
62 ; 821229.1383957161 ; 4.0118212665328753E8 ; 4.5617419504760616E7 ; 2.16094517982455E10 ; 22080.679999999982
63 ; 824735.7119158467 ; 4.0119290402129966E8 ; 4.6438648643156335E7 ; 2.2010633924898785E10 ; 22436.81999999998
64 ; 824632.5628512682 ; 4.012036743063292E8 ; 4.726338435507218E7 ; 2.2411826828920086E10 ; 22792.95999999998
65 ; 829193.4025525623 ; 4.0121443708197117E8 ; 4.808801691792344E7 ; 2.2813030503226414E10 ; 23149.09999999998
66 ; 831226.1055163351 ; 4.012251919373462E8 ; 4.8917210320476E7 ; 2.3214244940308384E10 ; 23505.23999999998
67 ; 831748.3021709332 ; 4.012359384757978E8 ; 4.974843642599234E7 ; 2.361547013224573E10 ; 23861.37999999998
68 ; 835050.2324616073 ; 4.012466763137197E8 ; 5.058018472816327E7 ; 2.401670607072153E10 ; 24217.51999999998
69 ; 835552.9608301315 ; 4.012574050795007E8 ; 5.141523496062488E7 ; 2.441795274703525E10 ; 24573.659999999978
70 ; 837870.7648180407 ; 4.012681244125713E8 ; 5.225078792145501E7 ; 2.4819210152114754E10 ; 24929.799999999977
71 ; 838525.4965413312 ; 4.012788339625424E8 ; 5.308865868627305E7 ; 2.5220478276527325E10 ; 25285.939999999977
72 ; 839925.865099262 ; 4.0128953338842535E8 ; 5.392718418281438E7 ; 2.562175711048987E10 ; 25642.079999999976
73 ; 842895.5430578168 ; 4.013002223579246E8 ; 5.476711004791364E7 ; 2.6023046643878292E10 ; 25998.219999999976
74 ; 841666.9093694573 ; 4.013109005467957E8 ; 5.5610005590971455E7 ; 2.6424346866236217E10 ; 26354.359999999975
75 ; 843706.8234002967 ; 4.0132156763826144E8 ; 5.645167250034091E7 ; 2.6825657766783012E10 ; 26710.499999999975
76 ; 845711.338008133 ; 4.013322233224796E8 ; 5.7295379323741205E7 ; 2.7226979334421272E10 ; 27066.639999999974
77 ; 847962.7103833233 ; 4.013428672960585E8 ; 5.814109066174934E7 ; 2.762831155774375E10 ; 27422.779999999973
78 ; 849291.112452812 ; 4.013534992616137E8 ; 5.898905337213267E7 ; 2.802965442503981E10 ; 27778.919999999973
79 ; 850512.3731987227 ; 4.0136411892736375E8 ; 5.983834448458548E7 ; 2.8431007924301422E10 ; 28135.059999999972
80 ; 850733.7640842636 ; 4.013747260067594E8 ; 6.0688856857784204E7 ; 2.8832372043228786E10 ; 28491.19999999997
81 ; 852814.3691521712 ; 4.013853202181443E8 ; 6.153959062186847E7 ; 2.9233746769235546E10 ; 28847.33999999997
82 ; 855722.6278343998 ; 4.013959012844434E8 ; 6.239240499102064E7 ; 2.963513208945369E10 ; 29203.47999999997
83 ; 857497.201953653 ; 4.0140646893287706E8 ; 6.3248127618855044E7 ; 3.0036527990738132E10 ; 29559.61999999997
84 ; 857992.2192087059 ; 4.0141702289469814E8 ; 6.4105624820808694E7 ; 3.043793445967101E10 ; 29915.75999999997
85 ; 859606.5386352061 ; 4.014275629049498E8 ; 6.4963617040017396E7 ; 3.083935148256571E10 ; 30271.89999999997
86 ; 861451.57139906 ; 4.0143808870224273E8 ; 6.5823223578652605E7 ; 3.1240779045470657E10 ; 30628.039999999968
87 ; 862514.4515268274 ; 4.0144860002854955E8 ; 6.668467515005167E7 ; 3.16422171341729E10 ; 30984.179999999968
88 ; 863282.3031145077 ; 4.01459096629015E8 ; 6.754718960157849E7 ; 3.204366573420145E10 ; 31340.319999999967
89 ; 866368.2783015299 ; 4.0146957825178075E8 ; 6.8410471904693E7 ; 3.2445124830830467E10 ; 31696.459999999966
90 ; 867000.2185630308 ; 4.014800446478231E8 ; 6.927684018299453E7 ; 3.284659440908225E10 ; 32052.599999999966
91 ; 866048.1481901385 ; 4.014904955708033E8 ; 7.014384040155756E7 ; 3.3248074453730072E10 ; 32408.739999999965
92 ; 867250.1655879837 ; 4.0150093077692866E8 ; 7.10098885497477E7 ; 3.3649564949300877E10 ; 32764.879999999965
93 ; 867848.1432350058 ; 4.015113500248233E8 ; 7.187713871533568E7 ; 3.4051065880077805E10 ; 33121.01999999997
94 ; 869175.2855735794 ; 4.0152175307540953E8 ; 7.27449868585707E7 ; 3.445257723010263E10 ; 33477.15999999997
95 ; 871557.7391918702 ; 4.015321396917963E8 ; 7.361416214414427E7 ; 3.485409898317804E10 ; 33833.29999999997
96 ; 872819.6251263208 ; 4.015425096391765E8 ; 7.448571988333614E7 ; 3.5255631122869835E10 ; 34189.439999999966
97 ; 873697.5213780806 ; 4.0155286268473136E8 ; 7.535853950846246E7 ; 3.565717363250901E10 ; 34545.579999999965
98 ; 873371.0229299264 ; 4.0156319859754133E8 ; 7.623223702984054E7 ; 3.605872649519374E10 ; 34901.719999999965
99 ; 874881.1306579355 ; 4.015735171485032E8 ; 7.710560805277047E7 ; 3.646028969379128E10 ; 35257.859999999964
100 ; 876393.7216583181 ; 4.01583818110253E8 ; 7.79804891834284E7 ; 3.686186321093979E10 ; 35613.99999999996
101 ; 876395.888223834 ; 4.01594101257094E8 ; 7.885688290508673E7 ; 3.726344702905004E10 ; 35970.13999999996
102 ; 877541.4470362308 ; 4.016043663649299E8 ; 7.973327879331055E7 ; 3.766504113030714E10 ; 36326.27999999996
103 ; 877583.601749624 ; 4.0161461321120214E8 ; 8.061082024034679E7 ; 3.8066645496672066E10 ; 36682.41999999996
104 ; 880930.4726173424 ; 4.016248415748315E8 ; 8.148840384209642E7 ; 3.846826010988327E10 ; 37038.55999999996
105 ; 881271.9084891694 ; 4.016350512361639E8 ; 8.236933431471376E7 ; 3.88698849514581E10 ; 37394.69999999996
106 ; 883658.026609211 ; 4.016452419769192E8 ; 8.325060622320293E7 ; 3.927152000269426E10 ; 37750.83999999996
107 ; 880078.8942206348 ; 4.0165541358014387E8 ; 8.413426424981214E7 ; 3.967316524467118E10 ; 38106.97999999996
108 ; 884518.7970136934 ; 4.0166556583016646E8 ; 8.501434314403278E7 ; 4.007482065825133E10 ; 38463.11999999996
109 ; 883607.188128414 ; 4.0167569851255596E8 ; 8.589886194104648E7 ; 4.04764862240815E10 ; 38819.25999999996
110 ; 886199.0063124023 ; 4.0168581141408306E8 ; 8.678246912917489E7 ; 4.0878161922594055E10 ; 39175.39999999996
111 ; 885516.5381224345 ; 4.0169590432268375E8 ; 8.766866813548729E7 ; 4.127984773400814E10 ; 39531.53999999996
112 ; 887388.1692460201 ; 4.0170597702742505E8 ; 8.855418467360972E7 ; 4.1681543638330826E10 ; 39887.67999999996
113 ; 887757.6916884762 ; 4.0171602931847334E8 ; 8.944157284285574E7 ; 4.208324961535825E10 ; 40243.819999999956
114 ; 885914.4889081705 ; 4.0172606098706436E8 ; 9.032933053454421E7 ; 4.248496564467673E10 ; 40599.959999999955
115 ; 888907.132938814 ; 4.0173607182547545E8 ; 9.121524502345239E7 ; 4.288669170566379E10 ; 40956.099999999955
116 ; 887837.4880363592 ; 4.0174606162699896E8 ; 9.21041521563912E7 ; 4.3288427777489265E10 ; 41312.239999999954
117 ; 889568.7228005189 ; 4.01756030185918E8 ; 9.299198964442757E7 ; 4.3690173839116264E10 ; 41668.379999999954
118 ; 888107.225295089 ; 4.017659772974834E8 ; 9.388155836722809E7 ; 4.4091929869302185E10 ; 42024.51999999995
119 ; 889597.1563892523 ; 4.017759027578919E8 ; 9.476966559252317E7 ; 4.449369584659967E10 ; 42380.65999999995
120 ; 888343.9627606344 ; 4.017858063642663E8 ; 9.565926274891242E7 ; 4.489547174935756E10 ; 42736.79999999995
121 ; 890734.6949707104 ; 4.0179568791463625E8 ; 9.654760671167305E7 ; 4.5297257555721825E10 ; 43092.93999999995
122 ; 889074.7339770001 ; 4.0180554720792055E8 ; 9.743834140664376E7 ; 4.569905324363646E10 ; 43449.07999999995
123 ; 892647.831843698 ; 4.0181538404391056E8 ; 9.832741614062077E7 ; 4.610085879084438E10 ; 43805.21999999995
124 ; 893247.7535411378 ; 4.018251982232546E8 ; 9.922006397246447E7 ; 4.650267417488829E10 ; 44161.35999999995
125 ; 890111.7613309597 ; 4.018349895474434E8 ; 1.0011331172600561E8 ; 4.690449937311154E10 ; 44517.49999999995
126 ; 888564.5120627009 ; 4.018447578187962E8 ; 1.0100342348733658E8 ; 4.730633436265898E10 ; 44873.63999999995
127 ; 887575.8986135236 ; 4.018545028404483E8 ; 1.0189198799939927E8 ; 4.7708179120477776E10 ; 45229.77999999995
128 ; 885803.7485404196 ; 4.0186422441633874E8 ; 1.027795638980128E8 ; 4.811003362331822E10 ; 45585.91999999995
129 ; 889907.0380785576 ; 4.018739223511992E8 ; 1.0366536764655322E8 ; 4.851189784773456E10 ; 45942.05999999995
130 ; 886478.7772196289 ; 4.018835964505436E8 ; 1.0455527468463178E8 ; 4.8913771770085754E10 ; 46298.199999999946
131 ; 886909.6933156947 ; 4.0189324652065814E8 ; 1.054417534618514E8 ; 4.93156553665363E10 ; 46654.339999999946
132 ; 885697.1671690706 ; 4.019028723685921E8 ; 1.063286631551671E8 ; 4.971754861305696E10 ; 47010.479999999945
133 ; 886217.9267714416 ; 4.0191247380214953E8 ; 1.0721436032233617E8 ; 5.011945148542555E10 ; 47366.619999999944
134 ; 887763.8609029062 ; 4.019220506298809E8 ; 1.0810057824910761E8 ; 5.05213639592277E10 ; 47722.759999999944
135 ; 887620.6222837588 ; 4.0193160266107607E8 ; 1.0898834211001052E8 ; 5.092328600985758E10 ; 48078.89999999994
136 ; 887419.161956274 ; 4.019411297057568E8 ; 1.0987596273229428E8 ; 5.132521761251866E10 ; 48435.03999999994
137 ; 888893.6653337341 ; 4.019506315746707E8 ; 1.1076338189425056E8 ; 5.172715874222442E10 ; 48791.17999999994
138 ; 887558.5775891149 ; 4.019601080792852E8 ; 1.1165227555958429E8 ; 5.212910937379909E10 ; 49147.31999999994
139 ; 886782.5685312995 ; 4.0196955903178173E8 ; 1.125398341371734E8 ; 5.253106948187837E10 ; 49503.45999999994
140 ; 884438.0901717758 ; 4.0197898424505067E8 ; 1.134266167057047E8 ; 5.293303904091016E10 ; 49859.59999999994
141 ; 886748.7442920497 ; 4.019883835326867E8 ; 1.1431105479587647E8 ; 5.3335018025155205E10 ; 50215.73999999994
142 ; 887078.416196337 ; 4.0199775670898414E8 ; 1.1519780354016852E8 ; 5.373700640868789E10 ; 50571.87999999994
143 ; 885978.8141555847 ; 4.0200710358893275E8 ; 1.1608488195636486E8 ; 5.413900416539687E10 ; 50928.01999999994
144 ; 885977.1788062255 ; 4.020164239882145E8 ; 1.1697086077052043E8 ; 5.454101126898581E10 ; 51284.15999999994
145 ; 883938.1853761212 ; 4.0202571772319955E8 ; 1.1785683794932666E8 ; 5.494302769297402E10 ; 51640.29999999994
146 ; 887629.2208511225 ; 4.020349846109433E8 ; 1.1874077613470279E8 ; 5.534505341069722E10 ; 51996.43999999994
147 ; 887519.2450156175 ; 4.020442244691837E8 ; 1.1962840535555391E8 ; 5.574708839530817E10 ; 52352.579999999936
148 ; 889447.5806820892 ; 4.020534371163381E8 ; 1.2051592460056953E8 ; 5.614913261977735E10 ; 52708.719999999936
149 ; 891277.057496234 ; 4.0206262237150145E8 ; 1.2140537218125162E8 ; 5.655118605689369E10 ; 53064.859999999935
150 ; 891923.8195295602 ; 4.020717800544437E8 ; 1.2229664923874785E8 ; 5.695324867926519E10 ; 53420.999999999935
151 ; 893975.943448262 ; 4.0208090998560834E8 ; 1.2318857305827741E8 ; 5.735532045931963E10 ; 53777.139999999934
152 ; 895607.3088620739 ; 4.0209001198611003E8 ; 1.2408254900172567E8 ; 5.7757401369305244E10 ; 54133.27999999993
153 ; 898807.2189042466 ; 4.0209908587773377E8 ; 1.2497815631058775E8 ; 5.815949138129135E10 ; 54489.41999999993
154 ; 897701.1361800375 ; 4.021081314829331E8 ; 1.2587696352949199E8 ; 5.856159046716908E10 ; 54845.55999999993
155 ; 899975.0253312835 ; 4.021171486248292E8 ; 1.2677466466567203E8 ; 5.8963698598652016E10 ; 55201.69999999993
156 ; 902955.9018529534 ; 4.021261371272098E8 ; 1.2767463969100332E8 ; 5.936581574727685E10 ; 55557.83999999993
157 ; 904477.924811427 ; 4.0213509681452847E8 ; 1.2857759559285627E8 ; 5.976794188440406E10 ; 55913.97999999993
158 ; 904626.4095361385 ; 4.021440275119038E8 ; 1.294820735176677E8 ; 6.017007698121859E10 ; 56270.11999999993
159 ; 905988.9231897184 ; 4.0215292904511917E8 ; 1.3038669992720383E8 ; 6.057222100873049E10 ; 56626.25999999993
160 ; 908857.8258775076 ; 4.0216180124062204E8 ; 1.3129268885039355E8 ; 6.097437393777561E10 ; 56982.39999999993
161 ; 909780.8408679594 ; 4.0217064392552394E8 ; 1.3220154667627105E8 ; 6.1376535739016235E10 ; 57338.53999999993
162 ; 912052.7926133464 ; 4.021794569276004E8 ; 1.3311132751713902E8 ; 6.177870638294176E10 ; 57694.67999999993
163 ; 912324.6867787718 ; 4.021882400752906E8 ; 1.3402338030975236E8 ; 6.2180885839869354E10 ; 58050.81999999993
164 ; 912070.0249976573 ; 4.021969931976981E8 ; 1.3493570499653113E8 ; 6.258307407994464E10 ; 58406.95999999993
165 ; 915321.9793550598 ; 4.0220571612459046E8 ; 1.3584777502152878E8 ; 6.298527107314234E10 ; 58763.099999999926
166 ; 915926.0802895846 ; 4.022144086863999E8 ; 1.3676309700088385E8 ; 6.338747678926693E10 ; 59119.239999999925
167 ; 918845.4575999851 ; 4.022230707142236E8 ; 1.3767902308117342E8 ; 6.378969119795333E10 ; 59475.379999999925
168 ; 918492.7899893721 ; 4.022317020398245E8 ; 1.3859786853877342E8 ; 6.419191426866756E10 ; 59831.519999999924
169 ; 918594.3465099209 ; 4.0224030249563134E8 ; 1.395163613287628E8 ; 6.459414597070738E10 ; 60187.65999999992
170 ; 921673.3861803007 ; 4.022488719147401E8 ; 1.4043495567527273E8 ; 6.499638627320301E10 ; 60543.79999999992
171 ; 921120.7181034301 ; 4.02257410130914E8 ; 1.4135662906145304E8 ; 6.539863514511775E10 ; 60899.93999999992
172 ; 922616.3310182629 ; 4.022659169785849E8 ; 1.4227774977955648E8 ; 6.5800892555248665E10 ; 61256.07999999992
173 ; 922319.570797197 ; 4.0227439229285413E8 ; 1.4320036611057475E8 ; 6.620315847222725E10 ; 61612.21999999992
174 ; 926502.1985360563 ; 4.022828359094932E8 ; 1.4412268568137196E8 ; 6.66054328645201E10 ; 61968.35999999992
175 ; 929063.4261640422 ; 4.0229124766494524E8 ; 1.4504918787990803E8 ; 6.7007715700429596E10 ; 62324.49999999992
176 ; 930766.6270750092 ; 4.022996273963257E8 ; 1.4597825130607206E8 ; 6.741000694809454E10 ; 62680.63999999992
177 ; 932783.0534540602 ; 4.023079749414239E8 ; 1.4690901793314707E8 ; 6.781230657549087E10 ; 63036.77999999992
