CSV File for the Network on Day 222
1 - Minute m 
2 - Power Consumed at minute m 
3 - Power Produced at minute m 
4 - Energy Consumed since the beginning of the day 
5 - Energy Produced since the beginning of the day 
6 - Energy Lost since the beginning of the day 
 
0 ; 499583.53570653347 ; 2.1052418048701918E8 ; 0.0 ; 0.0 ; 0.0
1 ; 503234.6901932778 ; 2.108266844184466E8 ; 499583.53570653347 ; 2.1052418048701918E8 ; 356.14
2 ; 506613.22132761986 ; 2.117469491384864E8 ; 1002818.2258998113 ; 4.213508649054658E8 ; 712.28
3 ; 511686.56135937327 ; 2.132850188979076E8 ; 1509431.447227431 ; 6.330978140439522E8 ; 1068.42
4 ; 517375.4885289379 ; 2.1544093866616267E8 ; 2021118.0085868044 ; 8.463828329418598E8 ; 1424.56
5 ; 521865.5116170405 ; 2.1821475284925294E8 ; 2538493.4971157424 ; 1.0618237716080225E9 ; 1780.6999999999998
6 ; 528104.7012101879 ; 2.2160650370657778E8 ; 3060359.0087327827 ; 1.2800385244572754E9 ; 2136.8399999999997
7 ; 529425.6789317438 ; 2.2561622953804785E8 ; 3588463.7099429704 ; 1.5016450281638532E9 ; 2492.9799999999996
8 ; 535104.85820884 ; 2.302439627729655E8 ; 4117889.3888747143 ; 1.727261257701901E9 ; 2849.1199999999994
9 ; 540124.7824904171 ; 2.3548972814624447E8 ; 4652994.247083554 ; 1.9575052204748664E9 ; 3205.2599999999993
10 ; 541307.3646000458 ; 2.4135354117752975E8 ; 5193119.029573971 ; 2.192994948621111E9 ; 3561.399999999999
11 ; 545778.9564620571 ; 2.478354071585902E8 ; 5734426.394174017 ; 2.4343484897986407E9 ; 3917.539999999999
12 ; 549290.409820905 ; 2.549353207976569E8 ; 6280205.350636074 ; 2.682183896957231E9 ; 4273.679999999999
13 ; 554062.175990812 ; 2.6265326657508487E8 ; 6829495.760456979 ; 2.937119217754888E9 ; 4629.82
14 ; 558366.7526336098 ; 2.709892197559605E8 ; 7383557.936447792 ; 3.1997724843299727E9 ; 4985.96
15 ; 562155.1249428481 ; 2.799431479109813E8 ; 7941924.689081402 ; 3.470761704085933E9 ; 5342.1
16 ; 565166.2110493458 ; 2.8951501274023676E8 ; 8504079.81402425 ; 3.7507048519969144E9 ; 5698.240000000001
17 ; 569596.2795302339 ; 2.997047719843274E8 ; 9069246.025073595 ; 4.040219864737151E9 ; 6054.380000000001
18 ; 573146.0844005581 ; 3.105123812372518E8 ; 9638842.30460383 ; 4.339924636721478E9 ; 6410.520000000001
19 ; 576693.9463875283 ; 3.219377955295577E8 ; 1.0211988389004389E7 ; 4.650437017958731E9 ; 6766.660000000002
20 ; 581641.7783045949 ; 3.339809706104759E8 ; 1.0788682335391916E7 ; 4.972374813488289E9 ; 7122.800000000002
21 ; 583290.1324468234 ; 3.466418639104617E8 ; 1.1370324113696512E7 ; 5.306355784098764E9 ; 7478.940000000002
22 ; 589999.619409445 ; 3.5992043520368534E8 ; 1.1953614246143335E7 ; 5.652997648009226E9 ; 7835.080000000003
23 ; 592480.5390611393 ; 3.738166470124E8 ; 1.2543613865552781E7 ; 6.012918083212912E9 ; 8191.220000000003
24 ; 597789.6999901783 ; 3.883304648042779E8 ; 1.313609440461392E7 ; 6.386734730225311E9 ; 8547.360000000002
25 ; 602784.2437301537 ; 4.0083793883007234E8 ; 1.3733884104604097E7 ; 6.775065195029589E9 ; 8903.500000000002
26 ; 605584.2886256203 ; 4.0084613612814176E8 ; 1.4336668348334251E7 ; 7.175903133859661E9 ; 9259.640000000001
27 ; 608621.2165606507 ; 4.0085456943200105E8 ; 1.4942252636959871E7 ; 7.5767492699878025E9 ; 9615.78
28 ; 612389.6578439255 ; 4.00863215477888E8 ; 1.5550873853520522E7 ; 7.977603839419804E9 ; 9971.92
29 ; 616474.0339305395 ; 4.008720533832323E8 ; 1.6163263511364447E7 ; 8.378467054897692E9 ; 10328.06
30 ; 618395.4886016045 ; 4.0088106443191624E8 ; 1.6779737545294985E7 ; 8.779339108280924E9 ; 10684.199999999999
31 ; 621942.9897500887 ; 4.008902318631132E8 ; 1.7398133033896588E7 ; 9.180220172712841E9 ; 11040.339999999998
32 ; 626390.172377809 ; 4.008995406702119E8 ; 1.8020076023646675E7 ; 9.581110404575954E9 ; 11396.479999999998
33 ; 629923.1276966315 ; 4.009089774135757E8 ; 1.8646466196024485E7 ; 9.982009945246166E9 ; 11752.619999999997
34 ; 635168.6691628721 ; 4.009185300489621E8 ; 1.927638932372112E7 ; 1.0382918922659742E10 ; 12108.759999999997
35 ; 635851.5858689974 ; 4.009281877721231E8 ; 1.991155799288399E7 ; 1.0783837452708704E10 ; 12464.899999999996
36 ; 639818.7337684794 ; 4.009379408792709E8 ; 2.0547409578752987E7 ; 1.1184765640480827E10 ; 12821.039999999995
37 ; 643970.1793033499 ; 4.0094778064258206E8 ; 2.1187228312521465E7 ; 1.1585703581360098E10 ; 13177.179999999995
38 ; 647663.9889867472 ; 4.0095769919963443E8 ; 2.1831198491824813E7 ; 1.198665136200268E10 ; 13533.319999999994
39 ; 651005.7273470968 ; 4.00967689455541E8 ; 2.247886248081156E7 ; 1.2387609061202314E10 ; 13889.459999999994
40 ; 652640.8334840153 ; 4.009777449965241E8 ; 2.3129868208158657E7 ; 1.2788576750657856E10 ; 14245.599999999993
41 ; 657110.9849562114 ; 4.009878600137031E8 ; 2.3782509041642673E7 ; 1.318955449565438E10 ; 14601.739999999993
42 ; 660804.6639827378 ; 4.009980292359495E8 ; 2.4439620026598886E7 ; 1.3590542355668083E10 ; 14957.879999999992
43 ; 661381.8601597674 ; 4.010082478707483E8 ; 2.5100424690581623E7 ; 1.3991540384904034E10 ; 15314.019999999991
44 ; 664519.3046809142 ; 4.0101851155210996E8 ; 2.576180655074139E7 ; 1.4392548632774782E10 ; 15670.15999999999
45 ; 666233.9610607062 ; 4.0102881629467475E8 ; 2.6426325855422303E7 ; 1.4793567144326893E10 ; 16026.29999999999
46 ; 668867.1231666238 ; 4.010391584532466E8 ; 2.709255981648301E7 ; 1.5194595960621567E10 ; 16382.43999999999
47 ; 672536.195299069 ; 4.0104953468708575E8 ; 2.7761426939649634E7 ; 1.5595635119074814E10 ; 16738.57999999999
48 ; 674883.7238218404 ; 4.010599419283672E8 ; 2.8433963134948704E7 ; 1.59966846537619E10 ; 17094.71999999999
49 ; 678582.1712653028 ; 4.0107037735428834E8 ; 2.9108846858770546E7 ; 1.6397744595690268E10 ; 17450.85999999999
50 ; 680312.7399437396 ; 4.01080838362373E8 ; 2.978742903003585E7 ; 1.6798814973044556E10 ; 17806.99999999999
51 ; 682984.8388491789 ; 4.010913225485761E8 ; 3.046774176997959E7 ; 1.719989581140693E10 ; 18163.13999999999
52 ; 683184.2455392655 ; 4.011018276878456E8 ; 3.1150726608828768E7 ; 1.7600987133955505E10 ; 18519.279999999988
53 ; 686330.1023319503 ; 4.011123517168406E8 ; 3.1833910854368035E7 ; 1.8002088961643353E10 ; 18875.419999999987
54 ; 687190.3130786683 ; 4.011228927185453E8 ; 3.2520240956699986E7 ; 1.840320131336019E10 ; 19231.559999999987
55 ; 688859.431374874 ; 4.0113344890854895E8 ; 3.3207431269778654E7 ; 1.8804324206078735E10 ; 19587.699999999986
56 ; 692627.8789922156 ; 4.01144018622795E8 ; 3.389629070115353E7 ; 1.9205457654987286E10 ; 19943.839999999986
57 ; 693391.9239244482 ; 4.01154600306625E8 ; 3.458891858014575E7 ; 1.960660167361008E10 ; 20299.979999999985
58 ; 695527.9694637451 ; 4.011651925049663E8 ; 3.528231050407019E7 ; 2.0007756273916706E10 ; 20656.119999999984
59 ; 699906.2878980945 ; 4.011757938535304E8 ; 3.5977838473533936E7 ; 2.0408921466421673E10 ; 21012.259999999984
60 ; 702024.3197831453 ; 4.01186403070907E8 ; 3.667774476143203E7 ; 2.0810097260275204E10 ; 21368.399999999983
61 ; 704037.4430399332 ; 4.0119701895145273E8 ; 3.737976908121517E7 ; 2.121128366334611E10 ; 21724.539999999983
62 ; 706851.5217409343 ; 4.012076403588836E8 ; 3.8083806524255104E7 ; 2.1612480682297565E10 ; 22080.679999999982
63 ; 709081.5463184182 ; 4.0121826622049594E8 ; 3.879065804599604E7 ; 2.201368832265645E10 ; 22436.81999999998
64 ; 711883.3785034039 ; 4.012288955219446E8 ; 3.949973959231446E7 ; 2.2414906588876945E10 ; 22792.95999999998
65 ; 712439.9922376703 ; 4.012395273025198E8 ; 4.0211622970817864E7 ; 2.281613548439889E10 ; 23149.09999999998
66 ; 716047.6648792416 ; 4.012501606508683E8 ; 4.0924062963055536E7 ; 2.3217375011701412E10 ; 23505.23999999998
67 ; 717954.3799460948 ; 4.012607947011124E8 ; 4.1640110627934776E7 ; 2.361862517235228E10 ; 23861.37999999998
68 ; 719477.1235813749 ; 4.0127142862932503E8 ; 4.2358065007880874E7 ; 2.401988596705339E10 ; 24217.51999999998
69 ; 721565.4993282347 ; 4.012820616503241E8 ; 4.3077542131462246E7 ; 2.4421157395682716E10 ; 24573.659999999978
70 ; 722752.1655560624 ; 4.0129269301475406E8 ; 4.379910763079048E7 ; 2.4822439457333042E10 ; 24929.799999999977
71 ; 724166.73068222 ; 4.0130332200642455E8 ; 4.4521859796346545E7 ; 2.5223732150347797E10 ; 25285.939999999977
72 ; 727137.8198874117 ; 4.013139479398819E8 ; 4.524602652702876E7 ; 2.562503547235422E10 ; 25642.079999999976
73 ; 728787.6694236668 ; 4.013245701581898E8 ; 4.597316434691618E7 ; 2.60263494202941E10 ; 25998.219999999976
74 ; 730201.1100723874 ; 4.013351880308982E8 ; 4.6701952016339846E7 ; 2.6427673990452293E10 ; 26354.359999999975
75 ; 732090.9779024873 ; 4.013458009521841E8 ; 4.7432153126412235E7 ; 2.6829009178483192E10 ; 26710.499999999975
76 ; 733493.6398328193 ; 4.013564083391458E8 ; 4.816424410431472E7 ; 2.7230354979435375E10 ; 27066.639999999974
77 ; 734992.0396932624 ; 4.0136700963023764E8 ; 4.889773774414754E7 ; 2.763171138777452E10 ; 27422.779999999973
78 ; 736197.2955107989 ; 4.013776042838317E8 ; 4.9632729783840805E7 ; 2.803307839740476E10 ; 27778.919999999973
79 ; 735877.0012887738 ; 4.0138819177689457E8 ; 5.0368927079351604E7 ; 2.843445600168859E10 ; 28135.059999999972
80 ; 738033.5764728871 ; 4.013987716037689E8 ; 5.1104804080640376E7 ; 2.8835844193465485E10 ; 28491.19999999997
81 ; 741133.4623065728 ; 4.014093432750509E8 ; 5.184283765711326E7 ; 2.9237242965069252E10 ; 28847.33999999997
82 ; 743430.1860264092 ; 4.01419906316554E8 ; 5.2583971119419836E7 ; 2.9638652308344303E10 ; 29203.47999999997
83 ; 745501.4167625936 ; 4.014304602683525E8 ; 5.3327401305446245E7 ; 3.004007221466086E10 ; 29559.61999999997
84 ; 749223.6544577756 ; 4.0144100468389714E8 ; 5.4072902722208835E7 ; 3.044150267492921E10 ; 29915.75999999997
85 ; 748692.3346977783 ; 4.01451539129197E8 ; 5.482212637666661E7 ; 3.084294367961311E10 ; 30271.89999999997
86 ; 750884.1960053191 ; 4.0146206318206203E8 ; 5.557081871136439E7 ; 3.1244395218742306E10 ; 30628.039999999968
87 ; 750830.9821529941 ; 4.014725764314013E8 ; 5.632170290736971E7 ; 3.1645857281924366E10 ; 30984.179999999968
88 ; 752080.8491579553 ; 4.0148307847657144E8 ; 5.70725338895227E7 ; 3.2047329858355766E10 ; 31340.319999999967
89 ; 753122.1303364784 ; 4.0149356892677236E8 ; 5.782461473868065E7 ; 3.2448812936832336E10 ; 31696.459999999966
90 ; 757838.7281173498 ; 4.0150404740048563E8 ; 5.857773686901713E7 ; 3.285030650575911E10 ; 32052.599999999966
91 ; 758038.295485052 ; 4.015145135249524E8 ; 5.933557559713448E7 ; 3.3251810553159595E10 ; 32408.739999999965
92 ; 758784.0950850596 ; 4.0152496693568724E8 ; 6.009361389261953E7 ; 3.3653325066684547E10 ; 32764.879999999965
93 ; 759998.9947244723 ; 4.0153540727602595E8 ; 6.085239798770459E7 ; 3.4054850033620235E10 ; 33121.01999999997
94 ; 761491.1989794801 ; 4.0154583419670373E8 ; 6.1612396982429065E7 ; 3.445638544089626E10 ; 33477.15999999997
95 ; 760900.918626058 ; 4.0155624735546196E8 ; 6.237388818140855E7 ; 3.4857931275092964E10 ; 33833.29999999997
96 ; 763374.4312573739 ; 4.015666464166813E8 ; 6.31347891000346E7 ; 3.5259487522448425E10 ; 34189.439999999966
97 ; 765355.6530274089 ; 4.0157703105103886E8 ; 6.389816353129198E7 ; 3.5661054168865105E10 ; 34545.579999999965
98 ; 765295.2686538933 ; 4.0158740093518806E8 ; 6.4663519184319384E7 ; 3.6062631199916145E10 ; 34901.719999999965
99 ; 768015.033553989 ; 4.015977557514592E8 ; 6.542881445297328E7 ; 3.646421860085133E10 ; 35257.859999999964
100 ; 768574.8049101438 ; 4.016080951875789E8 ; 6.6196829486527264E7 ; 3.686581635660279E10 ; 35613.99999999996
101 ; 770060.3506197007 ; 4.016184189364081E8 ; 6.696540429143741E7 ; 3.726742445179037E10 ; 35970.13999999996
102 ; 771777.6845484291 ; 4.01628726695696E8 ; 6.77354646420571E7 ; 3.7669042870726776E10 ; 36326.27999999996
103 ; 771909.9563957937 ; 4.0163901816784984E8 ; 6.850724232660553E7 ; 3.807067159742247E10 ; 36682.41999999996
104 ; 772635.4509072283 ; 4.016492930597185E8 ; 6.927915228300132E7 ; 3.847231061559032E10 ; 37038.55999999996
105 ; 775250.4672078006 ; 4.016595510823897E8 ; 7.005178773390855E7 ; 3.887395990865003E10 ; 37394.69999999996
106 ; 775365.4995462055 ; 4.01669791951E8 ; 7.082703820111635E7 ; 3.927561945973242E10 ; 37750.83999999996
107 ; 776787.9052344029 ; 4.0168001538455486E8 ; 7.160240370066255E7 ; 3.967728925168342E10 ; 38106.97999999996
108 ; 776002.6698689623 ; 4.016902211057614E8 ; 7.237919160589695E7 ; 4.007896926706797E10 ; 38463.11999999996
109 ; 779135.4691671376 ; 4.017004088408697E8 ; 7.315519427576591E7 ; 4.048065948817373E10 ; 38819.25999999996
110 ; 780453.5980755418 ; 4.017105783195238E8 ; 7.393432974493305E7 ; 4.0882359897014595E10 ; 39175.39999999996
111 ; 780119.7200059926 ; 4.017207292746217E8 ; 7.47147833430086E7 ; 4.128407047533412E10 ; 39531.53999999996
112 ; 783393.550594873 ; 4.0173086144218355E8 ; 7.549490306301458E7 ; 4.168579120460874E10 ; 39887.67999999996
113 ; 782839.0411819312 ; 4.017409745612267E8 ; 7.627829661360945E7 ; 4.208752206605093E10 ; 40243.819999999956
114 ; 783521.1847367437 ; 4.01751068373649E8 ; 7.706113565479138E7 ; 4.248926304061215E10 ; 40599.959999999955
115 ; 783187.643987763 ; 4.0176114262411773E8 ; 7.784465683952813E7 ; 4.28910141089858E10 ; 40956.099999999955
116 ; 784745.6490329101 ; 4.017711970599653E8 ; 7.862784448351589E7 ; 4.329277525160992E10 ; 41312.239999999954
117 ; 785844.2472875789 ; 4.0178123143109107E8 ; 7.94125901325488E7 ; 4.369454644866988E10 ; 41668.379999999954
118 ; 785902.7659292592 ; 4.017912454898678E8 ; 8.019843437983638E7 ; 4.4096327680100975E10 ; 42024.51999999995
119 ; 784751.2414225879 ; 4.0180123899105406E8 ; 8.098433714576563E7 ; 4.449811892559084E10 ; 42380.65999999995
120 ; 788031.884969345 ; 4.01811211691711E8 ; 8.176908838718823E7 ; 4.4899920164581894E10 ; 42736.79999999995
121 ; 789351.5451104412 ; 4.018211633511239E8 ; 8.255712027215756E7 ; 4.5301731376273605E10 ; 43092.93999999995
122 ; 789932.1967758922 ; 4.0183109373072803E8 ; 8.3346471817268E7 ; 4.570355253962473E10 ; 43449.07999999995
123 ; 789442.1087792924 ; 4.018410025940379E8 ; 8.41364040140439E7 ; 4.610538363335546E10 ; 43805.21999999995
124 ; 789088.7803745146 ; 4.0185088970658123E8 ; 8.49258461228232E7 ; 4.65072246359495E10 ; 44161.35999999995
125 ; 789823.3675569942 ; 4.0186075483583575E8 ; 8.57149349031977E7 ; 4.690907552565608E10 ; 44517.49999999995
126 ; 788693.9624560974 ; 4.018705977511697E8 ; 8.65047582707547E7 ; 4.731093628049192E10 ; 44873.63999999995
127 ; 787558.3441880256 ; 4.018804182237852E8 ; 8.729345223321079E7 ; 4.771280687824309E10 ; 45229.77999999995
128 ; 787409.6403037403 ; 4.0189021602666485E8 ; 8.80810105773988E7 ; 4.811468729646687E10 ; 45585.91999999995
129 ; 788529.888868481 ; 4.0189999093452096E8 ; 8.886842021770255E7 ; 4.851657751249354E10 ; 45942.05999999995
130 ; 788967.8043752523 ; 4.019097427237474E8 ; 8.965695010657103E7 ; 4.891847750342806E10 ; 46298.199999999946
131 ; 786907.2605959307 ; 4.01919471172374E8 ; 9.044591791094628E7 ; 4.932038724615181E10 ; 46654.339999999946
132 ; 785653.4434046207 ; 4.0192917606002355E8 ; 9.123282517154221E7 ; 4.972230671732418E10 ; 47010.479999999945
133 ; 786895.0030720877 ; 4.019388571678703E8 ; 9.201847861494683E7 ; 5.01242358933842E10 ; 47366.619999999944
134 ; 786586.852772194 ; 4.019485142786015E8 ; 9.280537361801891E7 ; 5.052617475055207E10 ; 47722.759999999944
135 ; 787942.1476767526 ; 4.0195814717638E8 ; 9.35919604707911E7 ; 5.092812326483067E10 ; 48078.89999999994
136 ; 789378.1572243402 ; 4.0196775564680934E8 ; 9.437990261846785E7 ; 5.133008141200705E10 ; 48435.03999999994
137 ; 789837.0401249373 ; 4.0197733947690064E8 ; 9.51692807756922E7 ; 5.173204916765386E10 ; 48791.17999999994
138 ; 790605.1749190708 ; 4.019868984550405E8 ; 9.595911781581713E7 ; 5.213402650713076E10 ; 49147.31999999994
139 ; 789485.345719832 ; 4.019964323709614E8 ; 9.67497229907362E7 ; 5.25360134055858E10 ; 49503.45999999994
140 ; 788318.993978744 ; 4.0200594101571286E8 ; 9.753920833645603E7 ; 5.2938009837956764E10 ; 49859.59999999994
141 ; 786898.5413615882 ; 4.020154241816344E8 ; 9.832752733043477E7 ; 5.334001577897248E10 ; 50215.73999999994
142 ; 788629.7458053872 ; 4.0202488166232973E8 ; 9.911442587179635E7 ; 5.374203120315411E10 ; 50571.87999999994
143 ; 790284.4776935923 ; 4.020343132526424E8 ; 9.990305561760174E7 ; 5.4144056084816444E10 ; 50928.01999999994
144 ; 788398.0826273523 ; 4.020437187486322E8 ; 1.0069334009529532E8 ; 5.4546090398069084E10 ; 51284.15999999994
145 ; 791656.8399250862 ; 4.020530979475536E8 ; 1.0148173817792268E8 ; 5.494813411681772E10 ; 51640.29999999994
146 ; 791199.71393183 ; 4.0206245064783394E8 ; 1.0227339501784776E8 ; 5.5350187214765274E10 ; 51996.43999999994
147 ; 793244.6507747008 ; 4.020717766490543E8 ; 1.0306459473177959E8 ; 5.575224966541311E10 ; 52352.579999999936
148 ; 794043.5418468713 ; 4.0208107575192964E8 ; 1.038578393825543E8 ; 5.6154321442062164E10 ; 52708.719999999936
149 ; 798345.2390842865 ; 4.020903477582915E8 ; 1.0465188292440116E8 ; 5.6556402517814095E10 ; 53064.859999999935
150 ; 798728.9949257949 ; 4.020995924710703E8 ; 1.0545022816348545E8 ; 5.695849286557239E10 ; 53420.999999999935
151 ; 799752.0550871866 ; 4.021088096942792E8 ; 1.0624895715841125E8 ; 5.736059245804346E10 ; 53777.139999999934
152 ; 801476.0706486319 ; 4.021179992329987E8 ; 1.0704870921349844E8 ; 5.776270126773774E10 ; 54133.27999999993
153 ; 803133.6596246677 ; 4.021271608933617E8 ; 1.0785018528414707E8 ; 5.816481926697074E10 ; 54489.41999999993
154 ; 806130.5710625546 ; 4.021362944825396E8 ; 1.0865331894377173E8 ; 5.8566946427864105E10 ; 54845.55999999993
155 ; 809322.0186783401 ; 4.021453998087288E8 ; 1.0945944951483428E8 ; 5.896908272234664E10 ; 55201.69999999993
156 ; 809723.8055569622 ; 4.0215447668113846E8 ; 1.1026877153351262E8 ; 5.937122812215537E10 ; 55557.83999999993
157 ; 810124.1142229049 ; 4.021635249099778E8 ; 1.1107849533906959E8 ; 5.977338259883651E10 ; 55913.97999999993
158 ; 813655.8242475565 ; 4.0217254430644536E8 ; 1.1188861945329249E8 ; 6.017554612374649E10 ; 56270.11999999993
159 ; 815774.7314162012 ; 4.021815346827176E8 ; 1.1270227527754004E8 ; 6.057771866805293E10 ; 56626.25999999993
160 ; 818150.6554135772 ; 4.021904958519391E8 ; 1.1351805000895624E8 ; 6.097990020273565E10 ; 56982.39999999993
161 ; 818429.4263841466 ; 4.021994276282122E8 ; 1.1433620066436982E8 ; 6.1382090698587585E10 ; 57338.53999999993
162 ; 819658.8661015475 ; 4.0220832982658815E8 ; 1.1515463009075397E8 ; 6.17842901262158E10 ; 57694.67999999993
163 ; 821088.4876081629 ; 4.022172022630582E8 ; 1.1597428895685552E8 ; 6.218649845604239E10 ; 58050.81999999993
164 ; 823603.1404013257 ; 4.02226044754545E8 ; 1.1679537744446369E8 ; 6.258871565830545E10 ; 58406.95999999993
165 ; 824679.4861481427 ; 4.02234857118895E8 ; 1.17618980584865E8 ; 6.299094170306E10 ; 58763.099999999926
166 ; 824950.4775471957 ; 4.022436391748706E8 ; 1.1844366007101315E8 ; 6.3393176560178894E10 ; 59119.239999999925
167 ; 826480.526152846 ; 4.022523907421434E8 ; 1.1926861054856035E8 ; 6.379542019935377E10 ; 59475.379999999925
168 ; 829092.4946522592 ; 4.0226111164128697E8 ; 1.200950910747132E8 ; 6.419767259009591E10 ; 59831.519999999924
169 ; 830401.499246767 ; 4.022698016937709E8 ; 1.2092418356936546E8 ; 6.45999337017372E10 ; 60187.65999999992
170 ; 832986.9813636683 ; 4.022784607219544E8 ; 1.2175458506861222E8 ; 6.500220350343097E10 ; 60543.79999999992
171 ; 831057.575280468 ; 4.022870885490809E8 ; 1.2258757204997589E8 ; 6.540448196415292E10 ; 60899.93999999992
172 ; 834236.5041924778 ; 4.0229568499927235E8 ; 1.2341862962525636E8 ; 6.5806769052702E10 ; 61256.07999999992
173 ; 838965.2250052117 ; 4.0230424989752424E8 ; 1.2425286612944883E8 ; 6.620906473770128E10 ; 61612.21999999992
174 ; 838782.0455716252 ; 4.0231278306970084E8 ; 1.2509183135445404E8 ; 6.66113689875988E10 ; 61968.35999999992
175 ; 840548.0761246487 ; 4.0232128434253037E8 ; 1.2593061340002567E8 ; 6.70136817706685E10 ; 62324.49999999992
176 ; 844099.8278488335 ; 4.0232975354360116E8 ; 1.2677116147615032E8 ; 6.741600305501103E10 ; 62680.63999999992
177 ; 845222.2198259688 ; 4.0233819050135714E8 ; 1.2761526130399916E8 ; 6.7818332808554634E10 ; 63036.77999999992
