CSV File for the Network on Day 196
1 - Minute m 
2 - Power Consumed at minute m 
3 - Power Produced at minute m 
4 - Energy Consumed since the beginning of the day 
5 - Energy Produced since the beginning of the day 
6 - Energy Lost since the beginning of the day 
 
No Production city : 2, Producer : 1
No Production city : 4, Producer : 1
No Production city : 4, Producer : 1
 
0 ; 28064.187574083753 ; 133584.8704800772 ; 0.0 ; 0.0 ; 0.0
1 ; 30058.19392418323 ; 133202.10864348413 ; 28064.187574083753 ; 133584.8704800772 ; 238.00000000000003
2 ; 32240.61311767727 ; 132857.62554443683 ; 58122.38149826699 ; 266786.9791235613 ; 476.00000000000006
3 ; 33611.82756092951 ; 132552.06633732715 ; 90362.99461594425 ; 399644.60466799815 ; 714.0000000000001
4 ; 35218.000762929565 ; 132286.01483971847 ; 123974.82217687376 ; 532196.6710053253 ; 952.0000000000001
5 ; 37148.460613838426 ; 132059.988447719 ; 159192.82293980333 ; 664482.6858450437 ; 1190.0000000000002
6 ; 38353.216412781236 ; 131874.4334879031 ; 196341.28355364176 ; 796542.6742927628 ; 1428.0000000000002
7 ; 39894.658383766015 ; 131729.7210996974 ; 234694.499966423 ; 928417.1077806659 ; 1666.0000000000002
8 ; 41944.34427999731 ; 131626.14373472997 ; 274589.158350189 ; 1060146.8288803631 ; 1904.0000000000002
9 ; 43470.00973553448 ; 131563.9123490558 ; 316533.50263018627 ; 1191772.972615093 ; 2142.0000000000005
10 ; 44793.50581288385 ; 131543.15435070475 ; 360003.51236572076 ; 1323336.8849641487 ; 2380.0000000000005
11 ; 46360.63301761943 ; 131563.9123490558 ; 404797.0181786046 ; 1454880.0393148535 ; 2618.0000000000005
12 ; 48022.19540363056 ; 131626.14373472997 ; 451157.65119622403 ; 1586443.9516639092 ; 2856.0000000000005
13 ; 49383.934108222966 ; 131729.7210996974 ; 499179.8465998546 ; 1718070.0953986393 ; 3094.0000000000005
14 ; 50713.53997785494 ; 131874.43348790304 ; 548563.7807080776 ; 1849799.8164983368 ; 3332.0000000000005
15 ; 52612.42292024536 ; 132059.988447719 ; 599277.3206859325 ; 1981674.24998624 ; 3570.0000000000005
16 ; 53579.25134195273 ; 132286.01483971847 ; 651889.7436061779 ; 2113734.238433959 ; 3808.0000000000005
17 ; 55146.85732813985 ; 132552.06633732707 ; 705468.9949481306 ; 2246020.2532736775 ; 4046.0000000000005
18 ; 56387.82509937194 ; 132857.62554443692 ; 760615.8522762704 ; 2378572.3196110046 ; 4284.000000000001
19 ; 57805.65006435967 ; 133202.10864348404 ; 817003.6773756423 ; 2511429.9451554413 ; 4522.000000000001
20 ; 59284.73698543319 ; 133584.87048007725 ; 874809.327440002 ; 2644632.053798925 ; 4760.000000000001
21 ; 60385.556837793636 ; 134005.20998609206 ; 934094.0644254352 ; 2778216.9242790025 ; 4998.000000000001
22 ; 61435.4339976853 ; 134462.37584215016 ; 994479.6212632288 ; 2912222.1342650945 ; 5236.000000000001
23 ; 63080.607193142074 ; 134955.5722823615 ; 1055915.0552609141 ; 3046684.510107245 ; 5474.000000000001
24 ; 64439.69568585905 ; 135483.96494876602 ; 1118995.6624540563 ; 3181640.082389606 ; 5712.000000000001
25 ; 65465.19099278406 ; 136046.6867096608 ; 1183435.3581399154 ; 3317124.047338372 ; 5950.000000000001
26 ; 67159.74276680732 ; 136642.84336444028 ; 1248900.5491326994 ; 3453170.734048033 ; 6188.000000000001
27 ; 67833.02097338544 ; 137271.51916722715 ; 1316060.2918995067 ; 3589813.5774124735 ; 6426.000000000001
28 ; 69772.39643830809 ; 137931.78211193907 ; 1383893.3128728922 ; 3727085.0965797007 ; 6664.000000000001
29 ; 70284.57859249269 ; 138622.6889320747 ; 1453665.7093112003 ; 3865016.8786916398 ; 6902.000000000001
30 ; 71335.90526894295 ; 139343.28977901276 ; 1523950.287903693 ; 4003639.5676237145 ; 7140.000000000001
31 ; 72536.35949114287 ; 140092.63255268286 ; 1595286.193172636 ; 4142982.857402727 ; 7378.000000000001
32 ; 73772.5607752441 ; 140869.7668678134 ; 1667822.552663779 ; 4283075.489955409 ; 7616.000000000001
33 ; 74683.54057552233 ; 141673.7476474191 ; 1741595.113439023 ; 4423945.256823223 ; 7854.000000000001
34 ; 76090.19260798236 ; 142503.63834263108 ; 1816278.6540145453 ; 4565619.004470643 ; 8092.000000000001
35 ; 77148.81556387516 ; 143358.5137843364 ; 1892368.8466225276 ; 4708122.642813274 ; 8330.000000000002
36 ; 77824.12711326218 ; 144237.4626773804 ; 1969517.6621864028 ; 4851481.156597611 ; 8568.000000000002
37 ; 79253.45440836248 ; 145139.589752319 ; 2047341.789299665 ; 4995718.619274991 ; 8806.000000000002
38 ; 79939.39637085001 ; 146064.01759295716 ; 2126595.2437080275 ; 5140858.20902731 ; 9044.000000000002
39 ; 81250.28578155703 ; 147009.88816026069 ; 2206534.6400788776 ; 5286922.226620267 ; 9282.000000000002
40 ; 82122.03526060338 ; 147976.3640347773 ; 2287784.925860435 ; 5433932.114780528 ; 9520.000000000002
41 ; 82846.37985586176 ; 148962.62940055956 ; 2369906.961121038 ; 5581908.478815305 ; 9758.000000000002
42 ; 83794.10892655484 ; 149967.8907938488 ; 2452753.3409769 ; 5730871.108215865 ; 9996.000000000002
43 ; 85042.86934263266 ; 150991.37763956518 ; 2536547.4499034546 ; 5880838.9990097135 ; 10234.000000000002
44 ; 85522.36315311668 ; 152032.34259804315 ; 2621590.319246087 ; 6031830.376649279 ; 10472.000000000002
45 ; 86191.42269957102 ; 153090.06174355195 ; 2707112.682399204 ; 6183862.7192473225 ; 10710.000000000002
46 ; 87499.92596870172 ; 154163.83459501492 ; 2793304.105098775 ; 6336952.780990874 ; 10948.000000000002
47 ; 88279.37582565688 ; 155252.98401806474 ; 2880804.0310674766 ; 6491116.61558589 ; 11186.000000000002
48 ; 88921.49019077767 ; 156356.85601620012 ; 2969083.4068931337 ; 6646369.599603955 ; 11424.000000000002
49 ; 89458.09065564464 ; 157474.81942738788 ; 3058004.897083911 ; 6802726.455620155 ; 11662.000000000002
50 ; 90431.25658700576 ; 158606.2655410262 ; 3147462.9877395555 ; 6960201.2750475425 ; 11900.000000000002
51 ; 91149.11779225782 ; 159750.60764877443 ; 3237894.244326561 ; 7118807.540588569 ; 12138.000000000002
52 ; 92181.44153526016 ; 160907.28054139548 ; 3329043.3621188193 ; 7278558.148237343 ; 12376.000000000002
53 ; 93048.8123712435 ; 162075.73996245238 ; 3421224.8036540793 ; 7439465.428778739 ; 12614.000000000002
54 ; 93177.30308163656 ; 163255.46202847688 ; 3514273.616025323 ; 7601541.168741191 ; 12852.000000000002
55 ; 94010.55503628953 ; 164445.9426240822 ; 3607450.91910696 ; 7764796.630769668 ; 13090.000000000002
56 ; 94532.70203051677 ; 165646.69677943538 ; 3701461.4741432494 ; 7929242.57339375 ; 13328.000000000002
57 ; 95157.45069997341 ; 166857.2580365323 ; 3795994.176173766 ; 8094889.2701731855 ; 13566.000000000002
58 ; 95809.76149023963 ; 168077.17780983602 ; 3891151.6268737395 ; 8261746.528209718 ; 13804.000000000002
59 ; 96931.30568811524 ; 169306.02474604137 ; 3986961.3883639793 ; 8429823.706019554 ; 14042.000000000002
60 ; 96853.30498446718 ; 170543.38408700618 ; 4083892.6940520946 ; 8599129.730765596 ; 14280.000000000002
61 ; 97889.56308607946 ; 171788.85703925227 ; 4180745.9990365617 ; 8769673.114852602 ; 14518.000000000002
62 ; 98155.38182140983 ; 173042.06015286507 ; 4278635.562122641 ; 8941461.971891854 ; 14756.000000000002
63 ; 98640.05009256744 ; 174302.62471211853 ; 4376790.943944051 ; 9114504.03204472 ; 14994.000000000002
64 ; 99286.53581022078 ; 175570.1961397053 ; 4475430.994036619 ; 9288806.656756839 ; 15232.000000000002
65 ; 99438.13905316555 ; 176844.4334160676 ; 4574717.52984684 ; 9464376.852896543 ; 15470.000000000002
66 ; 99975.18463915843 ; 178125.00851498122 ; 4674155.6689000055 ; 9641221.28631261 ; 15708.000000000002
67 ; 100405.53705814226 ; 179411.60585625656 ; 4774130.853539164 ; 9819346.294827592 ; 15946.000000000002
68 ; 100733.5115052617 ; 180703.9217761647 ; 4874536.390597306 ; 9998757.900683848 ; 16184.000000000002
69 ; 101332.02966068442 ; 182001.66401598175 ; 4975269.902102568 ; 1.0179461822460013E7 ; 16422.000000000004
70 ; 101792.6352206727 ; 183304.55122886214 ; 5076601.931763252 ; 1.0361463486475995E7 ; 16660.000000000004
71 ; 102045.66254165393 ; 184612.31250509198 ; 5178394.566983925 ; 1.0544768037704857E7 ; 16898.000000000004
72 ; 102596.00880787136 ; 185924.68691564756 ; 5280440.229525579 ; 1.072938035020995E7 ; 17136.000000000004
73 ; 102728.59193879116 ; 187241.42307387304 ; 5383036.238333451 ; 1.0915305037125597E7 ; 17374.000000000004
74 ; 102857.92059647893 ; 188562.27871500244 ; 5485764.8302722415 ; 1.110254646019947E7 ; 17612.000000000004
75 ; 103187.67615747394 ; 189887.02029317882 ; 5588622.75086872 ; 1.1291108738914473E7 ; 17850.000000000004
76 ; 103554.29296079896 ; 191215.42259556652 ; 5691810.427026194 ; 1.1480995759207651E7 ; 18088.000000000004
77 ; 103535.10531884657 ; 192547.26837310413 ; 5795364.719986993 ; 1.1672211181803217E7 ; 18326.000000000004
78 ; 103550.35380618247 ; 193882.34798741588 ; 5898899.825305839 ; 1.1864758450176321E7 ; 18564.000000000004
79 ; 104399.92155039866 ; 195220.4590733672 ; 6002450.179112022 ; 1.2058640798163736E7 ; 18802.000000000004
80 ; 104465.1397547001 ; 196561.4062167407 ; 6106850.1006624205 ; 1.2253861257237103E7 ; 19040.000000000004
81 ; 104606.45069544125 ; 197905.00064648959 ; 6211315.240417121 ; 1.2450422663453843E7 ; 19278.000000000004
82 ; 104558.55694371175 ; 199251.05994102717 ; 6315921.691112562 ; 1.2648327664100332E7 ; 19516.000000000004
83 ; 104570.362613705 ; 200599.40774800678 ; 6420480.248056274 ; 1.284757872404136E7 ; 19754.000000000004
84 ; 104904.69829146014 ; 201949.8735170499 ; 6525050.610669979 ; 1.3048178131789366E7 ; 19992.000000000004
85 ; 104322.93878645467 ; 203302.29224488957 ; 6629955.308961439 ; 1.3250128005306415E7 ; 20230.000000000004
86 ; 104648.29365285688 ; 204656.50423240123 ; 6734278.247747893 ; 1.3453430297551304E7 ; 20468.000000000004
87 ; 104838.69411780714 ; 206012.35485300844 ; 6838926.54140075 ; 1.3658086801783705E7 ; 20706.000000000004
88 ; 104583.33955856363 ; 207369.69433196032 ; 6943765.235518557 ; 1.3864099156636713E7 ; 20944.000000000004
89 ; 105194.58140678362 ; 208728.37753599513 ; 7048348.57507712 ; 1.4071468850968674E7 ; 21182.000000000004
90 ; 104957.36899486906 ; 210088.26377291614 ; 7153543.1564839035 ; 1.4280197228504669E7 ; 21420.000000000004
91 ; 104195.57926047004 ; 211449.21660062394 ; 7258500.525478773 ; 1.4490285492277585E7 ; 21658.000000000004
92 ; 104759.09411428639 ; 212811.10364516577 ; 7362696.104739243 ; 1.470173470887821E7 ; 21896.000000000004
93 ; 104726.22501169029 ; 214173.79642737648 ; 7467455.19885353 ; 1.4914545812523376E7 ; 22134.000000000004
94 ; 105221.35927608778 ; 215537.17019770606 ; 7572181.4238652205 ; 1.5128719608950753E7 ; 22372.000000000004
95 ; 104373.1442877587 ; 216901.10377884077 ; 7677402.783141308 ; 1.534425677914846E7 ; 22610.000000000004
96 ; 103880.91561258386 ; 218265.47941574568 ; 7781775.927429067 ; 1.55611578829273E7 ; 22848.000000000004
97 ; 103987.00919419354 ; 219630.18263276925 ; 7885656.843041651 ; 1.5779423362343047E7 ; 23086.000000000004
98 ; 104082.77403070676 ; 220995.1020974675 ; 7989643.852235844 ; 1.5999053544975815E7 ; 23324.000000000004
99 ; 103930.36418135915 ; 222360.1294908212 ; 8093726.626266551 ; 1.6220048647073282E7 ; 23562.000000000004
100 ; 103825.13040750928 ; 223725.1593835342 ; 8197656.9904479105 ; 1.6442408776564103E7 ; 23800.000000000004
101 ; 103068.7742781037 ; 225090.08911811476 ; 8301482.12085542 ; 1.6666133935947636E7 ; 24038.000000000004
102 ; 102891.08636861971 ; 226454.81869645606 ; 8404550.895133523 ; 1.689122402506575E7 ; 24276.000000000004
103 ; 102537.92650665708 ; 227819.25067264753 ; 8507441.981502144 ; 1.7117678843762208E7 ; 24514.000000000004
104 ; 102436.33297584511 ; 229183.29005075773 ; 8609979.9080088 ; 1.7345498094434854E7 ; 24752.000000000004
105 ; 101836.61629263478 ; 230546.84418734637 ; 8712416.240984647 ; 1.757468138448561E7 ; 24990.000000000004
106 ; 101800.08113159194 ; 231909.8226984717 ; 8814252.857277282 ; 1.7805228228672955E7 ; 25228.000000000004
107 ; 100973.43821094677 ; 233272.13737097246 ; 8916052.938408874 ; 1.8037138051371425E7 ; 25466.000000000004
108 ; 101394.07686462163 ; 234633.70207781505 ; 9017026.376619821 ; 1.82704101887424E7 ; 25704.000000000004
109 ; 100470.16810782914 ; 235994.43269730508 ; 9118420.453484444 ; 1.8505043890820213E7 ; 25942.000000000004
110 ; 100673.14818515762 ; 237354.24703597542 ; 9218890.621592274 ; 1.8741038323517516E7 ; 26180.000000000004
111 ; 99912.17601297922 ; 238713.06475496953 ; 9319563.769777432 ; 1.8978392570553493E7 ; 26418.000000000004
112 ; 99309.70359097682 ; 240070.8072997492 ; 9419475.945790412 ; 1.9217105635308463E7 ; 26656.000000000004
113 ; 98646.94702424489 ; 241427.39783296527 ; 9518785.649381388 ; 1.945717644260821E7 ; 26894.000000000004
114 ; 98054.29810869272 ; 242782.761170337 ; 9617432.596405633 ; 1.9698603840441175E7 ; 27132.000000000004
115 ; 97639.92142154288 ; 244136.82371939308 ; 9715486.894514326 ; 1.9941386601611514E7 ; 27370.000000000004
116 ; 97424.34438511817 ; 245489.5134209368 ; 9813126.815935869 ; 2.0185523425330907E7 ; 27608.000000000004
117 ; 96325.37276412015 ; 246840.75969310335 ; 9910551.160320986 ; 2.0431012938751843E7 ; 27846.000000000004
118 ; 96309.67656583193 ; 248190.49337788313 ; 1.0006876533085106E7 ; 2.0677853698444948E7 ; 28084.000000000004
119 ; 95515.4450400908 ; 249538.64668999452 ; 1.0103186209650937E7 ; 2.092604419182283E7 ; 28322.000000000004
120 ; 95076.17299150408 ; 250885.1531679918 ; 1.0198701654691027E7 ; 2.1175582838512827E7 ; 28560.000000000004
121 ; 94089.85215498944 ; 252229.94762750194 ; 1.0293777827682532E7 ; 2.142646799168082E7 ; 28798.000000000004
122 ; 93644.53250655405 ; 253572.9661164897 ; 1.0387867679837521E7 ; 2.1678697939308323E7 ; 29036.000000000004
123 ; 92739.9800402981 ; 254914.1458724529 ; 1.0481512212344075E7 ; 2.193227090542481E7 ; 29274.000000000004
124 ; 92358.49139754118 ; 256253.4252814589 ; 1.0574252192384373E7 ; 2.2187185051297262E7 ; 29512.000000000004
125 ; 91571.66813291264 ; 257590.74383893338 ; 1.0666610683781914E7 ; 2.244343847657872E7 ; 29750.000000000004
126 ; 90974.39320595001 ; 258926.04211212022 ; 1.0758182351914827E7 ; 2.2701029220417652E7 ; 29988.000000000004
127 ; 90049.70054163721 ; 260259.26170413443 ; 1.0849156745120777E7 ; 2.295995526252977E7 ; 30226.000000000004
128 ; 89495.7274221771 ; 261590.34521953287 ; 1.0939206445662415E7 ; 2.3220214524233907E7 ; 30464.000000000004
129 ; 88701.91117231548 ; 262919.2362313337 ; 1.1028702173084592E7 ; 2.348180486945344E7 ; 30702.000000000004
130 ; 87684.93524255478 ; 264245.87924941577 ; 1.1117404084256908E7 ; 2.3744724105684776E7 ; 30940.000000000004
131 ; 86772.40590002462 ; 265570.2196902362 ; 1.1205089019499462E7 ; 2.4008969984934192E7 ; 31178.000000000004
132 ; 85948.81103912683 ; 266892.20384780434 ; 1.1291861425399486E7 ; 2.427454020462443E7 ; 31416.000000000004
133 ; 85175.75468392172 ; 268211.77886585507 ; 1.1377810236438613E7 ; 2.4541432408472233E7 ; 31654.000000000004
134 ; 84067.55755728594 ; 269528.89271116717 ; 1.1462985991122534E7 ; 2.4809644187338088E7 ; 31892.000000000004
135 ; 83694.081515782 ; 270843.49414797424 ; 1.1547053548679821E7 ; 2.5079173080049254E7 ; 32130.000000000004
136 ; 82665.25138609603 ; 272155.53271341964 ; 1.1630747630195603E7 ; 2.535001657419723E7 ; 32368.000000000004
137 ; 81129.59518709897 ; 273464.9586940075 ; 1.17134128815817E7 ; 2.562217210691065E7 ; 32606.000000000004
138 ; 80239.80129367588 ; 274771.72310300596 ; 1.17945424767688E7 ; 2.5895637065604657E7 ; 32844.00000000001
139 ; 79301.81630451753 ; 276075.7776587605 ; 1.1874782278062476E7 ; 2.6170408788707662E7 ; 33082.00000000001
140 ; 78846.38766052338 ; 277377.0747638756 ; 1.1954084094366994E7 ; 2.6446484566366423E7 ; 33320.00000000001
141 ; 77295.36302907603 ; 278675.5674852277 ; 1.2032930482027518E7 ; 2.67238616411303E7 ; 33558.00000000001
142 ; 76684.17116856738 ; 279971.2095347725 ; 1.2110225845056593E7 ; 2.7002537208615527E7 ; 33796.00000000001
143 ; 75160.1572918059 ; 281263.9552511116 ; 1.2186910016225161E7 ; 2.72825084181503E7 ; 34034.00000000001
144 ; 74387.74187174941 ; 282553.7595817852 ; 1.2262070173516966E7 ; 2.756377237340141E7 ; 34272.00000000001
145 ; 74760.91527832014 ; 283840.57806625986 ; 1.2336457915388716E7 ; 2.7846326132983197E7 ; 34510.00000000001
146 ; 74024.24449203687 ; 285124.36681958113 ; 1.2411218830667036E7 ; 2.8130166711049456E7 ; 34748.00000000001
147 ; 73856.5467260064 ; 286405.08251666185 ; 1.2485243075159073E7 ; 2.841529107786904E7 ; 34986.00000000001
148 ; 73512.67693412094 ; 287682.68237717985 ; 1.255909962188508E7 ; 2.87016961603857E7 ; 35224.00000000001
149 ; 73373.28875533448 ; 288957.1241510584 ; 1.2632612298819201E7 ; 2.898937884276288E7 ; 35462.00000000001
150 ; 72871.43645423526 ; 290228.3661045042 ; 1.2705985587574536E7 ; 2.927833596691394E7 ; 35700.00000000001
151 ; 72533.86542338837 ; 291496.36700658116 ; 1.277885702402877E7 ; 2.9568564333018444E7 ; 35938.00000000001
152 ; 72387.61658214494 ; 292761.08611629467 ; 1.285139088945216E7 ; 2.9860060700025026E7 ; 36176.00000000001
153 ; 72370.61767196067 ; 294022.48317016807 ; 1.2923778506034303E7 ; 3.015282178614132E7 ; 36414.00000000001
154 ; 71772.42411055343 ; 295280.51837028755 ; 1.2996149123706264E7 ; 3.0446844269311488E7 ; 36652.00000000001
155 ; 71513.98196880132 ; 296535.15237279935 ; 1.3067921547816819E7 ; 3.0742124787681777E7 ; 36890.00000000001
156 ; 71476.85001088686 ; 297786.3462768374 ; 1.313943552978562E7 ; 3.1038659940054577E7 ; 37128.00000000001
157 ; 70971.32772657512 ; 299034.0616138661 ; 1.3210912379796507E7 ; 3.1336446286331415E7 ; 37366.00000000001
158 ; 70355.93790641539 ; 300278.2603374198 ; 1.3281883707523081E7 ; 3.163548034794528E7 ; 37604.00000000001
159 ; 70328.00557639461 ; 301518.90481322346 ; 1.3352239645429498E7 ; 3.19357586082827E7 ; 37842.00000000001
160 ; 70686.16499619314 ; 302755.957809679 ; 1.3422567651005892E7 ; 3.2237277513095923E7 ; 38080.00000000001
161 ; 69753.85778245862 ; 303989.3824887016 ; 1.3493253816002086E7 ; 3.2540033470905602E7 ; 38318.00000000001
162 ; 69185.20483593162 ; 305219.1423968938 ; 1.3563007673784545E7 ; 3.2844022853394303E7 ; 38556.00000000001
163 ; 69298.86522819608 ; 306445.20145704155 ; 1.3632192878620476E7 ; 3.3149241995791197E7 ; 38794.00000000001
164 ; 68882.13539564429 ; 307667.52395992115 ; 1.3701491743848672E7 ; 3.345568719724824E7 ; 39032.00000000001
165 ; 68222.2652477434 ; 308886.07455640374 ; 1.3770373879244316E7 ; 3.376335472120816E7 ; 39270.00000000001
166 ; 68229.70485089089 ; 310100.8182498463 ; 1.383859614449206E7 ; 3.4072240795764565E7 ; 39508.00000000001
167 ; 67691.45486190094 ; 311311.7203887568 ; 1.3906825849342952E7 ; 3.438234161401441E7 ; 39746.00000000001
168 ; 67743.58276899585 ; 312518.7466597241 ; 1.3974517304204853E7 ; 3.4693653334403165E7 ; 39984.00000000001
169 ; 66726.53951376976 ; 313721.863080601 ; 1.4042260886973849E7 ; 3.500617208106289E7 ; 40222.00000000001
170 ; 66600.48569694278 ; 314921.0359939314 ; 1.4108987426487619E7 ; 3.531989394414349E7 ; 40460.00000000001
171 ; 66389.51984785305 ; 316116.2320606121 ; 1.4175587912184563E7 ; 3.563481498013742E7 ; 40698.00000000001
172 ; 65937.97951827447 ; 317307.4182537796 ; 1.4241977432032416E7 ; 3.5950931212198034E7 ; 40936.00000000001
173 ; 65396.86019588749 ; 318494.5618529135 ; 1.430791541155069E7 ; 3.626823863045181E7 ; 41174.00000000001
174 ; 66065.05393337132 ; 319677.6304381492 ; 1.4373312271746578E7 ; 3.658673319230473E7 ; 41412.00000000001
175 ; 65679.82181418219 ; 320856.59188478993 ; 1.4439377325679949E7 ; 3.690641082274288E7 ; 41650.00000000001
176 ; 66172.87172522294 ; 322031.41435801244 ; 1.450505714749413E7 ; 3.722726741462767E7 ; 41888.00000000001
177 ; 65952.73200780294 ; 323202.0663077582 ; 1.4571230019219352E7 ; 3.754929882898568E7 ; 42126.00000000001
178 ; 66406.0513514293 ; 324368.5164638033 ; 1.4637182751227155E7 ; 3.7872500895293444E7 ; 42364.00000000001
179 ; 66936.72394481265 ; 325530.7338309996 ; 1.4703588802578585E7 ; 3.8196869411757246E7 ; 42602.00000000001
180 ; 66973.11955125451 ; 326688.6876846827 ; 1.4770525526523398E7 ; 3.852240014558825E7 ; 42840.00000000001
181 ; 67435.35051030993 ; 327842.347566238 ; 1.4837498646074653E7 ; 3.8849088833272934E7 ; 43078.00000000001
