CSV File for the Network on Day 218
1 - Minute m 
2 - Power Consumed at minute m 
3 - Power Produced at minute m 
4 - Energy Consumed since the beginning of the day 
5 - Energy Produced since the beginning of the day 
6 - Energy Lost since the beginning of the day 
 
No Production city : 2, Producer : 1
No Production city : 4, Producer : 1
No Production city : 4, Producer : 1
 
0 ; 26715.439771263475 ; 100540.42638201414 ; 0.0 ; 0.0 ; 0.0
1 ; 28453.458655477956 ; 99916.02500957639 ; 26715.439771263475 ; 100540.42638201414 ; 238.00000000000003
2 ; 30651.71969783543 ; 99346.42459230551 ; 55168.898426741434 ; 200456.45139159053 ; 476.00000000000006
3 ; 32493.437790636977 ; 98834.78099164179 ; 85820.61812457687 ; 299802.875983896 ; 714.0000000000001
4 ; 34209.43419320654 ; 98384.13472315756 ; 118314.05591521384 ; 398637.65697553783 ; 952.0000000000001
5 ; 35843.24009362966 ; 97997.33912836568 ; 152523.49010842037 ; 497021.7916986954 ; 1190.0000000000002
6 ; 37378.749714028825 ; 97676.98434810842 ; 188366.73020205004 ; 595019.1308270611 ; 1428.0000000000002
7 ; 39326.00052261678 ; 97425.32088265914 ; 225745.47991607885 ; 692696.1151751695 ; 1666.0000000000002
8 ; 41323.31344890124 ; 97244.18730382524 ; 265071.48043869564 ; 790121.4360578287 ; 1904.0000000000002
9 ; 42905.63968310231 ; 97134.9470694833 ; 306394.79388759687 ; 887365.623361654 ; 2142.0000000000005
10 ; 44231.99545910705 ; 97098.43923296497 ; 349300.4335706992 ; 984500.5704311373 ; 2380.0000000000005
11 ; 46193.47828125241 ; 97134.9470694833 ; 393532.4290298062 ; 1081599.0096641022 ; 2618.0000000000005
12 ; 47491.73813744113 ; 97244.18730382524 ; 439725.90731105866 ; 1178733.9567335856 ; 2856.0000000000005
13 ; 49366.516903566844 ; 97425.32088265914 ; 487217.64544849977 ; 1275978.1440374108 ; 3094.0000000000005
14 ; 51004.807888554446 ; 97676.98434810826 ; 536584.1623520666 ; 1373403.46492007 ; 3332.0000000000005
15 ; 52611.56083999605 ; 97997.33912836568 ; 587588.970240621 ; 1471080.4492681783 ; 3570.0000000000005
16 ; 53725.0847750899 ; 98384.13472315756 ; 640200.5310806171 ; 1569077.788396544 ; 3808.0000000000005
17 ; 55707.233799238 ; 98834.78099164164 ; 693925.615855707 ; 1667461.9231197017 ; 4046.0000000000005
18 ; 57020.26500505841 ; 99346.42459230566 ; 749632.849654945 ; 1766296.7041113432 ; 4284.000000000001
19 ; 58441.86825843551 ; 99916.02500957639 ; 806653.1146600033 ; 1865643.128703649 ; 4522.000000000001
20 ; 60504.7661593475 ; 100540.42638201414 ; 865094.9829184389 ; 1965559.1537132254 ; 4760.000000000001
21 ; 61199.43761437232 ; 101216.42234130547 ; 925599.7490777863 ; 2066099.5800952394 ; 4998.000000000001
22 ; 62972.03529499828 ; 101940.81210890097 ; 986799.1866921587 ; 2167316.0024365447 ; 5236.000000000001
23 ; 64180.18199767776 ; 102710.44704584013 ; 1049771.221987157 ; 2269256.8145454456 ; 5474.000000000001
24 ; 65631.53439414073 ; 103522.26762916883 ; 1113951.4039848347 ; 2371967.261591286 ; 5712.000000000001
25 ; 66966.99457923106 ; 104373.3314015403 ; 1179582.9383789755 ; 2475489.529220455 ; 5950.000000000001
26 ; 68022.89120432487 ; 105260.83281245315 ; 1246549.9329582066 ; 2579862.8606219953 ; 6188.000000000001
27 ; 69229.91686971085 ; 106182.11606705679 ; 1314572.8241625314 ; 2685123.6934344484 ; 6426.000000000001
28 ; 71028.11030836767 ; 107134.68215951559 ; 1383802.7410322423 ; 2791305.8095015055 ; 6664.000000000001
29 ; 72195.43924612261 ; 108116.19123219489 ; 1454830.85134061 ; 2898440.491661021 ; 6902.000000000001
30 ; 73453.46261209602 ; 109124.46130488555 ; 1527026.2905867328 ; 3006556.6828932157 ; 7140.000000000001
31 ; 74729.96567755542 ; 110157.46428846433 ; 1600479.7531988288 ; 3115681.144198101 ; 7378.000000000001
32 ; 76053.03799351305 ; 111213.32005582257 ; 1675209.7188763842 ; 3225838.6084865653 ; 7616.000000000001
33 ; 77066.11261887313 ; 112290.2892037557 ; 1751262.7568698972 ; 3337051.9285423877 ; 7854.000000000001
34 ; 77569.37679481071 ; 113386.76501140617 ; 1828328.8694887704 ; 3449342.217746143 ; 8092.000000000001
35 ; 79532.07391812679 ; 114501.26498822078 ; 1905898.246283581 ; 3562728.9827575493 ; 8330.000000000002
36 ; 80307.61442838339 ; 115632.42230876254 ; 1985430.3202017078 ; 3677230.24774577 ; 8568.000000000002
37 ; 81396.81445370514 ; 116778.97735280177 ; 2065737.934630091 ; 3792862.6700545326 ; 8806.000000000002
38 ; 82577.38310660377 ; 117939.76950552415 ; 2147134.749083796 ; 3909641.6474073343 ; 9044.000000000002
39 ; 83524.96338217825 ; 119113.72932254757 ; 2229712.1321904 ; 4027581.4169128584 ; 9282.000000000002
40 ; 84938.74455873157 ; 120299.87112567121 ; 2313237.0955725783 ; 4146695.146235406 ; 9520.000000000002
41 ; 85667.61017574702 ; 121497.28606592446 ; 2398175.84013131 ; 4266995.0173610775 ; 9758.000000000002
42 ; 87076.58261038398 ; 122705.13566870791 ; 2483843.450307057 ; 4388492.303427002 ; 9996.000000000002
43 ; 87676.45271300497 ; 123922.64586007949 ; 2570920.032917441 ; 4511197.43909571 ; 10234.000000000002
44 ; 88686.36927553073 ; 125149.1014621856 ; 2658596.4856304456 ; 4635120.08495579 ; 10472.000000000002
45 ; 89518.80936599382 ; 126383.84113840526 ; 2747282.8549059764 ; 4760269.186417975 ; 10710.000000000002
46 ; 90335.6186889411 ; 127626.25276406413 ; 2836801.6642719703 ; 4886653.02755638 ; 10948.000000000002
47 ; 91436.73841674934 ; 128875.76919590162 ; 2927137.2829609113 ; 5014279.280320444 ; 11186.000000000002
48 ; 92076.4011532048 ; 130131.86441227938 ; 3018574.021377661 ; 5143155.049516345 ; 11424.000000000002
49 ; 92812.68116279162 ; 131394.04999599102 ; 3110650.4225308658 ; 5273286.913928625 ; 11662.000000000002
50 ; 93820.7541281254 ; 132661.87193213947 ; 3203463.1036936576 ; 5404680.963924617 ; 11900.000000000002
51 ; 94701.67384648634 ; 133934.90769464496 ; 3297283.857821783 ; 5537342.835856756 ; 12138.000000000002
52 ; 95466.3779883479 ; 135212.7635963651 ; 3391985.5316682695 ; 5671277.743551401 ; 12376.000000000002
53 ; 96011.96564430949 ; 136495.07237939216 ; 3487451.9096566173 ; 5806490.507147767 ; 12614.000000000002
54 ; 97190.99043660269 ; 137781.49102376867 ; 3583463.8753009266 ; 5942985.579527159 ; 12852.000000000002
55 ; 97936.64627466879 ; 139071.69875454382 ; 3680654.8657375295 ; 6080767.070550928 ; 13090.000000000002
56 ; 98325.72089667493 ; 140365.39522874486 ; 3778591.512012198 ; 6219838.769305471 ; 13328.000000000002
57 ; 98958.72761826457 ; 141662.29888541906 ; 3876917.232908873 ; 6360204.164534216 ; 13566.000000000002
58 ; 99822.65007405459 ; 142962.14544340156 ; 3975875.9605271374 ; 6501866.463419635 ; 13804.000000000002
59 ; 100368.5282871201 ; 144264.68653286563 ; 4075698.610601192 ; 6644828.608863036 ; 14042.000000000002
60 ; 100992.36752106619 ; 145569.68844800987 ; 4176067.138888312 ; 6789093.295395901 ; 14280.000000000002
61 ; 101035.96753556485 ; 146876.93100943425 ; 4277059.506409378 ; 6934662.983843911 ; 14518.000000000002
62 ; 101802.23092020405 ; 148186.20652585305 ; 4378095.4739449425 ; 7081539.914853346 ; 14756.000000000002
63 ; 102437.49837624913 ; 149497.3188457929 ; 4479897.704865146 ; 7229726.1213791985 ; 14994.000000000002
64 ; 103024.99775463517 ; 150810.08249083092 ; 4582335.203241396 ; 7379223.440224991 ; 15232.000000000002
65 ; 103937.29152943027 ; 152124.3218627551 ; 4685360.200996031 ; 7530033.522715822 ; 15470.000000000002
66 ; 103828.06910911278 ; 153439.87051777096 ; 4789297.492525461 ; 7682157.844578577 ; 15708.000000000002
67 ; 104715.6914220673 ; 154756.5705015529 ; 4893125.561634574 ; 7835597.715096348 ; 15946.000000000002
68 ; 104982.7170993822 ; 156074.27173954603 ; 4997841.253056642 ; 7990354.285597901 ; 16184.000000000002
69 ; 105717.537335485 ; 157392.83147746944 ; 5102823.970156024 ; 8146428.557337447 ; 16422.000000000004
70 ; 106217.07657983452 ; 158712.1137674644 ; 5208541.507491509 ; 8303821.388814917 ; 16660.000000000004
71 ; 106079.24888474974 ; 160031.98899577494 ; 5314758.584071344 ; 8462533.50258238 ; 16898.000000000004
72 ; 106518.47241092395 ; 161352.3334482437 ; 5420837.832956093 ; 8622565.491578156 ; 17136.000000000004
73 ; 106639.04253908398 ; 162673.02891026743 ; 5527356.305367017 ; 8783917.8250264 ; 17374.000000000004
74 ; 106858.27314995875 ; 163993.96229817512 ; 5633995.3479061015 ; 8946590.853936668 ; 17612.000000000004
75 ; 107294.45290979116 ; 165315.02531928357 ; 5740853.62105606 ; 9110584.816234844 ; 17850.000000000004
76 ; 107534.52129768112 ; 166636.11415814463 ; 5848148.073965851 ; 9275899.841554128 ; 18088.000000000004
77 ; 107795.7235954467 ; 167957.12918673267 ; 5955682.595263532 ; 9442535.955712272 ; 18326.000000000004
78 ; 108302.35192326114 ; 169277.97469653207 ; 6063478.318858979 ; 9610493.084899005 ; 18564.000000000004
79 ; 108276.7014886271 ; 170598.5586506732 ; 6171780.67078224 ; 9779771.059595536 ; 18802.000000000004
80 ; 108339.09129280505 ; 171918.79245443892 ; 6280057.372270867 ; 9950369.618246209 ; 19040.000000000004
81 ; 108548.92765306123 ; 173238.5907426133 ; 6388396.463563672 ; 1.0122288410700647E7 ; 19278.000000000004
82 ; 108525.98886524256 ; 174557.87118228892 ; 6496945.3912167335 ; 1.0295527001443261E7 ; 19516.000000000004
83 ; 109130.15330753246 ; 175876.55428986854 ; 6605471.380081976 ; 1.047008487262555E7 ; 19754.000000000004
84 ; 108821.29565171454 ; 177194.5632611149 ; 6714601.533389509 ; 1.0645961426915418E7 ; 19992.000000000004
85 ; 108850.19242831384 ; 178511.82381320203 ; 6823422.829041223 ; 1.0823155990176532E7 ; 20230.000000000004
86 ; 108896.15892498691 ; 179828.26403781393 ; 6932273.021469537 ; 1.1001667813989734E7 ; 20468.000000000004
87 ; 109295.61244678035 ; 181143.8142644213 ; 7041169.180394524 ; 1.1181496078027548E7 ; 20706.000000000004
88 ; 108813.052728367 ; 182458.40693294164 ; 7150464.792841304 ; 1.1362639892291969E7 ; 20944.000000000004
89 ; 109170.44440506218 ; 183771.9764750572 ; 7259277.845569671 ; 1.154509829922491E7 ; 21182.000000000004
90 ; 108675.56412088193 ; 185084.45920352597 ; 7368448.289974733 ; 1.1728870275699966E7 ; 21420.000000000004
91 ; 108856.94542498184 ; 186395.79320887974 ; 7477123.854095615 ; 1.1913954734903492E7 ; 21658.000000000004
92 ; 108569.42245107456 ; 187705.91826295207 ; 7585980.799520597 ; 1.2100350528112372E7 ; 21896.000000000004
93 ; 108864.06814738123 ; 189014.77572872597 ; 7694550.221971671 ; 1.2288056446375325E7 ; 22134.000000000004
94 ; 108593.90154360293 ; 190322.30847603478 ; 7803414.290119052 ; 1.2477071222104052E7 ; 22372.000000000004
95 ; 108796.4625725273 ; 191628.46080268628 ; 7912008.191662655 ; 1.2667393530580087E7 ; 22610.000000000004
96 ; 108201.02305886753 ; 192933.1783606155 ; 8020804.654235182 ; 1.2859021991382772E7 ; 22848.000000000004
97 ; 107981.23777808802 ; 194236.4080867051 ; 8129005.677294049 ; 1.3051955169743387E7 ; 23086.000000000004
98 ; 107907.81266437161 ; 195538.09813793842 ; 8236986.9150721375 ; 1.3246191577830093E7 ; 23324.000000000004
99 ; 107588.44705166816 ; 196838.19783057948 ; 8344894.727736509 ; 1.3441729675968032E7 ; 23562.000000000004
100 ; 107239.660353631 ; 198136.65758309694 ; 8452483.174788177 ; 1.3638567873798613E7 ; 23800.000000000004
101 ; 107135.46777664697 ; 199433.42886257154 ; 8559722.835141808 ; 1.383670453138171E7 ; 24038.000000000004
102 ; 107067.54719420944 ; 200728.4641343461 ; 8666858.302918455 ; 1.4036137960244281E7 ; 24276.000000000004
103 ; 106859.51906511307 ; 202021.71681469766 ; 8773925.850112664 ; 1.4236866424378628E7 ; 24514.000000000004
104 ; 106177.6042840235 ; 203313.14122632483 ; 8880785.369177777 ; 1.4438888141193325E7 ; 24752.000000000004
105 ; 105700.11583875859 ; 204602.69255646307 ; 8986962.973461801 ; 1.464220128241965E7 ; 24990.000000000004
106 ; 105485.94257161018 ; 205890.3268174511 ; 9092663.08930056 ; 1.4846803974976113E7 ; 25228.000000000004
107 ; 105221.2983163655 ; 207176.0008095873 ; 9198149.03187217 ; 1.5052694301793564E7 ; 25466.000000000004
108 ; 104591.17301583377 ; 208459.672086125 ; 9303370.330188535 ; 1.5259870302603152E7 ; 25704.000000000004
109 ; 103891.60885277773 ; 209741.29892026907 ; 9407961.503204368 ; 1.5468329974689277E7 ; 25942.000000000004
110 ; 103799.19830668501 ; 211020.8402740425 ; 9511853.112057146 ; 1.5678071273609545E7 ; 26180.000000000004
111 ; 103521.90796621189 ; 212298.2557689061 ; 9615652.310363831 ; 1.5889092113883588E7 ; 26418.000000000004
112 ; 102523.27740049476 ; 213573.50565801712 ; 9719174.218330042 ; 1.6101390369652495E7 ; 26656.000000000004
113 ; 102349.31881136092 ; 214846.5508000265 ; 9821697.495730538 ; 1.6314963875310512E7 ; 26894.000000000004
114 ; 101660.55736142439 ; 216117.35263431596 ; 9924046.814541899 ; 1.652981042611054E7 ; 27132.000000000004
115 ; 101179.96058343114 ; 217385.87315758824 ; 1.0025707371903323E7 ; 1.6745927778744856E7 ; 27370.000000000004
116 ; 100442.92307266877 ; 218652.07490172534 ; 1.0126887332486754E7 ; 1.6963313651902445E7 ; 27608.000000000004
117 ; 100346.24829782505 ; 219915.920912839 ; 1.0227330255559424E7 ; 1.718196572680417E7 ; 27846.000000000004
118 ; 99805.55766297955 ; 221177.37473144004 ; 1.032767650385725E7 ; 1.740188164771701E7 ; 28084.000000000004
119 ; 98532.15581560171 ; 222436.40037366044 ; 1.0427482061520228E7 ; 1.762305902244845E7 ; 28322.000000000004
120 ; 97804.50872393073 ; 223692.96231346467 ; 1.052601421733583E7 ; 1.784549542282211E7 ; 28560.000000000004
121 ; 97059.54011452972 ; 224947.0254657925 ; 1.062381872605976E7 ; 1.8069188385135576E7 ; 28798.000000000004
122 ; 96711.76335331734 ; 226198.55517057807 ; 1.072087826617429E7 ; 1.829413541060137E7 ; 29036.000000000004
123 ; 95393.28724250836 ; 227447.51717759477 ; 1.0817590029527608E7 ; 1.8520333965771947E7 ; 29274.000000000004
124 ; 95484.75683407825 ; 228693.8776320776 ; 1.0912983316770116E7 ; 1.874778148294954E7 ; 29512.000000000004
125 ; 94573.70508871424 ; 229937.60306107922 ; 1.1008468073604194E7 ; 1.8976475360581618E7 ; 29750.000000000004
126 ; 93406.45511676223 ; 231178.6603605171 ; 1.1103041778692909E7 ; 1.9206412963642698E7 ; 29988.000000000004
127 ; 92934.60571350771 ; 232417.01678287348 ; 1.119644823380967E7 ; 1.9437591624003217E7 ; 30226.000000000004
128 ; 91644.90787089757 ; 233652.63992551126 ; 1.1289382839523178E7 ; 1.967000864078609E7 ; 30464.000000000004
129 ; 91227.00068225262 ; 234885.4977195711 ; 1.1381027747394076E7 ; 1.99036612807116E7 ; 30702.000000000004
130 ; 90397.05997625348 ; 236115.5584194184 ; 1.1472254748076329E7 ; 2.013854677843117E7 ; 30940.000000000004
131 ; 89612.7965101315 ; 237342.79059260938 ; 1.1562651808052583E7 ; 2.0374662336850587E7 ; 31178.000000000004
132 ; 88205.3094084876 ; 238567.16311034845 ; 1.1652264604562715E7 ; 2.0612005127443198E7 ; 31416.000000000004
133 ; 87392.70967594605 ; 239788.64513840992 ; 1.1740469913971202E7 ; 2.0850572290553547E7 ; 31654.000000000004
134 ; 86384.54069091675 ; 241007.206128499 ; 1.1827862623647148E7 ; 2.1090360935691956E7 ; 31892.000000000004
135 ; 85788.4856508356 ; 242222.81581002957 ; 1.1914247164338065E7 ; 2.1331368141820457E7 ; 32130.000000000004
136 ; 84227.14153497005 ; 243435.44418229518 ; 1.20000356499889E7 ; 2.1573590957630485E7 ; 32368.000000000004
137 ; 83517.6182690206 ; 244645.0615070142 ; 1.208426279152387E7 ; 2.181702640181278E7 ; 32606.000000000004
138 ; 82627.89385098185 ; 245851.63830122817 ; 1.216778040979289E7 ; 2.2061671463319793E7 ; 32844.00000000001
139 ; 81487.99335608743 ; 247055.14533053595 ; 1.2250408303643873E7 ; 2.230752310162102E7 ; 33082.00000000001
140 ; 80186.76795842245 ; 248255.55360264605 ; 1.2331896296999961E7 ; 2.2554578246951558E7 ; 33320.00000000001
141 ; 79161.89079675314 ; 249452.83436123066 ; 1.2412083064958384E7 ; 2.2802833800554205E7 ; 33558.00000000001
142 ; 78090.93604720345 ; 250646.95908006647 ; 1.2491244955755137E7 ; 2.3052286634915434E7 ; 33796.00000000001
143 ; 77203.80748766959 ; 251837.8994574473 ; 1.256933589180234E7 ; 2.33029335939955E7 ; 34034.00000000001
144 ; 75583.97099210139 ; 253025.6274108555 ; 1.2646539699290011E7 ; 2.3554771493452948E7 ; 34272.00000000001
145 ; 75452.22896450598 ; 254210.1150718782 ; 1.2722123670282112E7 ; 2.3807797120863803E7 ; 34510.00000000001
146 ; 74805.6091460424 ; 255391.3347813579 ; 1.2797575899246618E7 ; 2.406200723593568E7 ; 34748.00000000001
147 ; 74978.6115183846 ; 256569.25908476388 ; 1.287238150839266E7 ; 2.4317398570717037E7 ; 34986.00000000001
148 ; 74522.64048521928 ; 257743.86072777526 ; 1.2947360119911045E7 ; 2.45739678298018E7 ; 35224.00000000001
149 ; 74122.8123287604 ; 258915.11265206477 ; 1.3021882760396264E7 ; 2.4831711690529577E7 ; 35462.00000000001
150 ; 74003.50933892067 ; 260082.98799127317 ; 1.3096005572725024E7 ; 2.509062680318164E7 ; 35700.00000000001
151 ; 73633.92582451731 ; 261247.46006716596 ; 1.3170009082063945E7 ; 2.5350709791172914E7 ; 35938.00000000001
152 ; 73440.09740121946 ; 262408.50238596293 ; 1.3243643007888462E7 ; 2.561195725124008E7 ; 36176.00000000001
153 ; 73338.61914349844 ; 263566.088634833 ; 1.3317083105289683E7 ; 2.587436575362604E7 ; 36414.00000000001
154 ; 73236.99076673813 ; 264720.1926785457 ; 1.3390421724433182E7 ; 2.6137931842260875E7 ; 36652.00000000001
155 ; 72678.35743459893 ; 265870.7885562734 ; 1.346365871519992E7 ; 2.640265203493942E7 ; 36890.00000000001
156 ; 72027.79617663618 ; 267017.8504785351 ; 1.3536337072634518E7 ; 2.6668522823495694E7 ; 37128.00000000001
157 ; 72226.23564919796 ; 268161.35282427754 ; 1.3608364868811155E7 ; 2.6935540673974227E7 ; 37366.00000000001
158 ; 71695.852623784 ; 269301.27013808547 ; 1.3680591104460353E7 ; 2.7203702026798505E7 ; 37604.00000000001
159 ; 71102.276203525 ; 270437.57712751644 ; 1.3752286957084138E7 ; 2.747300329693659E7 ; 37842.00000000001
160 ; 71199.0952904282 ; 271570.24866055336 ; 1.3823389233287662E7 ; 2.7743440874064106E7 ; 38080.00000000001
161 ; 70824.22888739078 ; 272699.25976317044 ; 1.389458832857809E7 ; 2.801501112272466E7 ; 38318.00000000001
162 ; 70429.03212545649 ; 273824.5856170068 ; 1.396541255746548E7 ; 2.828771038248783E7 ; 38556.00000000001
163 ; 70145.28911916807 ; 274946.20155714307 ; 1.4035841589590937E7 ; 2.8561534968104836E7 ; 38794.00000000001
164 ; 69204.5937667741 ; 276064.0830699766 ; 1.4105986878710104E7 ; 2.883648116966198E7 ; 39032.00000000001
165 ; 69272.50432069896 ; 277178.20579119015 ; 1.417519147247688E7 ; 2.9112545252731957E7 ; 39270.00000000001
166 ; 68818.68035977431 ; 278288.5455038115 ; 1.4244463976797579E7 ; 2.9389723458523147E7 ; 39508.00000000001
167 ; 68473.41236669643 ; 279395.07813635824 ; 1.4313282657157354E7 ; 2.9668012004026957E7 ; 39746.00000000001
168 ; 67895.67253632216 ; 280497.77976106456 ; 1.438175606952405E7 ; 2.9947407082163315E7 ; 39984.00000000001
169 ; 67372.3983127989 ; 281596.6265921876 ; 1.4449651742060373E7 ; 3.022790486192438E7 ; 40222.00000000001
170 ; 66792.83516095162 ; 282691.594984388 ; 1.4517024140373172E7 ; 3.050950148851657E7 ; 40460.00000000001
171 ; 66882.39995957314 ; 283782.6614311833 ; 1.4583816975534124E7 ; 3.079219308350096E7 ; 40698.00000000001
172 ; 66367.91965172009 ; 284869.8025634696 ; 1.4650699375493698E7 ; 3.107597574493214E7 ; 40936.00000000001
173 ; 66287.84267570992 ; 285952.9951481095 ; 1.4717067295145418E7 ; 3.136084554749561E7 ; 41174.00000000001
174 ; 66334.36343150423 ; 287032.2160865831 ; 1.4783355137821129E7 ; 3.1646798542643722E7 ; 41412.00000000001
175 ; 66509.50813025874 ; 288107.44241369946 ; 1.4849689501252633E7 ; 3.1933830758730303E7 ; 41650.00000000001
176 ; 66322.20675635221 ; 289178.65129636606 ; 1.491619900938289E7 ; 3.2221938201144002E7 ; 41888.00000000001
177 ; 66766.01526135074 ; 290245.82003241393 ; 1.4982521216139242E7 ; 3.251111685244037E7 ; 42126.00000000001
178 ; 67466.79086894906 ; 291308.9260494754 ; 1.5049287231400592E7 ; 3.2801362672472782E7 ; 42364.00000000001
179 ; 67121.83480066483 ; 292367.9469039138 ; 1.5116754022269541E7 ; 3.3092671598522257E7 ; 42602.00000000001
180 ; 67408.5097574618 ; 293422.86027980124 ; 1.5183875857070206E7 ; 3.338503954542617E7 ; 42840.00000000001
181 ; 67690.43597403474 ; 294473.6439879432 ; 1.5251284366827667E7 ; 3.367846240570597E7 ; 43078.00000000001
182 ; 68067.90282704288 ; 295520.2759649488 ; 1.5318974802801702E7 ; 3.397293604969392E7 ; 43316.00000000001
