CSV File for the Network on Day 186
1 - Minute m 
2 - Power Consumed at minute m 
3 - Power Produced at minute m 
4 - Energy Consumed since the beginning of the day 
5 - Energy Produced since the beginning of the day 
6 - Energy Lost since the beginning of the day 
 
0 ; 977854.3702199078 ; 2.1092974751840335E8 ; 0.0 ; 0.0 ; 0.0
1 ; 983568.3623863369 ; 2.1123551016912305E8 ; 977854.3702199078 ; 2.1092974751840335E8 ; 356.14
2 ; 988028.7363361871 ; 2.121588475901872E8 ; 1961422.7326062447 ; 4.221652576875264E8 ; 712.28
3 ; 993446.4025192114 ; 2.1369976374599808E8 ; 2949451.4689424317 ; 6.343241052777135E8 ; 1068.42
4 ; 996875.6394910689 ; 2.1585826220614165E8 ; 3942897.871461643 ; 8.480238690237117E8 ; 1424.56
5 ; 1000644.3707363195 ; 2.1863434612002534E8 ; 4939773.510952712 ; 1.0638821312298534E9 ; 1780.6999999999998
6 ; 1003949.9622464821 ; 2.2202801819393998E8 ; 5940417.881689032 ; 1.2825164773498788E9 ; 2136.8399999999997
7 ; 1008192.3030781092 ; 2.2603928067092687E8 ; 6944367.843935514 ; 1.5045444955438187E9 ; 2492.9799999999996
8 ; 1011788.545598645 ; 2.3066813531379312E8 ; 7952560.147013623 ; 1.7305837762147455E9 ; 2849.1199999999994
9 ; 1015763.0595106365 ; 2.359145833915735E8 ; 8964348.692612268 ; 1.9612519115285387E9 ; 3205.2599999999993
10 ; 1018581.9654694422 ; 2.4177862566968006E8 ; 9980111.752122905 ; 2.197166494920112E9 ; 3561.399999999999
11 ; 1021919.3947574296 ; 2.4826026240391922E8 ; 1.0998693717592347E7 ; 2.4389451205897923E9 ; 3917.539999999999
12 ; 1026226.5772171178 ; 2.5535949333848453E8 ; 1.2020613112349777E7 ; 2.6872053829937115E9 ; 4273.679999999999
13 ; 1028843.0074134195 ; 2.6307631770796388E8 ; 1.3046839689566894E7 ; 2.942564876332196E9 ; 4629.82
14 ; 1031059.5709532251 ; 2.7141073424332273E8 ; 1.4075682696980312E7 ; 3.20564119404016E9 ; 4985.96
15 ; 1034859.7497611304 ; 2.8036274118175364E8 ; 1.5106742267933538E7 ; 3.477051928283483E9 ; 5342.1
16 ; 1037414.2884250405 ; 2.8993233628021574E8 ; 1.6141602017694669E7 ; 3.7574146694652367E9 ; 5698.240000000001
17 ; 1040617.9903966133 ; 3.0011951683241785E8 ; 1.717901630611971E7 ; 4.0473470057454524E9 ; 6054.380000000001
18 ; 1044636.1939461179 ; 3.1092427968895257E8 ; 1.821963429651632E7 ; 4.34746652257787E9 ; 6410.520000000001
19 ; 1045878.0705413667 ; 3.2234662128023416E8 ; 1.926427049046244E7 ; 4.658390802266823E9 ; 6766.660000000002
20 ; 1049907.783797288 ; 3.3438653764186007E8 ; 2.0310148561003808E7 ; 4.980737423547057E9 ; 7122.800000000002
21 ; 1054195.3657028717 ; 3.470440244419936E8 ; 2.1360056344801094E7 ; 5.315123961188917E9 ; 7478.940000000002
22 ; 1057481.474848246 ; 3.603190770103458E8 ; 2.2414251710503966E7 ; 5.662167985630911E9 ; 7835.080000000003
23 ; 1061538.0478658048 ; 3.742116903683351E8 ; 2.347173318535221E7 ; 6.022487062641256E9 ; 8191.220000000003
24 ; 1066510.5820200813 ; 3.8872185926000893E8 ; 2.4533271233218014E7 ; 6.396698753009591E9 ; 8547.360000000002
25 ; 1068323.792176308 ; 4.012256599796934E8 ; 2.5599781815238096E7 ; 6.7854206122696E9 ; 8903.500000000002
26 ; 1071568.750814921 ; 4.0123018247705364E8 ; 2.6668105607414402E7 ; 7.186646272249293E9 ; 9259.640000000001
27 ; 1074342.174507154 ; 4.01234959437806E8 ; 2.7739674358229324E7 ; 7.587876454726347E9 ; 9615.78
28 ; 1078410.595576433 ; 4.012399848074955E8 ; 2.8814016532736477E7 ; 7.989111414164153E9 ; 9971.92
29 ; 1081604.1780705582 ; 4.012452524072714E8 ; 2.9892427128312908E7 ; 8.390351398971648E9 ; 10328.06
30 ; 1083024.1800842746 ; 4.012507559619902E8 ; 3.097403130638347E7 ; 8.79159665137892E9 ; 10684.199999999999
31 ; 1086148.720400126 ; 4.012564891269437E8 ; 3.205705548646774E7 ; 9.19284740734091E9 ; 11040.339999999998
32 ; 1090010.7239454973 ; 4.012624455130584E8 ; 3.3143204206867866E7 ; 9.594103896467854E9 ; 11396.479999999998
33 ; 1094211.2063570705 ; 4.012686187104509E8 ; 3.4233214930813365E7 ; 9.995366341980911E9 ; 11752.619999999997
34 ; 1095205.2005235564 ; 4.012750023102598E8 ; 3.5327426137170434E7 ; 1.0396634960691362E10 ; 12108.759999999997
35 ; 1098410.0490678702 ; 4.012815899247097E8 ; 3.642263133769399E7 ; 1.0797909963001621E10 ; 12464.899999999996
36 ; 1100433.7695053231 ; 4.0128837520538855E8 ; 3.752104138676186E7 ; 1.119919155292633E10 ; 12821.039999999995
37 ; 1103390.877029369 ; 4.012953518597504E8 ; 3.862147515626718E7 ; 1.160047992813172E10 ; 13177.179999999995
38 ; 1107811.850700749 ; 4.01302513665874E8 ; 3.972486603329655E7 ; 1.200177527999147E10 ; 13533.319999999994
39 ; 1107680.0668866832 ; 4.0130985448552966E8 ; 4.08326778839973E7 ; 1.2403077793657345E10 ; 13889.459999999994
40 ; 1110862.7804663214 ; 4.0131736827562034E8 ; 4.1940357950883985E7 ; 1.2804387648142874E10 ; 14245.599999999993
41 ; 1112162.98997719 ; 4.0132504909807444E8 ; 4.30512207313503E7 ; 1.3205705016418493E10 ; 14601.739999999993
42 ; 1113451.6008369392 ; 4.0133289112827885E8 ; 4.416338372132749E7 ; 1.3607030065516567E10 ; 14957.879999999992
43 ; 1114655.8349972009 ; 4.0134088866214466E8 ; 4.527683532216443E7 ; 1.4008362956644846E10 ; 15314.019999999991
44 ; 1118738.4190574265 ; 4.013490361219035E8 ; 4.639149115716163E7 ; 1.4409703845306992E10 ; 15670.15999999999
45 ; 1120319.8676661393 ; 4.013573280607326E8 ; 4.751022957621906E7 ; 1.4811052881428896E10 ; 16026.29999999999
46 ; 1123632.0995014631 ; 4.013657591663085E8 ; 4.86305494438852E7 ; 1.5212410209489628E10 ; 16382.43999999999
47 ; 1125914.9760516847 ; 4.013743242633852E8 ; 4.975418154338666E7 ; 1.5613775968655937E10 ; 16738.57999999999
48 ; 1129464.4080195613 ; 4.0138301831549287E8 ; 5.088009651943835E7 ; 1.6015150292919323E10 ; 17094.71999999999
49 ; 1130177.4510336972 ; 4.0139183642584723E8 ; 5.2009560927457914E7 ; 1.6416533311234816E10 ; 17450.85999999999
50 ; 1130705.5910005562 ; 4.014007738375554E8 ; 5.313973837849161E7 ; 1.6817925147660664E10 ; 17806.99999999999
51 ; 1132062.892851286 ; 4.014098259332013E8 ; 5.427044396949217E7 ; 1.721932592149822E10 ; 18163.13999999999
52 ; 1132642.2576672912 ; 4.0141898823388624E8 ; 5.540250686234345E7 ; 1.762073574743142E10 ; 18519.279999999988
53 ; 1136953.8627854965 ; 4.0142825639779496E8 ; 5.653514912001074E7 ; 1.8022154735665306E10 ; 18875.419999999987
54 ; 1133978.8165022857 ; 4.0143762621835494E8 ; 5.767210298279624E7 ; 1.8423582992063103E10 ; 19231.559999999987
55 ; 1136271.216761024 ; 4.014470936220464E8 ; 5.8806081799298525E7 ; 1.8825020618281456E10 ; 19587.699999999986
56 ; 1138984.5430435236 ; 4.014566546659205E8 ; 5.994235301605955E7 ; 1.9226467711903503E10 ; 19943.839999999986
57 ; 1138544.4304267818 ; 4.0146630553487325E8 ; 6.108133755910307E7 ; 1.9627924366569424E10 ; 20299.979999999985
58 ; 1141970.6758204964 ; 4.014760425387227E8 ; 6.2219881989529856E7 ; 2.0029390672104298E10 ; 20656.119999999984
59 ; 1143808.0450912123 ; 4.0148586210912657E8 ; 6.3361852665350355E7 ; 2.043086671464302E10 ; 21012.259999999984
60 ; 1146890.980517039 ; 4.0149576079637957E8 ; 6.450566071044157E7 ; 2.0832352576752148E10 ; 21368.399999999983
61 ; 1149132.9051566918 ; 4.015057352661204E8 ; 6.5652551690958604E7 ; 2.1233848337548527E10 ; 21724.539999999983
62 ; 1147285.5450987597 ; 4.015157822959768E8 ; 6.68016845961153E7 ; 2.1635354072814648E10 ; 22080.679999999982
63 ; 1150389.2944509438 ; 4.0152589877217484E8 ; 6.794897014121406E7 ; 2.2036869855110626E10 ; 22436.81999999998
64 ; 1151976.1794657265 ; 4.0153608168613195E8 ; 6.9099359435665E7 ; 2.24383957538828E10 ; 22792.95999999998
65 ; 1154329.7931959347 ; 4.0154632813105524E8 ; 7.025133561513072E7 ; 2.283993183556893E10 ; 23149.09999999998
66 ; 1155441.2299690626 ; 4.0155663529855806E8 ; 7.140566540832666E7 ; 2.3241478163699986E10 ; 23505.23999999998
67 ; 1154679.7233593978 ; 4.015670004753117E8 ; 7.256110663829572E7 ; 2.3643034798998543E10 ; 23861.37999999998
68 ; 1157591.258581041 ; 4.01577421039742E8 ; 7.371578636165512E7 ; 2.4044601799473854E10 ; 24217.51999999998
69 ; 1160170.21021585 ; 4.015878944587811E8 ; 7.487337762023616E7 ; 2.4446179220513596E10 ; 24573.659999999978
70 ; 1157781.448524592 ; 4.0159841828468347E8 ; 7.603354783045201E7 ; 2.4847767114972378E10 ; 24929.799999999977
71 ; 1159000.430465576 ; 4.016089901519108E8 ; 7.71913292789766E7 ; 2.524936553325706E10 ; 25285.939999999977
72 ; 1160604.431832238 ; 4.016196077740935E8 ; 7.835032970944218E7 ; 2.5650974523408974E10 ; 25642.079999999976
73 ; 1161218.9215119781 ; 4.0163026894107115E8 ; 7.951093414127442E7 ; 2.6052594131183067E10 ; 25998.219999999976
74 ; 1162373.746887027 ; 4.0164097151601565E8 ; 8.06721530627864E7 ; 2.6454224400124138E10 ; 26354.359999999975
75 ; 1163396.8291727053 ; 4.016517134326395E8 ; 8.183452680967343E7 ; 2.6855865371640152E10 ; 26710.499999999975
76 ; 1163101.4790359638 ; 4.016624926924901E8 ; 8.299792363884613E7 ; 2.7257517085072792E10 ; 27066.639999999974
77 ; 1164985.0828534828 ; 4.016733073623316E8 ; 8.416102511788209E7 ; 2.765917957776528E10 ; 27422.779999999973
78 ; 1164918.8177474209 ; 4.016841555716139E8 ; 8.532601020073557E7 ; 2.8060852885127613E10 ; 27778.919999999973
79 ; 1168019.551811588 ; 4.016950355100281E8 ; 8.649092901848298E7 ; 2.8462537040699226E10 ; 28135.059999999972
80 ; 1166821.5779338847 ; 4.0170594542514956E8 ; 8.765894857029457E7 ; 2.8864232076209255E10 ; 28491.19999999997
81 ; 1169157.3612519025 ; 4.0171688362016463E8 ; 8.882577014822845E7 ; 2.9265938021634403E10 ; 28847.33999999997
82 ; 1172181.5815685608 ; 4.0172784845168287E8 ; 8.999492750948036E7 ; 2.9667654905254566E10 ; 29203.47999999997
83 ; 1170925.8563372898 ; 4.0173883832762986E8 ; 9.116710909104891E7 ; 3.006938275370625E10 ; 29559.61999999997
84 ; 1172424.2745407803 ; 4.0174985170522195E8 ; 9.23380349473862E7 ; 3.047112159203388E10 ; 29915.75999999997
85 ; 1174017.8465432764 ; 4.017608870890186E8 ; 9.351045922192699E7 ; 3.08728714437391E10 ; 30271.89999999997
86 ; 1175498.9199859744 ; 4.017719430290514E8 ; 9.468447706847027E7 ; 3.127463233082812E10 ; 30628.039999999968
87 ; 1175545.0184053592 ; 4.0178301811902773E8 ; 9.585997598845625E7 ; 3.1676404273857174E10 ; 30984.179999999968
88 ; 1174836.2979799842 ; 4.017941109946057E8 ; 9.703552100686161E7 ; 3.20781872919762E10 ; 31340.319999999967
89 ; 1176798.671754754 ; 4.018052203317393E8 ; 9.82103573048416E7 ; 3.2479981402970806E10 ; 31696.459999999966
90 ; 1177351.6987469525 ; 4.0181634484509116E8 ; 9.938715597659634E7 ; 3.2881786623302544E10 ; 32052.599999999966
91 ; 1177098.7175060094 ; 4.0182748328650975E8 ; 1.0056450767534329E8 ; 3.3283602968147636E10 ; 32408.739999999965
92 ; 1178965.456147209 ; 4.018386344435703E8 ; 1.017416063928493E8 ; 3.3685430451434147E10 ; 32764.879999999965
93 ; 1176933.4450191741 ; 4.018497971381753E8 ; 1.029205718489965E8 ; 3.4087269085877716E10 ; 33121.01999999997
94 ; 1180309.6131346484 ; 4.0186097022521406E8 ; 1.0409750529401568E8 ; 3.448911888301589E10 ; 33477.15999999997
95 ; 1180284.1705766125 ; 4.0187215259127796E8 ; 1.0527781490715033E8 ; 3.4890979853241104E10 ; 33833.29999999997
96 ; 1179998.9595460473 ; 4.018833431534295E8 ; 1.0645809907772695E8 ; 3.529285200583238E10 ; 34189.439999999966
97 ; 1180347.180708827 ; 4.0189454085802346E8 ; 1.0763809803727299E8 ; 3.569473534898581E10 ; 34545.579999999965
98 ; 1179042.441498183 ; 4.0190574467957735E8 ; 1.0881844521798182E8 ; 3.6096629889843834E10 ; 34901.719999999965
99 ; 1180142.2192245566 ; 4.019169536196899E8 ; 1.0999748765948E8 ; 3.6498535634523415E10 ; 35257.859999999964
100 ; 1180191.5767492033 ; 4.019281667060047E8 ; 1.1117762987870456E8 ; 3.6900452588143105E10 ; 35613.99999999996
101 ; 1180189.466677126 ; 4.019393829912185E8 ; 1.1235782145545377E8 ; 3.7302380754849106E10 ; 35970.13999999996
102 ; 1182537.4938937216 ; 4.019506015521307E8 ; 1.135380109221309E8 ; 3.7704320137840324E10 ; 36326.27999999996
103 ; 1180024.636221767 ; 4.019618214887336E8 ; 1.1472054841602463E8 ; 3.8106270739392456E10 ; 36682.41999999996
104 ; 1182608.2904689526 ; 4.0197304192334056E8 ; 1.1590057305224639E8 ; 3.850823256088119E10 ; 37038.55999999996
105 ; 1183718.537119949 ; 4.0198426199975175E8 ; 1.1708318134271534E8 ; 3.891020560280453E10 ; 37394.69999999996
106 ; 1185149.913315637 ; 4.0199548088245475E8 ; 1.182668998798353E8 ; 3.9312189864804276E10 ; 37750.83999999996
107 ; 1183434.540380027 ; 4.0200669775585866E8 ; 1.1945204979315093E8 ; 3.971418534568673E10 ; 38106.97999999996
108 ; 1185611.8652030565 ; 4.020179118235613E8 ; 1.2063548433353096E8 ; 4.011619204344259E10 ; 38463.11999999996
109 ; 1184137.0517493614 ; 4.020291223076463E8 ; 1.2182109619873402E8 ; 4.051820995526615E10 ; 38819.25999999996
110 ; 1185641.9500129553 ; 4.020403284480103E8 ; 1.2300523325048338E8 ; 4.09202390775738E10 ; 39175.39999999996
111 ; 1185949.2086032426 ; 4.0205152950171864E8 ; 1.2419087520049633E8 ; 4.132227940602181E10 ; 39531.53999999996
112 ; 1186076.8995432877 ; 4.0206272474238753E8 ; 1.2537682440909958E8 ; 4.172433093552353E10 ; 39887.67999999996
113 ; 1187019.7828414424 ; 4.0207391345959175E8 ; 1.2656290130864286E8 ; 4.2126393660265915E10 ; 40243.819999999956
114 ; 1185642.9460994105 ; 4.0208509495829844E8 ; 1.2774992109148431E8 ; 4.252846757372551E10 ; 40599.959999999955
115 ; 1186888.1597469249 ; 4.020962685583228E8 ; 1.2893556403758372E8 ; 4.293055266868381E10 ; 40956.099999999955
116 ; 1186366.5514480276 ; 4.021074335938072E8 ; 1.3012245219733065E8 ; 4.333264893724213E10 ; 41312.239999999954
117 ; 1183874.0778168393 ; 4.021185894127224E8 ; 1.3130881874877869E8 ; 4.373475637083594E10 ; 41668.379999999954
118 ; 1184268.2218965671 ; 4.0212973537638783E8 ; 1.3249269282659553E8 ; 4.413687496024866E10 ; 42024.51999999995
119 ; 1184077.2213897202 ; 4.021408708590132E8 ; 1.336769610484921E8 ; 4.4539004695625046E10 ; 42380.65999999995
120 ; 1183488.3255358213 ; 4.021519952472578E8 ; 1.348610382698818E8 ; 4.494114556648406E10 ; 42736.79999999995
121 ; 1182854.649919022 ; 4.0216310793980885E8 ; 1.3604452659541765E8 ; 4.534329756173132E10 ; 43092.93999999995
122 ; 1184751.6271887592 ; 4.021742083469758E8 ; 1.3722738124533668E8 ; 4.5745460669671135E10 ; 43449.07999999995
123 ; 1183435.5283847814 ; 4.0218529589030236E8 ; 1.3841213287252545E8 ; 4.614763487801811E10 ; 43805.21999999995
124 ; 1183063.3528514702 ; 4.0219637000219345E8 ; 1.3959556840091023E8 ; 4.654982017390842E10 ; 44161.35999999995
125 ; 1180143.7029335583 ; 4.0220743012555766E8 ; 1.407786317537617E8 ; 4.6952016543910614E10 ; 44517.49999999995
126 ; 1179446.8511744835 ; 4.022184757134637E8 ; 1.4195877545669526E8 ; 4.735422397403617E10 ; 44873.63999999995
127 ; 1178320.7361134875 ; 4.0222950622881126E8 ; 1.4313822230786973E8 ; 4.775644244974963E10 ; 45229.77999999995
128 ; 1176151.4261762511 ; 4.0224052114401424E8 ; 1.4431654304398322E8 ; 4.815867195597845E10 ; 45585.91999999995
129 ; 1177865.877310036 ; 4.0225151994069743E8 ; 1.4549269447015947E8 ; 4.856091247712246E10 ; 45942.05999999995
130 ; 1174686.223767231 ; 4.0226250210940444E8 ; 1.466705603474695E8 ; 4.8963163997063156E10 ; 46298.199999999946
131 ; 1172719.2662235354 ; 4.022734671493179E8 ; 1.4784524657123673E8 ; 4.936542649917256E10 ; 46654.339999999946
132 ; 1173367.3341434377 ; 4.022844145679904E8 ; 1.4901796583746028E8 ; 4.976769996632188E10 ; 47010.479999999945
133 ; 1173562.485139405 ; 4.0229534388108575E8 ; 1.501913331716037E8 ; 5.016998438088987E10 ; 47366.619999999944
134 ; 1172434.9192548739 ; 4.0230625461213064E8 ; 1.513648956567431E8 ; 5.057227972477096E10 ; 47722.759999999944
135 ; 1170903.3974268879 ; 4.023171462922762E8 ; 1.5253733057599798E8 ; 5.097458597938309E10 ; 48078.89999999994
136 ; 1168680.8756085953 ; 4.0232801846006846E8 ; 1.5370823397342485E8 ; 5.137690312567536E10 ; 48435.03999999994
137 ; 1169832.3657303567 ; 4.023388706612278E8 ; 1.5487691484903345E8 ; 5.177923114413543E10 ; 48791.17999999994
138 ; 1170152.3502211415 ; 4.02349702448437E8 ; 1.560467472147638E8 ; 5.218157001479665E10 ; 49147.31999999994
139 ; 1168619.7453872312 ; 4.0236051338113713E8 ; 1.5721689956498492E8 ; 5.2583919717245094E10 ; 49503.45999999994
140 ; 1168040.9048039147 ; 4.02371303025332E8 ; 1.5838551931037214E8 ; 5.298628023062623E10 ; 49859.59999999994
141 ; 1168359.9495070446 ; 4.023820709533992E8 ; 1.5955356021517605E8 ; 5.338865153365156E10 ; 50215.73999999994
142 ; 1165641.0745373138 ; 4.023928167439089E8 ; 1.607219201646831E8 ; 5.379103360460496E10 ; 50571.87999999994
143 ; 1163600.4305112825 ; 4.02403539981449E8 ; 1.618875612392204E8 ; 5.419342642134887E10 ; 50928.01999999994
144 ; 1163451.3834674084 ; 4.024142402564577E8 ; 1.630511616697317E8 ; 5.4595829961330315E10 ; 51284.15999999994
145 ; 1163416.8370592126 ; 4.024249171650616E8 ; 1.642146130531991E8 ; 5.499824420158677E10 ; 51640.29999999994
146 ; 1165086.9473102689 ; 4.0243557030892E8 ; 1.653780298902583E8 ; 5.540066911875183E10 ; 51996.43999999994
147 ; 1165669.4336777704 ; 4.024461992950754E8 ; 1.6654311683756858E8 ; 5.580310468906075E10 ; 52352.579999999936
148 ; 1165301.740357106 ; 4.024568037358092E8 ; 1.6770878627124634E8 ; 5.620555088835583E10 ; 52708.719999999936
149 ; 1165237.0946401209 ; 4.0246738324850285E8 ; 1.6887408801160344E8 ; 5.660800769209164E10 ; 53064.859999999935
150 ; 1168343.207566658 ; 4.024779374555041E8 ; 1.7003932510624355E8 ; 5.701047507534014E10 ; 53420.999999999935
151 ; 1167190.9482372145 ; 4.024884659839983E8 ; 1.712076683138102E8 ; 5.741295301279565E10 ; 53777.139999999934
152 ; 1169199.3418751522 ; 4.024989684658841E8 ; 1.723748592620474E8 ; 5.781544147877965E10 ; 54133.27999999993
153 ; 1168661.178706393 ; 4.025094445376543E8 ; 1.7354405860392258E8 ; 5.821794044724553E10 ; 54489.41999999993
154 ; 1171545.207613982 ; 4.025198938402802E8 ; 1.7471271978262898E8 ; 5.862044989178318E10 ; 54845.55999999993
155 ; 1172273.7441908943 ; 4.025303160191009E8 ; 1.7588426499024296E8 ; 5.902296978562346E10 ; 55201.69999999993
156 ; 1175997.4501840884 ; 4.0254071072371626E8 ; 1.7705653873443386E8 ; 5.942550010164256E10 ; 55557.83999999993
157 ; 1174395.3927939204 ; 4.0255107760788345E8 ; 1.7823253618461794E8 ; 5.982804081236628E10 ; 55913.97999999993
158 ; 1175517.213968264 ; 4.0256141632941794E8 ; 1.7940693157741186E8 ; 6.023059188997417E10 ; 56270.11999999993
159 ; 1177263.945004594 ; 4.025717265500972E8 ; 1.8058244879138014E8 ; 6.063315330630358E10 ; 56626.25999999993
160 ; 1179315.666729457 ; 4.025820079355687E8 ; 1.8175971273638472E8 ; 6.1035725032853676E10 ; 56982.39999999993
161 ; 1175871.5322800414 ; 4.0259226015526E8 ; 1.8293902840311417E8 ; 6.1438307040789246E10 ; 57338.53999999993
162 ; 1179158.1117345598 ; 4.026024828822936E8 ; 1.841148999353942E8 ; 6.18408993009445E10 ; 57694.67999999993
163 ; 1178871.0071689489 ; 4.02612675793403E8 ; 1.8529405804712877E8 ; 6.22435017838268E10 ; 58050.81999999993
164 ; 1178958.9089218297 ; 4.026228385688537E8 ; 1.8647292905429772E8 ; 6.26461144596202E10 ; 58406.95999999993
165 ; 1178988.0697321396 ; 4.0263297089236474E8 ; 1.8765188796321955E8 ; 6.304873729818906E10 ; 58763.099999999926
166 ; 1179192.5598465935 ; 4.026430724510352E8 ; 1.8883087603295168E8 ; 6.345137026908142E10 ; 59119.239999999925
167 ; 1181448.1717337398 ; 4.0265314293527144E8 ; 1.9001006859279826E8 ; 6.3854013341532455E10 ; 59475.379999999925
168 ; 1180329.1772945751 ; 4.0266318203871804E8 ; 1.91191516764532E8 ; 6.425666648446773E10 ; 59831.519999999924
169 ; 1180199.4566830562 ; 4.026731894581907E8 ; 1.9237184594182658E8 ; 6.465932966650645E10 ; 60187.65999999992
170 ; 1181377.2447586362 ; 4.026831648936112E8 ; 1.9355204539850965E8 ; 6.506200285596464E10 ; 60543.79999999992
171 ; 1182496.0094130724 ; 4.0269310804794526E8 ; 1.947334226432683E8 ; 6.5464686020858246E10 ; 60899.93999999992
172 ; 1180601.6709942103 ; 4.027030186271421E8 ; 1.9591591865268135E8 ; 6.586737912890619E10 ; 61256.07999999992
173 ; 1185553.658943362 ; 4.027128963400756E8 ; 1.9709652032367557E8 ; 6.627008214753333E10 ; 61612.21999999992
174 ; 1184760.9968257006 ; 4.027227408984887E8 ; 1.9828207398261893E8 ; 6.6672795043873405E10 ; 61968.35999999992
175 ; 1186804.2666309841 ; 4.0273255201693857E8 ; 1.9946683497944462E8 ; 6.70755177847719E10 ; 62324.49999999992
