CSV File for the Network on Day 320
1 - Minute m 
2 - Power Consumed at minute m 
3 - Power Produced at minute m 
4 - Energy Consumed since the beginning of the day 
5 - Energy Produced since the beginning of the day 
6 - Energy Lost since the beginning of the day 
 
No Production city : 2, Producer : 1
No Production city : 4, Producer : 1
No Production city : 4, Producer : 1
 
0 ; 61157.03456225492 ; 227848.39723193974 ; 0.0 ; 0.0 ; 0.0
1 ; 61900.53751950156 ; 227484.43845021725 ; 61157.03456225492 ; 227848.39723193974 ; 238.00000000000003
2 ; 62779.63265116833 ; 227157.98496166535 ; 123057.57208175649 ; 455332.83568215696 ; 476.00000000000006
3 ; 63673.304708380456 ; 226869.3014368406 ; 185837.20473292482 ; 682490.8206438223 ; 714.0000000000001
4 ; 64723.30317555464 ; 226618.623762327 ; 249510.50944130527 ; 909360.1220806629 ; 952.0000000000001
5 ; 65431.60008200586 ; 226406.15818220453 ; 314233.8126168599 ; 1135978.74584299 ; 1190.0000000000002
6 ; 66446.79620866143 ; 226232.08053815315 ; 379665.41269886575 ; 1362384.9040251945 ; 1428.0000000000002
7 ; 67335.78032166546 ; 226096.53561473748 ; 446112.20890752715 ; 1588616.9845633477 ; 1666.0000000000002
8 ; 68100.20628987408 ; 225999.63659558992 ; 513447.9892291926 ; 1814713.5201780852 ; 1904.0000000000002
9 ; 68682.44540191593 ; 225941.46463530153 ; 581548.1955190666 ; 2040713.1567736752 ; 2142.0000000000005
10 ; 69445.4841637866 ; 225922.06855084427 ; 650230.6409209826 ; 2266654.6214089766 ; 2380.0000000000005
11 ; 70821.74349480499 ; 225941.46463530153 ; 719676.1250847692 ; 2492576.689959821 ; 2618.0000000000005
12 ; 71619.44467670453 ; 225999.63659558992 ; 790497.8685795742 ; 2718518.154595122 ; 2856.0000000000005
13 ; 72669.8672284913 ; 226096.53561473748 ; 862117.3132562786 ; 2944517.7911907122 ; 3094.0000000000005
14 ; 73602.10920181696 ; 226232.08053815307 ; 934787.18048477 ; 3170614.3268054496 ; 3332.0000000000005
15 ; 73989.74899237124 ; 226406.15818220453 ; 1008389.2896865869 ; 3396846.4073436027 ; 3570.0000000000005
16 ; 75172.71502624181 ; 226618.623762327 ; 1082379.038678958 ; 3623252.5655258074 ; 3808.0000000000005
17 ; 76070.28269306572 ; 226869.30143684053 ; 1157551.7537051998 ; 3849871.1892881347 ; 4046.0000000000005
18 ; 76413.58636050585 ; 227157.98496166544 ; 1233622.0363982655 ; 4076740.4907249752 ; 4284.000000000001
19 ; 77396.12487724569 ; 227484.43845021722 ; 1310035.6227587713 ; 4303898.4756866405 ; 4522.000000000001
20 ; 78302.95711712804 ; 227848.39723193977 ; 1387431.747636017 ; 4531382.914136858 ; 4760.000000000001
21 ; 78991.62544609698 ; 228249.5688022163 ; 1465734.7047531449 ; 4759231.311368798 ; 4998.000000000001
22 ; 79519.74548790063 ; 228687.63385578225 ; 1544726.3301992419 ; 4987480.880171014 ; 5236.000000000001
23 ; 80537.7771909551 ; 229162.2473952693 ; 1624246.0756871426 ; 5216168.514026796 ; 5474.000000000001
24 ; 80939.85361724722 ; 229673.0399061245 ; 1704783.8528780977 ; 5445330.761422066 ; 5712.000000000001
25 ; 81448.45196768726 ; 230219.61858889015 ; 1785723.7064953449 ; 5675003.801328191 ; 5950.000000000001
26 ; 82406.15771502897 ; 230801.56863968298 ; 1867172.1584630322 ; 5905223.419917081 ; 6188.000000000001
27 ; 83234.63507710237 ; 231418.45456968047 ; 1949578.316178061 ; 6136024.988556763 ; 6426.000000000001
28 ; 83952.29856916169 ; 232069.8215544985 ; 2032812.9512551634 ; 6367443.443126444 ; 6664.000000000001
29 ; 84223.16420272349 ; 232755.19680452408 ; 2116765.249824325 ; 6599513.2646809425 ; 6902.000000000001
30 ; 84920.64742185116 ; 233474.09094753274 ; 2200988.4140270487 ; 6832268.461485467 ; 7140.000000000001
31 ; 85216.80333008374 ; 234225.9994152751 ; 2285909.0614489 ; 7065742.552433 ; 7378.000000000001
32 ; 86198.62467460454 ; 235010.4038261389 ; 2371125.864778984 ; 7299968.551848275 ; 7616.000000000001
33 ; 86695.7315222479 ; 235826.77335647386 ; 2457324.4894535886 ; 7534978.955674414 ; 7854.000000000001
34 ; 87107.02113344698 ; 236674.56609370254 ; 2544020.2209758367 ; 7770805.729030888 ; 8092.000000000001
35 ; 87790.9892038004 ; 237553.2303649057 ; 2631127.242109284 ; 8007480.29512459 ; 8330.000000000002
36 ; 88259.30390117162 ; 238462.2060351697 ; 2718918.2313130843 ; 8245033.525489496 ; 8568.000000000002
37 ; 89050.01436738024 ; 239400.925770592 ; 2807177.535214256 ; 8483495.731524665 ; 8806.000000000002
38 ; 89510.36244655636 ; 240368.81626146214 ; 2896227.549581636 ; 8722896.657295257 ; 9044.000000000002
39 ; 89723.32625243775 ; 241365.2994017484 ; 2985737.9120281925 ; 8963265.47355672 ; 9282.000000000002
40 ; 90429.69609104443 ; 242389.79342162528 ; 3075461.23828063 ; 9204630.772958469 ; 9520.000000000002
41 ; 91334.32119572267 ; 243441.713970365 ; 3165890.9343716744 ; 9447020.566380095 ; 9758.000000000002
42 ; 91806.39754076203 ; 244520.4751474779 ; 3257225.255567397 ; 9690462.28035046 ; 9996.000000000002
43 ; 91892.37007652064 ; 245625.49048052088 ; 3349031.653108159 ; 9934982.755497938 ; 10234.000000000002
44 ; 92620.65652914214 ; 246756.17384849634 ; 3440924.02318468 ; 1.018060824597846E7 ; 10472.000000000002
45 ; 92884.79082990694 ; 247911.94035022837 ; 3533544.679713822 ; 1.0427364419826956E7 ; 10710.000000000002
46 ; 93130.49774432632 ; 249092.20711753296 ; 3626429.470543729 ; 1.0675276360177185E7 ; 10948.000000000002
47 ; 94044.32122539985 ; 250296.3940733875 ; 3719559.9682880556 ; 1.0924368567294719E7 ; 11186.000000000002
48 ; 94220.87271244588 ; 251523.92463565577 ; 3813604.2895134557 ; 1.1174664961368106E7 ; 11424.000000000002
49 ; 94499.36309547814 ; 252774.2263672347 ; 3907825.1622259016 ; 1.1426188886003762E7 ; 11662.000000000002
50 ; 95153.19735619062 ; 254046.73157376275 ; 4002324.52532138 ; 1.1678963112370998E7 ; 11900.000000000002
51 ; 95105.12183153356 ; 255340.87785026216 ; 4097477.7226775703 ; 1.193300984394476E7 ; 12138.000000000002
52 ; 95817.13245870118 ; 256656.1085782909 ; 4192582.844509104 ; 1.2188350721795022E7 ; 12376.000000000002
53 ; 96337.79945044065 ; 257991.8733753394 ; 4288399.976967805 ; 1.2445006830373313E7 ; 12614.000000000002
54 ; 96601.09609178544 ; 259347.62849834567 ; 4384737.776418245 ; 1.2702998703748653E7 ; 12852.000000000002
55 ; 96841.82123904125 ; 260722.83720330405 ; 4481338.872510031 ; 1.2962346332246998E7 ; 13090.000000000002
56 ; 97223.05385085703 ; 262116.9700630199 ; 4578180.693749072 ; 1.3223069169450302E7 ; 13328.000000000002
57 ; 97324.897437552 ; 263529.50524511404 ; 4675403.747599929 ; 1.3485186139513321E7 ; 13566.000000000002
58 ; 97996.62258982137 ; 264959.92875241203 ; 4772728.645037481 ; 1.3748715644758435E7 ; 13804.000000000002
59 ; 98002.33548964869 ; 266407.734627863 ; 4870725.267627302 ; 1.4013675573510846E7 ; 14042.000000000002
60 ; 98392.77064626772 ; 267872.4251261233 ; 4968727.60311695 ; 1.428008330813871E7 ; 14280.000000000002
61 ; 98590.16480601029 ; 269353.5108539214 ; 5067120.373763218 ; 1.4547955733264834E7 ; 14518.000000000002
62 ; 99019.11424758176 ; 270850.51088127994 ; 5165710.538569228 ; 1.4817309244118756E7 ; 14756.000000000002
63 ; 99077.01580238878 ; 272362.9528256276 ; 5264729.65281681 ; 1.5088159755000036E7 ; 14994.000000000002
64 ; 99864.65714721751 ; 273890.37291077425 ; 5363806.668619199 ; 1.5360522707825664E7 ; 15232.000000000002
65 ; 99857.28993400898 ; 275432.316002661 ; 5463671.325766416 ; 1.5634413080736438E7 ; 15470.000000000002
66 ; 100141.19153591007 ; 276988.3356237238 ; 5563528.615700426 ; 1.59098453967391E7 ; 15708.000000000002
67 ; 100313.45779880085 ; 278557.9939476372 ; 5663669.807236335 ; 1.6186833732362824E7 ; 15946.000000000002
68 ; 100849.13726960606 ; 280140.8617761245 ; 5763983.265035136 ; 1.646539172631046E7 ; 16184.000000000002
69 ; 100764.12277018816 ; 281736.51849944063 ; 5864832.402304742 ; 1.6745532588086585E7 ; 16422.000000000004
70 ; 100806.0538922647 ; 283344.5520420524 ; 5965596.52507493 ; 1.7027269106586024E7 ; 16660.000000000004
71 ; 100908.25128008389 ; 284964.55879495706 ; 6066402.578967195 ; 1.7310613658628076E7 ; 16898.000000000004
72 ; 101497.5946354955 ; 286596.14353599976 ; 6167310.830247279 ; 1.7595578217423033E7 ; 17136.000000000004
73 ; 101537.1182198241 ; 288238.91933946765 ; 6268808.424882775 ; 1.7882174360959034E7 ; 17374.000000000004
74 ; 101537.70953280931 ; 289892.507476159 ; 6370345.5431026 ; 1.81704132802985E7 ; 17612.000000000004
75 ; 101586.85349279562 ; 291556.5373050484 ; 6471883.252635409 ; 1.846030578777466E7 ; 17850.000000000004
76 ; 101512.54827521028 ; 293230.6461575919 ; 6573470.106128205 ; 1.875186232507971E7 ; 18088.000000000004
77 ; 102076.04144858441 ; 294914.4792156458 ; 6674982.654403415 ; 1.90450929712373E7 ; 18326.000000000004
78 ; 101961.19435749798 ; 296607.689383898 ; 6777058.695851999 ; 1.9340007450452946E7 ; 18564.000000000004
79 ; 102222.22931467692 ; 298309.93715764757 ; 6879019.890209497 ; 1.9636615139836844E7 ; 18802.000000000004
80 ; 101941.27704847863 ; 300020.8904867019 ; 6981242.119524173 ; 1.993492507699449E7 ; 19040.000000000004
81 ; 102241.9807936282 ; 301740.2246360989 ; 7083183.396572652 ; 2.0234945967481192E7 ; 19278.000000000004
82 ; 102191.17071400599 ; 303467.622044306 ; 7185425.37736628 ; 2.0536686192117292E7 ; 19516.000000000004
83 ; 102134.16746300824 ; 305202.7721794899 ; 7287616.548080286 ; 2.08401538141616E7 ; 19754.000000000004
84 ; 102101.62021566925 ; 306945.37139440107 ; 7389750.715543294 ; 2.1145356586341087E7 ; 19992.000000000004
85 ; 102163.33493289177 ; 308695.12278036895 ; 7491852.335758964 ; 2.1452301957735486E7 ; 20230.000000000004
86 ; 101646.6163054851 ; 310451.7360208548 ; 7594015.670691855 ; 2.1760997080515854E7 ; 20468.000000000004
87 ; 102763.78564266986 ; 312214.927244971 ; 7695662.286997341 ; 2.207144881653671E7 ; 20706.000000000004
88 ; 101933.6856116702 ; 313984.4188813306 ; 7798426.07264001 ; 2.2383663743781682E7 ; 20944.000000000004
89 ; 101788.65058278765 ; 315759.9395125597 ; 7900359.75825168 ; 2.2697648162663013E7 ; 21182.000000000004
90 ; 101920.47622879421 ; 317541.2237307634 ; 8002148.408834468 ; 2.301340810217557E7 ; 21420.000000000004
91 ; 102026.5057025571 ; 319328.01199421124 ; 8104068.885063262 ; 2.3330949325906336E7 ; 21658.000000000004
92 ; 101939.79798566754 ; 321120.0504854726 ; 8206095.390765819 ; 2.365027733790055E7 ; 21896.000000000004
93 ; 102123.35824539882 ; 322917.09097120864 ; 8308035.188751486 ; 2.3971397388386022E7 ; 22134.000000000004
94 ; 101981.74246925127 ; 324718.8906637997 ; 8410158.546996884 ; 2.429431447935723E7 ; 22372.000000000004
95 ; 101843.91080009234 ; 326525.2120849668 ; 8512140.289466135 ; 2.461903337002103E7 ; 22610.000000000004
96 ; 101194.17816833718 ; 328335.8229315194 ; 8613984.200266227 ; 2.4945558582105998E7 ; 22848.000000000004
97 ; 101140.39670537712 ; 330150.4959433475 ; 8715178.378434565 ; 2.527389440503752E7 ; 23086.000000000004
98 ; 101433.5793819708 ; 331969.008773755 ; 8816318.775139943 ; 2.5604044900980867E7 ; 23324.000000000004
99 ; 100837.60862049216 ; 333791.14386221505 ; 8917752.354521913 ; 2.5936013909754623E7 ; 23562.000000000004
100 ; 101217.01921707731 ; 335616.68830961385 ; 9018589.963142406 ; 2.6269805053616837E7 ; 23800.000000000004
101 ; 100863.64952685493 ; 337445.4337560358 ; 9119806.982359484 ; 2.660542174192645E7 ; 24038.000000000004
102 ; 100701.65638513329 ; 339277.1762611302 ; 9220670.631886339 ; 2.6942867175682485E7 ; 24276.000000000004
103 ; 100529.78708059654 ; 341111.716187088 ; 9321372.288271472 ; 2.7282144351943616E7 ; 24514.000000000004
104 ; 100247.13371146804 ; 342948.85808424896 ; 9421902.075352069 ; 2.7623256068130706E7 ; 24752.000000000004
105 ; 99580.04325477206 ; 344788.4105793478 ; 9522149.209063537 ; 2.7966204926214956E7 ; 24990.000000000004
106 ; 99625.71269667998 ; 346630.18626640225 ; 9621729.25231831 ; 2.8310993336794302E7 ; 25228.000000000004
107 ; 99113.60921078194 ; 348474.00160023745 ; 9721354.96501499 ; 2.8657623523060706E7 ; 25466.000000000004
108 ; 99235.52166549495 ; 350319.6767926338 ; 9820468.574225772 ; 2.900609752466094E7 ; 25704.000000000004
109 ; 98784.31837713918 ; 352167.0357110822 ; 9919704.095891267 ; 2.9356417201453574E7 ; 25942.000000000004
110 ; 99024.43261451653 ; 354015.9057801225 ; 1.0018488414268406E7 ; 2.9708584237164658E7 ; 26180.000000000004
111 ; 98591.46604161868 ; 355866.1178852389 ; 1.0117512846882923E7 ; 3.006260014294478E7 ; 26418.000000000004
112 ; 97974.57533828208 ; 357717.5062792806 ; 1.0216104312924542E7 ; 3.041846626083002E7 ; 26656.000000000004
113 ; 97758.36934317864 ; 359569.90849137324 ; 1.0314078888262823E7 ; 3.07761837671093E7 ; 26894.000000000004
114 ; 97593.22393500856 ; 361423.16523828346 ; 1.0411837257606002E7 ; 3.1135753675600674E7 ; 27132.000000000004
115 ; 97152.10164385906 ; 363277.12033819733 ; 1.050943048154101E7 ; 3.1497176840838958E7 ; 27370.000000000004
116 ; 97266.39862796103 ; 365131.62062686926 ; 1.0606582583184868E7 ; 3.1860453961177155E7 ; 27608.000000000004
117 ; 96514.212613727 ; 366986.5158760984 ; 1.070384898181283E7 ; 3.2225585581804026E7 ; 27846.000000000004
118 ; 96150.7935378917 ; 368841.65871448664 ; 1.0800363194426557E7 ; 3.2592572097680125E7 ; 28084.000000000004
119 ; 95778.96320003345 ; 370696.9045504318 ; 1.089651398796445E7 ; 3.2961413756394614E7 ; 28322.000000000004
120 ; 95537.3285473632 ; 372552.1114973088 ; 1.0992292951164482E7 ; 3.3332110660945047E7 ; 28560.000000000004
121 ; 95359.60516313666 ; 374407.14030078973 ; 1.1087830279711846E7 ; 3.3704662772442356E7 ; 28798.000000000004
122 ; 94630.79416374509 ; 376261.8542682556 ; 1.1183189884874983E7 ; 3.4079069912743144E7 ; 29036.000000000004
123 ; 94104.12460195349 ; 378116.11920024914 ; 1.1277820679038728E7 ; 3.44553317670114E7 ; 29274.000000000004
124 ; 93494.6195492576 ; 379969.80332392146 ; 1.137192480364068E7 ; 3.483344788621165E7 ; 29512.000000000004
125 ; 93213.45645824453 ; 381822.7772284221 ; 1.1465419423189938E7 ; 3.521341768953557E7 ; 29750.000000000004
126 ; 92929.00151741471 ; 383674.91380218463 ; 1.1558632879648183E7 ; 3.5595240466763996E7 ; 29988.000000000004
127 ; 92223.0141064204 ; 385526.08817205817 ; 1.1651561881165598E7 ; 3.597891538056618E7 ; 30226.000000000004
128 ; 92003.95728195943 ; 387376.17764423875 ; 1.1743784895272018E7 ; 3.6364441468738236E7 ; 30464.000000000004
129 ; 91410.21601227368 ; 389225.06164695055 ; 1.1835788852553979E7 ; 3.675181764638247E7 ; 30702.000000000004
130 ; 91078.81061552174 ; 391072.62167483114 ; 1.1927199068566252E7 ; 3.714104270802943E7 ; 30940.000000000004
131 ; 90173.90590735454 ; 392918.741234975 ; 1.2018277879181772E7 ; 3.7532115329704255E7 ; 31178.000000000004
132 ; 89783.96180619471 ; 394763.3057945878 ; 1.2108451785089128E7 ; 3.792503407093923E7 ; 31416.000000000004
133 ; 89231.61275217781 ; 396606.20273020846 ; 1.2198235746895323E7 ; 3.831979737673382E7 ; 31654.000000000004
134 ; 88731.72040290441 ; 398447.32127845276 ; 1.2287467359647501E7 ; 3.8716403579464026E7 ; 31892.000000000004
135 ; 88359.0578956764 ; 400286.5524882378 ; 1.2376199080050405E7 ; 3.911485090074248E7 ; 32130.000000000004
136 ; 87902.2200048039 ; 402123.7891744418 ; 1.2464558137946082E7 ; 3.951513745323072E7 ; 32368.000000000004
137 ; 87105.08808009674 ; 403958.92587296007 ; 1.2552460357950887E7 ; 3.991726124240516E7 ; 32606.000000000004
138 ; 86207.24867609407 ; 405791.8587971153 ; 1.2639565446030984E7 ; 4.032122016827812E7 ; 32844.00000000001
139 ; 85498.13357273214 ; 407622.48579538264 ; 1.2725772694707077E7 ; 4.072701202707524E7 ; 33082.00000000001
140 ; 85000.90883110145 ; 409450.7063103912 ; 1.281127082827981E7 ; 4.1134634512870625E7 ; 33320.00000000001
141 ; 84132.8839043626 ; 411276.42133916233 ; 1.2896271737110911E7 ; 4.1544085219181016E7 ; 33558.00000000001
142 ; 83578.95180614054 ; 413099.5333945503 ; 1.2980404621015273E7 ; 4.195536164052018E7 ; 33796.00000000001
143 ; 83177.0919483859 ; 414919.94646784745 ; 1.3063983572821414E7 ; 4.236846117391473E7 ; 34034.00000000001
144 ; 82376.83840142874 ; 416737.56599251874 ; 1.31471606647698E7 ; 4.278338112038258E7 ; 34272.00000000001
145 ; 82404.8482907773 ; 418552.2988090326 ; 1.322953750317123E7 ; 4.32001186863751E7 ; 34510.00000000001
146 ; 81740.57162602333 ; 420364.0531307537 ; 1.3311942351462007E7 ; 4.3618670985184126E7 ; 34748.00000000001
147 ; 81701.24623872609 ; 422172.73851086554 ; 1.3393682923088029E7 ; 4.403903503831488E7 ; 34986.00000000001
148 ; 81505.02480111814 ; 423978.2658102923 ; 1.3475384169326754E7 ; 4.446120777682574E7 ; 35224.00000000001
149 ; 81347.44688085854 ; 425780.5471665871 ; 1.3556889194127873E7 ; 4.488518604263604E7 ; 35462.00000000001
150 ; 81247.62321212939 ; 427579.49596375943 ; 1.3638236641008731E7 ; 4.531096658980262E7 ; 35700.00000000001
151 ; 81352.64961244038 ; 429375.02680301154 ; 1.371948426422086E7 ; 4.573854608576638E7 ; 35938.00000000001
152 ; 80466.18037313953 ; 431167.05547435523 ; 1.38008369138333E7 ; 4.616792111256939E7 ; 36176.00000000001
153 ; 80168.0130041868 ; 432955.49892908346 ; 1.388130309420644E7 ; 4.659908816804375E7 ; 36414.00000000001
154 ; 80359.97471416887 ; 434740.27525306866 ; 1.3961471107210627E7 ; 4.703204366697283E7 ; 36652.00000000001
155 ; 80122.66677051547 ; 436521.30364086275 ; 1.4041831081924796E7 ; 4.74667839422259E7 ; 36890.00000000001
156 ; 79350.76028365639 ; 438298.5043705746 ; 1.4121953748695312E7 ; 4.790330524586677E7 ; 37128.00000000001
157 ; 79358.10923222124 ; 440071.7987794996 ; 1.4201304508978968E7 ; 4.8341603750237346E7 ; 37366.00000000001
158 ; 79084.87889289725 ; 441841.1092404787 ; 1.428066261821119E7 ; 4.878167554901685E7 ; 37604.00000000001
159 ; 78699.36028441587 ; 443606.3591389643 ; 1.4359747497104086E7 ; 4.922351665825733E7 ; 37842.00000000001
160 ; 78145.13143167162 ; 445367.47285077063 ; 1.4438446857388502E7 ; 4.966712301739629E7 ; 38080.00000000001
161 ; 78399.59930297198 ; 447124.37572048686 ; 1.4516591988820173E7 ; 5.011249049024706E7 ; 38318.00000000001
162 ; 78015.1372765415 ; 448876.9940405343 ; 1.4594991588123145E7 ; 5.055961486596755E7 ; 38556.00000000001
163 ; 77132.59638332218 ; 450625.25503084477 ; 1.4673006725399686E7 ; 5.100849186000808E7 ; 38794.00000000001
164 ; 77465.00728922374 ; 452369.0868191431 ; 1.4750139321783008E7 ; 5.145911711503893E7 ; 39032.00000000001
165 ; 76995.28938675157 ; 454108.41842181375 ; 1.4827604329072231E7 ; 5.191148620185807E7 ; 39270.00000000001
166 ; 76537.6178786416 ; 455843.17972533434 ; 1.4904599618458983E7 ; 5.2365594620279886E7 ; 39508.00000000001
167 ; 76439.4390680413 ; 457573.30146825715 ; 1.4981137236337624E7 ; 5.282143780000522E7 ; 39746.00000000001
168 ; 76330.96961815398 ; 459298.71522372274 ; 1.5057576675405666E7 ; 5.327901110147348E7 ; 39984.00000000001
169 ; 75565.89208478935 ; 461019.3533824886 ; 1.513390764502382E7 ; 5.37383098166972E7 ; 40222.00000000001
170 ; 75598.4688026756 ; 462735.14913645736 ; 1.520947353710861E7 ; 5.419932917007969E7 ; 40460.00000000001
171 ; 75284.5172471503 ; 464446.03646268795 ; 1.5285072005911285E7 ; 5.466206431921615E7 ; 40698.00000000001
172 ; 74412.52676743362 ; 466151.9501078764 ; 1.5360356523158435E7 ; 5.5126510355678834E7 ; 40936.00000000001
173 ; 74508.65385138203 ; 467852.8255732902 ; 1.5434769049925867E7 ; 5.5592662305786714E7 ; 41174.00000000001
174 ; 74313.22131674615 ; 469548.599100143 ; 1.550927770377725E7 ; 5.606051513136E7 ; 41412.00000000001
175 ; 74544.5890912449 ; 471239.20765539655 ; 1.5583590925093995E7 ; 5.6530063730460145E7 ; 41650.00000000001
176 ; 74734.95776230804 ; 472924.58891797496 ; 1.565813551418524E7 ; 5.7001302938115545E7 ; 41888.00000000001
177 ; 74909.24248239487 ; 473654.2861265501 ; 1.5732870471947549E7 ; 5.747422752703352E7 ; 42126.00000000001
178 ; 74778.63865067373 ; 473654.2861265501 ; 1.5807779714429943E7 ; 5.794788181316007E7 ; 42364.00000000001
179 ; 74422.98246059123 ; 473654.2861265501 ; 1.5882558353080617E7 ; 5.8421536099286616E7 ; 42602.00000000001
180 ; 74872.57410633889 ; 473654.2861265501 ; 1.595698133554121E7 ; 5.889519038541316E7 ; 42840.00000000001
181 ; 74886.69426970326 ; 473654.2861265501 ; 1.6031853909647549E7 ; 5.936884467153971E7 ; 43078.00000000001
