CSV File for the Network on Day 199
1 - Minute m 
2 - Power Consumed at minute m 
3 - Power Produced at minute m 
4 - Energy Consumed since the beginning of the day 
5 - Energy Produced since the beginning of the day 
6 - Energy Lost since the beginning of the day 
 
No Production city : 2, Producer : 1
No Production city : 4, Producer : 1
No Production city : 4, Producer : 1
 
0 ; 28460.225780780955 ; 129944.23564464958 ; 0.0 ; 0.0 ; 0.0
1 ; 30313.916845404856 ; 129550.09789918199 ; 28460.225780780955 ; 129944.23564464958 ; 238.00000000000003
2 ; 31304.526589026347 ; 129195.18711619762 ; 58774.142626185814 ; 259494.33354383157 ; 476.00000000000006
3 ; 33242.085316142395 ; 128880.22561407367 ; 90078.66921521217 ; 388689.5206600292 ; 714.0000000000001
4 ; 35338.936334413724 ; 128605.86862177784 ; 123320.75453135456 ; 517569.7462741029 ; 952.0000000000001
5 ; 36808.81923549036 ; 128372.69807820425 ; 158659.6908657683 ; 646175.6148958807 ; 1190.0000000000002
6 ; 38455.40354962984 ; 128181.21693418884 ; 195468.51010125864 ; 774548.312974085 ; 1428.0000000000002
7 ; 40019.86071000346 ; 128031.84408201139 ; 233923.91365088848 ; 902729.5299082738 ; 1666.0000000000002
8 ; 41768.397846093554 ; 127924.91002831493 ; 273943.77436089196 ; 1030761.3739902852 ; 1904.0000000000002
9 ; 43195.67089520841 ; 127860.6534129155 ; 315712.17220698553 ; 1158686.2840186001 ; 2142.0000000000005
10 ; 44374.49545340405 ; 127839.21845825946 ; 358907.84310219396 ; 1286546.9374315157 ; 2380.0000000000005
11 ; 46452.39554179751 ; 127860.6534129155 ; 403282.338555598 ; 1414386.1558897751 ; 2618.0000000000005
12 ; 48008.88850297443 ; 127924.91002831493 ; 449734.7340973955 ; 1542246.8093026907 ; 2856.0000000000005
13 ; 49410.38800203814 ; 128031.84408201139 ; 497743.6226003699 ; 1670171.7193310056 ; 3094.0000000000005
14 ; 51244.636994133696 ; 128181.21693418878 ; 547154.0106024081 ; 1798203.563413017 ; 3332.0000000000005
15 ; 52540.969315636656 ; 128372.69807820425 ; 598398.6475965418 ; 1926384.7803472057 ; 3570.0000000000005
16 ; 53843.99021267618 ; 128605.86862177784 ; 650939.6169121785 ; 2054757.4784254099 ; 3808.0000000000005
17 ; 55392.424232423946 ; 128880.22561407358 ; 704783.6071248547 ; 2183363.347047188 ; 4046.0000000000005
18 ; 56721.85901174873 ; 129195.1871161977 ; 760176.0313572786 ; 2312243.5726612615 ; 4284.000000000001
19 ; 57981.28799956391 ; 129550.09789918193 ; 816897.8903690273 ; 2441438.7597774593 ; 4522.000000000001
20 ; 59459.71194722435 ; 129944.23564464964 ; 874879.1783685912 ; 2570988.857676641 ; 4760.000000000001
21 ; 60972.581122937976 ; 130376.81751914584 ; 934338.8903158156 ; 2700933.093321291 ; 4998.000000000001
22 ; 61927.59324885997 ; 130847.00699335457 ; 995311.4714387535 ; 2831309.910840437 ; 5236.000000000001
23 ; 63583.66923446722 ; 131353.92078172156 ; 1057239.0646876134 ; 2962156.9178337916 ; 5474.000000000001
24 ; 65324.42917059259 ; 131896.6357857631 ; 1120822.7339220806 ; 3093510.838615513 ; 5712.000000000001
25 ; 65989.18560841054 ; 132474.19593489738 ; 1186147.1630926733 ; 3225407.474401276 ; 5950.000000000001
26 ; 66998.71829169246 ; 133085.61883123 ; 1252136.3487010838 ; 3357881.6703361734 ; 6188.000000000001
27 ; 68489.4343372297 ; 133729.9021186273 ; 1319135.0669927762 ; 3490967.2891674032 ; 6426.000000000001
28 ; 69614.68223477484 ; 134406.02951091636 ; 1387624.501330006 ; 3624697.1912860307 ; 6664.000000000001
29 ; 71527.54220786908 ; 135112.97642853833 ; 1457239.1835647807 ; 3759103.220796947 ; 6902.000000000001
30 ; 72258.95655715965 ; 135849.71520693088 ; 1528766.7257726497 ; 3894216.197225485 ; 7140.000000000001
31 ; 73201.1191196434 ; 136615.2198529115 ; 1601025.6823298093 ; 4030065.912432416 ; 7378.000000000001
32 ; 73916.79839088871 ; 137408.47033708188 ; 1674226.8014494528 ; 4166681.132285327 ; 7616.000000000001
33 ; 75461.76474779574 ; 138228.45642057393 ; 1748143.5998403414 ; 4304089.602622409 ; 7854.000000000001
34 ; 76828.97459390092 ; 139074.18102323034 ; 1823605.364588137 ; 4442318.059042984 ; 8092.000000000001
35 ; 77531.98492304055 ; 139944.66314751905 ; 1900434.3391820379 ; 4581392.240066214 ; 8330.000000000002
36 ; 78375.87216624415 ; 140838.94037819546 ; 1977966.3241050784 ; 4721336.903213734 ; 8568.000000000002
37 ; 80093.80289550265 ; 141756.0709820288 ; 2056342.1962713224 ; 4862175.843591929 ; 8806.000000000002
38 ; 80362.93410518208 ; 142695.13563494163 ; 2136435.999166825 ; 5003931.914573958 ; 9044.000000000002
39 ; 81411.56797124384 ; 143655.23880582515 ; 2216798.933272007 ; 5146627.0502089 ; 9282.000000000002
40 ; 82602.52104910127 ; 144635.5098272374 ; 2298210.501243251 ; 5290282.289014725 ; 9520.000000000002
41 ; 83530.31845650663 ; 145635.10368334822 ; 2380813.0222923523 ; 5434917.798841963 ; 9758.000000000002
42 ; 84297.76017204835 ; 146653.2015449877 ; 2464343.340748859 ; 5580552.90252531 ; 9996.000000000002
43 ; 85443.01114555218 ; 147689.0110806582 ; 2548641.100920907 ; 5727206.104070298 ; 10234.000000000002
44 ; 86294.29234071432 ; 148741.76657097423 ; 2634084.1120664594 ; 5874895.115150956 ; 10472.000000000002
45 ; 87171.89497380654 ; 149810.72885234893 ; 2720378.404407174 ; 6023636.881721931 ; 10710.000000000002
46 ; 88283.43182807598 ; 150895.18511390864 ; 2807550.2993809804 ; 6173447.61057428 ; 10948.000000000002
47 ; 88682.81969311411 ; 151994.44856969442 ; 2895833.7312090565 ; 6324342.795688189 ; 11186.000000000002
48 ; 89701.91224491708 ; 153107.858026248 ; 2984516.5509021706 ; 6476337.244257883 ; 11424.000000000002
49 ; 90185.7188470447 ; 154234.77736373933 ; 3074218.4631470875 ; 6629445.102284132 ; 11662.000000000002
50 ; 91395.20214009256 ; 155374.5949469071 ; 3164404.181994132 ; 6783679.879647871 ; 11900.000000000002
51 ; 92120.99119436886 ; 156526.72298028003 ; 3255799.3841342246 ; 6939054.474594777 ; 12138.000000000002
52 ; 92769.47427914453 ; 157690.59682045446 ; 3347920.3753285934 ; 7095581.197575058 ; 12376.000000000002
53 ; 93724.52333673002 ; 158865.67425661683 ; 3440689.8496077377 ; 7253271.794395512 ; 12614.000000000002
54 ; 93807.12817817769 ; 160051.43476904932 ; 3534414.3729444677 ; 7412137.468652129 ; 12852.000000000002
55 ; 94838.95550287735 ; 161247.37877401905 ; 3628221.5011226456 ; 7572188.903421178 ; 13090.000000000002
56 ; 95620.43424776758 ; 162453.02686225148 ; 3723060.456625523 ; 7733436.282195197 ; 13328.000000000002
57 ; 95893.81302510847 ; 163667.91903709734 ; 3818680.8908732906 ; 7895889.309057449 ; 13566.000000000002
58 ; 96225.43403511099 ; 164891.61395753582 ; 3914574.703898399 ; 8059557.228094546 ; 13804.000000000002
59 ; 96779.28163347248 ; 166123.68819029522 ; 4010800.1379335104 ; 8224448.842052082 ; 14042.000000000002
60 ; 97803.08750473411 ; 167363.73547460968 ; 4107579.419566983 ; 8390572.530242376 ; 14280.000000000002
61 ; 98273.01464582545 ; 168611.3660024651 ; 4205382.507071717 ; 8557936.265716985 ; 14518.000000000002
62 ; 98771.9893320329 ; 169866.20571660428 ; 4303655.521717542 ; 8726547.63171945 ; 14756.000000000002
63 ; 99234.5960130677 ; 171127.89562805506 ; 4402427.511049575 ; 8896413.837436054 ; 14994.000000000002
64 ; 99880.55158670692 ; 172396.0911545099 ; 4501662.107062642 ; 9067541.73306411 ; 15232.000000000002
65 ; 100171.97362579031 ; 173670.46148051004 ; 4601542.65864935 ; 9239937.82421862 ; 15470.000000000002
66 ; 100865.69638042984 ; 174950.68894006932 ; 4701714.63227514 ; 9413608.28569913 ; 15708.000000000002
67 ; 101016.76011373111 ; 176236.46842209986 ; 4802580.32865557 ; 9588558.974639198 ; 15946.000000000002
68 ; 101773.20439170889 ; 177527.50679877886 ; 4903597.088769301 ; 9764795.443061298 ; 16184.000000000002
69 ; 102121.61767181431 ; 178823.5223768007 ; 5005370.293161009 ; 9942322.949860077 ; 16422.000000000004
70 ; 102287.96040503838 ; 180124.2443713065 ; 5107491.910832824 ; 1.0121146472236877E7 ; 16660.000000000004
71 ; 102648.13103100685 ; 181429.4124021524 ; 5209779.871237863 ; 1.0301270716608183E7 ; 16898.000000000004
72 ; 103096.61637370611 ; 182738.77601207516 ; 5312428.002268869 ; 1.0482700129010336E7 ; 17136.000000000004
73 ; 103381.44194522803 ; 184052.09420623296 ; 5415524.618642575 ; 1.0665438905022413E7 ; 17374.000000000004
74 ; 103729.62382099693 ; 185369.1350125333 ; 5518906.060587803 ; 1.0849490999228645E7 ; 17612.000000000004
75 ; 104159.73729112613 ; 186689.67506211458 ; 5622635.6844088 ; 1.1034860134241179E7 ; 17850.000000000004
76 ; 104212.28656712548 ; 188013.49918931132 ; 5726795.421699926 ; 1.1221549809303293E7 ; 18088.000000000004
77 ; 104585.51347163967 ; 189340.40005041022 ; 5831007.708267052 ; 1.1409563308492605E7 ; 18326.000000000004
78 ; 103984.32786469966 ; 190670.1777604913 ; 5935593.221738691 ; 1.1598903708543016E7 ; 18564.000000000004
79 ; 104792.1105742106 ; 192002.6395476395 ; 6039577.549603391 ; 1.1789573886303507E7 ; 18802.000000000004
80 ; 104769.92971062557 ; 193337.5994238171 ; 6144369.660177602 ; 1.1981576525851145E7 ; 19040.000000000004
81 ; 105468.28672070577 ; 194674.87787168735 ; 6249139.589888228 ; 1.2174914125274962E7 ; 19278.000000000004
82 ; 105013.22321821185 ; 196014.30154669602 ; 6354607.876608934 ; 1.2369589003146648E7 ; 19516.000000000004
83 ; 105836.2612230033 ; 197355.70299372586 ; 6459621.099827146 ; 1.2565603304693345E7 ; 19754.000000000004
84 ; 105708.75012293215 ; 198698.9203776593 ; 6565457.361050149 ; 1.2762959007687071E7 ; 19992.000000000004
85 ; 105957.60052180818 ; 200043.79722720094 ; 6671166.111173081 ; 1.296165792806473E7 ; 20230.000000000004
86 ; 105634.99073673197 ; 201390.18219133283 ; 6777123.71169489 ; 1.316170172529193E7 ; 20468.000000000004
87 ; 106147.26494330855 ; 202737.9288077959 ; 6882758.702431622 ; 1.3363091907483263E7 ; 20706.000000000004
88 ; 105804.77244692949 ; 204086.89528301367 ; 6988905.96737493 ; 1.3565829836291058E7 ; 20944.000000000004
89 ; 105716.65697584224 ; 205436.94428289717 ; 7094710.73982186 ; 1.3769916731574072E7 ; 21182.000000000004
90 ; 106008.01385998355 ; 206787.9427339911 ; 7200427.396797702 ; 1.3975353675856968E7 ; 21420.000000000004
91 ; 106043.66365463445 ; 208139.76163444575 ; 7306435.410657685 ; 1.418214161859096E7 ; 21658.000000000004
92 ; 105301.32708168232 ; 209492.27587432167 ; 7412479.07431232 ; 1.4390281380225405E7 ; 21896.000000000004
93 ; 105502.55455308649 ; 210845.36406475372 ; 7517780.401394002 ; 1.4599773656099727E7 ; 22134.000000000004
94 ; 105349.02918936108 ; 212198.90837552678 ; 7623282.955947089 ; 1.481061902016448E7 ; 22372.000000000004
95 ; 105132.04189752633 ; 213552.79438063293 ; 7728631.98513645 ; 1.5022817928540006E7 ; 22610.000000000004
96 ; 104725.69810499113 ; 214906.91091140293 ; 7833764.027033976 ; 1.523637072292064E7 ; 22848.000000000004
97 ; 105197.31224315506 ; 216261.1499168232 ; 7938489.725138968 ; 1.5451277633832043E7 ; 23086.000000000004
98 ; 104679.60925735389 ; 217615.40633066953 ; 8043687.037382123 ; 1.5667538783748867E7 ; 23324.000000000004
99 ; 104544.63995937866 ; 218969.57794510695 ; 8148366.6466394765 ; 1.5885154190079536E7 ; 23562.000000000004
100 ; 104207.09338110234 ; 220323.56529042273 ; 8252911.286598856 ; 1.6104123768024644E7 ; 23800.000000000004
101 ; 104121.45686171224 ; 221677.27152057725 ; 8357118.379979958 ; 1.6324447333315067E7 ; 24038.000000000004
102 ; 103603.24035098235 ; 223030.60230427218 ; 8461239.83684167 ; 1.6546124604835644E7 ; 24276.000000000004
103 ; 103042.32549006742 ; 224383.46572125272 ; 8564843.077192653 ; 1.6769155207139917E7 ; 24514.000000000004
104 ; 102795.23368152343 ; 225735.77216357464 ; 8667885.40268272 ; 1.699353867286117E7 ; 24752.000000000004
105 ; 102784.88523332131 ; 227087.43424158022 ; 8770680.636364244 ; 1.7219274445024744E7 ; 24990.000000000004
106 ; 102073.63648722324 ; 228438.36669434252 ; 8873465.521597566 ; 1.7446361879266325E7 ; 25228.000000000004
107 ; 102106.20198321999 ; 229788.4863043482 ; 8975539.15808479 ; 1.7674800245960668E7 ; 25466.000000000004
108 ; 101642.8118984268 ; 231137.7118162023 ; 9077645.36006801 ; 1.7904588732265014E7 ; 25704.000000000004
109 ; 101258.46331819492 ; 232485.9638591499 ; 9179288.171966437 ; 1.8135726444081217E7 ; 25942.000000000004
110 ; 100517.81159681946 ; 233833.16487322008 ; 9280546.635284632 ; 1.8368212407940365E7 ; 26180.000000000004
111 ; 100487.29551388526 ; 235179.23903880856 ; 9381064.446881453 ; 1.8602045572813585E7 ; 26418.000000000004
112 ; 100144.69982639955 ; 236524.11220952412 ; 9481551.742395338 ; 1.8837224811852396E7 ; 26656.000000000004
113 ; 99548.12242078417 ; 237867.71184813452 ; 9581696.442221737 ; 1.907374892406192E7 ; 26894.000000000004
114 ; 98787.89056618146 ; 239209.96696545574 ; 9681244.56464252 ; 1.9311616635910057E7 ; 27132.000000000004
115 ; 98219.14720960971 ; 240550.80806203652 ; 9780032.455208702 ; 1.9550826602875512E7 ; 27370.000000000004
116 ; 98073.95311389132 ; 241890.16707249836 ; 9878251.602418311 ; 1.9791377410937548E7 ; 27608.000000000004
117 ; 97094.0113618538 ; 243227.977312399 ; 9976325.555532202 ; 2.0033267578010045E7 ; 27846.000000000004
118 ; 96692.69167054429 ; 244564.173427493 ; 1.0073419566894056E7 ; 2.0276495555322442E7 ; 28084.000000000004
119 ; 96214.71450067384 ; 245898.69134527195 ; 1.01701122585646E7 ; 2.0521059728749935E7 ; 28322.000000000004
120 ; 95352.46034463248 ; 247231.4682286707 ; 1.0266326973065274E7 ; 2.0766958420095205E7 ; 28560.000000000004
121 ; 94665.38844631039 ; 248562.44243183394 ; 1.0361679433409907E7 ; 2.1014189888323877E7 ; 28798.000000000004
122 ; 94447.32105555646 ; 249891.55345784198 ; 1.0456344821856217E7 ; 2.126275233075571E7 ; 29036.000000000004
123 ; 93260.5962696289 ; 251218.7419182998 ; 1.0550792142911773E7 ; 2.1512643884213552E7 ; 29274.000000000004
124 ; 92725.77050560802 ; 252543.94949470012 ; 1.0644052739181401E7 ; 2.176386262613185E7 ; 29512.000000000004
125 ; 91896.41162836595 ; 253867.1189014729 ; 1.0736778509687008E7 ; 2.2016406575626552E7 ; 29750.000000000004
126 ; 91476.11900045148 ; 255188.19385064158 ; 1.0828674921315374E7 ; 2.2270273694528025E7 ; 29988.000000000004
127 ; 90423.41518227496 ; 256507.11901800826 ; 1.0920151040315825E7 ; 2.2525461888378665E7 ; 30226.000000000004
128 ; 89808.61711491764 ; 257823.8400107949 ; 1.1010574455498101E7 ; 2.2781969007396672E7 ; 30464.000000000004
129 ; 89031.07545526145 ; 259138.30333667158 ; 1.110038307261302E7 ; 2.3039792847407468E7 ; 30702.000000000004
130 ; 87828.20604641826 ; 260450.45637410542 ; 1.118941414806828E7 ; 2.329893115074414E7 ; 30940.000000000004
131 ; 87554.47898886765 ; 261760.24734396912 ; 1.1277242354114698E7 ; 2.3559381607118245E7 ; 31178.000000000004
132 ; 86361.58662209782 ; 263067.62528234895 ; 1.1364796833103565E7 ; 2.3821141854462214E7 ; 31416.000000000004
133 ; 85416.05611710464 ; 264372.54001449636 ; 1.1451158419725664E7 ; 2.408420947974456E7 ; 31654.000000000004
134 ; 84250.54548707482 ; 265674.94212987076 ; 1.1536574475842768E7 ; 2.434858201975906E7 ; 31892.000000000004
135 ; 83443.80420910117 ; 266974.78295822185 ; 1.1620825021329843E7 ; 2.4614256961888928E7 ; 32130.000000000004
136 ; 82567.13642343985 ; 268272.0145466645 ; 1.1704268825538944E7 ; 2.488123174484715E7 ; 32368.000000000004
137 ; 81837.8983732682 ; 269566.5896377002 ; 1.1786835961962385E7 ; 2.5149503759393815E7 ; 32606.000000000004
138 ; 80829.9089253444 ; 270858.46164814185 ; 1.1868673860335654E7 ; 2.5419070349031515E7 ; 32844.00000000001
139 ; 80077.29369645464 ; 272147.5846489015 ; 1.1949503769260999E7 ; 2.5689928810679656E7 ; 33082.00000000001
140 ; 78924.62438015958 ; 273433.91334560065 ; 1.2029581062957453E7 ; 2.5962076395328555E7 ; 33320.00000000001
141 ; 77714.16559066591 ; 274717.40305996756 ; 1.2108505687337613E7 ; 2.6235510308674157E7 ; 33558.00000000001
142 ; 76802.07344579577 ; 275998.00971198507 ; 1.2186219852928279E7 ; 2.6510227711734124E7 ; 33796.00000000001
143 ; 75192.9326056677 ; 277275.6898027569 ; 1.2263021926374074E7 ; 2.6786225721446108E7 ; 34034.00000000001
144 ; 74604.313732741 ; 278550.40039805864 ; 1.2338214858979741E7 ; 2.7063501411248866E7 ; 34272.00000000001
145 ; 74022.47393005782 ; 279822.0991125448 ; 1.2412819172712483E7 ; 2.7342051811646923E7 ; 34510.00000000001
146 ; 73928.16942340034 ; 281090.7440945823 ; 1.248684164664254E7 ; 2.7621873910759468E7 ; 34748.00000000001
147 ; 73840.07806417781 ; 282356.29401168315 ; 1.256076981606594E7 ; 2.790296465485405E7 ; 34986.00000000001
148 ; 73479.22857143806 ; 283618.70803651004 ; 1.2634609894130116E7 ; 2.8185320948865734E7 ; 35224.00000000001
149 ; 73248.74595184738 ; 284877.94583343057 ; 1.2708089122701554E7 ; 2.8468939656902242E7 ; 35462.00000000001
150 ; 73276.82388043209 ; 286133.96754559554 ; 1.2781337868653402E7 ; 2.8753817602735672E7 ; 35700.00000000001
151 ; 73100.04785328869 ; 287386.73378251947 ; 1.2854614692533834E7 ; 2.9039951570281267E7 ; 35938.00000000001
152 ; 72526.59777735038 ; 288636.20560814196 ; 1.2927714740387123E7 ; 2.9327338304063786E7 ; 36176.00000000001
153 ; 72077.18400467318 ; 289882.3445293484 ; 1.3000241338164473E7 ; 2.9615974509671926E7 ; 36414.00000000001
154 ; 72071.12747064928 ; 291125.1124849323 ; 1.3072318522169147E7 ; 2.9905856854201276E7 ; 36652.00000000001
155 ; 72076.24647207824 ; 292364.47183497896 ; 1.3144389649639796E7 ; 3.0196981966686208E7 ; 36890.00000000001
156 ; 71395.43447399016 ; 293600.38535065344 ; 1.3216465896111874E7 ; 3.0489346438521188E7 ; 37128.00000000001
157 ; 71072.9283116696 ; 294832.8162043767 ; 1.3287861330585863E7 ; 3.078294682387184E7 ; 37366.00000000001
158 ; 70787.81203837098 ; 296061.7279603719 ; 1.3358934258897534E7 ; 3.1077779640076216E7 ; 37604.00000000001
159 ; 70717.99914988733 ; 297287.084565568 ; 1.3429722070935905E7 ; 3.1373841368036587E7 ; 37842.00000000001
160 ; 70484.95610071857 ; 298508.8503408438 ; 1.3500440070085792E7 ; 3.1671128452602156E7 ; 38080.00000000001
161 ; 69637.12833180286 ; 299726.9899725992 ; 1.357092502618651E7 ; 3.1969637302943E7 ; 38318.00000000001
162 ; 69270.40975618442 ; 300941.4685046411 ; 1.3640562154518314E7 ; 3.2269364292915598E7 ; 38556.00000000001
163 ; 69460.12023888293 ; 302152.25133037014 ; 1.3709832564274497E7 ; 3.257030576142024E7 ; 38794.00000000001
164 ; 69246.18786693056 ; 303359.3041852561 ; 1.377929268451338E7 ; 3.287245801275061E7 ; 39032.00000000001
165 ; 68619.80272503982 ; 304562.59313959116 ; 1.384853887238031E7 ; 3.3175817316935867E7 ; 39270.00000000001
166 ; 67980.33817195689 ; 305762.0845915096 ; 1.391715867510535E7 ; 3.348037991007546E7 ; 39508.00000000001
167 ; 67714.5236914026 ; 306957.74526026245 ; 1.3985139013277307E7 ; 3.378614199466697E7 ; 39746.00000000001
168 ; 67114.53752115069 ; 308149.54217973805 ; 1.405285353696871E7 ; 3.409309973992723E7 ; 39984.00000000001
169 ; 67307.20088480729 ; 309337.44269221846 ; 1.411996807448986E7 ; 3.440124928210697E7 ; 40222.00000000001
170 ; 66432.5646855754 ; 310521.41444236226 ; 1.4187275275374668E7 ; 3.471058672479919E7 ; 40460.00000000001
171 ; 66928.61586872803 ; 311701.4253714049 ; 1.4253707840060243E7 ; 3.5021108139241554E7 ; 40698.00000000001
172 ; 66192.74002439788 ; 312877.44371156837 ; 1.4320636455928972E7 ; 3.533280956461296E7 ; 40936.00000000001
173 ; 65356.66077340487 ; 314049.4379806714 ; 1.438682919595337E7 ; 3.564568700832453E7 ; 41174.00000000001
174 ; 65821.59876046501 ; 315217.3769769339 ; 1.4452185856726773E7 ; 3.595973644630521E7 ; 41412.00000000001
175 ; 65888.90808488775 ; 316381.2297739659 ; 1.4518007455487238E7 ; 3.6274953823282145E7 ; 41650.00000000001
176 ; 66413.0936329481 ; 317540.965715936 ; 1.4583896363572126E7 ; 3.659133505305611E7 ; 41888.00000000001
177 ; 66617.88844608766 ; 318696.5544129116 ; 1.4650309457205074E7 ; 3.690887601877205E7 ; 42126.00000000001
178 ; 66609.0041420939 ; 319847.9657363641 ; 1.471692734565116E7 ; 3.722757257318496E7 ; 42364.00000000001
179 ; 66652.24290273487 ; 320995.1698148333 ; 1.4783536349793255E7 ; 3.754742053892133E7 ; 42602.00000000001
180 ; 67221.02390888258 ; 322138.13702974544 ; 1.485018859269599E7 ; 3.786841570873616E7 ; 42840.00000000001
181 ; 67394.87406695334 ; 323276.838011377 ; 1.4917409616604874E7 ; 3.81905538457659E7 ; 43078.00000000001
