CSV File for the Network on Day 171
1 - Minute m 
2 - Power Consumed at minute m 
3 - Power Produced at minute m 
4 - Energy Consumed since the beginning of the day 
5 - Energy Produced since the beginning of the day 
6 - Energy Lost since the beginning of the day 
 
No Production city : 2, Producer : 1
No Production city : 4, Producer : 1
No Production city : 4, Producer : 1
 
0 ; 36796.14846145408 ; 154874.10407884794 ; 0.0 ; 0.0 ; 0.0
1 ; 38289.93250283372 ; 154527.4881846439 ; 36796.14846145408 ; 154874.10407884794 ; 238.00000000000003
2 ; 39146.26888222144 ; 154216.11769667218 ; 75086.0809642878 ; 309401.5922634918 ; 476.00000000000006
3 ; 41220.986436112515 ; 153940.3956351988 ; 114232.34984650924 ; 463617.70996016404 ; 714.0000000000001
4 ; 42732.46660349168 ; 153700.68364608148 ; 155453.33628262175 ; 617558.1055953628 ; 952.0000000000001
5 ; 43712.0320500643 ; 153497.299839689 ; 198185.80288611344 ; 771258.7892414443 ; 1190.0000000000002
6 ; 45126.88882033341 ; 153330.51685053518 ; 241897.83493617774 ; 924756.0890811333 ; 1428.0000000000002
7 ; 46377.12180644196 ; 153200.56014476847 ; 287024.7237565112 ; 1078086.6059316685 ; 1666.0000000000002
8 ; 48046.22017339361 ; 153107.60659979648 ; 333401.84556295315 ; 1231287.166076437 ; 1904.0000000000002
9 ; 49133.31256740968 ; 153051.7833768481 ; 381448.06573634676 ; 1384394.7726762337 ; 2142.0000000000005
10 ; 50207.85606059691 ; 153033.1671032648 ; 430581.3783037565 ; 1537446.5560530818 ; 2380.0000000000005
11 ; 51765.37142912413 ; 153051.7833768481 ; 480789.23436435335 ; 1690479.7231563465 ; 2618.0000000000005
12 ; 53146.14453712656 ; 153107.60659979648 ; 532554.6057934775 ; 1843531.5065331946 ; 2856.0000000000005
13 ; 54570.05569808029 ; 153200.56014476847 ; 585700.750330604 ; 1996639.1131329911 ; 3094.0000000000005
14 ; 55432.115586300926 ; 153330.51685053506 ; 640270.8060286844 ; 2149839.6732777595 ; 3332.0000000000005
15 ; 57111.9236853932 ; 153497.299839689 ; 695702.9216149853 ; 2303170.1901282948 ; 3570.0000000000005
16 ; 58803.91409094765 ; 153700.68364608148 ; 752814.8453003785 ; 2456667.4899679837 ; 3808.0000000000005
17 ; 59696.664415939624 ; 153940.3956351988 ; 811618.7593913261 ; 2610368.173614065 ; 4046.0000000000005
18 ; 60374.94404210753 ; 154216.11769667218 ; 871315.4238072657 ; 2764308.569249264 ; 4284.000000000001
19 ; 61705.673137404636 ; 154527.4881846439 ; 931690.3678493733 ; 2918524.686945936 ; 4522.000000000001
20 ; 63127.32438465906 ; 154874.10407884794 ; 993396.0409867779 ; 3073052.17513058 ; 4760.000000000001
21 ; 64400.72822697189 ; 155255.52333707185 ; 1056523.3653714368 ; 3227926.279209428 ; 4998.000000000001
22 ; 65235.95858769983 ; 155671.26740815057 ; 1120924.0935984086 ; 3383181.8025464998 ; 5236.000000000001
23 ; 66634.7137654145 ; 156120.82387382863 ; 1186160.0521861084 ; 3538853.0699546505 ; 5474.000000000001
24 ; 67463.16194235857 ; 156603.64918766782 ; 1252794.7659515229 ; 3694973.893828479 ; 5712.000000000001
25 ; 68707.47816865242 ; 157119.1714796518 ; 1320257.9278938815 ; 3851577.543016147 ; 5950.000000000001
26 ; 70002.81764799976 ; 157666.7933961742 ; 1388965.4060625338 ; 4008696.7144957986 ; 6188.000000000001
27 ; 70701.19411728169 ; 158245.89494663087 ; 1458968.2237105337 ; 4166363.5078919725 ; 6426.000000000001
28 ; 71745.14243213243 ; 158855.83632978104 ; 1529669.4178278153 ; 4324609.402838604 ; 6664.000000000001
29 ; 73056.68897375427 ; 159495.96071532724 ; 1601414.5602599478 ; 4483465.239168385 ; 6902.000000000001
30 ; 73974.75417102117 ; 160165.59695867798 ; 1674471.249233702 ; 4642961.199883712 ; 7140.000000000001
31 ; 75144.26738119783 ; 160864.06222954724 ; 1748446.003404723 ; 4803126.796842391 ; 7378.000000000001
32 ; 75766.79036420475 ; 161590.66453780638 ; 1823590.2707859208 ; 4963990.859071938 ; 7616.000000000001
33 ; 76697.03915793561 ; 162344.70514277843 ; 1899357.0611501255 ; 5125581.523609744 ; 7854.000000000001
34 ; 77363.01444738693 ; 163125.48083488914 ; 1976054.100308061 ; 5287926.228752523 ; 8092.000000000001
35 ; 78866.23836041981 ; 163932.2860811998 ; 2053417.114755448 ; 5451051.709587412 ; 8330.000000000002
36 ; 79245.68552770707 ; 164764.4150288151 ; 2132283.353115868 ; 5614983.9956686115 ; 8568.000000000002
37 ; 80443.05363866023 ; 165621.16336243798 ; 2211529.038643575 ; 5779748.410697427 ; 8806.000000000002
38 ; 81079.38175799312 ; 166501.8300144173 ; 2291972.092282235 ; 5945369.5740598645 ; 9044.000000000002
39 ; 81762.15267534737 ; 167405.71872748766 ; 2373051.4740402284 ; 6111871.404074281 ; 9282.000000000002
40 ; 82703.70995453275 ; 168332.1394720197 ; 2454813.626715576 ; 6279277.1228017695 ; 9520.000000000002
41 ; 83982.45452088247 ; 169280.4097209939 ; 2537517.3366701086 ; 6447609.262273789 ; 9758.000000000002
42 ; 84278.32880125173 ; 170249.85558707942 ; 2621499.791190991 ; 6616889.671994783 ; 9996.000000000002
43 ; 85248.7781070981 ; 171239.8128271532 ; 2705778.119992243 ; 6787139.527581862 ; 10234.000000000002
44 ; 86326.87290394361 ; 172249.62772034758 ; 2791026.8980993414 ; 6958379.340409015 ; 10472.000000000002
45 ; 86623.68627145674 ; 173278.65782628645 ; 2877353.771003285 ; 7130628.968129363 ; 10710.000000000002
46 ; 87012.20462510879 ; 174326.27263056845 ; 2963977.4572747415 ; 7303907.62595565 ; 10948.000000000002
47 ; 87722.83455782474 ; 175391.8540848114 ; 3050989.6618998502 ; 7478233.898586218 ; 11186.000000000002
48 ; 88287.29831943566 ; 176474.7970486926 ; 3138712.496457675 ; 7653625.752671029 ; 11424.000000000002
49 ; 89333.63241364471 ; 177574.50964143034 ; 3226999.7947771107 ; 7830100.549719722 ; 11662.000000000002
50 ; 89823.18279916323 ; 178690.41351006937 ; 3316333.4271907555 ; 8007675.059361152 ; 11900.000000000002
51 ; 90702.84625401012 ; 179821.94402176377 ; 3406156.609989919 ; 8186365.472871222 ; 12138.000000000002
52 ; 91566.39213783365 ; 180968.5503870311 ; 3496859.456243929 ; 8366187.416892986 ; 12376.000000000002
53 ; 92039.98538957404 ; 182129.69572066737 ; 3588425.848381763 ; 8547155.967280017 ; 12614.000000000002
54 ; 92507.87828862714 ; 183304.85704670212 ; 3680465.833771337 ; 8729285.663000684 ; 12852.000000000002
55 ; 93527.52179458886 ; 184493.5252534286 ; 3772973.712059964 ; 8912590.520047387 ; 13090.000000000002
56 ; 93935.1380094839 ; 185695.2050041859 ; 3866501.2338545527 ; 9097084.045300815 ; 13328.000000000002
57 ; 94228.72439735943 ; 186909.41460919788 ; 3960436.3718640367 ; 9282779.250305 ; 13566.000000000002
58 ; 94499.67781224208 ; 188135.6858634046 ; 4054665.096261396 ; 9469688.664914198 ; 13804.000000000002
59 ; 95292.60423202763 ; 189373.56385485 ; 4149164.774073638 ; 9657824.350777604 ; 14042.000000000002
60 ; 95897.4264256083 ; 190622.606747828 ; 4244457.378305665 ; 9847197.914632455 ; 14280.000000000002
61 ; 96606.13230167731 ; 191882.3855446357 ; 4340354.804731273 ; 1.0037820521380283E7 ; 14518.000000000002
62 ; 96611.48763477807 ; 193152.48382944756 ; 4436960.93703295 ; 1.0229702906924918E7 ; 14756.000000000002
63 ; 97057.9782432625 ; 194432.49749749713 ; 4533572.424667728 ; 1.0422855390754366E7 ; 14994.000000000002
64 ; 97570.72832529439 ; 195722.0344724502 ; 4630630.402910991 ; 1.0617287888251863E7 ; 15232.000000000002
65 ; 98248.66355066895 ; 197020.714414565 ; 4728201.131236285 ; 1.0813009922724314E7 ; 15470.000000000002
66 ; 98677.2449020117 ; 198328.16842196425 ; 4826449.794786954 ; 1.1010030637138879E7 ; 15708.000000000002
67 ; 98559.6645261337 ; 199644.0387270939 ; 4925127.039688966 ; 1.1208358805560844E7 ; 15946.000000000002
68 ; 98787.5701848347 ; 200967.9783902116 ; 5023686.7042151 ; 1.1408002844287938E7 ; 16184.000000000002
69 ; 99052.45130460054 ; 202299.65099153074 ; 5122474.274399934 ; 1.1608970822678149E7 ; 16422.000000000004
70 ; 99589.38551352601 ; 203638.73032345282 ; 5221526.725704535 ; 1.181127047366968E7 ; 16660.000000000004
71 ; 100089.65764749152 ; 204984.9000841356 ; 5321116.111218061 ; 1.2014909203993132E7 ; 16898.000000000004
72 ; 100577.15583026016 ; 206337.85357348435 ; 5421205.768865553 ; 1.2219894104077268E7 ; 17136.000000000004
73 ; 100675.45415986577 ; 207697.29339250104 ; 5521782.924695813 ; 1.2426231957650753E7 ; 17374.000000000004
74 ; 100446.97908011134 ; 209062.9311467923 ; 5622458.378855679 ; 1.2633929251043255E7 ; 17612.000000000004
75 ; 100870.41703040825 ; 210434.4871549142 ; 5722905.357935791 ; 1.2842992182190048E7 ; 17850.000000000004
76 ; 101171.23841472738 ; 211811.69016212216 ; 5823775.774966199 ; 1.3053426669344962E7 ; 18088.000000000004
77 ; 101150.4440212871 ; 213194.27705999638 ; 5924947.013380926 ; 1.3265238359507084E7 ; 18326.000000000004
78 ; 101462.72382112546 ; 214581.99261232442 ; 6026097.4574022135 ; 1.347843263656708E7 ; 18564.000000000004
79 ; 101461.45227555 ; 215974.5891875434 ; 6127560.1812233385 ; 1.3693014629179405E7 ; 18802.000000000004
80 ; 101662.28023162321 ; 217371.82649797815 ; 6229021.633498888 ; 1.3908989218366949E7 ; 19040.000000000004
81 ; 102007.38648975403 ; 218773.47134604535 ; 6330683.913730511 ; 1.4126361044864926E7 ; 19278.000000000004
82 ; 101906.23659498242 ; 220179.29737754384 ; 6432691.300220265 ; 1.4345134516210971E7 ; 19516.000000000004
83 ; 102446.92829880044 ; 221589.08484210176 ; 6534597.5368152475 ; 1.4565313813588515E7 ; 19754.000000000004
84 ; 102346.85090884916 ; 223002.6203608095 ; 6637044.465114048 ; 1.4786902898430618E7 ; 19992.000000000004
85 ; 102324.36514305967 ; 224419.69670103333 ; 6739391.316022897 ; 1.5009905518791428E7 ; 20230.000000000004
86 ; 101836.95149139827 ; 225840.11255837162 ; 6841715.681165957 ; 1.523432521549246E7 ; 20468.000000000004
87 ; 102365.97853985547 ; 227263.67234569 ; 6943552.632657355 ; 1.5460165328050833E7 ; 20706.000000000004
88 ; 102393.44927435923 ; 228690.18598914836 ; 7045918.61119721 ; 1.5687429000396524E7 ; 20944.000000000004
89 ; 101972.60507784563 ; 230119.46873111534 ; 7148312.060471569 ; 1.5916119186385673E7 ; 21182.000000000004
90 ; 102163.49855234662 ; 231551.34093984618 ; 7250284.665549415 ; 1.6146238655116787E7 ; 21420.000000000004
91 ; 102234.28190612134 ; 232985.627925791 ; 7352448.164101762 ; 1.6377789996056633E7 ; 21658.000000000004
92 ; 102090.50898806477 ; 234422.15976438636 ; 7454682.446007883 ; 1.6610775623982424E7 ; 21896.000000000004
93 ; 101263.79871189661 ; 235860.77112517628 ; 7556772.954995948 ; 1.684519778374681E7 ; 22134.000000000004
94 ; 101712.7046306479 ; 237301.30110710097 ; 7658036.753707845 ; 1.7081058554871984E7 ; 22372.000000000004
95 ; 101909.60706272912 ; 238743.59307978797 ; 7759749.458338493 ; 1.7318359855979085E7 ; 22610.000000000004
96 ; 101223.6216632471 ; 240187.49453067567 ; 7861659.065401222 ; 1.755710344905887E7 ; 22848.000000000004
97 ; 102240.97684561394 ; 241632.85691779686 ; 7962882.687064469 ; 1.7797290943589546E7 ; 23086.000000000004
98 ; 101097.81536155005 ; 243079.53552805047 ; 8065123.663910083 ; 1.8038923800507344E7 ; 23324.000000000004
99 ; 100929.65347162368 ; 244527.3893407875 ; 8166221.479271633 ; 1.8282003336035393E7 ; 23562.000000000004
100 ; 100769.06469952788 ; 245976.2808965393 ; 8267151.132743256 ; 1.852653072537618E7 ; 23800.000000000004
101 ; 100377.8510415312 ; 247426.07617071708 ; 8367920.197442784 ; 1.8772507006272722E7 ; 24038.000000000004
102 ; 100619.43225694462 ; 248876.64445211345 ; 8468298.048484316 ; 1.901993308244344E7 ; 24276.000000000004
103 ; 99777.56622012977 ; 250327.85822604 ; 8568917.48074126 ; 1.9268809726895552E7 ; 24514.000000000004
104 ; 99605.28695972651 ; 251779.59306193702 ; 8668695.04696139 ; 1.951913758512159E7 ; 24752.000000000004
105 ; 99870.49303752817 ; 253231.7275052953 ; 8768300.333921116 ; 1.9770917178183526E7 ; 24990.000000000004
106 ; 99506.71016693022 ; 254684.14297373357 ; 8868170.826958643 ; 2.0024148905688822E7 ; 25228.000000000004
107 ; 99277.00053660147 ; 256136.7236570782 ; 8967677.537125573 ; 2.0278833048662554E7 ; 25466.000000000004
108 ; 98617.86840957902 ; 257589.3564212966 ; 9066954.537662175 ; 2.0534969772319634E7 ; 25704.000000000004
109 ; 98219.00158006835 ; 259041.93071613958 ; 9165572.406071754 ; 2.079255912874093E7 ; 25942.000000000004
110 ; 97695.83606298013 ; 260494.3384863517 ; 9263791.407651823 ; 2.1051601059457067E7 ; 26180.000000000004
111 ; 97103.54746656609 ; 261946.47408631365 ; 9361487.243714804 ; 2.131209539794342E7 ; 26418.000000000004
112 ; 96921.83379050724 ; 263398.23419798404 ; 9458590.79118137 ; 2.1574041872029733E7 ; 26656.000000000004
113 ; 96866.48705243373 ; 264849.51775201346 ; 9555512.624971878 ; 2.183744010622772E7 ; 26894.000000000004
114 ; 96449.83679747465 ; 266300.225851906 ; 9652379.112024311 ; 2.2102289623979732E7 ; 27132.000000000004
115 ; 95837.02394079247 ; 267750.26170111046 ; 9748828.948821785 ; 2.2368589849831637E7 ; 27370.000000000004
116 ; 95731.48796201205 ; 269199.5305329247 ; 9844665.972762577 ; 2.2636340111532748E7 ; 27608.000000000004
117 ; 94864.12270166728 ; 270647.93954310275 ; 9940397.460724588 ; 2.2905539642065674E7 ; 27846.000000000004
118 ; 94242.72405525985 ; 272095.3978250571 ; 1.0035261583426256E7 ; 2.3176187581608776E7 ; 28084.000000000004
119 ; 93937.18322194363 ; 273541.81630755385 ; 1.0129504307481516E7 ; 2.3448282979433835E7 ; 28322.000000000004
120 ; 93077.66471095801 ; 274987.10769479984 ; 1.022344149070346E7 ; 2.3721824795741387E7 ; 28560.000000000004
121 ; 92638.10268655185 ; 276431.18640882865 ; 1.0316519155414417E7 ; 2.3996811903436188E7 ; 28798.000000000004
122 ; 91976.37307160273 ; 277873.96853409125 ; 1.040915725810097E7 ; 2.4273243089845017E7 ; 29036.000000000004
123 ; 91693.00499959315 ; 279315.3717641642 ; 1.0501133631172573E7 ; 2.4551117058379106E7 ; 29274.000000000004
124 ; 90823.54166785508 ; 280755.3153504904 ; 1.0592826636172166E7 ; 2.483043243014327E7 ; 29512.000000000004
125 ; 90505.84482145104 ; 282193.7200530708 ; 1.068365017784002E7 ; 2.5111187745493762E7 ; 29750.000000000004
126 ; 89216.13241447965 ; 283630.50809302885 ; 1.0774156022661472E7 ; 2.539338146554683E7 ; 29988.000000000004
127 ; 88996.59286947382 ; 285065.6031069716 ; 1.086337215507595E7 ; 2.567701197363986E7 ; 30226.000000000004
128 ; 88369.42687625517 ; 286498.9301030775 ; 1.0952368747945424E7 ; 2.5962077576746833E7 ; 30464.000000000004
129 ; 87576.87821964742 ; 287930.4154188393 ; 1.1040738174821679E7 ; 2.624857650684991E7 ; 30702.000000000004
130 ; 86465.17099912518 ; 289359.9866803966 ; 1.1128315053041326E7 ; 2.6536506922268752E7 ; 30940.000000000004
131 ; 86018.12183288808 ; 290787.57276339515 ; 1.121478022404045E7 ; 2.6825866908949148E7 ; 31178.000000000004
132 ; 85071.86308142362 ; 292213.1037553101 ; 1.130079834587334E7 ; 2.7116654481712542E7 ; 31416.000000000004
133 ; 84491.385006615 ; 293636.51091917604 ; 1.1385870208954763E7 ; 2.7408867585467853E7 ; 31654.000000000004
134 ; 84238.50173542734 ; 295057.7266586668 ; 1.1470361593961379E7 ; 2.770250409638703E7 ; 31892.000000000004
135 ; 82815.01163011558 ; 296476.68448447186 ; 1.1554600095696805E7 ; 2.7997561823045697E7 ; 32130.000000000004
136 ; 81794.87531709131 ; 297893.3189819166 ; 1.1637415107326921E7 ; 2.8294038507530168E7 ; 32368.000000000004
137 ; 81484.55481303965 ; 299307.565779778 ; 1.1719209982644012E7 ; 2.8591931826512083E7 ; 32606.000000000004
138 ; 80381.28888386529 ; 300719.3615202482 ; 1.1800694537457053E7 ; 2.8891239392291863E7 ; 32844.00000000001
139 ; 79616.09519387885 ; 302128.64382999955 ; 1.1881075826340917E7 ; 2.9191958753812112E7 ; 33082.00000000001
140 ; 78634.40174769453 ; 303535.3512923082 ; 1.1960691921534797E7 ; 2.9494087397642113E7 ; 33320.00000000001
141 ; 77814.27325978121 ; 304939.4234201947 ; 1.2039326323282491E7 ; 2.979762274893442E7 ; 33558.00000000001
142 ; 76845.15242198945 ; 306340.8006305412 ; 1.2117140596542273E7 ; 3.0102562172354616E7 ; 33796.00000000001
143 ; 75899.84772762758 ; 307739.4242191464 ; 1.2193985748964261E7 ; 3.0408902972985156E7 ; 34034.00000000001
144 ; 75031.61424583182 ; 309135.23633668275 ; 1.226988559669189E7 ; 3.0716642397204302E7 ; 34272.00000000001
145 ; 74744.12599178066 ; 310528.17996551894 ; 1.2344917210937722E7 ; 3.1025777633540984E7 ; 34510.00000000001
146 ; 74064.37808657838 ; 311918.19889737555 ; 1.2419661336929502E7 ; 3.1336305813506503E7 ; 34748.00000000001
147 ; 74354.83357199273 ; 313305.2377117803 ; 1.249372571501608E7 ; 3.164822401240388E7 ; 34986.00000000001
148 ; 73991.8242716424 ; 314689.2417552922 ; 1.2568080548588073E7 ; 3.196152925011566E7 ; 35224.00000000001
149 ; 73870.59385690956 ; 316070.15712146537 ; 1.2642072372859715E7 ; 3.227621849187095E7 ; 35462.00000000001
150 ; 73767.5536337811 ; 317447.9306315225 ; 1.2715942966716625E7 ; 3.2592288648992416E7 ; 35700.00000000001
151 ; 73622.20493065836 ; 318822.50981571263 ; 1.2789710520350406E7 ; 3.2909736579623938E7 ; 35938.00000000001
152 ; 73264.29253635975 ; 320193.84289532545 ; 1.2863332725281063E7 ; 3.322855908943965E7 ; 36176.00000000001
153 ; 72728.63787009488 ; 321561.8787653377 ; 1.2936597017817423E7 ; 3.3548752932334974E7 ; 36414.00000000001
154 ; 72793.7707515715 ; 322926.566977667 ; 1.3009325655687518E7 ; 3.387031481110031E7 ; 36652.00000000001
155 ; 72209.82248311801 ; 324287.8577250107 ; 1.308211942643909E7 ; 3.419324137807798E7 ; 36890.00000000001
156 ; 72185.1036979118 ; 325645.70182524744 ; 1.3154329248922208E7 ; 3.4517529235802986E7 ; 37128.00000000001
157 ; 71789.2742873079 ; 327000.05070637894 ; 1.322651435262012E7 ; 3.484317493762823E7 ; 37366.00000000001
158 ; 71522.67936527781 ; 328350.85639199364 ; 1.3298303626907427E7 ; 3.517017498833461E7 ; 37604.00000000001
159 ; 71239.01758508386 ; 329698.0714872315 ; 1.3369826306272704E7 ; 3.549852584472661E7 ; 37842.00000000001
160 ; 70964.27904303295 ; 331041.6491652303 ; 1.3441065323857788E7 ; 3.582822391621384E7 ; 38080.00000000001
161 ; 70562.03833821171 ; 332381.54315403744 ; 1.3512029602900822E7 ; 3.615926556537907E7 ; 38318.00000000001
162 ; 70386.48754908942 ; 333717.7077239685 ; 1.3582591641239034E7 ; 3.649164710853311E7 ; 38556.00000000001
163 ; 70120.96866093646 ; 335050.0976753964 ; 1.3652978128788123E7 ; 3.6825364816257074E7 ; 38794.00000000001
164 ; 69439.86932865105 ; 336378.6683269552 ; 1.3723099097449059E7 ; 3.716041491393247E7 ; 39032.00000000001
165 ; 69363.28458282746 ; 337703.3755041429 ; 1.379253896677771E7 ; 3.7496793582259424E7 ; 39270.00000000001
166 ; 69354.80182031915 ; 339024.1755283102 ; 1.3861902251360537E7 ; 3.783449695776357E7 ; 39508.00000000001
167 ; 69033.13829576425 ; 340341.02520601806 ; 1.3931257053180857E7 ; 3.817352113329188E7 ; 39746.00000000001
168 ; 68309.77080503551 ; 341653.881818754 ; 1.400029019147662E7 ; 3.851386215849789E7 ; 39984.00000000001
169 ; 68073.574892102 ; 342962.7031129914 ; 1.4068599962281656E7 ; 3.885551604031665E7 ; 40222.00000000001
170 ; 67717.77859146529 ; 344267.44729058095 ; 1.4136673537173757E7 ; 3.919847874342964E7 ; 40460.00000000001
171 ; 67173.2717089634 ; 345568.0729994617 ; 1.4204391315765223E7 ; 3.954274619072022E7 ; 40698.00000000001
172 ; 67080.51775674445 ; 346864.53932468063 ; 1.4271564587474186E7 ; 3.9888314263719685E7 ; 40936.00000000001
173 ; 66610.52718805838 ; 348156.80577970785 ; 1.4338645105230931E7 ; 4.0235178803044364E7 ; 41174.00000000001
174 ; 66949.74235731279 ; 349444.83229804056 ; 1.440525563241899E7 ; 4.0583335608824074E7 ; 41412.00000000001
175 ; 67436.90373089167 ; 350728.5792250812 ; 1.4472205374776304E7 ; 4.0932780441122115E7 ; 41650.00000000001
176 ; 67148.2336268319 ; 352008.0073102832 ; 1.4539642278507195E7 ; 4.128350902034719E7 ; 41888.00000000001
177 ; 67198.52080279888 ; 353283.0776995535 ; 1.4606790512134027E7 ; 4.163551702765748E7 ; 42126.00000000001
178 ; 67610.42247000753 ; 354553.75192790286 ; 1.4673989032936826E7 ; 4.1988800105357036E7 ; 42364.00000000001
179 ; 67786.90053354466 ; 355819.99191233556 ; 1.4741599455406833E7 ; 4.234335385728494E7 ; 42602.00000000001
180 ; 68123.15664295042 ; 357081.75994497014 ; 1.4809386355940377E7 ; 4.2699173849197276E7 ; 42840.00000000001
181 ; 67992.06350185908 ; 358339.0186863823 ; 1.4877509512583328E7 ; 4.3056255609142244E7 ; 43078.00000000001
