CSV File for the Network on Day 131
1 - Minute m 
2 - Power Consumed at minute m 
3 - Power Produced at minute m 
4 - Energy Consumed since the beginning of the day 
5 - Energy Produced since the beginning of the day 
6 - Energy Lost since the beginning of the day 
 
No Production city : 2, Producer : 1
No Production city : 4, Producer : 1
No Production city : 4, Producer : 1
 
0 ; 57893.68863806755 ; 170803.78564019574 ; 0.0 ; 0.0 ; 0.0
1 ; 59382.87265961741 ; 170462.91699130306 ; 57893.68863806755 ; 170803.78564019574 ; 238.00000000000003
2 ; 60690.018976975276 ; 170156.86974925388 ; 117276.56129768497 ; 341266.7026314988 ; 476.00000000000006
3 ; 61554.21373817614 ; 169885.9893903352 ; 177966.58027466026 ; 511423.57238075265 ; 714.0000000000001
4 ; 62638.93129766165 ; 169650.58519492808 ; 239520.7940128364 ; 681309.5617710878 ; 952.0000000000001
5 ; 63432.479949206405 ; 169450.9286451322 ; 302159.72531049803 ; 850960.1469660159 ; 1190.0000000000002
6 ; 64786.357603482626 ; 169287.2519931722 ; 365592.20525970444 ; 1020411.0756111481 ; 1428.0000000000002
7 ; 65684.18424048691 ; 169159.74701799828 ; 430378.56286318705 ; 1189698.3276043204 ; 1666.0000000000002
8 ; 66789.70108841507 ; 169068.56398553672 ; 496062.747103674 ; 1358858.0746223186 ; 1904.0000000000002
9 ; 67602.29315540212 ; 169013.81082574345 ; 562852.4481920891 ; 1527926.6386078554 ; 2142.0000000000005
10 ; 68428.23924333042 ; 168995.55253702393 ; 630454.7413474913 ; 1696940.449433599 ; 2380.0000000000005
11 ; 69793.26453653815 ; 169013.81082574345 ; 698882.9805908217 ; 1865936.001970623 ; 2618.0000000000005
12 ; 70758.77611301742 ; 169068.56398553672 ; 768676.2451273599 ; 2034949.8127963664 ; 2856.0000000000005
13 ; 71416.37946687714 ; 169159.74701799828 ; 839435.0212403773 ; 2204018.376781903 ; 3094.0000000000005
14 ; 72563.88051551077 ; 169287.2519931722 ; 910851.4007072544 ; 2373178.1237999015 ; 3332.0000000000005
15 ; 73507.02376960321 ; 169450.9286451322 ; 983415.2812227652 ; 2542465.375793074 ; 3570.0000000000005
16 ; 74595.71254808448 ; 169650.58519492808 ; 1056922.3049923684 ; 2711916.304438206 ; 3808.0000000000005
17 ; 75015.7697604846 ; 169885.9893903351 ; 1131518.017540453 ; 2881566.889633134 ; 4046.0000000000005
18 ; 75918.28719871219 ; 170156.86974925388 ; 1206533.7873009376 ; 3051452.879023469 ; 4284.000000000001
19 ; 76899.18038358315 ; 170462.91699130298 ; 1282452.0744996497 ; 3221609.748772723 ; 4522.000000000001
20 ; 77616.02326656561 ; 170803.78564019574 ; 1359351.2548832328 ; 3392072.6657640263 ; 4760.000000000001
21 ; 78664.35069871778 ; 171179.09577790045 ; 1436967.2781497983 ; 3562876.4514042223 ; 4998.000000000001
22 ; 79144.74820534838 ; 171588.43493039135 ; 1515631.6288485161 ; 3734055.5471821227 ; 5236.000000000001
23 ; 80135.19031462724 ; 172031.3600640047 ; 1594776.3770538645 ; 3905643.982112514 ; 5474.000000000001
24 ; 81119.80344503009 ; 172507.39967101006 ; 1674911.5673684918 ; 4077675.3421765184 ; 5712.000000000001
25 ; 81934.12961519572 ; 173016.055922996 ; 1756031.3708135218 ; 4250182.741847528 ; 5950.000000000001
26 ; 82228.41931462316 ; 173556.8068710028 ; 1837965.5004287176 ; 4423198.797770524 ; 6188.000000000001
27 ; 83068.32073569612 ; 174129.10867200023 ; 1920193.9197433407 ; 4596755.604641527 ; 6426.000000000001
28 ; 83679.37519655922 ; 174732.39782225734 ; 2003262.2404790367 ; 4770884.713313527 ; 6664.000000000001
29 ; 84356.40930780585 ; 175366.09337934447 ; 2086941.6156755958 ; 4945617.111135785 ; 6902.000000000001
30 ; 85196.005579834 ; 176029.59915589576 ; 2171298.024983402 ; 5120983.204515129 ; 7140.000000000001
31 ; 85995.18836263071 ; 176722.3058698032 ; 2256494.0305632357 ; 5297012.803671025 ; 7378.000000000001
32 ; 86623.08437542286 ; 177443.59323716318 ; 2342489.2189258663 ; 5473735.109540828 ; 7616.000000000001
33 ; 87372.05473288397 ; 178192.83199600226 ; 2429112.303301289 ; 5651178.702777991 ; 7854.000000000001
34 ; 88232.45322619965 ; 178969.38585054918 ; 2516484.358034173 ; 5829371.534773993 ; 8092.000000000001
35 ; 88756.73846643112 ; 179772.61332753435 ; 2604716.811260373 ; 6008340.920624542 ; 8330.000000000002
36 ; 89259.10696399066 ; 180601.86953767933 ; 2693473.549726804 ; 6188113.533952076 ; 8568.000000000002
37 ; 90185.59736009155 ; 181456.50783713782 ; 2782732.6566907945 ; 6368715.4034897555 ; 8806.000000000002
38 ; 90529.241476605 ; 182335.88138516629 ; 2872918.2540508863 ; 6550171.911326894 ; 9044.000000000002
39 ; 91013.62241171396 ; 183239.34459570138 ; 2963447.4955274914 ; 6732507.79271206 ; 9282.000000000002
40 ; 91424.13425552976 ; 184166.2544818023 ; 3054461.1179392054 ; 6915747.137307761 ; 9520.000000000002
41 ; 92409.67087588416 ; 185115.97189307085 ; 3145885.252194735 ; 7099913.391789564 ; 9758.000000000002
42 ; 92849.67139806566 ; 186087.86264717716 ; 3238294.9230706193 ; 7285029.363682635 ; 9996.000000000002
43 ; 93098.65498079023 ; 187081.29855750964 ; 3331144.594468685 ; 7471117.226329812 ; 10234.000000000002
44 ; 93879.30599224968 ; 188095.65835972063 ; 3424243.249449475 ; 7658198.5248873215 ; 10472.000000000002
45 ; 94202.04997404585 ; 189130.32854057368 ; 3518122.555441725 ; 7846294.183247042 ; 10710.000000000002
46 ; 94977.22823529004 ; 190184.70407300637 ; 3612324.605415771 ; 8035424.511787616 ; 10948.000000000002
47 ; 95248.0598780358 ; 191258.18906172947 ; 3707301.8336510607 ; 8225609.215860622 ; 11186.000000000002
48 ; 95851.81509062681 ; 192350.1973039795 ; 3802549.8935290966 ; 8416867.404922351 ; 11424.000000000002
49 ; 96118.97483902292 ; 193460.1527702535 ; 3898401.7086197236 ; 8609217.60222633 ; 11662.000000000002
50 ; 96648.05000371902 ; 194587.49000998135 ; 3994520.6834587464 ; 8802677.754996583 ; 11900.000000000002
51 ; 97251.5743518708 ; 195731.654487145 ; 4091168.7334624655 ; 8997265.245006565 ; 12138.000000000002
52 ; 97416.92712730973 ; 196892.10285084872 ; 4188420.3078143364 ; 9192996.89949371 ; 12376.000000000002
53 ; 98096.63225504085 ; 198068.303145782 ; 4285837.234941646 ; 9389889.002344558 ; 12614.000000000002
54 ; 98716.93835301619 ; 199259.7349674146 ; 4383933.8671966875 ; 9587957.30549034 ; 12852.000000000002
55 ; 98754.21841289931 ; 200465.88956661787 ; 4482650.805549704 ; 9787217.040457753 ; 13090.000000000002
56 ; 99295.77610883316 ; 201686.26990824201 ; 4581405.023962603 ; 9987682.93002437 ; 13328.000000000002
57 ; 100140.70155955019 ; 202920.39068797822 ; 4680700.800071436 ; 1.0189369199932612E7 ; 13566.000000000002
58 ; 99871.36094245627 ; 204167.77831163167 ; 4780841.501630986 ; 1.039228959062059E7 ; 13804.000000000002
59 ; 100429.50990375521 ; 205427.97084070506 ; 4880712.862573442 ; 1.0596457368932223E7 ; 14042.000000000002
60 ; 100478.33212138241 ; 206700.51790796735 ; 4981142.372477197 ; 1.0801885339772929E7 ; 14280.000000000002
61 ; 101008.14343123141 ; 207984.98060644753 ; 5081620.70459858 ; 1.1008585857680896E7 ; 14518.000000000002
62 ; 101417.66719443165 ; 209280.9313550643 ; 5182628.848029811 ; 1.1216570838287344E7 ; 14756.000000000002
63 ; 101437.0055946317 ; 210587.95374387156 ; 5284046.515224243 ; 1.1425851769642409E7 ; 14994.000000000002
64 ; 101459.05431327045 ; 211905.6423616767 ; 5385483.520818874 ; 1.163643972338628E7 ; 15232.000000000002
65 ; 101341.50967010757 ; 213233.60260857196 ; 5486942.575132145 ; 1.1848345365747957E7 ; 15470.000000000002
66 ; 102241.7281906158 ; 214571.4504957076 ; 5588284.084802252 ; 1.206157896835653E7 ; 15708.000000000002
67 ; 102556.09698944974 ; 215918.81243443835 ; 5690525.812992868 ; 1.2276150418852236E7 ; 15946.000000000002
68 ; 102635.8137828142 ; 217275.32501678352 ; 5793081.909982318 ; 1.2492069231286675E7 ; 16184.000000000002
69 ; 103057.540988822 ; 218640.63478895914 ; 5895717.723765132 ; 1.2709344556303458E7 ; 16422.000000000004
70 ; 102660.2449495476 ; 220014.39801957613 ; 5998775.2647539545 ; 1.2927985191092417E7 ; 16660.000000000004
71 ; 103487.28459702226 ; 221396.2804639346 ; 6101435.509703502 ; 1.3147999589111993E7 ; 16898.000000000004
72 ; 102830.57526146524 ; 222785.95712570017 ; 6204922.7943005245 ; 1.3369395869575927E7 ; 17136.000000000004
73 ; 103796.48823563734 ; 224183.1120171096 ; 6307753.36956199 ; 1.3592181826701628E7 ; 17374.000000000004
74 ; 103114.4949501613 ; 225587.43791872615 ; 6411549.857797627 ; 1.3816364938718738E7 ; 17612.000000000004
75 ; 104070.45786751767 ; 226998.63613964632 ; 6514664.352747789 ; 1.4041952376637464E7 ; 17850.000000000004
76 ; 103528.20105981505 ; 228416.41627895428 ; 6618734.810615307 ; 1.426895101277711E7 ; 18088.000000000004
77 ; 103267.2604956894 ; 229840.49598911873 ; 6722263.011675122 ; 1.4497367429056065E7 ; 18326.000000000004
78 ; 104074.7381081793 ; 231270.60074193854 ; 6825530.272170812 ; 1.4727207925045185E7 ; 18564.000000000004
79 ; 104080.67390656969 ; 232706.4635975584 ; 6929605.010278991 ; 1.4958478525787123E7 ; 18802.000000000004
80 ; 103713.14125715334 ; 234147.82497700505 ; 7033685.684185561 ; 1.5191184989384681E7 ; 19040.000000000004
81 ; 103882.49015831032 ; 235594.43243862144 ; 7137398.825442714 ; 1.5425332814361686E7 ; 19278.000000000004
82 ; 103873.74662562649 ; 237046.04045872003 ; 7241281.315601024 ; 1.5660927246800307E7 ; 19516.000000000004
83 ; 103755.85622106661 ; 238502.41021671638 ; 7345155.06222665 ; 1.5897973287259027E7 ; 19754.000000000004
84 ; 103566.66881635955 ; 239963.30938495914 ; 7448910.918447717 ; 1.6136475697475744E7 ; 19992.000000000004
85 ; 103942.72267190955 ; 241428.5119234243 ; 7552477.587264077 ; 1.6376439006860703E7 ; 20230.000000000004
86 ; 104012.76886047976 ; 242897.79787940343 ; 7656420.309935986 ; 1.6617867518784128E7 ; 20468.000000000004
87 ; 103395.04753521309 ; 244370.9531922818 ; 7760433.078796466 ; 1.686076531666353E7 ; 20706.000000000004
88 ; 103884.66390379726 ; 245847.76950346687 ; 7863828.126331679 ; 1.7105136269855812E7 ; 20944.000000000004
89 ; 103657.96861839882 ; 247328.0439715054 ; 7967712.790235476 ; 1.735098403935928E7 ; 21182.000000000004
90 ; 103407.8546576273 ; 248811.57909239767 ; 8071370.758853874 ; 1.7598312083330784E7 ; 21420.000000000004
91 ; 103186.34305650933 ; 250298.18252510033 ; 8174778.613511502 ; 1.7847123662423182E7 ; 21658.000000000004
92 ; 103619.62007529158 ; 251787.66692218822 ; 8277964.956568011 ; 1.8097421844948284E7 ; 21896.000000000004
93 ; 102739.93402577167 ; 253279.84976563018 ; 8381584.576643303 ; 1.8349209511870474E7 ; 22134.000000000004
94 ; 102598.00726749409 ; 254774.55320762002 ; 8484324.510669075 ; 1.8602489361636102E7 ; 22372.000000000004
95 ; 102683.65154519725 ; 256271.6039163927 ; 8586922.517936569 ; 1.8857263914843723E7 ; 22610.000000000004
96 ; 102776.15407448976 ; 257770.83292694346 ; 8689606.169481765 ; 1.9113535518760115E7 ; 22848.000000000004
97 ; 102296.49288209576 ; 259272.07549656244 ; 8792382.323556256 ; 1.937130635168706E7 ; 23086.000000000004
98 ; 102191.50385873037 ; 260775.17096508722 ; 8894678.81643835 ; 1.963057842718362E7 ; 23324.000000000004
99 ; 101973.6742710676 ; 262279.9626197722 ; 8996870.320297081 ; 1.9891353598148707E7 ; 23562.000000000004
100 ; 101864.1676251307 ; 263786.297564668 ; 9098843.994568149 ; 2.0153633560768478E7 ; 23800.000000000004
101 ; 101737.55323195583 ; 265294.026594402 ; 9200708.16219328 ; 2.0417419858333144E7 ; 24038.000000000004
102 ; 101570.2167724338 ; 266803.0040722452 ; 9302445.715425236 ; 2.0682713884927545E7 ; 24276.000000000004
103 ; 100610.63621519305 ; 268313.0878123545 ; 9404015.93219767 ; 2.094951688899979E7 ; 24514.000000000004
104 ; 100872.52123420827 ; 269824.13896607107 ; 9504626.568412863 ; 2.1217829976812143E7 ; 24752.000000000004
105 ; 100890.49117317186 ; 271336.0219121621 ; 9605499.089647071 ; 2.1487654115778215E7 ; 24990.000000000004
106 ; 100044.38995623917 ; 272848.6041508881 ; 9706389.580820244 ; 2.1758990137690376E7 ; 25228.000000000004
107 ; 100034.59088549686 ; 274361.7562017815 ; 9806433.970776483 ; 2.2031838741841264E7 ; 25466.000000000004
108 ; 99379.00383726467 ; 275875.35150502075 ; 9906468.561661981 ; 2.2306200498043045E7 ; 25704.000000000004
109 ; 99326.91530033981 ; 277389.2663262876 ; 1.0005847565499246E7 ; 2.2582075849548068E7 ; 25942.000000000004
110 ; 99358.1713160528 ; 278903.37966499577 ; 1.0105174480799586E7 ; 2.2859465115874354E7 ; 26180.000000000004
111 ; 98722.34178438435 ; 280417.57316578086 ; 1.020453265211564E7 ; 2.313836849553935E7 ; 26418.000000000004
112 ; 98532.25555380991 ; 281931.73103314306 ; 1.0303254993900023E7 ; 2.341878606870513E7 ; 26656.000000000004
113 ; 97819.88629689242 ; 283445.7399491378 ; 1.0401787249453833E7 ; 2.3700717799738273E7 ; 26894.000000000004
114 ; 97490.27641165616 ; 284959.4889940099 ; 1.0499607135750726E7 ; 2.398416353968741E7 ; 27132.000000000004
115 ; 97291.75791867275 ; 286472.8695696713 ; 1.0597097412162382E7 ; 2.426912302868142E7 ; 27370.000000000004
116 ; 96761.1785425418 ; 287985.7753259222 ; 1.0694389170081055E7 ; 2.455559589825109E7 ; 27608.000000000004
117 ; 95824.3162174891 ; 289498.10208932107 ; 1.0791150348623596E7 ; 2.484358167357701E7 ; 27846.000000000004
118 ; 95486.26031099175 ; 291009.7477946097 ; 1.0886974664841086E7 ; 2.513307977566633E7 ; 28084.000000000004
119 ; 95395.39891666897 ; 292520.6124186015 ; 1.0982460925152078E7 ; 2.542408952346094E7 ; 28322.000000000004
120 ; 94547.25980887214 ; 294030.59791644674 ; 1.1077856324068747E7 ; 2.5716610135879543E7 ; 28560.000000000004
121 ; 94540.87323102834 ; 295539.6081601877 ; 1.117240358387762E7 ; 2.601064073379599E7 ; 28798.000000000004
122 ; 93816.08568869419 ; 297047.548879522 ; 1.1266944457108648E7 ; 2.6306180341956176E7 ; 29036.000000000004
123 ; 93070.56175519728 ; 298554.32760469295 ; 1.1360760542797342E7 ; 2.66032278908357E7 ; 29274.000000000004
124 ; 92266.835574892 ; 300059.85361143004 ; 1.1453831104552539E7 ; 2.690178221844039E7 ; 29512.000000000004
125 ; 92078.50696715304 ; 301564.03786786454 ; 1.154609794012743E7 ; 2.720184207205182E7 ; 29750.000000000004
126 ; 91717.56596768726 ; 303066.79298334685 ; 1.1638176447094584E7 ; 2.7503406109919682E7 ; 29988.000000000004
127 ; 90921.00997409639 ; 304568.03315909626 ; 1.172989401306227E7 ; 2.7806472902903028E7 ; 30226.000000000004
128 ; 90386.03510078762 ; 306067.6741406154 ; 1.1820815023036366E7 ; 2.8111040936062124E7 ; 30464.000000000004
129 ; 89805.96566945178 ; 307565.63317180396 ; 1.1911201058137154E7 ; 2.8417108610202737E7 ; 30702.000000000004
130 ; 89177.8842575611 ; 309061.8289507082 ; 1.2001007023806605E7 ; 2.872467424337454E7 ; 30940.000000000004
131 ; 88384.5865515011 ; 310556.1815868467 ; 1.2090184908064166E7 ; 2.903373607232525E7 ; 31178.000000000004
132 ; 88170.36417030431 ; 312048.61256005213 ; 1.2178569494615667E7 ; 2.9344292253912095E7 ; 31416.000000000004
133 ; 87295.19037834191 ; 313539.0446807741 ; 1.226673985878597E7 ; 2.9656340866472147E7 ; 31654.000000000004
134 ; 86571.03695798945 ; 315027.4020517883 ; 1.2354035049164312E7 ; 2.996987991115292E7 ; 31892.000000000004
135 ; 85292.4786839486 ; 316513.61003125866 ; 1.24406060861223E7 ; 3.028490731320471E7 ; 32130.000000000004
136 ; 84827.16257539134 ; 317997.5951971035 ; 1.2525898564806249E7 ; 3.0601420923235968E7 ; 32368.000000000004
137 ; 84562.55319907652 ; 319479.2853126158 ; 1.2610725727381641E7 ; 3.091941851843307E7 ; 32606.000000000004
138 ; 83798.95125440594 ; 320958.60929329204 ; 1.2695288280580718E7 ; 3.1238897803745687E7 ; 32844.00000000001
139 ; 82775.67522651759 ; 322435.49717482395 ; 1.2779087231835123E7 ; 3.155985641303898E7 ; 33082.00000000001
140 ; 82408.55873217224 ; 323909.88008220965 ; 1.286186290706164E7 ; 3.1882291910213806E7 ; 33320.00000000001
141 ; 81614.52783204953 ; 325381.69019994314 ; 1.2944271465793813E7 ; 3.2206201790296014E7 ; 33558.00000000001
142 ; 80795.61881510672 ; 326850.8607432419 ; 1.3025885993625863E7 ; 3.2531583480495956E7 ; 33796.00000000001
143 ; 79724.99637121662 ; 328317.3259302742 ; 1.310668161244097E7 ; 3.28584343412392E7 ; 34034.00000000001
144 ; 79248.20013757481 ; 329781.0209553481 ; 1.3186406608812187E7 ; 3.3186751667169474E7 ; 34272.00000000001
145 ; 78700.97400519717 ; 331241.88196302817 ; 1.3265654808949761E7 ; 3.351653268812482E7 ; 34510.00000000001
146 ; 78580.47700292793 ; 332699.84602314414 ; 1.3344355782954957E7 ; 3.384777457008785E7 ; 34748.00000000001
147 ; 78257.29805461093 ; 334154.8511066596 ; 1.3422936259957885E7 ; 3.418047441611099E7 ; 34986.00000000001
148 ; 77896.24562834484 ; 335606.8360623682 ; 1.3501193558012497E7 ; 3.451462926721765E7 ; 35224.00000000001
149 ; 77779.09126651254 ; 337055.7405943874 ; 1.3579089803640842E7 ; 3.485023610328002E7 ; 35462.00000000001
150 ; 78180.52698743893 ; 338501.50524042035 ; 1.3656868894907355E7 ; 3.518729184387441E7 ; 35700.00000000001
151 ; 77447.75430779287 ; 339944.07135075814 ; 1.3735049421894794E7 ; 3.552579334911483E7 ; 35938.00000000001
152 ; 77082.75839278547 ; 341383.3810679942 ; 1.3812497176202588E7 ; 3.586573742046559E7 ; 36176.00000000001
153 ; 76987.79260418875 ; 342819.3773074261 ; 1.3889579934595373E7 ; 3.620712080153358E7 ; 36414.00000000001
154 ; 76686.74863266203 ; 344252.003738119 ; 1.3966567727199562E7 ; 3.6549940178841E7 ; 36652.00000000001
155 ; 76469.32758111194 ; 345681.2047646066 ; 1.4043254475832224E7 ; 3.689419218257912E7 ; 36890.00000000001
156 ; 76416.06522716471 ; 347106.92550920765 ; 1.4119723803413335E7 ; 3.723987338734373E7 ; 37128.00000000001
157 ; 75884.17554038054 ; 348529.1117949332 ; 1.41961398686405E7 ; 3.7586980312852934E7 ; 37366.00000000001
158 ; 75519.73779300213 ; 349947.7101289666 ; 1.427202404418088E7 ; 3.793550942464787E7 ; 37604.00000000001
159 ; 75666.96622606876 ; 351362.66768669244 ; 1.4347543781973882E7 ; 3.828545713477683E7 ; 37842.00000000001
160 ; 75073.84842073718 ; 352773.93229625706 ; 1.442321074819995E7 ; 3.8636819802463524E7 ; 38080.00000000001
161 ; 74747.19446351092 ; 354181.45242364006 ; 1.4498284596620688E7 ; 3.898959373475978E7 ; 38318.00000000001
162 ; 74453.19971697255 ; 355585.1771582199 ; 1.4573031791084198E7 ; 3.934377518718342E7 ; 38556.00000000001
163 ; 73723.11540915894 ; 356985.05619881395 ; 1.464748499080117E7 ; 3.969936036434164E7 ; 38794.00000000001
164 ; 73905.754224997 ; 358381.03984017856 ; 1.4721208106210329E7 ; 4.005634542054045E7 ; 39032.00000000001
165 ; 73858.26177374099 ; 359773.078959951 ; 1.4795113860435326E7 ; 4.041472646038063E7 ; 39270.00000000001
166 ; 73362.27297478849 ; 361161.12500601844 ; 1.4868972122209067E7 ; 4.077449953934058E7 ; 39508.00000000001
167 ; 72780.09756448584 ; 362545.12998429884 ; 1.4942334395183856E7 ; 4.11356606643466E7 ; 39746.00000000001
168 ; 72707.28040400776 ; 363925.0464469187 ; 1.501511449274834E7 ; 4.1498205794330895E7 ; 39984.00000000001
169 ; 72338.63934205004 ; 365300.8274807748 ; 1.5087821773152348E7 ; 4.1862130840777814E7 ; 40222.00000000001
170 ; 71815.4952114412 ; 366672.42669646547 ; 1.5160160412494397E7 ; 4.222743166825859E7 ; 40460.00000000001
171 ; 71648.22483103922 ; 368039.7982175792 ; 1.5231975907705838E7 ; 4.259410409495506E7 ; 40698.00000000001
172 ; 71223.36631988219 ; 369402.8966703277 ; 1.5303624132536877E7 ; 4.296214389317264E7 ; 40936.00000000001
173 ; 71145.6736583937 ; 370761.6771735115 ; 1.5374847498856759E7 ; 4.333154678984296E7 ; 41174.00000000001
174 ; 70600.84485322813 ; 372116.09532880725 ; 1.5445993172515152E7 ; 4.370230846701647E7 ; 41412.00000000001
175 ; 70745.10727027598 ; 373466.10721136467 ; 1.551659401736838E7 ; 4.407442456234528E7 ; 41650.00000000001
176 ; 71025.5022003908 ; 374811.66936070303 ; 1.5587339124638656E7 ; 4.444789066955665E7 ; 41888.00000000001
177 ; 71092.86365592225 ; 376152.7387718971 ; 1.5658364626839047E7 ; 4.482270233891735E7 ; 42126.00000000001
178 ; 71382.95263652231 ; 377489.27288704173 ; 1.572945749049497E7 ; 4.519885507768925E7 ; 42364.00000000001
179 ; 71009.66767991711 ; 378821.2295869872 ; 1.5800840443131493E7 ; 4.55763443505763E7 ; 42602.00000000001
180 ; 71536.71991827957 ; 380148.56718333444 ; 1.587185011081141E7 ; 4.5955165580163285E7 ; 42840.00000000001
181 ; 71752.43162484937 ; 381471.2444106819 ; 1.594338683072969E7 ; 4.633531414734662E7 ; 43078.00000000001
