CSV File for the Network on Day 87
1 - Minute m 
2 - Power Consumed at minute m 
3 - Power Produced at minute m 
4 - Energy Consumed since the beginning of the day 
5 - Energy Produced since the beginning of the day 
6 - Energy Lost since the beginning of the day 
 
No Production city : 2, Producer : 1
No Production city : 4, Producer : 1
No Production city : 4, Producer : 1
 
0 ; 56882.91842250152 ; 168228.34392210012 ; 0.0 ; 0.0 ; 0.0
1 ; 57775.975964894955 ; 167884.1899894709 ; 56882.91842250152 ; 168228.34392210012 ; 238.00000000000003
2 ; 58449.42492898807 ; 167575.0868453663 ; 114658.89438739647 ; 336112.533911571 ; 476.00000000000006
3 ; 59225.472095517594 ; 167301.41702160757 ; 173108.31931638456 ; 503687.6207569373 ; 714.0000000000001
4 ; 59825.60957724636 ; 167063.52350087315 ; 232333.79141190214 ; 670989.0377785449 ; 952.0000000000001
5 ; 60576.46323008422 ; 166861.70776046254 ; 292159.40098914853 ; 838052.5612794181 ; 1190.0000000000002
6 ; 61324.335479721165 ; 166696.22801885952 ; 352735.86421923275 ; 1004914.2690398806 ; 1428.0000000000002
7 ; 62037.26347373069 ; 166567.29770852558 ; 414060.1996989539 ; 1171610.4970587401 ; 1666.0000000000002
8 ; 62767.75634560074 ; 166475.0841958309 ; 476097.4631726846 ; 1338177.7947672657 ; 1904.0000000000002
9 ; 63476.30248530851 ; 166419.7077659919 ; 538865.2195182854 ; 1504652.8789630965 ; 2142.0000000000005
10 ; 64155.20396522153 ; 166401.240887413 ; 602341.5220035939 ; 1671072.5867290883 ; 2380.0000000000005
11 ; 64751.34118242111 ; 166419.7077659919 ; 666496.7259688154 ; 1837473.8276165014 ; 2618.0000000000005
12 ; 65501.16049766625 ; 166475.0841958309 ; 731248.0671512365 ; 2003893.5353824932 ; 2856.0000000000005
13 ; 66222.38408923656 ; 166567.29770852558 ; 796749.2276489027 ; 2170368.6195783243 ; 3094.0000000000005
14 ; 66772.10001860769 ; 166696.22801885943 ; 862971.6117381393 ; 2336935.91728685 ; 3332.0000000000005
15 ; 67292.36525995843 ; 166861.70776046254 ; 929743.711756747 ; 2503632.1453057094 ; 3570.0000000000005
16 ; 68068.6331863549 ; 167063.52350087315 ; 997036.0770167054 ; 2670493.853066172 ; 3808.0000000000005
17 ; 68130.15683432395 ; 167301.41702160757 ; 1065104.7102030604 ; 2837557.376567045 ; 4046.0000000000005
18 ; 69251.21287133583 ; 167575.0868453664 ; 1133234.8670373843 ; 3004858.7935886527 ; 4284.000000000001
19 ; 69731.79178844759 ; 167884.1899894709 ; 1202486.0799087202 ; 3172433.880434019 ; 4522.000000000001
20 ; 70319.92535933256 ; 168228.3439221002 ; 1272217.8716971679 ; 3340318.07042349 ; 4760.000000000001
21 ; 70524.79590040684 ; 168607.1286959182 ; 1342537.7970565003 ; 3508546.41434559 ; 4998.000000000001
22 ; 71190.90172858213 ; 169020.08923227337 ; 1413062.592956907 ; 3677153.543041508 ; 5236.000000000001
23 ; 72248.27016121343 ; 169466.7377283226 ; 1484253.4946854892 ; 3846173.6322737816 ; 5474.000000000001
24 ; 72475.30074702151 ; 169946.55615915966 ; 1556501.7648467026 ; 4015640.370002104 ; 5712.000000000001
25 ; 72785.1370011773 ; 170458.9988472944 ; 1628977.0655937241 ; 4185586.9261612636 ; 5950.000000000001
26 ; 73285.87579437396 ; 171003.4950725733 ; 1701762.2025949014 ; 4356045.925008558 ; 6188.000000000001
27 ; 73695.20327639072 ; 171579.45169681928 ; 1775048.0783892754 ; 4527049.420081131 ; 6426.000000000001
28 ; 74201.52345155954 ; 172186.25577901542 ; 1848743.281665666 ; 4698628.871777951 ; 6664.000000000001
29 ; 74975.84480263754 ; 172823.27715871285 ; 1922944.8051172255 ; 4870815.127556967 ; 6902.000000000001
30 ; 74751.7662310294 ; 173489.87098742477 ; 1997920.649919863 ; 5043638.40471568 ; 7140.000000000001
31 ; 76077.08494858976 ; 174185.38019001388 ; 2072672.4161508924 ; 5217128.275703104 ; 7378.000000000001
32 ; 75951.94806963362 ; 174909.1378404232 ; 2148749.501099482 ; 5391313.655893118 ; 7616.000000000001
33 ; 76955.24456751565 ; 175660.46943847483 ; 2224701.4491691156 ; 5566222.793733541 ; 7854.000000000001
34 ; 77554.30252264874 ; 176438.69507681744 ; 2301656.6937366314 ; 5741883.263172016 ; 8092.000000000001
35 ; 77490.17966270048 ; 177243.13148939176 ; 2379210.99625928 ; 5918321.958248833 ; 8330.000000000002
36 ; 78200.5806168497 ; 178073.0939749647 ; 2456701.1759219803 ; 6095565.089738225 ; 8568.000000000002
37 ; 78320.43960784285 ; 178927.89819132388 ; 2534901.7565388298 ; 6273638.183713189 ; 8806.000000000002
38 ; 78904.98233559667 ; 179806.8618176054 ; 2613222.1961466726 ; 6452566.081904513 ; 9044.000000000002
39 ; 79601.28988507154 ; 180709.3060839298 ; 2692127.1784822694 ; 6632372.943722119 ; 9282.000000000002
40 ; 79763.9943405109 ; 181634.55716903255 ; 2771728.468367341 ; 6813082.249806048 ; 9520.000000000002
41 ; 79946.06940934964 ; 182581.94746789677 ; 2851492.462707852 ; 6994716.806975081 ; 9758.000000000002
42 ; 80518.59287582658 ; 183550.81673252909 ; 2931438.5321172015 ; 7177298.754442978 ; 9996.000000000002
43 ; 80459.55080297757 ; 184540.5130899618 ; 3011957.124993028 ; 7360849.571175506 ; 10234.000000000002
44 ; 80824.1161881393 ; 185550.3939423374 ; 3092416.675796006 ; 7545390.084265468 ; 10472.000000000002
45 ; 81193.20539596138 ; 186579.82675453677 ; 3173240.791984145 ; 7730940.478207805 ; 10710.000000000002
46 ; 82085.80184997778 ; 187628.18973526746 ; 3254433.9973801062 ; 7917520.304962342 ; 10948.000000000002
47 ; 82292.17869920166 ; 188694.87241784777 ; 3336519.799230084 ; 8105148.494697609 ; 11186.000000000002
48 ; 82334.70755785628 ; 189779.2761471175 ; 3418811.9779292853 ; 8293843.367115457 ; 11424.000000000002
49 ; 82790.41099274842 ; 190880.8144790003 ; 3501146.6854871414 ; 8483622.643262574 ; 11662.000000000002
50 ; 83237.62624321962 ; 191998.9134992397 ; 3583937.09647989 ; 8674503.457741575 ; 11900.000000000002
51 ; 83579.30283248871 ; 193133.01206774922 ; 3667174.7227231096 ; 8866502.371240815 ; 12138.000000000002
52 ; 83579.82545463597 ; 194282.56199488038 ; 3750754.0255555985 ; 9059635.383308565 ; 12376.000000000002
53 ; 83676.94031682644 ; 195447.02815570848 ; 3834333.8510102346 ; 9253917.945303446 ; 12614.000000000002
54 ; 84045.10901664625 ; 196625.88854820415 ; 3918010.791327061 ; 9449364.973459154 ; 12852.000000000002
55 ; 84759.69985876951 ; 197818.63430088718 ; 4002055.9003437073 ; 9645990.862007359 ; 13090.000000000002
56 ; 84629.83411396024 ; 199024.76963526921 ; 4086815.6002024766 ; 9843809.496308247 ; 13328.000000000002
57 ; 84462.52089128179 ; 200243.8117880822 ; 4171445.4343164368 ; 1.0042834265943516E7 ; 13566.000000000002
58 ; 84863.00123630746 ; 201475.2908979778 ; 4255907.955207719 ; 1.0243078077731598E7 ; 13804.000000000002
59 ; 85381.40767267723 ; 202718.7498610623 ; 4340770.956444026 ; 1.0444553368629577E7 ; 14042.000000000002
60 ; 85986.34456611208 ; 203973.74415931557 ; 4426152.364116703 ; 1.0647272118490638E7 ; 14280.000000000002
61 ; 85728.93685017509 ; 205239.84166563163 ; 4512138.708682816 ; 1.0851245862649953E7 ; 14518.000000000002
62 ; 85667.88512549027 ; 206516.62242891578 ; 4597867.645532991 ; 1.1056485704315584E7 ; 14756.000000000002
63 ; 86286.0032502319 ; 207803.67844238112 ; 4683535.530658481 ; 1.12630023267445E7 ; 14994.000000000002
64 ; 86405.7172405178 ; 209100.61339790796 ; 4769821.533908713 ; 1.1470806005186882E7 ; 15232.000000000002
65 ; 86471.3401584748 ; 210407.04242906568 ; 4856227.251149231 ; 1.167990661858479E7 ; 15470.000000000002
66 ; 86281.55838241152 ; 211722.59184514394 ; 4942698.591307705 ; 1.1890313661013855E7 ; 15708.000000000002
67 ; 86874.61248276118 ; 213046.89885830667 ; 5028980.149690117 ; 1.2102036252858998E7 ; 15946.000000000002
68 ; 86866.14465952825 ; 214379.61130576223 ; 5115854.762172878 ; 1.2315083151717305E7 ; 16184.000000000002
69 ; 87580.30755431442 ; 215720.38736863784 ; 5202720.906832406 ; 1.2529462763023067E7 ; 16422.000000000004
70 ; 86834.77419242504 ; 217068.8952890582 ; 5290301.214386721 ; 1.2745183150391705E7 ; 16660.000000000004
71 ; 87268.8309430357 ; 218424.81308675284 ; 5377135.988579147 ; 1.2962252045680763E7 ; 16898.000000000004
72 ; 87401.26605777431 ; 219787.8282763573 ; 5464404.819522182 ; 1.3180676858767517E7 ; 17136.000000000004
73 ; 87622.55874578102 ; 221157.63758642538 ; 5551806.085579957 ; 1.3400464687043874E7 ; 17374.000000000004
74 ; 87716.93438751868 ; 222533.94668103644 ; 5639428.644325738 ; 1.36216223246303E7 ; 17612.000000000004
75 ; 87905.24220192255 ; 223916.46988476015 ; 5727145.578713257 ; 1.3844156271311335E7 ; 17850.000000000004
76 ; 87826.81111371741 ; 225304.92991163 ; 5815050.820915179 ; 1.4068072741196096E7 ; 18088.000000000004
77 ; 87706.41865939256 ; 226699.0575986776 ; 5902877.632028896 ; 1.4293377671107726E7 ; 18326.000000000004
78 ; 87976.40683867114 ; 228098.5916444911 ; 5990584.050688289 ; 1.4520076728706405E7 ; 18564.000000000004
79 ; 87880.5805569378 ; 229503.27835317733 ; 6078560.45752696 ; 1.4748175320350897E7 ; 18802.000000000004
80 ; 87538.71877293756 ; 230912.87138403978 ; 6166441.038083898 ; 1.4977678598704074E7 ; 19040.000000000004
81 ; 87962.80972253911 ; 232327.1315072156 ; 6253979.756856835 ; 1.5208591470088113E7 ; 19278.000000000004
82 ; 87408.58388633907 ; 233745.82636546125 ; 6341942.5665793745 ; 1.544091860159533E7 ; 19516.000000000004
83 ; 87531.7812215071 ; 235168.73024222342 ; 6429351.150465714 ; 1.567466442796079E7 ; 19754.000000000004
84 ; 87966.18078845154 ; 236595.6238360888 ; 6516882.931687221 ; 1.5909833158203013E7 ; 19992.000000000004
85 ; 87792.95295994359 ; 238026.2940416659 ; 6604849.112475673 ; 1.6146428782039102E7 ; 20230.000000000004
86 ; 87840.76910870477 ; 239460.5337369188 ; 6692642.065435616 ; 1.6384455076080767E7 ; 20468.000000000004
87 ; 87986.69765484403 ; 240898.1415769416 ; 6780482.8345443215 ; 1.6623915609817686E7 ; 20706.000000000004
88 ; 87873.7322958382 ; 242338.92179413806 ; 6868469.532199166 ; 1.6864813751394626E7 ; 20944.000000000004
89 ; 87766.36709700765 ; 243782.6840047476 ; 6956343.264495004 ; 1.7107152673188765E7 ; 21182.000000000004
90 ; 87301.47765935888 ; 245229.2430216391 ; 7044109.631592012 ; 1.735093535719351E7 ; 21420.000000000004
91 ; 87415.59378712978 ; 246678.4186732802 ; 7131411.109251371 ; 1.7596164600215152E7 ; 21658.000000000004
92 ; 87141.56226433754 ; 248130.0356287739 ; 7218826.703038501 ; 1.7842843018888433E7 ; 21896.000000000004
93 ; 86982.02859268634 ; 249583.92322884427 ; 7305968.265302838 ; 1.8090973054517206E7 ; 22134.000000000004
94 ; 87214.54735956968 ; 251039.91532264292 ; 7392950.293895524 ; 1.834055697774605E7 ; 22372.000000000004
95 ; 86982.67990715441 ; 252497.85011024258 ; 7480164.841255094 ; 1.8591596893068694E7 ; 22610.000000000004
96 ; 86813.99342611719 ; 253957.56999067563 ; 7567147.521162248 ; 1.8844094743178938E7 ; 22848.000000000004
97 ; 86711.38061545594 ; 255418.92141537287 ; 7653961.514588365 ; 1.9098052313169613E7 ; 23086.000000000004
98 ; 86902.47811511999 ; 256881.75474685486 ; 7740672.895203821 ; 1.9353471234584987E7 ; 23324.000000000004
99 ; 86806.10790289479 ; 258345.92412252468 ; 7827575.373318941 ; 1.961035298933184E7 ; 23562.000000000004
100 ; 86473.97163033305 ; 259811.28732341144 ; 7914381.481221836 ; 1.9868698913454365E7 ; 23800.000000000004
101 ; 86552.67967603425 ; 261277.70564771292 ; 8000855.452852169 ; 2.0128510200777777E7 ; 24038.000000000004
102 ; 85927.702342568 ; 262745.04378898605 ; 8087408.132528204 ; 2.038978790642549E7 ; 24276.000000000004
103 ; 85941.40260627744 ; 264213.1697188354 ; 8173335.8348707715 ; 2.0652532950214475E7 ; 24514.000000000004
104 ; 86096.86579725164 ; 265681.95457395125 ; 8259277.237477049 ; 2.091674611993331E7 ; 24752.000000000004
105 ; 85433.87917710788 ; 267151.27254735096 ; 8345374.103274301 ; 2.1182428074507263E7 ; 24990.000000000004
106 ; 85297.87258312212 ; 268621.00078367966 ; 8430807.98245141 ; 2.1449579347054612E7 ; 25228.000000000004
107 ; 84885.54118471342 ; 270091.0192784293 ; 8516105.855034532 ; 2.171820034783829E7 ; 25466.000000000004
108 ; 84956.6214636178 ; 271561.21078093693 ; 8600991.396219246 ; 2.198829136711672E7 ; 25704.000000000004
109 ; 84797.49862077889 ; 273031.46070102847 ; 8685948.017682863 ; 2.2259852577897657E7 ; 25942.000000000004
110 ; 84222.43586682141 ; 274501.6570191752 ; 8770745.516303642 ; 2.2532884038598686E7 ; 26180.000000000004
111 ; 83894.79433260209 ; 275971.69020003505 ; 8854967.952170463 ; 2.2807385695617862E7 ; 26418.000000000004
112 ; 83782.43687862155 ; 277441.45310925425 ; 8938862.746503066 ; 2.3083357385817897E7 ; 26656.000000000004
113 ; 83411.4572008323 ; 278910.84093340725 ; 9022645.183381688 ; 2.336079883892715E7 ; 26894.000000000004
114 ; 83290.80797701186 ; 280379.7511029586 ; 9106056.64058252 ; 2.363970967986056E7 ; 27132.000000000004
115 ; 82783.55615486551 ; 281848.0832181318 ; 9189347.448559532 ; 2.3920089430963516E7 ; 27370.000000000004
116 ; 82745.32422543204 ; 283315.73897757626 ; 9272131.004714398 ; 2.4201937514181647E7 ; 27608.000000000004
117 ; 82237.84641699126 ; 284782.6221097241 ; 9354876.328939829 ; 2.4485253253159225E7 ; 27846.000000000004
118 ; 81789.56214586175 ; 286248.63830673526 ; 9437114.17535682 ; 2.4770035875268947E7 ; 28084.000000000004
119 ; 81486.30787355422 ; 287713.6951609303 ; 9518903.737502681 ; 2.5056284513575684E7 ; 28322.000000000004
120 ; 81103.76077814696 ; 289177.702103616 ; 9600390.045376236 ; 2.5343998208736613E7 ; 28560.000000000004
121 ; 80720.76054847002 ; 290640.5703462098 ; 9681493.806154383 ; 2.563317591084023E7 ; 28798.000000000004
122 ; 80482.88401048534 ; 292102.21282357565 ; 9762214.566702854 ; 2.592381648118644E7 ; 29036.000000000004
123 ; 80286.7624311808 ; 293562.5441394833 ; 9842697.450713338 ; 2.6215918694010016E7 ; 29274.000000000004
124 ; 79655.95410804135 ; 295021.4805141098 ; 9922984.213144518 ; 2.6509481238149498E7 ; 29512.000000000004
125 ; 79261.90498395094 ; 296478.9397335026 ; 1.000264016725256E7 ; 2.6804502718663607E7 ; 29750.000000000004
126 ; 78883.97934432994 ; 297934.84110092826 ; 1.008190207223651E7 ; 2.710098165839711E7 ; 29988.000000000004
127 ; 78331.17181447973 ; 299389.1053900322 ; 1.016078605158084E7 ; 2.7398916499498036E7 ; 30226.000000000004
128 ; 77880.93983275685 ; 300841.6547997396 ; 1.023911722339532E7 ; 2.7698305604888067E7 ; 30464.000000000004
129 ; 77886.97615928967 ; 302292.41291082813 ; 1.0316998163228076E7 ; 2.7999147259687807E7 ; 30702.000000000004
130 ; 77624.54533728956 ; 303741.30464410805 ; 1.0394885139387365E7 ; 2.8301439672598634E7 ; 30940.000000000004
131 ; 77117.1710536968 ; 305188.2562201462 ; 1.0472509684724655E7 ; 2.860518097724274E7 ; 31178.000000000004
132 ; 76629.36144405173 ; 306633.1951204734 ; 1.0549626855778351E7 ; 2.891036923346289E7 ; 31416.000000000004
133 ; 75917.54487833547 ; 308076.0500502172 ; 1.0626256217222404E7 ; 2.921700242858336E7 ; 31654.000000000004
134 ; 75573.88965585706 ; 309516.750902105 ; 1.070217376210074E7 ; 2.952507847863358E7 ; 31892.000000000004
135 ; 74940.88040905693 ; 310955.22872178233 ; 1.0777747651756596E7 ; 2.9834595229535684E7 ; 32130.000000000004
136 ; 74840.31081602015 ; 312391.4156743968 ; 1.0852688532165652E7 ; 3.0145550458257467E7 ; 32368.000000000004
137 ; 74217.212028944 ; 313825.24501239683 ; 1.0927528842981672E7 ; 3.0457941873931862E7 ; 32606.000000000004
138 ; 73511.27085265577 ; 315256.6510444996 ; 1.1001746055010617E7 ; 3.0771767118944257E7 ; 32844.00000000001
139 ; 72636.21967909808 ; 316685.56910578 ; 1.1075257325863272E7 ; 3.1087023769988757E7 ; 33082.00000000001
140 ; 72461.50001654723 ; 318111.9355288404 ; 1.114789354554237E7 ; 3.140370933909454E7 ; 33320.00000000001
141 ; 72023.17932320255 ; 319535.6876160165 ; 1.1220355045558918E7 ; 3.172182127462338E7 ; 33558.00000000001
142 ; 71854.39585132369 ; 320956.7636125808 ; 1.129237822488212E7 ; 3.2041356962239396E7 ; 33796.00000000001
143 ; 70757.97608477919 ; 322375.1026809049 ; 1.1364232620733444E7 ; 3.2362313725851975E7 ; 34034.00000000001
144 ; 70081.46045717374 ; 323790.64487554284 ; 1.1434990596818224E7 ; 3.2684688828532882E7 ; 34272.00000000001
145 ; 70300.86831172669 ; 325203.33111920115 ; 1.1505072057275398E7 ; 3.3008479473408423E7 ; 34510.00000000001
146 ; 70182.74931739458 ; 326613.10317956074 ; 1.1575372925587125E7 ; 3.3333682804527625E7 ; 34748.00000000001
147 ; 69670.31718575921 ; 328019.9036469186 ; 1.164555567490452E7 ; 3.3660295907707185E7 ; 34986.00000000001
148 ; 69824.53476047752 ; 329423.6759126179 ; 1.171522599209028E7 ; 3.39883158113541E7 ; 35224.00000000001
149 ; 69579.22944298064 ; 330824.36414823553 ; 1.1785050526850756E7 ; 3.431773948726672E7 ; 35462.00000000001
150 ; 69447.32281978916 ; 332221.91328549973 ; 1.1854629756293736E7 ; 3.4648563851414956E7 ; 35700.00000000001
151 ; 68954.69592282784 ; 333616.2689969093 ; 1.1924077079113526E7 ; 3.498078576470046E7 ; 35938.00000000001
152 ; 68927.64228172915 ; 335007.3776770277 ; 1.1993031775036354E7 ; 3.531440203369737E7 ; 36176.00000000001
153 ; 68679.34578824739 ; 336395.18642442685 ; 1.2061959417318083E7 ; 3.56494094113744E7 ; 36414.00000000001
154 ; 68761.79346474678 ; 337779.6430242562 ; 1.2130638763106331E7 ; 3.5985804597798824E7 ; 36652.00000000001
155 ; 68653.71475059577 ; 339160.6959314139 ; 1.2199400556571078E7 ; 3.632358424082308E7 ; 36890.00000000001
156 ; 68115.7599580478 ; 340538.29425429716 ; 1.2268054271321673E7 ; 3.6662744936754495E7 ; 37128.00000000001
157 ; 68164.59418518117 ; 341912.38773910934 ; 1.233617003127972E7 ; 3.700328323100879E7 ; 37366.00000000001
158 ; 67674.34481100616 ; 343282.9267547049 ; 1.2404334625464901E7 ; 3.73451956187479E7 ; 37604.00000000001
159 ; 67720.27585530345 ; 344649.8622779517 ; 1.2472008970275907E7 ; 3.76884785455026E7 ; 37842.00000000001
160 ; 66813.69985491553 ; 346013.1458795897 ; 1.253972924613121E7 ; 3.803312840778056E7 ; 38080.00000000001
161 ; 67289.25179159241 ; 347372.7297105704 ; 1.2606542945986126E7 ; 3.837914155366015E7 ; 38318.00000000001
162 ; 67028.28052057241 ; 348728.56648885773 ; 1.2673832197777718E7 ; 3.872651428337072E7 ; 38556.00000000001
163 ; 66934.4238623794 ; 350080.60948667396 ; 1.2740860478298292E7 ; 3.907524284985957E7 ; 38794.00000000001
164 ; 66388.12502588304 ; 351428.8125181738 ; 1.280779490216067E7 ; 3.942532345934625E7 ; 39032.00000000001
165 ; 66833.32628849395 ; 352773.1299275325 ; 1.2874183027186554E7 ; 3.977675227186442E7 ; 39270.00000000001
166 ; 66311.46931398434 ; 354113.5165774317 ; 1.2941016353475047E7 ; 4.012952540179195E7 ; 39508.00000000001
167 ; 66047.79294418632 ; 355449.9278379282 ; 1.3007327822789032E7 ; 4.048363891836938E7 ; 39746.00000000001
168 ; 66001.00883370929 ; 356782.31957569334 ; 1.3073375615733217E7 ; 4.083908884620731E7 ; 39984.00000000001
169 ; 65132.46934727585 ; 358110.64814360905 ; 1.3139376624566928E7 ; 4.1195871165783E7 ; 40222.00000000001
170 ; 65176.86986315272 ; 359434.870370707 ; 1.3204509093914203E7 ; 4.1553981813926615E7 ; 40460.00000000001
171 ; 64978.64781669738 ; 360754.94355243945 ; 1.3269685963777356E7 ; 4.191341668429732E7 ; 40698.00000000001
172 ; 64749.024209030016 ; 362070.82544127025 ; 1.3334664611594053E7 ; 4.2274171627849765E7 ; 40936.00000000001
173 ; 64741.80351697726 ; 363382.474237573 ; 1.3399413635803083E7 ; 4.2636242453291036E7 ; 41174.00000000001
174 ; 64633.974066931274 ; 364689.84858082805 ; 1.346415543932006E7 ; 4.299962492752861E7 ; 41412.00000000001
175 ; 64688.30725458776 ; 365992.9075411053 ; 1.3528789413386991E7 ; 4.336431477610944E7 ; 41650.00000000001
176 ; 64455.91413570557 ; 367291.6106108241 ; 1.359347772064158E7 ; 4.3730307683650546E7 ; 41888.00000000001
177 ; 64442.03752265784 ; 368585.9176967805 ; 1.3657933634777285E7 ; 4.4097599294261366E7 ; 42126.00000000001
178 ; 64684.16911826418 ; 369875.7891124323 ; 1.3722375672299944E7 ; 4.446618521195815E7 ; 42364.00000000001
179 ; 64412.801424681296 ; 371161.18557043234 ; 1.3787059841418209E7 ; 4.483606100107058E7 ; 42602.00000000001
180 ; 64775.985530347985 ; 372442.0681754026 ; 1.385147264284289E7 ; 4.5207222186641015E7 ; 42840.00000000001
181 ; 64829.16105373952 ; 373718.39841694024 ; 1.391624862837324E7 ; 4.557966425481642E7 ; 43078.00000000001
182 ; 64495.72233669543 ; 374990.13816284644 ; 1.3981077789426979E7 ; 4.5953382653233364E7 ; 43316.00000000001
