CSV File for the Network on Day 231
1 - Minute m 
2 - Power Consumed at minute m 
3 - Power Produced at minute m 
4 - Energy Consumed since the beginning of the day 
5 - Energy Produced since the beginning of the day 
6 - Energy Lost since the beginning of the day 
 
No Production city : 2, Producer : 1
No Production city : 4, Producer : 1
No Production city : 4, Producer : 1
 
0 ; 27795.362328025716 ; 85728.86186567269 ; 0.0 ; 0.0 ; 0.0
1 ; 29721.882107481884 ; 84606.94006308453 ; 27795.362328025716 ; 85728.86186567269 ; 238.00000000000003
2 ; 31271.69203497952 ; 83531.25408563367 ; 57517.2444355076 ; 170335.80192875722 ; 476.00000000000006
3 ; 32913.27062784044 ; 82512.6758887659 ; 88788.93647048713 ; 253867.0560143909 ; 714.0000000000001
4 ; 34622.89160922279 ; 81564.82919049545 ; 121702.20709832756 ; 336379.7319031568 ; 952.0000000000001
5 ; 36197.19386851165 ; 80704.51471501785 ; 156325.09870755035 ; 417944.5610936523 ; 1190.0000000000002
6 ; 38225.88103556429 ; 79951.84266611261 ; 192522.292576062 ; 498649.07580867014 ; 1428.0000000000002
7 ; 39941.59446632116 ; 79329.69610048868 ; 230748.1736116263 ; 578600.9184747827 ; 1666.0000000000002
8 ; 41472.55033923835 ; 78862.05058494458 ; 270689.76807794743 ; 657930.6145752714 ; 1904.0000000000002
9 ; 43257.84693582684 ; 78570.85451316398 ; 312162.3184171858 ; 736792.6651602159 ; 2142.0000000000005
10 ; 44210.758802290205 ; 78471.86492471778 ; 355420.1653530126 ; 815363.51967338 ; 2380.0000000000005
11 ; 46505.88980666757 ; 78570.85451316398 ; 399630.9241553028 ; 893835.3845980978 ; 2618.0000000000005
12 ; 47783.031806666666 ; 78862.05058494458 ; 446136.8139619704 ; 972406.2391112618 ; 2856.0000000000005
13 ; 49464.97514661091 ; 79329.69610048868 ; 493919.845768637 ; 1051268.2896962063 ; 3094.0000000000005
14 ; 51053.41205337832 ; 79951.84266611261 ; 543384.8209152479 ; 1130597.985796695 ; 3332.0000000000005
15 ; 52261.478274706176 ; 80704.51471501785 ; 594438.2329686262 ; 1210549.8284628077 ; 3570.0000000000005
16 ; 54094.036247067605 ; 81564.82919049545 ; 646699.7112433324 ; 1291254.3431778254 ; 3808.0000000000005
17 ; 54976.7230358794 ; 82512.6758887659 ; 700793.7474904 ; 1372819.1723683209 ; 4046.0000000000005
18 ; 56918.19316161152 ; 83531.25408563396 ; 755770.4705262794 ; 1455331.8482570867 ; 4284.000000000001
19 ; 58087.74036627875 ; 84606.94006308453 ; 812688.663687891 ; 1538863.1023427206 ; 4522.000000000001
20 ; 58925.82591839663 ; 85728.86186567295 ; 870776.4040541698 ; 1623470.042405805 ; 4760.000000000001
21 ; 60373.75881857484 ; 86888.40357778511 ; 929702.2299725664 ; 1709198.904271478 ; 4998.000000000001
22 ; 62142.80940417985 ; 88078.74448094811 ; 990075.9887911412 ; 1796087.307849263 ; 5236.000000000001
23 ; 63075.72339283987 ; 89294.47057251501 ; 1052218.798195321 ; 1884166.0523302113 ; 5474.000000000001
24 ; 64730.83122026526 ; 90531.2629486756 ; 1115294.521588161 ; 1973460.5229027262 ; 5712.000000000001
25 ; 66082.00723467494 ; 91785.65428446344 ; 1180025.3528084261 ; 2063991.7858514017 ; 5950.000000000001
26 ; 67303.50062973336 ; 93054.84099726731 ; 1246107.360043101 ; 2155777.440135865 ; 6188.000000000001
27 ; 68388.25303441158 ; 94336.53912951228 ; 1313410.8606728343 ; 2248832.2811331325 ; 6426.000000000001
28 ; 70351.09908253426 ; 95628.87383761807 ; 1381799.1137072458 ; 2343168.820262645 ; 6664.000000000001
29 ; 70760.85472251452 ; 96930.29444760774 ; 1452150.21278978 ; 2438797.694100263 ; 6902.000000000001
30 ; 72624.16694062638 ; 98239.50888514021 ; 1522911.0675122945 ; 2535727.988547871 ; 7140.000000000001
31 ; 73224.89292003764 ; 99555.43278852195 ; 1595535.234452921 ; 2633967.497433011 ; 7378.000000000001
32 ; 74486.94573820324 ; 100877.14977797808 ; 1668760.1273729587 ; 2733522.930221533 ; 7616.000000000001
33 ; 75465.01846229451 ; 102203.88023689447 ; 1743247.073111162 ; 2834400.079999511 ; 7854.000000000001
34 ; 76588.60600977235 ; 103534.95662101312 ; 1818712.0915734565 ; 2936603.9602364055 ; 8092.000000000001
35 ; 77751.68971007597 ; 104869.80380281628 ; 1895300.6975832288 ; 3040138.9168574186 ; 8330.000000000002
36 ; 78427.27800522099 ; 106207.92332331065 ; 1973052.3872933048 ; 3145008.720660235 ; 8568.000000000002
37 ; 79619.5115535838 ; 107548.88069491481 ; 2051479.6652985257 ; 3251216.6439835452 ; 8806.000000000002
38 ; 80608.17694336179 ; 108892.29510170309 ; 2131099.1768521094 ; 3358765.52467846 ; 9044.000000000002
39 ; 81391.90250156885 ; 110237.830994999 ; 2211707.353795471 ; 3467657.819780163 ; 9282.000000000002
40 ; 82536.95240832119 ; 111585.1911965418 ; 2293099.25629704 ; 3577895.650775162 ; 9520.000000000002
41 ; 83572.7054627883 ; 112934.11120788986 ; 2375636.208705361 ; 3689480.841971704 ; 9758.000000000002
42 ; 84862.64341482453 ; 114284.35449050565 ; 2459208.9141681492 ; 3802414.9531795937 ; 9996.000000000002
43 ; 85691.76335859166 ; 115635.70853131602 ; 2544071.557582974 ; 3916699.307670099 ; 10234.000000000002
44 ; 86356.46028840118 ; 116987.98154728411 ; 2629763.3209415656 ; 4032335.016201415 ; 10472.000000000002
45 ; 87259.4709976745 ; 118340.9997125337 ; 2716119.781229967 ; 4149322.997748699 ; 10710.000000000002
46 ; 88307.53732044695 ; 119694.6048149112 ; 2803379.252227641 ; 4267663.997461232 ; 10948.000000000002
47 ; 89149.52063377635 ; 121048.65226715576 ; 2891686.7895480883 ; 4387358.602276144 ; 11186.000000000002
48 ; 89800.22430331446 ; 122403.00941222705 ; 2980836.3101818645 ; 4508407.2545433 ; 11424.000000000002
49 ; 90834.55083142317 ; 123757.55407372679 ; 3070636.534485179 ; 4630810.263955527 ; 11662.000000000002
50 ; 91047.35703887744 ; 125112.17331139726 ; 3161471.085316602 ; 4754567.818029254 ; 11900.000000000002
51 ; 92436.48434896582 ; 126466.76234891068 ; 3252518.4423554796 ; 4879679.991340651 ; 12138.000000000002
52 ; 92664.9116373171 ; 127821.22364697588 ; 3344954.9267044454 ; 5006146.753689562 ; 12376.000000000002
53 ; 93621.74801244643 ; 129175.46609946594 ; 3437619.8383417623 ; 5133967.977336538 ; 12614.000000000002
54 ; 94335.29171258137 ; 130529.40433407365 ; 3531241.5863542086 ; 5263143.443436004 ; 12852.000000000002
55 ; 95365.07896888896 ; 131882.95810208528 ; 3625576.87806679 ; 5393672.847770078 ; 13090.000000000002
56 ; 95116.10799081437 ; 133236.05174439197 ; 3720941.957035679 ; 5525555.805872164 ; 13328.000000000002
57 ; 96067.58738037359 ; 134588.61372292798 ; 3816058.0650264933 ; 5658791.857616556 ; 13566.000000000002
58 ; 97193.6669056494 ; 135940.57620843087 ; 3912125.6524068667 ; 5793380.471339484 ; 13804.000000000002
59 ; 97328.60392850317 ; 137291.87471683277 ; 4009319.319312516 ; 5929321.047547915 ; 14042.000000000002
60 ; 97765.8161232268 ; 138642.4477877606 ; 4106647.9232410192 ; 6066612.922264747 ; 14280.000000000002
61 ; 98698.28617704994 ; 139992.23669959872 ; 4204413.739364246 ; 6205255.370052508 ; 14518.000000000002
62 ; 99578.8307710159 ; 141341.18521638477 ; 4303112.025541296 ; 6345247.606752107 ; 14756.000000000002
63 ; 99813.92457941851 ; 142689.23936248999 ; 4402690.856312312 ; 6486588.791968492 ; 14994.000000000002
64 ; 100067.13857596392 ; 144036.34722161273 ; 4502504.78089173 ; 6629278.031330982 ; 15232.000000000002
65 ; 100211.05341286326 ; 145382.45875709772 ; 4602571.919467694 ; 6773314.378552595 ; 15470.000000000002
66 ; 101122.66339136138 ; 146727.52565100338 ; 4702782.972880557 ; 6918696.837309693 ; 15708.000000000002
67 ; 101638.1285789162 ; 148071.5011596899 ; 4803905.636271918 ; 7065424.362960696 ; 15946.000000000002
68 ; 102032.00189120896 ; 149414.3399839954 ; 4905543.764850834 ; 7213495.864120387 ; 16184.000000000002
69 ; 102650.71692664622 ; 150755.99815232106 ; 5007575.766742043 ; 7362910.204104382 ; 16422.000000000004
70 ; 102810.59688843938 ; 152096.43291516334 ; 5110226.48366869 ; 7513666.202256703 ; 16660.000000000004
71 ; 102727.97515673182 ; 153435.60264981558 ; 5213037.080557129 ; 7665762.635171866 ; 16898.000000000004
72 ; 103094.92525259583 ; 154773.46677412238 ; 5315765.055713861 ; 7819198.237821681 ; 17136.000000000004
73 ; 103885.54215114738 ; 156109.9856683068 ; 5418859.980966457 ; 7973971.704595804 ; 17374.000000000004
74 ; 104156.90313042185 ; 157445.12060401033 ; 5522745.523117605 ; 8130081.690264111 ; 17612.000000000004
75 ; 104480.11163418762 ; 158778.8336797869 ; 5626902.426248026 ; 8287526.810868122 ; 17850.000000000004
76 ; 104288.92479162691 ; 160111.0877623837 ; 5731382.5378822135 ; 8446305.64454791 ; 18088.000000000004
77 ; 104726.9251325945 ; 161441.84643321697 ; 5835671.46267384 ; 8606416.732310293 ; 18326.000000000004
78 ; 104966.50485818504 ; 162771.07393952142 ; 5940398.387806434 ; 8767858.57874351 ; 18564.000000000004
79 ; 104816.42433007417 ; 164098.73514970753 ; 6045364.892664619 ; 8930629.65268303 ; 18802.000000000004
80 ; 105192.40876278465 ; 165424.79551251626 ; 6150181.316994693 ; 9094728.387832738 ; 19040.000000000004
81 ; 105615.38076911574 ; 166749.22101960354 ; 6255373.725757478 ; 9260153.183345255 ; 19278.000000000004
82 ; 105878.43737782555 ; 168071.97817122808 ; 6360989.106526594 ; 9426902.404364858 ; 19516.000000000004
83 ; 105750.27056942042 ; 169393.03394475035 ; 6466867.543904419 ; 9594974.382536085 ; 19754.000000000004
84 ; 106187.92226625353 ; 170712.35576568183 ; 6572617.8144738395 ; 9764367.416480836 ; 19992.000000000004
85 ; 106497.16136469944 ; 172029.9114810509 ; 6678805.736740093 ; 9935079.772246517 ; 20230.000000000004
86 ; 105625.55143594406 ; 173345.66933487568 ; 6785302.898104792 ; 1.0107109683727568E7 ; 20468.000000000004
87 ; 106157.64491273083 ; 174659.59794555535 ; 6890928.449540736 ; 1.0280455353062443E7 ; 20706.000000000004
88 ; 106007.18928240183 ; 175971.66628501064 ; 6997086.094453467 ; 1.0455114951008E7 ; 20944.000000000004
89 ; 106386.30638561971 ; 177281.84365942178 ; 7103093.2837358685 ; 1.063108661729301E7 ; 21182.000000000004
90 ; 106207.19468165688 ; 178590.09969142466 ; 7209479.590121488 ; 1.0808368460952431E7 ; 21420.000000000004
91 ; 106051.98694869463 ; 179896.40430364283 ; 7315686.784803145 ; 1.0986958560643855E7 ; 21658.000000000004
92 ; 105974.94428800668 ; 181200.7277034419 ; 7421738.77175184 ; 1.1166854964947497E7 ; 21896.000000000004
93 ; 105315.00786343068 ; 182503.0403688049 ; 7527713.716039847 ; 1.134805569265094E7 ; 22134.000000000004
94 ; 105692.59355577834 ; 183803.31303523696 ; 7633028.723903277 ; 1.1530558733019745E7 ; 22372.000000000004
95 ; 105696.27169609556 ; 185101.51668361475 ; 7738721.317459055 ; 1.1714362046054982E7 ; 22610.000000000004
96 ; 105577.26033043065 ; 186397.622528906 ; 7844417.589155151 ; 1.1899463562738596E7 ; 22848.000000000004
97 ; 105472.12509821153 ; 187691.6020096887 ; 7949994.849485581 ; 1.2085861185267502E7 ; 23086.000000000004
98 ; 104994.23503109431 ; 188983.4267784081 ; 8055466.9745837925 ; 1.2273552787277192E7 ; 23324.000000000004
99 ; 104824.84263225373 ; 190273.06869231348 ; 8160461.209614887 ; 1.24625362140556E7 ; 23562.000000000004
100 ; 104729.33237686398 ; 191560.49980502317 ; 8265286.052247141 ; 1.2652809282747913E7 ; 23800.000000000004
101 ; 104579.09035863716 ; 192845.6923586692 ; 8370015.384624004 ; 1.2844369782552937E7 ; 24038.000000000004
102 ; 104527.02013296752 ; 194128.61877657849 ; 8474594.474982642 ; 1.3037215474911606E7 ; 24276.000000000004
103 ; 103794.39684180483 ; 195409.2516564503 ; 8579121.49511561 ; 1.3231344093688184E7 ; 24514.000000000004
104 ; 103781.47489541136 ; 196687.5637639937 ; 8682915.891957415 ; 1.3426753345344635E7 ; 24752.000000000004
105 ; 103005.44113781943 ; 197963.528026991 ; 8786697.366852827 ; 1.3623440909108628E7 ; 24990.000000000004
106 ; 103043.0761812582 ; 199237.11752975665 ; 8889702.807990646 ; 1.3821404437135618E7 ; 25228.000000000004
107 ; 102828.38819926235 ; 200508.30550796355 ; 8992745.884171905 ; 1.4020641554665376E7 ; 25466.000000000004
108 ; 102497.48790140808 ; 201777.06534381 ; 9095574.272371167 ; 1.4221149860173339E7 ; 25704.000000000004
109 ; 101493.33439687143 ; 203043.37056150407 ; 9198071.760272576 ; 1.442292692551715E7 ; 25942.000000000004
110 ; 101418.43949357476 ; 204307.19482304307 ; 9299565.094669446 ; 1.4625970296078654E7 ; 26180.000000000004
111 ; 100829.53409078132 ; 205568.5119242678 ; 9400983.53416302 ; 1.4830277490901697E7 ; 26418.000000000004
112 ; 100397.63055154668 ; 206827.29579117292 ; 9501813.068253802 ; 1.5035846002825966E7 ; 26656.000000000004
113 ; 99826.7921301114 ; 208083.52047645577 ; 9602210.698805349 ; 1.524267329861714E7 ; 26894.000000000004
114 ; 99348.40334335653 ; 209337.1601562884 ; 9702037.49093546 ; 1.5450756819093594E7 ; 27132.000000000004
115 ; 98749.4968834265 ; 210588.18912729717 ; 9801385.894278817 ; 1.5660093979249883E7 ; 27370.000000000004
116 ; 97994.41228208589 ; 211836.5818037369 ; 9900135.391162243 ; 1.5870682168377182E7 ; 27608.000000000004
117 ; 97579.73650520633 ; 213082.31271484657 ; 9998129.803444328 ; 1.6082518750180919E7 ; 27846.000000000004
118 ; 97174.77921345827 ; 214325.3565023748 ; 1.0095709539949534E7 ; 1.6295601062895766E7 ; 28084.000000000004
119 ; 96400.32922722206 ; 215565.68791826442 ; 1.0192884319162993E7 ; 1.650992641939814E7 ; 28322.000000000004
120 ; 95843.97046646249 ; 216803.281822486 ; 1.0289284648390215E7 ; 1.6725492107316405E7 ; 28560.000000000004
121 ; 95044.21239155368 ; 218038.1131810107 ; 1.0385128618856678E7 ; 1.6942295389138892E7 ; 28798.000000000004
122 ; 94706.40985028246 ; 219270.1570639142 ; 1.0480172831248231E7 ; 1.7160333502319902E7 ; 29036.000000000004
123 ; 94296.65782909987 ; 220499.38864360284 ; 1.0574879241098514E7 ; 1.7379603659383815E7 ; 29274.000000000004
124 ; 93199.32043881592 ; 221725.7831931555 ; 1.0669175898927614E7 ; 1.760010304802742E7 ; 29512.000000000004
125 ; 92523.11748840279 ; 222949.31608477313 ; 1.076237521936643E7 ; 1.7821828831220575E7 ; 29750.000000000004
126 ; 91837.98650556394 ; 224169.9627883299 ; 1.0854898336854832E7 ; 1.8044778147305347E7 ; 29988.000000000004
127 ; 90462.74351910109 ; 225387.69887002002 ; 1.0946736323360397E7 ; 1.8268948110093676E7 ; 30226.000000000004
128 ; 90486.93304025971 ; 226602.4999910943 ; 1.1037199066879498E7 ; 1.8494335808963697E7 ; 30464.000000000004
129 ; 88802.94529000462 ; 227814.34190668096 ; 1.1127685999919757E7 ; 1.872093830895479E7 ; 30702.000000000004
130 ; 88836.27774308948 ; 229023.20046468606 ; 1.1216488945209762E7 ; 1.8948752650861472E7 ; 30940.000000000004
131 ; 87500.32021622115 ; 230229.05160476884 ; 1.1305325222952852E7 ; 1.9177775851326156E7 ; 31178.000000000004
132 ; 86593.25462567287 ; 231431.87135738757 ; 1.1392825543169074E7 ; 1.9408004902930927E7 ; 31416.000000000004
133 ; 86192.18232349143 ; 232631.63584291178 ; 1.1479418797794746E7 ; 1.9639436774288315E7 ; 31654.000000000004
134 ; 84788.1129617189 ; 233828.32127079714 ; 1.1565610980118237E7 ; 1.9872068410131227E7 ; 31892.000000000004
135 ; 84178.20715054733 ; 235021.90393881965 ; 1.1650399093079956E7 ; 2.0105896731402025E7 ; 32130.000000000004
136 ; 83200.53217662912 ; 236212.36023236543 ; 1.1734577300230503E7 ; 2.0340918635340843E7 ; 32368.000000000004
137 ; 82164.72774040634 ; 237399.66662377314 ; 1.1817777832407132E7 ; 2.0577130995573208E7 ; 32606.000000000004
138 ; 81625.28414790088 ; 238583.7996717262 ; 1.1899942560147539E7 ; 2.0814530662196983E7 ; 32844.00000000001
139 ; 79970.89905886652 ; 239764.73602069216 ; 1.198156784429544E7 ; 2.1053114461868707E7 ; 33082.00000000001
140 ; 79237.93284459939 ; 240942.452400406 ; 1.2061538743354307E7 ; 2.12928791978894E7 ; 33320.00000000001
141 ; 77911.70734535111 ; 242116.9256253958 ; 1.2140776676198907E7 ; 2.1533821650289804E7 ; 33558.00000000001
142 ; 77165.60035083754 ; 243288.1325945478 ; 1.2218688383544259E7 ; 2.17759385759152E7 ; 33796.00000000001
143 ; 76263.13676093072 ; 244456.0502907094 ; 1.2295853983895097E7 ; 2.2019226708509747E7 ; 34034.00000000001
144 ; 74737.00846251917 ; 245620.6557803271 ; 1.2372117120656028E7 ; 2.226368275880046E7 ; 34272.00000000001
145 ; 75091.38454674471 ; 246781.92621311848 ; 1.2446854129118547E7 ; 2.2509303414580785E7 ; 34510.00000000001
146 ; 74576.42165646995 ; 247939.83882177598 ; 1.2521945513665292E7 ; 2.2756085340793904E7 ; 34748.00000000001
147 ; 74202.33176723028 ; 249094.37092170032 ; 1.2596521935321763E7 ; 2.300402517961568E7 ; 34986.00000000001
148 ; 74039.2155556524 ; 250245.49991076338 ; 1.2670724267088993E7 ; 2.325311955053738E7 ; 35224.00000000001
149 ; 73939.00582218976 ; 251393.20326909714 ; 1.2744763482644645E7 ; 2.3503365050448146E7 ; 35462.00000000001
150 ; 73668.20239167621 ; 252537.45855890887 ; 1.2818702488466835E7 ; 2.3754758253717244E7 ; 35700.00000000001
151 ; 72821.23616491951 ; 253678.2434243205 ; 1.2892370690858511E7 ; 2.4007295712276153E7 ; 35938.00000000001
152 ; 72931.45318998682 ; 254815.53559123087 ; 1.2965191927023431E7 ; 2.4260973955700472E7 ; 36176.00000000001
153 ; 72516.91083914053 ; 255949.31286719997 ; 1.3038123380213419E7 ; 2.45157894912917E7 ; 36414.00000000001
154 ; 72567.47634971415 ; 257079.5531413537 ; 1.311064029105256E7 ; 2.47717388041589E7 ; 36652.00000000001
155 ; 72376.00468447203 ; 258206.23438430866 ; 1.3183207767402273E7 ; 2.5028818357300255E7 ; 36890.00000000001
156 ; 72073.28611448557 ; 259329.33464811518 ; 1.3255583772086745E7 ; 2.5287024591684565E7 ; 37128.00000000001
157 ; 72012.36455590397 ; 260448.83206621828 ; 1.3327657058201231E7 ; 2.554635392633268E7 ; 37366.00000000001
158 ; 71197.51577837928 ; 261564.7048534353 ; 1.3399669422757136E7 ; 2.5806802758398898E7 ; 37604.00000000001
159 ; 70933.17712428395 ; 262676.9313059496 ; 1.3470866938535515E7 ; 2.6068367463252332E7 ; 37842.00000000001
160 ; 70644.56807937517 ; 263785.4898013192 ; 1.35418001156598E7 ; 2.633104439455828E7 ; 38080.00000000001
161 ; 70092.62806236399 ; 264890.35879850003 ; 1.3612444683739174E7 ; 2.65948298843596E7 ; 38318.00000000001
162 ; 70287.73871880803 ; 265991.5168378825 ; 1.3682537311801538E7 ; 2.68597202431581E7 ; 38556.00000000001
163 ; 69842.54348692953 ; 267088.9425413414 ; 1.3752825050520346E7 ; 2.7125711759995982E7 ; 38794.00000000001
164 ; 69379.32070828955 ; 268182.6146122977 ; 1.3822667594007276E7 ; 2.7392800702537324E7 ; 39032.00000000001
165 ; 69470.48000872931 ; 269272.5118357921 ; 1.3892046914715566E7 ; 2.766098331714962E7 ; 39270.00000000001
166 ; 68390.84607814104 ; 270358.61307857017 ; 1.3961517394724295E7 ; 2.793025582898541E7 ; 39508.00000000001
167 ; 68550.01165202569 ; 271440.89728917717 ; 1.4029908240802435E7 ; 2.8200614442063984E7 ; 39746.00000000001
168 ; 68071.07728217653 ; 272519.34349806356 ; 1.4098458252454462E7 ; 2.847205533935316E7 ; 39984.00000000001
169 ; 67513.26004758725 ; 273593.93081769935 ; 1.4166529329736639E7 ; 2.874457468285122E7 ; 40222.00000000001
170 ; 67477.6065134455 ; 274664.63844269834 ; 1.4234042589784225E7 ; 2.9018168613668922E7 ; 40460.00000000001
171 ; 67055.95380578302 ; 275731.44564994995 ; 1.4301520196297672E7 ; 2.929283325211162E7 ; 40698.00000000001
172 ; 66444.22223232461 ; 276794.33179875975 ; 1.4368576150103455E7 ; 2.9568564697761573E7 ; 40936.00000000001
173 ; 66151.75517403323 ; 277853.27633099735 ; 1.443502037233578E7 ; 2.984535902956033E7 ; 41174.00000000001
174 ; 66706.53782406583 ; 278908.2587712521 ; 1.4501172127509814E7 ; 3.0123212305891328E7 ; 41412.00000000001
175 ; 66512.88771138387 ; 279959.25872699503 ; 1.456787866533388E7 ; 3.040212056466258E7 ; 41650.00000000001
176 ; 66779.17105894361 ; 281006.25588874775 ; 1.4634391553045264E7 ; 3.0682079823389575E7 ; 41888.00000000001
177 ; 67315.01189288968 ; 282049.23003025755 ; 1.4701170724104207E7 ; 3.0963086079278324E7 ; 42126.00000000001
178 ; 67033.53797423153 ; 283088.1610086784 ; 1.4768485735997098E7 ; 3.124513530930858E7 ; 42364.00000000001
179 ; 67568.11662568091 ; 284123.0287647573 ; 1.4835519273971329E7 ; 3.152822347031726E7 ; 42602.00000000001
180 ; 68045.70780263926 ; 285153.81332302646 ; 1.490308739059701E7 ; 3.1812346499082018E7 ; 42840.00000000001
181 ; 68085.87677844822 ; 286180.49479199963 ; 1.4971133098399648E7 ; 3.2097500312405042E7 ; 43078.00000000001
182 ; 67719.4367396197 ; 287203.05336437415 ; 1.5039218975178096E7 ; 3.238368080719704E7 ; 43316.00000000001
