CSV File for the Network on Day 163
1 - Minute m 
2 - Power Consumed at minute m 
3 - Power Produced at minute m 
4 - Energy Consumed since the beginning of the day 
5 - Energy Produced since the beginning of the day 
6 - Energy Lost since the beginning of the day 
 
No Production city : 2, Producer : 1
No Production city : 4, Producer : 1
No Production city : 4, Producer : 1
 
0 ; 40139.316679349744 ; 158714.5258776139 ; 0.0 ; 0.0 ; 0.0
1 ; 41630.73591586495 ; 158370.7399343964 ; 40139.316679349744 ; 158714.5258776139 ; 238.00000000000003
2 ; 43615.67098640205 ; 158061.97654585642 ; 81770.05259521469 ; 317085.2658120103 ; 476.00000000000006
3 ; 44227.626499864535 ; 157788.61490633994 ; 125385.72358161674 ; 475147.2423578667 ; 714.0000000000001
4 ; 45885.48700621912 ; 157550.9949603581 ; 169613.35008148127 ; 632935.8572642066 ; 952.0000000000001
5 ; 47728.03443896147 ; 157349.41547908817 ; 215498.83708770038 ; 790486.8522245648 ; 1190.0000000000002
6 ; 48804.323542868035 ; 157184.1323367677 ; 263226.87152666185 ; 947836.267703653 ; 1428.0000000000002
7 ; 49854.48797493904 ; 157055.35700983918 ; 312031.1950695299 ; 1105020.4000404207 ; 1666.0000000000002
8 ; 51427.5225457878 ; 156963.2553192239 ; 361885.6830444689 ; 1262075.75705026 ; 1904.0000000000002
9 ; 52368.1942977851 ; 156907.94643314107 ; 413313.2055902567 ; 1419039.012369484 ; 2142.0000000000005
10 ; 53923.01338678143 ; 156889.50214449913 ; 465681.39988804184 ; 1575946.958802625 ; 2380.0000000000005
11 ; 55300.782007372654 ; 156907.94643314107 ; 519604.4132748233 ; 1732836.4609471243 ; 2618.0000000000005
12 ; 56073.816808883836 ; 156963.2553192239 ; 574905.1952821959 ; 1889744.4073802654 ; 2856.0000000000005
13 ; 57916.871824436086 ; 157055.35700983918 ; 630979.0120910797 ; 2046707.6626994894 ; 3094.0000000000005
14 ; 58710.616938156 ; 157184.13233676762 ; 688895.8839155158 ; 2203763.0197093287 ; 3332.0000000000005
15 ; 60090.16023770033 ; 157349.41547908817 ; 747606.5008536718 ; 2360947.1520460965 ; 3570.0000000000005
16 ; 61110.841361317754 ; 157550.9949603581 ; 807696.6610913721 ; 2518296.5675251847 ; 3808.0000000000005
17 ; 61954.859220354665 ; 157788.61490633982 ; 868807.5024526899 ; 2675847.5624855426 ; 4046.0000000000005
18 ; 63287.91511493945 ; 158061.9765458565 ; 930762.3616730446 ; 2833636.1773918825 ; 4284.000000000001
19 ; 64306.22509460734 ; 158370.7399343963 ; 994050.2767879841 ; 2991698.153937739 ; 4522.000000000001
20 ; 65491.184337127015 ; 158714.5258776139 ; 1058356.5018825915 ; 3150068.8938721353 ; 4760.000000000001
21 ; 66834.01120545604 ; 159092.91802993015 ; 1123847.6862197185 ; 3308783.4197497494 ; 4998.000000000001
22 ; 67914.23040862779 ; 159505.4651420458 ; 1190681.6974251745 ; 3467876.3377796793 ; 5236.000000000001
23 ; 68840.60370607764 ; 159951.68343035132 ; 1258595.9278338023 ; 3627381.802921725 ; 5474.000000000001
24 ; 70039.3666406213 ; 160431.0590409295 ; 1327436.53153988 ; 3787333.4863520763 ; 5712.000000000001
25 ; 71213.14479629722 ; 160943.05058108288 ; 1397475.8981805013 ; 3947764.545393006 ; 5950.000000000001
26 ; 71780.03142749771 ; 161487.09169201917 ; 1468689.0429767985 ; 4108707.5959740886 ; 6188.000000000001
27 ; 72560.42250212499 ; 162062.59363746402 ; 1540469.0744042962 ; 4270194.687666108 ; 6426.000000000001
28 ; 74025.02291242265 ; 162668.94788445492 ; 1613029.4969064211 ; 4432257.281303572 ; 6664.000000000001
29 ; 75045.00127158461 ; 163305.52865436263 ; 1687054.5198188438 ; 4594926.229188027 ; 6902.000000000001
30 ; 75883.07916848156 ; 163971.69542419745 ; 1762099.5210904283 ; 4758231.75784239 ; 7140.000000000001
31 ; 76729.5356136989 ; 164666.79536043992 ; 1837982.6002589099 ; 4922203.453266587 ; 7378.000000000001
32 ; 77677.47978022508 ; 165390.16566990502 ; 1914712.1358726087 ; 5086870.2486270275 ; 7616.000000000001
33 ; 78943.48997360234 ; 166141.1358544676 ; 1992389.6156528338 ; 5252260.4142969325 ; 7854.000000000001
34 ; 79350.29427780778 ; 166919.02985876965 ; 2071333.1056264362 ; 5418401.5501514 ; 8092.000000000001
35 ; 80425.32146759739 ; 167723.16810226836 ; 2150683.399904244 ; 5585320.58001017 ; 8330.000000000002
36 ; 80852.75661289287 ; 168552.86938911956 ; 2231108.7213718416 ; 5753043.748112438 ; 8568.000000000002
37 ; 82023.65421356853 ; 169407.45269139117 ; 2311961.4779847343 ; 5921596.617501558 ; 8806.000000000002
38 ; 82971.45873628758 ; 170286.23880295278 ; 2393985.132198303 ; 6091004.070192949 ; 9044.000000000002
39 ; 83152.45727302523 ; 171188.55186306144 ; 2476956.5909345904 ; 6261290.308995902 ; 9282.000000000002
40 ; 84464.70560982419 ; 172113.72075015638 ; 2560109.0482076155 ; 6432478.860858963 ; 9520.000000000002
41 ; 85084.28660740204 ; 173061.08034768753 ; 2644573.7538174395 ; 6604592.58160912 ; 9758.000000000002
42 ; 85916.65862847267 ; 174029.97268491966 ; 2729658.0404248415 ; 6777653.661956808 ; 9996.000000000002
43 ; 86287.36890170159 ; 175019.7479566036 ; 2815574.699053314 ; 6951683.634641727 ; 10234.000000000002
44 ; 87108.83152528419 ; 176029.76542617154 ; 2901862.0679550157 ; 7126703.382598331 ; 10472.000000000002
45 ; 87601.92959398379 ; 177059.39421772724 ; 2988970.8994803 ; 7302733.148024503 ; 10710.000000000002
46 ; 88633.83144046158 ; 178108.0140025635 ; 3076572.8290742836 ; 7479792.542242231 ; 10948.000000000002
47 ; 89340.05522577338 ; 179175.01558626798 ; 3165206.6605147454 ; 7657900.556244794 ; 11186.000000000002
48 ; 89816.0083635982 ; 180259.80140268477 ; 3254546.7157405186 ; 7837075.571831062 ; 11424.000000000002
49 ; 90358.16802404547 ; 181361.78592110437 ; 3344362.7241041167 ; 8017335.373233747 ; 11662.000000000002
50 ; 91337.3204832183 ; 182480.39597306642 ; 3434720.892128162 ; 8198697.159154851 ; 11900.000000000002
51 ; 92124.3562703298 ; 183615.07100508988 ; 3526058.2126113805 ; 8381177.555127918 ; 12138.000000000002
52 ; 92407.94217739285 ; 184765.26326352125 ; 3618182.56888171 ; 8564792.626133008 ; 12376.000000000002
53 ; 92737.56903421058 ; 185930.43791750283 ; 3710590.511059103 ; 8749557.88939653 ; 12614.000000000002
54 ; 93277.9438577441 ; 187110.07312584034 ; 3803328.0800933135 ; 8935488.327314032 ; 12852.000000000002
55 ; 94080.72208247172 ; 188303.66005329165 ; 3896606.0239510573 ; 9122598.400439873 ; 13090.000000000002
56 ; 94946.19064750365 ; 189510.7028415188 ; 3990686.7460335293 ; 9310902.060493166 ; 13328.000000000002
57 ; 94716.92556905258 ; 190730.71853964723 ; 4085632.936681033 ; 9500412.763334684 ; 13566.000000000002
58 ; 95493.39270064118 ; 191963.2369990702 ; 4180349.862250086 ; 9691143.481874332 ; 13804.000000000002
59 ; 96209.97469390593 ; 193207.80073682975 ; 4275843.254950727 ; 9883106.718873402 ; 14042.000000000002
60 ; 96508.37799753179 ; 194463.96477159217 ; 4372053.229644633 ; 1.0076314519610232E7 ; 14280.000000000002
61 ; 96779.26582069971 ; 195731.29643593536 ; 4468561.607642164 ; 1.0270778484381825E7 ; 14518.000000000002
62 ; 97183.80477782786 ; 197009.37516836636 ; 4565340.873462864 ; 1.046650978081776E7 ; 14756.000000000002
63 ; 98050.62740590484 ; 198297.79228820273 ; 4662524.678240692 ; 1.0663519155986127E7 ; 14994.000000000002
64 ; 98071.95552184316 ; 199596.15075617481 ; 4760575.305646597 ; 1.086181694827433E7 ; 15232.000000000002
65 ; 98605.48549649862 ; 200904.06492334715 ; 4858647.261168441 ; 1.1061413099030504E7 ; 15470.000000000002
66 ; 99089.44847037263 ; 202221.16027070786 ; 4957252.746664939 ; 1.1262317163953852E7 ; 15708.000000000002
67 ; 99407.5703094165 ; 203547.0731415432 ; 5056342.195135312 ; 1.146453832422456E7 ; 15946.000000000002
68 ; 99351.30603715856 ; 204881.4504684981 ; 5155749.765444729 ; 1.1668085397366103E7 ; 16184.000000000002
69 ; 100160.30852514513 ; 206223.94949701912 ; 5255101.071481887 ; 1.18729668478346E7 ; 16422.000000000004
70 ; 100714.51906098201 ; 207574.2375066898 ; 5355261.380007032 ; 1.207919079733162E7 ; 16660.000000000004
71 ; 100155.3001125235 ; 208931.99153179507 ; 5455975.899068015 ; 1.228676503483831E7 ; 16898.000000000004
72 ; 100494.61447805235 ; 210296.89808228996 ; 5556131.199180538 ; 1.2495697026370104E7 ; 17136.000000000004
73 ; 100285.73094515868 ; 211668.65286620555 ; 5656625.81365859 ; 1.2705993924452394E7 ; 17374.000000000004
74 ; 101135.84870304323 ; 213046.96051438636 ; 5756911.544603749 ; 1.29176625773186E7 ; 17612.000000000004
75 ; 101525.59497508775 ; 214431.5343083368 ; 5858047.393306793 ; 1.3130709537832987E7 ; 17850.000000000004
76 ; 100993.30914518489 ; 215822.09591184073 ; 5959572.9882818805 ; 1.3345141072141323E7 ; 18088.000000000004
77 ; 101198.86885415309 ; 217218.37510691915 ; 6060566.297427066 ; 1.3560963168053163E7 ; 18326.000000000004
78 ; 101752.88156809485 ; 218620.10953460285 ; 6161765.166281219 ; 1.3778181543160083E7 ; 18564.000000000004
79 ; 102213.34395950807 ; 220027.0444409122 ; 6263518.047849313 ; 1.3996801652694685E7 ; 18802.000000000004
80 ; 101963.7568646509 ; 221438.9324283686 ; 6365731.391808822 ; 1.4216828697135597E7 ; 19040.000000000004
81 ; 102325.21791240814 ; 222855.53321329242 ; 6467695.148673473 ; 1.4438267629563967E7 ; 19278.000000000004
82 ; 102579.07072462779 ; 224276.61338908935 ; 6570020.366585881 ; 1.466112316277726E7 ; 19516.000000000004
83 ; 102144.43248317276 ; 225701.94619567238 ; 6672599.437310509 ; 1.488539977616635E7 ; 19754.000000000004
84 ; 102422.96885806031 ; 227131.311295123 ; 6774743.869793682 ; 1.5111101722362023E7 ; 19992.000000000004
85 ; 102672.13543169435 ; 228564.49455365603 ; 6877166.838651743 ; 1.5338233033657147E7 ; 20230.000000000004
86 ; 102616.45292612427 ; 230001.28782991646 ; 6979838.974083438 ; 1.5566797528210802E7 ; 20468.000000000004
87 ; 102594.16916109971 ; 231441.4887696065 ; 7082455.427009562 ; 1.5796798816040719E7 ; 20706.000000000004
88 ; 102457.65623431813 ; 232884.90060641582 ; 7185049.596170662 ; 1.6028240304810325E7 ; 20944.000000000004
89 ; 102319.70825149244 ; 234331.33196920372 ; 7287507.25240498 ; 1.626112520541674E7 ; 21182.000000000004
90 ; 102526.25523178544 ; 235780.5966953633 ; 7389826.9606564725 ; 1.6495456537385944E7 ; 21420.000000000004
91 ; 101944.27073562932 ; 237232.51365028077 ; 7492353.215888258 ; 1.6731237134081308E7 ; 21658.000000000004
92 ; 102643.33045777341 ; 238686.90655278944 ; 7594297.486623887 ; 1.6968469647731587E7 ; 21896.000000000004
93 ; 101673.32137186985 ; 240143.60380650585 ; 7696940.81708166 ; 1.7207156554284375E7 ; 22134.000000000004
94 ; 101676.71517970563 ; 241602.4383369261 ; 7798614.13845353 ; 1.7447300158090882E7 ; 22372.000000000004
95 ; 102039.04646304599 ; 243063.2474341527 ; 7900290.853633236 ; 1.768890259642781E7 ; 22610.000000000004
96 ; 101524.02551053834 ; 244525.87260111596 ; 8002329.900096282 ; 1.7931965843861964E7 ; 22848.000000000004
97 ; 101686.12007187984 ; 245990.15940714994 ; 8103853.925606821 ; 1.8176491716463078E7 ; 23086.000000000004
98 ; 101726.81115748554 ; 247455.9573467782 ; 8205540.0456787 ; 1.8422481875870228E7 ; 23324.000000000004
99 ; 101187.61066493877 ; 248923.11970356345 ; 8307266.856836186 ; 1.8669937833217006E7 ; 23562.000000000004
100 ; 101027.24595352865 ; 250391.50341887376 ; 8408454.467501124 ; 1.891886095292057E7 ; 23800.000000000004
101 ; 100779.04385344233 ; 251860.96896541695 ; 8509481.713454653 ; 1.9169252456339445E7 ; 24038.000000000004
102 ; 100889.45305484516 ; 253331.38022539445 ; 8610260.757308096 ; 1.9421113425304864E7 ; 24276.000000000004
103 ; 100349.07516408601 ; 254802.60437312938 ; 8711150.210362941 ; 1.9674444805530258E7 ; 24514.000000000004
104 ; 100261.59286020706 ; 256274.51176202082 ; 8811499.285527026 ; 1.992924740990339E7 ; 24752.000000000004
105 ; 99775.36685033511 ; 257746.97581568226 ; 8911760.878387233 ; 2.0185521921665408E7 ; 24990.000000000004
106 ; 99499.04992072357 ; 259219.8729231215 ; 9011536.245237568 ; 2.044326889748109E7 ; 25228.000000000004
107 ; 99322.02787954919 ; 260693.08233782346 ; 9111035.295158291 ; 2.0702488770404212E7 ; 25466.000000000004
108 ; 98639.77918807219 ; 262166.4860805986 ; 9210357.32303784 ; 2.0963181852742035E7 ; 25704.000000000004
109 ; 99059.29428960053 ; 263639.9688460648 ; 9308997.102225913 ; 2.1225348338822633E7 ; 25942.000000000004
110 ; 97655.38046368991 ; 265113.4179126316 ; 9408056.396515513 ; 2.1488988307668697E7 ; 26180.000000000004
111 ; 97501.75862495688 ; 266586.7230558606 ; 9505711.776979202 ; 2.175410172558133E7 ; 26418.000000000004
112 ; 97408.42517262115 ; 268059.7764650781 ; 9603213.535604158 ; 2.202068844863719E7 ; 26656.000000000004
113 ; 96919.20623197372 ; 269532.47266312037 ; 9700621.96077678 ; 2.228874822510227E7 ; 26894.000000000004
114 ; 97035.71235177672 ; 271004.70842909446 ; 9797541.167008754 ; 2.2558280697765388E7 ; 27132.000000000004
115 ; 95894.47074849464 ; 272476.38272404345 ; 9894576.87936053 ; 2.2829285406194482E7 ; 27370.000000000004
116 ; 95238.17121448374 ; 273947.3966194041 ; 9990471.350109026 ; 2.3101761788918525E7 ; 27608.000000000004
117 ; 95176.9081959026 ; 275417.6532281537 ; 1.008570952132351E7 ; 2.337570918553793E7 ; 27846.000000000004
118 ; 94739.32904991576 ; 276887.0576385422 ; 1.0180886429519411E7 ; 2.3651126838766083E7 ; 28084.000000000004
119 ; 94290.18713057718 ; 278355.5168503115 ; 1.0275625758569326E7 ; 2.3928013896404624E7 ; 28322.000000000004
120 ; 93498.23000070325 ; 279822.93971330614 ; 1.0369915945699904E7 ; 2.4206369413254935E7 ; 28560.000000000004
121 ; 92556.99033615795 ; 281289.23686838424 ; 1.0463414175700607E7 ; 2.4486192352968242E7 ; 28798.000000000004
122 ; 92479.99803763509 ; 282754.3206905381 ; 1.0555971166036764E7 ; 2.4767481589836627E7 ; 29036.000000000004
123 ; 92112.00796284735 ; 284218.1052341412 ; 1.0648451164074399E7 ; 2.5050235910527166E7 ; 29274.000000000004
124 ; 91443.98213055762 ; 285680.50618023716 ; 1.0740563172037246E7 ; 2.533445401576131E7 ; 29512.000000000004
125 ; 90715.98746471951 ; 287141.4407857928 ; 1.0832007154167803E7 ; 2.5620134521941546E7 ; 29750.000000000004
126 ; 90392.58831607475 ; 288600.82783483795 ; 1.0922723141632523E7 ; 2.5907275962727338E7 ; 29988.000000000004
127 ; 89362.94060491268 ; 290058.5875914191 ; 1.1013115729948599E7 ; 2.6195876790562175E7 ; 30226.000000000004
128 ; 88676.66555825334 ; 291514.6417542961 ; 1.1102478670553511E7 ; 2.6485935378153596E7 ; 30464.000000000004
129 ; 87857.27734785381 ; 292968.9134133135 ; 1.1191155336111763E7 ; 2.677745001990789E7 ; 30702.000000000004
130 ; 86816.75164631143 ; 294421.32700738194 ; 1.1279012613459617E7 ; 2.7070418933321204E7 ; 30940.000000000004
131 ; 86536.05440471016 ; 295871.80828400614 ; 1.1365829365105929E7 ; 2.7364840260328587E7 ; 31178.000000000004
132 ; 85938.21248447635 ; 297320.2842602999 ; 1.1452365419510638E7 ; 2.7660712068612594E7 ; 31416.000000000004
133 ; 85161.14748915852 ; 298766.68318542896 ; 1.1538303631995115E7 ; 2.7958032352872893E7 ; 31654.000000000004
134 ; 84407.92665938562 ; 300210.93450442766 ; 1.1623464779484274E7 ; 2.825679903605832E7 ; 31892.000000000004
135 ; 83896.80147041443 ; 301652.9688233343 ; 1.1707872706143659E7 ; 2.855700997056275E7 ; 32130.000000000004
136 ; 83092.14101342816 ; 303092.7178755953 ; 1.1791769507614072E7 ; 2.8858662939386085E7 ; 32368.000000000004
137 ; 82377.84708023498 ; 304530.11448968784 ; 1.1874861648627501E7 ; 2.916175565726168E7 ; 32606.000000000004
138 ; 81192.56376949418 ; 305965.09255791415 ; 1.1957239495707735E7 ; 2.946628577175137E7 ; 32844.00000000001
139 ; 80358.82541563813 ; 307397.58700632193 ; 1.2038432059477229E7 ; 2.9772250864309285E7 ; 33082.00000000001
140 ; 79741.26997572632 ; 308827.53376570763 ; 1.2118790884892866E7 ; 3.0079648451315608E7 ; 33320.00000000001
141 ; 78688.39879181645 ; 310254.86974366003 ; 1.2198532154868592E7 ; 3.0388475985081315E7 ; 33558.00000000001
142 ; 77788.19626985444 ; 311679.5327976046 ; 1.2277220553660408E7 ; 3.0698730854824975E7 ; 33796.00000000001
143 ; 76619.7920416631 ; 313101.4617088101 ; 1.2355008749930263E7 ; 3.101041038762258E7 ; 34034.00000000001
144 ; 76217.99882583047 ; 314520.5961573199 ; 1.2431628541971926E7 ; 3.132351184933139E7 ; 34272.00000000001
145 ; 75848.6287349348 ; 315936.8766977733 ; 1.2507846540797757E7 ; 3.163803244548871E7 ; 34510.00000000001
146 ; 75498.8768238782 ; 317350.2447360819 ; 1.2583695169532692E7 ; 3.1953969322186485E7 ; 34748.00000000001
147 ; 75347.9848776131 ; 318760.6425069296 ; 1.265919404635657E7 ; 3.2271319566922568E7 ; 34986.00000000001
148 ; 75518.18657567567 ; 320168.0130520632 ; 1.2734542031234182E7 ; 3.25900802094295E7 ; 35224.00000000001
149 ; 74763.81612318789 ; 321572.3001993453 ; 1.2810060217809858E7 ; 3.2910248222481564E7 ; 35462.00000000001
150 ; 74429.0123158562 ; 322973.44854253903 ; 1.2884824033933045E7 ; 3.323182052268091E7 ; 35700.00000000001
151 ; 74900.09281812883 ; 324371.4034217986 ; 1.2959253046248902E7 ; 3.3554793971223444E7 ; 35938.00000000001
152 ; 74568.75963076847 ; 325766.1109048368 ; 1.303415313906703E7 ; 3.387916537464524E7 ; 36176.00000000001
153 ; 73794.79927890448 ; 327157.51776874624 ; 1.3108721898697797E7 ; 3.4204931485550076E7 ; 36414.00000000001
154 ; 73679.86194757759 ; 328545.57148244855 ; 1.3182516697976701E7 ; 3.4532089003318824E7 ; 36652.00000000001
155 ; 73606.27319103225 ; 329930.2201897482 ; 1.3256196559924278E7 ; 3.486063457480127E7 ; 36890.00000000001
156 ; 73443.75113972407 ; 331311.41269296856 ; 1.3329802833115311E7 ; 3.5190564794991024E7 ; 37128.00000000001
157 ; 73031.52644005348 ; 332689.0984371484 ; 1.3403246584255036E7 ; 3.5521876207683995E7 ; 37366.00000000001
158 ; 72256.4741344233 ; 334063.2274947777 ; 1.347627811069509E7 ; 3.585456530612114E7 ; 37604.00000000001
159 ; 72682.39436724977 ; 335433.75055105455 ; 1.3548534584829513E7 ; 3.618862853361592E7 ; 37842.00000000001
160 ; 71989.4561053739 ; 336800.6188896402 ; 1.3621216979196763E7 ; 3.652406228416697E7 ; 38080.00000000001
161 ; 71606.30083397625 ; 338163.78437889856 ; 1.3693206435302136E7 ; 3.686086290305661E7 ; 38318.00000000001
162 ; 71561.74056222115 ; 339523.1994585987 ; 1.3764812736136112E7 ; 3.719902668743551E7 ; 38556.00000000001
163 ; 71248.52228866078 ; 340878.81712706544 ; 1.3836374476698333E7 ; 3.753854988689411E7 ; 38794.00000000001
164 ; 70994.36522845482 ; 342230.59092876053 ; 1.3907622998986995E7 ; 3.787942870402117E7 ; 39032.00000000001
165 ; 70793.93705053508 ; 343578.4749422799 ; 1.397861736421545E7 ; 3.8221659294949934E7 ; 39270.00000000001
166 ; 70548.06537263654 ; 344922.42376875086 ; 1.4049411301265985E7 ; 3.8565237769892216E7 ; 39508.00000000001
167 ; 70011.45957265889 ; 346262.3925206153 ; 1.4119959366638621E7 ; 3.891016019366097E7 ; 39746.00000000001
168 ; 69578.6229568842 ; 347598.33681078546 ; 1.4189970826211281E7 ; 3.925642258618158E7 ; 39984.00000000001
169 ; 69196.4153311043 ; 348930.2127421573 ; 1.4259549449168166E7 ; 3.960402092299236E7 ; 40222.00000000001
170 ; 69102.37222223081 ; 350257.97689747054 ; 1.432874586449927E7 ; 3.995295113573452E7 ; 40460.00000000001
171 ; 68635.45814855535 ; 351581.58632950264 ; 1.4397848236721503E7 ; 4.030320911263199E7 ; 40698.00000000001
172 ; 68128.93320512169 ; 352900.9985515829 ; 1.4466483694870058E7 ; 4.06547906989615E7 ; 40936.00000000001
173 ; 67612.72200636088 ; 354216.17152841855 ; 1.453461262807518E7 ; 4.100769169751308E7 ; 41174.00000000001
174 ; 67946.61913718376 ; 355527.0636672188 ; 1.460222535008154E7 ; 4.13619078690415E7 ; 41412.00000000001
175 ; 68457.65994979838 ; 356833.6338091085 ; 1.4670171969218723E7 ; 4.171743493270872E7 ; 41650.00000000001
176 ; 68240.17127430037 ; 358135.84122082003 ; 1.4738629629168522E7 ; 4.207426856651783E7 ; 41888.00000000001
177 ; 68844.11942067511 ; 359433.64558665414 ; 1.4806869800442822E7 ; 4.243240440773865E7 ; 42126.00000000001
178 ; 69048.6380012215 ; 360727.00700070034 ; 1.4875713919863498E7 ; 4.27918380533253E7 ; 42364.00000000001
179 ; 69100.91737784666 ; 362015.8859593078 ; 1.494476255786472E7 ; 4.3152565060326E7 ; 42602.00000000001
180 ; 69132.3758799131 ; 363300.243353798 ; 1.5013863475242566E7 ; 4.351458094628531E7 ; 42840.00000000001
181 ; 69332.536647843 ; 364580.04046341067 ; 1.508299585112248E7 ; 4.387788118963911E7 ; 43078.00000000001
