CSV File for the Network on Day 45
1 - Minute m 
2 - Power Consumed at minute m 
3 - Power Produced at minute m 
4 - Energy Consumed since the beginning of the day 
5 - Energy Produced since the beginning of the day 
6 - Energy Lost since the beginning of the day 
 
0 ; 4533699.810278391 ; 2.1072826868627095E8 ; 0.0 ; 0.0 ; 0.0
1 ; 4538393.834963389 ; 2.1103340130277663E8 ; 4533699.810278391 ; 2.1072826868627095E8 ; 356.14
2 ; 4542729.651189518 ; 2.119561604042086E8 ; 9072093.64524178 ; 4.217616699890476E8 ; 712.28
3 ; 4549171.932727214 ; 2.134965544429615E8 ; 1.36148232964313E7 ; 6.337178303932562E8 ; 1068.42
4 ; 4551176.997403021 ; 2.1565459116109508E8 ; 1.8163995229158513E7 ; 8.472143848362176E8 ; 1424.56
5 ; 4555704.7450340595 ; 2.1843027749476624E8 ; 2.2715172226561535E7 ; 1.0628689759973128E9 ; 1780.6999999999998
6 ; 4560883.168820868 ; 2.2182361948452377E8 ; 2.7270876971595593E7 ; 1.281299253492079E9 ; 2136.8399999999997
7 ; 4564635.6814299915 ; 2.25834622194005E8 ; 3.1831760140416462E7 ; 1.5031228729766028E9 ; 2492.9799999999996
8 ; 4568850.994065037 ; 2.3046328963947678E8 ; 3.6396395821846455E7 ; 1.7289574951706078E9 ; 2849.1199999999994
9 ; 4571227.448298969 ; 2.3570962473244363E8 ; 4.0965246815911494E7 ; 1.9594207848100846E9 ; 3205.2599999999993
10 ; 4573773.855510647 ; 2.4157362923720467E8 ; 4.553647426421046E7 ; 2.195130409542528E9 ; 3561.399999999999
11 ; 4577056.966491364 ; 2.4805530374478936E8 ; 5.011024811972111E7 ; 2.4367040387797327E9 ; 3917.539999999999
12 ; 4581368.751449724 ; 2.5515464766416818E8 ; 5.468730508621247E7 ; 2.684759342524522E9 ; 4273.679999999999
13 ; 4586872.10892872 ; 2.6287165923104203E8 ; 5.92686738376622E7 ; 2.93991399018869E9 ; 4629.82
14 ; 4587887.996768123 ; 2.712063355339065E8 ; 6.3855545946590915E7 ; 3.202785649419732E9 ; 4985.96
15 ; 4591760.55529217 ; 2.801586725564946E8 ; 6.844343394335903E7 ; 3.4739919849536386E9 ; 5342.1
16 ; 4594135.248691339 ; 2.897286652351692E8 ; 7.30351944986512E7 ; 3.7541506575101333E9 ; 5698.240000000001
17 ; 4597785.323243756 ; 2.999163075293813E8 ; 7.762932974734254E7 ; 4.043879322745302E9 ; 6054.380000000001
18 ; 4601409.283859328 ; 3.1072159250297403E8 ; 8.22271150705863E7 ; 4.343795630274683E9 ; 6410.520000000001
19 ; 4603921.591989604 ; 3.2214451241388774E8 ; 8.682852435444562E7 ; 4.654517222777657E9 ; 6766.660000000002
20 ; 4605321.947952381 ; 3.3418505880972767E8 ; 9.143244594643523E7 ; 4.976661735191545E9 ; 7122.800000000002
21 ; 4610269.014252662 ; 3.46843222626681E8 ; 9.60377678943876E7 ; 5.310846794001272E9 ; 7478.940000000002
22 ; 4614518.949876739 ; 3.6011899428939545E8 ; 1.0064803690864027E8 ; 5.657690016627954E9 ; 7835.080000000003
23 ; 4618526.367978488 ; 3.7401236380964756E8 ; 1.05262555858517E8 ; 6.017809010917349E9 ; 8191.220000000003
24 ; 4619066.305493147 ; 3.885233208819049E8 ; 1.0988108222649549E8 ; 6.391821374726996E9 ; 8547.360000000002
25 ; 4624331.674298468 ; 4.0102793677057034E8 ; 1.1450014853198864E8 ; 6.780344695608901E9 ; 8903.500000000002
26 ; 4625258.8476399835 ; 4.0103329646871877E8 ; 1.191244802062871E8 ; 7.181372632379472E9 ; 9259.640000000001
27 ; 4629194.536885896 ; 4.010389278260033E8 ; 1.2374973905392708E8 ; 7.58240592884819E9 ; 9615.78
28 ; 4631532.899319511 ; 4.010448201128518E8 ; 1.2837893359081298E8 ; 7.983444856674193E9 ; 9971.92
29 ; 4633773.77761358 ; 4.010509626698451E8 ; 1.330104664901325E8 ; 8.3844896767870455E9 ; 10328.06
30 ; 4636849.317153481 ; 4.0105734496276915E8 ; 1.376442402677461E8 ; 8.78554063945689E9 ; 10684.199999999999
31 ; 4640137.733343304 ; 4.010639566299673E8 ; 1.4228108958489957E8 ; 9.186597984419659E9 ; 11040.339999999998
32 ; 4641439.764703634 ; 4.010707875222922E8 ; 1.4692122731824288E8 ; 9.587661941049625E9 ; 11396.479999999998
33 ; 4645033.4313496305 ; 4.0107782773608005E8 ; 1.515626670829465E8 ; 9.988732728571918E9 ; 11752.619999999997
34 ; 4648135.0472790785 ; 4.010850676396576E8 ; 1.5620770051429614E8 ; 1.0389810556307999E10 ; 12108.759999999997
35 ; 4650596.424724491 ; 4.0109249789394796E8 ; 1.6085583556157523E8 ; 1.0790895623947657E10 ; 12464.899999999996
36 ; 4653437.603675816 ; 4.011001094677661E8 ; 1.6550643198629972E8 ; 1.1191988121841604E10 ; 12821.039999999995
37 ; 4654097.114628779 ; 4.011078936484035E8 ; 1.7015986958997554E8 ; 1.159308823130937E10 ; 13177.179999999995
38 ; 4655186.511487696 ; 4.011158420480862E8 ; 1.7481396670460433E8 ; 1.1994196124957773E10 ; 13533.319999999994
39 ; 4659884.208963822 ; 4.0112394660686547E8 ; 1.7946915321609202E8 ; 1.239531196700586E10 ; 13889.459999999994
40 ; 4661443.056923472 ; 4.011321995924669E8 ; 1.8412903742505583E8 ; 1.2796435913612724E10 ; 14245.599999999993
41 ; 4663204.267636885 ; 4.0114059359758127E8 ; 1.887904804819793E8 ; 1.319756811320519E10 ; 14601.739999999993
42 ; 4662973.023850933 ; 4.01149121535038E8 ; 1.934536847496162E8 ; 1.3598708706802773E10 ; 14957.879999999992
43 ; 4663886.337411445 ; 4.01157776631255E8 ; 1.9811665777346712E8 ; 1.399985782833781E10 ; 15314.019999999991
44 ; 4666425.213683556 ; 4.011665524183169E8 ; 2.0278054411087856E8 ; 1.4401015604969065E10 ; 15670.15999999999
45 ; 4669470.55941336 ; 4.011754427249877E8 ; 2.074469693245621E8 ; 1.4802182157387383E10 ; 16026.29999999999
46 ; 4670540.5100338375 ; 4.011844416669253E8 ; 2.1211643988397548E8 ; 1.520335760011237E10 ; 16382.43999999999
47 ; 4671100.391591083 ; 4.011935436363273E8 ; 2.1678698039400932E8 ; 1.5604542041779295E10 ; 16738.57999999999
48 ; 4674397.526042457 ; 4.0120274329120326E8 ; 2.214580807856004E8 ; 1.6005735585415623E10 ; 17094.71999999999
49 ; 4673723.228339687 ; 4.0121203554443717E8 ; 2.2613247831164286E8 ; 1.6406938328706825E10 ; 17450.85999999999
50 ; 4676778.049975755 ; 4.012214155527785E8 ; 2.3080620153998256E8 ; 1.6808150364251263E10 ; 17806.99999999999
51 ; 4675574.938124331 ; 4.0123087870587254E8 ; 2.354829795899583E8 ; 1.7209371779804043E10 ; 18163.13999999999
52 ; 4675814.160025512 ; 4.012404206154232E8 ; 2.4015855452808264E8 ; 1.7610602658509914E10 ; 18519.279999999988
53 ; 4677294.143083793 ; 4.0125003710456055E8 ; 2.4483436868810815E8 ; 1.8011843079125336E10 ; 18875.419999999987
54 ; 4678357.259806083 ; 4.012597241974707E8 ; 2.4951166283119193E8 ; 1.8413093116229897E10 ; 19231.559999999987
55 ; 4677043.002080137 ; 4.0126947810933197E8 ; 2.5419002009099802E8 ; 1.881435284042737E10 ; 19587.699999999986
56 ; 4679353.789165665 ; 4.012792952365894E8 ; 2.5886706309307817E8 ; 1.92156223185367E10 ; 19943.839999999986
57 ; 4680552.724787755 ; 4.012891721475913E8 ; 2.6354641688224384E8 ; 1.961690161377329E10 ; 20299.979999999985
58 ; 4680548.484486139 ; 4.0129910557360226E8 ; 2.6822696960703158E8 ; 2.001819078592088E10 ; 20656.119999999984
59 ; 4682946.203369439 ; 4.013090924002005E8 ; 2.7290751809151775E8 ; 2.041948989149448E10 ; 21012.259999999984
60 ; 4683476.614068427 ; 4.013191296590634E8 ; 2.775904642948872E8 ; 2.082079898389468E10 ; 21368.399999999983
61 ; 4686823.984916199 ; 4.013292145201392E8 ; 2.8227394090895563E8 ; 2.1222118113553745E10 ; 21724.539999999983
62 ; 4686366.290555531 ; 4.013393442842E8 ; 2.8696076489387184E8 ; 2.1623447328073883E10 ; 22080.679999999982
63 ; 4686982.030319536 ; 4.013495163757684E8 ; 2.916471311844274E8 ; 2.202478667235808E10 ; 22436.81999999998
64 ; 4686489.25657187 ; 4.0135972833640814E8 ; 2.963341132147469E8 ; 2.242613618873385E10 ; 22792.95999999998
65 ; 4685704.931086252 ; 4.013699778183667E8 ; 3.010206024713188E8 ; 2.2827495917070255E10 ; 23149.09999999998
66 ; 4689859.762673464 ; 4.013802625785589E8 ; 3.05706307402405E8 ; 2.3228865894888622E10 ; 23505.23999999998
67 ; 4690496.91889925 ; 4.0139058047287595E8 ; 3.1039616716507846E8 ; 2.3630246157467182E10 ; 23861.37999999998
68 ; 4691306.959266542 ; 4.014009294508079E8 ; 3.150866640839777E8 ; 2.403163673794006E10 ; 24217.51999999998
69 ; 4690831.700323407 ; 4.0141130755036503E8 ; 3.1977797104324424E8 ; 2.443303766739087E10 ; 24573.659999999978
70 ; 4690760.248957823 ; 4.014217128932832E8 ; 3.2446880274356765E8 ; 2.4834448974941235E10 ; 24929.799999999977
71 ; 4691256.106015413 ; 4.014321436805006E8 ; 3.2915956299252546E8 ; 2.523587068783452E10 ; 25285.939999999977
72 ; 4690902.83018748 ; 4.014425981878909E8 ; 3.3385081909854084E8 ; 2.563730283151502E10 ; 25642.079999999976
73 ; 4691702.135186591 ; 4.014530747622396E8 ; 3.3854172192872834E8 ; 2.6038745429702908E10 ; 25998.219999999976
74 ; 4691387.3395882035 ; 4.0146357181745136E8 ; 3.4323342406391495E8 ; 2.644019850446515E10 ; 26354.359999999975
75 ; 4691554.631838285 ; 4.0147408783097476E8 ; 3.479248114035032E8 ; 2.68416620762826E10 ; 26710.499999999975
76 ; 4690312.05203844 ; 4.0148462134043217E8 ; 3.5261636603534144E8 ; 2.7243136164113575E10 ; 27066.639999999974
77 ; 4690790.119985567 ; 4.0149517094044435E8 ; 3.573066780873799E8 ; 2.7644620785454006E10 ; 27422.779999999973
78 ; 4689152.209720362 ; 4.015057352796376E8 ; 3.6199746820736545E8 ; 2.804611595639445E10 ; 27778.919999999973
79 ; 4689296.618678772 ; 4.0151631305782294E8 ; 3.666866204170858E8 ; 2.8447621691674088E10 ; 28135.059999999972
80 ; 4689845.321524862 ; 4.01526903023338E8 ; 3.713759170357646E8 ; 2.884913800473191E10 ; 28491.19999999997
81 ; 4690167.064560249 ; 4.0153750397054136E8 ; 3.7606576235728943E8 ; 2.925066490775525E10 ; 28847.33999999997
82 ; 4691320.7086909395 ; 4.015481147374504E8 ; 3.8075592942184967E8 ; 2.9652202411725792E10 ; 29203.47999999997
83 ; 4690132.973006565 ; 4.015587342035149E8 ; 3.854472501305406E8 ; 3.005375052646324E10 ; 29559.61999999997
84 ; 4691884.589499088 ; 4.0156936128751695E8 ; 3.9013738310354716E8 ; 3.0455309260666756E10 ; 29915.75999999997
85 ; 4690262.717175415 ; 4.01579994945591E8 ; 3.948292676930463E8 ; 3.0856878621954273E10 ; 30271.89999999997
86 ; 4689569.516555807 ; 4.01590634169356E8 ; 3.995195304102217E8 ; 3.1258458616899864E10 ; 30628.039999999968
87 ; 4689366.69776014 ; 4.016012779841529E8 ; 4.042090999267775E8 ; 3.166004925106922E10 ; 30984.179999999968
88 ; 4689477.187164594 ; 4.016119254473821E8 ; 4.0889846662453765E8 ; 3.2061650529053375E10 ; 31340.319999999967
89 ; 4688831.231396004 ; 4.016225756469334E8 ; 4.1358794381170225E8 ; 3.246326245450076E10 ; 31696.459999999966
90 ; 4688430.707162441 ; 4.01633227699704E8 ; 4.182767750430983E8 ; 3.2864885030147694E10 ; 32052.599999999966
91 ; 4686597.993339423 ; 4.016438807501994E8 ; 4.229652057502607E8 ; 3.3266518257847397E10 ; 32408.739999999965
92 ; 4687488.8399213385 ; 4.0165453396921086E8 ; 4.2765180374360013E8 ; 3.3668162138597595E10 ; 32764.879999999965
93 ; 4685830.254993202 ; 4.016651865525667E8 ; 4.323392925835215E8 ; 3.4069816672566807E10 ; 33121.01999999997
94 ; 4684217.667134172 ; 4.0167583771995145E8 ; 4.370251228385147E8 ; 3.447148185911938E10 ; 33477.15999999997
95 ; 4683021.227703234 ; 4.016864867137897E8 ; 4.4170934050564885E8 ; 3.4873157696839325E10 ; 33833.29999999997
96 ; 4684633.64296249 ; 4.016971327981909E8 ; 4.4639236173335207E8 ; 3.5274844183553116E10 ; 34189.439999999966
97 ; 4682435.054813731 ; 4.017077752579504E8 ; 4.510769953763146E8 ; 3.56765413163513E10 ; 34545.579999999965
98 ; 4681584.347530887 ; 4.017184133976052E8 ; 4.557594304311283E8 ; 3.607824909160925E10 ; 34901.719999999965
99 ; 4680401.504450277 ; 4.017290465405392E8 ; 4.604410147786592E8 ; 3.647996750500686E10 ; 35257.859999999964
100 ; 4679389.666629509 ; 4.017396740281369E8 ; 4.651214162831095E8 ; 3.68816965515474E10 ; 35613.99999999996
101 ; 4678991.157010274 ; 4.0175029521898127E8 ; 4.69800805949739E8 ; 3.728343622557554E10 ; 35970.13999999996
102 ; 4678767.90063174 ; 4.017609094880942E8 ; 4.7447979710674924E8 ; 3.768518652079452E10 ; 36326.27999999996
103 ; 4678172.51189371 ; 4.017715162262163E8 ; 4.7915856500738096E8 ; 3.808694743028261E10 ; 36682.41999999996
104 ; 4677442.630445584 ; 4.017821148391247E8 ; 4.8383673751927465E8 ; 3.848871894650883E10 ; 37038.55999999996
105 ; 4675134.173299136 ; 4.017927047469855E8 ; 4.8851418014972025E8 ; 3.889050106134795E10 ; 37394.69999999996
106 ; 4674157.115302944 ; 4.0180328538374025E8 ; 4.931893143230194E8 ; 3.929229376609494E10 ; 37750.83999999996
107 ; 4672838.438107181 ; 4.018138561965232E8 ; 4.978634714383223E8 ; 3.969409705147868E10 ; 38106.97999999996
108 ; 4672681.263486831 ; 4.018244166451084E8 ; 5.025363098764295E8 ; 4.009591090767521E10 ; 38463.11999999996
109 ; 4669823.274677208 ; 4.0183496620138484E8 ; 5.072089911399163E8 ; 4.049773532432032E10 ; 38819.25999999996
110 ; 4668861.73447242 ; 4.0184550434885806E8 ; 5.118788144145935E8 ; 4.0899570290521706E10 ; 39175.39999999996
111 ; 4666701.314777501 ; 4.018560305821762E8 ; 5.165476761490659E8 ; 4.130141579487057E10 ; 39531.53999999996
112 ; 4666299.239288813 ; 4.018665444066803E8 ; 5.212143774638434E8 ; 4.170327182545274E10 ; 39887.67999999996
113 ; 4662656.811397119 ; 4.0187704533797616E8 ; 5.258806767031322E8 ; 4.210513836985942E10 ; 40243.819999999956
114 ; 4663929.09487289 ; 4.018875329015276E8 ; 5.3054333351452935E8 ; 4.2507015415197395E10 ; 40599.959999999955
115 ; 4662145.649644428 ; 4.018980066322695E8 ; 5.3520726260940224E8 ; 4.290890294809892E10 ; 40956.099999999955
116 ; 4661624.719247229 ; 4.0190846607423997E8 ; 5.398694082590467E8 ; 4.331080095473119E10 ; 41312.239999999954
117 ; 4657315.84833229 ; 4.019189107802292E8 ; 5.445310329782939E8 ; 4.3712709420805435E10 ; 41668.379999999954
118 ; 4657045.895162648 ; 4.019293403114468E8 ; 5.491883488266262E8 ; 4.411462833158566E10 ; 42024.51999999995
119 ; 4656361.1908795955 ; 4.019397542372034E8 ; 5.538453947217889E8 ; 4.451655767189711E10 ; 42380.65999999995
120 ; 4655152.720868488 ; 4.0195015213460857E8 ; 5.585017559126685E8 ; 4.4918497426134315E10 ; 42736.79999999995
121 ; 4651815.459259033 ; 4.019605335882823E8 ; 5.631569086335369E8 ; 4.532044757826892E10 ; 43092.93999999995
122 ; 4647854.274059919 ; 4.019708981900802E8 ; 5.67808724092796E8 ; 4.57224081118572E10 ; 43449.07999999995
123 ; 4648504.823612438 ; 4.0198124553883195E8 ; 5.724565783668559E8 ; 4.612437901004728E10 ; 43805.21999999995
124 ; 4643289.158170199 ; 4.0199157524009085E8 ; 5.771050831904683E8 ; 4.652636025558611E10 ; 44161.35999999995
125 ; 4640760.8242987525 ; 4.0200188690589625E8 ; 5.817483723486385E8 ; 4.69283518308262E10 ; 44517.49999999995
126 ; 4639947.529781073 ; 4.0201218015454566E8 ; 5.863891331729373E8 ; 4.73303537177321E10 ; 44873.63999999995
127 ; 4637186.808178964 ; 4.020224546103782E8 ; 5.910290807027184E8 ; 4.773236589788665E10 ; 45229.77999999995
128 ; 4633597.38058892 ; 4.020327099035673E8 ; 5.956662675108974E8 ; 4.8134388352497025E10 ; 45585.91999999995
129 ; 4628792.087337791 ; 4.0204294566992295E8 ; 6.002998648914863E8 ; 4.853642106240059E10 ; 45942.05999999995
130 ; 4625411.71727469 ; 4.0205316155070287E8 ; 6.04928656978824E8 ; 4.893846400807051E10 ; 46298.199999999946
131 ; 4625596.559717965 ; 4.02063357192432E8 ; 6.095540686960987E8 ; 4.9340517169621216E10 ; 46654.339999999946
132 ; 4621428.4011769015 ; 4.0207353224673015E8 ; 6.141796652558167E8 ; 4.9742580526813644E10 ; 47010.479999999945
133 ; 4619915.794234891 ; 4.0208368637014717E8 ; 6.188010936569936E8 ; 5.014465405906037E10 ; 47366.619999999944
134 ; 4615554.736135949 ; 4.0209381922400534E8 ; 6.234210094512285E8 ; 5.054673774543052E10 ; 47722.759999999944
135 ; 4613246.079436948 ; 4.021039304742487E8 ; 6.280365641873645E8 ; 5.0948831564654526E10 ; 48078.89999999994
136 ; 4611043.217091144 ; 4.0211401979129905E8 ; 6.326498102668014E8 ; 5.135093549512878E10 ; 48435.03999999994
137 ; 4609154.454929784 ; 4.0212408684991777E8 ; 6.372608534838926E8 ; 5.1753049514920074E10 ; 48791.17999999994
138 ; 4607449.0530627 ; 4.0213413132907426E8 ; 6.418700079388224E8 ; 5.215517360176999E10 ; 49147.31999999994
139 ; 4604286.392688427 ; 4.0214415291181934E8 ; 6.464774569918851E8 ; 5.255730773309906E10 ; 49503.45999999994
140 ; 4601127.984953466 ; 4.021541512851645E8 ; 6.510817433845735E8 ; 5.295945188601088E10 ; 49859.59999999994
141 ; 4598800.630134546 ; 4.021641261399661E8 ; 6.55682871369527E8 ; 5.336160603729604E10 ; 50215.73999999994
142 ; 4595776.718955531 ; 4.021740771708144E8 ; 6.602816719996616E8 ; 5.376377016343601E10 ; 50571.87999999994
143 ; 4592864.406280705 ; 4.021840040759275E8 ; 6.648774487186171E8 ; 5.416594424060683E10 ; 50928.01999999994
144 ; 4587803.101681776 ; 4.021939065570493E8 ; 6.694703131248978E8 ; 5.4568128244682755E10 ; 51284.15999999994
145 ; 4589466.799480343 ; 4.0220378431935227E8 ; 6.740581162265797E8 ; 5.497032215123981E10 ; 51640.29999999994
146 ; 4586052.86097912 ; 4.022136370713436E8 ; 6.7864758302606E8 ; 5.537252593555916E10 ; 51996.43999999994
147 ; 4585032.120560319 ; 4.02223464524776E8 ; 6.832336358870391E8 ; 5.57747395726305E10 ; 52352.579999999936
148 ; 4584059.755904811 ; 4.0223326639456105E8 ; 6.878186680075994E8 ; 5.617696303715527E10 ; 52708.719999999936
149 ; 4582964.20319305 ; 4.0224304239868766E8 ; 6.924027277635041E8 ; 5.6579196303549835E10 ; 53064.859999999935
150 ; 4582737.384467914 ; 4.022527922581421E8 ; 6.969856919666972E8 ; 5.6981439345948524E10 ; 53420.999999999935
151 ; 4580963.990917306 ; 4.022625156968328E8 ; 7.015684293511652E8 ; 5.7383692138206665E10 ; 53777.139999999934
152 ; 4575964.800795248 ; 4.022722124415169E8 ; 7.061493933420825E8 ; 5.7785954653903496E10 ; 54133.27999999993
153 ; 4577702.495224178 ; 4.0228188222173095E8 ; 7.107253581428777E8 ; 5.818822686634502E10 ; 54489.41999999993
154 ; 4577647.5909916125 ; 4.022915247697235E8 ; 7.153030606381018E8 ; 5.859050874856675E10 ; 54845.55999999993
155 ; 4575943.901139787 ; 4.0230113982039064E8 ; 7.198807082290934E8 ; 5.899280027333647E10 ; 55201.69999999993
156 ; 4573068.275871297 ; 4.023107271112143E8 ; 7.244566521302332E8 ; 5.939510141315686E10 ; 55557.83999999993
157 ; 4573277.930655784 ; 4.0232028638220274E8 ; 7.290297204061044E8 ; 5.9797412140268074E10 ; 55913.97999999993
158 ; 4572941.006743113 ; 4.023298173758336E8 ; 7.336029983367603E8 ; 6.0199732426650276E10 ; 56270.11999999993
159 ; 4571280.394049144 ; 4.0233931983699876E8 ; 7.381759393435034E8 ; 6.060206224402611E10 ; 56626.25999999993
160 ; 4569413.159620569 ; 4.0234879351295215E8 ; 7.427472197375525E8 ; 6.1004401563863106E10 ; 56982.39999999993
161 ; 4567735.304188765 ; 4.0235823815325856E8 ; 7.47316632897173E8 ; 6.140675035737606E10 ; 57338.53999999993
162 ; 4566026.764494261 ; 4.0236765350974554E8 ; 7.518843682013618E8 ; 6.180910859552932E10 ; 57694.67999999993
163 ; 4563152.582413258 ; 4.023770393364561E8 ; 7.564503949658561E8 ; 6.221147624903906E10 ; 58050.81999999993
164 ; 4562008.935724692 ; 4.023863953896042E8 ; 7.610135475482694E8 ; 6.261385328837552E10 ; 58406.95999999993
165 ; 4558547.923036853 ; 4.023957214275312E8 ; 7.655755564839941E8 ; 6.301623968376512E10 ; 58763.099999999926
166 ; 4559407.594106085 ; 4.0240501721066433E8 ; 7.701341044070309E8 ; 6.341863540519265E10 ; 59119.239999999925
167 ; 4556870.834328615 ; 4.024142825014768E8 ; 7.74693512001137E8 ; 6.382104042240331E10 ; 59475.379999999925
168 ; 4555379.750385005 ; 4.024235170644493E8 ; 7.792503828354657E8 ; 6.422345470490479E10 ; 59831.519999999924
169 ; 4554167.001810806 ; 4.0243272066603297E8 ; 7.838057625858507E8 ; 6.462587822196924E10 ; 60187.65999999992
170 ; 4552292.040035236 ; 4.024418930746137E8 ; 7.883599295876615E8 ; 6.502831094263527E10 ; 60543.79999999992
171 ; 4549855.233484289 ; 4.0245103406047815E8 ; 7.929122216276968E8 ; 6.5430752835709885E10 ; 60899.93999999992
172 ; 4547991.1207306245 ; 4.0246014339578044E8 ; 7.97462076861181E8 ; 6.583320386977036E10 ; 61256.07999999992
173 ; 4547002.382922872 ; 4.024692208545108E8 ; 8.020100679819117E8 ; 6.6235664013166145E10 ; 61612.21999999992
174 ; 4547467.384579565 ; 4.024782662124646E8 ; 8.065570703648345E8 ; 6.663813323402065E10 ; 61968.35999999992
175 ; 4546168.7734813085 ; 4.0248727924721336E8 ; 8.111045377494141E8 ; 6.7040611500233116E10 ; 62324.49999999992
176 ; 4549125.729832329 ; 4.024962597380763E8 ; 8.156507065228953E8 ; 6.744309877948033E10 ; 62680.63999999992
177 ; 4547921.404795148 ; 4.025052074660931E8 ; 8.201998322527276E8 ; 6.784559503921841E10 ; 63036.77999999992
