CSV File for the Network on Day 156
1 - Minute m 
2 - Power Consumed at minute m 
3 - Power Produced at minute m 
4 - Energy Consumed since the beginning of the day 
5 - Energy Produced since the beginning of the day 
6 - Energy Lost since the beginning of the day 
 
No Production city : 2, Producer : 1
No Production city : 4, Producer : 1
No Production city : 4, Producer : 1
 
0 ; 43448.677934825566 ; 161364.40554751648 ; 0.0 ; 0.0 ; 0.0
1 ; 44897.41148675803 ; 161022.00196567128 ; 43448.677934825566 ; 161364.40554751648 ; 238.00000000000003
2 ; 46408.06177972673 ; 160714.5184486332 ; 88346.0894215836 ; 322386.40751318773 ; 476.00000000000006
3 ; 47584.05451816892 ; 160442.32050866113 ; 134754.15120131033 ; 483100.92596182093 ; 714.0000000000001
4 ; 49061.32420356334 ; 160205.735640899 ; 182338.20571947924 ; 643543.2464704821 ; 952.0000000000001
5 ; 50358.192836701826 ; 160005.05153225912 ; 231399.52992304257 ; 803748.9821113811 ; 1190.0000000000002
6 ; 51410.64842821052 ; 159840.5144583374 ; 281757.7227597444 ; 963754.0336436402 ; 1428.0000000000002
7 ; 52919.25178703509 ; 159712.3278889223 ; 333168.3711879549 ; 1123594.5481019777 ; 1666.0000000000002
8 ; 53689.34729062436 ; 159620.65132039695 ; 386087.62297499 ; 1283306.8759909 ; 1904.0000000000002
9 ; 55109.95300502317 ; 159565.59935064704 ; 439776.97026561433 ; 1442927.527311297 ; 2142.0000000000005
10 ; 56229.222433419156 ; 159547.2410090365 ; 494886.9232706375 ; 1602493.126661944 ; 2380.0000000000005
11 ; 57602.835861133804 ; 159565.59935064704 ; 551116.1457040567 ; 1762040.3676709805 ; 2618.0000000000005
12 ; 58770.80847988811 ; 159620.65132039695 ; 608718.9815651905 ; 1921605.9670216276 ; 2856.0000000000005
13 ; 60011.90460080867 ; 159712.3278889223 ; 667489.7900450786 ; 2081226.6183420245 ; 3094.0000000000005
14 ; 60687.40494378834 ; 159840.5144583373 ; 727501.6946458872 ; 2240938.946230947 ; 3332.0000000000005
15 ; 62186.98699913633 ; 160005.05153225912 ; 788189.0995896755 ; 2400779.4606892844 ; 3570.0000000000005
16 ; 63109.15957102224 ; 160205.735640899 ; 850376.0865888118 ; 2560784.5122215436 ; 3808.0000000000005
17 ; 64514.65032647652 ; 160442.32050866113 ; 913485.2461598341 ; 2720990.2478624424 ; 4046.0000000000005
18 ; 65381.14295964033 ; 160714.5184486332 ; 977999.8964863106 ; 2881432.5683711036 ; 4284.000000000001
19 ; 66758.05971107076 ; 161022.0019656712 ; 1043381.039445951 ; 3042147.0868197368 ; 4522.000000000001
20 ; 67667.49585602488 ; 161364.40554751657 ; 1110139.0991570218 ; 3203169.088785408 ; 4760.000000000001
21 ; 68584.32011223468 ; 161741.32762159104 ; 1177806.5950130466 ; 3364533.4943329245 ; 4998.000000000001
22 ; 69572.44260788508 ; 162152.33265379633 ; 1246390.9151252813 ; 3526274.8219545158 ; 5236.000000000001
23 ; 70449.26613823631 ; 162596.9533648261 ; 1315963.3577331663 ; 3688427.154608312 ; 5474.000000000001
24 ; 71242.09729579766 ; 163074.69303915458 ; 1386412.6238714026 ; 3851024.1079731383 ; 5712.000000000001
25 ; 72601.59923232459 ; 163585.0279019863 ; 1457654.7211672002 ; 4014098.801012293 ; 5950.000000000001
26 ; 73708.99938804208 ; 164127.40953999475 ; 1530256.3203995249 ; 4177683.828914279 ; 6188.000000000001
27 ; 74163.87356809268 ; 164701.26734260426 ; 1603965.319787567 ; 4341811.238454274 ; 6426.000000000001
28 ; 75079.62643259087 ; 165306.01094182458 ; 1678129.1933556597 ; 4506512.505796879 ; 6664.000000000001
29 ; 76280.1068813115 ; 165941.03263018202 ; 1753208.8197882506 ; 4671818.5167387035 ; 6902.000000000001
30 ; 77099.48854184196 ; 166605.70973803673 ; 1829488.926669562 ; 4837759.549368885 ; 7140.000000000001
31 ; 78221.12610226205 ; 167299.4069534868 ; 1906588.415211404 ; 5004365.259106922 ; 7378.000000000001
32 ; 79227.16085571013 ; 168021.47857006927 ; 1984809.541313666 ; 5171664.666060409 ; 7616.000000000001
33 ; 79921.6905199108 ; 168771.27064952807 ; 2064036.702169376 ; 5339686.144630478 ; 7854.000000000001
34 ; 80595.6192948544 ; 169548.12308898647 ; 2143958.3926892867 ; 5508457.415280006 ; 8092.000000000001
35 ; 81653.37009246115 ; 170351.37158387896 ; 2224554.011984141 ; 5678005.5383689925 ; 8330.000000000002
36 ; 82685.43046513466 ; 171180.34947995175 ; 2306207.3820766024 ; 5848356.9099528715 ; 8568.000000000002
37 ; 83394.95684050972 ; 172034.38950947564 ; 2388892.812541737 ; 6019537.259432823 ; 8806.000000000002
38 ; 84096.84095138869 ; 172912.82540853473 ; 2472287.769382247 ; 6191571.648942299 ; 9044.000000000002
39 ; 84643.3406056618 ; 173814.9934138187 ; 2556384.6103336355 ; 6364484.474350834 ; 9282.000000000002
40 ; 85528.2220413215 ; 174740.23363875822 ; 2641027.950939297 ; 6538299.467764653 ; 9520.000000000002
41 ; 86480.2819646845 ; 175687.8913300956 ; 2726556.1729806187 ; 6713039.701403411 ; 9758.000000000002
42 ; 87031.78539468838 ; 176657.31800706455 ; 2813036.454945303 ; 6888727.592733507 ; 9996.000000000002
43 ; 87242.55970808494 ; 177647.87248628377 ; 2900068.2403399916 ; 7065384.910740572 ; 10234.000000000002
44 ; 88315.00382594705 ; 178658.92179623537 ; 2987310.8000480765 ; 7243032.783226856 ; 10472.000000000002
45 ; 88878.11477050648 ; 179689.84198582618 ; 3075625.8038740237 ; 7421691.705023091 ; 10710.000000000002
46 ; 89278.32510732958 ; 180740.01883201755 ; 3164503.9186445302 ; 7601381.547008918 ; 10948.000000000002
47 ; 90384.4512763791 ; 181808.84845187096 ; 3253782.2437518598 ; 7782121.565840935 ; 11186.000000000002
48 ; 90897.83978293253 ; 182895.73782460825 ; 3344166.695028239 ; 7963930.414292807 ; 11424.000000000002
49 ; 91323.56546666422 ; 184000.1052294335 ; 3435064.5348111712 ; 8146826.152117415 ; 11662.000000000002
50 ; 91891.6923310621 ; 185121.38060492786 ; 3526388.1002778355 ; 8330826.257346849 ; 11900.000000000002
51 ; 92450.31079240033 ; 186259.0058358101 ; 3618279.7926088977 ; 8515947.637951776 ; 12138.000000000002
52 ; 92398.9133545938 ; 187412.4349727836 ; 3710730.103401298 ; 8702206.643787587 ; 12376.000000000002
53 ; 93589.69698056487 ; 188581.13439105282 ; 3803129.016755892 ; 8889619.07876037 ; 12614.000000000002
54 ; 94113.05233974442 ; 189764.58289292085 ; 3896718.713736457 ; 9078200.213151423 ; 12852.000000000002
55 ; 94484.7470067391 ; 190962.27175966935 ; 3990831.766076201 ; 9267964.796044344 ; 13090.000000000002
56 ; 95079.02445038111 ; 192173.70475768656 ; 4085316.51308294 ; 9458927.067804014 ; 13328.000000000002
57 ; 95805.55482464797 ; 193398.39810355363 ; 4180395.5375333214 ; 9651100.772561701 ; 13566.000000000002
58 ; 95941.96588467044 ; 194635.88039253495 ; 4276201.09235797 ; 9844499.170665255 ; 13804.000000000002
59 ; 96715.31194642826 ; 195885.69249463995 ; 4372143.05824264 ; 1.003913505105779E7 ; 14042.000000000002
60 ; 96889.82056932834 ; 197147.38742215198 ; 4468858.370189069 ; 1.023502074355243E7 ; 14280.000000000002
61 ; 97649.57159254861 ; 198420.53017223906 ; 4565748.190758397 ; 1.0432168130974581E7 ; 14518.000000000002
62 ; 97487.66142178346 ; 199704.6975479939 ; 4663397.762350946 ; 1.063058866114682E7 ; 14756.000000000002
63 ; 98023.29788361031 ; 200999.47796098577 ; 4760885.423772729 ; 1.0830293358694814E7 ; 14994.000000000002
64 ; 98209.39149193688 ; 202304.47121815023 ; 4858908.721656339 ; 1.10312928366558E7 ; 15232.000000000002
65 ; 99096.61205363853 ; 203619.28829560053 ; 4957118.113148276 ; 1.123359730787395E7 ; 15470.000000000002
66 ; 99096.16515645804 ; 204943.55110171097 ; 5056214.725201914 ; 1.143721659616955E7 ; 15708.000000000002
67 ; 99272.84953829425 ; 206276.89223160053 ; 5155310.890358372 ; 1.164216014727126E7 ; 15946.000000000002
68 ; 99507.17428034784 ; 207618.9547149422 ; 5254583.739896666 ; 1.1848437039502861E7 ; 16184.000000000002
69 ; 99862.27246954986 ; 208969.39175882394 ; 5354090.9141770145 ; 1.2056055994217804E7 ; 16422.000000000004
70 ; 100163.99192471233 ; 210327.8664872106 ; 5453953.186646564 ; 1.2265025385976627E7 ; 16660.000000000004
71 ; 100401.9135705685 ; 211694.05167838544 ; 5554117.178571276 ; 1.2475353252463838E7 ; 16898.000000000004
72 ; 100796.26076186093 ; 213067.62950159513 ; 5654519.092141845 ; 1.2687047304142224E7 ; 17136.000000000004
73 ; 101105.41589100646 ; 214448.29125397975 ; 5755315.352903706 ; 1.2900114933643818E7 ; 17374.000000000004
74 ; 101496.00138269547 ; 215835.7370987361 ; 5856420.768794713 ; 1.3114563224897798E7 ; 17612.000000000004
75 ; 100904.87095259235 ; 217229.67580534352 ; 5957916.770177408 ; 1.3330398961996535E7 ; 17850.000000000004
76 ; 101630.73603229478 ; 218629.82449257132 ; 6058821.64113 ; 1.3547628637801878E7 ; 18088.000000000004
77 ; 101828.4147154903 ; 220035.90837488632 ; 6160452.377162295 ; 1.376625846229445E7 ; 18326.000000000004
78 ; 101629.72130587263 ; 221447.66051279037 ; 6262280.791877786 ; 1.3986294370669337E7 ; 18564.000000000004
79 ; 101875.70810834716 ; 222864.82156753272 ; 6363910.513183658 ; 1.4207742031182127E7 ; 18802.000000000004
80 ; 102169.60636129738 ; 224287.13956057205 ; 6465786.221292005 ; 1.443060685274966E7 ; 19040.000000000004
81 ; 102182.86590595999 ; 225714.36963809363 ; 6567955.827653302 ; 1.4654893992310233E7 ; 19278.000000000004
82 ; 102200.05164498393 ; 227146.2738408301 ; 6670138.693559262 ; 1.4880608361948326E7 ; 19516.000000000004
83 ; 102397.15364951444 ; 228582.62087937913 ; 6772338.745204246 ; 1.5107754635789156E7 ; 19754.000000000004
84 ; 102149.78691418923 ; 230023.18591516674 ; 6874735.89885376 ; 1.5336337256668536E7 ; 19992.000000000004
85 ; 102246.52053735309 ; 231467.75034716082 ; 6976885.68576795 ; 1.5566360442583703E7 ; 20230.000000000004
86 ; 101981.4285814896 ; 232916.10160440422 ; 7079132.206305303 ; 1.5797828192930864E7 ; 20468.000000000004
87 ; 102393.51602687838 ; 234368.03294440339 ; 7181113.634886792 ; 1.6030744294535268E7 ; 20706.000000000004
88 ; 102415.36558748859 ; 235823.34325737998 ; 7283507.150913671 ; 1.6265112327479672E7 ; 20944.000000000004
89 ; 102536.865214425 ; 237281.83687637016 ; 7385922.516501159 ; 1.6500935670737052E7 ; 21182.000000000004
90 ; 102545.086433998 ; 238743.32339313076 ; 7488459.381715585 ; 1.6738217507613422E7 ; 21420.000000000004
91 ; 102118.4084712187 ; 240207.61747979728 ; 7591004.468149583 ; 1.6976960831006553E7 ; 21658.000000000004
92 ; 102393.3988409811 ; 241674.53871622015 ; 7693122.876620801 ; 1.721716844848635E7 ; 21896.000000000004
93 ; 101959.12484564645 ; 243143.9114228932 ; 7795516.275461783 ; 1.745884298720257E7 ; 22134.000000000004
94 ; 101844.06726176217 ; 244615.5644993765 ; 7897475.400307429 ; 1.7701986898625463E7 ; 22372.000000000004
95 ; 101744.15425333151 ; 246089.33126810708 ; 7999319.467569191 ; 1.794660246312484E7 ; 22610.000000000004
96 ; 101925.55753465329 ; 247565.04932348285 ; 8101063.621822523 ; 1.8192691794392947E7 ; 22848.000000000004
97 ; 101652.06505385536 ; 249042.5603860982 ; 8202989.179357177 ; 1.844025684371643E7 ; 23086.000000000004
98 ; 101694.37906145105 ; 250521.71016200696 ; 8304641.244411032 ; 1.868929940410253E7 ; 23324.000000000004
99 ; 101397.10456677568 ; 252002.348206882 ; 8406335.623472482 ; 1.8939821114264537E7 ; 23562.000000000004
100 ; 101123.07292968211 ; 253484.3277949407 ; 8507732.728039257 ; 1.9191823462471418E7 ; 23800.000000000004
101 ; 100775.33941551026 ; 254967.50579250234 ; 8608855.80096894 ; 1.9445307790266357E7 ; 24038.000000000004
102 ; 100375.55391196553 ; 256451.74253604244 ; 8709631.14038445 ; 1.970027529605886E7 ; 24276.000000000004
103 ; 100473.75098817894 ; 257936.90171461026 ; 8810006.694296416 ; 1.99567270385949E7 ; 24514.000000000004
104 ; 99558.06154066442 ; 259422.8502564745 ; 8910480.445284596 ; 2.0214663940309513E7 ; 24752.000000000004
105 ; 99521.032485257 ; 260909.45821986426 ; 9010038.50682526 ; 2.0474086790565986E7 ; 24990.000000000004
106 ; 99642.03157562761 ; 262396.598687673 ; 9109559.539310519 ; 2.073499624878585E7 ; 25228.000000000004
107 ; 98914.1758809919 ; 263884.1476659957 ; 9209201.570886146 ; 2.0997392847473525E7 ; 25466.000000000004
108 ; 98812.70227215938 ; 265371.98398637044 ; 9308115.746767139 ; 2.126127699513952E7 ; 25704.000000000004
109 ; 98608.50776783223 ; 266859.9892115991 ; 9406928.449039299 ; 2.152664897912589E7 ; 25942.000000000004
110 ; 98038.32425867522 ; 268348.0475450237 ; 9505536.956807131 ; 2.179350896833749E7 ; 26180.000000000004
111 ; 97348.04597189525 ; 269836.04574313824 ; 9603575.281065807 ; 2.2061857015882514E7 ; 26418.000000000004
112 ; 97348.60062019908 ; 271323.87303141714 ; 9700923.327037701 ; 2.2331693061625652E7 ; 26656.000000000004
113 ; 96831.3075792935 ; 272811.42102324753 ; 9798271.9276579 ; 2.260301693465707E7 ; 26894.000000000004
114 ; 96924.3991762839 ; 274298.5836418518 ; 9895103.235237194 ; 2.2875828355680317E7 ; 27132.000000000004
115 ; 96291.67750239711 ; 275785.25704509334 ; 9992027.634413479 ; 2.315012693932217E7 ; 27370.000000000004
116 ; 95661.59691628201 ; 277271.33955305966 ; 1.0088319311915876E7 ; 2.3425912196367264E7 ; 27608.000000000004
117 ; 95054.31754682734 ; 278756.73157832026 ; 1.0183980908832159E7 ; 2.3703183535920322E7 ; 27846.000000000004
118 ; 94447.94440132134 ; 280241.3355587605 ; 1.0279035226378987E7 ; 2.3981940267498642E7 ; 28084.000000000004
119 ; 93884.51776998151 ; 281725.0558928964 ; 1.0373483170780309E7 ; 2.4262181603057403E7 ; 28322.000000000004
120 ; 93203.66882823055 ; 283207.79887757625 ; 1.046736768855029E7 ; 2.45439066589503E7 ; 28560.000000000004
121 ; 93524.7177328001 ; 284689.4726479805 ; 1.056057135737852E7 ; 2.4827114457827874E7 ; 28798.000000000004
122 ; 92426.30389576807 ; 286169.9871198328 ; 1.065409607511132E7 ; 2.5111803930475853E7 ; 29036.000000000004
123 ; 91782.18454319693 ; 287649.25393373834 ; 1.0746522379007088E7 ; 2.5397973917595685E7 ; 29274.000000000004
124 ; 91133.85908016033 ; 289127.1864015697 ; 1.0838304563550284E7 ; 2.5685623171529423E7 ; 29512.000000000004
125 ; 90708.2505825194 ; 290603.6994548219 ; 1.0929438422630444E7 ; 2.597475035793099E7 ; 29750.000000000004
126 ; 90349.96537491732 ; 292078.70959486073 ; 1.1020146673212964E7 ; 2.6265354057385813E7 ; 29988.000000000004
127 ; 89336.22489668067 ; 293552.1348449942 ; 1.111049663858788E7 ; 2.6557432766980674E7 ; 30226.000000000004
128 ; 89004.95967262553 ; 295023.89470429503 ; 1.1199832863484561E7 ; 2.6850984901825666E7 ; 30464.000000000004
129 ; 88287.95301034854 ; 296493.9101031099 ; 1.1288837823157188E7 ; 2.714600879652996E7 ; 30702.000000000004
130 ; 87903.5701780188 ; 297962.1033601876 ; 1.1377125776167536E7 ; 2.744250270663307E7 ; 30940.000000000004
131 ; 87069.20132651264 ; 299428.39814136765 ; 1.1465029346345555E7 ; 2.7740464809993256E7 ; 31178.000000000004
132 ; 86095.08155133517 ; 300892.7194197665 ; 1.1552098547672067E7 ; 2.8039893208134625E7 ; 31416.000000000004
133 ; 85573.05914372514 ; 302354.99343740626 ; 1.1638193629223403E7 ; 2.834078592755439E7 ; 31654.000000000004
134 ; 84523.94683228027 ; 303815.1476682285 ; 1.1723766688367128E7 ; 2.8643140920991797E7 ; 31892.000000000004
135 ; 83790.32665574021 ; 305273.11078244273 ; 1.1808290635199409E7 ; 2.8946956068660025E7 ; 32130.000000000004
136 ; 83856.81197793147 ; 306728.812612156 ; 1.1892080961855149E7 ; 2.925222917944247E7 ; 32368.000000000004
137 ; 82274.3542787501 ; 308182.18411823537 ; 1.1975937773833081E7 ; 2.9558957992054626E7 ; 32606.000000000004
138 ; 81688.6089885362 ; 309633.15735835733 ; 1.2058212128111832E7 ; 2.986714017617286E7 ; 32844.00000000001
139 ; 81121.59140209985 ; 311081.66545619717 ; 1.2139900737100368E7 ; 3.0176773333531216E7 ; 33082.00000000001
140 ; 79657.9005218959 ; 312527.6425717156 ; 1.2221022328502469E7 ; 3.0487854998987414E7 ; 33320.00000000001
141 ; 79115.92220908965 ; 313971.0238725008 ; 1.2300680229024366E7 ; 3.0800382641559128E7 ; 33558.00000000001
142 ; 78834.09841911457 ; 315411.7455061255 ; 1.2379796151233455E7 ; 3.111435366543163E7 ; 33796.00000000001
143 ; 77260.08580369334 ; 316849.74457348126 ; 1.245863024965257E7 ; 3.1429765410937756E7 ; 34034.00000000001
144 ; 76352.3908713772 ; 318284.9591030514 ; 1.2535890335456263E7 ; 3.1746615155511238E7 ; 34272.00000000001
145 ; 76006.28248179395 ; 319717.32802608894 ; 1.2612242726327641E7 ; 3.206490011461429E7 ; 34510.00000000001
146 ; 75983.75731641946 ; 321146.79115266376 ; 1.2688249008809434E7 ; 3.238461744264038E7 ; 34748.00000000001
147 ; 75428.57821208633 ; 322573.28914854693 ; 1.2764232766125854E7 ; 3.2705764233793043E7 ; 34986.00000000001
148 ; 75819.15009721772 ; 323996.7635129009 ; 1.283966134433794E7 ; 3.302833752294159E7 ; 35224.00000000001
149 ; 75537.70088650839 ; 325417.1565567449 ; 1.2915480494435158E7 ; 3.335233428645449E7 ; 35462.00000000001
150 ; 75217.00868586291 ; 326834.4113821657 ; 1.2991018195321666E7 ; 3.367775144301124E7 ; 35700.00000000001
151 ; 74683.56373279598 ; 328248.4718622486 ; 1.3066235204007529E7 ; 3.400458585439341E7 ; 35938.00000000001
152 ; 74536.51825412893 ; 329659.28262169805 ; 1.3140918767740324E7 ; 3.433283432625566E7 ; 36176.00000000001
153 ; 74701.10987747027 ; 331066.789018125 ; 1.3215455285994453E7 ; 3.466249360887735E7 ; 36414.00000000001
154 ; 74410.04581878535 ; 332470.93712397537 ; 1.3290156395871924E7 ; 3.499356039789548E7 ; 36652.00000000001
155 ; 74196.13279824443 ; 333871.6737090755 ; 1.336456644169071E7 ; 3.5326031335019454E7 ; 36890.00000000001
156 ; 73938.16130032497 ; 335268.9462237727 ; 1.3438762574488955E7 ; 3.565990300872853E7 ; 37128.00000000001
157 ; 73288.89343825702 ; 336662.70278264757 ; 1.351270073578928E7 ; 3.59951719549523E7 ; 37366.00000000001
158 ; 73021.81803165819 ; 338052.8921487789 ; 1.3585989629227538E7 ; 3.6331834657734945E7 ; 37604.00000000001
159 ; 73304.5217706907 ; 339439.4637185391 ; 1.3659011447259195E7 ; 3.666988754988372E7 ; 37842.00000000001
160 ; 72594.87342468603 ; 340822.36750690255 ; 1.3732315969029887E7 ; 3.7009327013602264E7 ; 38080.00000000001
161 ; 72292.5074508554 ; 342201.55413324625 ; 1.3804910842454573E7 ; 3.735014938110916E7 ; 38318.00000000001
162 ; 71959.95673939404 ; 343576.97480762645 ; 1.387720334990543E7 ; 3.769235093524241E7 ; 38556.00000000001
163 ; 71792.31542188226 ; 344948.5813175138 ; 1.3949163306644823E7 ; 3.8035927910050035E7 ; 38794.00000000001
164 ; 71478.62206055103 ; 346316.32601496886 ; 1.4020955622066706E7 ; 3.838087649136755E7 ; 39032.00000000001
165 ; 71387.58921132763 ; 347680.16180424514 ; 1.4092434244127257E7 ; 3.8727192817382514E7 ; 39270.00000000001
166 ; 70725.97277962428 ; 349040.0421298006 ; 1.4163821833338585E7 ; 3.907487297918676E7 ; 39508.00000000001
167 ; 70299.6670206261 ; 350395.9209647066 ; 1.4234547806118209E7 ; 3.942391302131656E7 ; 39746.00000000001
168 ; 69812.87472137481 ; 351747.75279943744 ; 1.4304847473138835E7 ; 3.977430894228126E7 ; 39984.00000000001
169 ; 69851.37943316052 ; 353095.4926310281 ; 1.437466034786021E7 ; 4.01260566950807E7 ; 40222.00000000001
170 ; 69530.37497235586 ; 354439.09595258726 ; 1.444451172729337E7 ; 4.047915218771172E7 ; 40460.00000000001
171 ; 69109.66007776945 ; 355778.51874315244 ; 1.4514042102265727E7 ; 4.083359128366431E7 ; 40698.00000000001
172 ; 68925.47689308686 ; 357113.71745787543 ; 1.4583151762343496E7 ; 4.118936980240746E7 ; 40936.00000000001
173 ; 69070.28453525704 ; 358444.64901852683 ; 1.4652077239236582E7 ; 4.1546483519865334E7 ; 41174.00000000001
174 ; 68567.25513186076 ; 359771.27080430766 ; 1.472114752377184E7 ; 4.190492816888386E7 ; 41412.00000000001
175 ; 69044.55682933908 ; 361093.5406429582 ; 1.47897147789037E7 ; 4.226469943968817E7 ; 41650.00000000001
176 ; 69001.71394609989 ; 362411.4168021528 ; 1.485875933573304E7 ; 4.262579298033113E7 ; 41888.00000000001
177 ; 69417.19007174025 ; 363724.857981172 ; 1.492776104967914E7 ; 4.298820439713328E7 ; 42126.00000000001
178 ; 69529.4415053821 ; 365033.82330284064 ; 1.499717823975088E7 ; 4.335192925511446E7 ; 42364.00000000001
179 ; 69345.76490142281 ; 366338.27230572456 ; 1.5066707681256263E7 ; 4.37169630784173E7 ; 42602.00000000001
180 ; 69377.27928160082 ; 367638.1649365759 ; 1.5136053446157685E7 ; 4.408330135072303E7 ; 42840.00000000001
181 ; 69835.40772717715 ; 368933.46154301823 ; 1.5205430725439286E7 ; 4.44509395156596E7 ; 43078.00000000001
182 ; 69378.50924734471 ; 370224.1228664647 ; 1.5275266133166462E7 ; 4.481987297720262E7 ; 43316.00000000001
