CSV File for the Network on Day 306
1 - Minute m 
2 - Power Consumed at minute m 
3 - Power Produced at minute m 
4 - Energy Consumed since the beginning of the day 
5 - Energy Produced since the beginning of the day 
6 - Energy Lost since the beginning of the day 
 
No Production city : 2, Producer : 1
No Production city : 4, Producer : 1
No Production city : 4, Producer : 1
 
0 ; 62188.27529226339 ; 230068.90340905052 ; 0.0 ; 0.0 ; 0.0
1 ; 63367.41199594013 ; 229700.54294110203 ; 62188.27529226339 ; 230068.90340905052 ; 238.00000000000003
2 ; 64303.76227062703 ; 229370.15645849536 ; 125555.68728820351 ; 459769.44635015255 ; 476.00000000000006
3 ; 65188.95056556144 ; 229078.00695515913 ; 189859.44955883053 ; 689139.6028086479 ; 714.0000000000001
4 ; 66193.21964834131 ; 228824.3287754964 ; 255048.40012439198 ; 918217.609763807 ; 952.0000000000001
5 ; 67851.11171114512 ; 228609.32677828602 ; 321241.6197727333 ; 1147041.9385393034 ; 1190.0000000000002
6 ; 68479.25784144641 ; 228433.17559695765 ; 389092.73148387845 ; 1375651.2653175895 ; 1428.0000000000002
7 ; 69705.54034932403 ; 228296.01900249004 ; 457571.9893253249 ; 1604084.440914547 ; 1666.0000000000002
8 ; 70561.5045371591 ; 228197.96937438525 ; 527277.5296746489 ; 1832380.459917037 ; 1904.0000000000002
9 ; 71563.92780706113 ; 228139.10728430652 ; 597839.034211808 ; 2060578.4292914222 ; 2142.0000000000005
10 ; 72164.08313647524 ; 228119.4811960229 ; 669402.9620188691 ; 2288717.5365757286 ; 2380.0000000000005
11 ; 73296.84589569614 ; 228139.10728430652 ; 741567.0451553443 ; 2516837.0177717516 ; 2618.0000000000005
12 ; 74046.49260138124 ; 228197.96937438525 ; 814863.8910510405 ; 2744976.125056058 ; 2856.0000000000005
13 ; 74808.61172765723 ; 228296.01900249004 ; 888910.3836524218 ; 2973174.0944304434 ; 3094.0000000000005
14 ; 75933.59512749649 ; 228433.17559695765 ; 963718.995380079 ; 3201470.1134329336 ; 3332.0000000000005
15 ; 76724.98944587777 ; 228609.32677828602 ; 1039652.5905075755 ; 3429903.289029891 ; 3570.0000000000005
16 ; 77421.26365384617 ; 228824.3287754964 ; 1116377.5799534533 ; 3658512.6158081773 ; 3808.0000000000005
17 ; 78288.16533327774 ; 229078.006955159 ; 1193798.8436072995 ; 3887336.9445836735 ; 4046.0000000000005
18 ; 79177.25563199341 ; 229370.15645849536 ; 1272087.0089405773 ; 4116414.9515388324 ; 4284.000000000001
19 ; 80257.65764953804 ; 229700.5429411019 ; 1351264.2645725706 ; 4345785.107997328 ; 4522.000000000001
20 ; 80695.77213201913 ; 230068.90340905052 ; 1431521.9222221086 ; 4575485.65093843 ; 4760.000000000001
21 ; 81653.5868047145 ; 230474.94714442772 ; 1512217.6943541276 ; 4805554.554347481 ; 4998.000000000001
22 ; 82671.46115105928 ; 230918.35671278345 ; 1593871.2811588421 ; 5036029.501491908 ; 5236.000000000001
23 ; 83193.77714040375 ; 231398.7890444737 ; 1676542.7423099014 ; 5266947.858204692 ; 5474.000000000001
24 ; 83331.24596998889 ; 231915.87658150762 ; 1759736.519450305 ; 5498346.647249165 ; 5712.000000000001
25 ; 84604.76429966225 ; 232469.2284812473 ; 1843067.765420294 ; 5730262.523830673 ; 5950.000000000001
26 ; 85673.2158378986 ; 233058.43186815776 ; 1927672.5297199562 ; 5962731.75231192 ; 6188.000000000001
27 ; 86621.45418973383 ; 233683.05312475856 ; 2013345.7455578549 ; 6195790.184180077 ; 6426.000000000001
28 ; 87009.07251580378 ; 234342.63921299027 ; 2099967.1997475885 ; 6429473.237304836 ; 6664.000000000001
29 ; 86865.57104939615 ; 235036.71901736106 ; 2186976.2722633923 ; 6663815.876517826 ; 6902.000000000001
30 ; 88125.75557110208 ; 235764.8047014842 ; 2273841.8433127883 ; 6898852.595535187 ; 7140.000000000001
31 ; 89078.47448250448 ; 236526.39306993678 ; 2361967.5988838905 ; 7134617.400236671 ; 7378.000000000001
32 ; 89100.36280133798 ; 237320.9669277638 ; 2451046.073366395 ; 7371143.793306608 ; 7616.000000000001
33 ; 90092.52433369952 ; 238147.99643039785 ; 2540146.4361677333 ; 7608464.760234372 ; 7854.000000000001
34 ; 90626.21842205166 ; 239006.94041726706 ; 2630238.960501433 ; 7846612.75666477 ; 8092.000000000001
35 ; 91632.54521549278 ; 239897.2477228956 ; 2720865.1789234844 ; 8085619.697082037 ; 8330.000000000002
36 ; 91647.05522386482 ; 240818.35845986562 ; 2812497.724138977 ; 8325516.944804933 ; 8568.000000000002
37 ; 92568.587974086 ; 241769.70526858882 ; 2904144.779362842 ; 8566335.303264799 ; 8806.000000000002
38 ; 93116.60142984753 ; 242750.71452942397 ; 2996713.367336928 ; 8808105.008533387 ; 9044.000000000002
39 ; 93712.19477484874 ; 243760.80753326474 ; 3089829.9687667754 ; 9050855.72306281 ; 9282.000000000002
40 ; 93813.3590348756 ; 244799.40160729855 ; 3183542.1635416243 ; 9294616.530596074 ; 9520.000000000002
41 ; 94935.57777593375 ; 245865.91119320606 ; 3277355.5225764997 ; 9539415.932203373 ; 9758.000000000002
42 ; 95524.26618097548 ; 246959.7488756088 ; 3372291.1003524335 ; 9785281.84339658 ; 9996.000000000002
43 ; 95599.8550628827 ; 248080.32635909432 ; 3467815.366533409 ; 1.0032241592272189E7 ; 10234.000000000002
44 ; 96486.91437365883 ; 249227.05539263252 ; 3563415.2215962918 ; 1.0280321918631284E7 ; 10472.000000000002
45 ; 96594.04448344106 ; 250399.34864065438 ; 3659902.135969951 ; 1.0529548974023916E7 ; 10710.000000000002
46 ; 96995.6343088388 ; 251596.6205004832 ; 3756496.1804533917 ; 1.077994832266457E7 ; 10948.000000000002
47 ; 97658.23792436335 ; 252818.28786619098 ; 3853491.8147622305 ; 1.1031544943165053E7 ; 11186.000000000002
48 ; 97831.56511741312 ; 254063.77083930155 ; 3951150.052686594 ; 1.1284363231031243E7 ; 11424.000000000002
49 ; 98520.54802841503 ; 255332.49338706868 ; 4048981.617804007 ; 1.1538427001870545E7 ; 11662.000000000002
50 ; 98899.93799367764 ; 256623.8839493334 ; 4147502.165832422 ; 1.1793759495257614E7 ; 11900.000000000002
51 ; 99418.55578142489 ; 257937.37599519678 ; 4246402.1038261 ; 1.2050383379206948E7 ; 12138.000000000002
52 ; 99577.7125551327 ; 259272.40853095398 ; 4345820.659607525 ; 1.2308320755202144E7 ; 12376.000000000002
53 ; 100219.04179610212 ; 260628.4265608976 ; 4445398.372162658 ; 1.2567593163733099E7 ; 12614.000000000002
54 ; 100740.14547936532 ; 262004.88150274486 ; 4545617.41395876 ; 1.2828221590293996E7 ; 12852.000000000002
55 ; 100700.64851592765 ; 263401.23155954684 ; 4646357.559438125 ; 1.3090226471796742E7 ; 13090.000000000002
56 ; 101482.58143680923 ; 264816.94205002877 ; 4747058.207954053 ; 1.3353627703356288E7 ; 13328.000000000002
57 ; 101726.51491483371 ; 266251.48569936294 ; 4848540.789390862 ; 1.3618444645406317E7 ; 13566.000000000002
58 ; 101957.93535842132 ; 267704.3428924198 ; 4950267.304305696 ; 1.388469613110568E7 ; 13804.000000000002
59 ; 102420.95331000967 ; 269175.00189155637 ; 5052225.239664117 ; 1.41524004739981E7 ; 14042.000000000002
60 ; 102794.42484764509 ; 270662.9590210044 ; 5154646.192974127 ; 1.4421575475889657E7 ; 14280.000000000002
61 ; 102754.8924535287 ; 272167.7188199031 ; 5257440.617821772 ; 1.469223843491066E7 ; 14518.000000000002
62 ; 102895.89193650532 ; 273688.7941659957 ; 5360195.510275301 ; 1.4964406153730564E7 ; 14756.000000000002
63 ; 103705.076406905 ; 275225.7063719677 ; 5463091.402211806 ; 1.5238094947896559E7 ; 14994.000000000002
64 ; 103775.65093828665 ; 276777.98525635415 ; 5566796.478618711 ; 1.5513320654268526E7 ; 15232.000000000002
65 ; 103426.56775948251 ; 278345.1691908902 ; 5670572.129556998 ; 1.5790098639524879E7 ; 15470.000000000002
66 ; 103767.14559529348 ; 279926.8051261087 ; 5773998.69731648 ; 1.606844380871577E7 ; 15708.000000000002
67 ; 104418.60444872522 ; 281522.4485969256 ; 5877765.842911773 ; 1.6348370613841878E7 ; 15946.000000000002
68 ; 104234.834503799 ; 283131.66370987764 ; 5982184.447360499 ; 1.6629893062438805E7 ; 16184.000000000002
69 ; 104215.23216285734 ; 284754.0231136012 ; 6086419.281864298 ; 1.6913024726148684E7 ; 16422.000000000004
70 ; 104959.1757122732 ; 286389.10795406584 ; 6190634.514027155 ; 1.7197778749262284E7 ; 16660.000000000004
71 ; 104807.16937168995 ; 288036.50781599496 ; 6295593.689739428 ; 1.748416785721635E7 ; 16898.000000000004
72 ; 104567.10591338249 ; 289695.8206518294 ; 6400400.859111118 ; 1.7772204365032345E7 ; 17136.000000000004
73 ; 104738.9630352769 ; 291366.65269951144 ; 6504967.965024501 ; 1.8061900185684174E7 ; 17374.000000000004
74 ; 104705.71438408211 ; 293048.6183902894 ; 6609706.928059778 ; 1.8353266838383686E7 ; 17612.000000000004
75 ; 105004.26137787482 ; 294741.34024766745 ; 6714412.64244386 ; 1.8646315456773974E7 ; 17850.000000000004
76 ; 105086.44107015966 ; 296444.4487785523 ; 6819416.903821735 ; 1.8941056797021642E7 ; 18088.000000000004
77 ; 105584.51828553906 ; 298157.5823575777 ; 6924503.344891895 ; 1.9237501245800193E7 ; 18326.000000000004
78 ; 105509.75804959374 ; 299880.38710551773 ; 7030087.863177434 ; 1.953565882815777E7 ; 18564.000000000004
79 ; 105067.00539629013 ; 301612.51676263375 ; 7135597.621227027 ; 1.983553921526329E7 ; 18802.000000000004
80 ; 105070.57056803683 ; 303353.632557739 ; 7240664.626623317 ; 2.013715173202592E7 ; 19040.000000000004
81 ; 105564.90655825473 ; 305103.4030737003 ; 7345735.197191354 ; 2.044050536458366E7 ; 19278.000000000004
82 ; 105779.38185568165 ; 306861.50411004433 ; 7451300.103749609 ; 2.0745608767657362E7 ; 19516.000000000004
83 ; 105759.83582152831 ; 308627.6185432751 ; 7557079.48560529 ; 2.1052470271767408E7 ; 19754.000000000004
84 ; 105803.8508490232 ; 310401.43618546426 ; 7662839.321426818 ; 2.1361097890310682E7 ; 19992.000000000004
85 ; 105072.09886953376 ; 312182.65364162246 ; 7768643.172275841 ; 2.1671499326496147E7 ; 20230.000000000004
86 ; 105594.52945806763 ; 313970.9741663171 ; 7873715.271145375 ; 2.198368198013777E7 ; 20468.000000000004
87 ; 105229.25533834635 ; 315766.10751995776 ; 7979309.800603443 ; 2.2297652954304088E7 ; 20706.000000000004
88 ; 105663.60883611058 ; 317567.7698251309 ; 8084539.055941789 ; 2.2613419061824046E7 ; 20944.000000000004
89 ; 105360.56608887827 ; 319375.6834233286 ; 8190202.6647779 ; 2.2930986831649177E7 ; 21182.000000000004
90 ; 104950.30102576327 ; 321189.57673237985 ; 8295563.230866779 ; 2.3250362515072506E7 ; 21420.000000000004
91 ; 105006.02084567375 ; 323009.18410486175 ; 8400513.531892542 ; 2.3571552091804884E7 ; 21658.000000000004
92 ; 104933.07843387165 ; 324834.2456877375 ; 8505519.552738216 ; 2.3894561275909748E7 ; 21896.000000000004
93 ; 104706.66748192503 ; 326664.5072834397 ; 8610452.631172087 ; 2.4219395521597486E7 ; 22134.000000000004
94 ; 104576.62111911377 ; 328499.7202125925 ; 8715159.298654012 ; 2.4546060028880924E7 ; 22372.000000000004
95 ; 104638.27054108662 ; 330339.6411785412 ; 8819735.919773126 ; 2.4874559749093518E7 ; 22610.000000000004
96 ; 104080.76444609016 ; 332184.032133838 ; 8924374.190314213 ; 2.520489939027206E7 ; 22848.000000000004
97 ; 104243.77635363114 ; 334032.6601488097 ; 9028454.954760304 ; 2.5537083422405895E7 ; 23086.000000000004
98 ; 104164.82291640177 ; 335885.2972823177 ; 9132698.731113935 ; 2.5871116082554705E7 ; 23324.000000000004
99 ; 103778.01528746323 ; 337741.7204547999 ; 9236863.554030336 ; 2.6207001379837025E7 ; 23562.000000000004
100 ; 103262.18958041188 ; 339601.7113236741 ; 9340641.569317799 ; 2.6544743100291826E7 ; 23800.000000000004
101 ; 103007.2384978314 ; 341465.0561611626 ; 9443903.758898212 ; 2.68843448116155E7 ; 24038.000000000004
102 ; 103185.18094955164 ; 343331.5457345881 ; 9546910.997396043 ; 2.7225809867776662E7 ; 24276.000000000004
103 ; 102753.16948083355 ; 345200.9751891805 ; 9650096.178345595 ; 2.756914141351125E7 ; 24514.000000000004
104 ; 102625.55900796785 ; 347073.14393341873 ; 9752849.347826429 ; 2.791434238870043E7 ; 24752.000000000004
105 ; 101930.04046285487 ; 348947.85552692885 ; 9855474.906834397 ; 2.826141553263385E7 ; 24990.000000000004
106 ; 102064.00270330205 ; 350824.91757094493 ; 9957404.947297253 ; 2.8610363388160776E7 ; 25228.000000000004
107 ; 101766.08658783352 ; 352704.1416013367 ; 1.0059468950000554E7 ; 2.896118830573172E7 ; 25466.000000000004
108 ; 100886.6306150301 ; 354585.3429841954 ; 1.0161235036588388E7 ; 2.9313892447333056E7 ; 25704.000000000004
109 ; 100989.69469124901 ; 356468.3408139698 ; 1.0262121667203417E7 ; 2.9668477790317252E7 ; 25942.000000000004
110 ; 100329.46736491552 ; 358352.95781413297 ; 1.0363111361894665E7 ; 3.002494613113122E7 ; 26180.000000000004
111 ; 99966.3844167898 ; 360239.0202403592 ; 1.046344082925958E7 ; 3.0383299088945355E7 ; 26418.000000000004
112 ; 100300.20848439613 ; 362126.3577861834 ; 1.056340721367637E7 ; 3.0743538109185714E7 ; 26656.000000000004
113 ; 99097.71021989892 ; 364014.8034911163 ; 1.0663707422160767E7 ; 3.1105664466971897E7 ; 26894.000000000004
114 ; 98807.01919333561 ; 365904.19365117716 ; 1.0762805132380666E7 ; 3.1469679270463012E7 ; 27132.000000000004
115 ; 99071.3112393784 ; 367794.3677318141 ; 1.0861612151574003E7 ; 3.183558346411419E7 ; 27370.000000000004
116 ; 98399.1783013935 ; 369685.16828316887 ; 1.0960683462813381E7 ; 3.2203377831846002E7 ; 27608.000000000004
117 ; 97722.28522061328 ; 371576.4408576481 ; 1.1059082641114775E7 ; 3.257306300012917E7 ; 27846.000000000004
118 ; 97184.28757010118 ; 373468.0339297575 ; 1.1156804926335389E7 ; 3.294463944098682E7 ; 28084.000000000004
119 ; 96714.99130050199 ; 375359.7988181578 ; 1.125398921390549E7 ; 3.3318107474916577E7 ; 28322.000000000004
120 ; 96562.93003971926 ; 377251.58960989426 ; 1.1350704205205992E7 ; 3.369346727373473E7 ; 28560.000000000004
121 ; 96335.74454313825 ; 379143.2630867577 ; 1.144726713524571E7 ; 3.4070718863344625E7 ; 28798.000000000004
122 ; 95066.90397655223 ; 381034.67865372816 ; 1.154360287978885E7 ; 3.444986212643138E7 ; 29036.000000000004
123 ; 94920.09532491649 ; 382925.69826945575 ; 1.1638669783765402E7 ; 3.483089680508511E7 ; 29274.000000000004
124 ; 94581.51800502758 ; 384816.18637873227 ; 1.1733589879090318E7 ; 3.5213822503354564E7 ; 29512.000000000004
125 ; 93813.34130163948 ; 386706.0098469046 ; 1.1828171397095347E7 ; 3.55986386897333E7 ; 29750.000000000004
126 ; 93227.8885454779 ; 388595.0378961841 ; 1.1921984738396985E7 ; 3.59853446995802E7 ; 29988.000000000004
127 ; 92437.46442889117 ; 390483.1420438055 ; 1.2015212626942463E7 ; 3.6373939737476386E7 ; 30226.000000000004
128 ; 92146.40590167484 ; 392370.1960419872 ; 1.2107650091371354E7 ; 3.676442287952019E7 ; 30464.000000000004
129 ; 91960.71508613863 ; 394256.07581964793 ; 1.2199796497273028E7 ; 3.715679307556218E7 ; 30702.000000000004
130 ; 90527.3331826058 ; 396140.6594258323 ; 1.2291757212359166E7 ; 3.755104915138183E7 ; 30940.000000000004
131 ; 90661.72609834577 ; 398023.8269748025 ; 1.238228454554177E7 ; 3.794718981080766E7 ; 31178.000000000004
132 ; 89753.822912269 ; 399905.4605927484 ; 1.2472946271640116E7 ; 3.834521363778246E7 ; 31416.000000000004
133 ; 88957.57399154223 ; 401785.4443660746 ; 1.2562700094552385E7 ; 3.874511909837521E7 ; 31654.000000000004
134 ; 88535.91235933673 ; 403663.664291218 ; 1.2651657668543927E7 ; 3.9146904542741284E7 ; 31892.000000000004
135 ; 87501.49407503926 ; 405540.0082259576 ; 1.2740193580903264E7 ; 3.95505682070325E7 ; 32130.000000000004
136 ; 87357.92471002313 ; 407414.3658421698 ; 1.2827695074978303E7 ; 3.995610821525846E7 ; 32368.000000000004
137 ; 86270.41655283934 ; 409286.6285799919 ; 1.2915052999688325E7 ; 4.036352258110063E7 ; 32606.000000000004
138 ; 85519.95675288691 ; 411156.68960335135 ; 1.3001323416241165E7 ; 4.077280920968062E7 ; 32844.00000000001
139 ; 84845.16265176353 ; 413024.44375682244 ; 1.3086843372994052E7 ; 4.118396589928397E7 ; 33082.00000000001
140 ; 84363.97336047924 ; 414889.7875237723 ; 1.3171688535645816E7 ; 4.159699034304079E7 ; 33320.00000000001
141 ; 83015.13751966596 ; 416752.6189857561 ; 1.3256052509006295E7 ; 4.2011880130564556E7 ; 33558.00000000001
142 ; 82500.12516164263 ; 418612.837783129 ; 1.333906764652596E7 ; 4.242863274955031E7 ; 33796.00000000001
143 ; 81872.79427948012 ; 420470.34507683426 ; 1.3421567771687603E7 ; 4.284724558733344E7 ; 34034.00000000001
144 ; 81068.64202372172 ; 422325.0435113366 ; 1.3503440565967083E7 ; 4.326771593241028E7 ; 34272.00000000001
145 ; 80791.63663057348 ; 424176.83717866364 ; 1.3584509207990805E7 ; 4.3690040975921616E7 ; 34510.00000000001
146 ; 80210.88779752144 ; 426025.631583524 ; 1.3665300844621379E7 ; 4.411421781310028E7 ; 34748.00000000001
147 ; 80316.62161126382 ; 427871.3336094693 ; 1.37455117324189E7 ; 4.4540243444683805E7 ; 34986.00000000001
148 ; 80131.94014860375 ; 429713.8514860686 ; 1.3825828354030164E7 ; 4.4968114778293274E7 ; 35224.00000000001
149 ; 79546.7118817509 ; 431553.09475706395 ; 1.3905960294178767E7 ; 4.539782862977935E7 ; 35462.00000000001
150 ; 79678.62861708984 ; 433388.9742494787 ; 1.3985507006060518E7 ; 4.582938172453641E7 ; 35700.00000000001
151 ; 79459.29657288494 ; 435221.4020436479 ; 1.4065185634677608E7 ; 4.626277069878589E7 ; 35938.00000000001
152 ; 79223.6675015575 ; 437050.2914441446 ; 1.4144644931250492E7 ; 4.669799210082954E7 ; 36176.00000000001
153 ; 79130.32412592355 ; 438875.5569515726 ; 1.422386859875205E7 ; 4.713504239227369E7 ; 36414.00000000001
154 ; 78792.11606437479 ; 440697.1142352012 ; 1.4302998922877973E7 ; 4.757391794922526E7 ; 36652.00000000001
155 ; 78339.47433170254 ; 442514.88010641414 ; 1.4381791038942348E7 ; 4.801461506346046E7 ; 36890.00000000001
156 ; 78515.48246333614 ; 444328.77249295 ; 1.4460130513274051E7 ; 4.845712994356687E7 ; 37128.00000000001
157 ; 78333.82900168406 ; 446138.71041390736 ; 1.4538645995737387E7 ; 4.890145871605983E7 ; 37366.00000000001
158 ; 78259.90575159721 ; 447944.61395549244 ; 1.461697982473907E7 ; 4.934759742647374E7 ; 37604.00000000001
159 ; 77348.05503829244 ; 449746.4042474876 ; 1.4695239730490668E7 ; 4.979554204042923E7 ; 37842.00000000001
160 ; 76974.86726742258 ; 451544.0034404158 ; 1.477258778552896E7 ; 5.024528844467671E7 ; 38080.00000000001
161 ; 76548.07491542285 ; 453337.33468338073 ; 1.4849562652796382E7 ; 5.069683244811713E7 ; 38318.00000000001
162 ; 76271.66575942433 ; 455126.3221025642 ; 1.4926110727711804E7 ; 5.115016978280051E7 ; 38556.00000000001
163 ; 76077.65258867641 ; 456910.8907803556 ; 1.5002382393471228E7 ; 5.160529610490307E7 ; 38794.00000000001
164 ; 75797.75236338246 ; 458690.96673509845 ; 1.5078460046059905E7 ; 5.2062206995683424E7 ; 39032.00000000001
165 ; 75589.55967250827 ; 460466.476901433 ; 1.5154257798423287E7 ; 5.252089796241852E7 ; 39270.00000000001
166 ; 75272.95665730126 ; 462237.3491112162 ; 1.5229847358095795E7 ; 5.298136443931995E7 ; 39508.00000000001
167 ; 74727.9675448796 ; 464003.5120750028 ; 1.5305120314753097E7 ; 5.344360178843117E7 ; 39746.00000000001
168 ; 74415.04143357981 ; 465764.8953640685 ; 1.5379848282297976E7 ; 5.390760530050617E7 ; 39984.00000000001
169 ; 74067.28528353904 ; 467521.42939295975 ; 1.5454263323731557E7 ; 5.4373370195870236E7 ; 40222.00000000001
170 ; 74152.1973882275 ; 469273.0454025529 ; 1.5528330609015096E7 ; 5.484089162526319E7 ; 40460.00000000001
171 ; 73390.85330201402 ; 470774.903371824 ; 1.5602482806403324E7 ; 5.531016467066574E7 ; 40698.00000000001
172 ; 73424.14148018992 ; 470774.903371824 ; 1.5675873659705337E7 ; 5.578093957403757E7 ; 40936.00000000001
173 ; 72717.41936878976 ; 470774.903371824 ; 1.5749297801185528E7 ; 5.625171447740939E7 ; 41174.00000000001
174 ; 72651.12762644113 ; 470774.903371824 ; 1.5822015220554318E7 ; 5.672248938078122E7 ; 41412.00000000001
175 ; 73061.69278102124 ; 470774.903371824 ; 1.589466634818076E7 ; 5.7193264284153044E7 ; 41650.00000000001
176 ; 72961.87147812857 ; 470774.903371824 ; 1.5967728040961782E7 ; 5.766403918752487E7 ; 41888.00000000001
177 ; 73416.13762311342 ; 470774.903371824 ; 1.604068991243991E7 ; 5.8134814090896696E7 ; 42126.00000000001
178 ; 73012.62188959937 ; 470774.903371824 ; 1.6114106050063023E7 ; 5.860558899426852E7 ; 42364.00000000001
179 ; 72610.22523882973 ; 470774.903371824 ; 1.6187118671952622E7 ; 5.907636389764035E7 ; 42602.00000000001
180 ; 73357.37681997368 ; 470774.903371824 ; 1.6259728897191452E7 ; 5.954713880101217E7 ; 42840.00000000001
181 ; 73519.6540113955 ; 470774.903371824 ; 1.6333086274011426E7 ; 6.0017913704384E7 ; 43078.00000000001
