CSV File for the Network on Day 313
1 - Minute m 
2 - Power Consumed at minute m 
3 - Power Produced at minute m 
4 - Energy Consumed since the beginning of the day 
5 - Energy Produced since the beginning of the day 
6 - Energy Lost since the beginning of the day 
 
No Production city : 2, Producer : 1
No Production city : 4, Producer : 1
No Production city : 4, Producer : 1
 
0 ; 61823.15063793807 ; 230900.41485862725 ; 0.0 ; 0.0 ; 0.0
1 ; 62899.94578811848 ; 230532.55159223534 ; 61823.15063793807 ; 230900.41485862725 ; 238.00000000000003
2 ; 63804.56046702223 ; 230202.6094628283 ; 124723.09642605655 ; 461432.9664508626 ; 476.00000000000006
3 ; 64638.34158346266 ; 229910.8516236036 ; 188527.6568930788 ; 691635.5759136908 ; 714.0000000000001
4 ; 66015.87896809861 ; 229657.51256594012 ; 253165.99847654146 ; 921546.4275372945 ; 952.0000000000001
5 ; 66942.87373032425 ; 229442.7972809971 ; 319181.87744464003 ; 1151203.9401032345 ; 1190.0000000000002
6 ; 67858.18805111058 ; 229266.88051792115 ; 386124.7511749643 ; 1380646.7373842315 ; 1428.0000000000002
7 ; 68720.30870659444 ; 229129.90614493482 ; 453982.9392260749 ; 1609913.6179021527 ; 1666.0000000000002
8 ; 69533.20860552919 ; 229031.98661879508 ; 522703.24793266936 ; 1839043.5240470874 ; 1904.0000000000002
9 ; 70672.24843600635 ; 228973.20256722398 ; 592236.4565381985 ; 2068075.5106658824 ; 2142.0000000000005
10 ; 71785.71102975904 ; 228953.60248798007 ; 662908.7049742049 ; 2297048.7132331063 ; 2380.0000000000005
11 ; 72478.05916707066 ; 228973.20256722398 ; 734694.4160039639 ; 2526002.315721086 ; 2618.0000000000005
12 ; 73587.75130340931 ; 229031.98661879508 ; 807172.4751710346 ; 2754975.51828831 ; 2856.0000000000005
13 ; 74698.56168537601 ; 229129.90614493482 ; 880760.2264744439 ; 2984007.504907105 ; 3094.0000000000005
14 ; 74980.23889186076 ; 229266.88051792103 ; 955458.7881598199 ; 3213137.41105204 ; 3332.0000000000005
15 ; 76236.87214736136 ; 229442.7972809971 ; 1030439.0270516807 ; 3442404.291569961 ; 3570.0000000000005
16 ; 77006.62579010241 ; 229657.51256594012 ; 1106675.899199042 ; 3671847.088850958 ; 3808.0000000000005
17 ; 77705.04052744193 ; 229910.8516236036 ; 1183682.5249891444 ; 3901504.601416898 ; 4046.0000000000005
18 ; 78849.24361380027 ; 230202.6094628284 ; 1261387.5655165864 ; 4131415.4530405016 ; 4284.000000000001
19 ; 79555.5364607512 ; 230532.55159223522 ; 1340236.8091303867 ; 4361618.06250333 ; 4522.000000000001
20 ; 80214.04253128731 ; 230900.41485862734 ; 1419792.345591138 ; 4592150.614095566 ; 4760.000000000001
21 ; 81029.23997045089 ; 231305.90837502992 ; 1500006.3881224252 ; 4823051.028954193 ; 4998.000000000001
22 ; 81567.45889881554 ; 231748.71453080248 ; 1581035.6280928762 ; 5054356.937329223 ; 5236.000000000001
23 ; 83091.35665897487 ; 232228.4900757715 ; 1662603.0869916917 ; 5286105.651860026 ; 5474.000000000001
24 ; 83593.04325046066 ; 232744.86726995645 ; 1745694.4436506666 ; 5518334.141935797 ; 5712.000000000001
25 ; 83835.71550753707 ; 233297.45509019986 ; 1829287.4869011273 ; 5751079.009205754 ; 5950.000000000001
26 ; 85115.09482737041 ; 233885.84048486146 ; 1913123.2024086644 ; 5984376.4642959535 ; 6188.000000000001
27 ; 85004.93952517102 ; 234509.58966769458 ; 1998238.2972360349 ; 6218262.304780815 ; 6426.000000000001
28 ; 86251.03719708981 ; 235168.24944208036 ; 2083243.2367612058 ; 6452771.894448509 ; 6664.000000000001
29 ; 86772.05513844707 ; 235861.34854695777 ; 2169494.2739582956 ; 6687940.1438905895 ; 6902.000000000001
30 ; 87556.88347454308 ; 236588.39901602856 ; 2256266.3290967424 ; 6923801.492437547 ; 7140.000000000001
31 ; 88678.09928915983 ; 237348.89754214307 ; 2343823.2125712857 ; 7160389.891453575 ; 7378.000000000001
32 ; 88993.57419686945 ; 238142.3268391686 ; 2432501.3118604454 ; 7397738.788995719 ; 7616.000000000001
33 ; 89766.56579452609 ; 238968.1569940912 ; 2521494.886057315 ; 7635881.115834887 ; 7854.000000000001
34 ; 90408.0253156642 ; 239825.84680260828 ; 2611261.451851841 ; 7874849.2728289785 ; 8092.000000000001
35 ; 90524.96625345589 ; 240714.8450820044 ; 2701669.4771675053 ; 8114675.119631587 ; 8330.000000000002
36 ; 91369.72503977275 ; 241634.5919556702 ; 2792194.443420961 ; 8355389.964713591 ; 8568.000000000002
37 ; 92109.12137857772 ; 242584.52010420815 ; 2883564.1684607337 ; 8597024.556669261 ; 8806.000000000002
38 ; 92530.22711157639 ; 243564.0559786583 ; 2975673.2898393115 ; 8839609.07677347 ; 9044.000000000002
39 ; 92858.40760418875 ; 244572.62097196956 ; 3068203.516950888 ; 9083173.132752128 ; 9282.000000000002
40 ; 94375.6373171309 ; 245609.6325454213 ; 3161061.9245550768 ; 9327745.753724098 ; 9520.000000000002
41 ; 94280.3790758908 ; 246674.50530726882 ; 3255437.5618722076 ; 9573355.38626952 ; 9758.000000000002
42 ; 94476.80889077597 ; 247766.65204142986 ; 3349717.9409480984 ; 9820029.891576787 ; 9996.000000000002
43 ; 95314.39503891679 ; 248885.48468454985 ; 3444194.749838874 ; 1.0067796543618217E7 ; 10234.000000000002
44 ; 96003.3348508498 ; 250030.41525027133 ; 3539509.144877791 ; 1.0316682028302766E7 ; 10472.000000000002
45 ; 96621.8708965849 ; 251200.85669999037 ; 3635512.4797286405 ; 1.0566712443553038E7 ; 10710.000000000002
46 ; 96721.71847842945 ; 252396.22375980316 ; 3732134.3506252253 ; 1.0817913300253028E7 ; 10948.000000000002
47 ; 97203.53128547486 ; 253615.93368373023 ; 3828856.069103655 ; 1.1070309524012832E7 ; 11186.000000000002
48 ; 97528.3502029379 ; 254859.4069636525 ; 3926059.60038913 ; 1.1323925457696563E7 ; 11424.000000000002
49 ; 98410.39447212395 ; 256126.0679867025 ; 4023587.950592068 ; 1.1578784864660215E7 ; 11662.000000000002
50 ; 98643.38486644167 ; 257415.34564112927 ; 4121998.345064192 ; 1.1834910932646917E7 ; 11900.000000000002
51 ; 99206.93649108008 ; 258726.67387188744 ; 4220641.729930634 ; 1.2092326278288046E7 ; 12138.000000000002
52 ; 99494.97749234752 ; 260059.4921874086 ; 4319848.666421713 ; 1.2351052952159934E7 ; 12376.000000000002
53 ; 100178.34622037964 ; 261413.2461191788 ; 4419343.643914061 ; 1.2611112444347342E7 ; 12614.000000000002
54 ; 100570.25854061797 ; 262787.387635886 ; 4519521.99013444 ; 1.2872525690466521E7 ; 12852.000000000002
55 ; 100814.1326299737 ; 264181.3755140114 ; 4620092.248675059 ; 1.3135313078102408E7 ; 13090.000000000002
56 ; 101573.90893265771 ; 265594.67566682043 ; 4720906.381305032 ; 1.339949445361642E7 ; 13328.000000000002
57 ; 101741.19088398601 ; 267026.76143377065 ; 4822480.29023769 ; 1.366508912928324E7 ; 13566.000000000002
58 ; 101776.20215156485 ; 268477.1138323861 ; 4924221.481121676 ; 1.3932115890717011E7 ; 13804.000000000002
59 ; 102534.48001063743 ; 269945.22177467094 ; 5025997.683273241 ; 1.4200593004549397E7 ; 14042.000000000002
60 ; 102515.70279984924 ; 271430.5822501292 ; 5128532.163283878 ; 1.4470538226324068E7 ; 14280.000000000002
61 ; 103017.09692267345 ; 272932.7004774448 ; 5231047.866083727 ; 1.4741968808574198E7 ; 14518.000000000002
62 ; 103071.87737417297 ; 274451.0900268465 ; 5334064.9630064005 ; 1.5014901509051643E7 ; 14756.000000000002
63 ; 103219.38878977812 ; 275985.27291514067 ; 5437136.840380574 ; 1.528935259907849E7 ; 14994.000000000002
64 ; 103829.94967649526 ; 277534.77967534604 ; 5540356.229170352 ; 1.556533787199363E7 ; 15232.000000000002
65 ; 103515.6324563802 ; 279099.1494028059 ; 5644186.178846847 ; 1.5842872651668975E7 ; 15470.000000000002
66 ; 104248.57664051905 ; 280677.92977958807 ; 5747701.811303227 ; 1.6121971801071782E7 ; 15708.000000000002
67 ; 104434.2264881748 ; 282270.6770789136 ; 5851950.3879437465 ; 1.6402649730851369E7 ; 15946.000000000002
68 ; 104570.41696459439 ; 283876.95615128236 ; 5956384.614431921 ; 1.6684920407930283E7 ; 16184.000000000002
69 ; 104859.77047173427 ; 285496.3403938867 ; 6060955.031396516 ; 1.6968797364081565E7 ; 16422.000000000004
70 ; 105272.54856650837 ; 287128.41170482617 ; 6165814.80186825 ; 1.725429370447545E7 ; 16660.000000000004
71 ; 105786.67502513128 ; 288772.760423558 ; 6271087.350434758 ; 1.754142211618028E7 ; 16898.000000000004
72 ; 105725.32496545187 ; 290428.9852589393 ; 6376874.025459889 ; 1.7830194876603838E7 ; 17136.000000000004
73 ; 105786.774023517 ; 292096.69320613873 ; 6482599.350425341 ; 1.812062386186278E7 ; 17374.000000000004
74 ; 105760.1624573913 ; 293775.49945361656 ; 6588386.124448858 ; 1.8412720555068918E7 ; 17612.000000000004
75 ; 105817.98592179522 ; 295465.0272812985 ; 6694146.28690625 ; 1.8706496054522533E7 ; 17850.000000000004
76 ; 106174.24345106816 ; 297164.9079509946 ; 6799964.272828045 ; 1.9001961081803832E7 ; 18088.000000000004
77 ; 106153.83138098812 ; 298874.7805900411 ; 6906138.5162791135 ; 1.9299125989754826E7 ; 18326.000000000004
78 ; 106348.95528292182 ; 300594.2920690773 ; 7012292.347660102 ; 1.959800077034487E7 ; 18564.000000000004
79 ; 106198.68791034044 ; 302323.09687480045 ; 7118641.302943024 ; 1.9898595062413946E7 ; 18802.000000000004
80 ; 106602.98707769785 ; 304060.85697848053 ; 7224839.990853365 ; 2.0200918159288745E7 ; 19040.000000000004
81 ; 106309.03907656467 ; 305807.24170095444 ; 7331442.977931063 ; 2.0504979016267225E7 ; 19278.000000000004
82 ; 106313.85679815529 ; 307561.9275747632 ; 7437752.0170076275 ; 2.081078625796818E7 ; 19516.000000000004
83 ; 106223.16602238259 ; 309324.5982040407 ; 7544065.873805783 ; 2.1118348185542945E7 ; 19754.000000000004
84 ; 106453.09369393557 ; 311094.9441227102 ; 7650289.039828165 ; 2.1427672783746984E7 ; 19992.000000000004
85 ; 106396.92023504514 ; 312872.6626514983 ; 7756742.133522101 ; 2.1738767727869693E7 ; 20230.000000000004
86 ; 106408.14365307157 ; 314657.45775422757 ; 7863139.053757146 ; 2.205164039052119E7 ; 20468.000000000004
87 ; 105929.15666186389 ; 316449.0398938101 ; 7969547.1974102175 ; 2.236629784827542E7 ; 20706.000000000004
88 ; 106023.6461629043 ; 318247.1258883193 ; 8075476.354072081 ; 2.268274688816923E7 ; 20944.000000000004
89 ; 105609.11686211501 ; 320051.43876748503 ; 8181500.000234985 ; 2.3000994014057547E7 ; 21182.000000000004
90 ; 106011.30059200664 ; 321861.7076299182 ; 8287109.1170971 ; 2.3321045452825032E7 ; 21420.000000000004
91 ; 105899.7039647667 ; 323677.6675013408 ; 8393120.417689107 ; 2.364290716045495E7 ; 21658.000000000004
92 ; 105708.15307122632 ; 325499.0591940666 ; 8499020.121653873 ; 2.3966584827956293E7 ; 21896.000000000004
93 ; 105303.97817462223 ; 327325.6291679499 ; 8604728.2747251 ; 2.429208388715036E7 ; 22134.000000000004
94 ; 105618.14805944292 ; 329157.129392994 ; 8710032.252899723 ; 2.461940951631831E7 ; 22372.000000000004
95 ; 105176.71349442893 ; 330993.31721378735 ; 8815650.400959166 ; 2.4948566645711303E7 ; 22610.000000000004
96 ; 105155.86961031862 ; 332833.9552159141 ; 8920827.114453595 ; 2.527955996292509E7 ; 22848.000000000004
97 ; 104906.39018331772 ; 334678.8110944636 ; 9025982.984063914 ; 2.5612393918141004E7 ; 23086.000000000004
98 ; 104733.94991261039 ; 336527.6575247485 ; 9130889.374247232 ; 2.5947072729235467E7 ; 23324.000000000004
99 ; 104247.08885309288 ; 338380.27203531977 ; 9235623.324159842 ; 2.6283600386760216E7 ; 23562.000000000004
100 ; 104225.39378527878 ; 340236.43688335666 ; 9339870.413012935 ; 2.6621980658795536E7 ; 23800.000000000004
101 ; 103954.47114957687 ; 342095.9389324908 ; 9444095.806798214 ; 2.6962217095678892E7 ; 24038.000000000004
102 ; 104108.07765052261 ; 343958.5695331137 ; 9548050.27794779 ; 2.730431303461138E7 ; 24276.000000000004
103 ; 103459.53224282997 ; 345824.12440520443 ; 9652158.355598314 ; 2.7648271604144495E7 ; 24514.000000000004
104 ; 102874.66226699016 ; 347692.40352370514 ; 9755617.887841145 ; 2.79940957285497E7 ; 24752.000000000004
105 ; 102813.66064402166 ; 349563.21100645873 ; 9858492.550108135 ; 2.8341788132073406E7 ; 24990.000000000004
106 ; 102798.4285865431 ; 351436.3550047202 ; 9961306.210752156 ; 2.8691351343079865E7 ; 25228.000000000004
107 ; 102269.06909303534 ; 353311.6475962402 ; 1.0064104639338698E7 ; 2.9042787698084585E7 ; 25466.000000000004
108 ; 101628.55015323478 ; 355188.9046809157 ; 1.0166373708431734E7 ; 2.9396099345680825E7 ; 25704.000000000004
109 ; 101785.4300013505 ; 357067.94587899523 ; 1.0268002258584969E7 ; 2.975128825036174E7 ; 25942.000000000004
110 ; 101227.69395909434 ; 358948.59443182166 ; 1.0369787688586319E7 ; 3.0108356196240734E7 ; 26180.000000000004
111 ; 101079.12120237197 ; 360830.67710508936 ; 1.0471015382545413E7 ; 3.0467304790672556E7 ; 26418.000000000004
112 ; 100338.75645813445 ; 362714.02409458935 ; 1.0572094503747785E7 ; 3.0828135467777643E7 ; 26656.000000000004
113 ; 100018.50650954002 ; 364598.468934412 ; 1.067243326020592E7 ; 3.1190849491872232E7 ; 26894.000000000004
114 ; 99449.66584731912 ; 366483.848407574 ; 1.0772451766715461E7 ; 3.1555447960806645E7 ; 27132.000000000004
115 ; 99428.12832080388 ; 368370.00245903304 ; 1.087190143256278E7 ; 3.192193180921422E7 ; 27370.000000000004
116 ; 99102.55277125852 ; 370256.7741110508 ; 1.0971329560883584E7 ; 3.2290301811673254E7 ; 27608.000000000004
117 ; 98317.76888373788 ; 372144.00938086497 ; 1.1070432113654843E7 ; 3.2660558585784305E7 ; 27846.000000000004
118 ; 98353.0823640768 ; 374031.55720062583 ; 1.1168749882538581E7 ; 3.303270259516517E7 ; 28084.000000000004
119 ; 97441.80304821006 ; 375919.2693395553 ; 1.1267102964902658E7 ; 3.3406734152365796E7 ; 28322.000000000004
120 ; 97142.81615075092 ; 377807.0003282825 ; 1.1364544767950868E7 ; 3.378265342170535E7 ; 28560.000000000004
121 ; 96575.40262726849 ; 379694.60738531 ; 1.146168758410162E7 ; 3.416046042203363E7 ; 28798.000000000004
122 ; 95942.33735824926 ; 381581.9503455652 ; 1.1558262986728888E7 ; 3.454015502941894E7 ; 29036.000000000004
123 ; 95534.26297182374 ; 383468.89159098826 ; 1.1654205324087137E7 ; 3.4921736979764506E7 ; 29274.000000000004
124 ; 94817.59062909009 ; 385355.2959831107 ; 1.1749739587058961E7 ; 3.53052058713555E7 ; 29512.000000000004
125 ; 94497.46760136526 ; 387241.03079757706 ; 1.1844557177688051E7 ; 3.569056116733861E7 ; 29750.000000000004
126 ; 93982.58190145367 ; 389125.96566056245 ; 1.1939054645289415E7 ; 3.607780219813619E7 ; 29988.000000000004
127 ; 93290.22043353721 ; 391009.9724870376 ; 1.2033037227190869E7 ; 3.646692816379675E7 ; 30226.000000000004
128 ; 92842.48724017016 ; 392892.9254208367 ; 1.2126327447624406E7 ; 3.685793813628379E7 ; 30464.000000000004
129 ; 92228.35327637766 ; 394774.70077648043 ; 1.2219169934864577E7 ; 3.725083106170463E7 ; 30702.000000000004
130 ; 91961.50740228366 ; 396655.17698270705 ; 1.2311398288140954E7 ; 3.764560576248111E7 ; 30940.000000000004
131 ; 91099.13173852958 ; 398534.23452766886 ; 1.2403359795543239E7 ; 3.804226093946382E7 ; 31178.000000000004
132 ; 90648.80658174143 ; 400411.75590574625 ; 1.2494458927281769E7 ; 3.844079517399149E7 ; 31416.000000000004
133 ; 89873.3366766228 ; 402287.6255659377 ; 1.258510773386351E7 ; 3.8841206929897234E7 ; 31654.000000000004
134 ; 89011.06956024967 ; 404161.72986177955 ; 1.2674981070540134E7 ; 3.924349455546317E7 ; 31892.000000000004
135 ; 88708.06808931005 ; 406033.9570027558 ; 1.2763992140100384E7 ; 3.964765628532495E7 ; 32130.000000000004
136 ; 87994.94762634281 ; 407904.19700715353 ; 1.2852700208189694E7 ; 4.005369024232771E7 ; 32368.000000000004
137 ; 87119.47018435471 ; 409772.3416563242 ; 1.2940695155816037E7 ; 4.046159443933487E7 ; 32606.000000000004
138 ; 86731.36669610433 ; 411638.2844503099 ; 1.3027814626000391E7 ; 4.08713667809912E7 ; 32844.00000000001
139 ; 85205.82148988073 ; 413501.92056479584 ; 1.3114545992696496E7 ; 4.1283005065441504E7 ; 33082.00000000001
140 ; 84984.83029405205 ; 415363.14680934977 ; 1.3199751814186376E7 ; 4.16965069860063E7 ; 33320.00000000001
141 ; 84610.32394750486 ; 417221.8615869107 ; 1.3284736644480428E7 ; 4.2111870132815644E7 ; 33558.00000000001
142 ; 83587.52155747527 ; 419077.96485449094 ; 1.3369346968427932E7 ; 4.252909199440256E7 ; 33796.00000000001
143 ; 82989.36602511228 ; 420931.3580850553 ; 1.3452934489985406E7 ; 4.294816995925705E7 ; 34034.00000000001
144 ; 82374.24685811476 ; 422781.9442305415 ; 1.3535923856010519E7 ; 4.336910131734211E7 ; 34272.00000000001
145 ; 82014.69369081693 ; 424629.62768598885 ; 1.3618298102868633E7 ; 4.379188326157265E7 ; 34510.00000000001
146 ; 81850.84628764726 ; 426474.31425474124 ; 1.3700312796559451E7 ; 4.421651288925864E7 ; 34748.00000000001
147 ; 81645.03107087729 ; 428315.91111469315 ; 1.3782163642847098E7 ; 4.464298720351338E7 ; 34986.00000000001
148 ; 81043.47034045821 ; 430154.3267855458 ; 1.3863808673917975E7 ; 4.507130311462807E7 ; 35224.00000000001
149 ; 81298.38475825102 ; 431989.4710970434 ; 1.3944852144258434E7 ; 4.550145744141361E7 ; 35462.00000000001
150 ; 80753.14195904147 ; 433821.25515816064 ; 1.4026150529016685E7 ; 4.5933446912510656E7 ; 35700.00000000001
151 ; 80294.63952893662 ; 435649.5913272104 ; 1.4106903670975726E7 ; 4.636726816766882E7 ; 35938.00000000001
152 ; 79966.12917959689 ; 437474.39318284625 ; 1.4187198310504662E7 ; 4.680291775899603E7 ; 36176.00000000001
153 ; 80118.57831138014 ; 439295.5754959294 ; 1.4267164439684259E7 ; 4.7240392152178876E7 ; 36414.00000000001
154 ; 79776.73868381577 ; 441113.0542022366 ; 1.4347283017995639E7 ; 4.7679687727674805E7 ; 36652.00000000001
155 ; 79219.25005578433 ; 442926.7463759809 ; 1.4427059756679455E7 ; 4.812080078187704E7 ; 36890.00000000001
156 ; 79443.46481814154 ; 444736.5702041214 ; 1.450627900673524E7 ; 4.856372752825302E7 ; 37128.00000000001
157 ; 79303.58923586077 ; 446542.4449614375 ; 1.4585722471553382E7 ; 4.900846409845714E7 ; 37366.00000000001
158 ; 78603.94144493513 ; 448344.2909863438 ; 1.4665026060789242E7 ; 4.945500654341858E7 ; 37604.00000000001
159 ; 78323.67644185679 ; 450142.02965742367 ; 1.4743630002234178E7 ; 4.990335083440492E7 ; 37842.00000000001
160 ; 78282.42612048905 ; 451935.58337065874 ; 1.4821953678676035E7 ; 5.035349286406235E7 ; 38080.00000000001
161 ; 78047.70199459176 ; 453724.8755173318 ; 1.4900236104796525E7 ; 5.0805428447433E7 ; 38318.00000000001
162 ; 77864.86824234818 ; 455509.8304625852 ; 1.4978283806791117E7 ; 5.125915332295033E7 ; 38556.00000000001
163 ; 77522.82293701441 ; 457290.37352461135 ; 1.5056148675033465E7 ; 5.1714663153412916E7 ; 38794.00000000001
164 ; 76940.6168693232 ; 459066.4309544577 ; 1.5133671497970479E7 ; 5.217195352693753E7 ; 39032.00000000001
165 ; 76499.64539085366 ; 460837.9299164271 ; 1.5210612114839802E7 ; 5.2631019957891986E7 ; 39270.00000000001
166 ; 76056.05267699478 ; 462604.7984690542 ; 1.5287111760230655E7 ; 5.309185788780841E7 ; 39508.00000000001
167 ; 75677.51672429756 ; 464366.96554664144 ; 1.536316781290765E7 ; 5.3554462686277464E7 ; 39746.00000000001
168 ; 75230.95320954095 ; 466124.36094133597 ; 1.5438845329631947E7 ; 5.40188296518241E7 ; 39984.00000000001
169 ; 75458.5600471237 ; 467876.91528573236 ; 1.5514076282841489E7 ; 5.448495401276544E7 ; 40222.00000000001
170 ; 74999.62927208084 ; 469624.56003598333 ; 1.5589534842888612E7 ; 5.4952830928051166E7 ; 40460.00000000001
171 ; 74753.03127076689 ; 471367.22745540465 ; 1.5664534472160693E7 ; 5.542245548808715E7 ; 40698.00000000001
172 ; 74114.64653948165 ; 472168.7466588653 ; 1.573928750343146E7 ; 5.5893822715542555E7 ; 40936.00000000001
173 ; 73952.15124598169 ; 472168.7466588653 ; 1.5813402149970941E7 ; 5.636599146220142E7 ; 41174.00000000001
174 ; 74416.25533898744 ; 472168.7466588653 ; 1.5887354301216923E7 ; 5.683816020886028E7 ; 41412.00000000001
175 ; 74320.69920461424 ; 472168.7466588653 ; 1.596177055655591E7 ; 5.731032895551914E7 ; 41650.00000000001
176 ; 74471.75339285088 ; 472168.7466588653 ; 1.6036091255760524E7 ; 5.7782497702178E7 ; 41888.00000000001
177 ; 74327.50101973211 ; 472168.7466588653 ; 1.6110563009153375E7 ; 5.825466644883686E7 ; 42126.00000000001
178 ; 73954.08481499631 ; 472168.7466588653 ; 1.6184890510173108E7 ; 5.8726835195495725E7 ; 42364.00000000001
179 ; 74211.88495709101 ; 472168.7466588653 ; 1.6258844594988104E7 ; 5.919900394215459E7 ; 42602.00000000001
180 ; 74212.34890054252 ; 472168.7466588653 ; 1.6333056479945196E7 ; 5.967117268881345E7 ; 42840.00000000001
181 ; 74810.93817848337 ; 472168.7466588653 ; 1.6407268828845738E7 ; 6.014334143547231E7 ; 43078.00000000001
