CSV File for the Network on Day 145
1 - Minute m 
2 - Power Consumed at minute m 
3 - Power Produced at minute m 
4 - Energy Consumed since the beginning of the day 
5 - Energy Produced since the beginning of the day 
6 - Energy Lost since the beginning of the day 
 
No Production city : 2, Producer : 1
No Production city : 4, Producer : 1
No Production city : 4, Producer : 1
 
0 ; 49739.922683397395 ; 165937.48517442134 ; 0.0 ; 0.0 ; 0.0
1 ; 51136.45596276956 ; 165596.16166527205 ; 49739.922683397395 ; 165937.48517442134 ; 238.00000000000003
2 ; 52279.45212072921 ; 165289.68549788996 ; 100876.37864616697 ; 331533.6468396934 ; 476.00000000000006
3 ; 53811.95885321649 ; 165018.4091409736 ; 153155.8307668962 ; 496823.3323375834 ; 714.0000000000001
4 ; 54654.970862708615 ; 164782.64822962682 ; 206967.7896201127 ; 661841.741478557 ; 952.0000000000001
5 ; 55970.452378158676 ; 164582.67989778478 ; 261622.7604828213 ; 826624.3897081838 ; 1190.0000000000002
6 ; 56986.39856439768 ; 164418.74128742598 ; 317593.21286097995 ; 991207.0696059687 ; 1428.0000000000002
7 ; 58667.602965131344 ; 164291.02825305477 ; 374579.61142537766 ; 1155625.8108933945 ; 1666.0000000000002
8 ; 59433.96507690032 ; 164199.69427787545 ; 433247.214390509 ; 1319916.8391464492 ; 1904.0000000000002
9 ; 60233.81767895479 ; 164144.84961564737 ; 492681.1794674093 ; 1484116.5334243246 ; 2142.0000000000005
10 ; 61302.67820615878 ; 164126.5606694591 ; 552914.9971463641 ; 1648261.383039972 ; 2380.0000000000005
11 ; 62995.189907671716 ; 164144.84961564737 ; 614217.6753525229 ; 1812387.9437094312 ; 2618.0000000000005
12 ; 64100.11437455213 ; 164199.69427787545 ; 677212.8652601946 ; 1976532.7933250787 ; 2856.0000000000005
13 ; 64759.54761880183 ; 164291.02825305477 ; 741312.9796347468 ; 2140732.4876029543 ; 3094.0000000000005
14 ; 66251.46531650473 ; 164418.74128742598 ; 806072.5272535486 ; 2305023.515856009 ; 3332.0000000000005
15 ; 66977.45370361772 ; 164582.67989778478 ; 872323.9925700533 ; 2469442.257143435 ; 3570.0000000000005
16 ; 67888.21516210544 ; 164782.64822962682 ; 939301.446273671 ; 2634024.93704122 ; 3808.0000000000005
17 ; 69263.7263407455 ; 165018.40914097353 ; 1007189.6614357764 ; 2798807.5852708467 ; 4046.0000000000005
18 ; 70071.94884080144 ; 165289.68549789005 ; 1076453.387776522 ; 2963825.99441182 ; 4284.000000000001
19 ; 70652.70903815079 ; 165596.16166527197 ; 1146525.3366173233 ; 3129115.6799097103 ; 4522.000000000001
20 ; 72107.57288631932 ; 165937.48517442142 ; 1217178.045655474 ; 3294711.8415749823 ; 4760.000000000001
21 ; 72753.85125669486 ; 166313.26854726736 ; 1289285.6185417934 ; 3460649.3267494035 ; 4998.000000000001
22 ; 73644.94777159266 ; 166723.09125585255 ; 1362039.4697984883 ; 3626962.5952966707 ; 5236.000000000001
23 ; 74805.67892541844 ; 167166.5017949006 ; 1435684.417570081 ; 3793685.686552523 ; 5474.000000000001
24 ; 75517.02394615715 ; 167643.01984489427 ; 1510490.0964954996 ; 3960852.188347424 ; 5712.000000000001
25 ; 76700.22524337427 ; 168152.13850312456 ; 1586007.1204416568 ; 4128495.208192318 ; 5950.000000000001
26 ; 77304.39609378355 ; 168693.32656057426 ; 1662707.345685031 ; 4296647.346695443 ; 6188.000000000001
27 ; 78165.5292324073 ; 169266.03080325012 ; 1740011.7417788147 ; 4465340.673256017 ; 6426.000000000001
28 ; 79273.01735111272 ; 169869.6783176301 ; 1818177.271011222 ; 4634606.704059267 ; 6664.000000000001
29 ; 79658.5441971989 ; 170503.67878119933 ; 1897450.2883623347 ; 4804476.382376897 ; 6902.000000000001
30 ; 81239.32227859028 ; 171167.42672055535 ; 1977108.8325595337 ; 4974980.061158096 ; 7140.000000000001
31 ; 81870.47125472654 ; 171860.30372123554 ; 2058348.1548381238 ; 5146147.487878651 ; 7378.000000000001
32 ; 82347.42201478677 ; 172581.6805751849 ; 2140218.62609285 ; 5318007.7915998865 ; 7616.000000000001
33 ; 83200.04327567489 ; 173330.91935361642 ; 2222566.048107637 ; 5490589.472175071 ; 7854.000000000001
34 ; 83925.43416840647 ; 174107.37539486194 ; 2305766.091383312 ; 5663920.391528687 ; 8092.000000000001
35 ; 84490.3028463175 ; 174910.3991986379 ; 2389691.525551718 ; 5838027.76692355 ; 8330.000000000002
36 ; 85077.83829787429 ; 175739.33821991683 ; 2474181.828398036 ; 6012938.166122188 ; 8568.000000000002
37 ; 86110.479044615 ; 176593.5385572878 ; 2559259.66669591 ; 6188677.504342104 ; 8806.000000000002
38 ; 86508.94445619883 ; 177472.34653226665 ; 2645370.145740525 ; 6365271.042899393 ; 9044.000000000002
39 ; 87559.13877979749 ; 178375.1101574816 ; 2731879.0901967236 ; 6542743.389431659 ; 9282.000000000002
40 ; 88407.70398783288 ; 179301.1804929861 ; 2819438.228976521 ; 6721118.4995891405 ; 9520.000000000002
41 ; 88313.11105092095 ; 180249.91289113805 ; 2907845.932964354 ; 6900419.6800821265 ; 9758.000000000002
42 ; 89212.31754349808 ; 181220.66813152953 ; 2996159.044015275 ; 7080669.592973265 ; 9996.000000000002
43 ; 89901.05536766235 ; 182212.813448355 ; 3085371.361558773 ; 7261890.261104794 ; 10234.000000000002
44 ; 89986.94744811156 ; 183225.7234533647 ; 3175272.4169264357 ; 7444103.074553149 ; 10472.000000000002
45 ; 91491.71108282119 ; 184258.78095818651 ; 3265259.3643745473 ; 7627328.798006513 ; 10710.000000000002
46 ; 92263.02600085402 ; 185311.37770029885 ; 3356751.0754573685 ; 7811587.5789647 ; 10948.000000000002
47 ; 92234.39488055013 ; 186382.91497733316 ; 3449014.1014582226 ; 7996898.956664999 ; 11186.000000000002
48 ; 92953.50951811523 ; 187472.8041946634 ; 3541248.4963387726 ; 8183281.8716423325 ; 11424.000000000002
49 ; 93206.55657010974 ; 188580.4673314339 ; 3634202.005856888 ; 8370754.675836996 ; 11662.000000000002
50 ; 94505.04435571877 ; 189705.3373302808 ; 3727408.562426998 ; 8559335.14316843 ; 11900.000000000002
51 ; 94445.21556290655 ; 190846.8584160326 ; 3821913.6067827167 ; 8749040.480498713 ; 12138.000000000002
52 ; 94937.14852318887 ; 192004.4863486474 ; 3916358.8223456233 ; 8939887.338914745 ; 12376.000000000002
53 ; 95447.48739929733 ; 193177.68861555718 ; 4011295.970868812 ; 9131891.825263392 ; 12614.000000000002
54 ; 96001.21371552664 ; 194365.94456846185 ; 4106743.4582681092 ; 9325069.513878949 ; 12852.000000000002
55 ; 96495.94750376279 ; 195568.74550944986 ; 4202744.671983636 ; 9519435.458447412 ; 13090.000000000002
56 ; 96524.70326402296 ; 196785.5947311315 ; 4299240.619487399 ; 9715004.203956861 ; 13328.000000000002
57 ; 97184.24755355419 ; 198016.0075152528 ; 4395765.322751422 ; 9911789.798687993 ; 13566.000000000002
58 ; 97541.83987387177 ; 199259.5110940313 ; 4492949.570304977 ; 1.0109805806203246E7 ; 13804.000000000002
59 ; 97891.179906724 ; 200515.64457821366 ; 4590491.410178849 ; 1.0309065317297278E7 ; 14042.000000000002
60 ; 98297.17461120326 ; 201783.95885560988 ; 4688382.590085573 ; 1.050958096187549E7 ; 14280.000000000002
61 ; 98618.39912617815 ; 203064.01646360988 ; 4786679.764696776 ; 1.0711364920731101E7 ; 14518.000000000002
62 ; 99262.65126696503 ; 204355.3914389461 ; 4885298.1638229545 ; 1.091442893719471E7 ; 14756.000000000002
63 ; 98733.43435104913 ; 205657.6691477208 ; 4984560.81508992 ; 1.1118784328633657E7 ; 14994.000000000002
64 ; 99463.7666208876 ; 206970.44609848296 ; 5083294.249440969 ; 1.1324441997781377E7 ; 15232.000000000002
65 ; 99864.88686666256 ; 208293.3297409137 ; 5182758.016061856 ; 1.153141244387986E7 ; 15470.000000000002
66 ; 100126.77113838361 ; 209625.9382524596 ; 5282622.902928519 ; 1.1739705773620773E7 ; 15708.000000000002
67 ; 100782.87624021502 ; 210967.9003150466 ; 5382749.674066903 ; 1.1949331711873233E7 ; 15946.000000000002
68 ; 101153.14490661543 ; 212318.85488381173 ; 5483532.550307118 ; 1.216029961218828E7 ; 16184.000000000002
69 ; 100926.70077484181 ; 213678.4509496029 ; 5584685.695213734 ; 1.2372618467072092E7 ; 16422.000000000004
70 ; 100822.82126795029 ; 215046.3472968256 ; 5685612.395988576 ; 1.2586296918021696E7 ; 16660.000000000004
71 ; 101657.33443460446 ; 216422.2122580507 ; 5786435.217256526 ; 1.280134326531852E7 ; 16898.000000000004
72 ; 101584.54373468262 ; 217805.72346664927 ; 5888092.551691131 ; 1.301776547757657E7 ; 17136.000000000004
73 ; 101727.77507413074 ; 219196.5676085791 ; 5989677.095425813 ; 1.323557120104322E7 ; 17374.000000000004
74 ; 102039.50993645875 ; 220594.44017431932 ; 6091404.870499944 ; 1.34547677686518E7 ; 17612.000000000004
75 ; 102277.51042924047 ; 221999.0452118303 ; 6193444.380436403 ; 1.367536220882612E7 ; 17850.000000000004
76 ; 102302.66563432246 ; 223410.09508130825 ; 6295721.8908656435 ; 1.389736125403795E7 ; 18088.000000000004
77 ; 102577.88489981374 ; 224827.31021240348 ; 6398024.556499966 ; 1.4120771349119259E7 ; 18326.000000000004
78 ; 102559.6049732183 ; 226250.4188644815 ; 6500602.44139978 ; 1.4345598659331663E7 ; 18564.000000000004
79 ; 102516.25012112518 ; 227679.15689042243 ; 6603162.0463729985 ; 1.4571849078196144E7 ; 18802.000000000004
80 ; 102840.2831204898 ; 229113.26750438233 ; 6705678.2964941235 ; 1.4799528235086566E7 ; 19040.000000000004
81 ; 102750.81651558942 ; 230552.5010538685 ; 6808518.579614613 ; 1.5028641502590949E7 ; 19278.000000000004
82 ; 103267.03149543043 ; 231996.6147964246 ; 6911269.396130202 ; 1.5259194003644817E7 ; 19516.000000000004
83 ; 103272.4184885855 ; 233445.37268116348 ; 7014536.427625633 ; 1.549119061844124E7 ; 19754.000000000004
84 ; 103271.21647672149 ; 234898.54513533815 ; 7117808.846114218 ; 1.5724635991122404E7 ; 19992.000000000004
85 ; 102952.87040037054 ; 236355.90885609863 ; 7221080.06259094 ; 1.5959534536257742E7 ; 20230.000000000004
86 ; 103122.49798690024 ; 237817.24660754128 ; 7324032.93299131 ; 1.6195890445113841E7 ; 20468.000000000004
87 ; 103011.62615269942 ; 239282.34702312577 ; 7427155.430978211 ; 1.6433707691721383E7 ; 20706.000000000004
88 ; 102924.77302552738 ; 240751.0044135018 ; 7530167.05713091 ; 1.667299003874451E7 ; 20944.000000000004
89 ; 102413.93410420443 ; 242223.01857976324 ; 7633091.830156438 ; 1.691374104315801E7 ; 21182.000000000004
90 ; 102872.97189824018 ; 243698.19463212238 ; 7735505.764260642 ; 1.7155964061737772E7 ; 21420.000000000004
91 ; 102899.85181745577 ; 245176.34281397762 ; 7838378.736158882 ; 1.7399662256369896E7 ; 21658.000000000004
92 ; 102576.64056834372 ; 246657.27833132987 ; 7941278.587976338 ; 1.7644838599183872E7 ; 21896.000000000004
93 ; 102647.34731353339 ; 248140.8211874878 ; 8043855.228544682 ; 1.78914958775152E7 ; 22134.000000000004
94 ; 102746.41683685117 ; 249626.7960229893 ; 8146502.575858216 ; 1.813963669870269E7 ; 22372.000000000004
95 ; 102259.7265065532 ; 251115.03196065518 ; 8249248.992695067 ; 1.8389263494725678E7 ; 22610.000000000004
96 ; 102105.28312480047 ; 252605.36245568233 ; 8351508.719201621 ; 1.8640378526686333E7 ; 22848.000000000004
97 ; 102384.6968159351 ; 254097.6251506757 ; 8453614.002326421 ; 1.8892983889142014E7 ; 23086.000000000004
98 ; 102256.72336082085 ; 255591.66173551188 ; 8555998.699142357 ; 1.914708151429269E7 ; 23324.000000000004
99 ; 101459.97762007934 ; 257087.317811923 ; 8658255.422503179 ; 1.9402673176028203E7 ; 23562.000000000004
100 ; 101503.86052596776 ; 258584.4427626852 ; 8759715.400123259 ; 1.9659760493840124E7 ; 23800.000000000004
101 ; 100788.04209437668 ; 260082.8896252929 ; 8861219.260649227 ; 1.991834493660281E7 ; 24038.000000000004
102 ; 100685.78433284366 ; 261582.5149699984 ; 8962007.302743603 ; 2.01784278262281E7 ; 24276.000000000004
103 ; 100632.3678805449 ; 263083.1787820953 ; 9062693.087076446 ; 2.0440010341198098E7 ; 24514.000000000004
104 ; 100220.69846937085 ; 264584.7443483233 ; 9163325.454956992 ; 2.0703093519980192E7 ; 24752.000000000004
105 ; 99961.92329154264 ; 266087.0781472721 ; 9263546.153426362 ; 2.0967678264328517E7 ; 24990.000000000004
106 ; 99781.31794008847 ; 267590.04974366195 ; 9363508.076717906 ; 2.123376534247579E7 ; 25228.000000000004
107 ; 99570.51148629954 ; 269093.531686382 ; 9463289.394657994 ; 2.1501355392219454E7 ; 25466.000000000004
108 ; 98880.68961723222 ; 270597.3994101641 ; 9562859.906144293 ; 2.1770448923905835E7 ; 25704.000000000004
109 ; 98662.92559716757 ; 272101.531140776 ; 9661740.595761525 ; 2.2041046323316E7 ; 25942.000000000004
110 ; 98129.53823930786 ; 273605.8078036185 ; 9760403.521358691 ; 2.2313147854456775E7 ; 26180.000000000004
111 ; 97848.33970753463 ; 275110.11293561035 ; 9858533.059597999 ; 2.2586753662260395E7 ; 26418.000000000004
112 ; 97756.9612760869 ; 276614.3326002518 ; 9956381.399305534 ; 2.2861863775196005E7 ; 26656.000000000004
113 ; 97622.68952002456 ; 278118.35530575644 ; 1.005413836058162E7 ; 2.3138478107796255E7 ; 26894.000000000004
114 ; 96690.28714334461 ; 279622.0719261449 ; 1.0151761050101643E7 ; 2.3416596463102013E7 ; 27132.000000000004
115 ; 96666.44242918465 ; 281125.37562519684 ; 1.0248451337244987E7 ; 2.369621853502816E7 ; 27370.000000000004
116 ; 96109.271053704 ; 282628.1617831605 ; 1.0345117779674172E7 ; 2.3977343910653356E7 ; 27608.000000000004
117 ; 95456.0366734822 ; 284130.32792612055 ; 1.0441227050727876E7 ; 2.4259972072436515E7 ; 27846.000000000004
118 ; 95126.83490285958 ; 285631.77365792915 ; 1.0536683087401358E7 ; 2.4544102400362637E7 ; 28084.000000000004
119 ; 94865.93019956416 ; 287132.40059460874 ; 1.0631809922304219E7 ; 2.4829734174020566E7 ; 28322.000000000004
120 ; 94125.73469873364 ; 288632.11230113433 ; 1.0726675852503782E7 ; 2.5116866574615173E7 ; 28560.000000000004
121 ; 93580.07370290428 ; 290130.81423051056 ; 1.0820801587202515E7 ; 2.5405498686916307E7 ; 28798.000000000004
122 ; 92987.76637476517 ; 291628.4136650581 ; 1.0914381660905419E7 ; 2.5695629501146816E7 ; 29036.000000000004
123 ; 92269.2975179586 ; 293124.8196598277 ; 1.1007369427280184E7 ; 2.5987257914811872E7 ; 29274.000000000004
124 ; 92303.1557750943 ; 294619.9429880645 ; 1.1099638724798143E7 ; 2.62803827344717E7 ; 29512.000000000004
125 ; 91150.75678158725 ; 296113.6960886448 ; 1.1191941880573237E7 ; 2.6575002677459765E7 ; 29750.000000000004
126 ; 90726.15640945449 ; 297605.99301541306 ; 1.1283092637354825E7 ; 2.687111637354841E7 ; 29988.000000000004
127 ; 89995.66840430259 ; 299096.7493883469 ; 1.1373818793764278E7 ; 2.7168722366563823E7 ; 30226.000000000004
128 ; 89434.09450286622 ; 300585.8823464846 ; 1.1463814462168582E7 ; 2.746781911595217E7 ; 30464.000000000004
129 ; 88991.01314626538 ; 302073.3105025445 ; 1.1553248556671448E7 ; 2.7768404998298656E7 ; 30702.000000000004
130 ; 88047.36239009861 ; 303558.9538991775 ; 1.1642239569817713E7 ; 2.80704783088012E7 ; 30940.000000000004
131 ; 87541.52346012811 ; 305042.7339667879 ; 1.1730286932207812E7 ; 2.837403726270038E7 ; 31178.000000000004
132 ; 86530.76484691438 ; 306524.5734828656 ; 1.1817828455667939E7 ; 2.8679079996667165E7 ; 31416.000000000004
133 ; 86177.49650049597 ; 308004.39653277164 ; 1.1904359220514853E7 ; 2.8985604570150033E7 ; 31654.000000000004
134 ; 85232.36858593485 ; 309482.12847192376 ; 1.1990536717015348E7 ; 2.9293608966682803E7 ; 31892.000000000004
135 ; 84671.72435010824 ; 310957.6958893272 ; 1.2075769085601283E7 ; 2.9603091095154725E7 ; 32130.000000000004
136 ; 83989.77308661086 ; 312431.02657240233 ; 1.2160440809951391E7 ; 2.9914048791044053E7 ; 32368.000000000004
137 ; 83488.63153635096 ; 313902.0494730589 ; 1.2244430583038002E7 ; 3.0226479817616455E7 ; 32606.000000000004
138 ; 82221.35959574356 ; 315370.6946749701 ; 1.2327919214574354E7 ; 3.0540381867089514E7 ; 32844.00000000001
139 ; 81638.66022265698 ; 316836.89336200303 ; 1.2410140574170098E7 ; 3.0855752561764482E7 ; 33082.00000000001
140 ; 80753.00460593533 ; 318300.5777877588 ; 1.2491779234392755E7 ; 3.1172589455126487E7 ; 33320.00000000001
141 ; 80011.36042434513 ; 319761.68124618405 ; 1.257253223899869E7 ; 3.1490890032914244E7 ; 33558.00000000001
142 ; 78877.54649759439 ; 321220.1380432121 ; 1.2652543599423036E7 ; 3.1810651714160427E7 ; 33796.00000000001
143 ; 78293.02508316857 ; 322675.88346939534 ; 1.273142114592063E7 ; 3.213187185220364E7 ; 34034.00000000001
144 ; 77459.40298145944 ; 324128.853773491 ; 1.28097141710038E7 ; 3.2454547735673036E7 ; 34272.00000000001
145 ; 77397.54315587929 ; 325578.9861369671 ; 1.288717357398526E7 ; 3.2778676589446526E7 ; 34510.00000000001
146 ; 76966.0952431705 ; 327026.2186493913 ; 1.2964571117141139E7 ; 3.310425557558349E7 ; 34748.00000000001
147 ; 77067.1442590206 ; 328470.4902846725 ; 1.304153721238431E7 ; 3.3431281794232883E7 ; 34986.00000000001
148 ; 76324.28038952322 ; 329911.74087812065 ; 1.311860435664333E7 ; 3.375975228451756E7 ; 35224.00000000001
149 ; 76394.67224985894 ; 331349.9111042981 ; 1.3194928637032853E7 ; 3.408966402539568E7 ; 35462.00000000001
150 ; 76369.0638252857 ; 332784.94245562865 ; 1.3271323309282713E7 ; 3.4421013936499976E7 ; 35700.00000000001
151 ; 76316.73568961155 ; 334216.7772217414 ; 1.3347692373107998E7 ; 3.47537988789556E7 ; 35938.00000000001
152 ; 75587.84146639338 ; 335645.35846951744 ; 1.342400910879761E7 ; 3.508801565617734E7 ; 36176.00000000001
153 ; 75267.8058689704 ; 337070.63002381695 ; 1.3499596950264003E7 ; 3.542366101464686E7 ; 36414.00000000001
154 ; 74978.72310492708 ; 338492.5364488608 ; 1.3574864756132973E7 ; 3.576073164467067E7 ; 36652.00000000001
155 ; 74940.70825729183 ; 339911.02303024137 ; 1.3649843479237901E7 ; 3.609922418111953E7 ; 36890.00000000001
156 ; 74428.8692462451 ; 341326.0357575421 ; 1.3724784187495193E7 ; 3.6439135204149775E7 ; 37128.00000000001
157 ; 74611.007112294 ; 342737.5213075407 ; 1.3799213056741437E7 ; 3.678046123990732E7 ; 37366.00000000001
158 ; 73803.70821460831 ; 344145.42702797777 ; 1.3873824063853731E7 ; 3.712319876121486E7 ; 37604.00000000001
159 ; 73808.26941607636 ; 345549.7009218676 ; 1.394762777206834E7 ; 3.746734418824284E7 ; 37842.00000000001
160 ; 73240.40498594446 ; 346950.2916323341 ; 1.4021436041484417E7 ; 3.781289388916471E7 ; 38080.00000000001
161 ; 73130.70049345386 ; 348347.14842795 ; 1.4094676446470361E7 ; 3.815984418079704E7 ; 38318.00000000001
162 ; 72986.76692572297 ; 349740.2211885648 ; 1.4167807146963814E7 ; 3.850819132922499E7 ; 38556.00000000001
163 ; 73024.75110175669 ; 351129.46039160015 ; 1.4240793913889537E7 ; 3.885793155041356E7 ; 38794.00000000001
164 ; 72167.13602041532 ; 352514.81709879916 ; 1.4313818664991293E7 ; 3.920906101080516E7 ; 39032.00000000001
165 ; 71933.42969359558 ; 353896.2429434112 ; 1.4385985801011708E7 ; 3.9561575827903956E7 ; 39270.00000000001
166 ; 71882.32613001727 ; 355273.6901177983 ; 1.4457919230705304E7 ; 3.991547207084737E7 ; 39508.00000000001
167 ; 71478.62872860613 ; 356647.1113614462 ; 1.4529801556835322E7 ; 4.027074576096517E7 ; 39746.00000000001
168 ; 71014.3267867733 ; 358016.4599493692 ; 1.4601280185563928E7 ; 4.062739287232661E7 ; 39984.00000000001
169 ; 70559.88669739102 ; 359381.68968089006 ; 1.46722945123507E7 ; 4.098540933227598E7 ; 40222.00000000001
170 ; 70425.7735418174 ; 360742.75486878643 ; 1.4742854399048092E7 ; 4.134479102195687E7 ; 40460.00000000001
171 ; 70142.4392977015 ; 362099.61032878817 ; 1.481328017258991E7 ; 4.170553377682565E7 ; 40698.00000000001
172 ; 69496.40718585916 ; 363452.2113694141 ; 1.4883422611887611E7 ; 4.206763338715444E7 ; 40936.00000000001
173 ; 69316.65400402877 ; 364800.5137821365 ; 1.4952919019073471E7 ; 4.2431085598523855E7 ; 41174.00000000001
174 ; 69646.38058390973 ; 366144.4738318613 ; 1.50222356730775E7 ; 4.279588611230599E7 ; 41412.00000000001
175 ; 69851.00317673312 ; 367484.04824771476 ; 1.509188205366141E7 ; 4.316203058613785E7 ; 41650.00000000001
176 ; 70349.48829250757 ; 368819.1942141226 ; 1.5161733056838144E7 ; 4.352951463438557E7 ; 41888.00000000001
177 ; 69740.60563646957 ; 370149.8693621766 ; 1.5232082545130651E7 ; 4.389833382859969E7 ; 42126.00000000001
178 ; 69960.02039384784 ; 371476.03176127304 ; 1.5301823150767121E7 ; 4.426848369796187E7 ; 42364.00000000001
179 ; 69638.21613880538 ; 372797.63991101866 ; 1.537178317116097E7 ; 4.463995972972314E7 ; 42602.00000000001
180 ; 69966.10493269026 ; 374114.6527333922 ; 1.5441421387299776E7 ; 4.501275736963416E7 ; 42840.00000000001
181 ; 70798.30990075841 ; 375427.02956515294 ; 1.5511387492232466E7 ; 4.538687202236755E7 ; 43078.00000000001
182 ; 70654.90184705843 ; 376734.73015048925 ; 1.5582185802133225E7 ; 4.576229905193271E7 ; 43316.00000000001
