CSV File for the Network on Day 129
1 - Minute m 
2 - Power Consumed at minute m 
3 - Power Produced at minute m 
4 - Energy Consumed since the beginning of the day 
5 - Energy Produced since the beginning of the day 
6 - Energy Lost since the beginning of the day 
 
No Production city : 2, Producer : 1
No Production city : 4, Producer : 1
No Production city : 4, Producer : 1
 
0 ; 59145.782642652775 ; 170994.09043886507 ; 0.0 ; 0.0 ; 0.0
1 ; 60305.98315211697 ; 170653.24060773628 ; 59145.782642652775 ; 170994.09043886507 ; 238.00000000000003
2 ; 60928.87643018942 ; 170347.21123102846 ; 119451.76579476974 ; 341647.33104660135 ; 476.00000000000006
3 ; 62670.75520411016 ; 170076.34745725658 ; 180380.64222495916 ; 511994.54227762984 ; 714.0000000000001
4 ; 63739.103891251114 ; 169840.9582689747 ; 243051.39742906933 ; 682070.8897348864 ; 952.0000000000001
5 ; 64715.74479127672 ; 169641.31488344062 ; 306790.5013203204 ; 851911.848003861 ; 1190.0000000000002
6 ; 65494.90051184918 ; 169477.64932377936 ; 371506.2461115971 ; 1021553.1628873016 ; 1428.0000000000002
7 ; 66402.05347966608 ; 169350.15317801194 ; 437001.14662344626 ; 1191030.812211081 ; 1666.0000000000002
8 ; 67251.55468885627 ; 169258.97656135744 ; 503403.2001031123 ; 1360380.965389093 ; 1904.0000000000002
9 ; 68613.28177195693 ; 169204.22729492577 ; 570654.7547919686 ; 1529639.9419504504 ; 2142.0000000000005
10 ; 69214.86402478302 ; 169185.97031133063 ; 639268.0365639256 ; 1698844.1692453763 ; 2380.0000000000005
11 ; 70178.08789280539 ; 169204.22729492577 ; 708482.9005887086 ; 1868030.1395567069 ; 2618.0000000000005
12 ; 71220.51156231549 ; 169258.97656135744 ; 778660.9884815139 ; 2037234.3668516327 ; 2856.0000000000005
13 ; 72086.49187140548 ; 169350.15317801194 ; 849881.5000438294 ; 2206493.34341299 ; 3094.0000000000005
14 ; 72813.08271118024 ; 169477.64932377936 ; 921967.991915235 ; 2375843.496591002 ; 3332.0000000000005
15 ; 73919.48689182877 ; 169641.31488344062 ; 994781.0746264152 ; 2545321.1459147814 ; 3570.0000000000005
16 ; 74829.9114357135 ; 169840.9582689747 ; 1068700.561518244 ; 2714962.460798222 ; 3808.0000000000005
17 ; 75633.23998182615 ; 170076.34745725646 ; 1143530.4729539575 ; 2884803.419067197 ; 4046.0000000000005
18 ; 76687.36806171043 ; 170347.21123102854 ; 1219163.7129357837 ; 3054879.7665244536 ; 4284.000000000001
19 ; 77724.63809691864 ; 170653.24060773628 ; 1295851.080997494 ; 3225226.9777554823 ; 4522.000000000001
20 ; 78180.53813494937 ; 170994.09043886518 ; 1373575.7190944126 ; 3395880.2183632185 ; 4760.000000000001
21 ; 79145.69691662461 ; 171369.38116083355 ; 1451756.257229362 ; 3566874.3088020836 ; 4998.000000000001
22 ; 79658.2065198911 ; 171778.7006773033 ; 1530901.9541459866 ; 3738243.689962917 ; 5236.000000000001
23 ; 80624.71162240473 ; 172221.60635197652 ; 1610560.1606658776 ; 3910022.39064022 ; 5474.000000000001
24 ; 81461.96443536479 ; 172697.62709054624 ; 1691184.8722882823 ; 4082243.996992197 ; 5712.000000000001
25 ; 82560.88901176679 ; 173206.26549045008 ; 1772646.836723647 ; 4254941.624082743 ; 5950.000000000001
26 ; 82785.68783225116 ; 173747.00003741053 ; 1855207.7257354138 ; 4428147.889573193 ; 6188.000000000001
27 ; 83789.8513774708 ; 174319.287328407 ; 1937993.413567665 ; 4601894.889610603 ; 6426.000000000001
28 ; 83919.99955465837 ; 174922.56430166523 ; 2021783.264945136 ; 4776214.176939011 ; 6664.000000000001
29 ; 85107.47157703665 ; 175556.2504554427 ; 2105703.264499794 ; 4951136.741240676 ; 6902.000000000001
30 ; 85753.28533129262 ; 176219.75003876648 ; 2190810.736076831 ; 5126692.991696118 ; 7140.000000000001
31 ; 86011.10507004114 ; 176912.45419882142 ; 2276564.0214081234 ; 5302912.741734885 ; 7378.000000000001
32 ; 87384.06341843208 ; 177633.74307132635 ; 2362575.1264781645 ; 5479825.195933706 ; 7616.000000000001
33 ; 87459.98830077944 ; 178382.98780194082 ; 2449959.1898965966 ; 5657458.939005032 ; 7854.000000000001
34 ; 88333.41576376098 ; 179159.55248847505 ; 2537419.178197376 ; 5835841.926806973 ; 8092.000000000001
35 ; 89224.19655261887 ; 179962.79603539003 ; 2625752.593961137 ; 6015001.479295448 ; 8330.000000000002
36 ; 89568.47655791383 ; 180792.07391374727 ; 2714976.7905137558 ; 6194964.275330839 ; 8568.000000000002
37 ; 90512.42556307183 ; 181646.73982136603 ; 2804545.2670716695 ; 6375756.349244586 ; 8806.000000000002
38 ; 91078.11678041739 ; 182526.14723945723 ; 2895057.6926347413 ; 6557403.089065952 ; 9044.000000000002
39 ; 91074.99538511796 ; 183429.6508833995 ; 2986135.809415159 ; 6739929.236305409 ; 9282.000000000002
40 ; 91554.32331220283 ; 184356.60804660426 ; 3077210.8048002766 ; 6923358.887188809 ; 9520.000000000002
41 ; 92395.26522200121 ; 185306.37983756454 ; 3168765.1281124796 ; 7107715.495235413 ; 9758.000000000002
42 ; 93084.69524984108 ; 186278.33231120146 ; 3261160.393334481 ; 7293021.8750729775 ; 9996.000000000002
43 ; 93774.94767930063 ; 187271.83749650957 ; 3354245.088584322 ; 7479300.207384179 ; 10234.000000000002
44 ; 94336.4505725955 ; 188286.27432325418 ; 3448020.036263623 ; 7666572.044880689 ; 10472.000000000002
45 ; 94312.48018202819 ; 189321.0294511091 ; 3542356.4868362183 ; 7854858.319203943 ; 10710.000000000002
46 ; 95265.74372601422 ; 190375.49800513327 ; 3636668.9670182467 ; 8044179.3486550525 ; 10948.000000000002
47 ; 95836.77544283611 ; 191449.08422188787 ; 3731934.710744261 ; 8234554.846660186 ; 11186.000000000002
48 ; 96431.34482144933 ; 192541.20201079734 ; 3827771.4861870967 ; 8426003.930882074 ; 11424.000000000002
49 ; 96410.20268124505 ; 193651.27543556562 ; 3924202.831008546 ; 8618545.132892871 ; 11662.000000000002
50 ; 97204.57870099027 ; 194778.73912059213 ; 4020613.0336897913 ; 8812196.408328436 ; 11900.000000000002
51 ; 97062.71538051477 ; 195923.03858737933 ; 4117817.6123907818 ; 9006975.147449028 ; 12138.000000000002
52 ; 98005.58847428477 ; 197083.63052592872 ; 4214880.327771297 ; 9202898.186036408 ; 12376.000000000002
53 ; 97910.68496506271 ; 198259.98300605273 ; 4312885.916245582 ; 9399981.816562336 ; 12614.000000000002
54 ; 98761.55946791619 ; 199451.5756334336 ; 4410796.6012106445 ; 9598241.799568389 ; 12852.000000000002
55 ; 98751.84539812455 ; 200657.89965511527 ; 4509558.160678561 ; 9797693.375201821 ; 13090.000000000002
56 ; 99418.75394696358 ; 201878.45801894856 ; 4608310.006076685 ; 9998351.274856936 ; 13328.000000000002
57 ; 99936.30454965809 ; 203112.76539131437 ; 4707728.760023649 ; 1.0200229732875885E7 ; 13566.000000000002
58 ; 100192.1893912603 ; 204360.34813724313 ; 4807665.064573307 ; 1.04033424982672E7 ; 13804.000000000002
59 ; 100033.21026173347 ; 205620.74426682745 ; 4907857.253964567 ; 1.0607702846404443E7 ; 14042.000000000002
60 ; 100645.4631621233 ; 206893.50335159636 ; 5007890.4642263 ; 1.081332359067127E7 ; 14280.000000000002
61 ; 100556.87551457554 ; 208178.1864142901 ; 5108535.927388423 ; 1.1020217094022866E7 ; 14518.000000000002
62 ; 101409.28109814957 ; 209474.36579524187 ; 5209092.802902998 ; 1.1228395280437157E7 ; 14756.000000000002
63 ; 101694.52534943579 ; 210781.62499834588 ; 5310502.084001148 ; 1.1437869646232398E7 ; 14994.000000000002
64 ; 101904.73513234916 ; 212099.55851936672 ; 5412196.6093505835 ; 1.1648651271230744E7 ; 15232.000000000002
65 ; 101890.15525662075 ; 213427.77165912878 ; 5514101.344482932 ; 1.1860750829750111E7 ; 15470.000000000002
66 ; 102005.30568530357 ; 214765.88032391507 ; 5615991.499739553 ; 1.207417860140924E7 ; 15708.000000000002
67 ; 102329.06313708106 ; 216113.51081520595 ; 5717996.805424856 ; 1.2288944481733155E7 ; 15946.000000000002
68 ; 102640.60341320728 ; 217470.29961069828 ; 5820325.8685619375 ; 1.250505799254836E7 ; 16184.000000000002
69 ; 102550.14622634508 ; 218835.89313836448 ; 5922966.471975145 ; 1.2722528292159058E7 ; 16422.000000000004
70 ; 102513.3190925061 ; 220209.94754514436 ; 6025516.61820149 ; 1.2941364185297422E7 ; 16660.000000000004
71 ; 103366.86393804116 ; 221592.12846170296 ; 6128029.937293996 ; 1.3161574132842567E7 ; 16898.000000000004
72 ; 102974.33842500074 ; 222982.11076453916 ; 6231396.801232037 ; 1.338316626130427E7 ; 17136.000000000004
73 ; 103401.25398057164 ; 224379.57833659442 ; 6334371.139657038 ; 1.360614837206881E7 ; 17374.000000000004
74 ; 103393.78330125664 ; 225784.2238273826 ; 6437772.39363761 ; 1.3830527950405404E7 ; 17612.000000000004
75 ; 103778.44034195822 ; 227195.74841354458 ; 6541166.176938866 ; 1.4056312174232787E7 ; 17850.000000000004
76 ; 103913.58346189803 ; 228613.86156062398 ; 6644944.617280824 ; 1.428350792264633E7 ; 18088.000000000004
77 ; 103437.64712691904 ; 230038.28078676053 ; 6748858.2007427225 ; 1.4512121784206955E7 ; 18326.000000000004
78 ; 103587.18718755357 ; 231468.73142890926 ; 6852295.847869641 ; 1.4742160064993715E7 ; 18564.000000000004
79 ; 103637.81940400417 ; 232904.94641210695 ; 6955883.0350571945 ; 1.4973628796422625E7 ; 18802.000000000004
80 ; 103656.63029756611 ; 234346.666022238 ; 7059520.854461199 ; 1.5206533742834732E7 ; 19040.000000000004
81 ; 103686.25711496125 ; 235793.63768267908 ; 7163177.4847587645 ; 1.544088040885697E7 ; 19278.000000000004
82 ; 104079.73346943398 ; 237245.61573514304 ; 7266863.741873725 ; 1.5676674046539648E7 ; 19516.000000000004
83 ; 104219.09678750283 ; 238702.3612249872 ; 7370943.475343159 ; 1.591391966227479E7 ; 19754.000000000004
84 ; 103873.50585283594 ; 240163.64169120003 ; 7475162.572130662 ; 1.6152622023499778E7 ; 19992.000000000004
85 ; 103661.32022933419 ; 241629.23096123777 ; 7579036.077983499 ; 1.6392785665190978E7 ; 20230.000000000004
86 ; 103530.73972401192 ; 243098.9089508405 ; 7682697.398212832 ; 1.6634414896152215E7 ; 20468.000000000004
87 ; 103904.26584330222 ; 244572.46146892427 ; 7786228.1379368445 ; 1.6877513805103056E7 ; 20706.000000000004
88 ; 103680.36702053835 ; 246049.6800276121 ; 7890132.4037801465 ; 1.712208626657198E7 ; 20944.000000000004
89 ; 103722.70675093314 ; 247530.36165744113 ; 7993812.770800685 ; 1.736813594659959E7 ; 21182.000000000004
90 ; 103472.4815180395 ; 249014.30872775693 ; 8097535.477551618 ; 1.7615666308257032E7 ; 21420.000000000004
91 ; 103393.01095379583 ; 250501.32877228613 ; 8201007.959069657 ; 1.786468061698479E7 ; 21658.000000000004
92 ; 103396.6944644068 ; 251991.234319859 ; 8304400.970023453 ; 1.8115181945757076E7 ; 21896.000000000004
93 ; 102786.1065131725 ; 253483.84273023775 ; 8407797.66448786 ; 1.8367173180076934E7 ; 22134.000000000004
94 ; 103117.21192482812 ; 254978.97603499217 ; 8510583.771001032 ; 1.8620657022807173E7 ; 22372.000000000004
95 ; 102508.8442178673 ; 256476.460783353 ; 8613700.98292586 ; 1.8875635998842165E7 ; 22610.000000000004
96 ; 102557.96957999689 ; 257976.12789296234 ; 8716209.827143727 ; 1.9132112459625516E7 ; 22848.000000000004
97 ; 102560.18476525013 ; 259477.8125054331 ; 8818767.796723723 ; 1.939008858751848E7 ; 23086.000000000004
98 ; 102386.71216669121 ; 260981.35384662088 ; 8921327.981488973 ; 1.964956640002391E7 ; 23324.000000000004
99 ; 101682.27233934362 ; 262486.59509150794 ; 9023714.693655664 ; 1.9910547753870532E7 ; 23562.000000000004
100 ; 102077.43039608044 ; 263993.3832335927 ; 9125396.965995008 ; 2.017303434896204E7 ; 23800.000000000004
101 ; 101953.92375614207 ; 265501.56895867526 ; 9227474.396391088 ; 2.043702773219563E7 ; 24038.000000000004
102 ; 101154.51059168355 ; 267011.0065229275 ; 9329428.32014723 ; 2.0702529301154304E7 ; 24276.000000000004
103 ; 101347.07199761493 ; 268521.5536351324 ; 9430582.830738913 ; 2.096954030767723E7 ; 24514.000000000004
104 ; 101271.14309857099 ; 270033.0713429792 ; 9531929.902736528 ; 2.1238061861312363E7 ; 24752.000000000004
105 ; 100772.75191329895 ; 271545.4239232971 ; 9633201.045835098 ; 2.1508094932655342E7 ; 24990.000000000004
106 ; 100230.96591540003 ; 273058.47877611325 ; 9733973.797748398 ; 2.177964035657864E7 ; 25228.000000000004
107 ; 100095.75817514736 ; 274572.1063224189 ; 9834204.763663799 ; 2.2052698835354753E7 ; 25466.000000000004
108 ; 99577.68357321854 ; 276086.1799055296 ; 9934300.521838946 ; 2.232727094167717E7 ; 25704.000000000004
109 ; 99307.50615226207 ; 277600.5756959272 ; 1.0033878205412164E7 ; 2.26033571215827E7 ; 25942.000000000004
110 ; 99058.21981158762 ; 279115.1725994706 ; 1.0133185711564427E7 ; 2.288095769727863E7 ; 26180.000000000004
111 ; 98633.63529444445 ; 280629.8521688669 ; 1.0232243931376016E7 ; 2.3160072869878102E7 ; 26418.000000000004
112 ; 98052.4207503825 ; 282144.4985182951 ; 1.033087756667046E7 ; 2.3440702722046968E7 ; 26656.000000000004
113 ; 98069.01845264022 ; 283658.99824107485 ; 1.0428929987420844E7 ; 2.3722847220565263E7 ; 26894.000000000004
114 ; 96922.20827421302 ; 285173.240330279 ; 1.0526999005873485E7 ; 2.4006506218806338E7 ; 27132.000000000004
115 ; 96624.0243646952 ; 286687.11610218906 ; 1.0623921214147698E7 ; 2.4291679459136616E7 ; 27370.000000000004
116 ; 96547.2702373249 ; 288200.5191224928 ; 1.0720545238512393E7 ; 2.4578366575238805E7 ; 27608.000000000004
117 ; 95818.9908856296 ; 289713.3451351309 ; 1.0817092508749718E7 ; 2.4866567094361298E7 ; 27846.000000000004
118 ; 95398.59945796855 ; 291225.49199369695 ; 1.0912911499635348E7 ; 2.5156280439496428E7 ; 28084.000000000004
119 ; 95050.41938274333 ; 292736.8595953022 ; 1.1008310099093316E7 ; 2.5447505931490123E7 ; 28322.000000000004
120 ; 94750.04679260345 ; 294247.34981681546 ; 1.110336051847606E7 ; 2.5740242791085426E7 ; 28560.000000000004
121 ; 94272.90086528461 ; 295756.86645339336 ; 1.1198110565268664E7 ; 2.603449014090224E7 ; 28798.000000000004
122 ; 93309.38762936014 ; 297265.3151592188 ; 1.1292383466133948E7 ; 2.6330247007355634E7 ; 29036.000000000004
123 ; 93037.93967823862 ; 298772.603390366 ; 1.1385692853763308E7 ; 2.6627512322514854E7 ; 29274.000000000004
124 ; 92389.55151518947 ; 300278.64034971606 ; 1.1478730793441547E7 ; 2.692628492590522E7 ; 29512.000000000004
125 ; 91944.15075785725 ; 301783.33693384734 ; 1.1571120344956737E7 ; 2.7226563566254936E7 ; 29750.000000000004
126 ; 91543.09456914403 ; 303286.60568182805 ; 1.1663064495714594E7 ; 2.7528346903188784E7 ; 29988.000000000004
127 ; 90677.87146109047 ; 304788.36072584114 ; 1.1754607590283738E7 ; 2.7831633508870613E7 ; 30226.000000000004
128 ; 90509.36922188659 ; 306288.5177435743 ; 1.1845285461744828E7 ; 2.8136421869596455E7 ; 30464.000000000004
129 ; 89907.79328821287 ; 307786.993912309 ; 1.1935794830966715E7 ; 2.8442710387340028E7 ; 30702.000000000004
130 ; 89286.28092522203 ; 309283.7078646463 ; 1.2025702624254927E7 ; 2.8750497381252337E7 ; 30940.000000000004
131 ; 88820.06540898421 ; 310778.57964580815 ; 1.2114988905180149E7 ; 2.9059781089116983E7 ; 31178.000000000004
132 ; 87179.83559960296 ; 312271.5306724564 ; 1.2203808970589133E7 ; 2.9370559668762792E7 ; 31416.000000000004
133 ; 87283.95847595867 ; 313762.48369297176 ; 1.2290988806188736E7 ; 2.968283119943525E7 ; 31654.000000000004
134 ; 86833.76932587817 ; 315251.3627491401 ; 1.2378272764664695E7 ; 2.999659368312822E7 ; 31892.000000000004
135 ; 85648.09580030991 ; 316738.0931391924 ; 1.2465106533990573E7 ; 3.031184504587736E7 ; 32130.000000000004
136 ; 84976.57534654434 ; 318222.601382148 ; 1.2550754629790884E7 ; 3.0628583139016554E7 ; 32368.000000000004
137 ; 84151.40314192863 ; 319704.81518341374 ; 1.2635731205137428E7 ; 3.09468057403987E7 ; 32606.000000000004
138 ; 83836.67296750333 ; 321184.663401591 ; 1.2719882608279357E7 ; 3.1266510555582114E7 ; 32844.00000000001
139 ; 83141.7760770911 ; 322662.0760164461 ; 1.280371928124686E7 ; 3.1587695218983706E7 ; 33082.00000000001
140 ; 82136.4439996673 ; 324136.984098001 ; 1.2886861057323951E7 ; 3.191035729500015E7 ; 33320.00000000001
141 ; 81845.05563173859 ; 325609.3197767025 ; 1.2968997501323618E7 ; 3.2234494279098153E7 ; 33558.00000000001
142 ; 80911.63543637734 ; 327079.0162146298 ; 1.3050842556955356E7 ; 3.2560103598874856E7 ; 33796.00000000001
143 ; 80065.22415081352 ; 328546.0075777018 ; 1.3131754192391733E7 ; 3.2887182615089487E7 ; 34034.00000000001
144 ; 79320.30620793723 ; 330010.22900884796 ; 1.3211819416542547E7 ; 3.321572862266719E7 ; 34272.00000000001
145 ; 78733.30205670804 ; 331471.61660210526 ; 1.3291139722750485E7 ; 3.354573885167604E7 ; 34510.00000000001
146 ; 78501.11972906288 ; 332930.1073776091 ; 1.3369873024807192E7 ; 3.387721046827815E7 ; 34748.00000000001
147 ; 78556.04600083384 ; 334385.63925744354 ; 1.3448374144536255E7 ; 3.421014057565576E7 ; 34986.00000000001
148 ; 78178.7946882429 ; 335838.15104232024 ; 1.352693019053709E7 ; 3.4544526214913204E7 ; 35224.00000000001
149 ; 78406.5477752579 ; 337287.5823890549 ; 1.3605108985225333E7 ; 3.4880364365955524E7 ; 35462.00000000001
150 ; 77584.24504645044 ; 338733.87378881243 ; 1.368351553300059E7 ; 3.521765194834458E7 ; 35700.00000000001
151 ; 77440.20636623261 ; 340176.96654609224 ; 1.376109977804704E7 ; 3.555638582213339E7 ; 35938.00000000001
152 ; 77505.76632622493 ; 341616.80275842716 ; 1.3838539984413274E7 ; 3.589656278867949E7 ; 36176.00000000001
153 ; 76786.86334065082 ; 343053.32529676927 ; 1.3916045750739498E7 ; 3.623817959143791E7 ; 36414.00000000001
154 ; 76590.1554125458 ; 344486.47778653767 ; 1.399283261408015E7 ; 3.658123291673468E7 ; 36652.00000000001
155 ; 76389.31648810391 ; 345916.2045893052 ; 1.4069422769492695E7 ; 3.692571939452122E7 ; 36890.00000000001
156 ; 76449.4906173576 ; 347342.4507850994 ; 1.4145812085980799E7 ; 3.727163559911053E7 ; 37128.00000000001
157 ; 75921.0625217628 ; 348765.1621552962 ; 1.4222261576598156E7 ; 3.761897804989563E7 ; 37366.00000000001
158 ; 75499.78567505126 ; 350184.2851660851 ; 1.429818263911992E7 ; 3.796774321205092E7 ; 37604.00000000001
159 ; 75547.06696882227 ; 351599.7669524856 ; 1.437368242479497E7 ; 3.831792749721701E7 ; 37842.00000000001
160 ; 75117.1090894234 ; 353011.5553028935 ; 1.4449229491763793E7 ; 3.866952726416949E7 ; 38080.00000000001
161 ; 74757.28813374856 ; 354419.59864413977 ; 1.4524346600853216E7 ; 3.902253881947239E7 ; 38318.00000000001
162 ; 74631.99142550236 ; 355823.84602704307 ; 1.4599103888986964E7 ; 3.9376958418116525E7 ; 38556.00000000001
163 ; 74441.5074681008 ; 357224.2471124383 ; 1.4673735880412467E7 ; 3.973278226414357E7 ; 38794.00000000001
164 ; 73796.73340114349 ; 358620.75215766375 ; 1.4748177387880567E7 ; 4.009000651125601E7 ; 39032.00000000001
165 ; 73382.61353177245 ; 360013.3120034916 ; 1.4821974121281711E7 ; 4.0448627263413675E7 ; 39270.00000000001
166 ; 73269.28642132087 ; 361401.8780614857 ; 1.4895356734813483E7 ; 4.080864057541717E7 ; 39508.00000000001
167 ; 72999.98121869926 ; 362786.4023017706 ; 1.4968626021234805E7 ; 4.117004245347866E7 ; 39746.00000000001
168 ; 72598.84399999563 ; 364166.8372411989 ; 1.5041626002453504E7 ; 4.153282885578043E7 ; 39984.00000000001
169 ; 72142.8480043796 ; 365543.13593190233 ; 1.5114224846453499E7 ; 4.189699569302163E7 ; 40222.00000000001
170 ; 71685.15824639527 ; 366915.25195021235 ; 1.518636769445788E7 ; 4.2262538828953534E7 ; 40460.00000000001
171 ; 71937.1957950149 ; 368283.13938593894 ; 1.5258052852704275E7 ; 4.2629454080903746E7 ; 40698.00000000001
172 ; 71582.96004178896 ; 369646.75283199333 ; 1.532999004849929E7 ; 4.2997737220289685E7 ; 40936.00000000001
173 ; 70807.55334010013 ; 371006.0473743446 ; 1.540157300854108E7 ; 4.336738397312168E7 ; 41174.00000000001
174 ; 71474.53058271747 ; 372360.9785822973 ; 1.5472380561881179E7 ; 4.3738390020496026E7 ; 41412.00000000001
175 ; 71078.175646683 ; 373711.502499079 ; 1.5543855092463896E7 ; 4.4110750999078326E7 ; 41650.00000000001
176 ; 71355.89427077808 ; 375057.5756327282 ; 1.5614933268110579E7 ; 4.448446250157741E7 ; 41888.00000000001
177 ; 71038.17222235868 ; 376399.1549472715 ; 1.5686289162381357E7 ; 4.4859520077210136E7 ; 42126.00000000001
178 ; 71182.62928121786 ; 377736.1978541796 ; 1.5757327334603716E7 ; 4.523591923215741E7 ; 42364.00000000001
179 ; 71437.93827594639 ; 379068.6622040946 ; 1.5828509963884933E7 ; 4.5613655430011585E7 ; 42602.00000000001
180 ; 71492.17951420268 ; 380396.5062788168 ; 1.589994790216088E7 ; 4.599272409221568E7 ; 42840.00000000001
181 ; 71680.59105552659 ; 381719.68878354423 ; 1.5971440081675082E7 ; 4.63731205984945E7 ; 43078.00000000001
