CSV File for the Network on Day 258
1 - Minute m 
2 - Power Consumed at minute m 
3 - Power Produced at minute m 
4 - Energy Consumed since the beginning of the day 
5 - Energy Produced since the beginning of the day 
6 - Energy Lost since the beginning of the day 
 
No Production city : 2, Producer : 1
No Production city : 4, Producer : 1
No Production city : 4, Producer : 1
 
0 ; 36104.2387059976 ; 142140.2542578514 ; 0.0 ; 0.0 ; 0.0
1 ; 37715.481026908616 ; 141778.60573062958 ; 36104.2387059976 ; 142140.2542578514 ; 238.00000000000003
2 ; 38911.823797093566 ; 141453.45599902107 ; 73819.71973290622 ; 283918.859988481 ; 476.00000000000006
3 ; 40410.378516331795 ; 141165.31196122232 ; 112731.54352999979 ; 425372.31598750205 ; 714.0000000000001
4 ; 41670.922514791804 ; 140914.63021504323 ; 153141.92204633157 ; 566537.6279487244 ; 952.0000000000001
5 ; 43433.49889262716 ; 140701.81375442617 ; 194812.84456112338 ; 707452.2581637676 ; 1190.0000000000002
6 ; 45087.04549676177 ; 140527.20897923983 ; 238246.34345375054 ; 848154.0719181938 ; 1428.0000000000002
7 ; 46123.49178594435 ; 140391.10306877317 ; 283333.3889505123 ; 988681.2808974336 ; 1666.0000000000002
8 ; 47588.952753995545 ; 140293.72176463017 ; 329456.8807364566 ; 1129072.3839662068 ; 1904.0000000000002
9 ; 49131.734316413254 ; 140235.2276026089 ; 377045.83349045215 ; 1269366.105730837 ; 2142.0000000000005
10 ; 50409.260074609905 ; 140215.7186257849 ; 426177.5678068654 ; 1409601.333333446 ; 2380.0000000000005
11 ; 51493.078960745974 ; 140235.2276026089 ; 476586.82788147527 ; 1549817.0519592308 ; 2618.0000000000005
12 ; 53287.51252009663 ; 140293.72176463017 ; 528079.9068422213 ; 1690052.2795618398 ; 2856.0000000000005
13 ; 54745.99336856052 ; 140391.10306877317 ; 581367.4193623179 ; 1830346.00132647 ; 3094.0000000000005
14 ; 55678.39284223017 ; 140527.2089792398 ; 636113.4127308785 ; 1970737.104395243 ; 3332.0000000000005
15 ; 57554.78710849743 ; 140701.81375442617 ; 691791.8055731086 ; 2111264.313374483 ; 3570.0000000000005
16 ; 58409.53679093174 ; 140914.63021504323 ; 749346.5926816061 ; 2251966.1271289093 ; 3808.0000000000005
17 ; 59401.22938370262 ; 141165.31196122227 ; 807756.1294725378 ; 2392880.7573439525 ; 4046.0000000000005
18 ; 60734.31473392563 ; 141453.45599902107 ; 867157.3588562404 ; 2534046.069305175 ; 4284.000000000001
19 ; 62170.31458948765 ; 141778.60573062958 ; 927891.673590166 ; 2675499.525304196 ; 4522.000000000001
20 ; 62986.3328754031 ; 142140.25425785145 ; 990061.9881796537 ; 2817278.1310348255 ; 4760.000000000001
21 ; 64480.777535177986 ; 142537.847945189 ; 1053048.3210550568 ; 2959418.3852926767 ; 4998.000000000001
22 ; 65249.65239561898 ; 142970.79018709378 ; 1117529.0985902348 ; 3101956.233237866 ; 5236.000000000001
23 ; 66653.52547070562 ; 143438.4453236289 ; 1182778.7509858538 ; 3244927.0234249597 ; 5474.000000000001
24 ; 67891.79152363287 ; 143940.1426498063 ; 1249432.2764565595 ; 3388365.4687485886 ; 5712.000000000001
25 ; 68758.53449586092 ; 144475.18046609004 ; 1317324.0679801924 ; 3532305.6113983947 ; 5950.000000000001
26 ; 69813.23680879555 ; 145042.83012080073 ; 1386082.6024760534 ; 3676780.7918644845 ; 6188.000000000001
27 ; 70866.04881599522 ; 145642.33999923727 ; 1455895.839284849 ; 3821823.621985285 ; 6426.000000000001
28 ; 71757.066111694 ; 146272.93941902995 ; 1526761.888100844 ; 3967465.961984522 ; 6664.000000000001
29 ; 73151.13206744028 ; 146933.84239636746 ; 1598518.9542125382 ; 4113738.901403552 ; 6902.000000000001
30 ; 74232.64635752019 ; 147624.2512530848 ; 1671670.0862799785 ; 4260672.743799919 ; 7140.000000000001
31 ; 75003.38882906803 ; 148343.36004000434 ; 1745902.7326374988 ; 4408296.9950530045 ; 7378.000000000001
32 ; 76034.32233091467 ; 149090.35775721676 ; 1820906.1214665668 ; 4556640.355093009 ; 7616.000000000001
33 ; 76841.37536368139 ; 149864.43135705427 ; 1896940.4437974815 ; 4705730.712850225 ; 7854.000000000001
34 ; 78027.34790361984 ; 150664.76852024056 ; 1973781.819161163 ; 4855595.144207279 ; 8092.000000000001
35 ; 79186.80893846307 ; 151490.56020001962 ; 2051809.1670647827 ; 5006259.91272752 ; 8330.000000000002
36 ; 79933.50358100094 ; 152341.00293293005 ; 2130995.976003246 ; 5157750.47292754 ; 8568.000000000002
37 ; 80803.88576853996 ; 153215.30091825782 ; 2210929.479584247 ; 5310091.47586047 ; 8806.000000000002
38 ; 81699.68999603679 ; 154112.66787108177 ; 2291733.3653527866 ; 5463306.776778728 ; 9044.000000000002
39 ; 82479.52265427654 ; 155032.32865620797 ; 2373433.0553488233 ; 5617419.44464981 ; 9282.000000000002
40 ; 82957.10476092988 ; 155973.52071221103 ; 2455912.5780030997 ; 5772451.773306018 ; 9520.000000000002
41 ; 84013.53941503126 ; 156935.4952762837 ; 2538869.6827640296 ; 5928425.294018229 ; 9758.000000000002
42 ; 85320.590863577 ; 157917.51842167933 ; 2622883.222179061 ; 6085360.789294512 ; 9996.000000000002
43 ; 85418.6116696659 ; 158918.87192026348 ; 2708203.813042638 ; 6243278.307716192 ; 10234.000000000002
44 ; 86510.9292363536 ; 159938.85394310224 ; 2793622.424712304 ; 6402197.179636455 ; 10472.000000000002
45 ; 87411.54844542845 ; 160976.7796121678 ; 2880133.3539486574 ; 6562136.033579557 ; 10710.000000000002
46 ; 87545.7301429461 ; 162031.98141615975 ; 2967544.9023940857 ; 6723112.813191725 ; 10948.000000000002
47 ; 88889.55278513124 ; 163103.80950318027 ; 3055090.6325370315 ; 6885144.794607884 ; 11186.000000000002
48 ; 89540.86518713806 ; 164191.6318625882 ; 3143980.1853221627 ; 7048248.604111064 ; 11424.000000000002
49 ; 89657.11462964212 ; 165294.83440783308 ; 3233521.0505093005 ; 7212440.235973652 ; 11662.000000000002
50 ; 90795.24202171645 ; 166412.82097146037 ; 3323178.1651389427 ; 7377735.070381486 ; 11900.000000000002
51 ; 91165.60874767792 ; 167545.0132228089 ; 3413973.4071606593 ; 7544147.891352946 ; 12138.000000000002
52 ; 91923.45944063718 ; 168690.85051821987 ; 3505139.015908337 ; 7711692.904575755 ; 12376.000000000002
53 ; 92740.75792513689 ; 169849.7896928521 ; 3597062.4753489746 ; 7880383.755093975 ; 12614.000000000002
54 ; 93365.1507440902 ; 171021.30480247477 ; 3689803.2332741115 ; 8050233.544786827 ; 12852.000000000002
55 ; 93841.12014556816 ; 172204.88682289448 ; 3783168.384018202 ; 8221254.849589301 ; 13090.000000000002
56 ; 94642.95851015515 ; 173400.04331398036 ; 3877009.50416377 ; 8393459.736412195 ; 13328.000000000002
57 ; 94923.19208858977 ; 174606.2980545809 ; 3971652.4626739253 ; 8566859.779726176 ; 13566.000000000002
58 ; 95407.06691047263 ; 175823.19065399517 ; 4066575.654762515 ; 8741466.077780757 ; 13804.000000000002
59 ; 96088.27320276707 ; 177050.27614506107 ; 4161982.7216729876 ; 8917289.268434752 ; 14042.000000000002
60 ; 96472.97622497892 ; 178287.12456336507 ; 4258070.994875754 ; 9094339.544579813 ; 14280.000000000002
61 ; 96948.83043519274 ; 179533.3205165575 ; 4354543.971100733 ; 9272626.669143178 ; 14518.000000000002
62 ; 97701.98581269126 ; 180788.46274727932 ; 4451492.801535926 ; 9452159.989659736 ; 14756.000000000002
63 ; 97947.6605230033 ; 182052.1636927658 ; 4549194.787348617 ; 9632948.452407015 ; 14994.000000000002
64 ; 98189.79860100482 ; 183324.04904379058 ; 4647142.44787162 ; 9815000.61609978 ; 15232.000000000002
65 ; 98705.34903568895 ; 184603.75730525004 ; 4745332.246472625 ; 9998324.665143572 ; 15470.000000000002
66 ; 98877.57102689547 ; 185890.939360358 ; 4844037.595508314 ; 1.0182928422448821E7 ; 15708.000000000002
67 ; 99405.16803080849 ; 187185.25804012283 ; 4942915.166535209 ; 1.036881936180918E7 ; 15946.000000000002
68 ; 99889.11751422717 ; 188486.3876995156 ; 5042320.334566018 ; 1.0556004619849302E7 ; 16184.000000000002
69 ; 100156.61685198119 ; 189794.0138014979 ; 5142209.452080245 ; 1.0744491007548818E7 ; 16422.000000000004
70 ; 100115.25334959914 ; 191107.8325098708 ; 5242366.068932226 ; 1.0934285021350317E7 ; 16660.000000000004
71 ; 100611.25322612883 ; 192427.5502917152 ; 5342481.322281825 ; 1.1125392853860188E7 ; 16898.000000000004
72 ; 100894.5735074928 ; 193752.88353003378 ; 5443092.575507954 ; 1.1317820404151903E7 ; 17136.000000000004
73 ; 101312.45175931125 ; 195083.5581470583 ; 5543987.149015446 ; 1.1511573287681937E7 ; 17374.000000000004
74 ; 101260.95010808462 ; 196419.30923855965 ; 5645299.600774758 ; 1.1706656845828995E7 ; 17612.000000000004
75 ; 101773.01026521303 ; 197759.8807193899 ; 5746560.550882842 ; 1.1903076155067556E7 ; 17850.000000000004
76 ; 101907.04479264456 ; 199105.0249803896 ; 5848333.561148056 ; 1.2100836035786945E7 ; 18088.000000000004
77 ; 102228.42823187076 ; 200454.5025567126 ; 5950240.6059407005 ; 1.2299941060767336E7 ; 18326.000000000004
78 ; 102085.98832481646 ; 201808.08180755095 ; 6052469.034172571 ; 1.250039556332405E7 ; 18564.000000000004
79 ; 102649.96667478891 ; 203165.53860718227 ; 6154555.022497388 ; 1.27022036451316E7 ; 18802.000000000004
80 ; 102978.60880347004 ; 204526.6560472142 ; 6257204.989172176 ; 1.2905369183738781E7 ; 19040.000000000004
81 ; 102940.31656150572 ; 205891.2241498559 ; 6360183.597975646 ; 1.3109895839785995E7 ; 19278.000000000004
82 ; 102579.40263032187 ; 207259.03959201535 ; 6463123.914537152 ; 1.3315787063935852E7 ; 19516.000000000004
83 ; 103218.23942366394 ; 208629.90543999034 ; 6565703.317167474 ; 1.3523046103527866E7 ; 19754.000000000004
84 ; 103510.72843932835 ; 210003.6308945011 ; 6668921.556591138 ; 1.3731676008967856E7 ; 19992.000000000004
85 ; 102669.43895193489 ; 211380.03104579326 ; 6772432.2850304665 ; 1.3941679639862357E7 ; 20230.000000000004
86 ; 103207.65107775308 ; 212758.92663852713 ; 6875101.723982401 ; 1.415305967090815E7 ; 20468.000000000004
87 ; 102965.35204550032 ; 214140.14384615992 ; 6978309.375060154 ; 1.4365818597546676E7 ; 20706.000000000004
88 ; 103712.63808079725 ; 215523.51405452064 ; 7081274.727105655 ; 1.4579958741392836E7 ; 20944.000000000004
89 ; 103113.2936633945 ; 216908.8736542747 ; 7184987.365186452 ; 1.4795482255447356E7 ; 21182.000000000004
90 ; 103305.70861167776 ; 218296.06384197128 ; 7288100.658849847 ; 1.501239112910163E7 ; 21420.000000000004
91 ; 103280.74440498083 ; 219684.9304293707 ; 7391406.367461524 ; 1.5230687192943601E7 ; 21658.000000000004
92 ; 103273.70550608539 ; 221075.32366074857 ; 7494687.111866505 ; 1.5450372123372972E7 ; 21896.000000000004
93 ; 102987.69938932484 ; 222467.09803787724 ; 7597960.81737259 ; 1.567144744703372E7 ; 22134.000000000004
94 ; 102780.19138004842 ; 223860.11215239207 ; 7700948.516761915 ; 1.5893914545071598E7 ; 22372.000000000004
95 ; 102478.08088361834 ; 225254.2285252523 ; 7803728.708141963 ; 1.611777465722399E7 ; 22610.000000000004
96 ; 102534.89517440539 ; 226649.31345301637 ; 7906206.789025581 ; 1.6343028885749243E7 ; 22848.000000000004
97 ; 102485.8897024889 ; 228045.23686065507 ; 8008741.684199987 ; 1.656967819920226E7 ; 23086.000000000004
98 ; 102409.19071416304 ; 229441.87216063647 ; 8111227.573902476 ; 1.6797723436062913E7 ; 23324.000000000004
99 ; 101902.608652116 ; 230839.0961180225 ; 8213636.764616638 ; 1.702716530822355E7 ; 23562.000000000004
100 ; 101943.19033917821 ; 232236.78872132592 ; 8315539.373268754 ; 1.725800440434157E7 ; 23800.000000000004
101 ; 101754.9696607264 ; 233634.83305888422 ; 8417482.563607933 ; 1.7490241193062898E7 ; 24038.000000000004
102 ; 101468.76339751277 ; 235033.11520051607 ; 8519237.53326866 ; 1.772387602612178E7 ; 24276.000000000004
103 ; 101117.89874325576 ; 236431.52408423365 ; 8620706.296666173 ; 1.7958909141322296E7 ; 24514.000000000004
104 ; 100705.37342354165 ; 237829.95140779248 ; 8721824.195409428 ; 1.819534066540653E7 ; 24752.000000000004
105 ; 100145.30815069427 ; 239228.29152486948 ; 8822529.56883297 ; 1.8433170616814323E7 ; 24990.000000000004
106 ; 99887.3518097902 ; 240626.44134566648 ; 8922674.876983663 ; 1.867239890833919E7 ; 25228.000000000004
107 ; 100294.13452175737 ; 242024.3002417472 ; 9022562.228793453 ; 1.8913025349684857E7 ; 25466.000000000004
108 ; 99610.31335142064 ; 243421.76995491935 ; 9122856.363315212 ; 1.9155049649926603E7 ; 25704.000000000004
109 ; 99440.26993567626 ; 244818.75450998577 ; 9222466.676666632 ; 1.9398471419881523E7 ; 25942.000000000004
110 ; 98885.33863863276 ; 246215.1601311926 ; 9321906.94660231 ; 1.9643290174391508E7 ; 26180.000000000004
111 ; 98248.27204531479 ; 247610.89516221106 ; 9420792.285240943 ; 1.98895053345227E7 ; 26418.000000000004
112 ; 97985.3155510442 ; 249005.86998949648 ; 9519040.557286257 ; 2.013711622968491E7 ; 26656.000000000004
113 ; 97710.4105032603 ; 250399.99696887407 ; 9617025.872837301 ; 2.0386122099674407E7 ; 26894.000000000004
114 ; 97266.49490861999 ; 251793.19035520902 ; 9714736.283340562 ; 2.063652209664328E7 ; 27132.000000000004
115 ; 96742.40393218871 ; 253185.36623502302 ; 9812002.778249182 ; 2.0888315286998488E7 ; 27370.000000000004
116 ; 96002.32746189063 ; 254576.442461927 ; 9908745.182181371 ; 2.114150065323351E7 ; 27608.000000000004
117 ; 95756.0841437013 ; 255966.33859474433 ; 1.0004747509643262E7 ; 2.1396077095695436E7 ; 27846.000000000004
118 ; 95587.9832414236 ; 257354.97583820522 ; 1.0100503593786964E7 ; 2.165204343429018E7 ; 28084.000000000004
119 ; 94789.70853611341 ; 258742.2769860986 ; 1.0196091577028388E7 ; 2.190939841012839E7 ; 28322.000000000004
120 ; 93819.85635984638 ; 260128.16636677168 ; 1.02908812855645E7 ; 2.216814068711449E7 ; 28560.000000000004
121 ; 93495.36623504931 ; 261512.56979087385 ; 1.0384701141924348E7 ; 2.242826885348126E7 ; 28798.000000000004
122 ; 93233.13780645926 ; 262895.41450124566 ; 1.0478196508159397E7 ; 2.2689781423272133E7 ; 29036.000000000004
123 ; 92388.02218527667 ; 264276.6291248573 ; 1.0571429645965856E7 ; 2.295267683777338E7 ; 29274.000000000004
124 ; 91512.92474949473 ; 265656.1436267078 ; 1.0663817668151133E7 ; 2.3216953466898236E7 ; 29512.000000000004
125 ; 91063.51779773262 ; 267033.88926559617 ; 1.0755330592900628E7 ; 2.3482609610524945E7 ; 29750.000000000004
126 ; 90509.33651937534 ; 268409.79855168564 ; 1.0846394110698361E7 ; 2.374964349979054E7 ; 29988.000000000004
127 ; 89670.61709914664 ; 269783.8052057785 ; 1.0936903447217736E7 ; 2.4018053298342228E7 ; 30226.000000000004
128 ; 89228.72573552719 ; 271155.84412023047 ; 1.1026574064316884E7 ; 2.4287837103548005E7 ; 30464.000000000004
129 ; 87977.2098247446 ; 272525.85132143006 ; 1.111580279005241E7 ; 2.4558992947668236E7 ; 30702.000000000004
130 ; 87748.35819966816 ; 273893.7639337768 ; 1.1203779999877155E7 ; 2.4831518798989665E7 ; 30940.000000000004
131 ; 86814.13255405318 ; 275259.52014509245 ; 1.1291528358076824E7 ; 2.5105412562923443E7 ; 31178.000000000004
132 ; 86092.73578462865 ; 276623.05917340284 ; 1.1378342490630876E7 ; 2.5380672083068535E7 ; 31416.000000000004
133 ; 85702.27179777973 ; 277984.3212350322 ; 1.1464435226415506E7 ; 2.5657295142241936E7 ; 31654.000000000004
134 ; 84740.34424730441 ; 279343.24751395267 ; 1.1550137498213286E7 ; 2.5935279463476967E7 ; 31892.000000000004
135 ; 84029.24120316147 ; 280699.78013233497 ; 1.163487784246059E7 ; 2.621462271099092E7 ; 32130.000000000004
136 ; 82866.20259974142 ; 282053.8621222502 ; 1.171890708366375E7 ; 2.6495322491123255E7 ; 32368.000000000004
137 ; 82020.63359545672 ; 283405.4373984714 ; 1.1801773286263492E7 ; 2.6777376353245504E7 ; 32606.000000000004
138 ; 81030.0498581571 ; 284754.4507323308 ; 1.188379391985895E7 ; 2.7060781790643975E7 ; 32844.00000000001
139 ; 80339.94361207559 ; 286100.84772658575 ; 1.1964823969717106E7 ; 2.7345536241376307E7 ; 33082.00000000001
140 ; 79475.97926776095 ; 287444.5747912518 ; 1.2045163913329182E7 ; 2.7631637089102894E7 ; 33320.00000000001
141 ; 78809.31096856613 ; 288785.5791203627 ; 1.2124639892596943E7 ; 2.7919081663894147E7 ; 33558.00000000001
142 ; 77589.19725660249 ; 290123.80866961676 ; 1.220344920356551E7 ; 2.820786724301451E7 ; 33796.00000000001
143 ; 76290.16534479459 ; 291459.2121348748 ; 1.2281038400822112E7 ; 2.8497991051684126E7 ; 34034.00000000001
144 ; 75527.67486750502 ; 292791.738931472 ; 1.2357328566166908E7 ; 2.8789450263819E7 ; 34272.00000000001
145 ; 75547.1247457949 ; 294121.3391743118 ; 1.2432856241034413E7 ; 2.9082242002750475E7 ; 34510.00000000001
146 ; 75376.5540785804 ; 295447.9636587077 ; 1.2508403365780208E7 ; 2.9376363341924787E7 ; 34748.00000000001
147 ; 75141.06450692352 ; 296771.5638419436 ; 1.258377991985879E7 ; 2.9671811305583496E7 ; 34986.00000000001
148 ; 74618.98863214708 ; 298092.0918255233 ; 1.2658920984365713E7 ; 2.996858286942544E7 ; 35224.00000000001
149 ; 74537.93374264627 ; 299409.5003380787 ; 1.273353997299786E7 ; 3.026667496125096E7 ; 35462.00000000001
150 ; 74704.46719011542 ; 300723.7427189128 ; 1.2808077906740505E7 ; 3.056608446158904E7 ; 35700.00000000001
151 ; 73785.94579750631 ; 302034.7729021503 ; 1.288278237393062E7 ; 3.086680820430795E7 ; 35938.00000000001
152 ; 73445.14046218418 ; 303342.54540147097 ; 1.2956568319728127E7 ; 3.11688429772101E7 ; 36176.00000000001
153 ; 73558.04980606987 ; 304647.0152954027 ; 1.3030013460190311E7 ; 3.1472185522611573E7 ; 36414.00000000001
154 ; 73357.42377763304 ; 305948.13821315236 ; 1.310357150999638E7 ; 3.1776832537906975E7 ; 36652.00000000001
155 ; 73288.53406430065 ; 307245.87032095174 ; 1.3176928933774013E7 ; 3.208278067612013E7 ; 36890.00000000001
156 ; 73053.1401508115 ; 308540.1683088992 ; 1.3250217467838313E7 ; 3.2390026546441082E7 ; 37128.00000000001
157 ; 72170.52895961354 ; 309830.98937827675 ; 1.3323270607989125E7 ; 3.269856671474998E7 ; 37366.00000000001
158 ; 72300.77512761108 ; 311118.2912293234 ; 1.3395441136948738E7 ; 3.3008397704128258E7 ; 37604.00000000001
159 ; 72210.11551639123 ; 312402.0320494486 ; 1.3467741912076348E7 ; 3.331951599535758E7 ; 37842.00000000001
160 ; 71468.0256078967 ; 313682.17050186585 ; 1.353995202759274E7 ; 3.363191802740703E7 ; 38080.00000000001
161 ; 71058.56225960882 ; 314958.66571463237 ; 1.3611420053200636E7 ; 3.394560019790889E7 ; 38318.00000000001
162 ; 71187.91303221823 ; 316231.477270078 ; 1.3682478615460245E7 ; 3.426055886362352E7 ; 38556.00000000001
163 ; 70846.02000619461 ; 317500.5651946081 ; 1.3753666528492464E7 ; 3.4576790340893604E7 ; 38794.00000000001
164 ; 70738.16111670525 ; 318765.88994886674 ; 1.3824512548498658E7 ; 3.489429090608821E7 ; 39032.00000000001
165 ; 69966.2510638101 ; 320027.41241824516 ; 1.3895250709615363E7 ; 3.521305679603708E7 ; 39270.00000000001
166 ; 70043.38998136994 ; 321285.0939037243 ; 1.3965216960679173E7 ; 3.5533084208455324E7 ; 39508.00000000001
167 ; 69562.47597237478 ; 322538.89611303614 ; 1.4035260350660544E7 ; 3.585436930235905E7 ; 39746.00000000001
168 ; 69358.81236577351 ; 323788.7811521336 ; 1.4104822826632919E7 ; 3.617690819847209E7 ; 39984.00000000001
169 ; 68786.63656059295 ; 325034.7115169565 ; 1.4174181638998693E7 ; 3.650069697962423E7 ; 40222.00000000001
170 ; 68768.3428112824 ; 326276.65008548263 ; 1.4242968275559286E7 ; 3.682573169114118E7 ; 40460.00000000001
171 ; 68082.93997010475 ; 327514.5601100537 ; 1.4311736618370568E7 ; 3.715200834122666E7 ; 40698.00000000001
172 ; 67431.32845018545 ; 328748.4052099644 ; 1.4379819558340672E7 ; 3.7479522901336715E7 ; 40936.00000000001
173 ; 67156.99570115047 ; 329978.14936430665 ; 1.4447250886790859E7 ; 3.780827130654668E7 ; 41174.00000000001
174 ; 67413.6198236449 ; 331203.7569050585 ; 1.451440788249201E7 ; 3.813824945591099E7 ; 41412.00000000001
175 ; 67918.8297224137 ; 332425.1925104087 ; 1.4581821502315655E7 ; 3.8469453212816045E7 ; 41650.00000000001
176 ; 67881.91418284306 ; 333642.421198308 ; 1.464974033203807E7 ; 3.8801878405326456E7 ; 41888.00000000001
177 ; 68124.03002766859 ; 334855.4083202402 ; 1.4717622246220913E7 ; 3.9135520826524764E7 ; 42126.00000000001
178 ; 67967.89347775136 ; 336064.1195552031 ; 1.4785746276248582E7 ; 3.9470376234845005E7 ; 42364.00000000001
179 ; 68471.86555422656 ; 337268.5209038931 ; 1.4853714169726333E7 ; 3.980644035440021E7 ; 42602.00000000001
180 ; 68868.1256098254 ; 338468.5786830852 ; 1.492218603528056E7 ; 4.01437088753041E7 ; 42840.00000000001
181 ; 68899.27015117768 ; 339664.2595202019 ; 1.4991054160890386E7 ; 4.048217745398719E7 ; 43078.00000000001
182 ; 68834.77022630462 ; 340855.5303480637 ; 1.5059953431041563E7 ; 4.082184171350739E7 ; 43316.00000000001
