CSV File for the Network on Day 225
1 - Minute m 
2 - Power Consumed at minute m 
3 - Power Produced at minute m 
4 - Energy Consumed since the beginning of the day 
5 - Energy Produced since the beginning of the day 
6 - Energy Lost since the beginning of the day 
 
No Production city : 2, Producer : 1
No Production city : 4, Producer : 1
No Production city : 4, Producer : 1
 
0 ; 27236.936542028 ; 89449.05188403359 ; 0.0 ; 0.0 ; 0.0
1 ; 28897.06081135849 ; 88531.23494828155 ; 27236.936542028 ; 89449.05188403359 ; 238.00000000000003
2 ; 30777.54929884481 ; 87672.49134138538 ; 56133.99735338649 ; 177980.28683231515 ; 476.00000000000006
3 ; 32310.858362093888 ; 86881.20279849046 ; 86911.5466522313 ; 265652.77817370056 ; 714.0000000000001
4 ; 34728.46868395073 ; 86166.53461124518 ; 119222.4050143252 ; 352533.980972191 ; 952.0000000000001
5 ; 35380.07861058591 ; 85538.22712888295 ; 153950.87369827591 ; 438700.51558343624 ; 1190.0000000000002
6 ; 37972.893472715914 ; 85006.23620108131 ; 189330.95230886183 ; 524238.7427123192 ; 1428.0000000000002
7 ; 39392.84016112894 ; 84580.20689100464 ; 227303.84578157775 ; 609244.9789134006 ; 1666.0000000000002
8 ; 41129.828016607644 ; 84268.80050157457 ; 266696.6859427067 ; 693825.1858044052 ; 1904.0000000000002
9 ; 42472.913299384425 ; 84078.94638025122 ; 307826.5139593143 ; 778093.9863059798 ; 2142.0000000000005
10 ; 44779.20852821414 ; 84015.14153315143 ; 350299.42725869874 ; 862172.932686231 ; 2380.0000000000005
11 ; 45883.56258224125 ; 84078.94638025122 ; 395078.63578691287 ; 946188.0742193824 ; 2618.0000000000005
12 ; 47696.28265853386 ; 84268.80050157457 ; 440962.1983691541 ; 1030267.0205996336 ; 2856.0000000000005
13 ; 49136.31976377948 ; 84580.20689100464 ; 488658.481027688 ; 1114535.8211012082 ; 3094.0000000000005
14 ; 50719.725274959885 ; 85006.23620108103 ; 537794.8007914675 ; 1199116.027992213 ; 3332.0000000000005
15 ; 52243.98600339091 ; 85538.22712888295 ; 588514.5260664275 ; 1284122.2641932939 ; 3570.0000000000005
16 ; 53939.80872455275 ; 86166.53461124518 ; 640758.5120698183 ; 1369660.4913221768 ; 3808.0000000000005
17 ; 55336.1379819328 ; 86881.20279849022 ; 694698.3207943711 ; 1455827.025933422 ; 4046.0000000000005
18 ; 56528.07699616468 ; 87672.49134138561 ; 750034.4587763039 ; 1542708.228731912 ; 4284.000000000001
19 ; 58094.72946695635 ; 88531.23494828155 ; 806562.5357724685 ; 1630380.7200732976 ; 4522.000000000001
20 ; 59725.147482915345 ; 89449.05188403359 ; 864657.2652394249 ; 1718911.9550215793 ; 4760.000000000001
21 ; 60871.02716399251 ; 90418.43418224501 ; 924382.4127223402 ; 1808361.0069056128 ; 4998.000000000001
22 ; 62006.08026644059 ; 91432.75536310385 ; 985253.4398863327 ; 1898779.4410878578 ; 5236.000000000001
23 ; 63322.94189289607 ; 92486.22671236224 ; 1047259.5201527734 ; 1990212.1964509618 ; 5474.000000000001
24 ; 65312.24266307988 ; 93573.8256750557 ; 1110582.4620456693 ; 2082698.423163324 ; 5712.000000000001
25 ; 66516.07408261074 ; 94691.21255747417 ; 1175894.7047087492 ; 2176272.2488383795 ; 5950.000000000001
26 ; 67816.6195356861 ; 95834.64575236286 ; 1242410.7787913599 ; 2270963.4613958537 ; 6188.000000000001
27 ; 69086.0784693246 ; 97000.90135539153 ; 1310227.398327046 ; 2366798.1071482166 ; 6426.000000000001
28 ; 69674.09600713443 ; 98187.20012115827 ; 1379313.4767963707 ; 2463799.008503608 ; 6664.000000000001
29 ; 71475.75972150988 ; 99391.14287309663 ; 1448987.5728035052 ; 2561986.208624766 ; 6902.000000000001
30 ; 72181.8110261555 ; 100610.6544061676 ; 1520463.332525015 ; 2661377.351497863 ; 7140.000000000001
31 ; 73984.78869204149 ; 101843.93534365749 ; 1592645.1435511706 ; 2761988.0059040305 ; 7378.000000000001
32 ; 75082.58583243299 ; 103089.4211420857 ; 1666629.9322432121 ; 2863831.941247688 ; 7616.000000000001
33 ; 76318.46685220947 ; 104345.74735439023 ; 1741712.5180756452 ; 2966921.362389774 ; 7854.000000000001
34 ; 76774.21431181328 ; 105611.72027958093 ; 1818030.9849278547 ; 3071267.109744164 ; 8092.000000000001
35 ; 78206.61913761043 ; 106886.29219642653 ; 1894805.199239668 ; 3176878.830023745 ; 8330.000000000002
36 ; 79283.33502836058 ; 108168.54046952304 ; 1973011.8183772783 ; 3283765.1222201716 ; 8568.000000000002
37 ; 80631.0853444906 ; 109457.64991128634 ; 2052295.1534056389 ; 3391933.6626896947 ; 8806.000000000002
38 ; 81606.1734224676 ; 110752.89787407566 ; 2132926.2387501295 ; 3501391.312600981 ; 9044.000000000002
39 ; 82257.11640938131 ; 112053.64162855245 ; 2214532.412172597 ; 3612144.2104750564 ; 9282.000000000002
40 ; 83183.59182013778 ; 113359.30765604063 ; 2296789.5285819783 ; 3724197.8521036087 ; 9520.000000000002
41 ; 84641.10978734201 ; 114669.38254408592 ; 2379973.120402116 ; 3837557.159759649 ; 9758.000000000002
42 ; 85485.30779018474 ; 115983.40522634915 ; 2464614.230189458 ; 3952226.542303735 ; 9996.000000000002
43 ; 86549.5144052828 ; 117300.96035149544 ; 2550099.537979643 ; 4068209.9475300843 ; 10234.000000000002
44 ; 87634.91841724112 ; 118621.6726019924 ; 2636649.0523849255 ; 4185510.90788158 ; 10472.000000000002
45 ; 87743.93269458882 ; 119945.20181381142 ; 2724283.9708021665 ; 4304132.580483573 ; 10710.000000000002
46 ; 88737.84412725431 ; 121271.23877292946 ; 2812027.9034967553 ; 4424077.782297384 ; 10948.000000000002
47 ; 89449.20423221416 ; 122599.50158512252 ; 2900765.7476240094 ; 4545349.021070314 ; 11186.000000000002
48 ; 90512.6203152626 ; 123929.7325325721 ; 2990214.9518562234 ; 4667948.522655436 ; 11424.000000000002
49 ; 91745.20498761383 ; 125261.6953448908 ; 3080727.572171486 ; 4791878.255188008 ; 11662.000000000002
50 ; 92252.44496918617 ; 126595.17282383717 ; 3172472.7771591 ; 4917139.950532898 ; 11900.000000000002
51 ; 92778.32463879976 ; 127929.96477065707 ; 3264725.222128286 ; 5043735.123356735 ; 12138.000000000002
52 ; 93775.23074757925 ; 129265.88617302197 ; 3357503.546767086 ; 5171665.088127392 ; 12376.000000000002
53 ; 94219.35931600067 ; 130602.76561521241 ; 3451278.777514665 ; 5300930.974300414 ; 12614.000000000002
54 ; 94780.00652863283 ; 131940.44388076547 ; 3545498.1368306656 ; 5431533.739915627 ; 12852.000000000002
55 ; 95908.08435837284 ; 133278.77272145546 ; 3640278.1433592984 ; 5563474.183796393 ; 13090.000000000002
56 ; 96249.28085344537 ; 134617.6137703753 ; 3736186.227717671 ; 5696752.956517848 ; 13328.000000000002
57 ; 97527.15197111717 ; 135956.83758015113 ; 3832435.5085711163 ; 5831370.570288223 ; 13566.000000000002
58 ; 97874.14500277229 ; 137296.32277007305 ; 3929962.6605422334 ; 5967327.407868374 ; 13804.000000000002
59 ; 98731.65099637206 ; 138635.95526824455 ; 4027836.8055450055 ; 6104623.730638447 ; 14042.000000000002
60 ; 98658.33010844773 ; 139975.6276368079 ; 4126568.4565413776 ; 6243259.6859066915 ; 14280.000000000002
61 ; 99599.2662954867 ; 141315.23846996351 ; 4225226.786649825 ; 6383235.313543499 ; 14518.000000000002
62 ; 100185.16462517103 ; 142654.69185591064 ; 4324826.052945312 ; 6524550.552013463 ; 14756.000000000002
63 ; 100605.3819777842 ; 143993.89689503153 ; 4425011.217570483 ; 6667205.243869374 ; 14994.000000000002
64 ; 101360.40357743717 ; 145332.76726766684 ; 4525616.599548267 ; 6811199.140764405 ; 15232.000000000002
65 ; 102210.52875516859 ; 146671.22084570117 ; 4626977.003125705 ; 6956531.908032072 ; 15470.000000000002
66 ; 102037.28025391293 ; 148009.1793429259 ; 4729187.531880873 ; 7103203.128877773 ; 15708.000000000002
67 ; 102825.76657688648 ; 149346.56799979074 ; 4831224.8121347865 ; 7251212.3082206985 ; 15946.000000000002
68 ; 102845.6524526613 ; 150683.31529870606 ; 4934050.578711673 ; 7400558.876220489 ; 16184.000000000002
69 ; 103717.1530577861 ; 152019.35270653546 ; 5036896.231164334 ; 7551242.191519195 ; 16422.000000000004
70 ; 103699.05170688394 ; 153354.61444132993 ; 5140613.38422212 ; 7703261.544225731 ; 16660.000000000004
71 ; 104268.66549415054 ; 154689.03726071113 ; 5244312.435929004 ; 7856616.158667061 ; 16898.000000000004
72 ; 104669.25218312384 ; 156022.56026962004 ; 5348581.101423155 ; 8011305.195927772 ; 17136.000000000004
73 ; 105040.51580134495 ; 157355.12474541675 ; 5453250.353606278 ; 8167327.756197392 ; 17374.000000000004
74 ; 105207.54914863595 ; 158686.67397855033 ; 5558290.869407623 ; 8324682.880942808 ; 17612.000000000004
75 ; 105282.40916482665 ; 160017.15312722273 ; 5663498.418556259 ; 8483369.554921359 ; 17850.000000000004
76 ; 105730.34557517318 ; 161346.5090846475 ; 5768780.827721085 ; 8643386.708048582 ; 18088.000000000004
77 ; 106217.12977841908 ; 162674.6903576624 ; 5874511.173296259 ; 8804733.21713323 ; 18326.000000000004
78 ; 106312.83405271443 ; 164001.6469555901 ; 5980728.3030746775 ; 8967407.907490892 ; 18564.000000000004
79 ; 106432.16850579665 ; 165327.33028836251 ; 6087041.137127392 ; 9131409.554446483 ; 18802.000000000004
80 ; 106571.06032540413 ; 166651.69307302998 ; 6193473.305633188 ; 9296736.884734845 ; 19040.000000000004
81 ; 106688.95767323943 ; 167974.6892478695 ; 6300044.365958592 ; 9463388.577807875 ; 19278.000000000004
82 ; 107020.77424707357 ; 169296.27389338982 ; 6406733.323631831 ; 9631363.267055744 ; 19516.000000000004
83 ; 106946.27861553495 ; 170616.40315960214 ; 6513754.097878905 ; 9800659.540949134 ; 19754.000000000004
84 ; 107237.4270752394 ; 171935.03419899146 ; 6620700.37649444 ; 9971275.944108736 ; 19992.000000000004
85 ; 107162.38056417265 ; 173252.12510468048 ; 6727937.80356968 ; 1.0143210978307728E7 ; 20230.000000000004
86 ; 107168.59205982077 ; 174567.63485332782 ; 6835100.184133853 ; 1.0316463103412408E7 ; 20468.000000000004
87 ; 107116.72869096813 ; 175881.52325234853 ; 6942268.776193674 ; 1.0491030738265736E7 ; 20706.000000000004
88 ; 107013.45376736112 ; 177193.75089108557 ; 7049385.504884642 ; 1.0666912261518085E7 ; 20944.000000000004
89 ; 107184.6205722551 ; 178504.2790955953 ; 7156398.958652003 ; 1.0844106012409171E7 ; 21182.000000000004
90 ; 107177.43844326223 ; 179813.06988674318 ; 7263583.579224258 ; 1.1022610291504767E7 ; 21420.000000000004
91 ; 107469.72295356542 ; 181120.08594133536 ; 7370761.01766752 ; 1.120242336139151E7 ; 21658.000000000004
92 ; 107397.74571076933 ; 182425.29055603532 ; 7478230.740621085 ; 1.1383543447332846E7 ; 21896.000000000004
93 ; 107270.23458644008 ; 183728.6476138402 ; 7585628.486331855 ; 1.1565968737888882E7 ; 22134.000000000004
94 ; 107099.65064242689 ; 185030.12155291013 ; 7692898.720918295 ; 1.1749697385502722E7 ; 22372.000000000004
95 ; 106828.3594204323 ; 186329.67733756424 ; 7799998.371560722 ; 1.1934727507055633E7 ; 22610.000000000004
96 ; 106489.32741352038 ; 187627.28043127235 ; 7906826.730981154 ; 1.2121057184393197E7 ; 22848.000000000004
97 ; 106626.08575533239 ; 188922.89677148714 ; 8013316.058394675 ; 1.230868446482447E7 ; 23086.000000000004
98 ; 106112.51034383793 ; 190216.49274617506 ; 8119942.1441500075 ; 1.2497607361595957E7 ; 23324.000000000004
99 ; 106100.36203329482 ; 191508.0351719166 ; 8226054.654493845 ; 1.2687823854342131E7 ; 23562.000000000004
100 ; 106091.57832071428 ; 192797.49127345724 ; 8332155.01652714 ; 1.2879331889514048E7 ; 23800.000000000004
101 ; 105626.01641251711 ; 194084.82866460155 ; 8438246.594847854 ; 1.3072129380787505E7 ; 24038.000000000004
102 ; 105415.86761825572 ; 195370.01533035 ; 8543872.611260371 ; 1.3266214209452106E7 ; 24276.000000000004
103 ; 104682.99092706203 ; 196653.0196101886 ; 8649288.478878627 ; 1.3461584224782456E7 ; 24514.000000000004
104 ; 104759.5288567427 ; 197933.8101824475 ; 8753971.46980569 ; 1.3658237244392645E7 ; 24752.000000000004
105 ; 104612.39970129667 ; 199212.35604965175 ; 8858730.998662433 ; 1.3856171054575091E7 ; 24990.000000000004
106 ; 104337.28366724233 ; 200488.62652479383 ; 8963343.39836373 ; 1.4055383410624743E7 ; 25228.000000000004
107 ; 104068.92595309655 ; 201762.59121846376 ; 9067680.682030972 ; 1.4255872037149535E7 ; 25466.000000000004
108 ; 103544.86869774817 ; 203034.22002677553 ; 9171749.607984068 ; 1.4457634628368E7 ; 25704.000000000004
109 ; 102814.62167240404 ; 204303.48312003678 ; 9275294.476681815 ; 1.4660668848394776E7 ; 25942.000000000004
110 ; 102509.97892688679 ; 205570.35093210932 ; 9378109.09835422 ; 1.4864972331514813E7 ; 26180.000000000004
111 ; 101970.12691489214 ; 206834.79415041488 ; 9480619.077281106 ; 1.5070542682446923E7 ; 26418.000000000004
112 ; 101169.19299954808 ; 208096.78370654208 ; 9582589.204195999 ; 1.5277377476597339E7 ; 26656.000000000004
113 ; 100875.02864546323 ; 209356.2907674149 ; 9683758.397195546 ; 1.5485474260303881E7 ; 26894.000000000004
114 ; 99918.01393433145 ; 210613.28672698562 ; 9784633.42584101 ; 1.5694830551071296E7 ; 27132.000000000004
115 ; 99689.35891954848 ; 211867.74319841815 ; 9884551.43977534 ; 1.590544383779828E7 ; 27370.000000000004
116 ; 99087.11606157827 ; 213119.63200672955 ; 9984240.798694888 ; 1.61173115809967E7 ; 27608.000000000004
117 ; 98649.68356288968 ; 214368.9251818612 ; 1.0083327914756466E7 ; 1.6330431213003429E7 ; 27846.000000000004
118 ; 98024.89874974199 ; 215615.59495215106 ; 1.0181977598319355E7 ; 1.654480013818529E7 ; 28084.000000000004
119 ; 98109.90208321018 ; 216859.613738183 ; 1.0280002497069098E7 ; 1.6760415733137442E7 ; 28322.000000000004
120 ; 96977.45141923455 ; 218100.95414698875 ; 1.0378112399152309E7 ; 1.6977275346875627E7 ; 28560.000000000004
121 ; 95728.5200026238 ; 219339.58896658095 ; 1.0475089850571543E7 ; 1.7195376301022615E7 ; 28798.000000000004
122 ; 95450.54025569305 ; 220575.49116079707 ; 1.0570818370574167E7 ; 1.7414715889989197E7 ; 29036.000000000004
123 ; 94813.1207132798 ; 221808.6338644348 ; 1.066626891082986E7 ; 1.7635291381149996E7 ; 29274.000000000004
124 ; 94009.17808768494 ; 223038.99037866195 ; 1.0761082031543141E7 ; 1.7857100015014432E7 ; 29512.000000000004
125 ; 93671.69777925235 ; 224266.53416668344 ; 1.0855091209630826E7 ; 1.8080139005393095E7 ; 29750.000000000004
126 ; 92421.81577675408 ; 225491.2388496514 ; 1.094876290741008E7 ; 1.8304405539559778E7 ; 29988.000000000004
127 ; 91752.92026557392 ; 226713.0782028025 ; 1.1041184723186834E7 ; 1.852989677840943E7 ; 30226.000000000004
128 ; 90897.41305365466 ; 227932.02615181069 ; 1.1132937643452408E7 ; 1.875660985661223E7 ; 30464.000000000004
129 ; 90093.45804275079 ; 229148.05676934158 ; 1.1223835056506062E7 ; 1.898454188276404E7 ; 30702.000000000004
130 ; 89382.98867996703 ; 230361.14427179756 ; 1.1313928514548812E7 ; 1.9213689939533383E7 ; 30940.000000000004
131 ; 88542.57166831415 ; 231571.26301624282 ; 1.140331150322878E7 ; 1.944405108380518E7 ; 31178.000000000004
132 ; 87627.45795785965 ; 232778.38749749723 ; 1.1491854074897094E7 ; 1.9675622346821424E7 ; 31416.000000000004
133 ; 86807.342893367 ; 233982.49234539067 ; 1.1579481532854954E7 ; 1.990840073431892E7 ; 31654.000000000004
134 ; 85581.3008817434 ; 235183.5523221678 ; 1.1666288875748321E7 ; 2.014238322666431E7 ; 31892.000000000004
135 ; 84586.70872909912 ; 236381.5423200358 ; 1.1751870176630065E7 ; 2.0377566778986476E7 ; 32130.000000000004
136 ; 83573.75385347696 ; 237576.43735884648 ; 1.1836456885359164E7 ; 2.061394832130651E7 ; 32368.000000000004
137 ; 82396.29987031977 ; 238768.21258390564 ; 1.1920030639212642E7 ; 2.0851524758665357E7 ; 32606.000000000004
138 ; 81491.43196282435 ; 239956.84326390317 ; 1.2002426939082962E7 ; 2.1090292971249264E7 ; 32844.00000000001
139 ; 80802.69776865377 ; 241142.3047889566 ; 1.2083918371045785E7 ; 2.1330249814513166E7 ; 33082.00000000001
140 ; 80125.48209744453 ; 242324.5726687626 ; 1.216472106881444E7 ; 2.1571392119302124E7 ; 33320.00000000001
141 ; 78376.63816930914 ; 243503.62253085044 ; 1.2244846550911885E7 ; 2.1813716691970885E7 ; 33558.00000000001
142 ; 77351.58135239528 ; 244679.43011893218 ; 1.2323223189081194E7 ; 2.2057220314501736E7 ; 33796.00000000001
143 ; 76650.28128632811 ; 245851.97129134412 ; 1.240057477043359E7 ; 2.230189974462067E7 ; 34034.00000000001
144 ; 75260.02667934397 ; 247021.22201957522 ; 1.2477225051719919E7 ; 2.2547751715912014E7 ; 34272.00000000001
145 ; 74982.42425628063 ; 248187.1583868776 ; 1.2552485078399263E7 ; 2.279477293793159E7 ; 34510.00000000001
146 ; 74770.06135860395 ; 249349.75658695522 ; 1.2627467502655543E7 ; 2.304296009631847E7 ; 34748.00000000001
147 ; 74066.60024087246 ; 250508.99292272617 ; 1.2702237564014148E7 ; 2.3292309852905422E7 ; 34986.00000000001
148 ; 74262.13091817239 ; 251664.84380515575 ; 1.2776304164255021E7 ; 2.354281884582815E7 ; 35224.00000000001
149 ; 73702.19306314638 ; 252817.28575215559 ; 1.2850566295173194E7 ; 2.3794483689633306E7 ; 35462.00000000001
150 ; 73478.18643650209 ; 253966.29538754642 ; 1.292426848823634E7 ; 2.404730097538546E7 ; 35700.00000000001
151 ; 73565.32891517317 ; 255111.8494400808 ; 1.2997746674672842E7 ; 2.430126727077301E7 ; 35938.00000000001
152 ; 72982.19561447481 ; 256253.92474252338 ; 1.3071312003588015E7 ; 2.4556379120213088E7 ; 36176.00000000001
153 ; 72867.50182928493 ; 257392.49823078455 ; 1.314429419920249E7 ; 2.481263304495561E7 ; 36414.00000000001
154 ; 72540.13028149524 ; 258527.54694310672 ; 1.3217161701031774E7 ; 2.5070025543186396E7 ; 36652.00000000001
155 ; 72316.96678791252 ; 259659.04801929902 ; 1.328970183131327E7 ; 2.5328553090129502E7 ; 36890.00000000001
156 ; 71554.08839888938 ; 260786.9787000191 ; 1.3362018798101181E7 ; 2.55882121381488E7 ; 37128.00000000001
157 ; 71893.74055593976 ; 261911.3163260988 ; 1.343357288650007E7 ; 2.584899911684882E7 ; 37366.00000000001
158 ; 71774.37043979214 ; 263032.0383379127 ; 1.350546662705601E7 ; 2.611091043317492E7 ; 37604.00000000001
159 ; 70791.88738128458 ; 264149.1222747867 ; 1.3577240997495802E7 ; 2.637394247151283E7 ; 37842.00000000001
160 ; 70632.68660562967 ; 265262.5457744447 ; 1.3648032884877088E7 ; 2.6638091593787618E7 ; 38080.00000000001
161 ; 70388.34294945838 ; 266372.286572492 ; 1.3718665571482718E7 ; 2.6903354139562063E7 ; 38318.00000000001
162 ; 70141.42261544103 ; 267478.32250193326 ; 1.3789053914432175E7 ; 2.7169726426134557E7 ; 38556.00000000001
163 ; 69761.83653239578 ; 268580.6314927242 ; 1.3859195337047616E7 ; 2.743720474863649E7 ; 38794.00000000001
164 ; 69097.80524082681 ; 269679.19157135364 ; 1.3928957173580011E7 ; 2.7705785380129214E7 ; 39032.00000000001
165 ; 68650.38518670705 ; 270773.980860457 ; 1.3998054978820838E7 ; 2.797546457170057E7 ; 39270.00000000001
166 ; 68634.00048759519 ; 271864.9775784575 ; 1.4066705364007546E7 ; 2.8246238552561026E7 ; 39508.00000000001
167 ; 68582.66076341452 ; 272952.16003923514 ; 1.4135339364495141E7 ; 2.8518103530139484E7 ; 39746.00000000001
168 ; 67817.90104732935 ; 274035.50665182155 ; 1.4203922025258556E7 ; 2.879105569017872E7 ; 39984.00000000001
169 ; 67579.8076569481 ; 275114.9959201199 ; 1.4271739926305884E7 ; 2.906509119683054E7 ; 40222.00000000001
170 ; 67091.49984116443 ; 276190.6064426485 ; 1.4339319733962832E7 ; 2.9340206192750663E7 ; 40460.00000000001
171 ; 66305.4364092031 ; 277262.3169123067 ; 1.4406411233803997E7 ; 2.961639679919331E7 ; 40698.00000000001
172 ; 65932.37925160896 ; 278330.106116163 ; 1.44727166702132E7 ; 2.989365911610562E7 ; 40936.00000000001
173 ; 66037.16472808385 ; 279393.9529352632 ; 1.4538649049464809E7 ; 3.0171989222221784E7 ; 41174.00000000001
174 ; 66611.04768103227 ; 280453.8363444586 ; 1.4604686214192893E7 ; 3.0451383175157048E7 ; 41412.00000000001
175 ; 66087.87950145267 ; 281509.73541225283 ; 1.4671297261873925E7 ; 3.0731837011501506E7 ; 41650.00000000001
176 ; 66343.91060731237 ; 282561.6293006664 ; 1.4737385141375378E7 ; 3.1013346746913757E7 ; 41888.00000000001
177 ; 66962.59016936102 ; 283609.49726511876 ; 1.480372905198269E7 ; 3.1295908376214422E7 ; 42126.00000000001
178 ; 66764.02053590835 ; 284653.3186543265 ; 1.487069164215205E7 ; 3.157951787347954E7 ; 42364.00000000001
179 ; 66615.3442908313 ; 285693.0729102172 ; 1.493745566268796E7 ; 3.1864171192133866E7 ; 42602.00000000001
180 ; 67136.94053315543 ; 286728.7395678581 ; 1.5004071006978791E7 ; 3.2149864265044082E7 ; 42840.00000000001
181 ; 67504.13676395384 ; 287760.29825539875 ; 1.5071207947511947E7 ; 3.243659300461194E7 ; 43078.00000000001
182 ; 67818.2546945136 ; 288787.728694028 ; 1.5138712084275901E7 ; 3.2724353302867338E7 ; 43316.00000000001
