CSV File for the Network on Day 159
1 - Minute m 
2 - Power Consumed at minute m 
3 - Power Produced at minute m 
4 - Energy Consumed since the beginning of the day 
5 - Energy Produced since the beginning of the day 
6 - Energy Lost since the beginning of the day 
 
No Production city : 2, Producer : 1
No Production city : 4, Producer : 1
No Production city : 4, Producer : 1
 
0 ; 41999.752745936785 ; 160584.4480199426 ; 0.0 ; 0.0 ; 0.0
1 ; 43784.88371297607 ; 160241.54277828438 ; 41999.752745936785 ; 160584.4480199426 ; 238.00000000000003
2 ; 45007.05306060117 ; 159933.59398919248 ; 85784.63645891286 ; 320825.99079822697 ; 476.00000000000006
3 ; 46248.45790663462 ; 159660.97238830727 ; 130791.68951951404 ; 480759.5847874194 ; 714.0000000000001
4 ; 47369.690295846915 ; 159424.0102224693 ; 177040.14742614864 ; 640420.5571757266 ; 952.0000000000001
5 ; 49183.23958629147 ; 159222.99940840525 ; 224409.83772199554 ; 799844.567398196 ; 1190.0000000000002
6 ; 50251.99624344936 ; 159058.18988396725 ; 273593.07730828703 ; 959067.5668066012 ; 1428.0000000000002
7 ; 51200.62953300126 ; 158929.78817334745 ; 323845.07355173636 ; 1118125.7566905685 ; 1666.0000000000002
8 ; 52899.449164335616 ; 158837.95618534888 ; 375045.70308473764 ; 1277055.544863916 ; 1904.0000000000002
9 ; 54196.63308686967 ; 158782.8102610013 ; 427945.15224907326 ; 1435893.5010492648 ; 2142.0000000000005
10 ; 55227.05473476556 ; 158764.4204836327 ; 482141.7853359429 ; 1594676.3113102661 ; 2380.0000000000005
11 ; 56409.911174022716 ; 158782.8102610013 ; 537368.8400707085 ; 1753440.7317938989 ; 2618.0000000000005
12 ; 57555.00463444292 ; 158837.95618534888 ; 593778.7512447312 ; 1912223.5420549002 ; 2856.0000000000005
13 ; 58598.57663914197 ; 158929.78817334745 ; 651333.7558791742 ; 2071061.498240249 ; 3094.0000000000005
14 ; 60084.33443106 ; 159058.18988396725 ; 709932.3325183162 ; 2229991.2864135965 ; 3332.0000000000005
15 ; 61306.768960010275 ; 159222.99940840525 ; 770016.6669493762 ; 2389049.476297564 ; 3570.0000000000005
16 ; 62737.1630829582 ; 159424.0102224693 ; 831323.4359093865 ; 2548272.475705969 ; 3808.0000000000005
17 ; 63263.25723738559 ; 159660.97238830727 ; 894060.5989923447 ; 2707696.4859284386 ; 4046.0000000000005
18 ; 64870.85958760087 ; 159933.59398919248 ; 957323.8562297303 ; 2867357.4583167457 ; 4284.000000000001
19 ; 65902.02109451457 ; 160241.54277828438 ; 1022194.7158173312 ; 3027291.052305938 ; 4522.000000000001
20 ; 67332.6737714288 ; 160584.44801994268 ; 1088096.7369118459 ; 3187532.5950842225 ; 4760.000000000001
21 ; 67878.16660389146 ; 160961.90250032244 ; 1155429.4106832747 ; 3348117.0431041652 ; 4998.000000000001
22 ; 68916.66332630186 ; 161373.4646826307 ; 1223307.5772871661 ; 3509078.945604488 ; 5236.000000000001
23 ; 70075.50317351124 ; 161818.66098160154 ; 1292224.240613468 ; 3670452.4102871185 ; 5474.000000000001
24 ; 70936.60958355137 ; 162296.9881314225 ; 1362299.7437869792 ; 3832271.07126872 ; 5712.000000000001
25 ; 72086.48704856196 ; 162807.91562150765 ; 1433236.3533705305 ; 3994568.0594001426 ; 5950.000000000001
26 ; 72898.728039496 ; 163350.8881751132 ; 1505322.8404190924 ; 4157375.97502165 ; 6188.000000000001
27 ; 73475.79194191031 ; 163925.32824679845 ; 1578221.5684585883 ; 4320726.863196763 ; 6426.000000000001
28 ; 74573.9695832291 ; 164530.63851607052 ; 1651697.3604004986 ; 4484652.191443562 ; 6664.000000000001
29 ; 75799.74031792306 ; 165166.2043561876 ; 1726271.3299837278 ; 4649182.829959632 ; 6902.000000000001
30 ; 77153.21276922456 ; 165831.3962589351 ; 1802071.0703016508 ; 4814349.03431582 ; 7140.000000000001
31 ; 77211.62025063811 ; 166525.5721982055 ; 1879224.2830708753 ; 4980180.430574755 ; 7378.000000000001
32 ; 78450.69828969895 ; 167248.07991731842 ; 1956435.9033215134 ; 5146706.002772961 ; 7616.000000000001
33 ; 79067.9844223014 ; 167998.25912717474 ; 2034886.6016112124 ; 5313954.082690279 ; 7854.000000000001
34 ; 80701.97474903171 ; 168775.44360449206 ; 2113954.586033514 ; 5481952.3418174535 ; 8092.000000000001
35 ; 81217.32081624964 ; 169578.9631814699 ; 2194656.5607825452 ; 5650727.785421945 ; 8330.000000000002
36 ; 81972.33841784458 ; 170408.1456202556 ; 2275873.881598795 ; 5820306.748603415 ; 8568.000000000002
37 ; 82680.2918483328 ; 171262.3183674803 ; 2357846.220016639 ; 5990714.8942236705 ; 8806.000000000002
38 ; 83216.2101597754 ; 172140.8101859057 ; 2440526.511864972 ; 6161977.212591151 ; 9044.000000000002
39 ; 84345.90205626549 ; 173042.95266182633 ; 2523742.722024747 ; 6334118.022777056 ; 9282.000000000002
40 ; 85159.72498926052 ; 173968.08158831915 ; 2608088.624081013 ; 6507160.975438883 ; 9520.000000000002
41 ; 85934.97673436729 ; 174915.53822570463 ; 2693248.3490702733 ; 6681129.057027202 ; 9758.000000000002
42 ; 86019.70954558467 ; 175884.67044168222 ; 2779183.3258046405 ; 6856044.595252907 ; 9996.000000000002
43 ; 86872.12937879124 ; 176874.8337345415 ; 2865203.0353502254 ; 7031929.265694589 ; 10234.000000000002
44 ; 87650.21647045505 ; 177885.3921436153 ; 2952075.164729017 ; 7208804.099429131 ; 10472.000000000002
45 ; 88566.65457708757 ; 178915.71905176813 ; 3039725.3811994717 ; 7386689.491572746 ; 10710.000000000002
46 ; 88875.75471777271 ; 179965.19788518627 ; 3128292.0357765593 ; 7565605.210624514 ; 10948.000000000002
47 ; 89480.9687504339 ; 181033.22271609062 ; 3217167.790494332 ; 7745570.408509701 ; 11186.000000000002
48 ; 90244.93768745476 ; 182119.1987742255 ; 3306648.759244766 ; 7926603.631225791 ; 11424.000000000002
49 ; 90852.80570418891 ; 183222.54287310925 ; 3396893.696932221 ; 8108722.830000016 ; 11662.000000000002
50 ; 91131.47585227512 ; 184342.68375707924 ; 3487746.50263641 ; 8291945.372873126 ; 11900.000000000002
51 ; 91999.29799686628 ; 185479.06237512294 ; 3578877.978488685 ; 8476288.056630205 ; 12138.000000000002
52 ; 92776.95108299408 ; 186631.13208739817 ; 3670877.276485551 ; 8661767.119005328 ; 12376.000000000002
53 ; 93053.81095237564 ; 187798.3588101867 ; 3763654.2275685454 ; 8848398.251092726 ; 12614.000000000002
54 ; 93772.35863369805 ; 188980.2211048358 ; 3856708.038520921 ; 9036196.609902913 ; 12852.000000000002
55 ; 94354.6494582618 ; 190176.21021601363 ; 3950480.397154619 ; 9225176.831007749 ; 13090.000000000002
56 ; 94673.90347617432 ; 191385.83006435138 ; 4044835.0466128807 ; 9415353.041223763 ; 13328.000000000002
57 ; 95599.3704016132 ; 192608.5971982749 ; 4139508.950089055 ; 9606738.871288113 ; 13566.000000000002
58 ; 95248.23092803218 ; 193844.04070954592 ; 4235108.3204906685 ; 9799347.468486387 ; 13804.000000000002
59 ; 96698.84541901656 ; 195091.7021167471 ; 4330356.5514187 ; 9993191.509195933 ; 14042.000000000002
60 ; 96420.5443046906 ; 196351.1352206523 ; 4427055.396837717 ; 1.018828321131268E7 ; 14280.000000000002
61 ; 96985.09567400871 ; 197621.90593514108 ; 4523475.941142407 ; 1.0384634346533332E7 ; 14518.000000000002
62 ; 97770.53089843449 ; 198903.5920970317 ; 4620461.036816416 ; 1.0582256252468472E7 ; 14756.000000000002
63 ; 97927.08889387982 ; 200195.7832579374 ; 4718231.56771485 ; 1.0781159844565503E7 ; 14994.000000000002
64 ; 98523.34757125538 ; 201498.0804609845 ; 4816158.656608731 ; 1.098135562782344E7 ; 15232.000000000002
65 ; 98048.00246818505 ; 202810.09600498434 ; 4914682.004179986 ; 1.1182853708284425E7 ; 15470.000000000002
66 ; 98734.27446811924 ; 204131.45319840836 ; 5012730.006648172 ; 1.1385663804289408E7 ; 15708.000000000002
67 ; 99345.17823358439 ; 205461.78610529314 ; 5111464.281116291 ; 1.1589795257487817E7 ; 15946.000000000002
68 ; 99631.42767753213 ; 206800.7392849914 ; 5210809.459349875 ; 1.179525704359311E7 ; 16184.000000000002
69 ; 100062.42029160525 ; 208147.96752748435 ; 5310440.887027407 ; 1.2002057782878103E7 ; 16422.000000000004
70 ; 99715.23144921004 ; 209503.13558579166 ; 5410503.3073190125 ; 1.2210205750405587E7 ; 16660.000000000004
71 ; 100386.13863325672 ; 210865.91790684056 ; 5510218.538768223 ; 1.241970888599138E7 ; 16898.000000000004
72 ; 100920.14866997296 ; 212235.99836200126 ; 5610604.677401479 ; 1.263057480389822E7 ; 17136.000000000004
73 ; 100991.74761649431 ; 213613.069978351 ; 5711524.826071452 ; 1.2842810802260222E7 ; 17374.000000000004
74 ; 100682.6598078237 ; 214996.83467159624 ; 5812516.573687946 ; 1.3056423872238573E7 ; 17612.000000000004
75 ; 100470.1663560323 ; 216387.00298146048 ; 5913199.23349577 ; 1.3271420706910169E7 ; 17850.000000000004
76 ; 100823.43269434858 ; 217783.29381023836 ; 6013669.399851803 ; 1.3487807709891628E7 ; 18088.000000000004
77 ; 101776.5501297747 ; 219185.43416511227 ; 6114492.832546151 ; 1.3705591003701868E7 ; 18326.000000000004
78 ; 101560.31539730255 ; 220593.1589047425 ; 6216269.382675926 ; 1.392477643786698E7 ; 18564.000000000004
79 ; 101582.0657033324 ; 222006.21049055492 ; 6317829.698073229 ; 1.4145369596771723E7 ; 18802.000000000004
80 ; 102319.37769879098 ; 223424.3387430823 ; 6419411.763776561 ; 1.4367375807262277E7 ; 19040.000000000004
81 ; 101638.63413424455 ; 224847.3006036448 ; 6521731.141475352 ; 1.459080014600536E7 ; 19278.000000000004
82 ; 102119.52492725482 ; 226274.85990160052 ; 6623369.775609597 ; 1.4815647446609005E7 ; 19516.000000000004
83 ; 102070.61591054905 ; 227706.78712734184 ; 6725489.300536851 ; 1.5041922306510605E7 ; 19754.000000000004
84 ; 101961.22555518724 ; 229142.859211169 ; 6827559.9164474 ; 1.5269629093637947E7 ; 19992.000000000004
85 ; 102613.99946313635 ; 230582.85930812918 ; 6929521.142002587 ; 1.5498771952849116E7 ; 20230.000000000004
86 ; 102029.80153926884 ; 232026.57658887573 ; 7032135.1414657235 ; 1.5729354812157245E7 ; 20468.000000000004
87 ; 102046.03104952094 ; 233473.8060365683 ; 7134164.943004993 ; 1.5961381388746122E7 ; 20706.000000000004
88 ; 102487.53663915757 ; 234924.3482498079 ; 7236210.9740545135 ; 1.6194855194782691E7 ; 20944.000000000004
89 ; 102366.73254665367 ; 236378.00925157825 ; 7338698.510693671 ; 1.6429779543032499E7 ; 21182.000000000004
90 ; 102355.55344277743 ; 237834.60030414065 ; 7441065.243240325 ; 1.6666157552284077E7 ; 21420.000000000004
91 ; 102410.63710106126 ; 239293.9377298153 ; 7543420.796683102 ; 1.690399215258822E7 ; 21658.000000000004
92 ; 101893.03940613996 ; 240755.8427375654 ; 7645831.433784164 ; 1.7143286090318035E7 ; 21896.000000000004
93 ; 101991.76359010949 ; 242220.14125528658 ; 7747724.473190304 ; 1.7384041933055602E7 ; 22134.000000000004
94 ; 101673.6433582748 ; 243686.66376769607 ; 7849716.236780413 ; 1.7626262074310888E7 ; 22372.000000000004
95 ; 101976.54728228936 ; 245155.24515970453 ; 7951389.880138688 ; 1.7869948738078583E7 ; 22610.000000000004
96 ; 102091.53802387422 ; 246625.72456514853 ; 8053366.4274209775 ; 1.8115103983238287E7 ; 22848.000000000004
97 ; 101568.47497917266 ; 248097.94522075471 ; 8155457.965444852 ; 1.8361729707803436E7 ; 23086.000000000004
98 ; 101249.59531239273 ; 249571.75432520284 ; 8257026.440424024 ; 1.860982765302419E7 ; 23324.000000000004
99 ; 101100.63102351432 ; 251047.00290315208 ; 8358276.0357364165 ; 1.8859399407349393E7 ; 23562.000000000004
100 ; 100638.80790230048 ; 252523.54567409266 ; 8459376.66675993 ; 1.9110446410252545E7 ; 23800.000000000004
101 ; 100395.99923491772 ; 254001.24092588265 ; 8560015.474662231 ; 1.9362969955926638E7 ; 24038.000000000004
102 ; 100517.83711728145 ; 255479.95039283123 ; 8660411.47389715 ; 1.961697119685252E7 ; 24276.000000000004
103 ; 100203.64872759441 ; 256959.53913818847 ; 8760929.31101443 ; 1.987245114724535E7 ; 24514.000000000004
104 ; 99689.300781867 ; 258439.8754409023 ; 8861132.959742025 ; 2.0129410686383538E7 ; 24752.000000000004
105 ; 99703.2197336813 ; 259920.83068650658 ; 8960822.260523891 ; 2.038785056182444E7 ; 24990.000000000004
106 ; 99197.33124509125 ; 261402.27926200262 ; 9060525.480257573 ; 2.0647771392510947E7 ; 25228.000000000004
107 ; 99195.77243505654 ; 262884.0984546023 ; 9159722.811502663 ; 2.090917367177295E7 ; 25466.000000000004
108 ; 98489.49853016497 ; 264366.16835419973 ; 9258918.58393772 ; 2.117205777022755E7 ; 25704.000000000004
109 ; 98405.33938056567 ; 265848.37175944436 ; 9357408.082467884 ; 2.143642393858175E7 ; 25942.000000000004
110 ; 98064.13566739875 ; 267330.5940872875 ; 9455813.42184845 ; 2.1702272310341194E7 ; 26180.000000000004
111 ; 97533.3943525662 ; 268812.72328588145 ; 9553877.557515848 ; 2.1969602904428482E7 ; 26418.000000000004
112 ; 97289.13533108521 ; 270294.64975070953 ; 9651410.951868415 ; 2.2238415627714362E7 ; 26656.000000000004
113 ; 96981.43520849988 ; 271776.2662438314 ; 9748700.0871995 ; 2.250871027746507E7 ; 26894.000000000004
114 ; 96427.79631881832 ; 273257.4678161288 ; 9845681.522408 ; 2.27804865437089E7 ; 27132.000000000004
115 ; 96529.51734580178 ; 274738.15173244395 ; 9942109.318726817 ; 2.305374401152503E7 ; 27370.000000000004
116 ; 95859.37328149303 ; 276218.2173995003 ; 1.0038638836072618E7 ; 2.3328482163257476E7 ; 27608.000000000004
117 ; 94902.23573675635 ; 277697.56629650516 ; 1.0134498209354112E7 ; 2.3604700380656976E7 ; 27846.000000000004
118 ; 94332.45204959628 ; 279176.1019083318 ; 1.0229400445090868E7 ; 2.3882397946953483E7 ; 28084.000000000004
119 ; 94250.06249655191 ; 280653.7296611852 ; 1.0323732897140464E7 ; 2.4161574048861817E7 ; 28322.000000000004
120 ; 93340.11278824287 ; 282130.35686065664 ; 1.0417982959637016E7 ; 2.4442227778523E7 ; 28560.000000000004
121 ; 93133.09053865274 ; 283605.8926320778 ; 1.051132307242526E7 ; 2.4724358135383658E7 ; 28798.000000000004
122 ; 92159.65224814453 ; 285080.24786308553 ; 1.0604456162963912E7 ; 2.5007964028015736E7 ; 29036.000000000004
123 ; 91684.91872821438 ; 286553.3351483141 ; 1.0696615815212056E7 ; 2.529304427587882E7 ; 29274.000000000004
124 ; 91172.90809052248 ; 288025.06873613235 ; 1.078830073394027E7 ; 2.5579597611027136E7 ; 29512.000000000004
125 ; 90369.00441856649 ; 289495.364477349 ; 1.0879473642030792E7 ; 2.586762267976327E7 ; 29750.000000000004
126 ; 89705.00239842854 ; 290964.1397758084 ; 1.096984264644936E7 ; 2.6157118044240616E7 ; 29988.000000000004
127 ; 89092.08622842112 ; 292431.31354080606 ; 1.1059547648847789E7 ; 2.6448082184016425E7 ; 30226.000000000004
128 ; 88609.56462541936 ; 293896.8061412527 ; 1.114863973507621E7 ; 2.674051349755723E7 ; 30464.000000000004
129 ; 87860.12913603318 ; 295360.53936151933 ; 1.123724929970163E7 ; 2.7034410303698484E7 ; 30702.000000000004
130 ; 86913.32543311932 ; 296822.43635889934 ; 1.1325109428837663E7 ; 2.732977084306E7 ; 30940.000000000004
131 ; 86225.17511179678 ; 298282.42162262485 ; 1.1412022754270783E7 ; 2.76265932794189E7 ; 31178.000000000004
132 ; 85675.77638420036 ; 299740.4209343767 ; 1.149824792938258E7 ; 2.7924875701041527E7 ; 31416.000000000004
133 ; 85265.01490158014 ; 301196.3613302319 ; 1.158392370576678E7 ; 2.8224616121975902E7 ; 31654.000000000004
134 ; 84086.11470334936 ; 302650.17106399103 ; 1.166918872066836E7 ; 2.8525812483306136E7 ; 31892.000000000004
135 ; 83340.32348410109 ; 304101.779571835 ; 1.175327483537171E7 ; 2.8828462654370125E7 ; 32130.000000000004
136 ; 82554.76841872848 ; 305551.11743825773 ; 1.183661515885581E7 ; 2.913256443394196E7 ; 32368.000000000004
137 ; 82007.91686662978 ; 306998.1163632259 ; 1.191916992727454E7 ; 2.9438115551380217E7 ; 32606.000000000004
138 ; 81299.6749544362 ; 308442.7091305205 ; 1.200117784414117E7 ; 2.9745113667743444E7 ; 32844.00000000001
139 ; 80498.80312801499 ; 309884.8295772126 ; 1.2082477519095607E7 ; 3.0053556376873966E7 ; 33082.00000000001
140 ; 79093.82105539776 ; 311324.4125642302 ; 1.2162976322223622E7 ; 3.0363441206451178E7 ; 33320.00000000001
141 ; 78389.3758876787 ; 312761.39394797594 ; 1.224207014327902E7 ; 3.0674765619015407E7 ; 33558.00000000001
142 ; 77730.81937176459 ; 314195.71055295324 ; 1.2320459519166699E7 ; 3.0987527012963384E7 ; 33796.00000000001
143 ; 77309.55607804813 ; 315627.30014536425 ; 1.2398190338538464E7 ; 3.1301722723516338E7 ; 34034.00000000001
144 ; 75950.64005330707 ; 317056.10140764114 ; 1.2475499894616513E7 ; 3.1617350023661703E7 ; 34272.00000000001
145 ; 76093.84290114473 ; 318482.0539138761 ; 1.255145053466982E7 ; 3.1934406125069343E7 ; 34510.00000000001
146 ; 75710.00768593415 ; 319905.098106116 ; 1.2627544377570964E7 ; 3.225288817898322E7 ; 34748.00000000001
147 ; 75275.81074010744 ; 321325.17527148756 ; 1.2703254385256898E7 ; 3.2572793277089335E7 ; 34986.00000000001
148 ; 75098.82357290795 ; 322742.227520124 ; 1.2778530195997005E7 ; 3.2894118452360824E7 ; 35224.00000000001
149 ; 75008.90555250202 ; 324156.19776386034 ; 1.2853629019569913E7 ; 3.3216860679880947E7 ; 35462.00000000001
150 ; 75063.51399764583 ; 325567.0296956704 ; 1.2928637925122416E7 ; 3.3541016877644807E7 ; 35700.00000000001
151 ; 74561.13999416027 ; 326974.6677698166 ; 1.3003701439120062E7 ; 3.3866583907340474E7 ; 35938.00000000001
152 ; 74089.21386396098 ; 328379.0571826862 ; 1.3078262579114221E7 ; 3.4193558575110294E7 ; 36176.00000000001
153 ; 73781.77078147422 ; 329780.14385428815 ; 1.3152351792978182E7 ; 3.452193763229298E7 ; 36414.00000000001
154 ; 73902.90823310026 ; 331177.8744103859 ; 1.3226133563759657E7 ; 3.485171777614727E7 ; 36652.00000000001
155 ; 73125.79612983145 ; 332572.1961652431 ; 1.3300036471992757E7 ; 3.518289565055765E7 ; 36890.00000000001
156 ; 73235.3758411138 ; 333963.0571049585 ; 1.337316226812259E7 ; 3.551546784672289E7 ; 37128.00000000001
157 ; 72709.57009891124 ; 335350.4058713691 ; 1.3446397643963704E7 ; 3.584943090382785E7 ; 37366.00000000001
158 ; 72731.72139568257 ; 336734.1917464996 ; 1.3519107214062614E7 ; 3.618478130969922E7 ; 37604.00000000001
159 ; 72316.9958230463 ; 338114.36463753984 ; 1.3591838935458297E7 ; 3.6521515501445726E7 ; 37842.00000000001
160 ; 72290.1166614581 ; 339490.87506232865 ; 1.3664155931281343E7 ; 3.6859629866083264E7 ; 38080.00000000001
161 ; 71814.14389219043 ; 340863.674135327 ; 1.37364460479428E7 ; 3.7199120741145596E7 ; 38318.00000000001
162 ; 71789.35961893646 ; 342232.71355406224 ; 1.3808260191834992E7 ; 3.753998441528092E7 ; 38556.00000000001
163 ; 70958.42589935972 ; 343597.94558602676 ; 1.3880049551453928E7 ; 3.7882217128834985E7 ; 38794.00000000001
164 ; 70890.67088644794 ; 344959.32305601327 ; 1.3951007977353288E7 ; 3.822581507442101E7 ; 39032.00000000001
165 ; 70987.529012414 ; 346316.7993338725 ; 1.4021898648239736E7 ; 3.857077439747702E7 ; 39270.00000000001
166 ; 70092.01693570463 ; 347670.32832267723 ; 1.409288617725215E7 ; 3.891709119681089E7 ; 39508.00000000001
167 ; 70016.6068328733 ; 349019.86444727785 ; 1.4162978194187853E7 ; 3.926476152513357E7 ; 39746.00000000001
168 ; 69783.99985056973 ; 350365.3626432364 ; 1.4232994801020727E7 ; 3.961378138958085E7 ; 39984.00000000001
169 ; 69323.91185463467 ; 351706.7783461246 ; 1.4302778800871296E7 ; 3.996414675222409E7 ; 40222.00000000001
170 ; 69214.68142806081 ; 353044.067481173 ; 1.437210271272593E7 ; 4.031585353057021E7 ; 40460.00000000001
171 ; 69030.39109150771 ; 354377.1864532598 ; 1.444131739415399E7 ; 4.0668897598051384E7 ; 40698.00000000001
172 ; 68534.28941979042 ; 355706.0921372258 ; 1.4510347785245497E7 ; 4.1023274784504645E7 ; 40936.00000000001
173 ; 68258.46598549765 ; 357030.7418685056 ; 1.4578882074665288E7 ; 4.137898087664187E7 ; 41174.00000000001
174 ; 68214.34370946774 ; 358351.0934340621 ; 1.4647140540650785E7 ; 4.173601161851037E7 ; 41412.00000000001
175 ; 68433.18926238838 ; 359667.10506361554 ; 1.4715354884360252E7 ; 4.209436271194444E7 ; 41650.00000000001
176 ; 68255.55210613867 ; 360978.73542115564 ; 1.478378807362264E7 ; 4.2454029817008056E7 ; 41888.00000000001
177 ; 68761.66987307923 ; 362285.9435967267 ; 1.4852043625728779E7 ; 4.2815008552429214E7 ; 42126.00000000001
178 ; 69022.11864694327 ; 363588.68909847795 ; 1.4920805295601858E7 ; 4.317729449602594E7 ; 42364.00000000001
179 ; 69251.41117158925 ; 364886.93184496777 ; 1.4989827414248802E7 ; 4.354088318512442E7 ; 42602.00000000001
180 ; 69008.2388693571 ; 366180.6321577141 ; 1.505907882542039E7 ; 4.3905770116969384E7 ; 42840.00000000001
181 ; 69246.1695830067 ; 367469.7507539831 ; 1.5128087064289749E7 ; 4.42719507491271E7 ; 43078.00000000001
182 ; 69290.84776314301 ; 368754.2487398067 ; 1.5197333233872754E7 ; 4.463942049988108E7 ; 43316.00000000001
