CSV File for the Network on Day 122
1 - Minute m 
2 - Power Consumed at minute m 
3 - Power Produced at minute m 
4 - Energy Consumed since the beginning of the day 
5 - Energy Produced since the beginning of the day 
6 - Energy Lost since the beginning of the day 
 
No Production city : 2, Producer : 1
No Production city : 4, Producer : 1
No Production city : 4, Producer : 1
 
0 ; 62152.15664373265 ; 172551.19495032862 ; 0.0 ; 0.0 ; 0.0
1 ; 63119.12927367219 ; 172210.34237519186 ; 62152.15664373265 ; 172551.19495032862 ; 238.00000000000003
2 ; 64362.75353955794 ; 171904.31039254513 ; 125271.28591740484 ; 344761.5373255205 ; 476.00000000000006
3 ; 65262.2365274412 ; 171633.44419895887 ; 189634.03945696278 ; 516665.8477180656 ; 714.0000000000001
4 ; 66308.14096512592 ; 171398.05282065194 ; 254896.27598440397 ; 688299.2919170244 ; 952.0000000000001
5 ; 67355.57002461924 ; 171198.4075137109 ; 321204.4169495299 ; 859697.3447376763 ; 1190.0000000000002
6 ; 68554.39448036625 ; 171034.74033484905 ; 388559.9869741491 ; 1030895.7522513872 ; 1428.0000000000002
7 ; 69674.81046372355 ; 170907.24290007906 ; 457114.3814545154 ; 1201930.4925862362 ; 1666.0000000000002
8 ; 70662.79952538072 ; 170816.06534671533 ; 526789.191918239 ; 1372837.7354863153 ; 1904.0000000000002
9 ; 71487.80784964803 ; 170761.31551182532 ; 597451.9914436197 ; 1543653.8008330306 ; 2142.0000000000005
10 ; 72352.33189491421 ; 170743.05833766842 ; 668939.7992932678 ; 1714415.1163448559 ; 2380.0000000000005
11 ; 73100.0993143458 ; 170761.31551182532 ; 741292.1311881819 ; 1885158.1746825243 ; 2618.0000000000005
12 ; 74520.29791065943 ; 170816.06534671533 ; 814392.2305025277 ; 2055919.4901943495 ; 2856.0000000000005
13 ; 75035.24349468929 ; 170907.24290007906 ; 888912.5284131871 ; 2226735.555541065 ; 3094.0000000000005
14 ; 76177.23407812713 ; 171034.74033484893 ; 963947.7719078765 ; 2397642.798441144 ; 3332.0000000000005
15 ; 77002.96459241392 ; 171198.4075137109 ; 1040125.0059860037 ; 2568677.538775993 ; 3570.0000000000005
16 ; 78001.04236899654 ; 171398.05282065194 ; 1117127.9705784176 ; 2739875.946289704 ; 3808.0000000000005
17 ; 78459.19834453518 ; 171633.44419895875 ; 1195129.012947414 ; 2911273.999110356 ; 4046.0000000000005
18 ; 79488.78069443579 ; 171904.31039254513 ; 1273588.2112919493 ; 3082907.4433093145 ; 4284.000000000001
19 ; 80467.26920191833 ; 172210.34237519177 ; 1353076.991986385 ; 3254811.7537018596 ; 4522.000000000001
20 ; 81281.1728752561 ; 172551.19495032873 ; 1433544.2611883034 ; 3427022.0960770515 ; 4760.000000000001
21 ; 82164.67981243777 ; 172926.48850240698 ; 1514825.4340635594 ; 3599573.29102738 ; 4998.000000000001
22 ; 82265.90326548569 ; 173335.81087971386 ; 1596990.1138759973 ; 3772499.779529787 ; 5236.000000000001
23 ; 83555.8641176135 ; 173778.71938769144 ; 1679256.017141483 ; 3945835.590409501 ; 5474.000000000001
24 ; 84531.81273364625 ; 174254.7428714176 ; 1762811.8812590966 ; 4119614.3097971925 ; 5712.000000000001
25 ; 84925.75864819062 ; 174763.38386589236 ; 1847343.6939927428 ; 4293869.05266861 ; 5950.000000000001
26 ; 85739.03186535228 ; 175304.12079310528 ; 1932269.4526409335 ; 4468632.436534502 ; 6188.000000000001
27 ; 86532.70869657244 ; 175876.41018552048 ; 2018008.4845062857 ; 4643936.557327607 ; 6426.000000000001
28 ; 87194.84211486013 ; 176479.68891656277 ; 2104541.1932028583 ; 4819812.967513127 ; 6664.000000000001
29 ; 88129.6061321006 ; 177113.3764198739 ; 2191736.0353177185 ; 4996292.65642969 ; 6902.000000000001
30 ; 88933.73400327096 ; 177776.87688049418 ; 2279865.6414498193 ; 5173406.032849564 ; 7140.000000000001
31 ; 89746.28037346105 ; 178469.5813826623 ; 2368799.3754530903 ; 5351182.909730058 ; 7378.000000000001
32 ; 89682.28418586543 ; 179190.87000056784 ; 2458545.6558265514 ; 5529652.49111272 ; 7616.000000000001
33 ; 90820.41006972888 ; 179940.11382009898 ; 2548227.940012417 ; 5708843.361113288 ; 7854.000000000001
34 ; 91178.74280913969 ; 180716.67688135407 ; 2639048.3500821455 ; 5888783.474933388 ; 8092.000000000001
35 ; 91742.06542757986 ; 181519.91803340623 ; 2730227.092891285 ; 6069500.151814742 ; 8330.000000000002
36 ; 92390.53116436373 ; 182349.19269447852 ; 2821969.158318865 ; 6251020.069848148 ; 8568.000000000002
37 ; 92979.36435667977 ; 183203.85451229004 ; 2914359.689483229 ; 6433369.262542627 ; 8806.000000000002
38 ; 93544.46173781539 ; 184083.25692084135 ; 3007339.053839909 ; 6616573.117054917 ; 9044.000000000002
39 ; 93775.77677204896 ; 184986.75459130848 ; 3100883.515577724 ; 6800656.373975758 ; 9282.000000000002
40 ; 94498.6087707532 ; 185913.70477599296 ; 3194659.292349773 ; 6985643.128567067 ; 9520.000000000002
41 ; 94982.08848386291 ; 186863.46854542464 ; 3289157.9011205263 ; 7171556.83334306 ; 9758.000000000002
42 ; 95631.65596724993 ; 187835.41191973496 ; 3384139.9896043893 ; 7358420.3018884845 ; 9996.000000000002
43 ; 95834.40814095044 ; 188828.9068963033 ; 3479771.6455716393 ; 7546255.71380822 ; 10234.000000000002
44 ; 96050.95650879237 ; 189843.33237643135 ; 3575606.0537125897 ; 7735084.620704523 ; 10472.000000000002
45 ; 96465.39860634197 ; 190878.07499443908 ; 3671657.010221382 ; 7924927.953080955 ; 10710.000000000002
46 ; 96992.93445779287 ; 191932.52985308072 ; 3768122.408827724 ; 8115806.028075394 ; 10948.000000000002
47 ; 97429.64811774067 ; 193006.10116958548 ; 3865115.343285517 ; 8307738.557928475 ; 11186.000000000002
48 ; 98075.26071797388 ; 194098.20283692988 ; 3962544.9914032575 ; 8500744.65909806 ; 11424.000000000002
49 ; 98341.70601703125 ; 195208.2589051541 ; 4060620.2521212315 ; 8694842.861934992 ; 11662.000000000002
50 ; 98242.83274913399 ; 196335.70398766865 ; 4158961.958138263 ; 8890051.120840145 ; 11900.000000000002
51 ; 98663.4258758756 ; 197479.98359754676 ; 4257204.790887397 ; 9086386.824827814 ; 12138.000000000002
52 ; 99578.53561267076 ; 198640.55441879894 ; 4355868.216763272 ; 9283866.808425361 ; 12376.000000000002
53 ; 100136.98457925348 ; 199816.88451756083 ; 4455446.752375943 ; 9482507.36284416 ; 12614.000000000002
54 ; 99830.0295043668 ; 201008.45349802476 ; 4555583.736955196 ; 9682324.247361721 ; 12852.000000000002
55 ; 100746.87899279602 ; 202214.7526078049 ; 4655413.766459563 ; 9883332.700859746 ; 13090.000000000002
56 ; 101053.04489293725 ; 203435.28479725425 ; 4756160.645452359 ; 1.0085547453467552E7 ; 13328.000000000002
57 ; 101053.5071400845 ; 204669.56473706235 ; 4857213.690345296 ; 1.0288982738264807E7 ; 13566.000000000002
58 ; 101479.37778952555 ; 205917.11879824995 ; 4958267.19748538 ; 1.049365230300187E7 ; 13804.000000000002
59 ; 101558.49865755899 ; 207177.48499846054 ; 5059746.575274905 ; 1.069956942180012E7 ; 14042.000000000002
60 ; 102376.32034051123 ; 208450.21291821616 ; 5161305.073932464 ; 1.090674690679858E7 ; 14280.000000000002
61 ; 102683.61666330766 ; 209734.86359057768 ; 5263681.394272976 ; 1.1115197119716797E7 ; 14518.000000000002
62 ; 102625.93736812586 ; 211031.00936741647 ; 5366365.0109362835 ; 1.1324931983307375E7 ; 14756.000000000002
63 ; 103457.88698424042 ; 212338.23376527603 ; 5468990.948304409 ; 1.153596299267479E7 ; 14994.000000000002
64 ; 103217.92472862516 ; 213656.13129358055 ; 5572448.835288649 ; 1.1748301226440066E7 ; 15232.000000000002
65 ; 103545.5902417378 ; 214984.30726772713 ; 5675666.760017275 ; 1.1961957357733646E7 ; 15470.000000000002
66 ; 103721.49409627667 ; 216322.37760939336 ; 5779212.350259013 ; 1.2176941665001374E7 ; 15708.000000000002
67 ; 103831.86591725593 ; 217669.96863618918 ; 5882933.844355289 ; 1.2393264042610766E7 ; 15946.000000000002
68 ; 103734.3762042282 ; 219026.71684259333 ; 5986765.710272545 ; 1.2610934011246955E7 ; 16184.000000000002
69 ; 103953.43950151405 ; 220392.26867393585 ; 6090500.086476773 ; 1.2829960728089549E7 ; 16422.000000000004
70 ; 104463.17313388639 ; 221766.28029501735 ; 6194453.525978287 ; 1.3050352996763485E7 ; 16660.000000000004
71 ; 104374.70940144062 ; 223148.41735479835 ; 6298916.699112173 ; 1.3272119277058503E7 ; 16898.000000000004
72 ; 104510.33067351725 ; 224538.3547484451 ; 6403291.408513614 ; 1.34952676944133E7 ; 17136.000000000004
73 ; 104767.61148064419 ; 225935.77637787868 ; 6507801.739187132 ; 1.3719806049161745E7 ; 17374.000000000004
74 ; 104479.27705587931 ; 227340.3749118501 ; 6612569.350667776 ; 1.3945741825539624E7 ; 17612.000000000004
75 ; 104790.52595353752 ; 228751.85154644397 ; 6717048.627723655 ; 1.4173082200451475E7 ; 17850.000000000004
76 ; 104321.74930951424 ; 230169.91576680678 ; 6821839.1536771925 ; 1.4401834051997919E7 ; 18088.000000000004
77 ; 104769.09282343395 ; 231594.28511079712 ; 6926160.902986707 ; 1.4632003967764726E7 ; 18326.000000000004
78 ; 105402.2915877915 ; 233024.68493516426 ; 7030929.995810141 ; 1.4863598252875524E7 ; 18564.000000000004
79 ; 105197.02460619598 ; 234460.8481847782 ; 7136332.287397932 ; 1.5096622937810687E7 ; 18802.000000000004
80 ; 105114.36289322644 ; 235902.5151653618 ; 7241529.3120041285 ; 1.5331083785995465E7 ; 19040.000000000004
81 ; 105200.07378581053 ; 237349.43332010423 ; 7346643.674897355 ; 1.5566986301160827E7 ; 19278.000000000004
82 ; 105159.32388909606 ; 238801.35701047722 ; 7451843.748683166 ; 1.5804335734480932E7 ; 19516.000000000004
83 ; 104526.97417762475 ; 240258.04730151757 ; 7557003.072572262 ; 1.6043137091491409E7 ; 19754.000000000004
84 ; 105005.64442251119 ; 241719.27175179083 ; 7661530.046749887 ; 1.6283395138792926E7 ; 19992.000000000004
85 ; 105163.00463769365 ; 243184.80420820703 ; 7766535.691172399 ; 1.6525114410544718E7 ; 20230.000000000004
86 ; 105144.45218515089 ; 244654.4246058181 ; 7871698.695810093 ; 1.6768299214752926E7 ; 20468.000000000004
87 ; 104667.68508572616 ; 246127.91877269308 ; 7976843.147995244 ; 1.7012953639358744E7 ; 20706.000000000004
88 ; 104706.01897125375 ; 247605.0782399341 ; 8081510.83308097 ; 1.7259081558131438E7 ; 20944.000000000004
89 ; 104498.33398353195 ; 249085.7000568705 ; 8186216.852052224 ; 1.750668663637137E7 ; 21182.000000000004
90 ; 104516.52346381289 ; 250569.58661144116 ; 8290715.186035756 ; 1.775577233642824E7 ; 21420.000000000004
91 ; 104269.4354429931 ; 252056.54545575698 ; 8395231.70949957 ; 1.8006341923039682E7 ; 21658.000000000004
92 ; 103928.50220158554 ; 253546.38913681448 ; 8499501.144942563 ; 1.825839846849544E7 ; 21896.000000000004
93 ; 104230.62333526445 ; 255038.9350323166 ; 8603429.647144148 ; 1.8511944857632253E7 ; 22134.000000000004
94 ; 103692.408032536 ; 256534.0051915414 ; 8707660.270479413 ; 1.876698379266457E7 ; 22372.000000000004
95 ; 103507.03707543769 ; 258031.42618119033 ; 8811352.67851195 ; 1.902351779785611E7 ; 22610.000000000004
96 ; 103548.22613595403 ; 259531.02893613387 ; 8914859.715587387 ; 1.92815492240373E7 ; 22848.000000000004
97 ; 103395.16162270788 ; 261032.64861496733 ; 9018407.941723341 ; 1.9541080252973434E7 ; 23086.000000000004
98 ; 103337.69888552913 ; 262536.12446028 ; 9121803.10334605 ; 1.9802112901588403E7 ; 23324.000000000004
99 ; 102676.97621899491 ; 264041.2996635368 ; 9225140.802231578 ; 2.0064649026048683E7 ; 23562.000000000004
100 ; 102497.68840753389 ; 265548.0212344664 ; 9327817.778450573 ; 2.032869032571222E7 ; 23800.000000000004
101 ; 102677.5658756816 ; 267056.13987484603 ; 9430315.466858108 ; 2.0594238346946687E7 ; 24038.000000000004
102 ; 103058.98117663144 ; 268565.5098565711 ; 9532993.032733789 ; 2.0861294486821532E7 ; 24276.000000000004
103 ; 102478.47259135109 ; 270075.98890389485 ; 9636052.01391042 ; 2.1129859996678103E7 ; 24514.000000000004
104 ; 101337.70802498594 ; 271587.438079724 ; 9738530.486501772 ; 2.1399935985581998E7 ; 24752.000000000004
105 ; 101503.32007491519 ; 273099.72167585377 ; 9839868.194526758 ; 2.167152342366172E7 ; 24990.000000000004
106 ; 101006.54642350337 ; 274612.70710702706 ; 9941371.514601674 ; 2.1944623145337574E7 ; 25228.000000000004
107 ; 100723.07650973689 ; 276126.26480870263 ; 1.0042378061025178E7 ; 2.22192358524446E7 ; 25466.000000000004
108 ; 100479.6485453011 ; 277640.26813841704 ; 1.0143101137534915E7 ; 2.2495362117253304E7 ; 25704.000000000004
109 ; 100186.50208291243 ; 279154.59328062914 ; 1.0243580786080215E7 ; 2.277300238539172E7 ; 25942.000000000004
110 ; 99667.50983412913 ; 280669.1191549333 ; 1.0343767288163127E7 ; 2.3052156978672348E7 ; 26180.000000000004
111 ; 99424.35103837043 ; 282183.7273275337 ; 1.0443434797997257E7 ; 2.333282609782728E7 ; 26418.000000000004
112 ; 99189.15174752848 ; 283698.30192586995 ; 1.0542859149035627E7 ; 2.3615009825154815E7 ; 26656.000000000004
113 ; 98727.56229539479 ; 285212.7295562898 ; 1.0642048300783155E7 ; 2.3898708127080686E7 ; 26894.000000000004
114 ; 98399.97884022472 ; 286726.899224665 ; 1.074077586307855E7 ; 2.4183920856636975E7 ; 27132.000000000004
115 ; 97831.56716446095 ; 288240.7022598493 ; 1.0839175841918774E7 ; 2.447064775586164E7 ; 27370.000000000004
116 ; 97702.16391952126 ; 289754.03223988006 ; 1.0937007409083234E7 ; 2.475888845812149E7 ; 27608.000000000004
117 ; 97473.63535626564 ; 291266.784920828 ; 1.1034709573002756E7 ; 2.504864249036137E7 ; 27846.000000000004
118 ; 96471.12998938278 ; 292778.8581682012 ; 1.1132183208359022E7 ; 2.5339909275282197E7 ; 28084.000000000004
119 ; 95923.22293022787 ; 294290.15189081297 ; 1.1228654338348404E7 ; 2.5632688133450396E7 ; 28322.000000000004
120 ; 95552.17761863447 ; 295800.5679770258 ; 1.1324577561278632E7 ; 2.592697828534121E7 ; 28560.000000000004
121 ; 95291.38004188053 ; 297310.0102332851 ; 1.1420129738897266E7 ; 2.6222778853318237E7 ; 28798.000000000004
122 ; 94742.19001600188 ; 298818.38432486105 ; 1.1515421118939146E7 ; 2.6520088863551524E7 ; 29036.000000000004
123 ; 93916.15059277038 ; 300325.59771871794 ; 1.1610163308955148E7 ; 2.6818907247876383E7 ; 29274.000000000004
124 ; 93466.7139382111 ; 301831.5596284329 ; 1.1704079459547918E7 ; 2.7119232845595103E7 ; 29512.000000000004
125 ; 92639.97901876722 ; 303336.18096109014 ; 1.179754617348613E7 ; 2.7421064405223537E7 ; 29750.000000000004
126 ; 91928.9391493651 ; 304839.37426607724 ; 1.1890186152504897E7 ; 2.772440058618463E7 ; 29988.000000000004
127 ; 91830.61633994129 ; 306341.0536857136 ; 1.1982115091654262E7 ; 2.8029239960450705E7 ; 30226.000000000004
128 ; 90892.92496222412 ; 307841.13490764407 ; 1.2073945707994202E7 ; 2.833558101413642E7 ; 30464.000000000004
129 ; 90581.74995623516 ; 309339.53511893173 ; 1.2164838632956427E7 ; 2.8643422149044063E7 ; 30702.000000000004
130 ; 90118.96205910767 ; 310836.1729617867 ; 1.2255420382912662E7 ; 2.8952761684162993E7 ; 30940.000000000004
131 ; 89286.19477360041 ; 312330.9684908718 ; 1.234553934497177E7 ; 2.926359785712478E7 ; 31178.000000000004
132 ; 88848.54562700656 ; 313823.8431321241 ; 1.243482553974537E7 ; 2.9575928825615652E7 ; 31416.000000000004
133 ; 88353.09622069538 ; 315314.719643038 ; 1.2523674085372377E7 ; 2.9889752668747775E7 ; 31654.000000000004
134 ; 87645.7892272525 ; 316803.52207435464 ; 1.2612027181593072E7 ; 3.0205067388390813E7 ; 31892.000000000004
135 ; 86967.98217450727 ; 318290.175733105 ; 1.2699672970820324E7 ; 3.0521870910465166E7 ; 32130.000000000004
136 ; 86474.89871124228 ; 319774.60714695667 ; 1.278664095299483E7 ; 3.084016108619827E7 ; 32368.000000000004
137 ; 85728.7193509297 ; 321256.7440298161 ; 1.2873115851706073E7 ; 3.1159935693345226E7 ; 32606.000000000004
138 ; 84721.2037651243 ; 322736.51524863887 ; 1.2958844571057003E7 ; 3.1481192437375043E7 ; 32844.00000000001
139 ; 84149.17304101236 ; 324213.8507914028 ; 1.3043565774822127E7 ; 3.180392895262368E7 ; 33082.00000000001
140 ; 83243.35586099017 ; 325688.6817362024 ; 1.312771494786314E7 ; 3.2128142803415082E7 ; 33320.00000000001
141 ; 82495.90581043506 ; 327160.9402214204 ; 1.3210958303724129E7 ; 3.2453831485151283E7 ; 33558.00000000001
142 ; 82122.8819550449 ; 328630.55941693846 ; 1.3293454209534563E7 ; 3.2780992425372705E7 ; 33796.00000000001
143 ; 81623.63024257337 ; 330097.4734963477 ; 1.3375577091489607E7 ; 3.3109622984789643E7 ; 34034.00000000001
144 ; 79984.26811136081 ; 331561.61761012167 ; 1.345720072173218E7 ; 3.343972045828599E7 ; 34272.00000000001
145 ; 79386.89349085439 ; 333022.92785971664 ; 1.3537184989843542E7 ; 3.3771282075896114E7 ; 34510.00000000001
146 ; 80134.08595961583 ; 334481.341272565 ; 1.3616571883334396E7 ; 3.410430500375583E7 ; 34748.00000000001
147 ; 79625.71350227001 ; 335936.7957779281 ; 1.3696705969294012E7 ; 3.443878634502839E7 ; 34986.00000000001
148 ; 80053.30551534164 ; 337389.23018357775 ; 1.377633168279628E7 ; 3.477472314080632E7 ; 35224.00000000001
149 ; 79278.84292498927 ; 338838.5841532755 ; 1.3856384988311622E7 ; 3.51121123709899E7 ; 35462.00000000001
150 ; 79330.99395468539 ; 340284.7981850196 ; 1.3935663831236612E7 ; 3.545095095514317E7 ; 35700.00000000001
151 ; 78299.62499284183 ; 341727.8135900337 ; 1.4014994825191297E7 ; 3.579123575332819E7 ; 35938.00000000001
152 ; 78612.08263849176 ; 343167.5724724671 ; 1.4093294450184138E7 ; 3.6132963566918224E7 ; 36176.00000000001
153 ; 78302.04934898659 ; 344604.0177097835 ; 1.417190653282263E7 ; 3.647613113939069E7 ; 36414.00000000001
154 ; 78012.71648009303 ; 346037.0929338111 ; 1.4250208582171615E7 ; 3.682073515710048E7 ; 36652.00000000001
155 ; 77547.72900873332 ; 347466.74251243105 ; 1.4328221298651708E7 ; 3.716677225003429E7 ; 36890.00000000001
156 ; 77289.29290055226 ; 348892.91153188085 ; 1.4405769027660443E7 ; 3.751423899254672E7 ; 37128.00000000001
157 ; 76960.50614800239 ; 350315.5457796502 ; 1.4483058320560995E7 ; 3.78631319040786E7 ; 37366.00000000001
158 ; 76369.39962517552 ; 351734.59172794834 ; 1.4560018826708999E7 ; 3.8213447449858256E7 ; 37604.00000000001
159 ; 76297.14010016274 ; 353149.9965177218 ; 1.4636388226334173E7 ; 3.8565182041586205E7 ; 37842.00000000001
160 ; 76214.02851027843 ; 354561.70794320345 ; 1.4712685366434336E7 ; 3.891833203810393E7 ; 38080.00000000001
161 ; 75813.77868189637 ; 355969.67443697294 ; 1.4788899394944614E7 ; 3.927289374604713E7 ; 38318.00000000001
162 ; 75745.33384665524 ; 357373.84505551116 ; 1.486471317362651E7 ; 3.96288634204841E7 ; 38556.00000000001
163 ; 75254.18844050971 ; 358774.1694652305 ; 1.4940458507473165E7 ; 3.998623726553962E7 ; 38794.00000000001
164 ; 75250.21942446075 ; 360170.5979289636 ; 1.5015712695913674E7 ; 4.0345011435004845E7 ; 39032.00000000001
165 ; 75002.54929821938 ; 361563.08129289636 ; 1.5090962915338134E7 ; 4.070518203293381E7 ; 39270.00000000001
166 ; 74322.03291401849 ; 362951.57097392617 ; 1.5165965464636354E7 ; 4.106674511422671E7 ; 39508.00000000001
167 ; 74325.10994244687 ; 364336.0189474336 ; 1.5240287497550372E7 ; 4.142969668520063E7 ; 39746.00000000001
168 ; 73675.5019538796 ; 365716.3777354512 ; 1.531461260749282E7 ; 4.179403270414806E7 ; 39984.00000000001
169 ; 73394.83276489224 ; 367092.60039521573 ; 1.5388288109446699E7 ; 4.215974908188351E7 ; 40222.00000000001
170 ; 72851.2724099392 ; 368464.6405080905 ; 1.546168294221159E7 ; 4.252684168227873E7 ; 40460.00000000001
171 ; 72514.14347091707 ; 369832.4521688455 ; 1.5534534214621529E7 ; 4.289530632278682E7 ; 40698.00000000001
172 ; 72054.79666923662 ; 371195.98997528234 ; 1.5607048358092446E7 ; 4.326513877495567E7 ; 40936.00000000001
173 ; 72090.78834605942 ; 372555.20901819103 ; 1.5679103154761683E7 ; 4.363633476493095E7 ; 41174.00000000001
174 ; 72280.4260665855 ; 373910.0648716297 ; 1.5751193943107743E7 ; 4.400888997394914E7 ; 41412.00000000001
175 ; 72073.73352446825 ; 375260.5135835138 ; 1.5823474369174328E7 ; 4.438280003882077E7 ; 41650.00000000001
176 ; 72483.34505654912 ; 376606.51166650455 ; 1.5895548102698795E7 ; 4.4758060552404284E7 ; 41888.00000000001
177 ; 72038.36991770024 ; 377948.0160891878 ; 1.5968031447755344E7 ; 4.513466706407079E7 ; 42126.00000000001
178 ; 72380.35722763359 ; 379284.9842675314 ; 1.6040069817673044E7 ; 4.551261508015998E7 ; 42364.00000000001
179 ; 72508.32288039336 ; 380617.3740566134 ; 1.6112450174900677E7 ; 4.589190006442751E7 ; 42602.00000000001
180 ; 72056.37965472284 ; 381945.14374261023 ; 1.618495849778107E7 ; 4.6272517438484125E7 ; 42840.00000000001
181 ; 72338.86710967383 ; 383268.2520350373 ; 1.6257014877435792E7 ; 4.665446258222674E7 ; 43078.00000000001
