CSV File for the Network on Day 209
1 - Minute m 
2 - Power Consumed at minute m 
3 - Power Produced at minute m 
4 - Energy Consumed since the beginning of the day 
5 - Energy Produced since the beginning of the day 
6 - Energy Lost since the beginning of the day 
 
No Production city : 2, Producer : 1
No Production city : 4, Producer : 1
No Production city : 4, Producer : 1
 
0 ; 27092.19457281364 ; 115539.12926824712 ; 0.0 ; 0.0 ; 0.0
1 ; 29237.091582758752 ; 115075.52604890191 ; 27092.19457281364 ; 115539.12926824712 ; 238.00000000000003
2 ; 30908.883868035096 ; 114656.64830323792 ; 56329.286155572394 ; 230614.65531714904 ; 476.00000000000006
3 ; 32414.312287120483 ; 114283.76592418435 ; 87238.1700236075 ; 345271.303620387 ; 714.0000000000001
4 ; 34742.49846964764 ; 113958.04878464589 ; 119652.48231072798 ; 459555.06954457134 ; 952.0000000000001
5 ; 36106.06233993274 ; 113680.55042639236 ; 154394.98078037563 ; 573513.1183292172 ; 1190.0000000000002
6 ; 37740.82577828891 ; 113452.19255226807 ; 190501.04312030837 ; 687193.6687556095 ; 1428.0000000000002
7 ; 39656.1890847873 ; 113273.75081430978 ; 228241.86889859728 ; 800645.8613078776 ; 1666.0000000000002
8 ; 41266.42984148541 ; 113145.84238236649 ; 267898.0579833846 ; 913919.6121221874 ; 1904.0000000000002
9 ; 42766.25851800177 ; 113068.91574203415 ; 309164.48782487 ; 1027065.4545045539 ; 2142.0000000000005
10 ; 44644.60108541038 ; 113043.24310703372 ; 351930.74634287175 ; 1140134.370246588 ; 2380.0000000000005
11 ; 46101.00046867719 ; 113068.91574203415 ; 396575.34742828214 ; 1253177.6133536217 ; 2618.0000000000005
12 ; 47552.28061023266 ; 113145.84238236649 ; 442676.34789695934 ; 1366246.5290956558 ; 2856.0000000000005
13 ; 48968.78580839406 ; 113273.75081430978 ; 490228.628507192 ; 1479392.3714780223 ; 3094.0000000000005
14 ; 50753.36383379526 ; 113452.19255226797 ; 539197.4143155861 ; 1592666.1222923321 ; 3332.0000000000005
15 ; 52454.46035401356 ; 113680.55042639236 ; 589950.7781493814 ; 1706118.3148446002 ; 3570.0000000000005
16 ; 54119.27731125854 ; 113958.04878464589 ; 642405.238503395 ; 1819798.8652709925 ; 3808.0000000000005
17 ; 55492.38535896198 ; 114283.76592418426 ; 696524.5158146536 ; 1933756.9140556385 ; 4046.0000000000005
18 ; 56859.51902910752 ; 114656.648303238 ; 752016.9011736156 ; 2048040.6799798228 ; 4284.000000000001
19 ; 58222.43374125798 ; 115075.52604890181 ; 808876.4202027231 ; 2162697.328283061 ; 4522.000000000001
20 ; 59297.54337584007 ; 115539.12926824723 ; 867098.8539439811 ; 2277772.8543319628 ; 4760.000000000001
21 ; 61285.46242450552 ; 116046.10468754535 ; 926396.3973198212 ; 2393311.98360021 ; 4998.000000000001
22 ; 62728.98501659754 ; 116595.03218295593 ; 987681.8597443267 ; 2509358.0882877554 ; 5236.000000000001
23 ; 63735.966206736965 ; 117184.44082051935 ; 1050410.844760924 ; 2625953.1204707115 ; 5474.000000000001
24 ; 65043.238373886226 ; 117812.82408801903 ; 1114146.810967661 ; 2743137.561291231 ; 5712.000000000001
25 ; 66932.48253820515 ; 118478.65407076702 ; 1179190.0493415473 ; 2860950.3853792497 ; 5950.000000000001
26 ; 67763.85032205163 ; 119180.39439277057 ; 1246122.5318797524 ; 2979429.039450017 ; 6188.000000000001
27 ; 69112.14114172675 ; 119916.51181019054 ; 1313886.382201804 ; 3098609.4338427875 ; 6426.000000000001
28 ; 70512.72488301505 ; 120685.48640267135 ; 1382998.523343531 ; 3218525.945652978 ; 6664.000000000001
29 ; 71466.20527656347 ; 121485.82035827365 ; 1453511.248226546 ; 3339211.4320556493 ; 6902.000000000001
30 ; 72872.1523745688 ; 122316.04538855542 ; 1524977.4535031095 ; 3460697.252413923 ; 7140.000000000001
31 ; 74160.12027853988 ; 123174.72884181005 ; 1597849.6058776784 ; 3583013.2978024785 ; 7378.000000000001
32 ; 74987.104823317 ; 124060.4786051244 ; 1672009.7261562182 ; 3706188.0266442886 ; 7616.000000000001
33 ; 76469.05518135832 ; 124971.94690070121 ; 1746996.8309795351 ; 3830248.5052494127 ; 7854.000000000001
34 ; 77936.85950909041 ; 125907.83308996315 ; 1823465.8861608934 ; 3955220.452150114 ; 8092.000000000001
35 ; 79108.08037722346 ; 126866.88560152789 ; 1901402.7456699838 ; 4081128.285240077 ; 8330.000000000002
36 ; 79654.48640845393 ; 127847.90309743953 ; 1980510.8260472072 ; 4207995.1708416045 ; 8568.000000000002
37 ; 80774.19528539274 ; 128849.73498715129 ; 2060165.3124556611 ; 4335843.073939044 ; 8806.000000000002
38 ; 81986.9504005344 ; 129871.28139165729 ; 2140939.507741054 ; 4464692.808926195 ; 9044.000000000002
39 ; 82847.74424891392 ; 130911.49265167848 ; 2222926.4581415886 ; 4594564.090317852 ; 9282.000000000002
40 ; 83878.20635875604 ; 131969.36846457946 ; 2305774.2023905027 ; 4725475.5829695305 ; 9520.000000000002
41 ; 85390.43840988648 ; 133043.95672524133 ; 2389652.4087492586 ; 4857444.95143411 ; 9758.000000000002
42 ; 85786.64748457809 ; 134134.35213681925 ; 2475042.847159145 ; 4990488.908159352 ; 9996.000000000002
43 ; 86926.41520338775 ; 135239.694648449 ; 2560829.494643723 ; 5124623.2602961715 ; 10234.000000000002
44 ; 88260.60838997831 ; 136359.1677686964 ; 2647755.909847111 ; 5259862.954944621 ; 10472.000000000002
45 ; 88766.80355023395 ; 137491.99679599612 ; 2736016.5182370893 ; 5396222.122713317 ; 10710.000000000002
46 ; 89284.18840985297 ; 138637.44700052324 ; 2824783.3217873233 ; 5533714.119509313 ; 10948.000000000002
47 ; 90051.63827548518 ; 139794.82178591331 ; 2914067.510197176 ; 5672351.566509836 ; 11186.000000000002
48 ; 91319.51069653242 ; 140963.4608539558 ; 3004119.148472661 ; 5812146.388295749 ; 11424.000000000002
49 ; 91693.09752261743 ; 142142.73839080034 ; 3095438.6591691934 ; 5953109.849149705 ; 11662.000000000002
50 ; 92340.75676023771 ; 143332.06128927707 ; 3187131.7566918107 ; 6095252.587540505 ; 11900.000000000002
51 ; 93343.0286456785 ; 144530.8674185798 ; 3279472.5134520484 ; 6238584.648829782 ; 12138.000000000002
52 ; 94532.8843963067 ; 145738.62394974005 ; 3372815.542097727 ; 6383115.516248362 ; 12376.000000000002
53 ; 95116.07489653351 ; 146954.82574295654 ; 3467348.4264940335 ; 6528854.140198102 ; 12614.000000000002
54 ; 95908.1548379895 ; 148178.99380089328 ; 3562464.501390567 ; 6675808.9659410585 ; 12852.000000000002
55 ; 96437.09739028956 ; 149410.67379045766 ; 3658372.6562285568 ; 6823987.959741952 ; 13090.000000000002
56 ; 97004.8664549264 ; 150649.43463427076 ; 3754809.753618846 ; 6973398.63353241 ; 13328.000000000002
57 ; 97559.41155172027 ; 151894.8671719978 ; 3851814.6200737725 ; 7124048.068166681 ; 13566.000000000002
58 ; 98732.38301836819 ; 153146.58289088483 ; 3949374.031625493 ; 7275942.935338679 ; 13804.000000000002
59 ; 99075.59267886158 ; 154404.21272420493 ; 4048106.4146438614 ; 7429089.518229564 ; 14042.000000000002
60 ; 99719.93240814323 ; 155667.4059158276 ; 4147182.007322723 ; 7583493.730953769 ; 14280.000000000002
61 ; 100167.63278145716 ; 156935.8289487636 ; 4246901.939730866 ; 7739161.136869596 ; 14518.000000000002
62 ; 100644.34973389214 ; 158209.1645352774 ; 4347069.572512323 ; 7896096.9658183595 ; 14756.000000000002
63 ; 101234.0495870591 ; 159487.11066598646 ; 4447713.922246215 ; 8054306.130353637 ; 14994.000000000002
64 ; 101680.80628343945 ; 160769.37971526053 ; 4548947.971833274 ; 8213793.241019623 ; 15232.000000000002
65 ; 102296.05042717089 ; 162055.6976001845 ; 4650628.778116713 ; 8374562.6207348835 ; 15470.000000000002
66 ; 102573.07040168034 ; 163345.80299034063 ; 4752924.828543884 ; 8536618.318335067 ; 15708.000000000002
67 ; 103028.55141542148 ; 164639.4465656943 ; 4855497.898945564 ; 8699964.121325407 ; 15946.000000000002
68 ; 103781.5810774681 ; 165936.39031992084 ; 4958526.4503609855 ; 8864603.567891102 ; 16184.000000000002
69 ; 104058.46692260496 ; 167236.40690658404 ; 5062308.031438453 ; 9030539.958211023 ; 16422.000000000004
70 ; 104578.44226567096 ; 168539.27902566572 ; 5166366.4983610585 ; 9197776.365117608 ; 16660.000000000004
71 ; 104807.27267922365 ; 169844.7988480426 ; 5270944.940626729 ; 9366315.644143274 ; 16898.000000000004
72 ; 105208.42058552963 ; 171152.76747561316 ; 5375752.213305953 ; 9536160.442991316 ; 17136.000000000004
73 ; 105319.06990970664 ; 172462.99443488428 ; 5480960.633891483 ; 9707313.210466929 ; 17374.000000000004
74 ; 105891.59075202301 ; 173775.29720193913 ; 5586279.70380119 ; 9879776.204901813 ; 17612.000000000004
75 ; 105765.93411667617 ; 175089.50075681682 ; 5692171.294553213 ; 1.0053551502103752E7 ; 17850.000000000004
76 ; 106451.94943420321 ; 176405.43716544478 ; 5797937.228669889 ; 1.0228641002860568E7 ; 18088.000000000004
77 ; 106696.04889273146 ; 177722.94518736948 ; 5904389.178104092 ; 1.0405046440026013E7 ; 18326.000000000004
78 ; 106598.54568539964 ; 179041.8699076369 ; 6011085.226996824 ; 1.0582769385213383E7 ; 18564.000000000004
79 ; 106686.51743338951 ; 180362.06239126995 ; 6117683.7726822235 ; 1.0761811255121019E7 ; 18802.000000000004
80 ; 107157.36978147482 ; 181683.37935889 ; 6224370.290115613 ; 1.0942173317512289E7 ; 19040.000000000004
81 ; 107521.47371929855 ; 183005.68288211653 ; 6331527.659897087 ; 1.1123856696871178E7 ; 19278.000000000004
82 ; 107470.45034582262 ; 184328.84009746835 ; 6439049.133616386 ; 1.1306862379753295E7 ; 19516.000000000004
83 ; 107634.82812699632 ; 185652.72293757065 ; 6546519.583962209 ; 1.1491191219850764E7 ; 19754.000000000004
84 ; 107649.6015649935 ; 186977.207878549 ; 6654154.412089205 ; 1.1676843942788335E7 ; 19992.000000000004
85 ; 107678.35122341644 ; 188302.17570256646 ; 6761804.0136541985 ; 1.1863821150666883E7 ; 20230.000000000004
86 ; 107631.23991950699 ; 189627.51127452624 ; 6869482.364877615 ; 1.205212332636945E7 ; 20468.000000000004
87 ; 107750.22464714007 ; 190953.1033320295 ; 6977113.604797122 ; 1.2241750837643975E7 ; 20706.000000000004
88 ; 107789.59459900495 ; 192278.84428773494 ; 7084863.829444262 ; 1.2432703940976005E7 ; 20944.000000000004
89 ; 108134.19441018696 ; 193604.63004332874 ; 7192653.424043267 ; 1.262498278526374E7 ; 21182.000000000004
90 ; 107933.03327930439 ; 194930.35981435998 ; 7300787.618453454 ; 1.2818587415307067E7 ; 21420.000000000004
91 ; 107591.9784712583 ; 196255.93596525234 ; 7408720.651732759 ; 1.3013517775121428E7 ; 21658.000000000004
92 ; 107493.43771826966 ; 197581.2638538448 ; 7516312.630204017 ; 1.3209773711086681E7 ; 21896.000000000004
93 ; 107484.30829958881 ; 198906.2516848601 ; 7623806.067922287 ; 1.3407354974940525E7 ; 22134.000000000004
94 ; 107679.9797304215 ; 200230.81037173764 ; 7731290.376221876 ; 1.3606261226625385E7 ; 22372.000000000004
95 ; 107409.30896116154 ; 201554.85340630813 ; 7838970.355952297 ; 1.3806492036997123E7 ; 22610.000000000004
96 ; 107231.741512833 ; 202878.29673581847 ; 7946379.664913459 ; 1.400804689040343E7 ; 22848.000000000004
97 ; 107187.04646319636 ; 204201.05864685206 ; 8053611.406426292 ; 1.4210925187139248E7 ; 23086.000000000004
98 ; 106727.6295841263 ; 205523.0596557165 ; 8160798.452889488 ; 1.44151262457861E7 ; 23324.000000000004
99 ; 106278.75753282296 ; 206844.22240490178 ; 8267526.082473614 ; 1.4620649305441817E7 ; 23562.000000000004
100 ; 106057.14449260458 ; 208164.4715652366 ; 8373804.840006437 ; 1.4827493527846718E7 ; 23800.000000000004
101 ; 106375.13755152574 ; 209483.73374339571 ; 8479861.984499041 ; 1.5035657999411955E7 ; 24038.000000000004
102 ; 105824.59920244012 ; 210801.9373944344 ; 8586237.122050567 ; 1.5245141733155351E7 ; 24276.000000000004
103 ; 105786.09964736145 ; 212119.01273904627 ; 8692061.721253008 ; 1.5455943670549786E7 ; 24514.000000000004
104 ; 105305.32903906515 ; 213434.89168526186 ; 8797847.82090037 ; 1.5668062683288831E7 ; 24752.000000000004
105 ; 104644.84566965631 ; 214749.50775432272 ; 8903153.149939435 ; 1.5881497574974094E7 ; 24990.000000000004
106 ; 104550.66279263844 ; 216062.7960104837 ; 9007797.995609092 ; 1.6096247082728416E7 ; 25228.000000000004
107 ; 103745.57415312693 ; 217374.69299451174 ; 9112348.65840173 ; 1.6312309878738899E7 ; 25466.000000000004
108 ; 103735.1365419394 ; 218685.13666066408 ; 9216094.232554857 ; 1.6529684571733411E7 ; 25704.000000000004
109 ; 103179.78008360723 ; 219994.06631694332 ; 9319829.369096797 ; 1.6748369708394075E7 ; 25942.000000000004
110 ; 102771.8039810116 ; 221301.42256843956 ; 9423009.149180405 ; 1.6968363774711017E7 ; 26180.000000000004
111 ; 101710.38585452204 ; 222607.14726358152 ; 9525780.953161417 ; 1.7189665197279457E7 ; 26418.000000000004
112 ; 102006.9215721378 ; 223911.18344312964 ; 9627491.339015938 ; 1.741227234454304E7 ; 26656.000000000004
113 ; 101434.4740320758 ; 225213.4752917559 ; 9729498.260588076 ; 1.763618352798617E7 ; 26894.000000000004
114 ; 100788.04800437059 ; 226513.9680920628 ; 9830932.734620152 ; 1.7861397003277924E7 ; 27132.000000000004
115 ; 100170.2056640997 ; 227812.6081809052 ; 9931720.782624522 ; 1.8087910971369985E7 ; 27370.000000000004
116 ; 99226.91617260501 ; 229109.3429078856 ; 1.0031890988288622E7 ; 1.8315723579550892E7 ; 27608.000000000004
117 ; 98508.11183296453 ; 230404.12059590244 ; 1.0131117904461227E7 ; 1.854483292245878E7 ; 27846.000000000004
118 ; 98325.70052141983 ; 231696.890503637 ; 1.0229626016294193E7 ; 1.877523704305468E7 ; 28084.000000000004
119 ; 97591.50428815253 ; 232987.6027898741 ; 1.0327951716815613E7 ; 1.900693393355832E7 ; 28322.000000000004
120 ; 96947.82630446843 ; 234276.20847955442 ; 1.0425543221103765E7 ; 1.9239921536348194E7 ; 28560.000000000004
121 ; 96664.3801400792 ; 235562.65943146613 ; 1.0522491047408234E7 ; 1.9474197744827747E7 ; 28798.000000000004
122 ; 95559.09025836004 ; 236846.9083074863 ; 1.0619155427548314E7 ; 1.9709760404259212E7 ; 29036.000000000004
123 ; 94993.29631187374 ; 238128.90854328955 ; 1.0714714517806673E7 ; 1.9946607312566698E7 ; 29274.000000000004
124 ; 94169.8319608352 ; 239408.61432044543 ; 1.0809707814118547E7 ; 2.0184736221109986E7 ; 29512.000000000004
125 ; 93419.10195500572 ; 240685.9805398311 ; 1.0903877646079382E7 ; 2.0424144835430432E7 ; 29750.000000000004
126 ; 92357.17636391606 ; 241960.96279628994 ; 1.0997296748034388E7 ; 2.0664830815970264E7 ; 29988.000000000004
127 ; 91861.07645331611 ; 243233.51735447085 ; 1.1089653924398303E7 ; 2.0906791778766554E7 ; 30226.000000000004
128 ; 90539.85704832654 ; 244503.60112578707 ; 1.118151500085162E7 ; 2.1150025296121024E7 ; 30464.000000000004
129 ; 90076.2857121679 ; 245771.17164643612 ; 1.1272054857899947E7 ; 2.139452889724681E7 ; 30702.000000000004
130 ; 89349.43335550364 ; 247036.18705642666 ; 1.1362131143612115E7 ; 2.1640300068893246E7 ; 30940.000000000004
131 ; 88085.9098860852 ; 248298.60607956085 ; 1.1451480576967617E7 ; 2.1887336255949672E7 ; 31178.000000000004
132 ; 87572.08187198434 ; 249558.3880043233 ; 1.1539566486853702E7 ; 2.2135634862029232E7 ; 31416.000000000004
133 ; 86814.57815238604 ; 250815.49266563138 ; 1.1627138568725687E7 ; 2.2385193250033554E7 ; 31654.000000000004
134 ; 86005.86116973594 ; 252069.88042740285 ; 1.1713953146878073E7 ; 2.2636008742699184E7 ; 31892.000000000004
135 ; 84966.74642277026 ; 253321.51216590116 ; 1.179995900804781E7 ; 2.2888078623126585E7 ; 32130.000000000004
136 ; 83889.36636478484 ; 254570.3492538185 ; 1.188492575447058E7 ; 2.3141400135292485E7 ; 32368.000000000004
137 ; 82768.51157465583 ; 255816.35354506137 ; 1.1968815120835364E7 ; 2.3395970484546304E7 ; 32606.000000000004
138 ; 81489.34849219145 ; 257059.48736020338 ; 1.205158363241002E7 ; 2.3651786838091366E7 ; 32844.00000000001
139 ; 80830.7864431831 ; 258299.7134725736 ; 1.2133072980902212E7 ; 2.3908846325451568E7 ; 33082.00000000001
140 ; 79742.75565308792 ; 259536.99509494888 ; 1.2213903767345395E7 ; 2.4167146038924143E7 ; 33320.00000000001
141 ; 78605.16467068603 ; 260771.29586682105 ; 1.2293646522998482E7 ; 2.442668303401909E7 ; 33558.00000000001
142 ; 77190.10680677931 ; 262002.57984221238 ; 1.2372251687669167E7 ; 2.468745432988591E7 ; 33796.00000000001
143 ; 76121.96642633465 ; 263230.81147801224 ; 1.2449441794475947E7 ; 2.4949456909728125E7 ; 34034.00000000001
144 ; 75462.68928723552 ; 264455.95562281064 ; 1.2525563760902282E7 ; 2.5212687721206136E7 ; 34272.00000000001
145 ; 74739.95570611322 ; 265677.97750620503 ; 1.2601026450189518E7 ; 2.5477143676828947E7 ; 34510.00000000001
146 ; 74810.94388251021 ; 266896.84272855887 ; 1.2675766405895632E7 ; 2.5742821654335152E7 ; 34748.00000000001
147 ; 74508.57241540586 ; 268112.51725118986 ; 1.2750577349778142E7 ; 2.600971849706371E7 ; 34986.00000000001
148 ; 74197.88906356439 ; 269324.96738696925 ; 1.2825085922193548E7 ; 2.62778310143149E7 ; 35224.00000000001
149 ; 73705.14963933645 ; 270534.1597913119 ; 1.2899283811257113E7 ; 2.654715598170187E7 ; 35462.00000000001
150 ; 73795.86226670991 ; 271740.06145354017 ; 1.297298896089645E7 ; 2.6817690141493183E7 ; 35700.00000000001
151 ; 73341.09686714796 ; 272942.63968860474 ; 1.304678482316316E7 ; 2.7089430202946723E7 ; 35938.00000000001
152 ; 72834.18926015003 ; 274141.8621291455 ; 1.3120125920030307E7 ; 2.7362372842635326E7 ; 36176.00000000001
153 ; 72763.36841034507 ; 275337.69671787694 ; 1.3192960109290456E7 ; 2.763651470476447E7 ; 36414.00000000001
154 ; 72739.40493270669 ; 276530.11170028517 ; 1.3265723477700802E7 ; 2.7911852401482347E7 ; 36652.00000000001
155 ; 72361.43510709109 ; 277719.0756176211 ; 1.333846288263351E7 ; 2.8188382513182633E7 ; 36890.00000000001
156 ; 72092.91867344176 ; 278904.55730017705 ; 1.34108243177406E7 ; 2.8466101588800255E7 ; 37128.00000000001
157 ; 71226.30876651552 ; 280086.52586083446 ; 1.3482917236414043E7 ; 2.874500614610043E7 ; 37366.00000000001
158 ; 71102.018182311 ; 281264.9506888708 ; 1.355414354518056E7 ; 2.9025092671961267E7 ; 37604.00000000001
159 ; 70657.3179422011 ; 282439.8014440148 ; 1.362524556336287E7 ; 2.930635762265014E7 ; 37842.00000000001
160 ; 70980.70302429437 ; 283611.04805073823 ; 1.369590288130507E7 ; 2.9588797424094155E7 ; 38080.00000000001
161 ; 70057.6606926641 ; 284778.66069277463 ; 1.3766883584329365E7 ; 2.9872408472144894E7 ; 38318.00000000001
162 ; 69737.8985910046 ; 285942.60980785557 ; 1.3836941245022029E7 ; 3.0157187132837668E7 ; 38556.00000000001
163 ; 69740.09781886093 ; 287102.8660826545 ; 1.3906679143613033E7 ; 3.0443129742645524E7 ; 38794.00000000001
164 ; 69409.45506106853 ; 288259.40044793 ; 1.3976419241431894E7 ; 3.0730232608728178E7 ; 39032.00000000001
165 ; 68991.50797806167 ; 289412.18407385884 ; 1.4045828696492963E7 ; 3.101849200917611E7 ; 39270.00000000001
166 ; 68436.71980836577 ; 290561.188365553 ; 1.4114820204471024E7 ; 3.1307904193249967E7 ; 39508.00000000001
167 ; 68068.56707038259 ; 291706.38495875057 ; 1.418325692427939E7 ; 3.159846538161552E7 ; 39746.00000000001
168 ; 67652.92557679076 ; 292847.7457156748 ; 1.4251325491349772E7 ; 3.189017176657427E7 ; 39984.00000000001
169 ; 67291.74210662828 ; 293985.2427210539 ; 1.4318978416926563E7 ; 3.2183019512289945E7 ; 40222.00000000001
170 ; 66752.38384023614 ; 295118.8482782948 ; 1.438627015903319E7 ; 3.2477004755011E7 ; 40460.00000000001
171 ; 66518.70733119218 ; 296248.53490580496 ; 1.4453022542873427E7 ; 3.2772123603289295E7 ; 40698.00000000001
172 ; 66683.50504470052 ; 297374.27533345605 ; 1.4519541250204619E7 ; 3.30683721381951E7 ; 40936.00000000001
173 ; 65295.26873394892 ; 298496.04249918304 ; 1.458622475524932E7 ; 3.3365746413528558E7 ; 41174.00000000001
174 ; 66033.04699509965 ; 299613.8095457144 ; 1.4651520023983268E7 ; 3.366424245602774E7 ; 41412.00000000001
175 ; 66359.8608945458 ; 300727.5498174274 ; 1.4717553070978368E7 ; 3.396385626557346E7 ; 41650.00000000001
176 ; 66163.35684879628 ; 301837.2368573238 ; 1.4783912931872914E7 ; 3.4264583815390885E7 ; 41888.00000000001
177 ; 66801.76052991269 ; 302942.8444041202 ; 1.485007628872171E7 ; 3.456642105224821E7 ; 42126.00000000001
178 ; 67211.7189144605 ; 304044.34638945037 ; 1.4916878049251623E7 ; 3.486936389665233E7 ; 42364.00000000001
179 ; 67136.5127271231 ; 305141.71693517355 ; 1.4984089768166084E7 ; 3.517340824304178E7 ; 42602.00000000001
180 ; 67560.05768862981 ; 306234.9303507848 ; 1.5051226280893207E7 ; 3.5478549959976956E7 ; 42840.00000000001
181 ; 67784.55903363181 ; 307323.9611309239 ; 1.5118786338581836E7 ; 3.5784784890327744E7 ; 43078.00000000001
