CSV File for the Network on Day 224
1 - Minute m 
2 - Power Consumed at minute m 
3 - Power Produced at minute m 
4 - Energy Consumed since the beginning of the day 
5 - Energy Produced since the beginning of the day 
6 - Energy Lost since the beginning of the day 
 
No Production city : 2, Producer : 1
No Production city : 4, Producer : 1
No Production city : 4, Producer : 1
 
0 ; 27371.25070047223 ; 91207.08654229538 ; 0.0 ; 0.0 ; 0.0
1 ; 29283.180684337098 ; 90343.0978329504 ; 27371.25070047223 ; 91207.08654229538 ; 238.00000000000003
2 ; 30701.86179634016 ; 89539.1258027349 ; 56654.43138480933 ; 181550.18437524576 ; 476.00000000000006
3 ; 32609.39004240163 ; 88802.53628082768 ; 87356.2931811495 ; 271089.3101779807 ; 714.0000000000001
4 ; 34062.215098725304 ; 88141.15776671207 ; 119965.68322355112 ; 359891.8464588084 ; 952.0000000000001
5 ; 35920.3764426335 ; 87563.07188268006 ; 154027.89832227642 ; 448033.0042255205 ; 1190.0000000000002
6 ; 37646.56509165246 ; 87076.30526313897 ; 189948.27476490993 ; 535596.0761082005 ; 1428.0000000000002
7 ; 39595.251517575205 ; 86688.42515232164 ; 227594.83985656238 ; 622672.3813713394 ; 1666.0000000000002
8 ; 41627.75693300825 ; 86406.06347133165 ; 267190.09137413756 ; 709360.8065236611 ; 1904.0000000000002
9 ; 43040.812374207584 ; 86234.42088519028 ; 308817.8483071458 ; 795766.8699949927 ; 2142.0000000000005
10 ; 44267.82909934508 ; 86176.82469433406 ; 351858.6606813534 ; 882001.290880183 ; 2380.0000000000005
11 ; 46097.88703058283 ; 86234.42088519028 ; 396126.4897806985 ; 968178.115574517 ; 2618.0000000000005
12 ; 47764.1087525647 ; 86406.06347133165 ; 442224.3768112813 ; 1054412.5364597074 ; 2856.0000000000005
13 ; 49469.532363569706 ; 86688.42515232164 ; 489988.485563846 ; 1140818.5999310391 ; 3094.0000000000005
14 ; 50878.996073188115 ; 87076.30526313873 ; 539458.0179274157 ; 1227507.0250833607 ; 3332.0000000000005
15 ; 52224.698979440574 ; 87563.07188268006 ; 590337.0140006038 ; 1314583.3303464996 ; 3570.0000000000005
16 ; 53936.19988673688 ; 88141.15776671207 ; 642561.7129800444 ; 1402146.4022291796 ; 3808.0000000000005
17 ; 54984.22119866396 ; 88802.53628082747 ; 696497.9128667813 ; 1490287.5599958918 ; 4046.0000000000005
18 ; 56372.83497000725 ; 89539.12580273511 ; 751482.1340654453 ; 1579090.0962767191 ; 4284.000000000001
19 ; 58002.85166098554 ; 90343.0978329504 ; 807854.9690354526 ; 1668629.2220794542 ; 4522.000000000001
20 ; 59516.532984229445 ; 91207.08654229558 ; 865857.8206964381 ; 1758972.3199124045 ; 4760.000000000001
21 ; 61098.19874112043 ; 92124.31184017388 ; 925374.3536806675 ; 1850179.4064547 ; 4998.000000000001
22 ; 62410.22466342649 ; 93088.63448024563 ; 986472.5524217879 ; 1942303.7182948738 ; 5236.000000000001
23 ; 63641.07236098123 ; 94094.56245606953 ; 1048882.7770852144 ; 2035392.3527751195 ; 5474.000000000001
24 ; 64738.83634062993 ; 95137.22550681094 ; 1112523.8494461956 ; 2129486.915231189 ; 5712.000000000001
25 ; 66178.47572887942 ; 96212.3309109655 ; 1177262.6857868256 ; 2224624.140738 ; 5950.000000000001
26 ; 67467.21021502736 ; 97316.11008687936 ; 1243441.161515705 ; 2320836.4716489655 ; 6188.000000000001
27 ; 68678.04599370505 ; 98445.26240980199 ; 1310908.3717307325 ; 2418152.5817358447 ; 6426.000000000001
28 ; 70216.8060829561 ; 99596.90026389826 ; 1379586.4177244375 ; 2516597.844145647 ; 6664.000000000001
29 ; 71321.30023640717 ; 100768.49763331353 ; 1449803.2238073936 ; 2616194.744409545 ; 6902.000000000001
30 ; 72298.23234479883 ; 101957.84337540221 ; 1521124.5240438008 ; 2716963.242042858 ; 7140.000000000001
31 ; 73639.9105067205 ; 103162.99957369082 ; 1593422.7563885995 ; 2818921.08541826 ; 7378.000000000001
32 ; 75120.83745786302 ; 104382.26491656917 ; 1667062.66689532 ; 2922084.084991951 ; 7616.000000000001
33 ; 76277.99741080374 ; 105614.14279473925 ; 1742183.5043531829 ; 3026466.34990852 ; 7854.000000000001
34 ; 76968.15508315203 ; 106857.3136862252 ; 1818461.5017639867 ; 3132080.4927032595 ; 8092.000000000001
35 ; 78165.328142092 ; 108110.61135350153 ; 1895429.6568471387 ; 3238937.8063894846 ; 8330.000000000002
36 ; 79418.95942209529 ; 109373.0023802767 ; 1973594.9849892308 ; 3347048.417742986 ; 8568.000000000002
37 ; 80698.53598089759 ; 110643.56860437094 ; 2053013.944411326 ; 3456421.420123263 ; 8806.000000000002
38 ; 81829.96644687485 ; 111921.49204451752 ; 2133712.4803922237 ; 3567064.988727634 ; 9044.000000000002
39 ; 82476.5476558213 ; 113206.0419646703 ; 2215542.4468390984 ; 3678986.480772151 ; 9282.000000000002
40 ; 83631.9829162942 ; 114496.56376478079 ; 2298018.9944949197 ; 3792192.5227368213 ; 9520.000000000002
41 ; 85017.97605848894 ; 115792.46942948754 ; 2381650.977411214 ; 3906689.086501602 ; 9758.000000000002
42 ; 85206.14094734045 ; 117093.2293045315 ; 2466668.953469703 ; 4022481.5559310894 ; 9996.000000000002
43 ; 86453.9643461763 ; 118398.36500459601 ; 2551875.0944170435 ; 4139574.785235621 ; 10234.000000000002
44 ; 87249.836131753 ; 119707.44328570762 ; 2638329.05876322 ; 4257973.150240217 ; 10472.000000000002
45 ; 88630.75631497316 ; 121020.07074065924 ; 2725578.894894973 ; 4377680.593525925 ; 10710.000000000002
46 ; 89426.45149489137 ; 122335.88919751885 ; 2814209.6512099463 ; 4498700.6642665835 ; 10948.000000000002
47 ; 90242.75695798789 ; 123654.57171963304 ; 2903636.1027048375 ; 4621036.553464103 ; 11186.000000000002
48 ; 90766.45218351271 ; 124975.81912105292 ; 2993878.8596628252 ; 4744691.125183736 ; 11424.000000000002
49 ; 91731.52960074568 ; 126299.35692441292 ; 3084645.3118463377 ; 4869666.9443047885 ; 11662.000000000002
50 ; 92638.50965034553 ; 127624.93269933783 ; 3176376.8414470833 ; 4995966.301229201 ; 11900.000000000002
51 ; 93220.93722336707 ; 128952.31372876052 ; 3269015.3510974287 ; 5123591.233928539 ; 12138.000000000002
52 ; 94200.54749440675 ; 130281.28495837827 ; 3362236.2883207956 ; 5252543.5476573 ; 12376.000000000002
53 ; 94728.22339216438 ; 131611.64719108766 ; 3456436.8358152024 ; 5382824.832615678 ; 12614.000000000002
54 ; 95734.3339644992 ; 132943.215493817 ; 3551165.059207367 ; 5514436.479806766 ; 12852.000000000002
55 ; 96359.09188686147 ; 134275.81778889013 ; 3646899.393171866 ; 5647379.695300583 ; 13090.000000000002
56 ; 97027.7280291913 ; 135609.2936060427 ; 3743258.485058727 ; 5781655.513089473 ; 13328.000000000002
57 ; 97693.44270026525 ; 136943.49297458495 ; 3840286.2130879187 ; 5917264.806695516 ; 13566.000000000002
58 ; 97901.5794258426 ; 138278.27543807548 ; 3937979.655788184 ; 6054208.299670101 ; 13804.000000000002
59 ; 98995.12751769695 ; 139613.50917630055 ; 4035881.2352140266 ; 6192486.575108177 ; 14042.000000000002
60 ; 99658.37820512294 ; 140949.0702214288 ; 4134876.3627317236 ; 6332100.084284478 ; 14280.000000000002
61 ; 100070.68999221639 ; 142284.84175697822 ; 4234534.7409368465 ; 6473049.154505907 ; 14518.000000000002
62 ; 100628.04696140552 ; 143620.7134897425 ; 4334605.430929063 ; 6615333.996262885 ; 14756.000000000002
63 ; 100364.32925699197 ; 144956.58108611737 ; 4435233.477890468 ; 6758954.709752628 ; 14994.000000000002
64 ; 101171.31525350586 ; 146292.34566537608 ; 4535597.80714746 ; 6903911.290838745 ; 15232.000000000002
65 ; 102414.7774655473 ; 147627.91334339697 ; 4636769.122400966 ; 7050203.636504121 ; 15470.000000000002
66 ; 103057.74871798551 ; 148963.19482116558 ; 4739183.899866513 ; 7197831.549847518 ; 15708.000000000002
67 ; 103190.35608126236 ; 150298.10501308198 ; 4842241.648584498 ; 7346794.744668684 ; 15946.000000000002
68 ; 103664.92654520394 ; 151632.56271071555 ; 4945432.00466576 ; 7497092.849681766 ; 16184.000000000002
69 ; 103645.67736041096 ; 152966.49027817833 ; 5049096.931210964 ; 7648725.412392481 ; 16422.000000000004
70 ; 104353.65546438858 ; 154299.81337574875 ; 5152742.608571375 ; 7801691.902670659 ; 16660.000000000004
71 ; 104327.22994045142 ; 155632.46070877416 ; 5257096.264035763 ; 7955991.716046408 ; 16898.000000000004
72 ; 104847.90811036299 ; 156964.3637992306 ; 5361423.493976215 ; 8111624.176755182 ; 17136.000000000004
73 ; 105616.16286900787 ; 158295.45677761873 ; 5466271.402086578 ; 8268588.540554413 ; 17374.000000000004
74 ; 105625.07692775286 ; 159625.6761931418 ; 5571887.564955587 ; 8426883.99733203 ; 17612.000000000004
75 ; 105793.7131979977 ; 160954.96084034024 ; 5677512.64188334 ; 8586509.673525173 ; 17850.000000000004
76 ; 106056.11375593461 ; 162283.25160056335 ; 5783306.3550813375 ; 8747464.634365514 ; 18088.000000000004
77 ; 106456.18776463944 ; 163610.491296834 ; 5889362.468837272 ; 8909747.885966077 ; 18326.000000000004
78 ; 106766.3173238982 ; 164936.62456082125 ; 5995818.656601911 ; 9073358.37726291 ; 18564.000000000004
79 ; 107268.95496323367 ; 166261.5977107712 ; 6102584.973925809 ; 9238295.001823733 ; 18802.000000000004
80 ; 107346.27839891834 ; 167585.35863937144 ; 6209853.928889043 ; 9404556.599534504 ; 19040.000000000004
81 ; 107301.12563461381 ; 168907.85671062735 ; 6317200.207287961 ; 9572141.958173875 ; 19278.000000000004
82 ; 107277.5636475433 ; 170229.04266492926 ; 6424501.332922574 ; 9741049.814884502 ; 19516.000000000004
83 ; 107679.14559329281 ; 171548.86853156812 ; 6531778.896570117 ; 9911278.85754943 ; 19754.000000000004
84 ; 107639.42579187735 ; 172867.2875480365 ; 6639458.04216341 ; 1.0082827726080999E7 ; 19992.000000000004
85 ; 107493.59850316995 ; 174184.25408551568 ; 6747097.467955288 ; 1.0255695013629036E7 ; 20230.000000000004
86 ; 107585.50590216754 ; 175499.72358000965 ; 6854591.066458457 ; 1.0429879267714553E7 ; 20468.000000000004
87 ; 108185.52837488557 ; 176813.65246863954 ; 6962176.572360625 ; 1.0605378991294563E7 ; 20706.000000000004
88 ; 107848.66509558714 ; 178125.99813065786 ; 7070362.10073551 ; 1.0782192643763203E7 ; 20944.000000000004
89 ; 107845.81182713048 ; 179436.71883278727 ; 7178210.765831097 ; 1.0960318641893862E7 ; 21182.000000000004
90 ; 108042.06968452607 ; 180745.77367852052 ; 7286056.577658228 ; 1.1139755360726649E7 ; 21420.000000000004
91 ; 107536.98705573169 ; 182053.1225610581 ; 7394098.647342754 ; 1.132050113440517E7 ; 21658.000000000004
92 ; 107532.29119855391 ; 183358.72611958536 ; 7501635.6343984855 ; 1.1502554256966228E7 ; 21896.000000000004
93 ; 107323.77057406164 ; 184662.54569862128 ; 7609167.925597039 ; 1.1685912983085813E7 ; 22134.000000000004
94 ; 107252.365602005 ; 185964.5433101928 ; 7716491.6961711 ; 1.1870575528784433E7 ; 22372.000000000004
95 ; 107510.21503404519 ; 187264.68159861313 ; 7823744.0617731055 ; 1.2056540072094627E7 ; 22610.000000000004
96 ; 107350.65963640677 ; 188562.92380765997 ; 7931254.276807151 ; 1.224380475369324E7 ; 22848.000000000004
97 ; 106795.32619720079 ; 189859.2337499686 ; 8038604.936443558 ; 1.24323676775009E7 ; 23086.000000000004
98 ; 106816.82217617876 ; 191153.57577847087 ; 8145400.262640758 ; 1.2622226911250869E7 ; 23324.000000000004
99 ; 106496.96399125738 ; 192445.91475972455 ; 8252217.084816937 ; 1.281338048702934E7 ; 23562.000000000004
100 ; 106066.18467163111 ; 193736.21604899262 ; 8358714.048808195 ; 1.3005826401789065E7 ; 23800.000000000004
101 ; 105928.60479478494 ; 195024.4454669423 ; 8464780.233479826 ; 1.3199562617838059E7 ; 24038.000000000004
102 ; 105496.40651650901 ; 196310.56927784442 ; 8570708.838274611 ; 1.3394587063305002E7 ; 24276.000000000004
103 ; 105065.91177317286 ; 197594.55416916532 ; 8676205.24479112 ; 1.3590897632582847E7 ; 24514.000000000004
104 ; 105395.681379121 ; 198876.3672324499 ; 8781271.156564293 ; 1.3788492186752012E7 ; 24752.000000000004
105 ; 104601.91094010632 ; 200155.9759454051 ; 8886666.837943414 ; 1.3987368553984461E7 ; 24990.000000000004
106 ; 104231.50403575819 ; 201433.34815509786 ; 8991268.748883521 ; 1.4187524529929867E7 ; 25228.000000000004
107 ; 104077.87430069702 ; 202708.45206219077 ; 9095500.252919279 ; 1.4388957878084965E7 ; 25466.000000000004
108 ; 103406.62070687432 ; 203981.25620614272 ; 9199578.127219977 ; 1.4591666330147156E7 ; 25704.000000000004
109 ; 103028.7127553668 ; 205251.72945130913 ; 9302984.747926852 ; 1.4795647586353298E7 ; 25942.000000000004
110 ; 102636.68814419105 ; 206519.84097388003 ; 9406013.460682219 ; 1.5000899315804608E7 ; 26180.000000000004
111 ; 102204.1298086692 ; 207785.56024960018 ; 9508650.14882641 ; 1.5207419156778488E7 ; 26418.000000000004
112 ; 101704.86015368399 ; 209048.85704221838 ; 9610854.278635079 ; 1.5415204717028089E7 ; 26656.000000000004
113 ; 101058.99061576348 ; 210309.7013926185 ; 9712559.138788763 ; 1.5624253574070306E7 ; 26894.000000000004
114 ; 100983.10210882968 ; 211568.06360858705 ; 9813618.129404526 ; 1.5834563275462925E7 ; 27132.000000000004
115 ; 99900.68093090058 ; 212823.91425517612 ; 9914601.231513357 ; 1.6046131339071512E7 ; 27370.000000000004
116 ; 99651.97963151333 ; 214077.2241456237 ; 1.0014501912444258E7 ; 1.6258955253326688E7 ; 27608.000000000004
117 ; 98990.45517956 ; 215327.9643327951 ; 1.0114153892075771E7 ; 1.647303247747231E7 ; 27846.000000000004
118 ; 98306.95654403219 ; 216576.1061011133 ; 1.021314434725533E7 ; 1.6688360441805106E7 ; 28084.000000000004
119 ; 97675.72534665883 ; 217821.620958947 ; 1.0311451303799363E7 ; 1.690493654790622E7 ; 28322.000000000004
120 ; 96959.44674409472 ; 219064.48063142813 ; 1.0409127029146021E7 ; 1.7122758168865167E7 ; 28560.000000000004
121 ; 96716.49181974774 ; 220304.6570536725 ; 1.0506086475890117E7 ; 1.7341822649496596E7 ; 28798.000000000004
122 ; 95673.0232738815 ; 221542.12236437856 ; 1.0602802967709865E7 ; 1.7562127306550268E7 ; 29036.000000000004
123 ; 95054.60300648665 ; 222776.84889978167 ; 1.0698475990983747E7 ; 1.7783669428914648E7 ; 29274.000000000004
124 ; 94104.32226371963 ; 224008.80918794233 ; 1.0793530593990233E7 ; 1.800644627781443E7 ; 29512.000000000004
125 ; 93204.91852269374 ; 225237.97594334846 ; 1.0887634916253952E7 ; 1.823045508700237E7 ; 29750.000000000004
126 ; 92562.1027228977 ; 226464.3220618133 ; 1.0980839834776646E7 ; 1.845569306294572E7 ; 29988.000000000004
127 ; 91914.4177427131 ; 227687.82061565106 ; 1.1073401937499544E7 ; 1.8682157385007534E7 ; 30226.000000000004
128 ; 90673.6280714501 ; 228908.4448491151 ; 1.1165316355242256E7 ; 1.8909845205623183E7 ; 30464.000000000004
129 ; 90423.3289899678 ; 230126.1681740823 ; 1.1255989983313706E7 ; 1.91387536504723E7 ; 30702.000000000004
130 ; 89698.10701645791 ; 231340.9641659703 ; 1.1346413312303673E7 ; 1.936887981864638E7 ; 30940.000000000004
131 ; 88512.9827796586 ; 232552.80655987427 ; 1.143611141932013E7 ; 1.960022078281235E7 ; 31178.000000000004
132 ; 87751.13174507652 ; 233761.66924691017 ; 1.152462440209979E7 ; 1.9832773589372225E7 ; 31416.000000000004
133 ; 86867.6258614089 ; 234967.52627075402 ; 1.1612375533844866E7 ; 2.0066535258619137E7 ; 31654.000000000004
134 ; 85882.46523681657 ; 236170.35182436495 ; 1.1699243159706274E7 ; 2.030150278488989E7 ; 31892.000000000004
135 ; 84587.75472098644 ; 237370.12024688316 ; 1.178512562494309E7 ; 2.0537673136714257E7 ; 32130.000000000004
136 ; 83514.20482511498 ; 238566.80602069228 ; 1.1869713379664076E7 ; 2.077504325696114E7 ; 32368.000000000004
137 ; 82620.56048777475 ; 239760.3837686373 ; 1.1953227584489191E7 ; 2.1013610062981833E7 ; 32606.000000000004
138 ; 81752.59219446866 ; 240950.82825139022 ; 1.2035848144976966E7 ; 2.125337044675047E7 ; 32844.00000000001
139 ; 80542.81838686073 ; 242138.11436495485 ; 1.2117600737171434E7 ; 2.149432127500186E7 ; 33082.00000000001
140 ; 79966.39256830433 ; 243322.2171383037 ; 1.2198143555558294E7 ; 2.1736459389366817E7 ; 33320.00000000001
141 ; 78631.98661574208 ; 244503.11173113945 ; 1.22781099481266E7 ; 2.1979781606505122E7 ; 33558.00000000001
142 ; 77219.1451029253 ; 245680.77343177528 ; 1.235674193474234E7 ; 2.222428471823626E7 ; 33796.00000000001
143 ; 76491.01504811447 ; 246855.17765512734 ; 1.2433961079845266E7 ; 2.2469965491668034E7 ; 34034.00000000001
144 ; 74961.57067260635 ; 248026.2999408131 ; 1.2510452094893381E7 ; 2.271682066932316E7 ; 34272.00000000001
145 ; 75337.93949584312 ; 249194.11595135112 ; 1.2585413665565988E7 ; 2.2964846969263975E7 ; 34510.00000000001
146 ; 74839.60254909797 ; 250358.60147045623 ; 1.2660751605061831E7 ; 2.3214041085215326E7 ; 34748.00000000001
147 ; 74541.3128291226 ; 251519.7324014254 ; 1.273559120761093E7 ; 2.3464399686685782E7 ; 34986.00000000001
148 ; 74192.50355144362 ; 252677.48476561025 ; 1.2810132520440051E7 ; 2.371591941908721E7 ; 35224.00000000001
149 ; 73836.84280722568 ; 253831.83470097106 ; 1.2884325023991495E7 ; 2.396859690385282E7 ; 35462.00000000001
150 ; 73802.11037258447 ; 254982.75846070843 ; 1.2958161866798721E7 ; 2.4222428738553792E7 ; 35700.00000000001
151 ; 73546.72487619231 ; 256130.23241196945 ; 1.3031963977171306E7 ; 2.44774114970145E7 ; 35938.00000000001
152 ; 73164.21214400012 ; 257274.23303462344 ; 1.3105510702047497E7 ; 2.473354172942647E7 ; 36176.00000000001
153 ; 72560.7405173231 ; 258414.73692010468 ; 1.3178674914191497E7 ; 2.499081596246109E7 ; 36414.00000000001
154 ; 72571.24405750813 ; 259551.7207703189 ; 1.3251235654708821E7 ; 2.5249230699381195E7 ; 36652.00000000001
155 ; 72069.05248508291 ; 260685.16139660997 ; 1.332380689876633E7 ; 2.5508782420151513E7 ; 36890.00000000001
156 ; 71666.52146419902 ; 261815.0357187841 ; 1.3395875951251412E7 ; 2.5769467581548125E7 ; 37128.00000000001
157 ; 71424.62913167932 ; 262941.3207641888 ; 1.346754247271561E7 ; 2.603128261726691E7 ; 37366.00000000001
158 ; 71688.50996695543 ; 264063.99366684374 ; 1.353896710184729E7 ; 2.6294223938031096E7 ; 37604.00000000001
159 ; 70682.04656412349 ; 265183.031666622 ; 1.3610655611814244E7 ; 2.655828793169794E7 ; 37842.00000000001
160 ; 70660.90716540036 ; 266298.4121084775 ; 1.3681337658378366E7 ; 2.682347096336456E7 ; 38080.00000000001
161 ; 70185.85198716159 ; 267410.1124417182 ; 1.3751998565543767E7 ; 2.7089769375473037E7 ; 38318.00000000001
162 ; 69972.41168294441 ; 268518.11021932226 ; 1.3822184417530928E7 ; 2.7357179487914756E7 ; 38556.00000000001
163 ; 69927.70600782166 ; 269622.3830972944 ; 1.3892156829213873E7 ; 2.7625697598134078E7 ; 38794.00000000001
164 ; 69277.84870146052 ; 270722.9088340623 ; 1.3962084535221694E7 ; 2.7895319981231373E7 ; 39032.00000000001
165 ; 68741.91021262301 ; 271819.6652899091 ; 1.4031362383923154E7 ; 2.8166042890065435E7 ; 39270.00000000001
166 ; 68291.89798410781 ; 272912.6304264428 ; 1.4100104294135777E7 ; 2.8437862555355344E7 ; 39508.00000000001
167 ; 67945.12637858008 ; 274001.7823060979 ; 1.4168396192119885E7 ; 2.8710775185781788E7 ; 39746.00000000001
168 ; 67907.44988963421 ; 275087.0990916706 ; 1.4236341318498466E7 ; 2.8984776968087886E7 ; 39984.00000000001
169 ; 67300.3824842928 ; 276168.5590458842 ; 1.43042487683881E7 ; 2.9259864067179557E7 ; 40222.00000000001
170 ; 66938.7153047767 ; 277246.1405309841 ; 1.4371549150872393E7 ; 2.953603262622544E7 ; 40460.00000000001
171 ; 66654.83190655793 ; 278319.822008361 ; 1.443848786617717E7 ; 2.9813278766756427E7 ; 40698.00000000001
172 ; 66217.28091284723 ; 279389.58203820104 ; 1.4505142698083727E7 ; 3.0091598588764787E7 ; 40936.00000000001
173 ; 65854.41435890619 ; 280455.3992791608 ; 1.4571359978996573E7 ; 3.0370988170802988E7 ; 41174.00000000001
174 ; 66321.59570717509 ; 281517.25248806796 ; 1.463721439335548E7 ; 3.065144357008215E7 ; 41412.00000000001
175 ; 66397.6347504869 ; 282575.12051964446 ; 1.4703535989062654E7 ; 3.093296082257022E7 ; 41650.00000000001
176 ; 66427.41129405939 ; 283628.98232625244 ; 1.4769933623813141E7 ; 3.1215535943089865E7 ; 41888.00000000001
177 ; 67059.39405509012 ; 284678.81695766107 ; 1.4836361035107201E7 ; 3.149916492541612E7 ; 42126.00000000001
178 ; 67043.35480031688 ; 285724.6035608344 ; 1.4903420429162292E7 ; 3.178384374237378E7 ; 42364.00000000001
179 ; 66835.24416515298 ; 286766.32137973834 ; 1.497046378396261E7 ; 3.2069568345934615E7 ; 42602.00000000001
180 ; 67639.29006439814 ; 287803.94975516613 ; 1.5037299028127762E7 ; 3.2356334667314354E7 ; 42840.00000000001
181 ; 67304.52584406716 ; 288837.46812458197 ; 1.510493831819216E7 ; 3.264413861706952E7 ; 43078.00000000001
182 ; 68182.09138889294 ; 289866.85602198145 ; 1.5172242844036227E7 ; 3.2932976085194103E7 ; 43316.00000000001
