CSV File for the Network on Day 245
1 - Minute m 
2 - Power Consumed at minute m 
3 - Power Produced at minute m 
4 - Energy Consumed since the beginning of the day 
5 - Energy Produced since the beginning of the day 
6 - Energy Lost since the beginning of the day 
 
No Production city : 2, Producer : 1
No Production city : 4, Producer : 1
No Production city : 4, Producer : 1
 
0 ; 31459.8935652703 ; 109112.89603920963 ; 0.0 ; 0.0 ; 0.0
1 ; 33531.68167983966 ; 108605.17993073179 ; 31459.8935652703 ; 109112.89603920963 ; 238.00000000000003
2 ; 34696.69133394019 ; 108145.36107864523 ; 64991.57524510996 ; 217718.07596994142 ; 476.00000000000006
3 ; 36604.85157072705 ; 107735.1374409331 ; 99688.26657905015 ; 325863.43704858667 ; 714.0000000000001
4 ; 38072.17034592901 ; 107376.09035293203 ; 136293.1181497772 ; 433598.57448951976 ; 952.0000000000001
5 ; 39307.727062645674 ; 107069.65804005653 ; 174365.28849570622 ; 540974.6648424518 ; 1190.0000000000002
6 ; 40994.17267294407 ; 106817.10980307557 ; 213673.01555835188 ; 648044.3228825084 ; 1428.0000000000002
7 ; 42744.34148652406 ; 106619.52184799103 ; 254667.18823129596 ; 754861.432685584 ; 1666.0000000000002
8 ; 44171.80377569085 ; 106477.75575938718 ; 297411.52971782 ; 861480.954533575 ; 1904.0000000000002
9 ; 45500.79934534625 ; 106392.44057527637 ; 341583.33349351084 ; 967958.7102929621 ; 2142.0000000000005
10 ; 47214.65494747206 ; 106363.95930823182 ; 387084.13283885707 ; 1074351.1508682384 ; 2380.0000000000005
11 ; 48665.33616897899 ; 106392.44057527637 ; 434298.7877863291 ; 1180715.1101764701 ; 2618.0000000000005
12 ; 49714.28263342756 ; 106477.75575938718 ; 482964.1239553081 ; 1287107.5507517464 ; 2856.0000000000005
13 ; 51435.15180061763 ; 106619.52184799103 ; 532678.4065887356 ; 1393585.3065111337 ; 3094.0000000000005
14 ; 52684.037174463156 ; 106817.10980307557 ; 584113.5583893532 ; 1500204.8283591247 ; 3332.0000000000005
15 ; 54285.237544576994 ; 107069.65804005653 ; 636797.5955638164 ; 1607021.9381622004 ; 3570.0000000000005
16 ; 55561.235800285474 ; 107376.09035293203 ; 691082.8331083934 ; 1714091.5962022569 ; 3808.0000000000005
17 ; 56544.40892147207 ; 107735.13744093299 ; 746644.0689086788 ; 1821467.6865551888 ; 4046.0000000000005
18 ; 58059.81046756893 ; 108145.36107864535 ; 803188.4778301509 ; 1929202.8239961218 ; 4284.000000000001
19 ; 59677.676950290464 ; 108605.17993073168 ; 861248.2882977198 ; 2037348.185074767 ; 4522.000000000001
20 ; 61009.837625414526 ; 109112.89603920975 ; 920925.9652480102 ; 2145953.3650054988 ; 4760.000000000001
21 ; 61596.37755901394 ; 109666.72109470963 ; 981935.8028734247 ; 2255066.2610447085 ; 4998.000000000001
22 ; 63384.68965705577 ; 110264.80172823345 ; 1043532.1804324386 ; 2364732.9821394184 ; 5236.000000000001
23 ; 64417.938322413 ; 110905.2432102167 ; 1106916.8700894944 ; 2474997.7838676516 ; 5474.000000000001
24 ; 65617.06921173705 ; 111586.13110344378 ; 1171334.8084119074 ; 2585903.027077868 ; 5712.000000000001
25 ; 67119.38632867193 ; 112305.55057226148 ; 1236951.8776236444 ; 2697489.158181312 ; 5950.000000000001
26 ; 68100.85793731007 ; 113061.60319250762 ; 1304071.2639523163 ; 2809794.7087535737 ; 6188.000000000001
27 ; 69297.83391522263 ; 113852.42122810503 ; 1372172.1218896264 ; 2922856.3119460815 ; 6426.000000000001
28 ; 70677.8757100097 ; 114676.17943811389 ; 1441469.955804849 ; 3036708.7331741867 ; 6664.000000000001
29 ; 71984.9149401985 ; 115531.1045516742 ; 1512147.8315148586 ; 3151384.9126123004 ; 6902.000000000001
30 ; 73073.79631429042 ; 116415.4825991507 ; 1584132.746455057 ; 3266916.0171639747 ; 7140.000000000001
31 ; 73649.52282613114 ; 117327.66431868919 ; 1657206.5427693476 ; 3383331.4997631256 ; 7378.000000000001
32 ; 74719.81900315736 ; 118266.0688716968 ; 1730856.0655954788 ; 3500659.1640818147 ; 7616.000000000001
33 ; 75621.05419368391 ; 119229.186102052 ; 1805575.884598636 ; 3618925.2329535116 ; 7854.000000000001
34 ; 76726.93872355548 ; 120215.57756553275 ; 1881196.93879232 ; 3738154.419055564 ; 8092.000000000001
35 ; 77819.03075236801 ; 121223.87654103013 ; 1957923.8775158755 ; 3858369.9966210965 ; 8330.000000000002
36 ; 78911.51577914372 ; 122252.78721610499 ; 2035742.9082682435 ; 3979593.8731621266 ; 8568.000000000002
37 ; 80232.80055926542 ; 123301.08321836095 ; 2114654.424047387 ; 4101846.6603782317 ; 8806.000000000002
38 ; 80986.42104876877 ; 124367.60564245198 ; 2194887.2246066527 ; 4225147.743596593 ; 9044.000000000002
39 ; 81966.09047801628 ; 125451.26070140865 ; 2275873.6456554215 ; 4349515.349239045 ; 9282.000000000002
40 ; 82372.4691602453 ; 126551.0171110826 ; 2357839.7361334376 ; 4474966.609940453 ; 9520.000000000002
41 ; 83488.68687187233 ; 127665.90329830999 ; 2440212.205293683 ; 4601517.627051536 ; 9758.000000000002
42 ; 84642.58741488439 ; 128795.00450711847 ; 2523700.892165555 ; 4729183.530349846 ; 9996.000000000002
43 ; 85326.374083484 ; 129937.4598630006 ; 2608343.4795804396 ; 4857978.534856965 ; 10234.000000000002
44 ; 85950.70032485665 ; 131092.4594429194 ; 2693669.8536639237 ; 4987915.994719965 ; 10472.000000000002
45 ; 86638.5089748319 ; 132259.24138817895 ; 2779620.5539887804 ; 5119008.4541628845 ; 10710.000000000002
46 ; 87625.31835735813 ; 133437.08908842987 ; 2866259.0629636124 ; 5251267.695551064 ; 10948.000000000002
47 ; 88676.28008356977 ; 134625.32845770777 ; 2953884.3813209706 ; 5384704.784639494 ; 11186.000000000002
48 ; 89035.85897580607 ; 135823.3253173476 ; 3042560.6614045403 ; 5519330.113097201 ; 11424.000000000002
49 ; 89880.55370090218 ; 137030.48289569272 ; 3131596.5203803466 ; 5655153.4384145485 ; 11662.000000000002
50 ; 90547.60250795733 ; 138246.23945056647 ; 3221477.0740812486 ; 5792183.921310241 ; 11900.000000000002
51 ; 91361.37654180675 ; 139470.0660173415 ; 3312024.676589206 ; 5930430.160760808 ; 12138.000000000002
52 ; 91966.64894339345 ; 140701.4642829965 ; 3403386.0531310127 ; 6069900.22677815 ; 12376.000000000002
53 ; 92751.77856835022 ; 141939.96458467015 ; 3495352.702074406 ; 6210601.691061147 ; 12614.000000000002
54 ; 93331.26911768697 ; 143185.12402981066 ; 3588104.4806427564 ; 6352541.655645817 ; 12852.000000000002
55 ; 93805.47897454428 ; 144436.52473398682 ; 3681435.7497604433 ; 6495726.779675627 ; 13090.000000000002
56 ; 94650.29408581012 ; 145693.7721717006 ; 3775241.228734988 ; 6640163.304409614 ; 13328.000000000002
57 ; 95432.35463628343 ; 146956.4936350566 ; 3869891.5228207977 ; 6785857.076581314 ; 13566.000000000002
58 ; 95943.03956547726 ; 148224.3367948602 ; 3965323.8774570813 ; 6932813.570216371 ; 13804.000000000002
59 ; 96369.38259851877 ; 149496.9683585744 ; 4061266.9170225584 ; 7081037.907011231 ; 14042.000000000002
60 ; 97487.59903320293 ; 150774.0728195484 ; 4157636.2996210773 ; 7230534.875369806 ; 14280.000000000002
61 ; 97464.63138126509 ; 152055.35129199622 ; 4255123.89865428 ; 7381308.9481893545 ; 14518.000000000002
62 ; 97850.14566372937 ; 153340.5204263405 ; 4352588.530035545 ; 7533364.299481351 ; 14756.000000000002
63 ; 98377.46546108392 ; 154629.31139971458 ; 4450438.675699274 ; 7686704.819907691 ; 14994.000000000002
64 ; 98827.34020567145 ; 155921.46897663362 ; 4548816.141160358 ; 7841334.131307406 ; 15232.000000000002
65 ; 99297.70244808594 ; 157216.75063507791 ; 4647643.481366029 ; 7997255.60028404 ; 15470.000000000002
66 ; 99601.95982073313 ; 158514.92575348265 ; 4746941.183814115 ; 8154472.350919118 ; 15708.000000000002
67 ; 100061.0136168564 ; 159815.77485437924 ; 4846543.143634848 ; 8312987.276672601 ; 15946.000000000002
68 ; 101150.59665347196 ; 161119.08890068968 ; 4946604.1572517045 ; 8472803.05152698 ; 16184.000000000002
69 ; 101006.63757566707 ; 162424.66864092363 ; 5047754.753905176 ; 8633922.14042767 ; 16422.000000000004
70 ; 101439.02490520079 ; 163732.32399977243 ; 5148761.391480844 ; 8796346.809068592 ; 16660.000000000004
71 ; 101746.12878345657 ; 165041.87351082702 ; 5250200.416386045 ; 8960079.133068364 ; 16898.000000000004
72 ; 102170.88685321607 ; 166353.1437883742 ; 5351946.545169502 ; 9125121.00657919 ; 17136.000000000004
73 ; 102624.60775798516 ; 167665.9690354353 ; 5454117.432022718 ; 9291474.150367565 ; 17374.000000000004
74 ; 102423.60253984752 ; 168980.19058541534 ; 5556742.039780703 ; 9459140.119403 ; 17612.000000000004
75 ; 102895.78118817712 ; 170295.65647491982 ; 5659165.642320551 ; 9628120.309988417 ; 17850.000000000004
76 ; 103242.75168412956 ; 171612.22104547435 ; 5762061.423508728 ; 9798415.966463337 ; 18088.000000000004
77 ; 103318.18259147368 ; 172929.74457204883 ; 5865304.175192857 ; 9970028.18750881 ; 18326.000000000004
78 ; 103539.16401417299 ; 174248.09291644383 ; 5968622.357784331 ; 1.014295793208086E7 ; 18564.000000000004
79 ; 104047.88243467285 ; 175567.13720374048 ; 6072161.521798504 ; 1.0317206024997303E7 ; 18802.000000000004
80 ; 103853.75818780652 ; 176886.7535201519 ; 6176209.404233176 ; 1.0492773162201043E7 ; 19040.000000000004
81 ; 104104.09076105972 ; 178206.82263073506 ; 6280063.1624209825 ; 1.0669659915721195E7 ; 19278.000000000004
82 ; 103955.19541896906 ; 179527.2297155427 ; 6384167.253182042 ; 1.084786673835193E7 ; 19516.000000000004
83 ; 104093.31388422757 ; 180847.8641228979 ; 6488122.448601011 ; 1.1027393968067473E7 ; 19754.000000000004
84 ; 104013.66611113319 ; 182168.61913857434 ; 6592215.762485239 ; 1.120824183219037E7 ; 19992.000000000004
85 ; 104099.79537543701 ; 183489.39176975813 ; 6696229.428596372 ; 1.1390410451328944E7 ; 20230.000000000004
86 ; 103877.8601198648 ; 184810.0825427494 ; 6800329.223971808 ; 1.1573899843098702E7 ; 20468.000000000004
87 ; 105038.63322018231 ; 186130.5953134424 ; 6904207.084091673 ; 1.1758709925641451E7 ; 20706.000000000004
88 ; 104374.04762977059 ; 187450.83708969166 ; 7009245.717311855 ; 1.1944840520954894E7 ; 20944.000000000004
89 ; 104454.2290655809 ; 188770.71786474297 ; 7113619.764941626 ; 1.2132291358044585E7 ; 21182.000000000004
90 ; 104283.56803783006 ; 190090.15046096453 ; 7218073.994007207 ; 1.2321062075909328E7 ; 21420.000000000004
91 ; 104473.59499924546 ; 191409.050383173 ; 7322357.562045038 ; 1.2511152226370292E7 ; 21658.000000000004
92 ; 104526.19460675238 ; 192727.33568090142 ; 7426831.157044283 ; 1.2702561276753465E7 ; 21896.000000000004
93 ; 104424.08181995958 ; 194044.92681900325 ; 7531357.351651035 ; 1.2895288612434367E7 ; 22134.000000000004
94 ; 104074.03905429113 ; 195361.74655603006 ; 7635781.433470995 ; 1.308933353925337E7 ; 22372.000000000004
95 ; 103938.34660422149 ; 196677.71982986602 ; 7739855.4725252865 ; 1.3284695285809401E7 ; 22610.000000000004
96 ; 104353.49006524091 ; 197992.77365013352 ; 7843793.819129508 ; 1.3481373005639268E7 ; 22848.000000000004
97 ; 103572.28573063403 ; 199306.83699692518 ; 7948147.309194749 ; 1.3679365779289402E7 ; 23086.000000000004
98 ; 103762.23522698562 ; 200619.84072544606 ; 8051719.594925383 ; 1.3878672616286328E7 ; 23324.000000000004
99 ; 103692.23141665083 ; 201931.71747618064 ; 8155481.830152369 ; 1.4079292457011774E7 ; 23562.000000000004
100 ; 103332.38997305176 ; 203242.40159022814 ; 8259174.06156902 ; 1.4281224174487954E7 ; 23800.000000000004
101 ; 103016.04470356362 ; 204551.82902947173 ; 8362506.451542072 ; 1.4484466576078182E7 ; 24038.000000000004
102 ; 102811.07586412437 ; 205859.9373012745 ; 8465522.496245636 ; 1.4689018405107655E7 ; 24276.000000000004
103 ; 103267.03892977335 ; 207166.665387414 ; 8568333.57210976 ; 1.4894878342408929E7 ; 24514.000000000004
104 ; 101996.01934021988 ; 208471.95367698767 ; 8671600.611039534 ; 1.5102045007796343E7 ; 24752.000000000004
105 ; 102180.23211490447 ; 209775.74390304193 ; 8773596.630379753 ; 1.531051696147333E7 ; 24990.000000000004
106 ; 101720.38589493919 ; 211077.9790826919 ; 8875776.862494657 ; 1.5520292705376374E7 ; 25228.000000000004
107 ; 101224.0124418029 ; 212378.60346051672 ; 8977497.248389596 ; 1.5731370684459066E7 ; 25466.000000000004
108 ; 100831.3577191569 ; 213677.56245502958 ; 9078721.260831399 ; 1.5943749287919583E7 ; 25704.000000000004
109 ; 100650.43953405239 ; 214974.8026080348 ; 9179552.618550556 ; 1.6157426850374613E7 ; 25942.000000000004
110 ; 99926.87686603922 ; 216270.27153669728 ; 9280203.058084609 ; 1.6372401652982648E7 ; 26180.000000000004
111 ; 99792.88773666139 ; 217563.9178881616 ; 9380129.934950648 ; 1.6588671924519345E7 ; 26418.000000000004
112 ; 98911.07836600592 ; 218855.6912965678 ; 9479922.82268731 ; 1.6806235842407506E7 ; 26656.000000000004
113 ; 98918.06487169451 ; 220145.5423423226 ; 9578833.901053315 ; 1.7025091533704072E7 ; 26894.000000000004
114 ; 98287.88820842691 ; 221433.4225134927 ; 9677751.96592501 ; 1.7245237076046396E7 ; 27132.000000000004
115 ; 98183.78384801223 ; 222719.28416919586 ; 9776039.854133436 ; 1.746667049855989E7 ; 27370.000000000004
116 ; 97498.43090174004 ; 224003.08050487447 ; 9874223.637981448 ; 1.7689389782729086E7 ; 27608.000000000004
117 ; 97192.48374553896 ; 225284.76551934198 ; 9971722.068883188 ; 1.791339286323396E7 ; 27846.000000000004
118 ; 96417.16777923105 ; 226564.29398350138 ; 1.0068914552628728E7 ; 1.8138677628753304E7 ; 28084.000000000004
119 ; 95744.93855653917 ; 227841.62141064007 ; 1.016533172040796E7 ; 1.8365241922736805E7 ; 28322.000000000004
120 ; 95121.48017557217 ; 229116.70402821235 ; 1.0261076658964498E7 ; 1.8593083544147447E7 ; 28560.000000000004
121 ; 94553.50991281103 ; 230389.4987510254 ; 1.035619813914007E7 ; 1.882220024817566E7 ; 28798.000000000004
122 ; 93606.42068366217 ; 231659.96315575147 ; 1.045075164905288E7 ; 1.9052589746926684E7 ; 29036.000000000004
123 ; 93588.21284560431 ; 232928.05545669125 ; 1.0544358069736542E7 ; 1.9284249710082434E7 ; 29274.000000000004
124 ; 92734.06077262759 ; 234193.73448272137 ; 1.0637946282582147E7 ; 1.9517177765539125E7 ; 29512.000000000004
125 ; 92470.84326764852 ; 235456.95965535956 ; 1.0730680343354775E7 ; 1.9751371500021845E7 ; 29750.000000000004
126 ; 91534.12290722641 ; 236717.69096788816 ; 1.0823151186622424E7 ; 1.9986828459677204E7 ; 29988.000000000004
127 ; 90334.01320847831 ; 237975.88896547776 ; 1.0914685309529651E7 ; 2.0223546150645092E7 ; 30226.000000000004
128 ; 89698.22302553974 ; 239231.514726258 ; 1.100501932273813E7 ; 2.046152203961057E7 ; 30464.000000000004
129 ; 88590.99449664708 ; 240484.52984328527 ; 1.109471754576367E7 ; 2.0700753554336827E7 ; 30702.000000000004
130 ; 88613.07267060736 ; 241734.89640735893 ; 1.1183308540260317E7 ; 2.0941238084180113E7 ; 30940.000000000004
131 ; 87450.06821533245 ; 242982.57699064224 ; 1.1271921612930924E7 ; 2.118297298058747E7 ; 31178.000000000004
132 ; 86979.94965229172 ; 244227.53463104606 ; 1.1359371681146257E7 ; 2.1425955557578113E7 ; 31416.000000000004
133 ; 85741.75936844794 ; 245469.73281733482 ; 1.1446351630798548E7 ; 2.167018309220916E7 ; 31654.000000000004
134 ; 84854.18611200241 ; 246709.13547491864 ; 1.1532093390166996E7 ; 2.1915652825026494E7 ; 31892.000000000004
135 ; 83622.77524642236 ; 247945.70695229567 ; 1.1616947576278998E7 ; 2.2162361960501414E7 ; 32130.000000000004
136 ; 83697.47687309339 ; 249179.4120081117 ; 1.170057035152542E7 ; 2.241030766745371E7 ; 32368.000000000004
137 ; 82099.7266932111 ; 250410.21579880634 ; 1.1784267828398515E7 ; 2.265948707946182E7 ; 32606.000000000004
138 ; 81685.45276324944 ; 251638.08386681502 ; 1.1866367555091726E7 ; 2.2909897295260627E7 ; 32844.00000000001
139 ; 80352.25141077464 ; 252862.9821293009 ; 1.1948053007854976E7 ; 2.3161535379127443E7 ; 33082.00000000001
140 ; 79134.22766647159 ; 254084.87686738843 ; 1.202840525926575E7 ; 2.3414398361256745E7 ; 33320.00000000001
141 ; 78918.84760269348 ; 255303.73471587535 ; 1.2107539486932222E7 ; 2.3668483238124132E7 ; 33558.00000000001
142 ; 77720.45969717647 ; 256519.5226533985 ; 1.2186458334534915E7 ; 2.3923786972840007E7 ; 33796.00000000001
143 ; 76859.53887431769 ; 257732.2079930324 ; 1.2264178794232091E7 ; 2.4180306495493405E7 ; 34034.00000000001
144 ; 75642.30204516143 ; 258941.7583732985 ; 1.2341038333106408E7 ; 2.4438038703486435E7 ; 34272.00000000001
145 ; 75571.92554103638 ; 260148.14174956648 ; 1.2416680635151569E7 ; 2.4696980461859733E7 ; 34510.00000000001
146 ; 75296.3589192614 ; 261351.32638582762 ; 1.2492252560692605E7 ; 2.49571286036093E7 ; 34748.00000000001
147 ; 75235.16634105022 ; 262551.2808468239 ; 1.2567548919611866E7 ; 2.5218479929995127E7 ; 34986.00000000001
148 ; 75057.83227028437 ; 263747.9739905145 ; 1.2642784085952915E7 ; 2.548103121084195E7 ; 35224.00000000001
149 ; 74707.77031395624 ; 264941.3749608654 ; 1.27178419182232E7 ; 2.5744779184832465E7 ; 35462.00000000001
150 ; 74268.82374401856 ; 266131.45318094525 ; 1.2792549688537156E7 ; 2.600972055979333E7 ; 35700.00000000001
151 ; 74266.06628155013 ; 267318.1783463152 ; 1.2866818512281176E7 ; 2.6275852012974277E7 ; 35938.00000000001
152 ; 73812.55659699289 ; 268501.52041869744 ; 1.2941084578562725E7 ; 2.654317019132059E7 ; 36176.00000000001
153 ; 73688.25637945696 ; 269681.44961991016 ; 1.3014897135159718E7 ; 2.6811671711739287E7 ; 36414.00000000001
154 ; 73631.92752795923 ; 270857.93642605783 ; 1.3088585391539175E7 ; 2.70813531613592E7 ; 36652.00000000001
155 ; 73053.98227583939 ; 272030.95156196336 ; 1.3162217319067134E7 ; 2.7352211097785257E7 ; 36890.00000000001
156 ; 72894.68764296801 ; 273200.4659958324 ; 1.3235271301342973E7 ; 2.762424204934722E7 ; 37128.00000000001
157 ; 72755.59985963951 ; 274366.45093413943 ; 1.330816598898594E7 ; 2.7897442515343055E7 ; 37366.00000000001
158 ; 72481.86274934858 ; 275528.87781672465 ; 1.338092158884558E7 ; 2.8171808966277193E7 ; 37604.00000000001
159 ; 72113.09400681098 ; 276687.71831209393 ; 1.345340345159493E7 ; 2.844733784409392E7 ; 37842.00000000001
160 ; 71819.36875308893 ; 277842.9443129113 ; 1.352551654560174E7 ; 2.872402556240601E7 ; 38080.00000000001
161 ; 71690.16630289328 ; 278994.52793167654 ; 1.359733591435483E7 ; 2.9001868506718922E7 ; 38318.00000000001
162 ; 70876.38640634292 ; 280142.441496579 ; 1.3669026080657722E7 ; 2.9280863034650598E7 ; 38556.00000000001
163 ; 70355.7311846864 ; 281286.65754752065 ; 1.3739902467064066E7 ; 2.9561005476147175E7 ; 38794.00000000001
164 ; 70373.00858305575 ; 282427.14883230126 ; 1.3810258198248751E7 ; 2.9842292133694697E7 ; 39032.00000000001
165 ; 69962.7010183427 ; 283563.8883029572 ; 1.3880631206831807E7 ; 3.0124719282527E7 ; 39270.00000000001
166 ; 69850.72721960286 ; 284696.8491122492 ; 1.395059390785015E7 ; 3.0408283170829955E7 ; 39508.00000000001
167 ; 69615.29479002662 ; 285826.0046102918 ; 1.4020444635069752E7 ; 3.0692980019942205E7 ; 39746.00000000001
168 ; 69276.87297832443 ; 286951.32834131777 ; 1.4090059929859778E7 ; 3.0978806024552498E7 ; 39984.00000000001
169 ; 68515.5921156974 ; 288072.79404057376 ; 1.4159336802838102E7 ; 3.1265757352893814E7 ; 40222.00000000001
170 ; 68364.82167142835 ; 289190.3756313396 ; 1.4227852394953799E7 ; 3.155383014693439E7 ; 40460.00000000001
171 ; 67909.26184606268 ; 290304.0472220673 ; 1.4296217216625227E7 ; 3.184302052256573E7 ; 40698.00000000001
172 ; 67064.29823648473 ; 291413.78310363484 ; 1.4364126478471288E7 ; 3.2133324569787797E7 ; 40936.00000000001
173 ; 67510.455259888 ; 292519.5577467087 ; 1.4431190776707774E7 ; 3.242473835289143E7 ; 41174.00000000001
174 ; 67531.16980118155 ; 293621.3457992126 ; 1.4498701231967662E7 ; 3.271725791063814E7 ; 41412.00000000001
175 ; 67601.86562384617 ; 294719.1220838966 ; 1.4566232401768843E7 ; 3.301087925643735E7 ; 41650.00000000001
176 ; 67957.65181221042 ; 295812.86159600294 ; 1.463383426739269E7 ; 3.3305598378521245E7 ; 41888.00000000001
177 ; 68407.28724427197 ; 296902.5395010248 ; 1.47017919192049E7 ; 3.3601411240117244E7 ; 42126.00000000001
178 ; 68323.52263195766 ; 297988.1311325541 ; 1.4770199206449172E7 ; 3.389831377961827E7 ; 42364.00000000001
179 ; 68626.47357829183 ; 299069.6119902151 ; 1.483852272908113E7 ; 3.419630191075082E7 ; 42602.00000000001
180 ; 68918.87925424035 ; 300146.9577376794 ; 1.490714920265942E7 ; 3.4495371522741035E7 ; 42840.00000000001
181 ; 68917.37285839768 ; 301220.1442007607 ; 1.4976068081913661E7 ; 3.479551848047871E7 ; 43078.00000000001
