CSV File for the Network on Day 210
1 - Minute m 
2 - Power Consumed at minute m 
3 - Power Produced at minute m 
4 - Energy Consumed since the beginning of the day 
5 - Energy Produced since the beginning of the day 
6 - Energy Lost since the beginning of the day 
 
No Production city : 2, Producer : 1
No Production city : 4, Producer : 1
No Production city : 4, Producer : 1
 
0 ; 27261.067603952444 ; 113750.03321054931 ; 0.0 ; 0.0 ; 0.0
1 ; 29098.571788070498 ; 113275.1560370756 ; 27261.067603952444 ; 113750.03321054931 ; 238.00000000000003
2 ; 31164.886420885858 ; 112845.84079561972 ; 56359.639392022946 ; 227025.18924762492 ; 476.00000000000006
3 ; 32705.570882561176 ; 112463.46051595232 ; 87524.5258129088 ; 339871.03004324465 ; 714.0000000000001
4 ; 34237.20358056891 ; 112129.28349115264 ; 120230.09669546998 ; 452334.490559197 ; 952.0000000000001
5 ; 36414.433848675115 ; 111844.45467998796 ; 154467.30027603888 ; 564463.7740503496 ; 1190.0000000000002
6 ; 38234.503428568816 ; 111609.97791772886 ; 190881.73412471398 ; 676308.2287303376 ; 1428.0000000000002
7 ; 39595.04797005464 ; 111426.69952784384 ; 229116.23755328282 ; 787918.2066480664 ; 1666.0000000000002
8 ; 41404.8930668627 ; 111295.2939235609 ; 268711.2855233374 ; 899344.9061759103 ; 1904.0000000000002
9 ; 43277.870610613594 ; 111216.25174943185 ; 310116.17859020014 ; 1010640.2000994711 ; 2142.0000000000005
10 ; 44856.86755248151 ; 111189.87103811876 ; 353394.04920081375 ; 1121856.451848903 ; 2380.0000000000005
11 ; 46907.46929658875 ; 111216.25174943185 ; 398250.9167532953 ; 1233046.3228870218 ; 2618.0000000000005
12 ; 47912.9911070599 ; 111295.2939235609 ; 445158.386049884 ; 1344262.5746364538 ; 2856.0000000000005
13 ; 49467.134469107245 ; 111426.69952784384 ; 493071.3771569439 ; 1455557.8685600148 ; 3094.0000000000005
14 ; 50990.003184034416 ; 111609.97791772876 ; 542538.5116260512 ; 1566984.5680878586 ; 3332.0000000000005
15 ; 52906.78367556028 ; 111844.45467998796 ; 593528.5148100855 ; 1678594.5460055873 ; 3570.0000000000005
16 ; 54030.936884065326 ; 112129.28349115264 ; 646435.2984856458 ; 1790439.0006855752 ; 3808.0000000000005
17 ; 55400.70862049461 ; 112463.46051595232 ; 700466.2353697111 ; 1902568.2841767278 ; 4046.0000000000005
18 ; 56812.710224731345 ; 112845.84079561972 ; 755866.9439902056 ; 2015031.74469268 ; 4284.000000000001
19 ; 58405.43087798708 ; 113275.1560370756 ; 812679.654214937 ; 2127877.5854883 ; 4522.000000000001
20 ; 59819.5203784863 ; 113750.03321054943 ; 871085.0850929241 ; 2241152.7415253753 ; 4760.000000000001
21 ; 61465.06949266906 ; 114269.01339139667 ; 930904.6054714103 ; 2354902.774735925 ; 4998.000000000001
22 ; 62740.1536852799 ; 114830.57033577314 ; 992369.6749640794 ; 2469171.7881273213 ; 5236.000000000001
23 ; 64247.60918664909 ; 115433.12835221521 ; 1055109.8286493593 ; 2584002.3584630946 ; 5474.000000000001
24 ; 65722.0743775248 ; 116075.07911449649 ; 1119357.4378360084 ; 2699435.4868153096 ; 5712.000000000001
25 ; 66588.59831256628 ; 116754.79714833257 ; 1185079.5122135333 ; 2815510.5659298063 ; 5950.000000000001
26 ; 67923.15735018863 ; 117470.65380958327 ; 1251668.1105260996 ; 2932265.363078139 ; 6188.000000000001
27 ; 69073.12065806937 ; 118221.02964993629 ; 1319591.2678762882 ; 3049736.016887722 ; 6426.000000000001
28 ; 70640.81875014158 ; 119004.32513452308 ; 1388664.3885343575 ; 3167957.046537658 ; 6664.000000000001
29 ; 72083.4669660721 ; 119818.96973278317 ; 1459305.2072844992 ; 3286961.3716721814 ; 6902.000000000001
30 ; 73374.55499053307 ; 120663.42944862267 ; 1531388.6742505713 ; 3406780.3414049647 ; 7140.000000000001
31 ; 73922.47596044511 ; 121536.21288890477 ; 1604763.2292411043 ; 3527443.7708535874 ; 7378.000000000001
32 ; 75635.37164945526 ; 122435.87599161167 ; 1678685.7052015495 ; 3648979.9837424923 ; 7616.000000000001
33 ; 76532.30181366981 ; 123361.02554806061 ; 1754321.0768510047 ; 3771415.859734104 ; 7854.000000000001
34 ; 77487.29284254862 ; 124310.32165895945 ; 1830853.3786646745 ; 3894776.8852821644 ; 8092.000000000001
35 ; 79060.52688867309 ; 125282.47926347134 ; 1908340.671507223 ; 4019087.206941124 ; 8330.000000000002
36 ; 79784.83777152275 ; 126276.26887533843 ; 1987401.1983958962 ; 4144369.6862045955 ; 8568.000000000002
37 ; 80998.09179437449 ; 127290.51665183989 ; 2067186.036167419 ; 4270645.955079934 ; 8806.000000000002
38 ; 82323.84885336705 ; 128324.10391106755 ; 2148184.1279617934 ; 4397936.471731774 ; 9044.000000000002
39 ; 83312.42688398542 ; 129375.96620160401 ; 2230507.9768151604 ; 4526260.575642841 ; 9282.000000000002
40 ; 84427.5514983342 ; 130445.09201691004 ; 2313820.4036991457 ; 4655636.541844445 ; 9520.000000000002
41 ; 85114.32104885281 ; 131530.52123509505 ; 2398247.95519748 ; 4786081.6338613555 ; 9758.000000000002
42 ; 86114.66007771294 ; 132631.34335363016 ; 2483362.276246333 ; 4917612.155096451 ; 9996.000000000002
43 ; 86868.16793652566 ; 133746.69557821733 ; 2569476.936324046 ; 5050243.498450081 ; 10234.000000000002
44 ; 87751.87079098425 ; 134875.7608155925 ; 2656345.1042605718 ; 5183990.194028298 ; 10472.000000000002
45 ; 88973.47045202287 ; 136017.76561157865 ; 2744096.975051556 ; 5318865.954843891 ; 10710.000000000002
46 ; 90064.32599405132 ; 137171.97806823175 ; 2833070.4455035785 ; 5454883.72045547 ; 10948.000000000002
47 ; 90259.50417719012 ; 138337.70576740027 ; 2923134.77149763 ; 5592055.698523701 ; 11186.000000000002
48 ; 91256.80045954838 ; 139514.29372239858 ; 3013394.27567482 ; 5730393.404291102 ; 11424.000000000002
49 ; 92469.97033690516 ; 140701.12237469346 ; 3104651.0761343683 ; 5869907.6980135 ; 11662.000000000002
50 ; 93002.14194834235 ; 141897.60564845562 ; 3197121.0464712735 ; 6010608.820388194 ; 11900.000000000002
51 ; 93769.97295879126 ; 143103.18907242967 ; 3290123.188419616 ; 6152506.426036649 ; 12138.000000000002
52 ; 94529.74914456329 ; 144317.34797577286 ; 3383893.161378407 ; 6295609.615109079 ; 12376.000000000002
53 ; 95260.69391878285 ; 145539.5857622007 ; 3478422.9105229704 ; 6439926.963084851 ; 12614.000000000002
54 ; 96469.3481120125 ; 146769.43226491008 ; 3573683.604441753 ; 6585466.548847052 ; 12852.000000000002
55 ; 96765.52830756658 ; 148006.4421832437 ; 3670152.952553766 ; 6732235.981111962 ; 13090.000000000002
56 ; 97523.52254406532 ; 149250.1936008711 ; 3766918.4808613323 ; 6880242.423295206 ; 13328.000000000002
57 ; 98178.38857514308 ; 150500.28658433232 ; 3864442.0034053978 ; 7029492.616896077 ; 13566.000000000002
58 ; 98782.23207101412 ; 151756.3418600778 ; 3962620.391980541 ; 7179992.90348041 ; 13804.000000000002
59 ; 99498.35076607735 ; 153017.99956761126 ; 4061402.624051555 ; 7331749.245340487 ; 14042.000000000002
60 ; 99966.16937764929 ; 154284.91808595642 ; 4160900.974817632 ; 7484767.244908098 ; 14280.000000000002
61 ; 100451.98907839693 ; 155556.77293040822 ; 4260867.144195282 ; 7639052.162994054 ; 14518.000000000002
62 ; 101252.94807318068 ; 156833.25571636338 ; 4361319.133273679 ; 7794608.935924462 ; 14756.000000000002
63 ; 101660.03965928036 ; 158114.07318693868 ; 4462572.081346859 ; 7951442.191640825 ; 14994.000000000002
64 ; 101982.68806108621 ; 159398.94630105823 ; 4564232.12100614 ; 8109556.264827764 ; 15232.000000000002
65 ; 102772.4350550033 ; 160687.60937871353 ; 4666214.809067226 ; 8268955.211128822 ; 15470.000000000002
66 ; 103100.1203875416 ; 161979.80930015887 ; 4768987.2441222295 ; 8429642.820507536 ; 15708.000000000002
67 ; 103679.95820352857 ; 163275.30475588946 ; 4872087.364509771 ; 8591622.629807694 ; 15946.000000000002
68 ; 104503.5484494851 ; 164573.86554435873 ; 4975767.3227133 ; 8754897.934563583 ; 16184.000000000002
69 ; 104701.22931688618 ; 165875.27191450796 ; 5080270.871162785 ; 8919471.800107941 ; 16422.000000000004
70 ; 104674.04641374543 ; 167179.31395031477 ; 5184972.100479672 ; 9085347.07202245 ; 16660.000000000004
71 ; 105067.80703623377 ; 168485.79099470045 ; 5289646.146893417 ; 9252526.385972764 ; 16898.000000000004
72 ; 106106.91989090016 ; 169794.51111027354 ; 5394713.9539296515 ; 9421012.176967464 ; 17136.000000000004
73 ; 105927.3737790668 ; 171105.29057452636 ; 5500820.873820552 ; 9590806.688077739 ; 17374.000000000004
74 ; 105697.88360511282 ; 172417.9534072358 ; 5606748.2475996185 ; 9761911.978652265 ; 17612.000000000004
75 ; 106435.06401166266 ; 173732.33092795342 ; 5712446.131204732 ; 9934329.9320595 ; 17850.000000000004
76 ; 107046.5653621021 ; 175048.2613415977 ; 5818881.195216394 ; 1.0108062262987453E7 ; 18088.000000000004
77 ; 106768.30523752143 ; 176365.58935028675 ; 5925927.760578496 ; 1.0283110524329051E7 ; 18326.000000000004
78 ; 107344.4692520003 ; 177684.16578966676 ; 6032696.065816018 ; 1.0459476113679338E7 ; 18564.000000000004
79 ; 107480.22904631343 ; 179003.84728810407 ; 6140040.535068018 ; 1.0637160279469006E7 ; 18802.000000000004
80 ; 107585.16117770407 ; 180324.49594721897 ; 6247520.764114331 ; 1.081616412675711E7 ; 19040.000000000004
81 ; 108089.56208933254 ; 181645.979042335 ; 6355105.925292036 ; 1.0996488622704329E7 ; 19278.000000000004
82 ; 107774.53039336494 ; 182968.1687415187 ; 6463195.487381368 ; 1.1178134601746663E7 ; 19516.000000000004
83 ; 107946.50053711943 ; 184290.9418419703 ; 6570970.017774733 ; 1.1361102770488182E7 ; 19754.000000000004
84 ; 108116.40833061471 ; 185614.17952261196 ; 6678916.518311853 ; 1.1545393712330153E7 ; 19992.000000000004
85 ; 108195.92180779189 ; 186937.76711179834 ; 6787032.926642467 ; 1.1731007891852764E7 ; 20230.000000000004
86 ; 108229.80473113665 ; 188261.59386914887 ; 6895228.848450259 ; 1.1917945658964563E7 ; 20468.000000000004
87 ; 108202.77686139804 ; 189585.55278056854 ; 7003458.653181396 ; 1.2106207252833713E7 ; 20706.000000000004
88 ; 107724.53573838912 ; 190909.54036558943 ; 7111661.430042795 ; 1.2295792805614281E7 ; 20944.000000000004
89 ; 108244.86773633077 ; 192233.45649622526 ; 7219385.965781184 ; 1.2486702345979871E7 ; 21182.000000000004
90 ; 108203.92336366525 ; 193557.20422658633 ; 7327630.833517515 ; 1.2678935802476097E7 ; 21420.000000000004
91 ; 108037.67857686746 ; 194880.68963255378 ; 7435834.75688118 ; 1.2872493006702684E7 ; 21658.000000000004
92 ; 107922.41021075757 ; 196203.82166086283 ; 7543872.435458047 ; 1.3067373696335237E7 ; 21896.000000000004
93 ; 108099.87112855911 ; 197526.51198698644 ; 7651794.845668805 ; 1.32635775179961E7 ; 22134.000000000004
94 ; 107544.19643816147 ; 198848.67488125485 ; 7759894.716797364 ; 1.3461104029983087E7 ; 22372.000000000004
95 ; 108001.7219776352 ; 200170.2270826844 ; 7867438.913235526 ; 1.3659952704864342E7 ; 22610.000000000004
96 ; 107297.30810480333 ; 201491.08768002584 ; 7975440.635213161 ; 1.3860122931947026E7 ; 22848.000000000004
97 ; 107122.55193362742 ; 202811.17799957434 ; 8082737.943317965 ; 1.4061614019627051E7 ; 23086.000000000004
98 ; 107210.35052495712 ; 204130.42149931652 ; 8189860.495251592 ; 1.4264425197626626E7 ; 23324.000000000004
99 ; 106822.35667664855 ; 205448.74366901733 ; 8297070.84577655 ; 1.4468555619125942E7 ; 23562.000000000004
100 ; 106673.8821451201 ; 206766.07193587732 ; 8403893.202453198 ; 1.467400436279496E7 ; 23800.000000000004
101 ; 106243.27143856985 ; 208082.3355754146 ; 8510567.084598318 ; 1.4880770434730837E7 ; 24038.000000000004
102 ; 105808.35598544744 ; 209397.4656272508 ; 8616810.356036888 ; 1.5088852770306252E7 ; 24276.000000000004
103 ; 105578.76266307884 ; 210711.39481550042 ; 8722618.712022336 ; 1.5298250235933503E7 ; 24514.000000000004
104 ; 105529.40353747601 ; 212024.0574734829 ; 8828197.474685416 ; 1.5508961630749004E7 ; 24752.000000000004
105 ; 105147.67816165856 ; 213335.38947249687 ; 8933726.878222892 ; 1.5720985688222487E7 ; 24990.000000000004
106 ; 104446.48617371707 ; 214645.32815441152 ; 9038874.55638455 ; 1.5934321077694984E7 ; 25228.000000000004
107 ; 104313.48758539002 ; 215953.81226784713 ; 9143321.042558268 ; 1.6148966405849395E7 ; 25466.000000000004
108 ; 103901.1389325251 ; 217260.78190773143 ; 9247634.530143658 ; 1.6364920218117243E7 ; 25704.000000000004
109 ; 103584.18865585238 ; 218566.17845803243 ; 9351535.669076182 ; 1.6582181000024974E7 ; 25942.000000000004
110 ; 103331.1935464256 ; 219869.9445374809 ; 9455119.857732035 ; 1.6800747178483006E7 ; 26180.000000000004
111 ; 102643.74405542073 ; 221172.02394810895 ; 9558451.05127846 ; 1.7020617123020485E7 ; 26418.000000000004
112 ; 102156.63233908532 ; 222472.36162644043 ; 9661094.79533388 ; 1.7241789146968596E7 ; 26656.000000000004
113 ; 101432.21906023734 ; 223770.9035971805 ; 9763251.427672965 ; 1.7464261508595034E7 ; 26894.000000000004
114 ; 100724.65865864238 ; 225067.59692926193 ; 9864683.646733202 ; 1.7688032412192214E7 ; 27132.000000000004
115 ; 100423.59043042493 ; 226362.389694113 ; 9965408.305391844 ; 1.7913100009121478E7 ; 27370.000000000004
116 ; 99974.81430028645 ; 227655.23092602193 ; 1.006583189582227E7 ; 1.813946239881559E7 ; 27608.000000000004
117 ; 99275.88903392898 ; 228946.07058448019 ; 1.0165806710122555E7 ; 1.8367117629741613E7 ; 27846.000000000004
118 ; 98556.88309697277 ; 230234.85951839323 ; 1.0265082599156484E7 ; 1.8596063700326093E7 ; 28084.000000000004
119 ; 97990.98001250866 ; 231521.5494320558 ; 1.0363639482253456E7 ; 1.8826298559844486E7 ; 28322.000000000004
120 ; 97334.40080905647 ; 232806.09285279422 ; 1.0461630462265965E7 ; 1.905782010927654E7 ; 28560.000000000004
121 ; 96619.94420811733 ; 234088.4431001839 ; 1.0558964863075022E7 ; 1.9290626202129334E7 ; 28798.000000000004
122 ; 95656.58598890236 ; 235368.55425675726 ; 1.0655584807283139E7 ; 1.952471464522952E7 ; 29036.000000000004
123 ; 95044.02408787348 ; 236646.38114011975 ; 1.075124139327204E7 ; 1.9760083199486274E7 ; 29274.000000000004
124 ; 94315.62716912323 ; 237921.87927639956 ; 1.0846285417359915E7 ; 1.9996729580626395E7 ; 29512.000000000004
125 ; 93979.26996651436 ; 239195.00487495947 ; 1.0940601044529038E7 ; 2.0234651459902793E7 ; 29750.000000000004
126 ; 92775.29528261509 ; 240465.7148043029 ; 1.1034580314495552E7 ; 2.0473846464777753E7 ; 29988.000000000004
127 ; 92208.7892798589 ; 241733.9665691121 ; 1.1127355609778168E7 ; 2.0714312179582056E7 ; 30226.000000000004
128 ; 91126.66424587651 ; 242999.7182883586 ; 1.1219564399058027E7 ; 2.0956046146151166E7 ; 30464.000000000004
129 ; 90244.13432634852 ; 244262.92867443012 ; 1.1310691063303905E7 ; 2.1199045864439525E7 ; 30702.000000000004
130 ; 89342.6714679512 ; 245523.55701322068 ; 1.1400935197630253E7 ; 2.1443308793113954E7 ; 30940.000000000004
131 ; 88785.62740703787 ; 246781.56314513524 ; 1.1490277869098203E7 ; 2.1688832350127175E7 ; 31178.000000000004
132 ; 87722.96245560789 ; 248036.90744696127 ; 1.1579063496505242E7 ; 2.193561391327231E7 ; 31416.000000000004
133 ; 86855.9033439442 ; 249289.55081456358 ; 1.166678645896085E7 ; 2.2183650820719272E7 ; 31654.000000000004
134 ; 85560.58701500273 ; 250539.4546463602 ; 1.1753642362304794E7 ; 2.2432940371533837E7 ; 31892.000000000004
135 ; 84974.49595466335 ; 251786.58082754054 ; 1.1839202949319797E7 ; 2.2683479826180197E7 ; 32130.000000000004
136 ; 83531.05064135956 ; 253030.89171498886 ; 1.192417744527446E7 ; 2.293526640700774E7 ; 32368.000000000004
137 ; 82679.62505990607 ; 254272.350122877 ; 1.2007708495915819E7 ; 2.318829729872273E7 ; 32606.000000000004
138 ; 81631.6620292299 ; 255510.91930889478 ; 1.2090388120975725E7 ; 2.3442569648845606E7 ; 32844.00000000001
139 ; 80468.79528850083 ; 256746.56296108552 ; 1.2172019783004954E7 ; 2.36980805681545E7 ; 33082.00000000001
140 ; 79651.58661041192 ; 257979.24518525775 ; 1.2252488578293456E7 ; 2.3954827131115586E7 ; 33320.00000000001
141 ; 78835.7957887091 ; 259208.93049294507 ; 1.2332140164903868E7 ; 2.421280637630084E7 ; 33558.00000000001
142 ; 77992.843127713 ; 260435.58378988737 ; 1.2410975960692577E7 ; 2.4472015306793787E7 ; 33796.00000000001
143 ; 76251.73853605404 ; 261659.17036500957 ; 1.248896880382029E7 ; 2.4732450890583675E7 ; 34034.00000000001
144 ; 75161.69659297426 ; 262879.6558798722 ; 1.2565220542356344E7 ; 2.4994110060948685E7 ; 34272.00000000001
145 ; 75399.64483755214 ; 264097.00635857333 ; 1.2640382238949317E7 ; 2.525698971682856E7 ; 34510.00000000001
146 ; 74688.1837738772 ; 265311.18817807944 ; 1.271578188378687E7 ; 2.5521086723187134E7 ; 34748.00000000001
147 ; 74152.98236165881 ; 266522.16805896594 ; 1.2790470067560747E7 ; 2.5786397911365215E7 ; 34986.00000000001
148 ; 74496.45686148269 ; 267729.91305654723 ; 1.2864623049922407E7 ; 2.605292007942418E7 ; 35224.00000000001
149 ; 73561.83061416246 ; 268934.39055237954 ; 1.293911950678389E7 ; 2.632064999248073E7 ; 35462.00000000001
150 ; 73939.79082694354 ; 270135.568246118 ; 1.3012681337398052E7 ; 2.6589584383033108E7 ; 35700.00000000001
151 ; 73461.35675350213 ; 271333.41414771305 ; 1.3086621128224995E7 ; 2.6859719951279227E7 ; 35938.00000000001
152 ; 72770.7041054364 ; 272527.8965699296 ; 1.3160082484978497E7 ; 2.713105336542694E7 ; 36176.00000000001
153 ; 72888.13945832875 ; 273718.9841211753 ; 1.3232853189083934E7 ; 2.740358126199687E7 ; 36414.00000000001
154 ; 72772.25659101973 ; 274906.6456986229 ; 1.3305741328542262E7 ; 2.7677300246118043E7 ; 36652.00000000001
155 ; 72731.28889683798 ; 276090.85048161505 ; 1.3378513585133282E7 ; 2.7952206891816664E7 ; 36890.00000000001
156 ; 72250.76486099002 ; 277271.5679253369 ; 1.345124487403012E7 ; 2.822829774229828E7 ; 37128.00000000001
157 ; 72025.60197104965 ; 278448.76775474695 ; 1.352349563889111E7 ; 2.8505569310223617E7 ; 37366.00000000001
158 ; 71399.80440785851 ; 279622.4199587527 ; 1.3595521240862159E7 ; 2.8784018077978365E7 ; 37604.00000000001
159 ; 71080.1778701275 ; 280792.49478462193 ; 1.3666921045270018E7 ; 2.9063640497937117E7 ; 37842.00000000001
160 ; 70608.72702893942 ; 281958.9627326184 ; 1.3738001223140147E7 ; 2.934443299272174E7 ; 38080.00000000001
161 ; 69919.32044451118 ; 283121.7945508522 ; 1.3808609950169086E7 ; 2.9626391955454357E7 ; 38318.00000000001
162 ; 69765.37091662272 ; 284280.96123033663 ; 1.3878529270613598E7 ; 2.9909513750005208E7 ; 38556.00000000001
163 ; 69486.33020244061 ; 285436.4340002411 ; 1.3948294641530221E7 ; 3.0193794711235546E7 ; 38794.00000000001
164 ; 69238.80363372444 ; 286588.18432333303 ; 1.4017780971732661E7 ; 3.0479231145235788E7 ; 39032.00000000001
165 ; 68945.30561360899 ; 287736.1838915999 ; 1.4087019775366386E7 ; 3.076581932955912E7 ; 39270.00000000001
166 ; 68368.94078898849 ; 288880.4046220444 ; 1.4155965080979995E7 ; 3.105355551345072E7 ; 39508.00000000001
167 ; 68303.2752613695 ; 290020.8186526449 ; 1.4224334021768983E7 ; 3.1342435918072764E7 ; 39746.00000000001
168 ; 67790.20299718871 ; 291157.3983384748 ; 1.4292637297030352E7 ; 3.163245673672541E7 ; 39984.00000000001
169 ; 67668.07922073398 ; 292290.1162479733 ; 1.4360427500027541E7 ; 3.1923614135063883E7 ; 40222.00000000001
170 ; 67034.33539164095 ; 293418.94515936304 ; 1.4428095579248276E7 ; 3.2215904251311857E7 ; 40460.00000000001
171 ; 66802.18977462321 ; 294543.85805720626 ; 1.4495129914639916E7 ; 3.250932319647122E7 ; 40698.00000000001
172 ; 66381.72951808659 ; 295664.8281290958 ; 1.456193210441454E7 ; 3.2803867054528426E7 ; 40936.00000000001
173 ; 66032.36987275096 ; 296781.8287624739 ; 1.4628313833932625E7 ; 3.309953188265752E7 ; 41174.00000000001
174 ; 65657.74711664752 ; 297894.8335415752 ; 1.4694346203805376E7 ; 3.3396313711419996E7 ; 41412.00000000001
175 ; 66442.53870173011 ; 299003.816244487 ; 1.4760003950922024E7 ; 3.369420854496157E7 ; 41650.00000000001
176 ; 66556.19212199487 ; 300108.7508403241 ; 1.4826446489623753E7 ; 3.399321236120606E7 ; 41888.00000000001
177 ; 66808.63413799401 ; 301209.61148651154 ; 1.4893002681745749E7 ; 3.429332111204638E7 ; 42126.00000000001
178 ; 67005.32838383349 ; 302306.3725261731 ; 1.4959811315883743E7 ; 3.459453072353289E7 ; 42364.00000000001
179 ; 66615.35573073648 ; 303399.0084856195 ; 1.5026816644267576E7 ; 3.489683709605907E7 ; 42602.00000000001
180 ; 67456.77888209154 ; 304487.49407193344 ; 1.5093431999998312E7 ; 3.520023610454469E7 ; 42840.00000000001
181 ; 67452.44179649765 ; 305571.8041706472 ; 1.5160888778880404E7 ; 3.550472359861662E7 ; 43078.00000000001
