CSV File for the Network on Day 162
1 - Minute m 
2 - Power Consumed at minute m 
3 - Power Produced at minute m 
4 - Energy Consumed since the beginning of the day 
5 - Energy Produced since the beginning of the day 
6 - Energy Lost since the beginning of the day 
 
No Production city : 2, Producer : 1
No Production city : 4, Producer : 1
No Production city : 4, Producer : 1
 
0 ; 40811.074765928795 ; 159449.60393751893 ; 0.0 ; 0.0 ; 0.0
1 ; 42119.96247063944 ; 159106.06442239473 ; 40811.074765928795 ; 159449.60393751893 ; 238.00000000000003
2 ; 43290.139994492296 ; 158797.5287363713 ; 82931.03723656823 ; 318555.66835991363 ; 476.00000000000006
3 ; 45172.76322353317 ; 158524.37378058088 ; 126221.17723106052 ; 477353.19709628494 ; 714.0000000000001
4 ; 46553.97393709308 ; 158286.93741229665 ; 171393.94045459368 ; 635877.5708768659 ; 952.0000000000001
5 ; 47723.986490731695 ; 158085.51654382562 ; 217947.91439168676 ; 794164.5082891625 ; 1190.0000000000002
6 ; 48541.36528404428 ; 157920.36543930144 ; 265671.90088241844 ; 952250.0248329882 ; 1428.0000000000002
7 ; 50063.305748127335 ; 157791.69423184195 ; 314213.26616646274 ; 1110170.3902722895 ; 1666.0000000000002
8 ; 51282.45722133813 ; 157699.66768109315 ; 364276.5719145901 ; 1267962.0845041315 ; 1904.0000000000002
9 ; 52921.24364460065 ; 157644.4041882675 ; 415559.0291359282 ; 1425661.7521852246 ; 2142.0000000000005
10 ; 54232.403521956956 ; 157625.9750824495 ; 468480.2727805289 ; 1583306.156373492 ; 2380.0000000000005
11 ; 55972.70682134701 ; 157644.4041882675 ; 522712.6763024858 ; 1740932.1314559416 ; 2618.0000000000005
12 ; 56518.56176018485 ; 157699.66768109315 ; 578685.3831238329 ; 1898576.535644209 ; 2856.0000000000005
13 ; 58036.133808340455 ; 157791.69423184195 ; 635203.9448840177 ; 2056276.203325302 ; 3094.0000000000005
14 ; 58987.48291100365 ; 157920.36543930144 ; 693240.0786923581 ; 2214067.897557144 ; 3332.0000000000005
15 ; 60349.091240326954 ; 158085.51654382562 ; 752227.5616033617 ; 2371988.2629964454 ; 3570.0000000000005
16 ; 61533.84097655225 ; 158286.93741229665 ; 812576.6528436887 ; 2530073.779540271 ; 3808.0000000000005
17 ; 62353.228536022936 ; 158524.37378058076 ; 874110.493820241 ; 2688360.716952568 ; 4046.0000000000005
18 ; 63531.30810043233 ; 158797.52873637143 ; 936463.7223562639 ; 2846885.0907331486 ; 4284.000000000001
19 ; 64068.54156233887 ; 159106.06442239473 ; 999995.0304566962 ; 3005682.61946952 ; 4522.000000000001
20 ; 66035.08954648595 ; 159449.60393751893 ; 1064063.572019035 ; 3164788.683891915 ; 4760.000000000001
21 ; 67229.69982819639 ; 159827.73341138728 ; 1130098.661565521 ; 3324238.2878294336 ; 4998.000000000001
22 ; 67760.82167138031 ; 160240.00422681717 ; 1197328.3613937174 ; 3484066.0212408206 ; 5236.000000000001
23 ; 69007.02246875594 ; 160685.93536338146 ; 1265089.1830650978 ; 3644306.025467638 ; 5474.000000000001
24 ; 70225.9656349768 ; 161165.01583528606 ; 1334096.2055338537 ; 3804991.9608310196 ; 5712.000000000001
25 ; 70644.02902339755 ; 161676.7071968756 ; 1404322.1711688305 ; 3966156.9766663057 ; 5950.000000000001
26 ; 72238.9858969556 ; 162220.4460897749 ; 1474966.200192228 ; 4127833.683863181 ; 6188.000000000001
27 ; 73096.56638640439 ; 162795.64680676628 ; 1547205.1860891837 ; 4290054.129952956 ; 6426.000000000001
28 ; 73435.19833295308 ; 163401.70384895624 ; 1620301.7524755881 ; 4452849.776759722 ; 6664.000000000001
29 ; 75180.65370941495 ; 164037.99445452585 ; 1693736.9508085412 ; 4616251.480608678 ; 6902.000000000001
30 ; 75683.30497653366 ; 164703.8810793291 ; 1768917.604517956 ; 4780289.475063204 ; 7140.000000000001
31 ; 77294.87835215923 ; 165398.7138117346 ; 1844600.9094944897 ; 4944993.356142533 ; 7378.000000000001
32 ; 77238.20271640224 ; 166121.83270633852 ; 1921895.7878466488 ; 5110392.069954268 ; 7616.000000000001
33 ; 78697.20793983346 ; 166872.5700234408 ; 1999133.990563051 ; 5276513.902660606 ; 7854.000000000001
34 ; 79591.64525929911 ; 167650.2523634416 ; 2077831.1985028845 ; 5443386.472684047 ; 8092.000000000001
35 ; 80690.54753428882 ; 168454.2026875092 ; 2157422.8437621836 ; 5611036.725047489 ; 8330.000000000002
36 ; 81404.01967030058 ; 169283.74221797785 ; 2238113.3912964724 ; 5779490.927734998 ; 8568.000000000002
37 ; 82044.41984254307 ; 170138.19221390726 ; 2319517.410966773 ; 5948774.669952976 ; 8806.000000000002
38 ; 82558.19209269015 ; 171016.87561906388 ; 2401561.830809316 ; 6118912.8621668825 ; 9044.000000000002
39 ; 83589.0874460547 ; 171919.11858124 ; 2484120.0229020063 ; 6289929.737785947 ; 9282.000000000002
40 ; 84400.3471205566 ; 172844.25184330737 ; 2567709.110348061 ; 6461848.856367187 ; 9520.000000000002
41 ; 85174.386830011 ; 173791.61200770308 ; 2652109.4574686177 ; 6634693.108210494 ; 9758.000000000002
42 ; 85691.23056504515 ; 174760.54267715913 ; 2737283.8442986286 ; 6808484.7202181965 ; 9996.000000000002
43 ; 86462.87976957484 ; 175750.39547543062 ; 2822975.0748636737 ; 6983245.262895356 ; 10234.000000000002
44 ; 87626.01684152374 ; 176760.53095254875 ; 2909437.9546332485 ; 7158995.658370786 ; 10472.000000000002
45 ; 87975.06558602602 ; 177790.31937973655 ; 2997063.9714747723 ; 7335756.189323335 ; 10710.000000000002
46 ; 88634.04616538146 ; 178839.14143959418 ; 3085039.037060798 ; 7513546.508703072 ; 10948.000000000002
47 ; 89288.79674461951 ; 179906.3888174953 ; 3173673.0832261797 ; 7692385.650142666 ; 11186.000000000002
48 ; 89639.33359128326 ; 180991.46470034937 ; 3262961.879970799 ; 7872292.038960162 ; 11424.000000000002
49 ; 90841.66630515805 ; 182093.7841889982 ; 3352601.2135620825 ; 8053283.503660511 ; 11662.000000000002
50 ; 91434.39220675363 ; 183212.7746305346 ; 3443442.879867241 ; 8235377.287849509 ; 11900.000000000002
51 ; 91904.18909622554 ; 184347.875876774 ; 3534877.2720739944 ; 8418590.062480044 ; 12138.000000000002
52 ; 92165.30277918543 ; 185498.54047498826 ; 3626781.46117022 ; 8602937.938356817 ; 12376.000000000002
53 ; 93050.72130435731 ; 186664.23379683713 ; 3718946.7639494054 ; 8788436.478831805 ; 12614.000000000002
54 ; 93372.7084748932 ; 187844.4341112153 ; 3811997.485253763 ; 8975100.712628642 ; 12852.000000000002
55 ; 94084.28955673972 ; 189038.6326064852 ; 3905370.193728656 ; 9162945.146739857 ; 13090.000000000002
56 ; 94468.42156984535 ; 190246.33336729146 ; 3999454.483285396 ; 9351983.779346343 ; 13328.000000000002
57 ; 95050.7111701738 ; 191467.05331086434 ; 4093922.904855241 ; 9542230.112713635 ; 13566.000000000002
58 ; 95615.69325307218 ; 192700.32208741832 ; 4188973.616025415 ; 9733697.166024499 ; 13804.000000000002
59 ; 95948.46327715767 ; 193945.681948952 ; 4284589.309278487 ; 9926397.488111917 ; 14042.000000000002
60 ; 96069.75110693286 ; 195202.68759044717 ; 4380537.772555645 ; 1.012034317006087E7 ; 14280.000000000002
61 ; 97117.10740960597 ; 196470.90596716793 ; 4476607.523662577 ; 1.0315545857651316E7 ; 14518.000000000002
62 ; 96940.55518165928 ; 197749.91609146938 ; 4573724.631072183 ; 1.0512016763618484E7 ; 14756.000000000002
63 ; 98185.0549261278 ; 199039.3088122393 ; 4670665.186253842 ; 1.0709766679709954E7 ; 14994.000000000002
64 ; 97772.02198664869 ; 200338.68657982792 ; 4768850.24117997 ; 1.0908805988522194E7 ; 15232.000000000002
65 ; 98345.57166656657 ; 201647.66319906068 ; 4866622.2631666185 ; 1.1109144675102022E7 ; 15470.000000000002
66 ; 98933.21069045528 ; 202965.86357268476 ; 4964967.834833185 ; 1.1310792338301083E7 ; 15708.000000000002
67 ; 98959.89824335597 ; 204292.923437369 ; 5063901.045523641 ; 1.1513758201873768E7 ; 15946.000000000002
68 ; 99715.7870324471 ; 205628.48909416233 ; 5162860.943766996 ; 1.1718051125311136E7 ; 16184.000000000002
69 ; 99631.34056527815 ; 206972.21713511256 ; 5262576.730799443 ; 1.1923679614405299E7 ; 16422.000000000004
70 ; 99825.46995998631 ; 208323.77416756345 ; 5362208.071364721 ; 1.2130651831540411E7 ; 16660.000000000004
71 ; 100341.46574477384 ; 209682.83653747253 ; 5462033.541324708 ; 1.2338975605707975E7 ; 16898.000000000004
72 ; 100264.8309549656 ; 211049.09005293503 ; 5562375.007069482 ; 1.2548658442245448E7 ; 17136.000000000004
73 ; 100241.15453484762 ; 212422.2297089536 ; 5662639.838024447 ; 1.2759707532298382E7 ; 17374.000000000004
74 ; 100723.78580854276 ; 213801.95941435898 ; 5762880.992559294 ; 1.2972129762007335E7 ; 17612.000000000004
75 ; 101136.75970906297 ; 215187.99172166662 ; 5863604.778367837 ; 1.3185931721421694E7 ; 17850.000000000004
76 ; 101086.86931251576 ; 216580.04756054303 ; 5964741.5380769 ; 1.3401119713143362E7 ; 18088.000000000004
77 ; 101209.70200847744 ; 217977.8559754566 ; 6065828.407389415 ; 1.3617699760703905E7 ; 18326.000000000004
78 ; 101385.51317727323 ; 219381.1538679975 ; 6167038.109397893 ; 1.3835677616679361E7 ; 18564.000000000004
79 ; 101791.70791828504 ; 220789.68574426856 ; 6268423.622575166 ; 1.4055058770547358E7 ; 18802.000000000004
80 ; 101736.59051441662 ; 222203.2034676797 ; 6370215.330493451 ; 1.4275848456291627E7 ; 19040.000000000004
81 ; 102004.29236297283 ; 223621.46601740923 ; 6471951.921007868 ; 1.4498051659759307E7 ; 19278.000000000004
82 ; 101772.99982882029 ; 225044.2392527416 ; 6573956.213370841 ; 1.4721673125776716E7 ; 19516.000000000004
83 ; 102376.03308490256 ; 226471.29568343674 ; 6675729.213199661 ; 1.4946717365029458E7 ; 19754.000000000004
84 ; 102255.11909388658 ; 227902.41424624174 ; 6778105.246284564 ; 1.5173188660712894E7 ; 19992.000000000004
85 ; 102250.42380704274 ; 229337.38008761618 ; 6880360.365378451 ; 1.5401091074959137E7 ; 20230.000000000004
86 ; 102124.38169333134 ; 230775.98435270612 ; 6982610.789185493 ; 1.5630428455046752E7 ; 20468.000000000004
87 ; 102438.10284044492 ; 232218.02398057125 ; 7084735.170878825 ; 1.5861204439399458E7 ; 20706.000000000004
88 ; 102218.99027480278 ; 233663.3015056439 ; 7187173.27371927 ; 1.609342246338003E7 ; 20944.000000000004
89 ; 101818.88751557749 ; 235111.62486537418 ; 7289392.263994073 ; 1.6327085764885673E7 ; 21182.000000000004
90 ; 102117.27707628522 ; 236562.80721399683 ; 7391211.15150965 ; 1.6562197389751047E7 ; 21420.000000000004
91 ; 102031.05093921296 ; 238016.6667423373 ; 7493328.428585935 ; 1.6798760196965043E7 ; 21658.000000000004
92 ; 102583.46412979026 ; 239473.02650356197 ; 7595359.479525148 ; 1.703677686370738E7 ; 21896.000000000004
93 ; 102179.7831000546 ; 240931.71424476305 ; 7697942.943654939 ; 1.727624989021094E7 ; 22134.000000000004
94 ; 101926.09912580383 ; 242392.5622442614 ; 7800122.726754993 ; 1.7517181604455706E7 ; 22372.000000000004
95 ; 101825.0015257106 ; 243855.40715450072 ; 7902048.825880797 ; 1.775957416669997E7 ; 22610.000000000004
96 ; 101854.652218419 ; 245320.0898504006 ; 8003873.827406507 ; 1.800342957385447E7 ; 22848.000000000004
97 ; 101538.62247734246 ; 246786.45528303154 ; 8105728.479624926 ; 1.824874966370487E7 ; 23086.000000000004
98 ; 101276.30827815756 ; 248254.35233847066 ; 8207267.1021022685 ; 1.84955361189879E7 ; 23324.000000000004
99 ; 101440.6454293815 ; 249723.6337016946 ; 8308543.410380426 ; 1.874379047132637E7 ; 23562.000000000004
100 ; 101235.20635495728 ; 251194.1557253647 ; 8409984.055809807 ; 1.8993514105028063E7 ; 23800.000000000004
101 ; 100611.17751471694 ; 252665.7783033585 ; 8511219.262164764 ; 1.9244708260753427E7 ; 24038.000000000004
102 ; 100383.1907880219 ; 254138.36474890192 ; 8611830.439679481 ; 1.9497374039056785E7 ; 24276.000000000004
103 ; 100375.21805207379 ; 255611.78167715683 ; 8712213.630467502 ; 1.9751512403805688E7 ; 24514.000000000004
104 ; 99742.72653496647 ; 257085.89889212037 ; 8812588.848519577 ; 2.0007124185482845E7 ; 24752.000000000004
105 ; 98996.7468388278 ; 258560.58927769362 ; 8912331.575054543 ; 2.0264210084374964E7 ; 24990.000000000004
106 ; 99243.96626742749 ; 260035.7286927796 ; 9011328.321893372 ; 2.0522770673652656E7 ; 25228.000000000004
107 ; 98840.8168700851 ; 261511.19587027328 ; 9110572.2881608 ; 2.0782806402345438E7 ; 25466.000000000004
108 ; 98740.417669909 ; 262986.8723198072 ; 9209413.105030885 ; 2.104431759821571E7 ; 25704.000000000004
109 ; 98342.06677331502 ; 264462.6422341223 ; 9308153.522700794 ; 2.1307304470535517E7 ; 25942.000000000004
110 ; 97719.49716322406 ; 265938.39239893423 ; 9406495.58947411 ; 2.1571767112769637E7 ; 26180.000000000004
111 ; 97661.97835018138 ; 267414.0121061683 ; 9504215.086637335 ; 2.1837705505168572E7 ; 26418.000000000004
112 ; 97190.44913631005 ; 268889.39307044237 ; 9601877.064987516 ; 2.210511951727474E7 ; 26656.000000000004
113 ; 96870.40854528587 ; 270364.42934867705 ; 9699067.514123825 ; 2.237400891034518E7 ; 26894.000000000004
114 ; 96790.59897652124 ; 271839.01726271876 ; 9795937.92266911 ; 2.264437333969386E7 ; 27132.000000000004
115 ; 95994.10988017751 ; 273313.0553248618 ; 9892728.521645632 ; 2.291621235695658E7 ; 27370.000000000004
116 ; 95646.60153617495 ; 274786.44416616345 ; 9988722.631525809 ; 2.318952541228144E7 ; 27608.000000000004
117 ; 94777.51953788186 ; 276259.08646744373 ; 1.0084369233061984E7 ; 2.3464311856447604E7 ; 27846.000000000004
118 ; 93870.92645389587 ; 277730.8868928702 ; 1.0179146752599865E7 ; 2.374057094291505E7 ; 28084.000000000004
119 ; 94090.65212371438 ; 279201.75202602905 ; 1.0273017679053761E7 ; 2.401830182980792E7 ; 28322.000000000004
120 ; 93459.32518389805 ; 280671.5903083873 ; 1.0367108331177475E7 ; 2.4297503581833947E7 ; 28560.000000000004
121 ; 92777.27970052033 ; 282140.3119800534 ; 1.0460567656361373E7 ; 2.4578175172142334E7 ; 28798.000000000004
122 ; 92309.42431757174 ; 283607.8290227506 ; 1.0553344936061893E7 ; 2.4860315484122388E7 ; 29036.000000000004
123 ; 91802.19757171716 ; 285074.0551049146 ; 1.0645654360379465E7 ; 2.514392331314514E7 ; 29274.000000000004
124 ; 90752.57904852109 ; 286538.9055288354 ; 1.0737456557951182E7 ; 2.5428997368250053E7 ; 29512.000000000004
125 ; 90422.93044116205 ; 288002.29717976414 ; 1.0828209136999704E7 ; 2.571553627377889E7 ; 29750.000000000004
126 ; 89690.95884421241 ; 289464.14847690717 ; 1.0918632067440866E7 ; 2.600353857095865E7 ; 29988.000000000004
127 ; 89320.89802496541 ; 290924.37932623655 ; 1.1008323026285078E7 ; 2.6293002719435558E7 ; 30226.000000000004
128 ; 88548.95075535518 ; 292382.91107504396 ; 1.1097643924310043E7 ; 2.6583927098761793E7 ; 30464.000000000004
129 ; 87735.03793410271 ; 293839.66646817245 ; 1.11861928750654E7 ; 2.6876310009836838E7 ; 30702.000000000004
130 ; 87522.5720862047 ; 295294.56960585865 ; 1.1273927912999501E7 ; 2.717014967630501E7 ; 30940.000000000004
131 ; 86422.84092831389 ; 296747.5459031245 ; 1.1361450485085705E7 ; 2.7465444245910868E7 ; 31178.000000000004
132 ; 85614.97098264143 ; 298198.5220506578 ; 1.144787332601402E7 ; 2.7762191791813992E7 ; 31416.000000000004
133 ; 85043.62666558845 ; 299647.42597712285 ; 1.153348829699666E7 ; 2.806039031386465E7 ; 31654.000000000004
134 ; 84084.74089437033 ; 301094.1868128467 ; 1.1618531923662249E7 ; 2.836003773984177E7 ; 31892.000000000004
135 ; 83513.43238931752 ; 302538.73485482775 ; 1.1702616664556619E7 ; 2.866113192665462E7 ; 32130.000000000004
136 ; 82422.72250996598 ; 303981.00153301307 ; 1.1786130096945936E7 ; 2.8963670661509447E7 ; 32368.000000000004
137 ; 82113.78419129745 ; 305420.9193777988 ; 1.1868552819455901E7 ; 2.926765166304246E7 ; 32606.000000000004
138 ; 81527.98866512644 ; 306858.4219887033 ; 1.1950666603647199E7 ; 2.957307258242026E7 ; 32844.00000000001
139 ; 79973.91671463136 ; 308293.44400417036 ; 1.2032194592312325E7 ; 2.9879931004408963E7 ; 33082.00000000001
140 ; 79184.06096407378 ; 309725.92107245454 ; 1.2112168509026956E7 ; 3.0188224448413134E7 ; 33320.00000000001
141 ; 78272.5604440883 ; 311155.78982355294 ; 1.219135256999103E7 ; 3.0497950369485587E7 ; 33558.00000000001
142 ; 77813.15494332464 ; 312582.9878421378 ; 1.2269625130435118E7 ; 3.080910615930914E7 ; 33796.00000000001
143 ; 76451.6312927989 ; 314007.45364145434 ; 1.2347438285378443E7 ; 3.112168914715128E7 ; 34034.00000000001
144 ; 75279.16430959565 ; 315429.1266381459 ; 1.2423889916671243E7 ; 3.1435696600792736E7 ; 34272.00000000001
145 ; 75818.55205741253 ; 316847.947127971 ; 1.2499169080980837E7 ; 3.175112572743088E7 ; 34510.00000000001
146 ; 75379.30292895567 ; 318263.8562623785 ; 1.257498763303825E7 ; 3.2067973674558852E7 ; 34748.00000000001
147 ; 74660.03911744448 ; 319676.7960259076 ; 1.2650366935967207E7 ; 3.238623753082123E7 ; 34986.00000000001
148 ; 74573.3301112988 ; 321086.70921438246 ; 1.2725026975084651E7 ; 3.2705914326847136E7 ; 35224.00000000001
149 ; 74547.84873761969 ; 322493.53941386915 ; 1.279960030519595E7 ; 3.3027001036061518E7 ; 35462.00000000001
150 ; 74199.97127933563 ; 323897.2309803687 ; 1.287414815393357E7 ; 3.3349494575475387E7 ; 35700.00000000001
151 ; 74127.80211062933 ; 325297.72902021674 ; 1.2948348125212906E7 ; 3.3673391806455754E7 ; 35938.00000000001
152 ; 73755.62609170626 ; 326694.9793711633 ; 1.3022475927323535E7 ; 3.399868953547597E7 ; 36176.00000000001
153 ; 73777.28933677368 ; 328088.92858410766 ; 1.309623155341524E7 ; 3.432538451484713E7 ; 36414.00000000001
154 ; 73734.18432919153 ; 329479.52390546375 ; 1.3170008842752015E7 ; 3.4653473443431236E7 ; 36652.00000000001
155 ; 73154.9506662321 ; 330866.7132601319 ; 1.3243743027081206E7 ; 3.49829529673367E7 ; 36890.00000000001
156 ; 72887.28294956266 ; 332250.4452350554 ; 1.3316897977747438E7 ; 3.531381968059683E7 ; 37128.00000000001
157 ; 72679.60082000663 ; 333630.6690633384 ; 1.3389785260697002E7 ; 3.564607012583189E7 ; 37366.00000000001
158 ; 72428.52384582271 ; 335007.3346089069 ; 1.3462464861517008E7 ; 3.5979700794895224E7 ; 37604.00000000001
159 ; 71748.37172878107 ; 336380.39235169 ; 1.3534893385362832E7 ; 3.631470812950413E7 ; 37842.00000000001
160 ; 71995.15265994974 ; 337749.79337330395 ; 1.3606641757091613E7 ; 3.6651088521855816E7 ; 38080.00000000001
161 ; 71440.43407002772 ; 339115.48934322107 ; 1.3678636909751562E7 ; 3.698883831522912E7 ; 38318.00000000001
162 ; 71408.78309437796 ; 340477.4325054033 ; 1.375007734382159E7 ; 3.732795380457234E7 ; 38556.00000000001
163 ; 71101.76185700492 ; 341835.5756653857 ; 1.3821486126915969E7 ; 3.766843123707774E7 ; 38794.00000000001
164 ; 70392.07119647048 ; 343189.8721777935 ; 1.3892587888772974E7 ; 3.801026681274313E7 ; 39032.00000000001
165 ; 70353.12412553836 ; 344540.2759342744 ; 1.3962979959969444E7 ; 3.835345668492092E7 ; 39270.00000000001
166 ; 69693.51384785255 ; 345886.7413518352 ; 1.4033333084094983E7 ; 3.869799696085519E7 ; 39508.00000000001
167 ; 69512.79910157809 ; 347229.22336156375 ; 1.4103026597942835E7 ; 3.904388370220703E7 ; 39746.00000000001
168 ; 70021.98313806637 ; 348567.67739772634 ; 1.4172539397044413E7 ; 3.9391112925568596E7 ; 39984.00000000001
169 ; 69142.22235623523 ; 349902.0593872239 ; 1.4242561380182479E7 ; 3.973968060296632E7 ; 40222.00000000001
170 ; 68839.21922634075 ; 351232.32573939627 ; 1.4311703602538714E7 ; 4.0089582662353545E7 ; 40460.00000000001
171 ; 68578.43179846433 ; 352558.4333361612 ; 1.4380542821765054E7 ; 4.0440814988092944E7 ; 40698.00000000001
172 ; 68132.37693838205 ; 353880.3395224768 ; 1.4449121253563518E7 ; 4.0793373421429105E7 ; 40936.00000000001
173 ; 67873.40660526481 ; 355198.00209711445 ; 1.45172536305019E7 ; 4.114725376095158E7 ; 41174.00000000001
174 ; 67910.09953936428 ; 356511.37930373417 ; 1.4585127037107164E7 ; 4.150245176304869E7 ; 41412.00000000001
175 ; 68241.8118013594 ; 357820.4298222482 ; 1.4653037136646528E7 ; 4.1858963142352425E7 ; 41650.00000000001
176 ; 68221.49490882733 ; 359125.1127604656 ; 1.4721278948447887E7 ; 4.2216783572174676E7 ; 41888.00000000001
177 ; 68091.67253656023 ; 360425.3876460071 ; 1.4789500443356713E7 ; 4.257590868493514E7 ; 42126.00000000001
178 ; 68739.21302103945 ; 361721.2144184795 ; 1.4857592115893273E7 ; 4.293633407258114E7 ; 42364.00000000001
179 ; 68732.668308333 ; 363012.5534219028 ; 1.4926331328914313E7 ; 4.329805528699962E7 ; 42602.00000000001
180 ; 68568.79599486021 ; 364299.3653973803 ; 1.4995063997222645E7 ; 4.366106784042152E7 ; 42840.00000000001
181 ; 69267.56614064772 ; 365581.61147600214 ; 1.5063632793217506E7 ; 4.40253672058189E7 ; 43078.00000000001
