CSV File for the Network on Day 342
1 - Minute m 
2 - Power Consumed at minute m 
3 - Power Produced at minute m 
4 - Energy Consumed since the beginning of the day 
5 - Energy Produced since the beginning of the day 
6 - Energy Lost since the beginning of the day 
 
No Production city : 2, Producer : 1
No Production city : 4, Producer : 1
No Production city : 4, Producer : 1
 
0 ; 58303.93406856764 ; 193688.95341156694 ; 0.0 ; 0.0 ; 0.0
1 ; 58895.457953747835 ; 193346.98899066114 ; 58303.93406856764 ; 193688.95341156694 ; 238.00000000000003
2 ; 59618.4977902831 ; 193040.10342888464 ; 117199.39202231547 ; 387035.9424022281 ; 476.00000000000006
3 ; 60775.70205218679 ; 192768.59684380775 ; 176817.8898125986 ; 580076.0458311127 ; 714.0000000000001
4 ; 61204.13354545076 ; 192532.7373388163 ; 237593.59186478538 ; 772844.6426749204 ; 952.0000000000001
5 ; 62169.40575807578 ; 192332.75980950883 ; 298797.72541023616 ; 965377.3800137367 ; 1190.0000000000002
6 ; 62860.92690744109 ; 192168.86488205747 ; 360967.1311683119 ; 1157710.1398232456 ; 1428.0000000000002
7 ; 63277.95845886066 ; 192041.21799466724 ; 423828.05807575304 ; 1349879.004705303 ; 1666.0000000000002
8 ; 63996.48570399405 ; 191949.94863194093 ; 487106.0165346137 ; 1541920.2226999705 ; 1904.0000000000002
9 ; 64895.982960374575 ; 191895.14972045043 ; 551102.5022386077 ; 1733870.1713319113 ; 2142.0000000000005
10 ; 65395.19245730843 ; 191876.87719214777 ; 615998.4851989823 ; 1925765.3210523617 ; 2380.0000000000005
11 ; 65980.17490999891 ; 191895.14972045043 ; 681393.6776562907 ; 2117642.1982445093 ; 2618.0000000000005
12 ; 66607.31232112087 ; 191949.94863194093 ; 747373.8525662896 ; 2309537.3479649597 ; 2856.0000000000005
13 ; 67596.62637775997 ; 192041.21799466724 ; 813981.1648874105 ; 2501487.2965969006 ; 3094.0000000000005
14 ; 68102.20986751463 ; 192168.86488205747 ; 881577.7912651704 ; 2693528.5145915677 ; 3332.0000000000005
15 ; 68643.15900205151 ; 192332.75980950883 ; 949680.0011326851 ; 2885697.379473625 ; 3570.0000000000005
16 ; 69419.47875242333 ; 192532.7373388163 ; 1018323.1601347367 ; 3078030.139283134 ; 3808.0000000000005
17 ; 70120.57967182415 ; 192768.59684380767 ; 1087742.63888716 ; 3270562.8766219504 ; 4046.0000000000005
18 ; 70491.06442194647 ; 193040.1034288847 ; 1157863.218558984 ; 3463331.473465758 ; 4284.000000000001
19 ; 71335.89359782333 ; 193346.98899066105 ; 1228354.2829809305 ; 3656371.576894643 ; 4522.000000000001
20 ; 71558.53922236175 ; 193688.953411567 ; 1299690.1765787539 ; 3849718.565885304 ; 4760.000000000001
21 ; 72356.67074663859 ; 194065.6658731745 ; 1371248.7158011156 ; 4043407.519296871 ; 4998.000000000001
22 ; 73096.92139328508 ; 194476.76627610088 ; 1443605.3865477543 ; 4237473.185170045 ; 5236.000000000001
23 ; 73498.19412400981 ; 194921.86675268275 ; 1516702.3079410393 ; 4431949.951446146 ; 5474.000000000001
24 ; 73878.6878505103 ; 195400.55325817133 ; 1590200.502065049 ; 4626871.818198829 ; 5712.000000000001
25 ; 74825.7632999246 ; 195912.3872259932 ; 1664079.1899155593 ; 4822272.371457 ; 5950.000000000001
26 ; 74856.65486089667 ; 196456.90727262598 ; 1738904.9532154838 ; 5018184.758682993 ; 6188.000000000001
27 ; 75367.95016414204 ; 197033.63093785098 ; 1813761.6080763806 ; 5214641.665955619 ; 6426.000000000001
28 ; 76320.90936697175 ; 197642.05644654375 ; 1889129.5582405226 ; 5411675.29689347 ; 6664.000000000001
29 ; 76681.76109939632 ; 198281.66447873265 ; 1965450.4676074944 ; 5609317.353340014 ; 6902.000000000001
30 ; 76956.24708474451 ; 198951.91993536352 ; 2042132.2287068907 ; 5807599.017818746 ; 7140.000000000001
31 ; 77746.47783809144 ; 199652.27368804425 ; 2119088.475791635 ; 6006550.9377541095 ; 7378.000000000001
32 ; 77886.91241478457 ; 200382.1643019707 ; 2196834.9536297265 ; 6206203.211442154 ; 7616.000000000001
33 ; 78249.8364833571 ; 201141.0197222341 ; 2274721.866044511 ; 6406585.375744125 ; 7854.000000000001
34 ; 78985.40504488585 ; 201928.25891476337 ; 2352971.702527868 ; 6607726.395466359 ; 8092.000000000001
35 ; 79731.09797827071 ; 202743.29345422666 ; 2431957.107572754 ; 6809654.654381122 ; 8330.000000000002
36 ; 80202.24238345759 ; 203585.52905229942 ; 2511688.2055510245 ; 7012397.9478353495 ; 8568.000000000002
37 ; 79928.19047116529 ; 204454.36702077326 ; 2591890.4479344822 ; 7215983.476887649 ; 8806.000000000002
38 ; 81190.63510850327 ; 205349.20566501768 ; 2671818.6384056476 ; 7420437.843908423 ; 9044.000000000002
39 ; 81612.42772384138 ; 206269.44160430515 ; 2753009.2735141506 ; 7625787.04957344 ; 9282.000000000002
40 ; 81732.10934472735 ; 207214.4710164474 ; 2834621.701237992 ; 7832056.491177745 ; 9520.000000000002
41 ; 82273.61798574615 ; 208183.69080507598 ; 2916353.8105827193 ; 8039270.962194192 ; 9758.000000000002
42 ; 82142.47043610242 ; 209176.49968870293 ; 2998627.4285684656 ; 8247454.652999268 ; 9996.000000000002
43 ; 82598.19359907077 ; 210192.2992114414 ; 3080769.899004568 ; 8456631.15268797 ; 10234.000000000002
44 ; 82957.65090168676 ; 211230.49467591857 ; 3163368.092603639 ; 8666823.451899411 ; 10472.000000000002
45 ; 83500.59536276893 ; 212290.4959995042 ; 3246325.7435053256 ; 8878053.94657533 ; 10710.000000000002
46 ; 83626.33176573829 ; 213371.71849548098 ; 3329826.3388680946 ; 9090344.442574834 ; 10948.000000000002
47 ; 83881.23816800068 ; 214473.58358121922 ; 3413452.670633833 ; 9303716.161070315 ; 11186.000000000002
48 ; 84532.33394259575 ; 215595.51941578227 ; 3497333.9088018336 ; 9518189.744651534 ; 11424.000000000002
49 ; 84674.47774072172 ; 216736.96146968554 ; 3581866.2427444295 ; 9733785.264067316 ; 11662.000000000002
50 ; 85002.74198116621 ; 217897.35302976772 ; 3666540.7204851513 ; 9950522.225537002 ; 11900.000000000002
51 ; 85632.36220119504 ; 219076.14564230916 ; 3751543.4624663177 ; 1.016841957856677E7 ; 12138.000000000002
52 ; 85296.54467178116 ; 220272.79949766025 ; 3837175.824667513 ; 1.0387495724209078E7 ; 12376.000000000002
53 ; 85546.46231422122 ; 221486.78375971917 ; 3922472.3693392943 ; 1.0607768523706738E7 ; 12614.000000000002
54 ; 85825.71975207048 ; 222717.57684363815 ; 4008018.8316535153 ; 1.0829255307466457E7 ; 12852.000000000002
55 ; 85824.52842192432 ; 223964.6666451353 ; 4093844.551405586 ; 1.1051972884310095E7 ; 13090.000000000002
56 ; 86807.71100026848 ; 225227.5507247628 ; 4179669.0798275103 ; 1.127593755095523E7 ; 13328.000000000002
57 ; 87147.51559124433 ; 226505.73645041947 ; 4266476.790827779 ; 1.1501165101679994E7 ; 13566.000000000002
58 ; 87436.16813227821 ; 227798.74110132022 ; 4353624.306419023 ; 1.1727670838130413E7 ; 13804.000000000002
59 ; 87487.34132195606 ; 229106.0919365346 ; 4441060.474551301 ; 1.1955469579231733E7 ; 14042.000000000002
60 ; 87290.73929172126 ; 230427.32623109262 ; 4528547.815873258 ; 1.2184575671168268E7 ; 14280.000000000002
61 ; 87855.72420513132 ; 231761.99128253278 ; 4615838.555164979 ; 1.241500299739936E7 ; 14518.000000000002
62 ; 87948.87408466649 ; 233109.64439063356 ; 4703694.2793701105 ; 1.2646764988681892E7 ; 14756.000000000002
63 ; 88029.52675641554 ; 234469.8528129291 ; 4791643.153454777 ; 1.2879874633072525E7 ; 14994.000000000002
64 ; 88663.0637206415 ; 235842.19369846946 ; 4879672.680211192 ; 1.3114344485885454E7 ; 15232.000000000002
65 ; 88515.93586906188 ; 237226.2540021395 ; 4968335.743931834 ; 1.3350186679583924E7 ; 15470.000000000002
66 ; 88535.42424852624 ; 238621.63038170678 ; 5056851.679800896 ; 1.3587412933586063E7 ; 15708.000000000002
67 ; 88674.31502230668 ; 240027.92907962675 ; 5145387.104049422 ; 1.382603456396777E7 ; 15946.000000000002
68 ; 88895.7604175114 ; 241444.76579149248 ; 5234061.419071728 ; 1.4066062493047398E7 ; 16184.000000000002
69 ; 89203.36269838815 ; 242871.76552288074 ; 5322957.17948924 ; 1.430750725883889E7 ; 16422.000000000004
70 ; 89069.64841471717 ; 244308.56243621436 ; 5412160.542187628 ; 1.455037902436177E7 ; 16660.000000000004
71 ; 89395.70758817524 ; 245754.7996891328 ; 5501230.190602345 ; 1.4794687586797984E7 ; 16898.000000000004
72 ; 89371.4059246132 ; 247210.12926574392 ; 5590625.898190521 ; 1.5040442386487117E7 ; 17136.000000000004
73 ; 89756.57337349327 ; 248674.21180201226 ; 5679997.304115134 ; 1.5287652515752861E7 ; 17374.000000000004
74 ; 89668.31510101358 ; 250146.71640643105 ; 5769753.877488628 ; 1.5536326727554873E7 ; 17612.000000000004
75 ; 89878.8524631848 ; 251627.32047702195 ; 5859422.192589642 ; 1.5786473443961304E7 ; 17850.000000000004
76 ; 89542.78707791076 ; 253115.70951560827 ; 5949301.045052826 ; 1.6038100764438326E7 ; 18088.000000000004
77 ; 89667.41127011142 ; 254611.57694021793 ; 6038843.832130738 ; 1.6291216473953934E7 ; 18326.000000000004
78 ; 89784.86232876603 ; 256114.623896387 ; 6128511.243400849 ; 1.6545828050894152E7 ; 18564.000000000004
79 ; 90364.56047081787 ; 257624.55906805367 ; 6218296.105729615 ; 1.680194267479054E7 ; 18802.000000000004
80 ; 90066.35913744861 ; 259141.09848866294 ; 6308660.666200433 ; 1.7059567233858593E7 ; 19040.000000000004
81 ; 89946.93037959447 ; 260663.96535302958 ; 6398727.025337881 ; 1.7318708332347255E7 ; 19278.000000000004
82 ; 89856.74694659765 ; 262192.8898304478 ; 6488673.955717476 ; 1.7579372297700286E7 ; 19516.000000000004
83 ; 90167.29906282654 ; 263727.60887947667 ; 6578530.702664074 ; 1.7841565187530734E7 ; 19754.000000000004
84 ; 89936.50791143731 ; 265267.8660647758 ; 6668698.0017269 ; 1.810529279641021E7 ; 19992.000000000004
85 ; 90090.60549967819 ; 266813.4113763209 ; 6758634.509638337 ; 1.8370560662474986E7 ; 20230.000000000004
86 ; 89892.074358571 ; 268364.00105127954 ; 6848725.115138016 ; 1.8637374073851306E7 ; 20468.000000000004
87 ; 90210.86826600163 ; 269919.39739879 ; 6938617.189496587 ; 1.8905738074902587E7 ; 20706.000000000004
88 ; 89576.46660640698 ; 271479.3686278488 ; 7028828.057762588 ; 1.9175657472301375E7 ; 20944.000000000004
89 ; 89872.68110449737 ; 273043.68867847725 ; 7118404.524368996 ; 1.9447136840929225E7 ; 21182.000000000004
90 ; 90438.28950990282 ; 274612.1370563088 ; 7208277.205473493 ; 1.9720180529607702E7 ; 21420.000000000004
91 ; 89984.08714294224 ; 276184.49867071 ; 7298715.494983396 ; 1.999479266666401E7 ; 21658.000000000004
92 ; 89648.1595317866 ; 277760.56367652584 ; 7388699.582126338 ; 2.027097716533472E7 ; 21896.000000000004
93 ; 89755.33780855774 ; 279340.12731951324 ; 7478347.741658125 ; 2.0548737729011245E7 ; 22134.000000000004
94 ; 89574.07479789466 ; 280922.9897855125 ; 7568103.079466683 ; 2.082807785633076E7 ; 22372.000000000004
95 ; 89604.62516747843 ; 282508.95605338423 ; 7657677.154264578 ; 2.110900084611627E7 ; 22610.000000000004
96 ; 88750.32760816393 ; 284097.8357517249 ; 7747281.7794320565 ; 2.1391509802169655E7 ; 22848.000000000004
97 ; 88948.94102176352 ; 285689.44301936193 ; 7836032.107040221 ; 2.1675607637921378E7 ; 23086.000000000004
98 ; 88796.84671563056 ; 287283.5963696136 ; 7924981.048061985 ; 2.196129708094074E7 ; 23324.000000000004
99 ; 88879.59227375148 ; 288880.1185582912 ; 8013777.894777616 ; 2.224858067731035E7 ; 23562.000000000004
100 ; 88813.78373066148 ; 290478.8364554096 ; 8102657.487051367 ; 2.2537460795868643E7 ; 23800.000000000004
101 ; 88825.05350915213 ; 292079.5809205654 ; 8191471.270782028 ; 2.282793963232405E7 ; 24038.000000000004
102 ; 88026.42905684284 ; 293682.1866819326 ; 8280296.324291181 ; 2.3120019213244617E7 ; 24276.000000000004
103 ; 88133.17312754484 ; 295286.4922188229 ; 8368322.753348024 ; 2.341370139992655E7 ; 24514.000000000004
104 ; 88139.10742578353 ; 296892.33964774915 ; 8456455.926475568 ; 2.3708987892145373E7 ; 24752.000000000004
105 ; 87943.40127390168 ; 298499.5746119289 ; 8544595.03390135 ; 2.400588023179312E7 ; 24990.000000000004
106 ; 87428.58621943233 ; 300108.04617415916 ; 8632538.435175253 ; 2.430437980640505E7 ; 25228.000000000004
107 ; 87477.39447123205 ; 301717.60671299254 ; 8719967.021394685 ; 2.4604487852579206E7 ; 25466.000000000004
108 ; 87766.40291943424 ; 303328.1118221406 ; 8807444.415865917 ; 2.49062054592922E7 ; 25704.000000000004
109 ; 87095.50771721863 ; 304939.4202130301 ; 8895210.81878535 ; 2.520953357111434E7 ; 25942.000000000004
110 ; 86509.57380872773 ; 306551.39362043637 ; 8982306.326502569 ; 2.5514472991327368E7 ; 26180.000000000004
111 ; 86493.81655893916 ; 308163.8967111148 ; 9068815.900311297 ; 2.5821024384947803E7 ; 26418.000000000004
112 ; 86332.32730003262 ; 309776.7969953553 ; 9155309.716870235 ; 2.6129188281658918E7 ; 26656.000000000004
113 ; 86170.81995605012 ; 311389.9647413794 ; 9241642.044170268 ; 2.6438965078654274E7 ; 26894.000000000004
114 ; 85572.48584320766 ; 313003.2728925041 ; 9327812.864126317 ; 2.6750355043395653E7 ; 27132.000000000004
115 ; 84956.61980805322 ; 314616.5969869938 ; 9413385.349969525 ; 2.706335831628816E7 ; 27370.000000000004
116 ; 84886.51922424178 ; 316229.81508052413 ; 9498341.969777578 ; 2.7377974913275152E7 ; 27608.000000000004
117 ; 84589.89187978084 ; 317842.8076711816 ; 9583228.48900182 ; 2.7694204728355676E7 ; 27846.000000000004
118 ; 84008.60928564104 ; 319455.4576269234 ; 9667818.3808816 ; 2.8012047536026858E7 ; 28084.000000000004
119 ; 84063.67752548578 ; 321067.65011542407 ; 9751826.990167242 ; 2.833150299365378E7 ; 28322.000000000004
120 ; 83314.2154407805 ; 322679.272536236 ; 9835890.667692726 ; 2.8652570643769205E7 ; 28560.000000000004
121 ; 83552.87271114085 ; 324290.2144551916 ; 9919204.883133506 ; 2.897524991630544E7 ; 28798.000000000004
122 ; 82543.02890447674 ; 325900.36754097877 ; 1.0002757755844647E7 ; 2.9299540130760632E7 ; 29036.000000000004
123 ; 82236.20854851203 ; 327509.6255038184 ; 1.0085300784749124E7 ; 2.962544049830161E7 ; 29274.000000000004
124 ; 82405.05414100862 ; 329117.88403617963 ; 1.0167536993297637E7 ; 2.995295012380543E7 ; 29512.000000000004
125 ; 81730.65958561102 ; 330725.0407554656 ; 1.0249942047438646E7 ; 3.028206800784161E7 ; 29750.000000000004
126 ; 81357.27038836677 ; 332330.99514860584 ; 1.0331672707024258E7 ; 3.0612793048597075E7 ; 29988.000000000004
127 ; 81160.1588345378 ; 333935.648518494 ; 1.0413029977412624E7 ; 3.094512404374568E7 ; 30226.000000000004
128 ; 80452.56741688027 ; 335538.9039322093 ; 1.0494190136247162E7 ; 3.1279059692264177E7 ; 30464.000000000004
129 ; 79937.76011965139 ; 337140.6661709632 ; 1.0574642703664042E7 ; 3.1614598596196387E7 ; 30702.000000000004
130 ; 79799.65066135139 ; 338740.8416817135 ; 1.0654580463783693E7 ; 3.195173926236735E7 ; 30940.000000000004
131 ; 79193.95837065125 ; 340339.3385303906 ; 1.0734380114445044E7 ; 3.2290480104049064E7 ; 31178.000000000004
132 ; 78576.98330339933 ; 341936.06635668146 ; 1.0813574072815696E7 ; 3.2630819442579456E7 ; 31416.000000000004
133 ; 77720.17075733418 ; 343530.9363303192 ; 1.0892151056119096E7 ; 3.2972755508936137E7 ; 31654.000000000004
134 ; 77712.15582799548 ; 345123.86110882653 ; 1.096987122687643E7 ; 3.3316286445266455E7 ; 31892.000000000004
135 ; 77544.41469455273 ; 346714.75479666464 ; 1.1047583382704426E7 ; 3.366141030637528E7 ; 32130.000000000004
136 ; 76985.1903274569 ; 348303.5329057394 ; 1.1125127797398979E7 ; 3.400812506117194E7 ; 32368.000000000004
137 ; 76320.23285315327 ; 349890.1123172183 ; 1.1202112987726435E7 ; 3.4356428594077684E7 ; 32606.000000000004
138 ; 75889.42978251106 ; 351474.41124461376 ; 1.1278433220579589E7 ; 3.47063187063949E7 ; 32844.00000000001
139 ; 75284.96579699783 ; 353056.34919808886 ; 1.13543226503621E7 ; 3.505779311763952E7 ; 33082.00000000001
140 ; 74681.64751011887 ; 354635.8469499444 ; 1.1429607616159098E7 ; 3.541084946683761E7 ; 33320.00000000001
141 ; 74011.06129301267 ; 356212.82650124584 ; 1.1504289263669217E7 ; 3.576548531378755E7 ; 33558.00000000001
142 ; 74047.61882895339 ; 357787.21104955155 ; 1.157830032496223E7 ; 3.612169814028879E7 ; 33796.00000000001
143 ; 72761.14810082052 ; 359358.92495770444 ; 1.1652347943791185E7 ; 3.647948535133834E7 ; 34034.00000000001
144 ; 72694.74839978396 ; 360927.8937236497 ; 1.1725109091892006E7 ; 3.683884427629605E7 ; 34272.00000000001
145 ; 72545.95958491652 ; 362494.0439512438 ; 1.179780384029179E7 ; 3.71997721700197E7 ; 34510.00000000001
146 ; 72199.81870535656 ; 364057.30332202115 ; 1.1870349799876707E7 ; 3.7562266213970944E7 ; 34748.00000000001
147 ; 72217.79535176732 ; 365617.60056788434 ; 1.1942549618582062E7 ; 3.792632351729297E7 ; 34986.00000000001
148 ; 72287.13403624432 ; 367174.8654446867 ; 1.201476741393383E7 ; 3.829194111786085E7 ; 35224.00000000001
149 ; 71917.71536494154 ; 368729.02870667604 ; 1.2087054547970075E7 ; 3.865911598330554E7 ; 35462.00000000001
150 ; 71248.13593766818 ; 370280.02208177117 ; 1.2158972263335017E7 ; 3.902784501201222E7 ; 35700.00000000001
151 ; 71207.49216100152 ; 371827.7782476406 ; 1.2230220399272686E7 ; 3.939812503409399E7 ; 35938.00000000001
152 ; 71160.02933913414 ; 373372.2308085575 ; 1.2301427891433688E7 ; 3.976995281234163E7 ; 36176.00000000001
153 ; 71086.81536458776 ; 374913.31427300285 ; 1.2372587920772823E7 ; 4.014332504315019E7 ; 36414.00000000001
154 ; 70711.62595691581 ; 376450.9640319928 ; 1.244367473613741E7 ; 4.051823835742319E7 ; 36652.00000000001
155 ; 70749.54655441652 ; 377985.1163381036 ; 1.2514386362094326E7 ; 4.089468932145518E7 ; 36890.00000000001
156 ; 70537.70940868749 ; 379515.7082851715 ; 1.2585135908648742E7 ; 4.1272674437793285E7 ; 37128.00000000001
157 ; 70325.04232311952 ; 381042.6777886435 ; 1.265567361805743E7 ; 4.165219014607845E7 ; 37366.00000000001
158 ; 70214.9833817081 ; 382565.9635665579 ; 1.272599866038055E7 ; 4.20332328238671E7 ; 37604.00000000001
159 ; 69870.46520764758 ; 384085.50512113195 ; 1.2796213643762257E7 ; 4.2415798787433654E7 ; 37842.00000000001
160 ; 69594.86257525047 ; 385601.24272093683 ; 1.2866084108969904E7 ; 4.279988429255479E7 ; 38080.00000000001
161 ; 69493.36360669832 ; 387113.11738363927 ; 1.2935678971545154E7 ; 4.318548553527573E7 ; 38318.00000000001
162 ; 69075.88849452871 ; 388621.07085929124 ; 1.3005172335151853E7 ; 4.3572598652659364E7 ; 38556.00000000001
163 ; 69069.25497928455 ; 390125.04561414866 ; 1.3074248223646382E7 ; 4.3961219723518655E7 ; 38794.00000000001
164 ; 68911.30122217219 ; 391624.98481500096 ; 1.3143317478625666E7 ; 4.43513447691328E7 ; 39032.00000000001
165 ; 68608.03459757024 ; 393120.83231399534 ; 1.3212228779847838E7 ; 4.47429697539478E7 ; 39270.00000000001
166 ; 68323.70683537584 ; 394612.53263393784 ; 1.3280836814445408E7 ; 4.5136090586261794E7 ; 39508.00000000001
167 ; 68014.81385196211 ; 396100.0309540556 ; 1.3349160521280784E7 ; 4.553070311889573E7 ; 39746.00000000001
168 ; 67619.39449183841 ; 397583.2730962056 ; 1.3417175335132746E7 ; 4.592680314984979E7 ; 39984.00000000001
169 ; 67667.4389119722 ; 399062.20551151276 ; 1.3484794729624584E7 ; 4.632438642294599E7 ; 40222.00000000001
170 ; 66856.56873992598 ; 400536.775267426 ; 1.3552462168536557E7 ; 4.67234486284575E7 ; 40460.00000000001
171 ; 66637.52384866084 ; 402006.9300351762 ; 1.3619318737276483E7 ; 4.712398540372493E7 ; 40698.00000000001
172 ; 66480.39589620917 ; 403472.6180776229 ; 1.3685956261125144E7 ; 4.7525992333760105E7 ; 40936.00000000001
173 ; 66622.68561795492 ; 404933.78823747754 ; 1.3752436657021353E7 ; 4.7929464951837726E7 ; 41174.00000000001
174 ; 66753.0354391631 ; 406390.38992589054 ; 1.3819059342639308E7 ; 4.83343987400752E7 ; 41412.00000000001
175 ; 66407.86783770767 ; 407842.37311138975 ; 1.3885812378078472E7 ; 4.874078913000109E7 ; 41650.00000000001
176 ; 66695.44514974415 ; 409289.6883091591 ; 1.395222024591618E7 ; 4.914863150311248E7 ; 41888.00000000001
177 ; 66622.88278937261 ; 410732.2865706461 ; 1.4018915691065924E7 ; 4.9557921191421635E7 ; 42126.00000000001
178 ; 66582.20085909599 ; 412170.11947348766 ; 1.4085538573855298E7 ; 4.996865347799228E7 ; 42364.00000000001
179 ; 66826.63610076727 ; 413603.13911174313 ; 1.4152120774714394E7 ; 5.038082359746577E7 ; 42602.00000000001
180 ; 66853.98400093502 ; 415031.29808642523 ; 1.421894741081516E7 ; 5.079442673657751E7 ; 42840.00000000001
181 ; 66772.70431293783 ; 416454.54949631885 ; 1.4285801394816095E7 ; 5.120945803466394E7 ; 43078.00000000001
182 ; 66269.57820278293 ; 417872.84692907846 ; 1.4352574099129032E7 ; 5.162591258416025E7 ; 43316.00000000001
