CSV File for the Network on Day 182
1 - Minute m 
2 - Power Consumed at minute m 
3 - Power Produced at minute m 
4 - Energy Consumed since the beginning of the day 
5 - Energy Produced since the beginning of the day 
6 - Energy Lost since the beginning of the day 
 
No Production city : 2, Producer : 1
No Production city : 4, Producer : 1
No Production city : 4, Producer : 1
 
0 ; 32524.72877362628 ; 147392.79303308722 ; 0.0 ; 0.0 ; 0.0
1 ; 34208.122500671045 ; 147038.02149007836 ; 32524.72877362628 ; 147392.79303308722 ; 238.00000000000003
2 ; 35583.90676358306 ; 146719.16939988575 ; 66732.85127429733 ; 294430.8145231656 ; 476.00000000000006
3 ; 37251.153907789245 ; 146436.69813658443 ; 102316.75803788038 ; 441149.98392305133 ; 714.0000000000001
4 ; 39078.853815200375 ; 146191.02261789318 ; 139567.91194566962 ; 587586.6820596358 ; 952.0000000000001
5 ; 40229.80198270581 ; 145982.50852363918 ; 178646.76576087 ; 733777.7046775289 ; 1190.0000000000002
6 ; 42045.3103694704 ; 145811.46978667198 ; 218876.5677435758 ; 879760.2132011681 ; 1428.0000000000002
7 ; 43576.62000080224 ; 145678.16639550275 ; 260921.8781130462 ; 1025571.6829878401 ; 1666.0000000000002
8 ; 44887.46313955654 ; 145582.80254406447 ; 304498.49811384844 ; 1171249.849383343 ; 1904.0000000000002
9 ; 46203.993595811015 ; 145525.5251591098 ; 349385.96125340497 ; 1316832.6519274074 ; 2142.0000000000005
10 ; 48169.8988223684 ; 145506.42282999802 ; 395589.954849216 ; 1462358.1770865172 ; 2380.0000000000005
11 ; 49123.86289706287 ; 145525.5251591098 ; 443759.8536715844 ; 1607864.5999165152 ; 2618.0000000000005
12 ; 50472.30553631822 ; 145582.80254406447 ; 492883.71656864724 ; 1753390.125075625 ; 2856.0000000000005
13 ; 51964.86814656007 ; 145678.16639550275 ; 543356.0221049655 ; 1898972.9276196896 ; 3094.0000000000005
14 ; 53132.83565261209 ; 145811.46978667192 ; 595320.8902515256 ; 2044651.0940151922 ; 3332.0000000000005
15 ; 54827.85189397526 ; 145982.50852363918 ; 648453.7259041376 ; 2190462.563801864 ; 3570.0000000000005
16 ; 56001.38819410604 ; 146191.02261789318 ; 703281.5777981129 ; 2336445.0723255035 ; 3808.0000000000005
17 ; 57635.06832058043 ; 146436.69813658437 ; 759282.9659922189 ; 2482636.0949433967 ; 4046.0000000000005
18 ; 58613.97963257472 ; 146719.1693998858 ; 816918.0343127993 ; 2629072.793079981 ; 4284.000000000001
19 ; 59568.45664380819 ; 147038.0214900783 ; 875532.013945374 ; 2775791.962479867 ; 4522.000000000001
20 ; 61288.33336235484 ; 147392.79303308728 ; 935100.4705891822 ; 2922829.9839699455 ; 4760.000000000001
21 ; 62339.0303290566 ; 147782.97921039257 ; 996388.803951537 ; 3070222.7770030326 ; 4998.000000000001
22 ; 63726.574358080245 ; 148208.0349575163 ; 1058727.8342805936 ; 3218005.756213425 ; 5236.000000000001
23 ; 65029.913143198406 ; 148667.37830465124 ; 1122454.4086386738 ; 3366213.7911709417 ; 5474.000000000001
24 ; 66034.18866474807 ; 149160.39381536777 ; 1187484.3217818723 ; 3514881.1694755927 ; 5712.000000000001
25 ; 67295.30120141295 ; 149686.43608063745 ; 1253518.5104466204 ; 3664041.5632909606 ; 5950.000000000001
26 ; 68084.1078783045 ; 150244.83322752902 ; 1320813.8116480333 ; 3813727.999371598 ; 6188.000000000001
27 ; 69226.18901492763 ; 150834.8904047301 ; 1388897.9195263379 ; 3963972.832599127 ; 6426.000000000001
28 ; 70317.00629471282 ; 151455.89321038587 ; 1458124.1085412656 ; 4114807.7230038573 ; 6664.000000000001
29 ; 71753.09017567092 ; 152107.11103148328 ; 1528441.1148359785 ; 4266263.616214243 ; 6902.000000000001
30 ; 72583.435230857 ; 152787.8002679954 ; 1600194.2050116495 ; 4418370.727245726 ; 7140.000000000001
31 ; 73663.82871917242 ; 153497.20741911727 ; 1672777.6402425065 ; 4571158.527513721 ; 7378.000000000001
32 ; 74468.16765227997 ; 154234.57201303542 ; 1746441.468961679 ; 4724655.734932838 ; 7616.000000000001
33 ; 75540.89414305105 ; 154999.12936568994 ; 1820909.636613959 ; 4878890.306945873 ; 7854.000000000001
34 ; 76501.18104622891 ; 155790.11315781414 ; 1896450.53075701 ; 5033889.4363115635 ; 8092.000000000001
35 ; 77602.95360830493 ; 156606.75782310887 ; 1972951.7118032388 ; 5189679.549469378 ; 8330.000000000002
36 ; 78992.20023533072 ; 157448.3007436731 ; 2050554.6654115438 ; 5346286.307292487 ; 8568.000000000002
37 ; 79379.31004221097 ; 158313.98425173998 ; 2129546.8656468745 ; 5503734.60803616 ; 8806.000000000002
38 ; 80685.1392438179 ; 159203.057439333 ; 2208926.1756890854 ; 5662048.5922879 ; 9044.000000000002
39 ; 81494.82472620421 ; 160114.77777966385 ; 2289611.3149329033 ; 5821251.649727233 ; 9282.000000000002
40 ; 82015.22336554676 ; 161048.41256593447 ; 2371106.1396591077 ; 5981366.427506897 ; 9520.000000000002
41 ; 83202.98689957267 ; 162003.2401747125 ; 2453121.3630246543 ; 6142414.840072831 ; 9758.000000000002
42 ; 83851.2383150433 ; 162978.55116222345 ; 2536324.349924227 ; 6304418.080247544 ; 9996.000000000002
43 ; 84925.89615468417 ; 163973.64920278912 ; 2620175.5882392707 ; 6467396.631409767 ; 10234.000000000002
44 ; 85744.74884706757 ; 164987.85187925398 ; 2705101.4843939547 ; 6631370.280612556 ; 10472.000000000002
45 ; 86108.04673356473 ; 166020.4913356201 ; 2790846.233241022 ; 6796358.13249181 ; 10710.000000000002
46 ; 86914.25487879277 ; 167070.91480228427 ; 2876954.279974587 ; 6962378.62382743 ; 10948.000000000002
47 ; 88121.41058372965 ; 168138.48500426637 ; 2963868.5348533797 ; 7129449.538629714 ; 11186.000000000002
48 ; 88608.73655551365 ; 169222.58046267 ; 3051989.9454371096 ; 7297588.023633981 ; 11424.000000000002
49 ; 89342.6511097388 ; 170322.5956993475 ; 3140598.681992623 ; 7466810.604096651 ; 11662.000000000002
50 ; 89959.02612519331 ; 171437.94135437853 ; 3229941.3331023618 ; 7637133.199795999 ; 11900.000000000002
51 ; 90700.57810711217 ; 172568.0442255353 ; 3319900.359227555 ; 7808571.141150377 ; 12138.000000000002
52 ; 91164.15656547029 ; 173712.34723842208 ; 3410600.937334667 ; 7981139.185375912 ; 12376.000000000002
53 ; 92484.02862928949 ; 174870.30935545027 ; 3501765.093900137 ; 8154851.5326143345 ; 12614.000000000002
54 ; 92364.9139861002 ; 176041.4054312684 ; 3594249.1225294266 ; 8329721.841969784 ; 12852.000000000002
55 ; 93257.50616197374 ; 177225.1260217121 ; 3686614.036515527 ; 8505763.247401053 ; 13090.000000000002
56 ; 93949.23065549169 ; 178420.9771527879 ; 3779871.5426775008 ; 8682988.373422764 ; 13328.000000000002
57 ; 94877.45483941387 ; 179628.48005566304 ; 3873820.7733329926 ; 8861409.350575551 ; 13566.000000000002
58 ; 94812.30539744892 ; 180847.17087310483 ; 3968698.2281724066 ; 9041037.830631215 ; 13804.000000000002
59 ; 95637.08937298368 ; 182076.60034231225 ; 4063510.5335698556 ; 9221885.00150432 ; 14042.000000000002
60 ; 95270.19053030222 ; 183316.3334585959 ; 4159147.6229428393 ; 9403961.601846633 ; 14280.000000000002
61 ; 96898.0355452768 ; 184565.94912391307 ; 4254417.813473142 ; 9587277.93530523 ; 14518.000000000002
62 ; 96955.7248923431 ; 185825.0397838354 ; 4351315.849018418 ; 9771843.884429144 ; 14756.000000000002
63 ; 97700.0604013319 ; 187093.21105613234 ; 4448271.573910762 ; 9957668.92421298 ; 14994.000000000002
64 ; 98244.71801803679 ; 188370.08135378518 ; 4545971.634312093 ; 1.0144762135269111E7 ; 15232.000000000002
65 ; 98659.16666675985 ; 189655.2815049084 ; 4644216.35233013 ; 1.0333132216622896E7 ; 15470.000000000002
66 ; 98878.18446867308 ; 190948.45437174552 ; 4742875.51899689 ; 1.0522787498127805E7 ; 15708.000000000002
67 ; 99269.31924299643 ; 192249.2544706214 ; 4841753.703465562 ; 1.071373595249955E7 ; 15946.000000000002
68 ; 99733.54159965755 ; 193557.34759448032 ; 4941023.0227085585 ; 1.0905985206970172E7 ; 16184.000000000002
69 ; 99695.24382709489 ; 194872.41043940128 ; 5040756.564308216 ; 1.1099542554564653E7 ; 16422.000000000004
70 ; 99717.8540483799 ; 196194.1302362763 ; 5140451.808135311 ; 1.1294414965004055E7 ; 16660.000000000004
71 ; 100501.16958498144 ; 197522.20438864833 ; 5240169.662183691 ; 1.149060909524033E7 ; 16898.000000000004
72 ; 100833.02946263977 ; 198856.34011753526 ; 5340670.831768672 ; 1.1688131299628979E7 ; 17136.000000000004
73 ; 101089.74531356567 ; 200196.25411392015 ; 5441503.861231312 ; 1.1886987639746513E7 ; 17374.000000000004
74 ; 101579.81476158701 ; 201541.67219945177 ; 5542593.606544877 ; 1.2087183893860433E7 ; 17612.000000000004
75 ; 101734.87065078014 ; 202892.32899578282 ; 5644173.421306465 ; 1.2288725566059886E7 ; 17850.000000000004
76 ; 102252.87943841935 ; 204247.9676028713 ; 5745908.291957245 ; 1.2491617895055668E7 ; 18088.000000000004
77 ; 102420.01929342723 ; 205608.3392864765 ; 5848161.171395664 ; 1.269586586265854E7 ; 18326.000000000004
78 ; 102417.95950854622 ; 206973.2031750058 ; 5950581.190689092 ; 1.2901474201945016E7 ; 18564.000000000004
79 ; 102248.41467729243 ; 208342.32596579532 ; 6052999.150197638 ; 1.3108447405120023E7 ; 18802.000000000004
80 ; 102608.03511495065 ; 209715.48164085275 ; 6155247.56487493 ; 1.3316789731085818E7 ; 19040.000000000004
81 ; 102800.64040963913 ; 211092.45119203464 ; 6257855.599989881 ; 1.3526505212726671E7 ; 19278.000000000004
82 ; 102792.0645982712 ; 212473.02235559118 ; 6360656.24039952 ; 1.3737597663918706E7 ; 19516.000000000004
83 ; 103042.39330095015 ; 213856.9893559715 ; 6463448.304997792 ; 1.3950070686274298E7 ; 19754.000000000004
84 ; 103041.20486794907 ; 215244.15265875333 ; 6566490.698298742 ; 1.416392767563027E7 ; 19992.000000000004
85 ; 102971.16222503455 ; 216634.3187325343 ; 6669531.903166691 ; 1.4379171828289023E7 ; 20230.000000000004
86 ; 103186.09013798586 ; 218027.29981960048 ; 6772503.065391725 ; 1.4595806147021556E7 ; 20468.000000000004
87 ; 103596.32433169987 ; 219422.91371517227 ; 6875689.15552971 ; 1.4813833446841156E7 ; 20706.000000000004
88 ; 103858.58816683044 ; 220820.98355501273 ; 6979285.47986141 ; 1.5033256360556329E7 ; 20944.000000000004
89 ; 103001.32634413478 ; 222221.33761117415 ; 7083144.06802824 ; 1.5254077344111342E7 ; 21182.000000000004
90 ; 103398.47999566932 ; 223623.8090956495 ; 7186145.394372376 ; 1.5476298681722516E7 ; 21420.000000000004
91 ; 103362.81935489383 ; 225028.2359716926 ; 7289543.874368045 ; 1.5699922490818165E7 ; 21658.000000000004
92 ; 103112.45581487137 ; 226434.46077256487 ; 7392906.693722938 ; 1.5924950726789858E7 ; 21896.000000000004
93 ; 102579.11460392227 ; 227842.33042746666 ; 7496019.149537809 ; 1.6151385187562423E7 ; 22134.000000000004
94 ; 103073.51659401179 ; 229251.69609441166 ; 7598598.264141732 ; 1.6379227517989889E7 ; 22372.000000000004
95 ; 102661.94442153376 ; 230662.41299980186 ; 7701671.780735743 ; 1.6608479214084301E7 ; 22610.000000000004
96 ; 103048.58122369811 ; 232074.34028446564 ; 7804333.725157277 ; 1.6839141627084102E7 ; 22848.000000000004
97 ; 102391.62272347027 ; 233487.34085592302 ; 7907382.306380975 ; 1.707121596736857E7 ; 23086.000000000004
98 ; 102537.05672973736 ; 234901.28124664654 ; 8009773.9291044455 ; 1.730470330822449E7 ; 23324.000000000004
99 ; 102333.36752975502 ; 236316.03147809202 ; 8112310.985834183 ; 1.753960458947114E7 ; 23562.000000000004
100 ; 102121.57425477712 ; 237731.46493027627 ; 8214644.353363939 ; 1.777592062094923E7 ; 23800.000000000004
101 ; 101752.22825404211 ; 239147.45821668662 ; 8316765.927618716 ; 1.801365208587951E7 ; 24038.000000000004
102 ; 101873.04897078018 ; 240563.89106431202 ; 8418518.155872758 ; 1.8252799544096194E7 ; 24276.000000000004
103 ; 101698.7782600028 ; 241980.64619859104 ; 8520391.204843538 ; 1.8493363435160507E7 ; 24514.000000000004
104 ; 101004.81917000355 ; 243397.60923307936 ; 8622089.98310354 ; 1.8735344081359096E7 ; 24752.000000000004
105 ; 100788.74679584109 ; 244814.6685636448 ; 8723094.802273544 ; 1.8978741690592173E7 ; 24990.000000000004
106 ; 100112.793688576 ; 246231.7152670049 ; 8823883.549069384 ; 1.922355635915582E7 ; 25228.000000000004
107 ; 99957.41741855546 ; 247648.64300342806 ; 8923996.34275796 ; 1.9469788074422825E7 ; 25466.000000000004
108 ; 99671.34914177723 ; 249065.3479234252 ; 9023953.760176517 ; 1.971743671742625E7 ; 25704.000000000004
109 ; 99236.80510277631 ; 250481.7285782667 ; 9123625.109318294 ; 1.9966502065349676E7 ; 25942.000000000004
110 ; 99081.078759158 ; 251897.68583416368 ; 9222861.91442107 ; 2.021698379392794E7 ; 26180.000000000004
111 ; 98497.7389745478 ; 253313.12278995995 ; 9321942.993180228 ; 2.0468881479762103E7 ; 26418.000000000004
112 ; 97856.13656102729 ; 254727.94469818677 ; 9420440.732154775 ; 2.0722194602552064E7 ; 26656.000000000004
113 ; 97746.5170763141 ; 256142.0588893377 ; 9518296.868715802 ; 2.0976922547250252E7 ; 26894.000000000004
114 ; 97522.067358985 ; 257555.3746992277 ; 9616043.385792116 ; 2.123306460613959E7 ; 27132.000000000004
115 ; 96315.61340319987 ; 258967.8033993052 ; 9713565.453151101 ; 2.1490619980838817E7 ; 27370.000000000004
116 ; 95960.70559405885 ; 260379.25812979141 ; 9809881.0665543 ; 2.1749587784238122E7 ; 27608.000000000004
117 ; 95454.81296410845 ; 261789.65383552667 ; 9905841.77214836 ; 2.2009967042367913E7 ; 27846.000000000004
118 ; 95308.7297851131 ; 263198.90720440814 ; 1.0001296585112467E7 ; 2.227175669620344E7 ; 28084.000000000004
119 ; 94504.89411532007 ; 264606.936608309 ; 1.009660531489758E7 ; 2.253495560340785E7 ; 28322.000000000004
120 ; 93884.19872525058 ; 266013.66204637237 ; 1.01911102090129E7 ; 2.279956254001616E7 ; 28560.000000000004
121 ; 93435.06170303926 ; 267419.00509057916 ; 1.0284994407738151E7 ; 2.3065576202062532E7 ; 28798.000000000004
122 ; 92906.90721757818 ; 268822.8888334934 ; 1.037842946944119E7 ; 2.333299520715311E7 ; 29036.000000000004
123 ; 92074.95167766068 ; 270225.2378380906 ; 1.047133637665877E7 ; 2.3601818095986605E7 ; 29274.000000000004
124 ; 91837.34643411431 ; 271625.97808958264 ; 1.056341132833643E7 ; 2.3872043333824694E7 ; 29512.000000000004
125 ; 90610.70575706511 ; 273025.03694915224 ; 1.0655248674770545E7 ; 2.4143669311914276E7 ; 29750.000000000004
126 ; 90272.89408852602 ; 274422.3431095173 ; 1.074585938052761E7 ; 2.441669434886343E7 ; 29988.000000000004
127 ; 89225.01017587533 ; 275817.82655224577 ; 1.0836132274616135E7 ; 2.469111669197295E7 ; 30226.000000000004
128 ; 88973.30373859106 ; 277211.41850674956 ; 1.092535728479201E7 ; 2.4966934518525194E7 ; 30464.000000000004
129 ; 88511.54841842205 ; 278603.05141088314 ; 1.10143305885306E7 ; 2.5244145937031943E7 ; 30702.000000000004
130 ; 87252.64350940075 ; 279992.6588730819 ; 1.1102842136949021E7 ; 2.5522748988442827E7 ; 30940.000000000004
131 ; 86564.80202668048 ; 281380.1756359734 ; 1.1190094780458422E7 ; 2.580274164731591E7 ; 31178.000000000004
132 ; 86001.25468454583 ; 282765.5375414004 ; 1.1276659582485102E7 ; 2.6084121822951883E7 ; 31416.000000000004
133 ; 84958.63218414843 ; 284148.68149679695 ; 1.1362660837169647E7 ; 2.6366887360493284E7 ; 31654.000000000004
134 ; 84341.4784670519 ; 285529.5454428596 ; 1.1447619469353795E7 ; 2.665103604199008E7 ; 31892.000000000004
135 ; 83236.68740486144 ; 286908.06832246005 ; 1.1531960947820848E7 ; 2.693656558743294E7 ; 32130.000000000004
136 ; 82430.21184237531 ; 288284.1900507487 ; 1.161519763522571E7 ; 2.72234736557554E7 ; 32368.000000000004
137 ; 81550.06718834312 ; 289657.8514863974 ; 1.1697627847068084E7 ; 2.7511757845806148E7 ; 32606.000000000004
138 ; 80801.90274913207 ; 291028.9944039363 ; 1.1779177914256427E7 ; 2.7801415697292544E7 ; 32844.00000000001
139 ; 79623.67457636098 ; 292397.5614671383 ; 1.185997981700556E7 ; 2.809244469169648E7 ; 33082.00000000001
140 ; 78846.49884223225 ; 293763.49620340817 ; 1.193960349158192E7 ; 2.8384842253163617E7 ; 33320.00000000001
141 ; 77551.26598963015 ; 295126.742979135 ; 1.2018449990424152E7 ; 2.8678605749367025E7 ; 33558.00000000001
142 ; 77536.93229058437 ; 296487.2469759694 ; 1.2096001256413782E7 ; 2.897373249234616E7 ; 33796.00000000001
143 ; 75705.78199220383 ; 297844.95416798594 ; 1.2173538188704366E7 ; 2.927021973932213E7 ; 34034.00000000001
144 ; 74672.79883510058 ; 299199.8112996962 ; 1.224924397069657E7 ; 2.9568064693490114E7 ; 34272.00000000001
145 ; 74278.10242998974 ; 300551.7658648778 ; 1.2323916769531671E7 ; 2.986726450478981E7 ; 34510.00000000001
146 ; 74322.39004845252 ; 301900.766086185 ; 1.239819487196166E7 ; 3.016781627065469E7 ; 34748.00000000001
147 ; 74433.05589968254 ; 303246.7608955115 ; 1.2472517262010112E7 ; 3.0469717036740873E7 ; 34986.00000000001
148 ; 73818.16081536263 ; 304589.6999150735 ; 1.2546950317909796E7 ; 3.0772963797636386E7 ; 35224.00000000001
149 ; 73995.19604485494 ; 305929.53343918466 ; 1.2620768478725158E7 ; 3.107755349755146E7 ; 35462.00000000001
150 ; 73753.24823576436 ; 307266.21241669543 ; 1.2694763674770012E7 ; 3.1383483030990645E7 ; 35700.00000000001
151 ; 73239.3093101955 ; 308599.68843407056 ; 1.2768516923005776E7 ; 3.169074924340734E7 ; 35938.00000000001
152 ; 73302.25155379523 ; 309929.91369907913 ; 1.2841756232315972E7 ; 3.199934893184141E7 ; 36176.00000000001
153 ; 73163.3011636231 ; 311256.84102507244 ; 1.2915058483869767E7 ; 3.230927884554049E7 ; 36414.00000000001
154 ; 73132.41470723489 ; 312580.42381582764 ; 1.298822178503339E7 ; 3.2620535686565563E7 ; 36652.00000000001
155 ; 72533.14167750183 ; 313900.61605093436 ; 1.3061354199740624E7 ; 3.293311611038139E7 ; 36890.00000000001
156 ; 72069.09706214487 ; 315217.37227170315 ; 1.3133887341418127E7 ; 3.3247016726432323E7 ; 37128.00000000001
157 ; 71682.77112717794 ; 316530.6475675748 ; 1.3205956438480271E7 ; 3.3562234098704025E7 ; 37366.00000000001
158 ; 71235.45822714249 ; 317840.39756301226 ; 1.3277639209607448E7 ; 3.38787647462716E7 ; 37604.00000000001
159 ; 71291.75031758861 ; 319146.57840485603 ; 1.3348874667834591E7 ; 3.419660514383461E7 ; 37842.00000000001
160 ; 71192.38056133446 ; 320449.1467501244 ; 1.342016641815218E7 ; 3.451575172223947E7 ; 38080.00000000001
161 ; 70671.99667832725 ; 321748.0597542425 ; 1.3491358798713515E7 ; 3.4836200868989594E7 ; 38318.00000000001
162 ; 70349.58058079965 ; 323043.27505968325 ; 1.3562030795391843E7 ; 3.515794892874384E7 ; 38556.00000000001
163 ; 69912.77778621772 ; 324334.7507850047 ; 1.3632380375972642E7 ; 3.5480992203803524E7 ; 38794.00000000001
164 ; 69702.3478425843 ; 325622.4455142681 ; 1.370229315375886E7 ; 3.580532695458853E7 ; 39032.00000000001
165 ; 69688.09891978119 ; 326906.3182868238 ; 1.3771995501601443E7 ; 3.61309494001028E7 ; 39270.00000000001
166 ; 68961.7959451425 ; 328186.32858744875 ; 1.3841683600521224E7 ; 3.645785571838962E7 ; 39508.00000000001
167 ; 68810.00381546761 ; 329462.436336825 ; 1.3910645396466367E7 ; 3.678604204697707E7 ; 39746.00000000001
168 ; 68010.93509487616 ; 330734.6018823446 ; 1.3979455400281835E7 ; 3.7115504483313896E7 ; 39984.00000000001
169 ; 67944.38812394926 ; 332002.7859892287 ; 1.4047466335376712E7 ; 3.744623908519624E7 ; 40222.00000000001
170 ; 67309.2789683915 ; 333266.94983195147 ; 1.4115410723500662E7 ; 3.7778241871185474E7 ; 40460.00000000001
171 ; 67495.09285489313 ; 334527.0549859539 ; 1.4182720002469053E7 ; 3.811150882101743E7 ; 40698.00000000001
172 ; 66997.00466655869 ; 335783.0634196406 ; 1.4250215095323946E7 ; 3.8446035876003385E7 ; 40936.00000000001
173 ; 66549.62510566672 ; 337034.9374866455 ; 1.4317212099990506E7 ; 3.8781818939423025E7 ; 41174.00000000001
174 ; 66587.6413281016 ; 338282.63991836045 ; 1.4383761725096172E7 ; 3.911885387690967E7 ; 41412.00000000001
175 ; 67610.43653866785 ; 339526.1338167135 ; 1.4450349366424274E7 ; 3.945713651682803E7 ; 41650.00000000001
176 ; 67148.01326213234 ; 340765.38264719053 ; 1.4517959802962942E7 ; 3.979666265064474E7 ; 41888.00000000001
177 ; 67415.88793395128 ; 342000.3502320898 ; 1.4585107816225074E7 ; 4.0137428033291936E7 ; 42126.00000000001
178 ; 67774.71125660976 ; 343231.00074400165 ; 1.4652523704159025E7 ; 4.047942838352402E7 ; 42364.00000000001
179 ; 67291.47129060442 ; 344457.29869950545 ; 1.4720298415415635E7 ; 4.082265938426802E7 ; 42602.00000000001
180 ; 68285.12656078729 ; 345679.2089530756 ; 1.478758988670624E7 ; 4.116711668296753E7 ; 42840.00000000001
181 ; 67873.0043521432 ; 346896.69669118884 ; 1.4855875013267027E7 ; 4.1512795891920604E7 ; 43078.00000000001
182 ; 68337.90728742324 ; 348109.727426627 ; 1.492374801761917E7 ; 4.185969258861179E7 ; 43316.00000000001
