CSV File for the Network on Day 165
1 - Minute m 
2 - Power Consumed at minute m 
3 - Power Produced at minute m 
4 - Energy Consumed since the beginning of the day 
5 - Energy Produced since the beginning of the day 
6 - Energy Lost since the beginning of the day 
 
No Production city : 2, Producer : 1
No Production city : 4, Producer : 1
No Production city : 4, Producer : 1
 
0 ; 39121.80037149522 ; 158245.1056476283 ; 0.0 ; 0.0 ; 0.0
1 ; 41085.1306431136 ; 157900.76592482394 ; 39121.80037149522 ; 158245.1056476283 ; 238.00000000000003
2 ; 42373.16632751262 ; 157591.49135493723 ; 80206.93101460882 ; 316145.87157245225 ; 476.00000000000006
3 ; 43559.06507817134 ; 157317.66611959334 ; 122580.09734212144 ; 473737.36292738945 ; 714.0000000000001
4 ; 45139.87098173062 ; 157079.63470352185 ; 166139.1624202928 ; 631055.0290469828 ; 952.0000000000001
5 ; 46515.080314927836 ; 156877.69992207363 ; 211279.03340202343 ; 788134.6637505046 ; 1190.0000000000002
6 ; 47855.5383410065 ; 156712.1211529728 ; 257794.11371695128 ; 945012.3636725782 ; 1428.0000000000002
7 ; 49276.522730534416 ; 156583.1127960265 ; 305649.6520579578 ; 1101724.484825551 ; 1666.0000000000002
8 ; 49867.42882742948 ; 156490.84298195786 ; 354926.1747884922 ; 1258307.5976215776 ; 1904.0000000000002
9 ; 51446.91258311954 ; 156435.4325484602 ; 404793.6036159217 ; 1414798.4406035354 ; 2142.0000000000005
10 ; 53433.84450592319 ; 156416.95429805695 ; 456240.5161990412 ; 1571233.8731519957 ; 2380.0000000000005
11 ; 54535.34393431911 ; 156435.4325484602 ; 509674.3607049644 ; 1727650.8274500526 ; 2618.0000000000005
12 ; 55562.36502201844 ; 156490.84298195786 ; 564209.7046392835 ; 1884086.259998513 ; 2856.0000000000005
13 ; 56794.572454541034 ; 156583.1127960265 ; 619772.0696613019 ; 2040577.1029804708 ; 3094.0000000000005
14 ; 58387.073859740274 ; 156712.12115297272 ; 676566.6421158429 ; 2197160.215776497 ; 3332.0000000000005
15 ; 59206.683390394726 ; 156877.69992207363 ; 734953.7159755832 ; 2353872.33692947 ; 3570.0000000000005
16 ; 60433.272176297236 ; 157079.63470352185 ; 794160.3993659778 ; 2510750.0368515435 ; 3808.0000000000005
17 ; 61594.65001747311 ; 157317.66611959334 ; 854593.6715422751 ; 2667829.6715550655 ; 4046.0000000000005
18 ; 62859.85846554735 ; 157591.49135493723 ; 916188.3215597483 ; 2825147.3376746587 ; 4284.000000000001
19 ; 64192.453362372114 ; 157900.76592482394 ; 979048.1800252956 ; 2982738.829029596 ; 4522.000000000001
20 ; 64925.438421487124 ; 158245.1056476283 ; 1043240.6333876677 ; 3140639.59495442 ; 4760.000000000001
21 ; 66081.62458901222 ; 158624.08879583623 ; 1108166.071809155 ; 3298884.700602048 ; 4998.000000000001
22 ; 67543.95246394358 ; 159037.25839843848 ; 1174247.6963981672 ; 3457508.789397884 ; 5236.000000000001
23 ; 68309.54134800825 ; 159484.1246667521 ; 1241791.6488621107 ; 3616546.0477963225 ; 5474.000000000001
24 ; 69481.70279770794 ; 159964.16751544116 ; 1310101.190210119 ; 3776030.172463075 ; 5712.000000000001
25 ; 69928.18212930643 ; 160476.83915079263 ; 1379582.8930078268 ; 3935994.339978516 ; 5950.000000000001
26 ; 71211.42485709669 ; 161021.56669906797 ; 1449511.0751371332 ; 4096471.1791293086 ; 6188.000000000001
27 ; 72258.98917082234 ; 161597.75484896562 ; 1520722.49999423 ; 4257492.745828376 ; 6426.000000000001
28 ; 73776.55141734515 ; 162204.78848380508 ; 1592981.4891650523 ; 4419090.500677342 ; 6664.000000000001
29 ; 73844.21196538775 ; 162842.03528093407 ; 1666758.0405823975 ; 4581295.289161147 ; 6902.000000000001
30 ; 75394.7617314223 ; 163508.84825797236 ; 1740602.2525477852 ; 4744137.324442081 ; 7140.000000000001
31 ; 76610.18105421812 ; 164204.56824778861 ; 1815997.0142792074 ; 4907646.172700053 ; 7378.000000000001
32 ; 76721.6631593797 ; 164928.52628648008 ; 1892607.1953334257 ; 5071850.740947842 ; 7616.000000000001
33 ; 78166.38225062839 ; 165680.04590103187 ; 1969328.8584928054 ; 5236779.267234322 ; 7854.000000000001
34 ; 78764.54015770975 ; 166458.4452857175 ; 2047495.2407434338 ; 5402459.313135354 ; 8092.000000000001
35 ; 79538.50929465826 ; 167263.03935861657 ; 2126259.780901144 ; 5568917.758421071 ; 8330.000000000002
36 ; 80985.92049658406 ; 168093.1416918299 ; 2205798.290195802 ; 5736180.797779688 ; 8568.000000000002
37 ; 81365.76927212684 ; 168948.06631103257 ; 2286784.210692386 ; 5904273.939471518 ; 8806.000000000002
38 ; 82321.29145829173 ; 169827.12936190408 ; 2368149.979964513 ; 6073222.00578255 ; 9044.000000000002
39 ; 82842.33690976154 ; 170729.65064268533 ; 2450471.271422805 ; 6243049.135144454 ; 9282.000000000002
40 ; 83968.51251911509 ; 171654.95500363762 ; 2533313.6083325665 ; 6413778.78578714 ; 9520.000000000002
41 ; 84670.45496053429 ; 172602.3736155041 ; 2617282.1208516816 ; 6585433.740790778 ; 9758.000000000002
42 ; 85215.24073241674 ; 173571.2451102096 ; 2701952.575812216 ; 6758036.114406282 ; 9996.000000000002
43 ; 86128.28027964954 ; 174560.91659798304 ; 2787167.8165446324 ; 6931607.359516492 ; 10234.000000000002
44 ; 86858.14186721866 ; 175570.74456585312 ; 2873296.096824282 ; 7106168.276114475 ; 10472.000000000002
45 ; 87442.0292329983 ; 176600.09566307502 ; 2960154.2386915004 ; 7281739.020680328 ; 10710.000000000002
46 ; 88393.69532675405 ; 177648.34737949542 ; 3047596.2679244988 ; 7458339.116343403 ; 10948.000000000002
47 ; 88736.92907880474 ; 178714.88862317786 ; 3135989.9632512527 ; 7635987.463722899 ; 11186.000000000002
48 ; 90022.44350536462 ; 179799.12020380094 ; 3224726.8923300575 ; 7814702.352346077 ; 11424.000000000002
49 ; 90047.58497828405 ; 180900.45522842795 ; 3314749.335835422 ; 7994501.472549877 ; 11662.000000000002
50 ; 91229.99150926982 ; 182018.3194162387 ; 3404796.920813706 ; 8175401.9277783055 ; 11900.000000000002
51 ; 91774.0378104118 ; 183152.15133872675 ; 3496026.9123229757 ; 8357420.247194544 ; 12138.000000000002
52 ; 91838.19053492378 ; 184301.40259171935 ; 3587800.9501333875 ; 8540572.398533272 ; 12376.000000000002
53 ; 93034.75919793421 ; 185465.53790537023 ; 3679639.140668311 ; 8724873.801124992 ; 12614.000000000002
54 ; 93222.22285185578 ; 186644.0351980349 ; 3772673.899866245 ; 8910339.339030363 ; 12852.000000000002
55 ; 93674.1695387862 ; 187836.38557966286 ; 3865896.122718101 ; 9096983.374228397 ; 13090.000000000002
56 ; 94452.78425663037 ; 189042.09331004354 ; 3959570.292256887 ; 9284819.75980806 ; 13328.000000000002
57 ; 94851.33042098631 ; 190260.67571692992 ; 4054023.0765135176 ; 9473861.853118103 ; 13566.000000000002
58 ; 95431.59733091523 ; 191491.66307874664 ; 4148874.406934504 ; 9664122.528835032 ; 13804.000000000002
59 ; 96110.18324461933 ; 192734.59847626393 ; 4244306.004265419 ; 9855614.191913778 ; 14042.000000000002
60 ; 96312.15347310368 ; 193989.037617301 ; 4340416.187510039 ; 1.0048348790390043E7 ; 14280.000000000002
61 ; 96871.07003601098 ; 195254.54863820487 ; 4436728.340983142 ; 1.0242337828007344E7 ; 14518.000000000002
62 ; 96927.03964953306 ; 196530.71188554898 ; 4533599.411019153 ; 1.0437592376645548E7 ; 14756.000000000002
63 ; 97449.18623536483 ; 197817.11968119716 ; 4630526.450668686 ; 1.0634123088531097E7 ; 14994.000000000002
64 ; 97962.88665938456 ; 199113.37607360087 ; 4727975.636904051 ; 1.0831940208212294E7 ; 15232.000000000002
65 ; 98034.08413349163 ; 200419.09657792805 ; 4825938.523563435 ; 1.1031053584285894E7 ; 15470.000000000002
66 ; 99015.77204675518 ; 201733.90790737112 ; 4923972.607696927 ; 1.1231472680863822E7 ; 15708.000000000002
67 ; 99470.63835473958 ; 203057.44769774386 ; 5022988.379743682 ; 1.1433206588771192E7 ; 15946.000000000002
68 ; 99579.99792097518 ; 204389.36422725793 ; 5122459.018098421 ; 1.1636264036468936E7 ; 16184.000000000002
69 ; 99971.76146506396 ; 205729.31613316174 ; 5222039.0160193965 ; 1.1840653400696194E7 ; 16422.000000000004
70 ; 99727.46382867398 ; 207076.9721267379 ; 5322010.777484461 ; 1.2046382716829356E7 ; 16660.000000000004
71 ; 99924.81995210145 ; 208432.0107079768 ; 5421738.241313134 ; 1.2253459688956093E7 ; 16898.000000000004
72 ; 100795.07463618166 ; 209794.11988108527 ; 5521663.061265236 ; 1.246189169966407E7 ; 17136.000000000004
73 ; 100592.90400336175 ; 211162.99687184277 ; 5622458.135901418 ; 1.2671685819545155E7 ; 17374.000000000004
74 ; 101115.60580912612 ; 212538.3478476809 ; 5723051.03990478 ; 1.2882848816416997E7 ; 17612.000000000004
75 ; 101025.74099634547 ; 213919.8876412424 ; 5824166.645713906 ; 1.3095387164264679E7 ; 17850.000000000004
76 ; 101369.74795719783 ; 215307.33947806509 ; 5925192.386710252 ; 1.330930705190592E7 ; 18088.000000000004
77 ; 101487.04433813461 ; 216700.43470893503 ; 6026562.13466745 ; 1.3524614391383985E7 ; 18326.000000000004
78 ; 101518.00330155258 ; 218098.91254736696 ; 6128049.179005585 ; 1.374131482609292E7 ; 18564.000000000004
79 ; 101708.83096388192 ; 219502.51981258433 ; 6229567.182307137 ; 1.3959413738640286E7 ; 18802.000000000004
80 ; 101892.67104709179 ; 220911.0106783056 ; 6331276.013271019 ; 1.417891625845287E7 ; 19040.000000000004
81 ; 102003.8988123816 ; 222324.14642757352 ; 6433168.68431811 ; 1.4399827269131176E7 ; 19278.000000000004
82 ; 101950.39380180273 ; 223741.69521381173 ; 6535172.583130492 ; 1.462215141555875E7 ; 19516.000000000004
83 ; 101697.87657901141 ; 225163.43182824014 ; 6637122.976932295 ; 1.4845893110772561E7 ; 19754.000000000004
84 ; 102022.40980107943 ; 226589.13747373645 ; 6738820.853511306 ; 1.5071056542600801E7 ; 19992.000000000004
85 ; 102033.34448818344 ; 228018.59954519328 ; 6840843.263312386 ; 1.5297645680074537E7 ; 20230.000000000004
86 ; 101963.42352796388 ; 229451.61141638507 ; 6942876.607800569 ; 1.5525664279619731E7 ; 20468.000000000004
87 ; 102020.23680933383 ; 230887.97223333034 ; 7044840.031328533 ; 1.5755115891036116E7 ; 20706.000000000004
88 ; 101790.41615242047 ; 232327.48671410806 ; 7146860.268137867 ; 1.5986003863269446E7 ; 20944.000000000004
89 ; 101784.61970826892 ; 233769.96495506662 ; 7248650.684290287 ; 1.6218331349983554E7 ; 21182.000000000004
90 ; 102017.55564483278 ; 235215.22224334313 ; 7350435.303998556 ; 1.6452101314938622E7 ; 21420.000000000004
91 ; 102147.83338456319 ; 236663.07887559626 ; 7452452.859643389 ; 1.6687316537181964E7 ; 21658.000000000004
92 ; 102068.17474311634 ; 238113.35998284232 ; 7554600.693027952 ; 1.692397961605756E7 ; 21896.000000000004
93 ; 101626.77434412262 ; 239565.8953612727 ; 7656668.867771068 ; 1.71620929760404E7 ; 22134.000000000004
94 ; 101858.28825722124 ; 241020.51930892217 ; 7758295.642115191 ; 1.7401658871401675E7 ; 22372.000000000004
95 ; 101571.80526796066 ; 242477.0704680509 ; 7860153.930372412 ; 1.7642679390710596E7 ; 22610.000000000004
96 ; 101664.66465279255 ; 243935.39167309622 ; 7961725.735640373 ; 1.7885156461178645E7 ; 22848.000000000004
97 ; 101227.58461135089 ; 245395.32980404753 ; 8063390.400293166 ; 1.812909185285174E7 ; 23086.000000000004
98 ; 101333.9062820793 ; 246856.73564509314 ; 8164617.9849045165 ; 1.837448718265579E7 ; 23324.000000000004
99 ; 101082.56684610031 ; 248319.46374838776 ; 8265951.891186596 ; 1.8621343918300882E7 ; 23562.000000000004
100 ; 100609.4307883397 ; 249783.37230278715 ; 8367034.4580326965 ; 1.886966338204927E7 ; 23800.000000000004
101 ; 100939.65465501648 ; 251248.32300739668 ; 8467643.888821036 ; 1.9119446754352055E7 ; 24038.000000000004
102 ; 100260.39614500187 ; 252714.1809497811 ; 8568583.543476053 ; 1.9370695077359453E7 ; 24276.000000000004
103 ; 100471.55527403664 ; 254180.8144886849 ; 8668843.939621054 ; 1.9623409258309234E7 ; 24514.000000000004
104 ; 99913.10124685527 ; 255648.09514111237 ; 8769315.49489509 ; 1.987759007279792E7 ; 24752.000000000004
105 ; 99545.26142874321 ; 257115.89747362092 ; 8869228.596141946 ; 2.0133238167939033E7 ; 24990.000000000004
106 ; 99263.81729110183 ; 258584.09899768198 ; 8968773.85757069 ; 2.0390354065412655E7 ; 25228.000000000004
107 ; 98618.39883520898 ; 260052.580068968 ; 9068037.67486179 ; 2.0648938164410338E7 ; 25466.000000000004
108 ; 98717.92719504956 ; 261521.22379042496 ; 9166656.073696999 ; 2.0908990744479306E7 ; 25704.000000000004
109 ; 97630.9756640962 ; 262989.9159189963 ; 9265374.000892049 ; 2.117051196826973E7 ; 25942.000000000004
110 ; 97790.7103070626 ; 264458.5447758645 ; 9363004.976556145 ; 2.1433501884188727E7 ; 26180.000000000004
111 ; 97351.69915003018 ; 265927.0011600816 ; 9460795.686863206 ; 2.1697960428964593E7 ; 26418.000000000004
112 ; 96926.58975978124 ; 267395.17826546374 ; 9558147.386013236 ; 2.1963887430124674E7 ; 26656.000000000004
113 ; 96673.33786032916 ; 268862.9716006272 ; 9655073.975773018 ; 2.2231282608390138E7 ; 26894.000000000004
114 ; 96408.28721118848 ; 270330.2789120488 ; 9751747.313633347 ; 2.2500145579990763E7 ; 27132.000000000004
115 ; 95825.88826210031 ; 271797.0001100354 ; 9848155.600844536 ; 2.2770475858902812E7 ; 27370.000000000004
116 ; 95073.87796660379 ; 273263.0371974927 ; 9943981.489106636 ; 2.3042272859012846E7 ; 27608.000000000004
117 ; 94424.95775040533 ; 274728.2942013857 ; 1.003905536707324E7 ; 2.331553589621034E7 ; 27846.000000000004
118 ; 94009.15471388644 ; 276192.6771067879 ; 1.0133480324823646E7 ; 2.3590264190411724E7 ; 28084.000000000004
119 ; 93412.18028948632 ; 277656.09379341896 ; 1.0227489479537532E7 ; 2.386645686751851E7 ; 28322.000000000004
120 ; 93080.79022829242 ; 279118.45397457504 ; 1.0320901659827018E7 ; 2.414411296131193E7 ; 28560.000000000004
121 ; 92851.29147455854 ; 280579.6691383589 ; 1.041398245005531E7 ; 2.4423231415286504E7 ; 28798.000000000004
122 ; 92174.40954606078 ; 282039.6524911196 ; 1.0506833741529869E7 ; 2.470381108442486E7 ; 29036.000000000004
123 ; 91440.31706984581 ; 283498.3189030168 ; 1.059900815107593E7 ; 2.498585073691598E7 ; 29274.000000000004
124 ; 90761.52078991182 ; 284955.58485562564 ; 1.0690448468145775E7 ; 2.5269349055818997E7 ; 29512.000000000004
125 ; 90396.94919696511 ; 286411.3683915027 ; 1.0781209988935687E7 ; 2.5554304640674625E7 ; 29750.000000000004
126 ; 89597.87123477425 ; 287865.5890656368 ; 1.0871606938132651E7 ; 2.5840716009066127E7 ; 29988.000000000004
127 ; 89065.51338176866 ; 289318.16789870925 ; 1.0961204809367426E7 ; 2.6128581598131765E7 ; 30226.000000000004
128 ; 88426.55056809235 ; 290769.0273320947 ; 1.1050270322749194E7 ; 2.6417899766030475E7 ; 30464.000000000004
129 ; 87737.48735271016 ; 292218.0911845323 ; 1.1138696873317286E7 ; 2.670866879336257E7 ; 30702.000000000004
130 ; 86738.77778877752 ; 293665.2846104026 ; 1.1226434360669997E7 ; 2.7000886884547103E7 ; 30940.000000000004
131 ; 85924.95114212461 ; 295110.53405954724 ; 1.1313173138458773E7 ; 2.7294552169157505E7 ; 31178.000000000004
132 ; 85696.5376420869 ; 296553.7672385701 ; 1.1399098089600898E7 ; 2.7589662703217052E7 ; 31416.000000000004
133 ; 84878.13088893521 ; 297994.91307356337 ; 1.1484794627242986E7 ; 2.788621647045562E7 ; 31654.000000000004
134 ; 84020.12496062969 ; 299433.9016742005 ; 1.1569672758131921E7 ; 2.8184211383529183E7 ; 31892.000000000004
135 ; 83429.62475333316 ; 300870.6642991447 ; 1.165369288309255E7 ; 2.8483645285203382E7 ; 32130.000000000004
136 ; 82256.30688817576 ; 302305.13332272 ; 1.1737122507845884E7 ; 2.8784515949502528E7 ; 32368.000000000004
137 ; 81514.12611843004 ; 303737.24220279645 ; 1.181937881473406E7 ; 2.9086821082825247E7 ; 32606.000000000004
138 ; 81100.23088186274 ; 305166.9254498414 ; 1.1900892940852491E7 ; 2.9390558325028043E7 ; 32844.00000000001
139 ; 79866.38138633002 ; 306594.1185970922 ; 1.1981993171734354E7 ; 2.9695725250477884E7 ; 33082.00000000001
140 ; 78425.87149208708 ; 308018.75817180605 ; 1.2061859553120684E7 ; 3.0002319369074978E7 ; 33320.00000000001
141 ; 78016.4816078966 ; 309440.78166754526 ; 1.2140285424612772E7 ; 3.0310338127246782E7 ; 33558.00000000001
142 ; 77557.87136833223 ; 310860.1275174583 ; 1.2218301906220669E7 ; 3.0619778908914328E7 ; 33796.00000000001
143 ; 76169.4153074411 ; 312276.73506851756 ; 1.2295859777589E7 ; 3.0930639036431786E7 ; 34034.00000000001
144 ; 75019.86217908301 ; 313690.5445566772 ; 1.2372029192896442E7 ; 3.1242915771500304E7 ; 34272.00000000001
145 ; 75407.44748994874 ; 315101.4970829154 ; 1.2447049055075526E7 ; 3.155660631605698E7 ; 34510.00000000001
146 ; 74659.1467795517 ; 316509.534590127 ; 1.2522456502565475E7 ; 3.1871707813139897E7 ; 34748.00000000001
147 ; 74836.83105825922 ; 317914.59984083474 ; 1.2597115649345027E7 ; 3.2188217347730026E7 ; 34986.00000000001
148 ; 74376.20403089376 ; 319316.6363956861 ; 1.2671952480403287E7 ; 3.250613194757086E7 ; 35224.00000000001
149 ; 74578.46173711994 ; 320715.58859270776 ; 1.2746328684434181E7 ; 3.2825448583966546E7 ; 35462.00000000001
150 ; 74320.83975441902 ; 322111.40152728703 ; 1.2820907146171302E7 ; 3.3146164172559254E7 ; 35700.00000000001
151 ; 74052.41048654435 ; 323504.0210328539 ; 1.2895227985925721E7 ; 3.346827557408654E7 ; 35938.00000000001
152 ; 73850.18400858321 ; 324893.39366223675 ; 1.2969280396412265E7 ; 3.3791779595119394E7 ; 36176.00000000001
153 ; 73291.37192781264 ; 326279.4666696656 ; 1.3043130580420848E7 ; 3.411667298878163E7 ; 36414.00000000001
154 ; 73108.0760562213 ; 327662.1879934001 ; 1.311642195234866E7 ; 3.4442952455451295E7 ; 36652.00000000001
155 ; 73049.50784933218 ; 329041.5062389573 ; 1.3189530028404882E7 ; 3.4770614643444695E7 ; 36890.00000000001
156 ; 72441.39485859113 ; 330417.37066291703 ; 1.3262579536254214E7 ; 3.5099656149683654E7 ; 37128.00000000001
157 ; 72715.91248748275 ; 331789.731157284 ; 1.3335020931112805E7 ; 3.5430073520346574E7 ; 37366.00000000001
158 ; 72221.08543621431 ; 333158.53823438537 ; 1.3407736843600288E7 ; 3.5761863251503855E7 ; 37604.00000000001
159 ; 71547.50928989556 ; 334523.7430122837 ; 1.3479957929036502E7 ; 3.609502178973824E7 ; 37842.00000000001
160 ; 71223.86771383499 ; 335885.29720068676 ; 1.3551505438326398E7 ; 3.6429545532750525E7 ; 38080.00000000001
161 ; 71117.99715904925 ; 337243.15308733535 ; 1.3622729306040233E7 ; 3.676543082995121E7 ; 38318.00000000001
162 ; 70754.55167320333 ; 338597.2635248518 ; 1.3693847303199282E7 ; 3.7102673983038545E7 ; 38556.00000000001
163 ; 70732.56107111645 ; 339947.5819180326 ; 1.3764601854872486E7 ; 3.74412712465634E7 ; 38794.00000000001
164 ; 70032.33723707875 ; 341294.06221156754 ; 1.3835334415943602E7 ; 3.778121882848143E7 ; 39032.00000000001
165 ; 69918.35797323713 ; 342636.65887817193 ; 1.390536675318068E7 ; 3.8122512890692994E7 ; 39270.00000000001
166 ; 69393.5271206068 ; 343975.32690711506 ; 1.3975285111153917E7 ; 3.8465149549571164E7 ; 39508.00000000001
167 ; 69111.4508678333 ; 345310.02179313137 ; 1.4044678638274524E7 ; 3.880912487647828E7 ; 39746.00000000001
168 ; 68880.3064895227 ; 346640.6995257005 ; 1.4113790089142358E7 ; 3.915443489827141E7 ; 39984.00000000001
169 ; 69137.79487904678 ; 347967.3165786824 ; 1.4182670395631881E7 ; 3.950107559779711E7 ; 40222.00000000001
170 ; 68801.67060569048 ; 349289.8299002958 ; 1.4251808190510929E7 ; 3.984904291437579E7 ; 40460.00000000001
171 ; 67961.1886843239 ; 350608.19690342684 ; 1.432060986111662E7 ; 4.0198332744276084E7 ; 40698.00000000001
172 ; 67275.57447313503 ; 351922.3754562559 ; 1.4388571049800944E7 ; 4.0548940941179514E7 ; 40936.00000000001
173 ; 67663.75938988385 ; 353232.32387319265 ; 1.4455846624274079E7 ; 4.090086331663577E7 ; 41174.00000000001
174 ; 66924.96166816277 ; 354538.00090610696 ; 1.4523510383663964E7 ; 4.1254095640508965E7 ; 41412.00000000001
175 ; 67204.59668141688 ; 355839.36573584593 ; 1.4590435345332127E7 ; 4.1608633641415074E7 ; 41650.00000000001
176 ; 67694.62627401907 ; 357136.37796402693 ; 1.4657639942013543E7 ; 4.196447300715092E7 ; 41888.00000000001
177 ; 68118.90455718043 ; 358428.9976050971 ; 1.4725334568287563E7 ; 4.2321609385114945E7 ; 42126.00000000001
178 ; 67829.99823076797 ; 359717.18507864914 ; 1.4793453472844742E7 ; 4.2680038382720046E7 ; 42364.00000000001
179 ; 68063.05696964987 ; 361000.90120198583 ; 1.486128347107551E7 ; 4.30397555677987E7 ; 42602.00000000001
180 ; 67941.66332055049 ; 362280.1071829237 ; 1.492934652804516E7 ; 4.340075646900068E7 ; 42840.00000000001
181 ; 68248.8914264665 ; 363554.7646128274 ; 1.4997288191365711E7 ; 4.37630365761836E7 ; 43078.00000000001
