CSV File for the Network on Day 185
1 - Minute m 
2 - Power Consumed at minute m 
3 - Power Produced at minute m 
4 - Energy Consumed since the beginning of the day 
5 - Energy Produced since the beginning of the day 
6 - Energy Lost since the beginning of the day 
 
No Production city : 2, Producer : 1
No Production city : 4, Producer : 1
No Production city : 4, Producer : 1
 
0 ; 31778.295223568894 ; 144938.80650845089 ; 0.0 ; 0.0 ; 0.0
1 ; 33289.096117439556 ; 144580.33023964084 ; 31778.295223568894 ; 144938.80650845089 ; 238.00000000000003
2 ; 34562.062376351714 ; 144258.08502852058 ; 65067.39134100845 ; 289519.1367480917 ; 476.00000000000006
3 ; 36200.1266053449 ; 143972.5569521261 ; 99629.45371736016 ; 433777.22177661234 ; 714.0000000000001
4 ; 38180.96410933143 ; 143724.18353214796 ; 135829.58032270506 ; 577749.7787287384 ; 952.0000000000001
5 ; 39291.16472375305 ; 143513.35067425296 ; 174010.5444320365 ; 721473.9622608863 ; 1190.0000000000002
6 ; 40968.62114185289 ; 143340.38990197936 ; 213301.70915578955 ; 864987.3129351393 ; 1428.0000000000002
7 ; 42478.08728874257 ; 143205.57593034362 ; 254270.33029764245 ; 1008327.7028371186 ; 1666.0000000000002
8 ; 43739.13730897901 ; 143109.12461996486 ; 296748.41758638504 ; 1151533.2787674624 ; 1904.0000000000002
9 ; 45346.810567206325 ; 143051.1913469737 ; 340487.55489536404 ; 1294642.4033874273 ; 2142.0000000000005
10 ; 46744.53671471893 ; 143031.86981736877 ; 385834.36546257033 ; 1437693.594734401 ; 2380.0000000000005
11 ; 48291.2215065736 ; 143051.1913469737 ; 432578.90217728924 ; 1580725.4645517697 ; 2618.0000000000005
12 ; 49545.421171702175 ; 143109.12461996486 ; 480870.12368386285 ; 1723776.6558987433 ; 2856.0000000000005
13 ; 51240.36600068056 ; 143205.57593034362 ; 530415.5448555651 ; 1866885.7805187083 ; 3094.0000000000005
14 ; 52571.680377914614 ; 143340.38990197927 ; 581655.9108562457 ; 2010091.356449052 ; 3332.0000000000005
15 ; 53857.475646591374 ; 143513.35067425296 ; 634227.5912341602 ; 2153431.746351031 ; 3570.0000000000005
16 ; 54925.464453871806 ; 143724.18353214796 ; 688085.0668807516 ; 2296945.097025284 ; 3808.0000000000005
17 ; 56585.389899093236 ; 143972.55695212603 ; 743010.5313346235 ; 2440669.280557432 ; 4046.0000000000005
18 ; 57575.61655124685 ; 144258.08502852064 ; 799595.9212337167 ; 2584641.837509558 ; 4284.000000000001
19 ; 58762.58701176649 ; 144580.33023964078 ; 857171.5377849635 ; 2728899.922538079 ; 4522.000000000001
20 ; 60480.27184487645 ; 144938.80650845094 ; 915934.12479673 ; 2873480.25277772 ; 4760.000000000001
21 ; 61762.95426635942 ; 145332.9825096395 ; 976414.3966416065 ; 3018419.0592861706 ; 4998.000000000001
22 ; 62552.11690973549 ; 145762.2851731305 ; 1038177.3509079659 ; 3163752.04179581 ; 5236.000000000001
23 ; 63865.334153247146 ; 146226.103333608 ; 1100729.4678177014 ; 3309514.326968941 ; 5474.000000000001
24 ; 65438.2034262534 ; 146723.7914763153 ; 1164594.8019709485 ; 3455740.430302549 ; 5712.000000000001
25 ; 66197.85153911918 ; 147254.67353116604 ; 1230033.005397202 ; 3602464.2217788645 ; 5950.000000000001
26 ; 67562.48885501448 ; 147818.04666989823 ; 1296230.8569363211 ; 3749718.8953100303 ; 6188.000000000001
27 ; 68743.92674951721 ; 148413.18506446265 ; 1363793.3457913357 ; 3897536.9419799284 ; 6426.000000000001
28 ; 70186.97368357514 ; 149039.343568886 ; 1432537.272540853 ; 4045950.127044391 ; 6664.000000000001
29 ; 70753.55621854242 ; 149695.76129130874 ; 1502724.246224428 ; 4194989.470613277 ; 6902.000000000001
30 ; 71893.7214284265 ; 150381.6650276032 ; 1573477.8024429705 ; 4344685.231904585 ; 7140.000000000001
31 ; 73088.09725087995 ; 151096.27253277157 ; 1645371.523871397 ; 4495066.896932188 ; 7378.000000000001
32 ; 74151.22796875103 ; 151838.79561106703 ; 1718459.6211222769 ; 4646163.16946496 ; 7616.000000000001
33 ; 75239.72257127284 ; 152608.44301035738 ; 1792610.8490910279 ; 4798001.9650760265 ; 7854.000000000001
34 ; 76195.60109970489 ; 153404.42311056773 ; 1867850.5716623007 ; 4950610.408086384 ; 8092.000000000001
35 ; 77229.16700438503 ; 154225.94640001544 ; 1944046.1727620056 ; 5104014.831196952 ; 8330.000000000002
36 ; 78357.40439657262 ; 155072.22773704585 ; 2021275.3397663906 ; 5258240.777596967 ; 8568.000000000002
37 ; 79430.62509175937 ; 155942.48839755196 ; 2099632.7441629632 ; 5413313.005334013 ; 8806.000000000002
38 ; 80309.0169749909 ; 156835.95791170548 ; 2179063.3692547227 ; 5569255.493731565 ; 9044.000000000002
39 ; 81110.40794036086 ; 157751.87569554168 ; 2259372.3862297134 ; 5726091.45164327 ; 9282.000000000002
40 ; 82091.61012350724 ; 158689.4924849352 ; 2340482.794170074 ; 5883843.327338812 ; 9520.000000000002
41 ; 83081.27849096572 ; 159648.0715810107 ; 2422574.4042935814 ; 6042532.8198237475 ; 9758.000000000002
42 ; 83910.28017629351 ; 160626.88991716708 ; 2505655.682784547 ; 6202180.891404758 ; 9996.000000000002
43 ; 84460.17958365337 ; 161625.23895870766 ; 2589565.9629608407 ; 6362807.781321925 ; 10234.000000000002
44 ; 85594.84303354344 ; 162642.42544658107 ; 2674026.142544494 ; 6524433.020280633 ; 10472.000000000002
45 ; 86051.9775553775 ; 163677.77199700137 ; 2759620.9855780373 ; 6687075.445727214 ; 10710.000000000002
46 ; 86605.54202885856 ; 164730.6175687597 ; 2845672.9631334147 ; 6850753.217724215 ; 10948.000000000002
47 ; 87866.26021406407 ; 165800.31780989916 ; 2932278.5051622735 ; 7015483.8352929745 ; 11186.000000000002
48 ; 88220.22652177527 ; 166886.2452951403 ; 3020144.765376338 ; 7181284.153102874 ; 11424.000000000002
49 ; 88910.49820696865 ; 167987.7896650395 ; 3108364.991898113 ; 7348170.398398014 ; 11662.000000000002
50 ; 89594.08711779036 ; 169104.3576773678 ; 3197275.4901050813 ; 7516158.188063053 ; 11900.000000000002
51 ; 90036.85265526184 ; 170235.37318063696 ; 3286869.5772228716 ; 7685262.545740421 ; 12138.000000000002
52 ; 91352.45852397261 ; 171380.2770190977 ; 3376906.4298781333 ; 7855497.918921058 ; 12376.000000000002
53 ; 91831.78853337736 ; 172538.52687790093 ; 3468258.888402106 ; 8026878.195940156 ; 12614.000000000002
54 ; 92512.69697955293 ; 173709.59707647102 ; 3560090.6769354832 ; 8199416.722818056 ; 12852.000000000002
55 ; 93053.73704986705 ; 174892.97831750155 ; 3652603.373915036 ; 8373126.319894527 ; 13090.000000000002
56 ; 93821.0380176698 ; 176088.1773983502 ; 3745657.110964903 ; 8548019.298212029 ; 13328.000000000002
57 ; 94552.3168351885 ; 177294.71689099993 ; 3839478.148982573 ; 8724107.47561038 ; 13566.000000000002
58 ; 94778.3957352992 ; 178512.13479616825 ; 3934030.465817761 ; 8901402.19250138 ; 13804.000000000002
59 ; 96188.06853655707 ; 179739.98417658661 ; 4028808.8615530604 ; 9079914.327297548 ; 14042.000000000002
60 ; 96439.48450227416 ; 180977.83277394925 ; 4124996.9300896176 ; 9259654.311474135 ; 14280.000000000002
61 ; 96801.32218690286 ; 182225.26261353865 ; 4221436.414591892 ; 9440632.144248085 ; 14518.000000000002
62 ; 97438.98464071014 ; 183481.86960007792 ; 4318237.736778795 ; 9622857.406861624 ; 14756.000000000002
63 ; 97773.26802460964 ; 184747.2631079401 ; 4415676.721419505 ; 9806339.276461702 ; 14994.000000000002
64 ; 98165.11463124583 ; 186021.06556845567 ; 4513449.989444114 ; 9991086.539569642 ; 15232.000000000002
65 ; 98857.97374383 ; 187302.91205670772 ; 4611615.10407536 ; 1.0177107605138099E7 ; 15470.000000000002
66 ; 98798.45339400228 ; 188592.44987987896 ; 4710473.07781919 ; 1.0364410517194806E7 ; 15708.000000000002
67 ; 99700.23635686371 ; 189889.33816892747 ; 4809271.531213192 ; 1.0553002967074685E7 ; 15946.000000000002
68 ; 99893.20064230765 ; 191193.24747510132 ; 4908971.767570056 ; 1.0742892305243611E7 ; 16184.000000000002
69 ; 100266.44423395583 ; 192503.85937256907 ; 5008864.968212363 ; 1.0934085552718712E7 ; 16422.000000000004
70 ; 100325.17991699335 ; 193820.866068231 ; 5109131.412446319 ; 1.1126589412091281E7 ; 16660.000000000004
71 ; 101093.7831846193 ; 195143.97001958702 ; 5209456.592363313 ; 1.1320410278159512E7 ; 16898.000000000004
72 ; 101089.45735407448 ; 196472.88356137235 ; 5310550.375547932 ; 1.1515554248179099E7 ; 17136.000000000004
73 ; 101593.17737719367 ; 197807.32854152384 ; 5411639.832902007 ; 1.1712027131740471E7 ; 17374.000000000004
74 ; 101503.41766500323 ; 199147.0359669089 ; 5513233.0102792 ; 1.1909834460281996E7 ; 17612.000000000004
75 ; 102299.97636682843 ; 200491.74565913784 ; 5614736.427944203 ; 1.2108981496248905E7 ; 17850.000000000004
76 ; 102326.67684374945 ; 201841.20592067932 ; 5717036.404311031 ; 1.2309473241908042E7 ; 18088.000000000004
77 ; 102524.92118176083 ; 203195.17321141274 ; 5819363.08115478 ; 1.2511314447828721E7 ; 18326.000000000004
78 ; 102507.87064111061 ; 204553.41183567973 ; 5921888.002336541 ; 1.2714509621040134E7 ; 18564.000000000004
79 ; 102763.06833873097 ; 205915.6936398272 ; 6024395.872977652 ; 1.2919063032875814E7 ; 18802.000000000004
80 ; 102961.27064865245 ; 207281.79772018822 ; 6127158.941316383 ; 1.3124978726515641E7 ; 19040.000000000004
81 ; 102924.49056400622 ; 208651.51014139305 ; 6230120.211965036 ; 1.333226052423583E7 ; 19278.000000000004
82 ; 103057.15588917893 ; 210024.62366486934 ; 6333044.702529042 ; 1.3540912034377223E7 ; 19516.000000000004
83 ; 103384.51638232022 ; 211400.93748735526 ; 6436101.858418221 ; 1.3750936658042092E7 ; 19754.000000000004
84 ; 103821.7091494627 ; 212780.25698922563 ; 6539486.3748005405 ; 1.3962337595529446E7 ; 19992.000000000004
85 ; 103597.19090955057 ; 214162.39349240676 ; 6643308.083950004 ; 1.4175117852518672E7 ; 20230.000000000004
86 ; 103409.26102761159 ; 215547.16402764147 ; 6746905.274859554 ; 1.4389280246011078E7 ; 20468.000000000004
87 ; 103781.82401659827 ; 216934.3911108513 ; 6850314.535887166 ; 1.4604827410038719E7 ; 20706.000000000004
88 ; 103287.78023262284 ; 218323.90252833383 ; 6954096.359903764 ; 1.482176180114957E7 ; 20944.000000000004
89 ; 103153.41556002299 ; 219715.53113052621 ; 7057384.140136387 ; 1.5040085703677904E7 ; 21182.000000000004
90 ; 103594.00009144406 ; 221109.11463406123 ; 7160537.55569641 ; 1.525980123480843E7 ; 21420.000000000004
91 ; 103522.67119847011 ; 222504.49543184158 ; 7264131.555787854 ; 1.5480910349442491E7 ; 21658.000000000004
92 ; 103137.45477851096 ; 223901.52041085577 ; 7367654.226986324 ; 1.5703414844874334E7 ; 21896.000000000004
93 ; 103279.99297443061 ; 225300.0407774626 ; 7470791.6817648355 ; 1.592731636528519E7 ; 22134.000000000004
94 ; 103127.7266654479 ; 226699.91188987164 ; 7574071.674739266 ; 1.6152616406062653E7 ; 22372.000000000004
95 ; 103153.16226702649 ; 228100.99309755286 ; 7677199.401404713 ; 1.6379316317952525E7 ; 22610.000000000004
96 ; 103144.55804808058 ; 229503.14758731163 ; 7780352.56367174 ; 1.6607417311050078E7 ; 22848.000000000004
97 ; 102416.4543737372 ; 230906.2422357716 ; 7883497.12171982 ; 1.683692045863739E7 ; 23086.000000000004
98 ; 102332.61185763957 ; 232310.14746801375 ; 7985913.576093557 ; 1.7067826700873163E7 ; 23324.000000000004
99 ; 102278.24760948628 ; 233714.73712212563 ; 8088246.187951197 ; 1.730013684834118E7 ; 23562.000000000004
100 ; 102692.07578458125 ; 235119.88831942348 ; 8190524.435560683 ; 1.7533851585463304E7 ; 23800.000000000004
101 ; 101975.5283624632 ; 236525.48134011443 ; 8293216.511345264 ; 1.776897147378273E7 ; 24038.000000000004
102 ; 101892.26748942153 ; 237931.39950417512 ; 8395192.039707726 ; 1.8005496955122843E7 ; 24276.000000000004
103 ; 101660.1378246553 ; 239337.52905722993 ; 8497084.307197148 ; 1.8243428354627017E7 ; 24514.000000000004
104 ; 101288.85978799016 ; 240743.7590612191 ; 8598744.445021803 ; 1.8482765883684248E7 ; 24752.000000000004
105 ; 100853.51977440725 ; 242149.9812896548 ; 8700033.304809792 ; 1.8723509642745465E7 ; 24990.000000000004
106 ; 100320.9549946397 ; 243556.0901272701 ; 8800886.8245842 ; 1.896565962403512E7 ; 25228.000000000004
107 ; 100808.18359369307 ; 244961.98247387423 ; 8901207.779578838 ; 1.920921571416239E7 ; 25466.000000000004
108 ; 100029.34201578214 ; 246367.55765223253 ; 9002015.96317253 ; 1.9454177696636263E7 ; 25704.000000000004
109 ; 100054.74145204764 ; 247772.717319799 ; 9102045.305188313 ; 1.9700545254288495E7 ; 25942.000000000004
110 ; 98943.35080426864 ; 249177.3653841351 ; 9202100.04664036 ; 1.9948317971608292E7 ; 26180.000000000004
111 ; 98509.2835266444 ; 250581.40792185446 ; 9301043.39744463 ; 2.0197495336992428E7 ; 26418.000000000004
112 ; 98091.01815056418 ; 251984.75310094113 ; 9399552.680971274 ; 2.0448076744914282E7 ; 26656.000000000004
113 ; 97792.0062331068 ; 253387.3111062944 ; 9497643.699121838 ; 2.0700061498015225E7 ; 26894.000000000004
114 ; 97713.13278719372 ; 254788.99406836007 ; 9595435.705354946 ; 2.095344880912152E7 ; 27132.000000000004
115 ; 96563.84506533638 ; 256189.715994713 ; 9693148.83814214 ; 2.120823780318988E7 ; 27370.000000000004
116 ; 96263.88443881909 ; 257589.39270446292 ; 9789712.683207477 ; 2.1464427519184593E7 ; 27608.000000000004
117 ; 96035.46896087169 ; 258987.94176536013 ; 9885976.567646295 ; 2.1722016911889058E7 ; 27846.000000000004
118 ; 95082.00031746135 ; 260385.28243348235 ; 9982012.036607167 ; 2.198100485365442E7 ; 28084.000000000004
119 ; 94954.86915121455 ; 261781.3355953917 ; 1.0077094036924629E7 ; 2.2241390136087902E7 ; 28322.000000000004
120 ; 94379.0525185313 ; 263176.02371265285 ; 1.0172048906075843E7 ; 2.2503171471683294E7 ; 28560.000000000004
121 ; 93677.06772694096 ; 264569.27076860936 ; 1.0266427958594374E7 ; 2.2766347495395947E7 ; 28798.000000000004
122 ; 92410.82875607474 ; 265961.00221732137 ; 1.0360105026321316E7 ; 2.3030916766164556E7 ; 29036.000000000004
123 ; 92489.68672239821 ; 267351.1449345682 ; 1.0452515855077391E7 ; 2.329687776838188E7 ; 29274.000000000004
124 ; 92046.1933335975 ; 268739.6271708286 ; 1.054500554179979E7 ; 2.3564228913316447E7 ; 29512.000000000004
125 ; 90919.48131667454 ; 270126.37850615085 ; 1.0637051735133387E7 ; 2.3832968540487275E7 ; 29750.000000000004
126 ; 90024.43756228055 ; 271511.32980683254 ; 1.0727971216450062E7 ; 2.4103094918993425E7 ; 29988.000000000004
127 ; 89333.70265967808 ; 272894.4131838301 ; 1.0817995654012343E7 ; 2.4374606248800255E7 ; 30226.000000000004
128 ; 88612.81548414813 ; 274275.5619528252 ; 1.090732935667202E7 ; 2.4647500661984086E7 ; 30464.000000000004
129 ; 88031.0387775865 ; 275654.7105958752 ; 1.0995942172156168E7 ; 2.492177622393691E7 ; 30702.000000000004
130 ; 87557.86237204049 ; 277031.79472458013 ; 1.1083973210933754E7 ; 2.5197430934532788E7 ; 30940.000000000004
131 ; 86365.68168285728 ; 278406.751044702 ; 1.1171531073305795E7 ; 2.5474462729257368E7 ; 31178.000000000004
132 ; 85638.05316064211 ; 279779.51732217247 ; 1.1257896754988652E7 ; 2.575286948030207E7 ; 31416.000000000004
133 ; 84600.89416448234 ; 281150.0323504317 ; 1.1343534808149293E7 ; 2.603264899762424E7 ; 31654.000000000004
134 ; 83892.42578005925 ; 282518.23591904057 ; 1.1428135702313775E7 ; 2.6313799029974673E7 ; 31892.000000000004
135 ; 83268.51058336665 ; 283884.0687835121 ; 1.1512028128093835E7 ; 2.6596317265893713E7 ; 32130.000000000004
136 ; 82356.38086453942 ; 285247.47263631143 ; 1.1595296638677202E7 ; 2.6880201334677223E7 ; 32368.000000000004
137 ; 81129.41955460246 ; 286608.3900789745 ; 1.1677653019541742E7 ; 2.7165448807313535E7 ; 32606.000000000004
138 ; 80286.76038947723 ; 287966.7645952979 ; 1.1758782439096345E7 ; 2.745205719739251E7 ; 32844.00000000001
139 ; 79172.22411174928 ; 289322.5405255566 ; 1.1839069199485822E7 ; 2.7740023961987805E7 ; 33082.00000000001
140 ; 78897.7373433907 ; 290675.663041704 ; 1.191824142359757E7 ; 2.802934650251336E7 ; 33320.00000000001
141 ; 77689.79635484237 ; 292026.07812351634 ; 1.1997139160940962E7 ; 2.8320022165555064E7 ; 33558.00000000001
142 ; 76436.50693148543 ; 293373.73253563995 ; 1.2074828957295805E7 ; 2.861204824367858E7 ; 33796.00000000001
143 ; 75578.61587316333 ; 294718.57380550535 ; 1.215126546422729E7 ; 2.8905421976214223E7 ; 34034.00000000001
144 ; 74434.93974608595 ; 296060.5502020713 ; 1.2226844080100454E7 ; 2.9200140550019726E7 ; 34272.00000000001
145 ; 74212.29697771293 ; 297399.6107153661 ; 1.230127901984654E7 ; 2.9496201100221798E7 ; 34510.00000000001
146 ; 73518.79010829229 ; 298735.70503679174 ; 1.2375491316824254E7 ; 2.9793600710937165E7 ; 34748.00000000001
147 ; 73982.69308125429 ; 300068.7835401621 ; 1.2449010106932545E7 ; 3.0092336415973958E7 ; 34986.00000000001
148 ; 73787.54325900286 ; 301398.7972634422 ; 1.25229928000138E7 ; 3.039240519951412E7 ; 35224.00000000001
149 ; 73144.98214638216 ; 302725.6978911633 ; 1.2596780343272801E7 ; 3.0693803996777564E7 ; 35462.00000000001
150 ; 72922.3719648492 ; 304049.43773748423 ; 1.2669925325419184E7 ; 3.099652969466873E7 ; 35700.00000000001
151 ; 72592.05127965187 ; 305369.9697298746 ; 1.2742847697384033E7 ; 3.1300579132406212E7 ; 35938.00000000001
152 ; 72814.28476696205 ; 306687.2473933927 ; 1.2815439748663684E7 ; 3.1605949102136087E7 ; 36176.00000000001
153 ; 72222.47222788217 ; 308001.2248355375 ; 1.2888254033430647E7 ; 3.191263634952948E7 ; 36414.00000000001
154 ; 72356.2923302242 ; 309311.85673164914 ; 1.296047650565853E7 ; 3.2220637574365016E7 ; 36652.00000000001
155 ; 71673.99118312623 ; 310619.09831083706 ; 1.3032832797988754E7 ; 3.2529949431096666E7 ; 36890.00000000001
156 ; 71636.56934689326 ; 311922.9053424164 ; 1.310450678917188E7 ; 3.28405685294075E7 ; 37128.00000000001
157 ; 71059.95011695572 ; 313223.2341228291 ; 1.3176143358518774E7 ; 3.3152491434749916E7 ; 37366.00000000001
158 ; 70776.26829526848 ; 314520.0414630351 ; 1.324720330863573E7 ; 3.3465714668872744E7 ; 37604.00000000001
159 ; 71311.55630620907 ; 315813.28467635176 ; 1.3317979576930998E7 ; 3.3780234710335776E7 ; 37842.00000000001
160 ; 69722.71893382382 ; 317102.92156672606 ; 1.3389291133237207E7 ; 3.409604799501213E7 ; 38080.00000000001
161 ; 70308.1566093591 ; 318388.9104174214 ; 1.3459013852171032E7 ; 3.441315091657885E7 ; 38318.00000000001
162 ; 70127.39826692584 ; 319671.2099801048 ; 1.352932200878039E7 ; 3.4731539826996274E7 ; 38556.00000000001
163 ; 69121.58141571171 ; 320949.77946431696 ; 1.3599449407047316E7 ; 3.505121103697638E7 ; 38794.00000000001
164 ; 69134.05681178531 ; 322224.5785273119 ; 1.3668570988463027E7 ; 3.53721608164407E7 ; 39032.00000000001
165 ; 68881.93304246396 ; 323495.5672642524 ; 1.3737705045274813E7 ; 3.569438539496801E7 ; 39270.00000000001
166 ; 68786.04850577426 ; 324762.7061987457 ; 1.3806586978317278E7 ; 3.601788096223226E7 ; 39508.00000000001
167 ; 68453.6321619759 ; 326025.95627370925 ; 1.3875373026823051E7 ; 3.634264366843101E7 ; 39746.00000000001
168 ; 67973.44540420032 ; 327285.27884255187 ; 1.3943826658985028E7 ; 3.666866962470472E7 ; 39984.00000000001
169 ; 67657.74236069008 ; 328540.63566065935 ; 1.4011800104389228E7 ; 3.699595490354727E7 ; 40222.00000000001
170 ; 67607.55021853183 ; 329791.98887717363 ; 1.4079457846749919E7 ; 3.732449553920793E7 ; 40460.00000000001
171 ; 66508.03150569042 ; 331039.30102705315 ; 1.414706539696845E7 ; 3.7654287528085105E7 ; 40698.00000000001
172 ; 66725.65105886245 ; 332282.53502340557 ; 1.4213573428474141E7 ; 3.798532682911216E7 ; 40936.00000000001
173 ; 66002.10348216775 ; 333521.6541500811 ; 1.4280299079533003E7 ; 3.831760936413556E7 ; 41174.00000000001
174 ; 66249.20864707002 ; 334756.622054519 ; 1.4346301183015171E7 ; 3.865113101828565E7 ; 41412.00000000001
175 ; 66343.77520227505 ; 335987.402740835 ; 1.4412550391662242E7 ; 3.8985887640340164E7 ; 41650.00000000001
176 ; 66407.70316137231 ; 337213.9605631437 ; 1.4478894166864516E7 ; 3.9321875043081E7 ; 41888.00000000001
177 ; 67002.71358108941 ; 338436.2602191062 ; 1.4545301870025888E7 ; 3.9659089003644146E7 ; 42126.00000000001
178 ; 67356.02288431406 ; 339654.2667436934 ; 1.4612304583606977E7 ; 3.999752526386325E7 ; 42364.00000000001
179 ; 67560.58317268168 ; 340867.9455031599 ; 1.4679660606491292E7 ; 4.033717953060694E7 ; 42602.00000000001
180 ; 67672.50121632623 ; 342077.262189219 ; 1.4747221189663973E7 ; 4.06780474761101E7 ; 42840.00000000001
181 ; 67841.91531700979 ; 343282.1828134118 ; 1.4814893690880299E7 ; 4.102012473829932E7 ; 43078.00000000001
