CSV File for the Network on Day 270
1 - Minute m 
2 - Power Consumed at minute m 
3 - Power Produced at minute m 
4 - Energy Consumed since the beginning of the day 
5 - Energy Produced since the beginning of the day 
6 - Energy Lost since the beginning of the day 
 
No Production city : 2, Producer : 1
No Production city : 4, Producer : 1
No Production city : 4, Producer : 1
 
0 ; 41959.30913063212 ; 172254.06489266056 ; 0.0 ; 0.0 ; 0.0
1 ; 43323.48750207033 ; 171913.81221567994 ; 41959.30913063212 ; 172254.06489266056 ; 238.00000000000003
2 ; 44682.757974113054 ; 171608.37199090188 ; 85282.79663270246 ; 344167.8771083405 ; 476.00000000000006
3 ; 46314.32764038003 ; 171338.0718715909 ; 129965.55460681551 ; 515776.2490992424 ; 714.0000000000001
4 ; 47253.633928763025 ; 171103.20494999015 ; 176279.88224719552 ; 687114.3209708333 ; 952.0000000000001
5 ; 48807.941385195096 ; 170904.02831812282 ; 223533.51617595856 ; 858217.5259208234 ; 1190.0000000000002
6 ; 50217.50611678895 ; 170740.76178412433 ; 272341.4575611537 ; 1029121.5542389463 ; 1428.0000000000002
7 ; 51442.97554677506 ; 170613.58675892293 ; 322558.96367794264 ; 1199862.3160230706 ; 1666.0000000000002
8 ; 52890.681728851196 ; 170522.64532638004 ; 374001.9392247177 ; 1370475.9027819936 ; 1904.0000000000002
9 ; 53777.634708686965 ; 170468.0395080294 ; 426892.62095356884 ; 1540998.5481083738 ; 2142.0000000000005
10 ; 55102.90734023141 ; 170449.83073134092 ; 480670.2556622558 ; 1711466.5876164031 ; 2380.0000000000005
11 ; 56535.36440997895 ; 170468.0395080294 ; 535773.1630024873 ; 1881916.418347744 ; 2618.0000000000005
12 ; 57896.75487160786 ; 170522.64532638004 ; 592308.5274124662 ; 2052384.4578557734 ; 2856.0000000000005
13 ; 58872.20212923894 ; 170613.58675892293 ; 650205.2822840741 ; 2222907.1031821533 ; 3094.0000000000005
14 ; 60033.624903183634 ; 170740.76178412433 ; 709077.4844133131 ; 2393520.689941076 ; 3332.0000000000005
15 ; 60496.88522412847 ; 170904.02831812282 ; 769111.1093164968 ; 2564261.4517252003 ; 3570.0000000000005
16 ; 62198.763742354 ; 171103.20494999015 ; 829607.9945406253 ; 2735165.4800433232 ; 3808.0000000000005
17 ; 63504.41875498944 ; 171338.0718715908 ; 891806.7582829793 ; 2906268.6849933136 ; 4046.0000000000005
18 ; 64320.91633313059 ; 171608.37199090197 ; 955311.1770379686 ; 3077606.7568649044 ; 4284.000000000001
19 ; 65900.20687172323 ; 171913.81221567985 ; 1019632.0933710992 ; 3249215.1288558063 ; 4522.000000000001
20 ; 67210.32959632896 ; 172254.06489266065 ; 1085532.3002428224 ; 3421128.941071486 ; 4760.000000000001
21 ; 67547.7361376571 ; 172628.7693860793 ; 1152742.6298391514 ; 3593383.005964147 ; 4998.000000000001
22 ; 68741.25699531283 ; 173037.53377821308 ; 1220290.3659768086 ; 3766011.775350226 ; 5236.000000000001
23 ; 69693.33308958207 ; 173479.9366738984 ; 1289031.6229721215 ; 3939049.309128439 ; 5474.000000000001
24 ; 70916.42584047867 ; 173955.52909054226 ; 1358724.9560617036 ; 4112529.2458023373 ; 5712.000000000001
25 ; 72058.5110147191 ; 174463.8364150381 ; 1429641.3819021822 ; 4286484.77489288 ; 5950.000000000001
26 ; 73037.10136929808 ; 175004.3604091836 ; 1501699.8929169013 ; 4460948.611307918 ; 6188.000000000001
27 ; 73930.55352519816 ; 175576.5812456597 ; 1574736.9942861993 ; 4635952.9717171015 ; 6426.000000000001
28 ; 74849.80848456458 ; 176179.95955734167 ; 1648667.5478113976 ; 4811529.552962761 ; 6664.000000000001
29 ; 76026.36870972687 ; 176813.93848363752 ; 1723517.3562959621 ; 4987709.512520103 ; 6902.000000000001
30 ; 76989.06987687328 ; 177477.94569864808 ; 1799543.725005689 ; 5164523.451003741 ; 7140.000000000001
31 ; 77842.34874069592 ; 178171.3954071895 ; 1876532.7948825625 ; 5342001.396702388 ; 7378.000000000001
32 ; 78738.54617365738 ; 178893.6902960676 ; 1954375.1436232585 ; 5520172.792109578 ; 7616.000000000001
33 ; 79224.21293923193 ; 179644.22342940868 ; 2033113.6897969157 ; 5699066.482405646 ; 7854.000000000001
34 ; 80901.2346015263 ; 180422.38007831117 ; 2112337.902736148 ; 5878710.705835055 ; 8092.000000000001
35 ; 81413.82770804572 ; 181227.53947653685 ; 2193239.1373376744 ; 6059133.085913366 ; 8330.000000000002
36 ; 82053.78798354956 ; 182059.07649540415 ; 2274652.9650457203 ; 6240360.625389903 ; 8568.000000000002
37 ; 83193.1544162695 ; 182916.36323243513 ; 2356706.75302927 ; 6422419.701885307 ; 8806.000000000002
38 ; 83983.97449601327 ; 183798.77050963833 ; 2439899.9074455397 ; 6605336.065117742 ; 9044.000000000002
39 ; 84869.27732784333 ; 184705.66927855747 ; 2523883.881941553 ; 6789134.83562738 ; 9282.000000000002
40 ; 85521.1475202528 ; 185636.43193036845 ; 2608753.1592693967 ; 6973840.504905937 ; 9520.000000000002
41 ; 86292.20152872466 ; 186590.43351036278 ; 2694274.3067896497 ; 7159476.936836306 ; 9758.000000000002
42 ; 86927.60949149597 ; 187567.05283710035 ; 2780566.5083183744 ; 7346067.370346669 ; 9996.000000000002
43 ; 88003.14758825018 ; 188565.67352735478 ; 2867494.1178098703 ; 7533634.423183769 ; 10234.000000000002
44 ; 88262.24028468633 ; 189585.6849287003 ; 2955497.2653981205 ; 7722200.096711123 ; 10472.000000000002
45 ; 89337.45660721684 ; 190626.4829622152 ; 3043759.505682807 ; 7911785.781639824 ; 10710.000000000002
46 ; 89645.55859700777 ; 191687.47087829714 ; 3133096.962290024 ; 8102412.264602039 ; 10948.000000000002
47 ; 90259.86431336158 ; 192768.05992900833 ; 3222742.5208870317 ; 8294099.7354803365 ; 11186.000000000002
48 ; 90990.13815486309 ; 193867.6699607046 ; 3313002.3852003934 ; 8486867.795409344 ; 11424.000000000002
49 ; 91647.67919053468 ; 194985.72993095432 ; 3403992.5233552563 ; 8680735.465370048 ; 11662.000000000002
50 ; 92509.60520997267 ; 196121.678353928 ; 3495640.202545791 ; 8875721.195301002 ; 11900.000000000002
51 ; 93201.8850012735 ; 197274.96367854974 ; 3588149.8077557636 ; 9071842.87365493 ; 12138.000000000002
52 ; 93398.31116159305 ; 198445.04460375317 ; 3681351.692757037 ; 9269117.83733348 ; 12376.000000000002
53 ; 94154.64543099448 ; 199631.3903351795 ; 3774750.00391863 ; 9467562.881937234 ; 12614.000000000002
54 ; 94605.65269240801 ; 200833.48078761372 ; 3868904.6493496248 ; 9667194.272272414 ; 12852.000000000002
55 ; 95001.43855781393 ; 202050.8067373674 ; 3963510.3020420326 ; 9868027.753060028 ; 13090.000000000002
56 ; 95846.82352884044 ; 203282.8699287067 ; 4058511.7405998465 ; 1.0070078559797395E7 ; 13328.000000000002
57 ; 95801.02744058169 ; 204529.18313828096 ; 4154358.5641286867 ; 1.0273361429726101E7 ; 13566.000000000002
58 ; 96623.85318488404 ; 205789.2702013512 ; 4250159.591569268 ; 1.0477890612864383E7 ; 13804.000000000002
59 ; 97044.58933855707 ; 207062.66600344385 ; 4346783.444754153 ; 1.0683679883065734E7 ; 14042.000000000002
60 ; 96916.84591701985 ; 208348.91644086927 ; 4443828.034092709 ; 1.0890742549069177E7 ; 14280.000000000002
61 ; 97655.61943308056 ; 209647.57835335535 ; 4540744.880009729 ; 1.1099091465510046E7 ; 14518.000000000002
62 ; 98562.06339239566 ; 210958.21943185147 ; 4638400.49944281 ; 1.13087390438634E7 ; 14756.000000000002
63 ; 98735.82863859112 ; 212280.41810436174 ; 4736962.562835206 ; 1.1519697263295252E7 ; 14994.000000000002
64 ; 98952.52697398832 ; 213613.76340247327 ; 4835698.391473797 ; 1.1731977681399614E7 ; 15232.000000000002
65 ; 99444.60813395111 ; 214957.8548110549 ; 4934650.918447785 ; 1.1945591444802087E7 ; 15470.000000000002
66 ; 99556.39938143898 ; 216312.30210341376 ; 5034095.526581736 ; 1.2160549299613142E7 ; 15708.000000000002
67 ; 100492.09069628647 ; 217676.7251640213 ; 5133651.9259631755 ; 1.2376861601716556E7 ; 15946.000000000002
68 ; 100325.38332724717 ; 219050.75380074352 ; 5234144.016659462 ; 1.2594538326880576E7 ; 16184.000000000002
69 ; 100456.10254069584 ; 220434.02754834888 ; 5334469.3999867095 ; 1.281358908068132E7 ; 16422.000000000004
70 ; 100798.85242725113 ; 221826.19546490867 ; 5434925.5025274055 ; 1.3034023108229669E7 ; 16660.000000000004
71 ; 101334.3116675496 ; 223226.91592255834 ; 5535724.354954656 ; 1.3255849303694578E7 ; 16898.000000000004
72 ; 101512.35769440001 ; 224635.85639394712 ; 5637058.666622206 ; 1.3479076219617136E7 ; 17136.000000000004
73 ; 101644.36677549491 ; 226052.69323557595 ; 5738571.024316605 ; 1.3703712076011082E7 ; 17374.000000000004
74 ; 102129.01098462114 ; 227477.11146909776 ; 5840215.3910921 ; 1.3929764769246658E7 ; 17612.000000000004
75 ; 102206.8956823033 ; 228908.80456154628 ; 5942344.402076721 ; 1.4157241880715756E7 ; 17850.000000000004
76 ; 102781.09805743421 ; 230347.47420534864 ; 6044551.297759024 ; 1.4386150685277302E7 ; 18088.000000000004
77 ; 102622.45021184589 ; 231792.83009888532 ; 6147332.395816458 ; 1.461649815948265E7 ; 18326.000000000004
78 ; 103253.38176592202 ; 233244.58972826888 ; 6249954.846028305 ; 1.4848290989581537E7 ; 18564.000000000004
79 ; 102936.08665609015 ; 234702.47815093017 ; 6353208.227794226 ; 1.5081535579309806E7 ; 18802.000000000004
80 ; 102936.1686004115 ; 236166.22778152896 ; 6456144.314450316 ; 1.5316238057460736E7 ; 19040.000000000004
81 ; 102961.51749868327 ; 237635.5781806328 ; 6559080.483050727 ; 1.5552404285242265E7 ; 19278.000000000004
82 ; 103275.66042114263 ; 239110.27584654978 ; 6662042.0005494105 ; 1.5790039863422899E7 ; 19516.000000000004
83 ; 103044.81789810861 ; 240590.07401063995 ; 6765317.660970553 ; 1.6029150139269449E7 ; 19754.000000000004
84 ; 103520.9071695572 ; 242074.73243638224 ; 6868362.478868661 ; 1.626974021328009E7 ; 19992.000000000004
85 ; 103429.45912282316 ; 243564.01722242506 ; 6971883.386038219 ; 1.6511814945716472E7 ; 20230.000000000004
86 ; 103943.45054347548 ; 245057.70060980693 ; 7075312.845161042 ; 1.6755378962938897E7 ; 20468.000000000004
87 ; 103433.68741672391 ; 246555.56079349745 ; 7179256.2957045175 ; 1.7000436663548704E7 ; 20706.000000000004
88 ; 103446.16953417116 ; 248057.381738373 ; 7282689.983121241 ; 1.72469922243422E7 ; 20944.000000000004
89 ; 103326.39859919483 ; 249562.95299971363 ; 7386136.152655412 ; 1.7495049606080573E7 ; 21182.000000000004
90 ; 103578.28491507769 ; 251072.0695482786 ; 7489462.551254608 ; 1.7744612559080288E7 ; 21420.000000000004
91 ; 103270.60086973304 ; 252584.5315999963 ; 7593040.836169685 ; 1.7995684628628567E7 ; 21658.000000000004
92 ; 103025.41554893806 ; 254100.14445028175 ; 7696311.437039418 ; 1.824826916022856E7 ; 21896.000000000004
93 ; 103181.8661207752 ; 255618.71831297758 ; 7799336.8525883565 ; 1.8502369304678842E7 ; 22134.000000000004
94 ; 103210.58182168739 ; 257140.06816389653 ; 7902518.718709132 ; 1.875798802299182E7 ; 22372.000000000004
95 ; 103109.16223582102 ; 258664.01358893196 ; 8005729.300530819 ; 1.901512809115572E7 ; 22610.000000000004
96 ; 102777.22624795463 ; 260190.37863668794 ; 8108838.46276664 ; 1.927379210474465E7 ; 22848.000000000004
97 ; 102440.06199485167 ; 261718.99167557133 ; 8211615.689014594 ; 1.953398248338134E7 ; 23086.000000000004
98 ; 102526.06351960896 ; 263249.6852552798 ; 8314055.751009446 ; 1.979570147505691E7 ; 23324.000000000004
99 ; 102194.05818325502 ; 264782.29597261077 ; 8416581.814529054 ; 2.005895116031219E7 ; 23562.000000000004
100 ; 102458.62303968995 ; 266316.6643415104 ; 8518775.872712309 ; 2.0323733456284802E7 ; 23800.000000000004
101 ; 101605.04340948875 ; 267852.6346672774 ; 8621234.495752 ; 2.059005012062631E7 ; 24038.000000000004
102 ; 101615.73585446173 ; 269390.0549248309 ; 8722839.539161488 ; 2.085790275529359E7 ; 24276.000000000004
103 ; 101574.56994157193 ; 270928.7766409484 ; 8824455.27501595 ; 2.112729281021842E7 ; 24514.000000000004
104 ; 100845.47723217747 ; 272468.6547803783 ; 8926029.844957523 ; 2.1398221586859368E7 ; 24752.000000000004
105 ; 100445.38190390733 ; 274009.5476357285 ; 9026875.3221897 ; 2.1670690241639744E7 ; 24990.000000000004
106 ; 100404.29401044994 ; 275551.3167210317 ; 9127320.704093607 ; 2.1944699789275475E7 ; 25228.000000000004
107 ; 100188.87777936461 ; 277093.8266688872 ; 9227724.998104056 ; 2.222025110599651E7 ; 25466.000000000004
108 ; 99591.88750477422 ; 278636.9451310793 ; 9327913.87588342 ; 2.2497344932665396E7 ; 25704.000000000004
109 ; 99166.21175494324 ; 280180.54268257075 ; 9427505.763388196 ; 2.2775981877796475E7 ; 25942.000000000004
110 ; 98551.75316210257 ; 281724.4927287734 ; 9526671.975143138 ; 2.3056162420479044E7 ; 26180.000000000004
111 ; 98499.97062334101 ; 283268.67141599616 ; 9625223.728305241 ; 2.3337886913207818E7 ; 26418.000000000004
112 ; 97891.56645995677 ; 284812.95754497184 ; 9723723.698928582 ; 2.3621155584623814E7 ; 26656.000000000004
113 ; 97940.16177646522 ; 286357.2324873682 ; 9821615.265388539 ; 2.3905968542168785E7 ; 26894.000000000004
114 ; 97378.831936474 ; 287901.3801051866 ; 9919555.427165003 ; 2.4192325774656154E7 ; 27132.000000000004
115 ; 96584.6687257731 ; 289445.28667295614 ; 1.0016934259101478E7 ; 2.448022715476134E7 ; 27370.000000000004
116 ; 96746.6416050028 ; 290988.84080263175 ; 1.0113518927827252E7 ; 2.4769672441434298E7 ; 27608.000000000004
117 ; 95953.02364936005 ; 292531.93337110686 ; 1.0210265569432255E7 ; 2.506066128223693E7 ; 27846.000000000004
118 ; 95597.2165874966 ; 294074.45745025226 ; 1.0306218593081616E7 ; 2.5353193215608038E7 ; 28084.000000000004
119 ; 95244.4610306933 ; 295616.30823939823 ; 1.0401815809669113E7 ; 2.564726767305829E7 ; 28322.000000000004
120 ; 94382.67882247869 ; 297157.38300017413 ; 1.0497060270699807E7 ; 2.5942883981297687E7 ; 28560.000000000004
121 ; 93680.29652761325 ; 298697.58099362673 ; 1.0591442949522285E7 ; 2.624004136429786E7 ; 28798.000000000004
122 ; 93730.73988872571 ; 300236.8034195371 ; 1.0685123246049898E7 ; 2.6538738945291486E7 ; 29036.000000000004
123 ; 92803.48897086644 ; 301774.9533578612 ; 1.0778853985938624E7 ; 2.6838975748711023E7 ; 29274.000000000004
124 ; 92198.52481173293 ; 303311.9357122179 ; 1.087165747490949E7 ; 2.7140750702068884E7 ; 29512.000000000004
125 ; 91648.63659726182 ; 304847.65715535404 ; 1.0963855999721223E7 ; 2.7444062637781102E7 ; 29750.000000000004
126 ; 91339.97278490459 ; 306382.0260765169 ; 1.1055504636318486E7 ; 2.7748910294936456E7 ; 29988.000000000004
127 ; 90474.22271843806 ; 307914.95253066457 ; 1.1146844609103391E7 ; 2.8055292321012974E7 ; 30226.000000000004
128 ; 89702.24184163993 ; 309446.348189451 ; 1.123731883182183E7 ; 2.8363207273543637E7 ; 30464.000000000004
129 ; 89223.20845714124 ; 310976.12629392144 ; 1.132702107366347E7 ; 2.8672653621733088E7 ; 30702.000000000004
130 ; 88110.84718960129 ; 312504.2016088563 ; 1.1416244282120612E7 ; 2.8983629748027008E7 ; 30940.000000000004
131 ; 87841.43594203549 ; 314030.4903787061 ; 1.1504355129310213E7 ; 2.9296133949635863E7 ; 31178.000000000004
132 ; 86638.48629423456 ; 315554.9102850578 ; 1.1592196565252248E7 ; 2.961016444001457E7 ; 31416.000000000004
133 ; 86358.91747446467 ; 317077.38040558033 ; 1.1678835051546482E7 ; 2.992571935029963E7 ; 31654.000000000004
134 ; 85566.06256676528 ; 318597.8211743929 ; 1.1765193969020948E7 ; 3.024279673070521E7 ; 31892.000000000004
135 ; 84863.17651296243 ; 320116.15434380673 ; 1.1850760031587712E7 ; 3.0561394551879603E7 ; 32130.000000000004
136 ; 83991.64783976105 ; 321632.3029473902 ; 1.1935623208100675E7 ; 3.088151070622341E7 ; 32368.000000000004
137 ; 82792.22141678637 ; 323146.1912643082 ; 1.2019614855940435E7 ; 3.12031430091708E7 ; 32606.000000000004
138 ; 82185.41862467561 ; 324657.74478489126 ; 1.2102407077357221E7 ; 3.152628920043511E7 ; 32844.00000000001
139 ; 81165.80263750364 ; 326166.8901773894 ; 1.2184592495981896E7 ; 3.185094694522E7 ; 33082.00000000001
140 ; 80397.03769530673 ; 327673.5552558664 ; 1.22657582986194E7 ; 3.217711383539739E7 ; 33320.00000000001
141 ; 79648.8133033012 ; 329177.6689491954 ; 1.2346155336314708E7 ; 3.2504787390653256E7 ; 33558.00000000001
142 ; 78513.04317318505 ; 330679.1612711143 ; 1.242580414961801E7 ; 3.283396505960245E7 ; 33796.00000000001
143 ; 77988.16099463167 ; 332177.96329130314 ; 1.2504317192791194E7 ; 3.3164644220873564E7 ; 34034.00000000001
144 ; 76882.93435558077 ; 333674.0071074465 ; 1.2582305353785826E7 ; 3.3496822184164867E7 ; 34272.00000000001
145 ; 76969.03426102363 ; 335167.22581824515 ; 1.2659188288141407E7 ; 3.383049619127231E7 ; 34510.00000000001
146 ; 75710.30995349358 ; 336657.55349734286 ; 1.273615732240243E7 ; 3.416566341709056E7 ; 34748.00000000001
147 ; 76342.14071978249 ; 338144.9251681351 ; 1.2811867632355925E7 ; 3.45023209705879E7 ; 34986.00000000001
148 ; 76004.213325162 ; 339629.276779428 ; 1.2888209773075707E7 ; 3.4840465895756036E7 ; 35224.00000000001
149 ; 76086.02592506667 ; 341110.545181917 ; 1.2964213986400869E7 ; 3.5180095172535464E7 ; 35462.00000000001
150 ; 76026.38386707264 ; 342588.6681054551 ; 1.3040300012325935E7 ; 3.552120571771738E7 ; 35700.00000000001
151 ; 75436.81851505328 ; 344063.58413708373 ; 1.3116326396193007E7 ; 3.586379438582283E7 ; 35938.00000000001
152 ; 74807.79639067991 ; 345535.2326997972 ; 1.319176321470806E7 ; 3.6207857969959915E7 ; 36176.00000000001
153 ; 74918.91232589862 ; 347003.55403201556 ; 1.326657101109874E7 ; 3.655339320265971E7 ; 36414.00000000001
154 ; 74576.3363444384 ; 348468.4891677407 ; 1.3341489923424639E7 ; 3.6900396756691724E7 ; 36652.00000000001
155 ; 74467.14494637425 ; 349929.9799173701 ; 1.3416066259769076E7 ; 3.724886524585947E7 ; 36890.00000000001
156 ; 74334.02015278932 ; 351387.9688491465 ; 1.349053340471545E7 ; 3.759879522577684E7 ; 37128.00000000001
157 ; 73832.30672053726 ; 352842.3992712194 ; 1.356486742486824E7 ; 3.795018319462598E7 ; 37366.00000000001
158 ; 74147.67474405013 ; 354293.21521429723 ; 1.3638699731588777E7 ; 3.83030255938972E7 ; 37604.00000000001
159 ; 73320.24558286843 ; 355740.3614148701 ; 1.3712847406332828E7 ; 3.86573188091115E7 ; 37842.00000000001
160 ; 73404.48304006488 ; 357183.78329898143 ; 1.3786167651915697E7 ; 3.901305917052637E7 ; 38080.00000000001
161 ; 72944.85790030961 ; 358623.4269665304 ; 1.3859572134955762E7 ; 3.9370242953825355E7 ; 38318.00000000001
162 ; 72513.83135228098 ; 360059.23917608603 ; 1.3932516992856072E7 ; 3.972886638079189E7 ; 38556.00000000001
163 ; 72434.7728700992 ; 361491.16733019485 ; 1.4005030824208353E7 ; 4.0088925619967975E7 ; 38794.00000000001
164 ; 71799.62907468346 ; 362919.15946116537 ; 1.4077465597078452E7 ; 4.045041678729817E7 ; 39032.00000000001
165 ; 71222.44582847906 ; 364343.1642173117 ; 1.4149265226153135E7 ; 4.0813335946759336E7 ; 39270.00000000001
166 ; 71507.4618692116 ; 365763.1308496422 ; 1.4220487671981614E7 ; 4.1177679110976644E7 ; 39508.00000000001
167 ; 70658.0140125464 ; 367179.0091989754 ; 1.4291995133850826E7 ; 4.154344224182629E7 ; 39746.00000000001
168 ; 70564.08330695685 ; 368590.7496834703 ; 1.4362653147863373E7 ; 4.191062125102527E7 ; 39984.00000000001
169 ; 70460.1807944916 ; 369998.30328655493 ; 1.443321723117033E7 ; 4.227921200070874E7 ; 40222.00000000001
170 ; 69975.90708074333 ; 371401.6215452419 ; 1.4503677411964823E7 ; 4.264921030399529E7 ; 40460.00000000001
171 ; 69586.80430994279 ; 372800.65653881535 ; 1.4573653319045566E7 ; 4.302061192554053E7 ; 40698.00000000001
172 ; 68997.01062681577 ; 374195.3608778771 ; 1.464324012335551E7 ; 4.339341258207934E7 ; 40936.00000000001
173 ; 68847.75329843596 ; 375585.68769374077 ; 1.4712237133982325E7 ; 4.376760794295722E7 ; 41174.00000000001
174 ; 69143.27570532323 ; 376971.5906281609 ; 1.478108488728076E7 ; 4.414319363065096E7 ; 41412.00000000001
175 ; 69233.4078593403 ; 378353.02382338623 ; 1.4850228162986083E7 ; 4.452016522127912E7 ; 41650.00000000001
176 ; 69448.18150944564 ; 379729.9419125255 ; 1.4919461570845423E7 ; 4.489851824510251E7 ; 41888.00000000001
177 ; 69479.58388788255 ; 381102.30001021636 ; 1.498890975235487E7 ; 4.5278248187015034E7 ; 42126.00000000001
178 ; 69885.74099492207 ; 382470.05370358616 ; 1.5058389336242752E7 ; 4.565935048702525E7 ; 42364.00000000001
179 ; 70012.50735303506 ; 383833.1590434949 ; 1.5128275077237675E7 ; 4.604182054072884E7 ; 42602.00000000001
180 ; 70408.75260273661 ; 385191.5725360514 ; 1.519828758459071E7 ; 4.6425653699772336E7 ; 42840.00000000001
181 ; 70413.16347504189 ; 386545.2511343931 ; 1.5268696337193448E7 ; 4.681084527230839E7 ; 43078.00000000001
