CSV File for the Network on Day 222
1 - Minute m 
2 - Power Consumed at minute m 
3 - Power Produced at minute m 
4 - Energy Consumed since the beginning of the day 
5 - Energy Produced since the beginning of the day 
6 - Energy Lost since the beginning of the day 
 
No Production city : 2, Producer : 1
No Production city : 4, Producer : 1
No Production city : 4, Producer : 1
 
0 ; 27382.448612715303 ; 94058.17539186456 ; 0.0 ; 0.0 ; 0.0
1 ; 29279.249943161274 ; 93290.91990672129 ; 27382.448612715303 ; 94058.17539186456 ; 238.00000000000003
2 ; 30849.181915321242 ; 92583.26917095669 ; 56661.698555876574 ; 187349.09529858583 ; 476.00000000000006
3 ; 33079.194933391846 ; 91940.75453070173 ; 87510.88047119782 ; 279932.3644695425 ; 714.0000000000001
4 ; 34432.59402895086 ; 91368.9971675293 ; 120590.07540458966 ; 371873.11900024425 ; 952.0000000000001
5 ; 36128.76077445031 ; 90873.54783158744 ; 155022.66943354052 ; 463242.11616777355 ; 1190.0000000000002
6 ; 38723.27026164821 ; 90459.68894780656 ; 191151.43020799084 ; 554115.663999361 ; 1428.0000000000002
7 ; 39839.72553133802 ; 90132.20800502575 ; 229874.70046963904 ; 644575.3529471676 ; 1666.0000000000002
8 ; 41743.979432478816 ; 89895.15866602655 ; 269714.42600097705 ; 734707.5609521933 ; 1904.0000000000002
9 ; 42785.130338347095 ; 89751.63279503706 ; 311458.4054334559 ; 824602.7196182199 ; 2142.0000000000005
10 ; 44458.90163516869 ; 89703.57034766843 ; 354243.535771803 ; 914354.3524132569 ; 2380.0000000000005
11 ; 46353.81345083619 ; 89751.63279503706 ; 398702.4374069717 ; 1004057.9227609253 ; 2618.0000000000005
12 ; 47958.51010435309 ; 89895.15866602655 ; 445056.25085780787 ; 1093809.5555559623 ; 2856.0000000000005
13 ; 49152.381513282686 ; 90132.20800502575 ; 493014.76096216094 ; 1183704.7142219888 ; 3094.0000000000005
14 ; 51171.41750767377 ; 90459.68894780635 ; 542167.1424754437 ; 1273836.9222270146 ; 3332.0000000000005
15 ; 52941.89105797626 ; 90873.54783158744 ; 593338.5599831174 ; 1364296.611174821 ; 3570.0000000000005
16 ; 54008.92371059014 ; 91368.9971675293 ; 646280.4510410937 ; 1455170.1590064084 ; 3808.0000000000005
17 ; 55602.511204136346 ; 91940.75453070173 ; 700289.3747516838 ; 1546539.1561739377 ; 4046.0000000000005
18 ; 57419.41828125938 ; 92583.26917095669 ; 755891.8859558201 ; 1638479.9107046395 ; 4284.000000000001
19 ; 58684.13091210947 ; 93290.9199067211 ; 813311.3042370795 ; 1731063.1798755962 ; 4522.000000000001
20 ; 60199.955565265846 ; 94058.17539186473 ; 871995.435149189 ; 1824354.0997823174 ; 4760.000000000001
21 ; 61088.59050604931 ; 94879.71443330223 ; 932195.3907144548 ; 1918412.2751741821 ; 4998.000000000001
22 ; 62597.69464374886 ; 95750.5088023069 ; 993283.9812205042 ; 2013291.9896074843 ; 5236.000000000001
23 ; 64185.77931630383 ; 96665.87378051702 ; 1055881.675864253 ; 2109042.4984097914 ; 5474.000000000001
24 ; 65443.94563555955 ; 97621.49282698763 ; 1120067.4551805567 ; 2205708.3721903083 ; 5712.000000000001
25 ; 66432.20265770135 ; 98613.4227399955 ; 1185511.4008161162 ; 2303329.865017296 ; 5950.000000000001
26 ; 67927.49000188096 ; 99638.08499866829 ; 1251943.6034738177 ; 2401943.2877572915 ; 6188.000000000001
27 ; 69459.04453839974 ; 100692.24798108514 ; 1319871.0934756987 ; 2501581.3727559596 ; 6426.000000000001
28 ; 70654.01791049704 ; 101773.00371694783 ; 1389330.1380140984 ; 2602273.6207370446 ; 6664.000000000001
29 ; 71691.24311874513 ; 102877.74188498929 ; 1459984.1559245954 ; 2704046.6244539926 ; 6902.000000000001
30 ; 72986.22056851348 ; 104004.12297047809 ; 1531675.3990433405 ; 2806924.366338982 ; 7140.000000000001
31 ; 73945.82500608556 ; 105150.05187010404 ; 1604661.619611854 ; 2910928.48930946 ; 7378.000000000001
32 ; 75655.69706704118 ; 106313.65275743879 ; 1678607.4446179396 ; 3016078.541179564 ; 7616.000000000001
33 ; 76623.42446248514 ; 107493.24567791697 ; 1754263.1416849808 ; 3122392.1939370027 ; 7854.000000000001
34 ; 77484.43378273613 ; 108687.32510121827 ; 1830886.566147466 ; 3229885.4396149195 ; 8092.000000000001
35 ; 78721.04913769118 ; 109894.54049634378 ; 1908370.999930202 ; 3338572.7647161377 ; 8330.000000000002
36 ; 79769.84145610331 ; 111113.67888981219 ; 1987092.0490678933 ; 3448467.3052124814 ; 8568.000000000002
37 ; 80869.429496505 ; 112343.64930371419 ; 2066861.8905239967 ; 3559580.9841022934 ; 8806.000000000002
38 ; 81745.10630859747 ; 113583.46893525426 ; 2147731.3200205015 ; 3671924.6334060077 ; 9044.000000000002
39 ; 83338.73308299154 ; 114832.25092358475 ; 2229476.426329099 ; 3785508.1023412617 ; 9282.000000000002
40 ; 84543.70261773546 ; 116089.19354646376 ; 2312815.1594120907 ; 3900340.3532648464 ; 9520.000000000002
41 ; 84530.23293981905 ; 117353.57069384423 ; 2397358.8620298263 ; 4016429.54681131 ; 9758.000000000002
42 ; 86175.33941415847 ; 118624.72347464375 ; 2481889.094969645 ; 4133783.1175051546 ; 9996.000000000002
43 ; 87171.3444276769 ; 119902.05282448919 ; 2568064.4343838035 ; 4252407.840979799 ; 10234.000000000002
44 ; 87900.20193342371 ; 121185.0129947 ; 2655235.7788114804 ; 4372309.893804288 ; 10472.000000000002
45 ; 88696.0045620016 ; 122473.10581529321 ; 2743135.980744904 ; 4493494.906798988 ; 10710.000000000002
46 ; 90009.48465606173 ; 123765.87563677816 ; 2831831.9853069056 ; 4615968.012614281 ; 10948.000000000002
47 ; 90209.10345172853 ; 125062.90486667285 ; 2921841.469962967 ; 4739733.888251059 ; 11186.000000000002
48 ; 91483.92592497946 ; 126363.81002685225 ; 3012050.5734146954 ; 4864796.793117732 ; 11424.000000000002
49 ; 92258.12216235694 ; 127668.2382669992 ; 3103534.499339675 ; 4991160.603144584 ; 11662.000000000002
50 ; 92846.4675435903 ; 128975.86427757973 ; 3195792.621502032 ; 5118828.841411583 ; 11900.000000000002
51 ; 93838.35147867906 ; 130286.38755296473 ; 3288639.0890456224 ; 5247804.705689163 ; 12138.000000000002
52 ; 94510.69490803662 ; 131599.52996164619 ; 3382477.4405243015 ; 5378091.093242127 ; 12376.000000000002
53 ; 95150.14351640985 ; 132915.0335860312 ; 3476988.1354323383 ; 5509690.623203774 ; 12614.000000000002
54 ; 96294.32345387939 ; 134232.6587991189 ; 3572138.278948748 ; 5642605.656789805 ; 12852.000000000002
55 ; 96769.8015974973 ; 135552.18254956958 ; 3668432.6024026275 ; 5776838.315588924 ; 13090.000000000002
56 ; 97495.60781024289 ; 136873.39683032158 ; 3765202.404000125 ; 5912390.498138494 ; 13328.000000000002
57 ; 97988.4757894168 ; 138196.1073090785 ; 3862698.011810368 ; 6049263.894968815 ; 13566.000000000002
58 ; 98592.98165496298 ; 139520.1321017425 ; 3960686.4875997845 ; 6187460.002277894 ; 13804.000000000002
59 ; 99416.10811474653 ; 140845.30067224905 ; 4059279.4692547475 ; 6326980.1343796365 ; 14042.000000000002
60 ; 100140.65271445931 ; 142171.45284433215 ; 4158695.577369494 ; 6467825.435051885 ; 14280.000000000002
61 ; 100541.8343732749 ; 143498.43791254237 ; 4258836.230083954 ; 6609996.887896217 ; 14518.000000000002
62 ; 101202.53156594867 ; 144826.11384140316 ; 4359378.064457228 ; 6753495.32580876 ; 14756.000000000002
63 ; 101739.5080545413 ; 146154.34654294324 ; 4460580.596023177 ; 6898321.439650163 ; 14994.000000000002
64 ; 102240.27374382212 ; 147483.00922402696 ; 4562320.104077718 ; 7044475.786193106 ; 15232.000000000002
65 ; 102447.41596817152 ; 148811.98179592862 ; 4664560.37782154 ; 7191958.795417134 ; 15470.000000000002
66 ; 102728.58732766644 ; 150141.1503394929 ; 4767007.793789712 ; 7340770.777213062 ; 15708.000000000002
67 ; 103187.114885753 ; 151470.40662000544 ; 4869736.381117378 ; 7490911.927552555 ; 15946.000000000002
68 ; 104155.49033646731 ; 152799.6476465806 ; 4972923.496003131 ; 7642382.33417256 ; 16184.000000000002
69 ; 104974.44368943947 ; 154128.7752714684 ; 5077078.986339599 ; 7795181.981819141 ; 16422.000000000004
70 ; 104747.86122126746 ; 155457.69582520908 ; 5182053.430029038 ; 7949310.7570906095 ; 16660.000000000004
71 ; 105237.25120192098 ; 156786.3197840185 ; 5286801.291250306 ; 8104768.452915818 ; 16898.000000000004
72 ; 105332.74395416347 ; 158114.56146619242 ; 5392038.542452227 ; 8261554.772699837 ; 17136.000000000004
73 ; 105760.17796065871 ; 159442.3387546725 ; 5497371.28640639 ; 8419669.33416603 ; 17374.000000000004
74 ; 106258.5201745904 ; 160769.5728432251 ; 5603131.464367049 ; 8579111.672920702 ; 17612.000000000004
75 ; 106198.11289763014 ; 162096.18800396234 ; 5709389.98454164 ; 8739881.245763928 ; 17850.000000000004
76 ; 106464.82202734398 ; 163422.1113741746 ; 5815588.09743927 ; 8901977.43376789 ; 18088.000000000004
77 ; 106847.3708717973 ; 164747.27276065882 ; 5922052.919466614 ; 9065399.545142066 ; 18326.000000000004
78 ; 107270.43749896009 ; 166071.60445991775 ; 6028900.290338411 ; 9230146.817902725 ; 18564.000000000004
79 ; 107300.5761085104 ; 167395.04109276982 ; 6136170.727837371 ; 9396218.422362642 ; 18802.000000000004
80 ; 107610.13256962586 ; 168717.51945206255 ; 6243471.303945881 ; 9563613.463455413 ; 19040.000000000004
81 ; 107694.97993131081 ; 170038.97836231106 ; 6351081.436515507 ; 9732330.982907476 ; 19278.000000000004
82 ; 107988.57052331086 ; 171359.35855020361 ; 6458776.416446818 ; 9902369.961269787 ; 19516.000000000004
83 ; 108331.55690074505 ; 172678.6025250192 ; 6566764.9869701285 ; 1.007372931981999E7 ; 19754.000000000004
84 ; 107907.49830656467 ; 173996.65446809598 ; 6675096.543870874 ; 1.024640792234501E7 ; 19992.000000000004
85 ; 108416.09859539689 ; 175313.46013057395 ; 6783004.042177439 ; 1.0420404576813107E7 ; 20230.000000000004
86 ; 108219.90016962201 ; 176628.96673870803 ; 6891420.140772835 ; 1.0595718036943682E7 ; 20468.000000000004
87 ; 108124.0635472388 ; 177943.12290611537 ; 6999640.0409424575 ; 1.077234700368239E7 ; 20706.000000000004
88 ; 108722.21421560015 ; 179255.87855238045 ; 7107764.104489696 ; 1.0950290126588505E7 ; 20944.000000000004
89 ; 108263.0778065802 ; 180567.18482749508 ; 7216486.318705296 ; 1.1129546005140886E7 ; 21182.000000000004
90 ; 107950.38051609945 ; 181876.99404165792 ; 7324749.396511876 ; 1.1310113189968381E7 ; 21420.000000000004
91 ; 108113.14685928814 ; 183185.25960000223 ; 7432699.777027976 ; 1.1491990184010038E7 ; 21658.000000000004
92 ; 108057.7473096964 ; 184491.93594185903 ; 7540812.923887264 ; 1.167517544361004E7 ; 21896.000000000004
93 ; 107913.81403996264 ; 185796.9784841976 ; 7648870.67119696 ; 1.1859667379551899E7 ; 22134.000000000004
94 ; 107880.07158902523 ; 187100.34356891774 ; 7756784.485236922 ; 1.2045464358036097E7 ; 22372.000000000004
95 ; 107734.5446867869 ; 188401.98841369525 ; 7864664.556825948 ; 1.2232564701605015E7 ; 22610.000000000004
96 ; 107203.00136683855 ; 189701.87106611003 ; 7972399.101512735 ; 1.242096669001871E7 ; 22848.000000000004
97 ; 107072.8359750368 ; 190999.950360807 ; 8079602.102879574 ; 1.261066856108482E7 ; 23086.000000000004
98 ; 107124.58673054376 ; 192296.18587946316 ; 8186674.938854611 ; 1.2801668511445627E7 ; 23324.000000000004
99 ; 106809.75001619697 ; 193590.53791335208 ; 8293799.525585154 ; 1.299396469732509E7 ; 23562.000000000004
100 ; 106752.81599565689 ; 194882.96742831508 ; 8400609.275601352 ; 1.3187555235238442E7 ; 23800.000000000004
101 ; 106391.63849614347 ; 196173.43603196417 ; 8507362.09159701 ; 1.3382438202666758E7 ; 24038.000000000004
102 ; 106245.32788816895 ; 197461.90594295456 ; 8613753.730093153 ; 1.3578611638698721E7 ; 24276.000000000004
103 ; 105897.5549758757 ; 198748.33996218076 ; 8719999.057981322 ; 1.3776073544641675E7 ; 24514.000000000004
104 ; 105651.63798451707 ; 200032.70144575843 ; 8825896.612957198 ; 1.3974821884603856E7 ; 24752.000000000004
105 ; 105201.2647434598 ; 201314.95427966837 ; 8931548.250941716 ; 1.4174854586049614E7 ; 24990.000000000004
106 ; 104821.31139387179 ; 202595.06285594573 ; 9036749.515685176 ; 1.4376169540329283E7 ; 25228.000000000004
107 ; 104202.63914751918 ; 203872.99205030967 ; 9141570.827079048 ; 1.4578764603185229E7 ; 25466.000000000004
108 ; 104273.17660494521 ; 205148.70720113377 ; 9245773.466226568 ; 1.4782637595235538E7 ; 25704.000000000004
109 ; 103165.27445185106 ; 206422.1740896681 ; 9350046.642831514 ; 1.4987786302436672E7 ; 25942.000000000004
110 ; 103112.26011136446 ; 207693.3589214276 ; 9453211.917283366 ; 1.519420847652634E7 ; 26180.000000000004
111 ; 102578.11033755765 ; 208962.22830867107 ; 9556324.17739473 ; 1.5401901835447768E7 ; 26418.000000000004
112 ; 102409.48176376155 ; 210228.74925389775 ; 9658902.287732286 ; 1.5610864063756438E7 ; 26656.000000000004
113 ; 101663.89544104453 ; 211492.8891342956 ; 9761311.769496048 ; 1.5821092813010335E7 ; 26894.000000000004
114 ; 101881.1897730394 ; 212754.61568707993 ; 9862975.664937092 ; 1.603258570214463E7 ; 27132.000000000004
115 ; 100501.08002764743 ; 214013.89699566533 ; 9964856.854710132 ; 1.624534031783171E7 ; 27370.000000000004
116 ; 99999.2174338712 ; 215270.7014766176 ; 1.006535793473778E7 ; 1.6459354214827375E7 ; 27608.000000000004
117 ; 99525.84440153351 ; 216524.99786733717 ; 1.016535715217165E7 ; 1.6674624916303992E7 ; 27846.000000000004
118 ; 98799.91138764111 ; 217776.7552144277 ; 1.0264882996573184E7 ; 1.689114991417133E7 ; 28084.000000000004
119 ; 98163.71952647303 ; 219025.94286270806 ; 1.0363682907960825E7 ; 1.7108926669385757E7 ; 28322.000000000004
120 ; 97828.38077224778 ; 220272.53044482745 ; 1.0461846627487298E7 ; 1.7327952612248465E7 ; 28560.000000000004
121 ; 96673.94375600718 ; 221516.4878714477 ; 1.0559675008259546E7 ; 1.7548225142693292E7 ; 28798.000000000004
122 ; 96274.78627627424 ; 222757.785321958 ; 1.0656348952015553E7 ; 1.776974163056474E7 ; 29036.000000000004
123 ; 95098.51717061095 ; 223996.3932356903 ; 1.0752623738291826E7 ; 1.79924994158867E7 ; 29274.000000000004
124 ; 94924.03450309848 ; 225232.2823036054 ; 1.0847722255462438E7 ; 1.821649580912239E7 ; 29512.000000000004
125 ; 94150.35000484057 ; 226465.42346042258 ; 1.0942646289965536E7 ; 1.8441728091425996E7 ; 29750.000000000004
126 ; 93085.92661055508 ; 227695.7878771659 ; 1.1036796639970377E7 ; 1.866819351488642E7 ; 29988.000000000004
127 ; 92286.33681737882 ; 228923.34695410385 ; 1.1129882566580933E7 ; 1.8895889302763585E7 ; 30226.000000000004
128 ; 91202.28204515646 ; 230148.0723140593 ; 1.122216890339831E7 ; 1.912481264971769E7 ; 30464.000000000004
129 ; 90982.3736439533 ; 231369.93579606843 ; 1.1313371185443467E7 ; 1.9354960722031746E7 ; 30702.000000000004
130 ; 89837.99304195616 ; 232588.90944936892 ; 1.140435355908742E7 ; 1.9586330657827813E7 ; 30940.000000000004
131 ; 88778.41681711166 ; 233804.9655276995 ; 1.1494191552129377E7 ; 1.9818919567277182E7 ; 31178.000000000004
132 ; 88274.2113282253 ; 235018.07648389225 ; 1.1582969968946489E7 ; 2.005272453280488E7 ; 31416.000000000004
133 ; 87121.03034722462 ; 236228.2149647424 ; 1.1671244180274714E7 ; 2.028774260928877E7 ; 31654.000000000004
134 ; 85942.51416910779 ; 237435.35380614005 ; 1.1758365210621938E7 ; 2.0523970824253514E7 ; 31892.000000000004
135 ; 85201.15621059254 ; 238639.4660284493 ; 1.1844307724791046E7 ; 2.0761406178059656E7 ; 32130.000000000004
136 ; 84278.01131268388 ; 239840.5248321217 ; 1.1929508881001638E7 ; 2.1000045644088104E7 ; 32368.000000000004
137 ; 83225.45717249543 ; 241038.50359353083 ; 1.2013786892314322E7 ; 2.1239886168920226E7 ; 32606.000000000004
138 ; 81988.85114649756 ; 242233.375861017 ; 1.2097012349486819E7 ; 2.1480924672513757E7 ; 32844.00000000001
139 ; 81312.37638591 ; 243425.11535113034 ; 1.2179001200633315E7 ; 2.1723158048374772E7 ; 33082.00000000001
140 ; 79955.01790244484 ; 244613.69594506157 ; 1.2260313577019226E7 ; 2.19665831637259E7 ; 33320.00000000001
141 ; 79265.07897154026 ; 245799.0916852514 ; 1.234026859492167E7 ; 2.2211196859670963E7 ; 33558.00000000001
142 ; 77852.45198816503 ; 246981.27677216846 ; 1.2419533673893211E7 ; 2.2456995951356214E7 ; 33796.00000000001
143 ; 76489.76871689002 ; 248160.22556124776 ; 1.2497386125881376E7 ; 2.270397722812838E7 ; 34034.00000000001
144 ; 76048.51126054894 ; 249335.9125599808 ; 1.2573875894598266E7 ; 2.2952137453689627E7 ; 34272.00000000001
145 ; 75558.05780677873 ; 250508.31242514984 ; 1.2649924405858815E7 ; 2.320147336624961E7 ; 34510.00000000001
146 ; 74755.93385265859 ; 251677.39996019925 ; 1.2725482463665593E7 ; 2.345198167867476E7 ; 34748.00000000001
147 ; 74667.75783301576 ; 252843.15011273662 ; 1.2800238397518251E7 ; 2.370365907863496E7 ; 34986.00000000001
148 ; 74373.35315355306 ; 254005.5379721574 ; 1.2874906155351266E7 ; 2.3956502228747696E7 ; 35224.00000000001
149 ; 74536.48329063618 ; 255164.53876738704 ; 1.294927950850482E7 ; 2.421050776671985E7 ; 35462.00000000001
150 ; 74128.53596681016 ; 256320.1278647341 ; 1.3023815991795456E7 ; 2.4465672305487238E7 ; 35700.00000000001
151 ; 73746.13554486592 ; 257472.28076585004 ; 1.3097944527762266E7 ; 2.472199243335197E7 ; 35938.00000000001
152 ; 73772.87575327026 ; 258620.97310578954 ; 1.3171690663307132E7 ; 2.497946471411782E7 ; 36176.00000000001
153 ; 73511.87372973454 ; 259766.18065116662 ; 1.3245463539060403E7 ; 2.523808568722361E7 ; 36414.00000000001
154 ; 72741.57857054021 ; 260907.8792984023 ; 1.3318975412790136E7 ; 2.5497851867874775E7 ; 36652.00000000001
155 ; 72420.63329396446 ; 262046.04507205923 ; 1.3391716991360677E7 ; 2.575875974717318E7 ; 36890.00000000001
156 ; 72277.40601147494 ; 263180.654123259 ; 1.3464137624654641E7 ; 2.602080579224524E7 ; 37128.00000000001
157 ; 71847.58020722898 ; 264311.6827281781 ; 1.3536415030666117E7 ; 2.6283986446368497E7 ; 37366.00000000001
158 ; 71561.68620707969 ; 265439.1072866194 ; 1.3608262610873345E7 ; 2.6548298129096676E7 ; 37604.00000000001
159 ; 71675.1330017484 ; 266562.904320655 ; 1.3679824297080426E7 ; 2.6813737236383297E7 ; 37842.00000000001
160 ; 71430.98698268915 ; 267683.0504733373 ; 1.3751499430082174E7 ; 2.708030014070395E7 ; 38080.00000000001
161 ; 70671.36706185367 ; 268799.5225074754 ; 1.3822930417064862E7 ; 2.7347983191177286E7 ; 38318.00000000001
162 ; 70345.49658929161 ; 269912.2973044731 ; 1.3893601784126716E7 ; 2.761678271368476E7 ; 38556.00000000001
163 ; 70171.95462718695 ; 271021.35186322685 ; 1.3963947280716008E7 ; 2.7886695010989234E7 ; 38794.00000000001
164 ; 69593.7775041796 ; 272126.66329907917 ; 1.4034119235343194E7 ; 2.815771636285246E7 ; 39032.00000000001
165 ; 69144.93216123311 ; 273228.2088428271 ; 1.4103713012847373E7 ; 2.842984302615154E7 ; 39270.00000000001
166 ; 69162.01110668495 ; 274325.9658397818 ; 1.4172857945008606E7 ; 2.870307123499437E7 ; 39508.00000000001
167 ; 68258.3847166874 ; 275419.91174887656 ; 1.424201995611529E7 ; 2.897739720083415E7 ; 39746.00000000001
168 ; 68006.52365016144 ; 276510.02414182294 ; 1.4310278340831978E7 ; 2.9252817112583026E7 ; 39984.00000000001
169 ; 67500.88265718523 ; 277596.28070231096 ; 1.437828486448214E7 ; 2.952932713672485E7 ; 40222.00000000001
170 ; 67396.93737201783 ; 278678.65922525246 ; 1.4445785747139325E7 ; 2.980692341742716E7 ; 40460.00000000001
171 ; 66997.73856263775 ; 279757.13761606533 ; 1.4513182684511343E7 ; 3.008560207665241E7 ; 40698.00000000001
172 ; 66475.06467412056 ; 280831.69388999726 ; 1.4580180423073981E7 ; 3.0365359214268476E7 ; 40936.00000000001
173 ; 66524.50945362536 ; 281902.30617148604 ; 1.4646655487748101E7 ; 3.0646190908158474E7 ; 41174.00000000001
174 ; 66490.16382380216 ; 282968.9526935569 ; 1.4713179997201726E7 ; 3.0928093214329958E7 ; 41412.00000000001
175 ; 66544.74373890916 ; 284031.6117972528 ; 1.4779670161025528E7 ; 3.1211062167023513E7 ; 41650.00000000001
176 ; 66888.62977253686 ; 285090.26193109876 ; 1.4846214904764436E7 ; 3.1495093778820768E7 ; 41888.00000000001
177 ; 66778.38693106778 ; 286144.8816505959 ; 1.4913103534536973E7 ; 3.1780184040751867E7 ; 42126.00000000001
178 ; 67309.48175561943 ; 287195.44961774745 ; 1.497988192146804E7 ; 3.2066328922402464E7 ; 42364.00000000001
179 ; 67121.36547295336 ; 288241.94460061175 ; 1.504719140322366E7 ; 3.235352437202021E7 ; 42602.00000000001
180 ; 67761.1262922457 ; 289284.3454728834 ; 1.5114312768696614E7 ; 3.2641766316620823E7 ; 42840.00000000001
181 ; 67936.9124369112 ; 290322.63121350075 ; 1.518207389498886E7 ; 3.2931050662093706E7 ; 43078.00000000001
182 ; 68347.37768475071 ; 291356.7809062787 ; 1.525001080742577E7 ; 3.3221373293307208E7 ; 43316.00000000001
