CSV File for the Network on Day 271
1 - Minute m 
2 - Power Consumed at minute m 
3 - Power Produced at minute m 
4 - Energy Consumed since the beginning of the day 
5 - Energy Produced since the beginning of the day 
6 - Energy Lost since the beginning of the day 
 
No Production city : 2, Producer : 1
No Production city : 4, Producer : 1
No Production city : 4, Producer : 1
 
0 ; 41680.15535964856 ; 174902.9704064435 ; 0.0 ; 0.0 ; 0.0
1 ; 43364.794968675895 ; 174562.67911662874 ; 41680.15535964856 ; 174902.9704064435 ; 238.00000000000003
2 ; 44707.86963703115 ; 174257.22524364697 ; 85044.95032832446 ; 349465.64952307224 ; 476.00000000000006
3 ; 46362.558492999466 ; 173986.92976966055 ; 129752.81996535561 ; 523722.8747667192 ; 714.0000000000001
4 ; 47095.121996585745 ; 173752.0797309069 ; 176115.3784583551 ; 697709.8045363798 ; 952.0000000000001
5 ; 48489.25827240727 ; 173552.92683858008 ; 223210.50045494083 ; 871461.8842672866 ; 1190.0000000000002
6 ; 49925.80715451821 ; 173389.68624954732 ; 271699.7587273481 ; 1045014.8111058667 ; 1428.0000000000002
7 ; 51278.05481951896 ; 173262.5355007913 ; 321625.5658818663 ; 1218404.497355414 ; 1666.0000000000002
8 ; 52440.29108971853 ; 173171.6136198575 ; 372903.6207013853 ; 1391667.0328562055 ; 1904.0000000000002
9 ; 53291.43909803572 ; 173117.02042172753 ; 425343.91179110383 ; 1564838.646476063 ; 2142.0000000000005
10 ; 55261.77777689644 ; 173098.8160004649 ; 478635.3508891396 ; 1737955.6668977905 ; 2380.0000000000005
11 ; 56332.6107218216 ; 173117.02042172753 ; 533897.1286660361 ; 1911054.4828982553 ; 2618.0000000000005
12 ; 57370.306455376325 ; 173171.6136198575 ; 590229.7393878576 ; 2084171.503319983 ; 2856.0000000000005
13 ; 58871.21273050178 ; 173262.5355007913 ; 647600.0458432339 ; 2257343.1169398404 ; 3094.0000000000005
14 ; 60283.14481166419 ; 173389.68624954726 ; 706471.2585737357 ; 2430605.6524406318 ; 3332.0000000000005
15 ; 61081.22117490223 ; 173552.92683858008 ; 766754.4033854 ; 2603995.338690179 ; 3570.0000000000005
16 ; 62115.31511226781 ; 173752.0797309069 ; 827835.6245603022 ; 2777548.265528759 ; 3808.0000000000005
17 ; 63241.57560964482 ; 173986.92976966043 ; 889950.9396725701 ; 2951300.345259666 ; 4046.0000000000005
18 ; 64546.431136390594 ; 174257.22524364706 ; 953192.5152822149 ; 3125287.2750293263 ; 4284.000000000001
19 ; 65319.93222671755 ; 174562.67911662874 ; 1017738.9464186054 ; 3299544.5002729734 ; 4522.000000000001
20 ; 66619.4827222085 ; 174902.9704064435 ; 1083058.878645323 ; 3474107.179389602 ; 4760.000000000001
21 ; 67381.99229616576 ; 175277.7456987447 ; 1149678.3613675316 ; 3649010.1497960454 ; 4998.000000000001
22 ; 68745.39932561638 ; 175686.62077910372 ; 1217060.3536636974 ; 3824287.8954947903 ; 5236.000000000001
23 ; 69489.3363640287 ; 176129.1823664861 ; 1285805.7529893138 ; 3999974.516273894 ; 5474.000000000001
24 ; 70911.93668118973 ; 176604.9899306701 ; 1355295.0893533425 ; 4176103.69864038 ; 5712.000000000001
25 ; 72129.61143379819 ; 177113.57757604436 ; 1426207.0260345323 ; 4352708.68857105 ; 5950.000000000001
26 ; 72601.01910833476 ; 177654.45597435304 ; 1498336.6374683306 ; 4529822.266147094 ; 6188.000000000001
27 ; 74356.35926442905 ; 178227.1143293562 ; 1570937.6565766654 ; 4707476.722121447 ; 6426.000000000001
28 ; 74900.7547153044 ; 178831.02235699954 ; 1645294.0158410943 ; 4885703.836450803 ; 6664.000000000001
29 ; 75468.11972592592 ; 179465.63226552246 ; 1720194.7705563987 ; 5064534.858807802 ; 6902.000000000001
30 ; 76801.2965984436 ; 180130.3807209296 ; 1795662.8902823245 ; 5244000.491073324 ; 7140.000000000001
31 ; 77790.16505373975 ; 180824.69078439384 ; 1872464.186880768 ; 5424130.871794254 ; 7378.000000000001
32 ; 78334.7860379093 ; 181547.97380940072 ; 1950254.3519345077 ; 5604955.562578647 ; 7616.000000000001
33 ; 79710.28983026095 ; 182299.63128775425 ; 2028589.137972417 ; 5786503.536388048 ; 7854.000000000001
34 ; 80388.54574040844 ; 183079.05663492318 ; 2108299.427802678 ; 5968803.1676758025 ; 8092.000000000001
35 ; 81218.46344099155 ; 183885.63690656595 ; 2188687.9735430866 ; 6151882.224310726 ; 8330.000000000002
36 ; 81911.56120352035 ; 184718.75443942918 ; 2269906.436984078 ; 6335767.861217292 ; 8568.000000000002
37 ; 83038.19826570977 ; 185577.78841112272 ; 2351817.9981875983 ; 6520486.615656721 ; 8806.000000000002
38 ; 83650.44170617298 ; 186462.1163145392 ; 2434856.196453308 ; 6706064.404067844 ; 9044.000000000002
39 ; 84889.49681363671 ; 187371.11534387013 ; 2518506.6381594813 ; 6892526.520382383 ; 9282.000000000002
40 ; 85057.6902303302 ; 188304.16369027627 ; 2603396.134973118 ; 7079897.635726253 ; 9520.000000000002
41 ; 85771.93892747167 ; 189260.64174628587 ; 2688453.825203448 ; 7268201.799416529 ; 9758.000000000002
42 ; 86659.72387557867 ; 190239.93321890643 ; 2774225.7641309197 ; 7457462.441162815 ; 9996.000000000002
43 ; 87226.50334298445 ; 191241.42615225792 ; 2860885.488006498 ; 7647702.374381722 ; 10234.000000000002
44 ; 87824.24096380189 ; 192264.51386124417 ; 2948111.9913494824 ; 7838943.80053398 ; 10472.000000000002
45 ; 88275.96673822647 ; 193308.59577840168 ; 3035936.232313284 ; 8031208.314395225 ; 10710.000000000002
46 ; 89423.20079512063 ; 194373.07821658193 ; 3124212.1990515105 ; 8224516.910173627 ; 10948.000000000002
47 ; 90586.62682575117 ; 195457.37505055554 ; 3213635.399846631 ; 8418889.98839021 ; 11186.000000000002
48 ; 90899.68883484002 ; 196560.90832096818 ; 3304222.0266723824 ; 8614347.363440765 ; 11424.000000000002
49 ; 91112.24361606149 ; 197683.10876434503 ; 3395121.7155072223 ; 8810908.271761734 ; 11662.000000000002
50 ; 92438.22388550708 ; 198823.41627303432 ; 3486233.9591232836 ; 9008591.380526079 ; 11900.000000000002
51 ; 92876.79897202624 ; 199981.2802891039 ; 3578672.1830087905 ; 9207414.796799114 ; 12138.000000000002
52 ; 93266.58722974756 ; 201156.16013628003 ; 3671548.981980817 ; 9407396.077088218 ; 12376.000000000002
53 ; 93414.0390028655 ; 202347.52529403378 ; 3764815.5692105647 ; 9608552.237224499 ; 12614.000000000002
54 ; 94476.36180216518 ; 203554.8556178954 ; 3858229.6082134303 ; 9810899.762518533 ; 12852.000000000002
55 ; 95124.30241227082 ; 204777.64151001556 ; 3952705.9700155957 ; 1.0014454618136428E7 ; 13090.000000000002
56 ; 95433.31812870796 ; 206015.3840439009 ; 4047830.2724278667 ; 1.0219232259646444E7 ; 13328.000000000002
57 ; 95865.54967770574 ; 207267.5950471269 ; 4143263.5905565745 ; 1.0425247643690344E7 ; 13566.000000000002
58 ; 96249.20243534085 ; 208533.79714569732 ; 4239129.14023428 ; 1.0632515238737471E7 ; 13804.000000000002
59 ; 96912.9963787616 ; 209813.52377355986 ; 4335378.342669621 ; 1.084104903588317E7 ; 14042.000000000002
60 ; 97618.29337278179 ; 211106.31915062226 ; 4432291.339048383 ; 1.105086255965673E7 ; 14280.000000000002
61 ; 97546.56380074102 ; 212411.73823243685 ; 4529909.632421165 ; 1.1261968878807353E7 ; 14518.000000000002
62 ; 98231.43445804538 ; 213729.34663454196 ; 4627456.196221906 ; 1.147438061703979E7 ; 14756.000000000002
63 ; 98088.02884290766 ; 215058.72053426542 ; 4725687.630679951 ; 1.1688109963674333E7 ; 14994.000000000002
64 ; 98594.34940378086 ; 216399.44655261448 ; 4823775.659522858 ; 1.1903168684208598E7 ; 15232.000000000002
65 ; 98500.05917936793 ; 217751.12161869465 ; 4922370.008926639 ; 1.2119568130761212E7 ; 15470.000000000002
66 ; 99334.53911092566 ; 219113.3528189248 ; 5020870.068106007 ; 1.2337319252379907E7 ; 15708.000000000002
67 ; 99881.34270865718 ; 220485.75723314393 ; 5120204.607216933 ; 1.2556432605198832E7 ; 15946.000000000002
68 ; 100297.00876975867 ; 221867.96175954086 ; 5220085.94992559 ; 1.2776918362431977E7 ; 16184.000000000002
69 ; 100519.58937404107 ; 223259.60293017686 ; 5320382.958695349 ; 1.2998786324191518E7 ; 16422.000000000004
70 ; 100560.6666807489 ; 224660.32671872425 ; 5420902.5480693905 ; 1.3222045927121695E7 ; 16660.000000000004
71 ; 100881.55841289726 ; 226069.7883418961 ; 5521463.214750139 ; 1.3446706253840419E7 ; 16898.000000000004
72 ; 101249.05811348537 ; 227487.652055911 ; 5622344.773163036 ; 1.3672776042182315E7 ; 17136.000000000004
73 ; 101655.27483663805 ; 228913.59094920612 ; 5723593.831276522 ; 1.3900263694238227E7 ; 17374.000000000004
74 ; 101669.06743296 ; 230347.28673249486 ; 5825249.10611316 ; 1.4129177285187433E7 ; 17612.000000000004
75 ; 102017.83841317505 ; 231788.4295271538 ; 5926918.17354612 ; 1.4359524571919927E7 ; 17850.000000000004
76 ; 102057.19884471584 ; 233236.71765281886 ; 6028936.011959295 ; 1.4591313001447082E7 ; 18088.000000000004
77 ; 102092.83365963835 ; 234691.85741497568 ; 6130993.210804011 ; 1.48245497190999E7 ; 18326.000000000004
78 ; 102560.87006502518 ; 236153.56289324278 ; 6233086.044463649 ; 1.5059241576514876E7 ; 18564.000000000004
79 ; 102571.82522916605 ; 237621.55573095815 ; 6335646.914528674 ; 1.5295395139408119E7 ; 18802.000000000004
80 ; 102869.17087003926 ; 239095.56492661333 ; 6438218.7397578405 ; 1.5533016695139077E7 ; 19040.000000000004
81 ; 102804.62354689496 ; 240575.32662760283 ; 6541087.91062788 ; 1.577211226006569E7 ; 19278.000000000004
82 ; 102790.6221115125 ; 242060.5839266987 ; 6643892.534174775 ; 1.6012687586693292E7 ; 19516.000000000004
83 ; 102867.4040263909 ; 243551.08666160048 ; 6746683.156286287 ; 1.625474817061999E7 ; 19754.000000000004
84 ; 102607.7994768572 ; 245046.5912178598 ; 6849550.560312678 ; 1.649829925728159E7 ; 19992.000000000004
85 ; 102808.28903522406 ; 246546.8603354312 ; 6952158.359789535 ; 1.674334584849945E7 ; 20230.000000000004
86 ; 103172.04468804903 ; 248051.66291905826 ; 7054966.64882476 ; 1.6989892708834883E7 ; 20468.000000000004
87 ; 102724.98207930505 ; 249560.77385266594 ; 7158138.6935128085 ; 1.7237944371753942E7 ; 20706.000000000004
88 ; 102892.8745024577 ; 251073.9738178948 ; 7260863.675592113 ; 1.7487505145606607E7 ; 20944.000000000004
89 ; 103132.99269389933 ; 252591.04911688276 ; 7363756.550094571 ; 1.7738579119424503E7 ; 21182.000000000004
90 ; 102886.45153004632 ; 254111.79149937115 ; 7466889.54278847 ; 1.7991170168541387E7 ; 21420.000000000004
91 ; 102487.71465434915 ; 255635.99799418825 ; 7569775.994318517 ; 1.824528196004076E7 ; 21658.000000000004
92 ; 102819.20343008311 ; 257163.470745141 ; 7672263.708972866 ; 1.8500917958034948E7 ; 21896.000000000004
93 ; 102539.8518955593 ; 258694.01685132648 ; 7775082.912402948 ; 1.875808142878009E7 ; 22134.000000000004
94 ; 102577.0944708636 ; 260227.4482118568 ; 7877622.764298508 ; 1.901677544563142E7 ; 22372.000000000004
95 ; 102074.10322419523 ; 261763.58137497757 ; 7980199.858769371 ; 1.9277002893843275E7 ; 22610.000000000004
96 ; 102570.5972325753 ; 263302.23739154625 ; 8082273.961993567 ; 1.953876647521825E7 ; 22848.000000000004
97 ; 102137.18326919612 ; 264843.2416728246 ; 8184844.559226142 ; 1.9802068712609798E7 ; 23086.000000000004
98 ; 102243.8204407624 ; 266386.42385253124 ; 8286981.742495338 ; 2.0066911954282623E7 ; 23324.000000000004
99 ; 101871.28872837278 ; 267931.6176530906 ; 8389225.562936101 ; 2.0333298378135152E7 ; 23562.000000000004
100 ; 101669.17156233574 ; 269478.6607560087 ; 8491096.851664474 ; 2.0601229995788243E7 ; 23800.000000000004
101 ; 101602.07627225337 ; 271027.3946762984 ; 8592766.02322681 ; 2.0870708656544253E7 ; 24038.000000000004
102 ; 101419.08388985394 ; 272577.6646408745 ; 8694368.099499064 ; 2.114173605122055E7 ; 24276.000000000004
103 ; 101177.03449392371 ; 274129.3194708323 ; 8795787.183388917 ; 2.1414313715861425E7 ; 24514.000000000004
104 ; 100813.24159991553 ; 275682.21146752196 ; 8896964.21788284 ; 2.168844303533226E7 ; 24752.000000000004
105 ; 99975.1797788027 ; 277236.19630232814 ; 8997777.459482756 ; 2.1964125246799782E7 ; 24990.000000000004
106 ; 100014.69659582498 ; 278791.13291006134 ; 9097752.639261559 ; 2.224136144310211E7 ; 25228.000000000004
107 ; 99842.44005129492 ; 280346.88338586886 ; 9197767.335857384 ; 2.252015257601217E7 ; 25466.000000000004
108 ; 99114.37962717487 ; 281903.31288556894 ; 9297609.775908679 ; 2.2800499459398042E7 ; 25704.000000000004
109 ; 99112.04892939438 ; 283460.2895293151 ; 9396724.155535854 ; 2.308240277228361E7 ; 25942.000000000004
110 ; 98615.75791195291 ; 285017.6843084944 ; 9495836.20446525 ; 2.3365863061812926E7 ; 26180.000000000004
111 ; 98176.54808049284 ; 286575.37099576724 ; 9594451.962377202 ; 2.365088074612142E7 ; 26418.000000000004
112 ; 98314.53622516322 ; 288133.2260581533 ; 9692628.510457695 ; 2.393745611711719E7 ; 26656.000000000004
113 ; 97717.63854325746 ; 289691.1285730726 ; 9790943.046682857 ; 2.422558934317534E7 ; 26894.000000000004
114 ; 97174.69029067227 ; 291248.96014725004 ; 9888660.685226114 ; 2.451528047174841E7 ; 27132.000000000004
115 ; 97015.51208925774 ; 292806.604838393 ; 9985835.375516787 ; 2.4806529431895662E7 ; 27370.000000000004
116 ; 96162.787261904 ; 294363.949079555 ; 1.0082850887606045E7 ; 2.5099336036734056E7 ; 27608.000000000004
117 ; 95694.20690342004 ; 295920.88160609774 ; 1.0179013674867949E7 ; 2.539369998581361E7 ; 27846.000000000004
118 ; 95298.88672607939 ; 297477.2933851669 ; 1.0274707881771369E7 ; 2.568962086741971E7 ; 28084.000000000004
119 ; 94767.76899663845 ; 299033.0775475998 ; 1.0370006768497448E7 ; 2.5987098160804875E7 ; 28322.000000000004
120 ; 93984.74580991722 ; 300588.1293221822 ; 1.0464774537494088E7 ; 2.6286131238352474E7 ; 28560.000000000004
121 ; 93326.31883441313 ; 302142.34597217775 ; 1.0558759283304004E7 ; 2.6586719367674656E7 ; 28798.000000000004
122 ; 93261.40961821216 ; 303695.6267340505 ; 1.0652085602138417E7 ; 2.6888861713646833E7 ; 29036.000000000004
123 ; 92349.3321480262 ; 305247.8727583079 ; 1.0745347011756629E7 ; 2.7192557340380885E7 ; 29274.000000000004
124 ; 92140.40953215411 ; 306798.9870523905 ; 1.0837696343904655E7 ; 2.749780521313919E7 ; 29512.000000000004
125 ; 91576.73134825437 ; 308348.87442553765 ; 1.092983675343681E7 ; 2.7804604200191583E7 ; 29750.000000000004
126 ; 90937.89731886209 ; 309897.4414355609 ; 1.1021413484785063E7 ; 2.811295307461712E7 ; 29988.000000000004
127 ; 90068.82713046709 ; 311444.59633745876 ; 1.1112351382103926E7 ; 2.8422850516052682E7 ; 30226.000000000004
128 ; 89529.9550190745 ; 312990.249033808 ; 1.1202420209234392E7 ; 2.8734295112390142E7 ; 30464.000000000004
129 ; 88543.46402696377 ; 314534.31102686946 ; 1.1291950164253468E7 ; 2.904728536142395E7 ; 30702.000000000004
130 ; 87946.82688636857 ; 316076.6953723469 ; 1.1380493628280431E7 ; 2.936181967245082E7 ; 30940.000000000004
131 ; 87114.02381573073 ; 317617.316634742 ; 1.14684404551668E7 ; 2.967789636782317E7 ; 31178.000000000004
132 ; 86425.82856261329 ; 319156.0908442477 ; 1.155555447898253E7 ; 2.999551368445791E7 ; 31416.000000000004
133 ; 85824.77454145154 ; 320692.93545512576 ; 1.1641980307545144E7 ; 3.0314669775302157E7 ; 31654.000000000004
134 ; 84949.32703677892 ; 322227.769305515 ; 1.1727805082086595E7 ; 3.063536271075728E7 ; 31892.000000000004
135 ; 84092.7771799042 ; 323760.51257862046 ; 1.1812754409123374E7 ; 3.0957590480062798E7 ; 32130.000000000004
136 ; 83578.94951743363 ; 325291.0867652329 ; 1.1896847186303278E7 ; 3.128135099264142E7 ; 32368.000000000004
137 ; 82873.12915089315 ; 326819.41462753166 ; 1.1980426135820713E7 ; 3.1606642079406653E7 ; 32606.000000000004
138 ; 82312.44966306964 ; 328345.4201641247 ; 1.2063299264971606E7 ; 3.1933461494034186E7 ; 32844.00000000001
139 ; 81301.97357776464 ; 329869.02857628226 ; 1.2145611714634676E7 ; 3.226180691419831E7 ; 33082.00000000001
140 ; 80264.13004886762 ; 331390.16623532 ; 1.222691368821244E7 ; 3.259167594277459E7 ; 33320.00000000001
141 ; 80029.45284692146 ; 332908.76065109187 ; 1.2307177818261307E7 ; 3.292306610900991E7 ; 33558.00000000001
142 ; 78882.78910289878 ; 334424.7404415519 ; 1.2387207271108229E7 ; 3.3255974869661003E7 ; 33796.00000000001
143 ; 77861.38154297018 ; 335938.0353033472 ; 1.2466090060211128E7 ; 3.359039961010256E7 ; 34034.00000000001
144 ; 77213.45299626922 ; 337448.575983405 ; 1.2543951441754097E7 ; 3.39263376454059E7 ; 34272.00000000001
145 ; 76370.17366748495 ; 338956.29425147816 ; 1.2621164894750366E7 ; 3.426378622138931E7 ; 34510.00000000001
146 ; 76235.97746026679 ; 340461.12287361507 ; 1.269753506841785E7 ; 3.460274251564079E7 ; 34748.00000000001
147 ; 76227.52483985084 ; 341962.99558652035 ; 1.2773771045878118E7 ; 3.49432036385144E7 ; 34986.00000000001
148 ; 75784.81293768143 ; 343461.8470727753 ; 1.2849998570717968E7 ; 3.528516663410092E7 ; 35224.00000000001
149 ; 75809.41790759527 ; 344957.6129368869 ; 1.2925783383655649E7 ; 3.5628628481173694E7 ; 35462.00000000001
150 ; 75158.49464025072 ; 346450.22968213574 ; 1.3001592801563244E7 ; 3.597358609411058E7 ; 35700.00000000001
151 ; 75632.63195880523 ; 347939.6346881949 ; 1.3076751296203496E7 ; 3.632003632379271E7 ; 35938.00000000001
152 ; 75294.20993608043 ; 349425.7661894923 ; 1.3152383928162301E7 ; 3.666797595848091E7 ; 36176.00000000001
153 ; 74668.02178550964 ; 350908.56325428945 ; 1.3227678138098381E7 ; 3.70174017246704E7 ; 36414.00000000001
154 ; 74823.56968355278 ; 352387.9657644523 ; 1.330234615988389E7 ; 3.736831028792469E7 ; 36652.00000000001
155 ; 74337.78779790839 ; 353863.91439588874 ; 1.3377169729567444E7 ; 3.772069825368915E7 ; 36890.00000000001
156 ; 74304.49341968956 ; 355336.3505996299 ; 1.3451507517365353E7 ; 3.807456216808504E7 ; 37128.00000000001
157 ; 73711.17563757066 ; 356805.21658353205 ; 1.3525812010785043E7 ; 3.842989851868467E7 ; 37366.00000000001
158 ; 74252.1150565941 ; 358270.45529457735 ; 1.3599523186422614E7 ; 3.8786703735268205E7 ; 37604.00000000001
159 ; 72989.26743241666 ; 359732.01040175307 ; 1.367377530147921E7 ; 3.9144974190562785E7 ; 37842.00000000001
160 ; 73138.47529429807 ; 361189.8262794882 ; 1.3746764568911625E7 ; 3.950470620096454E7 ; 38080.00000000001
161 ; 72446.66188887396 ; 362643.8479916279 ; 1.3819903044205923E7 ; 3.986589602724403E7 ; 38318.00000000001
162 ; 72714.59828639342 ; 364094.02127592766 ; 1.3892349706094796E7 ; 4.022853987523566E7 ; 38556.00000000001
163 ; 71926.48981272655 ; 365540.2925290492 ; 1.396506430438119E7 ; 4.059263389651159E7 ; 38794.00000000001
164 ; 71685.1999840802 ; 366982.60879203933 ; 1.4036990794193916E7 ; 4.095817418904064E7 ; 39032.00000000001
165 ; 71858.09461825811 ; 368420.9177362766 ; 1.4108675994177997E7 ; 4.1325156797832675E7 ; 39270.00000000001
166 ; 71390.22671509677 ; 369855.16764986876 ; 1.4180534088796256E7 ; 4.169357771556895E7 ; 39508.00000000001
167 ; 70981.0447102472 ; 371285.30742448557 ; 1.4251924315511353E7 ; 4.206343288321882E7 ; 39746.00000000001
168 ; 70143.94775748547 ; 372711.28654261224 ; 1.43229053602216E7 ; 4.24347181906433E7 ; 39984.00000000001
169 ; 70719.55714784925 ; 374133.0550652084 ; 1.4393049307979086E7 ; 4.280742947718591E7 ; 40222.00000000001
170 ; 69874.96844535845 ; 375550.5636197594 ; 1.4463768865126936E7 ; 4.318156253225112E7 ; 40460.00000000001
171 ; 69596.72576557753 ; 376963.7633887067 ; 1.4533643833572295E7 ; 4.355711309587088E7 ; 40698.00000000001
172 ; 68950.37316805063 ; 378372.60609824344 ; 1.4603240559337873E7 ; 4.393407685925959E7 ; 40936.00000000001
173 ; 68476.44624920606 ; 379777.0440074634 ; 1.4672190932505924E7 ; 4.431244946535783E7 ; 41174.00000000001
174 ; 69152.74178563108 ; 381177.02989785204 ; 1.474066737875513E7 ; 4.46922265093653E7 ; 41412.00000000001
175 ; 68857.90766024671 ; 382572.5170631064 ; 1.480982012054076E7 ; 4.507340353926315E7 ; 41650.00000000001
176 ; 69359.89648520137 ; 383963.45929927455 ; 1.4878678028201006E7 ; 4.5455976056326255E7 ; 41888.00000000001
177 ; 69800.05595347613 ; 385349.8108952024 ; 1.4948037924686208E7 ; 4.583993951562553E7 ; 42126.00000000001
178 ; 69881.73656437128 ; 386731.5266232786 ; 1.5017837980639685E7 ; 4.622528932652073E7 ; 42364.00000000001
179 ; 69730.03641820069 ; 388108.5617304673 ; 1.5087719717204057E7 ; 4.661202085314401E7 ; 42602.00000000001
180 ; 70266.5388761579 ; 389480.8719296183 ; 1.5157449753622258E7 ; 4.700012941487448E7 ; 42840.00000000001
181 ; 70402.9074431595 ; 390848.4133910467 ; 1.5227716292498415E7 ; 4.7389610286804095E7 ; 43078.00000000001
