CSV File for the Network on Day 130
1 - Minute m 
2 - Power Consumed at minute m 
3 - Power Produced at minute m 
4 - Energy Consumed since the beginning of the day 
5 - Energy Produced since the beginning of the day 
6 - Energy Lost since the beginning of the day 
 
No Production city : 2, Producer : 1
No Production city : 4, Producer : 1
No Production city : 4, Producer : 1
 
0 ; 58961.17300408585 ; 170949.69507342402 ; 0.0 ; 0.0 ; 0.0
1 ; 59804.25988724468 ; 170608.83696655795 ; 58961.17300408585 ; 170949.69507342402 ; 238.00000000000003
2 ; 60892.26339804264 ; 170302.79973137105 ; 118765.43289133054 ; 341558.532039982 ; 476.00000000000006
3 ; 62036.25959320739 ; 170031.92866103823 ; 179657.69628937318 ; 511861.331771353 ; 714.0000000000001
4 ; 63196.06660541813 ; 169796.53286955692 ; 241693.95588258057 ; 681893.2604323912 ; 952.0000000000001
5 ; 64366.25099058709 ; 169596.88369107046 ; 304890.0224879987 ; 851689.7933019481 ; 1190.0000000000002
6 ; 65171.90658895222 ; 169433.213249814 ; 369256.2734785858 ; 1021286.6769930186 ; 1428.0000000000002
7 ; 66294.07667316862 ; 169305.7132180727 ; 434428.18006753805 ; 1190719.8902428327 ; 1666.0000000000002
8 ; 66882.4866574118 ; 169214.5337775782 ; 500722.2567407067 ; 1360025.6034609054 ; 1904.0000000000002
9 ; 68450.76187294602 ; 169159.78279747794 ; 567604.7433981185 ; 1529240.1372384836 ; 2142.0000000000005
10 ; 69174.76237450194 ; 169141.52523942175 ; 636055.5052710646 ; 1698399.9200359615 ; 2380.0000000000005
11 ; 70561.16487965269 ; 169159.78279747794 ; 705230.2676455665 ; 1867541.4452753833 ; 2618.0000000000005
12 ; 71494.64198888815 ; 169214.5337775782 ; 775791.4325252192 ; 2036701.2280728612 ; 2856.0000000000005
13 ; 71777.8003268946 ; 169305.7132180727 ; 847286.0745141073 ; 2205915.7618504395 ; 3094.0000000000005
14 ; 73091.61397751672 ; 169433.213249814 ; 919063.8748410019 ; 2375221.4750685124 ; 3332.0000000000005
15 ; 73619.87535724988 ; 169596.88369107046 ; 992155.4888185187 ; 2544654.688318326 ; 3570.0000000000005
16 ; 74812.97206278947 ; 169796.53286955692 ; 1065775.3641757686 ; 2714251.5720093967 ; 3808.0000000000005
17 ; 75635.94995001677 ; 170031.92866103814 ; 1140588.336238558 ; 2884048.1048789537 ; 4046.0000000000005
18 ; 76443.51795363141 ; 170302.79973137105 ; 1216224.2861885747 ; 3054080.033539992 ; 4284.000000000001
19 ; 77431.72094483 ; 170608.83696655795 ; 1292667.8041422062 ; 3224382.833271363 ; 4522.000000000001
20 ; 77947.6856660639 ; 170949.69507342408 ; 1370099.5250870362 ; 3394991.6702379207 ; 4760.000000000001
21 ; 79184.90061272046 ; 171324.99433195297 ; 1448047.2107531 ; 3565941.3653113446 ; 4998.000000000001
22 ; 79809.02551710483 ; 171734.32247911484 ; 1527232.1113658205 ; 3737266.3596432977 ; 5236.000000000001
23 ; 80535.27156928625 ; 172177.23670323406 ; 1607041.1368829254 ; 3909000.6821224126 ; 5474.000000000001
24 ; 81291.03404001122 ; 172653.26572753803 ; 1687576.4084522116 ; 4081177.918825647 ; 5712.000000000001
25 ; 82866.01860467877 ; 173161.91196151348 ; 1768867.4424922229 ; 4253831.184553185 ; 5950.000000000001
26 ; 83203.33647438545 ; 173702.6536990321 ; 1851733.4610969017 ; 4426993.096514698 ; 6188.000000000001
27 ; 83501.39198066677 ; 174274.9473428697 ; 1934936.797571287 ; 4600695.75021373 ; 6426.000000000001
28 ; 84426.589586434 ; 174878.22963618813 ; 2018438.1895519537 ; 4774970.6975566 ; 6664.000000000001
29 ; 85065.3405748206 ; 175511.9198827396 ; 2102864.7791383876 ; 4949848.927192789 ; 6902.000000000001
30 ; 85781.58769675352 ; 176175.42213894016 ; 2187930.119713208 ; 5125360.847075528 ; 7140.000000000001
31 ; 86609.4792112115 ; 176868.127362496 ; 2273711.7074099616 ; 5301536.269214469 ; 7378.000000000001
32 ; 87118.3466097227 ; 177589.41550391426 ; 2360321.1866211733 ; 5478404.396576965 ; 7616.000000000001
33 ; 87850.53679242016 ; 178338.6575289336 ; 2447439.533230896 ; 5655993.81208088 ; 7854.000000000001
34 ; 88712.75409579153 ; 179115.21736164423 ; 2535290.0700233164 ; 5834332.469609814 ; 8092.000000000001
35 ; 89125.84876761616 ; 179918.4537397827 ; 2624002.824119108 ; 6013447.686971458 ; 8330.000000000002
36 ; 89635.1829447897 ; 180747.72197536094 ; 2713128.672886724 ; 6193366.1407112405 ; 8568.000000000002
37 ; 90525.69959893599 ; 181602.37561539077 ; 2802763.8558315136 ; 6374113.8626866015 ; 8806.000000000002
38 ; 91028.86060938032 ; 182481.7679989754 ; 2893289.5554304495 ; 6555716.238301992 ; 9044.000000000002
39 ; 91582.43821979738 ; 183385.2537084396 ; 2984318.41603983 ; 6738198.006300968 ; 9282.000000000002
40 ; 92772.35255010861 ; 184312.1899134494 ; 3075900.8542596274 ; 6921583.260009408 ; 9520.000000000002
41 ; 92747.11585682399 ; 185261.93760822533 ; 3168673.206809736 ; 7105895.449922858 ; 9758.000000000002
42 ; 93340.83397375303 ; 186233.86274296828 ; 3261420.32266656 ; 7291157.387531083 ; 9996.000000000002
43 ; 93655.53125305861 ; 187227.33725150663 ; 3354761.1566403126 ; 7477391.250274051 ; 10234.000000000002
44 ; 94297.1623412 ; 188241.7399779274 ; 3448416.687893371 ; 7664618.587525558 ; 10472.000000000002
45 ; 94910.00461969871 ; 189276.45750558563 ; 3542713.850234571 ; 7852860.327503486 ; 10710.000000000002
46 ; 95744.52419937027 ; 190330.8848923985 ; 3637623.8548542694 ; 8042136.785009071 ; 10948.000000000002
47 ; 95687.62473815636 ; 191404.42631673408 ; 3733368.3790536397 ; 8232467.66990147 ; 11186.000000000002
48 ; 96268.93681557354 ; 192496.49563850375 ; 3829056.003791796 ; 8423872.096218204 ; 11424.000000000002
49 ; 97140.0221066988 ; 193606.51688027816 ; 3925324.9406073694 ; 8616368.591856709 ; 11662.000000000002
50 ; 97428.31621511538 ; 194733.92463337458 ; 4022464.962714068 ; 8809975.108736986 ; 11900.000000000002
51 ; 97721.99987419494 ; 195878.16439391684 ; 4119893.2789291837 ; 9004709.03337036 ; 12138.000000000002
52 ; 97875.3103337423 ; 197038.69283386675 ; 4217615.278803378 ; 9200587.197764277 ; 12376.000000000002
53 ; 98477.22763838226 ; 198214.97801196162 ; 4315490.58913712 ; 9397625.890598144 ; 12614.000000000002
54 ; 98674.91666120446 ; 199406.49952939132 ; 4413967.816775503 ; 9595840.868610106 ; 12852.000000000002
55 ; 99005.4270218845 ; 200612.7486349065 ; 4512642.733436707 ; 9795247.368139498 ; 13090.000000000002
56 ; 99393.09788387701 ; 201833.2282838803 ; 4611648.160458592 ; 9995860.116774404 ; 13328.000000000002
57 ; 99639.21009948065 ; 203067.4531556516 ; 4711041.258342469 ; 1.0197693345058285E7 ; 13566.000000000002
58 ; 100484.48027116887 ; 204314.9496332708 ; 4810680.46844195 ; 1.0400760798213936E7 ; 13804.000000000002
59 ; 100650.0257336841 ; 205575.2557495465 ; 4911164.948713119 ; 1.0605075747847207E7 ; 14042.000000000002
60 ; 100958.47629141303 ; 206847.92110306406 ; 5011814.974446803 ; 1.0810651003596753E7 ; 14280.000000000002
61 ; 101166.7116550186 ; 208132.5067476157 ; 5112773.450738217 ; 1.1017498924699817E7 ; 14518.000000000002
62 ; 101524.37883494854 ; 209428.5850582502 ; 5213940.162393236 ; 1.1225631431447433E7 ; 14756.000000000002
63 ; 101546.58881566905 ; 210735.73957692197 ; 5315464.5412281845 ; 1.1435060016505683E7 ; 14994.000000000002
64 ; 102119.55875775151 ; 212053.56484049527 ; 5417011.130043853 ; 1.1645795756082606E7 ; 15232.000000000002
65 ; 102008.34977135897 ; 213381.66619364294 ; 5519130.688801604 ; 1.1857849320923101E7 ; 15470.000000000002
66 ; 102569.2777840067 ; 214719.65958896937 ; 5621139.038572963 ; 1.2071230987116745E7 ; 15708.000000000002
67 ; 103061.5815469894 ; 216067.17137648756 ; 5723708.31635697 ; 1.2285950646705715E7 ; 15946.000000000002
68 ; 102849.099090974 ; 217423.838084391 ; 5826769.897903959 ; 1.2502017818082202E7 ; 16184.000000000002
69 ; 102946.69218847866 ; 218789.30619288082 ; 5929618.996994933 ; 1.2719441656166593E7 ; 16422.000000000004
70 ; 103427.29567407508 ; 220163.23190263918 ; 6032565.689183412 ; 1.2938230962359473E7 ; 16660.000000000004
71 ; 103366.88405108526 ; 221545.28089938246 ; 6135992.9848574875 ; 1.3158394194262112E7 ; 16898.000000000004
72 ; 103153.89186078019 ; 222935.12811577902 ; 6239359.868908573 ; 1.3379939475161495E7 ; 17136.000000000004
73 ; 103797.62407296922 ; 224332.45749188008 ; 6342513.760769353 ; 1.3602874603277273E7 ; 17374.000000000004
74 ; 103676.54116899276 ; 225736.96173508395 ; 6446311.384842322 ; 1.3827207060769154E7 ; 17612.000000000004
75 ; 103628.31275388965 ; 227148.34208053723 ; 6549987.926011315 ; 1.4052944022504238E7 ; 17850.000000000004
76 ; 103876.38805807615 ; 228566.30805276844 ; 6653616.238765204 ; 1.4280092364584776E7 ; 18088.000000000004
77 ; 104365.40057198913 ; 229990.57722925072 ; 6757492.62682328 ; 1.4508658672637545E7 ; 18326.000000000004
78 ; 103898.52127515951 ; 231420.8750064999 ; 6861858.027395269 ; 1.4738649249866795E7 ; 18564.000000000004
79 ; 104055.07342919332 ; 232856.93436923038 ; 6965756.548670429 ; 1.4970070124873295E7 ; 18802.000000000004
80 ; 103863.94945336814 ; 234298.49566301965 ; 7069811.622099622 ; 1.5202927059242526E7 ; 19040.000000000004
81 ; 104492.83438038005 ; 235745.30637085976 ; 7173675.57155299 ; 1.5437225554905545E7 ; 19278.000000000004
82 ; 104270.1004906024 ; 237197.12089391722 ; 7278168.40593337 ; 1.5672970861276405E7 ; 19516.000000000004
83 ; 104324.06463463158 ; 238653.70033676398 ; 7382438.506423973 ; 1.5910167982170323E7 ; 19754.000000000004
84 ; 104250.4623764983 ; 240114.81229729514 ; 7486762.571058604 ; 1.6148821682507087E7 ; 19992.000000000004
85 ; 103839.11277808112 ; 241580.2306615023 ; 7591013.033435103 ; 1.6388936494804382E7 ; 20230.000000000004
86 ; 104261.81759008407 ; 243049.73540323376 ; 7694852.146213184 ; 1.6630516725465884E7 ; 20468.000000000004
87 ; 104013.31229993212 ; 244523.11238903558 ; 7799113.963803268 ; 1.687356646086912E7 ; 20706.000000000004
88 ; 104296.16896873614 ; 246000.15318813786 ; 7903127.2761032 ; 1.7118089573258154E7 ; 20944.000000000004
89 ; 104288.4894685917 ; 247480.6548876218 ; 8007423.445071937 ; 1.7364089726446293E7 ; 21182.000000000004
90 ; 103213.31801105663 ; 248964.4199127788 ; 8111711.934540528 ; 1.7611570381333914E7 ; 21420.000000000004
91 ; 103571.32740130604 ; 250451.2558526522 ; 8214925.2525515845 ; 1.786053480124669E7 ; 21658.000000000004
92 ; 103734.03134677725 ; 251940.97529073298 ; 8318496.579952891 ; 1.8110986057099342E7 ; 21896.000000000004
93 ; 103819.39714032062 ; 253433.39564076494 ; 8422230.611299668 ; 1.8362927032390077E7 ; 22134.000000000004
94 ; 103358.91391195636 ; 254928.33898760055 ; 8526050.008439988 ; 1.861636042803084E7 ; 22372.000000000004
95 ; 103118.33160881438 ; 256425.6319330379 ; 8629408.922351945 ; 1.887128876701844E7 ; 22610.000000000004
96 ; 102941.40603346485 ; 257925.10544655734 ; 8732527.25396076 ; 1.912771439895148E7 ; 22848.000000000004
97 ; 102878.4179770392 ; 259426.59472086985 ; 8835468.659994226 ; 1.9385639504398037E7 ; 23086.000000000004
98 ; 102715.95990618682 ; 260929.9390321804 ; 8938347.077971265 ; 1.9645066099118907E7 ; 23324.000000000004
99 ; 102597.88658437862 ; 262434.98160506564 ; 9041063.037877452 ; 1.990599603815109E7 ; 23562.000000000004
100 ; 101736.98771937506 ; 263941.5694818586 ; 9143660.92446183 ; 2.0168431019756153E7 ; 23800.000000000004
101 ; 102311.4846291968 ; 265449.5533964323 ; 9245397.912181206 ; 2.043237258923801E7 ; 24038.000000000004
102 ; 101856.79658120633 ; 266958.78765226837 ; 9347709.396810403 ; 2.0697822142634444E7 ; 24276.000000000004
103 ; 101387.97832817474 ; 268469.1300046974 ; 9449566.19339161 ; 2.0964780930286713E7 ; 24514.000000000004
104 ; 101220.0346104148 ; 269980.4415471959 ; 9550954.171719784 ; 2.123325006029141E7 ; 24752.000000000004
105 ; 100817.38586875895 ; 271492.58660162333 ; 9652174.206330199 ; 2.1503230501838606E7 ; 24990.000000000004
106 ; 101041.10965345551 ; 273005.43261228414 ; 9752991.592198959 ; 2.177472308844023E7 ; 25228.000000000004
107 ; 100266.12959870233 ; 274518.8500436996 ; 9854032.701852415 ; 2.2047728521052513E7 ; 25466.000000000004
108 ; 100023.82423127031 ; 276032.71228197403 ; 9954298.831451118 ; 2.2322247371096212E7 ; 25704.000000000004
109 ; 99456.93360272134 ; 277546.8955396435 ; 1.0054322655682389E7 ; 2.259828008337819E7 ; 25942.000000000004
110 ; 99045.67662596126 ; 279061.2787638946 ; 1.015377958928511E7 ; 2.2875826978917833E7 ; 26180.000000000004
111 ; 98474.415990547 ; 280575.7435480438 ; 1.025282526591107E7 ; 2.3154888257681727E7 ; 26418.000000000004
112 ; 98329.9570210368 ; 282090.1740461695 ; 1.0351299681901617E7 ; 2.343546400122977E7 ; 26656.000000000004
113 ; 97937.95615327697 ; 283604.4568907905 ; 1.0449629638922654E7 ; 2.371755417527594E7 ; 26894.000000000004
114 ; 97573.88148454454 ; 285118.48111348826 ; 1.0547567595075931E7 ; 2.4001158632166732E7 ; 27132.000000000004
115 ; 96992.48876160596 ; 286632.1380683719 ; 1.0645141476560475E7 ; 2.428627711328022E7 ; 27370.000000000004
116 ; 96561.67920647137 ; 288145.32135828625 ; 1.0742133965322081E7 ; 2.4572909251348592E7 ; 27608.000000000004
117 ; 96183.05174543051 ; 289657.926763669 ; 1.0838695644528553E7 ; 2.486105457270688E7 ; 27846.000000000004
118 ; 95731.44365691791 ; 291169.8521739616 ; 1.0934878696273983E7 ; 2.5150712499470547E7 ; 28084.000000000004
119 ; 95375.10811465995 ; 292680.9975214844 ; 1.10306101399309E7 ; 2.544188235164451E7 ; 28322.000000000004
120 ; 95071.28389284841 ; 294191.26471768785 ; 1.112598524804556E7 ; 2.5734563349165995E7 ; 28560.000000000004
121 ; 94138.4984828821 ; 295700.55759169377 ; 1.1221056531938408E7 ; 2.602875461388368E7 ; 28798.000000000004
122 ; 93699.71190137144 ; 297208.7818310445 ; 1.131519503042129E7 ; 2.6324455171475377E7 ; 29036.000000000004
123 ; 93606.82011285926 ; 298715.8449245795 ; 1.1408894742322663E7 ; 2.662166395330642E7 ; 29274.000000000004
124 ; 92845.43510713967 ; 300221.65610736184 ; 1.1502501562435523E7 ; 2.6920379798231002E7 ; 29512.000000000004
125 ; 92432.93984406922 ; 301726.12630757934 ; 1.1595346997542663E7 ; 2.7220601454338364E7 ; 29750.000000000004
126 ; 92025.80437563566 ; 303229.1680953485 ; 1.1687779937386733E7 ; 2.7522327580645945E7 ; 29988.000000000004
127 ; 91184.29508964768 ; 304730.6956333503 ; 1.1779805741762368E7 ; 2.7825556748741295E7 ; 30226.000000000004
128 ; 90572.17031322178 ; 306230.62462923105 ; 1.1870990036852015E7 ; 2.8130287444374647E7 ; 30464.000000000004
129 ; 89710.8067921148 ; 307728.8722897022 ; 1.1961562207165238E7 ; 2.8436518069003876E7 ; 30702.000000000004
130 ; 89524.73148612474 ; 309225.35727627645 ; 1.2051273013957351E7 ; 2.874424694129358E7 ; 30940.000000000004
131 ; 88667.49798489349 ; 310719.9996625801 ; 1.2140797745443476E7 ; 2.9053472298569854E7 ; 31178.000000000004
132 ; 87957.26156854976 ; 312212.7208931822 ; 1.222946524342837E7 ; 2.9364192298232436E7 ; 31416.000000000004
133 ; 87247.10827086843 ; 313703.443743884 ; 1.231742250499692E7 ; 2.9676405019125618E7 ; 31654.000000000004
134 ; 86537.21862340745 ; 315192.0922834149 ; 1.2404669613267789E7 ; 2.9990108462869503E7 ; 31892.000000000004
135 ; 86012.31940679858 ; 316678.59183648287 ; 1.2491206831891196E7 ; 3.030530055515292E7 ; 32130.000000000004
136 ; 85273.15313807041 ; 318162.8689481274 ; 1.2577219151297994E7 ; 3.06219791469894E7 ; 32368.000000000004
137 ; 84257.16757740467 ; 319644.8513493281 ; 1.2662492304436065E7 ; 3.094014201593753E7 ; 32606.000000000004
138 ; 83803.03908246133 ; 321124.4679238214 ; 1.274674947201347E7 ; 3.1259786867286857E7 ; 32844.00000000001
139 ; 83315.5057330014 ; 322601.6486760803 ; 1.2830552511095932E7 ; 3.1580911335210677E7 ; 33082.00000000001
140 ; 82239.43398050475 ; 324076.32470041397 ; 1.2913868016828934E7 ; 3.1903512983886756E7 ; 33320.00000000001
141 ; 81857.66592903336 ; 325548.42815114633 ; 1.2996107450809438E7 ; 3.222758930858717E7 ; 33558.00000000001
142 ; 80738.14422616224 ; 327017.892213832 ; 1.307796511673847E7 ; 3.2553137736738317E7 ; 33796.00000000001
143 ; 80013.4196515216 ; 328484.65107747284 ; 1.3158703260964632E7 ; 3.288015562895215E7 ; 34034.00000000001
144 ; 79322.36048081392 ; 329948.6399076964 ; 1.3238716680616153E7 ; 3.320864028002962E7 ; 34272.00000000001
145 ; 78832.29200366081 ; 331409.79482086195 ; 1.3318039041096967E7 ; 3.3538588919937316E7 ; 34510.00000000001
146 ; 78551.30091758301 ; 332868.0528590591 ; 1.3396871333100628E7 ; 3.386999871475818E7 ; 34748.00000000001
147 ; 78484.06183907602 ; 334323.35196596617 ; 1.347542263401821E7 ; 3.420286676761724E7 ; 34986.00000000001
148 ; 78907.7882948143 ; 335775.6309635367 ; 1.3553906695857286E7 ; 3.4537190119583204E7 ; 35224.00000000001
149 ; 78141.11835685134 ; 337224.82952948374 ; 1.3632814484152101E7 ; 3.487296575054674E7 ; 35462.00000000001
150 ; 77479.81191954465 ; 338670.8881755322 ; 1.3710955602508953E7 ; 3.5210190580076225E7 ; 35700.00000000001
151 ; 77958.23963960572 ; 340113.74822641176 ; 1.3788435414428497E7 ; 3.554886146825176E7 ; 35938.00000000001
152 ; 77133.23917952279 ; 341553.3517995625 ; 1.3866393654068103E7 ; 3.588897521647817E7 ; 36176.00000000001
153 ; 77132.61336408612 ; 342989.64178552787 ; 1.3943526893247627E7 ; 3.623052856827773E7 ; 36414.00000000001
154 ; 77290.83166831656 ; 344422.5618290093 ; 1.4020659506611712E7 ; 3.657351821006326E7 ; 36652.00000000001
155 ; 76627.00749147663 ; 345852.05631055956 ; 1.409795033828003E7 ; 3.6917940771892264E7 ; 36890.00000000001
156 ; 76552.57244041467 ; 347278.07032888994 ; 1.4174577345771506E7 ; 3.726379282820282E7 ; 37128.00000000001
157 ; 76107.19878594839 ; 348700.5496837704 ; 1.425112991821192E7 ; 3.761107089853171E7 ; 37366.00000000001
158 ; 76087.377292115 ; 350119.4408595014 ; 1.4327237116997868E7 ; 3.7959771448215485E7 ; 37604.00000000001
159 ; 75267.7272783287 ; 351534.6910089354 ; 1.4403324494289983E7 ; 3.830989088907499E7 ; 37842.00000000001
160 ; 75621.11305187625 ; 352946.2479380297 ; 1.4478592221568312E7 ; 3.866142558008392E7 ; 38080.00000000001
161 ; 74747.44475315203 ; 354354.0600909111 ; 1.4554213334620189E7 ; 3.901437182802195E7 ; 38318.00000000001
162 ; 74411.48800473807 ; 355758.0765354337 ; 1.462896077937334E7 ; 3.9368725888112865E7 ; 38556.00000000001
163 ; 73974.31573377179 ; 357158.2469492129 ; 1.4703372267378079E7 ; 3.97244839646483E7 ; 38794.00000000001
164 ; 74375.01955797379 ; 358554.52160611824 ; 1.477734658311185E7 ; 4.008164221159751E7 ; 39032.00000000001
165 ; 73855.89595351723 ; 359946.8513632087 ; 1.4851721602669824E7 ; 4.044019673320363E7 ; 39270.00000000001
166 ; 73649.8549320756 ; 361335.18764809583 ; 1.4925577498623341E7 ; 4.080014358456684E7 ; 39508.00000000001
167 ; 73137.66041897128 ; 362719.48244671756 ; 1.4999227353555417E7 ; 4.1161478772214934E7 ; 39746.00000000001
168 ; 72354.70250096661 ; 364099.68829151057 ; 1.5072365013974387E7 ; 4.152419825466165E7 ; 39984.00000000001
169 ; 72612.67738905016 ; 365475.7582499657 ; 1.5144719716475355E7 ; 4.188829794295316E7 ; 40222.00000000001
170 ; 71986.42137604703 ; 366847.6459135535 ; 1.5217332393864404E7 ; 4.225377370120313E7 ; 40460.00000000001
171 ; 71841.33989417195 ; 368215.3053870073 ; 1.5289318815240452E7 ; 4.262062134711669E7 ; 40698.00000000001
172 ; 71370.74122110184 ; 369578.6912779507 ; 1.5361160155134624E7 ; 4.298883665250369E7 ; 40936.00000000001
173 ; 70765.28989073484 ; 370937.75868685765 ; 1.5432530896355726E7 ; 4.335841534378164E7 ; 41174.00000000001
174 ; 70878.73936757896 ; 372292.4631973348 ; 1.550329618624646E7 ; 4.37293531024685E7 ; 41412.00000000001
175 ; 71220.19386145967 ; 373642.760866713 ; 1.5574174925614038E7 ; 4.410164556566583E7 ; 41650.00000000001
176 ; 71455.25194938193 ; 374988.60821693914 ; 1.5645395119475499E7 ; 4.447528832653255E7 ; 41888.00000000001
177 ; 71217.25357039693 ; 376329.9622257569 ; 1.571685037142488E7 ; 4.485027693474949E7 ; 42126.00000000001
178 ; 71587.62988912048 ; 377666.78031816694 ; 1.5788067624995276E7 ; 4.522660689697525E7 ; 42364.00000000001
179 ; 71640.85883857084 ; 378999.0203581575 ; 1.5859655254884398E7 ; 4.560427367729341E7 ; 42602.00000000001
180 ; 71685.88027848385 ; 380326.64064069494 ; 1.5931296113722969E7 ; 4.598327269765157E7 ; 42840.00000000001
181 ; 71769.57400069112 ; 381649.5998839666 ; 1.6002981994001452E7 ; 4.636359933829227E7 ; 43078.00000000001
