CSV File for the Network on Day 300
1 - Minute m 
2 - Power Consumed at minute m 
3 - Power Produced at minute m 
4 - Energy Consumed since the beginning of the day 
5 - Energy Produced since the beginning of the day 
6 - Energy Lost since the beginning of the day 
 
No Production city : 2, Producer : 1
No Production city : 4, Producer : 1
No Production city : 4, Producer : 1
 
0 ; 58335.11900623826 ; 226243.30320920018 ; 0.0 ; 0.0 ; 0.0
1 ; 59549.98953103586 ; 225877.3115870114 ; 58335.11900623826 ; 226243.30320920018 ; 238.00000000000003
2 ; 61193.992104130375 ; 225549.04195737513 ; 117885.10853727412 ; 452120.6147962116 ; 476.00000000000006
3 ; 62063.93652901843 ; 225258.75813869853 ; 179079.1006414045 ; 677669.6567535867 ; 714.0000000000001
4 ; 63109.051039168815 ; 225006.69523498203 ; 241143.03717042293 ; 902928.4148922852 ; 952.0000000000001
5 ; 63798.779101008746 ; 224793.0587882489 ; 304252.08820959175 ; 1127935.1101272672 ; 1190.0000000000002
6 ; 65224.455551705425 ; 224618.02402850607 ; 368050.8673106005 ; 1352728.168915516 ; 1428.0000000000002
7 ; 66440.17083427678 ; 224481.73522763437 ; 433275.3228623059 ; 1577346.1929440221 ; 1666.0000000000002
8 ; 67219.58925307263 ; 224384.3051627994 ; 499715.4936965827 ; 1801827.9281716566 ; 1904.0000000000002
9 ; 68223.7519312152 ; 224325.81469408175 ; 566935.0829496554 ; 2026212.2333344559 ; 2142.0000000000005
10 ; 69510.8302751134 ; 224306.31246006314 ; 635158.8348808705 ; 2250538.0480285375 ; 2380.0000000000005
11 ; 69883.97082947711 ; 224325.81469408175 ; 704669.665155984 ; 2474844.3604886006 ; 2618.0000000000005
12 ; 71087.10757829565 ; 224384.3051627994 ; 774553.6359854611 ; 2699170.1751826825 ; 2856.0000000000005
13 ; 72087.04892805724 ; 224481.73522763437 ; 845640.7435637567 ; 2923554.480345482 ; 3094.0000000000005
14 ; 72699.9209062316 ; 224618.02402850604 ; 917727.7924918139 ; 3148036.215573116 ; 3332.0000000000005
15 ; 74269.04647472728 ; 224793.0587882489 ; 990427.7133980455 ; 3372654.2396016223 ; 3570.0000000000005
16 ; 74697.26857179077 ; 225006.69523498203 ; 1064696.7598727727 ; 3597447.298389871 ; 3808.0000000000005
17 ; 75792.37299046331 ; 225258.7581386985 ; 1139394.0284445635 ; 3822453.993624853 ; 4046.0000000000005
18 ; 76805.83477321995 ; 225549.04195737516 ; 1215186.401435027 ; 4047712.7517635515 ; 4284.000000000001
19 ; 77300.52343421165 ; 225877.31158701135 ; 1291992.2362082468 ; 4273261.793720927 ; 4522.000000000001
20 ; 78124.69868451491 ; 226243.30320920024 ; 1369292.7596424585 ; 4499139.1053079385 ; 4760.000000000001
21 ; 79014.1599321588 ; 226646.72522913018 ; 1447417.4583269735 ; 4725382.408517139 ; 4998.000000000001
22 ; 79890.27990592347 ; 227087.25929630932 ; 1526431.6182591324 ; 4952029.133746269 ; 5236.000000000001
23 ; 80873.00576464753 ; 227564.5613998155 ; 1606321.8981650558 ; 5179116.393042578 ; 5474.000000000001
24 ; 81662.88503361416 ; 228078.2630294947 ; 1687194.9039297034 ; 5406680.954442394 ; 5712.000000000001
25 ; 82144.92555862125 ; 228627.97239427036 ; 1768857.7889633176 ; 5634759.217471888 ; 5950.000000000001
26 ; 82741.69909951994 ; 229213.27568857666 ; 1851002.714521939 ; 5863387.189866159 ; 6188.000000000001
27 ; 83767.98100007288 ; 229833.7383978922 ; 1933744.413621459 ; 6092600.465554736 ; 6426.000000000001
28 ; 84558.11114912308 ; 230488.9066344171 ; 2017512.3946215317 ; 6322434.203952628 ; 6664.000000000001
29 ; 85610.06761128923 ; 231178.3084941055 ; 2102070.505770655 ; 6552923.110587046 ; 6902.000000000001
30 ; 86033.87021442951 ; 231901.45542651866 ; 2187680.573381944 ; 6784101.4190811515 ; 7140.000000000001
31 ; 86553.94227563267 ; 232657.8436093044 ; 2273714.443596374 ; 7016002.87450767 ; 7378.000000000001
32 ; 87024.93872055908 ; 233446.9553195131 ; 2360268.3858720064 ; 7248660.718116974 ; 7616.000000000001
33 ; 88225.7796529115 ; 234268.2602944284 ; 2447293.3245925657 ; 7482107.673436487 ; 7854.000000000001
34 ; 88788.69506050601 ; 235121.21707510724 ; 2535519.1042454774 ; 7716375.933730915 ; 8092.000000000001
35 ; 89284.54076170397 ; 236005.27432637438 ; 2624307.7993059834 ; 7951497.150806023 ; 8330.000000000002
36 ; 89825.77321170966 ; 236919.87212759827 ; 2713592.3400676874 ; 8187502.425132398 ; 8568.000000000002
37 ; 90506.3040993383 ; 237864.44322916956 ; 2803418.113279397 ; 8424422.297259996 ; 8806.000000000002
38 ; 91403.87657393557 ; 238838.41427020854 ; 2893924.4173787353 ; 8662286.740489164 ; 9044.000000000002
39 ; 91714.53215721085 ; 239841.20695362918 ; 2985328.293952671 ; 8901125.154759374 ; 9282.000000000002
40 ; 92201.81845542433 ; 240872.2391752773 ; 3077042.8261098815 ; 9140966.361713003 ; 9520.000000000002
41 ; 92914.53920377119 ; 241930.92610444117 ; 3169244.6445653057 ; 9381838.60088828 ; 9758.000000000002
42 ; 93423.99578433459 ; 243016.68121357978 ; 3262159.183769077 ; 9623769.526992721 ; 9996.000000000002
43 ; 94089.00481641285 ; 244128.91725564655 ; 3355583.1795534114 ; 9866786.208206302 ; 10234.000000000002
44 ; 94342.45267695971 ; 245267.04718787642 ; 3449672.1843698244 ; 1.0110915125461947E7 ; 10472.000000000002
45 ; 95018.55033544208 ; 246430.48504136756 ; 3544014.637046784 ; 1.0356182172649823E7 ; 10710.000000000002
46 ; 95706.57476652037 ; 247618.64673621295 ; 3639033.1873822263 ; 1.060261265769119E7 ; 10948.000000000002
47 ; 96294.84564977731 ; 248830.95084232307 ; 3734739.7621487468 ; 1.0850231304427402E7 ; 11186.000000000002
48 ; 96480.47557415941 ; 250066.8192864295 ; 3831034.607798524 ; 1.1099062255269725E7 ; 11424.000000000002
49 ; 97353.03146063801 ; 251325.67800607067 ; 3927515.0833726837 ; 1.1349129074556155E7 ; 11662.000000000002
50 ; 97565.53201490555 ; 252606.95755163228 ; 4024868.114833322 ; 1.1600454752562225E7 ; 11900.000000000002
51 ; 98044.9535809158 ; 253910.09363774964 ; 4122433.6468482274 ; 1.1853061710113857E7 ; 12138.000000000002
52 ; 98314.47794875728 ; 255234.52764558425 ; 4220478.600429143 ; 1.2106971803751606E7 ; 12376.000000000002
53 ; 99071.88778779622 ; 256579.70707764957 ; 4318793.0783779 ; 1.236220633139719E7 ; 12614.000000000002
54 ; 99378.43291415213 ; 257945.08596700002 ; 4417864.966165696 ; 1.2618786038474841E7 ; 12852.000000000002
55 ; 99682.11811497384 ; 259330.1252427037 ; 4517243.399079848 ; 1.2876731124441842E7 ; 13090.000000000002
56 ; 100167.53617190376 ; 260734.29305360003 ; 4616925.5171948215 ; 1.3136061249684546E7 ; 13328.000000000002
57 ; 100908.15907092561 ; 262157.0650523979 ; 4717093.053366725 ; 1.3396795542738147E7 ; 13566.000000000002
58 ; 100785.72925015933 ; 263597.92464220466 ; 4818001.212437651 ; 1.3658952607790545E7 ; 13804.000000000002
59 ; 101132.68724673499 ; 265056.36318759114 ; 4918786.94168781 ; 1.392255053243275E7 ; 14042.000000000002
60 ; 101621.3731477525 ; 266531.8801922915 ; 5019919.628934545 ; 1.418760689562034E7 ; 14280.000000000002
61 ; 101687.01934478067 ; 268023.9834456202 ; 5121541.002082298 ; 1.4454138775812631E7 ; 14518.000000000002
62 ; 102233.4023646816 ; 269532.1891396553 ; 5223228.021427078 ; 1.4722162759258252E7 ; 14756.000000000002
63 ; 102006.17486759825 ; 271056.02195919305 ; 5325461.42379176 ; 1.4991694948397906E7 ; 14994.000000000002
64 ; 102457.05108183039 ; 272595.01514642703 ; 5427467.598659358 ; 1.52627509703571E7 ; 15232.000000000002
65 ; 102095.41721374911 ; 274148.7105422427 ; 5529924.649741189 ; 1.5535345985503526E7 ; 15470.000000000002
66 ; 102904.37070650706 ; 275716.65860595246 ; 5632020.066954938 ; 1.580949469604577E7 ; 15708.000000000002
67 ; 103225.72948016322 ; 277298.4184152221 ; 5734924.437661445 ; 1.6085211354651721E7 ; 15946.000000000002
68 ; 103310.09502058424 ; 278893.55764786765 ; 5838150.167141608 ; 1.6362509773066944E7 ; 16184.000000000002
69 ; 103326.69490399062 ; 280501.6525471174 ; 5941460.262162192 ; 1.664140333071481E7 ; 16422.000000000004
70 ; 103608.19871101558 ; 282122.2878718611 ; 6044786.957066182 ; 1.6921904983261928E7 ; 16660.000000000004
71 ; 104101.20846572639 ; 283755.0568333217 ; 6148395.155777197 ; 1.7204027271133788E7 ; 16898.000000000004
72 ; 103561.9440960484 ; 285399.5610195078 ; 6252496.364242923 ; 1.748778232796711E7 ; 17136.000000000004
73 ; 103972.05801627734 ; 287055.4103087259 ; 6356058.308338972 ; 1.7773181888986617E7 ; 17374.000000000004
74 ; 104059.44470827068 ; 288722.2227733493 ; 6460030.366355249 ; 1.8060237299295343E7 ; 17612.000000000004
75 ; 104452.02975486105 ; 290399.624574969 ; 6564089.81106352 ; 1.8348959522068694E7 ; 17850.000000000004
76 ; 104656.56693555188 ; 292087.24985197274 ; 6668541.840818381 ; 1.8639359146643665E7 ; 18088.000000000004
77 ; 104670.30440240838 ; 293784.7406005288 ; 6773198.407753933 ; 1.8931446396495637E7 ; 18326.000000000004
78 ; 104724.0878283232 ; 295491.746549881 ; 6877868.712156341 ; 1.9225231137096167E7 ; 18564.000000000004
79 ; 104555.57862976768 ; 297207.9250327935 ; 6982592.799984665 ; 1.952072288364605E7 ; 18802.000000000004
80 ; 104979.90013427152 ; 298932.94085192255 ; 7087148.378614432 ; 1.9817930808678843E7 ; 19040.000000000004
81 ; 104786.53069564761 ; 300666.4661428281 ; 7192128.278748704 ; 2.0116863749530766E7 ; 19278.000000000004
82 ; 105293.13891242062 ; 302408.18023428397 ; 7296914.809444352 ; 2.0417530215673596E7 ; 19516.000000000004
83 ; 104976.57031555272 ; 304157.76950648805 ; 7402207.948356773 ; 2.071993839590788E7 ; 19754.000000000004
84 ; 105222.87381880003 ; 305914.927247724 ; 7507184.518672326 ; 2.1024096165414367E7 ; 19992.000000000004
85 ; 104785.059035285 ; 307679.3535099752 ; 7612407.3924911255 ; 2.1330011092662092E7 ; 20230.000000000004
86 ; 104524.48098199567 ; 309450.75496394973 ; 7717192.451526411 ; 2.1637690446172066E7 ; 20468.000000000004
87 ; 104979.72614992417 ; 311228.8447539275 ; 7821716.932508406 ; 2.1947141201136015E7 ; 20706.000000000004
88 ; 104770.0985421485 ; 313013.3423528049 ; 7926696.65865833 ; 2.2258370045889944E7 ; 20944.000000000004
89 ; 104786.75484868398 ; 314803.9734176733 ; 8031466.757200479 ; 2.2571383388242748E7 ; 21182.000000000004
90 ; 104702.88060366188 ; 316600.4696462317 ; 8136253.512049163 ; 2.288618736166042E7 ; 21420.000000000004
91 ; 104753.48003893539 ; 318402.5686343045 ; 8240956.3926528245 ; 2.320278783130665E7 ; 21658.000000000004
92 ; 104596.47871999783 ; 320210.013734703 ; 8345709.87269176 ; 2.3521190399940956E7 ; 21896.000000000004
93 ; 103994.2323214993 ; 322022.5539176425 ; 8450306.351411758 ; 2.384140041367566E7 ; 22134.000000000004
94 ; 104074.0759300307 ; 323839.9436329011 ; 8554300.583733257 ; 2.41634229675933E7 ; 22372.000000000004
95 ; 104052.72410362467 ; 325661.9426738838 ; 8658374.659663288 ; 2.44872629112262E7 ; 22610.000000000004
96 ; 103881.6698105165 ; 327488.3160437314 ; 8762427.383766912 ; 2.4812924853900086E7 ; 22848.000000000004
97 ; 103723.02979788429 ; 329318.8338235972 ; 8866309.053577429 ; 2.5140413169943817E7 ; 23086.000000000004
98 ; 103251.67157263642 ; 331153.27104319213 ; 8970032.083375312 ; 2.5469732003767416E7 ; 23324.000000000004
99 ; 103329.03455538527 ; 332991.4075536873 ; 9073283.75494795 ; 2.580088527481061E7 ; 23562.000000000004
100 ; 103312.05460004455 ; 334833.0279030428 ; 9176612.789503334 ; 2.6133876682364296E7 ; 23800.000000000004
101 ; 102952.35990708166 ; 336677.9212138211 ; 9279924.84410338 ; 2.646870971026734E7 ; 24038.000000000004
102 ; 102939.63807761685 ; 338525.8810635297 ; 9382877.20401046 ; 2.680538763148116E7 ; 24276.000000000004
103 ; 102310.86206472074 ; 340376.7053675261 ; 9485816.842088077 ; 2.7143913512544688E7 ; 24514.000000000004
104 ; 101782.64042211842 ; 342230.19626450766 ; 9588127.704152798 ; 2.7484290217912216E7 ; 24752.000000000004
105 ; 101848.38248198501 ; 344086.16000460164 ; 9689910.344574917 ; 2.7826520414176725E7 ; 24990.000000000004
106 ; 101728.73412801145 ; 345944.4068400588 ; 9791758.727056902 ; 2.8170606574181326E7 ; 25228.000000000004
107 ; 101111.15989151955 ; 347804.7509185498 ; 9893487.461184913 ; 2.8516550981021386E7 ; 25466.000000000004
108 ; 100424.76034341322 ; 349667.01017905463 ; 9994598.621076433 ; 2.8864355731939934E7 ; 25704.000000000004
109 ; 100999.15248313405 ; 351531.0062503325 ; 1.0095023381419847E7 ; 2.921402274211899E7 ; 25942.000000000004
110 ; 99929.54889629497 ; 353396.5643519479 ; 1.019602253390298E7 ; 2.956555374836932E7 ; 26180.000000000004
111 ; 100580.62716797345 ; 355263.5131978335 ; 1.0295952082799274E7 ; 2.9918950312721267E7 ; 26418.000000000004
112 ; 99044.03533363115 ; 357131.6849023569 ; 1.0396532709967248E7 ; 3.02742138259191E7 ; 26656.000000000004
113 ; 98976.43049235876 ; 359000.9148888606 ; 1.049557674530088E7 ; 3.0631345510821454E7 ; 26894.000000000004
114 ; 98852.000924484 ; 360871.0418006399 ; 1.0594553175793238E7 ; 3.0990346425710313E7 ; 27132.000000000004
115 ; 97888.66901248033 ; 362741.90741432033 ; 1.0693405176717723E7 ; 3.1351217467510954E7 ; 27370.000000000004
116 ; 97842.82975432793 ; 364613.35655559384 ; 1.0791293845730202E7 ; 3.1713959374925274E7 ; 27608.000000000004
117 ; 97567.75614008211 ; 366485.23701727256 ; 1.088913667548453E7 ; 3.2078572731480867E7 ; 27846.000000000004
118 ; 96919.61205213239 ; 368357.399479615 ; 1.0986704431624612E7 ; 3.244505796849814E7 ; 28084.000000000004
119 ; 96696.16459057931 ; 370229.6974328806 ; 1.1083624043676745E7 ; 3.2813415367977757E7 ; 28322.000000000004
120 ; 96067.58034175108 ; 372101.9871020654 ; 1.1180320208267324E7 ; 3.3183645065410636E7 ; 28560.000000000004
121 ; 95547.18489659912 ; 373974.1273737739 ; 1.1276387788609074E7 ; 3.3555747052512705E7 ; 28798.000000000004
122 ; 94695.32585629639 ; 375845.9797251765 ; 1.1371934973505674E7 ; 3.392972117988648E7 ; 29036.000000000004
123 ; 94159.9057406837 ; 377717.4081550079 ; 1.146663029936197E7 ; 3.430556715961166E7 ; 29274.000000000004
124 ; 93837.81450069694 ; 379588.2791165562 ; 1.1560790205102654E7 ; 3.468328456776667E7 ; 29512.000000000004
125 ; 93185.20208762337 ; 381458.4614525955 ; 1.1654628019603351E7 ; 3.506287284688322E7 ; 29750.000000000004
126 ; 93080.087569738 ; 383327.8263322139 ; 1.1747813221690975E7 ; 3.544433130833582E7 ; 29988.000000000004
127 ; 91961.13198275451 ; 385196.24718948867 ; 1.1840893309260713E7 ; 3.582765913466803E7 ; 30226.000000000004
128 ; 91617.17580435218 ; 387063.59966396267 ; 1.1932854441243468E7 ; 3.621285538185752E7 ; 30464.000000000004
129 ; 90895.8052095785 ; 388929.7615428727 ; 1.202447161704782E7 ; 3.659991898152149E7 ; 30702.000000000004
130 ; 90045.37022233594 ; 390794.61270508467 ; 1.21153674222574E7 ; 3.698884874306436E7 ; 30940.000000000004
131 ; 89576.38806356248 ; 392658.0350666907 ; 1.2205412792479735E7 ; 3.737964335576944E7 ; 31178.000000000004
132 ; 89489.65230706448 ; 394519.91252822016 ; 1.2294989180543298E7 ; 3.7772301390836135E7 ; 31416.000000000004
133 ; 88783.37375602336 ; 396380.1309234228 ; 1.2384478832850363E7 ; 3.816682130336435E7 ; 31654.000000000004
134 ; 87652.79568762367 ; 398238.57796957815 ; 1.2473262206606386E7 ; 3.856320143428777E7 ; 31892.000000000004
135 ; 87024.84497222886 ; 400095.14321929036 ; 1.256091500229401E7 ; 3.896144001225735E7 ; 32130.000000000004
136 ; 86035.9803272247 ; 401949.7180137233 ; 1.2647939847266238E7 ; 3.9361535155476645E7 ; 32368.000000000004
137 ; 85752.80680526538 ; 403802.1954372378 ; 1.2733975827593463E7 ; 3.976348487349037E7 ; 32606.000000000004
138 ; 84975.3665513936 ; 405652.47027338814 ; 1.2819728634398729E7 ; 4.016728706892761E7 ; 32844.00000000001
139 ; 84499.0151335503 ; 407500.4389622396 ; 1.2904704000950122E7 ; 4.0572939539201E7 ; 33082.00000000001
140 ; 83398.64923550154 ; 409345.9995589675 ; 1.2989203016083673E7 ; 4.0980439978163235E7 ; 33320.00000000001
141 ; 82427.03290461813 ; 411189.0516937011 ; 1.3072601665319175E7 ; 4.1389785977722205E7 ; 33558.00000000001
142 ; 81974.03947493451 ; 413029.4965325734 ; 1.3155028698223792E7 ; 4.1800975029415905E7 ; 33796.00000000001
143 ; 80748.61237823083 ; 414867.2367399439 ; 1.3237002737698726E7 ; 4.221400452594848E7 ; 34034.00000000001
144 ; 79982.48803946938 ; 416702.176441756 ; 1.3317751350076957E7 ; 4.262887176268842E7 ; 34272.00000000001
145 ; 80280.40415888335 ; 418534.2211899977 ; 1.3397733838116426E7 ; 4.304557393913018E7 ; 34510.00000000001
146 ; 79957.41217459622 ; 420363.27792823006 ; 1.3478014242275309E7 ; 4.346410816032018E7 ; 34748.00000000001
147 ; 79569.33799482786 ; 422189.2549581532 ; 1.3557971654449904E7 ; 4.388447143824841E7 ; 34986.00000000001
148 ; 79277.96332461263 ; 424012.0619071761 ; 1.3637540992444731E7 ; 4.430666069320656E7 ; 35224.00000000001
149 ; 79355.48759247514 ; 425831.6096969619 ; 1.3716818955769343E7 ; 4.473067275511374E7 ; 35462.00000000001
150 ; 79297.23823629168 ; 427647.8105129161 ; 1.3796174443361819E7 ; 4.5156504364810705E7 ; 35700.00000000001
151 ; 78716.60258855153 ; 429460.5777745932 ; 1.387547168159811E7 ; 4.558415217532362E7 ; 35938.00000000001
152 ; 78362.07463922242 ; 431269.82610698737 ; 1.3954188284186661E7 ; 4.601361275309821E7 ; 36176.00000000001
153 ; 78063.64864327354 ; 433075.47131268604 ; 1.4032550358825883E7 ; 4.64448825792052E7 ; 36414.00000000001
154 ; 78193.35058395923 ; 434877.4303448564 ; 1.4110614007469157E7 ; 4.687795805051789E7 ; 36652.00000000001
155 ; 77682.41243690299 ; 436675.6212810396 ; 1.4188807358053116E7 ; 4.7312835480862744E7 ; 36890.00000000001
156 ; 77299.64722583702 ; 438469.96329772874 ; 1.4266489770490019E7 ; 4.774951110214379E7 ; 37128.00000000001
157 ; 77019.94903552433 ; 440260.3766457055 ; 1.4343789417715855E7 ; 4.818798106544152E7 ; 37366.00000000001
158 ; 76848.2044952189 ; 442046.78262611135 ; 1.4420809366751378E7 ; 4.8628241442087226E7 ; 37604.00000000001
159 ; 76503.70577778635 ; 443829.1035672336 ; 1.4497657571246598E7 ; 4.907028822471334E7 ; 37842.00000000001
160 ; 76403.09638718588 ; 445607.2628019797 ; 1.4574161277024385E7 ; 4.9514117328280576E7 ; 38080.00000000001
161 ; 76002.91923708515 ; 447381.184646022 ; 1.465056437341157E7 ; 4.995972459108256E7 ; 38318.00000000001
162 ; 75647.78134751556 ; 449150.7943765913 ; 1.4726567292648654E7 ; 5.040710577572858E7 ; 38556.00000000001
163 ; 75433.48020331268 ; 450916.0182118974 ; 1.480221507399617E7 ; 5.085625657010517E7 ; 38794.00000000001
164 ; 75445.59412917892 ; 452676.78329116065 ; 1.4877648554199481E7 ; 5.130717258831707E7 ; 39032.00000000001
165 ; 74989.9288289907 ; 454433.0176552311 ; 1.495309414832866E7 ; 5.175984937160823E7 ; 39270.00000000001
166 ; 74300.45605977975 ; 456184.650227782 ; 1.502808407715765E7 ; 5.221428238926346E7 ; 39508.00000000001
167 ; 74293.87808795637 ; 457931.61079705524 ; 1.510238453321743E7 ; 5.267046703949124E7 ; 39746.00000000001
168 ; 73637.9525488563 ; 459673.8299981452 ; 1.5176678411305387E7 ; 5.31283986502883E7 ; 39984.00000000001
169 ; 73528.29846937401 ; 461411.23929580237 ; 1.5250316363854242E7 ; 5.358807248028644E7 ; 40222.00000000001
170 ; 73328.56102848212 ; 463143.77096774074 ; 1.5323844662323616E7 ; 5.4049483719582245E7 ; 40460.00000000001
171 ; 72873.7333563113 ; 464871.35808843555 ; 1.5397173223352099E7 ; 5.451262749054999E7 ; 40698.00000000001
172 ; 72157.47892499928 ; 466593.93451339245 ; 1.547004695670841E7 ; 5.497749884863842E7 ; 40936.00000000001
173 ; 72298.19364530317 ; 468311.4348638779 ; 1.554220443563341E7 ; 5.544409278315181E7 ; 41174.00000000001
174 ; 72304.86469016044 ; 469658.5521997285 ; 1.5614502629278714E7 ; 5.591240421801569E7 ; 41412.00000000001
175 ; 72329.47259830688 ; 469658.5521997285 ; 1.5686807493968874E7 ; 5.638206277021542E7 ; 41650.00000000001
176 ; 72462.35206137081 ; 469658.5521997285 ; 1.5759136966567181E7 ; 5.685172132241515E7 ; 41888.00000000001
177 ; 71935.44423069085 ; 469658.5521997285 ; 1.5831599318628551E7 ; 5.732137987461488E7 ; 42126.00000000001
178 ; 72754.12032819849 ; 469658.5521997285 ; 1.5903534762859242E7 ; 5.779103842681461E7 ; 42364.00000000001
179 ; 72409.34170034241 ; 469658.5521997285 ; 1.5976288883187441E7 ; 5.826069697901434E7 ; 42602.00000000001
180 ; 72531.21326587109 ; 469658.5521997285 ; 1.6048698224887783E7 ; 5.8730355531214066E7 ; 42840.00000000001
181 ; 72722.91227747269 ; 469658.5521997285 ; 1.6121229438153654E7 ; 5.9200014083413795E7 ; 43078.00000000001
