CSV File for the Network on Day 204
1 - Minute m 
2 - Power Consumed at minute m 
3 - Power Produced at minute m 
4 - Energy Consumed since the beginning of the day 
5 - Energy Produced since the beginning of the day 
6 - Energy Lost since the beginning of the day 
 
No Production city : 2, Producer : 1
No Production city : 4, Producer : 1
No Production city : 4, Producer : 1
 
0 ; 27905.71052130363 ; 123104.70156373354 ; 0.0 ; 0.0 ; 0.0
1 ; 29297.744384288235 ; 122683.64679053842 ; 27905.71052130363 ; 123104.70156373354 ; 238.00000000000003
2 ; 31204.82758118226 ; 122304.01461717935 ; 57203.45490559186 ; 245788.34835427196 ; 476.00000000000006
3 ; 32916.29655094268 ; 121966.72261157492 ; 88408.28248677411 ; 368092.3629714513 ; 714.0000000000001
4 ; 34660.328633872035 ; 121672.60795234147 ; 121324.57903771679 ; 490059.08558302623 ; 952.0000000000001
5 ; 36345.53653085662 ; 121422.4180432111 ; 155984.90767158882 ; 611731.6935353677 ; 1190.0000000000002
6 ; 38302.003591333894 ; 121216.8017787906 ; 192330.44420244545 ; 733154.1115785788 ; 1428.0000000000002
7 ; 39374.662495690136 ; 121056.3016870156 ; 230632.44779377934 ; 854370.9133573694 ; 1666.0000000000002
8 ; 41470.11089480134 ; 120941.34716206932 ; 270007.1102894695 ; 975427.2150443849 ; 1904.0000000000002
9 ; 43257.31964350029 ; 120872.24897998341 ; 311477.2211842708 ; 1096368.5622064543 ; 2142.0000000000005
10 ; 44304.44258640999 ; 120849.19525807758 ; 354734.54082777107 ; 1217240.8111864377 ; 2380.0000000000005
11 ; 45828.29007820446 ; 120872.24897998341 ; 399038.98341418104 ; 1338090.0064445152 ; 2618.0000000000005
12 ; 48111.49370885706 ; 120941.34716206932 ; 444867.2734923855 ; 1458962.2554244986 ; 2856.0000000000005
13 ; 49552.75833266905 ; 121056.3016870156 ; 492978.76720124256 ; 1579903.6025865679 ; 3094.0000000000005
14 ; 50549.130226022884 ; 121216.80177879051 ; 542531.5255339117 ; 1700959.9042735836 ; 3332.0000000000005
15 ; 52179.199386638735 ; 121422.4180432111 ; 593080.6557599346 ; 1822176.706052374 ; 3570.0000000000005
16 ; 53679.397805263914 ; 121672.60795234147 ; 645259.8551465733 ; 1943599.1240955852 ; 3808.0000000000005
17 ; 55239.89160481694 ; 121966.72261157483 ; 698939.2529518371 ; 2065271.7320479266 ; 4046.0000000000005
18 ; 56683.88607921188 ; 122304.0146171794 ; 754179.144556654 ; 2187238.4546595016 ; 4284.000000000001
19 ; 58092.213808375236 ; 122683.64679053833 ; 810863.0306358659 ; 2309542.469276681 ; 4522.000000000001
20 ; 59509.983116010415 ; 123104.70156373363 ; 868955.244444241 ; 2432226.1160672195 ; 4760.000000000001
21 ; 60522.14767056063 ; 123566.19078927758 ; 928465.2275602515 ; 2555330.817630953 ; 4998.000000000001
22 ; 62360.32933412488 ; 124067.06575384882 ; 988987.3752308121 ; 2678897.008420231 ; 5236.000000000001
23 ; 63468.097412540264 ; 124606.227190546 ; 1051347.704564937 ; 2802964.0741740796 ; 5474.000000000001
24 ; 64296.70038257056 ; 125182.53510481562 ; 1114815.8019774773 ; 2927570.301364626 ; 5712.000000000001
25 ; 66100.55515278077 ; 125794.8182540999 ; 1179112.5023600478 ; 3052752.8364694417 ; 5950.000000000001
26 ; 67263.3535393966 ; 126441.88314863571 ; 1245213.0575128286 ; 3178547.6547235413 ; 6188.000000000001
27 ; 68884.9052506799 ; 127122.52246910628 ; 1312476.4110522252 ; 3304989.537872177 ; 6426.000000000001
28 ; 69944.36554158221 ; 127835.52282461073 ; 1381361.316302905 ; 3432112.060341283 ; 6664.000000000001
29 ; 71411.41687308707 ; 128579.67180055456 ; 1451305.6818444873 ; 3559947.583165894 ; 6902.000000000001
30 ; 72337.44449682189 ; 129353.76426974518 ; 1522717.0987175745 ; 3688527.2549664485 ; 7140.000000000001
31 ; 73747.14683099004 ; 130156.60796067168 ; 1595054.5432143963 ; 3817881.0192361935 ; 7378.000000000001
32 ; 74663.23487700778 ; 130987.02829436844 ; 1668801.6900453863 ; 3948037.627196865 ; 7616.000000000001
33 ; 75720.44625815641 ; 131843.87251535302 ; 1743464.924922394 ; 4079024.655491234 ; 7854.000000000001
34 ; 76911.05349925849 ; 132726.0131530035 ; 1819185.3711805504 ; 4210868.528006587 ; 8092.000000000001
35 ; 78032.93782802956 ; 133632.35085763515 ; 1896096.424679809 ; 4343594.541159591 ; 8330.000000000002
36 ; 78846.31756431627 ; 134561.8166607757 ; 1974129.3625078385 ; 4477226.892017226 ; 8568.000000000002
37 ; 80189.55594411034 ; 135513.37371208606 ; 2052975.6800721548 ; 4611788.708678002 ; 8806.000000000002
38 ; 81320.82033810338 ; 136486.01854641596 ; 2133165.236016265 ; 4747302.082390088 ; 9044.000000000002
39 ; 81981.87560948997 ; 137478.78193398332 ; 2214486.0563543686 ; 4883788.100936504 ; 9282.000000000002
40 ; 83167.29855117576 ; 138490.72936498004 ; 2296467.9319638587 ; 5021266.882870488 ; 9520.000000000002
41 ; 84512.3573854247 ; 139520.9612173384 ; 2379635.2305150344 ; 5159757.612235468 ; 9758.000000000002
42 ; 84889.96481271798 ; 140568.61265321248 ; 2464147.5879004593 ; 5299278.573452806 ; 9996.000000000002
43 ; 85940.90588803888 ; 141632.85328616994 ; 2549037.552713177 ; 5439847.186106019 ; 10234.000000000002
44 ; 86830.68482601759 ; 142712.88665732814 ; 2634978.458601216 ; 5581480.039392188 ; 10472.000000000002
45 ; 87681.01059205903 ; 143807.94955486144 ; 2721809.143427233 ; 5724192.926049517 ; 10710.000000000002
46 ; 88504.09932813195 ; 144917.31120755948 ; 2809490.1540192924 ; 5868000.875604378 ; 10948.000000000002
47 ; 89560.91783667542 ; 146040.27237951494 ; 2897994.2533474243 ; 6012918.186811938 ; 11186.000000000002
48 ; 90230.68300182968 ; 147176.16438962216 ; 2987555.1711840997 ; 6158958.459191453 ; 11424.000000000002
49 ; 91339.85512299999 ; 148324.34807641277 ; 3077785.8541859295 ; 6306134.623581075 ; 11662.000000000002
50 ; 92119.41766065909 ; 149484.21272585646 ; 3169125.7093089297 ; 6454458.971657488 ; 11900.000000000002
51 ; 92530.88499805868 ; 150655.17497713325 ; 3261245.126969589 ; 6603943.184383344 ; 12138.000000000002
52 ; 93545.96015003062 ; 151836.6777190253 ; 3353776.011967648 ; 6754598.359360477 ; 12376.000000000002
53 ; 94015.91454877709 ; 153028.18898747908 ; 3447321.9721176783 ; 6906435.037079502 ; 12614.000000000002
54 ; 94876.605039323 ; 154229.2008730384 ; 3541337.8866664553 ; 7059463.2260669805 ; 12852.000000000002
55 ; 95637.95514238061 ; 155439.22844522755 ; 3636214.4917057785 ; 7213692.426940019 ; 13090.000000000002
56 ; 95898.00270697672 ; 156657.80869955587 ; 3731852.446848159 ; 7369131.6553852465 ; 13328.000000000002
57 ; 97147.78592325585 ; 157884.49953159428 ; 3827750.449555136 ; 7525789.464084802 ; 13566.000000000002
58 ; 97549.42207341122 ; 159118.87874153478 ; 3924898.235478392 ; 7683673.963616396 ; 13804.000000000002
59 ; 97956.46438619957 ; 160360.54307175163 ; 4022447.657551803 ; 7842792.842357931 ; 14042.000000000002
60 ; 98304.60468761508 ; 161609.1072791327 ; 4120404.1219380028 ; 8003153.385429682 ; 14280.000000000002
61 ; 99278.56814962499 ; 162864.20324331676 ; 4218708.726625618 ; 8164762.492708815 ; 14518.000000000002
62 ; 99667.84868877732 ; 164125.47911144918 ; 4317987.294775243 ; 8327626.695952132 ; 14756.000000000002
63 ; 100316.55954997527 ; 165392.59847963136 ; 4417655.14346402 ; 8491752.175063582 ; 14994.000000000002
64 ; 100879.19695214802 ; 166665.2396108877 ; 4517971.703013996 ; 8657144.773543213 ; 15232.000000000002
65 ; 101489.6182933332 ; 167943.09468918666 ; 4618850.899966144 ; 8823810.0131541 ; 15470.000000000002
66 ; 101750.81721891029 ; 169225.86910882327 ; 4720340.518259477 ; 8991753.107843287 ; 15708.000000000002
67 ; 102721.5987388886 ; 170513.2807982943 ; 4822091.335478387 ; 9160978.976952111 ; 15946.000000000002
68 ; 102463.33014106206 ; 171805.05957766064 ; 4924812.934217275 ; 9331492.257750405 ; 16184.000000000002
69 ; 102930.80748323692 ; 173100.94654828895 ; 5027276.264358337 ; 9503297.317328066 ; 16422.000000000004
70 ; 103361.22782940308 ; 174400.6935137971 ; 5130207.071841574 ; 9676398.263876354 ; 16660.000000000004
71 ; 103989.4443770143 ; 175704.06243097718 ; 5233568.2996709775 ; 9850798.957390152 ; 16898.000000000004
72 ; 104121.20429733388 ; 177010.82488944725 ; 5337557.744047992 ; 1.002650301982113E7 ; 17136.000000000004
73 ; 104515.55006249285 ; 178320.76161877165 ; 5441678.948345326 ; 1.0203513844710577E7 ; 17374.000000000004
74 ; 104702.92718082461 ; 179633.66202179395 ; 5546194.498407818 ; 1.038183460632935E7 ; 17612.000000000004
75 ; 104690.75032811366 ; 180949.32373294124 ; 5650897.425588643 ; 1.0561468268351143E7 ; 17850.000000000004
76 ; 105298.90563619405 ; 182267.5522002829 ; 5755588.1759167565 ; 1.0742417592084084E7 ; 18088.000000000004
77 ; 105608.14517364877 ; 183588.1602901548 ; 5860887.081552951 ; 1.0924685144284366E7 ; 18326.000000000004
78 ; 105472.09823884914 ; 184910.9679131981 ; 5966495.226726599 ; 1.1108273304574521E7 ; 18564.000000000004
79 ; 105869.69692750482 ; 186235.80167069638 ; 6071967.324965448 ; 1.1293184272487719E7 ; 18802.000000000004
80 ; 106262.40519673232 ; 187562.4945201411 ; 6177837.021892953 ; 1.1479420074158415E7 ; 19040.000000000004
81 ; 106220.50731542053 ; 188890.88545899358 ; 6284099.427089685 ; 1.1666982568678556E7 ; 19278.000000000004
82 ; 106773.17539017387 ; 190220.81922565983 ; 6390319.934405105 ; 1.1855873454137549E7 ; 19516.000000000004
83 ; 106431.62597771433 ; 191552.14601673622 ; 6497093.109795279 ; 1.2046094273363208E7 ; 19754.000000000004
84 ; 106671.86692358543 ; 192884.7212196288 ; 6603524.735772993 ; 1.2237646419379944E7 ; 19992.000000000004
85 ; 106707.4625324644 ; 194218.40515969426 ; 6710196.602696579 ; 1.2430531140599573E7 ; 20230.000000000004
86 ; 106815.77730926851 ; 195553.06286109038 ; 6816904.065229043 ; 1.2624749545759268E7 ; 20468.000000000004
87 ; 106730.17717685243 ; 196888.5638205684 ; 6923719.842538312 ; 1.2820302608620359E7 ; 20706.000000000004
88 ; 106534.84333629035 ; 198224.78179347827 ; 7030450.019715165 ; 1.3017191172440927E7 ; 20944.000000000004
89 ; 106766.77123382219 ; 199561.59459129767 ; 7136984.8630514555 ; 1.3215415954234406E7 ; 21182.000000000004
90 ; 106536.60323900939 ; 200898.88389003283 ; 7243751.634285278 ; 1.3414977548825704E7 ; 21420.000000000004
91 ; 106753.56122846791 ; 202236.5350488747 ; 7350288.237524287 ; 1.3615876432715736E7 ; 21658.000000000004
92 ; 105759.19259295554 ; 203574.43693853036 ; 7457041.798752755 ; 1.381811296776461E7 ; 21896.000000000004
93 ; 106448.07574691424 ; 204912.48177867904 ; 7562800.99134571 ; 1.402168740470314E7 ; 22134.000000000004
94 ; 105848.22458500187 ; 206250.5649840364 ; 7669249.0670926245 ; 1.422659988648182E7 ; 22372.000000000004
95 ; 106416.04661080184 ; 207588.58501853893 ; 7775097.291677627 ; 1.4432850451465856E7 ; 22610.000000000004
96 ; 105882.80257967582 ; 208926.44325718834 ; 7881513.338288428 ; 1.4640439036484396E7 ; 22848.000000000004
97 ; 105451.59188775443 ; 210264.04385512313 ; 7987396.140868104 ; 1.4849365479741585E7 ; 23086.000000000004
98 ; 105272.32083230444 ; 211601.29362350912 ; 8092847.732755858 ; 1.5059629523596708E7 ; 23324.000000000004
99 ; 105447.25006424935 ; 212938.10191186453 ; 8198120.053588163 ; 1.5271230817220217E7 ; 23562.000000000004
100 ; 104673.299927822 ; 214274.3804964585 ; 8303567.303652412 ; 1.5484168919132082E7 ; 23800.000000000004
101 ; 104712.49964020851 ; 215610.0434744423 ; 8408240.603580235 ; 1.569844329962854E7 ; 24038.000000000004
102 ; 104398.55988935672 ; 216945.00716339212 ; 8512953.103220442 ; 1.5914053343102982E7 ; 24276.000000000004
103 ; 104808.33179441093 ; 218279.19000596265 ; 8617351.6631098 ; 1.6130998350266375E7 ; 24514.000000000004
104 ; 104012.71744114385 ; 219612.51247936694 ; 8722159.99490421 ; 1.6349277540272336E7 ; 24752.000000000004
105 ; 103818.60167854598 ; 220944.89700941535 ; 8826172.712345354 ; 1.6568890052751703E7 ; 24990.000000000004
106 ; 103275.67148762773 ; 222276.2678888622 ; 8929991.3140239 ; 1.678983494976112E7 ; 25228.000000000004
107 ; 102894.09360419413 ; 223606.55119982324 ; 9033266.985511528 ; 1.701211121764998E7 ; 25466.000000000004
108 ; 102413.81043302259 ; 224935.6747400406 ; 9136161.079115722 ; 1.7235717768849805E7 ; 25704.000000000004
109 ; 102510.83991897496 ; 226263.56795278596 ; 9238574.889548745 ; 1.7460653443589844E7 ; 25942.000000000004
110 ; 101585.82571354505 ; 227590.16186020416 ; 9341085.72946772 ; 1.768691701154263E7 ; 26180.000000000004
111 ; 101159.92422408808 ; 228915.3889999108 ; 9442671.555181265 ; 1.7914507173402835E7 ; 26418.000000000004
112 ; 100374.26064011386 ; 230239.1833646689 ; 9543831.479405353 ; 1.8143422562402744E7 ; 26656.000000000004
113 ; 100403.09954229638 ; 231561.4803449796 ; 9644205.740045467 ; 1.8373661745767415E7 ; 26894.000000000004
114 ; 99584.03185584836 ; 232882.21667443085 ; 9744608.839587763 ; 1.8605223226112396E7 ; 27132.000000000004
115 ; 99383.29995389562 ; 234201.33037765833 ; 9844192.87144361 ; 1.8838105442786828E7 ; 27370.000000000004
116 ; 98348.19366952818 ; 235518.76072077965 ; 9943576.171397507 ; 1.9072306773164485E7 ; 27608.000000000004
117 ; 98191.74568805433 ; 236834.44816417235 ; 1.0041924365067035E7 ; 1.9307825533885263E7 ; 27846.000000000004
118 ; 97396.76133125223 ; 238148.33431747206 ; 1.014011611075509E7 ; 1.9544659982049435E7 ; 28084.000000000004
119 ; 96600.13340491772 ; 239460.36189667633 ; 1.0237512872086342E7 ; 1.9782808316366907E7 ; 28322.000000000004
120 ; 96046.6171734942 ; 240770.4746832435 ; 1.033411300549126E7 ; 2.0022268678263582E7 ; 28560.000000000004
121 ; 95550.6340421417 ; 242078.6174850846 ; 1.0430159622664755E7 ; 2.0263039152946826E7 ; 28798.000000000004
122 ; 94977.59589997533 ; 243384.73609935088 ; 1.0525710256706897E7 ; 2.050511777043191E7 ; 29036.000000000004
123 ; 93700.77967501727 ; 244688.7772769247 ; 1.0620687852606872E7 ; 2.074850250653126E7 ; 29274.000000000004
124 ; 93527.09202587428 ; 245990.68868852782 ; 1.071438863228189E7 ; 2.0993191283808187E7 ; 29512.000000000004
125 ; 92721.4241862437 ; 247290.4188923649 ; 1.0807915724307764E7 ; 2.1239181972496714E7 ; 29750.000000000004
126 ; 92306.01647097922 ; 248587.91730322505 ; 1.0900637148494009E7 ; 2.148647239138908E7 ; 29988.000000000004
127 ; 91090.75956530133 ; 249883.1341629682 ; 1.0992943164964989E7 ; 2.1735060308692306E7 ; 30226.000000000004
128 ; 90454.18480534352 ; 251176.02051232778 ; 1.108403392453029E7 ; 2.1984943442855276E7 ; 30464.000000000004
129 ; 89191.25638315831 ; 252466.52816396428 ; 1.1174488109335633E7 ; 2.2236119463367604E7 ; 30702.000000000004
130 ; 88582.99366340836 ; 253754.6096767073 ; 1.1263679365718791E7 ; 2.248858599153157E7 ; 30940.000000000004
131 ; 88215.78134875472 ; 255040.2183309292 ; 1.13522623593822E7 ; 2.2742340601208277E7 ; 31178.000000000004
132 ; 86858.71648702794 ; 256323.30810499404 ; 1.1440478140730955E7 ; 2.2997380819539208E7 ; 31416.000000000004
133 ; 86108.13120690895 ; 257603.83365273 ; 1.1527336857217982E7 ; 2.3253704127644204E7 ; 31654.000000000004
134 ; 85329.54256474925 ; 258881.75028187563 ; 1.1613444988424892E7 ; 2.3511307961296935E7 ; 31892.000000000004
135 ; 84090.95961272025 ; 260157.0139334539 ; 1.1698774530989641E7 ; 2.377018971157881E7 ; 32130.000000000004
136 ; 83395.19843931234 ; 261429.5811620287 ; 1.1782865490602361E7 ; 2.4030346725512262E7 ; 32368.000000000004
137 ; 82177.31818567446 ; 262699.40911680245 ; 1.1866260689041674E7 ; 2.429177630667429E7 ; 32606.000000000004
138 ; 81227.03677564437 ; 263966.45552351495 ; 1.1948438007227348E7 ; 2.455447571579109E7 ; 32844.00000000001
139 ; 79614.45112899142 ; 265230.67866710614 ; 1.2029665044002993E7 ; 2.4818442171314605E7 ; 33082.00000000001
140 ; 78897.33130649781 ; 266492.0373751061 ; 1.2109279495131984E7 ; 2.508367284998171E7 ; 33320.00000000001
141 ; 78308.35181842472 ; 267750.49100171943 ; 1.2188176826438483E7 ; 2.5350164887356818E7 ; 33558.00000000001
142 ; 77264.21699353872 ; 269005.99941257114 ; 1.2266485178256908E7 ; 2.5617915378358535E7 ; 33796.00000000001
143 ; 75725.36400450282 ; 270258.52297008433 ; 1.2343749395250447E7 ; 2.5886921377771106E7 ; 34034.00000000001
144 ; 74839.33063886494 ; 271508.02251945995 ; 1.241947475925495E7 ; 2.615717990074119E7 ; 34272.00000000001
145 ; 74690.02990349286 ; 272754.4593752318 ; 1.2494314089893814E7 ; 2.642868792326065E7 ; 34510.00000000001
146 ; 74144.55147574609 ; 273997.79530836985 ; 1.2569004119797306E7 ; 2.6701442382635884E7 ; 34748.00000000001
147 ; 74447.37772394455 ; 275237.99253390846 ; 1.2643148671273053E7 ; 2.6975440177944254E7 ; 34986.00000000001
148 ; 74127.97520553351 ; 276475.01369907486 ; 1.2717596048996998E7 ; 2.725067817047816E7 ; 35224.00000000001
149 ; 73945.41622267166 ; 277708.82187189616 ; 1.2791724024202531E7 ; 2.7527153184177235E7 ; 35462.00000000001
150 ; 73308.31121194383 ; 278939.38053026254 ; 1.2865669440425202E7 ; 2.780486200604913E7 ; 35700.00000000001
151 ; 73079.64854937649 ; 280166.65355142864 ; 1.2938977751637146E7 ; 2.8083801386579394E7 ; 35938.00000000001
152 ; 73035.10087950205 ; 281390.60520193155 ; 1.3012057400186522E7 ; 2.8363968040130824E7 ; 36176.00000000001
153 ; 72522.15656781952 ; 282611.2001279085 ; 1.3085092501066023E7 ; 2.8645358645332754E7 ; 36414.00000000001
154 ; 72224.43020534172 ; 283828.4033457965 ; 1.3157614657633843E7 ; 2.892796984546066E7 ; 36652.00000000001
155 ; 71938.49331289146 ; 285042.18023339775 ; 1.3229839087839184E7 ; 2.9211798248806458E7 ; 36890.00000000001
156 ; 71734.20864904133 ; 286252.4965212943 ; 1.3301777581152076E7 ; 2.9496840429039855E7 ; 37128.00000000001
157 ; 71239.74313211729 ; 287459.3182845977 ; 1.3373511789801117E7 ; 2.978309292556115E7 ; 37366.00000000001
158 ; 70854.75735206655 ; 288662.61193501885 ; 1.3444751532933235E7 ; 3.0070552243845746E7 ; 37604.00000000001
159 ; 71098.01362571647 ; 289862.3442132454 ; 1.3515606290285302E7 ; 3.0359214855780765E7 ; 37842.00000000001
160 ; 70685.61845190066 ; 291058.482181612 ; 1.358670430391102E7 ; 3.064907719999401E7 ; 38080.00000000001
161 ; 70043.84893845506 ; 292250.9932170529 ; 1.365738992236292E7 ; 3.094013568217562E7 ; 38318.00000000001
162 ; 69790.63550643329 ; 293439.84500432404 ; 1.3727433771301376E7 ; 3.1232386675392672E7 ; 38556.00000000001
163 ; 69379.1174765628 ; 294625.00552948366 ; 1.3797224406807808E7 ; 3.1525826520396996E7 ; 38794.00000000001
164 ; 69346.24741567968 ; 295806.44307362085 ; 1.386660352428437E7 ; 3.182045152592648E7 ; 39032.00000000001
165 ; 68512.61140724082 ; 296984.1262068216 ; 1.393594977170005E7 ; 3.2116257969000097E7 ; 39270.00000000001
166 ; 68628.9405691778 ; 298158.02378236287 ; 1.4004462383107292E7 ; 3.241324209520692E7 ; 39508.00000000001
167 ; 68110.62528332672 ; 299328.1049311252 ; 1.4073091323676469E7 ; 3.271140011898928E7 ; 39746.00000000001
168 ; 67446.90142621886 ; 300494.339056215 ; 1.4141201948959796E7 ; 3.3010728223920405E7 ; 39984.00000000001
169 ; 67125.37239192335 ; 301656.695827788 ; 1.4208648850386014E7 ; 3.331122256297662E7 ; 40222.00000000001
170 ; 66820.01710778817 ; 302815.14517806587 ; 1.4275774222777938E7 ; 3.361287925880441E7 ; 40460.00000000001
171 ; 66466.96770647849 ; 303969.6572965383 ; 1.4342594239885727E7 ; 3.3915694403982475E7 ; 40698.00000000001
172 ; 66219.64654292839 ; 305120.2026253431 ; 1.4409061207592206E7 ; 3.4219664061279014E7 ; 40936.00000000001
173 ; 65680.64912353277 ; 306266.75185481715 ; 1.4475280854135135E7 ; 3.4524784263904355E7 ; 41174.00000000001
174 ; 65924.35722673485 ; 307409.2759192112 ; 1.4540961503258668E7 ; 3.483105101575917E7 ; 41412.00000000001
175 ; 66181.37894679834 ; 308547.7459925632 ; 1.4606885860485403E7 ; 3.5138460291678384E7 ; 41650.00000000001
176 ; 66564.4123552303 ; 309682.13348472246 ; 1.46730672394322E7 ; 3.544700803767095E7 ; 41888.00000000001
177 ; 66829.8305722757 ; 310812.41003751947 ; 1.4739631651787432E7 ; 3.575669017115567E7 ; 42126.00000000001
178 ; 66962.19400293249 ; 311938.5475210764 ; 1.4806461482359707E7 ; 3.606750258119319E7 ; 42364.00000000001
179 ; 67106.09775781236 ; 313060.5180302514 ; 1.487342367636264E7 ; 3.637944112871426E7 ; 42602.00000000001
180 ; 67106.50661393418 ; 314178.2938812125 ; 1.4940529774120452E7 ; 3.669250164674451E7 ; 42840.00000000001
181 ; 67254.34010354208 ; 315291.84760813625 ; 1.5007636280734386E7 ; 3.700667994062573E7 ; 43078.00000000001
