CSV File for the Network on Day 238
1 - Minute m 
2 - Power Consumed at minute m 
3 - Power Produced at minute m 
4 - Energy Consumed since the beginning of the day 
5 - Energy Produced since the beginning of the day 
6 - Energy Lost since the beginning of the day 
 
No Production city : 2, Producer : 1
No Production city : 4, Producer : 1
No Production city : 4, Producer : 1
 
0 ; 29088.496133527657 ; 94018.41264860454 ; 0.0 ; 0.0 ; 0.0
1 ; 30820.427345498923 ; 93259.12534560439 ; 29088.496133527657 ; 94018.41264860454 ; 238.00000000000003
2 ; 32723.60693140523 ; 92559.29849196374 ; 59908.92347902658 ; 187277.53799420892 ; 476.00000000000006
3 ; 33975.807707085405 ; 91924.31741699515 ; 92632.5304104318 ; 279836.83648617263 ; 714.0000000000001
4 ; 35590.24677475158 ; 91359.6365662254 ; 126608.33811751721 ; 371761.1539031678 ; 952.0000000000001
5 ; 36928.012742780185 ; 90870.62447015292 ; 162198.5848922688 ; 463120.7904693932 ; 1190.0000000000002
6 ; 39153.14273792003 ; 90462.37440291757 ; 199126.59763504897 ; 553991.4149395461 ; 1428.0000000000002
7 ; 40884.11446005425 ; 90139.48951484651 ; 238279.740372969 ; 644453.7893424637 ; 1666.0000000000002
8 ; 42117.22557383127 ; 89905.85800635793 ; 279163.8548330233 ; 734593.2788573102 ; 1904.0000000000002
9 ; 44063.61077942232 ; 89764.4398629856 ; 321281.0804068545 ; 824499.1368636681 ; 2142.0000000000005
10 ; 45513.503268106106 ; 89717.0898213624 ; 365344.69118627685 ; 914263.5767266537 ; 2380.0000000000005
11 ; 47205.59647004311 ; 89764.4398629856 ; 410858.19445438293 ; 1003980.6665480161 ; 2618.0000000000005
12 ; 47984.80921880865 ; 89905.85800635793 ; 458063.79092442605 ; 1093745.1064110016 ; 2856.0000000000005
13 ; 49888.90147831513 ; 90139.48951484651 ; 506048.6001432347 ; 1183650.9644173596 ; 3094.0000000000005
14 ; 51147.78372600262 ; 90462.37440291737 ; 555937.5016215498 ; 1273790.4539322061 ; 3332.0000000000005
15 ; 53162.88081594059 ; 90870.62447015292 ; 607085.2853475525 ; 1364252.8283351236 ; 3570.0000000000005
16 ; 54323.13327854431 ; 91359.6365662254 ; 660248.1661634931 ; 1455123.4528052765 ; 3808.0000000000005
17 ; 55186.90134926906 ; 91924.31741699496 ; 714571.2994420374 ; 1546483.089371502 ; 4046.0000000000005
18 ; 57309.379763420715 ; 92559.29849196374 ; 769758.2007913064 ; 1638407.406788497 ; 4284.000000000001
19 ; 57834.8585159322 ; 93259.1253456042 ; 827067.5805547271 ; 1730966.7052804607 ; 4522.000000000001
20 ; 59739.472475919785 ; 94018.41264860454 ; 884902.4390706593 ; 1824225.830626065 ; 4760.000000000001
21 ; 61162.700485057256 ; 94831.96218844027 ; 944641.9115465791 ; 1918244.2432746694 ; 4998.000000000001
22 ; 62323.71423884057 ; 95694.8456172369 ; 1005804.6120316363 ; 2013076.2054631098 ; 5236.000000000001
23 ; 63464.77035873731 ; 96602.45646801524 ; 1068128.326270477 ; 2108771.0510803466 ; 5474.000000000001
24 ; 64883.81963093003 ; 97550.53718524102 ; 1131593.0966292142 ; 2205373.507548362 ; 5712.000000000001
25 ; 66111.2758046081 ; 98535.18704384903 ; 1196476.9162601442 ; 2302924.044733603 ; 5950.000000000001
26 ; 67387.44921114057 ; 99552.85629278683 ; 1262588.1920647523 ; 2401459.231777452 ; 6188.000000000001
27 ; 68357.07960513984 ; 100600.33100209104 ; 1329975.641275893 ; 2501012.088070239 ; 6426.000000000001
28 ; 70227.33324168323 ; 101674.7121551305 ; 1398332.7208810328 ; 2601612.41907233 ; 6664.000000000001
29 ; 70600.07183766675 ; 102773.3916503633 ; 1468560.054122716 ; 2703287.1312274607 ; 6902.000000000001
30 ; 72137.00793108488 ; 103894.02712712016 ; 1539160.1259603826 ; 2806060.522877824 ; 7140.000000000001
31 ; 73378.80127955682 ; 105034.51692754368 ; 1611297.1338914675 ; 2909954.550004944 ; 7378.000000000001
32 ; 74009.24664988436 ; 106192.97604508637 ; 1684675.9351710244 ; 3014989.066932488 ; 7616.000000000001
33 ; 75127.06415117766 ; 107367.71356959527 ; 1758685.1818209088 ; 3121182.0429775743 ; 7854.000000000001
34 ; 76419.90946096118 ; 108557.21189681679 ; 1833812.2459720864 ; 3228549.7565471698 ; 8092.000000000001
35 ; 77224.40038130822 ; 109760.1078038431 ; 1910232.1554330476 ; 3337106.9684439865 ; 8330.000000000002
36 ; 78249.73106354894 ; 110975.17538233721 ; 1987456.5558143558 ; 3446867.0762478295 ; 8568.000000000002
37 ; 79495.73769644667 ; 112201.31075268376 ; 2065706.2868779048 ; 3557842.2516301665 ; 8806.000000000002
38 ; 80241.6439796444 ; 113437.51844241851 ; 2145202.0245743515 ; 3670043.5623828503 ; 9044.000000000002
39 ; 81333.51671025692 ; 114682.8992923014 ; 2225443.668553996 ; 3783481.0808252688 ; 9282.000000000002
40 ; 82104.27084591748 ; 115936.6397465867 ; 2306777.185264253 ; 3898163.98011757 ; 9520.000000000002
41 ; 82775.68384814942 ; 117198.00238566702 ; 2388881.4561101706 ; 4014100.619864157 ; 9758.000000000002
42 ; 84371.13252037628 ; 118466.31756601406 ; 2471657.13995832 ; 4131298.622249824 ; 9996.000000000002
43 ; 85099.01453378815 ; 119740.97604194567 ; 2556028.2724786964 ; 4249764.939815838 ; 10234.000000000002
44 ; 85850.0399352491 ; 121021.42245468413 ; 2641127.2870124844 ; 4369505.9158577835 ; 10472.000000000002
45 ; 86559.67555874164 ; 122307.1495854755 ; 2726977.3269477333 ; 4490527.338312468 ; 10710.000000000002
46 ; 87259.91921078625 ; 123597.69328057682 ; 2813537.002506475 ; 4612834.487897943 ; 10948.000000000002
47 ; 88270.85885753398 ; 124892.62796633938 ; 2900796.9217172614 ; 4736432.1811785195 ; 11186.000000000002
48 ; 88964.55372411308 ; 126191.56268222326 ; 2989067.7805747953 ; 4861324.809144859 ; 11424.000000000002
49 ; 90022.64167810587 ; 127494.13756829596 ; 3078032.3342989082 ; 4987516.371827083 ; 11662.000000000002
50 ; 90152.02328411375 ; 128800.02075157894 ; 3168054.9759770143 ; 5115010.509395379 ; 11900.000000000002
51 ; 91960.08201248119 ; 130108.90558254451 ; 3258206.9992611283 ; 5243810.530146957 ; 12138.000000000002
52 ; 92264.31816746986 ; 131420.50817919965 ; 3350167.0812736093 ; 5373919.435729502 ; 12376.000000000002
53 ; 92479.66598844017 ; 132734.56524157006 ; 3442431.3994410792 ; 5505339.943908702 ; 12614.000000000002
54 ; 93216.76056569359 ; 134050.83210411528 ; 3534911.0654295194 ; 5638074.509150271 ; 12852.000000000002
55 ; 94280.22003056572 ; 135369.0809977194 ; 3628127.825995213 ; 5772125.341254387 ; 13090.000000000002
56 ; 94847.20325071189 ; 136689.09949648936 ; 3722408.0460257786 ; 5907494.4222521065 ; 13328.000000000002
57 ; 95453.89180130926 ; 138010.68912771283 ; 3817255.2492764904 ; 6044183.521748596 ; 13566.000000000002
58 ; 96046.09952921353 ; 139333.6641260473 ; 3912709.1410777997 ; 6182194.210876308 ; 13804.000000000002
59 ; 96388.13526528359 ; 140657.8503153707 ; 4008755.2406070135 ; 6321527.875002355 ; 14042.000000000002
60 ; 96631.43893410842 ; 141983.0841037779 ; 4105143.375872297 ; 6462185.725317726 ; 14280.000000000002
61 ; 97801.0235351393 ; 143309.21157899394 ; 4201774.814806405 ; 6604168.809421504 ; 14518.000000000002
62 ; 98121.3086211969 ; 144636.08769302847 ; 4299575.838341544 ; 6747478.021000498 ; 14756.000000000002
63 ; 98758.43158604867 ; 145963.57552624837 ; 4397697.146962741 ; 6892114.108693526 ; 14994.000000000002
64 ; 99074.11197689589 ; 147291.54562222338 ; 4496455.57854879 ; 7038077.684219775 ; 15232.000000000002
65 ; 99839.83327605695 ; 148619.87538572948 ; 4595529.690525685 ; 7185369.229841998 ; 15470.000000000002
66 ; 99838.64639811026 ; 149948.448537189 ; 4695369.523801742 ; 7333989.105227727 ; 15708.000000000002
67 ; 100334.20426257479 ; 151277.1546176113 ; 4795208.170199852 ; 7483937.553764916 ; 15946.000000000002
68 ; 100580.22056571016 ; 152605.8885387845 ; 4895542.374462428 ; 7635214.708382527 ; 16184.000000000002
69 ; 101302.91173528072 ; 153934.55017406598 ; 4996122.595028138 ; 7787820.596921312 ; 16422.000000000004
70 ; 101530.25104004257 ; 155263.0439856484 ; 5097425.506763418 ; 7941755.147095378 ; 16660.000000000004
71 ; 101538.8185592486 ; 156591.27868463847 ; 5198955.757803461 ; 8097018.191081026 ; 16898.000000000004
72 ; 101949.41387020327 ; 157919.16692069103 ; 5300494.5763627095 ; 8253609.469765664 ; 17136.000000000004
73 ; 102826.3905095569 ; 159246.62499829964 ; 5402443.990232913 ; 8411528.636686355 ; 17374.000000000004
74 ; 103179.79942582414 ; 160573.57261715762 ; 5505270.38074247 ; 8570775.261684654 ; 17612.000000000004
75 ; 103202.3113676164 ; 161899.93263428297 ; 5608450.180168294 ; 8731348.834301813 ; 17850.000000000004
76 ; 103669.83896603757 ; 163225.63084584332 ; 5711652.49153591 ; 8893248.766936095 ; 18088.000000000004
77 ; 103401.85951175631 ; 164550.59578683626 ; 5815322.330501948 ; 9056474.397781938 ; 18326.000000000004
78 ; 103456.47010497953 ; 165874.758546971 ; 5918724.190013704 ; 9221024.993568774 ; 18564.000000000004
79 ; 103985.37622150143 ; 167198.0526012665 ; 6022180.660118683 ; 9386899.752115745 ; 18802.000000000004
80 ; 103859.13719361581 ; 168520.41365403516 ; 6126166.0363401845 ; 9554097.804717012 ; 19040.000000000004
81 ; 104602.32133371256 ; 169841.77949505133 ; 6230025.1735338 ; 9722618.218371047 ; 19278.000000000004
82 ; 104617.687575013 ; 171162.08986682797 ; 6334627.494867513 ; 9892459.997866098 ; 19516.000000000004
83 ; 104272.44568350971 ; 172481.28634202646 ; 6439245.182442526 ; 1.0063622087732926E7 ; 19754.000000000004
84 ; 104773.33638120693 ; 173799.31221012352 ; 6543517.628126036 ; 1.0236103374074953E7 ; 19992.000000000004
85 ; 104866.18864965453 ; 175116.1123725412 ; 6648290.964507244 ; 1.0409902686285077E7 ; 20230.000000000004
86 ; 105003.8377178094 ; 176431.63324552317 ; 6753157.153156898 ; 1.0585018798657618E7 ; 20468.000000000004
87 ; 104912.35271690479 ; 177745.82267010742 ; 6858160.990874708 ; 1.0761450431903142E7 ; 20706.000000000004
88 ; 104925.69049818304 ; 179058.62982860752 ; 6963073.343591613 ; 1.093919625457325E7 ; 20944.000000000004
89 ; 104452.66060771151 ; 180370.0051670674 ; 7067999.034089796 ; 1.1118254884401858E7 ; 21182.000000000004
90 ; 105148.06706475724 ; 181679.90032320542 ; 7172451.694697508 ; 1.1298624889568925E7 ; 21420.000000000004
91 ; 105091.8397351295 ; 182988.26805940576 ; 7277599.761762265 ; 1.148030478989213E7 ; 21658.000000000004
92 ; 104763.55536224529 ; 184295.06220035683 ; 7382691.601497395 ; 1.1663293057951536E7 ; 21896.000000000004
93 ; 104694.16142742662 ; 185600.23757496956 ; 7487455.15685964 ; 1.1847588120151892E7 ; 22134.000000000004
94 ; 104317.08187237423 ; 186903.74996224348 ; 7592149.318287067 ; 1.2033188357726863E7 ; 22372.000000000004
95 ; 104011.3642807538 ; 188205.55604077532 ; 7696466.400159441 ; 1.2220092107689107E7 ; 22610.000000000004
96 ; 104066.36587958847 ; 189505.61334163212 ; 7800477.764440195 ; 1.2408297663729882E7 ; 22848.000000000004
97 ; 104134.22022406098 ; 190803.88020433506 ; 7904544.130319783 ; 1.2597803277071513E7 ; 23086.000000000004
98 ; 104174.15815265678 ; 192100.3157357203 ; 8008678.3505438445 ; 1.2788607157275848E7 ; 23324.000000000004
99 ; 103436.35754732345 ; 193394.87977146456 ; 8112852.508696501 ; 1.2980707473011568E7 ; 23562.000000000004
100 ; 103329.48046053888 ; 194687.53284007942 ; 8216288.866243824 ; 1.3174102352783034E7 ; 23800.000000000004
101 ; 103329.18785020825 ; 195978.23612919464 ; 8319618.346704363 ; 1.3368789885623112E7 ; 24038.000000000004
102 ; 103332.37368415087 ; 197266.95145396653 ; 8422947.53455457 ; 1.3564768121752307E7 ; 24276.000000000004
103 ; 102899.98083810366 ; 198553.6412274591 ; 8526279.908238722 ; 1.3762035073206274E7 ; 24514.000000000004
104 ; 102075.18028506661 ; 199838.2684328589 ; 8629179.889076825 ; 1.3960588714433733E7 ; 24752.000000000004
105 ; 102120.98264645501 ; 201120.7965973953 ; 8731255.069361892 ; 1.4160426982866593E7 ; 24990.000000000004
106 ; 102109.5357639902 ; 202401.1897678482 ; 8833376.052008346 ; 1.4361547779463988E7 ; 25228.000000000004
107 ; 101255.99370142398 ; 203679.41248753373 ; 8935485.587772336 ; 1.4563948969231836E7 ; 25466.000000000004
108 ; 101014.34042115361 ; 204955.4297746674 ; 9036741.58147376 ; 1.476762838171937E7 ; 25704.000000000004
109 ; 100783.19175130133 ; 206229.20710201198 ; 9137755.921894914 ; 1.4972583811494038E7 ; 25942.000000000004
110 ; 100200.60604395461 ; 207500.7103777243 ; 9238539.113646215 ; 1.517881301859605E7 ; 26180.000000000004
111 ; 100150.21011789767 ; 208769.90592732144 ; 9338739.71969017 ; 1.5386313728973774E7 ; 26418.000000000004
112 ; 99280.23587426453 ; 210036.7604766925 ; 9438889.929808067 ; 1.5595083634901095E7 ; 26656.000000000004
113 ; 98718.27366797849 ; 211301.24113608847 ; 9538170.165682333 ; 1.5805120395377787E7 ; 26894.000000000004
114 ; 98665.07260651379 ; 212563.31538502665 ; 9636888.43935031 ; 1.6016421636513876E7 ; 27132.000000000004
115 ; 98212.9860706969 ; 213822.9510580514 ; 9735553.511956824 ; 1.6228984951898903E7 ; 27370.000000000004
116 ; 97611.91816411367 ; 215080.11633129636 ; 9833766.49802752 ; 1.6442807902956953E7 ; 27608.000000000004
117 ; 97142.64237480739 ; 216334.779709799 ; 9931378.416191634 ; 1.665788801928825E7 ; 27846.000000000004
118 ; 96086.41942941365 ; 217586.91001551875 ; 1.0028521058566442E7 ; 1.6874222798998047E7 ; 28084.000000000004
119 ; 96128.70469292405 ; 218836.47637601683 ; 1.0124607477995856E7 ; 1.7091809709013566E7 ; 28322.000000000004
120 ; 95513.59350175319 ; 220083.44821375623 ; 1.022073618268878E7 ; 1.7310646185389582E7 ; 28560.000000000004
121 ; 95017.8898110463 ; 221327.7952359847 ; 1.0316249776190534E7 ; 1.753072963360334E7 ; 28798.000000000004
122 ; 94018.00274654602 ; 222569.48742516522 ; 1.041126766600158E7 ; 1.7752057428839322E7 ; 29036.000000000004
123 ; 93606.15631540735 ; 223808.49502992097 ; 1.0505285668748127E7 ; 1.7974626916264486E7 ; 29274.000000000004
124 ; 92875.22645723003 ; 225044.78855646486 ; 1.0598891825063534E7 ; 1.819843541129441E7 ; 29512.000000000004
125 ; 92146.24176910633 ; 226278.33876048503 ; 1.0691767051520765E7 ; 1.8423480199850872E7 ; 29750.000000000004
126 ; 91039.54038247738 ; 227509.11663945855 ; 1.0783913293289872E7 ; 1.8649758538611356E7 ; 29988.000000000004
127 ; 90294.2705968661 ; 228737.09342537032 ; 1.0874952833672348E7 ; 1.8877267655250814E7 ; 30226.000000000004
128 ; 89752.85881886145 ; 229962.2405778121 ; 1.0965247104269214E7 ; 1.9106004748676185E7 ; 30464.000000000004
129 ; 88838.04426721795 ; 231184.52977744144 ; 1.1054999963088075E7 ; 1.9335966989253998E7 ; 30702.000000000004
130 ; 88319.40324517572 ; 232403.93291977872 ; 1.1143838007355293E7 ; 1.956715151903144E7 ; 30940.000000000004
131 ; 87162.38455348542 ; 233620.4221093244 ; 1.1232157410600469E7 ; 1.9799555451951217E7 ; 31178.000000000004
132 ; 86666.93219368492 ; 234833.96965397822 ; 1.1319319795153953E7 ; 2.003317587406054E7 ; 31416.000000000004
133 ; 85718.74494387071 ; 236044.54805974322 ; 1.1405986727347638E7 ; 2.026800984371452E7 ; 31654.000000000004
134 ; 84564.11076585873 ; 237252.13002569965 ; 1.1491705472291509E7 ; 2.0504054391774263E7 ; 31892.000000000004
135 ; 83594.63606779333 ; 238456.68843923326 ; 1.1576269583057368E7 ; 2.0741306521799963E7 ; 32130.000000000004
136 ; 82895.7756294107 ; 239658.19637150512 ; 1.1659864219125161E7 ; 2.0979763210239198E7 ; 32368.000000000004
137 ; 82154.1153696882 ; 240856.6270731486 ; 1.1742759994754571E7 ; 2.1219421406610705E7 ; 32606.000000000004
138 ; 80763.63303136665 ; 242051.95397018283 ; 1.182491411012426E7 ; 2.1460278033683855E7 ; 32844.00000000001
139 ; 80010.49091889152 ; 243244.15066013046 ; 1.1905677743155627E7 ; 2.1702329987654038E7 ; 33082.00000000001
140 ; 79227.44746445896 ; 244433.19090832843 ; 1.1985688234074518E7 ; 2.194557413831417E7 ; 33320.00000000001
141 ; 78345.53255540648 ; 245619.04864442264 ; 1.2064915681538977E7 ; 2.2190007329222497E7 ; 33558.00000000001
142 ; 76991.35485157795 ; 246801.69795903625 ; 1.2143261214094384E7 ; 2.243562637786692E7 ; 33796.00000000001
143 ; 75988.73203030623 ; 247981.11310060348 ; 1.2220252568945961E7 ; 2.2682428075825956E7 ; 34034.00000000001
144 ; 74845.27467005294 ; 249157.26847235867 ; 1.2296241300976267E7 ; 2.293040918892656E7 ; 34272.00000000001
145 ; 74498.5709514443 ; 250330.13862947506 ; 1.237108657564632E7 ; 2.3179566457398918E7 ; 34510.00000000001
146 ; 74246.21819719585 ; 251499.6982763435 ; 1.2445585146597765E7 ; 2.342989659602839E7 ; 34748.00000000001
147 ; 74231.37537294003 ; 252665.9222639857 ; 1.2519831364794962E7 ; 2.3681396294304736E7 ; 34986.00000000001
148 ; 73852.81713044726 ; 253828.78558759418 ; 1.2594062740167903E7 ; 2.3934062216568723E7 ; 35224.00000000001
149 ; 74151.84478975047 ; 254988.2633841934 ; 1.266791555729835E7 ; 2.4187891002156317E7 ; 35462.00000000001
150 ; 73222.6555477034 ; 256144.33093041522 ; 1.27420674020881E7 ; 2.444287926554051E7 ; 35700.00000000001
151 ; 73215.45969853467 ; 257296.96364038435 ; 1.2815290057635803E7 ; 2.4699023596470926E7 ; 35938.00000000001
152 ; 73659.71426194624 ; 258446.1370637068 ; 1.2888505517334338E7 ; 2.495632056011131E7 ; 36176.00000000001
153 ; 72746.72460145998 ; 259591.82688355786 ; 1.2962165231596284E7 ; 2.521476669717502E7 ; 36414.00000000001
154 ; 72827.98675113075 ; 260734.00891486372 ; 1.3034911956197744E7 ; 2.5474358524058577E7 ; 36652.00000000001
155 ; 72020.8568245315 ; 261872.65910257303 ; 1.3107739942948874E7 ; 2.5735092532973442E7 ; 36890.00000000001
156 ; 72108.35173703717 ; 263007.7535200134 ; 1.3179760799773406E7 ; 2.5996965192076016E7 ; 37128.00000000001
157 ; 72006.482548318 ; 264139.2683673292 ; 1.3251869151510444E7 ; 2.6259972945596028E7 ; 37366.00000000001
158 ; 71245.04370227945 ; 265267.17996999715 ; 1.3323875634058762E7 ; 2.6524112213963356E7 ; 37604.00000000001
159 ; 71230.27562647787 ; 266391.4647774151 ; 1.3395120677761042E7 ; 2.6789379393933352E7 ; 37842.00000000001
160 ; 71224.67637344703 ; 267512.0993615616 ; 1.3466350953387521E7 ; 2.7055770858710766E7 ; 38080.00000000001
161 ; 70583.54108676013 ; 268629.06041572243 ; 1.3537575629760968E7 ; 2.7323282958072327E7 ; 38318.00000000001
162 ; 70364.45498175462 ; 269742.324753281 ; 1.3608159170847727E7 ; 2.759191201848805E7 ; 38556.00000000001
163 ; 70510.66809046276 ; 270851.86930657004 ; 1.3678523625829482E7 ; 2.786165434324133E7 ; 38794.00000000001
164 ; 69596.415948668 ; 271957.6711257811 ; 1.3749034293919945E7 ; 2.8132506212547902E7 ; 39032.00000000001
165 ; 69196.39980027417 ; 273059.70737792994 ; 1.3818630709868614E7 ; 2.8404463883673683E7 ; 39270.00000000001
166 ; 69235.62905584477 ; 274157.95534587547 ; 1.3887827109668888E7 ; 2.8677523591051612E7 ; 39508.00000000001
167 ; 68180.32736541126 ; 275252.3924273884 ; 1.3957062738724733E7 ; 2.895168154639749E7 ; 39746.00000000001
168 ; 68167.60460088363 ; 276342.996134269 ; 1.4025243066090144E7 ; 2.9226933938824877E7 ; 39984.00000000001
169 ; 67815.4375333539 ; 277429.7440915109 ; 1.4093410670691028E7 ; 2.9503276934959147E7 ; 40222.00000000001
170 ; 67420.71328767185 ; 278512.6140365091 ; 1.4161226108224383E7 ; 2.9780706679050658E7 ; 40460.00000000001
171 ; 67297.53113772153 ; 279591.5838183107 ; 1.4228646821512055E7 ; 3.0059219293087166E7 ; 40698.00000000001
172 ; 67014.52605021145 ; 280666.63139690476 ; 1.4295944352649776E7 ; 3.0338810876905475E7 ; 40936.00000000001
173 ; 66226.85568876727 ; 281737.73484255234 ; 1.4362958878699988E7 ; 3.061947750830238E7 ; 41174.00000000001
174 ; 66365.52816023957 ; 282804.87233515235 ; 1.4429185734388756E7 ; 3.0901215243144933E7 ; 41412.00000000001
175 ; 66445.68849103418 ; 283868.02216364327 ; 1.4495551262548994E7 ; 3.1184020115480084E7 ; 41650.00000000001
176 ; 67049.04027348255 ; 284927.1627254383 ; 1.4561996951040028E7 ; 3.146788813764373E7 ; 41888.00000000001
177 ; 67112.60534996977 ; 285982.2725258931 ; 1.462904599131351E7 ; 3.1752815300369166E7 ; 42126.00000000001
178 ; 67788.23546950814 ; 287033.3301778045 ; 1.4696158596663479E7 ; 3.2038797572895057E7 ; 42364.00000000001
179 ; 67472.45599009442 ; 288080.3144009385 ; 1.4763946832132988E7 ; 3.2325830903072864E7 ; 42602.00000000001
180 ; 67587.88181269319 ; 289123.2040215871 ; 1.4831419288123082E7 ; 3.26139112174738E7 ; 42840.00000000001
181 ; 67866.19837137543 ; 290161.97797215136 ; 1.4899007169935776E7 ; 3.290303442149539E7 ; 43078.00000000001
182 ; 68404.21803433064 ; 291196.61529075174 ; 1.496687336830715E7 ; 3.319319639946754E7 ; 43316.00000000001
