CSV File for the Network on Day 140
1 - Minute m 
2 - Power Consumed at minute m 
3 - Power Produced at minute m 
4 - Energy Consumed since the beginning of the day 
5 - Energy Produced since the beginning of the day 
6 - Energy Lost since the beginning of the day 
 
No Production city : 2, Producer : 1
No Production city : 4, Producer : 1
No Production city : 4, Producer : 1
 
0 ; 52692.451500128154 ; 167863.6426832245 ; 0.0 ; 0.0 ; 0.0
1 ; 53805.90123016178 ; 167522.56042551514 ; 52692.451500128154 ; 167863.6426832245 ; 238.00000000000003
2 ; 54683.24966178465 ; 167216.31115975103 ; 106498.35273028993 ; 335386.20310873963 ; 476.00000000000006
3 ; 55907.36013836099 ; 166945.2438357949 ; 161181.6023920746 ; 502602.51426849066 ; 714.0000000000001
4 ; 57233.08864334449 ; 166709.67089054856 ; 217088.9625304356 ; 669547.7581042856 ; 952.0000000000001
5 ; 58775.096151326405 ; 166509.8666132764 ; 274322.05117378006 ; 836257.4289948342 ; 1190.0000000000002
6 ; 59941.044072144374 ; 166346.0656846921 ; 333097.14732510643 ; 1002767.2956081106 ; 1428.0000000000002
7 ; 60379.71590031385 ; 166218.4619077488 ; 393038.1913972508 ; 1169113.3612928027 ; 1666.0000000000002
8 ; 61807.122417342965 ; 166127.20714606487 ; 453417.90729756467 ; 1335331.8232005516 ; 1904.0000000000002
9 ; 62930.73485269324 ; 166072.41048355115 ; 515225.02971490764 ; 1501459.0303466164 ; 2142.0000000000005
10 ; 63873.579040714474 ; 166054.13761613466 ; 578155.7645676009 ; 1667531.4408301676 ; 2380.0000000000005
11 ; 64922.17933558804 ; 166072.41048355115 ; 642029.3436083153 ; 1833585.5784463023 ; 2618.0000000000005
12 ; 66358.80299425877 ; 166127.20714606487 ; 706951.5229439033 ; 1999657.9889298535 ; 2856.0000000000005
13 ; 67185.78507579985 ; 166218.4619077488 ; 773310.3259381622 ; 2165785.1960759186 ; 3094.0000000000005
14 ; 67856.58111193684 ; 166346.0656846921 ; 840496.111013962 ; 2332003.657983667 ; 3332.0000000000005
15 ; 69553.13664940401 ; 166509.8666132764 ; 908352.6921258988 ; 2498349.723668359 ; 3570.0000000000005
16 ; 69958.69821109394 ; 166709.67089054856 ; 977905.8287753027 ; 2664859.5902816355 ; 3808.0000000000005
17 ; 71141.60372499547 ; 166945.24383579483 ; 1047864.5269863966 ; 2831569.2611721843 ; 4046.0000000000005
18 ; 72508.06080896212 ; 167216.31115975103 ; 1119006.130711392 ; 2998514.505007979 ; 4284.000000000001
19 ; 73164.27332560036 ; 167522.56042551505 ; 1191514.1915203542 ; 3165730.81616773 ; 4522.000000000001
20 ; 74227.65440960837 ; 167863.6426832245 ; 1264678.4648459547 ; 3333253.376593245 ; 4760.000000000001
21 ; 74350.6456259996 ; 168239.17425893492 ; 1338906.119255563 ; 3501117.0192764695 ; 4998.000000000001
22 ; 75119.70779197932 ; 168648.73867691949 ; 1413256.7648815627 ; 3669356.1935354043 ; 5236.000000000001
23 ; 76077.58334668196 ; 169091.88869381236 ; 1488376.472673542 ; 3838004.932212324 ; 5474.000000000001
24 ; 77514.00568025518 ; 169568.14842262305 ; 1564454.056020224 ; 4007096.820906136 ; 5712.000000000001
25 ; 78550.34126228388 ; 170077.01552465642 ; 1641968.0617004791 ; 4176664.9693287592 ; 5950.000000000001
26 ; 78889.00005466229 ; 170617.96344774254 ; 1720518.402962763 ; 4346741.984853416 ; 6188.000000000001
27 ; 79946.69090713433 ; 171190.44368988668 ; 1799407.4030174254 ; 4517359.948301158 ; 6426.000000000001
28 ; 80388.14342616707 ; 171793.8880684501 ; 1879354.0939245597 ; 4688550.391991044 ; 6664.000000000001
29 ; 81531.0558486176 ; 172427.71097621924 ; 1959742.2373507267 ; 4860344.280059494 ; 6902.000000000001
30 ; 82111.09080696144 ; 173091.31160717222 ; 2041273.2931993443 ; 5032771.991035713 ; 7140.000000000001
31 ; 83020.17197768371 ; 173784.07613635244 ; 2123384.3840063056 ; 5205863.302642885 ; 7378.000000000001
32 ; 83801.0349209194 ; 174505.3798399699 ; 2206404.5559839895 ; 5379647.378779237 ; 7616.000000000001
33 ; 84083.13838460717 ; 175254.58914361897 ; 2290205.5909049087 ; 5554152.758619207 ; 7854.000000000001
34 ; 85207.1448381398 ; 176031.06358829341 ; 2374288.729289516 ; 5729407.347762826 ; 8092.000000000001
35 ; 85941.98087540825 ; 176834.15770564784 ; 2459495.8741276558 ; 5905438.411351119 ; 8330.000000000002
36 ; 86274.00217131637 ; 177663.222795683 ; 2545437.855003064 ; 6082272.569056767 ; 8568.000000000002
37 ; 87253.35769662619 ; 178517.60860167083 ; 2631711.85717438 ; 6259935.79185245 ; 8806.000000000002
38 ; 88398.919343884 ; 179396.66487868936 ; 2718965.2148710066 ; 6438453.400454121 ; 9044.000000000002
39 ; 88377.75610481124 ; 180299.74285356302 ; 2807364.1342148907 ; 6617850.06533281 ; 9282.000000000002
40 ; 89414.66829604743 ; 181226.19657531244 ; 2895741.8903197017 ; 6798149.808186374 ; 9520.000000000002
41 ; 89594.68711538432 ; 182175.38415638555 ; 2985156.5586157492 ; 6979376.004761687 ; 9758.000000000002
42 ; 90020.8837590261 ; 183146.66890597448 ; 3074751.2457311335 ; 7161551.388918072 ; 9996.000000000002
43 ; 91224.74701700313 ; 184139.42035761802 ; 3164772.1294901595 ; 7344698.057824046 ; 10234.000000000002
44 ; 91638.1635657871 ; 185153.01519404745 ; 3255996.8765071626 ; 7528837.478181664 ; 10472.000000000002
45 ; 92446.29570960256 ; 186186.83807286766 ; 3347635.0400729496 ; 7713990.493375711 ; 10710.000000000002
46 ; 92518.81161097481 ; 187240.28235717004 ; 3440081.335782552 ; 7900177.331448579 ; 10948.000000000002
47 ; 93354.23019394153 ; 188312.75075557653 ; 3532600.147393527 ; 8087417.613805749 ; 11186.000000000002
48 ; 93947.64472230116 ; 189403.65587649893 ; 3625954.3775874684 ; 8275730.364561326 ; 11424.000000000002
49 ; 94100.74316174613 ; 190512.4207016047 ; 3719902.0223097694 ; 8465134.020437825 ; 11662.000000000002
50 ; 94901.28500241287 ; 191638.4789835917 ; 3814002.7654715157 ; 8655646.44113943 ; 11900.000000000002
51 ; 94797.27137340205 ; 192781.27557342063 ; 3908904.0504739285 ; 8847284.920123022 ; 12138.000000000002
52 ; 96360.75055497445 ; 193940.26668213477 ; 4003701.3218473303 ; 9040066.195696443 ; 12376.000000000002
53 ; 96284.06622847622 ; 195114.92008232255 ; 4100062.072402305 ; 9234006.462378578 ; 12614.000000000002
54 ; 96808.78801273703 ; 196304.71525416436 ; 4196346.138630781 ; 9429121.382460902 ; 12852.000000000002
55 ; 97188.88524457386 ; 197509.14348085035 ; 4293154.926643519 ; 9625426.097715067 ; 13090.000000000002
56 ; 97518.43599135464 ; 198727.70789797412 ; 4390343.811888092 ; 9822935.241195917 ; 13328.000000000002
57 ; 97982.43895715245 ; 199959.9235013049 ; 4487862.2478794465 ; 1.0021662949093891E7 ; 13566.000000000002
58 ; 98182.7581190833 ; 201205.317117119 ; 4585844.686836599 ; 1.0221622872595197E7 ; 13804.000000000002
59 ; 98347.48022693292 ; 202463.4273390426 ; 4684027.444955682 ; 1.0422828189712316E7 ; 14042.000000000002
60 ; 99558.67077256243 ; 203733.80443511976 ; 4782374.925182615 ; 1.062529161705136E7 ; 14280.000000000002
61 ; 99313.1282446893 ; 205016.0102285804 ; 4881933.595955178 ; 1.0829025421486478E7 ; 14518.000000000002
62 ; 99492.76907048174 ; 206309.6179555434 ; 4981246.724199868 ; 1.1034041431715058E7 ; 14756.000000000002
63 ; 99933.39488091288 ; 207614.21210265812 ; 5080739.49327035 ; 1.1240351049670601E7 ; 14994.000000000002
64 ; 100219.10804321384 ; 208929.3882274516 ; 5180672.888151263 ; 1.1447965261773258E7 ; 15232.000000000002
65 ; 100480.24678279304 ; 210254.75276393513 ; 5280891.996194476 ; 1.165689465000071E7 ; 15470.000000000002
66 ; 100770.30143538737 ; 211589.9228158022 ; 5381372.242977269 ; 1.1867149402764644E7 ; 15708.000000000002
67 ; 101334.04178572533 ; 212934.52593935095 ; 5482142.544412657 ; 1.2078739325580446E7 ; 15946.000000000002
68 ; 101931.40145295805 ; 214288.19991807124 ; 5583476.586198382 ; 1.2291673851519797E7 ; 16184.000000000002
69 ; 101497.13290491208 ; 215650.59253064924 ; 5685407.98765134 ; 1.2505962051437868E7 ; 16422.000000000004
70 ; 101435.93364484876 ; 217021.36131397748 ; 5786905.120556252 ; 1.2721612643968517E7 ; 16660.000000000004
71 ; 101759.00046491597 ; 218400.17332259277 ; 5888341.054201101 ; 1.2938634005282495E7 ; 16898.000000000004
72 ; 101922.78126756835 ; 219786.7048858171 ; 5990100.054666017 ; 1.3157034178605087E7 ; 17136.000000000004
73 ; 101610.86934607156 ; 221180.6413637391 ; 6092022.835933586 ; 1.3376820883490903E7 ; 17374.000000000004
74 ; 102618.81522513507 ; 222581.6769030436 ; 6193633.705279658 ; 1.3598001524854643E7 ; 17612.000000000004
75 ; 102514.01949940031 ; 223989.51419357955 ; 6296252.520504793 ; 1.3820583201757686E7 ; 17850.000000000004
76 ; 102135.8049349802 ; 225403.8642264488 ; 6398766.540004194 ; 1.4044572715951266E7 ; 18088.000000000004
77 ; 102760.07200168849 ; 226824.4460542979 ; 6500902.344939174 ; 1.4269976580177715E7 ; 18326.000000000004
78 ; 102597.03835392652 ; 228250.98655440635 ; 6603662.416940862 ; 1.4496801026232013E7 ; 18564.000000000004
79 ; 103344.54003846516 ; 229683.2201950789 ; 6706259.455294789 ; 1.472505201278642E7 ; 18802.000000000004
80 ; 103164.31190221118 ; 231120.88880577928 ; 6809603.995333254 ; 1.49547352329815E7 ; 19040.000000000004
81 ; 103194.34753712753 ; 232563.74135137076 ; 6912768.307235465 ; 1.5185856121787278E7 ; 19278.000000000004
82 ; 103427.56982783081 ; 234011.53371077127 ; 7015962.654772593 ; 1.541841986313865E7 ; 19516.000000000004
83 ; 103415.03675864419 ; 235464.02846027334 ; 7119390.224600423 ; 1.5652431396849422E7 ; 19754.000000000004
84 ; 103016.80214982927 ; 236920.9946617315 ; 7222805.261359068 ; 1.5887895425309695E7 ; 19992.000000000004
85 ; 103360.79000857346 ; 238382.20765577556 ; 7325822.063508897 ; 1.6124816419971427E7 ; 20230.000000000004
86 ; 103087.38890892926 ; 239847.44886016808 ; 7429182.853517471 ; 1.6363198627627203E7 ; 20468.000000000004
87 ; 102834.85254393707 ; 241316.50557339017 ; 7532270.2424264 ; 1.6603046076487372E7 ; 20706.000000000004
88 ; 102847.18842731656 ; 242789.1707835089 ; 7635105.094970337 ; 1.684436258206076E7 ; 20944.000000000004
89 ; 102408.82437253615 ; 244265.2429823533 ; 7737952.283397654 ; 1.708715175284427E7 ; 21182.000000000004
90 ; 102762.90473484335 ; 245744.52598499888 ; 7840361.107770191 ; 1.7331416995826624E7 ; 21420.000000000004
91 ; 103143.57263439735 ; 247226.82875454455 ; 7943124.012505034 ; 1.7577161521811623E7 ; 21658.000000000004
92 ; 102949.52862690137 ; 248711.96523214347 ; 8046267.585139431 ; 1.7824388350566167E7 ; 21896.000000000004
93 ; 102709.98238969027 ; 250199.7541722361 ; 8149217.113766332 ; 1.8073100315798312E7 ; 22134.000000000004
94 ; 102434.62540843604 ; 251690.0189829195 ; 8251927.0961560225 ; 1.832330006997055E7 ; 22372.000000000004
95 ; 102365.8222626472 ; 253182.58757137574 ; 8354361.721564459 ; 1.857499008895347E7 ; 22610.000000000004
96 ; 102025.96421023278 ; 254677.29219427236 ; 8456727.543827105 ; 1.8828172676524844E7 ; 22848.000000000004
97 ; 102093.32279201795 ; 256173.96931304 ; 8558753.508037338 ; 1.9082849968719117E7 ; 23086.000000000004
98 ; 101897.64282053275 ; 257672.45945392567 ; 8660846.830829356 ; 1.9339023938032158E7 ; 23324.000000000004
99 ; 101526.13303144492 ; 259172.60707271495 ; 8762744.47364989 ; 1.9596696397486083E7 ; 23562.000000000004
100 ; 101434.72433799307 ; 260674.26042401185 ; 8864270.606681334 ; 1.9855869004558798E7 ; 23800.000000000004
101 ; 101328.54376702607 ; 262177.27143496263 ; 8965705.331019327 ; 2.011654326498281E7 ; 24038.000000000004
102 ; 100724.82275985315 ; 263681.4955833058 ; 9067033.874786353 ; 2.037872053641777E7 ; 24276.000000000004
103 ; 100873.41696313777 ; 265186.79177963187 ; 9167758.697546206 ; 2.0642402032001078E7 ; 24514.000000000004
104 ; 100339.2543654076 ; 266693.022253733 ; 9268632.114509344 ; 2.090758882378071E7 ; 24752.000000000004
105 ; 99911.60323219371 ; 268200.052444923 ; 9368971.368874751 ; 2.1174281846034445E7 ; 24990.000000000004
106 ; 99551.05310658197 ; 269707.75089620997 ; 9468882.972106945 ; 2.144248189847937E7 ; 25228.000000000004
107 ; 99496.18115509777 ; 271215.98915220273 ; 9568434.025213527 ; 2.171218964937558E7 ; 25466.000000000004
108 ; 99019.86588969159 ; 272724.64166063356 ; 9667930.206368625 ; 2.1983405638527784E7 ; 25704.000000000004
109 ; 98857.88481387634 ; 274233.5856773828 ; 9766950.072258316 ; 2.225613028018842E7 ; 25942.000000000004
110 ; 98290.24241134728 ; 275742.7011748906 ; 9865807.957072193 ; 2.25303638658658E7 ; 26180.000000000004
111 ; 98308.85993616344 ; 277251.87075384345 ; 9964098.19948354 ; 2.280610656704069E7 ; 26418.000000000004
112 ; 97840.8334878938 ; 278760.97955802776 ; 1.0062407059419703E7 ; 2.3083358437794533E7 ; 26656.000000000004
113 ; 97738.09913899691 ; 280269.9151922399 ; 1.0160247892907597E7 ; 2.336211941735256E7 ; 26894.000000000004
114 ; 96775.1593963794 ; 281778.56764315115 ; 1.0257985992046595E7 ; 2.36423893325448E7 ; 27132.000000000004
115 ; 96365.32145687257 ; 283286.8292030217 ; 1.0354761151442975E7 ; 2.392416790018795E7 ; 27370.000000000004
116 ; 95735.67150485217 ; 284794.59439616714 ; 1.0451126472899847E7 ; 2.420745472939097E7 ; 27608.000000000004
117 ; 95678.16382805162 ; 286301.7599080773 ; 1.0546862144404698E7 ; 2.4492249323787138E7 ; 27846.000000000004
118 ; 95278.38641550459 ; 287808.22451709496 ; 1.0642540308232749E7 ; 2.4778551083695214E7 ; 28084.000000000004
119 ; 94313.1176751071 ; 289313.88902856223 ; 1.0737818694648253E7 ; 2.506635930821231E7 ; 28322.000000000004
120 ; 94462.90340999496 ; 290818.65621134493 ; 1.083213181232336E7 ; 2.5355673197240874E7 ; 28560.000000000004
121 ; 93905.20205629301 ; 292322.4307366497 ; 1.0926594715733355E7 ; 2.564649185345222E7 ; 28798.000000000004
122 ; 93136.43929972977 ; 293825.11911904975 ; 1.1020499917789647E7 ; 2.593881428418887E7 ; 29036.000000000004
123 ; 92201.44027002827 ; 295326.6296596381 ; 1.1113636357089378E7 ; 2.623263940330792E7 ; 29274.000000000004
124 ; 92529.36732662571 ; 296826.872391231 ; 1.1205837797359407E7 ; 2.6527966032967556E7 ; 29512.000000000004
125 ; 91984.65807012525 ; 298325.7590255455 ; 1.1298367164686034E7 ; 2.6824792905358788E7 ; 29750.000000000004
126 ; 91018.44992432666 ; 299823.2029022776 ; 1.1390351822756158E7 ; 2.712311866438433E7 ; 29988.000000000004
127 ; 90209.30485594634 ; 301319.1189400113 ; 1.1481370272680486E7 ; 2.7422941867286608E7 ; 30226.000000000004
128 ; 89996.14803168776 ; 302813.4235888904 ; 1.1571579577536432E7 ; 2.772426098622662E7 ; 30464.000000000004
129 ; 89093.98872490083 ; 304306.0347849869 ; 1.166157572556812E7 ; 2.802707440981551E7 ; 30702.000000000004
130 ; 88286.56507385573 ; 305796.8719063028 ; 1.175066971429302E7 ; 2.8331380444600496E7 ; 30940.000000000004
131 ; 88168.24938758182 ; 307285.8557303454 ; 1.1838956279366875E7 ; 2.86371773165068E7 ; 31178.000000000004
132 ; 87346.67594787342 ; 308772.90839321533 ; 1.1927124528754456E7 ; 2.8944463172237143E7 ; 31416.000000000004
133 ; 86292.43917999462 ; 310257.95335015276 ; 1.2014471204702329E7 ; 2.925323608063036E7 ; 31654.000000000004
134 ; 85496.86004764414 ; 311740.9153374853 ; 1.2100763643882323E7 ; 2.956349403398051E7 ; 31892.000000000004
135 ; 85658.31674298139 ; 313221.720335927 ; 1.2186260503929967E7 ; 2.9875234949317995E7 ; 32130.000000000004
136 ; 84472.81960142327 ; 314700.29553517565 ; 1.2271918820672948E7 ; 3.0188456669653922E7 ; 32368.000000000004
137 ; 83530.85498196015 ; 316176.5692997626 ; 1.2356391640274372E7 ; 3.05031569651891E7 ; 32606.000000000004
138 ; 82784.1174234227 ; 317650.471136105 ; 1.2439922495256333E7 ; 3.081933353448886E7 ; 32844.00000000001
139 ; 81875.44428609386 ; 319121.93166071887 ; 1.2522706612679755E7 ; 3.1136984005624965E7 ; 33082.00000000001
140 ; 81124.65467383039 ; 320590.88256954553 ; 1.2604582056965848E7 ; 3.1456105937285684E7 ; 33320.00000000001
141 ; 80553.51301479505 ; 322057.2566083546 ; 1.2685706711639678E7 ; 3.1776696819855228E7 ; 33558.00000000001
142 ; 79923.5640442894 ; 323520.987544179 ; 1.2766260224654473E7 ; 3.2098754076463584E7 ; 33796.00000000001
143 ; 78955.86185366494 ; 324982.01013774663 ; 1.2846183788698763E7 ; 3.2422275064007763E7 ; 34034.00000000001
144 ; 77865.2943972932 ; 326440.26011686935 ; 1.2925139650552427E7 ; 3.274725707414551E7 ; 34272.00000000001
145 ; 77751.67111577102 ; 327895.67415075545 ; 1.300300494494972E7 ; 3.307369733426238E7 ; 34510.00000000001
146 ; 78072.32906906691 ; 329348.1898252102 ; 1.3080756616065491E7 ; 3.3401593008413132E7 ; 34748.00000000001
147 ; 77153.44070571386 ; 330797.7456186919 ; 1.3158828945134558E7 ; 3.373094119823834E7 ; 34986.00000000001
148 ; 77328.07543103068 ; 332244.28087919217 ; 1.3235982385840273E7 ; 3.406173894385704E7 ; 35224.00000000001
149 ; 77138.58985455958 ; 333687.7358019089 ; 1.3313310461271303E7 ; 3.439398322473623E7 ; 35462.00000000001
150 ; 76745.98763122252 ; 335128.05140768393 ; 1.3390449051125862E7 ; 3.4727670960538134E7 ; 35700.00000000001
151 ; 76986.82298741186 ; 336565.16952217696 ; 1.3467195038757084E7 ; 3.506279901194582E7 ; 35938.00000000001
152 ; 76434.33157316051 ; 337999.0327557476 ; 1.3544181861744495E7 ; 3.5399364181467995E7 ; 36176.00000000001
153 ; 75773.05261297955 ; 339429.5844840213 ; 1.3620616193317655E7 ; 3.573736321422374E7 ; 36414.00000000001
154 ; 75580.53909311125 ; 340856.7688291128 ; 1.3696389245930634E7 ; 3.607679279870776E7 ; 36652.00000000001
155 ; 75456.550054074 ; 342280.53064148396 ; 1.3771969785023745E7 ; 3.6417649567536876E7 ; 36890.00000000001
156 ; 75289.69011822733 ; 343700.81548241206 ; 1.3847426335077818E7 ; 3.675993009817836E7 ; 37128.00000000001
157 ; 74746.39710314742 ; 345117.5696070476 ; 1.3922716025196046E7 ; 3.710363091366077E7 ; 37366.00000000001
158 ; 74813.28895821104 ; 346530.73994803836 ; 1.3997462422299193E7 ; 3.744874848326782E7 ; 37604.00000000001
159 ; 74697.326053336 ; 347940.274099702 ; 1.4072275711257404E7 ; 3.779527922321586E7 ; 37842.00000000001
160 ; 74194.27933361384 ; 349346.1203027242 ; 1.414697303731074E7 ; 3.814321949731556E7 ; 38080.00000000001
161 ; 73542.00993551618 ; 350748.227429366 ; 1.4221167316644354E7 ; 3.8492565617618285E7 ; 38318.00000000001
162 ; 73361.58539644798 ; 352146.544969161 ; 1.429470932657987E7 ; 3.884331384504765E7 ; 38556.00000000001
163 ; 73461.96180737858 ; 353541.0230150853 ; 1.4368070911976319E7 ; 3.919546039001682E7 ; 38794.00000000001
164 ; 72627.14600018295 ; 354931.61225018214 ; 1.4441532873783698E7 ; 3.95490014130319E7 ; 39032.00000000001
165 ; 72093.79712277713 ; 356318.26393462694 ; 1.451416001978388E7 ; 3.990393302528208E7 ; 39270.00000000001
166 ; 71858.17634895864 ; 357700.9298932161 ; 1.4586253816906657E7 ; 4.0260251289216705E7 ; 39508.00000000001
167 ; 71710.11825642365 ; 359079.56250326394 ; 1.4658111993255615E7 ; 4.061795221910992E7 ; 39746.00000000001
168 ; 71647.59414838202 ; 360454.1146828947 ; 1.4729822111512039E7 ; 4.0977031781613186E7 ; 39984.00000000001
169 ; 71232.14147384814 ; 361824.5398797149 ; 1.4801469705660421E7 ; 4.1337485896296084E7 ; 40222.00000000001
170 ; 70861.44362655596 ; 363190.79205985274 ; 1.487270184713427E7 ; 4.16993104361758E7 ; 40460.00000000001
171 ; 71254.1834714605 ; 364552.8256973525 ; 1.4943563290760826E7 ; 4.2062501228235655E7 ; 40698.00000000001
172 ; 70117.46282237483 ; 365910.5957639099 ; 1.5014817474232286E7 ; 4.242705405393301E7 ; 40936.00000000001
173 ; 70031.35813183163 ; 367264.0577189383 ; 1.508493493705466E7 ; 4.279296464969692E7 ; 41174.00000000001
174 ; 69932.03901699025 ; 368613.16749995336 ; 1.5154966295186492E7 ; 4.316022870741586E7 ; 41412.00000000001
175 ; 70107.01341113234 ; 369957.88151326583 ; 1.5224898334203482E7 ; 4.352884187491581E7 ; 41650.00000000001
176 ; 70306.40777222827 ; 371298.1566249701 ; 1.5295005347614614E7 ; 4.3898799756429076E7 ; 41888.00000000001
177 ; 69941.59573662948 ; 372633.95015222114 ; 1.5365311755386842E7 ; 4.427009791305405E7 ; 42126.00000000001
178 ; 70474.78764805103 ; 373965.21985478746 ; 1.5435253351123473E7 ; 4.464273186320627E7 ; 42364.00000000001
179 ; 70476.8455475725 ; 375291.923926872 ; 1.5505728138771523E7 ; 4.5016697083061054E7 ; 42602.00000000001
180 ; 70503.1207165002 ; 376614.0209891915 ; 1.5576204984319095E7 ; 4.539198900698793E7 ; 42840.00000000001
181 ; 70373.83540633199 ; 377931.4700813049 ; 1.5646708105035596E7 ; 4.5768603027977124E7 ; 43078.00000000001
