CSV File for the Network on Day 166
1 - Minute m 
2 - Power Consumed at minute m 
3 - Power Produced at minute m 
4 - Energy Consumed since the beginning of the day 
5 - Energy Produced since the beginning of the day 
6 - Energy Lost since the beginning of the day 
 
No Production city : 2, Producer : 1
No Production city : 4, Producer : 1
No Production city : 4, Producer : 1
 
0 ; 38089.58090949442 ; 157529.56192195154 ; 0.0 ; 0.0 ; 0.0
1 ; 39820.43319141047 ; 157184.91164808185 ; 38089.58090949442 ; 157529.56192195154 ; 238.00000000000003
2 ; 41387.78048234862 ; 156875.350683416 ; 77910.0141009049 ; 314714.4735700334 ; 476.00000000000006
3 ; 42837.03309515609 ; 156601.26592036022 ; 119297.79458325352 ; 471589.8242534494 ; 714.0000000000001
4 ; 44804.923330583435 ; 156363.0043119469 ; 162134.8276784096 ; 628191.0901738096 ; 952.0000000000001
5 ; 45822.21236541918 ; 156160.8708725617 ; 206939.75100899304 ; 784554.0944857565 ; 1190.0000000000002
6 ; 47134.480665481526 ; 155995.12688526994 ; 252761.9633744122 ; 940714.9653583182 ; 1428.0000000000002
7 ; 48495.11598403608 ; 155865.98833994093 ; 299896.44403989374 ; 1096710.092243588 ; 1666.0000000000002
8 ; 49216.55727405989 ; 155773.62462377097 ; 348391.5600239298 ; 1252576.080583529 ; 1904.0000000000002
9 ; 51623.825978074005 ; 155718.15748267967 ; 397608.11729798967 ; 1408349.7052073001 ; 2142.0000000000005
10 ; 52628.710675810056 ; 155699.6602684711 ; 449231.94327606366 ; 1564067.8626899798 ; 2380.0000000000005
11 ; 53776.00839326032 ; 155718.15748267967 ; 501860.6539518737 ; 1719767.522958451 ; 2618.0000000000005
12 ; 54728.63772298612 ; 155773.62462377097 ; 555636.6623451341 ; 1875485.6804411307 ; 2856.0000000000005
13 ; 55814.85952792512 ; 155865.98833994093 ; 610365.3000681202 ; 2031259.3050649017 ; 3094.0000000000005
14 ; 57588.928568208365 ; 155995.12688526994 ; 666180.1595960454 ; 2187125.2934048427 ; 3332.0000000000005
15 ; 58848.97772886721 ; 156160.8708725617 ; 723769.0881642537 ; 2343120.4202901125 ; 3570.0000000000005
16 ; 60219.10102596885 ; 156363.0043119469 ; 782618.065893121 ; 2499281.2911626743 ; 3808.0000000000005
17 ; 61054.725255516896 ; 156601.26592036022 ; 842837.1669190899 ; 2655644.295474621 ; 4046.0000000000005
18 ; 62085.07450199762 ; 156875.350683416 ; 903891.8921746068 ; 2812245.561394981 ; 4284.000000000001
19 ; 63394.34681068933 ; 157184.91164808173 ; 965976.9666766045 ; 2969120.9120783973 ; 4522.000000000001
20 ; 64519.57800090422 ; 157529.56192195154 ; 1029371.3134872938 ; 3126305.823726479 ; 4760.000000000001
21 ; 66337.84916307036 ; 157908.87685289822 ; 1093890.891488198 ; 3283835.3856484303 ; 4998.000000000001
22 ; 66409.98439824628 ; 158322.3963614503 ; 1160228.7406512683 ; 3441744.2625013287 ; 5236.000000000001
23 ; 67623.98311314333 ; 158769.62739741182 ; 1226638.7250495146 ; 3600066.658862779 ; 5474.000000000001
24 ; 68946.70382755014 ; 159250.04649199144 ; 1294262.708162658 ; 3758836.286260191 ; 5712.000000000001
25 ; 69958.84405013372 ; 159763.1023770139 ; 1363209.411990208 ; 3918086.332752182 ; 5950.000000000001
26 ; 70892.84602339171 ; 160308.21864359285 ; 1433168.2560403417 ; 4077849.435129196 ; 6188.000000000001
27 ; 72405.60285153068 ; 160884.79641389524 ; 1504061.1020637334 ; 4238157.653772789 ; 6426.000000000001
28 ; 73317.96937225175 ; 161492.2170012614 ; 1576466.7049152642 ; 4399042.450186685 ; 6664.000000000001
29 ; 73332.36223326848 ; 162129.84453588384 ; 1649784.674287516 ; 4560534.667187946 ; 6902.000000000001
30 ; 74799.0878847388 ; 162797.02853541877 ; 1723117.0365207845 ; 4722664.511723829 ; 7140.000000000001
31 ; 76017.3747730689 ; 163493.1064022439 ; 1797916.1244055233 ; 4885461.540259249 ; 7378.000000000001
32 ; 76979.67991014442 ; 164217.40583150322 ; 1873933.499178592 ; 5048954.646661492 ; 7616.000000000001
33 ; 77869.34451806307 ; 164969.24711653744 ; 1950913.1790887364 ; 5213172.052492995 ; 7854.000000000001
34 ; 78721.19134946908 ; 165747.9453407336 ; 2028782.5236067995 ; 5378141.299609533 ; 8092.000000000001
35 ; 79885.56958186039 ; 166552.812447183 ; 2107503.7149562687 ; 5543889.244950267 ; 8330.000000000002
36 ; 80494.3051913215 ; 167383.1591797779 ; 2187389.284538129 ; 5710442.057397449 ; 8568.000000000002
37 ; 81299.10778555112 ; 168238.29689147125 ; 2267883.58972945 ; 5877825.216577227 ; 8806.000000000002
38 ; 82232.79965562983 ; 169117.5392173462 ; 2349182.6975150015 ; 6046063.513468699 ; 9044.000000000002
39 ; 82663.94106747514 ; 170020.20361187498 ; 2431415.4971706313 ; 6215181.052686045 ; 9282.000000000002
40 ; 83710.20306480124 ; 170945.61275128604 ; 2514079.4382381067 ; 6385201.25629792 ; 9520.000000000002
41 ; 84563.67153620088 ; 171893.09580329523 ; 2597789.641302908 ; 6556146.869049206 ; 9758.000000000002
42 ; 85605.57256493472 ; 172861.98956759553 ; 2682353.3128391085 ; 6728039.964852502 ; 9996.000000000002
43 ; 86098.45979056183 ; 173851.6394914533 ; 2767958.8854040434 ; 6900901.954420097 ; 10234.000000000002
44 ; 86759.7738147041 ; 174861.40056552156 ; 2854057.345194605 ; 7074753.593911551 ; 10472.000000000002
45 ; 87533.4470572711 ; 175890.63810558507 ; 2940817.1190093094 ; 7249614.994477073 ; 10710.000000000002
46 ; 88031.83338996943 ; 176938.72842639533 ; 3028350.5660665804 ; 7425505.632582658 ; 10948.000000000002
47 ; 88670.45709586717 ; 178005.05941405767 ; 3116382.39945655 ; 7602444.361009053 ; 11186.000000000002
48 ; 89582.03582266258 ; 179089.03100361887 ; 3205052.856552417 ; 7780449.420423111 ; 11424.000000000002
49 ; 89728.22397264809 ; 180190.05556857385 ; 3294634.8923750794 ; 7959538.45142673 ; 11662.000000000002
50 ; 90636.72976514528 ; 181307.55822899588 ; 3384363.1163477274 ; 8139728.506995304 ; 11900.000000000002
51 ; 91279.2133345855 ; 182440.97708489373 ; 3474999.8461128725 ; 8321036.065224299 ; 12138.000000000002
52 ; 91874.83774282839 ; 183589.76338124386 ; 3566279.059447458 ; 8503477.042309193 ; 12376.000000000002
53 ; 92485.93475558326 ; 184753.3816109269 ; 3658153.8971902863 ; 8687066.805690438 ; 12614.000000000002
54 ; 93101.70829230313 ; 185931.30956154855 ; 3750639.8319458696 ; 8871820.187301364 ; 12852.000000000002
55 ; 93545.44977079517 ; 187123.03831183826 ; 3843741.5402381727 ; 9057751.496862913 ; 13090.000000000002
56 ; 94368.38007400103 ; 188328.07218301363 ; 3937286.990008968 ; 9244874.535174752 ; 13328.000000000002
57 ; 94794.51405858496 ; 189545.92865017836 ; 4031655.370082969 ; 9433202.607357765 ; 13566.000000000002
58 ; 95425.53701969142 ; 190776.13821849346 ; 4126449.8841415537 ; 9622748.536007943 ; 13804.000000000002
59 ; 95747.83949029015 ; 192018.24426853316 ; 4221875.421161245 ; 9813524.674226437 ; 14042.000000000002
60 ; 95702.82211693452 ; 193271.80287490986 ; 4317623.260651534 ; 1.000554291849497E7 ; 14280.000000000002
61 ; 96176.88598076966 ; 194536.38260193128 ; 4413326.082768469 ; 1.019881472136988E7 ; 14518.000000000002
62 ; 97034.71835234381 ; 195811.56427974498 ; 4509502.968749239 ; 1.0393351103971811E7 ; 14756.000000000002
63 ; 97297.47959715163 ; 197096.9407641246 ; 4606537.687101583 ; 1.0589162668251555E7 ; 14994.000000000002
64 ; 97826.18499081957 ; 198392.11668276755 ; 4703835.166698734 ; 1.078625960901568E7 ; 15232.000000000002
65 ; 98277.33709098426 ; 199696.70817070507 ; 4801661.351689554 ; 1.0984651725698449E7 ; 15470.000000000002
66 ; 98319.76350258036 ; 201010.34259716878 ; 4899938.688780538 ; 1.1184348433869153E7 ; 15708.000000000002
67 ; 98587.93617646965 ; 202332.65828601978 ; 4998258.452283118 ; 1.1385358776466321E7 ; 15946.000000000002
68 ; 99220.84926393487 ; 203663.30423162525 ; 5096846.3884595875 ; 1.1587691434752341E7 ; 16184.000000000002
69 ; 99697.57321858285 ; 205001.93981185748 ; 5196067.237723522 ; 1.1791354738983966E7 ; 16422.000000000004
70 ; 99334.93952938422 ; 206348.23449970275 ; 5295764.810942105 ; 1.1996356678795824E7 ; 16660.000000000004
71 ; 99797.83932817815 ; 207701.86757478878 ; 5395099.7504714895 ; 1.2202704913295526E7 ; 16898.000000000004
72 ; 100075.01878281138 ; 209062.52783597924 ; 5494897.589799668 ; 1.2410406780870315E7 ; 17136.000000000004
73 ; 100373.22502965582 ; 210429.91331603675 ; 5594972.608582479 ; 1.2619469308706295E7 ; 17374.000000000004
74 ; 100475.40934416113 ; 211803.73099922016 ; 5695345.833612135 ; 1.2829899222022332E7 ; 17612.000000000004
75 ; 100925.21475663196 ; 213183.69654256105 ; 5795821.242956296 ; 1.3041702953021552E7 ; 17850.000000000004
76 ; 101504.05366602066 ; 214569.53400145328 ; 5896746.457712928 ; 1.3254886649564113E7 ; 18088.000000000004
77 ; 101869.9501628762 ; 215960.97556009056 ; 5998250.511378949 ; 1.3469456183565566E7 ; 18326.000000000004
78 ; 101907.1575961397 ; 217357.76126719773 ; 6100120.461541825 ; 1.3685417159125658E7 ; 18564.000000000004
79 ; 101693.03763226036 ; 218759.63877741926 ; 6202027.619137965 ; 1.3902774920392856E7 ; 18802.000000000004
80 ; 101977.875725172 ; 220166.36309866013 ; 6303720.656770226 ; 1.4121534559170276E7 ; 19040.000000000004
81 ; 101777.22969300441 ; 221577.69634560787 ; 6405698.532495398 ; 1.4341700922268936E7 ; 19278.000000000004
82 ; 102224.18252425887 ; 222993.40749960896 ; 6507475.762188403 ; 1.4563278618614545E7 ; 19516.000000000004
83 ; 102194.9282979805 ; 224413.27217502316 ; 6609699.944712662 ; 1.4786272026114155E7 ; 19754.000000000004
84 ; 102290.57471982394 ; 225837.07239213484 ; 6711894.873010643 ; 1.5010685298289178E7 ; 19992.000000000004
85 ; 102436.67306350417 ; 227264.596356662 ; 6814185.447730467 ; 1.5236522370681312E7 ; 20230.000000000004
86 ; 102025.68127151317 ; 228695.63824586992 ; 6916622.120793971 ; 1.5463786967037974E7 ; 20468.000000000004
87 ; 102531.70979656631 ; 230129.99800126793 ; 7018647.802065484 ; 1.5692482605283843E7 ; 20706.000000000004
88 ; 102037.15253413562 ; 231567.48112784073 ; 7121179.511862051 ; 1.5922612603285111E7 ; 20944.000000000004
89 ; 102193.5507582828 ; 233007.89849974713 ; 7223216.664396186 ; 1.6154180084412953E7 ; 21182.000000000004
90 ; 102045.0859923421 ; 234451.06617239717 ; 7325410.215154469 ; 1.63871879829127E7 ; 21420.000000000004
91 ; 102372.8709334788 ; 235896.8052008057 ; 7427455.301146811 ; 1.6621639049085097E7 ; 21658.000000000004
92 ; 101860.91871981198 ; 237344.94146410693 ; 7529828.17208029 ; 1.6857535854285903E7 ; 21896.000000000004
93 ; 101720.03444212535 ; 238795.3054961026 ; 7631689.090800102 ; 1.709488079575001E7 ; 22134.000000000004
94 ; 101801.43774583275 ; 240247.73232170948 ; 7733409.125242228 ; 1.7333676101246115E7 ; 22372.000000000004
95 ; 101988.8461746037 ; 241702.061299164 ; 7835210.5629880605 ; 1.7573923833567824E7 ; 22610.000000000004
96 ; 101501.48307714085 ; 243158.13596783715 ; 7937199.409162664 ; 1.7815625894866988E7 ; 22848.000000000004
97 ; 101789.35722589049 ; 244615.8039015081 ; 8038700.892239804 ; 1.8058784030834824E7 ; 23086.000000000004
98 ; 101535.68872769833 ; 246074.91656694293 ; 8140490.249465695 ; 1.8303399834736332E7 ; 23324.000000000004
99 ; 100892.77863707748 ; 247535.32918762387 ; 8242025.938193393 ; 1.8549474751303274E7 ; 23562.000000000004
100 ; 101017.12096303192 ; 248996.90061247224 ; 8342918.716830471 ; 1.87970100804909E7 ; 23800.000000000004
101 ; 100551.64166980328 ; 250459.4931894094 ; 8443935.837793503 ; 1.904600698110337E7 ; 24038.000000000004
102 ; 100436.54571999087 ; 251922.97264360118 ; 8544487.479463305 ; 1.929646647429278E7 ; 24276.000000000004
103 ; 100389.73858141256 ; 253387.2079602314 ; 8644924.025183296 ; 1.9548389446936384E7 ; 24514.000000000004
104 ; 99791.10862964398 ; 254852.07127165317 ; 8745313.76376471 ; 1.9801776654896617E7 ; 24752.000000000004
105 ; 99640.99745015203 ; 256317.43774876854 ; 8845104.872394353 ; 2.005662872616827E7 ; 24990.000000000004
106 ; 99582.5516510624 ; 257783.18549648934 ; 8944745.869844506 ; 2.031294616391704E7 ; 25228.000000000004
107 ; 99312.06032979007 ; 259249.1954531361 ; 9044328.421495568 ; 2.057072934941353E7 ; 25466.000000000004
108 ; 98790.692490637 ; 260715.35129363326 ; 9143640.481825357 ; 2.0829978544866666E7 ; 25704.000000000004
109 ; 98147.27320221731 ; 262181.53933636483 ; 9242431.174315995 ; 2.10906938961603E7 ; 25942.000000000004
110 ; 98273.94566576794 ; 263647.6484535554 ; 9340578.447518213 ; 2.1352875435496666E7 ; 26180.000000000004
111 ; 97679.27765098738 ; 265113.56998504756 ; 9438852.39318398 ; 2.161652308395022E7 ; 26418.000000000004
112 ; 97224.03610149359 ; 266579.19765534834 ; 9536531.670834968 ; 2.188163665393527E7 ; 26656.000000000004
113 ; 96862.79358664475 ; 268044.42749382264 ; 9633755.706936462 ; 2.214821585159062E7 ; 26894.000000000004
114 ; 96116.83297226785 ; 269509.1577579145 ; 9730618.500523107 ; 2.241626027908444E7 ; 27132.000000000004
115 ; 95894.65933593152 ; 270973.28885928105 ; 9826735.333495375 ; 2.2685769436842356E7 ; 27370.000000000004
116 ; 95777.52858913293 ; 272436.7232927282 ; 9922629.992831307 ; 2.2956742725701638E7 ; 27608.000000000004
117 ; 94833.8180088164 ; 273899.36556784005 ; 1.001840752142044E7 ; 2.3229179448994365E7 ; 27846.000000000004
118 ; 94109.52980221661 ; 275361.1221431975 ; 1.0113241339429256E7 ; 2.3503078814562205E7 ; 28084.000000000004
119 ; 94003.54352045327 ; 276821.9013630875 ; 1.0207350869231472E7 ; 2.3778439936705403E7 ; 28322.000000000004
120 ; 93540.35855017924 ; 278281.6133966043 ; 1.0301354412751924E7 ; 2.405526183806849E7 ; 28560.000000000004
121 ; 92795.48857743395 ; 279740.17017905036 ; 1.0394894771302104E7 ; 2.4333543451465093E7 ; 28798.000000000004
122 ; 92106.50485304928 ; 281197.4853555473 ; 1.0487690259879539E7 ; 2.4613283621644143E7 ; 29036.000000000004
123 ; 91682.6831937233 ; 282653.47422676935 ; 1.0579796764732588E7 ; 2.489448110699969E7 ; 29274.000000000004
124 ; 90882.87328128566 ; 284108.05369671766 ; 1.067147944792631E7 ; 2.517713458122646E7 ; 29512.000000000004
125 ; 91008.92958471534 ; 285561.14222245326 ; 1.0762362321207596E7 ; 2.546124263492318E7 ; 29750.000000000004
126 ; 90315.23355929693 ; 287012.6597657136 ; 1.0853371250792312E7 ; 2.574680377714563E7 ; 29988.000000000004
127 ; 88963.35099687439 ; 288462.52774633764 ; 1.0943686484351609E7 ; 2.6033816436911345E7 ; 30226.000000000004
128 ; 88526.39816708621 ; 289910.66899742757 ; 1.1032649835348483E7 ; 2.6322278964657683E7 ; 30464.000000000004
129 ; 87846.77093548032 ; 291357.0077221809 ; 1.112117623351557E7 ; 2.6612189633655112E7 ; 30702.000000000004
130 ; 87496.59292571888 ; 292801.46945232456 ; 1.120902300445105E7 ; 2.6903546641377293E7 ; 30940.000000000004
131 ; 86424.12969963728 ; 294243.9810080902 ; 1.1296519597376768E7 ; 2.7196348110829618E7 ; 31178.000000000004
132 ; 85912.89266127751 ; 295684.4704596681 ; 1.1382943727076406E7 ; 2.7490592091837708E7 ; 31416.000000000004
133 ; 85102.48943007246 ; 297122.8670900833 ; 1.1468856619737683E7 ; 2.7786276562297378E7 ; 31654.000000000004
134 ; 84310.88873305422 ; 298559.101359437 ; 1.1553959109167755E7 ; 2.808339942938746E7 ; 31892.000000000004
135 ; 83441.08396653381 ; 299993.10487045906 ; 1.1638269997900808E7 ; 2.83819585307469E7 ; 32130.000000000004
136 ; 82073.58910986791 ; 301424.8103353224 ; 1.1721711081867343E7 ; 2.868195163561736E7 ; 32368.000000000004
137 ; 81555.13346987506 ; 302854.15154366684 ; 1.180378467097721E7 ; 2.8983376445952684E7 ; 32606.000000000004
138 ; 80795.90605335095 ; 304281.06333178794 ; 1.1885339804447087E7 ; 2.928623059749635E7 ; 32844.00000000001
139 ; 80112.01534906939 ; 305705.4815529436 ; 1.1966135710500438E7 ; 2.9590511660828136E7 ; 33082.00000000001
140 ; 79076.00809155055 ; 307127.3430487346 ; 1.2046247725849507E7 ; 2.989621714238108E7 ; 33320.00000000001
141 ; 78149.02108960482 ; 308546.58562151925 ; 1.2125323733941058E7 ; 3.0203344485429816E7 ; 33558.00000000001
142 ; 77488.82201767438 ; 309963.1480078194 ; 1.2203472755030662E7 ; 3.0511891071051337E7 ; 33796.00000000001
143 ; 76483.81484740954 ; 311376.9698526816 ; 1.2280961577048337E7 ; 3.0821854219059154E7 ; 34034.00000000001
144 ; 74960.71247019753 ; 312787.99168495496 ; 1.2357445391895747E7 ; 3.1133231188911837E7 ; 34272.00000000001
145 ; 75626.16769375752 ; 314196.1548934509 ; 1.2432406104365945E7 ; 3.144601918059679E7 ; 34510.00000000001
146 ; 74645.47740716537 ; 315601.4017039506 ; 1.2508032272059703E7 ; 3.176021533549024E7 ; 34748.00000000001
147 ; 75320.98289730577 ; 317003.6751570287 ; 1.2582677749466868E7 ; 3.207581673719419E7 ; 34986.00000000001
148 ; 74853.6814764894 ; 318402.9190866593 ; 1.2657998732364174E7 ; 3.239282041235122E7 ; 35224.00000000001
149 ; 74569.70847342192 ; 319799.07809957734 ; 1.2732852413840663E7 ; 3.271122333143788E7 ; 35462.00000000001
150 ; 74279.30434212119 ; 321192.09755536483 ; 1.2807422122314084E7 ; 3.3031022409537457E7 ; 35700.00000000001
151 ; 73937.74802762516 ; 322581.92354723415 ; 1.2881701426656205E7 ; 3.3352214507092822E7 ; 35938.00000000001
152 ; 73647.79610856282 ; 323968.5028834839 ; 1.295563917468383E7 ; 3.367479643064006E7 ; 36176.00000000001
153 ; 73761.50193605723 ; 325351.7830695987 ; 1.3029286970792392E7 ; 3.399876493352354E7 ; 36414.00000000001
154 ; 73309.68656233461 ; 326731.71229097166 ; 1.310304847272845E7 ; 3.432411671659314E7 ; 36652.00000000001
155 ; 72810.8805618038 ; 328108.2393962244 ; 1.3176358159290785E7 ; 3.465084842888411E7 ; 36890.00000000001
156 ; 72795.4732956842 ; 329481.3138811032 ; 1.324916903985259E7 ; 3.497895666828033E7 ; 37128.00000000001
157 ; 72512.04718360903 ; 330850.8858729275 ; 1.3321964513148274E7 ; 3.530843798216144E7 ; 37366.00000000001
158 ; 72018.15830764486 ; 332216.9061155742 ; 1.3394476560331883E7 ; 3.563928886803437E7 ; 37604.00000000001
159 ; 71975.30158851364 ; 333579.325954973 ; 1.3466494718639528E7 ; 3.597150577414995E7 ; 37842.00000000001
160 ; 71638.30194977319 ; 334938.097325098 ; 1.3538470020228041E7 ; 3.630508510010492E7 ; 38080.00000000001
161 ; 71281.54033974578 ; 336293.17273443483 ; 1.3610108322177814E7 ; 3.664002319743002E7 ; 38318.00000000001
162 ; 70739.1795912132 ; 337644.50525290566 ; 1.368138986251756E7 ; 3.6976316370164454E7 ; 38556.00000000001
163 ; 71172.49670628144 ; 338992.0484992373 ; 1.3752129042108772E7 ; 3.731396087541736E7 ; 38794.00000000001
164 ; 70456.95739964754 ; 340335.7566287543 ; 1.3823301538815053E7 ; 3.765295292391659E7 ; 39032.00000000001
165 ; 69722.16234676087 ; 341675.5843215814 ; 1.38937584962147E7 ; 3.7993288680545345E7 ; 39270.00000000001
166 ; 70228.0010835882 ; 343011.4867712422 ; 1.3963480658561463E7 ; 3.8334964264866926E7 ; 39508.00000000001
167 ; 69412.5708088635 ; 344343.41967363807 ; 1.403370865964505E7 ; 3.867797575163817E7 ; 39746.00000000001
168 ; 68690.43120724779 ; 345671.3392163939 ; 1.4103121230453914E7 ; 3.90223191713118E7 ; 39984.00000000001
169 ; 68658.19804443039 ; 346995.2020685576 ; 1.4171811661661161E7 ; 3.93679905105282E7 ; 40222.00000000001
170 ; 68103.67826905855 ; 348314.96537064144 ; 1.4240469859705592E7 ; 3.971498571259676E7 ; 40460.00000000001
171 ; 67855.6212346361 ; 349630.5867249912 ; 1.430857353797465E7 ; 4.00633006779674E7 ; 40698.00000000001
172 ; 68107.53048294793 ; 350942.024186473 ; 1.4376429159209287E7 ; 4.041293126469239E7 ; 40936.00000000001
173 ; 67371.40017682363 ; 352249.2362534654 ; 1.4444536689692235E7 ; 4.076387328887886E7 ; 41174.00000000001
174 ; 67623.94972118188 ; 353552.1818591476 ; 1.4511908089869058E7 ; 4.111612252513232E7 ; 41412.00000000001
175 ; 67901.41541672895 ; 354850.8203630708 ; 1.457953203959024E7 ; 4.146967470699147E7 ; 41650.00000000001
176 ; 67688.23588147719 ; 356145.11154300463 ; 1.4647433455006968E7 ; 4.182452552735454E7 ; 41888.00000000001
177 ; 67790.65733967972 ; 357435.01558704907 ; 1.4715121690888446E7 ; 4.2180670638897546E7 ; 42126.00000000001
178 ; 67828.25237582145 ; 358720.49308600056 ; 1.4782912348228125E7 ; 4.253810565448459E7 ; 42364.00000000001
179 ; 68251.94246067567 ; 360001.50502596644 ; 1.4850740600603946E7 ; 4.2896826147570595E7 ; 42602.00000000001
180 ; 68802.7795154506 ; 361278.0127812162 ; 1.491899254306462E7 ; 4.325682765259656E7 ; 42840.00000000001
181 ; 68575.5222447192 ; 362549.97810726287 ; 1.4987795322580071E7 ; 4.361810566537778E7 ; 43078.00000000001
