CSV File for the Network on Day 170
1 - Minute m 
2 - Power Consumed at minute m 
3 - Power Produced at minute m 
4 - Energy Consumed since the beginning of the day 
5 - Energy Produced since the beginning of the day 
6 - Energy Lost since the beginning of the day 
 
No Production city : 2, Producer : 1
No Production city : 4, Producer : 1
No Production city : 4, Producer : 1
 
0 ; 36742.11699310013 ; 155365.16804030933 ; 0.0 ; 0.0 ; 0.0
1 ; 38224.422874104836 ; 155019.0075765042 ; 36742.11699310013 ; 155365.16804030933 ; 238.00000000000003
2 ; 39788.93463834264 ; 154708.05595024186 ; 74966.53986720496 ; 310384.17561681353 ; 476.00000000000006
3 ; 41328.76579158274 ; 154432.7125743352 ; 114755.47450554761 ; 465092.2315670554 ; 714.0000000000001
4 ; 43119.44284772378 ; 154193.33580703964 ; 156084.24029713034 ; 619524.9441413906 ; 952.0000000000001
5 ; 44405.1308790324 ; 153990.24082752835 ; 199203.68314485412 ; 773718.2799484303 ; 1190.0000000000002
6 ; 45790.678900707295 ; 153823.69772891433 ; 243608.81402388652 ; 927708.5207759587 ; 1428.0000000000002
7 ; 46548.09269973078 ; 153693.92985529156 ; 289399.4929245938 ; 1081532.218504873 ; 1666.0000000000002
8 ; 48289.80854346048 ; 153601.11240645841 ; 335947.58562432457 ; 1235226.1483601646 ; 1904.0000000000002
9 ; 49733.42145743212 ; 153545.37133059348 ; 384237.39416778507 ; 1388827.260766623 ; 2142.0000000000005
10 ; 51175.432695171476 ; 153526.7825212386 ; 433970.81562521716 ; 1542372.6320972166 ; 2380.0000000000005
11 ; 52550.79311497947 ; 153545.37133059348 ; 485146.2483203886 ; 1695899.414618455 ; 2618.0000000000005
12 ; 54089.14216428574 ; 153601.11240645841 ; 537697.0414353681 ; 1849444.7859490486 ; 2856.0000000000005
13 ; 54875.594281582446 ; 153693.92985529156 ; 591786.1835996539 ; 2003045.898355507 ; 3094.0000000000005
14 ; 55929.80253159595 ; 153823.6977289142 ; 646661.7778812363 ; 2156739.8282107986 ; 3332.0000000000005
15 ; 57484.15784768742 ; 153990.24082752835 ; 702591.5804128322 ; 2310563.5259397128 ; 3570.0000000000005
16 ; 58475.81649929494 ; 154193.33580703964 ; 760075.7382605196 ; 2464553.766767241 ; 3808.0000000000005
17 ; 60165.90482761074 ; 154432.7125743351 ; 818551.5547598145 ; 2618747.1025742805 ; 4046.0000000000005
18 ; 61102.849938414045 ; 154708.05595024198 ; 878717.4595874252 ; 2773179.8151486157 ; 4284.000000000001
19 ; 62299.27760661038 ; 155019.0075765041 ; 939820.3095258393 ; 2927887.871098858 ; 4522.000000000001
20 ; 63726.43502771263 ; 155365.16804030933 ; 1002119.5871324497 ; 3082906.878675362 ; 4760.000000000001
21 ; 64540.59326226872 ; 155746.0991877415 ; 1065846.0221601625 ; 3238272.046715671 ; 4998.000000000001
22 ; 66167.75412452336 ; 156161.32659604214 ; 1130386.6154224311 ; 3394018.1459034127 ; 5236.000000000001
23 ; 66753.72832053683 ; 156610.34217373846 ; 1196554.3695469545 ; 3550179.472499455 ; 5474.000000000001
24 ; 67884.29523180031 ; 157092.60685752044 ; 1263308.0978674914 ; 3706789.8146731933 ; 5712.000000000001
25 ; 68934.7876307967 ; 157607.55337517802 ; 1331192.3930992917 ; 3863882.421530714 ; 5950.000000000001
26 ; 69390.53258792454 ; 158154.58904489537 ; 1400127.1807300884 ; 4021489.974905892 ; 6188.000000000001
27 ; 71293.51155368851 ; 158733.09858266625 ; 1469517.713318013 ; 4179644.5639507873 ; 6426.000000000001
28 ; 71756.25244758371 ; 159342.44689146505 ; 1540811.2248717013 ; 4338377.662533454 ; 6664.000000000001
29 ; 73339.42762755143 ; 159981.98180801474 ; 1612567.477319285 ; 4497720.109424919 ; 6902.000000000001
30 ; 74297.71563523167 ; 160651.03678542975 ; 1685906.9049468364 ; 4657702.091232934 ; 7140.000000000001
31 ; 75339.9319083544 ; 161348.93349261736 ; 1760204.620582068 ; 4818353.128018363 ; 7378.000000000001
32 ; 75928.6273439362 ; 162074.9843140114 ; 1835544.5524904225 ; 4979702.061510981 ; 7616.000000000001
33 ; 77125.69749952319 ; 162828.4947359109 ; 1911473.1798343586 ; 5141777.0458249925 ; 7854.000000000001
34 ; 77740.19572621754 ; 163608.7656083565 ; 1988598.8773338818 ; 5304605.540560903 ; 8092.000000000001
35 ; 79147.8859791637 ; 164415.0952740314 ; 2066339.0730600993 ; 5468214.306169259 ; 8330.000000000002
36 ; 79877.75157364775 ; 165246.7815580899 ; 2145486.959039263 ; 5632629.4014432905 ; 8568.000000000002
37 ; 80841.78011762115 ; 166103.12361505453 ; 2225364.710612911 ; 5797876.18300138 ; 8806.000000000002
38 ; 81336.842873148 ; 166983.42363096296 ; 2306206.490730532 ; 5963979.306616435 ; 9044.000000000002
39 ; 82415.34858427447 ; 167886.9883807749 ; 2387543.33360368 ; 6130962.730247398 ; 9282.000000000002
40 ; 83190.32370807305 ; 168813.1306426475 ; 2469958.6821879544 ; 6298849.718628173 ; 9520.000000000002
41 ; 84108.73429060416 ; 169761.17047207488 ; 2553149.0058960277 ; 6467662.849270821 ; 9758.000000000002
42 ; 84442.0375561063 ; 170730.43634004582 ; 2637257.7401866317 ; 6637424.019742896 ; 9996.000000000002
43 ; 85366.23881904728 ; 171720.26614033227 ; 2721699.777742738 ; 6808154.456082942 ; 10234.000000000002
44 ; 86448.33637512046 ; 172730.00807177363 ; 2807066.0165617852 ; 6979874.722223274 ; 10472.000000000002
45 ; 86780.380708542 ; 173759.02140200546 ; 2893514.352936906 ; 7152604.730295048 ; 10710.000000000002
46 ; 87516.09087761864 ; 174806.67711948656 ; 2980294.733645448 ; 7326363.751697053 ; 10948.000000000002
47 ; 88484.74694742609 ; 175872.35848095 ; 3067810.8245230666 ; 7501170.42881654 ; 11186.000000000002
48 ; 89325.06091598452 ; 176955.4614615342 ; 3156295.5714704925 ; 7677042.78729749 ; 11424.000000000002
49 ; 89799.34721101828 ; 178055.39511488116 ; 3245620.632386477 ; 7853998.248759024 ; 11662.000000000002
50 ; 90260.46055050605 ; 179171.58185041504 ; 3335419.9795974954 ; 8032053.643873905 ; 11900.000000000002
51 ; 90806.74256749517 ; 180303.45763486705 ; 3425680.4401480015 ; 8211225.22572432 ; 12138.000000000002
52 ; 91474.65733093568 ; 181450.47212490242 ; 3516487.1827154965 ; 8391528.683359187 ; 12376.000000000002
53 ; 92591.56693324665 ; 182612.08873744 ; 3607961.8400464323 ; 8572979.15548409 ; 12614.000000000002
54 ; 93155.97549307901 ; 183787.78466395522 ; 3700553.406979679 ; 8755591.244221529 ; 12852.000000000002
55 ; 93261.16554770335 ; 184977.05083472823 ; 3793709.382472758 ; 8939379.028885484 ; 13090.000000000002
56 ; 93774.64379238864 ; 186179.3918386504 ; 3886970.5480204616 ; 9124356.079720212 ; 13328.000000000002
57 ; 94721.36068611132 ; 187394.32580384484 ; 3980745.19181285 ; 9310535.471558863 ; 13566.000000000002
58 ; 94849.92029309155 ; 188621.3842439936 ; 4075466.5524989613 ; 9497929.797362708 ; 13804.000000000002
59 ; 95653.56676220077 ; 189860.11187490373 ; 4170316.4727920527 ; 9686551.1816067 ; 14042.000000000002
60 ; 95888.93465268986 ; 191110.06640548958 ; 4265970.039554253 ; 9876411.293481605 ; 14280.000000000002
61 ; 96738.7172704199 ; 192370.81830700394 ; 4361858.974206943 ; 1.0067521359887095E7 ; 14518.000000000002
62 ; 96539.07319901857 ; 193641.95056401822 ; 4458597.691477363 ; 1.0259892178194098E7 ; 14756.000000000002
63 ; 97224.82673387633 ; 194923.05841033452 ; 4555136.764676382 ; 1.0453534128758116E7 ; 14994.000000000002
64 ; 97868.99933655944 ; 196213.74905271071 ; 4652361.591410258 ; 1.0648457187168451E7 ; 15232.000000000002
65 ; 98361.91367059258 ; 197513.64138499647 ; 4750230.590746817 ; 1.0844670936221162E7 ; 15470.000000000002
66 ; 98653.93027984766 ; 198822.365695011 ; 4848592.50441741 ; 1.1042184577606158E7 ; 15708.000000000002
67 ; 98382.4879049806 ; 200139.5633662445 ; 4947246.434697257 ; 1.124100694330117E7 ; 15946.000000000002
68 ; 99163.64783648544 ; 201464.88657623716 ; 5045628.922602238 ; 1.1441146506667413E7 ; 16184.000000000002
69 ; 99421.95893006513 ; 202797.99799327337 ; 5144792.570438724 ; 1.164261139324365E7 ; 16422.000000000004
70 ; 99985.0629695272 ; 204138.57047283562 ; 5244214.529368789 ; 1.1845409391236924E7 ; 16660.000000000004
71 ; 100118.04360422482 ; 205486.28675508092 ; 5344199.592338316 ; 1.204954796170976E7 ; 16898.000000000004
72 ; 100374.1894732329 ; 206840.83916444064 ; 5444317.635942541 ; 1.2255034248464841E7 ; 17136.000000000004
73 ; 100944.35430987165 ; 208201.9293122936 ; 5544691.825415774 ; 1.2461875087629283E7 ; 17374.000000000004
74 ; 101065.69114785203 ; 209569.2678035284 ; 5645636.179725646 ; 1.2670077016941577E7 ; 17612.000000000004
75 ; 100917.40450113246 ; 210942.57394768792 ; 5746701.870873498 ; 1.2879646284745106E7 ; 17850.000000000004
76 ; 101236.12384797851 ; 212321.57547527924 ; 5847619.2753746305 ; 1.3090588858692795E7 ; 18088.000000000004
77 ; 101423.27269847662 ; 213706.00825973361 ; 5948855.399222609 ; 1.3302910434168074E7 ; 18326.000000000004
78 ; 101243.09080162414 ; 215095.61604541278 ; 6050278.671921086 ; 1.3516616442427808E7 ; 18564.000000000004
79 ; 101649.8330048866 ; 216490.15018197725 ; 6151521.76272271 ; 1.3731712058473222E7 ; 18802.000000000004
80 ; 101974.12787093356 ; 217889.36936536687 ; 6253171.595727596 ; 1.3948202208655199E7 ; 19040.000000000004
81 ; 101798.28739322131 ; 219293.03938557545 ; 6355145.72359853 ; 1.4166091578020565E7 ; 19278.000000000004
82 ; 102194.57235313675 ; 220700.93288135302 ; 6456944.010991751 ; 1.4385384617406141E7 ; 19516.000000000004
83 ; 102412.96814121882 ; 222112.82910191617 ; 6559138.583344888 ; 1.4606085550287494E7 ; 19754.000000000004
84 ; 102160.59481351772 ; 223528.51367570873 ; 6661551.551486107 ; 1.482819837938941E7 ; 19992.000000000004
85 ; 102391.3238483336 ; 224947.7783862154 ; 6763712.146299624 ; 1.505172689306512E7 ; 20230.000000000004
86 ; 102231.20377250349 ; 226370.42095480242 ; 6866103.470147957 ; 1.5276674671451334E7 ; 20468.000000000004
87 ; 102397.24745655613 ; 227796.24483052897 ; 6968334.673920461 ; 1.5503045092406137E7 ; 20706.000000000004
88 ; 101979.78100137333 ; 229225.05898685224 ; 7070731.921377017 ; 1.5730841337236665E7 ; 20944.000000000004
89 ; 102625.81171042196 ; 230656.67772512854 ; 7172711.70237839 ; 1.5960066396223517E7 ; 21182.000000000004
90 ; 102266.43666042623 ; 232090.92048479518 ; 7275337.514088812 ; 1.6190723073948646E7 ; 21420.000000000004
91 ; 101995.29625465392 ; 233527.6116601067 ; 7377603.950749239 ; 1.642281399443344E7 ; 21658.000000000004
92 ; 102286.93421813371 ; 234966.58042328432 ; 7479599.247003892 ; 1.6656341606093546E7 ; 21896.000000000004
93 ; 102208.0867174394 ; 236407.66055393178 ; 7581886.181222026 ; 1.689130818651683E7 ; 22134.000000000004
94 ; 101947.1931517559 ; 237850.69027456135 ; 7684094.267939466 ; 1.712771584707076E7 ; 22372.000000000004
95 ; 102050.80479622222 ; 239295.51209206932 ; 7786041.461091222 ; 1.7365566537345324E7 ; 22610.000000000004
96 ; 101833.59931590322 ; 240741.9726449962 ; 7888092.265887445 ; 1.7604862049437393E7 ; 22848.000000000004
97 ; 101234.52252908939 ; 242189.92255640472 ; 7989925.865203348 ; 1.784560402208239E7 ; 23086.000000000004
98 ; 101640.09705765882 ; 243639.21629220626 ; 8091160.387732438 ; 1.8087793944638792E7 ; 23324.000000000004
99 ; 101154.62278507304 ; 245089.71202476637 ; 8192800.484790097 ; 1.8331433160931E7 ; 23562.000000000004
100 ; 101158.75317916114 ; 246541.2715016218 ; 8293955.10757517 ; 1.8576522872955766E7 ; 23800.000000000004
101 ; 100885.69282003317 ; 247993.7599191398 ; 8395113.860754332 ; 1.882306414445739E7 ; 24038.000000000004
102 ; 100518.34240333176 ; 249447.0458009547 ; 8495999.553574365 ; 1.907105790437653E7 ; 24276.000000000004
103 ; 100277.35137555255 ; 250901.0008810176 ; 8596517.895977696 ; 1.9320504950177483E7 ; 24514.000000000004
104 ; 100086.7397580027 ; 252355.4999910986 ; 8696795.247353248 ; 1.95714059510585E7 ; 24752.000000000004
105 ; 99774.00390508123 ; 253810.4209525832 ; 8796881.987111252 ; 1.98237614510496E7 ; 24990.000000000004
106 ; 99565.81775352196 ; 255265.6444724088 ; 8896655.991016334 ; 2.0077571872002184E7 ; 25228.000000000004
107 ; 99037.29314830624 ; 256721.0540429902 ; 8996221.808769856 ; 2.0332837516474593E7 ; 25466.000000000004
108 ; 98835.05621995074 ; 258176.53584598633 ; 9095259.101918163 ; 2.0589558570517585E7 ; 25704.000000000004
109 ; 98436.82783675936 ; 259631.97865976655 ; 9194094.158138113 ; 2.0847735106363572E7 ; 25942.000000000004
110 ; 98161.51649809557 ; 261087.2737704356 ; 9292530.985974872 ; 2.110736708502334E7 ; 26180.000000000004
111 ; 97899.24011281643 ; 262542.3148862832 ; 9390692.502472969 ; 2.1368454358793776E7 ; 26418.000000000004
112 ; 97373.83448494229 ; 263996.99805552757 ; 9488591.742585786 ; 2.163099667368006E7 ; 26656.000000000004
113 ; 96632.36112290416 ; 265451.221587225 ; 9585965.577070728 ; 2.189499367173559E7 ; 26894.000000000004
114 ; 96381.28278024313 ; 266904.88597522397 ; 9682597.938193632 ; 2.2160444893322814E7 ; 27132.000000000004
115 ; 96171.00651951479 ; 268357.8938250451 ; 9778979.220973875 ; 2.2427349779298037E7 ; 27370.000000000004
116 ; 95228.79425261886 ; 269810.1497835722 ; 9875150.22749339 ; 2.2695707673123084E7 ; 27608.000000000004
117 ; 95007.77655137131 ; 271261.5604714441 ; 9970379.02174601 ; 2.2965517822906658E7 ; 27846.000000000004
118 ; 94384.77589978435 ; 272712.0344180413 ; 1.0065386798297381E7 ; 2.3236779383378103E7 ; 28084.000000000004
119 ; 93742.19316545942 ; 274161.4819989645 ; 1.0159771574197166E7 ; 2.3509491417796146E7 ; 28322.000000000004
120 ; 93383.76519764098 ; 275609.8153759062 ; 1.0253513767362624E7 ; 2.378365289979511E7 ; 28560.000000000004
121 ; 93121.13175706337 ; 277056.9484388205 ; 1.0346897532560265E7 ; 2.4059262715171017E7 ; 28798.000000000004
122 ; 92116.23278956521 ; 278502.7967503 ; 1.0440018664317328E7 ; 2.4336319663609836E7 ; 29036.000000000004
123 ; 91654.36576547977 ; 279947.27749207075 ; 1.0532134897106893E7 ; 2.4614822460360136E7 ; 29274.000000000004
124 ; 91039.2710077217 ; 281390.30941352225 ; 1.0623789262872374E7 ; 2.489476973785221E7 ; 29512.000000000004
125 ; 90363.82559158234 ; 282831.81278218987 ; 1.0714828533880096E7 ; 2.517616004726573E7 ; 29750.000000000004
126 ; 89714.02705030402 ; 284271.7093361125 ; 1.0805192359471679E7 ; 2.545899186004792E7 ; 29988.000000000004
127 ; 88902.20892083482 ; 285709.92223799054 ; 1.0894906386521982E7 ; 2.5743263569384035E7 ; 30226.000000000004
128 ; 88774.05067785135 ; 287146.376031071 ; 1.0983808595442817E7 ; 2.6028973491622027E7 ; 30464.000000000004
129 ; 87708.41113684984 ; 288580.99659669324 ; 1.1072582646120667E7 ; 2.6316119867653098E7 ; 30702.000000000004
130 ; 86917.49615668933 ; 290013.7111134255 ; 1.1160291057257518E7 ; 2.6604700864249792E7 ; 30940.000000000004
131 ; 86550.8688025158 ; 291444.4480177326 ; 1.1247208553414207E7 ; 2.689471457536322E7 ; 31178.000000000004
132 ; 85315.56492594385 ; 292873.1369661098 ; 1.1333759422216723E7 ; 2.718615902338095E7 ; 31416.000000000004
133 ; 84879.19361085075 ; 294299.70879862824 ; 1.1419074987142667E7 ; 2.747903216034706E7 ; 31654.000000000004
134 ; 83834.82692044882 ; 295724.095503832 ; 1.1503954180753518E7 ; 2.7773331869145688E7 ; 31892.000000000004
135 ; 82800.01290208465 ; 297146.2301849364 ; 1.1587789007673968E7 ; 2.806905596464952E7 ; 32130.000000000004
136 ; 82322.33218368808 ; 298566.0470272732 ; 1.1670589020576052E7 ; 2.8366202194834456E7 ; 32368.000000000004
137 ; 81392.53141116742 ; 299983.48126693524 ; 1.1752911352759741E7 ; 2.866476824186173E7 ; 32606.000000000004
138 ; 80420.51635053229 ; 301398.46916057135 ; 1.1834303884170908E7 ; 2.8964751723128665E7 ; 32844.00000000001
139 ; 79731.52309929192 ; 302810.94795628765 ; 1.191472440052144E7 ; 2.9266150192289237E7 ; 33082.00000000001
140 ; 78611.98278358293 ; 304220.85586561053 ; 1.1994455923620733E7 ; 2.9568961140245523E7 ; 33320.00000000001
141 ; 77806.7755996463 ; 305628.1320364699 ; 1.2073067906404315E7 ; 2.9873181996111132E7 ; 33558.00000000001
142 ; 77317.92892237235 ; 307032.7165271622 ; 1.215087468200396E7 ; 3.0178810128147602E7 ; 33796.00000000001
143 ; 76317.30727745553 ; 308434.55028125603 ; 1.2228192610926332E7 ; 3.0485842844674766E7 ; 34034.00000000001
144 ; 75326.06661005759 ; 309833.57510340196 ; 1.2304509918203788E7 ; 3.0794277394956023E7 ; 34272.00000000001
145 ; 74780.80445253849 ; 311229.7336360123 ; 1.2379835984813845E7 ; 3.1104110970059425E7 ; 34510.00000000001
146 ; 74708.72174414036 ; 312622.9693367762 ; 1.2454616789266383E7 ; 3.141534070369544E7 ; 34748.00000000001
147 ; 74725.19530707393 ; 314013.2264569785 ; 1.2529325511010524E7 ; 3.1727963673032217E7 ; 34986.00000000001
148 ; 74166.09396904442 ; 315400.4500205911 ; 1.2604050706317598E7 ; 3.2041976899489194E7 ; 35224.00000000001
149 ; 74287.10174098819 ; 316784.58580410597 ; 1.2678216800286643E7 ; 3.2357377349509787E7 ; 35462.00000000001
150 ; 73454.5415846918 ; 318165.5803170821 ; 1.2752503902027631E7 ; 3.267416193531389E7 ; 35700.00000000001
151 ; 73432.08762519213 ; 319543.3807833799 ; 1.2825958443612322E7 ; 3.2992327515630975E7 ; 35938.00000000001
152 ; 73306.19380281388 ; 320917.9351230541 ; 1.2899390531237515E7 ; 3.3311870896414354E7 ; 36176.00000000001
153 ; 72978.74165942254 ; 322289.1919348828 ; 1.2972696725040328E7 ; 3.363278883153741E7 ; 36414.00000000001
154 ; 72908.47361333643 ; 323657.1004795069 ; 1.3045675466699751E7 ; 3.3955078023472294E7 ; 36652.00000000001
155 ; 72446.46696933571 ; 325021.6106631568 ; 1.3118583940313088E7 ; 3.42787351239518E7 ; 36890.00000000001
156 ; 72288.83474768007 ; 326382.67302194505 ; 1.3191030407282423E7 ; 3.460375673461495E7 ; 37128.00000000001
157 ; 72173.56081955276 ; 327740.23870670213 ; 1.3263319242030103E7 ; 3.4930139407636896E7 ; 37366.00000000001
158 ; 71693.46655565283 ; 329094.2594683367 ; 1.3335492802849656E7 ; 3.52578796463436E7 ; 37604.00000000001
159 ; 71642.47563528053 ; 330444.687643699 ; 1.340718626940531E7 ; 3.5586973905811936E7 ; 37842.00000000001
160 ; 71298.003812355 ; 331791.47614192974 ; 1.347882874504059E7 ; 3.5917418593455635E7 ; 38080.00000000001
161 ; 71092.77217674171 ; 333134.5784312759 ; 1.3550126748852946E7 ; 3.6249210069597565E7 ; 38318.00000000001
162 ; 70289.36853747486 ; 334473.948526356 ; 1.3621219521029688E7 ; 3.658234464802884E7 ; 38556.00000000001
163 ; 70702.45299774298 ; 335809.5409758586 ; 1.3691508889567163E7 ; 3.6916818596555196E7 ; 38794.00000000001
164 ; 70169.97783637299 ; 337141.31085065776 ; 1.3762211342564905E7 ; 3.725262813753106E7 ; 39032.00000000001
165 ; 69932.42003942741 ; 338469.2137323298 ; 1.3832381320401277E7 ; 3.7589769448381715E7 ; 39270.00000000001
166 ; 69374.4950003816 ; 339793.20570205816 ; 1.3902313740440704E7 ; 3.792823866211405E7 ; 39508.00000000001
167 ; 69122.33287908688 ; 341113.2433299093 ; 1.3971688235441085E7 ; 3.8268031867816105E7 ; 39746.00000000001
168 ; 68546.98433615733 ; 342429.2836644694 ; 1.4040810568320172E7 ; 3.860914511114602E7 ; 39984.00000000001
169 ; 68391.7505565018 ; 343741.2842228268 ; 1.410935755265633E7 ; 3.895157439481049E7 ; 40222.00000000001
170 ; 68196.1914746153 ; 345049.2029808875 ; 1.4177749303212833E7 ; 3.929531567903332E7 ; 40460.00000000001
171 ; 67738.69649117015 ; 346352.9983640129 ; 1.4245945494687447E7 ; 3.964036488201421E7 ; 40698.00000000001
172 ; 67229.77548999261 ; 347652.6292379681 ; 1.4313684191178618E7 ; 3.9986717880378224E7 ; 40936.00000000001
173 ; 66758.8105825412 ; 348948.0549001676 ; 1.4380913966668611E7 ; 4.033437050961619E7 ; 41174.00000000001
174 ; 67165.85664509117 ; 350239.23507121124 ; 1.4447672777251152E7 ; 4.068331856451636E7 ; 41412.00000000001
175 ; 67669.9239213966 ; 351526.1298866967 ; 1.4514838633896243E7 ; 4.103355779958757E7 ; 41650.00000000001
176 ; 68050.55052201022 ; 352808.69988930074 ; 1.458250855781764E7 ; 4.1385083929474264E7 ; 41888.00000000001
177 ; 67570.43877908842 ; 354086.90602111944 ; 1.465055910833965E7 ; 4.173789262936357E7 ; 42126.00000000001
178 ; 68268.72130451091 ; 355360.70961625746 ; 1.4718129547118738E7 ; 4.2091979535384685E7 ; 42364.00000000001
179 ; 68550.14485969942 ; 356630.0723936588 ; 1.478639826842325E7 ; 4.244734024500094E7 ; 42602.00000000001
180 ; 68162.13135737338 ; 357894.9564501691 ; 1.485494841328295E7 ; 4.28039703173946E7 ; 42840.00000000001
181 ; 68518.6342375094 ; 359155.32425382326 ; 1.4923110544640323E7 ; 4.316186527384477E7 ; 43078.00000000001
182 ; 68469.00856205262 ; 360411.1386373488 ; 1.4991629178877832E7 ; 4.352102059809859E7 ; 43316.00000000001
