CSV File for the Network on Day 329
1 - Minute m 
2 - Power Consumed at minute m 
3 - Power Produced at minute m 
4 - Energy Consumed since the beginning of the day 
5 - Energy Produced since the beginning of the day 
6 - Energy Lost since the beginning of the day 
 
No Production city : 2, Producer : 1
No Production city : 4, Producer : 1
No Production city : 4, Producer : 1
 
0 ; 59689.499776325996 ; 217966.52648990075 ; 0.0 ; 0.0 ; 0.0
1 ; 60770.62234338363 ; 217611.35285863894 ; 59689.499776325996 ; 217966.52648990075 ; 238.00000000000003
2 ; 61442.893620281466 ; 217292.74126127205 ; 120460.12211970962 ; 435577.8793485397 ; 476.00000000000006
3 ; 62231.98959648462 ; 217010.96222391797 ; 181903.0157399911 ; 652870.6206098117 ; 714.0000000000001
4 ; 63140.82811524824 ; 216766.25698040298 ; 244135.00533647573 ; 869881.5828337297 ; 952.0000000000001
5 ; 63550.10593357689 ; 216558.83654923603 ; 307275.833451724 ; 1086647.8398141325 ; 1190.0000000000002
6 ; 64611.386959267074 ; 216388.8809157198 ; 370825.93938530085 ; 1303206.6763633685 ; 1428.0000000000002
7 ; 65515.781870718136 ; 216256.538326594 ; 435437.32634456793 ; 1519595.5572790883 ; 1666.0000000000002
8 ; 66331.42076920511 ; 216161.92470368705 ; 500953.10821528605 ; 1735852.0956056823 ; 1904.0000000000002
9 ; 67001.7661504697 ; 216105.12318202856 ; 567284.5289844911 ; 1952014.0203093693 ; 2142.0000000000005
10 ; 67800.35147544791 ; 216086.18377676437 ; 634286.2951349608 ; 2168119.143491398 ; 2380.0000000000005
11 ; 68756.82941832351 ; 216105.12318202856 ; 702086.6466104087 ; 2384205.3272681623 ; 2618.0000000000005
12 ; 69216.35007993523 ; 216161.92470368705 ; 770843.4760287321 ; 2600310.450450191 ; 2856.0000000000005
13 ; 70438.71980735575 ; 216256.538326594 ; 840059.8261086674 ; 2816472.375153878 ; 3094.0000000000005
14 ; 71247.82273929908 ; 216388.88091571972 ; 910498.5459160232 ; 3032728.913480472 ; 3332.0000000000005
15 ; 71933.04542512636 ; 216558.83654923603 ; 981746.3686553222 ; 3249117.7943961914 ; 3570.0000000000005
16 ; 72154.43206348471 ; 216766.25698040298 ; 1053679.4140804487 ; 3465676.6309454273 ; 3808.0000000000005
17 ; 72907.91111493405 ; 217010.96222391792 ; 1125833.8461439335 ; 3682442.88792583 ; 4046.0000000000005
18 ; 73776.07662306959 ; 217292.74126127205 ; 1198741.7572588676 ; 3899453.850149748 ; 4284.000000000001
19 ; 74653.39421553542 ; 217611.35285863886 ; 1272517.8338819372 ; 4116746.59141102 ; 4522.000000000001
20 ; 74975.23768298712 ; 217966.5264899008 ; 1347171.2280974726 ; 4334357.944269659 ; 4760.000000000001
21 ; 75530.32525858394 ; 218357.96335662433 ; 1422146.4657804598 ; 4552324.470759559 ; 4998.000000000001
22 ; 76107.37539582187 ; 218785.33749612124 ; 1497676.7910390438 ; 4770682.434116184 ; 5236.000000000001
23 ; 76968.79542683592 ; 219248.29696819966 ; 1573784.1664348657 ; 4989467.771612305 ; 5474.000000000001
24 ; 78033.72542230129 ; 219746.46511081 ; 1650752.9618617017 ; 5208716.0685805045 ; 5712.000000000001
25 ; 79001.14856581924 ; 220279.44185453042 ; 1728786.687284003 ; 5428462.533691315 ; 5950.000000000001
26 ; 79340.05366727395 ; 220846.80508571528 ; 1807787.8358498223 ; 5648741.975545845 ; 6188.000000000001
27 ; 79823.15880188042 ; 221448.11204813403 ; 1887127.8895170963 ; 5869588.78063156 ; 6426.000000000001
28 ; 80315.19206154163 ; 222082.90077306016 ; 1966951.0483189768 ; 6091036.892679694 ; 6664.000000000001
29 ; 81194.43430307604 ; 222750.69152801443 ; 2047266.2403805184 ; 6313119.793452755 ; 6902.000000000001
30 ; 81844.64704657775 ; 223450.9882747112 ; 2128460.6746835946 ; 6535870.484980769 ; 7140.000000000001
31 ; 82241.07937744117 ; 224183.28012719666 ; 2210305.3217301723 ; 6759321.473255481 ; 7378.000000000001
32 ; 82804.08073982701 ; 224947.0428016812 ; 2292546.4011076135 ; 6983504.753382677 ; 7616.000000000001
33 ; 83531.16752757836 ; 225741.740050147 ; 2375350.4818474404 ; 7208451.796184358 ; 7854.000000000001
34 ; 83973.51076942461 ; 226566.82507044036 ; 2458881.6493750187 ; 7434193.5362345055 ; 8092.000000000001
35 ; 84606.24205036586 ; 227421.74188622463 ; 2542855.160144443 ; 7660760.361304946 ; 8330.000000000002
36 ; 84456.35668266355 ; 228305.92669085885 ; 2627461.402194809 ; 7888182.103191171 ; 8568.000000000002
37 ; 85401.87590183014 ; 229218.8091499673 ; 2711917.758877473 ; 8116488.02988203 ; 8806.000000000002
38 ; 85676.1819998603 ; 230159.81365816898 ; 2797319.634779303 ; 8345706.839031997 ; 9044.000000000002
39 ; 86966.71831577693 ; 231128.36054612862 ; 2882995.816779163 ; 8575866.652690167 ; 9282.000000000002
40 ; 86965.09970320496 ; 232123.86723476314 ; 2969962.53509494 ; 8806995.013236295 ; 9520.000000000002
41 ; 87339.09630643083 ; 233145.74933408995 ; 3056927.634798145 ; 9039118.880471058 ; 9758.000000000002
42 ; 87712.55935712333 ; 234193.4216848179 ; 3144266.7311045756 ; 9272264.629805148 ; 9996.000000000002
43 ; 88339.50965415082 ; 235266.29934136305 ; 3231979.290461699 ; 9506458.051489966 ; 10234.000000000002
44 ; 88739.8094018166 ; 236363.79849550914 ; 3320318.80011585 ; 9741724.35083133 ; 10472.000000000002
45 ; 89188.09355345606 ; 237485.33734043138 ; 3409058.6095176665 ; 9978088.149326839 ; 10710.000000000002
46 ; 89367.55534387617 ; 238630.33687524835 ; 3498246.7030711225 ; 1.021557348666727E7 ; 10948.000000000002
47 ; 90029.81888488572 ; 239798.22165067474 ; 3587614.2584149987 ; 1.0454203823542519E7 ; 11186.000000000002
48 ; 90322.73807695188 ; 240988.42045670474 ; 3677644.0772998845 ; 1.0694002045193193E7 ; 11424.000000000002
49 ; 90417.02876751572 ; 242200.36695356853 ; 3767966.8153768363 ; 1.09349904656499E7 ; 11662.000000000002
50 ; 91110.77735899195 ; 243433.50024747627 ; 3858383.8441443522 ; 1.1177190832603468E7 ; 11900.000000000002
51 ; 91519.75873210674 ; 244687.26541288866 ; 3949494.6215033443 ; 1.1420624332850944E7 ; 12138.000000000002
52 ; 91710.37415126454 ; 245961.113963244 ; 4041014.380235451 ; 1.1665311598263834E7 ; 12376.000000000002
53 ; 92122.29387690168 ; 247254.50427222138 ; 4132724.754386715 ; 1.1911272712227078E7 ; 12614.000000000002
54 ; 92538.93983499071 ; 248566.90194773625 ; 4224847.048263617 ; 1.2158527216499299E7 ; 12852.000000000002
55 ; 92737.87577210477 ; 249897.78016094974 ; 4317385.988098607 ; 1.2407094118447036E7 ; 13090.000000000002
56 ; 93006.95714740778 ; 251246.6199326319 ; 4410123.863870712 ; 1.2656991898607986E7 ; 13328.000000000002
57 ; 93803.33854242 ; 252612.91037924553 ; 4503130.821018119 ; 1.2908238518540617E7 ; 13566.000000000002
58 ; 93974.5149080324 ; 253996.1489211305 ; 4596934.15956054 ; 1.3160851428919863E7 ; 13804.000000000002
59 ; 93850.37267533099 ; 255395.8414551531 ; 4690908.674468572 ; 1.3414847577840993E7 ; 14042.000000000002
60 ; 94284.8067640353 ; 256811.5024941573 ; 4784759.047143904 ; 1.3670243419296145E7 ; 14280.000000000002
61 ; 94335.80220167889 ; 258242.65527551048 ; 4879043.853907939 ; 1.3927054921790302E7 ; 14518.000000000002
62 ; 94889.50444110107 ; 259688.83184097972 ; 4973379.656109618 ; 1.4185297577065812E7 ; 14756.000000000002
63 ; 94754.33464237559 ; 261149.57309010753 ; 5068269.160550719 ; 1.4444986408906791E7 ; 14994.000000000002
64 ; 95177.74007841693 ; 262624.4288091805 ; 5163023.495193095 ; 1.47061359819969E7 ; 15232.000000000002
65 ; 95454.29794459882 ; 264112.9576778036 ; 5258201.235271512 ; 1.496876041080608E7 ; 15470.000000000002
66 ; 95583.18504331767 ; 265614.72725500446 ; 5353655.53321611 ; 1.5232873368483884E7 ; 15708.000000000002
67 ; 95473.04449060111 ; 267129.31394670194 ; 5449238.718259428 ; 1.5498488095738888E7 ; 15946.000000000002
68 ; 95366.67295002688 ; 268656.3029562833 ; 5544711.762750029 ; 1.576561740968559E7 ; 16184.000000000002
69 ; 95973.08965204548 ; 270195.2882199349 ; 5640078.435700055 ; 1.6034273712641872E7 ; 16422.000000000004
70 ; 96255.18318626689 ; 271745.872328285 ; 5736051.525352101 ; 1.6304469000861807E7 ; 16660.000000000004
71 ; 96392.60114119238 ; 273307.6664358175 ; 5832306.708538367 ; 1.6576214873190092E7 ; 16898.000000000004
72 ; 96864.66384912343 ; 274880.29015942814 ; 5928699.309679559 ; 1.684952253962591E7 ; 17136.000000000004
73 ; 96768.40854071753 ; 276463.3714674021 ; 6025563.973528683 ; 1.7124402829785336E7 ; 17374.000000000004
74 ; 96428.73898671368 ; 278056.5465600074 ; 6122332.3820694005 ; 1.7400866201252736E7 ; 17612.000000000004
75 ; 96923.58073598884 ; 279659.4597428111 ; 6218761.121056114 ; 1.7678922747812744E7 ; 17850.000000000004
76 ; 97100.4660728088 ; 281271.7632937473 ; 6315684.701792103 ; 1.7958582207555555E7 ; 18088.000000000004
77 ; 97389.13838188678 ; 282893.1173248837 ; 6412785.167864912 ; 1.82398539708493E7 ; 18326.000000000004
78 ; 97221.70764960817 ; 284523.18963976507 ; 6510174.306246799 ; 1.8522747088174187E7 ; 18564.000000000004
79 ; 96868.05173477685 ; 286161.65558713453 ; 6607396.013896408 ; 1.8807270277813952E7 ; 18802.000000000004
80 ; 97481.70204274732 ; 287808.1979117723 ; 6704264.065631185 ; 1.9093431933401085E7 ; 19040.000000000004
81 ; 97541.33833770649 ; 289462.5066031242 ; 6801745.767673932 ; 1.938124013131286E7 ; 19278.000000000004
82 ; 97454.69468577162 ; 291124.27874233434 ; 6899287.106011638 ; 1.9670702637915984E7 ; 19516.000000000004
83 ; 97056.94995683794 ; 292793.2183482406 ; 6996741.8006974105 ; 1.996182691665832E7 ; 19754.000000000004
84 ; 97250.59311963402 ; 294469.03622283635 ; 7093798.7506542485 ; 2.0254620135006562E7 ; 19992.000000000004
85 ; 97865.14636808468 ; 296151.44979665824 ; 7191049.343773883 ; 2.05490891712294E7 ; 20230.000000000004
86 ; 96983.9381700982 ; 297840.18297450605 ; 7288914.490141967 ; 2.0845240621026058E7 ; 20468.000000000004
87 ; 97397.03114799006 ; 299534.96598186553 ; 7385898.428312065 ; 2.1143080804000564E7 ; 20706.000000000004
88 ; 97179.59494256941 ; 301235.5352123617 ; 7483295.459460055 ; 2.144261576998243E7 ; 20944.000000000004
89 ; 97063.5264108616 ; 302941.6330765347 ; 7580475.054402625 ; 2.174385130519479E7 ; 21182.000000000004
90 ; 97568.16027514658 ; 304653.0078521932 ; 7677538.580813487 ; 2.2046792938271325E7 ; 21420.000000000004
91 ; 97597.97277974023 ; 306369.4135365768 ; 7775106.741088633 ; 2.2351445946123518E7 ; 21658.000000000004
92 ; 96764.39557170063 ; 308090.609700521 ; 7872704.713868374 ; 2.2657815359660096E7 ; 21896.000000000004
93 ; 96579.47211884192 ; 309816.3613447979 ; 7969469.109440074 ; 2.2965905969360616E7 ; 22134.000000000004
94 ; 96569.12208340461 ; 311546.43875878025 ; 8066048.581558916 ; 2.3275722330705415E7 ; 22372.000000000004
95 ; 96418.9989021591 ; 313280.6173815533 ; 8162617.703642321 ; 2.3587268769464195E7 ; 22610.000000000004
96 ; 96281.30987017037 ; 315018.67766557937 ; 8259036.70254448 ; 2.390054938684575E7 ; 22848.000000000004
97 ; 97033.98692166888 ; 316760.4049430025 ; 8355318.01241465 ; 2.421556806451133E7 ; 23086.000000000004
98 ; 96179.63610128518 ; 318505.58929466223 ; 8452351.999336319 ; 2.4532328469454333E7 ; 23324.000000000004
99 ; 96524.157966871 ; 320254.02542187157 ; 8548531.635437604 ; 2.4850834058748994E7 ; 23562.000000000004
100 ; 96193.60759154032 ; 322005.5125210009 ; 8645055.793404475 ; 2.5171088084170867E7 ; 23800.000000000004
101 ; 96128.95357506216 ; 323759.8541608956 ; 8741249.400996014 ; 2.549309359669187E7 ; 24038.000000000004
102 ; 95816.22718243323 ; 325516.8581631448 ; 8837378.354571076 ; 2.5816853450852767E7 ; 24276.000000000004
103 ; 95689.63251640549 ; 327276.3364852115 ; 8933194.58175351 ; 2.614237030901591E7 ; 24514.000000000004
104 ; 95349.86838608616 ; 329038.1051064185 ; 9028884.214269914 ; 2.6469646645501122E7 ; 24752.000000000004
105 ; 95007.80179405412 ; 330801.98391678534 ; 9124234.082656 ; 2.679868475060754E7 ; 24990.000000000004
106 ; 94568.5052981935 ; 332567.7966086974 ; 9219241.884450054 ; 2.7129486734524325E7 ; 25228.000000000004
107 ; 94486.54013840854 ; 334335.37057138607 ; 9313810.389748247 ; 2.7462054531133022E7 ; 25466.000000000004
108 ; 94336.37008773103 ; 336104.5367881912 ; 9408296.929886656 ; 2.779638990170441E7 ; 25704.000000000004
109 ; 93826.95382360721 ; 337875.1297365739 ; 9502633.299974388 ; 2.81324944384926E7 ; 25942.000000000004
110 ; 93946.01567271317 ; 339646.9872908433 ; 9596460.253797995 ; 2.8470369568229172E7 ; 26180.000000000004
111 ; 93881.93503656817 ; 341419.9506275555 ; 9690406.269470708 ; 2.8810016555520017E7 ; 26418.000000000004
112 ; 92634.42771298817 ; 343193.864133543 ; 9784288.204507276 ; 2.915143650614757E7 ; 26656.000000000004
113 ; 93226.1607775916 ; 344968.5753165273 ; 9876922.632220265 ; 2.9494630370281115E7 ; 26894.000000000004
114 ; 93035.82470805704 ; 346743.9347182668 ; 9970148.792997856 ; 2.983959894559764E7 ; 27132.000000000004
115 ; 92695.02015737974 ; 348519.79583019123 ; 1.0063184617705913E7 ; 3.0186342880315907E7 ; 27370.000000000004
116 ; 91751.2698500118 ; 350296.01501146867 ; 1.0155879637863293E7 ; 3.0534862676146097E7 ; 27608.000000000004
117 ; 91453.9671214605 ; 352072.45140945597 ; 1.0247630907713305E7 ; 3.0885158691157565E7 ; 27846.000000000004
118 ; 91111.89068486937 ; 353848.96688247565 ; 1.0339084874834767E7 ; 3.123723114256702E7 ; 28084.000000000004
119 ; 91061.27665596931 ; 355625.4259248687 ; 1.0430196765519636E7 ; 3.1591080109449495E7 ; 28322.000000000004
120 ; 90745.65236545488 ; 357401.6955942663 ; 1.0521258042175606E7 ; 3.1946705535374362E7 ; 28560.000000000004
121 ; 90185.14964138623 ; 359177.6454410275 ; 1.0612003694541061E7 ; 3.2304107230968628E7 ; 28798.000000000004
122 ; 89865.12499223556 ; 360953.1474397888 ; 1.0702188844182447E7 ; 3.2663284876409657E7 ; 29036.000000000004
123 ; 89274.1536766554 ; 362728.0759230695 ; 1.0792053969174683E7 ; 3.3024238023849446E7 ; 29274.000000000004
124 ; 88827.19838482261 ; 364502.30751688057 ; 1.0881328122851338E7 ; 3.3386966099772517E7 ; 29512.000000000004
125 ; 88136.24981756872 ; 366275.7210782835 ; 1.0970155321236162E7 ; 3.37514684072894E7 ; 29750.000000000004
126 ; 88220.29347369976 ; 368048.19763484504 ; 1.105829157105373E7 ; 3.4117744128367685E7 ; 29988.000000000004
127 ; 87345.47261265387 ; 369819.6203259366 ; 1.114651186452743E7 ; 3.448579232600253E7 ; 30226.000000000004
128 ; 86853.73677155966 ; 371589.87434582727 ; 1.1233857337140085E7 ; 3.485561194632847E7 ; 30464.000000000004
129 ; 86966.74576603397 ; 373358.8468885174 ; 1.1320711073911645E7 ; 3.522720182067429E7 ; 30702.000000000004
130 ; 86395.15264016793 ; 375126.4270942649 ; 1.1407677819677679E7 ; 3.560056066756281E7 ; 30940.000000000004
131 ; 85625.11737411696 ; 376892.5059977567 ; 1.1494072972317846E7 ; 3.597568709465708E7 ; 31178.000000000004
132 ; 85376.15030972392 ; 378656.9764778719 ; 1.1579698089691963E7 ; 3.635257960065483E7 ; 31416.000000000004
133 ; 84874.82045590888 ; 380419.73320899636 ; 1.1665074240001688E7 ; 3.67312365771327E7 ; 31654.000000000004
134 ; 84336.09907923921 ; 382180.6726138375 ; 1.1749949060457597E7 ; 3.71116563103417E7 ; 31892.000000000004
135 ; 83606.16982204615 ; 383939.69281769695 ; 1.1834285159536837E7 ; 3.749383698295554E7 ; 32130.000000000004
136 ; 83097.21197380396 ; 385696.6936041566 ; 1.1917891329358883E7 ; 3.787777667577323E7 ; 32368.000000000004
137 ; 82589.50376450126 ; 387451.57637213427 ; 1.2000988541332686E7 ; 3.826347336937739E7 ; 32606.000000000004
138 ; 81908.05311240155 ; 389204.24409426865 ; 1.2083578045097187E7 ; 3.865092494574952E7 ; 32844.00000000001
139 ; 81249.49125554312 ; 390954.6012765914 ; 1.2165486098209588E7 ; 3.904012918984379E7 ; 33082.00000000001
140 ; 80954.57127419255 ; 392702.55391944747 ; 1.224673558946513E7 ; 3.943108379112038E7 ; 33320.00000000001
141 ; 80313.90872974481 ; 394448.0094796247 ; 1.2327690160739323E7 ; 3.982378634503983E7 ; 33558.00000000001
142 ; 79738.16138364663 ; 396190.8768336548 ; 1.2408004069469068E7 ; 4.021823435451946E7 ; 33796.00000000001
143 ; 79513.17537938745 ; 397931.0662422505 ; 1.2487742230852716E7 ; 4.061442523135311E7 ; 34034.00000000001
144 ; 78833.9885681545 ; 399668.48931584076 ; 1.2567255406232104E7 ; 4.101235629759536E7 ; 34272.00000000001
145 ; 78360.2757061237 ; 401403.0589811724 ; 1.2646089394800259E7 ; 4.14120247869112E7 ; 34510.00000000001
146 ; 78003.46738514675 ; 403134.68944894243 ; 1.2724449670506382E7 ; 4.181342784589237E7 ; 34748.00000000001
147 ; 77829.39377060547 ; 404863.29618242965 ; 1.280245313789153E7 ; 4.2216562535341315E7 ; 34986.00000000001
148 ; 77868.52550699603 ; 406588.7958670937 ; 1.2880282531662134E7 ; 4.2621425831523746E7 ; 35224.00000000001
149 ; 77479.60013984056 ; 408311.1063811104 ; 1.295815105716913E7 ; 4.302801462739084E7 ; 35462.00000000001
150 ; 77776.22527634382 ; 410030.14676681417 ; 1.3035630657308972E7 ; 4.343632573377195E7 ; 35700.00000000001
151 ; 77078.7833309449 ; 411745.8372030193 ; 1.3113406882585315E7 ; 4.384635588053876E7 ; 35938.00000000001
152 ; 77280.30618326813 ; 413458.09897819045 ; 1.319048566591626E7 ; 4.425810171774178E7 ; 36176.00000000001
153 ; 77118.92704293056 ; 415166.8544644364 ; 1.3267765972099528E7 ; 4.467155981671997E7 ; 36414.00000000001
154 ; 76708.67916254429 ; 416872.0270923014 ; 1.3344884899142459E7 ; 4.5086726671184406E7 ; 36652.00000000001
155 ; 76089.54227310172 ; 418573.5413263275 ; 1.3421593578305004E7 ; 4.5503598698276706E7 ; 36890.00000000001
156 ; 76020.3363528447 ; 420271.32264136325 ; 1.3497683120578106E7 ; 4.5922172239603035E7 ; 37128.00000000001
157 ; 75787.63113822017 ; 421965.2974995965 ; 1.357370345693095E7 ; 4.63424435622444E7 ; 37366.00000000001
158 ; 75988.57368278505 ; 423655.3933282861 ; 1.364949108806917E7 ; 4.6764408859744E7 ; 37604.00000000001
159 ; 75704.51178327514 ; 425341.53849817207 ; 1.3725479661751956E7 ; 4.7188064253072284E7 ; 37842.00000000001
160 ; 75386.38307424425 ; 427023.66230254085 ; 1.3801184173535232E7 ; 4.7613405791570455E7 ; 38080.00000000001
161 ; 75460.00202872176 ; 428701.69493692636 ; 1.3876570556609476E7 ; 4.804042945387299E7 ; 38318.00000000001
162 ; 75024.83353352392 ; 430375.5674794256 ; 1.3952030558638198E7 ; 4.846913114880992E7 ; 38556.00000000001
163 ; 74691.906352332 ; 432045.2118716093 ; 1.4027055392171722E7 ; 4.889950671628934E7 ; 38794.00000000001
164 ; 74380.97100282786 ; 433710.56090000866 ; 1.4101747298524054E7 ; 4.933155192816095E7 ; 39032.00000000001
165 ; 74596.18089543152 ; 435371.5481781607 ; 1.4176128269526882E7 ; 4.976526248906096E7 ; 39270.00000000001
166 ; 74266.98374257391 ; 437028.10812919296 ; 1.4250724450422313E7 ; 5.020063403723912E7 ; 39508.00000000001
167 ; 73642.60802852063 ; 438680.1759689319 ; 1.4324991434164887E7 ; 5.0637662145368315E7 ; 39746.00000000001
168 ; 73681.1996778809 ; 440327.6876895168 ; 1.4398634042193407E7 ; 5.1076342321337245E7 ; 39984.00000000001
169 ; 73346.60680405019 ; 441970.5800435052 ; 1.4472315241871288E7 ; 5.1516670009026766E7 ; 40222.00000000001
170 ; 72725.78281527219 ; 443608.7905284517 ; 1.4545661848675339E7 ; 5.195864058907027E7 ; 40460.00000000001
171 ; 72096.9035679229 ; 445242.25737194787 ; 1.461838763149061E7 ; 5.240224937959872E7 ; 40698.00000000001
172 ; 72467.11654799488 ; 446870.91951710684 ; 1.4690484535058534E7 ; 5.284749163697067E7 ; 40936.00000000001
173 ; 71941.50274099155 ; 448494.7166084786 ; 1.4762951651606528E7 ; 5.329436255648778E7 ; 41174.00000000001
174 ; 72477.02357237528 ; 450113.5889783846 ; 1.483489315434752E7 ; 5.3742857273096256E7 ; 41412.00000000001
175 ; 72559.74753035422 ; 451727.47763365426 ; 1.4907370177919896E7 ; 5.419297086207464E7 ; 41650.00000000001
176 ; 72300.28837144937 ; 453336.324242756 ; 1.497992992545025E7 ; 5.46446983397083E7 ; 41888.00000000001
177 ; 72248.06870722768 ; 454940.0711233057 ; 1.50522302138217E7 ; 5.5098034663951054E7 ; 42126.00000000001
178 ; 72353.25065701536 ; 456538.6612299442 ; 1.5124478282528928E7 ; 5.5552974735074356E7 ; 42364.00000000001
179 ; 72783.27467510987 ; 458132.03814256995 ; 1.5196831533185942E7 ; 5.60095133963043E7 ; 42602.00000000001
180 ; 72728.35775028873 ; 459720.14605491713 ; 1.5269614807861052E7 ; 5.646764543444687E7 ; 42840.00000000001
181 ; 73105.47862699753 ; 461302.9297634682 ; 1.5342343165611342E7 ; 5.692736558050179E7 ; 43078.00000000001
182 ; 72753.32177412372 ; 462880.3346566905 ; 1.541544864423834E7 ; 5.738866851026525E7 ; 43316.00000000001
