CSV File for the Network on Day 223
1 - Minute m 
2 - Power Consumed at minute m 
3 - Power Produced at minute m 
4 - Energy Consumed since the beginning of the day 
5 - Energy Produced since the beginning of the day 
6 - Energy Lost since the beginning of the day 
 
0 ; 502579.5653303047 ; 2.105118775338496E8 ; 0.0 ; 0.0 ; 0.0
1 ; 507739.0295135746 ; 2.1081401133215207E8 ; 502579.5653303047 ; 2.105118775338496E8 ; 356.14
2 ; 512873.981989827 ; 2.1173391004310316E8 ; 1010318.5948438793 ; 4.2132588886600167E8 ; 712.28
3 ; 516808.04310497676 ; 2.1327162485926592E8 ; 1523192.5768337063 ; 6.330597989091048E8 ; 1068.42
4 ; 522579.83775809174 ; 2.1542720888076603E8 ; 2040000.6199386832 ; 8.463314237683707E8 ; 1424.56
5 ; 526224.4907815102 ; 2.1820071560750097E8 ; 2562580.457696775 ; 1.0617586326491368E9 ; 1780.6999999999998
6 ; 531122.8096660235 ; 2.2159219693787372E8 ; 3088804.948478285 ; 1.2799593482566378E9 ; 2136.8399999999997
7 ; 538224.5910131487 ; 2.256017007395658E8 ; 3619927.758144309 ; 1.5015515451945114E9 ; 2492.9799999999996
8 ; 540433.5203102699 ; 2.302292681635589E8 ; 4158152.3491574572 ; 1.7271532459340773E9 ; 2849.1199999999994
9 ; 545444.5832435442 ; 2.354749309808095E8 ; 4698585.869467727 ; 1.9573825140976362E9 ; 3205.2599999999993
10 ; 549671.0903212653 ; 2.41338709295659E8 ; 5244030.452711271 ; 2.192857445078446E9 ; 3561.399999999999
11 ; 552886.2593721767 ; 2.4782060999315524E8 ; 5793701.543032536 ; 2.434196154374105E9 ; 3917.539999999999
12 ; 556661.4956434699 ; 2.549206261882503E8 ; 6346587.802404713 ; 2.68201676436726E9 ; 4273.679999999999
13 ; 558243.0423756785 ; 2.626387377766028E8 ; 6903249.298048182 ; 2.9369373905555105E9 ; 4629.82
14 ; 563640.1987462074 ; 2.709749129872564E8 ; 7461492.340423861 ; 3.1995761283321133E9 ; 4985.96
15 ; 569412.6761790488 ; 2.7992911066922927E8 ; 8025132.539170068 ; 3.47055104131937E9 ; 5342.1
16 ; 570351.2248493981 ; 2.8950128295484006E8 ; 8594545.215349117 ; 3.750480151988599E9 ; 5698.240000000001
17 ; 575611.3882534046 ; 2.996913779456856E8 ; 9164896.440198515 ; 4.039981434943439E9 ; 6054.380000000001
18 ; 578049.1640775445 ; 3.104993421418686E8 ; 9740507.828451918 ; 4.339672812889125E9 ; 6410.520000000001
19 ; 582603.1276110768 ; 3.219251224432632E8 ; 1.0318556992529463E7 ; 4.650172155030993E9 ; 6766.660000000002
20 ; 586102.8989423076 ; 3.339686676573063E8 ; 1.090116012014054E7 ; 4.9720972774742565E9 ; 7122.800000000002
21 ; 589559.4604743816 ; 3.4662992952870834E8 ; 1.1487263019082848E7 ; 5.306065945131563E9 ; 7478.940000000002
22 ; 595164.702371013 ; 3.5990886335559154E8 ; 1.207682247955723E7 ; 5.652695874660272E9 ; 7835.080000000003
23 ; 598767.3135011639 ; 3.7380542827753174E8 ; 1.2671987181928242E7 ; 6.012604738015863E9 ; 8191.220000000003
24 ; 603800.2881778427 ; 3.883195873221133E8 ; 1.3270754495429406E7 ; 6.386410166293395E9 ; 8547.360000000002
25 ; 607996.267332217 ; 4.0082738908282423E8 ; 1.3874554783607248E7 ; 6.774729753615508E9 ; 8903.500000000002
26 ; 610469.1021031578 ; 4.008358995710034E8 ; 1.4482551050939465E7 ; 7.175557142698332E9 ; 9259.640000000001
27 ; 614870.5284615427 ; 4.008446309868548E8 ; 1.5093020153042622E7 ; 7.576393042269335E9 ; 9615.78
28 ; 619648.8350186152 ; 4.0085355991021055E8 ; 1.5707890681504164E7 ; 7.977237673256189E9 ; 9971.92
29 ; 623350.5933469131 ; 4.0086266558235633E8 ; 1.632753951652278E7 ; 8.3780912331664E9 ; 10328.06
30 ; 624010.5044729256 ; 4.0087192961337984E8 ; 1.6950890109869692E7 ; 8.778953898748756E9 ; 10684.199999999999
31 ; 627909.2032199393 ; 4.008813357095208E8 ; 1.757490061434262E7 ; 9.179825828362137E9 ; 11040.339999999998
32 ; 631901.6163884097 ; 4.008908694244509E8 ; 1.8202809817562558E7 ; 9.580707164071657E9 ; 11396.479999999998
33 ; 636017.3598711086 ; 4.009005179357337E8 ; 1.8834711433950968E7 ; 9.981598033496109E9 ; 11752.619999999997
34 ; 638161.2714576127 ; 4.00910269846043E8 ; 1.9470728793822076E7 ; 1.0382498551431843E10 ; 12108.759999999997
35 ; 643006.1229936227 ; 4.0092011500773644E8 ; 2.010889006527969E7 ; 1.0783408821277885E10 ; 12464.899999999996
36 ; 646725.570416836 ; 4.009300443688742E8 ; 2.075189618827331E7 ; 1.1184328936285622E10 ; 12821.039999999995
37 ; 648198.7435396048 ; 4.0094004983856225E8 ; 2.1398621758690145E7 ; 1.1585258980654495E10 ; 13177.179999999995
38 ; 653120.8134701959 ; 4.009501241694852E8 ; 2.204682050222975E7 ; 1.1986199030493057E10 ; 13533.319999999994
39 ; 656615.5227936235 ; 4.0096026085558486E8 ; 2.2699941315699946E7 ; 1.2387149154662542E10 ; 13889.459999999994
40 ; 658171.9310727977 ; 4.009704540429968E8 ; 2.335655683849357E7 ; 1.2788109415518127E10 ; 14245.599999999993
41 ; 660991.0299851432 ; 4.009806984525383E8 ; 2.401472876956637E7 ; 1.3189079869561125E10 ; 14601.739999999993
42 ; 662965.2943599533 ; 4.0099098931222534E8 ; 2.4675719799551513E7 ; 1.3590060568013662E10 ; 14957.879999999992
43 ; 667446.0440830808 ; 4.010013222984823E8 ; 2.5338685093911465E7 ; 1.3991051557325888E10 ; 15314.019999999991
44 ; 669081.6254835281 ; 4.010116934848741E8 ; 2.6006131137994546E7 ; 1.439205287962437E10 ; 15670.15999999999
45 ; 672258.567865686 ; 4.010220992973448E8 ; 2.6675212763478074E7 ; 1.4793064573109245E10 ; 16026.29999999999
46 ; 676527.5886805063 ; 4.010325364750833E8 ; 2.734747133134376E7 ; 1.519408667240659E10 ; 16382.43999999999
47 ; 679562.4328153711 ; 4.010430020362592E8 ; 2.8023998920024265E7 ; 1.5595119208881672E10 ; 16738.57999999999
48 ; 682694.9385556175 ; 4.010534932479725E8 ; 2.8703561352839634E7 ; 1.599616221091793E10 ; 17094.71999999999
49 ; 682500.0952808321 ; 4.0106400759985733E8 ; 2.938625629139525E7 ; 1.6397215704165903E10 ; 17450.85999999999
50 ; 685891.0511857992 ; 4.0107454278085446E8 ; 3.0068756386676084E7 ; 1.679827971176576E10 ; 17806.99999999999
51 ; 687362.5245594737 ; 4.01085096658736E8 ; 3.0754647437861882E7 ; 1.7199354254546616E10 ; 18163.13999999999
52 ; 690460.4949079052 ; 4.0109566726202583E8 ; 3.1442009962421358E7 ; 1.7600439351205353E10 ; 18519.279999999988
53 ; 690620.5846388327 ; 4.011062527640059E8 ; 3.2132470457329262E7 ; 1.8001535018467377E10 ; 18875.419999999987
54 ; 695305.0175434715 ; 4.011168514685422E8 ; 3.2823091041968096E7 ; 1.8402641271231384E10 ; 19231.559999999987
55 ; 692420.1726980737 ; 4.0112746179750264E8 ; 3.351839605951157E7 ; 1.880375812269993E10 ; 19587.699999999986
56 ; 696149.8074501498 ; 4.011380822795668E8 ; 3.4210816232209645E7 ; 1.9204885584497433E10 ; 19943.839999999986
57 ; 697937.0929493848 ; 4.0114871154025805E8 ; 3.49069660396598E7 ; 1.9606023666777E10 ; 20299.979999999985
58 ; 700529.6906998857 ; 4.0115934829304695E8 ; 3.560490313260918E7 ; 2.0007172378317257E10 ; 20656.119999999984
59 ; 703347.8146958064 ; 4.011699913314003E8 ; 3.6305432823309064E7 ; 2.0408331726610306E10 ; 21012.259999999984
60 ; 705507.888921648 ; 4.0118063952166E8 ; 3.700878063800487E7 ; 2.0809501717941708E10 ; 21368.399999999983
61 ; 710280.8789939148 ; 4.011912917966587E8 ; 3.771428852692652E7 ; 2.1210682357463367E10 ; 21724.539999999983
62 ; 712292.8314448451 ; 4.0120194714998305E8 ; 3.842456940592043E7 ; 2.1611873649260025E10 ; 22080.679999999982
63 ; 714138.0420563379 ; 4.0121260463081336E8 ; 3.9136862237365276E7 ; 2.2013075596410007E10 ; 22436.81999999998
64 ; 717975.2681911271 ; 4.012232633392731E8 ; 3.985100027942161E7 ; 2.241428820104082E10 ; 22792.95999999998
65 ; 719185.6389342628 ; 4.01233922422233E8 ; 4.056897554761274E7 ; 2.2815511464380093E10 ; 23149.09999999998
66 ; 721046.8075433368 ; 4.012445810695175E8 ; 4.1288161186547E7 ; 2.3216745386802326E10 ; 23505.23999999998
67 ; 722526.1097544316 ; 4.012552385104729E8 ; 4.200920799409034E7 ; 2.3617989967871845E10 ; 23861.37999999998
68 ; 725522.8574112855 ; 4.0126589401085556E8 ; 4.273173410384477E7 ; 2.4019245206382317E10 ; 24217.51999999998
69 ; 725063.9114021419 ; 4.0127654687000823E8 ; 4.345725696125606E7 ; 2.4420511100393173E10 ; 24573.659999999978
70 ; 728088.3714127801 ; 4.0128719641829395E8 ; 4.41823208726582E7 ; 2.482178764726318E10 ; 24929.799999999977
71 ; 731962.8692212806 ; 4.012978420147603E8 ; 4.491040924407098E7 ; 2.5223074843681473E10 ; 25285.939999999977
72 ; 733191.604897144 ; 4.013084830450115E8 ; 4.5642372113292255E7 ; 2.562437268569623E10 ; 25642.079999999976
73 ; 733084.06490579 ; 4.0131911891926706E8 ; 4.6375563718189396E7 ; 2.602568116874124E10 ; 25998.219999999976
74 ; 734706.8481915963 ; 4.0132974907058775E8 ; 4.710864778309519E7 ; 2.6427000287660507E10 ; 26354.359999999975
75 ; 736489.9389764714 ; 4.0134037295325446E8 ; 4.7843354631286785E7 ; 2.6828330036731094E10 ; 26710.499999999975
76 ; 738745.3194079999 ; 4.013509900412823E8 ; 4.857984457026326E7 ; 2.722967040968435E10 ; 27066.639999999974
77 ; 738985.123726779 ; 4.0136159982705986E8 ; 4.931858988967126E7 ; 2.763102139972563E10 ; 27422.779999999973
78 ; 741275.7794521049 ; 4.0137220182009953E8 ; 5.005757501339804E7 ; 2.8032382999552692E10 ; 27778.919999999973
79 ; 741873.0681068226 ; 4.013827955458901E8 ; 5.0798850792850144E7 ; 2.843375520137279E10 ; 28135.059999999972
80 ; 744146.5183128503 ; 4.01393380544841E8 ; 5.154072386095697E7 ; 2.8835137996918682E10 ; 28491.19999999997
81 ; 746469.8555632217 ; 4.0140395637131065E8 ; 5.2284870379269816E7 ; 2.9236531377463524E10 ; 28847.33999999997
82 ; 748489.0001966294 ; 4.014145225927112E8 ; 5.303134023483304E7 ; 2.9637935333834835E10 ; 29203.47999999997
83 ; 750038.9167931082 ; 4.014250787886821E8 ; 5.377982923502967E7 ; 3.0039349856427547E10 ; 29559.61999999997
84 ; 752187.4246682762 ; 4.014356245503279E8 ; 5.4529868151822776E7 ; 3.044077493521623E10 ; 29915.75999999997
85 ; 752771.289991221 ; 4.014461594795126E8 ; 5.528205557649105E7 ; 3.0842210559766556E10 ; 30271.89999999997
86 ; 755040.8938331734 ; 4.0145668318820846E8 ; 5.603482686648227E7 ; 3.1243656719246067E10 ; 30628.039999999968
87 ; 755121.464331145 ; 4.0146719529789156E8 ; 5.678986776031545E7 ; 3.1645113402434277E10 ; 30984.179999999968
88 ; 757712.3776896558 ; 4.014776954389825E8 ; 5.754498922464659E7 ; 3.2046580597732166E10 ; 31340.319999999967
89 ; 759269.8844003448 ; 4.0148818325032747E8 ; 5.830270160233624E7 ; 3.244805829317115E10 ; 31696.459999999966
90 ; 760150.1210077361 ; 4.014986583787167E8 ; 5.906197148673659E7 ; 3.284954647642148E10 ; 32052.599999999966
91 ; 760787.0813475264 ; 4.015091204784366E8 ; 5.982212160774432E7 ; 3.3251045134800194E10 ; 32408.739999999965
92 ; 763862.3880563566 ; 4.015195692108541E8 ; 6.058290868909185E7 ; 3.365255425527863E10 ; 32764.879999999965
93 ; 765678.8516035951 ; 4.0153000424402905E8 ; 6.134677107714821E7 ; 3.4054073824489483E10 ; 33121.01999999997
94 ; 767801.0879969936 ; 4.0154042525235415E8 ; 6.2112449928751804E7 ; 3.445560382873351E10 ; 33477.15999999997
95 ; 766723.7927969008 ; 4.015508319162185E8 ; 6.28802510167488E7 ; 3.485714425398587E10 ; 33833.29999999997
96 ; 768205.9906788045 ; 4.01561223921695E8 ; 6.36469748095457E7 ; 3.525869508590209E10 ; 34189.439999999966
97 ; 767633.5404094988 ; 4.015716009602473E8 ; 6.4415180800224505E7 ; 3.5660256309823784E10 ; 34545.579999999965
98 ; 768493.2201974517 ; 4.015819627284572E8 ; 6.5182814340634E7 ; 3.6061827910784035E10 ; 34901.719999999965
99 ; 772104.563442794 ; 4.0159230892776966E8 ; 6.595130756083146E7 ; 3.646340987351249E10 ; 35257.859999999964
100 ; 772206.1445094879 ; 4.0160263926425374E8 ; 6.6723412124274254E7 ; 3.686500218244026E10 ; 35613.99999999996
101 ; 774271.370749415 ; 4.0161295344838005E8 ; 6.749561826878375E7 ; 3.726660482170451E10 ; 35970.13999999996
102 ; 776265.0593450541 ; 4.0162325119481117E8 ; 6.826988963953316E7 ; 3.766821777515289E10 ; 36326.27999999996
103 ; 777217.5690563035 ; 4.0163353222220635E8 ; 6.904615469887821E7 ; 3.80698410263477E10 ; 36682.41999999996
104 ; 777738.7601561125 ; 4.016437962530379E8 ; 6.982337226793452E7 ; 3.847147455856991E10 ; 37038.55999999996
105 ; 777593.3819777075 ; 4.0165404301341903E8 ; 7.060111102809063E7 ; 3.8873118354822945E10 ; 37394.69999999996
106 ; 780563.9633744746 ; 4.0166427223294246E8 ; 7.137870441006833E7 ; 3.9274772397836365E10 ; 37750.83999999996
107 ; 781867.0857636107 ; 4.016744836445285E8 ; 7.215926837344281E7 ; 3.9676436670069305E10 ; 38106.97999999996
108 ; 781063.4129205516 ; 4.016846769842832E8 ; 7.294113545920642E7 ; 4.007811115371384E10 ; 38463.11999999996
109 ; 782024.7253250497 ; 4.016948519913639E8 ; 7.372219887212697E7 ; 4.047979583069812E10 ; 38819.25999999996
110 ; 783287.7529905231 ; 4.017050084078535E8 ; 7.450422359745201E7 ; 4.088149068268948E10 ; 39175.39999999996
111 ; 784510.745807474 ; 4.017151459786422E8 ; 7.528751135044254E7 ; 4.1283195691097336E10 ; 39531.53999999996
112 ; 786587.2015868424 ; 4.01725264451316E8 ; 7.607202209625001E7 ; 4.168491083707598E10 ; 39887.67999999996
113 ; 786773.4533525984 ; 4.0173536357605124E8 ; 7.685860929783686E7 ; 4.20866361015273E10 ; 40243.819999999956
114 ; 788446.0619462464 ; 4.017454431055163E8 ; 7.764538275118946E7 ; 4.248837146510335E10 ; 40599.959999999955
115 ; 788083.7262051796 ; 4.017555027947781E8 ; 7.84338288131357E7 ; 4.289011690820886E10 ; 40956.099999999955
116 ; 792184.6145119568 ; 4.01765542401214E8 ; 7.922191253934088E7 ; 4.329187241100364E10 ; 41312.239999999954
117 ; 789890.2062773564 ; 4.017755616844294E8 ; 8.001409715385284E7 ; 4.3693637953404854E10 ; 41668.379999999954
118 ; 792350.0014396051 ; 4.0178556040617895E8 ; 8.080398736013019E7 ; 4.409541351508929E10 ; 42024.51999999995
119 ; 791462.6465405694 ; 4.017955383302928E8 ; 8.159633736156979E7 ; 4.449719907549547E10 ; 42380.65999999995
120 ; 791696.7236003581 ; 4.018054952226073E8 ; 8.238780000811036E7 ; 4.489899461382576E10 ; 42736.79999999995
121 ; 795415.5148770036 ; 4.018154308508984E8 ; 8.317949673171072E7 ; 4.530080010904837E10 ; 43092.93999999995
122 ; 793798.2090009986 ; 4.0182534498481965E8 ; 8.397491224658772E7 ; 4.570261553989927E10 ; 43449.07999999995
123 ; 794917.7424747231 ; 4.0183523739584374E8 ; 8.476871045558873E7 ; 4.610444088488409E10 ; 43805.21999999995
124 ; 794081.6326155046 ; 4.01845107857206E8 ; 8.556362819806345E7 ; 4.650627612227993E10 ; 44161.35999999995
125 ; 794148.0077778033 ; 4.018549561438525E8 ; 8.635770983067895E7 ; 4.690812123013714E10 ; 44517.49999999995
126 ; 793745.9003890302 ; 4.018647820323895E8 ; 8.715185783845676E7 ; 4.730997618628099E10 ; 44873.63999999995
127 ; 791883.9389375242 ; 4.018745853010372E8 ; 8.79456037388458E7 ; 4.771184096831338E10 ; 45229.77999999995
128 ; 793164.9939690029 ; 4.018843657295841E8 ; 8.873748767778333E7 ; 4.811371555361442E10 ; 45585.91999999995
129 ; 792733.0771278314 ; 4.018941230993453E8 ; 8.953065267175233E7 ; 4.8515599919344E10 ; 45942.05999999995
130 ; 789894.8690575886 ; 4.0190385719312227E8 ; 9.032338574888016E7 ; 4.8917494042443344E10 ; 46298.199999999946
131 ; 790980.1381485093 ; 4.0191356779516494E8 ; 9.111328061793776E7 ; 4.931939789963647E10 ; 46654.339999999946
132 ; 790639.2363906131 ; 4.019232546911359E8 ; 9.190426075608627E7 ; 4.972131146743163E10 ; 47010.479999999945
133 ; 792246.646125899 ; 4.0193291766807586E8 ; 9.26948999924769E7 ; 5.012323472212277E10 ; 47366.619999999944
134 ; 792469.0408812235 ; 4.019425565143719E8 ; 9.34871466386028E7 ; 5.052516763979085E10 ; 47722.759999999944
135 ; 792670.2878854068 ; 4.019521710197263E8 ; 9.427961567948401E7 ; 5.092711019630522E10 ; 48078.89999999994
136 ; 792398.1360820788 ; 4.0196176097512805E8 ; 9.507228596736942E7 ; 5.132906236732495E10 ; 48435.03999999994
137 ; 794126.170994054 ; 4.01971326172825E8 ; 9.58646841034515E7 ; 5.173102412830008E10 ; 48791.17999999994
138 ; 793172.8779122774 ; 4.019808664062974E8 ; 9.665881027444556E7 ; 5.213299545447291E10 ; 49147.31999999994
139 ; 792258.7011976851 ; 4.019903814702339E8 ; 9.745198315235785E7 ; 5.25349763208792E10 ; 49503.45999999994
140 ; 792248.1135579811 ; 4.019998711605073E8 ; 9.824424185355553E7 ; 5.293696670234944E10 ; 49859.59999999994
141 ; 792454.7962417306 ; 4.0200933527415276E8 ; 9.903648996711351E7 ; 5.333896657350995E10 ; 50215.73999999994
142 ; 794082.9013996631 ; 4.020187736093463E8 ; 9.982894476335524E7 ; 5.37409759087841E10 ; 50571.87999999994
143 ; 793531.8425488377 ; 4.020281859653845E8 ; 1.006230276647549E8 ; 5.414299468239345E10 ; 50928.01999999994
144 ; 791167.4148063681 ; 4.0203757214266634E8 ; 1.0141655950730373E8 ; 5.454502286835883E10 ; 51284.15999999994
145 ; 794605.2300267487 ; 4.020469319426741E8 ; 1.022077269221101E8 ; 5.49470604405015E10 ; 51640.29999999994
146 ; 795376.3552551154 ; 4.020562651679567E8 ; 1.0300233215213685E8 ; 5.5349107372444176E10 ; 51996.43999999994
147 ; 796848.8320772583 ; 4.0206557162211335E8 ; 1.0379770850739196E8 ; 5.575116363761213E10 ; 52352.579999999936
148 ; 799830.3988176021 ; 4.02074851109778E8 ; 1.0459455733946922E8 ; 5.6153229209234245E10 ; 52708.719999999936
149 ; 802535.9508938863 ; 4.0208410343660474E8 ; 1.0539438773828682E8 ; 5.6555304060344025E10 ; 53064.859999999935
150 ; 803900.360834057 ; 4.0209332840925395E8 ; 1.061969236891807E8 ; 5.695738816378063E10 ; 53420.999999999935
151 ; 803319.6312856312 ; 4.0210252583537877E8 ; 1.0700082405001476E8 ; 5.735948149218989E10 ; 53777.139999999934
152 ; 807540.8881697714 ; 4.021116955236132E8 ; 1.078041436813004E8 ; 5.776158401802527E10 ; 54133.27999999993
153 ; 806688.9872822006 ; 4.0212083728355956E8 ; 1.0861168456947017E8 ; 5.816369571354888E10 ; 54489.41999999993
154 ; 809555.1280400101 ; 4.0212995092577755E8 ; 1.0941837355675237E8 ; 5.856581655083244E10 ; 54845.55999999993
155 ; 809559.0154864427 ; 4.021390362617736E8 ; 1.1022792868479238E8 ; 5.8967946501758224E10 ; 55201.69999999993
156 ; 813501.7528828066 ; 4.0214809310399055E8 ; 1.1103748770027883E8 ; 5.937008553802E10 ; 55557.83999999993
157 ; 814194.6030093422 ; 4.0215712126579845E8 ; 1.1185098945316164E8 ; 5.9772233631123985E10 ; 55913.97999999993
158 ; 817423.9211145364 ; 4.0216612056148493E8 ; 1.1266518405617099E8 ; 6.0174390752389786E10 ; 56270.11999999993
159 ; 819746.1049255809 ; 4.021750908062471E8 ; 1.1348260797728552E8 ; 6.057655687295127E10 ; 56626.25999999993
160 ; 820661.4239287851 ; 4.021840318161829E8 ; 1.143023540822111E8 ; 6.0978731963757515E10 ; 56982.39999999993
161 ; 822714.0982204564 ; 4.0219294340828395E8 ; 1.1512301550613989E8 ; 6.13809159955737E10 ; 57338.53999999993
162 ; 822900.3691284218 ; 4.0220182540042794E8 ; 1.1594572960436034E8 ; 6.178310893898199E10 ; 57694.67999999993
163 ; 824293.1363303037 ; 4.022106776113715E8 ; 1.1676862997348876E8 ; 6.2185310764382416E10 ; 58050.81999999993
164 ; 827718.7631126037 ; 4.0221949986074424E8 ; 1.1759292310981907E8 ; 6.258752144199379E10 ; 58406.95999999993
165 ; 828791.0935564255 ; 4.022282919690423E8 ; 1.1842064187293167E8 ; 6.298974094185453E10 ; 58763.099999999926
166 ; 828688.0475912516 ; 4.022370537576223E8 ; 1.192494329664881E8 ; 6.339196923382357E10 ; 59119.239999999925
167 ; 831464.5385208887 ; 4.022457850486964E8 ; 1.2007812101407935E8 ; 6.379420628758119E10 ; 59475.379999999925
168 ; 832033.6519471306 ; 4.022544856653266E8 ; 1.2090958555260023E8 ; 6.419645207262989E10 ; 59831.519999999924
169 ; 833466.044713462 ; 4.022631554314202E8 ; 1.2174161920454736E8 ; 6.459870655829522E10 ; 60187.65999999992
170 ; 835739.4627379756 ; 4.022717941717253E8 ; 1.2257508524926083E8 ; 6.500096971372664E10 ; 60543.79999999992
171 ; 837481.4563803246 ; 4.0228040171182597E8 ; 1.234108247119988E8 ; 6.540324150789836E10 ; 60899.93999999992
172 ; 838709.0705205057 ; 4.022889778781389E8 ; 1.2424830616837913E8 ; 6.580552190961018E10 ; 61256.07999999992
173 ; 840619.5076848078 ; 4.0229752249790907E8 ; 1.2508701523889963E8 ; 6.620781088748832E10 ; 61612.21999999992
174 ; 842424.836492 ; 4.023060353992065E8 ; 1.2592763474658445E8 ; 6.661010840998623E10 ; 61968.35999999992
175 ; 843851.1757403859 ; 4.0231451641092277E8 ; 1.2677005958307645E8 ; 6.701241444538544E10 ; 62324.49999999992
176 ; 847713.0296555415 ; 4.023229653627679E8 ; 1.2761391075881684E8 ; 6.741472896179636E10 ; 62680.63999999992
177 ; 851159.7784986862 ; 4.023313820852676E8 ; 1.2846162378847238E8 ; 6.781705192715913E10 ; 63036.77999999992
