CSV File for the Network on Day 175
1 - Minute m 
2 - Power Consumed at minute m 
3 - Power Produced at minute m 
4 - Energy Consumed since the beginning of the day 
5 - Energy Produced since the beginning of the day 
6 - Energy Lost since the beginning of the day 
 
No Production city : 2, Producer : 1
No Production city : 4, Producer : 1
No Production city : 4, Producer : 1
 
0 ; 35412.76085855941 ; 152653.96024976516 ; 0.0 ; 0.0 ; 0.0
1 ; 36389.25361894834 ; 152305.13160926063 ; 35412.76085855941 ; 152653.96024976516 ; 238.00000000000003
2 ; 37966.2055928163 ; 151991.72838209686 ; 71802.01447750776 ; 304959.09185902576 ; 476.00000000000006
3 ; 39819.22776133599 ; 151714.17035992426 ; 109768.22007032407 ; 456950.8202411226 ; 714.0000000000001
4 ; 40870.49030772802 ; 151472.83448161805 ; 149587.44783166004 ; 608664.990601047 ; 952.0000000000001
5 ; 42202.97505045528 ; 151268.0524995007 ; 190457.93813938805 ; 760137.825082665 ; 1190.0000000000002
6 ; 44363.65876351348 ; 151100.1088810496 ; 232660.91318984333 ; 911405.8775821656 ; 1428.0000000000002
7 ; 45378.33875500157 ; 150969.23897647852 ; 277024.5719533568 ; 1062505.9864632152 ; 1666.0000000000002
8 ; 46837.408097627485 ; 150875.62747943317 ; 322402.91070835834 ; 1213475.2254396938 ; 1904.0000000000002
9 ; 48111.326446711224 ; 150819.4072041869 ; 369240.31880598585 ; 1364350.8529191269 ; 2142.0000000000005
10 ; 49857.229627354616 ; 150800.65819823596 ; 417351.64525269705 ; 1515170.2601233139 ; 2380.0000000000005
11 ; 51157.10875467349 ; 150819.4072041869 ; 467208.87488005165 ; 1665970.91832155 ; 2618.0000000000005
12 ; 52132.94553113371 ; 150875.62747943317 ; 518365.98363472515 ; 1816790.325525737 ; 2856.0000000000005
13 ; 53474.44415175421 ; 150969.23897647852 ; 570498.9291658589 ; 1967665.95300517 ; 3094.0000000000005
14 ; 54897.0189128599 ; 151100.1088810495 ; 623973.3733176131 ; 2118635.1919816486 ; 3332.0000000000005
15 ; 55879.00438676204 ; 151268.0524995007 ; 678870.392230473 ; 2269735.300862698 ; 3570.0000000000005
16 ; 57600.83693342408 ; 151472.83448161805 ; 734749.396617235 ; 2421003.3533621985 ; 3808.0000000000005
17 ; 58940.23325325067 ; 151714.17035992414 ; 792350.2335506591 ; 2572476.1878438164 ; 4046.0000000000005
18 ; 59853.65455111948 ; 151991.72838209686 ; 851290.4668039099 ; 2724190.3582037403 ; 4284.000000000001
19 ; 60851.44025588468 ; 152305.1316092605 ; 911144.1213550293 ; 2876182.0865858374 ; 4522.000000000001
20 ; 62476.28715878322 ; 152653.96024976516 ; 971995.561610914 ; 3028487.218195098 ; 4760.000000000001
21 ; 63738.43354680567 ; 153037.7541956939 ; 1034471.8487696971 ; 3181141.1784448633 ; 4998.000000000001
22 ; 64671.78525564674 ; 153456.0157277555 ; 1098210.2823165029 ; 3334178.932640557 ; 5236.000000000001
23 ; 66019.39134900726 ; 153908.2123534279 ; 1162882.0675721497 ; 3487634.948368313 ; 5474.000000000001
24 ; 66836.77983877639 ; 154393.77974318204 ; 1228901.4589211568 ; 3641543.1607217407 ; 5712.000000000001
25 ; 67842.13261979239 ; 154912.12473028968 ; 1295738.2387599333 ; 3795936.9404649227 ; 5950.000000000001
26 ; 69095.00676766993 ; 155462.62834102468 ; 1363580.3713797256 ; 3950849.065195212 ; 6188.000000000001
27 ; 70253.35467519474 ; 156044.64882392233 ; 1432675.3781473956 ; 4106311.693536237 ; 6426.000000000001
28 ; 71552.48819240833 ; 156657.52464906801 ; 1502928.7328225903 ; 4262356.342360159 ; 6664.000000000001
29 ; 72422.81974470813 ; 157300.57745104824 ; 1574481.2210149986 ; 4419013.867009227 ; 6902.000000000001
30 ; 73204.26081402627 ; 157973.1148921059 ; 1646904.0407597069 ; 4576314.444460276 ; 7140.000000000001
31 ; 74468.79679263031 ; 158674.43342511004 ; 1720108.301573733 ; 4734287.559352381 ; 7378.000000000001
32 ; 75013.0607266166 ; 159403.82093908382 ; 1794577.0983663634 ; 4892961.992777491 ; 7616.000000000001
33 ; 76453.12499260122 ; 160160.55927314545 ; 1869590.15909298 ; 5052365.813716575 ; 7854.000000000001
34 ; 77361.41239596567 ; 160943.92658775445 ; 1946043.284085581 ; 5212526.37298972 ; 8092.000000000001
35 ; 78216.02627371471 ; 161753.1995850358 ; 2023404.6964815469 ; 5373470.299577475 ; 8330.000000000002
36 ; 79566.55107355145 ; 162587.65557265579 ; 2101620.7227552617 ; 5535223.49916251 ; 8568.000000000002
37 ; 80368.40156595243 ; 163446.5743681933 ; 2181187.2738288133 ; 5697811.154735166 ; 8806.000000000002
38 ; 80336.07269979498 ; 164329.24004317718 ; 2261555.6753947656 ; 5861257.729103359 ; 9044.000000000002
39 ; 82009.7725087973 ; 165234.94250792477 ; 2341891.7480945606 ; 6025586.969146537 ; 9282.000000000002
40 ; 83060.65859845218 ; 166162.9789400151 ; 2423901.520603358 ; 6190821.911654461 ; 9520.000000000002
41 ; 83233.2793557933 ; 167112.65506067208 ; 2506962.17920181 ; 6356984.890594476 ; 9758.000000000002
42 ; 84174.72599513702 ; 168083.2862645162 ; 2590195.4585576034 ; 6524097.545655148 ; 9996.000000000002
43 ; 84972.19698706019 ; 169074.19860909364 ; 2674370.1845527403 ; 6692180.8319196645 ; 10234.000000000002
44 ; 86112.84825040791 ; 170084.72967131776 ; 2759342.3815398007 ; 6861255.030528758 ; 10472.000000000002
45 ; 86200.75981272243 ; 171114.22927848683 ; 2845455.2297902084 ; 7031339.760200076 ; 10710.000000000002
46 ; 87000.05047477168 ; 172162.06012188675 ; 2931655.989602931 ; 7202453.989478563 ; 10948.000000000002
47 ; 87840.88322754981 ; 173227.59826117862 ; 3018656.0400777026 ; 7374616.049600449 ; 11186.000000000002
48 ; 88572.0188134049 ; 174310.23352782265 ; 3106496.9233052526 ; 7547843.647861628 ; 11424.000000000002
49 ; 89331.34568006406 ; 175409.36983572788 ; 3195068.9421186573 ; 7722153.88138945 ; 11662.000000000002
50 ; 90155.02383056619 ; 176524.42540715693 ; 3284400.2877987213 ; 7897563.251225178 ; 11900.000000000002
51 ; 90842.84086778137 ; 177654.83292167756 ; 3374555.3116292874 ; 8074087.676632335 ; 12138.000000000002
52 ; 91466.24390197165 ; 178800.03959565514 ; 3465398.152497069 ; 8251742.509554013 ; 12376.000000000002
53 ; 91959.51992508583 ; 179959.50719943127 ; 3556864.3963990407 ; 8430542.549149668 ; 12614.000000000002
54 ; 92658.06654559236 ; 181132.71201895658 ; 3648823.9163241265 ; 8610502.056349099 ; 12852.000000000002
55 ; 93299.015904108 ; 182319.144768241 ; 3741481.9828697187 ; 8791634.768368056 ; 13090.000000000002
56 ; 93687.48076438265 ; 183518.31045857168 ; 3834780.9987738268 ; 8973953.913136298 ; 13328.000000000002
57 ; 94316.52600006614 ; 184729.72823002524 ; 3928468.4795382093 ; 9157472.22359487 ; 13566.000000000002
58 ; 94764.77553946558 ; 185952.93115038678 ; 4022785.0055382755 ; 9342201.951824896 ; 13804.000000000002
59 ; 95342.48246809148 ; 187187.46598617474 ; 4117549.781077741 ; 9528154.882975282 ; 14042.000000000002
60 ; 95840.62630591265 ; 188432.8929500733 ; 4212892.263545833 ; 9715342.348961458 ; 14280.000000000002
61 ; 96431.5539618009 ; 189688.78542869058 ; 4308732.889851745 ; 9903775.24191153 ; 14518.000000000002
62 ; 96484.19259779235 ; 190954.7296941945 ; 4405164.443813547 ; 1.009346402734022E7 ; 14756.000000000002
63 ; 97602.30763470294 ; 192230.32460303322 ; 4501648.636411339 ; 1.0284418757034415E7 ; 14994.000000000002
64 ; 97912.31905232898 ; 193515.18128462005 ; 4599250.944046042 ; 1.0476649081637448E7 ; 15232.000000000002
65 ; 98335.9068395374 ; 194808.92282256018 ; 4697163.263098371 ; 1.0670164262922067E7 ; 15470.000000000002
66 ; 98262.17753703389 ; 196111.18393071074 ; 4795499.169937909 ; 1.0864973185744628E7 ; 15708.000000000002
67 ; 98306.45743710978 ; 197421.6106261065 ; 4893761.347474943 ; 1.1061084369675338E7 ; 15946.000000000002
68 ; 99441.78116012701 ; 198739.85990054082 ; 4992067.804912053 ; 1.1258505980301445E7 ; 16184.000000000002
69 ; 100042.7961797675 ; 200065.59939236977 ; 5091509.58607218 ; 1.1457245840201987E7 ; 16422.000000000004
70 ; 99702.6912595616 ; 201398.507059906 ; 5191552.382251948 ; 1.1657311439594356E7 ; 16660.000000000004
71 ; 100209.89571865903 ; 202738.27085758516 ; 5291255.07351151 ; 1.1858709946654262E7 ; 16898.000000000004
72 ; 100671.8058133713 ; 204084.5884159192 ; 5391464.969230169 ; 1.2061448217511848E7 ; 17136.000000000004
73 ; 100875.56749678755 ; 205437.1667261027 ; 5492136.775043541 ; 1.2265532805927766E7 ; 17374.000000000004
74 ; 100783.30820601498 ; 206795.72183000075 ; 5593012.342540328 ; 1.247096997265387E7 ; 17612.000000000004
75 ; 101028.20582036684 ; 208159.97851612564 ; 5693795.650746344 ; 1.267776569448387E7 ; 17850.000000000004
76 ; 101632.81102784757 ; 209529.67002210245 ; 5794823.85656671 ; 1.2885925672999997E7 ; 18088.000000000004
77 ; 101425.60121334983 ; 210904.5377440234 ; 5896456.667594558 ; 1.3095455343022099E7 ; 18326.000000000004
78 ; 101877.04054635785 ; 212284.33095300972 ; 5997882.268807908 ; 1.3306359880766122E7 ; 18564.000000000004
79 ; 101915.47175845137 ; 213668.80651921805 ; 6099759.309354265 ; 1.3518644211719131E7 ; 18802.000000000004
80 ; 102105.6998164746 ; 215057.72864346657 ; 6201674.7811127165 ; 1.3732313018238349E7 ; 19040.000000000004
81 ; 102310.6645379164 ; 216450.86859659347 ; 6303780.480929191 ; 1.3947370746881815E7 ; 19278.000000000004
82 ; 101917.32105261025 ; 217848.0044666122 ; 6406091.145467107 ; 1.4163821615478408E7 ; 19516.000000000004
83 ; 102570.24289133427 ; 219248.9209136803 ; 6508008.466519717 ; 1.438166961994502E7 ; 19754.000000000004
84 ; 102270.39228968133 ; 220653.4089328624 ; 6610578.709411051 ; 1.4600918540858699E7 ; 19992.000000000004
85 ; 102622.91873683233 ; 222061.2656246344 ; 6712849.1017007325 ; 1.4821571949791562E7 ; 20230.000000000004
86 ; 102560.15945745943 ; 223472.29397304612 ; 6815472.020437565 ; 1.5043633215416197E7 ; 20468.000000000004
87 ; 102711.1150747019 ; 224886.30263143807 ; 6918032.179895024 ; 1.5267105509389242E7 ; 20706.000000000004
88 ; 102657.89372845418 ; 226303.1057155857 ; 7020743.294969725 ; 1.549199181202068E7 ; 20944.000000000004
89 ; 102960.4757647191 ; 227722.52260413027 ; 7123401.18869818 ; 1.5718294917736266E7 ; 21182.000000000004
90 ; 102858.71584263489 ; 229144.3777461389 ; 7226361.664462899 ; 1.5946017440340396E7 ; 21420.000000000004
91 ; 102647.01875974778 ; 230568.50047562836 ; 7329220.380305533 ; 1.6175161818086535E7 ; 21658.000000000004
92 ; 102246.04692463831 ; 231994.72483287693 ; 7431867.399065281 ; 1.6405730318562163E7 ; 21896.000000000004
93 ; 102576.68423637035 ; 233422.88939234253 ; 7534113.44598992 ; 1.663772504339504E7 ; 22134.000000000004
94 ; 102238.09118997323 ; 234852.83709700033 ; 7636690.13022629 ; 1.6871147932787385E7 ; 22372.000000000004
95 ; 102174.60378597272 ; 236284.415098911 ; 7738928.221416263 ; 1.7106000769884385E7 ; 22610.000000000004
96 ; 102257.71196310702 ; 237717.4746058281 ; 7841102.825202236 ; 1.7342285184983294E7 ; 22848.000000000004
97 ; 101811.65556673959 ; 239151.87073365206 ; 7943360.537165343 ; 1.7580002659589123E7 ; 23086.000000000004
98 ; 101382.97825107136 ; 240587.46236454046 ; 8045172.192732083 ; 1.7819154530322775E7 ; 23324.000000000004
99 ; 101548.49712489833 ; 242024.11201048383 ; 8146555.170983154 ; 1.8059741992687315E7 ; 23562.000000000004
100 ; 101470.23764124274 ; 243461.685682159 ; 8248103.668108053 ; 1.8301766104697797E7 ; 23800.000000000004
101 ; 101306.91022400673 ; 244900.0527628751 ; 8349573.905749295 ; 1.8545227790379956E7 ; 24038.000000000004
102 ; 100645.90753508726 ; 246339.0858874297 ; 8450880.815973302 ; 1.879012784314283E7 ; 24276.000000000004
103 ; 100888.24248578456 ; 247778.66082569628 ; 8551526.72350839 ; 1.903646692903026E7 ; 24514.000000000004
104 ; 100448.12242413056 ; 249218.65637076917 ; 8652414.965994174 ; 1.9284245589855954E7 ; 24752.000000000004
105 ; 100171.93297071494 ; 250658.954231495 ; 8752863.088418305 ; 1.9533464246226724E7 ; 24990.000000000004
106 ; 99858.11837079129 ; 252099.438929225 ; 8853035.02138902 ; 1.9784123200458217E7 ; 25228.000000000004
107 ; 99179.61039108736 ; 253539.9976986268 ; 8952893.139759813 ; 2.0036222639387444E7 ; 25466.000000000004
108 ; 98756.3393372411 ; 254980.52039239887 ; 9052072.7501509 ; 2.028976263708607E7 ; 25704.000000000004
109 ; 98393.31413351254 ; 256420.89938973612 ; 9150829.089488141 ; 2.054474315747847E7 ; 25942.000000000004
110 ; 98353.4902868581 ; 257861.0295083994 ; 9249222.403621653 ; 2.0801164056868207E7 ; 26180.000000000004
111 ; 97847.41484416445 ; 259300.80792024697 ; 9347575.893908512 ; 2.1059025086376607E7 ; 26418.000000000004
112 ; 97398.30045639786 ; 260740.13407009008 ; 9445423.308752676 ; 2.1318325894296855E7 ; 26656.000000000004
113 ; 97253.14360984837 ; 262178.9095977407 ; 9542821.609209074 ; 2.1579066028366946E7 ; 26894.000000000004
114 ; 96222.34708049946 ; 263617.0382631225 ; 9640074.752818922 ; 2.1841244937964685E7 ; 27132.000000000004
115 ; 96079.79222670392 ; 265054.4258743234 ; 9736297.09989942 ; 2.210486197622781E7 ; 27370.000000000004
116 ; 95678.99834290848 ; 266490.98021846934 ; 9832376.892126124 ; 2.236991640210213E7 ; 27608.000000000004
117 ; 95083.94838335516 ; 267926.61099530564 ; 9928055.890469033 ; 2.26364073823206E7 ; 27846.000000000004
118 ; 94441.51245064808 ; 269361.2297533768 ; 1.0023139838852389E7 ; 2.2904333993315905E7 ; 28084.000000000004
119 ; 94671.17013484178 ; 270794.74982869736 ; 1.0117581351303037E7 ; 2.317369522306928E7 ; 28322.000000000004
120 ; 93883.09513639438 ; 272227.0862858143 ; 1.021225252143788E7 ; 2.3444489972897977E7 ; 28560.000000000004
121 ; 93235.76602922614 ; 273658.15586116165 ; 1.0306135616574274E7 ; 2.371671705918379E7 ; 28798.000000000004
122 ; 92095.3496081044 ; 275087.8769086151 ; 1.03993713826035E7 ; 2.3990375215044953E7 ; 29036.000000000004
123 ; 91385.41851186128 ; 276516.16934715526 ; 1.0491466732211605E7 ; 2.426546309195357E7 ; 29274.000000000004
124 ; 91413.45451613302 ; 277942.9546105551 ; 1.0582852150723467E7 ; 2.4541979261300724E7 ; 29512.000000000004
125 ; 90326.96595631835 ; 279368.1555990069 ; 1.06742656052396E7 ; 2.481992221591128E7 ; 29750.000000000004
126 ; 90191.96157224035 ; 280791.6966326111 ; 1.0764592571195919E7 ; 2.5099290371510286E7 ; 29988.000000000004
127 ; 88961.66294443853 ; 282213.5034066492 ; 1.085478453276816E7 ; 2.53800820681429E7 ; 30226.000000000004
128 ; 88596.00193884826 ; 283633.5029485702 ; 1.0943746195712598E7 ; 2.5662295571549546E7 ; 30464.000000000004
129 ; 87899.2616708196 ; 285051.6235766174 ; 1.1032342197651446E7 ; 2.5945929074498117E7 ; 30702.000000000004
130 ; 86873.33547570657 ; 286467.79486003215 ; 1.1120241459322266E7 ; 2.6230980698074736E7 ; 30940.000000000004
131 ; 85752.48244711179 ; 287881.94758076745 ; 1.1207114794797974E7 ; 2.6517448492934767E7 ; 31178.000000000004
132 ; 85164.76460402702 ; 289294.01369665115 ; 1.1292867277245086E7 ; 2.6805330440515533E7 ; 31416.000000000004
133 ; 84727.78358655692 ; 290703.92630594043 ; 1.1378032041849112E7 ; 2.7094624454212185E7 ; 31654.000000000004
134 ; 84344.19574305235 ; 292111.61961320986 ; 1.1462759825435668E7 ; 2.7385328380518127E7 ; 31892.000000000004
135 ; 83100.80723476171 ; 293517.02889652 ; 1.154710402117872E7 ; 2.767744000013134E7 ; 32130.000000000004
136 ; 82268.28806394529 ; 294920.09047581366 ; 1.1630204828413483E7 ; 2.797095702902786E7 ; 32368.000000000004
137 ; 80953.72398249124 ; 296320.74168249214 ; 1.1712473116477428E7 ; 2.8265877119503673E7 ; 32606.000000000004
138 ; 80606.06567025783 ; 297718.9208301213 ; 1.1793426840459919E7 ; 2.8562197861186165E7 ; 32844.00000000001
139 ; 79113.60176402729 ; 299114.56718622544 ; 1.1874032906130176E7 ; 2.885991678201629E7 ; 33082.00000000001
140 ; 78805.74086823344 ; 300507.6209451213 ; 1.1953146507894203E7 ; 2.9159031349202514E7 ; 33320.00000000001
141 ; 77991.07757174845 ; 301898.0232017544 ; 1.2031952248762436E7 ; 2.9459538970147636E7 ; 33558.00000000001
142 ; 77159.18411580195 ; 303285.7159264954 ; 1.2109943326334184E7 ; 2.9761436993349392E7 ; 33796.00000000001
143 ; 76158.23905396347 ; 304670.64194085903 ; 1.2187102510449987E7 ; 3.0064722709275886E7 ; 34034.00000000001
144 ; 74782.53914553765 ; 306052.7448941088 ; 1.226326074950395E7 ; 3.0369393351216745E7 ; 34272.00000000001
145 ; 74780.13278498736 ; 307431.9692407127 ; 1.2338043288649488E7 ; 3.0675446096110854E7 ; 34510.00000000001
146 ; 74746.20427369697 ; 308808.26021861576 ; 1.2412823421434475E7 ; 3.098287806535157E7 ; 34748.00000000001
147 ; 74374.48268789309 ; 310181.5638282977 ; 1.2487569625708172E7 ; 3.1291686325570185E7 ; 34986.00000000001
148 ; 74058.40090724686 ; 311551.8268125854 ; 1.2561944108396064E7 ; 3.160186788939848E7 ; 35224.00000000001
149 ; 74342.50415163382 ; 312918.996637189 ; 1.263600250930331E7 ; 3.1913419716211066E7 ; 35462.00000000001
150 ; 73832.86217903021 ; 314283.0214719348 ; 1.2710345013454944E7 ; 3.2226338712848254E7 ; 35700.00000000001
151 ; 73347.82385281459 ; 315643.85017266806 ; 1.2784177875633974E7 ; 3.254062173432019E7 ; 35938.00000000001
152 ; 73364.35161399451 ; 317001.43226379826 ; 1.2857525699486788E7 ; 3.285626558449286E7 ; 36176.00000000001
153 ; 72889.0072177779 ; 318355.7179214628 ; 1.2930890051100783E7 ; 3.3173267016756658E7 ; 36414.00000000001
154 ; 72461.60301176165 ; 319706.6579572861 ; 1.3003779058318561E7 ; 3.349162273467812E7 ; 36652.00000000001
155 ; 72131.1934472097 ; 321054.20380270976 ; 1.3076240661330322E7 ; 3.3811329392635405E7 ; 36890.00000000001
156 ; 72076.21338197529 ; 322398.30749387277 ; 1.3148371854777532E7 ; 3.413238359643812E7 ; 37128.00000000001
157 ; 71517.05618640139 ; 323738.9216570204 ; 1.3220448068159508E7 ; 3.445478190393199E7 ; 37366.00000000001
158 ; 71839.65268770797 ; 325075.999494422 ; 1.329196512434591E7 ; 3.477852082558901E7 ; 37604.00000000001
159 ; 71178.06774782635 ; 326409.4947707785 ; 1.3363804777033618E7 ; 3.510359682508343E7 ; 37842.00000000001
160 ; 70894.05402068837 ; 327739.3618001001 ; 1.3434982844781443E7 ; 3.543000631985421E7 ; 38080.00000000001
161 ; 70624.51577421791 ; 329065.55543303763 ; 1.3505876898802131E7 ; 3.5757745681654304E7 ; 38318.00000000001
162 ; 70200.37793700251 ; 330388.03104465007 ; 1.357650141457635E7 ; 3.608681123708734E7 ; 38556.00000000001
163 ; 70008.96828052014 ; 331706.7445225919 ; 1.3646701792513352E7 ; 3.6417199268131986E7 ; 38794.00000000001
164 ; 69871.33966327357 ; 333021.6522557042 ; 1.3716710760793872E7 ; 3.674890601265458E7 ; 39032.00000000001
165 ; 69727.71918567347 ; 334332.71112299565 ; 1.3786582100457145E7 ; 3.708192766491029E7 ; 39270.00000000001
166 ; 69366.7022800279 ; 335639.87848299794 ; 1.3856309819642818E7 ; 3.7416260376033284E7 ; 39508.00000000001
167 ; 69094.88279969202 ; 336943.11216348124 ; 1.3925676521922845E7 ; 3.775190025451628E7 ; 39746.00000000001
168 ; 68400.12980588738 ; 338242.370451519 ; 1.3994771404722538E7 ; 3.8088843366679765E7 ; 39984.00000000001
169 ; 67713.17108957951 ; 339537.6120838862 ; 1.4063171534528425E7 ; 3.842708573713128E7 ; 40222.00000000001
170 ; 67819.75650253557 ; 340828.79623778077 ; 1.4130884705618005E7 ; 3.876662334921517E7 ; 40460.00000000001
171 ; 67152.02427476078 ; 342115.8825218563 ; 1.419870446212054E7 ; 3.9107452145452954E7 ; 40698.00000000001
172 ; 66391.4350640066 ; 343398.83096755325 ; 1.4265856486395301E7 ; 3.944956802797481E7 ; 40936.00000000001
173 ; 66966.47271517904 ; 344677.6020207204 ; 1.4332247921459308E7 ; 3.979296685894236E7 ; 41174.00000000001
174 ; 66738.29546169438 ; 345952.15653351374 ; 1.4399214394174486E7 ; 4.013764446096308E7 ; 41412.00000000001
175 ; 67203.96561843883 ; 347222.45575656364 ; 1.446595268963618E7 ; 4.0483596617496595E7 ; 41650.00000000001
176 ; 67176.14488911077 ; 348488.46133140154 ; 1.453315665525462E7 ; 4.0830819073253155E7 ; 41888.00000000001
177 ; 67582.71730112421 ; 349750.135283136 ; 1.460033280014373E7 ; 4.117930753458456E7 ; 42126.00000000001
178 ; 67831.28966200362 ; 351007.44001336856 ; 1.4667915517444855E7 ; 4.1529057669867694E7 ; 42364.00000000001
179 ; 67683.82324888004 ; 352260.338293343 ; 1.4735746807106858E7 ; 4.1880065109881066E7 ; 42602.00000000001
180 ; 67979.04128598471 ; 353508.7932573184 ; 1.4803430630355738E7 ; 4.223232544817441E7 ; 42840.00000000001
181 ; 67760.86095756701 ; 354752.76839615725 ; 1.4871409671641722E7 ; 4.258583424143173E7 ; 43078.00000000001
