CSV File for the City 4 on Day 233
1 - Minute m 
2 - Power Consumed at minute m 
3 - Power Produced at minute m 
4 - Energy Consumed since the beginning of the day 
5 - Energy Produced since the beginning of the day 
6 - Energy Lost since the beginning of the day on lines starting from the city
 
0 ; 685888.2365982524 ; 1.0536139817937002E8 ; 0.0 ; 0.0 ; 0.0
1 ; 692833.8593957676 ; 1.0550414941395217E8 ; 685888.2365982524 ; 1.0536139817937002E8 ; 0.0
2 ; 703201.1068315716 ; 1.0595611979733923E8 ; 1378722.0959940199 ; 2.108655475933222E8 ; 0.0
3 ; 711337.279989708 ; 1.0671742412861955E8 ; 2081923.2028255914 ; 3.168216673906614E8 ; 0.0
4 ; 722044.9865173544 ; 1.0778819889996344E8 ; 2793260.482815299 ; 4.2353909151928097E8 ; 0.0
5 ; 734708.1017433407 ; 1.0916860273087251E8 ; 3515305.4693326536 ; 5.313272904192444E8 ; 0.0
6 ; 750286.0763520021 ; 1.1085881348270634E8 ; 4250013.5710759945 ; 6.404958931501169E8 ; 0.0
7 ; 776551.1565895851 ; 1.1285902006037056E8 ; 5000299.647427997 ; 7.513547066328232E8 ; 0.0
8 ; 810244.6987909153 ; 1.1516940731838936E8 ; 5776850.804017582 ; 8.642137266931938E8 ; 0.0
9 ; 860441.9574944931 ; 1.1779013439533603E8 ; 6587095.502808497 ; 9.793831340115831E8 ; 0.0
10 ; 938820.8654518804 ; 1.2072131028399658E8 ; 7447537.46030299 ; 1.097173268406919E9 ; 0.0
11 ; 1060450.0881329644 ; 1.239629739015089E8 ; 8386358.325754871 ; 1.2178945786909156E9 ; 0.0
12 ; 1263664.9165840058 ; 1.2751508633073506E8 ; 9446808.413887836 ; 1.3418575525924244E9 ; 0.0
13 ; 1456112.985003231 ; 1.3137753857888907E8 ; 1.0710473330471842E7 ; 1.4693726389231594E9 ; 0.0
14 ; 1475118.4770097875 ; 1.355501715073977E8 ; 1.2166586315475073E7 ; 1.6007501775020485E9 ; 0.0
15 ; 1486387.5306715546 ; 1.400328002617367E8 ; 1.364170479248486E7 ; 1.7363003490094461E9 ; 0.0
16 ; 1497593.62325168 ; 1.4482523593700048E8 ; 1.5128092323156416E7 ; 1.8763331492711828E9 ; 0.0
17 ; 1505872.4242962284 ; 1.4992730067182943E8 ; 1.6625685946408097E7 ; 2.0211583852081833E9 ; 0.0
18 ; 1515684.2167646245 ; 1.5533883584672195E8 ; 1.8131558370704327E7 ; 2.1710856858800125E9 ; 0.0
19 ; 1524424.1401502844 ; 1.6105970496950772E8 ; 1.9647242587468952E7 ; 2.3264245217267346E9 ; 0.0
20 ; 1537277.0752847325 ; 1.6708979324109837E8 ; 2.117166672761924E7 ; 2.4874842266962423E9 ; 0.0
21 ; 1544608.0244033262 ; 1.7342900542749247E8 ; 2.2708943802903973E7 ; 2.6545740199373407E9 ; 0.0
22 ; 1557916.3797343022 ; 1.8007726310703135E8 ; 2.42535518273073E7 ; 2.8280030253648334E9 ; 0.0
23 ; 1564152.4791991161 ; 1.8703450189281726E8 ; 2.5811468207041603E7 ; 3.0080802884718647E9 ; 0.0
24 ; 1573912.0509698624 ; 1.943006689154932E8 ; 2.7375620686240718E7 ; 3.195114790364682E9 ; 0.0
25 ; 1587531.937453756 ; 2.0056376156640393E8 ; 2.894953273721058E7 ; 3.389415459280175E9 ; 0.0
26 ; 1593596.6369227099 ; 2.0057729174864337E8 ; 3.0537064674664333E7 ; 3.589979220846579E9 ; 0.0
27 ; 1605715.8549175654 ; 2.0059099894977373E8 ; 3.2130661311587043E7 ; 3.7905565125952225E9 ; 0.0
28 ; 1616311.4639411347 ; 2.0060485832022282E8 ; 3.373637716650461E7 ; 3.9911475115449963E9 ; 0.0
29 ; 1620981.0201275626 ; 2.0061884903150284E8 ; 3.535268863044574E7 ; 4.191752369865219E9 ; 0.0
30 ; 1632560.9861025 ; 2.006329535293191E8 ; 3.6973669650573306E7 ; 4.392371218896722E9 ; 0.0
31 ; 1641960.0716810208 ; 2.0064715693668324E8 ; 3.8606230636675805E7 ; 4.593004172426041E9 ; 0.0
32 ; 1652689.5229719619 ; 2.0066144657593665E8 ; 4.024819070835683E7 ; 4.793651329362724E9 ; 0.0
33 ; 1661309.1109967497 ; 2.006758115848171E8 ; 4.190088023132879E7 ; 4.994312775938661E9 ; 0.0
34 ; 1668911.6981211149 ; 2.0069024260690272E8 ; 4.3562189342325546E7 ; 5.194988587523478E9 ; 0.0
35 ; 1679400.7381725078 ; 2.007047315409724E8 ; 4.523110104044666E7 ; 5.395678830130381E9 ; 0.0
36 ; 1686563.154020253 ; 2.007192713371607E8 ; 4.691050177861917E7 ; 5.596383561671353E9 ; 0.0
37 ; 1697243.2439414982 ; 2.0073385583040357E8 ; 4.859706493263942E7 ; 5.797102833008514E9 ; 0.0
38 ; 1703698.3069617453 ; 2.0074847960371774E8 ; 5.029430817658092E7 ; 5.997836688838918E9 ; 0.0
39 ; 1709037.108327014 ; 2.0076313787544587E8 ; 5.1998006483542666E7 ; 6.198585168442636E9 ; 0.0
40 ; 1717423.2989257788 ; 2.0077782640583804E8 ; 5.370704359186968E7 ; 6.399348306318082E9 ; 0.0
41 ; 1728352.8964468546 ; 2.007925414193038E8 ; 5.542446689079546E7 ; 6.60012613272392E9 ; 0.0
42 ; 1731086.6843474237 ; 2.0080727953942013E8 ; 5.7152819787242316E7 ; 6.800918674143224E9 ; 0.0
43 ; 1740174.1583040073 ; 2.0082203773436955E8 ; 5.888390647158974E7 ; 7.001725953682644E9 ; 0.0
44 ; 1747056.0384089106 ; 2.0083681327094322E8 ; 6.062408062989374E7 ; 7.202547991417013E9 ; 0.0
45 ; 1751363.5401066793 ; 2.0085160367560884E8 ; 6.2371136668302655E7 ; 7.403384804687957E9 ; 0.0
46 ; 1755527.370008857 ; 2.0086640670142955E8 ; 6.412250020840933E7 ; 7.604236408363565E9 ; 0.0
47 ; 1759670.0543613553 ; 2.0088122029984882E8 ; 6.587802757841819E7 ; 7.805102815064995E9 ; 0.0
48 ; 1763232.252343545 ; 2.0089604259653866E8 ; 6.763769763277954E7 ; 8.005984035364843E9 ; 0.0
49 ; 1772589.8447336042 ; 2.0091087187065345E8 ; 6.940092988512309E7 ; 8.206880077961382E9 ; 0.0
50 ; 1774868.7226561243 ; 2.0092570653694928E8 ; 7.11735197298567E7 ; 8.407790949832035E9 ; 0.0
51 ; 1780142.992875532 ; 2.009405451303233E8 ; 7.294838845251283E7 ; 8.608716656368984E9 ; 0.0
52 ; 1782378.4786401505 ; 2.0095538629240322E8 ; 7.472853144538836E7 ; 8.809657201499308E9 ; 0.0
53 ; 1786594.9359255773 ; 2.0097022875988075E8 ; 7.651090992402852E7 ; 9.01061258779171E9 ; 0.0
54 ; 1788344.752024279 ; 2.0098507135433248E8 ; 7.829750485995409E7 ; 9.21158281655159E9 ; 0.0
55 ; 1794285.1127100545 ; 2.009999129733136E8 ; 8.008584961197837E7 ; 9.412567887905922E9 ; 0.0
56 ; 1799646.4246702665 ; 2.010147525825449E8 ; 8.188013472468843E7 ; 9.613567800879236E9 ; 0.0
57 ; 1804136.1153416217 ; 2.0102958920904022E8 ; 8.367978114935869E7 ; 9.81458255346178E9 ; 0.0
58 ; 1802873.345253499 ; 2.0104442193504715E8 ; 8.548391726470031E7 ; 1.001561214267082E10 ; 0.0
59 ; 1808101.4517204582 ; 2.010592498926906E8 ; 8.72867906099538E7 ; 1.0216656564605867E10 ; 0.0
60 ; 1814077.6986292468 ; 2.010740722592279E8 ; 8.909489206167427E7 ; 1.0417715814498558E10 ; 0.0
61 ; 1814975.0242507316 ; 2.0108888825283527E8 ; 9.090896976030351E7 ; 1.0618789886757786E10 ; 0.0
62 ; 1818067.3397084614 ; 2.011036971288587E8 ; 9.272394478455424E7 ; 1.081987877501062E10 ; 0.0
63 ; 1821964.582600694 ; 2.0111849817647043E8 ; 9.45420121242627E7 ; 1.1020982472139479E10 ; 0.0
64 ; 1825726.8524781065 ; 2.0113329071568197E8 ; 9.63639767068634E7 ; 1.1222100970315948E10 ; 0.0
65 ; 1827324.0613287995 ; 2.011480740946695E8 ; 9.81897035593415E7 ; 1.142323426103163E10 ; 0.0
66 ; 1830577.2465687746 ; 2.0116284768737513E8 ; 1.000170276206703E8 ; 1.1624382335126299E10 ; 0.0
67 ; 1836896.4308257971 ; 2.011776108913515E8 ; 1.0184760486723907E8 ; 1.1825545182813675E10 ; 0.0
68 ; 1838585.997299457 ; 2.0119236312582135E8 ; 1.0368450129806487E8 ; 1.2026722793705027E10 ; 0.0
69 ; 1841981.881794218 ; 2.0120710382992798E8 ; 1.0552308729536434E8 ; 1.2227915156830849E10 ; 0.0
70 ; 1843850.3530678432 ; 2.012218324611551E8 ; 1.0736506917715855E8 ; 1.2429122260660776E10 ; 0.0
71 ; 1846162.851831586 ; 2.0123654849389714E8 ; 1.092089195302264E8 ; 1.2630344093121931E10 ; 0.0
72 ; 1850242.7570547664 ; 2.0125125141816428E8 ; 1.1105508238205798E8 ; 1.2831580641615828E10 ; 0.0
73 ; 1854167.1295550433 ; 2.0126594073840714E8 ; 1.1290532513911274E8 ; 1.3032831893033993E10 ; 0.0
74 ; 1858908.6404842841 ; 2.0128061597244868E8 ; 1.1475949226866779E8 ; 1.32340978337724E10 ; 0.0
75 ; 1856381.0615630543 ; 2.012952766505126E8 ; 1.1661840090915208E8 ; 1.3435378449744848E10 ; 0.0
76 ; 1863714.0185297462 ; 2.0130992231433767E8 ; 1.1847478197071514E8 ; 1.363667372639536E10 ; 0.0
77 ; 1860864.2700028324 ; 2.013245525163698E8 ; 1.2033849598924488E8 ; 1.3837983648709698E10 ; 0.0
78 ; 1863881.0502621923 ; 2.013391668190238E8 ; 1.221993602592477E8 ; 1.4039308201226067E10 ; 0.0
79 ; 1864738.3019105932 ; 2.0135376479400826E8 ; 1.240632413095099E8 ; 1.424064736804509E10 ; 0.0
80 ; 1864192.275403909 ; 2.013683460217071E8 ; 1.259279796114205E8 ; 1.4442001132839098E10 ; 0.0
81 ; 1867513.801764091 ; 2.013829100906126E8 ; 1.277921718868244E8 ; 1.4643369478860806E10 ; 0.0
82 ; 1865531.410782104 ; 2.0139745659680498E8 ; 1.2965968568858849E8 ; 1.4844752388951418E10 ; 0.0
83 ; 1866195.1574737253 ; 2.01411985143474E8 ; 1.3152521709937058E8 ; 1.5046149845548223E10 ; 0.0
84 ; 1866132.6470433006 ; 2.0142649534047934E8 ; 1.3339141225684431E8 ; 1.5247561830691698E10 ; 0.0
85 ; 1864750.6499418004 ; 2.0144098680394506E8 ; 1.352575449038876E8 ; 1.5448988326032177E10 ; 0.0
86 ; 1864164.1215451742 ; 2.0145545915588653E8 ; 1.371222955538294E8 ; 1.5650429312836123E10 ; 0.0
87 ; 1866944.9697223397 ; 2.0146991202386558E8 ; 1.3898645967537457E8 ; 1.5851884771992008E10 ; 0.0
88 ; 1866020.9303631678 ; 2.0148434504067263E8 ; 1.408534046450969E8 ; 1.6053354684015873E10 ; 0.0
89 ; 1867079.0788588463 ; 2.0149875784403226E8 ; 1.4271942557546008E8 ; 1.6254839029056545E10 ; 0.0
90 ; 1864121.4682277993 ; 2.0151315007633126E8 ; 1.4458650465431893E8 ; 1.6456337786900578E10 ; 0.0
91 ; 1866336.825117289 ; 2.015275213843667E8 ; 1.4645062612254673E8 ; 1.665785093697691E10 ; 0.0
92 ; 1864435.3274048187 ; 2.015418714191122E8 ; 1.4831696294766402E8 ; 1.6859378458361277E10 ; 0.0
93 ; 1865075.9931666472 ; 2.0155619983550167E8 ; 1.5018139827506885E8 ; 1.7060920329780388E10 ; 0.0
94 ; 1862809.2276267018 ; 2.015705062922281E8 ; 1.520464742682355E8 ; 1.726247652961589E10 ; 0.0
95 ; 1861663.6278428526 ; 2.0158479045155686E8 ; 1.5390928349586222E8 ; 1.746404703590812E10 ; 0.0
96 ; 1860246.7715476558 ; 2.0159905197915226E8 ; 1.5577094712370506E8 ; 1.7665631826359676E10 ; 0.0
97 ; 1863362.0260111361 ; 2.0161329054391602E8 ; 1.576311938952527E8 ; 1.786723087833883E10 ; 0.0
98 ; 1858790.0007520595 ; 2.01627505817837E8 ; 1.5949455592126384E8 ; 1.8068844168882744E10 ; 0.0
99 ; 1859022.7951344717 ; 2.016416974758513E8 ; 1.613533459220159E8 ; 1.827047167470058E10 ; 0.0
100 ; 1859170.0562306962 ; 2.0165586519571176E8 ; 1.632123687171504E8 ; 1.8472113372176434E10 ; 0.0
101 ; 1856766.344028346 ; 2.0167000865786645E8 ; 1.6507153877338108E8 ; 1.8673769237372147E10 ; 0.0
102 ; 1858377.4925489237 ; 2.0168412754534498E8 ; 1.6692830511740944E8 ; 1.8875439246030014E10 ; 0.0
103 ; 1857665.1481011321 ; 2.0169822154365262E8 ; 1.6878668260995835E8 ; 1.907712337357536E10 ; 0.0
104 ; 1857585.2514593226 ; 2.0171229034067145E8 ; 1.7064434775805947E8 ; 1.927882159511901E10 ; 0.0
105 ; 1856594.6335851585 ; 2.0172633362656757E8 ; 1.725019330095188E8 ; 1.9480533885459682E10 ; 0.0
106 ; 1853129.741133915 ; 2.0174035109370494E8 ; 1.7435852764310396E8 ; 1.968226021908625E10 ; 0.0
107 ; 1850151.5995402639 ; 2.0175434243656415E8 ; 1.762116573842379E8 ; 1.9884000570179955E10 ; 0.0
108 ; 1851484.1744475234 ; 2.0176830735166693E8 ; 1.7806180898377815E8 ; 2.008575491261652E10 ; 0.0
109 ; 1849047.2584674587 ; 2.0178224553750518E8 ; 1.799132931582257E8 ; 2.0287523219968185E10 ; 0.0
110 ; 1850952.0771026595 ; 2.0179615669447455E8 ; 1.8176234041669315E8 ; 2.048930546550569E10 ; 0.0
111 ; 1846757.2732199174 ; 2.0181004052481216E8 ; 1.836132924937958E8 ; 2.0691101622200165E10 ; 0.0
112 ; 1846267.9633331313 ; 2.018238967325385E8 ; 1.8546004976701573E8 ; 2.0892911662724976E10 ; 0.0
113 ; 1842200.1160517188 ; 2.0183772502340245E8 ; 1.8730631773034886E8 ; 2.1094735559457516E10 ; 0.0
114 ; 1840776.3770966239 ; 2.018515251048303E8 ; 1.891485178464006E8 ; 2.129657328448092E10 ; 0.0
115 ; 1841401.71918971 ; 2.0186529668587735E8 ; 1.909892942234972E8 ; 2.149842480958575E10 ; 0.0
116 ; 1841796.0819606932 ; 2.0187903947718307E8 ; 1.9283069594268692E8 ; 2.170029010627163E10 ; 0.0
117 ; 1838337.245451196 ; 2.018927531909284E8 ; 1.9467249202464762E8 ; 2.1902169145748814E10 ; 0.0
118 ; 1834686.9569986856 ; 2.0190643754079625E8 ; 1.965108292700988E8 ; 2.2104061898939743E10 ; 0.0
119 ; 1833979.9218107956 ; 2.01920092241934E8 ; 1.9834551622709748E8 ; 2.2305968336480537E10 ; 0.0
120 ; 1829259.3656805845 ; 2.0193371701091844E8 ; 2.001794961489083E8 ; 2.2507888428722473E10 ; 0.0
121 ; 1828989.776329706 ; 2.0194731156572288E8 ; 2.0200875551458886E8 ; 2.270982214573339E10 ; 0.0
122 ; 1829380.228996169 ; 2.0196087562568614E8 ; 2.0383774529091856E8 ; 2.2911769457299114E10 ; 0.0
123 ; 1828090.8275854052 ; 2.019744089114835E8 ; 2.0566712551991472E8 ; 2.31137303329248E10 ; 0.0
124 ; 1826763.0021545845 ; 2.019879111450994E8 ; 2.0749521634750012E8 ; 2.3315704741836285E10 ; 0.0
125 ; 1824277.3351493932 ; 2.0200138204980186E8 ; 2.093219793496547E8 ; 2.3517692652981384E10 ; 0.0
126 ; 1819353.0316401466 ; 2.0201482135011825E8 ; 2.111462566848041E8 ; 2.3719694035031185E10 ; 0.0
127 ; 1821374.1517555723 ; 2.0202822877181274E8 ; 2.1296560971644425E8 ; 2.39217088563813E10 ; 0.0
128 ; 1815072.6169517841 ; 2.02041604041865E8 ; 2.1478698386819983E8 ; 2.4123737085153114E10 ; 0.0
129 ; 1813454.5592949947 ; 2.0205494688845026E8 ; 2.1660205648515162E8 ; 2.432577868919498E10 ; 0.0
130 ; 1810507.177399699 ; 2.0206825704092067E8 ; 2.1841551104444662E8 ; 2.452783363608343E10 ; 0.0
131 ; 1803889.825985261 ; 2.0208153422978744E8 ; 2.202260182218463E8 ; 2.472990189312435E10 ; 0.0
132 ; 1799861.2058025058 ; 2.0209477818670464E8 ; 2.2202990804783157E8 ; 2.4931983427354137E10 ; 0.0
133 ; 1796534.899038598 ; 2.0210798864445347E8 ; 2.2382976925363407E8 ; 2.513407820554084E10 ; 0.0
134 ; 1791869.4017217094 ; 2.0212116533692783E8 ; 2.2562630415267265E8 ; 2.5336186194185295E10 ; 0.0
135 ; 1785925.3348664488 ; 2.021343079991207E8 ; 2.2741817355439436E8 ; 2.5538307359522224E10 ; 0.0
136 ; 1781446.7910097046 ; 2.0214741636711138E8 ; 2.292040988892608E8 ; 2.5740441667521347E10 ; 0.0
137 ; 1777148.276977593 ; 2.0216049017805356E8 ; 2.309855456802705E8 ; 2.594258908388846E10 ; 0.0
138 ; 1771179.5368352926 ; 2.0217352917016402E8 ; 2.327626939572481E8 ; 2.6144749574066513E10 ; 0.0
139 ; 1768101.0822278499 ; 2.0218653308271232E8 ; 2.3453387349408337E8 ; 2.6346923103236675E10 ; 0.0
140 ; 1761869.818842379 ; 2.0219950165601093E8 ; 2.3630197457631123E8 ; 2.654910963631939E10 ; 0.0
141 ; 1754224.561370937 ; 2.0221243463140607E8 ; 2.380638443951536E8 ; 2.67513091379754E10 ; 0.0
142 ; 1749205.3699160554 ; 2.0222533175126937E8 ; 2.3981806895652455E8 ; 2.6953521572606804E10 ; 0.0
143 ; 1743562.811505709 ; 2.0223819275898972E8 ; 2.415672743264406E8 ; 2.7155746904358074E10 ; 0.0
144 ; 1743033.4526585883 ; 2.0225101739896592E8 ; 2.433108371379463E8 ; 2.7357985097117065E10 ; 0.0
145 ; 1738367.7860986094 ; 2.022638054166E8 ; 2.450538705906049E8 ; 2.7560236114516033E10 ; 0.0
146 ; 1733429.1810531388 ; 2.022765565582905E8 ; 2.467922383767035E8 ; 2.7762499919932632E10 ; 0.0
147 ; 1732962.9272922745 ; 2.0228927057142702E8 ; 2.4852566755775663E8 ; 2.7964776476490925E10 ; 0.0
148 ; 1730781.7464093128 ; 2.0230194720438424E8 ; 2.5025863048504892E8 ; 2.816706574706235E10 ; 0.0
149 ; 1726690.9322755402 ; 2.0231458620651725E8 ; 2.5198941223145825E8 ; 2.8369367694266735E10 ; 0.0
150 ; 1723735.821226593 ; 2.0232718732815674E8 ; 2.5371610316373378E8 ; 2.857168228047325E10 ; 0.0
151 ; 1723850.3327119097 ; 2.0233975032060483E8 ; 2.5543983898496038E8 ; 2.8774009467801407E10 ; 0.0
152 ; 1717980.2793091987 ; 2.0235227493613097E8 ; 2.5716368931767228E8 ; 2.8976349218122013E10 ; 0.0
153 ; 1719864.811110534 ; 2.023647609279686E8 ; 2.588816695969815E8 ; 2.9178701493058144E10 ; 0.0
154 ; 1714740.2681555147 ; 2.0237720805031163E8 ; 2.6060153440809202E8 ; 2.938106625398611E10 ; 0.0
155 ; 1712709.061825024 ; 2.0238961605831185E8 ; 2.6231627467624754E8 ; 2.9583443462036423E10 ; 0.0
156 ; 1708834.3140887246 ; 2.0240198470807588E8 ; 2.6402898373807257E8 ; 2.9785833078094734E10 ; 0.0
157 ; 1708651.3672680655 ; 2.0241431375666314E8 ; 2.657378180521613E8 ; 2.998823506280281E10 ; 0.0
158 ; 1704070.4347238229 ; 2.0242660296208352E8 ; 2.6744646941942936E8 ; 3.0190649376559475E10 ; 0.0
159 ; 1701078.6371281396 ; 2.0243885208329555E8 ; 2.6915053985415316E8 ; 3.0393075979521557E10 ; 0.0
160 ; 1701644.6197929229 ; 2.024510608802049E8 ; 2.708516184912813E8 ; 3.059551483160485E10 ; 0.0
161 ; 1696245.7780983052 ; 2.0246322911366278E8 ; 2.725532631110742E8 ; 3.0797965892485054E10 ; 0.0
162 ; 1693732.285940845 ; 2.0247535654546502E8 ; 2.742495088891725E8 ; 3.1000429121598717E10 ; 0.0
163 ; 1692255.8276506762 ; 2.0248744293835077E8 ; 2.759432411751133E8 ; 3.120290447814418E10 ; 0.0
164 ; 1688483.698033831 ; 2.0249948805600202E8 ; 2.77635497002764E8 ; 3.140539192108253E10 ; 0.0
165 ; 1688511.8150851466 ; 2.0251149166304278E8 ; 2.793239807007978E8 ; 3.1607891409138535E10 ; 0.0
166 ; 1684636.6624889197 ; 2.0252345352503878E8 ; 2.8101249251588297E8 ; 3.181040290080158E10 ; 0.0
167 ; 1681549.8529693817 ; 2.0253537340849715E8 ; 2.826971291783719E8 ; 3.201292635432662E10 ; 0.0
168 ; 1678316.3136411656 ; 2.0254725108086637E8 ; 2.843786790313413E8 ; 3.2215461727735115E10 ; 0.0
169 ; 1677962.0247847668 ; 2.0255908631053627E8 ; 2.860569953449825E8 ; 3.2418008978815983E10 ; 0.0
170 ; 1673264.3185674846 ; 2.0257087886683828E8 ; 2.8773495736976725E8 ; 3.262056806512652E10 ; 0.0
171 ; 1669157.274365226 ; 2.0258262852004576E8 ; 2.894082216883347E8 ; 3.2823138943993355E10 ; 0.0
172 ; 1669539.5948646443 ; 2.025943350413744E8 ; 2.9107737896269995E8 ; 3.30257215725134E10 ; 0.0
173 ; 1666392.2068497627 ; 2.0260599820298287E8 ; 2.927469185575646E8 ; 3.3228315907554775E10 ; 0.0
174 ; 1663224.5285021248 ; 2.0261761777797356E8 ; 2.9441331076441437E8 ; 3.343092190575776E10 ; 0.0
175 ; 1661007.1577898855 ; 2.0262919354039335E8 ; 2.960765352929165E8 ; 3.3633539523535732E10 ; 0.0
176 ; 1660671.3659509397 ; 2.026407252652345E8 ; 2.9773754245070636E8 ; 3.3836168717076126E10 ; 0.0
177 ; 1660269.3979390766 ; 2.0265221272843578E8 ; 2.993982138166573E8 ; 3.4038809442341362E10 ; 0.0
178 ; 1655489.1282372354 ; 2.026636557068835E8 ; 3.010584832145964E8 ; 3.4241461655069798E10 ; 0.0
179 ; 1654548.3655650916 ; 2.0267505397841278E8 ; 3.0271397234283364E8 ; 3.444412531077668E10 ; 0.0
180 ; 1649480.3963439032 ; 2.0268640732180887E8 ; 3.0436852070839876E8 ; 3.46468003647551E10 ; 0.0
181 ; 1649986.853787449 ; 2.0269771551680854E8 ; 3.0601800110474265E8 ; 3.4849486772076904E10 ; 0.0
182 ; 1649278.346618856 ; 2.027089783441015E8 ; 3.0766798795853007E8 ; 3.505218448759371E10 ; 0.0
183 ; 1647432.5782949852 ; 2.027201955853319E8 ; 3.093172663051489E8 ; 3.525489346593781E10 ; 0.0
184 ; 1642770.2951173526 ; 2.0273136702310014E8 ; 3.109646988834439E8 ; 3.545761366152315E10 ; 0.0
185 ; 1643995.8576459899 ; 2.0274249244096437E8 ; 3.126074691785613E8 ; 3.566034502854625E10 ; 0.0
186 ; 1638905.53774771 ; 2.0275357162344232E8 ; 3.1425146503620726E8 ; 3.586308752098721E10 ; 0.0
187 ; 1639177.7401378355 ; 2.0276460435601306E8 ; 3.1589037057395494E8 ; 3.606584109261066E10 ; 0.0
188 ; 1638414.1313150153 ; 2.027755904251189E8 ; 3.1752954831409276E8 ; 3.626860569696667E10 ; 0.0
189 ; 1637268.534066817 ; 2.027865296181673E8 ; 3.1916796244540775E8 ; 3.6471381287391785E10 ; 0.0
190 ; 1635720.5924927397 ; 2.0279742172353294E8 ; 3.2080523097947454E8 ; 3.667416781700995E10 ; 0.0
191 ; 1630935.6916708327 ; 2.0280826653055954E8 ; 3.224409515719673E8 ; 3.687696523873348E10 ; 0.0
192 ; 1629875.4088891381 ; 2.0281906382956213E8 ; 3.2407188726363814E8 ; 3.707977350526404E10 ; 0.0
193 ; 1628677.9020573245 ; 2.0282981341182902E8 ; 3.2570176267252725E8 ; 3.72825925690936E10 ; 0.0
194 ; 1627239.5313646414 ; 2.028405150696241E8 ; 3.273304405745846E8 ; 3.7485422382505424E10 ; 0.0
195 ; 1623475.0933022364 ; 2.0285116859618887E8 ; 3.289576801059492E8 ; 3.768826289757505E10 ; 0.0
196 ; 1625307.937007189 ; 2.0286177378574488E8 ; 3.305811551992515E8 ; 3.789111406617124E10 ; 0.0
197 ; 1622201.357367857 ; 2.0287233043349576E8 ; 3.3220646313625866E8 ; 3.8093975839956985E10 ; 0.0
198 ; 1619958.6942264764 ; 2.0288283833562973E8 ; 3.3382866449362653E8 ; 3.829684817039048E10 ; 0.0
199 ; 1617930.6285647731 ; 2.0289329728932184E8 ; 3.3544862318785304E8 ; 3.849973100872611E10 ; 0.0
