CSV File for the City 1 on Day 222
1 - Minute m 
2 - Power Consumed at minute m 
3 - Power Produced at minute m 
4 - Energy Consumed since the beginning of the day 
5 - Energy Produced since the beginning of the day 
6 - Energy Lost since the beginning of the day on lines starting from the city
 
0 ; 1071109.535378332 ; 1.0526226831350955E8 ; 0.0 ; 0.0 ; 0.0
1 ; 1088456.9022296136 ; 1.0541352027922332E8 ; 1071109.535378332 ; 1.0526226831350955E8 ; 0.0
2 ; 1111015.0171004776 ; 1.0587365263924322E8 ; 2159566.437607946 ; 2.1067578859273288E8 ; 0.0
3 ; 1132595.248386792 ; 1.066426875189538E8 ; 3270581.4547084235 ; 3.165494412319761E8 ; 0.0
4 ; 1157724.3949533193 ; 1.0772064740308136E8 ; 4403176.703095215 ; 4.231921287509299E8 ; 0.0
5 ; 1186303.2153646937 ; 1.0910755449462646E8 ; 5560901.098048534 ; 5.3091277615401125E8 ; 0.0
6 ; 1227657.2555746727 ; 1.1080342992328885E8 ; 6747204.313413228 ; 6.400203306486378E8 ; 0.0
7 ; 1282040.6222385128 ; 1.1280829283902395E8 ; 7974861.5689879 ; 7.508237605719266E8 ; 0.0
8 ; 1364998.0098548918 ; 1.1512215945648271E8 ; 9256902.191226413 ; 8.636320534109505E8 ; 0.0
9 ; 1482870.1608853044 ; 1.1774504214312226E8 ; 1.0621900201081306E7 ; 9.787542128674333E8 ; 0.0
10 ; 1668471.617670193 ; 1.206769486587649E8 ; 1.210477036196661E7 ; 1.0964992550105555E9 ; 0.0
11 ; 1957029.1889414983 ; 1.2391788164929512E8 ; 1.3773241979636803E7 ; 1.2171762036693203E9 ; 0.0
12 ; 2423397.7287543006 ; 1.2746783846882841E8 ; 1.57302711685783E7 ; 1.3410940853186154E9 ; 0.0
13 ; 2870708.626902472 ; 1.3132681135754246E8 ; 1.81536688973326E7 ; 1.4685619237874439E9 ; 0.0
14 ; 2926306.598952069 ; 1.3549478794798023E8 ; 2.1024377524235073E7 ; 1.5998887351449864E9 ; 0.0
15 ; 2950384.5047643557 ; 1.3997175202549064E8 ; 2.3950684123187143E7 ; 1.7353835230929666E9 ; 0.0
16 ; 2970059.454522071 ; 1.447576844401184E8 ; 2.69010686279515E7 ; 1.8753552751184573E9 ; 0.0
17 ; 2996929.263159277 ; 1.4985256406216368E8 ; 2.987112808247357E7 ; 2.0201129595585756E9 ; 0.0
18 ; 3019411.437552582 ; 1.5525636868862593E8 ; 3.2868057345632844E7 ; 2.1699655236207395E9 ; 0.0
19 ; 3044378.3285043268 ; 1.6096907583477888E8 ; 3.588746878318542E7 ; 2.3252218923093653E9 ; 0.0
20 ; 3065717.566959436 ; 1.669906633752379E8 ; 3.893184711168975E7 ; 2.486190968144144E9 ; 0.0
21 ; 3091910.5675828275 ; 1.7332111002523085E8 ; 4.199756467864918E7 ; 2.653181631519382E9 ; 0.0
22 ; 3115401.160175522 ; 1.7996039567184263E8 ; 4.508947524623201E7 ; 2.826502741544613E9 ; 0.0
23 ; 3138361.8237114195 ; 1.869085015762E8 ; 4.8204876406407535E7 ; 3.0064631372164555E9 ; 0.0
24 ; 3164082.9601751333 ; 1.9416541047213894E8 ; 5.134323823011895E7 ; 3.1933716387926555E9 ; 0.0
25 ; 3186115.286453149 ; 2.0041914748503616E8 ; 5.450732119029409E7 ; 3.3875370492647943E9 ; 0.0
26 ; 3212397.727826557 ; 2.0042324613407084E8 ; 5.769343647674724E7 ; 3.5879561967498307E9 ; 0.0
27 ; 3238003.453743893 ; 2.0042746278600052E8 ; 6.0905834204573795E7 ; 3.7883794428839016E9 ; 0.0
28 ; 3260960.215414474 ; 2.00431785808944E8 ; 6.4143837658317685E7 ; 3.9888069056699023E9 ; 0.0
29 ; 3288408.8211258207 ; 2.0043620476161614E8 ; 6.740479787373216E7 ; 4.1892386914788465E9 ; 0.0
30 ; 3301503.563610617 ; 2.0044071028595808E8 ; 7.069320669485798E7 ; 4.389674896240462E9 ; 0.0
31 ; 3328194.6983769257 ; 2.004452940015566E8 ; 7.39947102584686E7 ; 4.590115606526421E9 ; 0.0
32 ; 3351118.757162605 ; 2.0044994840510595E8 ; 7.732290495684552E7 ; 4.790560900527977E9 ; 0.0
33 ; 3374220.329323282 ; 2.0045466677678785E8 ; 8.067402371400812E7 ; 4.991010848933083E9 ; 0.0
34 ; 3393880.3199043768 ; 2.0045944309448105E8 ; 8.40482440433314E7 ; 5.19146551570987E9 ; 0.0
35 ; 3415353.8729728 ; 2.0046427195606157E8 ; 8.744212436323577E7 ; 5.391924958804352E9 ; 0.0
36 ; 3435963.521980036 ; 2.0046914850963542E8 ; 9.085747823620857E7 ; 5.592389230760413E9 ; 0.0
37 ; 3458907.6367584756 ; 2.0047406839129105E8 ; 9.42934417581886E7 ; 5.792858379270048E9 ; 0.0
38 ; 3473067.124466779 ; 2.004790276698172E8 ; 9.775234939494708E7 ; 5.993332447661339E9 ; 0.0
39 ; 3496072.0335284984 ; 2.0048402279777053E8 ; 1.0122541651941386E8 ; 6.193811475331156E9 ; 0.0
40 ; 3510577.589368266 ; 2.0048905056826204E8 ; 1.0472148855294235E8 ; 6.394295498128926E9 ; 0.0
41 ; 3528277.912904324 ; 2.0049410807685155E8 ; 1.0823206614231062E8 ; 6.594784548697188E9 ; 0.0
42 ; 3545403.064118972 ; 2.0049919268797475E8 ; 1.1176034405521494E8 ; 6.79527865677404E9 ; 0.0
43 ; 3562356.6734367074 ; 2.0050430200537413E8 ; 1.1530574711933391E8 ; 6.995777849462015E9 ; 0.0
44 ; 3576034.495049021 ; 2.0050943384605497E8 ; 1.1886810379277061E8 ; 7.196282151467389E9 ; 0.0
45 ; 3593070.2454929715 ; 2.0051458621733734E8 ; 1.2244413828781962E8 ; 7.396791585313444E9 ; 0.0
46 ; 3608036.3891341775 ; 2.005197572966233E8 ; 1.2603720853331259E8 ; 7.597306171530782E9 ; 0.0
47 ; 3616531.3962497516 ; 2.0052494541354287E8 ; 1.2964524492244677E8 ; 7.797825928827405E9 ; 0.0
48 ; 3632124.598032519 ; 2.005301490341836E8 ; 1.3326177631869653E8 ; 7.998350874240948E9 ; 0.0
49 ; 3640409.5041610915 ; 2.005353667471442E8 ; 1.3689390091672903E8 ; 8.198881023275131E9 ; 0.0
50 ; 3652854.3599637225 ; 2.005405972511865E8 ; 1.4053431042089012E8 ; 8.399416390022275E9 ; 0.0
51 ; 3663278.8451395677 ; 2.0054583934428805E8 ; 1.4418716478085384E8 ; 8.599956987273462E9 ; 0.0
52 ; 3672179.454195482 ; 2.0055109191392276E8 ; 1.478504436259934E8 ; 8.80050282661775E9 ; 0.0
53 ; 3681551.9286810528 ; 2.005563539284203E8 ; 1.5152262308018887E8 ; 9.001053918531673E9 ; 0.0
54 ; 3689470.46960379 ; 2.0056162442927265E8 ; 1.5520417500886992E8 ; 9.201610272460094E9 ; 0.0
55 ; 3701087.0032872926 ; 2.0056690252427447E8 ; 1.588936454784737E8 ; 9.402171896889366E9 ; 0.0
56 ; 3710771.877602846 ; 2.0057218738139746E8 ; 1.6259473248176098E8 ; 9.602738799413641E9 ; 0.0
57 ; 3722999.917803787 ; 2.005774782233125E8 ; 1.6630550435936382E8 ; 9.803310986795038E9 ; 0.0
58 ; 3732400.28248489 ; 2.0058277432248315E8 ; 1.7002850427716762E8 ; 1.000388846501835E10 ; 0.0
59 ; 3739356.433687289 ; 2.0058807499676517E8 ; 1.737609045596525E8 ; 1.0204471239340834E10 ; 0.0
60 ; 3745741.314842742 ; 2.0059337960545352E8 ; 1.775002609933398E8 ; 1.0405059314337599E10 ; 0.0
61 ; 3757400.6449376596 ; 2.0059868754572636E8 ; 1.8124600230818254E8 ; 1.0605652693943052E10 ; 0.0
62 ; 3765531.4264563764 ; 2.006039982494418E8 ; 1.850034029531202E8 ; 1.080625138148878E10 ; 0.0
63 ; 3773989.6412546076 ; 2.0060931118024796E8 ; 1.8876893437957656E8 ; 1.100685537973822E10 ; 0.0
64 ; 3776858.164605842 ; 2.0061462583097228E8 ; 1.9254292402083117E8 ; 1.1207464690918468E10 ; 0.0
65 ; 3788607.2067813934 ; 2.006199417212599E8 ; 1.9631978218543702E8 ; 1.1408079316749441E10 ; 0.0
66 ; 3797270.088246314 ; 2.0062525839543414E8 ; 2.001083893922184E8 ; 1.1608699258470701E10 ; 0.0
67 ; 3808476.7061925195 ; 2.0063057542055622E8 ; 2.0390565948046473E8 ; 1.1809324516866135E10 ; 0.0
68 ; 3817666.601198909 ; 2.006358923846625E8 ; 2.0771413618665725E8 ; 1.2009955092286692E10 ; 0.0
69 ; 3828052.2965350654 ; 2.0064120889516205E8 ; 2.1153180278785616E8 ; 1.2210590984671354E10 ; 0.0
70 ; 3832371.310031728 ; 2.0064652457737702E8 ; 2.1535985508439124E8 ; 1.2411232193566517E10 ; 0.0
71 ; 3840019.8713858994 ; 2.0065183907321227E8 ; 2.1919222639442298E8 ; 1.2611878718143894E10 ; 0.0
72 ; 3848110.6446453244 ; 2.0065715203994095E8 ; 2.2303224626580888E8 ; 1.2812530557217106E10 ; 0.0
73 ; 3854887.74659458 ; 2.0066246314909488E8 ; 2.268803569104542E8 ; 1.3013187709257048E10 ; 0.0
74 ; 3864616.1795575055 ; 2.0066777208544907E8 ; 2.307352446570488E8 ; 1.3213850172406143E10 ; 0.0
75 ; 3869265.1874874 ; 2.0067307854609203E8 ; 2.345998608366063E8 ; 1.3414517944491592E10 ; 0.0
76 ; 3877665.0581189906 ; 2.0067838223957288E8 ; 2.384691260240937E8 ; 1.3615191023037685E10 ; 0.0
77 ; 3884613.168192197 ; 2.006836828851188E8 ; 2.423467910822127E8 ; 1.3815869405277258E10 ; 0.0
78 ; 3885137.7909008088 ; 2.0068898021191585E8 ; 2.462314042504049E8 ; 1.4016553088162376E10 ; 0.0
79 ; 3885798.962768889 ; 2.0069427395844725E8 ; 2.501165420413057E8 ; 1.4217242068374292E10 ; 0.0
80 ; 3889657.2566016833 ; 2.0069956387188444E8 ; 2.5400234100407457E8 ; 1.4417936342332739E10 ; 0.0
81 ; 3890406.290808497 ; 2.0070484970752543E8 ; 2.5789199826067626E8 ; 1.4618635906204624E10 ; 0.0
82 ; 3890614.791387769 ; 2.00710131228277E8 ; 2.6178240455148476E8 ; 1.481934075591215E10 ; 0.0
83 ; 3892054.1089296564 ; 2.0071540820417625E8 ; 2.6567301934287253E8 ; 1.5020050887140427E10 ; 0.0
84 ; 3893830.5997892013 ; 2.0072068041194856E8 ; 2.695650734518022E8 ; 1.5220766295344603E10 ; 0.0
85 ; 3891800.653427491 ; 2.0072594763459846E8 ; 2.734589040515914E8 ; 1.5421486975756552E10 ; 0.0
86 ; 3897167.5440595425 ; 2.00731209661031E8 ; 2.773507047050189E8 ; 1.562221292339115E10 ; 0.0
87 ; 3896515.583931698 ; 2.0073646628570065E8 ; 2.812478722490784E8 ; 1.5822944133052181E10 ; 0.0
88 ; 3895272.4910721346 ; 2.007417173082857E8 ; 2.851443878330101E8 ; 1.6023680599337881E10 ; 0.0
89 ; 3895252.126313104 ; 2.0074696253338617E8 ; 2.890396603240822E8 ; 1.6224422316646168E10 ; 0.0
90 ; 3893412.868355283 ; 2.007522017702428E8 ; 2.929349124503953E8 ; 1.6425169279179554E10 ; 0.0
91 ; 3893526.5250230473 ; 2.007574348324762E8 ; 2.9682832531875056E8 ; 1.6625921480949797E10 ; 0.0
92 ; 3894943.0227126363 ; 2.007626615378436E8 ; 3.007218518437736E8 ; 1.6826678915782272E10 ; 0.0
93 ; 3896771.692479046 ; 2.0076788170801297E8 ; 3.0461679486648625E8 ; 1.7027441577320116E10 ; 0.0
94 ; 3898868.699583879 ; 2.0077309516835186E8 ; 3.085135665589653E8 ; 1.722820945902813E10 ; 0.0
95 ; 3893895.44513516 ; 2.0077830174773097E8 ; 3.124124352585492E8 ; 1.742898255419648E10 ; 0.0
96 ; 3895594.995606364 ; 2.007835012783406E8 ; 3.163063307036844E8 ; 1.762976085594421E10 ; 0.0
97 ; 3895882.9470837135 ; 2.0078869359551942E8 ; 3.2020192569929075E8 ; 1.783054435722255E10 ; 0.0
98 ; 3892056.086797023 ; 2.0079387853759402E8 ; 3.2409780864637446E8 ; 1.803133305081807E10 ; 0.0
99 ; 3890025.784645616 ; 2.0079905594572958E8 ; 3.2798986473317146E8 ; 1.8232126929355663E10 ; 0.0
100 ; 3890116.334351645 ; 2.0080422566378945E8 ; 3.318798905178171E8 ; 1.843292598530139E10 ; 0.0
101 ; 3889557.400077678 ; 2.0080938753820404E8 ; 3.3577000685216874E8 ; 1.863373021096518E10 ; 0.0
102 ; 3889944.123627097 ; 2.00814541417848E8 ; 3.3965956425224644E8 ; 1.8834539598503384E10 ; 0.0
103 ; 3886761.3381100157 ; 2.008196871539249E8 ; 3.4354950837587357E8 ; 1.903535413992123E10 ; 0.0
104 ; 3887416.190238622 ; 2.008248245998592E8 ; 3.474362697139836E8 ; 1.9236173827075153E10 ; 0.0
105 ; 3883207.344730616 ; 2.0082995361119485E8 ; 3.513236859042222E8 ; 1.943699865167501E10 ; 0.0
106 ; 3882052.8672125437 ; 2.0083507404549995E8 ; 3.552068932489528E8 ; 1.9637828605286205E10 ; 0.0
107 ; 3882287.0445815446 ; 2.0084018576227742E8 ; 3.5908894611616534E8 ; 1.9838663679331707E10 ; 0.0
108 ; 3880820.1077884454 ; 2.0084528862288073E8 ; 3.629712331607469E8 ; 2.0039503865093983E10 ; 0.0
109 ; 3879886.2774999263 ; 2.0085038249043486E8 ; 3.668520532685353E8 ; 2.024034915371686E10 ; 0.0
110 ; 3875171.7357797585 ; 2.008554672297619E8 ; 3.7073193954603523E8 ; 2.04411995362073E10 ; 0.0
111 ; 3872143.8057362707 ; 2.0086054270731086E8 ; 3.74607111281815E8 ; 2.064205500343706E10 ; 0.0
112 ; 3869779.1039338433 ; 2.0086560879109177E8 ; 3.7847925508755124E8 ; 2.084291554614437E10 ; 0.0
113 ; 3863814.3872998543 ; 2.0087066535061336E8 ; 3.823490341914851E8 ; 2.1043781154935463E10 ; 0.0
114 ; 3868643.5056996797 ; 2.008757122568245E8 ; 3.8621284857878494E8 ; 2.1244651820286076E10 ; 0.0
115 ; 3859706.169946567 ; 2.0088074938205883E8 ; 3.9008149208448464E8 ; 2.14455275325429E10 ; 0.0
116 ; 3857612.427720906 ; 2.0088577659998265E8 ; 3.939411982544312E8 ; 2.1646408281924957E10 ; 0.0
117 ; 3856131.7523971037 ; 2.0089079378554553E8 ; 3.977988106821521E8 ; 2.184729405852494E10 ; 0.0
118 ; 3851521.8574923463 ; 2.008958008149339E8 ; 4.016549424345492E8 ; 2.2048184852310486E10 ; 0.0
119 ; 3849406.5236670654 ; 2.0090079756552702E8 ; 4.0550646429204154E8 ; 2.224908065312542E10 ; 0.0
120 ; 3845048.189322242 ; 2.009057839158555E8 ; 4.093558708157086E8 ; 2.244998145069095E10 ; 0.0
121 ; 3846668.2548762173 ; 2.00910759745562E8 ; 4.132009190050308E8 ; 2.2650887234606804E10 ; 0.0
122 ; 3838337.3022582293 ; 2.00915724935364E8 ; 4.17047587259907E8 ; 2.2851797994352367E10 ; 0.0
123 ; 3834425.967165211 ; 2.0092067936701894E8 ; 4.2088592456216526E8 ; 2.305271371928773E10 ; 0.0
124 ; 3831180.597202705 ; 2.009256229232906E8 ; 4.247203505293305E8 ; 2.325363439865475E10 ; 0.0
125 ; 3825758.190811077 ; 2.0093055548791787E8 ; 4.285515311265332E8 ; 2.345456002157804E10 ; 0.0
126 ; 3820849.4909652704 ; 2.0093547694558483E8 ; 4.323772893173443E8 ; 2.365549057706596E10 ; 0.0
127 ; 3815246.4610075587 ; 2.009403871818926E8 ; 4.3619813880830956E8 ; 2.3856426054011543E10 ; 0.0
128 ; 3813754.301125173 ; 2.0094528608333242E8 ; 4.400133852693171E8 ; 2.4057366441193436E10 ; 0.0
129 ; 3809203.7310062363 ; 2.0095017353726044E8 ; 4.4382713957044226E8 ; 2.4258311727276768E10 ; 0.0
130 ; 3802652.8042268287 ; 2.0095504943187365E8 ; 4.476363433014485E8 ; 2.445926190081403E10 ; 0.0
131 ; 3791529.879999796 ; 2.0095991365618697E8 ; 4.5143899610567534E8 ; 2.4660216950245903E10 ; 0.0
132 ; 3780045.844409988 ; 2.0096476610001174E8 ; 4.5523052598567516E8 ; 2.486117686390209E10 ; 0.0
133 ; 3773640.7397433757 ; 2.0096960665393516E8 ; 4.5901057183008516E8 ; 2.5062141630002098E10 ; 0.0
134 ; 3758010.477085658 ; 2.0097443520930076E8 ; 4.627842125698285E8 ; 2.5263111236656033E10 ; 0.0
135 ; 3748727.2671840633 ; 2.0097925165818998E8 ; 4.6654222304691416E8 ; 2.5464085671865334E10 ; 0.0
136 ; 3739828.53322671 ; 2.0098405589340466E8 ; 4.7029095031409824E8 ; 2.5665064923523525E10 ; 0.0
137 ; 3729600.911817226 ; 2.009888478084503E8 ; 4.7403077884732497E8 ; 2.586604897941693E10 ; 0.0
138 ; 3718189.1777783125 ; 2.0099362729752025E8 ; 4.777603797591422E8 ; 2.606703782722538E10 ; 0.0
139 ; 3706114.2424126137 ; 2.009983942554807E8 ; 4.814785689369205E8 ; 2.62680314545229E10 ; 0.0
140 ; 3696527.097113639 ; 2.0100314857785642E8 ; 4.8518468317933315E8 ; 2.646902984877838E10 ; 0.0
141 ; 3688616.5452713426 ; 2.0100789016081718E8 ; 4.888812102764468E8 ; 2.667003299735624E10 ; 0.0
142 ; 3674734.165323121 ; 2.0101261890116486E8 ; 4.9256982682171816E8 ; 2.6871040887517056E10 ; 0.0
143 ; 3659940.03745946 ; 2.0101733469632116E8 ; 4.962445609870413E8 ; 2.707205350641822E10 ; 0.0
144 ; 3651161.2205204135 ; 2.0102203744431612E8 ; 4.999045010245007E8 ; 2.727307084111454E10 ; 0.0
145 ; 3641991.8462708034 ; 2.0102672704377678E8 ; 5.0355566224502116E8 ; 2.7474092878558857E10 ; 0.0
146 ; 3639450.1709629716 ; 2.0103140339391696E8 ; 5.0719765409129196E8 ; 2.7675119605602634E10 ; 0.0
147 ; 3634857.3987055197 ; 2.0103606639452714E8 ; 5.1083710426225495E8 ; 2.787615100899655E10 ; 0.0
148 ; 3632326.4181294315 ; 2.010407159459648E8 ; 5.144719616609605E8 ; 2.807718707539108E10 ; 0.0
149 ; 3625909.7469291 ; 2.0104535194914573E8 ; 5.1810428807908994E8 ; 2.8278227791337044E10 ; 0.0
150 ; 3621855.3377210177 ; 2.010499743055351E8 ; 5.2173019782601905E8 ; 2.847927314328619E10 ; 0.0
151 ; 3619041.418510327 ; 2.010545829171396E8 ; 5.2535205316374004E8 ; 2.8680323117591724E10 ; 0.0
152 ; 3618836.688151151 ; 2.0105917768649933E8 ; 5.2897109458225036E8 ; 2.8881377700508865E10 ; 0.0
153 ; 3610432.2520114165 ; 2.0106375851668084E8 ; 5.325899312704015E8 ; 2.9082436878195366E10 ; 0.0
154 ; 3605060.2398321955 ; 2.010683253112698E8 ; 5.362003635224129E8 ; 2.9283500636712048E10 ; 0.0
155 ; 3598078.290755823 ; 2.0107287797436443E8 ; 5.39805423762245E8 ; 2.948456896202332E10 ; 0.0
156 ; 3591531.256525639 ; 2.0107741641056922E8 ; 5.434035020530009E8 ; 2.9685641839997684E10 ; 0.0
157 ; 3590628.092207742 ; 2.010819405249889E8 ; 5.469950333095266E8 ; 2.9886719256408253E10 ; 0.0
158 ; 3581401.6145381466 ; 2.0108645022322267E8 ; 5.505856614017344E8 ; 3.0087801196933243E10 ; 0.0
159 ; 3581073.5729380734 ; 2.010909454113588E8 ; 5.541670630162725E8 ; 3.0288887647156464E10 ; 0.0
160 ; 3575938.7091969457 ; 2.0109542599596953E8 ; 5.577481365892106E8 ; 3.048997859256782E10 ; 0.0
161 ; 3570957.704448417 ; 2.0109989188410607E8 ; 5.613240752984076E8 ; 3.069107401856379E10 ; 0.0
162 ; 3565485.999557179 ; 2.0110434298329407E8 ; 5.64895033002856E8 ; 3.0892173910447895E10 ; 0.0
163 ; 3561159.1021260587 ; 2.011087792015291E8 ; 5.684605190024132E8 ; 3.109327825343119E10 ; 0.0
164 ; 3554168.4335572775 ; 2.011132004472725E8 ; 5.720216781045392E8 ; 3.129438703263272E10 ; 0.0
165 ; 3551923.041566767 ; 2.011176066294475E8 ; 5.755758465380964E8 ; 3.1495500233079994E10 ; 0.0
166 ; 3545799.4838907495 ; 2.011219976574353E8 ; 5.791277695796632E8 ; 3.1696617839709442E10 ; 0.0
167 ; 3542677.151757627 ; 2.011263734410717E8 ; 5.826735690635539E8 ; 3.189773983736688E10 ; 0.0
168 ; 3535374.1946104066 ; 2.0113073389064348E8 ; 5.862162462153115E8 ; 3.209886621080795E10 ; 0.0
169 ; 3528971.623870439 ; 2.0113507891688544E8 ; 5.897516204099219E8 ; 3.2299996944698593E10 ; 0.0
170 ; 3527009.3392270315 ; 2.011394084309772E8 ; 5.932805920337924E8 ; 3.250113202361548E10 ; 0.0
171 ; 3521874.6555513 ; 2.0114372234454045E8 ; 5.968076013730195E8 ; 3.2702271432046455E10 ; 0.0
172 ; 3514921.3880450386 ; 2.0114802056963617E8 ; 6.003294760285708E8 ; 3.2903415154390995E10 ; 0.0
173 ; 3509646.23235824 ; 2.011523030187621E8 ; 6.038443974166158E8 ; 3.3104563174960632E10 ; 0.0
174 ; 3506509.060467418 ; 2.011565696048504E8 ; 6.073540436489741E8 ; 3.3305715477979393E10 ; 0.0
175 ; 3505463.8466789327 ; 2.011608202412652E8 ; 6.108605527094414E8 ; 3.3506872047584244E10 ; 0.0
176 ; 3502524.7665156214 ; 2.0116505484180057E8 ; 6.143660165561204E8 ; 3.370803286782551E10 ; 0.0
177 ; 3499054.214988561 ; 2.0116927332067856E8 ; 6.17868541322636E8 ; 3.390919792266731E10 ; 0.0
178 ; 3490738.3718280597 ; 2.0117347559254718E8 ; 6.213675955376246E8 ; 3.4110367195987988E10 ; 0.0
179 ; 3491373.3184569525 ; 2.0117766157247862E8 ; 6.248583339094527E8 ; 3.4311540671580536E10 ; 0.0
180 ; 3485370.7962366873 ; 2.0118183117596772E8 ; 6.283497072279097E8 ; 3.4512718333153015E10 ; 0.0
181 ; 3481256.0622029593 ; 2.0118598431893018E8 ; 6.318350780241463E8 ; 3.471390016432898E10 ; 0.0
182 ; 3479411.8662830098 ; 2.011901209177013E8 ; 6.353163340863492E8 ; 3.491508614864791E10 ; 0.0
183 ; 3477564.8007268966 ; 2.0119424088903445E8 ; 6.387957459526323E8 ; 3.511627626956561E10 ; 0.0
184 ; 3475362.3590497603 ; 2.0119834415009987E8 ; 6.422733107533592E8 ; 3.531747051045465E10 ; 0.0
185 ; 3470608.826122285 ; 2.0120243061848345E8 ; 6.45748673112409E8 ; 3.551866885460475E10 ; 0.0
186 ; 3466771.998622566 ; 2.0120650021218568E8 ; 6.492192819385313E8 ; 3.5719871285223236E10 ; 0.0
187 ; 3463469.425638463 ; 2.0121055284962046E8 ; 6.526860539371538E8 ; 3.5921077785435425E10 ; 0.0
188 ; 3460990.6972070723 ; 2.012145884496144E8 ; 6.561495233627923E8 ; 3.612228833828504E10 ; 0.0
189 ; 3455757.5478340425 ; 2.0121860693140575E8 ; 6.596105140599993E8 ; 3.632350292673466E10 ; 0.0
190 ; 3452400.4626435535 ; 2.012226082146436E8 ; 6.630662716078334E8 ; 3.652472153366606E10 ; 0.0
191 ; 3450216.147807155 ; 2.0122659221938723E8 ; 6.665186720704769E8 ; 3.672594414188071E10 ; 0.0
192 ; 3445793.2492485507 ; 2.012305588661055E8 ; 6.69968888218284E8 ; 3.69271707341001E10 ; 0.0
193 ; 3441458.9649848444 ; 2.0123450807567602E8 ; 6.734146814675325E8 ; 3.71284012929662E10 ; 0.0
194 ; 3435070.4481609226 ; 2.012384397693848E8 ; 6.768561404325174E8 ; 3.732963580104188E10 ; 0.0
195 ; 3436594.249915715 ; 2.012423538689257E8 ; 6.802912108806783E8 ; 3.7530874240811264E10 ; 0.0
196 ; 3432612.681269051 ; 2.0124625029639995E8 ; 6.83727805130594E8 ; 3.773211659468019E10 ; 0.0
197 ; 3429042.6420887425 ; 2.0125012897431588E8 ; 6.871604178118631E8 ; 3.793336284497659E10 ; 0.0
198 ; 3423890.3595273946 ; 2.0125398982558843E8 ; 6.905894604539518E8 ; 3.813461297395091E10 ; 0.0
199 ; 3425277.485768153 ; 2.0125783277353904E8 ; 6.940133508134792E8 ; 3.8335866963776505E10 ; 0.0
200 ; 3420195.0666011465 ; 2.0126165774189523E8 ; 6.974386282992474E8 ; 3.853712479655004E10 ; 0.0
