CSV File for the City 4 on Day 8
1 - Minute m 
2 - Power Consumed at minute m 
3 - Power Produced at minute m 
4 - Energy Consumed since the beginning of the day 
5 - Energy Produced since the beginning of the day 
6 - Energy Lost since the beginning of the day on lines starting from the city
 
0 ; 6804378.515216783 ; 1.0557033716476265E8 ; 0.0 ; 0.0 ; 0.0
1 ; 6808804.334309936 ; 1.0571862061971492E8 ; 6804378.515216783 ; 1.0557033716476265E8 ; 0.0
2 ; 6814765.225246317 ; 1.0617610259050837E8 ; 1.3613182849526718E7 ; 2.1128895778447756E8 ; 0.0
3 ; 6825217.592882757 ; 1.0694280681397939E8 ; 2.0427948074773036E7 ; 3.1746506037498593E8 ; 0.0
4 ; 6836664.980993155 ; 1.0801875564266455E8 ; 2.7253165667655792E7 ; 4.244078671889653E8 ; 0.0
5 ; 6847541.024161772 ; 1.0940396961323452E8 ; 3.408983064864895E7 ; 5.324266228316299E8 ; 0.0
6 ; 6864663.599800041 ; 1.1109846701481476E8 ; 4.093737167281072E7 ; 6.418305924448644E8 ; 0.0
7 ; 6884620.589649063 ; 1.1310226347562212E8 ; 4.780203527261076E7 ; 7.529290594596791E8 ; 0.0
8 ; 6920650.845252268 ; 1.1541537158778113E8 ; 5.468665586225982E7 ; 8.660313229353013E8 ; 0.0
9 ; 6969969.195616385 ; 1.1803780059009868E8 ; 6.160730670751209E7 ; 9.814466945230825E8 ; 0.0
10 ; 7044923.4003861565 ; 1.2096955612675214E8 ; 6.857727590312847E7 ; 1.099484495113181E9 ; 0.0
11 ; 7172903.432011029 ; 1.2421064009627154E8 ; 7.562219930351463E7 ; 1.2204540512399333E9 ; 0.0
12 ; 7368387.517866663 ; 1.2776105060012683E8 ; 8.279510273552565E7 ; 1.3446646913362048E9 ; 0.0
13 ; 7557834.677852214 ; 1.3162078199414062E8 ; 9.016349025339231E7 ; 1.4724257419363315E9 ; 0.0
14 ; 7579311.651971857 ; 1.3578982503950614E8 ; 9.772132493124452E7 ; 1.6040465239304721E9 ; 0.0
15 ; 7591246.270052632 ; 1.402681671440987E8 ; 1.0530063658321638E8 ; 1.7398363489699783E9 ; 0.0
16 ; 7596253.387872676 ; 1.450557926797016E8 ; 1.1289188285326901E8 ; 1.880104516114077E9 ; 0.0
17 ; 7605729.113014985 ; 1.5015268335718927E8 ; 1.2048813624114169E8 ; 2.0251603087937787E9 ; 0.0
18 ; 7612565.120078213 ; 1.555588186398911E8 ; 1.2809386535415667E8 ; 2.175312992150968E9 ; 0.0
19 ; 7627041.312530614 ; 1.6127417617527047E8 ; 1.3570643047423488E8 ; 2.330871810790859E9 ; 0.0
20 ; 7632248.907472371 ; 1.67298732226491E8 ; 1.433334717867655E8 ; 2.49214598696613E9 ; 0.0
21 ; 7640796.499139087 ; 1.7363246208801356E8 ; 1.5096572069423786E8 ; 2.6594447191926208E9 ; 0.0
22 ; 7651351.6998288315 ; 1.802753404726438E8 ; 1.5860651719337696E8 ; 2.8330771812806344E9 ; 0.0
23 ; 7659032.148449294 ; 1.8722734186099178E8 ; 1.662578688932058E8 ; 3.0133525217532783E9 ; 0.0
24 ; 7666933.837810495 ; 1.9448844080775046E8 ; 1.739169010416551E8 ; 3.20057986361427E9 ; 0.0
25 ; 7678350.414416861 ; 2.0074665310046372E8 ; 1.8158383487946558E8 ; 3.395068304422021E9 ; 0.0
26 ; 7685140.041668597 ; 2.00755502011353E8 ; 1.8926218529388243E8 ; 3.595814957522485E9 ; 0.0
27 ; 7693702.703078506 ; 2.0076473299350238E8 ; 1.9694732533555102E8 ; 3.796570459533838E9 ; 0.0
28 ; 7703471.085715893 ; 2.0077432305864343E8 ; 2.0464102803862953E8 ; 3.99733519252734E9 ; 0.0
29 ; 7710948.844019811 ; 2.007842501653775E8 ; 2.1234449912434542E8 ; 4.1981095155859833E9 ; 0.0
30 ; 7718904.849848238 ; 2.007944932827674E8 ; 2.2005544796836522E8 ; 4.398893765751361E9 ; 0.0
31 ; 7727257.421591825 ; 2.008050324272666E8 ; 2.2777435281821346E8 ; 4.599688259034128E9 ; 0.0
32 ; 7734277.358621927 ; 2.0081584867753866E8 ; 2.3550161023980528E8 ; 4.800493291461395E9 ; 0.0
33 ; 7742521.434061695 ; 2.0082692417138115E8 ; 2.432358875984272E8 ; 5.001309140138934E9 ; 0.0
34 ; 7750806.477535592 ; 2.0083824208853883E8 ; 2.509784090324889E8 ; 5.202136064310315E9 ; 0.0
35 ; 7757429.679335034 ; 2.008497866227137E8 ; 2.5872921551002452E8 ; 5.402974306398854E9 ; 0.0
36 ; 7762353.191457817 ; 2.0086154294560102E8 ; 2.6648664518935955E8 ; 5.603824093021568E9 ; 0.0
37 ; 7770188.605269282 ; 2.008734971653207E8 ; 2.7424899838081735E8 ; 5.80468563596717E9 ; 0.0
38 ; 7776383.416104653 ; 2.00885636281193E8 ; 2.820191869860866E8 ; 6.00555913313249E9 ; 0.0
39 ; 7784089.263452501 ; 2.0089794813643005E8 ; 2.897955704021913E8 ; 6.206444769413683E9 ; 0.0
40 ; 7790465.463743937 ; 2.0091042136998913E8 ; 2.975796596656438E8 ; 6.407342717550113E9 ; 0.0
41 ; 7793813.5011099465 ; 2.0092304536855283E8 ; 3.0537012512938774E8 ; 6.608253138920102E9 ; 0.0
42 ; 7798270.583816608 ; 2.009358102193689E8 ; 3.131639386304977E8 ; 6.809176184288655E9 ; 0.0
43 ; 7802035.550860603 ; 2.0094870666448814E8 ; 3.209622092143143E8 ; 7.010111994508024E9 ; 0.0
44 ; 7807403.160579004 ; 2.0096172605678257E8 ; 3.2876424476517487E8 ; 7.211060701172512E9 ; 0.0
45 ; 7813576.55911364 ; 2.0097486031799987E8 ; 3.365716479257539E8 ; 7.412022427229295E9 ; 0.0
46 ; 7815588.723786829 ; 2.009881018990107E8 ; 3.443852244848675E8 ; 7.612997287547295E9 ; 0.0
47 ; 7821019.855375342 ; 2.0100144374232772E8 ; 3.5220081320865434E8 ; 7.813985389446305E9 ; 0.0
48 ; 7823219.281837492 ; 2.010148792469169E8 ; 3.600218330640297E8 ; 8.014986833188633E9 ; 0.0
49 ; 7827585.43966365 ; 2.0102840223527548E8 ; 3.6784505234586716E8 ; 8.21600171243555E9 ; 0.0
50 ; 7829674.494770009 ; 2.0104200692272013E8 ; 3.756726377855308E8 ; 8.417030114670825E9 ; 0.0
51 ; 7831256.434823612 ; 2.01055687888805E8 ; 3.835023122803008E8 ; 8.618072121593546E9 ; 0.0
52 ; 7831474.311776462 ; 2.010694400507733E8 ; 3.913335687151244E8 ; 8.819127809482351E9 ; 0.0
53 ; 7836381.037327942 ; 2.0108325863893762E8 ; 3.991650430269009E8 ; 9.020197249533125E9 ; 0.0
54 ; 7837796.985044545 ; 2.010971391738777E8 ; 4.0700142406422883E8 ; 9.221280508172062E9 ; 0.0
55 ; 7839653.642707367 ; 2.0111107744534308E8 ; 4.148392210492734E8 ; 9.42237764734594E9 ; 0.0
56 ; 7840722.9291066015 ; 2.0112506949274895E8 ; 4.226788746919807E8 ; 9.623488724791283E9 ; 0.0
57 ; 7842562.04661804 ; 2.0113911158715552E8 ; 4.305195976210873E8 ; 9.82461379428403E9 ; 0.0
58 ; 7843326.555671221 ; 2.0115320021462536E8 ; 4.3836215966770536E8 ; 1.0025752905871187E10 ; 0.0
59 ; 7842454.036266901 ; 2.0116733206085792E8 ; 4.462054862233766E8 ; 1.0226906106085812E10 ; 0.0
60 ; 7849424.300839975 ; 2.0118150399700543E8 ; 4.540479402596435E8 ; 1.042807343814667E10 ; 0.0
61 ; 7849763.246194281 ; 2.0119571306658038E8 ; 4.6189736456048346E8 ; 1.0629254942143675E10 ; 0.0
62 ; 7850681.728080472 ; 2.0120995647336978E8 ; 4.6974712780667776E8 ; 1.0830450655210255E10 ; 0.0
63 ; 7854785.133020896 ; 2.0122423157027772E8 ; 4.775978095347582E8 ; 1.1031660611683624E10 ; 0.0
64 ; 7854437.509589413 ; 2.0123853584902292E8 ; 4.854525946677791E8 ; 1.1232884843253902E10 ; 0.0
65 ; 7853897.038386561 ; 2.0125286693062347E8 ; 4.933070321773685E8 ; 1.1434123379102926E10 ; 0.0
66 ; 7855747.287194126 ; 2.0126722255660552E8 ; 5.011609292157551E8 ; 1.163537624603355E10 ; 0.0
67 ; 7854853.75926063 ; 2.012816005808787E8 ; 5.0901667650294924E8 ; 1.1836643468590157E10 ; 0.0
68 ; 7860614.098100992 ; 2.012959989622243E8 ; 5.168715302622099E8 ; 1.2037925069171036E10 ; 0.0
69 ; 7858096.5680842465 ; 2.0131041575734687E8 ; 5.247321443603109E8 ; 1.223922106813326E10 ; 0.0
70 ; 7861228.670247985 ; 2.0132484911444464E8 ; 5.3259024092839515E8 ; 1.2440531483890608E10 ; 0.0
71 ; 7861130.273432026 ; 2.0133929726725698E8 ; 5.404514695986432E8 ; 1.2641856333005053E10 ; 0.0
72 ; 7858693.200472829 ; 2.0135375852955005E8 ; 5.483125998720752E8 ; 1.284319563027231E10 ; 0.0
73 ; 7861234.581648259 ; 2.013682312900071E8 ; 5.56171293072548E8 ; 1.304454938880186E10 ; 0.0
74 ; 7863066.472731604 ; 2.0138271400748986E8 ; 5.640325276541963E8 ; 1.3245917620091867E10 ; 0.0
75 ; 7863298.982505367 ; 2.0139720520664233E8 ; 5.718955941269279E8 ; 1.3447300334099358E10 ; 0.0
76 ; 7863356.610757563 ; 2.0141170347381017E8 ; 5.797588931094332E8 ; 1.3648697539306E10 ; 0.0
77 ; 7862709.353544838 ; 2.0142620745325008E8 ; 5.876222497201908E8 ; 1.385010924277981E10 ; 0.0
78 ; 7859490.022372544 ; 2.0144071584360754E8 ; 5.954849590737356E8 ; 1.405153545023306E10 ; 0.0
79 ; 7859941.208229498 ; 2.0145522739464122E8 ; 6.033444490961082E8 ; 1.4252976166076668E10 ; 0.0
80 ; 7857828.177896742 ; 2.0146974090417546E8 ; 6.112043903043377E8 ; 1.445443139347131E10 ; 0.0
81 ; 7852898.722836972 ; 2.0148425521526316E8 ; 6.190622184822345E8 ; 1.4655901134375484E10 ; 0.0
82 ; 7851382.017671737 ; 2.0149876921354297E8 ; 6.269151172050714E8 ; 1.4857385389590748E10 ; 0.0
83 ; 7849741.6117696725 ; 2.0151328182477632E8 ; 6.347664992227432E8 ; 1.505888415880429E10 ; 0.0
84 ; 7847327.135949063 ; 2.0152779201255012E8 ; 6.426162408345128E8 ; 1.5260397440629066E10 ; 0.0
85 ; 7844878.676884114 ; 2.015422987761335E8 ; 6.504635679704618E8 ; 1.5461925232641617E10 ; 0.0
86 ; 7840462.152599245 ; 2.015568011484765E8 ; 6.583084466473459E8 ; 1.566346753141775E10 ; 0.0
87 ; 7838404.244666763 ; 2.015712981943406E8 ; 6.661489087999451E8 ; 1.5865024332566225E10 ; 0.0
88 ; 7835388.2664525565 ; 2.0158578900855112E8 ; 6.739873130446119E8 ; 1.6066595630760565E10 ; 0.0
89 ; 7837514.462193649 ; 2.0160027271436304E8 ; 6.818227013110645E8 ; 1.6268181419769115E10 ; 0.0
90 ; 7830842.959654265 ; 2.0161474846193144E8 ; 6.896602157732581E8 ; 1.6469781692483479E10 ; 0.0
91 ; 7830175.281686875 ; 2.0162921542687973E8 ; 6.974910587329123E8 ; 1.667139644094541E10 ; 0.0
92 ; 7825640.141740607 ; 2.0164367280895802E8 ; 7.053212340145992E8 ; 1.687302565637229E10 ; 0.0
93 ; 7821203.349913654 ; 2.016581198307859E8 ; 7.131468741563398E8 ; 1.7074669329181248E10 ; 0.0
94 ; 7819598.801738426 ; 2.016725557366731E8 ; 7.209680775062534E8 ; 1.7276327449012035E10 ; 0.0
95 ; 7815234.207560485 ; 2.0168697979151297E8 ; 7.287876763079917E8 ; 1.7478000004748707E10 ; 0.0
96 ; 7815785.320896948 ; 2.0170139127974388E8 ; 7.366029105155523E8 ; 1.767968698454022E10 ; 0.0
97 ; 7808476.620904681 ; 2.017157895043733E8 ; 7.444186958364493E8 ; 1.788138837581996E10 ; 0.0
98 ; 7805978.894214618 ; 2.0173017378606087E8 ; 7.52227172457354E8 ; 1.8083104165324333E10 ; 0.0
99 ; 7800222.241330764 ; 2.0174454346225613E8 ; 7.600331513515686E8 ; 1.8284834339110394E10 ; 0.0
100 ; 7797987.566186389 ; 2.0175889788638738E8 ; 7.678333735928993E8 ; 1.848657888257265E10 ; 0.0
101 ; 7794128.953273052 ; 2.0177323642709827E8 ; 7.756313611590858E8 ; 1.8688337780459038E10 ; 0.0
102 ; 7788496.920134673 ; 2.0178755846752888E8 ; 7.834254901123588E8 ; 1.8890111016886135E10 ; 0.0
103 ; 7783443.8024053555 ; 2.0180186340463838E8 ; 7.912139870324935E8 ; 1.9091898575353664E10 ; 0.0
104 ; 7781621.105549477 ; 2.0181615064856672E8 ; 7.989974308348988E8 ; 1.9293700438758305E10 ; 0.0
105 ; 7776835.563805549 ; 2.0183041962203246E8 ; 8.067790519404483E8 ; 1.949551658940687E10 ; 0.0
106 ; 7774904.004747073 ; 2.01844669759765E8 ; 8.145558875042539E8 ; 1.9697347009028904E10 ; 0.0
107 ; 7767964.515672711 ; 2.0185890050796837E8 ; 8.223307915090009E8 ; 1.989919167878867E10 ; 0.0
108 ; 7766309.71625361 ; 2.01873111323815E8 ; 8.300987560246736E8 ; 2.010105057929664E10 ; 0.0
109 ; 7763166.562455894 ; 2.0188730167496765E8 ; 8.378650657409272E8 ; 2.0302923690620453E10 ; 0.0
110 ; 7756939.23906256 ; 2.0190147103912732E8 ; 8.456282323033831E8 ; 2.050481099229542E10 ; 0.0
111 ; 7754813.405854093 ; 2.0191561890360594E8 ; 8.533851715424457E8 ; 2.070671246333455E10 ; 0.0
112 ; 7744761.667045495 ; 2.0192974476492217E8 ; 8.611399849482998E8 ; 2.0908628082238155E10 ; 0.0
113 ; 7745042.60734675 ; 2.0194384812841892E8 ; 8.688847466153452E8 ; 2.111055782700308E10 ; 0.0
114 ; 7736984.28716312 ; 2.019579285079011E8 ; 8.76629789222692E8 ; 2.1312501675131496E10 ; 0.0
115 ; 7733626.650619564 ; 2.0197198542529285E8 ; 8.843667735098552E8 ; 2.1514459603639397E10 ; 0.0
116 ; 7727204.453483158 ; 2.0198601841031256E8 ; 8.921004001604747E8 ; 2.171643158906469E10 ; 0.0
117 ; 7724533.4425591985 ; 2.020000270001649E8 ; 8.998276046139578E8 ; 2.1918417607475002E10 ; 0.0
118 ; 7721113.633869548 ; 2.0201401073924887E8 ; 9.07552138056517E8 ; 2.2120417634475166E10 ; 0.0
119 ; 7714128.296114696 ; 2.0202796917888093E8 ; 9.152732516903865E8 ; 2.2322431645214417E10 ; 0.0
120 ; 7708705.63240611 ; 2.020419018770321E8 ; 9.229873799865012E8 ; 2.25244596143933E10 ; 0.0
121 ; 7702575.0750691965 ; 2.0205580839807865E8 ; 9.306960856189073E8 ; 2.2726501516270332E10 ; 0.0
122 ; 7699082.781811316 ; 2.0206968831256524E8 ; 9.383986606939765E8 ; 2.292855732466841E10 ; 0.0
123 ; 7695411.582286765 ; 2.0208354119698006E8 ; 9.460977434757879E8 ; 2.3130627012980976E10 ; 0.0
124 ; 7686168.971927516 ; 2.0209736663354093E8 ; 9.537931550580746E8 ; 2.3332710554177956E10 ; 0.0
125 ; 7682444.345205683 ; 2.0211116420999232E8 ; 9.614793240300021E8 ; 2.3534807920811497E10 ; 0.0
126 ; 7676742.566992712 ; 2.0212493351941216E8 ; 9.691617683752078E8 ; 2.373691908502149E10 ; 0.0
127 ; 7670564.309626592 ; 2.0213867416002813E8 ; 9.768385109422005E8 ; 2.39390440185409E10 ; 0.0
128 ; 7666328.051266556 ; 2.021523857350429E8 ; 9.845090752518271E8 ; 2.4141182692700928E10 ; 0.0
129 ; 7658432.201176484 ; 2.0216606785246778E8 ; 9.921754033030937E8 ; 2.434333507843597E10 ; 0.0
130 ; 7650784.382473563 ; 2.0217972012496445E8 ; 9.998338355042702E8 ; 2.4545501146288437E10 ; 0.0
131 ; 7643385.699399789 ; 2.021933421696942E8 ; 1.0074846198867438E9 ; 2.4747680866413403E10 ; 0.0
132 ; 7636697.095673108 ; 2.022069336081742E8 ; 1.0151280055861436E9 ; 2.4949874208583096E10 ; 0.0
133 ; 7629294.780100979 ; 2.0222049406614095E8 ; 1.0227647026818167E9 ; 2.515208114219127E10 ; 0.0
134 ; 7620071.1931627495 ; 2.0223402317341954E8 ; 1.0303939974619176E9 ; 2.535430163625741E10 ; 0.0
135 ; 7607222.794712108 ; 2.0224752056379962E8 ; 1.0380140686550804E9 ; 2.555653565943083E10 ; 0.0
136 ; 7599727.051757991 ; 2.022609858749167E8 ; 1.0456212914497925E9 ; 2.575878317999463E10 ; 0.0
137 ; 7593113.604948532 ; 2.0227441874813917E8 ; 1.0532210185015504E9 ; 2.5961044165869545E10 ; 0.0
138 ; 7586557.7562132655 ; 2.022878188284605E8 ; 1.060814132106499E9 ; 2.6163318584617683E10 ; 0.0
139 ; 7574179.399357704 ; 2.023011857643962E8 ; 1.0684006898627123E9 ; 2.6365606403446144E10 ; 0.0
140 ; 7566914.7231759345 ; 2.0231451920788562E8 ; 1.07597486926207E9 ; 2.656790758921054E10 ; 0.0
141 ; 7556852.228624342 ; 2.023278188141983E8 ; 1.083541783985246E9 ; 2.6770222108418427E10 ; 0.0
142 ; 7547249.971723875 ; 2.0234108424184412E8 ; 1.0910986362138703E9 ; 2.6972549927232624E10 ; 0.0
143 ; 7538085.828437748 ; 2.0235431515248808E8 ; 1.098645886185594E9 ; 2.717489101147447E10 ; 0.0
144 ; 7529013.372203578 ; 2.0236751121086845E8 ; 1.106183972014032E9 ; 2.7377245326626957E10 ; 0.0
145 ; 7524807.505830238 ; 2.0238067208471856E8 ; 1.1137129853862355E9 ; 2.7579612837837826E10 ; 0.0
146 ; 7516578.608598294 ; 2.0239379744469237E8 ; 1.1212377928920658E9 ; 2.7781993509922543E10 ; 0.0
147 ; 7508691.568275896 ; 2.024068869642931E8 ; 1.128754371500664E9 ; 2.7984387307367233E10 ; 0.0
148 ; 7502718.023426776 ; 2.024199403198049E8 ; 1.13626306306894E9 ; 2.8186794194331528E10 ; 0.0
149 ; 7496367.56113064 ; 2.0243295719022772E8 ; 1.1437657810923667E9 ; 2.8389214134651333E10 ; 0.0
150 ; 7491787.515314186 ; 2.02445937257215E8 ; 1.1512621486534972E9 ; 2.859164709184156E10 ; 0.0
151 ; 7483655.709251928 ; 2.0245888020501384E8 ; 1.1587539361688113E9 ; 2.8794093029098774E10 ; 0.0
152 ; 7476256.296363775 ; 2.0247178572040805E8 ; 1.1662375918780632E9 ; 2.8996551909303787E10 ; 0.0
153 ; 7470011.24059916 ; 2.0248465349266344E8 ; 1.173713848174427E9 ; 2.9199023695024197E10 ; 0.0
154 ; 7463669.504501189 ; 2.0249748321347558E8 ; 1.1811838594150262E9 ; 2.940150834851686E10 ; 0.0
155 ; 7456509.682566722 ; 2.0251027457691976E8 ; 1.1886475289195273E9 ; 2.9604005831730335E10 ; 0.0
156 ; 7454039.085016481 ; 2.02523027279403E8 ; 1.196104038602094E9 ; 2.9806516106307255E10 ; 0.0
157 ; 7443057.615847361 ; 2.0253574101961827E8 ; 1.2035580776871104E9 ; 3.000903913358666E10 ; 0.0
158 ; 7439614.9349153 ; 2.025484154985006E8 ; 1.2110011353029578E9 ; 3.0211574874606277E10 ; 0.0
159 ; 7431713.478906427 ; 2.025610504191848E8 ; 1.218440750237873E9 ; 3.041412329010478E10 ; 0.0
160 ; 7425670.469689447 ; 2.0257364548696554E8 ; 1.2258724637167795E9 ; 3.0616684340523964E10 ; 0.0
161 ; 7413902.168377399 ; 2.0258620040925837E8 ; 1.2332981341864688E9 ; 3.081925798601093E10 ; 0.0
162 ; 7408959.297195531 ; 2.0259871489556298E8 ; 1.2407120363548462E9 ; 3.102184418642019E10 ; 0.0
163 ; 7403793.276189083 ; 2.0261118865742773E8 ; 1.2481209956520417E9 ; 3.122444290131575E10 ; 0.0
164 ; 7396558.854207117 ; 2.0262362140841568E8 ; 1.2555247889282308E9 ; 3.142705408997318E10 ; 0.0
165 ; 7388332.367303008 ; 2.026360128640721E8 ; 1.2629213477824378E9 ; 3.1629677711381596E10 ; 0.0
166 ; 7380081.451877172 ; 2.0264836274189335E8 ; 1.2703096801497407E9 ; 3.1832313724245667E10 ; 0.0
167 ; 7375418.7703740895 ; 2.026606707612968E8 ; 1.2776897616016178E9 ; 3.203496208698756E10 ; 0.0
168 ; 7366605.476954368 ; 2.0267293664359254E8 ; 1.2850651803719919E9 ; 3.2237622757748856E10 ; 0.0
169 ; 7359044.450627905 ; 2.026851601119556E8 ; 1.2924317858489463E9 ; 3.244029569439245E10 ; 0.0
170 ; 7351777.276889711 ; 2.0269734089139998E8 ; 1.2997908302995741E9 ; 3.2642980854504402E10 ; 0.0
171 ; 7345636.70208028 ; 2.0270947870875308E8 ; 1.307142607576464E9 ; 3.28456781953958E10 ; 0.0
172 ; 7339106.812231218 ; 2.0272157329263186E8 ; 1.3144882442785442E9 ; 3.3048387674104553E10 ; 0.0
173 ; 7332993.864452823 ; 2.0273362437341952E8 ; 1.3218273510907755E9 ; 3.3251109247397186E10 ; 0.0
174 ; 7327848.599379638 ; 2.027456316832433E8 ; 1.3291603449552283E9 ; 3.3453842871770607E10 ; 0.0
175 ; 7324561.387902428 ; 2.0275759495595315E8 ; 1.3364881935546079E9 ; 3.365658850345385E10 ; 0.0
176 ; 7319403.618818464 ; 2.0276951392710146E8 ; 1.3438127549425104E9 ; 3.38593460984098E10 ; 0.0
177 ; 7314985.5954166725 ; 2.0278138833392337E8 ; 1.351132158561329E9 ; 3.4062115612336903E10 ; 0.0
178 ; 7309055.707899922 ; 2.027932179153181E8 ; 1.3584471441567457E9 ; 3.4264897000670826E10 ; 0.0
179 ; 7306106.965965111 ; 2.0280500241183096E8 ; 1.3657561998646455E9 ; 3.446769021858614E10 ; 0.0
180 ; 7299308.612587236 ; 2.0281674156563604E8 ; 1.3730623068306105E9 ; 3.467049522099798E10 ; 0.0
181 ; 7296267.945929307 ; 2.0282843512051985E8 ; 1.3803616154431977E9 ; 3.4873311962563614E10 ; 0.0
182 ; 7293126.711919073 ; 2.028400828218653E8 ; 1.387657883389127E9 ; 3.5076140397684135E10 ; 0.0
183 ; 7288827.1783521045 ; 2.0285168441663677E8 ; 1.394951010101046E9 ; 3.5278980480506004E10 ; 0.0
184 ; 7283674.4764733985 ; 2.0286323965336534E8 ; 1.4022398372793982E9 ; 3.548183216492264E10 ; 0.0
185 ; 7277928.270116441 ; 2.028747482821351E8 ; 1.4095235117558715E9 ; 3.5684695404576004E10 ; 0.0
186 ; 7274223.257182313 ; 2.0288621005456954E8 ; 1.4168014400259879E9 ; 3.588757015285814E10 ; 0.0
187 ; 7270322.215953275 ; 2.0289762472381908E8 ; 1.4240756632831702E9 ; 3.609045636291271E10 ; 0.0
188 ; 7266247.28185504 ; 2.0290899204454848E8 ; 1.4313459854991236E9 ; 3.629335398763653E10 ; 0.0
189 ; 7263648.248410223 ; 2.029203117729255E8 ; 1.4386122327809787E9 ; 3.6496262979681076E10 ; 0.0
190 ; 7258336.35736077 ; 2.0293158366660932E8 ; 1.445875881029389E9 ; 3.6699183291454E10 ; 0.0
191 ; 7251810.411229135 ; 2.0294280748474002E8 ; 1.4531342173867497E9 ; 3.690211487512061E10 ; 0.0
192 ; 7248206.467759645 ; 2.0295398298792824E8 ; 1.4603860277979789E9 ; 3.7105057682605354E10 ; 0.0
193 ; 7243691.087671384 ; 2.0296510993824527E8 ; 1.4676342342657385E9 ; 3.7308011665593285E10 ; 0.0
194 ; 7235380.019404203 ; 2.0297618809921372E8 ; 1.4748779253534098E9 ; 3.751097677553153E10 ; 0.0
195 ; 7234322.0929295225 ; 2.0298721723579842E8 ; 1.482113305372814E9 ; 3.7713952963630745E10 ; 0.0
196 ; 7231385.183436872 ; 2.029981971143979E8 ; 1.4893476274657435E9 ; 3.791694018086655E10 ; 0.0
197 ; 7228523.28271018 ; 2.0300912750283608E8 ; 1.4965790126491804E9 ; 3.811993837798094E10 ; 0.0
198 ; 7223828.409042973 ; 2.030200081703544E8 ; 1.5038075359318905E9 ; 3.832294750548378E10 ; 0.0
199 ; 7216302.980040795 ; 2.0303083888760424E8 ; 1.5110313643409336E9 ; 3.852596751365414E10 ; 0.0
200 ; 7213945.012460936 ; 2.0304161942663994E8 ; 1.5182476673209743E9 ; 3.872899835254174E10 ; 0.0
201 ; 7209273.402155426 ; 1.728675877176802E8 ; 1.5254616123334353E9 ; 3.893203997196838E10 ; 0.0
