CSV File for the City 6 on Day 236
1 - Minute m 
2 - Power Consumed at minute m 
3 - Power Produced at minute m 
4 - Energy Consumed since the beginning of the day 
5 - Energy Produced since the beginning of the day 
6 - Energy Lost since the beginning of the day on lines starting from the city
 
0 ; 1298324.4260859268 ; 1.0538119750014529E8 ; 0.0 ; 0.0 ; 0.0
1 ; 1314712.0361342968 ; 1.0552678497584087E8 ; 1298324.4260859268 ; 1.0538119750014529E8 ; 0.0
2 ; 1323025.4873543382 ; 1.0598161359089562E8 ; 2613036.4622202236 ; 2.1090798247598615E8 ; 0.0
3 ; 1340316.297840539 ; 1.0674575879500932E8 ; 3936061.949574562 ; 3.168895960668818E8 ; 0.0
4 ; 1355108.6166056613 ; 1.0781930115949017E8 ; 5276378.247415101 ; 4.236353548618911E8 ; 0.0
5 ; 1373324.9344129825 ; 1.0920232426177019E8 ; 6631486.864020763 ; 5.3145465602138126E8 ; 0.0
6 ; 1405483.4265445932 ; 1.1089491150265047E8 ; 8004811.798433745 ; 6.406569802831514E8 ; 0.0
7 ; 1438833.039563817 ; 1.1289714185852653E8 ; 9410295.224978339 ; 7.515518917858019E8 ; 0.0
8 ; 1498066.2084772212 ; 1.1520908481662786E8 ; 1.0849128264542155E7 ; 8.644490336443284E8 ; 0.0
9 ; 1578961.297869277 ; 1.1783079504284489E8 ; 1.2347194473019376E7 ; 9.796581184609562E8 ; 0.0
10 ; 1703667.2163841072 ; 1.2076230759113276E8 ; 1.3926155770888653E7 ; 1.097488913503801E9 ; 0.0
11 ; 1897894.3501007159 ; 1.2400363454901776E8 ; 1.562982298727276E7 ; 1.218251221094934E9 ; 0.0
12 ; 2219874.8135831095 ; 1.2755476382897356E8 ; 1.7527717337373476E7 ; 1.3422548556439517E9 ; 0.0
13 ; 2525383.77025844 ; 1.3141566037704504E8 ; 1.9747592150956586E7 ; 1.4698096194729252E9 ; 0.0
14 ; 2563960.942139959 ; 1.3558626952734184E8 ; 2.2272975921215028E7 ; 1.6012252798499703E9 ; 0.0
15 ; 2573635.8413114934 ; 1.4006652179263437E8 ; 2.483693686335499E7 ; 1.7368115493773122E9 ; 0.0
16 ; 2596426.1436686506 ; 1.448563381965272E8 ; 2.741057270466648E7 ; 1.8768780711699467E9 ; 0.0
17 ; 2603307.7857186026 ; 1.499556353382192E8 ; 3.0006998848335132E7 ; 2.021734409366474E9 ; 0.0
18 ; 2626609.3668037336 ; 1.5536432964027834E8 ; 3.2610306634053733E7 ; 2.1716900447046933E9 ; 0.0
19 ; 2641932.7907690224 ; 1.6108234053139642E8 ; 3.5236916000857465E7 ; 2.3270543743449717E9 ; 0.0
20 ; 2654059.6593989544 ; 1.6710959256187364E8 ; 3.787884879162649E7 ; 2.488136714876368E9 ; 0.0
21 ; 2669571.4820762617 ; 1.734460166002384E8 ; 4.053290845102544E7 ; 2.6552463074382415E9 ; 0.0
22 ; 2687827.6057231133 ; 1.8009155032145458E8 ; 4.3202479933101706E7 ; 2.82869232403848E9 ; 0.0
23 ; 2701889.158343381 ; 1.870461381980675E8 ; 4.589030753882482E7 ; 3.0087838743599343E9 ; 0.0
24 ; 2717025.59178533 ; 1.943097311743675E8 ; 4.85921966971682E7 ; 3.195830012558002E9 ; 0.0
25 ; 2734214.262953839 ; 2.0057032705977324E8 ; 5.130922228895353E7 ; 3.3901397437323694E9 ; 0.0
26 ; 2748134.715577252 ; 2.005814359795322E8 ; 5.404343655190737E7 ; 3.590710070792143E9 ; 0.0
27 ; 2763792.2061732444 ; 2.0059279429621422E8 ; 5.679157126748462E7 ; 3.791291506771675E9 ; 0.0
28 ; 2781428.355926897 ; 2.006043732749586E8 ; 5.955536347365786E7 ; 3.991884301067889E9 ; 0.0
29 ; 2795785.3684271537 ; 2.006161478385862E8 ; 6.2336791829584755E7 ; 4.192488674342848E9 ; 0.0
30 ; 2814975.004277735 ; 2.0062809608270857E8 ; 6.5132577198011905E7 ; 4.393104822181434E9 ; 0.0
31 ; 2828460.486601757 ; 2.006401988466267E8 ; 6.794755220228964E7 ; 4.593732918264142E9 ; 0.0
32 ; 2845357.56196211 ; 2.0065243933827835E8 ; 7.07760126888914E7 ; 4.794373117110768E9 ; 0.0
33 ; 2858003.4357858044 ; 2.006648028091975E8 ; 7.362137025085351E7 ; 4.995025556449047E9 ; 0.0
34 ; 2870187.927950215 ; 2.0067727627442068E8 ; 7.647937368663931E7 ; 5.1956903592582445E9 ; 0.0
35 ; 2884301.299994272 ; 2.0068984827201143E8 ; 7.934956161458953E7 ; 5.396367635532665E9 ; 0.0
36 ; 2896408.4567201934 ; 2.007025086570462E8 ; 8.22338629145838E7 ; 5.597057483804677E9 ; 0.0
37 ; 2911672.4581544558 ; 2.0071524842530754E8 ; 8.513027137130399E7 ; 5.797759992461723E9 ; 0.0
38 ; 2926077.1661790484 ; 2.007280595624283E8 ; 8.804194382945845E7 ; 5.998475240887031E9 ; 0.0
39 ; 2934533.482668097 ; 2.0074093491475347E8 ; 9.096802099563749E7 ; 6.199203300449459E9 ; 0.0
40 ; 2947278.4390139366 ; 2.0075386807868752E8 ; 9.39025544783056E7 ; 6.399944235364213E9 ; 0.0
41 ; 2962879.9862987176 ; 2.0076685330575457E8 ; 9.684983291731954E7 ; 6.600698103442901E9 ; 0.0
42 ; 2972620.21423999 ; 2.0077988542100945E8 ; 9.981271290361825E7 ; 6.801464956748655E9 ; 0.0
43 ; 2976068.1180053493 ; 2.00792959752794E8 ; 1.0278533311785823E8 ; 7.002244842169664E9 ; 0.0
44 ; 2987970.21818414 ; 2.008060720721418E8 ; 1.0576140123586358E8 ; 7.203037801922459E9 ; 0.0
45 ; 2998777.3659636546 ; 2.008192185403969E8 ; 1.0874937145404772E8 ; 7.4038438739946E9 ; 0.0
46 ; 3008539.880162536 ; 2.0083239566383505E8 ; 1.1174814882001138E8 ; 7.604663092534997E9 ; 0.0
47 ; 3016799.3062723447 ; 2.0084560025426507E8 ; 1.1475668870017391E8 ; 7.805495488198832E9 ; 0.0
48 ; 3021770.0332251485 ; 2.0085882939474517E8 ; 1.1777348800644626E8 ; 8.006341088453096E9 ; 0.0
49 ; 3032275.255590442 ; 2.0087208040968364E8 ; 1.207952580396714E8 ; 8.207199917847841E9 ; 0.0
50 ; 3035563.9541454585 ; 2.008853508387049E8 ; 1.2382753329526184E8 ; 8.4080719982575245E9 ; 0.0
51 ; 3043219.115410318 ; 2.0089863841375554E8 ; 1.268630972494073E8 ; 8.60895734909623E9 ; 0.0
52 ; 3052452.116727432 ; 2.0091194103900486E8 ; 1.2990631636481762E8 ; 8.809855987509985E9 ; 0.0
53 ; 3056101.6495288047 ; 2.0092525677316055E8 ; 1.3295876848154505E8 ; 9.01076792854899E9 ; 0.0
54 ; 3059602.8874479607 ; 2.0093858381387588E8 ; 1.3601487013107386E8 ; 9.211693185322151E9 ; 0.0
55 ; 3068079.4600988226 ; 2.0095192048397225E8 ; 1.3907447301852182E8 ; 9.412631769136026E9 ; 0.0
56 ; 3074983.31542082 ; 2.009652652192409E8 ; 1.4214255247862065E8 ; 9.613583689619999E9 ; 0.0
57 ; 3077573.070212714 ; 2.009786165576208E8 ; 1.4521753579404145E8 ; 9.81454895483924E9 ; 0.0
58 ; 3084226.398575836 ; 2.0099197312957868E8 ; 1.4829510886425418E8 ; 1.001552757139686E10 ; 0.0
59 ; 3091384.1507362253 ; 2.0100533364954147E8 ; 1.5137933526283002E8 ; 1.021651954452644E10 ; 0.0
60 ; 3095173.3013178115 ; 2.0101869690825096E8 ; 1.5447071941356623E8 ; 1.0417524878175982E10 ; 0.0
61 ; 3099052.0621926934 ; 2.0103206176592997E8 ; 1.5756589271488404E8 ; 1.0618543575084232E10 ; 0.0
62 ; 3105429.999381283 ; 2.0104542714616197E8 ; 1.6066494477707672E8 ; 1.0819575636850163E10 ; 0.0
63 ; 3112349.3548183753 ; 2.0105879203040072E8 ; 1.63770374776458E8 ; 1.1020621063996325E10 ; 0.0
64 ; 3117796.811376678 ; 2.0107215545303664E8 ; 1.6688272413127637E8 ; 1.1221679856026726E10 ; 0.0
65 ; 3122536.1212736783 ; 2.0108551649695584E8 ; 1.7000052094265306E8 ; 1.1422752011479763E10 ; 0.0
66 ; 3125762.8631934724 ; 2.0109887428953657E8 ; 1.7312305706392673E8 ; 1.1623837527976719E10 ; 0.0
67 ; 3133122.893528854 ; 2.0111222799903402E8 ; 1.762488199271202E8 ; 1.1824936402266256E10 ; 0.0
68 ; 3140706.452427875 ; 2.01125576831311E8 ; 1.7938194282064906E8 ; 1.2026048630265291E10 ; 0.0
69 ; 3139409.8409007634 ; 2.011389200268769E8 ; 1.8252264927307692E8 ; 1.2227174207096601E10 ; 0.0
70 ; 3145497.2023459775 ; 2.0115225685820216E8 ; 1.8566205911397767E8 ; 1.2428313127123478E10 ; 0.0
71 ; 3150728.914933898 ; 2.0116558662727872E8 ; 1.8880755631632364E8 ; 1.262946538398168E10 ; 0.0
72 ; 3155530.080003567 ; 2.0117890866340163E8 ; 1.9195828523125753E8 ; 1.283063097060896E10 ; 0.0
73 ; 3157793.566634945 ; 2.0119222232114828E8 ; 1.951138153112611E8 ; 1.3031809879272362E10 ; 0.0
74 ; 3165633.878882037 ; 2.0120552697853583E8 ; 1.9827160887789604E8 ; 1.323300210159351E10 ; 0.0
75 ; 3171292.944837215 ; 2.0121882203533855E8 ; 2.014372427567781E8 ; 1.3434207628572046E10 ; 0.0
76 ; 3172954.798667353 ; 2.0123210691154978E8 ; 2.046085357016153E8 ; 1.3635426450607386E10 ; 0.0
77 ; 3175912.4902688973 ; 2.012453810459739E8 ; 2.0778149050028265E8 ; 1.3836658557518936E10 ; 0.0
78 ; 3177076.9204044105 ; 2.012586438949361E8 ; 2.1095740299055153E8 ; 1.403790393856491E10 ; 0.0
79 ; 3178896.728995969 ; 2.0127189493109876E8 ; 2.1413447991095594E8 ; 1.4239162582459846E10 ; 0.0
80 ; 3176787.750272548 ; 2.0128513364237413E8 ; 2.173133766399519E8 ; 1.4440434477390945E10 ; 0.0
81 ; 3179685.1274750587 ; 2.012983595309249E8 ; 2.2049016439022446E8 ; 1.464171961103332E10 ; 0.0
82 ; 3176447.3266929016 ; 2.0131157211224392E8 ; 2.236698495176995E8 ; 1.4843017970564245E10 ; 0.0
83 ; 3179865.6283732452 ; 2.013247709143067E8 ; 2.2684629684439242E8 ; 1.5044329542676489E10 ; 0.0
84 ; 3180080.6502622906 ; 2.0133795547678939E8 ; 2.3002616247276565E8 ; 1.5245654313590796E10 ; 0.0
85 ; 3175583.6750087957 ; 2.01351125350347E8 ; 2.3320624312302795E8 ; 1.5446992269067585E10 ; 0.0
86 ; 3176875.6785272555 ; 2.0136428009594652E8 ; 2.3638182679803675E8 ; 1.5648343394417933E10 ; 0.0
87 ; 3175822.3366864803 ; 2.0137741928424987E8 ; 2.3955870247656402E8 ; 1.584970767451388E10 ; 0.0
88 ; 3178227.7334361356 ; 2.013905424950429E8 ; 2.427345248132505E8 ; 1.605108509379813E10 ; 0.0
89 ; 3174239.451165479 ; 2.0140364931670597E8 ; 2.4591275254668665E8 ; 1.6252475636293173E10 ; 0.0
90 ; 3173139.58761908 ; 2.0141673934572357E8 ; 2.4908699199785212E8 ; 1.6453879285609879E10 ; 0.0
91 ; 3175294.3507813765 ; 2.0142981218622845E8 ; 2.5226013158547118E8 ; 1.6655296024955603E10 ; 0.0
92 ; 3172762.378601484 ; 2.0144286744957873E8 ; 2.5543542593625256E8 ; 1.685672583714183E10 ; 0.0
93 ; 3174687.4926994853 ; 2.014559047539645E8 ; 2.5860818831485406E8 ; 1.705816870459141E10 ; 0.0
94 ; 3168465.9632115928 ; 2.0146892372404194E8 ; 2.6178287580755353E8 ; 1.7259624609345375E10 ; 0.0
95 ; 3172261.943334067 ; 2.0148192399059245E8 ; 2.6495134177076513E8 ; 1.7461093533069416E10 ; 0.0
96 ; 3168755.1947782477 ; 2.014949051902054E8 ; 2.681236037140992E8 ; 1.766257545706001E10 ; 0.0
97 ; 3169477.3977444014 ; 2.0150786696498194E8 ; 2.7129235890887743E8 ; 1.7864070362250214E10 ; 0.0
98 ; 3167830.412819751 ; 2.0152080896225905E8 ; 2.7446183630662185E8 ; 1.8065578229215195E10 ; 0.0
99 ; 3164886.36141797 ; 2.0153373083435145E8 ; 2.776296667194416E8 ; 1.8267099038177452E10 ; 0.0
100 ; 3164808.773523478 ; 2.0154663223831087E8 ; 2.8079455308085954E8 ; 1.8468632769011803E10 ; 0.0
101 ; 3161178.6868069908 ; 2.0155951283570063E8 ; 2.83959361854383E8 ; 1.8670179401250114E10 ; 0.0
102 ; 3158327.842467736 ; 2.0157237229238522E8 ; 2.8712054054118997E8 ; 1.8871738914085815E10 ; 0.0
103 ; 3159348.6066292827 ; 2.0158521027833274E8 ; 2.902788683836577E8 ; 1.90733112863782E10 ; 0.0
104 ; 3160384.6341684717 ; 2.015980264674305E8 ; 2.93438216990287E8 ; 1.9274896496656532E10 ; 0.0
105 ; 3156985.283731145 ; 2.0161082053731176E8 ; 2.9659860162445545E8 ; 1.9476494523123962E10 ; 0.0
106 ; 3152896.333124575 ; 2.0162359216919345E8 ; 2.997555869081866E8 ; 1.9678105343661274E10 ; 0.0
107 ; 3153639.1534447535 ; 2.0163634104772386E8 ; 3.029084832413112E8 ; 1.9879728935830467E10 ; 0.0
108 ; 3148056.698301063 ; 2.016490668608398E8 ; 3.0606212239475596E8 ; 2.0081365276878193E10 ; 0.0
109 ; 3147531.642732255 ; 2.0166176929963246E8 ; 3.0921017909305704E8 ; 2.0283014343739033E10 ; 0.0
110 ; 3144603.3601541137 ; 2.01674448058221E8 ; 3.123577107357893E8 ; 2.0484676113038666E10 ; 0.0
111 ; 3141575.333442111 ; 2.0168710283363435E8 ; 3.155023140959434E8 ; 2.0686350561096886E10 ; 0.0
112 ; 3137806.191340423 ; 2.0169973332569942E8 ; 3.186438894293855E8 ; 2.088803766393052E10 ; 0.0
113 ; 3140064.1165108485 ; 2.0171233923693648E8 ; 3.217816956207259E8 ; 2.1089737397256218E10 ; 0.0
114 ; 3133611.8178173034 ; 2.0172492027246025E8 ; 3.249217597372368E8 ; 2.1291449736493153E10 ; 0.0
115 ; 3132979.1436175653 ; 2.017374761398869E8 ; 3.280553715550541E8 ; 2.1493174656765614E10 ; 0.0
116 ; 3129194.3491090355 ; 2.0175000654924658E8 ; 3.311883506986717E8 ; 2.1694912132905502E10 ; 0.0
117 ; 3126116.398234512 ; 2.017625112129008E8 ; 3.3431754504778075E8 ; 2.189666213945475E10 ; 0.0
118 ; 3122770.1114593665 ; 2.017749898454646E8 ; 3.3744366144601524E8 ; 2.2098424650667652E10 ; 0.0
119 ; 3119224.9197012056 ; 2.017874421637332E8 ; 3.405664315574746E8 ; 2.2300199640513115E10 ; 0.0
120 ; 3114726.6792376977 ; 2.0179986788661277E8 ; 3.4368565647717583E8 ; 2.250198708267685E10 ; 0.0
121 ; 3112696.2524356362 ; 2.018122667350549E8 ; 3.4680038315641356E8 ; 2.270378695056346E10 ; 0.0
122 ; 3107370.78958253 ; 2.0182463843199527E8 ; 3.499130794088492E8 ; 2.2905599217298515E10 ; 0.0
123 ; 3105837.657064136 ; 2.01836982702295E8 ; 3.5302045019843173E8 ; 2.310742385573051E10 ; 0.0
124 ; 3099810.8229373675 ; 2.0184929927268592E8 ; 3.5612628785549587E8 ; 2.3309260838432804E10 ; 0.0
125 ; 3100604.297472789 ; 2.0186158787171838E8 ; 3.5922609867843324E8 ; 2.351111013770549E10 ; 0.0
126 ; 3099075.801866718 ; 2.018738482297123E8 ; 3.62326702975906E8 ; 2.371297172557721E10 ; 0.0
127 ; 3087671.758082578 ; 2.0188608007871062E8 ; 3.654257787777727E8 ; 2.3914845573806923E10 ; 0.0
128 ; 3086367.245450339 ; 2.0189828315243533E8 ; 3.685134505358553E8 ; 2.4116731653885635E10 ; 0.0
129 ; 3081482.300872374 ; 2.0191045718624607E8 ; 3.715998177813056E8 ; 2.431862993703807E10 ; 0.0
130 ; 3075246.3465696285 ; 2.0192260191710076E8 ; 3.74681300082178E8 ; 2.4520540394224316E10 ; 0.0
131 ; 3067785.2115111 ; 2.0193471708351853E8 ; 3.7775654642874765E8 ; 2.4722462996141415E10 ; 0.0
132 ; 3060290.374967618 ; 2.019468024255444E8 ; 3.808243316402587E8 ; 2.4924397713224934E10 ; 0.0
133 ; 3054460.30589818 ; 2.019588576847162E8 ; 3.8388462201522636E8 ; 2.512634451565048E10 ; 0.0
134 ; 3043235.553470304 ; 2.0197088260403287E8 ; 3.8693908232112455E8 ; 2.5328303373335194E10 ; 0.0
135 ; 3034944.373061898 ; 2.019828769279249E8 ; 3.8998231787459487E8 ; 2.5530274255939228E10 ; 0.0
136 ; 3025979.6688728933 ; 2.0199484040222588E8 ; 3.9301726224765676E8 ; 2.5732257132867153E10 ; 0.0
137 ; 3017491.7757463986 ; 2.0200677277414587E8 ; 3.9604324191652966E8 ; 2.593425197326938E10 ; 0.0
138 ; 3009164.942294482 ; 2.020186737922462E8 ; 3.9906073369227606E8 ; 2.6136258746043526E10 ; 0.0
139 ; 3001879.3425763133 ; 2.0203054320641536E8 ; 4.0206989863457054E8 ; 2.6338277419835773E10 ; 0.0
140 ; 2995359.8534663785 ; 2.0204238076784652E8 ; 4.0507177797714686E8 ; 2.654030796304219E10 ; 0.0
141 ; 2985754.971832041 ; 2.020541862290159E8 ; 4.0806713783061326E8 ; 2.6742350343810036E10 ; 0.0
142 ; 2979678.688414436 ; 2.020659593436625E8 ; 4.110528928024453E8 ; 2.694440453003905E10 ; 0.0
143 ; 2965535.40979291 ; 2.02077699866769E8 ; 4.1403257149085975E8 ; 2.7146470489382713E10 ; 0.0
144 ; 2958159.2610421944 ; 2.0208940755454323E8 ; 4.1699810690065265E8 ; 2.734854818924948E10 ; 0.0
145 ; 2950300.3243663656 ; 2.0210108216440135E8 ; 4.199562661616948E8 ; 2.7550637596804024E10 ; 0.0
146 ; 2950757.800847551 ; 2.021127234549512E8 ; 4.229065664860612E8 ; 2.7752738678968426E10 ; 0.0
147 ; 2945366.7892237767 ; 2.0212433118597704E8 ; 4.2585732428690875E8 ; 2.7954851402423378E10 ; 0.0
148 ; 2942991.259033012 ; 2.0213590511842486E8 ; 4.2880269107613254E8 ; 2.8156975733609356E10 ; 0.0
149 ; 2938434.197523731 ; 2.0214744501438865E8 ; 4.3174568233516556E8 ; 2.835911163872778E10 ; 0.0
150 ; 2936072.4615228074 ; 2.0215895063709727E8 ; 4.346841165326893E8 ; 2.856125908374217E10 ; 0.0
151 ; 2927665.9443880673 ; 2.0217042175090212E8 ; 4.376201889942121E8 ; 2.8763418034379265E10 ; 0.0
152 ; 2926270.725804927 ; 2.0218185812126553E8 ; 4.405478549386002E8 ; 2.8965588456130165E10 ; 0.0
153 ; 2921138.9157042936 ; 2.021932595147496E8 ; 4.434741256644051E8 ; 2.916777031425143E10 ; 0.0
154 ; 2917896.1866688654 ; 2.022046256990059E8 ; 4.463952645801094E8 ; 2.9369963573766182E10 ; 0.0
155 ; 2911635.1109088226 ; 2.0221595644276562E8 ; 4.493131607667783E8 ; 2.9572168199465187E10 ; 0.0
156 ; 2906643.1646763613 ; 2.0222725151583028E8 ; 4.522247958776871E8 ; 2.977438415590795E10 ; 0.0
157 ; 2902277.43584531 ; 2.0223851068906298E8 ; 4.5513143904236346E8 ; 2.9976611407423782E10 ; 0.0
158 ; 2899736.4477986963 ; 2.0224973373438013E8 ; 4.580337164782088E8 ; 3.0178849918112846E10 ; 0.0
159 ; 2896531.125798224 ; 2.022609204247437E8 ; 4.6093345292600745E8 ; 3.0381099651847225E10 ; 0.0
160 ; 2889727.5078270454 ; 2.0227207053415406E8 ; 4.638299840518057E8 ; 3.058336057227197E10 ; 0.0
161 ; 2884411.893326148 ; 2.022831838376428E8 ; 4.667197115596327E8 ; 3.078563264280612E10 ; 0.0
162 ; 2879723.6598527217 ; 2.0229426011126646E8 ; 4.696041234529589E8 ; 3.0987915826643764E10 ; 0.0
163 ; 2874705.9286553753 ; 2.0230529913210052E8 ; 4.724838471128116E8 ; 3.119021008675503E10 ; 0.0
164 ; 2873818.0965724117 ; 2.023163006782336E8 ; 4.75358553041467E8 ; 3.139251538588713E10 ; 0.0
165 ; 2866974.1594431293 ; 2.023272645287621E8 ; 4.782323711380394E8 ; 3.1594831686565365E10 ; 0.0
166 ; 2861537.023519532 ; 2.0233819046378532E8 ; 4.8109934529748255E8 ; 3.1797158951094128E10 ; 0.0
167 ; 2861198.0228870288 ; 2.0234907826440072E8 ; 4.8396088232100207E8 ; 3.1999497141557915E10 ; 0.0
168 ; 2852807.776140721 ; 2.023599277126996E8 ; 4.868220803438891E8 ; 3.2201846219822315E10 ; 0.0
169 ; 2849343.4138468252 ; 2.0237073859176302E8 ; 4.8967488812002987E8 ; 3.2404206147535015E10 ; 0.0
170 ; 2847418.6647200375 ; 2.0238151068565804E8 ; 4.925242315338767E8 ; 3.2606576886126778E10 ; 0.0
171 ; 2836170.432032753 ; 2.0239224377943426E8 ; 4.953716501985968E8 ; 3.2808958396812435E10 ; 0.0
172 ; 2837166.267241565 ; 2.0240293765912047E8 ; 4.9820782063062954E8 ; 3.301135064059187E10 ; 0.0
173 ; 2830226.065427509 ; 2.0241359211172184E8 ; 5.010449868978711E8 ; 3.3213753578250988E10 ; 0.0
174 ; 2831540.076944242 ; 2.024242069252169E8 ; 5.0387521296329856E8 ; 3.341616717036271E10 ; 0.0
175 ; 2824145.795595433 ; 2.024347818885553E8 ; 5.067067530402428E8 ; 3.3618591377287926E10 ; 0.0
176 ; 2822801.462259099 ; 2.0244531679165518E8 ; 5.095308988358382E8 ; 3.382102615917648E10 ; 0.0
177 ; 2822335.047792899 ; 2.024558114254014E8 ; 5.123537002980973E8 ; 3.4023471475968136E10 ; 0.0
178 ; 2815186.286056758 ; 2.024662655816433E8 ; 5.151760353458902E8 ; 3.4225927287393536E10 ; 0.0
179 ; 2811244.734588638 ; 2.0247667905319318E8 ; 5.17991221631947E8 ; 3.442839355297518E10 ; 0.0
180 ; 2807122.68937509 ; 2.024870516338247E8 ; 5.208024663665356E8 ; 3.463087023202837E10 ; 0.0
181 ; 2804010.1789063364 ; 2.024973831182714E8 ; 5.236095890559107E8 ; 3.48333572836622E10 ; 0.0
182 ; 2801969.9400485475 ; 2.0250767330222568E8 ; 5.26413599234817E8 ; 3.503585466678047E10 ; 0.0
183 ; 2798776.738972046 ; 2.0251792198233753E8 ; 5.292155691748656E8 ; 3.5238362340082695E10 ; 0.0
184 ; 2796634.1788165513 ; 2.0252812895621383E8 ; 5.320143459138377E8 ; 3.544088026206503E10 ; 0.0
185 ; 2791855.723103473 ; 2.0253829402241734E8 ; 5.348109800926542E8 ; 3.564340839102125E10 ; 0.0
186 ; 2787986.942978566 ; 2.0254841698046637E8 ; 5.376028358157578E8 ; 3.584594668504366E10 ; 0.0
187 ; 2790567.6773230284 ; 2.0255849763083398E8 ; 5.403908227587364E8 ; 3.604849510202413E10 ; 0.0
188 ; 2783790.195398053 ; 2.0256853577494785E8 ; 5.431813904360594E8 ; 3.625105359965497E10 ; 0.0
189 ; 2780569.4115606537 ; 2.0257853121518984E8 ; 5.459651806314574E8 ; 3.645362213542992E10 ; 0.0
190 ; 2777609.2328023072 ; 2.0258848375489604E8 ; 5.487457500430181E8 ; 3.66562006666451E10 ; 0.0
191 ; 2774442.0303483303 ; 2.0259839319835657E8 ; 5.515233592758204E8 ; 3.68587891504E10 ; 0.0
192 ; 2774408.0014159027 ; 2.0260825935081568E8 ; 5.542978013061687E8 ; 3.706138754359836E10 ; 0.0
193 ; 2769452.7018378745 ; 2.0261808201847208E8 ; 5.570722093075845E8 ; 3.726399580294917E10 ; 0.0
194 ; 2766719.306096974 ; 2.02627861008479E8 ; 5.598416620094224E8 ; 3.746661388496764E10 ; 0.0
195 ; 2763770.8452369464 ; 2.0263759612894467E8 ; 5.626083813155195E8 ; 3.766924174597612E10 ; 0.0
196 ; 2759521.48997386 ; 2.0264728718893275E8 ; 5.653721521607563E8 ; 3.7871879342105064E10 ; 0.0
197 ; 2759219.933366655 ; 2.0265693399846286E8 ; 5.681316736507303E8 ; 3.8074526629294E10 ; 0.0
198 ; 2751856.078477488 ; 2.026665363685112E8 ; 5.708908935840969E8 ; 3.8277183563292465E10 ; 0.0
199 ; 2748379.7704216787 ; 2.0267609411101118E8 ; 5.736427496625744E8 ; 3.847985009966098E10 ; 0.0
200 ; 2748013.8603255735 ; 2.0268560703885427E8 ; 5.76391129432996E8 ; 3.868252619377199E10 ; 0.0
