CSV File for the City 1 on Day 112
1 - Minute m 
2 - Power Consumed at minute m 
3 - Power Produced at minute m 
4 - Energy Consumed since the beginning of the day 
5 - Energy Produced since the beginning of the day 
6 - Energy Lost since the beginning of the day on lines starting from the city
 
0 ; 1.6184452176185058E7 ; 1.0555864875146529E8 ; 0.0 ; 0.0 ; 0.0
1 ; 1.6200948533662865E7 ; 1.0571160550353736E8 ; 1.6184452176185058E7 ; 1.0555864875146529E8 ; 0.0
2 ; 1.6220608271742426E7 ; 1.0617334355757895E8 ; 3.2385400709847923E7 ; 2.1127025425500265E8 ; 0.0
3 ; 1.623720731520089E7 ; 1.0694386430794626E8 ; 4.8606008981590346E7 ; 3.174435978125816E8 ; 0.0
4 ; 1.6264748622662356E7 ; 1.0802316900307506E8 ; 6.484321629679123E7 ; 4.2438746212052786E8 ; 0.0
5 ; 1.6293718697366185E7 ; 1.0941125873895586E8 ; 8.110796491945359E7 ; 5.324106311236029E8 ; 0.0
6 ; 1.6329739025414297E7 ; 1.1110813445330206E8 ; 9.740168361681977E7 ; 6.418218898625588E8 ; 0.0
7 ; 1.6382451538781427E7 ; 1.1311379692048436E8 ; 1.1373142264223407E8 ; 7.529300243158609E8 ; 0.0
8 ; 1.6462752669517832E7 ; 1.1542824674729311E8 ; 1.3011387418101549E8 ; 8.660438212363453E8 ; 0.0
9 ; 1.6583504561233643E7 ; 1.1805148436958426E8 ; 1.4657662685053334E8 ; 9.814720679836384E8 ; 0.0
10 ; 1.6764343092050387E7 ; 1.2098351004985166E8 ; 1.6316013141176698E8 ; 1.0995235523532226E9 ; 0.0
11 ; 1.704864763330872E7 ; 1.2422432387575713E8 ; 1.7992447450381735E8 ; 1.2205070624030743E9 ; 0.0
12 ; 1.751819748990059E7 ; 1.2777392575963882E8 ; 1.9697312213712606E8 ; 1.3447313862788315E9 ; 0.0
13 ; 1.7962910839329354E7 ; 1.3163231543900287E8 ; 2.1449131962702665E8 ; 1.4725053120384703E9 ; 0.0
14 ; 1.801638828025118E7 ; 1.3579949247799343E8 ; 2.32454230466356E8 ; 1.6041376274774733E9 ; 0.0
15 ; 1.8040888926509473E7 ; 1.4027545626982003E8 ; 2.5047061874660718E8 ; 1.7399371199554667E9 ; 0.0
16 ; 1.8057430043106E7 ; 1.450602060401121E8 ; 2.685115076731167E8 ; 1.8802125762252867E9 ; 0.0
17 ; 1.808151233572162E7 ; 1.5015374085115615E8 ; 2.865689377162227E8 ; 2.0252727822653987E9 ; 0.0
18 ; 1.810447061680099E7 ; 1.5555605960696167E8 ; 3.046504500519443E8 ; 2.1754265231165547E9 ; 0.0
19 ; 1.8121510438432753E7 ; 1.612671610590929E8 ; 3.227549206687453E8 ; 2.3309825827235165E9 ; 0.0
20 ; 1.815000669344598E7 ; 1.6728704381319365E8 ; 3.4087643110717803E8 ; 2.4922497437826095E9 ; 0.0
21 ; 1.8167591580881234E7 ; 1.7361570633612874E8 ; 3.59026437800624E8 ; 2.6595367875958033E9 ; 0.0
22 ; 1.819098801163134E7 ; 1.8025314696365786E8 ; 3.7719402938150525E8 ; 2.833152493931932E9 ; 0.0
23 ; 1.821194003666938E7 ; 1.8719936390855628E8 ; 3.953850173931366E8 ; 3.01340564089559E9 ; 0.0
24 ; 1.823649429487298E7 ; 1.9445435526909506E8 ; 4.13596957429806E8 ; 3.2006050048041463E9 ; 0.0
25 ; 1.825691149613732E7 ; 2.0070615993597615E8 ; 4.31833451724679E8 ; 3.395059360073241E9 ; 0.0
26 ; 1.827944565133521E7 ; 2.0070832363816515E8 ; 4.500903632208163E8 ; 3.5957655200092173E9 ; 0.0
27 ; 1.829408289369721E7 ; 2.0071061347683388E8 ; 4.683698088721515E8 ; 3.7964738436473823E9 ; 0.0
28 ; 1.8323002390224993E7 ; 2.0071302718119437E8 ; 4.866638917658487E8 ; 3.997184457124216E9 ; 0.0
29 ; 1.834061415083393E7 ; 2.0071556241075426E8 ; 5.049868941560737E8 ; 4.1978974843054104E9 ; 0.0
30 ; 1.836429163598639E7 ; 2.007182167642066E8 ; 5.233275083069076E8 ; 4.398613046716165E9 ; 0.0
31 ; 1.8382716801666763E7 ; 2.0072098778813693E8 ; 5.41691799942894E8 ; 4.599331263480371E9 ; 0.0
32 ; 1.8399934158213217E7 ; 2.0072387298549265E8 ; 5.600745167445607E8 ; 4.800052251268508E9 ; 0.0
33 ; 1.8424732359974742E7 ; 2.0072686982376543E8 ; 5.78474450902774E8 ; 5.000776124254001E9 ; 0.0
34 ; 1.8443902772530604E7 ; 2.007299757428466E8 ; 5.968991832627487E8 ; 5.201502994077766E9 ; 0.0
35 ; 1.846118903796999E7 ; 2.0073318816252008E8 ; 6.153430860352793E8 ; 5.402232969820613E9 ; 0.0
36 ; 1.847624826474086E7 ; 2.0073650448956656E8 ; 6.338042750732492E8 ; 5.602966157983133E9 ; 0.0
37 ; 1.8498916983178843E7 ; 2.0073992212445772E8 ; 6.5228052333799E8 ; 5.8037026624727E9 ; 0.0
38 ; 1.8516683480109345E7 ; 2.0074343846762565E8 ; 6.707794403211689E8 ; 6.0044425845971575E9 ; 0.0
39 ; 1.8529990331625883E7 ; 2.0074705092529944E8 ; 6.892961238012782E8 ; 6.205186023064783E9 ; 0.0
40 ; 1.8543764420257114E7 ; 2.0075075691490436E8 ; 7.078261141329042E8 ; 6.405933073990083E9 ; 0.0
41 ; 1.8559379930794593E7 ; 2.0075455387002537E8 ; 7.263698785531613E8 ; 6.606683830904987E9 ; 0.0
42 ; 1.8572772500035815E7 ; 2.0075843924493948E8 ; 7.449292584839559E8 ; 6.807438384775013E9 ; 0.0
43 ; 1.8588355735861827E7 ; 2.0076241051872644E8 ; 7.635020309839916E8 ; 7.008196824019953E9 ; 0.0
44 ; 1.859506759714297E7 ; 2.007664651989687E8 ; 7.820903867198534E8 ; 7.208959234538679E9 ; 0.0
45 ; 1.861100940121036E7 ; 2.007706008250556E8 ; 8.006854543169963E8 ; 7.409725699737648E9 ; 0.0
46 ; 1.8620291941897266E7 ; 2.0077481497110754E8 ; 8.192964637182066E8 ; 7.610496300562704E9 ; 0.0
47 ; 1.8630945025785495E7 ; 2.0077910524853864E8 ; 8.379167556601039E8 ; 7.811271115533812E9 ; 0.0
48 ; 1.864006195803333E7 ; 2.007834693082764E8 ; 8.565477006858894E8 ; 8.012050220782351E9 ; 0.0
49 ; 1.864867506524615E7 ; 2.0078790484265867E8 ; 8.751877626439227E8 ; 8.212833690090627E9 ; 0.0
50 ; 1.8659180796443827E7 ; 2.0079240958702794E8 ; 8.938364377091688E8 ; 8.413621594933286E9 ; 0.0
51 ; 1.8662478252332058E7 ; 2.007969813210438E8 ; 9.124956185056126E8 ; 8.614414004520313E9 ; 0.0
52 ; 1.8668889335809905E7 ; 2.0080161786973396E8 ; 9.311580967579447E8 ; 8.815210985841356E9 ; 0.0
53 ; 1.867908435289497E7 ; 2.0080631710430372E8 ; 9.498269860937546E8 ; 9.01601260371109E9 ; 0.0
54 ; 1.8681426853027653E7 ; 2.0081107694272393E8 ; 9.685060704466497E8 ; 9.216818920815393E9 ; 0.0
55 ; 1.8690840615614057E7 ; 2.0081589535011664E8 ; 9.871874972996774E8 ; 9.417629997758118E9 ; 0.0
56 ; 1.869631746193159E7 ; 2.008207703389563E8 ; 1.0058783379152914E9 ; 9.618445893108234E9 ; 0.0
57 ; 1.8700189361376088E7 ; 2.0082569996910474E8 ; 1.024574655377223E9 ; 9.819266663447191E9 ; 0.0
58 ; 1.8709790320844103E7 ; 2.008306823476962E8 ; 1.0432748447385991E9 ; 1.0020092363416296E10 ; 0.0
59 ; 1.8711715111273985E7 ; 2.008357156288882E8 ; 1.0619846350594431E9 ; 1.0220923045763992E10 ; 0.0
60 ; 1.871421918773034E7 ; 2.0084079801349342E8 ; 1.080696350170717E9 ; 1.0421758761392881E10 ; 0.0
61 ; 1.8725997344453078E7 ; 2.0084592774850628E8 ; 1.0994105693584473E9 ; 1.0622599559406374E10 ; 0.0
62 ; 1.8731103259832505E7 ; 2.0085110312653676E8 ; 1.1181365667029004E9 ; 1.082344548715488E10 ; 0.0
63 ; 1.8730096580965668E7 ; 2.0085632248516434E8 ; 1.136867669962733E9 ; 1.1024296590281418E10 ; 0.0
64 ; 1.873789766130573E7 ; 2.008615842062224E8 ; 1.1555977665436988E9 ; 1.1225152912766582E10 ; 0.0
65 ; 1.8745912775732405E7 ; 2.0086688671502322E8 ; 1.1743356642050045E9 ; 1.1426014496972805E10 ; 0.0
66 ; 1.874578105370336E7 ; 2.0087222847953385E8 ; 1.193081576980737E9 ; 1.1626881383687828E10 ; 0.0
67 ; 1.875357182949507E7 ; 2.008776080095102E8 ; 1.2118273580344403E9 ; 1.1827753612167362E10 ; 0.0
68 ; 1.8757346193391666E7 ; 2.0088302385559773E8 ; 1.2305809298639352E9 ; 1.2028631220176872E10 ; 0.0
69 ; 1.8761788328054264E7 ; 2.0088847460840592E8 ; 1.2493382760573268E9 ; 1.222951424403247E10 ; 0.0
70 ; 1.876751753299712E7 ; 2.0089395889756235E8 ; 1.268100064385381E9 ; 1.2430402718640877E10 ; 0.0
71 ; 1.8772529474390034E7 ; 2.0089947539075243E8 ; 1.286867581918378E9 ; 1.2631296677538439E10 ; 0.0
72 ; 1.8774055817096274E7 ; 2.009050227927499E8 ; 1.3056401113927681E9 ; 1.2832196152929192E10 ; 0.0
73 ; 1.8780366638759185E7 ; 2.0091059984444246E8 ; 1.3244141672098644E9 ; 1.3033101175721941E10 ; 0.0
74 ; 1.8782678917386524E7 ; 2.009162053218567E8 ; 1.3431945338486235E9 ; 1.3234011775566383E10 ; 0.0
75 ; 1.8782979478869885E7 ; 2.0092183803518593E8 ; 1.36197721276601E9 ; 1.343492798088824E10 ; 0.0
76 ; 1.8787538194744114E7 ; 2.0092749682782382E8 ; 1.38076019224488E9 ; 1.3635849818923428E10 ; 0.0
77 ; 1.879095815277552E7 ; 2.0093318057540688E8 ; 1.399547730439624E9 ; 1.3836777315751251E10 ; 0.0
78 ; 1.8788375048773255E7 ; 2.0093888818486804E8 ; 1.4183386885923996E9 ; 1.4037710496326658E10 ; 0.0
79 ; 1.8785903764341913E7 ; 2.0094461859350324E8 ; 1.437127063641173E9 ; 1.4238649384511526E10 ; 0.0
80 ; 1.878252298436719E7 ; 2.0095037076805297E8 ; 1.4559129674055147E9 ; 1.443959400310503E10 ; 0.0
81 ; 1.8778936586630993E7 ; 2.0095614370380014E8 ; 1.4746954903898818E9 ; 1.4640544373873083E10 ; 0.0
82 ; 1.877552209513434E7 ; 2.0096193642368552E8 ; 1.493474426976513E9 ; 1.4841500517576883E10 ; 0.0
83 ; 1.8775803064570304E7 ; 2.0096774797744176E8 ; 1.5122499490716472E9 ; 1.5042462454000568E10 ; 0.0
84 ; 1.8768048945559308E7 ; 2.0097357744074675E8 ; 1.5310257521362174E9 ; 1.524343020197801E10 ; 0.0
85 ; 1.8763924904697143E7 ; 2.0097942391439727E8 ; 1.5497938010817766E9 ; 1.5444403779418756E10 ; 0.0
86 ; 1.8758414759632662E7 ; 2.0098528652350274E8 ; 1.5685577259864738E9 ; 1.5645383203333155E10 ; 0.0
87 ; 1.8761034373100348E7 ; 2.0099116441670012E8 ; 1.5873161407461064E9 ; 1.5846368489856657E10 ; 0.0
88 ; 1.8755198872882836E7 ; 2.0099705676538995E8 ; 1.6060771751192067E9 ; 1.6047359654273357E10 ; 0.0
89 ; 1.875012596410497E7 ; 2.0100296276299328E8 ; 1.6248323739920895E9 ; 1.6248356711038748E10 ; 0.0
90 ; 1.8746676053322043E7 ; 2.0100888162422994E8 ; 1.6435824999561944E9 ; 1.644935967380174E10 ; 0.0
91 ; 1.8738583917224728E7 ; 2.010148125844181E8 ; 1.6623291760095165E9 ; 1.665036855542597E10 ; 0.0
92 ; 1.8736017914656337E7 ; 2.010207548987945E8 ; 1.6810677599267411E9 ; 1.6851383368010387E10 ; 0.0
93 ; 1.8730919145372313E7 ; 2.0102670784185567E8 ; 1.6998037778413975E9 ; 1.7052404122909182E10 ; 0.0
94 ; 1.8725314857544914E7 ; 2.0103267070671964E8 ; 1.71853469698677E9 ; 1.7253430830751038E10 ; 0.0
95 ; 1.8724049588809796E7 ; 2.010386428045076E8 ; 1.7372600118443148E9 ; 1.7454463501457756E10 ; 0.0
96 ; 1.8719145967987563E7 ; 2.01044623463746E8 ; 1.7559840614331245E9 ; 1.7655502144262264E10 ; 0.0
97 ; 1.8715114359312184E7 ; 2.010506120297874E8 ; 1.774703207401112E9 ; 1.785654676772601E10 ; 0.0
98 ; 1.870692483613806E7 ; 2.0105660786425093E8 ; 1.7934183217604244E9 ; 1.80575973797558E10 ; 0.0
99 ; 1.8700525160502143E7 ; 2.0106261034448126E8 ; 1.8121252465965624E9 ; 1.825865398762005E10 ; 0.0
100 ; 1.86915206146827E7 ; 2.0106861886302572E8 ; 1.8308257717570646E9 ; 1.845971659796453E10 ; 0.0
101 ; 1.8685187801404253E7 ; 2.0107463282712924E8 ; 1.8495172923717473E9 ; 1.8660785216827557E10 ; 0.0
102 ; 1.8683954740477E7 ; 2.0108065165824646E8 ; 1.8682024801731515E9 ; 1.8861859849654686E10 ; 0.0
103 ; 1.8673722423325107E7 ; 2.0108667479157087E8 ; 1.8868864349136286E9 ; 1.906294050131293E10 ; 0.0
104 ; 1.8669265508595157E7 ; 2.0109270167558023E8 ; 1.9055601573369536E9 ; 1.9264027176104504E10 ; 0.0
105 ; 1.866128370531079E7 ; 2.0109873177159762E8 ; 1.9242294228455489E9 ; 1.9465119877780083E10 ; 0.0
106 ; 1.8653987222801413E7 ; 2.0110476455336827E8 ; 1.9428907065508597E9 ; 1.966621860955168E10 ; 0.0
107 ; 1.8648447449564066E7 ; 2.0111079950665107E8 ; 1.9615446937736611E9 ; 1.986732337410505E10 ; 0.0
108 ; 1.864199050361839E7 ; 2.0111683612882456E8 ; 1.980193141223225E9 ; 2.0068434173611702E10 ; 0.0
109 ; 1.863279785317052E7 ; 2.0112287392850706E8 ; 1.9988351317268436E9 ; 2.026955100974053E10 ; 0.0
110 ; 1.862365678475827E7 ; 2.011289124251901E8 ; 2.0174679295800142E9 ; 2.0470673883669037E10 ; 0.0
111 ; 1.861959952033718E7 ; 2.0113495114888522E8 ; 2.0360915863647726E9 ; 2.0671802796094227E10 ; 0.0
112 ; 1.8609824277008776E7 ; 2.011409896397832E8 ; 2.0547111858851097E9 ; 2.087293774724311E10 ; 0.0
113 ; 1.86042600138084E7 ; 2.011470274479257E8 ; 2.0733210101621184E9 ; 2.1074078736882893E10 ; 0.0
114 ; 1.8591934159578864E7 ; 2.011530641328885E8 ; 2.091925270175927E9 ; 2.127522576433082E10 ; 0.0
115 ; 1.8583160994096637E7 ; 2.0115909926347637E8 ; 2.1105172043355057E9 ; 2.1476378828463707E10 ; 0.0
116 ; 1.857482432455993E7 ; 2.0116513241742882E8 ; 2.1291003653296022E9 ; 2.1677537927727184E10 ; 0.0
117 ; 1.8566247794007752E7 ; 2.0117116318113643E8 ; 2.1476751896541624E9 ; 2.187870306014461E10 ; 0.0
118 ; 1.855596624610082E7 ; 2.0117719114936745E8 ; 2.16624143744817E9 ; 2.207987422332575E10 ; 0.0
119 ; 1.854965853893802E7 ; 2.0118321592500433E8 ; 2.184797403694271E9 ; 2.2281051414475117E10 ; 0.0
120 ; 1.85468609838523E7 ; 2.0118923711878973E8 ; 2.203347062233209E9 ; 2.248223463040012E10 ; 0.0
121 ; 1.852887661462731E7 ; 2.0119525434908155E8 ; 2.2218939232170615E9 ; 2.268342386751891E10 ; 0.0
122 ; 1.852449570224623E7 ; 2.0120126724161708E8 ; 2.240422799831689E9 ; 2.2884619121867992E10 ; 0.0
123 ; 1.8513722703717466E7 ; 2.012072754292854E8 ; 2.258947295533935E9 ; 2.3085820389109608E10 ; 0.0
124 ; 1.8506048575596906E7 ; 2.0121327855190822E8 ; 2.2774610182376523E9 ; 2.3287027664538895E10 ; 0.0
125 ; 1.8495356650319226E7 ; 2.0121927625602823E8 ; 2.295967066813249E9 ; 2.34882409430908E10 ; 0.0
126 ; 1.847961543428792E7 ; 2.012252681947056E8 ; 2.314462423463568E9 ; 2.368946021934683E10 ; 0.0
127 ; 1.8474369760204982E7 ; 2.012312540273213E8 ; 2.332942038897856E9 ; 2.3890685487541534E10 ; 0.0
128 ; 1.8461259843128927E7 ; 2.012372334193878E8 ; 2.351416408658061E9 ; 2.4091916741568855E10 ; 0.0
129 ; 1.8451152610074632E7 ; 2.0124320604236633E8 ; 2.36987766850119E9 ; 2.4293153974988243E10 ; 0.0
130 ; 1.843916252124021E7 ; 2.0124917157349086E8 ; 2.3883288211112647E9 ; 2.449439718103061E10 ; 0.0
131 ; 1.8423666112419087E7 ; 2.0125512969559833E8 ; 2.406767983632505E9 ; 2.46956463526041E10 ; 0.0
132 ; 1.8406477618671283E7 ; 2.0126108009696487E8 ; 2.425191649744924E9 ; 2.4896901482299698E10 ; 0.0
133 ; 1.8390958177835595E7 ; 2.0126702247114778E8 ; 2.4435981273635955E9 ; 2.5098162562396664E10 ; 0.0
134 ; 1.8376731554804552E7 ; 2.0127295651683336E8 ; 2.461989085541431E9 ; 2.5299429584867813E10 ; 0.0
135 ; 1.8356358342320237E7 ; 2.0127888193769E8 ; 2.4803658170962353E9 ; 2.5500702541384647E10 ; 0.0
136 ; 1.8337842047519434E7 ; 2.0128479844222638E8 ; 2.4987221754385557E9 ; 2.570198142332234E10 ; 0.0
137 ; 1.8324500778978705E7 ; 2.0129070574365485E8 ; 2.517060017486075E9 ; 2.5903266221764565E10 ; 0.0
138 ; 1.830424499100933E7 ; 2.0129660355975956E8 ; 2.5353845182650537E9 ; 2.610455692750822E10 ; 0.0
139 ; 1.8271518560626484E7 ; 2.0130249161276913E8 ; 2.553688763256063E9 ; 2.630585353106798E10 ; 0.0
140 ; 1.8236040737268332E7 ; 2.0130836962923396E8 ; 2.5719602818166895E9 ; 2.650715602268075E10 ; 0.0
141 ; 1.8188765623450767E7 ; 2.0131423733990777E8 ; 2.590196322553958E9 ; 2.6708464392309986E10 ; 0.0
142 ; 1.8149928940774355E7 ; 2.0132009447963312E8 ; 2.6083850881774087E9 ; 2.6909778629649895E10 ; 0.0
143 ; 1.810992752829385E7 ; 2.0132594078723118E8 ; 2.626535017118183E9 ; 2.7111098724129528E10 ; 0.0
144 ; 1.8066226276864E7 ; 2.0133177600539517E8 ; 2.644644944646477E9 ; 2.731242466491676E10 ; 0.0
145 ; 1.8034263215501793E7 ; 2.0133759988058755E8 ; 2.6627111709233413E9 ; 2.7513756440922153E10 ; 0.0
146 ; 1.7996832689212553E7 ; 2.0134341216294062E8 ; 2.680745434138843E9 ; 2.7715094040802742E10 ; 0.0
147 ; 1.7958863397820104E7 ; 2.0134921260616088E8 ; 2.6987422668280554E9 ; 2.7916437452965683E10 ; 0.0
148 ; 1.7927054372274905E7 ; 2.0135500096743625E8 ; 2.7167011302258754E9 ; 2.8117786665571842E10 ; 0.0
149 ; 1.789054913720098E7 ; 2.0136077700734693E8 ; 2.7346281845981503E9 ; 2.831914166653928E10 ; 0.0
150 ; 1.785900500564454E7 ; 2.0136654048977882E8 ; 2.752518733735351E9 ; 2.8520502443546627E10 ; 0.0
151 ; 1.7822193769126505E7 ; 2.0137229118184033E8 ; 2.7703777387409954E9 ; 2.8721868984036407E10 ; 0.0
152 ; 1.7785168228161737E7 ; 2.0137802885378182E8 ; 2.788199932510122E9 ; 2.8923241275218246E10 ; 0.0
153 ; 1.774839961833335E7 ; 2.0138375327891764E8 ; 2.8059851007382836E9 ; 2.912461930407203E10 ; 0.0
154 ; 1.7719399557278972E7 ; 2.0138946423355117E8 ; 2.823733500356617E9 ; 2.932600305735095E10 ; 0.0
155 ; 1.767959219118646E7 ; 2.013951614969021E8 ; 2.841452899913896E9 ; 2.95273925215845E10 ; 0.0
156 ; 1.7645772249122668E7 ; 2.014008448510362E8 ; 2.8591324921050825E9 ; 2.97287876830814E10 ; 0.0
157 ; 1.760642669280847E7 ; 2.0140651408079746E8 ; 2.876778264354205E9 ; 2.9930188527932438E10 ; 0.0
158 ; 1.7576000329189695E7 ; 2.0141216897374275E8 ; 2.8943846910470138E9 ; 3.0131595042013237E10 ; 0.0
159 ; 1.7535909155154664E7 ; 2.0141780932007816E8 ; 2.9119606913762035E9 ; 3.033300721098698E10 ; 0.0
160 ; 1.7503055949281137E7 ; 2.0142343491259792E8 ; 2.9294966005313582E9 ; 3.053442502030706E10 ; 0.0
161 ; 1.7463987277836747E7 ; 2.014290455466251E8 ; 2.9469996564806395E9 ; 3.0735848455219658E10 ; 0.0
162 ; 1.743079337858343E7 ; 2.0143464101995438E8 ; 2.9644636437584763E9 ; 3.093727750076628E10 ; 0.0
163 ; 1.7395764573738046E7 ; 2.0144022113279665E8 ; 2.9818944371370597E9 ; 3.1138712141786236E10 ; 0.0
164 ; 1.735886404540632E7 ; 2.0144578568772548E8 ; 2.999290201710798E9 ; 3.1340152362919033E10 ; 0.0
165 ; 1.73254045131191E7 ; 2.0145133448962536E8 ; 3.016649065756204E9 ; 3.154159814860676E10 ; 0.0
166 ; 1.7286261564261664E7 ; 2.014568673456415E8 ; 3.0339744702693233E9 ; 3.1743049483096382E10 ; 0.0
167 ; 1.7250124853692207E7 ; 2.0146238406513146E8 ; 3.051260731833585E9 ; 3.1944506350442024E10 ; 0.0
168 ; 1.721875502784604E7 ; 2.0146788445961824E8 ; 3.068510856687277E9 ; 3.2145968734507156E10 ; 0.0
169 ; 1.7175851067166056E7 ; 2.0147336834274498E8 ; 3.0857296117151227E9 ; 3.2347436618966774E10 ; 0.0
170 ; 1.7142764601094082E7 ; 2.0147883553023097E8 ; 3.1029054627822886E9 ; 3.254890998730952E10 ; 0.0
171 ; 1.710420991129433E7 ; 2.0148428583982927E8 ; 3.120048227383383E9 ; 3.2750388822839752E10 ; 0.0
172 ; 1.706758669883004E7 ; 2.0148971909128556E8 ; 3.1371524372946773E9 ; 3.295187310867958E10 ; 0.0
173 ; 1.703775714626193E7 ; 2.014951351062984E8 ; 3.1542200239935074E9 ; 3.3153362827770866E10 ; 0.0
174 ; 1.700146705379059E7 ; 2.015005337084807E8 ; 3.1712577811397696E9 ; 3.3354857962877163E10 ; 0.0
175 ; 1.69697513986537E7 ; 2.0150591472332242E8 ; 3.18825924819356E9 ; 3.3556358496585644E10 ; 0.0
176 ; 1.6940658625422057E7 ; 2.0151127797815466E8 ; 3.2052289995922136E9 ; 3.3757864411308968E10 ; 0.0
177 ; 1.690917220105418E7 ; 2.015166233021145E8 ; 3.2221696582176356E9 ; 3.395937568928712E10 ; 0.0
178 ; 1.688193410143925E7 ; 2.0152195052611125E8 ; 3.2390788304186897E9 ; 3.4160892312589233E10 ; 0.0
179 ; 1.6845586306109328E7 ; 2.0152725948279378E8 ; 3.255960764520129E9 ; 3.436241426311534E10 ; 0.0
180 ; 1.681613927512864E7 ; 2.0153255000651878E8 ; 3.2728063508262386E9 ; 3.456394152259814E10 ; 0.0
181 ; 1.678094801713884E7 ; 2.015378219333199E8 ; 3.2896224901013675E9 ; 3.476547407260465E10 ; 0.0
182 ; 1.6751803303733924E7 ; 2.015430751008782E8 ; 3.3064034381185064E9 ; 3.496701189453797E10 ; 0.0
183 ; 1.6722490265480377E7 ; 2.0154830934849325E8 ; 3.3231552414222403E9 ; 3.516855496963885E10 ; 0.0
184 ; 1.6691467066874819E7 ; 2.015535245170551E8 ; 3.339877731687721E9 ; 3.537010327898734E10 ; 0.0
185 ; 1.6657352271310505E7 ; 2.0155872044901744E8 ; 3.3565691987545958E9 ; 3.5571656803504395E10 ; 0.0
186 ; 1.6623813264068965E7 ; 2.0156389698837122E8 ; 3.373226551025906E9 ; 3.5773215523953415E10 ; 0.0
187 ; 1.658956922783096E7 ; 2.015690539806194E8 ; 3.389850364289975E9 ; 3.597477942094179E10 ; 0.0
188 ; 1.656032552407232E7 ; 2.0157419127275223E8 ; 3.406439933517806E9 ; 3.617634847492241E10 ; 0.0
189 ; 1.65304791433105E7 ; 2.015793087132235E8 ; 3.423000259041878E9 ; 3.637792266619516E10 ; 0.0
190 ; 1.6500009574984686E7 ; 2.0158440615192732E8 ; 3.439530738185189E9 ; 3.657950197490839E10 ; 0.0
191 ; 1.6466785878711574E7 ; 2.0158948344017595E8 ; 3.4560307477601733E9 ; 3.678108638106031E10 ; 0.0
192 ; 1.6437721307801006E7 ; 2.0159454043067786E8 ; 3.472497533638885E9 ; 3.698267586450049E10 ; 0.0
193 ; 1.6402835842559932E7 ; 2.0159957697751677E8 ; 3.488935254946686E9 ; 3.718427040493117E10 ; 0.0
194 ; 1.6373037887994098E7 ; 2.016045929361313E8 ; 3.5053380907892456E9 ; 3.738586998190868E10 ; 0.0
195 ; 1.6341663355309673E7 ; 2.016095881632952E8 ; 3.52171112867724E9 ; 3.758747457484482E10 ; 0.0
