CSV File for the City 6 on Day 87
1 - Minute m 
2 - Power Consumed at minute m 
3 - Power Produced at minute m 
4 - Energy Consumed since the beginning of the day 
5 - Energy Produced since the beginning of the day 
6 - Energy Lost since the beginning of the day on lines starting from the city
 
0 ; 1.1174722604535013E7 ; 1.060762870360187E8 ; 0.0 ; 0.0 ; 0.0
1 ; 1.118931242748358E7 ; 1.0622716648434669E8 ; 1.1174722604535013E7 ; 1.060762870360187E8 ; 0.0
2 ; 1.1200947548033623E7 ; 1.0668703841586861E8 ; 2.2364035032018594E7 ; 2.123034535203654E8 ; 0.0
3 ; 1.1216966676209697E7 ; 1.0745590665590262E8 ; 3.356498258005222E7 ; 3.18990491936234E8 ; 0.0
4 ; 1.123390634519936E7 ; 1.0853377463427556E8 ; 4.4781949256261915E7 ; 4.264463985921366E8 ; 0.0
5 ; 1.1253382553975064E7 ; 1.0992064536576033E8 ; 5.601585560146128E7 ; 5.349801732264122E8 ; 0.0
6 ; 1.1281564046268776E7 ; 1.1161652143254182E8 ; 6.726923815543634E7 ; 6.449008185921725E8 ; 0.0
7 ; 1.1311779643787626E7 ; 1.1362140496894467E8 ; 7.855080220170511E7 ; 7.565173400247144E8 ; 0.0
8 ; 1.1368710498054873E7 ; 1.1593529764863253E8 ; 8.986258184549274E7 ; 8.70138744993659E8 ; 0.0
9 ; 1.1449626025386473E7 ; 1.1855820067445761E8 ; 1.0123129234354761E8 ; 9.860740426422915E8 ; 0.0
10 ; 1.1572498108113203E7 ; 1.2149011477110392E8 ; 1.1268091836893408E8 ; 1.104632243316749E9 ; 0.0
11 ; 1.1771015355924446E7 ; 1.2473104018063048E8 ; 1.2425341647704728E8 ; 1.226122358087853E9 ; 0.0
12 ; 1.2088769519522233E7 ; 1.2828097666097823E8 ; 1.3602443183297172E8 ; 1.3508533982684834E9 ; 0.0
13 ; 1.2391826728040319E7 ; 1.3213992348746318E8 ; 1.4811320135249394E8 ; 1.4791343749294617E9 ; 0.0
14 ; 1.2428774883266006E7 ; 1.363078794572332E8 ; 1.6050502808053425E8 ; 1.611274298416925E9 ; 0.0
15 ; 1.2439428563856347E7 ; 1.407848428966245E8 ; 1.7293380296380025E8 ; 1.7475821778741581E9 ; 0.0
16 ; 1.2457524380363733E7 ; 1.455708116713126E8 ; 1.8537323152765658E8 ; 1.8883670207707827E9 ; 0.0
17 ; 1.2470997254097246E7 ; 1.506657831991125E8 ; 1.9783075590802032E8 ; 2.0339378324420953E9 ; 0.0
18 ; 1.248133741982682E7 ; 1.5606975446525133E8 ; 2.1030175316211757E8 ; 2.1846036156412077E9 ; 0.0
19 ; 1.2500169757658884E7 ; 1.6178272203990224E8 ; 2.227830905819444E8 ; 2.340673370106459E9 ; 0.0
20 ; 1.2518564965955649E7 ; 1.6780468209774706E8 ; 2.352832603396033E8 ; 2.5024560921463614E9 ; 0.0
21 ; 1.2528072334433503E7 ; 1.7413563043931237E8 ; 2.4780182530555895E8 ; 2.670260774244108E9 ; 0.0
22 ; 1.2544834046304053E7 ; 1.8077556251381177E8 ; 2.6032989763999245E8 ; 2.8443964046834207E9 ; 0.0
23 ; 1.2557331694186626E7 ; 1.8772447344321668E8 ; 2.728747316862965E8 ; 3.0251719671972322E9 ; 0.0
24 ; 1.2575814216449361E7 ; 1.9498235804727817E8 ; 2.8543206338048315E8 ; 3.212896440640449E9 ; 0.0
25 ; 1.2583454291836806E7 ; 2.012372517674047E8 ; 2.9800787759693253E8 ; 3.407878798687727E9 ; 0.0
26 ; 1.2601644619036505E7 ; 2.012426967296575E8 ; 3.105913318887693E8 ; 3.6091160504551315E9 ; 0.0
27 ; 1.261838768537477E7 ; 2.0124845629589996E8 ; 3.231929765078058E8 ; 3.810358747184789E9 ; 0.0
28 ; 1.2628418499033632E7 ; 2.012545243367219E8 ; 3.358113641931806E8 ; 4.011607203480689E9 ; 0.0
29 ; 1.2644700650430363E7 ; 2.0126089455051887E8 ; 3.4843978269221425E8 ; 4.212861727817411E9 ; 0.0
30 ; 1.265651879086871E7 ; 2.01267560488806E8 ; 3.6108448334264463E8 ; 4.414122622367929E9 ; 0.0
31 ; 1.2672275950443165E7 ; 2.012745155808319E8 ; 3.7374100213351333E8 ; 4.615390182856735E9 ; 0.0
32 ; 1.2682857549032751E7 ; 2.01281753157336E8 ; 3.864132780839565E8 ; 4.816664698437567E9 ; 0.0
33 ; 1.2699689310519539E7 ; 2.012892664733165E8 ; 3.990961356329892E8 ; 5.017946451594903E9 ; 0.0
34 ; 1.2714608810578948E7 ; 2.0129704872969994E8 ; 4.1179582494350874E8 ; 5.219235718068219E9 ; 0.0
35 ; 1.272236414167446E7 ; 2.0130509309382567E8 ; 4.245104337540877E8 ; 5.420532766797919E9 ; 0.0
36 ; 1.273249732057076E7 ; 2.013133927186814E8 ; 4.3723279789576215E8 ; 5.621837859891745E9 ; 0.0
37 ; 1.2743325014571138E7 ; 2.01321940760845E8 ; 4.499652952163329E8 ; 5.823151252610426E9 ; 0.0
38 ; 1.2759728078197362E7 ; 2.013307303971078E8 ; 4.6270862023090404E8 ; 6.024473193371271E9 ; 0.0
39 ; 1.2764207348235585E7 ; 2.0133975483977106E8 ; 4.754683483091014E8 ; 6.225803923768379E9 ; 0.0
40 ; 1.2777715146703683E7 ; 2.013490073506221E8 ; 4.88232555657337E8 ; 6.4271436786081505E9 ; 0.0
41 ; 1.2787948523426544E7 ; 2.0135848125361073E8 ; 5.010102708040407E8 ; 6.628492685958773E9 ; 0.0
42 ; 1.2794313674973711E7 ; 2.0136816994625705E8 ; 5.137982193274672E8 ; 6.829851167212383E9 ; 0.0
43 ; 1.2802257868469726E7 ; 2.0137806690983137E8 ; 5.265925330024409E8 ; 7.03121933715864E9 ; 0.0
44 ; 1.2808224788876807E7 ; 2.0138816571835512E8 ; 5.393947908709106E8 ; 7.232597404068471E9 ; 0.0
45 ; 1.2816078111543735E7 ; 2.013984600464771E8 ; 5.522030156597874E8 ; 7.433985569786826E9 ; 0.0
46 ; 1.2826941391413948E7 ; 2.0140894367628443E8 ; 5.650190937713312E8 ; 7.635384029833303E9 ; 0.0
47 ; 1.2830379828072952E7 ; 2.0141961050311023E8 ; 5.778460351627451E8 ; 7.836792973509588E9 ; 0.0
48 ; 1.2837271046774179E7 ; 2.0143045454040292E8 ; 5.90676414990818E8 ; 8.038212584012698E9 ; 0.0
49 ; 1.2840531699235128E7 ; 2.0144146992372176E8 ; 6.035136860375922E8 ; 8.239643038553102E9 ; 0.0
50 ; 1.2845533901934868E7 ; 2.0145265091392416E8 ; 6.163542177368273E8 ; 8.441084508476823E9 ; 0.0
51 ; 1.2850127966588896E7 ; 2.0146399189960924E8 ; 6.291997516387621E8 ; 8.642537159390747E9 ; 0.0
52 ; 1.2857474625175064E7 ; 2.0147548739888057E8 ; 6.42049879605351E8 ; 8.844001151290356E9 ; 0.0
53 ; 1.2860309167178558E7 ; 2.0148713206048885E8 ; 6.549073542305261E8 ; 9.045476638689236E9 ; 0.0
54 ; 1.2862268556610398E7 ; 2.014989206644138E8 ; 6.677676633977046E8 ; 9.246963770749725E9 ; 0.0
55 ; 1.286777677987572E7 ; 2.015108481219406E8 ; 6.80629931954315E8 ; 9.448462691414139E9 ; 0.0
56 ; 1.287175592336525E7 ; 2.0152290947528446E8 ; 6.934977087341907E8 ; 9.64997353953608E9 ; 0.0
57 ; 1.2872887083906513E7 ; 2.015350998968126E8 ; 7.063694646575559E8 ; 9.851496449011364E9 ; 0.0
58 ; 1.2874778591576902E7 ; 2.0154741468791154E8 ; 7.192423517414625E8 ; 1.0053031548908176E10 ; 0.0
59 ; 1.287609495883176E7 ; 2.0155984927754238E8 ; 7.321171303330394E8 ; 1.0254578963596088E10 ; 0.0
60 ; 1.288155319295922E7 ; 2.015723992205249E8 ; 7.449932252918712E8 ; 1.045613881287363E10 ; 0.0
61 ; 1.2884148804921038E7 ; 2.0158506019558808E8 ; 7.578747784848304E8 ; 1.0657711212094156E10 ; 0.0
62 ; 1.2888700880767513E7 ; 2.0159782800322092E8 ; 7.707589272897514E8 ; 1.0859296272289743E10 ; 0.0
63 ; 1.2889810310551241E7 ; 2.0161069856335557E8 ; 7.836476281705189E8 ; 1.1060894100292965E10 ; 0.0
64 ; 1.2892055755313968E7 ; 2.0162366791291085E8 ; 7.965374384810702E8 ; 1.1262504798856321E10 ; 0.0
65 ; 1.2897630141111854E7 ; 2.0163673220322242E8 ; 8.094294942363842E8 ; 1.1464128466769232E10 ; 0.0
66 ; 1.2899738038089909E7 ; 2.016498876973832E8 ; 8.22327124377496E8 ; 1.1665765198972454E10 ; 0.0
67 ; 1.2901921781248813E7 ; 2.0166313076751482E8 ; 8.352268624155859E8 ; 1.1867415086669838E10 ; 0.0
68 ; 1.2903634327126415E7 ; 2.0167645789198938E8 ; 8.481287841968347E8 ; 1.2069078217437353E10 ; 0.0
69 ; 1.2906457703503352E7 ; 2.0168986565261814E8 ; 8.610324185239611E8 ; 1.2270754675329342E10 ; 0.0
70 ; 1.2909575666314045E7 ; 2.0170335073182234E8 ; 8.739388762274644E8 ; 1.247244454098196E10 ; 0.0
71 ; 1.2907364566204518E7 ; 2.0171690990979928E8 ; 8.868484518937784E8 ; 1.2674147891713783E10 ; 0.0
72 ; 1.2913495218559867E7 ; 2.0173054006169534E8 ; 8.99755816459983E8 ; 1.2875864801623583E10 ; 0.0
73 ; 1.29147017822971E7 ; 2.01744238154796E8 ; 9.126693116785429E8 ; 1.3077595341685278E10 ; 0.0
74 ; 1.2914627361218574E7 ; 2.017580012457421E8 ; 9.2558401346084E8 ; 1.3279339579840075E10 ; 0.0
75 ; 1.2915462004234616E7 ; 2.0177182647777936E8 ; 9.384986408220586E8 ; 1.3481097581085817E10 ; 0.0
76 ; 1.2918249459422003E7 ; 2.0178571107804805E8 ; 9.514141028262932E8 ; 1.3682869407563597E10 ; 0.0
77 ; 1.2919318515451739E7 ; 2.0179965235491854E8 ; 9.643323522857152E8 ; 1.3884655118641645E10 ; 0.0
78 ; 1.2916948275600048E7 ; 2.0181364769537666E8 ; 9.77251670801167E8 ; 1.4086454770996565E10 ; 0.0
79 ; 1.2912901615275085E7 ; 2.0182769456246352E8 ; 9.901686190767671E8 ; 1.4288268418691942E10 ; 0.0
80 ; 1.2909452278561639E7 ; 2.0184179049277216E8 ; 1.0030815206920421E9 ; 1.4490096113254406E10 ; 0.0
81 ; 1.2908412356088832E7 ; 2.0185593309400392E8 ; 1.0159909729706037E9 ; 1.4691937903747179E10 ; 0.0
82 ; 1.290467501168129E7 ; 2.0187012004258636E8 ; 1.0288993853266926E9 ; 1.4893793836841183E10 ; 0.0
83 ; 1.2902266238480465E7 ; 2.01884349081354E8 ; 1.0418040603383739E9 ; 1.509566395688377E10 ; 0.0
84 ; 1.2897773402946053E7 ; 2.0189861801729265E8 ; 1.0547063265768543E9 ; 1.5297548305965124E10 ; 0.0
85 ; 1.2894715660643278E7 ; 2.019129247193484E8 ; 1.0676040999798003E9 ; 1.5499446923982416E10 ; 0.0
86 ; 1.2891652985165097E7 ; 2.0192726711630094E8 ; 1.0804988156404436E9 ; 1.5701359848701765E10 ; 0.0
87 ; 1.2888083483996684E7 ; 2.0194164319470116E8 ; 1.0933904686256087E9 ; 1.5903287115818066E10 ; 0.0
88 ; 1.2882242597450186E7 ; 2.0195605099687314E8 ; 1.1062785521096053E9 ; 1.6105228759012766E10 ; 0.0
89 ; 1.2879770168300891E7 ; 2.0197048861897925E8 ; 1.1191607947070556E9 ; 1.630718481000964E10 ; 0.0
90 ; 1.2878898183890646E7 ; 2.0198495420914814E8 ; 1.1320405648753564E9 ; 1.6509155298628618E10 ; 0.0
91 ; 1.2871263626798056E7 ; 2.0199944596566457E8 ; 1.144919463059247E9 ; 1.6711140252837767E10 ; 0.0
92 ; 1.2867638721347617E7 ; 2.0201396213521948E8 ; 1.1577907266860452E9 ; 1.691313969880343E10 ; 0.0
93 ; 1.2863403265133193E7 ; 2.020285010112202E8 ; 1.1706583654073927E9 ; 1.711515366093865E10 ; 0.0
94 ; 1.2857712428885112E7 ; 2.0204306093215817E8 ; 1.183521768672526E9 ; 1.731718216194987E10 ; 0.0
95 ; 1.2853234634526988E7 ; 2.0205764028003418E8 ; 1.196379481101411E9 ; 1.751922522288203E10 ; 0.0
96 ; 1.285171534223298E7 ; 2.020722374788385E8 ; 1.209232715735938E9 ; 1.7721282863162064E10 ; 0.0
97 ; 1.2841928194756301E7 ; 2.0208685099308547E8 ; 1.222084431078171E9 ; 1.7923355100640903E10 ; 0.0
98 ; 1.2836943838173164E7 ; 2.021014793264003E8 ; 1.2349263592729273E9 ; 1.8125441951633987E10 ; 0.0
99 ; 1.2835506250379862E7 ; 2.02116121020157E8 ; 1.2477633031111004E9 ; 1.832754343096039E10 ; 0.0
100 ; 1.2830734619301666E7 ; 2.0213077465216586E8 ; 1.2605988093614802E9 ; 1.8529659551980545E10 ; 0.0
101 ; 1.2821094806064056E7 ; 2.021454388354089E8 ; 1.2734295439807818E9 ; 1.873179032663271E10 ; 0.0
102 ; 1.2818680191048605E7 ; 2.021601122168216E8 ; 1.286250638786846E9 ; 1.8933935765468117E10 ; 0.0
103 ; 1.281084993143519E7 ; 2.021747934761201E8 ; 1.2990693189778945E9 ; 1.9136095877684937E10 ; 0.0
104 ; 1.2807143742368547E7 ; 2.0218948132467127E8 ; 1.3118801689093297E9 ; 1.9338270671161057E10 ; 0.0
105 ; 1.2802739012438517E7 ; 2.0220417450440526E8 ; 1.324687312651698E9 ; 1.954046015248573E10 ; 0.0
106 ; 1.2798310153523037E7 ; 2.0221887178676856E8 ; 1.3374900516641366E9 ; 1.9742664326990135E10 ; 0.0
107 ; 1.2788552692649728E7 ; 2.0223357197171605E8 ; 1.3502883618176596E9 ; 1.9944883198776905E10 ; 0.0
108 ; 1.2784016268085768E7 ; 2.0224827388674113E8 ; 1.3630769145103095E9 ; 2.0147116770748623E10 ; 0.0
109 ; 1.2778753305073846E7 ; 2.0226297638594204E8 ; 1.3758609307783952E9 ; 2.0349365044635365E10 ; 0.0
110 ; 1.2773882563641153E7 ; 2.022776783491235E8 ; 1.388639684083469E9 ; 2.0551628021021305E10 ; 0.0
111 ; 1.2765591533540182E7 ; 2.022923786809321E8 ; 1.40141356664711E9 ; 2.075390569937043E10 ; 0.0
112 ; 1.2759885511982461E7 ; 2.023070763100243E8 ; 1.4141791581806502E9 ; 2.095619807805136E10 ; 0.0
113 ; 1.2752565990725404E7 ; 2.0232177018826583E8 ; 1.4269390436926327E9 ; 2.1158505154361385E10 ; 0.0
114 ; 1.2745430620706022E7 ; 2.0233645928996134E8 ; 1.4396916096833582E9 ; 2.1360826924549652E10 ; 0.0
115 ; 1.2733237396323333E7 ; 2.0235114261111307E8 ; 1.4524370403040643E9 ; 2.1563163383839615E10 ; 0.0
116 ; 1.2732436878515178E7 ; 2.0236581916870752E8 ; 1.4651702777003877E9 ; 2.176551452645073E10 ; 0.0
117 ; 1.2721169302257396E7 ; 2.02380488000029E8 ; 1.477902714578903E9 ; 2.196788034561944E10 ; 0.0
118 ; 1.2718977876632433E7 ; 2.023951481619991E8 ; 1.4906238838811603E9 ; 2.217026083361947E10 ; 0.0
119 ; 1.270691854497082E7 ; 2.0240979873054105E8 ; 1.5033428617577927E9 ; 2.2372655981781467E10 ; 0.0
120 ; 1.2701131641468767E7 ; 2.024244387999679E8 ; 1.5160497803027635E9 ; 2.257506578051201E10 ; 0.0
121 ; 1.269372817027662E7 ; 2.0243906748239386E8 ; 1.5287509119442322E9 ; 2.2777490219311977E10 ; 0.0
122 ; 1.2689945380882947E7 ; 2.0245368390716752E8 ; 1.5414446401145089E9 ; 2.2979929286794373E10 ; 0.0
123 ; 1.2678087842308352E7 ; 2.024682872203266E8 ; 1.5541345854953918E9 ; 2.318238297070154E10 ; 0.0
124 ; 1.2671115222155355E7 ; 2.0248287658407286E8 ; 1.5668126733377001E9 ; 2.3384851257921867E10 ; 0.0
125 ; 1.2664090238422146E7 ; 2.024974511762668E8 ; 1.5794837885598555E9 ; 2.358733413450594E10 ; 0.0
126 ; 1.2655538201194873E7 ; 2.0251201018994105E8 ; 1.5921478787982776E9 ; 2.3789831585682205E10 ; 0.0
127 ; 1.264235364862033E7 ; 2.0252655283283207E8 ; 1.6048034169994724E9 ; 2.3992343595872147E10 ; 0.0
128 ; 1.2635524457873758E7 ; 2.0254107832692915E8 ; 1.6174457706480927E9 ; 2.419487014870498E10 ; 0.0
129 ; 1.2628083652781576E7 ; 2.0255558590804005E8 ; 1.6300812951059666E9 ; 2.439741122703191E10 ; 0.0
130 ; 1.2624903663482482E7 ; 2.0257007482537284E8 ; 1.642709378758748E9 ; 2.459996681293995E10 ; 0.0
131 ; 1.2610995543246597E7 ; 2.025845443411332E8 ; 1.6553342824222305E9 ; 2.4802536887765324E10 ; 0.0
132 ; 1.2595317982659955E7 ; 2.0259899373013648E8 ; 1.667945277965477E9 ; 2.5005121432106457E10 ; 0.0
133 ; 1.258427926483335E7 ; 2.0261342227943394E8 ; 1.680540595948137E9 ; 2.5207720425836594E10 ; 0.0
134 ; 1.2571859191977294E7 ; 2.026278292879528E8 ; 1.6931248752129705E9 ; 2.5410333848116028E10 ; 0.0
135 ; 1.2551406483759135E7 ; 2.026422140661496E8 ; 1.7056967344049478E9 ; 2.561296167740398E10 ; 0.0
136 ; 1.2545111960932747E7 ; 2.026565759356757E8 ; 1.718248140888707E9 ; 2.581560389147013E10 ; 0.0
137 ; 1.2530267005495518E7 ; 2.0267091422905573E8 ; 1.7307932528496397E9 ; 2.6018260467405807E10 ; 0.0
138 ; 1.251790757160809E7 ; 2.0268522828937674E8 ; 1.7433235198551352E9 ; 2.6220931381634865E10 ; 0.0
139 ; 1.2505799093284067E7 ; 2.0269951746998957E8 ; 1.7558414274267433E9 ; 2.642361660992424E10 ; 0.0
140 ; 1.2491654425394593E7 ; 2.0271378113422015E8 ; 1.7683472265200274E9 ; 2.662631612739423E10 ; 0.0
141 ; 1.2478652464824365E7 ; 2.027280186550919E8 ; 1.780838880945422E9 ; 2.682902990852845E10 ; 0.0
142 ; 1.2467696796067815E7 ; 2.0274222941505757E8 ; 1.7933175334102464E9 ; 2.703175792718354E10 ; 0.0
143 ; 1.2450787492523376E7 ; 2.027564128057408E8 ; 1.805785230206314E9 ; 2.72345001565986E10 ; 0.0
144 ; 1.2436531403247599E7 ; 2.0277056822768718E8 ; 1.8182360176988375E9 ; 2.743725656940434E10 ; 0.0
145 ; 1.2424667508013705E7 ; 2.0278469509012377E8 ; 1.830672549102085E9 ; 2.7640027137632027E10 ; 0.0
146 ; 1.241822499285946E7 ; 2.0279879281072736E8 ; 1.8430972166100988E9 ; 2.784281183272215E10 ; 0.0
147 ; 1.2410741094069874E7 ; 2.0281286081540093E8 ; 1.8555154416029582E9 ; 2.8045610625532875E10 ; 0.0
148 ; 1.2400193331259076E7 ; 2.0282689853805792E8 ; 1.8679261826970282E9 ; 2.8248423486348274E10 ; 0.0
149 ; 1.2389915649911258E7 ; 2.0284090542041412E8 ; 1.8803263760282872E9 ; 2.8451250384886333E10 ; 0.0
150 ; 1.2382819302203337E7 ; 2.0285488091178676E8 ; 1.8927162916781983E9 ; 2.8654091290306747E10 ; 0.0
151 ; 1.237131210291409E7 ; 2.0286882446890086E8 ; 1.9050991109804018E9 ; 2.8856946171218533E10 ; 0.0
152 ; 1.2360693472290011E7 ; 2.0288273555570203E8 ; 1.9174704230833158E9 ; 2.9059814995687435E10 ; 0.0
153 ; 1.235458462313117E7 ; 2.0289661364317602E8 ; 1.929831116555606E9 ; 2.9262697731243137E10 ; 0.0
154 ; 1.2342692257611044E7 ; 2.029104582091743E8 ; 1.9421857011787372E9 ; 2.9465594344886314E10 ; 0.0
155 ; 1.2331770028402854E7 ; 2.029242687382459E8 ; 1.9545283934363482E9 ; 2.966850480309549E10 ; 0.0
156 ; 1.232289293399198E7 ; 2.0293804472147474E8 ; 1.966860163464751E9 ; 2.9871429071833736E10 ; 0.0
157 ; 1.2315435348157743E7 ; 2.0295178565632284E8 ; 1.979183056398743E9 ; 3.007436711655521E10 ; 0.0
158 ; 1.2303628436139997E7 ; 2.029654910464788E8 ; 1.9914984917469006E9 ; 3.0277318902211533E10 ; 0.0
159 ; 1.2295784260711359E7 ; 2.029791604017113E8 ; 2.0038021201830406E9 ; 3.048028439325801E10 ; 0.0
160 ; 1.2288613598333538E7 ; 2.0299279323772764E8 ; 2.016097904443752E9 ; 3.068326355365972E10 ; 0.0
161 ; 1.2272264599738324E7 ; 2.0300638907603747E8 ; 2.0283865180420856E9 ; 3.088625634689745E10 ; 0.0
162 ; 1.2263599670376044E7 ; 2.0301994744382033E8 ; 2.040658782641824E9 ; 3.1089262735973488E10 ; 0.0
163 ; 1.2256663272475785E7 ; 2.030334678737985E8 ; 2.0529223823122E9 ; 3.129228268341731E10 ; 0.0
164 ; 1.224715395589876E7 ; 2.030469499041135E8 ; 2.0651790455846758E9 ; 3.1495316151291107E10 ; 0.0
165 ; 1.223748783069165E7 ; 2.0306039307820708E8 ; 2.0774261995405746E9 ; 3.169836310119522E10 ; 0.0
166 ; 1.222471293928218E7 ; 2.0307379694470608E8 ; 2.0896636873712661E9 ; 3.190142349427343E10 ; 0.0
167 ; 1.2217412179685505E7 ; 2.0308716105731103E8 ; 2.1018884003105483E9 ; 3.2104497291218136E10 ; 0.0
168 ; 1.2201304541093789E7 ; 2.0310048497468868E8 ; 2.114105812490234E9 ; 3.2307584452275448E10 ; 0.0
169 ; 1.2191034725462008E7 ; 2.0311376826036784E8 ; 2.1263071170313277E9 ; 3.2510684937250137E10 ; 0.0
170 ; 1.2186443267424082E7 ; 2.0312701048263884E8 ; 2.1384981517567897E9 ; 3.2713798705510506E10 ; 0.0
171 ; 1.2173536890643178E7 ; 2.0314021121445614E8 ; 2.150684595024214E9 ; 3.2916925715993145E10 ; 0.0
172 ; 1.2163523139190588E7 ; 2.0315337003334445E8 ; 2.162858131914857E9 ; 3.31200659272076E10 ; 0.0
173 ; 1.2157098282657355E7 ; 2.031664865213075E8 ; 2.1750216550540476E9 ; 3.3323219297240944E10 ; 0.0
174 ; 1.2148623347362678E7 ; 2.0317956026474005E8 ; 2.1871787533367047E9 ; 3.3526385783762253E10 ; 0.0
175 ; 1.2143760466130415E7 ; 2.0319259085434282E8 ; 2.1993273766840672E9 ; 3.3729565344026993E10 ; 0.0
176 ; 1.2134813670316055E7 ; 2.0320557788504E8 ; 2.2114711371501975E9 ; 3.3932757934881336E10 ; 0.0
177 ; 1.2129617494739259E7 ; 2.0321852095589957E8 ; 2.2236059508205137E9 ; 3.4135963512766376E10 ; 0.0
178 ; 1.2122847121561185E7 ; 2.0323141967005607E8 ; 2.235735568315253E9 ; 3.4339182033722275E10 ; 0.0
179 ; 1.211652480361624E7 ; 2.0324427363463607E8 ; 2.247858415436814E9 ; 3.4542413453392334E10 ; 0.0
180 ; 1.2109393344426114E7 ; 2.032570824606858E8 ; 2.25997494024043E9 ; 3.474565772702697E10 ; 0.0
181 ; 1.2104664372658703E7 ; 2.0326984576310116E8 ; 2.272084333584856E9 ; 3.4948914809487656E10 ; 0.0
182 ; 1.2098116575849328E7 ; 2.0328256316056022E8 ; 2.284188997957515E9 ; 3.5152184655250755E10 ; 0.0
183 ; 1.2091574199740622E7 ; 2.0329523427545747E8 ; 2.2962871145333643E9 ; 3.5355467218411316E10 ; 0.0
184 ; 1.2086385130511438E7 ; 2.0330785873384053E8 ; 2.3083786887331047E9 ; 3.5558762452686775E10 ; 0.0
185 ; 1.2077693453339027E7 ; 2.033204361653485E8 ; 2.320465073863616E9 ; 3.5762070311420616E10 ; 0.0
186 ; 1.2073872664107917E7 ; 2.0333296620315272E8 ; 2.332542767316955E9 ; 3.596539074758597E10 ; 0.0
187 ; 1.2063389645285085E7 ; 2.03345448483899E8 ; 2.344616639981063E9 ; 3.616872371378912E10 ; 0.0
188 ; 1.2061285370724084E7 ; 2.0335788264765185E8 ; 2.356680029626348E9 ; 3.6372069162273026E10 ; 0.0
189 ; 1.2053623756287215E7 ; 2.033702683378405E8 ; 2.368741314997072E9 ; 3.657542704492068E10 ; 0.0
190 ; 1.2046597324432286E7 ; 2.0338260520120656E8 ; 2.3807949387533593E9 ; 3.6778797313258514E10 ; 0.0
191 ; 1.2044114226882543E7 ; 2.0339489288775322E8 ; 2.3928415360777917E9 ; 3.6982179918459724E10 ; 0.0
192 ; 1.2034402144712573E7 ; 2.034071310506963E8 ; 2.404885650304674E9 ; 3.718557481134748E10 ; 0.0
193 ; 1.2029074292109855E7 ; 2.0341931934641656E8 ; 2.4169200524493866E9 ; 3.738898194239818E10 ; 0.0
194 ; 1.2019730557933189E7 ; 2.0343145743441367E8 ; 2.4289491267414966E9 ; 3.75924012617446E10 ; 0.0
195 ; 1.2014898440503009E7 ; 2.0344354497726154E8 ; 2.44096885729943E9 ; 3.779583271917901E10 ; 0.0
