CSV File for the City 3 on Day 310
1 - Minute m 
2 - Power Consumed at minute m 
3 - Power Produced at minute m 
4 - Energy Consumed since the beginning of the day 
5 - Energy Produced since the beginning of the day 
6 - Energy Lost since the beginning of the day on lines starting from the city
 
0 ; 2412834.3256408093 ; 1.057992050821602E8 ; 0.0 ; 0.0 ; 0.0
1 ; 2413995.468144386 ; 1.0595205201801193E8 ; 2412834.3256408093 ; 1.057992050821602E8 ; 0.0
2 ; 2416723.638558527 ; 1.0641369288992694E8 ; 4826829.793785196 ; 2.1175125710017213E8 ; 0.0
3 ; 2420284.579907879 ; 1.0718412874969107E8 ; 7243553.432343723 ; 3.181649499900991E8 ; 0.0
4 ; 2423820.6402635295 ; 1.0826336053450662E8 ; 9663838.012251602 ; 4.2534907873979014E8 ; 0.0
5 ; 2427647.4388982533 ; 1.0965138906365085E8 ; 1.2087658652515132E7 ; 5.3361243927429676E8 ; 0.0
6 ; 2434452.9727526675 ; 1.1134821503551933E8 ; 1.4515306091413386E7 ; 6.432638283379476E8 ; 0.0
7 ; 2443167.377034689 ; 1.1335383902507985E8 ; 1.6949759064166054E7 ; 7.54612043373467E8 ; 0.0
8 ; 2453567.079052377 ; 1.1566826148175812E8 ; 1.9392926441200744E7 ; 8.679658823985468E8 ; 0.0
9 ; 2470665.6138184248 ; 1.182914827277739E8 ; 2.184649352025312E7 ; 9.836341438803049E8 ; 0.0
10 ; 2495966.9450365547 ; 1.212235029569416E8 ; 2.4317159134071548E7 ; 1.101925626608079E9 ; 0.0
11 ; 2538751.1007424183 ; 1.2446432223394677E8 ; 2.6813126079108104E7 ; 1.2231491295650206E9 ; 0.0
12 ; 2605614.3845974533 ; 1.2801394049410382E8 ; 2.9351877179850522E7 ; 1.3476134517989674E9 ; 0.0
13 ; 2667130.510279779 ; 1.3187235754359835E8 ; 3.1957491564447977E7 ; 1.4756273922930713E9 ; 0.0
14 ; 2676939.320962633 ; 1.360395730602107E8 ; 3.462462207472776E7 ; 1.6074997498366697E9 ; 0.0
15 ; 2679539.8463880103 ; 1.4051558659451503E8 ; 3.730156139569039E7 ; 1.7435393228968804E9 ; 0.0
16 ; 2682592.3192176055 ; 1.4530039757154366E8 ; 3.99811012420784E7 ; 1.8840549094913955E9 ; 0.0
17 ; 2685256.007141218 ; 1.5039400529290095E8 ; 4.266369356129601E7 ; 2.0293553070629392E9 ; 0.0
18 ; 2689674.4078677166 ; 1.5579640893930966E8 ; 4.5348949568437226E7 ; 2.17974931235584E9 ; 0.0
19 ; 2690757.4007514315 ; 1.6150760757356748E8 ; 4.803862397630494E7 ; 2.33554572129515E9 ; 0.0
20 ; 2694081.4598731445 ; 1.6752760014388856E8 ; 5.0729381377056375E7 ; 2.497053328868717E9 ; 0.0
21 ; 2698637.612060056 ; 1.7385638548760256E8 ; 5.342346283692952E7 ; 2.6645809290126057E9 ; 0.0
22 ; 2702768.595916547 ; 1.804939623351813E8 ; 5.612210044898958E7 ; 2.8384373145002084E9 ; 0.0
23 ; 2705840.5906060697 ; 1.874403293145609E8 ; 5.8824869044906124E7 ; 3.0189312768353896E9 ; 0.0
24 ; 2708320.0281014726 ; 1.946954849557253E8 ; 6.1530709635512196E7 ; 3.2063716061499505E9 ; 0.0
25 ; 2712114.3086404637 ; 2.0094746859370145E8 ; 6.423902966361367E7 ; 3.4010670911056757E9 ; 0.0
26 ; 2715169.5282463985 ; 2.009498264104582E8 ; 6.6951143972254135E7 ; 3.602014559699377E9 ; 0.0
27 ; 2717336.610134921 ; 2.0095232596497002E8 ; 6.966631350050053E7 ; 3.802964386109835E9 ; 0.0
28 ; 2720909.5054465956 ; 2.0095496544527113E8 ; 7.238365011063544E7 ; 4.0039167120748053E9 ; 0.0
29 ; 2724307.74588359 ; 2.009577429670701E8 ; 7.510455961608204E7 ; 4.2048716775200763E9 ; 0.0
30 ; 2726927.9053806434 ; 2.009606565791727E8 ; 7.782886736196563E7 ; 4.405829420487146E9 ; 0.0
31 ; 2730745.058739349 ; 2.0096370426892626E8 ; 8.055579526734626E7 ; 4.606790077066319E9 ; 0.0
32 ; 2734210.988385762 ; 2.0096688396765488E8 ; 8.328654032608561E7 ; 4.807753781335246E9 ; 0.0
33 ; 2735656.4450851977 ; 2.0097019355605644E8 ; 8.602075131447138E7 ; 5.008720665302901E9 ; 0.0
34 ; 2739693.3608044717 ; 2.0097363086953464E8 ; 8.875640775955658E7 ; 5.209690858858957E9 ; 0.0
35 ; 2742607.7793137985 ; 2.0097719370344132E8 ; 9.149610112036105E7 ; 5.410664489728492E9 ; 0.0
36 ; 2745977.366741131 ; 2.0098087981820637E8 ; 9.423870889967485E7 ; 5.611641683431933E9 ; 0.0
37 ; 2748739.5018621 ; 2.0098468694433516E8 ; 9.698468626641598E7 ; 5.81262256325014E9 ; 0.0
38 ; 2751764.6302866954 ; 2.0098861278725582E8 ; 9.973342576827808E7 ; 6.013607250194475E9 ; 0.0
39 ; 2753315.434402486 ; 2.0099265503200045E8 ; 1.0248519039856477E8 ; 6.214595862981731E9 ; 0.0
40 ; 2754802.8052917337 ; 2.009968113477073E8 ; 1.0523850583296725E8 ; 6.415588518013732E9 ; 0.0
41 ; 2756288.8382435045 ; 2.0100107939193317E8 ; 1.0799330863825898E8 ; 6.61658532936144E9 ; 0.0
42 ; 2758722.6628171066 ; 2.010054568147668E8 ; 1.1074959747650248E8 ; 6.817586408753373E9 ; 0.0
43 ; 2759700.087064943 ; 2.0100994126273698E8 ; 1.1350832013931958E8 ; 7.01859186556814E9 ; 0.0
44 ; 2757682.0957347346 ; 2.0101453038251045E8 ; 1.1626802022638452E8 ; 7.219601806830877E9 ; 0.0
45 ; 2758360.9856396103 ; 2.0101922182437652E8 ; 1.1902570232211925E8 ; 7.4206163372133875E9 ; 0.0
46 ; 2756391.1455203407 ; 2.0102401324551743E8 ; 1.2178406330775887E8 ; 7.621635559037764E9 ; 0.0
47 ; 2754957.4411910046 ; 2.010289023130646E8 ; 1.2454045445327921E8 ; 7.822659572283281E9 ; 0.0
48 ; 2752247.446516657 ; 2.0103388670694232E8 ; 1.2729541189447021E8 ; 8.023688474596346E9 ; 0.0
49 ; 2751779.363291404 ; 2.0103896412250194E8 ; 1.3004765934098688E8 ; 8.224722361303288E9 ; 0.0
50 ; 2750990.262057597 ; 2.0104413227295053E8 ; 1.3279943870427828E8 ; 8.425761325425791E9 ; 0.0
51 ; 2747287.223009701 ; 2.0104938889157888E8 ; 1.3555042896633586E8 ; 8.626805457698742E9 ; 0.0
52 ; 2745826.537720513 ; 2.0105473173379475E8 ; 1.3829771618934557E8 ; 8.82785484659032E9 ; 0.0
53 ; 2742855.9319359795 ; 2.0106015857896733E8 ; 1.4104354272706607E8 ; 9.028909578324116E9 ; 0.0
54 ; 2741517.3176510483 ; 2.0106566723209083E8 ; 1.4378639865900204E8 ; 9.229969736903084E9 ; 0.0
55 ; 2738276.439325702 ; 2.0107125552527347E8 ; 1.465279159766531E8 ; 9.431035404135174E9 ; 0.0
56 ; 2737545.797980502 ; 2.0107692131906056E8 ; 1.492661924159788E8 ; 9.632106659660448E9 ; 0.0
57 ; 2734819.4057943746 ; 2.010826625035993E8 ; 1.5200373821395928E8 ; 9.83318358097951E9 ; 0.0
58 ; 2733044.943591431 ; 2.0108847699965337E8 ; 1.5473855761975366E8 ; 1.0034266243483109E10 ; 0.0
59 ; 2728262.513648768 ; 2.0109436275947592E8 ; 1.5747160256334507E8 ; 1.0235354720482761E10 ; 0.0
60 ; 2729045.9773371997 ; 2.011003177675485E8 ; 1.6019986507699385E8 ; 1.0436449083242237E10 ; 0.0
61 ; 2726684.4550532177 ; 2.0110634004119518E8 ; 1.6292891105433106E8 ; 1.0637549401009785E10 ; 0.0
62 ; 2725098.9915863997 ; 2.0111242763107866E8 ; 1.6565559550938427E8 ; 1.083865574105098E10 ; 0.0
63 ; 2720843.093832796 ; 2.0111857862158743E8 ; 1.6838069450097066E8 ; 1.1039768168682058E10 ; 0.0
64 ; 2719469.967405028 ; 2.0112479113112074E8 ; 1.7110153759480345E8 ; 1.1240886747303646E10 ; 0.0
65 ; 2715058.3713621926 ; 2.011310633122797E8 ; 1.7382100756220847E8 ; 1.1442011538434767E10 ; 0.0
66 ; 2714655.3847917123 ; 2.011373933519711E8 ; 1.7653606593357065E8 ; 1.1643142601747047E10 ; 0.0
67 ; 2712609.4053334836 ; 2.0114377947143093E8 ; 1.7925072131836236E8 ; 1.1844279995099018E10 ; 0.0
68 ; 2710790.7702203738 ; 2.01150219926175E8 ; 1.8196333072369584E8 ; 1.204542377457045E10 ; 0.0
69 ; 2709642.1569678485 ; 2.0115671300588197E8 ; 1.846741214939162E8 ; 1.2246573994496624E10 ; 0.0
70 ; 2706026.979820645 ; 2.0116325703421557E8 ; 1.8738376365088406E8 ; 1.2447730707502506E10 ; 0.0
71 ; 2703897.9087431347 ; 2.0116985036859143E8 ; 1.900897906307047E8 ; 1.2648893964536722E10 ; 0.0
72 ; 2701726.8987518125 ; 2.0117649139989403E8 ; 1.9279368853944784E8 ; 1.2850063814905313E10 ; 0.0
73 ; 2699575.348023679 ; 2.0118317855214906E8 ; 1.9549541543819967E8 ; 1.3051240306305208E10 ; 0.0
74 ; 2695154.2684485316 ; 2.0118991028215542E8 ; 1.9819499078622335E8 ; 1.3252423484857357E10 ; 0.0
75 ; 2694883.367624662 ; 2.0119668507908213E8 ; 2.0089014505467188E8 ; 1.3453613395139513E10 ; 0.0
76 ; 2692370.354742627 ; 2.012035014640337E8 ; 2.0358502842229655E8 ; 1.3654810080218596E10 ; 0.0
77 ; 2687864.7101992 ; 2.012103579895883E8 ; 2.0627739877703917E8 ; 1.3856013581682629E10 ; 0.0
78 ; 2684928.5509820576 ; 2.0121725323931217E8 ; 2.0896526348723838E8 ; 1.4057223939672216E10 ; 0.0
79 ; 2683354.5598264495 ; 2.0122418582725376E8 ; 2.1165019203822044E8 ; 1.425844119291153E10 ; 0.0
80 ; 2679437.2805382065 ; 2.0123115439742064E8 ; 2.143335465980469E8 ; 1.4459665378738783E10 ; 0.0
81 ; 2676720.246199862 ; 2.0123815762324208E8 ; 2.170129838785851E8 ; 1.4660896533136204E10 ; 0.0
82 ; 2672090.8165622973 ; 2.0124519420702013E8 ; 2.1968970412478498E8 ; 1.4862134690759445E10 ; 0.0
83 ; 2669571.8271757243 ; 2.0125226287937137E8 ; 2.2236179494134727E8 ; 1.5063379884966465E10 ; 0.0
84 ; 2666013.076593221 ; 2.0125936239866164E8 ; 2.25031366768523E8 ; 1.5264632147845837E10 ; 0.0
85 ; 2660305.759556297 ; 2.0126649155043623E8 ; 2.2769737984511623E8 ; 1.54658915102445E10 ; 0.0
86 ; 2657760.848242418 ; 2.0127364914684638E8 ; 2.3035768560467252E8 ; 1.5667158001794935E10 ; 0.0
87 ; 2654937.802137747 ; 2.0128083402607518E8 ; 2.3301544645291495E8 ; 1.5868431650941782E10 ; 0.0
88 ; 2651078.1555498377 ; 2.0128804505176288E8 ; 2.356703842550527E8 ; 1.6069712484967857E10 ; 0.0
89 ; 2646563.207453548 ; 2.0129528111243427E8 ; 2.383214624106025E8 ; 1.627100053001962E10 ; 0.0
90 ; 2643819.049988691 ; 2.0130254112092865E8 ; 2.4096802561805606E8 ; 1.6472295811132055E10 ; 0.0
91 ; 2638762.9870997495 ; 2.0130982401383358E8 ; 2.4361184466804475E8 ; 1.6673598352252983E10 ; 0.0
92 ; 2636378.572169754 ; 2.013171287509238E8 ; 2.4625060765514448E8 ; 1.6874908176266817E10 ; 0.0
93 ; 2633850.2544950466 ; 2.013244543146056E8 ; 2.4888698622731423E8 ; 1.707622530501774E10 ; 0.0
94 ; 2627945.150361306 ; 2.0133179970936784E8 ; 2.515208364818093E8 ; 1.7277549759332344E10 ; 0.0
95 ; 2626015.379881345 ; 2.013391639612402E8 ; 2.541487816321706E8 ; 1.7478881559041714E10 ; 0.0
96 ; 2623325.526942528 ; 2.0134654611725935E8 ; 2.5677479701205194E8 ; 1.7680220723002953E10 ; 0.0
97 ; 2617107.8037092597 ; 2.0135394524494302E8 ; 2.5939812253899446E8 ; 1.7881567269120213E10 ; 0.0
98 ; 2612168.291065175 ; 2.0136136043177336E8 ; 2.6201523034270373E8 ; 1.8082921214365154E10 ; 0.0
99 ; 2610129.051914705 ; 2.0136879078468898E8 ; 2.6462739863376892E8 ; 1.828428257479693E10 ; 0.0
100 ; 2608215.180298441 ; 2.013762354295866E8 ; 2.672375276856836E8 ; 1.848565136558162E10 ; 0.0
101 ; 2603937.833899377 ; 2.013836935108324E8 ; 2.6984574286598206E8 ; 1.8687027601011208E10 ; 0.0
102 ; 2598649.043265244 ; 2.013911641907831E8 ; 2.7244968069988143E8 ; 1.888841129452204E10 ; 0.0
103 ; 2594106.4783612234 ; 2.0139864664931732E8 ; 2.7504832974314666E8 ; 1.9089802458712826E10 ; 0.0
104 ; 2589569.348765056 ; 2.0140614008337674E8 ; 2.776424362215079E8 ; 1.9291201105362144E10 ; 0.0
105 ; 2586777.6132223713 ; 2.0141364370651767E8 ; 2.80232005570273E8 ; 1.9492607245445522E10 ; 0.0
106 ; 2582853.6196676088 ; 2.0142115674847296E8 ; 2.8281878318349534E8 ; 1.969402088915204E10 ; 0.0
107 ; 2578698.506440289 ; 2.014286784547239E8 ; 2.8540163680316293E8 ; 1.9895442045900513E10 ; 0.0
108 ; 2576108.47106477 ; 2.0143620808608255E8 ; 2.879803353096032E8 ; 2.0096870724355236E10 ; 0.0
109 ; 2570941.286200768 ; 2.0144374491828415E8 ; 2.9055644378066796E8 ; 2.029830693244132E10 ; 0.0
110 ; 2567113.9634677656 ; 2.0145128824158975E8 ; 2.931273850668687E8 ; 2.0499750677359604E10 ; 0.0
111 ; 2563393.1172251743 ; 2.0145883736039886E8 ; 2.956944990303365E8 ; 2.0701201965601192E10 ; 0.0
112 ; 2559679.738081517 ; 2.0146639159287181E8 ; 2.9825789214756167E8 ; 2.090266080296159E10 ; 0.0
113 ; 2555003.94612228 ; 2.0147395027056226E8 ; 3.008175718856432E8 ; 2.1104127194554462E10 ; 0.0
114 ; 2550522.4935581195 ; 2.0148151273805922E8 ; 3.033725758317655E8 ; 2.1305601144825024E10 ; 0.0
115 ; 2547140.5974577516 ; 2.0148907835263848E8 ; 3.059230983253236E8 ; 2.1507082657563084E10 ; 0.0
116 ; 2542454.475111116 ; 2.0149664648392367E8 ; 3.0847023892278135E8 ; 2.170857173591572E10 ; 0.0
117 ; 2538667.60884972 ; 2.0150421651355642E8 ; 3.110126933978925E8 ; 2.1910068382399647E10 ; 0.0
118 ; 2535161.0732471747 ; 2.015117878348755E8 ; 3.135513610067422E8 ; 2.2111572598913204E10 ; 0.0
119 ; 2530905.382378157 ; 2.0151935985260496E8 ; 3.160865220799894E8 ; 2.231308438674808E10 ; 0.0
120 ; 2526050.743680883 ; 2.015269319825509E8 ; 3.1861742746236753E8 ; 2.2514603746600685E10 ; 0.0
121 ; 2519264.993037691 ; 2.0153450365130678E8 ; 3.211434782060484E8 ; 2.2716130678583237E10 ; 0.0
122 ; 2517160.2442328106 ; 2.015420742959672E8 ; 3.236627431990861E8 ; 2.2917665182234543E10 ; 0.0
123 ; 2513079.666015107 ; 2.0154964336384943E8 ; 3.2617990344331896E8 ; 2.311920725653051E10 ; 0.0
124 ; 2508562.7008961677 ; 2.0155721031222337E8 ; 3.2869298310933405E8 ; 2.332075689989436E10 ; 0.0
125 ; 2504985.6897875634 ; 2.0156477460804904E8 ; 3.312015458102302E8 ; 2.352231411020658E10 ; 0.0
126 ; 2498481.929656245 ; 2.0157233572772157E8 ; 3.3370653150001776E8 ; 2.372387888481463E10 ; 0.0
127 ; 2494826.8959824396 ; 2.015798931568239E8 ; 3.36205013429674E8 ; 2.392545122054235E10 ; 0.0
128 ; 2491152.5080564637 ; 2.0158744638988635E8 ; 3.386998403256565E8 ; 2.4127031113699173E10 ; 0.0
129 ; 2486909.1707151337 ; 2.0159499493015328E8 ; 3.4119099283371294E8 ; 2.4328618560089058E10 ; 0.0
130 ; 2481502.944888601 ; 2.0160253828935695E8 ; 3.436779020044281E8 ; 2.453021355501921E10 ; 0.0
131 ; 2474939.3364761868 ; 2.0161007598749742E8 ; 3.461594049493167E8 ; 2.4731816093308567E10 ; 0.0
132 ; 2470454.953803435 ; 2.0161760755262956E8 ; 3.486343442857929E8 ; 2.4933426169296066E10 ; 0.0
133 ; 2465341.13499761 ; 2.016251325206558E8 ; 3.511047992395963E8 ; 2.5135043776848698E10 ; 0.0
134 ; 2460373.4789632168 ; 2.0163265043512556E8 ; 3.535701403745939E8 ; 2.5336668909369354E10 ; 0.0
135 ; 2454599.565221438 ; 2.016401608470401E8 ; 3.560305138535571E8 ; 2.553830155980448E10 ; 0.0
136 ; 2449019.872466597 ; 2.0164766331466356E8 ; 3.5848511341877854E8 ; 2.573994172065152E10 ; 0.0
137 ; 2444453.223131288 ; 2.0165515740333953E8 ; 3.6093413329124516E8 ; 2.5941589383966183E10 ; 0.0
138 ; 2438734.217954924 ; 2.0166264268531293E8 ; 3.6337858651437646E8 ; 2.6143244541369522E10 ; 0.0
139 ; 2433818.639234557 ; 2.0167011873955745E8 ; 3.658173207323314E8 ; 2.6344907184054836E10 ; 0.0
140 ; 2429279.043167254 ; 2.016775851516078E8 ; 3.6825113937156594E8 ; 2.6546577302794395E10 ; 0.0
141 ; 2421839.837041563 ; 2.0168504151339754E8 ; 3.706804184147332E8 ; 2.6748254887946003E10 ; 0.0
142 ; 2416526.9808996124 ; 2.0169248742310107E8 ; 3.731022582517747E8 ; 2.69499399294594E10 ; 0.0
143 ; 2410031.722861999 ; 2.0169992248498076E8 ; 3.7551878523267436E8 ; 2.71516324168825E10 ; 0.0
144 ; 2405807.5466064936 ; 2.017073463092388E8 ; 3.7792881695553637E8 ; 2.735333233936748E10 ; 0.0
145 ; 2400917.169137279 ; 2.017147585118729E8 ; 3.8033462450214285E8 ; 2.755503968567672E10 ; 0.0
146 ; 2396431.018269534 ; 2.017221587145369E8 ; 3.8273554167128015E8 ; 2.775675444418859E10 ; 0.0
147 ; 2392911.0203756806 ; 2.0172954654440534E8 ; 3.851319726895497E8 ; 2.795847660290313E10 ; 0.0
148 ; 2388286.226064112 ; 2.017369216340419E8 ; 3.8752488370992535E8 ; 2.8160206149447536E10 ; 0.0
149 ; 2383923.0024649645 ; 2.0174428362127197E8 ; 3.8991316993598944E8 ; 2.8361943071081577E10 ; 0.0
150 ; 2378651.4259611685 ; 2.0175163214905903E8 ; 3.922970929384544E8 ; 2.856368735470285E10 ; 0.0
151 ; 2372560.0441915235 ; 2.0175896686538476E8 ; 3.946757443644156E8 ; 2.876543898685191E10 ; 0.0
152 ; 2370477.0242161835 ; 2.017662874231324E8 ; 3.970483044086071E8 ; 2.8967197953717293E10 ; 0.0
153 ; 2365645.828854726 ; 2.0177359347997406E8 ; 3.994187814328233E8 ; 2.9168964241140427E10 ; 0.0
154 ; 2360022.3229774716 ; 2.0178088469826114E8 ; 4.0178442726167804E8 ; 2.93707378346204E10 ; 0.0
155 ; 2355205.021398641 ; 2.017881607449179E8 ; 4.041444495846555E8 ; 2.957251871931866E10 ; 0.0
156 ; 2350594.665601733 ; 2.017954212913385E8 ; 4.064996546060542E8 ; 2.977430688006358E10 ; 0.0
157 ; 2346344.062307989 ; 2.018026660132868E8 ; 4.088502492716559E8 ; 2.997610230135492E10 ; 0.0
158 ; 2342190.6628914555 ; 2.0180989459079942E8 ; 4.1119659333396393E8 ; 3.0177904967368206E10 ; 0.0
159 ; 2337518.897213348 ; 2.0181710670809135E8 ; 4.135387839968554E8 ; 3.0379714861959007E10 ; 0.0
160 ; 2332682.9899358107 ; 2.0182430205346468E8 ; 4.158763028940687E8 ; 3.05815319686671E10 ; 0.0
161 ; 2327948.070471063 ; 2.0183148031921986E8 ; 4.1820898588400453E8 ; 3.0783356270720562E10 ; 0.0
162 ; 2323176.8951588427 ; 2.0183864120156947E8 ; 4.205369339544756E8 ; 3.0985187751039783E10 ; 0.0
163 ; 2317406.446168641 ; 2.0184578440055493E8 ; 4.228601108496344E8 ; 3.1187026392241352E10 ; 0.0
164 ; 2312257.0072758645 ; 2.0185290961996517E8 ; 4.2517751729580307E8 ; 3.1388872176641907E10 ; 0.0
165 ; 2309493.4805949577 ; 2.01860016567258E8 ; 4.2748977430307895E8 ; 3.159072508626187E10 ; 0.0
166 ; 2305042.793557673 ; 2.0186710495348385E8 ; 4.297992677836739E8 ; 3.179258510282913E10 ; 0.0
167 ; 2299045.8575566155 ; 2.018741744932114E8 ; 4.321043105772315E8 ; 3.199445220778261E10 ; 0.0
168 ; 2296250.751150993 ; 2.018812249044558E8 ; 4.3440335643478817E8 ; 3.219632638227582E10 ; 0.0
169 ; 2290289.646003109 ; 2.0188825590860873E8 ; 4.3669960718593913E8 ; 3.239820760718028E10 ; 0.0
170 ; 2285281.3194380696 ; 2.0189526723037055E8 ; 4.3898989683194226E8 ; 3.2600095863088886E10 ; 0.0
171 ; 2280151.5399861466 ; 2.019E8 ; 4.412751781513803E8 ; 3.2801991130319256E10 ; 0.0
172 ; 2275570.912987022 ; 2.019E8 ; 4.4355532969136643E8 ; 3.3003891130319256E10 ; 0.0
173 ; 2272578.43543101 ; 2.019E8 ; 4.458309006043534E8 ; 3.3205791130319256E10 ; 0.0
174 ; 2267410.110383433 ; 2.019E8 ; 4.4810347903978443E8 ; 3.3407691130319256E10 ; 0.0
175 ; 2263421.0950270775 ; 2.019E8 ; 4.503708891501679E8 ; 3.3609591130319256E10 ; 0.0
176 ; 2258909.969427967 ; 2.019E8 ; 4.52634310245195E8 ; 3.3811491130319256E10 ; 0.0
177 ; 2255454.687530557 ; 2.019E8 ; 4.548932202146229E8 ; 3.4013391130319256E10 ; 0.0
178 ; 2252196.947434274 ; 2.019E8 ; 4.571486749021535E8 ; 3.4215291130319256E10 ; 0.0
179 ; 2247089.1530571315 ; 2.019E8 ; 4.5940087184958774E8 ; 3.441719113031926E10 ; 0.0
180 ; 2243440.6327878586 ; 2.019E8 ; 4.616479610026449E8 ; 3.461909113031926E10 ; 0.0
181 ; 2239871.5725643216 ; 2.019E8 ; 4.638914016354328E8 ; 3.482099113031926E10 ; 0.0
182 ; 2235747.4600498127 ; 2.019E8 ; 4.661312732079971E8 ; 3.502289113031926E10 ; 0.0
183 ; 2231250.990648226 ; 2.019E8 ; 4.683670206680469E8 ; 3.522479113031926E10 ; 0.0
184 ; 2227053.3138463255 ; 2.019E8 ; 4.705982716586951E8 ; 3.542669113031926E10 ; 0.0
185 ; 2224005.883231322 ; 2.019E8 ; 4.7282532497254145E8 ; 3.562859113031926E10 ; 0.0
186 ; 2217957.6905522603 ; 2.019E8 ; 4.750493308557728E8 ; 3.583049113031926E10 ; 0.0
187 ; 2215701.2674017744 ; 2.019E8 ; 4.77267288546325E8 ; 3.603239113031926E10 ; 0.0
188 ; 2211286.2413201462 ; 2.019E8 ; 4.794829898137268E8 ; 3.623429113031926E10 ; 0.0
189 ; 2206508.779247866 ; 2.019E8 ; 4.816942760550469E8 ; 3.643619113031926E10 ; 0.0
190 ; 2202453.727493537 ; 2.019E8 ; 4.839007848342948E8 ; 3.663809113031926E10 ; 0.0
191 ; 2199410.1723876656 ; 2.019E8 ; 4.861032385617883E8 ; 3.683999113031926E10 ; 0.0
192 ; 2195838.4664873704 ; 2.019E8 ; 4.88302648734176E8 ; 3.704189113031926E10 ; 0.0
193 ; 2192405.971745299 ; 2.019E8 ; 4.904984872006633E8 ; 3.724379113031926E10 ; 0.0
194 ; 2188373.584115462 ; 2.019E8 ; 4.9269089317240864E8 ; 3.744569113031926E10 ; 0.0
195 ; 2181838.171152625 ; 2.019E8 ; 4.948792667565241E8 ; 3.764759113031926E10 ; 0.0
196 ; 2177476.258875014 ; 2.019E8 ; 4.9706110492767674E8 ; 3.784949113031926E10 ; 0.0
197 ; 2174427.437460991 ; 2.019E8 ; 4.9923858118655175E8 ; 3.805139113031926E10 ; 0.0
198 ; 2170421.6846923484 ; 2.019E8 ; 5.0141300862401277E8 ; 3.825329113031926E10 ; 0.0
199 ; 2166534.174100276 ; 2.019E8 ; 5.035834303087051E8 ; 3.845519113031926E10 ; 0.0
200 ; 2162648.821395317 ; 2.019E8 ; 5.057499644828054E8 ; 3.865709113031926E10 ; 0.0
201 ; 2158251.748176889 ; 1.658108992539517E8 ; 5.079126133042007E8 ; 3.885899113031926E10 ; 0.0
202 ; 2155955.8675854057 ; 1.527127382774142E8 ; 5.100708650523776E8 ; 3.902480202957321E10 ; 0.0
203 ; 2150213.276563491 ; 1.5236626757342157E8 ; 5.12226820919963E8 ; 3.9177514767850624E10 ; 0.0
