CSV File for the City 4 on Day 14
1 - Minute m 
2 - Power Consumed at minute m 
3 - Power Produced at minute m 
4 - Energy Consumed since the beginning of the day 
5 - Energy Produced since the beginning of the day 
6 - Energy Lost since the beginning of the day on lines starting from the city
 
0 ; 6799455.571246936 ; 1.0542893728132352E8 ; 0.0 ; 0.0 ; 0.0
1 ; 6804625.931946824 ; 1.0557452764612973E8 ; 6799455.571246936 ; 1.0542893728132352E8 ; 0.0
2 ; 6814227.720237 ; 1.0602941963428065E8 ; 1.360408150319376E7 ; 2.1100346492745325E8 ; 0.0
3 ; 6821221.34596103 ; 1.0679367950541931E8 ; 2.041830922343076E7 ; 3.170328845617339E8 ; 0.0
4 ; 6830602.748109824 ; 1.078673753736164E8 ; 2.723953056939179E7 ; 4.238265640671532E8 ; 0.0
5 ; 6843496.582604618 ; 1.0925057526030427E8 ; 3.407013331750161E7 ; 5.316939394407696E8 ; 0.0
6 ; 6860923.9218051145 ; 1.1094334459370163E8 ; 4.091362990010623E7 ; 6.409445147010739E8 ; 0.0
7 ; 6879089.142654323 ; 1.1294574325226861E8 ; 4.777455382191134E7 ; 7.518878592947755E8 ; 0.0
8 ; 6916101.949363354 ; 1.1525782236493611E8 ; 5.4653642964565665E7 ; 8.64833602547044E8 ; 0.0
9 ; 6965415.555760357 ; 1.1787962119231755E8 ; 6.1569744913929015E7 ; 9.800914249119802E8 ; 0.0
10 ; 7041483.940629233 ; 1.2081116448376876E8 ; 6.853516046968937E7 ; 1.0979710461042976E9 ; 0.0
11 ; 7165583.753902034 ; 1.2405246069849041E8 ; 7.55766444103186E7 ; 1.2187822105880663E9 ; 0.0
12 ; 7362245.856186677 ; 1.2760350137728181E8 ; 8.274222816422063E7 ; 1.3428346712865567E9 ; 0.0
13 ; 7556190.084237074 ; 1.3146426177078712E8 ; 9.01044740204073E7 ; 1.4704381726638386E9 ; 0.0
14 ; 7578429.503932331 ; 1.35634702618393E8 ; 9.766066410464437E7 ; 1.6019024344346256E9 ; 0.0
15 ; 7585892.578992303 ; 1.4011477279116845E8 ; 1.052390936085767E8 ; 1.7375371370530186E9 ; 0.0
16 ; 7594493.517939719 ; 1.4490441241065344E8 ; 1.12824986187569E8 ; 1.877651909844187E9 ; 0.0
17 ; 7605675.221919651 ; 1.500035560486292E8 ; 1.2041947970550872E8 ; 2.0225563222548404E9 ; 0.0
18 ; 7612179.790501037 ; 1.5541213568366337E8 ; 1.2802515492742838E8 ; 2.1725598783034697E9 ; 0.0
19 ; 7621496.6127632465 ; 1.6113008320168528E8 ; 1.3563733471792942E8 ; 2.327972013987133E9 ; 0.0
20 ; 7629141.756679951 ; 1.6715733234305188E8 ; 1.4325883133069268E8 ; 2.4891020971888185E9 ; 0.0
21 ; 7636327.01440798 ; 1.7349382009219238E8 ; 1.5088797308737263E8 ; 2.6562594295318704E9 ; 0.0
22 ; 7646773.987739123 ; 1.801394875676329E8 ; 1.5852430010178062E8 ; 2.8297532496240625E9 ; 0.0
23 ; 7656127.540738223 ; 1.8709428050125152E8 ; 1.6617107408951974E8 ; 3.009892737191695E9 ; 0.0
24 ; 7663106.981768428 ; 1.9435814940330958E8 ; 1.7382720163025796E8 ; 3.196987017692947E9 ; 0.0
25 ; 7674151.65007499 ; 2.0061909040103802E8 ; 1.814903086120264E8 ; 3.3913451670962563E9 ; 0.0
26 ; 7682472.586701749 ; 2.006306110666915E8 ; 1.8916446026210138E8 ; 3.5919642574972944E9 ; 0.0
27 ; 7691848.305155697 ; 2.006424446434529E8 ; 1.9684693284880313E8 ; 3.792594868563986E9 ; 0.0
28 ; 7699218.900453809 ; 2.0065455894675967E8 ; 2.0453878115395883E8 ; 3.993237313207439E9 ; 0.0
29 ; 7706056.405318084 ; 2.006669252963352E8 ; 2.1223800005441263E8 ; 4.1938918721541986E9 ; 0.0
30 ; 7717412.0769261215 ; 2.0067951815959862E8 ; 2.199440564597307E8 ; 4.394558797450534E9 ; 0.0
31 ; 7722864.991171953 ; 2.006923148123828E8 ; 2.2766146853665683E8 ; 4.595238315610132E9 ; 0.0
32 ; 7730353.444048273 ; 2.0070529502412143E8 ; 2.3538433352782878E8 ; 4.795930630422515E9 ; 0.0
33 ; 7738838.698909212 ; 2.0071844077086374E8 ; 2.4311468697187707E8 ; 4.996635925446636E9 ; 0.0
34 ; 7744292.051654586 ; 2.007317359769625E8 ; 2.508535256707863E8 ; 5.1973543662175E9 ; 0.0
35 ; 7752734.532984106 ; 2.007451662847045E8 ; 2.5859781772244087E8 ; 5.398086102194462E9 ; 0.0
36 ; 7762687.088077948 ; 2.0075871885022673E8 ; 2.6635055225542498E8 ; 5.598831268479166E9 ; 0.0
37 ; 7768128.355168014 ; 2.007723821635803E8 ; 2.7411323934350294E8 ; 5.799589987329392E9 ; 0.0
38 ; 7773234.965151528 ; 2.0078614589061335E8 ; 2.818813676986709E8 ; 6.000362369492972E9 ; 0.0
39 ; 7779075.695238939 ; 2.0080000073433527E8 ; 2.896546026638225E8 ; 6.201148515383586E9 ; 0.0
40 ; 7785135.655501412 ; 2.0081393831352818E8 ; 2.974336783590614E8 ; 6.401948516117921E9 ; 0.0
41 ; 7792200.851239701 ; 2.008279510565326E8 ; 3.0521881401456285E8 ; 6.602762454431449E9 ; 0.0
42 ; 7794768.011005277 ; 2.0084203210832483E8 ; 3.130110148658025E8 ; 6.803590405487982E9 ; 0.0
43 ; 7801116.068786264 ; 2.0085617524920145E8 ; 3.208057828768078E8 ; 7.004432437596307E9 ; 0.0
44 ; 7805362.637747647 ; 2.008703748235783E8 ; 3.286068989455941E8 ; 7.205288612845509E9 ; 0.0
45 ; 7812216.538535935 ; 2.0088462567759228E8 ; 3.364122615833417E8 ; 7.406158987669086E9 ; 0.0
46 ; 7813453.70463678 ; 2.0089892310435972E8 ; 3.442244781218777E8 ; 7.607043613346679E9 ; 0.0
47 ; 7817897.1436055 ; 2.0091326279589248E8 ; 3.520379318265144E8 ; 7.807942536451038E9 ; 0.0
48 ; 7819648.193554199 ; 2.00927640800805E8 ; 3.5985582897011995E8 ; 8.008855799246931E9 ; 0.0
49 ; 7825352.824078582 ; 2.0094205348706156E8 ; 3.676754771636742E8 ; 8.209783440047736E9 ; 0.0
50 ; 7823889.841770773 ; 2.0095649750911236E8 ; 3.7550082998775274E8 ; 8.410725493534798E9 ; 0.0
51 ; 7828236.288491966 ; 2.0097096977885655E8 ; 3.833247198295235E8 ; 8.611681991043911E9 ; 0.0
52 ; 7833491.607908694 ; 2.0098546743994495E8 ; 3.9115295611801547E8 ; 8.812652960822767E9 ; 0.0
53 ; 7830009.0953764515 ; 2.0099998784500143E8 ; 3.9898644772592413E8 ; 9.013638428262712E9 ; 0.0
54 ; 7836162.074838248 ; 2.0101452853539822E8 ; 4.0681645682130057E8 ; 9.214638416107714E9 ; 0.0
55 ; 7837455.987991598 ; 2.01029087223269E8 ; 4.146526188961388E8 ; 9.415652944643112E9 ; 0.0
56 ; 7837526.73036235 ; 2.010436617754864E8 ; 4.2249007488413036E8 ; 9.61668203186638E9 ; 0.0
57 ; 7838344.779866182 ; 2.0105825019936574E8 ; 4.303276016144927E8 ; 9.817725693641867E9 ; 0.0
58 ; 7842478.441362857 ; 2.0107285062988794E8 ; 4.381659463943589E8 ; 1.0018783943841232E10 ; 0.0
59 ; 7843215.80424869 ; 2.0108746131826288E8 ; 4.4600842483572173E8 ; 1.021985679447112E10 ; 0.0
60 ; 7843573.706606913 ; 2.0110208062167534E8 ; 4.538516406399704E8 ; 1.0420944255789383E10 ; 0.0
61 ; 7845689.924939332 ; 2.0111670699407753E8 ; 4.6169521434657735E8 ; 1.0622046336411058E10 ; 0.0
62 ; 7847775.301423464 ; 2.0113133897790858E8 ; 4.695409042715167E8 ; 1.0823163043405136E10 ; 0.0
63 ; 7848805.187939996 ; 2.0114597519663608E8 ; 4.773886795729402E8 ; 1.1024294382383045E10 ; 0.0
64 ; 7847458.698464684 ; 2.011606143480288E8 ; 4.852374847608802E8 ; 1.1225440357579681E10 ; 0.0
65 ; 7851215.7905264385 ; 2.0117525519807932E8 ; 4.9308494345934486E8 ; 1.142660097192771E10 ; 0.0
66 ; 7853669.003998217 ; 2.011898965755066E8 ; 5.009361592498713E8 ; 1.162777622712579E10 ; 0.0
67 ; 7850249.695160185 ; 2.0120453736677575E8 ; 5.0878982825386953E8 ; 1.1828966123701296E10 ; 0.0
68 ; 7858073.457342184 ; 2.012191765115804E8 ; 5.1664007794902974E8 ; 1.2030170661068071E10 ; 0.0
69 ; 7855427.490419193 ; 2.0123381299873927E8 ; 5.2449815140637195E8 ; 1.223138983757965E10 ; 0.0
70 ; 7854643.17711771 ; 2.012484458624639E8 ; 5.3235357889679116E8 ; 1.243262365057839E10 ; 0.0
71 ; 7854790.347600097 ; 2.0126307417895958E8 ; 5.402082220739089E8 ; 1.2633872096440853E10 ; 0.0
72 ; 7856591.039678364 ; 2.0127769706332633E8 ; 5.48063012421509E8 ; 1.2835135170619812E10 ; 0.0
73 ; 7856674.12689361 ; 2.0129231366672924E8 ; 5.559196034611874E8 ; 1.3036412867683138E10 ; 0.0
74 ; 7858121.36781593 ; 2.013069231738123E8 ; 5.63776277588081E8 ; 1.3237705181349867E10 ; 0.0
75 ; 7858148.100026743 ; 2.0132152480033174E8 ; 5.71634398955897E8 ; 1.343901210452368E10 ; 0.0
76 ; 7857462.508488135 ; 2.013361177909877E8 ; 5.794925470559237E8 ; 1.364033362932401E10 ; 0.0
77 ; 7857222.272937601 ; 2.0135070141743556E8 ; 5.873500095644119E8 ; 1.3841669747114998E10 ; 0.0
78 ; 7856533.532518476 ; 2.0136527497645995E8 ; 5.952072318373495E8 ; 1.4043020448532433E10 ; 0.0
79 ; 7854168.028743521 ; 2.0137983778829643E8 ; 6.03063765369868E8 ; 1.4244385723508892E10 ; 0.0
80 ; 7851639.84815781 ; 2.0139438919508716E8 ; 6.109179333986115E8 ; 1.4445765561297188E10 ; 0.0
81 ; 7849560.068304999 ; 2.0140892855945843E8 ; 6.187695732467693E8 ; 1.4647159950492275E10 ; 0.0
82 ; 7848726.4554975405 ; 2.0142345526320946E8 ; 6.266191333150743E8 ; 1.4848568879051733E10 ; 0.0
83 ; 7846732.783159469 ; 2.0143796870610198E8 ; 6.344678597705718E8 ; 1.5049992334314943E10 ; 0.0
84 ; 7841639.436585271 ; 2.0145246830474243E8 ; 6.423145925537313E8 ; 1.5251430303021046E10 ; 0.0
85 ; 7839774.642481986 ; 2.014669534915482E8 ; 6.501562319903166E8 ; 1.5452882771325788E10 ; 0.0
86 ; 7837538.8774633575 ; 2.014814237137912E8 ; 6.579960066327987E8 ; 1.5654349724817337E10 ; 0.0
87 ; 7834457.85469059 ; 2.0149587843271166E8 ; 6.65833545510262E8 ; 1.5855831148531128E10 ; 0.0
88 ; 7831770.694395207 ; 2.0151031712269694E8 ; 6.736680033649526E8 ; 1.605732702696384E10 ; 0.0
89 ; 7830434.294223025 ; 2.015247392705193E8 ; 6.814997740593477E8 ; 1.6258837344086538E10 ; 0.0
90 ; 7825577.99765712 ; 2.0153914437462825E8 ; 6.893302083535708E8 ; 1.6460362083357058E10 ; 0.0
91 ; 7820359.907157113 ; 2.0155353194449288E8 ; 6.97155786351228E8 ; 1.6661901227731686E10 ; 0.0
92 ; 7818858.5807773955 ; 2.0156790149999025E8 ; 7.049761462583851E8 ; 1.6863454759676178E10 ; 0.0
93 ; 7816392.244936542 ; 2.015822525708359E8 ; 7.127950048391625E8 ; 1.7065022661176168E10 ; 0.0
94 ; 7812186.589683637 ; 2.015965846960536E8 ; 7.20611397084099E8 ; 1.7266604913747005E10 ; 0.0
95 ; 7809744.732637638 ; 2.0161089742348105E8 ; 7.284235836737827E8 ; 1.7468201498443058E10 ; 0.0
96 ; 7805130.630367692 ; 2.0162519030930862E8 ; 7.362333284064204E8 ; 1.766981239586654E10 ; 0.0
97 ; 7801899.67314202 ; 2.0163946291764903E8 ; 7.44038459036788E8 ; 1.7871437586175846E10 ; 0.0
98 ; 7797022.626802343 ; 2.016537148201351E8 ; 7.518403587099301E8 ; 1.8073077049093494E10 ; 0.0
99 ; 7794467.743832774 ; 2.0166794559554398E8 ; 7.596373813367324E8 ; 1.8274730763913628E10 ; 0.0
100 ; 7791069.618475199 ; 2.016821548294456E8 ; 7.674318490805652E8 ; 1.847639870950917E10 ; 0.0
101 ; 7787914.6289662765 ; 2.0169634211387366E8 ; 7.752229186990404E8 ; 1.8678080864338615E10 ; 0.0
102 ; 7781881.124946015 ; 2.0171050704701746E8 ; 7.830108333280067E8 ; 1.8879777206452488E10 ; 0.0
103 ; 7779280.13388614 ; 2.017246492329332E8 ; 7.907927144529527E8 ; 1.9081487713499504E10 ; 0.0
104 ; 7773972.583432399 ; 2.0173876828127328E8 ; 7.985719945868388E8 ; 1.9283212362732437E10 ; 0.0
105 ; 7768337.607720364 ; 2.0175286380703226E8 ; 8.063459671702713E8 ; 1.948495113101371E10 ; 0.0
106 ; 7765877.170541319 ; 2.0176693543030852E8 ; 8.141143047779917E8 ; 1.9686703994820744E10 ; 0.0
107 ; 7762581.06845483 ; 2.0178098277608034E8 ; 8.218801819485329E8 ; 1.9888470930251053E10 ; 0.0
108 ; 7756976.886828699 ; 2.017950054739955E8 ; 8.296427630169878E8 ; 2.0090251913027134E10 ; 0.0
109 ; 7751246.639889475 ; 2.018090031581735E8 ; 8.373997399038165E8 ; 2.029204691850113E10 ; 0.0
110 ; 7747384.366996967 ; 2.0182297546701953E8 ; 8.451509865437059E8 ; 2.04938559216593E10 ; 0.0
111 ; 7743020.927898061 ; 2.0183692204304925E8 ; 8.52898370910703E8 ; 2.069567889712632E10 ; 0.0
112 ; 7741099.282675677 ; 2.0185084253272408E8 ; 8.60641391838601E8 ; 2.089751581916937E10 ; 0.0
113 ; 7737094.430084585 ; 2.0186473658629587E8 ; 8.683824911212766E8 ; 2.109936666170209E10 ; 0.0
114 ; 7729710.496071081 ; 2.018786038576604E8 ; 8.761195855513612E8 ; 2.1301231398288387E10 ; 0.0
115 ; 7726728.491922906 ; 2.018924440042197E8 ; 8.838492960474323E8 ; 2.150311000214605E10 ; 0.0
116 ; 7719825.546891489 ; 2.0190625668675163E8 ; 8.915760245393552E8 ; 2.170500244615027E10 ; 0.0
117 ; 7716643.466312837 ; 2.0192004156928718E8 ; 8.992958500862466E8 ; 2.190690870283702E10 ; 0.0
118 ; 7710365.242577769 ; 2.019337983189946E8 ; 9.070124935525595E8 ; 2.2108828744406307E10 ; 0.0
119 ; 7702123.579499779 ; 2.0194752660606992E8 ; 9.147228587951373E8 ; 2.2310762542725304E10 ; 0.0
120 ; 7698332.94396549 ; 2.019612261036335E8 ; 9.22424982374637E8 ; 2.2512710069331375E10 ; 0.0
121 ; 7695156.332091431 ; 2.0197489648763227E8 ; 9.301233153186024E8 ; 2.271467129543501E10 ; 0.0
122 ; 7687901.092590522 ; 2.0198853743674752E8 ; 9.378184716506939E8 ; 2.291664619192264E10 ; 0.0
123 ; 7682423.07199654 ; 2.0200214863230732E8 ; 9.455063727432845E8 ; 2.311863472935939E10 ; 0.0
124 ; 7679685.463337852 ; 2.0201572975820398E8 ; 9.53188795815281E8 ; 2.33206368779917E10 ; 0.0
125 ; 7672879.356989753 ; 2.0202928050081596E8 ; 9.608684812786189E8 ; 2.3522652607749905E10 ; 0.0
126 ; 7668393.523145614 ; 2.0204280054893354E8 ; 9.685413606356087E8 ; 2.372468188825072E10 ; 0.0
127 ; 7661066.1727658 ; 2.020562895936891E8 ; 9.762097541587542E8 ; 2.3926724688799656E10 ; 0.0
128 ; 7656559.531526912 ; 2.020697473284905E8 ; 9.838708203315201E8 ; 2.4128780978393345E10 ; 0.0
129 ; 7648912.794406877 ; 2.020831734489582E8 ; 9.91527379863047E8 ; 2.4330850725721836E10 ; 0.0
130 ; 7640572.144386582 ; 2.020965676528658E8 ; 9.991762926574539E8 ; 2.4532933899170795E10 ; 0.0
131 ; 7629969.650579778 ; 2.021099296400835E8 ; 1.0068168648018404E9 ; 2.473503046682366E10 ; 0.0
132 ; 7624653.406493377 ; 2.0212325911252457E8 ; 1.0144468344524202E9 ; 2.4937140396463745E10 ; 0.0
133 ; 7618358.83006565 ; 2.0213655577409452E8 ; 1.0220714878589137E9 ; 2.513926365557627E10 ; 0.0
134 ; 7607254.386498986 ; 2.0214981933064306E8 ; 1.0296898466889793E9 ; 2.5341400211350365E10 ; 0.0
135 ; 7602852.1571859885 ; 2.0216304948991838E8 ; 1.0372971010754782E9 ; 2.5543550030681007E10 ; 0.0
136 ; 7589462.677104618 ; 2.0217624596152377E8 ; 1.0448999532326642E9 ; 2.5745713080170925E10 ; 0.0
137 ; 7579567.494062372 ; 2.0218940845687658E8 ; 1.0524894159097688E9 ; 2.594788932613245E10 ; 0.0
138 ; 7572687.736136458 ; 2.0220253668916923E8 ; 1.0600689834038312E9 ; 2.6150078734589325E10 ; 0.0
139 ; 7565445.628909689 ; 2.02215630373332E8 ; 1.0676416711399677E9 ; 2.6352281271278496E10 ; 0.0
140 ; 7552507.320889414 ; 2.0222868922599804E8 ; 1.0752071167688773E9 ; 2.655449690165183E10 ; 0.0
141 ; 7546503.83738264 ; 2.0224171296547002E8 ; 1.0827596240897667E9 ; 2.6756725590877827E10 ; 0.0
142 ; 7532197.797315981 ; 2.022547013116882E8 ; 1.0903061279271493E9 ; 2.6958967303843296E10 ; 0.0
143 ; 7528518.173595647 ; 2.022676539862007E8 ; 1.0978383257244654E9 ; 2.7161222005154984E10 ; 0.0
144 ; 7518004.57957825 ; 2.0228057071213448E8 ; 1.105366843898061E9 ; 2.7363489659141186E10 ; 0.0
145 ; 7509719.205093881 ; 2.0229345121416864E8 ; 1.1128848484776392E9 ; 2.756577022985332E10 ; 0.0
146 ; 7502482.018339897 ; 2.0230629521850842E8 ; 1.120394567682733E9 ; 2.776806368106749E10 ; 0.0
147 ; 7497706.577869193 ; 2.0231910245286065E8 ; 1.127897049701073E9 ; 2.7970369976286E10 ; 0.0
148 ; 7490493.235322961 ; 2.023318726464108E8 ; 1.135394756278942E9 ; 2.817268907873886E10 ; 0.0
149 ; 7489241.361158461 ; 2.023446055298006E8 ; 1.142885249514265E9 ; 2.8375020951385273E10 ; 0.0
150 ; 7479712.620220715 ; 2.0235730083510724E8 ; 1.1503744908754234E9 ; 2.8577365556915073E10 ; 0.0
151 ; 7473509.106418915 ; 2.0236995829582348E8 ; 1.157854203495644E9 ; 2.877972285775018E10 ; 0.0
152 ; 7463997.558713943 ; 2.0238257764683872E8 ; 1.165327712602063E9 ; 2.8982092816046E10 ; 0.0
153 ; 7461204.412034289 ; 2.0239515862442097E8 ; 1.1727917101607769E9 ; 2.918447539369284E10 ; 0.0
154 ; 7451884.587749061 ; 2.0240770096620002E8 ; 1.1802529145728111E9 ; 2.938687055231726E10 ; 0.0
155 ; 7444328.675206454 ; 2.0242020441115108E8 ; 1.1877047991605601E9 ; 2.9589278253283463E10 ; 0.0
156 ; 7436976.2105092 ; 2.0243266869957957E8 ; 1.1951491278357666E9 ; 2.9791698457694614E10 ; 0.0
157 ; 7431256.13430484 ; 2.024450935731065E8 ; 1.2025861040462759E9 ; 2.9994131126394196E10 ; 0.0
158 ; 7422816.489553131 ; 2.0245747877465472E8 ; 1.2100173601805806E9 ; 3.01965762199673E10 ; 0.0
159 ; 7418481.560608089 ; 2.024698240484357E8 ; 1.2174401766701338E9 ; 3.0399033698741955E10 ; 0.0
160 ; 7409670.446425713 ; 2.0248212913993734E8 ; 1.224858658230742E9 ; 3.060150352279039E10 ; 0.0
161 ; 7402209.66886478 ; 2.0249439379591197E8 ; 1.2322683286771677E9 ; 3.080398565193033E10 ; 0.0
162 ; 7392238.064265045 ; 2.0250661776436538E8 ; 1.2396705383460324E9 ; 3.1006480045726242E10 ; 0.0
163 ; 7385785.65584545 ; 2.0251880079454616E8 ; 1.2470627764102974E9 ; 3.120898666349061E10 ; 0.0
164 ; 7382345.711105787 ; 2.025309426369357E8 ; 1.2544485620661428E9 ; 3.1411505464285156E10 ; 0.0
165 ; 7373469.685675336 ; 2.0254304304323885E8 ; 1.2618309077772486E9 ; 3.1614036406922092E10 ; 0.0
166 ; 7367370.91293601 ; 2.025551017663748E8 ; 1.269204377462924E9 ; 3.1816579449965332E10 ; 0.0
167 ; 7360792.790253699 ; 2.0256711856046873E8 ; 1.27657174837586E9 ; 3.201913455173171E10 ; 0.0
168 ; 7352490.450811297 ; 2.0257909318084383E8 ; 1.2839325411661136E9 ; 3.222170167029218E10 ; 0.0
169 ; 7343752.452556934 ; 2.0259102538401368E8 ; 1.291285031616925E9 ; 3.2424280763473022E10 ; 0.0
170 ; 7336840.115398633 ; 2.0260291492767516E8 ; 1.2986287840694818E9 ; 3.2626871788857037E10 ; 0.0
171 ; 7329798.797775839 ; 2.026147615707018E8 ; 1.3059656241848805E9 ; 3.282947470378471E10 ; 0.0
172 ; 7322898.693854474 ; 2.026265650731373E8 ; 1.3132954229826562E9 ; 3.303208946535541E10 ; 0.0
173 ; 7316058.556049578 ; 2.026383251961898E8 ; 1.3206183216765108E9 ; 3.323471603042855E10 ; 0.0
174 ; 7310893.161244838 ; 2.02650041702226E8 ; 1.3279343802325604E9 ; 3.343735435562474E10 ; 0.0
175 ; 7304243.417407105 ; 2.026617143547662E8 ; 1.3352452733938053E9 ; 3.3640004397326965E10 ; 0.0
176 ; 7305347.083741753 ; 2.026733429184791E8 ; 1.3425495168112123E9 ; 3.3842666111681732E10 ; 0.0
177 ; 7297094.724421035 ; 2.026849271591774E8 ; 1.349854863894954E9 ; 3.4045339454600212E10 ; 0.0
178 ; 7292021.978949079 ; 2.0269646684381327E8 ; 1.357151958619375E9 ; 3.4248024381759388E10 ; 0.0
179 ; 7287828.26948096 ; 2.027079617404745E8 ; 1.364443980598324E9 ; 3.44507208486032E10 ; 0.0
180 ; 7286703.924527355 ; 2.0271941161838055E8 ; 1.371731808867805E9 ; 3.465342881034367E10 ; 0.0
181 ; 7280669.049795736 ; 2.0273081624787918E8 ; 1.3790185127923324E9 ; 3.485614822196205E10 ; 0.0
182 ; 7274997.151942237 ; 2.0274217540044314E8 ; 1.386299181842128E9 ; 3.505887903820993E10 ; 0.0
183 ; 7272116.863759368 ; 2.0275348884866706E8 ; 1.3935741789940703E9 ; 3.5261621213610374E10 ; 0.0
184 ; 7267262.384513492 ; 2.0276475636626482E8 ; 1.4008462958578296E9 ; 3.546437470245904E10 ; 0.0
185 ; 7264486.483219815 ; 2.027759777280669E8 ; 1.408113558242343E9 ; 3.56671394588253E10 ; 0.0
186 ; 7259374.363514909 ; 2.027871527100179E8 ; 1.4153780447255628E9 ; 3.586991543655337E10 ; 0.0
187 ; 7252762.633019787 ; 2.0279828108917454E8 ; 1.4226374190890777E9 ; 3.607270258926338E10 ; 0.0
188 ; 7249034.288875395 ; 2.0280936264370364E8 ; 1.4298901817220974E9 ; 3.6275500870352554E10 ; 0.0
189 ; 7243781.263047669 ; 2.0282039715288028E8 ; 1.4371392160109727E9 ; 3.647831023299626E10 ; 0.0
190 ; 7241067.758004808 ; 2.0283138439708614E8 ; 1.4443829972740204E9 ; 3.668113063014914E10 ; 0.0
191 ; 7235929.677899874 ; 2.0284232415780824E8 ; 1.4516240650320253E9 ; 3.688396201454623E10 ; 0.0
192 ; 7229413.575223332 ; 2.0285321621763748E8 ; 1.4588599947099252E9 ; 3.708680433870403E10 ; 0.0
193 ; 7223909.265057054 ; 2.0286406036026752E8 ; 1.4660894082851486E9 ; 3.728965755492167E10 ; 0.0
194 ; 7222087.780903363 ; 2.0287485637049392E8 ; 1.4733133175502057E9 ; 3.749252161528194E10 ; 0.0
195 ; 7217493.560682813 ; 2.028856040342131E8 ; 1.480535405331109E9 ; 3.769539647165243E10 ; 0.0
196 ; 7213402.011026917 ; 2.028963031384219E8 ; 1.4877528988917918E9 ; 3.789828207568664E10 ; 0.0
197 ; 7206808.074620788 ; 2.029069534712167E8 ; 1.4949663009028187E9 ; 3.810117837882506E10 ; 0.0
198 ; 7203988.006586235 ; 2.029175548217932E8 ; 1.5021731089774394E9 ; 3.830408533229627E10 ; 0.0
199 ; 7198879.2219340755 ; 2.02928106980446E8 ; 1.5093770969840257E9 ; 3.8507002887118065E10 ; 0.0
200 ; 7195913.047373693 ; 2.0293860973856834E8 ; 1.5165759762059598E9 ; 3.870993099409851E10 ; 0.0
201 ; 7188534.268267696 ; 1.8120379671022174E8 ; 1.5237718892533336E9 ; 3.891286960383708E10 ; 0.0
