CSV File for the City 4 on Day 169
1 - Minute m 
2 - Power Consumed at minute m 
3 - Power Produced at minute m 
4 - Energy Consumed since the beginning of the day 
5 - Energy Produced since the beginning of the day 
6 - Energy Lost since the beginning of the day on lines starting from the city
 
0 ; 2370400.5267449506 ; 1.0614003113838091E8 ; 0.0 ; 0.0 ; 0.0
1 ; 2377636.99376155 ; 1.0629054900215888E8 ; 2370400.5267449506 ; 1.0614003113838091E8 ; 0.0
2 ; 2382540.02748048 ; 1.0675009576790002E8 ; 4748037.520506501 ; 2.124305801405398E8 ; 0.0
3 ; 2389651.201581404 ; 1.0751867579170215E8 ; 7130577.5479869805 ; 3.191806759084398E8 ; 0.0
4 ; 2394428.568921461 ; 1.085962929813894E8 ; 9520228.749568384 ; 4.2669935170014197E8 ; 0.0
5 ; 2409333.7251005704 ; 1.0998295077351981E8 ; 1.1914657318489846E7 ; 5.3529564468153137E8 ; 0.0
6 ; 2422143.057016494 ; 1.1167865211275306E8 ; 1.4323991043590415E7 ; 6.452785954550512E8 ; 0.0
7 ; 2444487.926757191 ; 1.1368339943386257E8 ; 1.6746134100606909E7 ; 7.569572475678042E8 ; 0.0
8 ; 2475682.4058708823 ; 1.1599719464664662E8 ; 1.91906220273641E7 ; 8.706406470016668E8 ; 0.0
9 ; 2523573.7722441205 ; 1.186200391239546E8 ; 2.1666304433234982E7 ; 9.866378416483134E8 ; 0.0
10 ; 2595997.1789091676 ; 1.2155193369300586E8 ; 2.4189878205479104E7 ; 1.105257880772268E9 ; 0.0
11 ; 2720852.0297367475 ; 1.2479287863012746E8 ; 2.678587538438827E7 ; 1.2268098144652739E9 ; 0.0
12 ; 2918957.399567718 ; 1.2834287365899232E8 ; 2.9506727414125018E7 ; 1.3516026930954013E9 ; 0.0
13 ; 3106394.2580306926 ; 1.3220191795238107E8 ; 3.2425684813692737E7 ; 1.4799455667543936E9 ; 0.0
14 ; 3128219.645444563 ; 1.3637001013744444E8 ; 3.553207907172343E7 ; 1.6121474847067747E9 ; 0.0
15 ; 3137005.9754673545 ; 1.40847148304384E8 ; 3.8660298717167996E7 ; 1.7485174948442192E9 ; 0.0
16 ; 3143411.6579289385 ; 1.4563333001842645E8 ; 4.179730469263535E7 ; 1.8893646431486032E9 ; 0.0
17 ; 3152165.198770734 ; 1.5072855233491203E8 ; 4.4940716350564286E7 ; 2.0349979731670296E9 ; 0.0
18 ; 3157498.6166291707 ; 1.5613281181728274E8 ; 4.809288154933502E7 ; 2.1857265255019417E9 ; 0.0
19 ; 3166326.5505345287 ; 1.6184610455771443E8 ; 5.1250380165964186E7 ; 2.3418593373192244E9 ; 0.0
20 ; 3172849.1983611537 ; 1.6786842620010927E8 ; 5.441670671649872E7 ; 2.503705441876939E9 ; 0.0
21 ; 3181082.7622759426 ; 1.741997719651409E8 ; 5.758955591485987E7 ; 2.6715738680770483E9 ; 0.0
22 ; 3187714.941404022 ; 1.808401366770286E8 ; 6.077063867713581E7 ; 2.845773640042189E9 ; 0.0
23 ; 3197896.6484882594 ; 1.8778951479170722E8 ; 6.395835361853983E7 ; 3.026613776719218E9 ; 0.0
24 ; 3203883.7751802634 ; 1.950479004260577E8 ; 6.71562502670281E7 ; 3.214403291510925E9 ; 0.0
25 ; 3209916.378819927 ; 2.013033282860521E8 ; 7.036013404220836E7 ; 3.4094511919369826E9 ; 0.0
26 ; 3218366.3804476224 ; 2.013093397340197E8 ; 7.357005042102829E7 ; 3.610754520223035E9 ; 0.0
27 ; 3225260.400132688 ; 2.013156973440255E8 ; 7.678841680147591E7 ; 3.8120638599570546E9 ; 0.0
28 ; 3231403.259092653 ; 2.013223941789377E8 ; 8.00136772016086E7 ; 4.01337955730108E9 ; 0.0
29 ; 3240803.434346038 ; 2.013294231135255E8 ; 8.324508046070126E7 ; 4.214701951480018E9 ; 0.0
30 ; 3249356.5724175735 ; 2.0133677686363417E8 ; 8.648588389504729E7 ; 4.416031374593544E9 ; 0.0
31 ; 3256588.566687817 ; 2.0134444801447424E8 ; 8.973524046746486E7 ; 4.617368151457178E9 ; 0.0
32 ; 3261440.0625752546 ; 2.0135242904784626E8 ; 9.299182903415269E7 ; 4.818712599471652E9 ; 0.0
33 ; 3270922.437233706 ; 2.0136071236815047E8 ; 9.625326909672794E7 ; 5.020065028519498E9 ; 0.0
34 ; 3276178.4958274914 ; 2.0136929032706067E8 ; 9.952419153396164E7 ; 5.221425740887649E9 ; 0.0
35 ; 3279626.9877227633 ; 2.0137815524676725E8 ; 1.0280037002978913E8 ; 5.422795031214709E9 ; 0.0
36 ; 3289346.3272904856 ; 2.013872994417225E8 ; 1.060799970175119E8 ; 5.624173186461476E9 ; 0.0
37 ; 3295797.623308904 ; 2.0139671523884356E8 ; 1.093693433448024E8 ; 5.825560485903199E9 ; 0.0
38 ; 3299790.475180706 ; 2.01406394996152E8 ; 1.1266514096811129E8 ; 6.026957201142043E9 ; 0.0
39 ; 3304783.062485086 ; 2.0141633111984783E8 ; 1.1596493144329199E8 ; 6.228363596138195E9 ; 0.0
40 ; 3307780.488731554 ; 2.014265160798335E8 ; 1.1926971450577708E8 ; 6.429779927258043E9 ; 0.0
41 ; 3316364.0940636396 ; 2.0143694242371905E8 ; 1.2257749499450862E8 ; 6.631206443337877E9 ; 0.0
42 ; 3318309.7704572827 ; 2.0144760278935093E8 ; 1.2589385908857226E8 ; 6.832643385761597E9 ; 0.0
43 ; 3324024.9679320618 ; 2.0145848991591945E8 ; 1.2921216885902955E8 ; 7.034090988550947E9 ; 0.0
44 ; 3323658.164948729 ; 2.0146959665370637E8 ; 1.325361938269616E8 ; 7.2355494784668665E9 ; 0.0
45 ; 3327095.7583186133 ; 2.0148091597254145E8 ; 1.3585985199191034E8 ; 7.437019075120573E9 ; 0.0
46 ; 3330644.923542545 ; 2.014924409690416E8 ; 1.3918694775022894E8 ; 7.638499991093115E9 ; 0.0
47 ; 3334534.766508203 ; 2.0150416487270874E8 ; 1.425175926737715E8 ; 7.839992432062157E9 ; 0.0
48 ; 3337202.0816895603 ; 2.0151608105096444E8 ; 1.458521274402797E8 ; 8.041496596934865E9 ; 0.0
49 ; 3341237.4267867166 ; 2.015281830131997E8 ; 1.4918932952196926E8 ; 8.243012677985829E9 ; 0.0
50 ; 3342317.4250258207 ; 2.0154046441391793E8 ; 1.5253056694875598E8 ; 8.444540860999029E9 ; 0.0
51 ; 3343588.387395035 ; 2.0155291905504748E8 ; 1.558728843737818E8 ; 8.646081325412947E9 ; 0.0
52 ; 3343419.698083986 ; 2.0156554088749748E8 ; 1.5921647276117682E8 ; 8.847634244467995E9 ; 0.0
53 ; 3348217.4598548925 ; 2.0157832401202905E8 ; 1.6255989245926082E8 ; 9.049199785355492E9 ; 0.0
54 ; 3347819.5610603895 ; 2.0159126267950976E8 ; 1.6590810991911572E8 ; 9.250778109367521E9 ; 0.0
55 ; 3349946.1794017744 ; 2.016043512906161E8 ; 1.6925592948017612E8 ; 9.452369372047031E9 ; 0.0
56 ; 3349335.98265557 ; 2.0161758439504552E8 ; 1.726058756595779E8 ; 9.653973723337648E9 ; 0.0
57 ; 3351996.379140809 ; 2.016309566902947E8 ; 1.759552116422335E8 ; 9.855591307732695E9 ; 0.0
58 ; 3353101.156084915 ; 2.016444630200578E8 ; 1.793072080213743E8 ; 1.0057222264422989E10 ; 0.0
59 ; 3353420.0078623635 ; 2.01658098372294E8 ; 1.826603091774592E8 ; 1.0258866727443047E10 ; 0.0
60 ; 3354037.9107987997 ; 2.0167185787701046E8 ; 1.8601372918532157E8 ; 1.046052482581534E10 ; 0.0
61 ; 3355707.4213541322 ; 2.0168573680380175E8 ; 1.8936776709612036E8 ; 1.066219668369235E10 ; 0.0
62 ; 3355653.6609865665 ; 2.0169973055918533E8 ; 1.927234745174745E8 ; 1.0863882420496153E10 ; 0.0
63 ; 3358350.5313419164 ; 2.0171383468376687E8 ; 1.9607912817846107E8 ; 1.1065582151055338E10 ; 0.0
64 ; 3359148.7731297147 ; 2.0172804484926802E8 ; 1.99437478709803E8 ; 1.1267295985739105E10 ; 0.0
65 ; 3358734.846361017 ; 2.0174235685544446E8 ; 2.027966274829327E8 ; 1.1469024030588373E10 ; 0.0
66 ; 3359721.3924056706 ; 2.0175676662692052E8 ; 2.061553623292937E8 ; 1.1670766387443817E10 ; 0.0
67 ; 3357930.1598922727 ; 2.0177127020996293E8 ; 2.0951508372169936E8 ; 1.1872523154070738E10 ; 0.0
68 ; 3360688.556886709 ; 2.0178586376921442E8 ; 2.1287301388159162E8 ; 1.20742944242807E10 ; 0.0
69 ; 3362156.827989367 ; 2.018005435844053E8 ; 2.1623370243847832E8 ; 1.2276080288049915E10 ; 0.0
70 ; 3362234.6505336342 ; 2.0181530604705885E8 ; 2.195958592664677E8 ; 1.2477880831634321E10 ; 0.0
71 ; 3361812.2735661087 ; 2.0183014765720472E8 ; 2.2295809391700134E8 ; 1.267969613768138E10 ; 0.0
72 ; 3364232.164923162 ; 2.0184506502011272E8 ; 2.2631990619056743E8 ; 1.2881526285338585E10 ; 0.0
73 ; 3362428.0753224418 ; 2.018600548430571E8 ; 2.296841383554906E8 ; 1.3083371350358698E10 ; 0.0
74 ; 3361021.152796011 ; 2.0187511393212116E8 ; 2.3304656643081304E8 ; 1.3285231405201756E10 ; 0.0
75 ; 3362644.792500926 ; 2.0189023918904933E8 ; 2.3640758758360904E8 ; 1.3487106519133877E10 ; 0.0
76 ; 3361758.930963282 ; 2.0190542760815367E8 ; 2.3977023237610996E8 ; 1.3688996758322926E10 ; 0.0
77 ; 3363686.057553491 ; 2.0192067627328023E8 ; 2.4313199130707324E8 ; 1.389090218593108E10 ; 0.0
78 ; 3361409.3154302374 ; 2.0193598235483938E8 ; 2.4649567736462674E8 ; 1.4092822862204361E10 ; 0.0
79 ; 3360310.484038607 ; 2.019513431069046E8 ; 2.4985708668005696E8 ; 1.42947588445592E10 ; 0.0
80 ; 3356497.2304132385 ; 2.0196675586438143E8 ; 2.5321739716409558E8 ; 1.4496710187666105E10 ; 0.0
81 ; 3355584.1054087994 ; 2.019822180402499E8 ; 2.565738943945088E8 ; 1.4698676943530487E10 ; 0.0
82 ; 3354376.696261091 ; 2.0199772712288117E8 ; 2.599294784999176E8 ; 1.4900659161570738E10 ; 0.0
83 ; 3351449.4195559453 ; 2.020132806734297E8 ; 2.6328385519617867E8 ; 1.5102656888693619E10 ; 0.0
84 ; 3349358.2635354735 ; 2.020288763233018E8 ; 2.666353046157346E8 ; 1.5304670169367048E10 ; 0.0
85 ; 3345747.195354576 ; 2.020445117717001E8 ; 2.699846628792701E8 ; 1.550669904569035E10 ; 0.0
86 ; 3343320.6937428615 ; 2.0206018478324434E8 ; 2.7333041007462466E8 ; 1.570874355746205E10 ; 0.0
87 ; 3340575.029022352 ; 2.0207589318566746E8 ; 2.766737307683675E8 ; 1.5910803742245295E10 ; 0.0
88 ; 3337406.3736559427 ; 2.0209163486758673E8 ; 2.8001430579738986E8 ; 1.6112879635430962E10 ; 0.0
89 ; 3332391.753014235 ; 2.0210740777634853E8 ; 2.833517121710458E8 ; 1.6314971270298548E10 ; 0.0
90 ; 3327552.3786926433 ; 2.021232099159457E8 ; 2.8668410392406E8 ; 1.6517078678074896E10 ; 0.0
91 ; 3325318.230561164 ; 2.021390393450064E8 ; 2.900116563027526E8 ; 1.671920188799084E10 ; 0.0
92 ; 3326000.5401867284 ; 2.0215489417485243E8 ; 2.9333697453331375E8 ; 1.6921340927335848E10 ; 0.0
93 ; 3323077.344911583 ; 2.0217077256762612E8 ; 2.9666297507350045E8 ; 1.71234958215107E10 ; 0.0
94 ; 3316813.1142146797 ; 2.0218667273448366E8 ; 2.99986052418412E8 ; 1.7325666594078327E10 ; 0.0
95 ; 3312902.1430055886 ; 2.0220259293385345E8 ; 3.033028655326267E8 ; 1.752785326681281E10 ; 0.0
96 ; 3311826.970555468 ; 2.0221853146975735E8 ; 3.066157676756323E8 ; 1.7730055859746662E10 ; 0.0
97 ; 3308309.6568209757 ; 2.0223448669019344E8 ; 3.099275946461878E8 ; 1.793227439121642E10 ; 0.0
98 ; 3305997.4041214143 ; 2.0225045698557836E8 ; 3.1323590430300874E8 ; 1.8134508877906612E10 ; 0.0
99 ; 3304317.922311764 ; 2.0226644078724703E8 ; 3.1654190170713013E8 ; 1.833675933489219E10 ; 0.0
100 ; 3298539.9942975584 ; 2.0228243656600878E8 ; 3.198462196294419E8 ; 1.8539025775679436E10 ; 0.0
101 ; 3299310.6902060155 ; 2.022984428307569E8 ; 3.231447596237395E8 ; 1.8741308212245445E10 ; 0.0
102 ; 3291613.189246786 ; 2.0231445812713107E8 ; 3.264440703139455E8 ; 1.8943606655076202E10 ; 0.0
103 ; 3286177.292658176 ; 2.0233048103622997E8 ; 3.2973568350319225E8 ; 1.9145921113203335E10 ; 0.0
104 ; 3284844.745131417 ; 2.0234651017337257E8 ; 3.330218607958504E8 ; 1.9348251594239563E10 ; 0.0
105 ; 3280060.638213496 ; 2.023625441869068E8 ; 3.363067055409818E8 ; 1.9550598104412937E10 ; 0.0
106 ; 3275777.5912139444 ; 2.0237858175706336E8 ; 3.3958676617919534E8 ; 1.9752960648599846E10 ; 0.0
107 ; 3273546.375433 ; 2.023946215948532E8 ; 3.428625437704093E8 ; 1.995533923035691E10 ; 0.0
108 ; 3268956.398083495 ; 2.024106624410074E8 ; 3.461360901458423E8 ; 2.0157733851951763E10 ; 0.0
109 ; 3266327.43476724 ; 2.0242670306495732E8 ; 3.494050465439258E8 ; 2.036014451439277E10 ; 0.0
110 ; 3262017.888236448 ; 2.0244274226385403E8 ; 3.5267137397869307E8 ; 2.0562571217457726E10 ; 0.0
111 ; 3255465.4484279766 ; 2.0245877886162528E8 ; 3.5593339186692953E8 ; 2.076501395972158E10 ; 0.0
112 ; 3253086.007780427 ; 2.0247481170806855E8 ; 3.591888573153575E8 ; 2.0967472738583206E10 ; 0.0
113 ; 3249820.5007735575 ; 2.024908396779789E8 ; 3.6244194332313794E8 ; 2.1169947550291275E10 ; 0.0
114 ; 3245215.2839904334 ; 2.0250686167031038E8 ; 3.656917638239115E8 ; 2.1372438389969254E10 ; 0.0
115 ; 3240887.302390332 ; 2.0252287660736945E8 ; 3.6893697910790193E8 ; 2.1574945251639565E10 ; 0.0
116 ; 3239571.2788615506 ; 2.0253888343403935E8 ; 3.7217786641029227E8 ; 2.1777468128246933E10 ; 0.0
117 ; 3231442.74304355 ; 2.025548811170342E8 ; 3.754174376891538E8 ; 2.1980007011680973E10 ; 0.0
118 ; 3229207.8161807065 ; 2.0257086864418152E8 ; 3.7864888043219733E8 ; 2.2182561892798008E10 ; 0.0
119 ; 3221801.8894042536 ; 2.0258684502373222E8 ; 3.8187808824837804E8 ; 2.238513276144219E10 ; 0.0
120 ; 3217502.8787323376 ; 2.0260280928369707E8 ; 3.850998901377823E8 ; 2.258771960646592E10 ; 0.0
121 ; 3215094.3941283277 ; 2.0261876047120807E8 ; 3.883173930165146E8 ; 2.2790322415749615E10 ; 0.0
122 ; 3208072.529587844 ; 2.0263469765190455E8 ; 3.915324874106429E8 ; 2.299294117622082E10 ; 0.0
123 ; 3203924.9911348727 ; 2.0265061990934226E8 ; 3.947405599402308E8 ; 2.3195575873872726E10 ; 0.0
124 ; 3198548.1824206864 ; 2.02666526344425E8 ; 3.9794448493136567E8 ; 2.339822649378207E10 ; 0.0
125 ; 3194637.8085053773 ; 2.026824160748578E8 ; 4.0114303311378634E8 ; 2.3600893020126495E10 ; 0.0
126 ; 3189399.8217102154 ; 2.0269828823462057E8 ; 4.043376709222917E8 ; 2.3803575436201355E10 ; 0.0
127 ; 3185096.666628455 ; 2.0271414197346172E8 ; 4.075270707440019E8 ; 2.4006273724435974E10 ; 0.0
128 ; 3178007.6244366453 ; 2.0272997645641083E8 ; 4.107121674106304E8 ; 2.4208987866409435E10 ; 0.0
129 ; 3175706.8679165677 ; 2.0274579086330953E8 ; 4.13890175035067E8 ; 2.4411717842865845E10 ; 0.0
130 ; 3171008.505654386 ; 2.0276158438835993E8 ; 4.170658819029836E8 ; 2.4614463633729153E10 ; 0.0
131 ; 3160439.840053194 ; 2.0277735623968998E8 ; 4.20236890408638E8 ; 2.481722521811751E10 ; 0.0
132 ; 3155320.396950228 ; 2.0279310563893482E8 ; 4.233973302486912E8 ; 2.50200025743572E10 ; 0.0
133 ; 3144687.1736551914 ; 2.0280883182083404E8 ; 4.2655265064564145E8 ; 2.5222795679996136E10 ; 0.0
134 ; 3136744.775169916 ; 2.0282453403284347E8 ; 4.2969733781929666E8 ; 2.542560451181697E10 ; 0.0
135 ; 3130957.2781015197 ; 2.028402115347615E8 ; 4.3283408259446657E8 ; 2.5628429045849815E10 ; 0.0
136 ; 3124875.3714243975 ; 2.0285586359836915E8 ; 4.359650398725681E8 ; 2.583126925738458E10 ; 0.0
137 ; 3113151.5963646346 ; 2.0287148950708342E8 ; 4.3908991524399245E8 ; 2.603412512098295E10 ; 0.0
138 ; 3106631.893831504 ; 2.0288708855562308E8 ; 4.4220306684035707E8 ; 2.6236996610490032E10 ; 0.0
139 ; 3098553.096960208 ; 2.0290266004968706E8 ; 4.4530969873418856E8 ; 2.6439883699045654E10 ; 0.0
140 ; 3091257.2617154038 ; 2.0291820330564418E8 ; 4.4840825183114874E8 ; 2.664278635909534E10 ; 0.0
141 ; 3080681.141121014 ; 2.0293371765023443E8 ; 4.5149950909286416E8 ; 2.6845704562400986E10 ; 0.0
142 ; 3075520.0690544886 ; 2.0294920242028078E8 ; 4.545801902339852E8 ; 2.704863828005122E10 ; 0.0
143 ; 3065183.823171009 ; 2.0296465696241176E8 ; 4.5765571030303967E8 ; 2.72515874824715E10 ; 0.0
144 ; 3056234.182716074 ; 2.0298008063279364E8 ; 4.607208941262107E8 ; 2.745455213943391E10 ; 0.0
145 ; 3052231.056715685 ; 2.0299547279687247E8 ; 4.6377712830892676E8 ; 2.7657532220066704E10 ; 0.0
146 ; 3047455.505705245 ; 2.030108328291253E8 ; 4.668293593656424E8 ; 2.7860527692863575E10 ; 0.0
147 ; 3043220.855757206 ; 2.030261601128201E8 ; 4.6987681487134767E8 ; 2.80635385256927E10 ; 0.0
148 ; 3035634.590041037 ; 2.0304145403978458E8 ; 4.7292003572710484E8 ; 2.826656468580552E10 ; 0.0
149 ; 3031654.008228386 ; 2.0305671401018277E8 ; 4.759556703171459E8 ; 2.8469606139845303E10 ; 0.0
150 ; 3029605.499065737 ; 2.0307193943229976E8 ; 4.7898732432537425E8 ; 2.8672662853855484E10 ; 0.0
151 ; 3020995.9444589415 ; 2.0308712972233406E8 ; 4.8201692982444E8 ; 2.8875734793287785E10 ; 0.0
152 ; 3018292.1792777823 ; 2.0310228430419698E8 ; 4.8503792576889896E8 ; 2.907882192301012E10 ; 0.0
153 ; 3009888.8511702823 ; 2.0311740260931936E8 ; 4.8805621794817674E8 ; 2.9281924207314316E10 ; 0.0
154 ; 3003063.5070835734 ; 2.0313248407646477E8 ; 4.9106610679934704E8 ; 2.9485041609923634E10 ; 0.0
155 ; 2999036.9625627203 ; 2.0314752815154937E8 ; 4.9406917030643064E8 ; 2.96881740940001E10 ; 0.0
156 ; 2994438.811080083 ; 2.0316253428746805E8 ; 4.970682072689934E8 ; 2.989132162215165E10 ; 0.0
157 ; 2987934.324686708 ; 2.031775019439263E8 ; 5.000626460800735E8 ; 3.0094484156439117E10 ; 0.0
158 ; 2981970.974327051 ; 2.0319243058727834E8 ; 5.030505804047602E8 ; 3.0297661658383045E10 ; 0.0
159 ; 2976431.9051684896 ; 2.0320731969037026E8 ; 5.060325513790872E8 ; 3.050085408897032E10 ; 0.0
160 ; 2973889.598649331 ; 2.0322216873238906E8 ; 5.090089832842557E8 ; 3.070406140866069E10 ; 0.0
161 ; 2964053.0419250997 ; 2.0323697719871655E8 ; 5.11982872882905E8 ; 3.0907283577393078E10 ; 0.0
162 ; 2960687.9641483217 ; 2.0325174458078814E8 ; 5.149469259248301E8 ; 3.1110520554591793E10 ; 0.0
163 ; 2955379.7877814546 ; 2.0326647037595674E8 ; 5.179076138889784E8 ; 3.131377229917258E10 ; 0.0
164 ; 2949191.9000765188 ; 2.03281154087361E8 ; 5.208629936767599E8 ; 3.151703876954854E10 ; 0.0
165 ; 2945426.2416436314 ; 2.0329579522379816E8 ; 5.238121855768364E8 ; 3.17203199236359E10 ; 0.0
166 ; 2939547.998189373 ; 2.0331039329960096E8 ; 5.2675761181848E8 ; 3.1923615718859695E10 ; 0.0
167 ; 2931707.4909530156 ; 2.0332494783451894E8 ; 5.296971598166694E8 ; 3.2126926112159298E10 ; 0.0
168 ; 2927274.1144274557 ; 2.0333945835360363E8 ; 5.3262886730762243E8 ; 3.2330251059993816E10 ; 0.0
169 ; 2921184.860237264 ; 2.033539243870974E8 ; 5.355561414220499E8 ; 3.253359051834742E10 ; 0.0
170 ; 2914120.6096307514 ; 2.0336834547032622E8 ; 5.384773262822871E8 ; 3.2736944442734516E10 ; 0.0
171 ; 2909337.792192123 ; 2.0338272114359593E8 ; 5.413914468919178E8 ; 3.294031278820484E10 ; 0.0
172 ; 2905488.5477707284 ; 2.033970509520918E8 ; 5.443007846841099E8 ; 3.314369550934844E10 ; 0.0
173 ; 2895053.240444521 ; 2.0341133444578165E8 ; 5.472062732318807E8 ; 3.334709256030053E10 ; 0.0
174 ; 2896060.915919639 ; 2.0342557117932183E8 ; 5.501013264723252E8 ; 3.355050389474631E10 ; 0.0
175 ; 2889240.0756836077 ; 2.034397607119666E8 ; 5.529973873882449E8 ; 3.3753929465925632E10 ; 0.0
176 ; 2885214.7198001477 ; 2.0345390260748035E8 ; 5.558866274639285E8 ; 3.39573692266376E10 ; 0.0
177 ; 2880632.161571664 ; 2.034679964340526E8 ; 5.587718421837286E8 ; 3.416082312924508E10 ; 0.0
178 ; 2874714.276575167 ; 2.0348204176421586E8 ; 5.616524743453002E8 ; 3.436429112567913E10 ; 0.0
179 ; 2874345.426657793 ; 2.034960381747662E8 ; 5.645271886218754E8 ; 3.4567773167443344E10 ; 0.0
180 ; 2867232.2160969847 ; 2.0350998524668622E8 ; 5.674015340485332E8 ; 3.477126920561811E10 ; 0.0
181 ; 2862745.243509836 ; 2.0352388256507072E8 ; 5.702687662646302E8 ; 3.49747791908648E10 ; 0.0
182 ; 2857468.676342384 ; 2.0353772971905452E8 ; 5.731315115081401E8 ; 3.517830307342987E10 ; 0.0
183 ; 2854775.410696452 ; 2.0355152630174294E8 ; 5.759889801844825E8 ; 3.5381840803148926E10 ; 0.0
184 ; 2848426.624780724 ; 2.0356527191014415E8 ; 5.78843755595179E8 ; 3.558539232945067E10 ; 0.0
185 ; 2847845.755205925 ; 2.035789661451038E8 ; 5.816921822199597E8 ; 3.578895760136081E10 ; 0.0
186 ; 2840435.79737931 ; 2.0359260861124197E8 ; 5.845400279751656E8 ; 3.599253656750591E10 ; 0.0
187 ; 2836098.815093777 ; 2.0360619891689172E8 ; 5.873804637725449E8 ; 3.619612917611716E10 ; 0.0
188 ; 2831638.0225392836 ; 2.0361973667403993E8 ; 5.902165625876386E8 ; 3.639973537503405E10 ; 0.0
189 ; 2828743.6822233275 ; 2.0363322149826986E8 ; 5.930482006101779E8 ; 3.660335511170809E10 ; 0.0
190 ; 2821446.0344801256 ; 2.036466530087055E8 ; 5.958769442924012E8 ; 3.680698833320636E10 ; 0.0
191 ; 2820186.0820641373 ; 2.0366003082795778E8 ; 5.986983903268813E8 ; 3.7010634986215065E10 ; 0.0
192 ; 2815154.7927221013 ; 2.0367335458207247E8 ; 6.015185764089454E8 ; 3.721429501704302E10 ; 0.0
193 ; 2811160.6705608275 ; 2.0368662390047953E8 ; 6.043337312016675E8 ; 3.741796837162509E10 ; 0.0
194 ; 2803838.604434447 ; 2.0369983841594425E8 ; 6.071448918722284E8 ; 3.762165499552557E10 ; 0.0
195 ; 2798961.372258507 ; 2.0371299776451993E8 ; 6.099487304766629E8 ; 3.782535483394152E10 ; 0.0
196 ; 2795814.2611944126 ; 2.037261015855019E8 ; 6.127476918489214E8 ; 3.802906783170604E10 ; 0.0
197 ; 2793984.8998265113 ; 2.03739149521383E8 ; 6.155435061101159E8 ; 3.823279393329154E10 ; 0.0
198 ; 2785304.750446526 ; 2.0375214121781048E8 ; 6.183374910099424E8 ; 3.843653308281293E10 ; 0.0
199 ; 2781807.409131062 ; 2.037650763235444E8 ; 6.21122795760389E8 ; 3.864028522403074E10 ; 0.0
200 ; 2777777.142325297 ; 1.8203568737165764E8 ; 6.2390460316952E8 ; 3.884405030035429E10 ; 0.0
