CSV File for the City 4 on Day 335
1 - Minute m 
2 - Power Consumed at minute m 
3 - Power Produced at minute m 
4 - Energy Consumed since the beginning of the day 
5 - Energy Produced since the beginning of the day 
6 - Energy Lost since the beginning of the day on lines starting from the city
 
0 ; 6856892.869254937 ; 1.066176532135649E8 ; 0.0 ; 0.0 ; 0.0
1 ; 6863665.669111813 ; 1.0676814169222099E8 ; 6856892.869254937 ; 1.066176532135649E8 ; 0.0
2 ; 6872158.4292214345 ; 1.072276661893715E8 ; 1.372055853836675E7 ; 2.133857949057859E8 ; 0.0
3 ; 6880087.173284772 ; 1.0799622977874029E8 ; 2.0592716967588186E7 ; 3.206134610951574E8 ; 0.0
4 ; 6891945.132006187 ; 1.0907383520294482E8 ; 2.747280414087296E7 ; 4.286096908738977E8 ; 0.0
5 ; 6904128.535901162 ; 1.1046048486240411E8 ; 3.4364749272879146E7 ; 5.376835260768425E8 ; 0.0
6 ; 6917895.348233771 ; 1.1215618080549732E8 ; 4.1268877808780305E7 ; 6.481440109392467E8 ; 0.0
7 ; 6944783.919998041 ; 1.141609247200666E8 ; 4.818677315701407E7 ; 7.60300191744744E8 ; 0.0
8 ; 6974900.783419782 ; 1.164747179263472E8 ; 5.5131557077012114E7 ; 8.744611164648106E8 ; 0.0
9 ; 7023547.298096966 ; 1.1909756137139392E8 ; 6.2106457860431895E7 ; 9.909358343911579E8 ; 0.0
10 ; 7103669.142196043 ; 1.220294556250599E8 ; 6.913000515852886E7 ; 1.1100333957625518E9 ; 0.0
11 ; 7224859.406402511 ; 1.2527040087756678E8 ; 7.623367430072491E7 ; 1.2320628513876116E9 ; 0.0
12 ; 7424704.634419437 ; 1.288203969386929E8 ; 8.345853370712742E7 ; 1.3573332522651784E9 ; 0.0
13 ; 7617219.446896809 ; 1.3267944323858511E8 ; 9.088323834154686E7 ; 1.4861536492038713E9 ; 0.0
14 ; 7636225.705160003 ; 1.368475388301887E8 ; 9.850045778844367E7 ; 1.6188330924424562E9 ; 0.0
15 ; 7652145.754452386 ; 1.413246823932683E8 ; 1.0613668349360368E8 ; 1.755680631272645E9 ; 0.0
16 ; 7655138.910088761 ; 1.4611087223998186E8 ; 1.1378882924805607E8 ; 1.8970053136659133E9 ; 0.0
17 ; 7664559.555797883 ; 1.5120610632195017E8 ; 1.2144396815814483E8 ; 2.0431161859058952E9 ; 0.0
18 ; 7674204.970018601 ; 1.566103822387542E8 ; 1.2910852771394272E8 ; 2.194322292227845E9 ; 0.0
19 ; 7684971.758606678 ; 1.6232369724777654E8 ; 1.3678273268396133E8 ; 2.3509326744665995E9 ; 0.0
20 ; 7694190.376272921 ; 1.6834604827529326E8 ; 1.44467704442568E8 ; 2.513256371714376E9 ; 0.0
21 ; 7701636.777342299 ; 1.7467743192871323E8 ; 1.5216189481884092E8 ; 2.6816024199896693E9 ; 0.0
22 ; 7712610.025461497 ; 1.813178445098514E8 ; 1.598635315961832E8 ; 2.8562798519183826E9 ; 0.0
23 ; 7719958.9640189195 ; 1.8826728202911943E8 ; 1.675761416216447E8 ; 3.037597696428234E9 ; 0.0
24 ; 7729211.012677261 ; 1.95525740220509E8 ; 1.7529610058566362E8 ; 3.2258649784573536E9 ; 0.0
25 ; 7739362.768813806 ; 2.0178125545542696E8 ; 1.8302531159834087E8 ; 3.4213907186778626E9 ; 0.0
26 ; 7746487.830735848 ; 2.0178737079578346E8 ; 1.907646743671547E8 ; 3.62317197413329E9 ; 0.0
27 ; 7756313.0976821575 ; 2.0179385053550264E8 ; 1.9851116219789055E8 ; 3.8249593449290733E9 ; 0.0
28 ; 7766005.749640783 ; 2.0180068946419403E8 ; 2.062674752955727E8 ; 4.026753195464576E9 ; 0.0
29 ; 7775228.216368117 ; 2.018078821774677E8 ; 2.140334810452135E8 ; 4.2285538849287696E9 ; 0.0
30 ; 7780552.64049211 ; 2.0181542309406078E8 ; 2.218087092615816E8 ; 4.430361767106237E9 ; 0.0
31 ; 7792933.956387198 ; 2.0182330647291133E8 ; 2.295892619020737E8 ; 4.632177190200298E9 ; 0.0
32 ; 7799899.080073082 ; 2.0183152643007767E8 ; 2.373821958584609E8 ; 4.834000496673209E9 ; 0.0
33 ; 7808397.784828105 ; 2.0184007695540914E8 ; 2.45182094938534E8 ; 5.035832023103287E9 ; 0.0
34 ; 7814114.004975865 ; 2.018489519288827E8 ; 2.529904927233621E8 ; 5.237672100058696E9 ; 0.0
35 ; 7822522.55275508 ; 2.0185814513652787E8 ; 2.6080460672833794E8 ; 5.439521051987578E9 ; 0.0
36 ; 7832533.760717698 ; 2.018676502858728E8 ; 2.68627129281093E8 ; 5.641379197124106E9 ; 0.0
37 ; 7838176.96032979 ; 2.0187746102085117E8 ; 2.764596630418107E8 ; 5.843246847409979E9 ; 0.0
38 ; 7844953.891111429 ; 2.0188757093612102E8 ; 2.8429784000214046E8 ; 6.04512430843083E9 ; 0.0
39 ; 7850289.996902104 ; 2.018979735907529E8 ; 2.921427938932519E8 ; 6.247011879366951E9 ; 0.0
40 ; 7859312.719223986 ; 2.0190866252125534E8 ; 2.99993083890154E8 ; 6.448909852957704E9 ; 0.0
41 ; 7862812.377830508 ; 2.0191963125391147E8 ; 3.07852396609378E8 ; 6.650818515478959E9 ; 0.0
42 ; 7869674.466606764 ; 2.0193087331641012E8 ; 3.157152089872085E8 ; 6.85273814673287E9 ; 0.0
43 ; 7873428.318360651 ; 2.0194238224876052E8 ; 3.235848834538152E8 ; 7.05466902004928E9 ; 0.0
44 ; 7882356.613261829 ; 2.0195415161348587E8 ; 3.3145831177217585E8 ; 7.25661140229804E9 ; 0.0
45 ; 7884208.406266444 ; 2.0196617500509852E8 ; 3.3934066838543767E8 ; 7.458565553911527E9 ; 0.0
46 ; 7887371.218063354 ; 2.019784460588627E8 ; 3.472248767917041E8 ; 7.660531728916625E9 ; 0.0
47 ; 7891961.882046408 ; 2.0199095845885664E8 ; 3.551122480097675E8 ; 7.862510174975488E9 ; 0.0
48 ; 7895703.254071084 ; 2.0200370594534957E8 ; 3.630042098918139E8 ; 8.064501133434344E9 ; 0.0
49 ; 7899988.838914547 ; 2.0201668232151264E8 ; 3.7089991314588493E8 ; 8.266504839379694E9 ; 0.0
50 ; 7901169.467512332 ; 2.0202988145948508E8 ; 3.787999019847995E8 ; 8.468521521701206E9 ; 0.0
51 ; 7905216.878515218 ; 2.0204329730582058E8 ; 3.867010714523118E8 ; 8.670551403160692E9 ; 0.0
52 ; 7906599.058970565 ; 2.0205692388633925E8 ; 3.9460628833082706E8 ; 8.872594700466513E9 ; 0.0
53 ; 7908055.590915453 ; 2.0207075531041303E8 ; 4.025128873897976E8 ; 9.074651624352852E9 ; 0.0
54 ; 7912418.648123711 ; 2.020847857747131E8 ; 4.1042094298071307E8 ; 9.276722379663265E9 ; 0.0
55 ; 7914493.090962812 ; 2.0209900956644827E8 ; 4.1833336162883675E8 ; 9.478807165437979E9 ; 0.0
56 ; 7920630.482053036 ; 2.0211342106612414E8 ; 4.262478547197996E8 ; 9.680906175004427E9 ; 0.0
57 ; 7919405.312937093 ; 2.0212801474985233E8 ; 4.341684852018526E8 ; 9.88301959607055E9 ; 0.0
58 ; 7917995.5526862005 ; 2.021427851912392E8 ; 4.420878905147897E8 ; 1.0085147610820404E10 ; 0.0
59 ; 7922994.408275405 ; 2.0215772706288338E8 ; 4.500058860674759E8 ; 1.0287290396011642E10 ; 0.0
60 ; 7925885.494593296 ; 2.0217283513750944E8 ; 4.5792888047575134E8 ; 1.0489448123074526E10 ; 0.0
61 ; 7928334.400670813 ; 2.0218810428876624E8 ; 4.6585476597034466E8 ; 1.0691620958212036E10 ; 0.0
62 ; 7930543.50680376 ; 2.0220352949171606E8 ; 4.737831003710155E8 ; 1.0893809062500803E10 ; 0.0
63 ; 7933530.221619167 ; 2.022191058230399E8 ; 4.8171364387781924E8 ; 1.109601259199252E10 ; 0.0
64 ; 7932370.704637678 ; 2.0223482846098405E8 ; 4.896471740994384E8 ; 1.129823169781556E10 ; 0.0
65 ; 7933513.711835508 ; 2.0225069268507084E8 ; 4.9757954480407614E8 ; 1.1500466526276543E10 ; 0.0
66 ; 7938302.770290466 ; 2.02266693875596E8 ; 5.0551305851591164E8 ; 1.1702717218961613E10 ; 0.0
67 ; 7938851.705422109 ; 2.022828275129334E8 ; 5.1345136128620213E8 ; 1.1904983912837208E10 ; 0.0
68 ; 7942361.8772079 ; 2.0229908917666775E8 ; 5.2139021299162424E8 ; 1.2107266740350142E10 ; 0.0
69 ; 7943138.3183014365 ; 2.0231547454457244E8 ; 5.293325748688321E8 ; 1.230956582952681E10 ; 0.0
70 ; 7946564.395950621 ; 2.0233197939145163E8 ; 5.372757131871336E8 ; 1.2511881304071383E10 ; 0.0
71 ; 7944214.061406042 ; 2.023485995878617E8 ; 5.452222775830842E8 ; 1.2714213283462833E10 ; 0.0
72 ; 7946500.12078409 ; 2.0236533109872746E8 ; 5.531664916444902E8 ; 1.2916561883050695E10 ; 0.0
73 ; 7946621.942880824 ; 2.023821699818677E8 ; 5.611129917652743E8 ; 1.3118927214149424E10 ; 0.0
74 ; 7946994.482228284 ; 2.023991123864423E8 ; 5.690596137081552E8 ; 1.332130938413129E10 ; 0.0
75 ; 7952566.318321617 ; 2.0241615455133358E8 ; 5.770066081903834E8 ; 1.3523708496517733E10 ; 0.0
76 ; 7949623.697961951 ; 2.0243329280347246E8 ; 5.84959174508705E8 ; 1.3726124651069067E10 ; 0.0
77 ; 7952669.451985774 ; 2.024505235561198E8 ; 5.92908798206667E8 ; 1.392855794387254E10 ; 0.0
78 ; 7950491.851373779 ; 2.0246784330711234E8 ; 6.008614676586527E8 ; 1.413100846742866E10 ; 0.0
79 ; 7948544.570503042 ; 2.0248524863708106E8 ; 6.088119595100265E8 ; 1.4333476310735771E10 ; 0.0
80 ; 7948538.759687779 ; 2.025027362076504E8 ; 6.167605040805295E8 ; 1.4535961559372852E10 ; 0.0
81 ; 7946982.178136338 ; 2.0252030275962493E8 ; 6.247090428402172E8 ; 1.4738464295580503E10 ; 0.0
82 ; 7945126.9676073985 ; 2.0253794511116958E8 ; 6.326560250183536E8 ; 1.4940984598340128E10 ; 0.0
83 ; 7942167.570366856 ; 2.025556601559895E8 ; 6.40601151985961E8 ; 1.5143522543451298E10 ; 0.0
84 ; 7938228.580306373 ; 2.0257344486151427E8 ; 6.485433195563278E8 ; 1.5346078203607286E10 ; 0.0
85 ; 7938095.378561873 ; 2.0259129626709118E8 ; 6.564815481366342E8 ; 1.5548651648468801E10 ; 0.0
86 ; 7940050.689696095 ; 2.0260921148219162E8 ; 6.644196435151961E8 ; 1.5751242944735893E10 ; 0.0
87 ; 7933421.621456995 ; 2.0262718768463403E8 ; 6.723596942048922E8 ; 1.5953852156218084E10 ; 0.0
88 ; 7932889.155334229 ; 2.0264522211882642E8 ; 6.802931158263491E8 ; 1.6156479343902718E10 ; 0.0
89 ; 7929532.666389951 ; 2.0266331209403178E8 ; 6.882260049816834E8 ; 1.6359124566021544E10 ; 0.0
90 ; 7924930.232964753 ; 2.0268145498265788E8 ; 6.961555376480733E8 ; 1.6561787878115576E10 ; 0.0
91 ; 7924752.748937272 ; 2.0269964821857435E8 ; 7.040804678810381E8 ; 1.6764469333098234E10 ; 0.0
92 ; 7924504.3025869755 ; 2.027178892954582E8 ; 7.120052206299753E8 ; 1.6967168981316809E10 ; 0.0
93 ; 7919848.782233434 ; 2.0273617576516962E8 ; 7.199297249325624E8 ; 1.7169886870612267E10 ; 0.0
94 ; 7921448.49985879 ; 2.02754505236159E8 ; 7.278495737147958E8 ; 1.7372623046377438E10 ; 0.0
95 ; 7917213.157565859 ; 2.027728753719063E8 ; 7.357710222146546E8 ; 1.7575377551613598E10 ; 0.0
96 ; 7914887.689926351 ; 2.0279128388939378E8 ; 7.436882353722204E8 ; 1.7778150426985504E10 ; 0.0
97 ; 7912778.607149498 ; 2.028097285576121E8 ; 7.516031230621468E8 ; 1.7980941710874897E10 ; 0.0
98 ; 7907223.715595197 ; 2.0282820719610083E8 ; 7.595159016692963E8 ; 1.818375143943251E10 ; 0.0
99 ; 7905969.015078001 ; 2.0284671767352352E8 ; 7.674231253848915E8 ; 1.8386579646628613E10 ; 0.0
100 ; 7902345.493641257 ; 2.0286525790627694E8 ; 7.753290943999695E8 ; 1.8589426364302135E10 ; 0.0
101 ; 7903287.844829099 ; 2.0288382585713556E8 ; 7.832314398936107E8 ; 1.8792291622208412E10 ; 0.0
102 ; 7899386.089639828 ; 2.0290241953392997E8 ; 7.911347277384398E8 ; 1.8995175448065548E10 ; 0.0
103 ; 7894353.634844303 ; 2.029210369882602E8 ; 7.990341138280796E8 ; 1.919807786759948E10 ; 0.0
104 ; 7888265.67298411 ; 2.029396763142429E8 ; 8.069284674629239E8 ; 1.9400998904587738E10 ; 0.0
105 ; 7885857.338511735 ; 2.029583356472924E8 ; 8.14816733135908E8 ; 1.960393858090198E10 ; 0.0
106 ; 7882976.004189104 ; 2.0297701316293517E8 ; 8.227025904744197E8 ; 1.9806896916549274E10 ; 0.0
107 ; 7883257.158357845 ; 2.029957070756573E8 ; 8.305855664786088E8 ; 2.0009873929712208E10 ; 0.0
108 ; 7875476.127250068 ; 2.0301441563778442E8 ; 8.384688236369667E8 ; 2.0212869636787865E10 ; 0.0
109 ; 7872251.512790329 ; 2.0303313713839364E8 ; 8.463442997642168E8 ; 2.0415884052425648E10 ; 0.0
110 ; 7869576.011347107 ; 2.030518699022567E8 ; 8.542165512770071E8 ; 2.061891718956404E10 ; 0.0
111 ; 7868064.8718318865 ; 2.0307061228881407E8 ; 8.620861272883542E8 ; 2.0821969059466297E10 ; 0.0
112 ; 7862713.282873929 ; 2.0308936269117913E8 ; 8.69954192160186E8 ; 2.102503967175511E10 ; 0.0
113 ; 7858877.965700606 ; 2.03108119535172E8 ; 8.778169054430599E8 ; 2.122812903444629E10 ; 0.0
114 ; 7854988.7022457905 ; 2.0312688127838182E8 ; 8.856757834087605E8 ; 2.143123715398146E10 ; 0.0
115 ; 7850280.322925594 ; 2.0314564640925798E8 ; 8.935307721110064E8 ; 2.1634364035259842E10 ; 0.0
116 ; 7850101.940970038 ; 2.0316441344622797E8 ; 9.01381052433932E8 ; 2.18375096816691E10 ; 0.0
117 ; 7844283.767526767 ; 2.0318318093684295E8 ; 9.09231154374902E8 ; 2.204067409511533E10 ; 0.0
118 ; 7839824.294067099 ; 2.032019474569488E8 ; 9.170754381424288E8 ; 2.2243857276052174E10 ; 0.0
119 ; 7836709.432301279 ; 2.032207116098831E8 ; 9.249152624364959E8 ; 2.244705922350912E10 ; 0.0
120 ; 7830871.493722415 ; 2.0323947202569678E8 ; 9.327519718687972E8 ; 2.2650279935119003E10 ; 0.0
121 ; 7829163.552364902 ; 2.0325822736039987E8 ; 9.405828433625196E8 ; 2.28535194071447E10 ; 0.0
122 ; 7822635.559046754 ; 2.032769762952308E8 ; 9.484120069148846E8 ; 2.30567776345051E10 ; 0.0
123 ; 7816594.828914542 ; 2.032957175359486E8 ; 9.562346424739313E8 ; 2.326005461080033E10 ; 0.0
124 ; 7812715.903234328 ; 2.0331444981214705E8 ; 9.640512373028458E8 ; 2.346335032833628E10 ; 0.0
125 ; 7808704.020582787 ; 2.033331718765906E8 ; 9.718639532060802E8 ; 2.3666664778148426E10 ; 0.0
126 ; 7805438.504811026 ; 2.0335188250457114E8 ; 9.79672657226663E8 ; 2.3869997950025017E10 ; 0.0
127 ; 7798890.666946293 ; 2.0337058049328482E8 ; 9.87478095731474E8 ; 2.4073349832529587E10 ; 0.0
128 ; 7792994.114062436 ; 2.0338926466122904E8 ; 9.952769863984203E8 ; 2.4276720413022873E10 ; 0.0
129 ; 7791136.00249063 ; 2.03407933847618E8 ; 1.0030699805124828E9 ; 2.44801096776841E10 ; 0.0
130 ; 7785733.849904322 ; 2.034265869118172E8 ; 1.0108611165149734E9 ; 2.468351761153172E10 ; 0.0
131 ; 7777185.786302931 ; 2.0344522273279548E8 ; 1.0186468503648777E9 ; 2.4886944198443535E10 ; 0.0
132 ; 7771124.140283979 ; 2.0346384020859483E8 ; 1.0264240361511806E9 ; 2.509038942117633E10 ; 0.0
133 ; 7760960.762619571 ; 2.034824382558167E8 ; 1.0341951602914646E9 ; 2.5293853261384926E10 ; 0.0
134 ; 7754508.979502714 ; 2.0350101580912492E8 ; 1.0419561210540842E9 ; 2.5497335699640743E10 ; 0.0
135 ; 7749038.966363055 ; 2.035195718207643E8 ; 1.0497106300335869E9 ; 2.5700836715449867E10 ; 0.0
136 ; 7738018.204735228 ; 2.0353810526009434E8 ; 1.0574596689999499E9 ; 2.590435628727063E10 ; 0.0
137 ; 7732709.614024617 ; 2.0355661511313817E8 ; 1.0651976872046852E9 ; 2.6107894392530724E10 ; 0.0
138 ; 7724211.703317508 ; 2.035751003821454E8 ; 1.0729303968187099E9 ; 2.631145100764386E10 ; 0.0
139 ; 7716948.911363798 ; 2.0359356008516926E8 ; 1.0806546085220273E9 ; 2.6515026108026005E10 ; 0.0
140 ; 7710304.447435173 ; 2.0361199325565675E8 ; 1.088371557433391E9 ; 2.6718619668111176E10 ; 0.0
141 ; 7704581.302094708 ; 2.036303989420522E8 ; 1.0960818618808262E9 ; 2.6922231661366833E10 ; 0.0
142 ; 7695267.77675286 ; 2.0364877620741308E8 ; 1.103786443182921E9 ; 2.7125862060308884E10 ; 0.0
143 ; 7686328.493704523 ; 2.036671241290382E8 ; 1.111481710959674E9 ; 2.7329510836516296E10 ; 0.0
144 ; 7677926.857830492 ; 2.0368544179810768E8 ; 1.1191680394533784E9 ; 2.7533177960645336E10 ; 0.0
145 ; 7672806.584327437 ; 2.0370372831933403E8 ; 1.126845966311209E9 ; 2.7736863402443443E10 ; 0.0
146 ; 7665765.679463784 ; 2.037219828106247E8 ; 1.1345187728955364E9 ; 2.794056713076278E10 ; 0.0
147 ; 7662328.60160521 ; 2.0374020440275487E8 ; 1.1421845385750003E9 ; 2.8144289113573402E10 ; 0.0
148 ; 7656928.915865253 ; 2.0375839223905095E8 ; 1.1498468671766055E9 ; 2.834802931797616E10 ; 0.0
149 ; 7648949.328174738 ; 2.037765454750836E8 ; 1.1575037960924706E9 ; 2.855178771021521E10 ; 0.0
150 ; 7642853.011745462 ; 2.0379466327837083E8 ; 1.1651527454206455E9 ; 2.8755564255690292E10 ; 0.0
151 ; 7639180.70481836 ; 2.0381274482809013E8 ; 1.172795598432391E9 ; 2.8959358918968662E10 ; 0.0
152 ; 7635291.02158314 ; 2.0383078931479985E8 ; 1.1804347791372092E9 ; 2.9163171663796753E10 ; 0.0
153 ; 7625903.161302994 ; 2.0384879594016907E8 ; 1.1880700701587923E9 ; 2.9367002453111553E10 ; 0.0
154 ; 7624710.948023144 ; 2.0386676391671613E8 ; 1.1956959733200953E9 ; 2.9570851249051723E10 ; 0.0
155 ; 7617827.920080808 ; 2.038846924675552E8 ; 1.2033206842681184E9 ; 2.977471801296844E10 ; 0.0
156 ; 7610306.277405674 ; 2.0390258082615075E8 ; 1.2109385121881993E9 ; 2.9978602705435997E10 ; 0.0
157 ; 7607059.496519031 ; 2.0392042823607978E8 ; 1.218548818465605E9 ; 3.0182505286262146E10 ; 0.0
158 ; 7600693.020218267 ; 2.0393823395080125E8 ; 1.226155877962124E9 ; 3.0386425714498226E10 ; 0.0
159 ; 7592244.003168474 ; 2.0395599723343283E8 ; 1.2337565709823425E9 ; 3.0590363948449028E10 ; 0.0
160 ; 7591278.262094739 ; 2.0397371735653442E8 ; 1.241348814985511E9 ; 3.079431994568246E10 ; 0.0
161 ; 7583752.805361431 ; 2.0399139360189846E8 ; 1.2489400932476058E9 ; 3.0998293663038994E10 ; 0.0
162 ; 7577945.787375006 ; 2.0400902526034665E8 ; 1.2565238460529673E9 ; 3.1202285056640892E10 ; 0.0
163 ; 7573289.445823576 ; 2.04026611631533E8 ; 1.2641017918403423E9 ; 3.1406294081901237E10 ; 0.0
164 ; 7564417.037280578 ; 2.0404415202375275E8 ; 1.271675081286166E9 ; 3.1610320693532772E10 ; 0.0
165 ; 7561209.106626095 ; 2.0406164575375742E8 ; 1.2792394983234465E9 ; 3.1814364845556526E10 ; 0.0
166 ; 7554406.291356315 ; 2.0407909214657524E8 ; 1.2868007074300725E9 ; 3.2018426491310284E10 ; 0.0
167 ; 7551335.220531909 ; 2.0409649053533733E8 ; 1.2943551137214289E9 ; 3.222250558345686E10 ; 0.0
168 ; 7543264.785774961 ; 2.041138402611089E8 ; 1.3019064489419608E9 ; 3.2426602073992195E10 ; 0.0
169 ; 7534390.72792381 ; 2.0413114067272583E8 ; 1.3094497137277358E9 ; 3.2630715914253304E10 ; 0.0
170 ; 7531956.303557664 ; 2.041483911266361E8 ; 1.3169841044556596E9 ; 3.283484705492603E10 ; 0.0
171 ; 7523793.917460182 ; 2.0416559098674595E8 ; 1.3245160607592173E9 ; 3.3038995446052666E10 ; 0.0
172 ; 7517474.847670856 ; 2.0418273962427095E8 ; 1.3320398546766775E9 ; 3.3243161037039413E10 ; 0.0
173 ; 7512673.206698424 ; 2.041998364175912E8 ; 1.3395573295243483E9 ; 3.3447343776663685E10 ; 0.0
174 ; 7508304.606534047 ; 2.0421688075211123E8 ; 1.3470700027310467E9 ; 3.3651543613081276E10 ; 0.0
175 ; 7508761.996099432 ; 2.0423387202012387E8 ; 1.3545783073375807E9 ; 3.3855760493833385E10 ; 0.0
176 ; 7501184.970881754 ; 2.042508096206783E8 ; 1.3620870693336802E9 ; 3.4059994365853508E10 ; 0.0
177 ; 7499423.23781384 ; 2.0426769295945212E8 ; 1.3695882543045619E9 ; 3.4264245175474186E10 ; 0.0
178 ; 7496440.911525143 ; 2.0428452144862714E8 ; 1.3770876775423758E9 ; 3.446851286843364E10 ; 0.0
179 ; 7490971.245713596 ; 2.0430129450676882E8 ; 1.384584118453901E9 ; 3.467279738988226E10 ; 0.0
180 ; 7486508.64988754 ; 2.0431801155870947E8 ; 1.3920750896996148E9 ; 3.487709868438903E10 ; 0.0
181 ; 7483197.4359132815 ; 2.0433467203543484E8 ; 1.3995615983495023E9 ; 3.508141669594774E10 ; 0.0
182 ; 7480500.384995958 ; 2.0435127537397397E8 ; 1.4070447957854156E9 ; 3.528575136798318E10 ; 0.0
183 ; 7478096.362627865 ; 2.0436782101729247E8 ; 1.4145252961704116E9 ; 3.5490102643357155E10 ; 0.0
184 ; 7473936.632830726 ; 2.043843084141888E8 ; 1.4220033925330396E9 ; 3.569447046437445E10 ; 0.0
185 ; 7469037.369489906 ; 2.0440073701919374E8 ; 1.4294773291658702E9 ; 3.589885477278864E10 ; 0.0
186 ; 7464067.820626339 ; 2.044171062924727E8 ; 1.43694636653536E9 ; 3.610325550980784E10 ; 0.0
187 ; 7459448.429733644 ; 2.0443341569973087E8 ; 1.4444104343559864E9 ; 3.630767261610031E10 ; 0.0
188 ; 7456783.799309907 ; 2.044496647121215E8 ; 1.45186988278572E9 ; 3.651210603180004E10 ; 0.0
189 ; 7455301.181532696 ; 2.044658528061562E8 ; 1.45932666658503E9 ; 3.671655569651216E10 ; 0.0
190 ; 7449297.58402582 ; 2.0448197946361852E8 ; 1.4667819677665627E9 ; 3.692102154931832E10 ; 0.0
191 ; 7447011.971879305 ; 2.044980441714797E8 ; 1.4742312653505886E9 ; 3.712550352878194E10 ; 0.0
192 ; 7445565.86042826 ; 2.045140464218169E8 ; 1.4816782773224678E9 ; 3.7330001572953415E10 ; 0.0
193 ; 7437738.442463532 ; 2.0452998571173382E8 ; 1.4891238431828961E9 ; 3.753451561937523E10 ; 0.0
194 ; 7437879.38452237 ; 2.0454586154328373E8 ; 1.4965615816253598E9 ; 3.773904560508696E10 ; 0.0
195 ; 7432449.842262523 ; 2.0456167342339462E8 ; 1.5039994610098822E9 ; 3.794359146663024E10 ; 0.0
196 ; 7430222.633123737 ; 2.0457742086379635E8 ; 1.5114319108521447E9 ; 3.8148153140053635E10 ; 0.0
197 ; 7426709.384984512 ; 2.045931033809504E8 ; 1.5188621334852684E9 ; 3.8352730560917435E10 ; 0.0
198 ; 7420703.720479426 ; 2.0460872049598092E8 ; 1.5262888428702528E9 ; 3.8557323664298386E10 ; 0.0
199 ; 7417446.592457662 ; 1.946882021845481E8 ; 1.5337095465907323E9 ; 3.8761932384794365E10 ; 0.0
200 ; 7414204.95381309 ; 1.5614783154874757E8 ; 1.54112699318319E9 ; 3.895662058697891E10 ; 0.0
201 ; 7408515.232164864 ; 1.5581518148927638E8 ; 1.5485411981370032E9 ; 3.911276841852766E10 ; 0.0
