CSV File for the City 1 on Day 192
1 - Minute m 
2 - Power Consumed at minute m 
3 - Power Produced at minute m 
4 - Energy Consumed since the beginning of the day 
5 - Energy Produced since the beginning of the day 
6 - Energy Lost since the beginning of the day on lines starting from the city
 
0 ; 2151288.412691259 ; 1.054400340795317E8 ; 0.0 ; 0.0 ; 0.0
1 ; 2173027.1789081525 ; 1.0559286950248146E8 ; 2151288.412691259 ; 1.054400340795317E8 ; 0.0
2 ; 2187057.7936083376 ; 1.06054496188966E8 ; 4324315.591599411 ; 2.1103290358201316E8 ; 0.0
3 ; 2209827.2416935787 ; 1.0682491642019218E8 ; 6511373.385207749 ; 3.1708739977097917E8 ; 0.0
4 ; 2229904.149704942 ; 1.0790413225544846E8 ; 8721200.626901329 ; 4.2391231619117135E8 ; 0.0
5 ; 2262167.786533207 ; 1.0929214551576728E8 ; 1.0951104776606271E7 ; 5.318164484466198E8 ; 0.0
6 ; 2304212.1290049204 ; 1.1098895776906785E8 ; 1.3213272563139478E7 ; 6.411085939623871E8 ; 0.0
7 ; 2355141.3171271356 ; 1.1299457031705457E8 ; 1.5517484692144398E7 ; 7.52097551731455E8 ; 0.0
8 ; 2433438.810080734 ; 1.1530898418411994E8 ; 1.7872626009271532E7 ; 8.650921220485096E8 ; 0.0
9 ; 2554983.286421931 ; 1.1793220010847151E8 ; 2.0306064819352265E7 ; 9.804011062326295E8 ; 0.0
10 ; 2734981.933856494 ; 1.2086421853566045E8 ; 2.2861048105774198E7 ; 1.0983333063411012E9 ; 0.0
11 ; 3024176.640908076 ; 1.2410503961464438E8 ; 2.5596030039630692E7 ; 1.2191975248767617E9 ; 0.0
12 ; 3489036.766269433 ; 1.2765466319646564E8 ; 2.862020668053877E7 ; 1.343302564491406E9 ; 0.0
13 ; 3936630.0438483716 ; 1.3151308883557308E8 ; 3.2109243446808204E7 ; 1.4709572276878717E9 ; 0.0
14 ; 3990101.4051117166 ; 1.3568031579375923E8 ; 3.604587349065658E7 ; 1.6024703165234447E9 ; 0.0
15 ; 4009999.690903468 ; 1.4015634304663146E8 ; 4.003597489576829E7 ; 1.738150632317204E9 ; 0.0
16 ; 4033491.9464411093 ; 1.449411692924855E8 ; 4.404597458667176E7 ; 1.8783069753638353E9 ; 0.0
17 ; 4058347.2682846 ; 1.5003479296340206E8 ; 4.807946653311287E7 ; 2.0232481446563208E9 ; 0.0
18 ; 4079763.5110918838 ; 1.5543721223834872E8 ; 5.213781380139747E7 ; 2.173282937619723E9 ; 0.0
19 ; 4099083.7901353845 ; 1.61148425058037E8 ; 5.621757731248935E7 ; 2.3287201498580713E9 ; 0.0
20 ; 4123455.4252697364 ; 1.6716842914126006E8 ; 6.031666110262474E7 ; 2.489868574916108E9 ; 0.0
21 ; 4150418.5767637254 ; 1.7349722200242218E8 ; 6.4440116527894475E7 ; 2.6570370040573683E9 ; 0.0
22 ; 4167388.6023569894 ; 1.801348009699641E8 ; 6.85905351046582E7 ; 2.8305342260597906E9 ; 0.0
23 ; 4188811.952602471 ; 1.870811632053905E8 ; 7.275792370701519E7 ; 3.0106690270297546E9 ; 0.0
24 ; 4214393.711280833 ; 1.943363057226156E8 ; 7.694673565961766E7 ; 3.197750190235145E9 ; 0.0
25 ; 4238710.621665575 ; 2.005882663055407E8 ; 8.11611293708985E7 ; 3.392086495957761E9 ; 0.0
26 ; 4261822.517678685 ; 2.0059058956414574E8 ; 8.539983999256408E7 ; 3.5926747622633014E9 ; 0.0
27 ; 4279341.472347229 ; 2.0059304147816747E8 ; 8.966166251024276E7 ; 3.793265351827447E9 ; 0.0
28 ; 4303006.0096093435 ; 2.0059561866203165E8 ; 9.394100398258999E7 ; 3.9938583933056145E9 ; 0.0
29 ; 4324652.68799217 ; 2.0059831767547852E8 ; 9.824400999219933E7 ; 4.194454011967646E9 ; 0.0
30 ; 4345705.077632247 ; 2.0060113504002902E8 ; 1.025686626801915E8 ; 4.395052329643125E9 ; 0.0
31 ; 4371552.545571282 ; 2.0060406725443226E8 ; 1.0691436775782375E8 ; 4.595653464683153E9 ; 0.0
32 ; 4389003.040914936 ; 2.00607110809018E8 ; 1.1128592030339503E8 ; 4.796257531937586E9 ; 0.0
33 ; 4411180.033832961 ; 2.006102621989035E8 ; 1.1567492334430997E8 ; 4.996864642746604E9 ; 0.0
34 ; 4429631.483780588 ; 2.0061351793603012E8 ; 1.2008610337814294E8 ; 5.197474904945507E9 ; 0.0
35 ; 4452175.7819236405 ; 2.006168745600233E8 ; 1.2451573486192353E8 ; 5.398088422881537E9 ; 0.0
36 ; 4468599.448016872 ; 2.00620328647891E8 ; 1.2896791064384717E8 ; 5.598705297441561E9 ; 0.0
37 ; 4489633.7076686155 ; 2.0062387682258913E8 ; 1.3343651009186403E8 ; 5.799325626089452E9 ; 0.0
38 ; 4507202.448551855 ; 2.0062751576049593E8 ; 1.3792614379953265E8 ; 5.999949502912041E9 ; 0.0
39 ; 4523743.032648116 ; 2.0063124219784728E8 ; 1.4243334624808452E8 ; 6.200577018672537E9 ; 0.0
40 ; 4539107.467956107 ; 2.0063505293619177E8 ; 1.4695708928073263E8 ; 6.401208260870384E9 ; 0.0
41 ; 4560628.727400268 ; 2.0063894484693068E8 ; 1.5149619674868873E8 ; 6.601843313806576E9 ; 0.0
42 ; 4569490.62732129 ; 2.0064291487500963E8 ; 1.56056825476089E8 ; 6.802482258653506E9 ; 0.0
43 ; 4580617.213461603 ; 2.00646960041832E8 ; 1.606263161034103E8 ; 7.003125173528516E9 ; 0.0
44 ; 4600655.696468472 ; 2.006510774474627E8 ; 1.652069333168719E8 ; 7.203772133570348E9 ; 0.0
45 ; 4610170.015525862 ; 2.0065526427219096E8 ; 1.6980758901334038E8 ; 7.404423211017811E9 ; 0.0
46 ; 4624398.756488067 ; 2.0065951777751783E8 ; 1.7441775902886623E8 ; 7.605078475290002E9 ; 0.0
47 ; 4631898.619022786 ; 2.0066383530663198E8 ; 1.790421577853543E8 ; 7.80573799306752E9 ; 0.0
48 ; 4644669.872908275 ; 2.0066821428443408E8 ; 1.8367405640437707E8 ; 8.006401828374152E9 ; 0.0
49 ; 4655418.685789102 ; 2.0067265221716535E8 ; 1.8831872627728534E8 ; 8.2070700426585865E9 ; 0.0
50 ; 4663689.506064186 ; 2.0067714669169343E8 ; 1.9297414496307445E8 ; 8.4077426948757515E9 ; 0.0
51 ; 4672263.232212619 ; 2.0068169537450376E8 ; 1.9763783446913862E8 ; 8.608419841567446E9 ; 0.0
52 ; 4681972.400416495 ; 2.0068629601044056E8 ; 2.0231009770135126E8 ; 8.80910153694195E9 ; 0.0
53 ; 4691463.708578177 ; 2.0069094642123815E8 ; 2.0699207010176775E8 ; 9.00978783295239E9 ; 0.0
54 ; 4696551.856408012 ; 2.0069564450387883E8 ; 2.1168353381034592E8 ; 9.210478779373629E9 ; 0.0
55 ; 4706736.067854643 ; 2.0070038822881028E8 ; 2.1638008566675392E8 ; 9.411174423877508E9 ; 0.0
56 ; 4717133.672230743 ; 2.0070517563805172E8 ; 2.2108682173460856E8 ; 9.611874812106318E9 ; 0.0
57 ; 4721092.350043385 ; 2.007100048432148E8 ; 2.258039554068393E8 ; 9.81257998774437E9 ; 0.0
58 ; 4731695.174946414 ; 2.0071487402346233E8 ; 2.305250477568827E8 ; 1.0013289992587584E10 ; 0.0
59 ; 4738328.879733973 ; 2.0071978142342475E8 ; 2.3525674293182912E8 ; 1.0214004866611046E10 ; 0.0
60 ; 4742346.325462168 ; 2.0072472535109204E8 ; 2.399950718115631E8 ; 1.0414724648034472E10 ; 0.0
61 ; 4751958.219447564 ; 2.0072970417569646E8 ; 2.4473741813702527E8 ; 1.0615449373385563E10 ; 0.0
62 ; 4754270.975010794 ; 2.0073471632559854E8 ; 2.4948937635647282E8 ; 1.081617907756126E10 ; 0.0
63 ; 4768487.736428384 ; 2.0073976028618824E8 ; 2.542436473314836E8 ; 1.1016913793886858E10 ; 0.0
64 ; 4768715.258723743 ; 2.0074483459781018E8 ; 2.5901213506791198E8 ; 1.1217653554173046E10 ; 0.0
65 ; 4780574.794240798 ; 2.007499378537209E8 ; 2.6378085032663572E8 ; 1.1418398388770857E10 ; 0.0
66 ; 4785042.461398121 ; 2.0075506869808483E8 ; 2.685614251208765E8 ; 1.1619148326624578E10 ; 0.0
67 ; 4794603.003379426 ; 2.00760225824014E8 ; 2.733464675822746E8 ; 1.1819903395322662E10 ; 0.0
68 ; 4800822.021739988 ; 2.0076540797165596E8 ; 2.78141070585654E8 ; 1.2020663621146677E10 ; 0.0
69 ; 4808725.636641145 ; 2.0077061392633304E8 ; 2.82941892607394E8 ; 1.2221429029118334E10 ; 0.0
70 ; 4812732.348087646 ; 2.0077584251673546E8 ; 2.877506182440351E8 ; 1.2422199643044666E10 ; 0.0
71 ; 4818858.272199164 ; 2.0078109261317024E8 ; 2.925633505921228E8 ; 1.2622975485561401E10 ; 0.0
72 ; 4822787.459026813 ; 2.0078636312586683E8 ; 2.9738220886432195E8 ; 1.2823756578174572E10 ; 0.0
73 ; 4828357.050181544 ; 2.0079165300334013E8 ; 3.0220499632334876E8 ; 1.3024542941300438E10 ; 0.0
74 ; 4834281.989906918 ; 2.007969612308115E8 ; 3.070333533735303E8 ; 1.3225334594303778E10 ; 0.0
75 ; 4838724.064269528 ; 2.0080228682868698E8 ; 3.1186763536343724E8 ; 1.342613155553459E10 ; 0.0
76 ; 4845079.131854067 ; 2.0080762885109267E8 ; 3.167063594277068E8 ; 1.3626933842363277E10 ; 0.0
77 ; 4853870.339937609 ; 2.0081298638446632E8 ; 3.2155143855956084E8 ; 1.382774147121437E10 ; 0.0
78 ; 4853507.178480633 ; 2.0081835854620436E8 ; 3.2640530889949846E8 ; 1.4028554457598837E10 ; 0.0
79 ; 4854927.576734263 ; 2.008237444833628E8 ; 3.312588160779791E8 ; 1.422937281614504E10 ; 0.0
80 ; 4849423.511026636 ; 2.008291433714113E8 ; 3.3611374365471333E8 ; 1.4430196560628403E10 ; 0.0
81 ; 4851489.09726709 ; 2.0083455441303843E8 ; 3.4096316716573995E8 ; 1.4631025703999813E10 ; 0.0
82 ; 4848144.652159108 ; 2.008399768370071E8 ; 3.4581465626300704E8 ; 1.4831860258412851E10 ; 0.0
83 ; 4852887.5120687345 ; 2.0084540989705825E8 ; 3.5066280091516614E8 ; 1.5032700235249859E10 ; 0.0
84 ; 4849775.0908847 ; 2.008508528708615E8 ; 3.555156884272349E8 ; 1.5233545645146917E10 ; 0.0
85 ; 4849332.2733349325 ; 2.0085630505901098E8 ; 3.603654635181196E8 ; 1.5434396498017778E10 ; 0.0
86 ; 4842768.234906229 ; 2.0086176578406477E8 ; 3.652147957914545E8 ; 1.563525280307679E10 ; 0.0
87 ; 4844106.214647728 ; 2.008672343896262E8 ; 3.7005756402636075E8 ; 1.5836114568860855E10 ; 0.0
88 ; 4842777.389349326 ; 2.0087271023946592E8 ; 3.7490167024100846E8 ; 1.603698180325048E10 ; 0.0
89 ; 4833494.074118681 ; 2.0087819271668214E8 ; 3.797444476303578E8 ; 1.6237854513489946E10 ; 0.0
90 ; 4839821.532482589 ; 2.0088368122289866E8 ; 3.845779417044765E8 ; 1.6438732706206629E10 ; 0.0
91 ; 4837059.92325508 ; 2.0088917517749825E8 ; 3.8941776323695904E8 ; 1.6639616387429527E10 ; 0.0
92 ; 4835804.269315624 ; 2.0089467401689038E8 ; 3.942548231602141E8 ; 1.6840505562607025E10 ; 0.0
93 ; 4838438.867795565 ; 2.009001771938116E8 ; 3.990906274295297E8 ; 1.7041400236623915E10 ; 0.0
94 ; 4831489.291750358 ; 2.009056841766574E8 ; 4.039290662973253E8 ; 1.7242300413817726E10 ; 0.0
95 ; 4828078.947012695 ; 2.009111944488438E8 ; 4.087605555890757E8 ; 1.7443206097994385E10 ; 0.0
96 ; 4824138.141356517 ; 2.0091670750819775E8 ; 4.135886345360884E8 ; 1.764411729244323E10 ; 0.0
97 ; 4826978.371618257 ; 2.0092222286637494E8 ; 4.1841277267744493E8 ; 1.7845033999951427E10 ; 0.0
98 ; 4822398.853982912 ; 2.009277400483035E8 ; 4.232397510490632E8 ; 1.8045956222817802E10 ; 0.0
99 ; 4820815.964551538 ; 2.0093325859165305E8 ; 4.2806214990304613E8 ; 1.8246883962866104E10 ; 0.0
100 ; 4814450.393012923 ; 2.0093877804632705E8 ; 4.328829658675977E8 ; 1.8447817221457756E10 ; 0.0
101 ; 4814138.3637210475 ; 2.0094429797397846E8 ; 4.3769741626061064E8 ; 1.864875599950408E10 ; 0.0
102 ; 4812822.623373825 ; 2.009498179475465E8 ; 4.425115546243317E8 ; 1.884970029747806E10 ; 0.0
103 ; 4809401.460533321 ; 2.009553375508147E8 ; 4.473243772477055E8 ; 1.905065011542561E10 ; 0.0
104 ; 4802693.8286883235 ; 2.0096085637798804E8 ; 4.5213377870823884E8 ; 1.9251605452976425E10 ; 0.0
105 ; 4801384.04440051 ; 2.0096637403328952E8 ; 4.5693647253692716E8 ; 1.9452566309354412E10 ; 0.0
106 ; 4795427.538887201 ; 2.009718901305742E8 ; 4.617378565813277E8 ; 1.9653532683387703E10 ; 0.0
107 ; 4794596.377460672 ; 2.009774042929605E8 ; 4.665332841202149E8 ; 1.9854504573518276E10 ; 0.0
108 ; 4787690.282143433 ; 2.009829161524779E8 ; 4.7132788049767554E8 ; 2.0055481977811237E10 ; 0.0
109 ; 4782436.684274426 ; 2.009884253497301E8 ; 4.7611557077981895E8 ; 2.0256464893963715E10 ; 0.0
110 ; 4783728.053853226 ; 2.0099393153357294E8 ; 4.808980074640934E8 ; 2.0457453319313446E10 ; 0.0
111 ; 4771962.396145226 ; 2.009994343608065E8 ; 4.856817355179466E8 ; 2.065844725084702E10 ; 0.0
112 ; 4772579.033771479 ; 2.0100493349588072E8 ; 4.904536979140918E8 ; 2.0859446685207825E10 ; 0.0
113 ; 4764596.600756753 ; 2.0101042861061373E8 ; 4.952262769478633E8 ; 2.1060451618703705E10 ; 0.0
114 ; 4761318.792819876 ; 2.0101591938392255E8 ; 4.9999087354862005E8 ; 2.126146204731432E10 ; 0.0
115 ; 4761276.997710123 ; 2.0102140550156528E8 ; 5.047521923414399E8 ; 2.1462477966698242E10 ; 0.0
116 ; 4749665.782991586 ; 2.010268866558947E8 ; 5.0951346933915E8 ; 2.1663499372199806E10 ; 0.0
117 ; 4749996.826606663 ; 2.0103236254562214E8 ; 5.142631351221416E8 ; 2.18645262588557E10 ; 0.0
118 ; 4739197.884965309 ; 2.010378328755917E8 ; 5.190131319487483E8 ; 2.2065558621401325E10 ; 0.0
119 ; 4737559.603914387 ; 2.0104329735656407E8 ; 5.237523298337136E8 ; 2.2266596454276917E10 ; 0.0
120 ; 4731925.708263726 ; 2.0104875570500943E8 ; 5.28489889437628E8 ; 2.246763975163348E10 ; 0.0
121 ; 4726468.053221358 ; 2.0105420764290932E8 ; 5.332218151458917E8 ; 2.266868850733849E10 ; 0.0
122 ; 4721981.949066093 ; 2.0105965289756674E8 ; 5.379482831991131E8 ; 2.28697427149814E10 ; 0.0
123 ; 4710816.646381875 ; 2.010650912014242E8 ; 5.426702651481792E8 ; 2.3070802367878967E10 ; 0.0
124 ; 4708915.576897091 ; 2.0107052229188967E8 ; 5.47381081794561E8 ; 2.327186745908039E10 ; 0.0
125 ; 4699715.567400445 ; 2.0107594591116938E8 ; 5.520899973714582E8 ; 2.347293798137228E10 ; 0.0
126 ; 4696398.848783338 ; 2.0108136180610803E8 ; 5.567897129388586E8 ; 2.367401392728345E10 ; 0.0
127 ; 4687953.370951907 ; 2.010867697280351E8 ; 5.61486111787642E8 ; 2.3875095289089558E10 ; 0.0
128 ; 4685317.963695917 ; 2.0109216943261805E8 ; 5.661740651585939E8 ; 2.4076182058817593E10 ; 0.0
129 ; 4673685.929862116 ; 2.0109756067972118E8 ; 5.708593831222898E8 ; 2.427727422825021E10 ; 0.0
130 ; 4665339.6265356485 ; 2.0110294323327035E8 ; 5.755330690521519E8 ; 2.447837178892993E10 ; 0.0
131 ; 4654049.550555819 ; 2.0110831686112323E8 ; 5.801984086786876E8 ; 2.46794747321632E10 ; 0.0
132 ; 4646724.378518662 ; 2.0111368133494496E8 ; 5.848524582292434E8 ; 2.4880583049024323E10 ; 0.0
133 ; 4629749.091261642 ; 2.0111903643008855E8 ; 5.894991826077621E8 ; 2.508169673035927E10 ; 0.0
134 ; 4616156.476119068 ; 2.0112438192548028E8 ; 5.941289316990237E8 ; 2.5282815766789356E10 ; 0.0
135 ; 4598960.047354196 ; 2.0112971760350972E8 ; 5.987450881751428E8 ; 2.5483940148714836E10 ; 0.0
136 ; 4592434.510941498 ; 2.011350432499241E8 ; 6.03344048222497E8 ; 2.5685069866318344E10 ; 0.0
137 ; 4576249.487315876 ; 2.011403586537268E8 ; 6.079364827334385E8 ; 2.5886204909568268E10 ; 0.0
138 ; 4566233.221443235 ; 2.0114566360707995E8 ; 6.125127322207544E8 ; 2.6087345268221996E10 ; 0.0
139 ; 4548470.344443543 ; 2.011509579052109E8 ; 6.170789654421976E8 ; 2.6288490931829075E10 ; 0.0
140 ; 4538909.856522486 ; 2.0115624134632233E8 ; 6.216274357866411E8 ; 2.6489641889734287E10 ; 0.0
141 ; 4526198.409481686 ; 2.0116151373150572E8 ; 6.261663456431636E8 ; 2.669079813108061E10 ; 0.0
142 ; 4511158.528832597 ; 2.011667748646586E8 ; 6.306925440526452E8 ; 2.6891959644812115E10 ; 0.0
143 ; 4498792.74789575 ; 2.011720245524045E8 ; 6.352037025814778E8 ; 2.7093126419676773E10 ; 0.0
144 ; 4483479.706739882 ; 2.011772626040164E8 ; 6.397024953293735E8 ; 2.729429844422918E10 ; 0.0
145 ; 4479116.68144584 ; 2.0118248883134297E8 ; 6.441859750361134E8 ; 2.7495475706833195E10 ; 0.0
146 ; 4469371.2809158 ; 2.0118770304873762E8 ; 6.486650917175592E8 ; 2.769665819566454E10 ; 0.0
147 ; 4465597.576705308 ; 2.011929050729902E8 ; 6.531344629984751E8 ; 2.7897845898713276E10 ; 0.0
148 ; 4457390.968341634 ; 2.0119809472326162E8 ; 6.576000605751804E8 ; 2.8099038803786266E10 ; 0.0
149 ; 4451497.414623965 ; 2.012032718210205E8 ; 6.62057451543522E8 ; 2.830023689850953E10 ; 0.0
150 ; 4444149.888729802 ; 2.0120843618998256E8 ; 6.66508948958146E8 ; 2.850144017033055E10 ; 0.0
151 ; 4436400.455036097 ; 2.0121358765605202E8 ; 6.709530988468758E8 ; 2.8702648606520535E10 ; 0.0
152 ; 4432901.857788037 ; 2.012187260472655E8 ; 6.753894993019118E8 ; 2.8903862194176586E10 ; 0.0
153 ; 4422081.773677554 ; 2.012238511937378E8 ; 6.798224011596999E8 ; 2.910508092022385E10 ; 0.0
154 ; 4413983.276321241 ; 2.012289629276097E8 ; 6.842444829333775E8 ; 2.9306304771417587E10 ; 0.0
155 ; 4411438.302328972 ; 2.012340610829978E8 ; 6.886584662096988E8 ; 2.9507533734345196E10 ; 0.0
156 ; 4399174.764067143 ; 2.012391454959461E8 ; 6.930699045120277E8 ; 2.9708767795428192E10 ; 0.0
157 ; 4394698.521242421 ; 2.0124421600437945E8 ; 6.974690792760949E8 ; 2.9910006940924137E10 ; 0.0
158 ; 4387816.157730244 ; 2.012492724480587E8 ; 7.018637777973373E8 ; 3.0111251156928516E10 ; 0.0
159 ; 4378608.50852761 ; 2.0125431466853738E8 ; 7.062515939550675E8 ; 3.0312500429376575E10 ; 0.0
160 ; 4372535.905029233 ; 2.0125934250912017E8 ; 7.106302024635952E8 ; 3.0513754744045113E10 ; 0.0
161 ; 4368554.713431382 ; 2.0126435581482255E8 ; 7.150027383686243E8 ; 3.0715014086554234E10 ; 0.0
162 ; 4357549.269198639 ; 2.0126935443233237E8 ; 7.193712930820557E8 ; 3.0916278442369057E10 ; 0.0
163 ; 4350324.934883091 ; 2.0127433820997223E8 ; 7.237288423512543E8 ; 3.1117547796801388E10 ; 0.0
164 ; 4346229.851759188 ; 2.012793069976637E8 ; 7.280791672861375E8 ; 3.131882213501136E10 ; 0.0
165 ; 4337028.433866437 ; 2.0128426064689267E8 ; 7.324253971378967E8 ; 3.1520101442009026E10 ; 0.0
166 ; 4328829.200371629 ; 2.0128919901067573E8 ; 7.36762425571763E8 ; 3.172138570265592E10 ; 0.0
167 ; 4321125.722334995 ; 2.012941219435281E8 ; 7.410912547721347E8 ; 3.1922674901666595E10 ; 0.0
168 ; 4312923.08741075 ; 2.0129902930143237E8 ; 7.454123804944696E8 ; 3.2123969023610123E10 ; 0.0
169 ; 4306822.146571714 ; 2.0130392094180858E8 ; 7.497253035818805E8 ; 3.2325268052911556E10 ; 0.0
170 ; 4297656.045110174 ; 2.013087967234852E8 ; 7.540321257284522E8 ; 3.2526571973853363E10 ; 0.0
171 ; 4296346.133386089 ; 2.0131365650667125E8 ; 7.583297817735624E8 ; 3.2727880770576847E10 ; 0.0
172 ; 4284130.969148888 ; 2.0131850015292922E8 ; 7.626261279069486E8 ; 3.292919442708352E10 ; 0.0
173 ; 4278287.540440971 ; 2.0132332752514917E8 ; 7.669102588760974E8 ; 3.3130512927236446E10 ; 0.0
174 ; 4273185.349892285 ; 2.013281384875236E8 ; 7.711885464165384E8 ; 3.3331836254761597E10 ; 0.0
175 ; 4266577.315810637 ; 2.0133293290552303E8 ; 7.754617317664306E8 ; 3.353316439324912E10 ; 0.0
176 ; 4263169.450923173 ; 2.0133771064587286E8 ; 7.797283090822413E8 ; 3.373449732615464E10 ; 0.0
177 ; 4259285.2678945195 ; 2.0134247157653058E8 ; 7.839914785331645E8 ; 3.3935835036800514E10 ; 0.0
178 ; 4246703.372040738 ; 2.0134721556666392E8 ; 7.88250763801059E8 ; 3.4137177508377045E10 ; 0.0
179 ; 4250001.90890691 ; 2.0135194248663E8 ; 7.924974671730998E8 ; 3.433852472394371E10 ; 0.0
180 ; 4241056.469669334 ; 2.0135665220795462E8 ; 7.967474690820067E8 ; 3.453987666643034E10 ; 0.0
181 ; 4239046.073577898 ; 2.01361344603313E8 ; 8.00988525551676E8 ; 3.47412333186383E10 ; 0.0
182 ; 4234611.935717457 ; 2.013660195465105E8 ; 8.052275716252539E8 ; 3.494259466324161E10 ; 0.0
183 ; 4226164.611442253 ; 2.0137067691246435E8 ; 8.094621835609714E8 ; 3.514396068278812E10 ; 0.0
184 ; 4218654.249740035 ; 2.0137531657718596E8 ; 8.136883481724136E8 ; 3.5345331359700584E10 ; 0.0
185 ; 4215017.976067748 ; 2.013799384177638E8 ; 8.179070024221536E8 ; 3.554670667627777E10 ; 0.0
186 ; 4212494.126576774 ; 2.0138454231234682E8 ; 8.221220203982214E8 ; 3.574808661469553E10 ; 0.0
187 ; 4201169.850308326 ; 2.0138912814012843E8 ; 8.263345145247982E8 ; 3.594947115700788E10 ; 0.0
188 ; 4197617.641220324 ; 2.0139369578133118E8 ; 8.305356843751065E8 ; 3.615086028514801E10 ; 0.0
189 ; 4194899.991840127 ; 2.0139824511719164E8 ; 8.347333020163268E8 ; 3.6352253980929344E10 ; 0.0
190 ; 4188078.7170493333 ; 2.014027760299461E8 ; 8.389282020081669E8 ; 3.655365222604654E10 ; 0.0
191 ; 4181428.5016842294 ; 2.0140728840281656E8 ; 8.431162807252163E8 ; 3.6755055002076485E10 ; 0.0
192 ; 4178840.436294265 ; 2.014117821199973E8 ; 8.472977092269005E8 ; 3.69564622904793E10 ; 0.0
193 ; 4178007.999084796 ; 2.0141625706664175E8 ; 8.514765496631948E8 ; 3.71578740725993E10 ; 0.0
194 ; 4167233.183438814 ; 2.0142071312884998E8 ; 8.556545576622796E8 ; 3.735929032966594E10 ; 0.0
195 ; 4162272.3481168956 ; 2.014251501936564E8 ; 8.598217908457184E8 ; 3.756071104279479E10 ; 0.0
196 ; 4158940.485336268 ; 2.0142956814901817E8 ; 8.639840631938353E8 ; 3.776213619298845E10 ; 0.0
197 ; 4153031.801883336 ; 2.0143396688380355E8 ; 8.681430036791716E8 ; 3.796356576113747E10 ; 0.0
198 ; 4144945.248649458 ; 2.0143834628778103E8 ; 8.722960354810549E8 ; 3.816499972802127E10 ; 0.0
199 ; 4142290.751292596 ; 2.014427062516087E8 ; 8.764409807297044E8 ; 3.836643807430905E10 ; 0.0
200 ; 4135661.5813323087 ; 2.0144704666682392E8 ; 8.80583271480997E8 ; 3.856788078056066E10 ; 0.0
201 ; 4132960.766439274 ; 1.9386843333956614E8 ; 8.847189330623293E8 ; 3.8769327827227486E10 ; 0.0
