CSV File for the City 6 on Day 12
1 - Minute m 
2 - Power Consumed at minute m 
3 - Power Produced at minute m 
4 - Energy Consumed since the beginning of the day 
5 - Energy Produced since the beginning of the day 
6 - Energy Lost since the beginning of the day on lines starting from the city
 
0 ; 8669500.968602128 ; 1.0291846386672223E7 ; 0.0 ; 0.0 ; 0.0
1 ; 8681054.733104156 ; 1.0291846386672223E7 ; 8669500.968602128 ; 1.0291846386672223E7 ; 0.0
2 ; 8689432.721667765 ; 1.0291846386672223E7 ; 1.7350555701706283E7 ; 2.0583692773344446E7 ; 0.0
3 ; 8701620.319395531 ; 1.0291846386672223E7 ; 2.603998842337405E7 ; 3.087553916001667E7 ; 0.0
4 ; 8711399.372570766 ; 1.0291846386672223E7 ; 3.4741608742769584E7 ; 4.116738554668889E7 ; 0.0
5 ; 8727704.407145482 ; 1.0291846386672223E7 ; 4.345300811534035E7 ; 5.145923193336111E7 ; 0.0
6 ; 8750298.92339753 ; 1.0291846386672223E7 ; 5.218071252248584E7 ; 6.1751078320033334E7 ; 0.0
7 ; 8777087.643771427 ; 1.0291846386672223E7 ; 6.093101144588336E7 ; 7.204292470670556E7 ; 0.0
8 ; 8821751.556778189 ; 1.0291846386672223E7 ; 6.970809908965479E7 ; 8.233477109337778E7 ; 0.0
9 ; 8883883.97559934 ; 1.0291846386672223E7 ; 7.852985064643298E7 ; 9.262661748005001E7 ; 0.0
10 ; 8980765.055312168 ; 1.0291846386672223E7 ; 8.741373462203231E7 ; 1.0291846386672224E8 ; 0.0
11 ; 9136164.665176535 ; 1.0291846386672223E7 ; 9.639449967734449E7 ; 1.1321031025339447E8 ; 0.0
12 ; 9383808.448516192 ; 1.0291846386672223E7 ; 1.0553066434252103E8 ; 1.235021566400667E8 ; 0.0
13 ; 9622904.37482985 ; 1.0291846386672223E7 ; 1.1491447279103722E8 ; 1.3379400302673893E8 ; 0.0
14 ; 9649346.301993286 ; 1.0291846386672223E7 ; 1.2453737716586706E8 ; 1.4408584941341114E8 ; 0.0
15 ; 9657880.017748453 ; 1.0291846386672223E7 ; 1.3418672346786034E8 ; 1.5437769580008337E8 ; 0.0
16 ; 9671061.953557672 ; 1.0291846386672223E7 ; 1.438446034856088E8 ; 1.646695421867556E8 ; 0.0
17 ; 9682679.2468274 ; 1.0291846386672223E7 ; 1.5351566543916646E8 ; 1.7496138857342783E8 ; 0.0
18 ; 9695862.550393432 ; 1.0291846386672223E7 ; 1.6319834468599385E8 ; 1.8525323496010005E8 ; 0.0
19 ; 9705662.835986337 ; 1.0291846386672223E7 ; 1.7289420723638728E8 ; 1.9554508134677228E8 ; 0.0
20 ; 9715565.441662008 ; 1.0291846386672223E7 ; 1.8259987007237363E8 ; 2.058369277334445E8 ; 0.0
21 ; 9727537.728737654 ; 1.0291846386672223E7 ; 1.9231543551403564E8 ; 2.1612877412011674E8 ; 0.0
22 ; 9738509.260988155 ; 1.0291846386672223E7 ; 2.020429732427733E8 ; 2.2642062050678897E8 ; 0.0
23 ; 9752314.95737331 ; 1.0291846386672223E7 ; 2.1178148250376144E8 ; 2.367124668934612E8 ; 0.0
24 ; 9763075.617136186 ; 1.0291846386672223E7 ; 2.2153379746113476E8 ; 2.4700431328013343E8 ; 0.0
25 ; 9771419.192896761 ; 1.0291846386672223E7 ; 2.3129687307827094E8 ; 2.5729615966680565E8 ; 0.0
26 ; 9784993.753254907 ; 1.0291846386672223E7 ; 2.410682922711677E8 ; 2.6758800605347788E8 ; 0.0
27 ; 9793786.960767036 ; 1.0291846386672223E7 ; 2.5085328602442262E8 ; 2.778798524401501E8 ; 0.0
28 ; 9807514.449002232 ; 1.0291846386672223E7 ; 2.6064707298518965E8 ; 2.881716988268223E8 ; 0.0
29 ; 9819221.35931069 ; 1.0291846386672223E7 ; 2.704545874341919E8 ; 2.984635452134945E8 ; 0.0
30 ; 9830297.564673731 ; 1.0291846386672223E7 ; 2.8027380879350257E8 ; 3.087553916001667E8 ; 0.0
31 ; 9840024.630851395 ; 1.0291846386672223E7 ; 2.901041063581763E8 ; 3.190472379868389E8 ; 0.0
32 ; 9847381.007659478 ; 1.0291846386672223E7 ; 2.999441309890277E8 ; 3.293390843735111E8 ; 0.0
33 ; 9858941.332263075 ; 1.0291846386672223E7 ; 3.097915119966872E8 ; 3.396309307601833E8 ; 0.0
34 ; 9871688.27759264 ; 1.0291846386672223E7 ; 3.196504533289502E8 ; 3.499227771468555E8 ; 0.0
35 ; 9880224.461581735 ; 1.0291846386672223E7 ; 3.295221416065429E8 ; 3.602146235335277E8 ; 0.0
36 ; 9884121.883361511 ; 1.0291846386672223E7 ; 3.394023660681246E8 ; 3.705064699201999E8 ; 0.0
37 ; 9895397.014838243 ; 1.0291846386672223E7 ; 3.492864879514861E8 ; 3.8079831630687207E8 ; 0.0
38 ; 9903722.389650837 ; 1.0291846386672223E7 ; 3.591818849663243E8 ; 3.9109016269354427E8 ; 0.0
39 ; 9912388.131379876 ; 1.0291846386672223E7 ; 3.6908560735597515E8 ; 4.0138200908021647E8 ; 0.0
40 ; 9919759.371898733 ; 1.0291846386672223E7 ; 3.7899799548735505E8 ; 4.1167385546688867E8 ; 0.0
41 ; 9929131.058073018 ; 1.0291846386672223E7 ; 3.8891775485925376E8 ; 4.2196570185356086E8 ; 0.0
42 ; 9931423.012194004 ; 1.0291846386672223E7 ; 3.988468859173268E8 ; 4.3225754824023306E8 ; 0.0
43 ; 9940952.656926734 ; 1.0291846386672223E7 ; 4.087783089295208E8 ; 4.4254939462690526E8 ; 0.0
44 ; 9945279.02367255 ; 1.0291846386672223E7 ; 4.1871926158644754E8 ; 4.5284124101357746E8 ; 0.0
45 ; 9950769.051884748 ; 1.0291846386672223E7 ; 4.2866454061012006E8 ; 4.6313308740024966E8 ; 0.0
46 ; 9954957.244348152 ; 1.0291846386672223E7 ; 4.386153096620048E8 ; 4.7342493378692186E8 ; 0.0
47 ; 9960618.970761158 ; 1.0291846386672223E7 ; 4.48570266906353E8 ; 4.8371678017359406E8 ; 0.0
48 ; 9965872.757759714 ; 1.0291846386672223E7 ; 4.585308858771142E8 ; 4.9400862656026626E8 ; 0.0
49 ; 9968119.473959342 ; 1.0291846386672223E7 ; 4.6849675863487387E8 ; 5.0430047294693846E8 ; 0.0
50 ; 9972314.398311097 ; 1.0291846386672223E7 ; 4.784648781088332E8 ; 5.1459231933361065E8 ; 0.0
51 ; 9971971.709727218 ; 1.0291846386672223E7 ; 4.884371925071443E8 ; 5.2488416572028285E8 ; 0.0
52 ; 9976842.804507805 ; 1.0291846386672223E7 ; 4.984091642168715E8 ; 5.3517601210695505E8 ; 0.0
53 ; 9979106.170790855 ; 1.0291846386672223E7 ; 5.083860070213793E8 ; 5.454678584936273E8 ; 0.0
54 ; 9979855.945138019 ; 1.0291846386672223E7 ; 5.1836511319217014E8 ; 5.557597048802996E8 ; 0.0
55 ; 9985251.730691468 ; 1.0291846386672223E7 ; 5.283449691373082E8 ; 5.660515512669718E8 ; 0.0
56 ; 9986319.673267238 ; 1.0291846386672223E7 ; 5.383302208679997E8 ; 5.763433976536441E8 ; 0.0
57 ; 9988956.142001681 ; 1.0291846386672223E7 ; 5.483165405412669E8 ; 5.866352440403163E8 ; 0.0
58 ; 9991853.349150905 ; 1.0291846386672223E7 ; 5.583054966832685E8 ; 5.969270904269886E8 ; 0.0
59 ; 9993404.97562467 ; 1.0291846386672223E7 ; 5.682973500324194E8 ; 6.072189368136609E8 ; 0.0
60 ; 9996516.989500012 ; 1.0291846386672223E7 ; 5.782907550080441E8 ; 6.175107832003331E8 ; 0.0
61 ; 1.0000460032447444E7 ; 1.0291846386672223E7 ; 5.882872719975442E8 ; 6.278026295870054E8 ; 0.0
62 ; 1.0000444786210382E7 ; 1.0291846386672223E7 ; 5.982877320299916E8 ; 6.380944759736776E8 ; 0.0
63 ; 1.0000751555083198E7 ; 1.0291846386672223E7 ; 6.08288176816202E8 ; 6.483863223603499E8 ; 0.0
64 ; 1.0003709451060617E7 ; 1.0291846386672223E7 ; 6.182889283712852E8 ; 6.586781687470222E8 ; 0.0
65 ; 9999384.178751975 ; 1.0291846386672223E7 ; 6.282926378223459E8 ; 6.689700151336944E8 ; 0.0
66 ; 1.000639645082967E7 ; 1.0291846386672223E7 ; 6.382920220010978E8 ; 6.792618615203667E8 ; 0.0
67 ; 1.0006394350183543E7 ; 1.0291846386672223E7 ; 6.482984184519274E8 ; 6.895537079070389E8 ; 0.0
68 ; 1.000891676505651E7 ; 1.0291846386672223E7 ; 6.583048128021109E8 ; 6.998455542937112E8 ; 0.0
69 ; 1.0012780313547906E7 ; 1.0291846386672223E7 ; 6.683137295671674E8 ; 7.101374006803834E8 ; 0.0
70 ; 1.0010415566727282E7 ; 1.0291846386672223E7 ; 6.783265098807153E8 ; 7.204292470670557E8 ; 0.0
71 ; 1.0013473016959842E7 ; 1.0291846386672223E7 ; 6.883369254474425E8 ; 7.30721093453728E8 ; 0.0
72 ; 1.001130486159561E7 ; 1.0291846386672223E7 ; 6.983503984644023E8 ; 7.410129398404002E8 ; 0.0
73 ; 1.0012360011219017E7 ; 1.0291846386672223E7 ; 7.08361703325998E8 ; 7.513047862270725E8 ; 0.0
74 ; 1.0015241730992885E7 ; 1.0291846386672223E7 ; 7.18374063337217E8 ; 7.615966326137447E8 ; 0.0
75 ; 1.0015128683049178E7 ; 1.0291846386672223E7 ; 7.283893050682099E8 ; 7.71888479000417E8 ; 0.0
76 ; 1.0014852413939334E7 ; 1.0291846386672223E7 ; 7.384044337512591E8 ; 7.821803253870893E8 ; 0.0
77 ; 1.00130019154697E7 ; 1.0291846386672223E7 ; 7.484192861651984E8 ; 7.924721717737615E8 ; 0.0
78 ; 1.001305869155931E7 ; 1.0291846386672223E7 ; 7.584322880806681E8 ; 8.027640181604338E8 ; 0.0
79 ; 1.0009342841338437E7 ; 1.0291846386672223E7 ; 7.684453467722274E8 ; 8.13055864547106E8 ; 0.0
80 ; 1.000644379348119E7 ; 1.0291846386672223E7 ; 7.784546896135658E8 ; 8.233477109337783E8 ; 0.0
81 ; 1.0003142710044716E7 ; 1.0291846386672223E7 ; 7.88461133407047E8 ; 8.336395573204505E8 ; 0.0
82 ; 1.0000573896706974E7 ; 1.0291846386672223E7 ; 7.984642761170918E8 ; 8.439314037071228E8 ; 0.0
83 ; 9996076.388834065 ; 1.0291846386672223E7 ; 8.084648500137987E8 ; 8.542232500937951E8 ; 0.0
84 ; 9995422.562081987 ; 1.0291846386672223E7 ; 8.184609264026328E8 ; 8.645150964804673E8 ; 0.0
85 ; 9992457.06889176 ; 1.0291846386672223E7 ; 8.284563489647148E8 ; 8.748069428671396E8 ; 0.0
86 ; 9987709.079365121 ; 1.0291846386672223E7 ; 8.384488060336065E8 ; 8.850987892538118E8 ; 0.0
87 ; 9986866.912927952 ; 1.0291846386672223E7 ; 8.484365151129717E8 ; 8.953906356404841E8 ; 0.0
88 ; 9980533.469745954 ; 1.0291846386672223E7 ; 8.584233820258996E8 ; 9.056824820271564E8 ; 0.0
89 ; 9976930.419739226 ; 1.0291846386672223E7 ; 8.684039154956456E8 ; 9.159743284138286E8 ; 0.0
90 ; 9970912.011993049 ; 1.0291846386672223E7 ; 8.783808459153849E8 ; 9.262661748005009E8 ; 0.0
91 ; 9970138.949291058 ; 1.0291846386672223E7 ; 8.883517579273779E8 ; 9.365580211871731E8 ; 0.0
92 ; 9965983.716002202 ; 1.0291846386672223E7 ; 8.98321896876669E8 ; 9.468498675738454E8 ; 0.0
93 ; 9959074.82470259 ; 1.0291846386672223E7 ; 9.082878805926713E8 ; 9.571417139605176E8 ; 0.0
94 ; 9955563.302961951 ; 1.0291846386672223E7 ; 9.182469554173739E8 ; 9.674335603471899E8 ; 0.0
95 ; 9947868.146486111 ; 1.0291846386672223E7 ; 9.282025187203358E8 ; 9.777254067338622E8 ; 0.0
96 ; 9945615.520224784 ; 1.0291846386672223E7 ; 9.38150386866822E8 ; 9.880172531205344E8 ; 0.0
97 ; 9941151.424487796 ; 1.0291846386672223E7 ; 9.480960023870468E8 ; 9.983090995072067E8 ; 0.0
98 ; 9937387.43624353 ; 1.0291846386672223E7 ; 9.580371538115346E8 ; 1.0086009458938789E9 ; 0.0
99 ; 9933862.93565355 ; 1.0291846386672223E7 ; 9.679745412477782E8 ; 1.0188927922805512E9 ; 0.0
100 ; 9929046.093099426 ; 1.0291846386672223E7 ; 9.779084041834317E8 ; 1.0291846386672235E9 ; 0.0
101 ; 9919881.557432607 ; 1.0291846386672223E7 ; 9.878374502765312E8 ; 1.0394764850538957E9 ; 0.0
102 ; 9920494.006787954 ; 1.0291846386672223E7 ; 9.977573318339639E8 ; 1.049768331440568E9 ; 0.0
103 ; 9914586.97644767 ; 1.0291846386672223E7 ; 1.0076778258407518E9 ; 1.0600601778272402E9 ; 0.0
104 ; 9905967.42035558 ; 1.0291846386672223E7 ; 1.0175924128171995E9 ; 1.0703520242139125E9 ; 0.0
105 ; 9901589.484828463 ; 1.0291846386672223E7 ; 1.027498380237555E9 ; 1.0806438706005847E9 ; 0.0
106 ; 9897943.678740285 ; 1.0291846386672223E7 ; 1.0373999697223835E9 ; 1.090935716987257E9 ; 0.0
107 ; 9892936.380310973 ; 1.0291846386672223E7 ; 1.0472979134011238E9 ; 1.1012275633739293E9 ; 0.0
108 ; 9883671.727919243 ; 1.0291846386672223E7 ; 1.0571908497814348E9 ; 1.1115194097606015E9 ; 0.0
109 ; 9879407.391265308 ; 1.0291846386672223E7 ; 1.067074521509354E9 ; 1.1218112561472738E9 ; 0.0
110 ; 9873611.302815214 ; 1.0291846386672223E7 ; 1.0769539289006193E9 ; 1.132103102533946E9 ; 0.0
111 ; 9864756.030826446 ; 1.0291846386672223E7 ; 1.0868275402034345E9 ; 1.1423949489206183E9 ; 0.0
112 ; 9860785.368396556 ; 1.0291846386672223E7 ; 1.0966922962342608E9 ; 1.1526867953072906E9 ; 0.0
113 ; 9855748.847682606 ; 1.0291846386672223E7 ; 1.1065530816026573E9 ; 1.1629786416939628E9 ; 0.0
114 ; 9846602.584139343 ; 1.0291846386672223E7 ; 1.11640883045034E9 ; 1.173270488080635E9 ; 0.0
115 ; 9844361.009085141 ; 1.0291846386672223E7 ; 1.1262554330344794E9 ; 1.1835623344673073E9 ; 0.0
116 ; 9837179.231107747 ; 1.0291846386672223E7 ; 1.1360997940435646E9 ; 1.1938541808539796E9 ; 0.0
117 ; 9830026.75425243 ; 1.0291846386672223E7 ; 1.1459369732746723E9 ; 1.2041460272406518E9 ; 0.0
118 ; 9821386.757452322 ; 1.0291846386672223E7 ; 1.1557670000289247E9 ; 1.214437873627324E9 ; 0.0
119 ; 9815037.192179972 ; 1.0291846386672223E7 ; 1.165588386786377E9 ; 1.2247297200139964E9 ; 0.0
120 ; 9811691.424232876 ; 1.0291846386672223E7 ; 1.1754034239785569E9 ; 1.2350215664006686E9 ; 0.0
121 ; 9802810.33072081 ; 1.0291846386672223E7 ; 1.1852151154027898E9 ; 1.2453134127873409E9 ; 0.0
122 ; 9797189.199943796 ; 1.0291846386672223E7 ; 1.1950179257335107E9 ; 1.2556052591740131E9 ; 0.0
123 ; 9784806.82981654 ; 1.0291846386672223E7 ; 1.2048151149334545E9 ; 1.2658971055606854E9 ; 0.0
124 ; 9780065.56651277 ; 1.0291846386672223E7 ; 1.214599921763271E9 ; 1.2761889519473577E9 ; 0.0
125 ; 9774821.259029564 ; 1.0291846386672223E7 ; 1.224379987329784E9 ; 1.28648079833403E9 ; 0.0
126 ; 9767565.499873897 ; 1.0291846386672223E7 ; 1.2341548085888135E9 ; 1.2967726447207022E9 ; 0.0
127 ; 9757171.264815852 ; 1.0291846386672223E7 ; 1.2439223740886874E9 ; 1.3070644911073744E9 ; 0.0
128 ; 9750082.973949028 ; 1.0291846386672223E7 ; 1.2536795453535032E9 ; 1.3173563374940467E9 ; 0.0
129 ; 9740126.056251999 ; 1.0291846386672223E7 ; 1.2634296283274522E9 ; 1.327648183880719E9 ; 0.0
130 ; 9737642.273571318 ; 1.0291846386672223E7 ; 1.2731697543837042E9 ; 1.3379400302673912E9 ; 0.0
131 ; 9722458.121667996 ; 1.0291846386672223E7 ; 1.2829073966572754E9 ; 1.3482318766540635E9 ; 0.0
132 ; 9715825.935692532 ; 1.0291846386672223E7 ; 1.2926298547789435E9 ; 1.3585237230407357E9 ; 0.0
133 ; 9702248.864793431 ; 1.0291846386672223E7 ; 1.302345680714636E9 ; 1.368815569427408E9 ; 0.0
134 ; 9691809.525630448 ; 1.0291846386672223E7 ; 1.3120479295794296E9 ; 1.3791074158140802E9 ; 0.0
135 ; 9681229.47171721 ; 1.0291846386672223E7 ; 1.32173973910506E9 ; 1.3893992622007525E9 ; 0.0
136 ; 9666178.584220521 ; 1.0291846386672223E7 ; 1.3314209685767772E9 ; 1.3996911085874248E9 ; 0.0
137 ; 9660163.65157468 ; 1.0291846386672223E7 ; 1.3410871471609976E9 ; 1.409982954974097E9 ; 0.0
138 ; 9648545.106657146 ; 1.0291846386672223E7 ; 1.3507473108125722E9 ; 1.4202748013607693E9 ; 0.0
139 ; 9636928.729076723 ; 1.0291846386672223E7 ; 1.3603958559192293E9 ; 1.4305666477474415E9 ; 0.0
140 ; 9620772.500523977 ; 1.0291846386672223E7 ; 1.370032784648306E9 ; 1.4408584941341138E9 ; 0.0
141 ; 9612210.459822746 ; 1.0291846386672223E7 ; 1.37965355714883E9 ; 1.451150340520786E9 ; 0.0
142 ; 9596238.475683836 ; 1.0291846386672223E7 ; 1.3892657676086526E9 ; 1.4614421869074583E9 ; 0.0
143 ; 9583795.046988782 ; 1.0291846386672223E7 ; 1.3988620060843365E9 ; 1.4717340332941306E9 ; 0.0
144 ; 9577545.66758945 ; 1.0291846386672223E7 ; 1.4084458011313252E9 ; 1.4820258796808028E9 ; 0.0
145 ; 9567807.21702771 ; 1.0291846386672223E7 ; 1.4180233467989147E9 ; 1.492317726067475E9 ; 0.0
146 ; 9558529.832886046 ; 1.0291846386672223E7 ; 1.4275911540159423E9 ; 1.5026095724541473E9 ; 0.0
147 ; 9550229.269881707 ; 1.0291846386672223E7 ; 1.4371496838488283E9 ; 1.5129014188408196E9 ; 0.0
148 ; 9542505.105024807 ; 1.0291846386672223E7 ; 1.44669991311871E9 ; 1.5231932652274919E9 ; 0.0
149 ; 9534458.183293158 ; 1.0291846386672223E7 ; 1.4562424182237349E9 ; 1.533485111614164E9 ; 0.0
150 ; 9525432.255485145 ; 1.0291846386672223E7 ; 1.465776876407028E9 ; 1.5437769580008364E9 ; 0.0
151 ; 9518787.310033865 ; 1.0291846386672223E7 ; 1.475302308662513E9 ; 1.5540688043875086E9 ; 0.0
152 ; 9509136.73150473 ; 1.0291846386672223E7 ; 1.4848210959725468E9 ; 1.564360650774181E9 ; 0.0
153 ; 9500515.784722367 ; 1.0291846386672223E7 ; 1.4943302327040515E9 ; 1.5746524971608531E9 ; 0.0
154 ; 9493197.486953422 ; 1.0291846386672223E7 ; 1.5038307484887738E9 ; 1.5849443435475254E9 ; 0.0
155 ; 9483029.955151292 ; 1.0291846386672223E7 ; 1.5133239459757273E9 ; 1.5952361899341977E9 ; 0.0
156 ; 9472183.753048737 ; 1.0291846386672223E7 ; 1.5228069759308786E9 ; 1.60552803632087E9 ; 0.0
157 ; 9468215.767890722 ; 1.0291846386672223E7 ; 1.5322791596839273E9 ; 1.6158198827075422E9 ; 0.0
158 ; 9456249.11083427 ; 1.0291846386672223E7 ; 1.541747375451818E9 ; 1.6261117290942144E9 ; 0.0
159 ; 9448589.773646204 ; 1.0291846386672223E7 ; 1.5512036245626523E9 ; 1.6364035754808867E9 ; 0.0
160 ; 9440017.063550642 ; 1.0291846386672223E7 ; 1.5606522143362985E9 ; 1.646695421867559E9 ; 0.0
161 ; 9429498.89502422 ; 1.0291846386672223E7 ; 1.5700922313998492E9 ; 1.6569872682542312E9 ; 0.0
162 ; 9421828.715494996 ; 1.0291846386672223E7 ; 1.5795217302948735E9 ; 1.6672791146409035E9 ; 0.0
163 ; 9413080.780479943 ; 1.0291846386672223E7 ; 1.5889435590103686E9 ; 1.6775709610275757E9 ; 0.0
164 ; 9403912.799518282 ; 1.0291846386672223E7 ; 1.5983566397908485E9 ; 1.687862807414248E9 ; 0.0
165 ; 9393538.99047683 ; 1.0291846386672223E7 ; 1.6077605525903668E9 ; 1.6981546538009202E9 ; 0.0
166 ; 9385353.817325052 ; 1.0291846386672223E7 ; 1.6171540915808437E9 ; 1.7084465001875925E9 ; 0.0
167 ; 9377649.737210942 ; 1.0291846386672223E7 ; 1.6265394453981688E9 ; 1.7187383465742648E9 ; 0.0
168 ; 9366590.444143726 ; 1.0291846386672223E7 ; 1.6359170951353798E9 ; 1.729030192960937E9 ; 0.0
169 ; 9358748.32818857 ; 1.0291846386672223E7 ; 1.6452836855795236E9 ; 1.7393220393476093E9 ; 0.0
170 ; 9347534.570669286 ; 1.0291846386672223E7 ; 1.6546424339077122E9 ; 1.7496138857342815E9 ; 0.0
171 ; 9338672.95107583 ; 1.0291846386672223E7 ; 1.6639899684783814E9 ; 1.7599057321209538E9 ; 0.0
172 ; 9329718.468588626 ; 1.0291846386672223E7 ; 1.6733286414294572E9 ; 1.770197578507626E9 ; 0.0
173 ; 9321874.551575625 ; 1.0291846386672223E7 ; 1.6826583598980458E9 ; 1.7804894248942983E9 ; 0.0
174 ; 9315287.489374632 ; 1.0291846386672223E7 ; 1.6919802344496214E9 ; 1.7907812712809706E9 ; 0.0
175 ; 9308304.968143834 ; 1.0291846386672223E7 ; 1.701295521938996E9 ; 1.8010731176676428E9 ; 0.0
176 ; 9305142.206163233 ; 1.0291846386672223E7 ; 1.71060382690714E9 ; 1.811364964054315E9 ; 0.0
177 ; 9298488.05173909 ; 1.0291846386672223E7 ; 1.7199089691133032E9 ; 1.8216568104409873E9 ; 0.0
178 ; 9297437.713546678 ; 1.0291846386672223E7 ; 1.7292074571650422E9 ; 1.8319486568276596E9 ; 0.0
179 ; 9288840.129392635 ; 1.0291846386672223E7 ; 1.738504894878589E9 ; 1.8422405032143319E9 ; 0.0
180 ; 9284039.239461789 ; 1.0291846386672223E7 ; 1.7477937350079815E9 ; 1.8525323496010041E9 ; 0.0
181 ; 9277031.453094492 ; 1.0291846386672223E7 ; 1.7570777742474434E9 ; 1.8628241959876764E9 ; 0.0
182 ; 9271981.81688 ; 1.0291846386672223E7 ; 1.766354805700538E9 ; 1.8731160423743486E9 ; 0.0
183 ; 9266277.093550466 ; 1.0291846386672223E7 ; 1.775626787517418E9 ; 1.883407888761021E9 ; 0.0
184 ; 9261003.895527598 ; 1.0291846386672223E7 ; 1.7848930646109684E9 ; 1.8936997351476932E9 ; 0.0
185 ; 9255997.100482201 ; 1.0291846386672223E7 ; 1.794154068506496E9 ; 1.9039915815343654E9 ; 0.0
186 ; 9248858.856948247 ; 1.0291846386672223E7 ; 1.8034100656069782E9 ; 1.9142834279210377E9 ; 0.0
187 ; 9243495.760986174 ; 1.0291846386672223E7 ; 1.8126589244639263E9 ; 1.92457527430771E9 ; 0.0
188 ; 9238853.303611869 ; 1.0291846386672223E7 ; 1.8219024202249124E9 ; 1.9348671206943822E9 ; 0.0
189 ; 9234457.805863542 ; 1.0291846386672223E7 ; 1.8311412735285242E9 ; 1.9451589670810544E9 ; 0.0
190 ; 9228197.173990054 ; 1.0291846386672223E7 ; 1.8403757313343878E9 ; 1.9554508134677267E9 ; 0.0
191 ; 9220999.588040726 ; 1.0291846386672223E7 ; 1.8496039285083778E9 ; 1.965742659854399E9 ; 0.0
192 ; 9216388.087081833 ; 1.0291846386672223E7 ; 1.8588249280964186E9 ; 1.9760345062410712E9 ; 0.0
193 ; 9211312.67745804 ; 1.0291846386672223E7 ; 1.8680413161835005E9 ; 1.9863263526277435E9 ; 0.0
194 ; 9203941.047446253 ; 1.0291846386672223E7 ; 1.8772526288609586E9 ; 1.9966181990144157E9 ; 0.0
195 ; 9201660.621352352 ; 1.0291846386672223E7 ; 1.8864565699084048E9 ; 2.006910045401088E9 ; 0.0
196 ; 9194643.18585039 ; 1.0291846386672223E7 ; 1.8956582305297573E9 ; 2.0172018917877603E9 ; 0.0
197 ; 9188567.181528524 ; 1.0291846386672223E7 ; 1.9048528737156076E9 ; 2.0274937381744325E9 ; 0.0
198 ; 9183233.802847713 ; 1.0291846386672223E7 ; 1.9140414408971362E9 ; 2.0377855845611048E9 ; 0.0
199 ; 9178267.90754151 ; 1.0291846386672223E7 ; 1.9232246746999838E9 ; 2.048077430947777E9 ; 0.0
200 ; 9174066.43531411 ; 1.0291846386672223E7 ; 1.9324029426075253E9 ; 2.0583692773344493E9 ; 0.0
201 ; 9167691.032451097 ; 1.0291846386672223E7 ; 1.9415770090428395E9 ; 2.0686611237211215E9 ; 0.0
