CSV File for the City 1 on Day 87
1 - Minute m 
2 - Power Consumed at minute m 
3 - Power Produced at minute m 
4 - Energy Consumed since the beginning of the day 
5 - Energy Produced since the beginning of the day 
6 - Energy Lost since the beginning of the day on lines starting from the city
 
0 ; 1.6071468897488764E7 ; 1.0552731990512702E8 ; 0.0 ; 0.0 ; 0.0
1 ; 1.6085921077011155E7 ; 1.056802642770508E8 ; 1.6071468897488764E7 ; 1.0552731990512702E8 ; 0.0
2 ; 1.6102541888592975E7 ; 1.0614199082743737E8 ; 3.215738997449992E7 ; 2.112075841821778E8 ; 0.0
3 ; 1.6123466766346758E7 ; 1.0691250108641392E8 ; 4.825993186309289E7 ; 3.173495750096152E8 ; 0.0
4 ; 1.6147590369380862E7 ; 1.0799179642591125E8 ; 6.438339862943965E7 ; 4.242620760960291E8 ; 0.0
5 ; 1.6172400612786794E7 ; 1.0937987805183852E8 ; 8.053098899882051E7 ; 5.3225387252194035E8 ; 0.0
6 ; 1.6216482769367816E7 ; 1.1107674699706963E8 ; 9.670338961160731E7 ; 6.416337505737789E8 ; 0.0
7 ; 1.6269572857191404E7 ; 1.1308240411533445E8 ; 1.1291987238097513E8 ; 7.527104975708485E8 ; 0.0
8 ; 1.6349117039332047E7 ; 1.1539685007609844E8 ; 1.2918944523816653E8 ; 8.65792901686183E8 ; 0.0
9 ; 1.6462420899524676E7 ; 1.180200853605026E8 ; 1.4553856227749857E8 ; 9.811897517622814E8 ; 0.0
10 ; 1.6642219389790341E7 ; 1.2095211025842041E8 ; 1.6200098317702326E8 ; 1.0992098371227841E9 ; 0.0
11 ; 1.692862008673127E7 ; 1.2419292486667547E8 ; 1.786432025668136E8 ; 1.2201619473812046E9 ; 0.0
12 ; 1.739210042575735E7 ; 1.2774252908844414E8 ; 1.9557182265354484E8 ; 1.34435487224788E9 ; 0.0
13 ; 1.783829265613058E7 ; 1.3160092263385296E8 ; 2.129639230793022E8 ; 1.4720974013363242E9 ; 0.0
14 ; 1.789131891053824E7 ; 1.35768105021761E8 ; 2.3080221573543277E8 ; 1.6036983239701772E9 ; 0.0
15 ; 1.791598988895665E7 ; 1.402440755827027E8 ; 2.48693534645971E8 ; 1.739466428991938E9 ; 0.0
16 ; 1.7936293117228977E7 ; 1.450288334629483E8 ; 2.6660952453492767E8 ; 1.8797105045746408E9 ; 0.0
17 ; 1.7958030202107772E7 ; 1.501223776296238E8 ; 2.8454581765215665E8 ; 2.024739338037589E9 ; 0.0
18 ; 1.7976004595568914E7 ; 1.555247068768201E8 ; 3.0250384785426444E8 ; 2.174861715667213E9 ; 0.0
19 ; 1.799665800473732E7 ; 1.6123581983260635E8 ; 3.2047985244983333E8 ; 2.330386422544033E9 ; 0.0
20 ; 1.802059646686575E7 ; 1.6725571496685538E8 ; 3.3847651045457065E8 ; 2.4916222423766394E9 ; 0.0
21 ; 1.8041233839411736E7 ; 1.7358439059977785E8 ; 3.564971069214364E8 ; 2.658877957343495E9 ; 0.0
22 ; 1.8060140837775182E7 ; 1.8022184491105902E8 ; 3.7453834076084816E8 ; 2.8324623479432726E9 ; 0.0
23 ; 1.808037379842221E7 ; 1.8716807594948775E8 ; 3.9259848159862334E8 ; 3.0126841928543315E9 ; 0.0
24 ; 1.8104369507558383E7 ; 1.9442308164296412E8 ; 4.1067885539704555E8 ; 3.199852268803819E9 ; 0.0
25 ; 1.812510752714324E7 ; 2.0067490070696187E8 ; 4.2878322490460396E8 ; 3.394275350446783E9 ; 0.0
26 ; 1.8148190576407745E7 ; 2.00677078691863E8 ; 4.469083324317472E8 ; 3.5949502511537447E9 ; 0.0
27 ; 1.8169620549687125E7 ; 2.0067938251836E8 ; 4.650565230081549E8 ; 3.7956273298456078E9 ; 0.0
28 ; 1.81871762456904E7 ; 2.0068180973468876E8 ; 4.832261435578421E8 ; 3.996306712363968E9 ; 0.0
29 ; 1.8208384372935534E7 ; 2.0068435782020757E8 ; 5.014133198035325E8 ; 4.1969885220986567E9 ; 0.0
30 ; 1.822881679487674E7 ; 2.006870241955224E8 ; 5.19621704176468E8 ; 4.397672879918864E9 ; 0.0
31 ; 1.8247266123364814E7 ; 2.0068980623233277E8 ; 5.378505209713447E8 ; 4.598359904114387E9 ; 0.0
32 ; 1.8269437106351085E7 ; 2.006927012629344E8 ; 5.560977870947095E8 ; 4.79904971034672E9 ; 0.0
33 ; 1.8284500465557184E7 ; 2.006957065893266E8 ; 5.743672242010607E8 ; 4.999742411609654E9 ; 0.0
34 ; 1.8303665724771325E7 ; 2.0069881949187997E8 ; 5.926517246666179E8 ; 5.200438118198981E9 ; 0.0
35 ; 1.8320497864162873E7 ; 2.0070203723753026E8 ; 6.109553903913893E8 ; 5.401136937690862E9 ; 0.0
36 ; 1.833642728728911E7 ; 2.0070535708747256E8 ; 6.292758882555522E8 ; 5.601838974928392E9 ; 0.0
37 ; 1.8355831070165686E7 ; 2.00708776304338E8 ; 6.476123155428413E8 ; 5.802544332015865E9 ; 0.0
38 ; 1.836984493481947E7 ; 2.0071229215884313E8 ; 6.65968146613007E8 ; 6.003253108320204E9 ; 0.0
39 ; 1.839297705670908E7 ; 2.007159019359084E8 ; 6.843379915478264E8 ; 6.203965400479047E9 ; 0.0
40 ; 1.840124467660581E7 ; 2.0071960294024885E8 ; 7.027309686045355E8 ; 6.404681302414955E9 ; 0.0
41 ; 1.8409918609586507E7 ; 2.0072339250144428E8 ; 7.211322132811413E8 ; 6.605400905355204E9 ; 0.0
42 ; 1.8428341477439776E7 ; 2.007272679785028E8 ; 7.395421318907278E8 ; 6.8061242978566475E9 ; 0.0
43 ; 1.843906679445686E7 ; 2.0073122676393256E8 ; 7.579704733681675E8 ; 7.006851565835151E9 ; 0.0
44 ; 1.844821838811584E7 ; 2.0073526628734204E8 ; 7.764095401626244E8 ; 7.207582792599083E9 ; 0.0
45 ; 1.846231861785246E7 ; 2.0073938401859084E8 ; 7.948577585507402E8 ; 7.408318058886425E9 ; 0.0
46 ; 1.8471352346957266E7 ; 2.0074357747051376E8 ; 8.133200771685927E8 ; 7.609057442905016E9 ; 0.0
47 ; 1.847626816708684E7 ; 2.007478442012441E8 ; 8.317914295155499E8 ; 7.809801020375529E9 ; 0.0
48 ; 1.8490099317472685E7 ; 2.007521818161612E8 ; 8.502676976826367E8 ; 8.010548864576774E9 ; 0.0
49 ; 1.8493464295468748E7 ; 2.007565879694887E8 ; 8.687577970001094E8 ; 8.211301046392935E9 ; 0.0
50 ; 1.8503685361763194E7 ; 2.0076106036556965E8 ; 8.872512612955782E8 ; 8.412057634362424E9 ; 0.0
51 ; 1.8504306934326023E7 ; 2.007655967598437E8 ; 9.057549466573415E8 ; 8.612818694727993E9 ; 0.0
52 ; 1.851118716125375E7 ; 2.0077019495955223E8 ; 9.242592535916675E8 ; 8.813584291487837E9 ; 0.0
53 ; 1.851819698826201E7 ; 2.0077485282419553E8 ; 9.427704407529213E8 ; 9.01435448644739E9 ; 0.0
54 ; 1.8525484629279938E7 ; 2.0077956826576552E8 ; 9.612886377411834E8 ; 9.215129339271585E9 ; 0.0
55 ; 1.8531818639631562E7 ; 2.0078433924877626E8 ; 9.798141223704634E8 ; 9.415908907537352E9 ; 0.0
56 ; 1.85327009481034E7 ; 2.0078916379011378E8 ; 9.983459410100949E8 ; 9.616693246786127E9 ; 0.0
57 ; 1.8541524519889418E7 ; 2.0079403995872504E8 ; 1.0168786419581983E9 ; 9.81748241057624E9 ; 0.0
58 ; 1.8540092373908836E7 ; 2.0079896587516463E8 ; 1.0354201664780878E9 ; 1.0018276450534966E10 ; 0.0
59 ; 1.8547142657414112E7 ; 2.0080393971101695E8 ; 1.0539602588519967E9 ; 1.021907541641013E10 ; 0.0
60 ; 1.8551608426235043E7 ; 2.0080895968820995E8 ; 1.0725074015094107E9 ; 1.0419879356121147E10 ; 0.0
61 ; 1.8556506003343422E7 ; 2.0081402407823524E8 ; 1.0910590099356458E9 ; 1.0620688315809357E10 ; 0.0
62 ; 1.8560330957989007E7 ; 2.0081913120128837E8 ; 1.1096155159389892E9 ; 1.0821502339887592E10 ; 0.0
63 ; 1.856683109095279E7 ; 2.0082427942534223E8 ; 1.1281758468969781E9 ; 1.102232147108888E10 ; 0.0
64 ; 1.8573879623491276E7 ; 2.0082946716516432E8 ; 1.146742677987931E9 ; 1.1223145750514223E10 ; 0.0
65 ; 1.8572724038961653E7 ; 2.0083469288128898E8 ; 1.1653165576114223E9 ; 1.1423975217679388E10 ; 0.0
66 ; 1.857786430568584E7 ; 2.0083995507895327E8 ; 1.183889281650384E9 ; 1.1624809910560677E10 ; 0.0
67 ; 1.8580406727001034E7 ; 2.0084525230700594E8 ; 1.2024671459560697E9 ; 1.182564986563963E10 ; 0.0
68 ; 1.8579220912940126E7 ; 2.0085058315679574E8 ; 1.2210475526830707E9 ; 1.2026495117946636E10 ; 0.0
69 ; 1.8587182804299336E7 ; 2.0085594626104724E8 ; 1.2396267735960107E9 ; 1.2227345701103432E10 ; 0.0
70 ; 1.8585557563844696E7 ; 2.0086134029272893E8 ; 1.25821395640031E9 ; 1.242820164736448E10 ; 0.0
71 ; 1.859200149656592E7 ; 2.008667639639197E8 ; 1.2767995139641547E9 ; 1.2629062987657207E10 ; 0.0
72 ; 1.859580944323011E7 ; 2.0087221602467814E8 ; 1.2953915154607205E9 ; 1.2829929751621128E10 ; 0.0
73 ; 1.8596402318420414E7 ; 2.008776952619184E8 ; 1.3139873249039507E9 ; 1.3030801967645805E10 ; 0.0
74 ; 1.859686264587628E7 ; 2.0088320049829686E8 ; 1.332583727222371E9 ; 1.3231679662907724E10 ; 0.0
75 ; 1.8596177437545005E7 ; 2.0088873059111175E8 ; 1.3511805898682473E9 ; 1.3432562863406021E10 ; 0.0
76 ; 1.8605499684680827E7 ; 2.0089428443121922E8 ; 1.3697767673057923E9 ; 1.3633451593997133E10 ; 0.0
77 ; 1.8601335840318583E7 ; 2.008998609419674E8 ; 1.3883822669904733E9 ; 1.3834345878428352E10 ; 0.0
78 ; 1.8601371857240528E7 ; 2.0090545907815066E8 ; 1.406983602830792E9 ; 1.403524573937032E10 ; 0.0
79 ; 1.8597808839679495E7 ; 2.009110778249854E8 ; 1.4255849746880324E9 ; 1.423615119844847E10 ; 0.0
80 ; 1.8593548559743725E7 ; 2.0091671619710886E8 ; 1.4441827835277119E9 ; 1.4437062276273455E10 ; 0.0
81 ; 1.8585537853528466E7 ; 2.0092237323760158E8 ; 1.4627763320874555E9 ; 1.4637978992470564E10 ; 0.0
82 ; 1.858646875759075E7 ; 2.0092804801703456E8 ; 1.481361869940984E9 ; 1.4838901365708166E10 ; 0.0
83 ; 1.8581292275523707E7 ; 2.009337396325416E8 ; 1.4999483386985748E9 ; 1.50398294137252E10 ; 0.0
84 ; 1.8575660034066003E7 ; 2.0093944720691705E8 ; 1.5185296309740984E9 ; 1.5240763153357742E10 ; 0.0
85 ; 1.8567046697809838E7 ; 2.0094516988773936E8 ; 1.5371052910081644E9 ; 1.544170260056466E10 ; 0.0
86 ; 1.8567233522454914E7 ; 2.0095090684652036E8 ; 1.5556723377059743E9 ; 1.5642647770452398E10 ; 0.0
87 ; 1.855949165845771E7 ; 2.0095665727788046E8 ; 1.5742395712284293E9 ; 1.5843598677298918E10 ; 0.0
88 ; 1.8555790112667017E7 ; 2.0096242039874926E8 ; 1.592799062886887E9 ; 1.6044555334576797E10 ; 0.0
89 ; 1.855014641311486E7 ; 2.009681954475917E8 ; 1.6113548529995542E9 ; 1.6245517754975546E10 ; 0.0
90 ; 1.8540161337620527E7 ; 2.0097398168365926E8 ; 1.629904999412669E9 ; 1.6446485950423138E10 ; 0.0
91 ; 1.8535308297262847E7 ; 2.009797783862658E8 ; 1.6484451607502894E9 ; 1.6647459932106796E10 ; 0.0
92 ; 1.8530376898123622E7 ; 2.009855848540878E8 ; 1.6669804690475523E9 ; 1.6848439710493063E10 ; 0.0
93 ; 1.8525301781086657E7 ; 2.009914004044881E8 ; 1.6855108459456758E9 ; 1.704942529534715E10 ; 0.0
94 ; 1.850995578096559E7 ; 2.0099722437286326E8 ; 1.7040361477267625E9 ; 1.725041669575164E10 ; 0.0
95 ; 1.8510301170395922E7 ; 2.0100305611201367E8 ; 1.722546103507728E9 ; 1.7451413920124504E10 ; 0.0
96 ; 1.8503485751754764E7 ; 2.010088949915354E8 ; 1.741056404678124E9 ; 1.765241697623652E10 ; 0.0
97 ; 1.8496271867321398E7 ; 2.010147403972342E8 ; 1.7595598904298787E9 ; 1.7853425871228054E10 ; 0.0
98 ; 1.8490730725737497E7 ; 2.0102059173056012E8 ; 1.7780561622972002E9 ; 1.805444061162529E10 ; 0.0
99 ; 1.8478099284732006E7 ; 2.0102644840806282E8 ; 1.7965468930229378E9 ; 1.825546120335585E10 ; 0.0
100 ; 1.8474727628171746E7 ; 2.0103230986086634E8 ; 1.8150249923076699E9 ; 1.8456487651763912E10 ; 0.0
101 ; 1.8466314598108776E7 ; 2.0103817553416356E8 ; 1.8334997199358416E9 ; 1.865751996162478E10 ; 0.0
102 ; 1.8459997037543923E7 ; 2.0104404488672864E8 ; 1.8519660345339503E9 ; 1.8858558137158943E10 ; 0.0
103 ; 1.8449235044879206E7 ; 2.0104991739044803E8 ; 1.8704260315714943E9 ; 1.9059602182045673E10 ; 0.0
104 ; 1.844497134237039E7 ; 2.010557925298685E8 ; 1.8888752666163735E9 ; 1.9260652099436123E10 ; 0.0
105 ; 1.8435835038883872E7 ; 2.010616698017621E8 ; 1.907320237958744E9 ; 1.9461707891965992E10 ; 0.0
106 ; 1.8429081654985555E7 ; 2.0106754871470743E8 ; 1.925756072997628E9 ; 1.9662769561767754E10 ; 0.0
107 ; 1.841944187653829E7 ; 2.0107342878868642E8 ; 1.9441851546526136E9 ; 1.986383711048246E10 ; 0.0
108 ; 1.8408933159541186E7 ; 2.0107930955469644E8 ; 1.962604596529152E9 ; 2.0064910539271145E10 ; 0.0
109 ; 1.839807779762914E7 ; 2.010851905543768E8 ; 1.981013529688693E9 ; 2.026598984882584E10 ; 0.0
110 ; 1.838804540922837E7 ; 2.010910713396494E8 ; 1.9994116074863222E9 ; 2.046707503938022E10 ; 0.0
111 ; 1.8382273930490036E7 ; 2.0109695147237283E8 ; 2.0177996528955505E9 ; 2.0668166110719868E10 ; 0.0
112 ; 1.8373576816162404E7 ; 2.011028305240097E8 ; 2.0361819268260405E9 ; 2.086926306219224E10 ; 0.0
113 ; 1.836181063465535E7 ; 2.0110870807530633E8 ; 2.0545555036422029E9 ; 2.107036589271625E10 ; 0.0
114 ; 1.8353307855049487E7 ; 2.0111458371598452E8 ; 2.072917314276858E9 ; 2.1271474600791557E10 ; 0.0
115 ; 1.8339224685480423E7 ; 2.0112045704444522E8 ; 2.0912706221319075E9 ; 2.147258918450754E10 ; 0.0
116 ; 1.8332612449089233E7 ; 2.01126327667483E8 ; 2.1096098468173878E9 ; 2.1673709641551987E10 ; 0.0
117 ; 1.8317864931160524E7 ; 2.011321952000116E8 ; 2.127942459266477E9 ; 2.187483596921947E10 ; 0.0
118 ; 1.8313964461786684E7 ; 2.0113805926479965E8 ; 2.1462603241976376E9 ; 2.2075968164419483E10 ; 0.0
119 ; 1.830101065906499E7 ; 2.0114391949221644E8 ; 2.1645742886594243E9 ; 2.2277106223684284E10 ; 0.0
120 ; 1.82875529402474E7 ; 2.0114977551998717E8 ; 2.182875299318489E9 ; 2.2478250143176502E10 ; 0.0
121 ; 1.827473114057436E7 ; 2.0115562699295753E8 ; 2.2011628522587366E9 ; 2.267939991869649E10 ; 0.0
122 ; 1.8264439743681394E7 ; 2.0116147356286702E8 ; 2.219437583399311E9 ; 2.288055554568945E10 ; 0.0
123 ; 1.8255403242147483E7 ; 2.0116731488813064E8 ; 2.2377020231429925E9 ; 2.3081717019252316E10 ; 0.0
124 ; 1.8244813869509093E7 ; 2.0117315063362914E8 ; 2.25595742638514E9 ; 2.3282884334140446E10 ; 0.0
125 ; 1.8230894727290384E7 ; 2.011789804705067E8 ; 2.274202240254649E9 ; 2.3484057484774075E10 ; 0.0
126 ; 1.8222326297651034E7 ; 2.011848040759764E8 ; 2.2924331349819393E9 ; 2.3685236465244583E10 ; 0.0
127 ; 1.820741387805738E7 ; 2.0119062113313285E8 ; 2.31065546127959E9 ; 2.388642126932056E10 ; 0.0
128 ; 1.8193286606578477E7 ; 2.0119643133077165E8 ; 2.3288628751576476E9 ; 2.4087611890453693E10 ; 0.0
129 ; 1.8183510381895386E7 ; 2.01202234363216E8 ; 2.347056161764226E9 ; 2.4288808321784466E10 ; 0.0
130 ; 1.816541625935928E7 ; 2.0120802993014914E8 ; 2.3652396721461215E9 ; 2.4490010556147682E10 ; 0.0
131 ; 1.815277542078275E7 ; 2.012138177364533E8 ; 2.383405088405481E9 ; 2.469121858607783E10 ; 0.0
132 ; 1.8132254071526486E7 ; 2.0121959749205458E8 ; 2.4015578638262634E9 ; 2.4892432403814285E10 ; 0.0
133 ; 1.8117047497392096E7 ; 2.0122536891177356E8 ; 2.41969011789779E9 ; 2.509365200130634E10 ; 0.0
134 ; 1.809557538910537E7 ; 2.012311317151811E8 ; 2.437807165395182E9 ; 2.5294877370218113E10 ; 0.0
135 ; 1.8077012532485206E7 ; 2.0123688562645984E8 ; 2.4559027407842875E9 ; 2.5496108501933292E10 ; 0.0
136 ; 1.805656534939858E7 ; 2.012426303742703E8 ; 2.4739797533167725E9 ; 2.5697345387559753E10 ; 0.0
137 ; 1.8035636986784995E7 ; 2.012483656916223E8 ; 2.492036318666171E9 ; 2.5898588017934025E10 ; 0.0
138 ; 1.802220885635709E7 ; 2.012540913157507E8 ; 2.510071955652956E9 ; 2.609983638362565E10 ; 0.0
139 ; 1.80021313979131E7 ; 2.0125980698799583E8 ; 2.528094164509313E9 ; 2.63010904749414E10 ; 0.0
140 ; 1.797899764562462E7 ; 2.0126551245368806E8 ; 2.546096295907226E9 ; 2.6502350281929394E10 ; 0.0
141 ; 1.7960179529516976E7 ; 2.0127120746203676E8 ; 2.5640752935528507E9 ; 2.6703615794383083E10 ; 0.0
142 ; 1.794450080244932E7 ; 2.0127689176602304E8 ; 2.582035473082368E9 ; 2.690488700184512E10 ; 0.0
143 ; 1.7921234876980375E7 ; 2.0128256512229633E8 ; 2.599979973884817E9 ; 2.710616389361114E10 ; 0.0
144 ; 1.7900275047390703E7 ; 2.0128822729107487E8 ; 2.6179012087617974E9 ; 2.7307446458733437E10 ; 0.0
145 ; 1.788724231164102E7 ; 2.0129387803604952E8 ; 2.6358014838091884E9 ; 2.7508734686024513E10 ; 0.0
146 ; 1.787732420958054E7 ; 2.0129951712429094E8 ; 2.6536887261208296E9 ; 2.7710028564060562E10 ; 0.0
147 ; 1.7860948072048023E7 ; 2.0130514432616037E8 ; 2.67156605033041E9 ; 2.7911328081184853E10 ; 0.0
148 ; 1.7847034276263345E7 ; 2.0131075941522318E8 ; 2.689426998402458E9 ; 2.8112633225511013E10 ; 0.0
149 ; 1.7833830326350167E7 ; 2.0131636216816565E8 ; 2.7072740326787214E9 ; 2.8313943984926235E10 ; 0.0
150 ; 1.78164002070026E7 ; 2.013219523647147E8 ; 2.7251078630050716E9 ; 2.8515260347094402E10 ; 0.0
151 ; 1.7805901341697168E7 ; 2.0132752978756034E8 ; 2.7429242632120743E9 ; 2.8716582299459118E10 ; 0.0
152 ; 1.7792632460803833E7 ; 2.013330942222808E8 ; 2.7607301645537715E9 ; 2.8917909829246677E10 ; 0.0
153 ; 1.777709570440375E7 ; 2.013386454572704E8 ; 2.7785227970145755E9 ; 2.911924292346896E10 ; 0.0
154 ; 1.7762788147133313E7 ; 2.0134418328366974E8 ; 2.7962998927189794E9 ; 2.932058156892623E10 ; 0.0
155 ; 1.775323751921074E7 ; 2.0134970749529836E8 ; 2.8140626808661127E9 ; 2.95219257522099E10 ; 0.0
156 ; 1.773956644358589E7 ; 2.013552178885899E8 ; 2.8318159183853235E9 ; 2.9723275459705196E10 ; 0.0
157 ; 1.772390062844764E7 ; 2.0136071426252913E8 ; 2.8495554848289094E9 ; 2.992463067759379E10 ; 0.0
158 ; 1.770645092493458E7 ; 2.0136619641859153E8 ; 2.867279385457357E9 ; 3.0125991391856316E10 ; 0.0
159 ; 1.769492023727809E7 ; 2.013716641606845E8 ; 2.8849858363822913E9 ; 3.0327357588274906E10 ; 0.0
160 ; 1.7679675728297293E7 ; 2.0137711729509106E8 ; 2.9026807566195693E9 ; 3.052872925243559E10 ; 0.0
161 ; 1.7668620248489868E7 ; 2.01382555630415E8 ; 2.9203604323478665E9 ; 3.073010636973068E10 ; 0.0
162 ; 1.764974930432295E7 ; 2.0138797897752813E8 ; 2.9380290525963564E9 ; 3.0931488925361095E10 ; 0.0
163 ; 1.76379036636125E7 ; 2.0139338714951938E8 ; 2.955678801900679E9 ; 3.1132876904338623E10 ; 0.0
164 ; 1.7621632865083452E7 ; 2.013987799616454E8 ; 2.9733167055642915E9 ; 3.1334270291488144E10 ; 0.0
165 ; 1.7608398769739628E7 ; 2.0140415723128283E8 ; 2.9909383384293747E9 ; 3.153566907144979E10 ; 0.0
166 ; 1.75961782487114E7 ; 2.0140951877788243E8 ; 3.0085467371991143E9 ; 3.1737073228681072E10 ; 0.0
167 ; 1.7578094542395856E7 ; 2.0141486442292443E8 ; 3.026142915447826E9 ; 3.1938482747458954E10 ; 0.0
168 ; 1.7568045419715896E7 ; 2.0142019398987547E8 ; 3.043721009990222E9 ; 3.2139897611881878E10 ; 0.0
169 ; 1.754904983452854E7 ; 2.0142550730414712E8 ; 3.061289055409938E9 ; 3.2341317805871754E10 ; 0.0
170 ; 1.753093807266278E7 ; 2.0143080419305554E8 ; 3.0788381052444663E9 ; 3.25427433131759E10 ; 0.0
171 ; 1.752128393434159E7 ; 2.0143608448578247E8 ; 3.096369043317129E9 ; 3.2744174117368954E10 ; 0.0
172 ; 1.7505723120034955E7 ; 2.014413480133378E8 ; 3.1138903272514706E9 ; 3.2945610201854736E10 ; 0.0
173 ; 1.7489541018234346E7 ; 2.0144659460852298E8 ; 3.1313960503715057E9 ; 3.3147051549868073E10 ; 0.0
174 ; 1.7482902081083514E7 ; 2.0145182410589603E8 ; 3.14888559138974E9 ; 3.3348498144476597E10 ; 0.0
175 ; 1.7476241099738646E7 ; 2.0145703634173712E8 ; 3.1663684934708233E9 ; 3.3549949968582493E10 ; 0.0
176 ; 1.746367161957175E7 ; 2.01462231154016E8 ; 3.183844734570562E9 ; 3.375140700492423E10 ; 0.0
177 ; 1.7451328491104186E7 ; 2.0146740838235983E8 ; 3.2013084061901336E9 ; 3.3952869236078243E10 ; 0.0
178 ; 1.7444829965105943E7 ; 2.0147256786802244E8 ; 3.2187597346812377E9 ; 3.41543366444606E10 ; 0.0
179 ; 1.743352795563224E7 ; 2.0147770945385444E8 ; 3.2362045646463437E9 ; 3.4355809212328625E10 ; 0.0
180 ; 1.7423446168606352E7 ; 2.014828329842743E8 ; 3.253638092601976E9 ; 3.455728692178248E10 ; 0.0
181 ; 1.741640153160936E7 ; 2.0148793830524045E8 ; 3.271061538770582E9 ; 3.4758769754766754E10 ; 0.0
182 ; 1.7411969171031144E7 ; 2.0149302526422408E8 ; 3.2884779403021917E9 ; 3.496025769307199E10 ; 0.0
183 ; 1.7401636059906896E7 ; 2.01498093710183E8 ; 3.3058899094732227E9 ; 3.516175071833621E10 ; 0.0
184 ; 1.7389185357359476E7 ; 2.015031434935362E8 ; 3.3232915455331297E9 ; 3.5363248812046394E10 ; 0.0
185 ; 1.7380765228292342E7 ; 2.015081744661394E8 ; 3.340680730890489E9 ; 3.556475195553993E10 ; 0.0
186 ; 1.7368153587455865E7 ; 2.0151318648126107E8 ; 3.3580614961187816E9 ; 3.576626013000607E10 ; 0.0
187 ; 1.7363434397591107E7 ; 2.015181793935596E8 ; 3.3754296497062373E9 ; 3.5967773316487335E10 ; 0.0
188 ; 1.7351191824805383E7 ; 2.0152315305906072E8 ; 3.3927930841038284E9 ; 3.61692914958809E10 ; 0.0
189 ; 1.734409236504158E7 ; 2.015281073351362E8 ; 3.4101442759286337E9 ; 3.637081464893996E10 ; 0.0
190 ; 1.7332811786264703E7 ; 2.0153304208048263E8 ; 3.4274883682936754E9 ; 3.657234275627509E10 ; 0.0
191 ; 1.7323768276274025E7 ; 2.015379571551013E8 ; 3.4448211800799403E9 ; 3.6773875798355576E10 ; 0.0
192 ; 1.7318036411567796E7 ; 2.0154285242027852E8 ; 3.4621449483562145E9 ; 3.697541375551067E10 ; 0.0
193 ; 1.7306595684725802E7 ; 2.0154772773856664E8 ; 3.479462984767782E9 ; 3.7176956607930954E10 ; 0.0
194 ; 1.7298000204862982E7 ; 2.0155258297376546E8 ; 3.496769580452508E9 ; 3.737850433566952E10 ; 0.0
195 ; 1.7288994105696253E7 ; 2.015574179909046E8 ; 3.514067580657371E9 ; 3.758005691864328E10 ; 0.0
