CSV File for the City 6 on Day 246
1 - Minute m 
2 - Power Consumed at minute m 
3 - Power Produced at minute m 
4 - Energy Consumed since the beginning of the day 
5 - Energy Produced since the beginning of the day 
6 - Energy Lost since the beginning of the day on lines starting from the city
 
0 ; 2080152.328668953 ; 1.0559723431407282E8 ; 0.0 ; 0.0 ; 0.0
1 ; 2092748.9870251198 ; 1.0574669110685503E8 ; 2080152.328668953 ; 1.0559723431407282E8 ; 0.0
2 ; 2102151.648039484 ; 1.0620525387777945E8 ; 4172901.3156940727 ; 2.1134392542092785E8 ; 0.0
3 ; 2118784.616118527 ; 1.0697293745724905E8 ; 6275052.963733557 ; 3.175491792987073E8 ; 0.0
4 ; 2132081.785176817 ; 1.0804975558302891E8 ; 8393837.579852084 ; 4.2452211675595635E8 ; 0.0
5 ; 2152633.5212189266 ; 1.0943572068868995E8 ; 1.0525919365028901E7 ; 5.3257187233898526E8 ; 0.0
6 ; 2178274.4942399194 ; 1.111308436999512E8 ; 1.2678552886247829E7 ; 6.420075930276752E8 ; 0.0
7 ; 2213729.0296441265 ; 1.1313513384601921E8 ; 1.4856827380487747E7 ; 7.531384367276263E8 ; 0.0
8 ; 2267153.4227690063 ; 1.1544859849306214E8 ; 1.7070556410131875E7 ; 8.662735705736456E8 ; 0.0
9 ; 2346440.9994505807 ; 1.180712430065453E8 ; 1.933770983290088E7 ; 9.817221690667077E8 ; 0.0
10 ; 2474089.8678769246 ; 1.210030706482783E8 ; 2.168415083235146E7 ; 1.0997934120732532E9 ; 0.0
11 ; 2670820.046602266 ; 1.2424408251271817E8 ; 2.4158240700228386E7 ; 1.2207964827215314E9 ; 0.0
12 ; 2987575.264572584 ; 1.2779427750540784E8 ; 2.682906074683065E7 ; 1.3450405652342496E9 ; 0.0
13 ; 3290717.058714664 ; 1.3165365236453772E8 ; 2.9816636011403233E7 ; 1.4728348427396574E9 ; 0.0
14 ; 3330756.0037230332 ; 1.3582220172464257E8 ; 3.31073530701179E7 ; 1.604488495104195E9 ; 0.0
15 ; 3343647.0046327324 ; 1.4029991821955413E8 ; 3.643810907384093E7 ; 1.7403106968288376E9 ; 0.0
16 ; 3356382.00312495 ; 1.4508679262006596E8 ; 3.9781756078473665E7 ; 1.8806106150483918E9 ; 0.0
17 ; 3372688.319557036 ; 1.5018281400045893E8 ; 4.313813808159862E7 ; 2.0256974076684577E9 ; 0.0
18 ; 3385036.3967309096 ; 1.5558796992716217E8 ; 4.651082640115565E7 ; 2.1758802216689167E9 ; 0.0
19 ; 3401293.8618980637 ; 1.613022466624106E8 ; 4.989586279788656E7 ; 2.331468191596079E9 ; 0.0
20 ; 3416122.8864772664 ; 1.6732562937580118E8 ; 5.329715665978462E7 ; 2.4927704382584896E9 ; 0.0
21 ; 3431514.8527419604 ; 1.7365810235707906E8 ; 5.671327954626189E7 ; 2.6600960676342907E9 ; 0.0
22 ; 3443521.7309509167 ; 1.802996492242235E8 ; 6.014479439900385E7 ; 2.8337541699913697E9 ; 0.0
23 ; 3463752.6924380995 ; 1.8725025312185466E8 ; 6.358831612995476E7 ; 3.0140538192155933E9 ; 0.0
24 ; 3477037.244847642 ; 1.9450989690604198E8 ; 6.7052068822392866E7 ; 3.201304072337448E9 ; 0.0
25 ; 3494265.054425005 ; 2.0076660421086463E8 ; 7.05291060672405E7 ; 3.39581396924349E9 ; 0.0
26 ; 3505460.301455665 ; 2.0077390563544798E8 ; 7.402337112166551E7 ; 3.596580573454355E9 ; 0.0
27 ; 3521137.6038282434 ; 2.0078155339989662E8 ; 7.752883142312117E7 ; 3.7973544790898027E9 ; 0.0
28 ; 3535179.1367856786 ; 2.0078953070389774E8 ; 8.10499690269494E7 ; 3.9981360324896994E9 ; 0.0
29 ; 3546377.1836876804 ; 2.007978211131452E8 ; 8.458514816373509E7 ; 4.1989255631935973E9 ; 0.0
30 ; 3564466.1689750627 ; 2.0080640863489294E8 ; 8.813152534742278E7 ; 4.399723384306743E9 ; 0.0
31 ; 3580797.4356563278 ; 2.0081527777724496E8 ; 9.169599151639783E7 ; 4.600529792941635E9 ; 0.0
32 ; 3590585.6907879193 ; 2.008244135937514E8 ; 9.527678895205416E7 ; 4.80134507071888E9 ; 0.0
33 ; 3604265.8414704213 ; 2.0083380171498245E8 ; 9.886737464284208E7 ; 5.002169484312631E9 ; 0.0
34 ; 3618835.6803951785 ; 2.0084342836876723E8 ; 1.024716404843125E8 ; 5.203003286027613E9 ; 0.0
35 ; 3629948.246991196 ; 2.0085328039073765E8 ; 1.0609047616470769E8 ; 5.403846714396379E9 ; 0.0
36 ; 3640418.209090036 ; 2.0086334522672367E8 ; 1.097204244116989E8 ; 5.604699994787117E9 ; 0.0
37 ; 3652051.4101244933 ; 2.008736109284233E8 ; 1.1336084262078893E8 ; 5.805563340013841E9 ; 0.0
38 ; 3667487.929633231 ; 2.0088406614363107E8 ; 1.1701289403091343E8 ; 6.006436950942264E9 ; 0.0
39 ; 3678491.8132939353 ; 2.0089470010216272E8 ; 1.2068038196054666E8 ; 6.207321017085895E9 ; 0.0
40 ; 3688075.411314799 ; 2.0090550259846702E8 ; 1.2435887377384059E8 ; 6.408215717188057E9 ; 0.0
41 ; 3698666.4078907077 ; 2.009164639717785E8 ; 1.2804694918515539E8 ; 6.609121219786524E9 ; 0.0
42 ; 3710143.9783848086 ; 2.0092757508453286E8 ; 1.317456155930461E8 ; 6.810037683758303E9 ; 0.0
43 ; 3716821.58570041 ; 2.0093882729964972E8 ; 1.3545575957143092E8 ; 7.010965258842835E9 ; 0.0
44 ; 3726396.620734354 ; 2.0095021245718232E8 ; 1.3917258115713134E8 ; 7.211904086142485E9 ; 0.0
45 ; 3736003.158734249 ; 2.0096172285073906E8 ; 1.428989777778657E8 ; 7.412854298599667E9 ; 0.0
46 ; 3742367.214698234 ; 2.0097335120400265E8 ; 1.4663498093659997E8 ; 7.613816021450406E9 ; 0.0
47 ; 3748601.6057489216 ; 2.0098509064760286E8 ; 1.503773481512982E8 ; 7.814789372654408E9 ; 0.0
48 ; 3754440.0469707996 ; 2.009969346965397E8 ; 1.5412594975704712E8 ; 8.0157744633020115E9 ; 0.0
49 ; 3758710.1331866714 ; 2.0100887722830552E8 ; 1.578803898040179E8 ; 8.216771397998551E9 ; 0.0
50 ; 3765901.5958811343 ; 2.0102091246181265E8 ; 1.6163909993720457E8 ; 8.417780275226857E9 ; 0.0
51 ; 3774444.3596348027 ; 2.0103303493720034E8 ; 1.654050015330857E8 ; 8.61880118768867E9 ; 0.0
52 ; 3775821.5814612457 ; 2.010452394965667E8 ; 1.6917944589272052E8 ; 8.81983422262587E9 ; 0.0
53 ; 3783785.794607263 ; 2.0105752126565036E8 ; 1.7295526747418177E8 ; 9.020879462122437E9 ; 0.0
54 ; 3783302.6006646142 ; 2.0106987563646755E8 ; 1.7673905326878902E8 ; 9.221936983388086E9 ; 0.0
55 ; 3793833.676629804 ; 2.0108229825089842E8 ; 1.8052235586945364E8 ; 9.423006859024553E9 ; 0.0
56 ; 3796206.753804656 ; 2.010947849852044E8 ; 1.8431618954608345E8 ; 9.624089157275452E9 ; 0.0
57 ; 3801452.722027204 ; 2.011073319354516E8 ; 1.881123962998881E8 ; 9.825183942260656E9 ; 0.0
58 ; 3803088.2926242216 ; 2.0111993540380865E8 ; 1.9191384902191532E8 ; 1.0026291274196108E10 ; 0.0
59 ; 3809986.7739105616 ; 2.0113259188568407E8 ; 1.9571693731453955E8 ; 1.0227411209599916E10 ; 0.0
60 ; 3814859.515942256 ; 2.0114529805766502E8 ; 1.995269240884501E8 ; 1.0428543801485601E10 ; 0.0
61 ; 3822427.7551224045 ; 2.011580507662183E8 ; 2.0334178360439235E8 ; 1.0629689099543266E10 ; 0.0
62 ; 3823511.4687505346 ; 2.0117084701711357E8 ; 2.0716421135951474E8 ; 1.0830847150309484E10 ; 0.0
63 ; 3829216.049056925 ; 2.0118368396552855E8 ; 2.1098772282826528E8 ; 1.1032017997326597E10 ; 0.0
64 ; 3831081.0271536047 ; 2.011965589067973E8 ; 2.148169388773222E8 ; 1.1233201681292126E10 ; 0.0
65 ; 3835417.3994451487 ; 2.012094692677628E8 ; 2.186480199044758E8 ; 1.1434398240198923E10 ; 0.0
66 ; 3842105.803894549 ; 2.0122241259869686E8 ; 2.2248343730392095E8 ; 1.1635607709466686E10 ; 0.0
67 ; 3843878.902791233 ; 2.012353865657516E8 ; 2.263255431078155E8 ; 1.1836830122065384E10 ; 0.0
68 ; 3851624.2109322865 ; 2.0124838894390857E8 ; 2.3016942201060674E8 ; 1.2038065508631136E10 ; 0.0
69 ; 3850642.8885485474 ; 2.0126141761039278E8 ; 2.3402104622153902E8 ; 1.2239313897575045E10 ; 0.0
70 ; 3854733.1400437 ; 2.012744705385215E8 ; 2.3787168911008757E8 ; 1.2440575315185438E10 ; 0.0
71 ; 3857437.491925447 ; 2.012875457919581E8 ; 2.4172642225013128E8 ; 1.2641849785723959E10 ; 0.0
72 ; 3861881.8270380227 ; 2.013006415193444E8 ; 2.4558385974205673E8 ; 1.2843137331515917E10 ; 0.0
73 ; 3862334.2979749115 ; 2.0131375594928536E8 ; 2.4944574156909475E8 ; 1.3044437973035261E10 ; 0.0
74 ; 3866865.1297726487 ; 2.0132688738566256E8 ; 2.5330807586706966E8 ; 1.3245751728984547E10 ; 0.0
75 ; 3869030.274810846 ; 2.0134003420325336E8 ; 2.5717494099684232E8 ; 1.3447078616370209E10 ; 0.0
76 ; 3875170.3394891066 ; 2.0135319484363562E8 ; 2.6104397127165318E8 ; 1.3648418650573462E10 ; 0.0
77 ; 3881088.256950538 ; 2.0136636781135756E8 ; 2.6491914161114228E8 ; 1.3849771845417097E10 ; 0.0
78 ; 3876482.888594266 ; 2.0137955167035514E8 ; 2.6880022986809283E8 ; 1.4051138213228455E10 ; 0.0
79 ; 3874600.11886637 ; 2.0139274504059935E8 ; 2.726767127566871E8 ; 1.425251776489881E10 ; 0.0
80 ; 3875468.482813585 ; 2.0140594659495828E8 ; 2.765513128755535E8 ; 1.445391050993941E10 ; 0.0
81 ; 3873000.3073337395 ; 2.0141915505625856E8 ; 2.804267813583671E8 ; 1.4655316456534367E10 ; 0.0
82 ; 3873154.529544489 ; 2.0143236919453293E8 ; 2.8429978166570085E8 ; 1.4856735611590626E10 ; 0.0
83 ; 3872703.59629833 ; 2.0144558782444108E8 ; 2.881729361952453E8 ; 1.5058167980785158E10 ; 0.0
84 ; 3868323.7204790097 ; 2.0145880980285177E8 ; 2.9204563979154366E8 ; 1.52596135686096E10 ; 0.0
85 ; 3870357.016600039 ; 2.014720340265757E8 ; 2.959139635120227E8 ; 1.5461072378412453E10 ; 0.0
86 ; 3868692.071646392 ; 2.014852594302383E8 ; 2.997843205286227E8 ; 1.5662544412439028E10 ; 0.0
87 ; 3862391.591762627 ; 2.0149848498428348E8 ; 3.036530126002691E8 ; 1.5864029671869267E10 ; 0.0
88 ; 3862949.9901546664 ; 2.015117096930993E8 ; 3.075154041920317E8 ; 1.606552815685355E10 ; 0.0
89 ; 3863644.159320549 ; 2.0152493259325743E8 ; 3.1137835418218637E8 ; 1.626703986654665E10 ; 0.0
90 ; 3861344.2490701615 ; 2.0153815275185892E8 ; 3.152419983415069E8 ; 1.6468564799139908E10 ; 0.0
91 ; 3857690.514355141 ; 2.0155136926497895E8 ; 3.1910334259057707E8 ; 1.6670102951891768E10 ; 0.0
92 ; 3858254.2423995226 ; 2.015645812562042E8 ; 3.229610331049322E8 ; 1.6871654321156746E10 ; 0.0
93 ; 3857470.646748863 ; 2.01577787875257E8 ; 3.268192873473317E8 ; 1.707321890241295E10 ; 0.0
94 ; 3851301.178276287 ; 2.0159098829669997E8 ; 3.3067675799408054E8 ; 1.7274796690288208E10 ; 0.0
95 ; 3850426.2229610346 ; 2.016041817187165E8 ; 3.3452805917235684E8 ; 1.7476387678584908E10 ; 0.0
96 ; 3848573.2866845056 ; 2.016173673619618E8 ; 3.3837848539531785E8 ; 1.7677991860303623E10 ; 0.0
97 ; 3842650.4059789525 ; 2.0163054446848035E8 ; 3.4222705868200237E8 ; 1.7879609227665585E10 ; 0.0
98 ; 3838943.687521632 ; 2.0164371230068478E8 ; 3.4606970908798134E8 ; 1.8081239772134064E10 ; 0.0
99 ; 3839572.2463995465 ; 2.0165687014039338E8 ; 3.49908652775503E8 ; 1.828288348443475E10 ; 0.0
100 ; 3839296.385477045 ; 2.016700172879214E8 ; 3.537482250219025E8 ; 1.848454035457514E10 ; 0.0
101 ; 3832585.088747195 ; 2.0168315306122354E8 ; 3.5758752140737957E8 ; 1.8686210371863064E10 ; 0.0
102 ; 3832905.355094496 ; 2.0169627679508415E8 ; 3.614201064961268E8 ; 1.8887893524924286E10 ; 0.0
103 ; 3826632.015792782 ; 2.0170938784035203E8 ; 3.6525301185122126E8 ; 1.908958980171937E10 ; 0.0
104 ; 3825118.8569762036 ; 2.0172248556321746E8 ; 3.6907964386701405E8 ; 1.9291299189559723E10 ; 0.0
105 ; 3818591.3221768807 ; 2.0173556934452847E8 ; 3.7290476272399026E8 ; 1.949302167512294E10 ; 0.0
106 ; 3815615.821657804 ; 2.0174863857914424E8 ; 3.7672335404616714E8 ; 1.969475724446747E10 ; 0.0
107 ; 3817383.3215343547 ; 2.0176169267532334E8 ; 3.805389698678249E8 ; 1.989650588304661E10 ; 0.0
108 ; 3811255.257776078 ; 2.0177473105414444E8 ; 3.8435635318935925E8 ; 2.0098267575721935E10 ; 0.0
109 ; 3810157.6352940723 ; 2.0178775314895803E8 ; 3.881676084471353E8 ; 2.030004230677608E10 ; 0.0
110 ; 3806319.42417309 ; 2.0180075840486687E8 ; 3.919777660824294E8 ; 2.0501830059925037E10 ; 0.0
111 ; 3800654.085988743 ; 2.0181374627823374E8 ; 3.957840855066025E8 ; 2.0703630818329903E10 ; 0.0
112 ; 3794654.7776008397 ; 2.0182671623621467E8 ; 3.995847395925913E8 ; 2.0905444564608135E10 ; 0.0
113 ; 3793690.768650635 ; 2.018396677563165E8 ; 4.033793943701921E8 ; 2.110727128084435E10 ; 0.0
114 ; 3790072.099241054 ; 2.01852600325977E8 ; 4.0717308513884276E8 ; 2.1309110948600666E10 ; 0.0
115 ; 3784783.0673759636 ; 2.0186551344216636E8 ; 4.1096315723808384E8 ; 2.1510963548926643E10 ; 0.0
116 ; 3779984.456361001 ; 2.0187840661100912E8 ; 4.147479403054598E8 ; 2.171282906236881E10 ; 0.0
117 ; 3775753.8045835383 ; 2.0189127934742483E8 ; 4.185279247618208E8 ; 2.1914707468979816E10 ; 0.0
118 ; 3772161.803106442 ; 2.0190413117478696E8 ; 4.2230367856640434E8 ; 2.211659874832724E10 ; 0.0
119 ; 3767591.2936248234 ; 2.019169616245985E8 ; 4.2607584036951077E8 ; 2.2318502879502026E10 ; 0.0
120 ; 3762229.712123269 ; 2.019297702361839E8 ; 4.298434316631356E8 ; 2.2520419841126625E10 ; 0.0
121 ; 3756823.447822295 ; 2.019425565563958E8 ; 4.3360566137525886E8 ; 2.272234961136281E10 ; 0.0
122 ; 3755462.405185956 ; 2.0195532013933632E8 ; 4.3736248482308114E8 ; 2.2924292167919205E10 ; 0.0
123 ; 3748549.8725052853 ; 2.0196806054609174E8 ; 4.411179472282671E8 ; 2.312624748805854E10 ; 0.0
124 ; 3744549.4546532147 ; 2.0198077734448E8 ; 4.448664971007724E8 ; 2.3328215548604633E10 ; 0.0
125 ; 3739758.824722418 ; 2.019934701088103E8 ; 4.486110465554256E8 ; 2.3530196325949112E10 ; 0.0
126 ; 3733745.1245398615 ; 2.020061384196541E8 ; 4.52350805380148E8 ; 2.3732189796057922E10 ; 0.0
127 ; 3727255.311684151 ; 2.0201878186362705E8 ; 4.5608455050468785E8 ; 2.3934195934477577E10 ; 0.0
128 ; 3721668.7516400665 ; 2.020314000331811E8 ; 4.59811805816372E8 ; 2.4136214716341206E10 ; 0.0
129 ; 3716108.3731048508 ; 2.0204399252640638E8 ; 4.6353347456801206E8 ; 2.4338246116374386E10 ; 0.0
130 ; 3714077.9568853555 ; 2.0205655894684216E8 ; 4.672495829411169E8 ; 2.454029010890079E10 ; 0.0
131 ; 3701704.2162843044 ; 2.020690989032969E8 ; 4.7096366089800227E8 ; 2.4742346667847633E10 ; 0.0
132 ; 3694252.899000594 ; 2.020816120096761E8 ; 4.7466536511428654E8 ; 2.494441576675093E10 ; 0.0
133 ; 3682042.7501896974 ; 2.0209409788481846E8 ; 4.783596180132871E8 ; 2.514649737876061E10 ; 0.0
134 ; 3675198.3248669575 ; 2.0210655615233916E8 ; 4.8204166076347685E8 ; 2.5348591476645428E10 ; 0.0
135 ; 3665974.891923645 ; 2.021189864404804E8 ; 4.857168590883438E8 ; 2.5550698032797768E10 ; 0.0
136 ; 3656405.1093338686 ; 2.0213138838196877E8 ; 4.8938283398026747E8 ; 2.5752817019238247E10 ; 0.0
137 ; 3642838.05529086 ; 2.021437616138786E8 ; 4.9303923908960134E8 ; 2.5954948407620216E10 ; 0.0
138 ; 3634773.3730054037 ; 2.021561057775019E8 ; 4.966820771448922E8 ; 2.6157092169234097E10 ; 0.0
139 ; 3627026.707786419 ; 2.0216842051822373E8 ; 5.003168505178976E8 ; 2.6359248275011597E10 ; 0.0
140 ; 3618830.300181333 ; 2.021807054854031E8 ; 5.0394387722568405E8 ; 2.656141669552982E10 ; 0.0
141 ; 3604404.191575033 ; 2.0219296033225918E8 ; 5.075627075258654E8 ; 2.6763597401015224E10 ; 0.0
142 ; 3596294.9257071177 ; 2.0220518471576256E8 ; 5.111671117174404E8 ; 2.6965790361347485E10 ; 0.0
143 ; 3587564.051710007 ; 2.0221737829653087E8 ; 5.147634066431475E8 ; 2.7167995546063248E10 ; 0.0
144 ; 3574990.637870766 ; 2.0222954073872945E8 ; 5.1835097069485754E8 ; 2.737021292435978E10 ; 0.0
145 ; 3571536.2351701716 ; 2.0224167170997566E8 ; 5.219259613327283E8 ; 2.7572442465098507E10 ; 0.0
146 ; 3561313.697262169 ; 2.022537708812479E8 ; 5.254974975678985E8 ; 2.7774684136808483E10 ; 0.0
147 ; 3558852.9552132934 ; 2.0226583792679814E8 ; 5.290588112651607E8 ; 2.797693790768973E10 ; 0.0
148 ; 3555526.068922581 ; 2.022778725240682E8 ; 5.32617664220374E8 ; 2.817920374561653E10 ; 0.0
149 ; 3548785.8245129725 ; 2.0228987435360965E8 ; 5.3617319028929657E8 ; 2.83814816181406E10 ; 0.0
150 ; 3542095.9856155347 ; 2.023018430990071E8 ; 5.397219761138096E8 ; 2.858377149249421E10 ; 0.0
151 ; 3538346.0521774003 ; 2.023137784468046E8 ; 5.432640720994251E8 ; 2.8786073335593216E10 ; 0.0
152 ; 3528726.5252525597 ; 2.023256800864352E8 ; 5.468024181516025E8 ; 2.898838711404002E10 ; 0.0
153 ; 3525735.543274791 ; 2.0233754771015334E8 ; 5.503311446768551E8 ; 2.9190712794126453E10 ; 0.0
154 ; 3516470.997293525 ; 2.0234938101297018E8 ; 5.538568802201298E8 ; 2.9393050341836605E10 ; 0.0
155 ; 3509429.3343895725 ; 2.0236117969259152E8 ; 5.573733512174233E8 ; 2.9595399722849575E10 ; 0.0
156 ; 3507032.631357536 ; 2.0237294344935817E8 ; 5.608827805518129E8 ; 2.9797760902542168E10 ; 0.0
157 ; 3501071.293429143 ; 2.02384671986189E8 ; 5.643898131831704E8 ; 3.0000133845991528E10 ; 0.0
158 ; 3495443.424273887 ; 2.0239636500852603E8 ; 5.678908844765996E8 ; 3.020251851797772E10 ; 0.0
159 ; 3489312.1764279874 ; 2.0240802222428206E8 ; 5.713863279008734E8 ; 3.0404914882986244E10 ; 0.0
160 ; 3487865.6976215118 ; 2.0241964334379008E8 ; 5.748756400773014E8 ; 3.0607322905210526E10 ; 0.0
161 ; 3478519.994367038 ; 2.024312280797551E8 ; 5.783635057749228E8 ; 3.0809742548554317E10 ; 0.0
162 ; 3473811.6650941507 ; 2.0244277614720753E8 ; 5.818420257692899E8 ; 3.101217377663407E10 ; 0.0
163 ; 3468692.8505519466 ; 2.0245428726345882E8 ; 5.85315837434384E8 ; 3.121461655278128E10 ; 0.0
164 ; 3463111.722624798 ; 2.0246576114805847E8 ; 5.88784530284936E8 ; 3.141707084004474E10 ; 0.0
165 ; 3459126.3554700348 ; 2.024771975227532E8 ; 5.922476420075607E8 ; 3.16195366011928E10 ; 0.0
166 ; 3451175.1598811266 ; 2.024885961114473E8 ; 5.957067683630308E8 ; 3.1822013798715553E10 ; 0.0
167 ; 3447291.181361023 ; 2.0249995664016494E8 ; 5.991579435229119E8 ; 3.2024502394827E10 ; 0.0
168 ; 3438365.0749596935 ; 2.025112788370137E8 ; 6.02605234704273E8 ; 3.2227002351467163E10 ; 0.0
169 ; 3430275.835136845 ; 2.0252256243214965E8 ; 6.060435997792326E8 ; 3.2429513630304176E10 ; 0.0
170 ; 3424289.7710747295 ; 2.0253380715774387E8 ; 6.094738756143695E8 ; 3.2632036192736324E10 ; 0.0
171 ; 3418968.7346274545 ; 2.0254501274795014E8 ; 6.128981653854443E8 ; 3.283456999989407E10 ; 0.0
172 ; 3414514.2525638016 ; 2.025561789388741E8 ; 6.163171341200718E8 ; 3.303711501264202E10 ; 0.0
173 ; 3407921.7933737044 ; 2.025673054685433E8 ; 6.197316483726356E8 ; 3.3239671191580894E10 ; 0.0
174 ; 3404938.210024703 ; 2.0257839207687885E8 ; 6.231395701660093E8 ; 3.344223849704944E10 ; 0.0
175 ; 3397693.232172371 ; 2.0258943850566775E8 ; 6.26544508376034E8 ; 3.3644816889126316E10 ; 0.0
176 ; 3399305.1845057765 ; 2.0260044449853668E8 ; 6.299422016082064E8 ; 3.3847406327631985E10 ; 0.0
177 ; 3391550.7209735666 ; 2.026114098009265E8 ; 6.333415067927122E8 ; 3.405000677213052E10 ; 0.0
178 ; 3389115.335775996 ; 2.0262233416006795E8 ; 6.367330575136858E8 ; 3.4252618181931446E10 ; 0.0
179 ; 3381665.943302366 ; 2.026332173249581E8 ; 6.401221728494618E8 ; 3.4455240516091515E10 ; 0.0
180 ; 3377935.632722381 ; 2.0264405904633802E8 ; 6.435038387927642E8 ; 3.465787373341647E10 ; 0.0
181 ; 3374659.669268732 ; 2.0265485907667106E8 ; 6.468817744254866E8 ; 3.4860517792462814E10 ; 0.0
182 ; 3368810.208179076 ; 2.0266561717012194E8 ; 6.502564340947553E8 ; 3.506317265153948E10 ; 0.0
183 ; 3364213.0511921532 ; 2.0267633308253694E8 ; 6.536252443029344E8 ; 3.52658382687096E10 ; 0.0
184 ; 3360582.54270518 ; 2.0268700657142448E8 ; 6.569894573541266E8 ; 3.546851460179214E10 ; 0.0
185 ; 3358310.066198612 ; 2.0269763739593688E8 ; 6.603500398968318E8 ; 3.567120160836356E10 ; 0.0
186 ; 3352854.712497627 ; 2.0270822531685233E8 ; 6.637083499630303E8 ; 3.58738992457595E10 ; 0.0
187 ; 3349725.0194540364 ; 2.0271877009655812E8 ; 6.670612046755279E8 ; 3.607660747107635E10 ; 0.0
188 ; 3344107.057848904 ; 2.02729271499034E8 ; 6.704109296949819E8 ; 3.6279326241172905E10 ; 0.0
189 ; 3337248.5786537863 ; 2.0273972928983647E8 ; 6.737550367528309E8 ; 3.6482055512671936E10 ; 0.0
190 ; 3337733.5978039815 ; 2.0275014323608372E8 ; 6.770922853314847E8 ; 3.668479524196177E10 ; 0.0
191 ; 3331337.9616410355 ; 2.027605131064409E8 ; 6.804300189292886E8 ; 3.688754538519785E10 ; 0.0
192 ; 3326260.7191540897 ; 2.0277083867110634E8 ; 6.837613568909297E8 ; 3.709030589830429E10 ; 0.0
193 ; 3323458.084425594 ; 2.027811197017979E8 ; 6.870876176100838E8 ; 3.7293076736975395E10 ; 0.0
194 ; 3319584.888300068 ; 2.0279135597174007E8 ; 6.904110756945094E8 ; 3.749585785667719E10 ; 0.0
195 ; 3312414.1054475782 ; 2.028015472556517E8 ; 6.937306605828094E8 ; 3.769864921264893E10 ; 0.0
196 ; 3309703.2089529857 ; 2.028116933297339E8 ; 6.97043074688257E8 ; 3.790145075990459E10 ; 0.0
197 ; 3306947.4763379763 ; 2.0282179397165868E8 ; 7.0035277789721E8 ; 3.810426245323432E10 ; 0.0
198 ; 3303866.763756598 ; 2.0283184896055782E8 ; 7.03659725373548E8 ; 3.830708424720598E10 ; 0.0
199 ; 3298186.3927738434 ; 2.0284185807701245E8 ; 7.069635921373047E8 ; 3.8509916096166534E10 ; 0.0
200 ; 3293894.5797179537 ; 2.0285182110304275E8 ; 7.102617785300785E8 ; 3.8712757954243546E10 ; 0.0
