CSV File for the City 3 on Day 15
1 - Minute m 
2 - Power Consumed at minute m 
3 - Power Produced at minute m 
4 - Energy Consumed since the beginning of the day 
5 - Energy Produced since the beginning of the day 
6 - Energy Lost since the beginning of the day on lines starting from the city
 
0 ; 5948097.629999384 ; 7042077.075082442 ; 0.0 ; 0.0 ; 0.0
1 ; 5953850.254706461 ; 7042077.075082442 ; 5948097.629999384 ; 7042077.075082442 ; 0.0
2 ; 5962376.9150789445 ; 7042077.075082442 ; 1.1901947884705845E7 ; 1.4084154150164884E7 ; 0.0
3 ; 5969125.327565608 ; 7042077.075082442 ; 1.786432479978479E7 ; 2.1126231225247324E7 ; 0.0
4 ; 5977158.825263523 ; 7042077.075082442 ; 2.3833450127350397E7 ; 2.8168308300329767E7 ; 0.0
5 ; 5987839.240707155 ; 7042077.075082442 ; 2.981060895261392E7 ; 3.521038537541221E7 ; 0.0
6 ; 6000608.4963264875 ; 7042077.075082442 ; 3.579844819332108E7 ; 4.2252462450494654E7 ; 0.0
7 ; 6019854.488087678 ; 7042077.075082442 ; 4.179905668964757E7 ; 4.92945395255771E7 ; 0.0
8 ; 6048799.51716708 ; 7042077.075082442 ; 4.781891117773525E7 ; 5.633661660065954E7 ; 0.0
9 ; 6091139.392512241 ; 7042077.075082442 ; 5.386771069490233E7 ; 6.3378693675741985E7 ; 0.0
10 ; 6159029.678335768 ; 7042077.075082442 ; 5.995885008741457E7 ; 7.042077075082442E7 ; 0.0
11 ; 6261034.13904205 ; 7042077.075082442 ; 6.611787976575034E7 ; 7.746284782590686E7 ; 0.0
12 ; 6426718.200484999 ; 7042077.075082442 ; 7.23789139047924E7 ; 8.45049249009893E7 ; 0.0
13 ; 6582658.64976927 ; 7042077.075082442 ; 7.88056321052774E7 ; 9.154700197607173E7 ; 0.0
14 ; 6599932.2918587485 ; 7042077.075082442 ; 8.538829075504668E7 ; 9.858907905115417E7 ; 0.0
15 ; 6608640.932346401 ; 7042077.075082442 ; 9.198822304690543E7 ; 1.056311561262366E8 ; 0.0
16 ; 6614459.821136178 ; 7042077.075082442 ; 9.859686397925183E7 ; 1.1267323320131904E8 ; 0.0
17 ; 6625076.5677388385 ; 7042077.075082442 ; 1.0521132380038801E8 ; 1.1971531027640148E8 ; 0.0
18 ; 6630708.634515907 ; 7042077.075082442 ; 1.1183640036812684E8 ; 1.2675738735148391E8 ; 0.0
19 ; 6640996.928465994 ; 7042077.075082442 ; 1.1846710900264275E8 ; 1.3379946442656635E8 ; 0.0
20 ; 6647195.308384091 ; 7042077.075082442 ; 1.2510810593110874E8 ; 1.4084154150164878E8 ; 0.0
21 ; 6654536.360737966 ; 7042077.075082442 ; 1.3175530123949283E8 ; 1.4788361857673123E8 ; 0.0
22 ; 6663626.826938375 ; 7042077.075082442 ; 1.384098376002308E8 ; 1.549256956518137E8 ; 0.0
23 ; 6672283.774997623 ; 7042077.075082442 ; 1.4507346442716917E8 ; 1.6196777272689614E8 ; 0.0
24 ; 6680444.783916796 ; 7042077.075082442 ; 1.517457482021668E8 ; 1.690098498019786E8 ; 0.0
25 ; 6686387.789702948 ; 7042077.075082442 ; 1.584261929860836E8 ; 1.7605192687706104E8 ; 0.0
26 ; 6694401.473231732 ; 7042077.075082442 ; 1.6511258077578655E8 ; 1.830940039521435E8 ; 0.0
27 ; 6701671.342045696 ; 7042077.075082442 ; 1.7180698224901828E8 ; 1.9013608102722594E8 ; 0.0
28 ; 6709506.981100415 ; 7042077.075082442 ; 1.7850865359106398E8 ; 1.971781581023084E8 ; 0.0
29 ; 6717472.9556131745 ; 7042077.075082442 ; 1.852181605721644E8 ; 2.0422023517739084E8 ; 0.0
30 ; 6725755.265700253 ; 7042077.075082442 ; 1.9193563352777755E8 ; 2.112623122524733E8 ; 0.0
31 ; 6730076.985581121 ; 7042077.075082442 ; 1.986613887934778E8 ; 2.1830438932755575E8 ; 0.0
32 ; 6735957.414274026 ; 7042077.075082442 ; 2.0539146577905893E8 ; 2.253464664026382E8 ; 0.0
33 ; 6748470.071938394 ; 7042077.075082442 ; 2.1212742319333297E8 ; 2.3238854347772065E8 ; 0.0
34 ; 6751438.723187171 ; 7042077.075082442 ; 2.1887589326527137E8 ; 2.394306205528031E8 ; 0.0
35 ; 6759819.371802823 ; 7042077.075082442 ; 2.2562733198845854E8 ; 2.4647269762788555E8 ; 0.0
36 ; 6765918.448929751 ; 7042077.075082442 ; 2.3238715136026138E8 ; 2.53514774702968E8 ; 0.0
37 ; 6770156.7904863795 ; 7042077.075082442 ; 2.3915306980919114E8 ; 2.6055685177805045E8 ; 0.0
38 ; 6777327.432056026 ; 7042077.075082442 ; 2.459232265996775E8 ; 2.675989288531329E8 ; 0.0
39 ; 6783946.364200603 ; 7042077.075082442 ; 2.5270055403173354E8 ; 2.746410059282153E8 ; 0.0
40 ; 6787248.985311547 ; 7042077.075082442 ; 2.5948450039593413E8 ; 2.8168308300329775E8 ; 0.0
41 ; 6792907.693718909 ; 7042077.075082442 ; 2.6627174938124567E8 ; 2.8872516007838017E8 ; 0.0
42 ; 6798726.084493476 ; 7042077.075082442 ; 2.730646570749646E8 ; 2.957672371534626E8 ; 0.0
43 ; 6801635.190802582 ; 7042077.075082442 ; 2.7986338315945804E8 ; 3.02809314228545E8 ; 0.0
44 ; 6805472.056391857 ; 7042077.075082442 ; 2.866650183502606E8 ; 3.0985139130362743E8 ; 0.0
45 ; 6809547.915952876 ; 7042077.075082442 ; 2.9347049040665245E8 ; 3.1689346837870985E8 ; 0.0
46 ; 6813124.99251166 ; 7042077.075082442 ; 3.002800383226053E8 ; 3.239355454537923E8 ; 0.0
47 ; 6816874.142562482 ; 7042077.075082442 ; 3.07093163315117E8 ; 3.309776225288747E8 ; 0.0
48 ; 6818447.279658759 ; 7042077.075082442 ; 3.139100374576795E8 ; 3.380196996039571E8 ; 0.0
49 ; 6820024.167187202 ; 7042077.075082442 ; 3.2072848473733824E8 ; 3.4506177667903954E8 ; 0.0
50 ; 6822809.415442239 ; 7042077.075082442 ; 3.2754850890452546E8 ; 3.5210385375412196E8 ; 0.0
51 ; 6826603.989632577 ; 7042077.075082442 ; 3.343713183199677E8 ; 3.591459308292044E8 ; 0.0
52 ; 6828308.4348981045 ; 7042077.075082442 ; 3.4119792230960023E8 ; 3.661880079042868E8 ; 0.0
53 ; 6827549.7912101 ; 7042077.075082442 ; 3.480262307444983E8 ; 3.732300849793692E8 ; 0.0
54 ; 6831097.738907973 ; 7042077.075082442 ; 3.548537805357084E8 ; 3.8027216205445164E8 ; 0.0
55 ; 6832609.540659495 ; 7042077.075082442 ; 3.616848782746164E8 ; 3.8731423912953407E8 ; 0.0
56 ; 6835963.72644349 ; 7042077.075082442 ; 3.685174878152759E8 ; 3.943563162046165E8 ; 0.0
57 ; 6838115.40119078 ; 7042077.075082442 ; 3.753534515417194E8 ; 4.013983932796989E8 ; 0.0
58 ; 6838925.399682851 ; 7042077.075082442 ; 3.8219156694291013E8 ; 4.084404703547813E8 ; 0.0
59 ; 6838543.751380577 ; 7042077.075082442 ; 3.89030492342593E8 ; 4.1548254742986375E8 ; 0.0
60 ; 6839832.279533277 ; 7042077.075082442 ; 3.958690360939736E8 ; 4.225246245049462E8 ; 0.0
61 ; 6842342.301554364 ; 7042077.075082442 ; 4.0270886837350684E8 ; 4.295667015800286E8 ; 0.0
62 ; 6843625.653926109 ; 7042077.075082442 ; 4.095512106750612E8 ; 4.36608778655111E8 ; 0.0
63 ; 6843973.373138831 ; 7042077.075082442 ; 4.1639483632898736E8 ; 4.4365085573019344E8 ; 0.0
64 ; 6846564.119127924 ; 7042077.075082442 ; 4.232388097021262E8 ; 4.5069293280527586E8 ; 0.0
65 ; 6846631.063265819 ; 7042077.075082442 ; 4.3008537382125413E8 ; 4.577350098803583E8 ; 0.0
66 ; 6848082.193189174 ; 7042077.075082442 ; 4.3693200488451993E8 ; 4.647770869554407E8 ; 0.0
67 ; 6848603.466188631 ; 7042077.075082442 ; 4.437800870777091E8 ; 4.718191640305231E8 ; 0.0
68 ; 6849434.637361259 ; 7042077.075082442 ; 4.506286905438977E8 ; 4.7886124110560554E8 ; 0.0
69 ; 6851046.010103289 ; 7042077.075082442 ; 4.57478125181259E8 ; 4.8590331818068796E8 ; 0.0
70 ; 6852338.433033965 ; 7042077.075082442 ; 4.6432917119136226E8 ; 4.929453952557704E8 ; 0.0
71 ; 6851500.080252897 ; 7042077.075082442 ; 4.711815096243962E8 ; 4.999874723308528E8 ; 0.0
72 ; 6852806.70665434 ; 7042077.075082442 ; 4.780330097046491E8 ; 5.070295494059352E8 ; 0.0
73 ; 6853472.109541209 ; 7042077.075082442 ; 4.848858164113034E8 ; 5.1407162648101765E8 ; 0.0
74 ; 6851298.927232521 ; 7042077.075082442 ; 4.9173928852084464E8 ; 5.211137035561001E8 ; 0.0
75 ; 6850446.856460696 ; 7042077.075082442 ; 4.9859058744807714E8 ; 5.281557806311825E8 ; 0.0
76 ; 6853226.645759666 ; 7042077.075082442 ; 5.0544103430453783E8 ; 5.351978577062649E8 ; 0.0
77 ; 6853073.41968395 ; 7042077.075082442 ; 5.122942609502975E8 ; 5.422399347813474E8 ; 0.0
78 ; 6850190.740722863 ; 7042077.075082442 ; 5.191473343699814E8 ; 5.492820118564298E8 ; 0.0
79 ; 6849243.143938593 ; 7042077.075082442 ; 5.2599752511070424E8 ; 5.563240889315122E8 ; 0.0
80 ; 6848840.633930113 ; 7042077.075082442 ; 5.3284676825464284E8 ; 5.633661660065947E8 ; 0.0
81 ; 6845777.971324507 ; 7042077.075082442 ; 5.396956088885729E8 ; 5.704082430816771E8 ; 0.0
82 ; 6843253.333429628 ; 7042077.075082442 ; 5.465413868598975E8 ; 5.774503201567595E8 ; 0.0
83 ; 6841299.181477006 ; 7042077.075082442 ; 5.533846401933271E8 ; 5.844923972318419E8 ; 0.0
84 ; 6838426.929760286 ; 7042077.075082442 ; 5.60225939374804E8 ; 5.915344743069243E8 ; 0.0
85 ; 6837047.151518185 ; 7042077.075082442 ; 5.670643663045644E8 ; 5.985765513820068E8 ; 0.0
86 ; 6835394.503823094 ; 7042077.075082442 ; 5.739014134560826E8 ; 6.056186284570892E8 ; 0.0
87 ; 6831683.226859762 ; 7042077.075082442 ; 5.807368079599056E8 ; 6.126607055321716E8 ; 0.0
88 ; 6831536.022964734 ; 7042077.075082442 ; 5.875684911867654E8 ; 6.19702782607254E8 ; 0.0
89 ; 6826901.844052484 ; 7042077.075082442 ; 5.944000272097301E8 ; 6.267448596823364E8 ; 0.0
90 ; 6824324.987327912 ; 7042077.075082442 ; 6.012269290537826E8 ; 6.337869367574189E8 ; 0.0
91 ; 6820474.968194926 ; 7042077.075082442 ; 6.080512540411105E8 ; 6.408290138325013E8 ; 0.0
92 ; 6817416.078073302 ; 7042077.075082442 ; 6.148717290093055E8 ; 6.478710909075837E8 ; 0.0
93 ; 6813932.419464701 ; 7042077.075082442 ; 6.216891450873787E8 ; 6.549131679826661E8 ; 0.0
94 ; 6813547.92346189 ; 7042077.075082442 ; 6.285030775068434E8 ; 6.619552450577486E8 ; 0.0
95 ; 6807219.726249274 ; 7042077.075082442 ; 6.353166254303054E8 ; 6.68997322132831E8 ; 0.0
96 ; 6807662.4778327 ; 7042077.075082442 ; 6.421238451565546E8 ; 6.760393992079134E8 ; 0.0
97 ; 6804213.935878357 ; 7042077.075082442 ; 6.489315076343873E8 ; 6.830814762829958E8 ; 0.0
98 ; 6800780.881855002 ; 7042077.075082442 ; 6.557357215702657E8 ; 6.901235533580782E8 ; 0.0
99 ; 6797353.740919213 ; 7042077.075082442 ; 6.625365024521207E8 ; 6.971656304331607E8 ; 0.0
100 ; 6794305.36256276 ; 7042077.075082442 ; 6.693338561930399E8 ; 7.042077075082431E8 ; 0.0
101 ; 6789302.687731441 ; 7042077.075082442 ; 6.761281615556027E8 ; 7.112497845833255E8 ; 0.0
102 ; 6786097.779371172 ; 7042077.075082442 ; 6.82917464243334E8 ; 7.182918616584079E8 ; 0.0
103 ; 6782829.655902739 ; 7042077.075082442 ; 6.897035620227052E8 ; 7.253339387334903E8 ; 0.0
104 ; 6779083.1449085325 ; 7042077.075082442 ; 6.96486391678608E8 ; 7.323760158085728E8 ; 0.0
105 ; 6775014.778906014 ; 7042077.075082442 ; 7.032654748235165E8 ; 7.394180928836552E8 ; 0.0
106 ; 6773557.941268138 ; 7042077.075082442 ; 7.100404896024225E8 ; 7.464601699587376E8 ; 0.0
107 ; 6769155.713312292 ; 7042077.075082442 ; 7.168140475436906E8 ; 7.5350224703382E8 ; 0.0
108 ; 6763517.275698792 ; 7042077.075082442 ; 7.235832032570028E8 ; 7.605443241089025E8 ; 0.0
109 ; 6759871.168073348 ; 7042077.075082442 ; 7.303467205327016E8 ; 7.675864011839849E8 ; 0.0
110 ; 6755656.345375567 ; 7042077.075082442 ; 7.371065917007749E8 ; 7.746284782590673E8 ; 0.0
111 ; 6752431.274243428 ; 7042077.075082442 ; 7.438622480461504E8 ; 7.816705553341497E8 ; 0.0
112 ; 6747878.356115907 ; 7042077.075082442 ; 7.506146793203939E8 ; 7.887126324092321E8 ; 0.0
113 ; 6741641.802582038 ; 7042077.075082442 ; 7.573625576765099E8 ; 7.957547094843146E8 ; 0.0
114 ; 6739554.870012949 ; 7042077.075082442 ; 7.641041994790919E8 ; 8.02796786559397E8 ; 0.0
115 ; 6733591.548398612 ; 7042077.075082442 ; 7.708437543491049E8 ; 8.098388636344794E8 ; 0.0
116 ; 6731338.39434185 ; 7042077.075082442 ; 7.775773458975035E8 ; 8.168809407095618E8 ; 0.0
117 ; 6726487.341608045 ; 7042077.075082442 ; 7.843086842918453E8 ; 8.239230177846442E8 ; 0.0
118 ; 6720151.691335817 ; 7042077.075082442 ; 7.910351716334534E8 ; 8.309650948597267E8 ; 0.0
119 ; 6715738.873411074 ; 7042077.075082442 ; 7.977553233247892E8 ; 8.380071719348091E8 ; 0.0
120 ; 6713387.273696808 ; 7042077.075082442 ; 8.044710621982002E8 ; 8.450492490098915E8 ; 0.0
121 ; 6707184.871966608 ; 7042077.075082442 ; 8.11184449471897E8 ; 8.520913260849739E8 ; 0.0
122 ; 6702588.431229423 ; 7042077.075082442 ; 8.178916343438636E8 ; 8.591334031600564E8 ; 0.0
123 ; 6694626.86878683 ; 7042077.075082442 ; 8.245942227750931E8 ; 8.661754802351388E8 ; 0.0
124 ; 6691370.689583171 ; 7042077.075082442 ; 8.312888496438799E8 ; 8.732175573102212E8 ; 0.0
125 ; 6686864.186494935 ; 7042077.075082442 ; 8.379802203334631E8 ; 8.802596343853036E8 ; 0.0
126 ; 6683789.783386027 ; 7042077.075082442 ; 8.44667084519958E8 ; 8.87301711460386E8 ; 0.0
127 ; 6675334.120287284 ; 7042077.075082442 ; 8.51350874303344E8 ; 8.943437885354685E8 ; 0.0
128 ; 6669580.437968514 ; 7042077.075082442 ; 8.580262084236313E8 ; 9.013858656105509E8 ; 0.0
129 ; 6667435.3742855685 ; 7042077.075082442 ; 8.646957888615998E8 ; 9.084279426856333E8 ; 0.0
130 ; 6659380.635384128 ; 7042077.075082442 ; 8.713632242358854E8 ; 9.154700197607157E8 ; 0.0
131 ; 6654986.806637573 ; 7042077.075082442 ; 8.780226048712695E8 ; 9.225120968357981E8 ; 0.0
132 ; 6642863.363459998 ; 7042077.075082442 ; 8.84677591677907E8 ; 9.295541739108806E8 ; 0.0
133 ; 6637916.751615327 ; 7042077.075082442 ; 8.913204550413669E8 ; 9.36596250985963E8 ; 0.0
134 ; 6629080.7763911905 ; 7042077.075082442 ; 8.979583717929822E8 ; 9.436383280610454E8 ; 0.0
135 ; 6625491.634967506 ; 7042077.075082442 ; 9.045874525693734E8 ; 9.506804051361278E8 ; 0.0
136 ; 6614175.9856197005 ; 7042077.075082442 ; 9.112129442043409E8 ; 9.577224822112103E8 ; 0.0
137 ; 6607496.955864866 ; 7042077.075082442 ; 9.178271201899606E8 ; 9.647645592862927E8 ; 0.0
138 ; 6600570.29495614 ; 7042077.075082442 ; 9.244346171458255E8 ; 9.718066363613751E8 ; 0.0
139 ; 6591611.2966220025 ; 7042077.075082442 ; 9.310351874407816E8 ; 9.788487134364575E8 ; 0.0
140 ; 6584776.526988055 ; 7042077.075082442 ; 9.376267987374036E8 ; 9.858907905115399E8 ; 0.0
141 ; 6576971.134290359 ; 7042077.075082442 ; 9.442115752643917E8 ; 9.929328675866224E8 ; 0.0
142 ; 6567451.871497615 ; 7042077.075082442 ; 9.50788546398682E8 ; 9.999749446617048E8 ; 0.0
143 ; 6560875.467995867 ; 7042077.075082442 ; 9.573559982701796E8 ; 1.0070170217367872E9 ; 0.0
144 ; 6550850.094244814 ; 7042077.075082442 ; 9.639168737381755E8 ; 1.0140590988118696E9 ; 0.0
145 ; 6547800.433805097 ; 7042077.075082442 ; 9.704677238324203E8 ; 1.021101175886952E9 ; 0.0
146 ; 6541349.745785888 ; 7042077.075082442 ; 9.770155242662255E8 ; 1.0281432529620345E9 ; 0.0
147 ; 6534794.32934223 ; 7042077.075082442 ; 9.835568740120113E8 ; 1.0351853300371169E9 ; 0.0
148 ; 6530842.932802269 ; 7042077.075082442 ; 9.900916683413535E8 ; 1.0422274071121993E9 ; 0.0
149 ; 6524359.794304991 ; 7042077.075082442 ; 9.966225112741559E8 ; 1.0492694841872817E9 ; 0.0
150 ; 6519887.988610587 ; 7042077.075082442 ; 1.0031468710684608E9 ; 1.0563115612623641E9 ; 0.0
151 ; 6514180.147170343 ; 7042077.075082442 ; 1.0096667590570714E9 ; 1.0633536383374466E9 ; 0.0
152 ; 6504635.836894814 ; 7042077.075082442 ; 1.0161809392042418E9 ; 1.070395715412529E9 ; 0.0
153 ; 6502207.598205587 ; 7042077.075082442 ; 1.0226855750411366E9 ; 1.0774377924876115E9 ; 0.0
154 ; 6493033.408354729 ; 7042077.075082442 ; 1.0291877826393422E9 ; 1.084479869562694E9 ; 0.0
155 ; 6489948.100374896 ; 7042077.075082442 ; 1.035680816047697E9 ; 1.0915219466377766E9 ; 0.0
156 ; 6484654.466031689 ; 7042077.075082442 ; 1.0421707641480719E9 ; 1.0985640237128592E9 ; 0.0
157 ; 6480472.103170702 ; 7042077.075082442 ; 1.0486554186141036E9 ; 1.1056061007879417E9 ; 0.0
158 ; 6470766.846354364 ; 7042077.075082442 ; 1.0551358907172743E9 ; 1.1126481778630242E9 ; 0.0
159 ; 6467128.128369774 ; 7042077.075082442 ; 1.0616066575636287E9 ; 1.1196902549381068E9 ; 0.0
160 ; 6459412.198054398 ; 7042077.075082442 ; 1.0680737856919985E9 ; 1.1267323320131893E9 ; 0.0
161 ; 6452000.437775129 ; 7042077.075082442 ; 1.0745331978900528E9 ; 1.1337744090882719E9 ; 0.0
162 ; 6447279.602523099 ; 7042077.075082442 ; 1.080985198327828E9 ; 1.1408164861633544E9 ; 0.0
163 ; 6442464.63108109 ; 7042077.075082442 ; 1.087432477930351E9 ; 1.147858563238437E9 ; 0.0
164 ; 6435576.862887166 ; 7042077.075082442 ; 1.0938749425614321E9 ; 1.1549006403135195E9 ; 0.0
165 ; 6430062.087146464 ; 7042077.075082442 ; 1.1003105194243193E9 ; 1.161942717388602E9 ; 0.0
166 ; 6421999.274465801 ; 7042077.075082442 ; 1.1067405815114658E9 ; 1.1689847944636846E9 ; 0.0
167 ; 6418435.398766019 ; 7042077.075082442 ; 1.1131625807859316E9 ; 1.176026871538767E9 ; 0.0
168 ; 6413663.823715888 ; 7042077.075082442 ; 1.1195810161846976E9 ; 1.1830689486138496E9 ; 0.0
169 ; 6405413.584101205 ; 7042077.075082442 ; 1.1259946800084136E9 ; 1.1901110256889322E9 ; 0.0
170 ; 6399171.220062283 ; 7042077.075082442 ; 1.1324000935925148E9 ; 1.1971531027640147E9 ; 0.0
171 ; 6392890.998889142 ; 7042077.075082442 ; 1.138799264812577E9 ; 1.2041951798390973E9 ; 0.0
172 ; 6385653.371720578 ; 7042077.075082442 ; 1.1451921558114662E9 ; 1.2112372569141798E9 ; 0.0
173 ; 6380506.848780454 ; 7042077.075082442 ; 1.1515778091831868E9 ; 1.2182793339892623E9 ; 0.0
174 ; 6376415.476797568 ; 7042077.075082442 ; 1.1579583160319672E9 ; 1.225321411064345E9 ; 0.0
175 ; 6372368.206730778 ; 7042077.075082442 ; 1.1643347315087647E9 ; 1.2323634881394274E9 ; 0.0
176 ; 6368831.50454056 ; 7042077.075082442 ; 1.1707070997154956E9 ; 1.23940556521451E9 ; 0.0
177 ; 6365856.679287487 ; 7042077.075082442 ; 1.177075931220036E9 ; 1.2464476422895925E9 ; 0.0
178 ; 6359462.612123316 ; 7042077.075082442 ; 1.1834417878993235E9 ; 1.253489719364675E9 ; 0.0
179 ; 6356631.371691878 ; 7042077.075082442 ; 1.1898012505114467E9 ; 1.2605317964397576E9 ; 0.0
180 ; 6356355.024727174 ; 7042077.075082442 ; 1.1961578818831387E9 ; 1.2675738735148401E9 ; 0.0
181 ; 6350882.107010369 ; 7042077.075082442 ; 1.2025142369078658E9 ; 1.2746159505899227E9 ; 0.0
182 ; 6349625.895247431 ; 7042077.075082442 ; 1.2088651190148761E9 ; 1.2816580276650052E9 ; 0.0
183 ; 6343724.810861518 ; 7042077.075082442 ; 1.2152147449101236E9 ; 1.2887001047400877E9 ; 0.0
184 ; 6340260.819030346 ; 7042077.075082442 ; 1.2215584697209852E9 ; 1.2957421818151703E9 ; 0.0
185 ; 6335526.2451734515 ; 7042077.075082442 ; 1.2278987305400155E9 ; 1.3027842588902528E9 ; 0.0
186 ; 6331694.95937377 ; 7042077.075082442 ; 1.234234256785189E9 ; 1.3098263359653354E9 ; 0.0
187 ; 6327868.740614429 ; 7042077.075082442 ; 1.2405659517445626E9 ; 1.316868413040418E9 ; 0.0
188 ; 6323220.15943673 ; 7042077.075082442 ; 1.246893820485177E9 ; 1.3239104901155005E9 ; 0.0
189 ; 6322609.813244462 ; 7042077.075082442 ; 1.2532170406446137E9 ; 1.330952567190583E9 ; 0.0
190 ; 6317097.313671054 ; 7042077.075082442 ; 1.259539650457858E9 ; 1.3379946442656655E9 ; 0.0
191 ; 6314951.0248332275 ; 7042077.075082442 ; 1.2658567477715292E9 ; 1.345036721340748E9 ; 0.0
192 ; 6311690.692955021 ; 7042077.075082442 ; 1.2721716987963624E9 ; 1.3520787984158306E9 ; 0.0
193 ; 6307996.75868331 ; 7042077.075082442 ; 1.2784833894893174E9 ; 1.3591208754909132E9 ; 0.0
194 ; 6301532.249511177 ; 7042077.075082442 ; 1.2847913862480006E9 ; 1.3661629525659957E9 ; 0.0
195 ; 6299548.571952474 ; 7042077.075082442 ; 1.2910929184975119E9 ; 1.3732050296410782E9 ; 0.0
196 ; 6296727.028414368 ; 7042077.075082442 ; 1.2973924670694644E9 ; 1.3802471067161608E9 ; 0.0
197 ; 6293996.830075964 ; 7042077.075082442 ; 1.3036891940978787E9 ; 1.3872891837912433E9 ; 0.0
198 ; 6287056.954797002 ; 7042077.075082442 ; 1.3099831909279547E9 ; 1.3943312608663259E9 ; 0.0
199 ; 6283527.497085114 ; 7042077.075082442 ; 1.3162702478827517E9 ; 1.4013733379414084E9 ; 0.0
200 ; 6280246.25817833 ; 7042077.075082442 ; 1.3225537753798368E9 ; 1.408415415016491E9 ; 0.0
201 ; 6276561.843443774 ; 7042077.075082442 ; 1.328834021638015E9 ; 1.4154574920915735E9 ; 0.0
202 ; 6273311.686210409 ; 7042077.075082442 ; 1.335110583481459E9 ; 1.422499569166656E9 ; 0.0
203 ; 6268889.9814113425 ; 7042077.075082442 ; 1.3413838951676693E9 ; 1.4295416462417386E9 ; 0.0
204 ; 6266027.0617298875 ; 7042077.075082442 ; 1.3476527851490808E9 ; 1.436583723316821E9 ; 0.0
205 ; 6263647.4278730275 ; 7042077.075082442 ; 1.3539188122108107E9 ; 1.4436258003919036E9 ; 0.0
206 ; 6257124.858502389 ; 7042077.075082442 ; 1.3601824596386838E9 ; 1.4506678774669862E9 ; 0.0
207 ; 6255593.641574538 ; 7042077.075082442 ; 1.3664395844971862E9 ; 1.4577099545420687E9 ; 0.0
208 ; 6251368.69358778 ; 7042077.075082442 ; 1.3726951781387608E9 ; 1.4647520316171513E9 ; 0.0
