CSV File for the City 3 on Day 29
1 - Minute m 
2 - Power Consumed at minute m 
3 - Power Produced at minute m 
4 - Energy Consumed since the beginning of the day 
5 - Energy Produced since the beginning of the day 
6 - Energy Lost since the beginning of the day on lines starting from the city
 
0 ; 2373118.6743768733 ; 1.0526000607637796E8 ; 0.0 ; 0.0 ; 0.0
1 ; 2375543.118051629 ; 1.0541119294270319E8 ; 2373118.6743768733 ; 1.0526000607637796E8 ; 0.0
2 ; 2378236.8725659237 ; 1.0587126118300632E8 ; 4748661.792428503 ; 2.1067119901908115E8 ; 0.0
3 ; 2380307.0163441543 ; 1.0664023412962729E8 ; 7126898.664994426 ; 3.1654246020208746E8 ; 0.0
4 ; 2384768.3588574636 ; 1.0771813566065282E8 ; 9507205.68133858 ; 4.2318269433171475E8 ; 0.0
5 ; 2388616.0005429876 ; 1.0910498951703572E8 ; 1.1891974040196044E7 ; 5.3090082999236757E8 ; 0.0
6 ; 2393693.7857121667 ; 1.1080081843922886E8 ; 1.4280590040739032E7 ; 6.400058195094032E8 ; 0.0
7 ; 2402322.798494442 ; 1.1280564315925634E8 ; 1.6674283826451197E7 ; 7.508066379486321E8 ; 0.0
8 ; 2414053.959878711 ; 1.1511948132114625E8 ; 1.907660662494564E7 ; 8.636122811078885E8 ; 0.0
9 ; 2430205.8495659344 ; 1.1774234643743783E8 ; 2.1490660584824353E7 ; 9.787317624290347E8 ; 0.0
10 ; 2456397.38589346 ; 1.2067424701049387E8 ; 2.3920866434390288E7 ; 1.0964741088664725E9 ; 0.0
11 ; 2497057.401916026 ; 1.239151859436107E8 ; 2.637726382028375E7 ; 1.2171483558769665E9 ; 0.0
12 ; 2563227.950263307 ; 1.2746516033349195E8 ; 2.8874321222199775E7 ; 1.3410635418205771E9 ; 0.0
13 ; 2626657.2257970315 ; 1.3132416167777485E8 ; 3.143754917246308E7 ; 1.4685287021540692E9 ; 0.0
14 ; 2634120.9744529896 ; 1.3549217646392024E8 ; 3.406420639826012E7 ; 1.599852863831844E9 ; 0.0
15 ; 2637141.620092288 ; 1.399691870478999E8 ; 3.6698327372713104E7 ; 1.7353450402957644E9 ; 0.0
16 ; 2639793.058625121 ; 1.4475517269768986E8 ; 3.933546899280539E7 ; 1.8753142273436644E9 ; 0.0
17 ; 2644348.619269199 ; 1.4985011067283717E8 ; 4.1975262051430516E7 ; 2.0200694000413542E9 ; 0.0
18 ; 2646602.642784387 ; 1.5525397723238903E8 ; 4.4619610670699716E7 ; 2.1699195107141914E9 ; 0.0
19 ; 2648832.3123613163 ; 1.6096674849825874E8 ; 4.72662133134841E7 ; 2.3251734879465804E9 ; 0.0
20 ; 2653607.2858560714 ; 1.6698840113810632E8 ; 4.991504562584542E7 ; 2.486140236444839E9 ; 0.0
21 ; 2656262.5330855367 ; 1.7331891286276987E8 ; 5.2568652911701486E7 ; 2.6531286375829453E9 ; 0.0
22 ; 2659173.4492589575 ; 1.7995826275447577E8 ; 5.5224915444787025E7 ; 2.8264475504457154E9 ; 0.0
23 ; 2663086.1197469663 ; 1.8690643145343757E8 ; 5.7884088894045986E7 ; 3.006405813200191E9 ; 0.0
24 ; 2665125.4415043504 ; 1.9416340123408663E8 ; 6.0547175013792954E7 ; 3.1933122446536283E9 ; 0.0
25 ; 2668668.6142301722 ; 2.004171968988993E8 ; 6.3212300455297306E7 ; 3.387475645887715E9 ; 0.0
26 ; 2671662.498229968 ; 2.0042135175596827E8 ; 6.588096906952748E7 ; 3.587892842786614E9 ; 0.0
27 ; 2674545.743981195 ; 2.004256220501054E8 ; 6.855263156775744E7 ; 3.788314194542582E9 ; 0.0
28 ; 2677056.101756038 ; 2.0042999609680352E8 ; 7.122717731173864E7 ; 3.9887398165926876E9 ; 0.0
29 ; 2680445.32111616 ; 2.004344634547542E8 ; 7.390423341349468E7 ; 4.1891698126894913E9 ; 0.0
30 ; 2682587.35348048 ; 2.0043901480476072E8 ; 7.658467873461084E7 ; 4.389604276144245E9 ; 0.0
31 ; 2685839.5321601364 ; 2.004436418331492E8 ; 7.926726608809131E7 ; 4.590043290949006E9 ; 0.0
32 ; 2688397.137218817 ; 2.004483371225594E8 ; 8.195310562025145E7 ; 4.790486932782155E9 ; 0.0
33 ; 2690695.1911390238 ; 2.0045309405160746E8 ; 8.464150275747027E7 ; 4.990935269904715E9 ; 0.0
34 ; 2695161.321797122 ; 2.0045790670397294E8 ; 8.733219794860929E7 ; 5.191388363956322E9 ; 0.0
35 ; 2695860.784967245 ; 2.004627697868549E8 ; 9.002735927040641E7 ; 5.391846270660295E9 ; 0.0
36 ; 2700566.482296689 ; 2.004676785583699E8 ; 9.272322005537365E7 ; 5.592309040447149E9 ; 0.0
37 ; 2701581.0634467313 ; 2.004726287632563E8 ; 9.542378653767034E7 ; 5.792776719005519E9 ; 0.0
38 ; 2703013.497253184 ; 2.0047761657615173E8 ; 9.812536760111707E7 ; 5.993249347768775E9 ; 0.0
39 ; 2704781.3089559656 ; 2.0048263855168268E8 ; 1.0082838109837025E8 ; 6.193726964344927E9 ; 0.0
40 ; 2707603.7110804883 ; 2.0048769158062372E8 ; 1.0353316240732622E8 ; 6.394209602896609E9 ; 0.0
41 ; 2709077.563450832 ; 2.0049277285142583E8 ; 1.0624076611840671E8 ; 6.594697294477233E9 ; 0.0
42 ; 2711647.1738397162 ; 2.0049787981647015E8 ; 1.0894984368185754E8 ; 6.795190067328659E9 ; 0.0
43 ; 2713997.2515387097 ; 2.005030101624661E8 ; 1.1166149085569726E8 ; 6.995687947145129E9 ; 0.0
44 ; 2716441.151118352 ; 2.0050816178447458E8 ; 1.1437548810723597E8 ; 7.196190957307595E9 ; 0.0
45 ; 2716052.6841857773 ; 2.0051333276309627E8 ; 1.1709192925835432E8 ; 7.39669911909207E9 ; 0.0
46 ; 2717627.3101539044 ; 2.005185213444223E8 ; 1.198079819425401E8 ; 7.5972124518551655E9 ; 0.0
47 ; 2718929.304427915 ; 2.0052372592239255E8 ; 1.22525609252694E8 ; 7.797730973199588E9 ; 0.0
48 ; 2720235.300359079 ; 2.0052894502325436E8 ; 1.2524453855712192E8 ; 7.998254699121981E9 ; 0.0
49 ; 2719952.6646567634 ; 2.0053417729185286E8 ; 1.27964773857481E8 ; 8.198783644145235E9 ; 0.0
50 ; 2722812.077981441 ; 2.005394214795202E8 ; 1.3068472652213776E8 ; 8.399317821437088E9 ; 0.0
51 ; 2723635.602898196 ; 2.005446764333612E8 ; 1.334075386001192E8 ; 8.599857242916609E9 ; 0.0
52 ; 2724611.558170148 ; 2.0054994108676037E8 ; 1.361311742030174E8 ; 8.80040191934997E9 ; 0.0
53 ; 2724844.836156573 ; 2.0055521445095745E8 ; 1.3885578576118755E8 ; 9.00095186043673E9 ; 0.0
54 ; 2725288.448304997 ; 2.0056049560756004E8 ; 1.4158063059734413E8 ; 9.201507074887688E9 ; 0.0
55 ; 2726697.897864299 ; 2.0056578370187828E8 ; 1.4430591904564914E8 ; 9.402067570495247E9 ; 0.0
56 ; 2726290.4531613756 ; 2.005710779369818E8 ; 1.4703261694351345E8 ; 9.602633354197124E9 ; 0.0
57 ; 2726635.611856297 ; 2.005763775683926E8 ; 1.4975890739667484E8 ; 9.803204432134106E9 ; 0.0
58 ; 2726630.056113205 ; 2.0058168189933842E8 ; 1.5248554300853115E8 ; 1.0003780809702497E10 ; 0.0
59 ; 2728192.230358464 ; 2.0058699027650014E8 ; 1.5521217306464437E8 ; 1.0204362491601835E10 ; 0.0
60 ; 2728456.585835324 ; 2.0059230208619696E8 ; 1.5794036529500282E8 ; 1.0404949481878336E10 ; 0.0
61 ; 2728275.082672962 ; 2.0059761675095823E8 ; 1.6066882188083816E8 ; 1.0605541783964533E10 ; 0.0
62 ; 2729831.9489076477 ; 2.0060293372643855E8 ; 1.633970969635111E8 ; 1.080613940071549E10 ; 0.0
63 ; 2730164.3571683485 ; 2.0060825249863747E8 ; 1.6612692891241875E8 ; 1.1006742334441929E10 ; 0.0
64 ; 2731194.9947147914 ; 2.0061357258139047E8 ; 1.688570932695871E8 ; 1.1207350586940567E10 ; 0.0
65 ; 2732030.038958649 ; 2.0061889351410082E8 ; 1.715882882643019E8 ; 1.1407964159521957E10 ; 0.0
66 ; 2731259.7242275886 ; 2.0062421485968718E8 ; 1.7432031830326054E8 ; 1.1608583053036058E10 ; 0.0
67 ; 2731963.636530697 ; 2.0062953620272315E8 ; 1.770515780274881E8 ; 1.1809207267895746E10 ; 0.0
68 ; 2731915.710905744 ; 2.006348571477489E8 ; 1.797835416640188E8 ; 1.2009836804098469E10 ; 0.0
69 ; 2731276.0041260393 ; 2.0064017731773707E8 ; 1.8251545737492454E8 ; 1.2210471661246218E10 ; 0.0
70 ; 2732464.9690605295 ; 2.0064549635269672E8 ; 1.8524673337905058E8 ; 1.2411111838563955E10 ; 0.0
71 ; 2733075.18230115 ; 2.0065081390840143E8 ; 1.8797919834811112E8 ; 1.2611757334916653E10 ; 0.0
72 ; 2732696.1099543357 ; 2.006561296552292E8 ; 1.907122735304123E8 ; 1.2812408148825054E10 ; 0.0
73 ; 2734024.4820824717 ; 2.00661443277103E8 ; 1.934449696403666E8 ; 1.3013064278480284E10 ; 0.0
74 ; 2732648.331622224 ; 2.0066675447052193E8 ; 1.961789941224491E8 ; 1.3213725721757387E10 ; 0.0
75 ; 2732973.949149465 ; 2.0067206294367427E8 ; 1.989116424540713E8 ; 1.341439247622791E10 ; 0.0
76 ; 2733503.600125271 ; 2.00677368415625E8 ; 2.0164461640322077E8 ; 1.3615064539171583E10 ; 0.0
77 ; 2732749.8528775657 ; 2.006826706155699E8 ; 2.0437812000334606E8 ; 1.3815741907587208E10 ; 0.0
78 ; 2731937.781047784 ; 2.0068796928215086E8 ; 2.071108698562236E8 ; 1.4016424578202778E10 ; 0.0
79 ; 2732037.6775363223 ; 2.0069326416282624E8 ; 2.098428076372714E8 ; 1.4217112547484928E10 ; 0.0
80 ; 2729864.56374033 ; 2.0069855501329115E8 ; 2.125748453148077E8 ; 1.4417805811647755E10 ; 0.0
81 ; 2730092.095644375 ; 2.0070384159694386E8 ; 2.1530470987854806E8 ; 1.4618504366661045E10 ; 0.0
82 ; 2728816.0161716784 ; 2.0070912368439323E8 ; 2.1803480197419244E8 ; 1.4819208208257988E10 ; 0.0
83 ; 2729671.436312979 ; 2.0071440105300424E8 ; 2.207636179903641E8 ; 1.501991733194238E10 ; 0.0
84 ; 2726858.0618721917 ; 2.0071967348647815E8 ; 2.2349328942667708E8 ; 1.5220631732995384E10 ; 0.0
85 ; 2727132.644083556 ; 2.007249407744641E8 ; 2.2622014748854926E8 ; 1.5421351406481863E10 ; 0.0
86 ; 2724007.0090459543 ; 2.0073020271219963E8 ; 2.2894728013263282E8 ; 1.5622076347256327E10 ; 0.0
87 ; 2723762.7741032597 ; 2.0073545910017768E8 ; 2.3167128714167878E8 ; 1.5822806549968527E10 ; 0.0
88 ; 2723658.169290378 ; 2.0074070974383783E8 ; 2.3439504991578203E8 ; 1.6023542009068705E10 ; 0.0
89 ; 2722344.33686052 ; 2.007459544532796E8 ; 2.371187080850724E8 ; 1.6224282718812542E10 ; 0.0
90 ; 2721937.061963144 ; 2.0075119304299653E8 ; 2.398410524219329E8 ; 1.6425028673265821E10 ; 0.0
91 ; 2719185.5270550926 ; 2.0075642533162856E8 ; 2.4256298948389605E8 ; 1.6625779866308819E10 ; 0.0
92 ; 2719425.3521621833 ; 2.0076165114173198E8 ; 2.4528217501095113E8 ; 1.6826536291640448E10 ; 0.0
93 ; 2717715.881988237 ; 2.0076687029956532E8 ; 2.480016003631133E8 ; 1.7027297942782179E10 ; 0.0
94 ; 2715871.810955881 ; 2.0077208263488954E8 ; 2.5071931624510154E8 ; 1.7228064813081745E10 ; 0.0
95 ; 2715671.3157566604 ; 2.0077728798078206E8 ; 2.5343518805605742E8 ; 1.7428836895716633E10 ; 0.0
96 ; 2714896.647219879 ; 2.007824861734632E8 ; 2.5615085937181407E8 ; 1.7629614183697414E10 ; 0.0
97 ; 2713821.4104280206 ; 2.0078767705213395E8 ; 2.5886575601903394E8 ; 1.7830396669870876E10 ; 0.0
98 ; 2712240.6405270323 ; 2.0079286045882463E8 ; 2.6157957742946196E8 ; 1.803118434692301E10 ; 0.0
99 ; 2708547.947273419 ; 2.0079803623825338E8 ; 2.64291818069989E8 ; 1.8231977207381836E10 ; 0.0
100 ; 2709730.22145986 ; 2.0080320423769358E8 ; 2.6700036601726243E8 ; 1.843277524362009E10 ; 0.0
101 ; 2707437.522157418 ; 2.0080836430684996E8 ; 2.6971009623872226E8 ; 1.8633578447857784E10 ; 0.0
102 ; 2705293.98757499 ; 2.008135162977425E8 ; 2.724175337608797E8 ; 1.8834386812164635E10 ; 0.0
103 ; 2704070.361262342 ; 2.0081866006459755E8 ; 2.751228277484547E8 ; 1.9035200328462376E10 ; 0.0
104 ; 2702576.956237243 ; 2.008237954637459E8 ; 2.77826898109717E8 ; 1.9236018988526974E10 ; 0.0
105 ; 2701648.589632926 ; 2.0082892235352692E8 ; 2.8052947506595427E8 ; 1.943684278399072E10 ; 0.0
106 ; 2701565.7127315057 ; 2.0083404059419864E8 ; 2.832311236555872E8 ; 1.9637671706344246E10 ; 0.0
107 ; 2699820.1658487245 ; 2.0083915004785353E8 ; 2.859326893683187E8 ; 1.9838505746938446E10 ; 0.0
108 ; 2696825.3514567167 ; 2.0084425057833883E8 ; 2.886325095341674E8 ; 2.00393448969863E10 ; 0.0
109 ; 2697005.0955311344 ; 2.0084934205118224E8 ; 2.913293348856241E8 ; 2.024018914756464E10 ; 0.0
110 ; 2693421.597726315 ; 2.0085442433352152E8 ; 2.940263399811552E8 ; 2.044103848961582E10 ; 0.0
111 ; 2694016.8377734153 ; 2.008594972940385E8 ; 2.967197615788815E8 ; 2.0641892913949345E10 ; 0.0
112 ; 2690442.3791539827 ; 2.008645608028969E8 ; 2.9941377841665494E8 ; 2.084275241124338E10 ; 0.0
113 ; 2689849.4053380815 ; 2.0086961473168358E8 ; 3.021042207958089E8 ; 2.104361697204628E10 ; 0.0
114 ; 2687542.1432770514 ; 2.008746589533535E8 ; 3.04794070201147E8 ; 2.124448658677796E10 ; 0.0
115 ; 2686218.1751868627 ; 2.008796933421774E8 ; 3.0748161234442407E8 ; 2.1445361245731316E10 ; 0.0
116 ; 2684567.6396869905 ; 2.008847177736929E8 ; 3.1016783051961094E8 ; 2.1646240939073494E10 ; 0.0
117 ; 2682716.152936578 ; 2.0088973212465787E8 ; 3.1285239815929794E8 ; 2.1847125656847187E10 ; 0.0
118 ; 2679907.344659275 ; 2.0089473627300686E8 ; 3.155351143122345E8 ; 2.2048015388971844E10 ; 0.0
119 ; 2677749.447477988 ; 2.0089973009780958E8 ; 3.182150216568938E8 ; 2.224891012524485E10 ; 0.0
120 ; 2677153.7230938715 ; 2.0090471347923195E8 ; 3.208927711043718E8 ; 2.244980985534266E10 ; 0.0
121 ; 2672956.9581243205 ; 2.0090968629849917E8 ; 3.2356992482746565E8 ; 2.265071456882189E10 ; 0.0
122 ; 2670939.8829513094 ; 2.0091464843786064E8 ; 3.2624288178559E8 ; 2.285162425512039E10 ; 0.0
123 ; 2670424.950407617 ; 2.0091959978055713E8 ; 3.289138216685413E8 ; 2.3052538903558254E10 ; 0.0
124 ; 2669017.6814364083 ; 2.0092454021078944E8 ; 3.3158424661894894E8 ; 2.325345850333881E10 ; 0.0
125 ; 2665462.545442707 ; 2.0092946961368883E8 ; 3.3425326430038536E8 ; 2.34543830435496E10 ; 0.0
126 ; 2663884.2779113813 ; 2.0093438787528902E8 ; 3.3691872684582806E8 ; 2.365531251316329E10 ; 0.0
127 ; 2662125.834079718 ; 2.009392948824997E8 ; 3.395826111237394E8 ; 2.3856246901038578E10 ; 0.0
128 ; 2661204.964825151 ; 2.009441905230814E8 ; 3.4224473695781916E8 ; 2.4057186195921078E10 ; 0.0
129 ; 2657731.8655651743 ; 2.0094907468562165E8 ; 3.449059419226443E8 ; 2.425813038644416E10 ; 0.0
130 ; 2654908.244340965 ; 2.009539472595125E8 ; 3.475636737882095E8 ; 2.4459079461129784E10 ; 0.0
131 ; 2652569.120293847 ; 2.009588081349292E8 ; 3.5021858203255045E8 ; 2.4660033408389297E10 ; 0.0
132 ; 2650014.566942533 ; 2.0096365720280963E8 ; 3.528711511528443E8 ; 2.4860992216524227E10 ; 0.0
133 ; 2646378.0350110615 ; 2.0096849435483542E8 ; 3.555211657197868E8 ; 2.5061955873727036E10 ; 0.0
134 ; 2643322.731168791 ; 2.0097331948341352E8 ; 3.581675437547979E8 ; 2.526292436808187E10 ; 0.0
135 ; 2640500.762888277 ; 2.0097813248165894E8 ; 3.608108664859667E8 ; 2.5463897687565285E10 ; 0.0
136 ; 2637050.545451729 ; 2.0098293324337825E8 ; 3.6345136724885494E8 ; 2.5664875820046944E10 ; 0.0
137 ; 2634375.199985276 ; 2.009877216630542E8 ; 3.6608841779430664E8 ; 2.586585875329032E10 ; 0.0
138 ; 2631541.6890249564 ; 2.0099249763583067E8 ; 3.687227929942919E8 ; 2.6066846474953377E10 ; 0.0
139 ; 2628530.2642163904 ; 2.0099726105749878E8 ; 3.713543346833169E8 ; 2.6267838972589207E10 ; 0.0
140 ; 2623639.1821835046 ; 2.0100201182448348E8 ; 3.7398286494753325E8 ; 2.6468836233646706E10 ; 0.0
141 ; 2622071.180868751 ; 2.0100674983383092E8 ; 3.7660650412971675E8 ; 2.6669838245471188E10 ; 0.0
142 ; 2618670.1995617915 ; 2.0101147498319644E8 ; 3.792285753105855E8 ; 2.687084499530502E10 ; 0.0
143 ; 2615997.675456056 ; 2.0101618717083302E8 ; 3.818472455101473E8 ; 2.7071856470288216E10 ; 0.0
144 ; 2614414.1203372655 ; 2.010208862955806E8 ; 3.844632431856033E8 ; 2.727287265745905E10 ; 0.0
145 ; 2610242.4886096036 ; 2.010255722568556E8 ; 3.8707765730594057E8 ; 2.747389354375463E10 ; 0.0
146 ; 2607135.7419450823 ; 2.0103024495464125E8 ; 3.896878997945502E8 ; 2.7674919116011486E10 ; 0.0
147 ; 2604045.77603071 ; 2.010349042894782E8 ; 3.9229503553649527E8 ; 2.7875949360966125E10 ; 0.0
148 ; 2604443.726429047 ; 2.0103955016245574E8 ; 3.94899081312526E8 ; 2.8076984265255604E10 ; 0.0
149 ; 2600105.977005469 ; 2.0104418247520334E8 ; 3.9750352503895503E8 ; 2.827802381541806E10 ; 0.0
150 ; 2597316.091996723 ; 2.010488011298827E8 ; 4.001036310159605E8 ; 2.8479067997893265E10 ; 0.0
151 ; 2595744.749475401 ; 2.010534060291802E8 ; 4.0270094710795724E8 ; 2.8680116799023148E10 ; 0.0
152 ; 2593209.6345712543 ; 2.010579970762996E8 ; 4.0529669185743266E8 ; 2.8881170205052326E10 ; 0.0
153 ; 2590778.016650655 ; 2.0106257417495537E8 ; 4.078899014920039E8 ; 2.9082228202128624E10 ; 0.0
154 ; 2588485.530772678 ; 2.0106713722936594E8 ; 4.104806795086546E8 ; 2.928329077630358E10 ; 0.0
155 ; 2588071.389911763 ; 2.0107168614424783E8 ; 4.130691650394273E8 ; 2.9484357913532948E10 ; 0.0
156 ; 2584444.9748560274 ; 2.0107622082480952E8 ; 4.1565723642933905E8 ; 2.9685429599677197E10 ; 0.0
157 ; 2582803.313383029 ; 2.0108074117674604E8 ; 4.182416814041951E8 ; 2.9886505820502007E10 ; 0.0
158 ; 2579823.848815102 ; 2.0108524710623375E8 ; 4.208244847175781E8 ; 3.0087586561678753E10 ; 0.0
159 ; 2578163.0885624858 ; 2.0108973851992506E8 ; 4.234043085663932E8 ; 3.028867180878499E10 ; 0.0
160 ; 2574476.784176091 ; 2.0109421532494405E8 ; 4.259824716549557E8 ; 3.0489761547304913E10 ; 0.0
161 ; 2571110.806663369 ; 2.0109867742888165E8 ; 4.285569484391318E8 ; 3.0690855762629856E10 ; 0.0
162 ; 2568979.937584234 ; 2.0110312473979148E8 ; 4.311280592457952E8 ; 3.089195444005874E10 ; 0.0
163 ; 2567045.0056990795 ; 2.0110755716618592E8 ; 4.336970391833794E8 ; 3.109305756479853E10 ; 0.0
164 ; 2563502.1483723843 ; 2.0111197461703196E8 ; 4.362640841890785E8 ; 3.1294165121964718E10 ; 0.0
165 ; 2562051.7494615694 ; 2.0111637700174797E8 ; 4.388275863374509E8 ; 3.149527709658175E10 ; 0.0
166 ; 2559765.7049595537 ; 2.011207642301999E8 ; 4.413896380869125E8 ; 3.1696393473583496E10 ; 0.0
167 ; 2557171.097698408 ; 2.011251362126982E8 ; 4.439494037918721E8 ; 3.1897514237813698E10 ; 0.0
168 ; 2553703.140516295 ; 2.011294928599947E8 ; 4.465065748895705E8 ; 3.2098639374026398E10 ; 0.0
169 ; 2552602.023169774 ; 2.011338340832798E8 ; 4.4906027803008676E8 ; 3.229976886688639E10 ; 0.0
170 ; 2547937.3961668727 ; 2.011381597941794E8 ; 4.516128800532565E8 ; 3.250090270096967E10 ; 0.0
171 ; 2547160.466598064 ; 2.011424699047528E8 ; 4.541608174494234E8 ; 3.2702040860763847E10 ; 0.0
172 ; 2542144.768302556 ; 2.011467643274897E8 ; 4.5670797791602147E8 ; 3.2903183330668602E10 ; 0.0
173 ; 2541515.8931454904 ; 2.0115104297530833E8 ; 4.59250122684324E8 ; 3.310433009499609E10 ; 0.0
174 ; 2540284.5506751677 ; 2.0115530576155308E8 ; 4.617916385774695E8 ; 3.3305481137971397E10 ; 0.0
175 ; 2538284.9163659937 ; 2.011595525999924E8 ; 4.643319231281447E8 ; 3.3506636443732952E10 ; 0.0
176 ; 2536640.0719709587 ; 2.0116378340481704E8 ; 4.6687020804451066E8 ; 3.3707795996332943E10 ; 0.0
177 ; 2535341.657188904 ; 2.0116799809063807E8 ; 4.694068481164816E8 ; 3.390895977973776E10 ; 0.0
178 ; 2532838.432300759 ; 2.0117219657248533E8 ; 4.719421897736705E8 ; 3.4110127777828396E10 ; 0.0
179 ; 2531290.6543238605 ; 2.0117637876580575E8 ; 4.7447502820597124E8 ; 3.4311299974400883E10 ; 0.0
180 ; 2531809.3288022955 ; 2.0118054458646187E8 ; 4.770063188602951E8 ; 3.451247635316669E10 ; 0.0
181 ; 2528721.729786359 ; 2.0118469395073056E8 ; 4.795381281890974E8 ; 3.471365689775315E10 ; 0.0
182 ; 2527438.9384638523 ; 2.0118882677530158E8 ; 4.8206684991888374E8 ; 3.491484159170388E10 ; 0.0
183 ; 2526668.2612208906 ; 2.0119294297727644E8 ; 4.845942888573476E8 ; 3.511603041847918E10 ; 0.0
184 ; 2525063.8619150044 ; 2.0119704247416735E8 ; 4.871209571185685E8 ; 3.531722336145646E10 ; 0.0
185 ; 2522545.6494045476 ; 2.0120112518389606E8 ; 4.896460209804835E8 ; 3.5518420403930626E10 ; 0.0
186 ; 2522421.2548473952 ; 2.0120519102479306E8 ; 4.92168566629888E8 ; 3.5719621529114525E10 ; 0.0
187 ; 2519359.780248571 ; 2.0120923991559651E8 ; 4.946909878847354E8 ; 3.592082672013932E10 ; 0.0
188 ; 2517285.6518745385 ; 2.0121327177545163E8 ; 4.97210347664984E8 ; 3.612203596005492E10 ; 0.0
189 ; 2516748.638776997 ; 2.0121728652390987E8 ; 4.9972763331685853E8 ; 3.632324923183037E10 ; 0.0
190 ; 2514458.864123454 ; 2.012212840809282E8 ; 5.0224438195563555E8 ; 3.652446651835428E10 ; 0.0
191 ; 2513507.4916310147 ; 2.0122526436686864E8 ; 5.04758840819759E8 ; 3.67256878024352E10 ; 0.0
192 ; 2511287.237570275 ; 2.0122922730249757E8 ; 5.0727234831139004E8 ; 3.692691306680207E10 ; 0.0
193 ; 2510098.7501337123 ; 2.012331728089853E8 ; 5.097836355489603E8 ; 3.712814229410457E10 ; 0.0
194 ; 2509506.120514592 ; 2.0123710080790573E8 ; 5.12293734299094E8 ; 3.732937546691355E10 ; 0.0
195 ; 2509064.933092291 ; 2.012410112212358E8 ; 5.148032404196086E8 ; 3.753061256772146E10 ; 0.0
196 ; 2506450.7703219545 ; 2.0124490397135538E8 ; 5.173123053527009E8 ; 3.7731853578942696E10 ; 0.0
197 ; 2505589.9500114396 ; 2.0124877898104677E8 ; 5.1981875612302285E8 ; 3.793309848291405E10 ; 0.0
198 ; 2503533.87915885 ; 2.012526361734946E8 ; 5.223243460730343E8 ; 3.8134347261895096E10 ; 0.0
199 ; 2501521.0726917763 ; 2.0125647547228572E8 ; 5.2482787995219314E8 ; 3.833559989806859E10 ; 0.0
200 ; 2500698.3806105163 ; 2.012602968014089E8 ; 5.2732940102488494E8 ; 3.853685637354087E10 ; 0.0
