CSV File for the City 6 on Day 10
1 - Minute m 
2 - Power Consumed at minute m 
3 - Power Produced at minute m 
4 - Energy Consumed since the beginning of the day 
5 - Energy Produced since the beginning of the day 
6 - Energy Lost since the beginning of the day on lines starting from the city
 
0 ; 8672276.138531763 ; 1.0298682563487489E7 ; 0.0 ; 0.0 ; 0.0
1 ; 8681944.449934736 ; 1.0298682563487489E7 ; 8672276.138531763 ; 1.0298682563487489E7 ; 0.0
2 ; 8694115.49003252 ; 1.0298682563487489E7 ; 1.73542205884665E7 ; 2.0597365126974978E7 ; 0.0
3 ; 8702753.180472562 ; 1.0298682563487489E7 ; 2.604833607849902E7 ; 3.0896047690462466E7 ; 0.0
4 ; 8713849.712533768 ; 1.0298682563487489E7 ; 3.475108925897158E7 ; 4.1194730253949955E7 ; 0.0
5 ; 8730737.932330599 ; 1.0298682563487489E7 ; 4.3464938971505344E7 ; 5.149341281743744E7 ; 0.0
6 ; 8749907.961974964 ; 1.0298682563487489E7 ; 5.2195676903835945E7 ; 6.1792095380924925E7 ; 0.0
7 ; 8780764.386099897 ; 1.0298682563487489E7 ; 6.094558486581091E7 ; 7.209077794441241E7 ; 0.0
8 ; 8821257.88412455 ; 1.0298682563487489E7 ; 6.97263492519108E7 ; 8.23894605078999E7 ; 0.0
9 ; 8883995.531739628 ; 1.0298682563487489E7 ; 7.854760713603535E7 ; 9.268814307138738E7 ; 0.0
10 ; 8983643.502148075 ; 1.0298682563487489E7 ; 8.743160266777498E7 ; 1.0298682563487487E8 ; 0.0
11 ; 9138892.89347725 ; 1.0298682563487489E7 ; 9.641524616992305E7 ; 1.1328550819836235E8 ; 0.0
12 ; 9388550.355610417 ; 1.0298682563487489E7 ; 1.055541390634003E8 ; 1.2358419076184984E8 ; 0.0
13 ; 9622447.829587463 ; 1.0298682563487489E7 ; 1.1494268941901071E8 ; 1.3388287332533732E8 ; 0.0
14 ; 9651367.793988563 ; 1.0298682563487489E7 ; 1.2456513724859817E8 ; 1.4418155588882482E8 ; 0.0
15 ; 9661798.349642286 ; 1.0298682563487489E7 ; 1.3421650504258674E8 ; 1.5448023845231232E8 ; 0.0
16 ; 9673466.044222148 ; 1.0298682563487489E7 ; 1.4387830339222902E8 ; 1.6477892101579982E8 ; 0.0
17 ; 9685674.01845757 ; 1.0298682563487489E7 ; 1.5355176943645117E8 ; 1.7507760357928732E8 ; 0.0
18 ; 9693751.678313632 ; 1.0298682563487489E7 ; 1.6323744345490873E8 ; 1.8537628614277482E8 ; 0.0
19 ; 9704347.61332694 ; 1.0298682563487489E7 ; 1.7293119513322237E8 ; 1.9567496870626232E8 ; 0.0
20 ; 9720228.594795935 ; 1.0298682563487489E7 ; 1.826355427465493E8 ; 2.0597365126974982E8 ; 0.0
21 ; 9729091.513327649 ; 1.0298682563487489E7 ; 1.9235577134134525E8 ; 2.1627233383323732E8 ; 0.0
22 ; 9741448.761646755 ; 1.0298682563487489E7 ; 2.020848628546729E8 ; 2.2657101639672482E8 ; 0.0
23 ; 9752514.900464639 ; 1.0298682563487489E7 ; 2.1182631161631966E8 ; 2.3686969896021232E8 ; 0.0
24 ; 9765442.246311426 ; 1.0298682563487489E7 ; 2.215788265167843E8 ; 2.4716838152369982E8 ; 0.0
25 ; 9775788.229558336 ; 1.0298682563487489E7 ; 2.3134426876309574E8 ; 2.5746706408718732E8 ; 0.0
26 ; 9788259.578735996 ; 1.0298682563487489E7 ; 2.411200569926541E8 ; 2.6776574665067482E8 ; 0.0
27 ; 9796826.306650331 ; 1.0298682563487489E7 ; 2.509083165713901E8 ; 2.780644292141623E8 ; 0.0
28 ; 9809056.019908998 ; 1.0298682563487489E7 ; 2.6070514287804043E8 ; 2.8836311177764976E8 ; 0.0
29 ; 9820424.071909051 ; 1.0298682563487489E7 ; 2.7051419889794946E8 ; 2.9866179434113723E8 ; 0.0
30 ; 9830798.21150567 ; 1.0298682563487489E7 ; 2.803346229698585E8 ; 3.089604769046247E8 ; 0.0
31 ; 9840636.013098583 ; 1.0298682563487489E7 ; 2.901654211813642E8 ; 3.192591594681122E8 ; 0.0
32 ; 9849959.737589683 ; 1.0298682563487489E7 ; 3.000060571944628E8 ; 3.2955784203159964E8 ; 0.0
33 ; 9861368.300643818 ; 1.0298682563487489E7 ; 3.0985601693205243E8 ; 3.398565245950871E8 ; 0.0
34 ; 9869081.294767953 ; 1.0298682563487489E7 ; 3.1971738523269624E8 ; 3.501552071585746E8 ; 0.0
35 ; 9878376.599819172 ; 1.0298682563487489E7 ; 3.295864665274642E8 ; 3.6045388972206205E8 ; 0.0
36 ; 9889909.736145852 ; 1.0298682563487489E7 ; 3.394648431272834E8 ; 3.707525722855495E8 ; 0.0
37 ; 9897975.56665224 ; 1.0298682563487489E7 ; 3.4935475286342925E8 ; 3.81051254849037E8 ; 0.0
38 ; 9904403.234664248 ; 1.0298682563487489E7 ; 3.592527284300815E8 ; 3.9134993741252446E8 ; 0.0
39 ; 9912331.687215893 ; 1.0298682563487489E7 ; 3.6915713166474575E8 ; 4.0164861997601193E8 ; 0.0
40 ; 9920041.47986537 ; 1.0298682563487489E7 ; 3.790694633519616E8 ; 4.119473025394994E8 ; 0.0
41 ; 9929297.7781764 ; 1.0298682563487489E7 ; 3.88989504831827E8 ; 4.222459851029869E8 ; 0.0
42 ; 9933789.73427004 ; 1.0298682563487489E7 ; 3.989188026100034E8 ; 4.3254466766647434E8 ; 0.0
43 ; 9940206.347878546 ; 1.0298682563487489E7 ; 4.0885259234427345E8 ; 4.428433502299618E8 ; 0.0
44 ; 9947128.091955218 ; 1.0298682563487489E7 ; 4.18792798692152E8 ; 4.531420327934493E8 ; 0.0
45 ; 9954465.599126732 ; 1.0298682563487489E7 ; 4.2873992678410727E8 ; 4.6344071535693675E8 ; 0.0
46 ; 9956734.230379576 ; 1.0298682563487489E7 ; 4.38694392383234E8 ; 4.737393979204242E8 ; 0.0
47 ; 9962933.708899599 ; 1.0298682563487489E7 ; 4.486511266136136E8 ; 4.840380804839117E8 ; 0.0
48 ; 9966304.274304854 ; 1.0298682563487489E7 ; 4.586140603225132E8 ; 4.9433676304739916E8 ; 0.0
49 ; 9971731.366156995 ; 1.0298682563487489E7 ; 4.685803645968181E8 ; 5.0463544561088663E8 ; 0.0
50 ; 9973700.712971117 ; 1.0298682563487489E7 ; 4.785520959629751E8 ; 5.149341281743741E8 ; 0.0
51 ; 9974187.261158256 ; 1.0298682563487489E7 ; 4.885257966759462E8 ; 5.252328107378616E8 ; 0.0
52 ; 9978876.98348841 ; 1.0298682563487489E7 ; 4.984999839371044E8 ; 5.3553149330134904E8 ; 0.0
53 ; 9977830.100633968 ; 1.0298682563487489E7 ; 5.084788609205928E8 ; 5.458301758648366E8 ; 0.0
54 ; 9982595.15878736 ; 1.0298682563487489E7 ; 5.1845669102122676E8 ; 5.561288584283241E8 ; 0.0
55 ; 9987014.548723688 ; 1.0298682563487489E7 ; 5.2843928618001413E8 ; 5.664275409918116E8 ; 0.0
56 ; 9988664.480083201 ; 1.0298682563487489E7 ; 5.384263007287378E8 ; 5.767262235552992E8 ; 0.0
57 ; 9993065.067295458 ; 1.0298682563487489E7 ; 5.48414965208821E8 ; 5.870249061187867E8 ; 0.0
58 ; 9993871.377598874 ; 1.0298682563487489E7 ; 5.584080302761165E8 ; 5.973235886822742E8 ; 0.0
59 ; 9995777.621141838 ; 1.0298682563487489E7 ; 5.684019016537154E8 ; 6.076222712457618E8 ; 0.0
60 ; 9999605.431771295 ; 1.0298682563487489E7 ; 5.783976792748572E8 ; 6.179209538092493E8 ; 0.0
61 ; 1.0001687608023463E7 ; 1.0298682563487489E7 ; 5.883972847066284E8 ; 6.282196363727368E8 ; 0.0
62 ; 1.0002523743063023E7 ; 1.0298682563487489E7 ; 5.983989723146518E8 ; 6.385183189362243E8 ; 0.0
63 ; 1.000425626173113E7 ; 1.0298682563487489E7 ; 6.084014960577148E8 ; 6.488170014997119E8 ; 0.0
64 ; 1.0003163270066796E7 ; 1.0298682563487489E7 ; 6.18405752319446E8 ; 6.591156840631994E8 ; 0.0
65 ; 1.0005724760220991E7 ; 1.0298682563487489E7 ; 6.284089155895127E8 ; 6.694143666266869E8 ; 0.0
66 ; 1.000955407289151E7 ; 1.0298682563487489E7 ; 6.384146403497337E8 ; 6.797130491901745E8 ; 0.0
67 ; 1.0009831898951061E7 ; 1.0298682563487489E7 ; 6.484241944226252E8 ; 6.90011731753662E8 ; 0.0
68 ; 1.0008570757702006E7 ; 1.0298682563487489E7 ; 6.584340263215762E8 ; 7.003104143171495E8 ; 0.0
69 ; 1.0012458382943831E7 ; 1.0298682563487489E7 ; 6.684425970792782E8 ; 7.10609096880637E8 ; 0.0
70 ; 1.0011449466468185E7 ; 1.0298682563487489E7 ; 6.784550554622221E8 ; 7.209077794441246E8 ; 0.0
71 ; 1.0015308851385437E7 ; 1.0298682563487489E7 ; 6.884665049286903E8 ; 7.312064620076121E8 ; 0.0
72 ; 1.0013743854559403E7 ; 1.0298682563487489E7 ; 6.984818137800758E8 ; 7.415051445710996E8 ; 0.0
73 ; 1.0016012150366822E7 ; 1.0298682563487489E7 ; 7.084955576346352E8 ; 7.518038271345872E8 ; 0.0
74 ; 1.0015209252382657E7 ; 1.0298682563487489E7 ; 7.18511569785002E8 ; 7.621025096980747E8 ; 0.0
75 ; 1.0018221725216461E7 ; 1.0298682563487489E7 ; 7.285267790373846E8 ; 7.724011922615622E8 ; 0.0
76 ; 1.0018705391435008E7 ; 1.0298682563487489E7 ; 7.385450007626011E8 ; 7.826998748250498E8 ; 0.0
77 ; 1.0019091286979884E7 ; 1.0298682563487489E7 ; 7.485637061540362E8 ; 7.929985573885373E8 ; 0.0
78 ; 1.0012240116158254E7 ; 1.0298682563487489E7 ; 7.585827974410161E8 ; 8.032972399520248E8 ; 0.0
79 ; 1.0011796479671538E7 ; 1.0298682563487489E7 ; 7.685950375571743E8 ; 8.135959225155123E8 ; 0.0
80 ; 1.000858031223058E7 ; 1.0298682563487489E7 ; 7.786068340368459E8 ; 8.238946050789999E8 ; 0.0
81 ; 1.0006411730650544E7 ; 1.0298682563487489E7 ; 7.886154143490765E8 ; 8.341932876424874E8 ; 0.0
82 ; 1.0000484344267115E7 ; 1.0298682563487489E7 ; 7.98621826079727E8 ; 8.444919702059749E8 ; 0.0
83 ; 1.000266481083839E7 ; 1.0298682563487489E7 ; 8.086223104239942E8 ; 8.547906527694625E8 ; 0.0
84 ; 9996971.129161473 ; 1.0298682563487489E7 ; 8.186249752348325E8 ; 8.6508933533295E8 ; 0.0
85 ; 9990676.02553343 ; 1.0298682563487489E7 ; 8.28621946363994E8 ; 8.753880178964375E8 ; 0.0
86 ; 9991740.393216727 ; 1.0298682563487489E7 ; 8.386126223895274E8 ; 8.85686700459925E8 ; 0.0
87 ; 9984989.247922402 ; 1.0298682563487489E7 ; 8.486043627827442E8 ; 8.959853830234126E8 ; 0.0
88 ; 9983016.61102385 ; 1.0298682563487489E7 ; 8.585893520306666E8 ; 9.062840655869001E8 ; 0.0
89 ; 9980913.077941118 ; 1.0298682563487489E7 ; 8.685723686416905E8 ; 9.165827481503876E8 ; 0.0
90 ; 9973546.270529153 ; 1.0298682563487489E7 ; 8.785532817196316E8 ; 9.268814307138752E8 ; 0.0
91 ; 9970017.724652043 ; 1.0298682563487489E7 ; 8.885268279901607E8 ; 9.371801132773627E8 ; 0.0
92 ; 9967646.065653978 ; 1.0298682563487489E7 ; 8.984968457148128E8 ; 9.474787958408502E8 ; 0.0
93 ; 9962883.48920874 ; 1.0298682563487489E7 ; 9.084644917804667E8 ; 9.577774784043378E8 ; 0.0
94 ; 9956020.418408347 ; 1.0298682563487489E7 ; 9.184273752696754E8 ; 9.680761609678253E8 ; 0.0
95 ; 9954988.18949512 ; 1.0298682563487489E7 ; 9.283833956880838E8 ; 9.783748435313128E8 ; 0.0
96 ; 9947971.842256052 ; 1.0298682563487489E7 ; 9.383383838775789E8 ; 9.886735260948004E8 ; 0.0
97 ; 9943171.777279874 ; 1.0298682563487489E7 ; 9.482863557198349E8 ; 9.989722086582879E8 ; 0.0
98 ; 9941563.060136784 ; 1.0298682563487489E7 ; 9.582295274971148E8 ; 1.0092708912217754E9 ; 0.0
99 ; 9936061.24383546 ; 1.0298682563487489E7 ; 9.681710905572516E8 ; 1.019569573785263E9 ; 0.0
100 ; 9929347.974720275 ; 1.0298682563487489E7 ; 9.78107151801087E8 ; 1.0298682563487505E9 ; 0.0
101 ; 9923950.24412691 ; 1.0298682563487489E7 ; 9.880364997758073E8 ; 1.040166938912238E9 ; 0.0
102 ; 9921702.249602588 ; 1.0298682563487489E7 ; 9.979604500199342E8 ; 1.0504656214757255E9 ; 0.0
103 ; 9915200.596043423 ; 1.0298682563487489E7 ; 1.0078821522695367E9 ; 1.0607643040392131E9 ; 0.0
104 ; 9910402.820840215 ; 1.0298682563487489E7 ; 1.0177973528655802E9 ; 1.0710629866027006E9 ; 0.0
105 ; 9905664.056716628 ; 1.0298682563487489E7 ; 1.0277077556864204E9 ; 1.081361669166188E9 ; 0.0
106 ; 9897937.5561592 ; 1.0298682563487489E7 ; 1.0376134197431371E9 ; 1.0916603517296755E9 ; 0.0
107 ; 9894714.421890598 ; 1.0298682563487489E7 ; 1.0475113572992964E9 ; 1.101959034293163E9 ; 0.0
108 ; 9891729.31999528 ; 1.0298682563487489E7 ; 1.057406071721187E9 ; 1.1122577168566506E9 ; 0.0
109 ; 9883353.922647662 ; 1.0298682563487489E7 ; 1.0672978010411823E9 ; 1.1225563994201381E9 ; 0.0
110 ; 9878315.065167287 ; 1.0298682563487489E7 ; 1.07718115496383E9 ; 1.1328550819836257E9 ; 0.0
111 ; 9871951.04269369 ; 1.0298682563487489E7 ; 1.0870594700289972E9 ; 1.1431537645471132E9 ; 0.0
112 ; 9862154.254660847 ; 1.0298682563487489E7 ; 1.0969314210716908E9 ; 1.1534524471106007E9 ; 0.0
113 ; 9857178.576479005 ; 1.0298682563487489E7 ; 1.1067935753263516E9 ; 1.1637511296740882E9 ; 0.0
114 ; 9854760.665836697 ; 1.0298682563487489E7 ; 1.1166507539028306E9 ; 1.1740498122375758E9 ; 0.0
115 ; 9845388.111435844 ; 1.0298682563487489E7 ; 1.1265055145686674E9 ; 1.1843484948010633E9 ; 0.0
116 ; 9841020.10160894 ; 1.0298682563487489E7 ; 1.1363509026801033E9 ; 1.1946471773645508E9 ; 0.0
117 ; 9831797.745197155 ; 1.0298682563487489E7 ; 1.1461919227817123E9 ; 1.2049458599280384E9 ; 0.0
118 ; 9826691.542273896 ; 1.0298682563487489E7 ; 1.1560237205269094E9 ; 1.215244542491526E9 ; 0.0
119 ; 9819883.35467883 ; 1.0298682563487489E7 ; 1.1658504120691833E9 ; 1.2255432250550134E9 ; 0.0
120 ; 9811399.171681937 ; 1.0298682563487489E7 ; 1.1756702954238622E9 ; 1.235841907618501E9 ; 0.0
121 ; 9806286.489406291 ; 1.0298682563487489E7 ; 1.185481694595544E9 ; 1.2461405901819885E9 ; 0.0
122 ; 9797943.625921527 ; 1.0298682563487489E7 ; 1.1952879810849504E9 ; 1.256439272745476E9 ; 0.0
123 ; 9792356.065328538 ; 1.0298682563487489E7 ; 1.205085924710872E9 ; 1.2667379553089635E9 ; 0.0
124 ; 9785070.733951684 ; 1.0298682563487489E7 ; 1.2148782807762005E9 ; 1.277036637872451E9 ; 0.0
125 ; 9777953.34227769 ; 1.0298682563487489E7 ; 1.224663351510152E9 ; 1.2873353204359386E9 ; 0.0
126 ; 9771010.915532881 ; 1.0298682563487489E7 ; 1.2344413048524299E9 ; 1.2976340029994261E9 ; 0.0
127 ; 9763782.215777185 ; 1.0298682563487489E7 ; 1.2442123157679627E9 ; 1.3079326855629137E9 ; 0.0
128 ; 9755458.27749443 ; 1.0298682563487489E7 ; 1.2539760979837399E9 ; 1.3182313681264012E9 ; 0.0
129 ; 9747893.488654094 ; 1.0298682563487489E7 ; 1.2637315562612343E9 ; 1.3285300506898887E9 ; 0.0
130 ; 9739640.315573601 ; 1.0298682563487489E7 ; 1.2734794497498884E9 ; 1.3388287332533762E9 ; 0.0
131 ; 9727668.97098015 ; 1.0298682563487489E7 ; 1.283219090065462E9 ; 1.3491274158168638E9 ; 0.0
132 ; 9715354.096667754 ; 1.0298682563487489E7 ; 1.2929467590364423E9 ; 1.3594260983803513E9 ; 0.0
133 ; 9705971.684761941 ; 1.0298682563487489E7 ; 1.30266211313311E9 ; 1.3697247809438388E9 ; 0.0
134 ; 9695011.921619406 ; 1.0298682563487489E7 ; 1.312368084817872E9 ; 1.3800234635073264E9 ; 0.0
135 ; 9683175.082939195 ; 1.0298682563487489E7 ; 1.3220630967394915E9 ; 1.390322146070814E9 ; 0.0
136 ; 9673097.301156431 ; 1.0298682563487489E7 ; 1.3317462718224306E9 ; 1.4006208286343014E9 ; 0.0
137 ; 9662538.264530757 ; 1.0298682563487489E7 ; 1.3414193691235871E9 ; 1.410919511197789E9 ; 0.0
138 ; 9651695.579221454 ; 1.0298682563487489E7 ; 1.3510819073881178E9 ; 1.4212181937612765E9 ; 0.0
139 ; 9638459.50095633 ; 1.0298682563487489E7 ; 1.3607336029673393E9 ; 1.431516876324764E9 ; 0.0
140 ; 9627920.083049351 ; 1.0298682563487489E7 ; 1.3703720624682956E9 ; 1.4418155588882515E9 ; 0.0
141 ; 9612578.248587081 ; 1.0298682563487489E7 ; 1.3799999825513449E9 ; 1.452114241451739E9 ; 0.0
142 ; 9602906.053604716 ; 1.0298682563487489E7 ; 1.389612560799932E9 ; 1.4624129240152266E9 ; 0.0
143 ; 9591514.814867882 ; 1.0298682563487489E7 ; 1.3992154668535366E9 ; 1.4727116065787141E9 ; 0.0
144 ; 9579875.699820388 ; 1.0298682563487489E7 ; 1.4088069816684046E9 ; 1.4830102891422017E9 ; 0.0
145 ; 9570162.622241085 ; 1.0298682563487489E7 ; 1.4183868573682249E9 ; 1.4933089717056892E9 ; 0.0
146 ; 9564948.438740963 ; 1.0298682563487489E7 ; 1.4279570199904659E9 ; 1.5036076542691767E9 ; 0.0
147 ; 9554325.623750806 ; 1.0298682563487489E7 ; 1.4375219684292068E9 ; 1.5139063368326643E9 ; 0.0
148 ; 9547283.446023474 ; 1.0298682563487489E7 ; 1.4470762940529575E9 ; 1.5242050193961518E9 ; 0.0
149 ; 9537917.427733988 ; 1.0298682563487489E7 ; 1.456623577498981E9 ; 1.5345037019596393E9 ; 0.0
150 ; 9532372.638670245 ; 1.0298682563487489E7 ; 1.466161494926715E9 ; 1.5448023845231268E9 ; 0.0
151 ; 9524201.657516045 ; 1.0298682563487489E7 ; 1.475693867565385E9 ; 1.5551010670866144E9 ; 0.0
152 ; 9514097.109947154 ; 1.0298682563487489E7 ; 1.485218069222901E9 ; 1.565399749650102E9 ; 0.0
153 ; 9506115.194649208 ; 1.0298682563487489E7 ; 1.4947321663328483E9 ; 1.5756984322135894E9 ; 0.0
154 ; 9496230.064954372 ; 1.0298682563487489E7 ; 1.5042382815274975E9 ; 1.585997114777077E9 ; 0.0
155 ; 9486257.931378726 ; 1.0298682563487489E7 ; 1.5137345115924518E9 ; 1.5962957973405645E9 ; 0.0
156 ; 9477684.101036245 ; 1.0298682563487489E7 ; 1.5232207695238307E9 ; 1.606594479904052E9 ; 0.0
157 ; 9472075.801366199 ; 1.0298682563487489E7 ; 1.532698453624867E9 ; 1.6168931624675395E9 ; 0.0
158 ; 9464267.484344734 ; 1.0298682563487489E7 ; 1.542170529426233E9 ; 1.627191845031027E9 ; 0.0
159 ; 9455092.106636064 ; 1.0298682563487489E7 ; 1.5516347969105778E9 ; 1.6374905275945146E9 ; 0.0
160 ; 9446910.830532288 ; 1.0298682563487489E7 ; 1.5610898890172138E9 ; 1.6477892101580021E9 ; 0.0
161 ; 9436080.20767651 ; 1.0298682563487489E7 ; 1.5705367998477461E9 ; 1.6580878927214897E9 ; 0.0
162 ; 9424805.797667075 ; 1.0298682563487489E7 ; 1.5799728800554225E9 ; 1.6683865752849772E9 ; 0.0
163 ; 9419332.152862567 ; 1.0298682563487489E7 ; 1.5893976858530896E9 ; 1.6786852578484647E9 ; 0.0
164 ; 9408714.003389258 ; 1.0298682563487489E7 ; 1.5988170180059521E9 ; 1.6889839404119523E9 ; 0.0
165 ; 9400016.988273632 ; 1.0298682563487489E7 ; 1.6082257320093415E9 ; 1.6992826229754398E9 ; 0.0
166 ; 9395182.474717407 ; 1.0298682563487489E7 ; 1.617625748997615E9 ; 1.7095813055389273E9 ; 0.0
167 ; 9385008.980049359 ; 1.0298682563487489E7 ; 1.6270209314723325E9 ; 1.7198799881024148E9 ; 0.0
168 ; 9373603.376890399 ; 1.0298682563487489E7 ; 1.6364059404523818E9 ; 1.7301786706659024E9 ; 0.0
169 ; 9366570.403890569 ; 1.0298682563487489E7 ; 1.6457795438292723E9 ; 1.74047735322939E9 ; 0.0
170 ; 9355093.406535082 ; 1.0298682563487489E7 ; 1.6551461142331629E9 ; 1.7507760357928774E9 ; 0.0
171 ; 9347343.922617096 ; 1.0298682563487489E7 ; 1.664501207639698E9 ; 1.761074718356365E9 ; 0.0
172 ; 9338124.632358076 ; 1.0298682563487489E7 ; 1.6738485515623152E9 ; 1.7713734009198525E9 ; 0.0
173 ; 9329248.508003663 ; 1.0298682563487489E7 ; 1.6831866761946733E9 ; 1.78167208348334E9 ; 0.0
174 ; 9321372.433824308 ; 1.0298682563487489E7 ; 1.692515924702677E9 ; 1.7919707660468276E9 ; 0.0
175 ; 9318160.705190314 ; 1.0298682563487489E7 ; 1.7018372971365013E9 ; 1.802269448610315E9 ; 0.0
176 ; 9312019.375977356 ; 1.0298682563487489E7 ; 1.7111554578416917E9 ; 1.8125681311738026E9 ; 0.0
177 ; 9306539.103995765 ; 1.0298682563487489E7 ; 1.720467477217669E9 ; 1.8228668137372901E9 ; 0.0
178 ; 9301862.464261537 ; 1.0298682563487489E7 ; 1.7297740163216648E9 ; 1.8331654963007777E9 ; 0.0
179 ; 9295288.268610451 ; 1.0298682563487489E7 ; 1.7390758787859263E9 ; 1.8434641788642652E9 ; 0.0
180 ; 9289029.647856053 ; 1.0298682563487489E7 ; 1.7483711670545368E9 ; 1.8537628614277527E9 ; 0.0
181 ; 9284632.779521534 ; 1.0298682563487489E7 ; 1.7576601967023928E9 ; 1.8640615439912403E9 ; 0.0
182 ; 9280313.464684654 ; 1.0298682563487489E7 ; 1.7669448294819143E9 ; 1.8743602265547278E9 ; 0.0
183 ; 9270532.51425741 ; 1.0298682563487489E7 ; 1.776225142946599E9 ; 1.8846589091182153E9 ; 0.0
184 ; 9267516.15352362 ; 1.0298682563487489E7 ; 1.7854956754608564E9 ; 1.8949575916817029E9 ; 0.0
185 ; 9262890.545444738 ; 1.0298682563487489E7 ; 1.7947631916143801E9 ; 1.9052562742451904E9 ; 0.0
186 ; 9254720.016020583 ; 1.0298682563487489E7 ; 1.8040260821598248E9 ; 1.915554956808678E9 ; 0.0
187 ; 9253343.77962653 ; 1.0298682563487489E7 ; 1.8132808021758454E9 ; 1.9258536393721654E9 ; 0.0
188 ; 9247410.298675828 ; 1.0298682563487489E7 ; 1.822534145955472E9 ; 1.936152321935653E9 ; 0.0
189 ; 9238290.388380647 ; 1.0298682563487489E7 ; 1.8317815562541478E9 ; 1.9464510044991405E9 ; 0.0
190 ; 9234978.581191039 ; 1.0298682563487489E7 ; 1.8410198466425285E9 ; 1.956749687062628E9 ; 0.0
191 ; 9230681.627253525 ; 1.0298682563487489E7 ; 1.8502548252237196E9 ; 1.9670483696261156E9 ; 0.0
192 ; 9223426.296371823 ; 1.0298682563487489E7 ; 1.8594855068509731E9 ; 1.977347052189603E9 ; 0.0
193 ; 9219374.235192234 ; 1.0298682563487489E7 ; 1.868708933147345E9 ; 1.9876457347530906E9 ; 0.0
194 ; 9211854.739318468 ; 1.0298682563487489E7 ; 1.8779283073825374E9 ; 1.9979444173165781E9 ; 0.0
195 ; 9207182.068219269 ; 1.0298682563487489E7 ; 1.8871401621218557E9 ; 2.0082430998800657E9 ; 0.0
196 ; 9202151.62553259 ; 1.0298682563487489E7 ; 1.896347344190075E9 ; 2.0185417824435532E9 ; 0.0
197 ; 9197655.85492592 ; 1.0298682563487489E7 ; 1.9055494958156075E9 ; 2.0288404650070407E9 ; 0.0
198 ; 9191309.31308246 ; 1.0298682563487489E7 ; 1.9147471516705334E9 ; 2.0391391475705283E9 ; 0.0
199 ; 9186861.740426483 ; 1.0298682563487489E7 ; 1.9239384609836159E9 ; 2.0494378301340158E9 ; 0.0
200 ; 9180390.814478442 ; 1.0298682563487489E7 ; 1.9331253227240424E9 ; 2.0597365126975033E9 ; 0.0
201 ; 9175020.996090535 ; 1.0298682563487489E7 ; 1.9423057135385208E9 ; 2.0700351952609909E9 ; 0.0
