CSV File for the City 4 on Day 189
1 - Minute m 
2 - Power Consumed at minute m 
3 - Power Produced at minute m 
4 - Energy Consumed since the beginning of the day 
5 - Energy Produced since the beginning of the day 
6 - Energy Lost since the beginning of the day on lines starting from the city
 
0 ; 1060465.0459615658 ; 1.0596343763074932E8 ; 0.0 ; 0.0 ; 0.0
1 ; 1066786.1157296489 ; 1.0611374388906169E8 ; 1060465.0459615658 ; 1.0596343763074932E8 ; 0.0
2 ; 1074810.1217356292 ; 1.0657309670222512E8 ; 2127251.161691215 ; 2.12077181519811E8 ; 0.0
3 ; 1082288.74769141 ; 1.073415018845709E8 ; 3202061.283426844 ; 3.186502782220361E8 ; 0.0
4 ; 1089929.2469854164 ; 1.0841896467739797E8 ; 4284350.031118254 ; 4.25991780106607E8 ; 0.0
5 ; 1104850.4269387962 ; 1.098054897097742E8 ; 5374279.27810367 ; 5.34410744784005E8 ; 0.0
6 ; 1120123.1728371761 ; 1.115010809629983E8 ; 6479129.7050424665 ; 6.442162344937792E8 ; 0.0
7 ; 1143114.6706868801 ; 1.1350574173934144E8 ; 7599252.877879643 ; 7.557173154567775E8 ; 0.0
8 ; 1178049.6394381833 ; 1.1581947463562989E8 ; 8742367.548566524 ; 8.692230571961188E8 ; 0.0
9 ; 1227416.455267409 ; 1.1844228152215874E8 ; 9920417.188004708 ; 9.850425318317487E8 ; 0.0
10 ; 1306276.9072864878 ; 1.213741635273329E8 ; 1.1147833643272117E7 ; 1.1034848133539076E9 ; 0.0
11 ; 1428231.0598468094 ; 1.2461512102833161E8 ; 1.2454110550558604E7 ; 1.2248589768812404E9 ; 0.0
12 ; 1626338.0361800091 ; 1.281651536479756E8 ; 1.3882341610405413E7 ; 1.349474097909572E9 ; 0.0
13 ; 1817871.528728634 ; 1.3202426025785995E8 ; 1.5508679646585423E7 ; 1.4776392515575476E9 ; 0.0
14 ; 1842405.275011005 ; 1.3619243898768967E8 ; 1.7326551175314058E7 ; 1.6096635118154075E9 ; 0.0
15 ; 1852030.8758524219 ; 1.4066968724063838E8 ; 1.9168956450325064E7 ; 1.7458559508030972E9 ; 0.0
16 ; 1859941.2990731075 ; 1.45456001714435E8 ; 2.1020987326177485E7 ; 1.8865256380437355E9 ; 0.0
17 ; 1867700.361726383 ; 1.5055137842778078E8 ; 2.2880928625250593E7 ; 2.0319816397581706E9 ; 0.0
18 ; 1880023.018358512 ; 1.5595581275160784E8 ; 2.4748628986976977E7 ; 2.182533018185951E9 ; 0.0
19 ; 1887779.1336438172 ; 1.6166929944461724E8 ; 2.662865200533549E7 ; 2.338488830937559E9 ; 0.0
20 ; 1896303.3132377786 ; 1.6769183269247767E8 ; 2.851643113897931E7 ; 2.5001581303821764E9 ; 0.0
21 ; 1906385.9290867886 ; 1.7402340615002725E8 ; 3.0412734452217087E7 ; 2.667849963074654E9 ; 0.0
22 ; 1917750.114270923 ; 1.8066401298580313E8 ; 3.2319120381303877E7 ; 2.8418733692246814E9 ; 0.0
23 ; 1922542.2565222024 ; 1.8761364592822164E8 ; 3.42368704955748E7 ; 3.0225373822104845E9 ; 0.0
24 ; 1934129.9624371985 ; 1.9487229731274664E8 ; 3.6159412752097E7 ; 3.210151028138706E9 ; 0.0
25 ; 1944210.5901750387 ; 2.0112800002759978E8 ; 3.80935427145342E7 ; 3.4050233254514527E9 ; 0.0
26 ; 1953323.3623267303 ; 2.0113429359795102E8 ; 4.003775330470924E7 ; 3.6061513254790525E9 ; 0.0
27 ; 1963495.0169512904 ; 2.0114093875735024E8 ; 4.1991076667035975E7 ; 3.8072856190770035E9 ; 0.0
28 ; 1971517.8303613882 ; 2.0114792673978433E8 ; 4.395457168398727E7 ; 4.008426557834354E9 ; 0.0
29 ; 1979814.222522215 ; 2.0115524861655232E8 ; 4.5926089514348656E7 ; 4.209574484574138E9 ; 0.0
30 ; 1989288.096011082 ; 2.0116289533789542E8 ; 4.790590373687087E7 ; 4.41072973319069E9 ; 0.0
31 ; 1999126.6665959023 ; 2.0117085777234855E8 ; 4.989519183288195E7 ; 4.611892628528585E9 ; 0.0
32 ; 2007014.5437183229 ; 2.011791267436002E8 ; 5.189431849947785E7 ; 4.813063486300934E9 ; 0.0
33 ; 2013253.1722519908 ; 2.0118769306470832E8 ; 5.390133304319617E7 ; 5.014242613044534E9 ; 0.0
34 ; 2019792.4832214336 ; 2.0119654756957698E8 ; 5.591458621544816E7 ; 5.215430306109242E9 ; 0.0
35 ; 2033970.9656416927 ; 2.0120568114165002E8 ; 5.79343786986696E7 ; 5.41662685367882E9 ; 0.0
36 ; 2041117.4701592792 ; 2.0121508473982298E8 ; 5.996834966431129E7 ; 5.61783253482047E9 ; 0.0
37 ; 2046932.9877756888 ; 2.0122474942161432E8 ; 6.200946713447057E7 ; 5.819047619560293E9 ; 0.0
38 ; 2055173.4651505642 ; 2.012346663636692E8 ; 6.405640012224626E7 ; 6.020272368981908E9 ; 0.0
39 ; 2062905.088580733 ; 2.0124482687969625E8 ; 6.611157358739682E7 ; 6.221507035345577E9 ; 0.0
40 ; 2065980.387520711 ; 2.0125522243595946E8 ; 6.817447867597756E7 ; 6.422751862225273E9 ; 0.0
41 ; 2078376.0292049458 ; 2.012658446644618E8 ; 7.024045906349827E7 ; 6.624007084661233E9 ; 0.0
42 ; 2083777.3726056449 ; 2.012766853739698E8 ; 7.231883509270322E7 ; 6.825272929325695E9 ; 0.0
43 ; 2087091.1110839422 ; 2.0128773655903438E8 ; 7.440261246530887E7 ; 7.026549614699665E9 ; 0.0
44 ; 2091732.070613181 ; 2.0129899040716615E8 ; 7.648970357639281E7 ; 7.227837351258699E9 ; 0.0
45 ; 2098446.2253756556 ; 2.013104393043248E8 ; 7.858143564700599E7 ; 7.429136341665866E9 ; 0.0
46 ; 2102707.3916324414 ; 2.0132207583887842E8 ; 8.067988187238164E7 ; 7.630446780970191E9 ; 0.0
47 ; 2109073.2301840098 ; 2.013338928041851E8 ; 8.278258926401408E7 ; 7.83176885680907E9 ; 0.0
48 ; 2112727.508686322 ; 2.013458831999428E8 ; 8.489166249419808E7 ; 8.033102749613255E9 ; 0.0
49 ; 2115520.3279221198 ; 2.013580402324462E8 ; 8.70043900028844E7 ; 8.234448632813197E9 ; 0.0
50 ; 2120106.444613355 ; 2.0137035731388137E8 ; 8.911991033080652E7 ; 8.435806673045643E9 ; 0.0
51 ; 2121102.7011448336 ; 2.0138282806078032E8 ; 9.124001677541988E7 ; 8.637177030359524E9 ; 0.0
52 ; 2126398.4166303365 ; 2.0139544629174858E8 ; 9.33611194765647E7 ; 8.838559858420303E9 ; 0.0
53 ; 2131047.0616988568 ; 2.014082060245703E8 ; 9.548751789319505E7 ; 9.039955304712051E9 ; 0.0
54 ; 2131120.345393221 ; 2.0142110147278556E8 ; 9.76185649548939E7 ; 9.241363510736622E9 ; 0.0
55 ; 2134496.1905320934 ; 2.0143412704182762E8 ; 9.974968530028713E7 ; 9.442784612209408E9 ; 0.0
56 ; 2139828.4901633775 ; 2.014472773247971E8 ; 1.0188418149081922E8 ; 9.644218739251236E9 ; 0.0
57 ; 2142861.5832798113 ; 2.014605470979447E8 ; 1.0402400998098259E8 ; 9.845666016576033E9 ; 0.0
58 ; 2145950.9422145486 ; 2.0147393131592444E8 ; 1.061668715642624E8 ; 1.0047126563673977E10 ; 0.0
59 ; 2149016.5164287533 ; 2.014874251068735E8 ; 1.0831282250647695E8 ; 1.02486004949899E10 ; 0.0
60 ; 2149184.9772412246 ; 2.0150102376736853E8 ; 1.104618390229057E8 ; 1.0450087920096775E10 ; 0.0
61 ; 2155050.2251326367 ; 2.0151472275730073E8 ; 1.1261102400014693E8 ; 1.0651588943864143E10 ; 0.0
62 ; 2156178.7017961866 ; 2.0152851769470868E8 ; 1.1476607422527957E8 ; 1.0853103666621445E10 ; 0.0
63 ; 2162388.4127894663 ; 2.0154240435060066E8 ; 1.1692225292707576E8 ; 1.1054632184316153E10 ; 0.0
64 ; 2165734.653072513 ; 2.015563786437956E8 ; 1.1908464133986522E8 ; 1.1256174588666754E10 ; 0.0
65 ; 2163602.3377612475 ; 2.0157043663580632E8 ; 1.2125037599293773E8 ; 1.1457730967310549E10 ; 0.0
66 ; 2170932.537234749 ; 2.0158457452578554E8 ; 1.2341397833069898E8 ; 1.1659301403946356E10 ; 0.0
67 ; 2171741.818261418 ; 2.0159878864555195E8 ; 1.2558491086793374E8 ; 1.1860885978472141E10 ; 0.0
68 ; 2173852.461898862 ; 2.0161307545471066E8 ; 1.2775665268619515E8 ; 1.2062484767117693E10 ; 0.0
69 ; 2174384.058443443 ; 2.016274315358792E8 ; 1.2993050514809401E8 ; 1.2264097842572403E10 ; 0.0
70 ; 2176797.6084272144 ; 2.0164185359002897E8 ; 1.3210488920653746E8 ; 1.2465725274108282E10 ; 0.0
71 ; 2182977.269648908 ; 2.0165633843194884E8 ; 1.3428168681496468E8 ; 1.266736712769831E10 ; 0.0
72 ; 2183997.5911689973 ; 2.0167088298583686E8 ; 1.364646640846136E8 ; 1.286902346613026E10 ; 0.0
73 ; 2188415.1544895847 ; 2.0168548428102386E8 ; 1.386486616757826E8 ; 1.3070694349116096E10 ; 0.0
74 ; 2185624.5321785915 ; 2.0170013944783145E8 ; 1.4083707683027217E8 ; 1.327237983339712E10 ; 0.0
75 ; 2191594.491298425 ; 2.0171484571356624E8 ; 1.4302270136245075E8 ; 1.3474079972844952E10 ; 0.0
76 ; 2190321.4344194354 ; 2.017296003986504E8 ; 1.452142958537492E8 ; 1.3675794818558517E10 ; 0.0
77 ; 2194649.813170414 ; 2.017444009128884E8 ; 1.474046172881686E8 ; 1.3877524418957169E10 ; 0.0
78 ; 2195192.5337433945 ; 2.017592447518689E8 ; 1.49599267101339E8 ; 1.4079268819870056E10 ; 0.0
79 ; 2194522.563087015 ; 2.0177412949350005E8 ; 1.517944596350824E8 ; 1.4281028064621925E10 ; 0.0
80 ; 2194293.244519809 ; 2.0178905279467604E8 ; 1.539889821981694E8 ; 1.4482802194115425E10 ; 0.0
81 ; 2191752.6525681666 ; 2.0180401238807225E8 ; 1.561832754426892E8 ; 1.46845912469101E10 ; 0.0
82 ; 2193223.853728915 ; 2.0181900607906654E8 ; 1.5837502809525737E8 ; 1.4886395259298174E10 ; 0.0
83 ; 2189480.0845798007 ; 2.018340317427829E8 ; 1.605682519489863E8 ; 1.5088214265377241E10 ; 0.0
84 ; 2192195.552445756 ; 2.018490873212545E8 ; 1.627577320335661E8 ; 1.5290048297120024E10 ; 0.0
85 ; 2191233.758475185 ; 2.0186417082070267E8 ; 1.6494992758601186E8 ; 1.5491897384441278E10 ; 0.0
86 ; 2190463.5048471754 ; 2.0187928030892798E8 ; 1.6714116134448704E8 ; 1.5693761555261982E10 ; 0.0
87 ; 2188451.7789338864 ; 2.0189441391280997E8 ; 1.693316248493342E8 ; 1.589564083557091E10 ; 0.0
88 ; 2188918.714794579 ; 2.019095698159115E8 ; 1.715200766282681E8 ; 1.6097535249483719E10 ; 0.0
89 ; 2189153.084831905 ; 2.0192474625618458E8 ; 1.7370899534306267E8 ; 1.6299444819299631E10 ; 0.0
90 ; 2184693.2541911188 ; 2.0193994152377316E8 ; 1.7589814842789456E8 ; 1.6501369565555817E10 ; 0.0
91 ; 2185985.0156508363 ; 2.019551539589102E8 ; 1.780828416820857E8 ; 1.670330950707959E10 ; 0.0
92 ; 2185075.2301719966 ; 2.0197038194990432E8 ; 1.8026882669773653E8 ; 1.69052646610385E10 ; 0.0
93 ; 2182739.0855111666 ; 2.0198562393121362E8 ; 1.8245390192790854E8 ; 1.7107235042988403E10 ; 0.0
94 ; 2182313.489249902 ; 2.0200087838160205E8 ; 1.8463664101341972E8 ; 1.7309220666919617E10 ; 0.0
95 ; 2180408.7611784795 ; 2.0201614382237595E8 ; 1.8681895450266963E8 ; 1.751122154530122E10 ; 0.0
96 ; 2181399.7483130842 ; 2.020314188156968E8 ; 1.8899936326384813E8 ; 1.7713237689123596E10 ; 0.0
97 ; 2179188.9772578734 ; 2.0204670196296725E8 ; 1.911807630121612E8 ; 1.7915269107939293E10 ; 0.0
98 ; 2179519.4048947543 ; 2.0206199190328735E8 ; 1.9335995198941907E8 ; 1.811731580990226E10 ; 0.0
99 ; 2176049.495716128 ; 2.0207728731197765E8 ; 1.955394713943138E8 ; 1.8319377801805546E10 ; 0.0
100 ; 2172962.974659013 ; 2.020925868991669E8 ; 1.9771552089002994E8 ; 1.8521455089117523E10 ; 0.0
101 ; 2174971.5635582777 ; 2.021078894084408E8 ; 1.9988848386468896E8 ; 1.872354767601669E10 ; 0.0
102 ; 2170735.73198823 ; 2.0212319361554977E8 ; 2.0206345542824724E8 ; 1.892565556542513E10 ; 0.0
103 ; 2172028.669650718 ; 2.021384983271727E8 ; 2.0423419116023546E8 ; 1.912777875904068E10 ; 0.0
104 ; 2169118.957056294 ; 2.021538023797343E8 ; 2.0640621982988617E8 ; 1.932991725736785E10 ; 0.0
105 ; 2167978.082864033 ; 2.0216910463827404E8 ; 2.0857533878694245E8 ; 1.9532071059747585E10 ; 0.0
106 ; 2165503.007990329 ; 2.0218440399536365E8 ; 2.107433168698065E8 ; 1.973424016438586E10 ; 0.0
107 ; 2166352.300391008 ; 2.021996993700717E8 ; 2.1290881987779683E8 ; 1.9936424568381226E10 ; 0.0
108 ; 2163366.5209751423 ; 2.0221498970697263E8 ; 2.1507517217818785E8 ; 2.0138624267751297E10 ; 0.0
109 ; 2159445.0726996656 ; 2.0223027397519878E8 ; 2.17238538699163E8 ; 2.034083925745827E10 ; 0.0
110 ; 2157153.172449441 ; 2.0224555116753268E8 ; 2.1939798377186266E8 ; 2.054306953143347E10 ; 0.0
111 ; 2155616.3448289516 ; 2.0226082029953876E8 ; 2.215551369443121E8 ; 2.0745315082601006E10 ; 0.0
112 ; 2153758.899840492 ; 2.0227608040873182E8 ; 2.2371075328914106E8 ; 2.0947575902900543E10 ; 0.0
113 ; 2152730.775146492 ; 2.0229133055378112E8 ; 2.2586451218898156E8 ; 2.1149851983309277E10 ; 0.0
114 ; 2151719.050042502 ; 2.0230656981374833E8 ; 2.2801724296412805E8 ; 2.1352143313863056E10 ; 0.0
115 ; 2148230.511224279 ; 2.0232179728735775E8 ; 2.3016896201417056E8 ; 2.1554449883676804E10 ; 0.0
116 ; 2144199.8916879226 ; 2.023370120922974E8 ; 2.3231719252539483E8 ; 2.175677168096416E10 ; 0.0
117 ; 2145260.138962338 ; 2.0235221336454976E8 ; 2.3446139241708276E8 ; 2.1959108693056458E10 ; 0.0
118 ; 2141117.0665992373 ; 2.0236740025775027E8 ; 2.366066525560451E8 ; 2.216146090642101E10 ; 0.0
119 ; 2139141.2073311936 ; 2.0238257194257313E8 ; 2.3874776962264434E8 ; 2.236382830667876E10 ; 0.0
120 ; 2134751.1504238606 ; 2.023977276061424E8 ; 2.4088691082997552E8 ; 2.2566210878621334E10 ; 0.0
121 ; 2136644.0054708556 ; 2.0241286645146784E8 ; 2.4302166198039937E8 ; 2.2768608606227478E10 ; 0.0
122 ; 2133567.3236818067 ; 2.0242798769690415E8 ; 2.451583059858702E8 ; 2.2971021472678947E10 ; 0.0
123 ; 2129097.352834608 ; 2.0244309057563233E8 ; 2.47291873309552E8 ; 2.317344946037585E10 ; 0.0
124 ; 2126750.504621716 ; 2.0245817433516267E8 ; 2.4942097066238663E8 ; 2.3375892550951485E10 ; 0.0
125 ; 2124174.5960278446 ; 2.0247323823685807E8 ; 2.5154772116700834E8 ; 2.3578350725286648E10 ; 0.0
126 ; 2121117.939139992 ; 2.0248828155547675E8 ; 2.536718957630362E8 ; 2.3780823963523506E10 ; 0.0
127 ; 2118857.8140716315 ; 2.0250330357873368E8 ; 2.5579301370217618E8 ; 2.3983312245078983E10 ; 0.0
128 ; 2114294.476455077 ; 2.025183036068799E8 ; 2.579118715162478E8 ; 2.418581554865772E10 ; 0.0
129 ; 2114782.9509637295 ; 2.0253328095229852E8 ; 2.6002616599270287E8 ; 2.43883338522646E10 ; 0.0
130 ; 2107521.198918121 ; 2.0254823493911764E8 ; 2.621409489436666E8 ; 2.4590867133216896E10 ; 0.0
131 ; 2103310.822530222 ; 2.0256316490283793E8 ; 2.6424847014258474E8 ; 2.4793415368156013E10 ; 0.0
132 ; 2095541.740075441 ; 2.02578070189976E8 ; 2.6635178096511495E8 ; 2.4995978533058853E10 ; 0.0
133 ; 2089445.4996051267 ; 2.025929501577213E8 ; 2.684473227051904E8 ; 2.519855660324883E10 ; 0.0
134 ; 2085805.7049613139 ; 2.02607804173607E8 ; 2.7053676820479554E8 ; 2.540114955340655E10 ; 0.0
135 ; 2079113.6275852064 ; 2.026226316151937E8 ; 2.7262257390975684E8 ; 2.560375735758016E10 ; 0.0
136 ; 2076334.3982613953 ; 2.026374318697658E8 ; 2.747016875373421E8 ; 2.580637998919535E10 ; 0.0
137 ; 2066905.3326696637 ; 2.0265220433403954E8 ; 2.7677802193560344E8 ; 2.6009017421065117E10 ; 0.0
138 ; 2065458.3403484994 ; 2.0266694841388258E8 ; 2.788449272682731E8 ; 2.6211669625399155E10 ; 0.0
139 ; 2057990.5217261806 ; 2.0268166352404457E8 ; 2.809103856086216E8 ; 2.6414336573813038E10 ; 0.0
140 ; 2051891.093408857 ; 2.026963490878979E8 ; 2.829683761303478E8 ; 2.6617018237337082E10 ; 0.0
141 ; 2044349.13166796 ; 2.027110045371889E8 ; 2.850202672237567E8 ; 2.681971458642498E10 ; 0.0
142 ; 2038591.5137936124 ; 2.0272562931179798E8 ; 2.8706461635542464E8 ; 2.702242559096217E10 ; 0.0
143 ; 2031438.2638497802 ; 2.027402228595098E8 ; 2.8910320786921823E8 ; 2.7225151220273968E10 ; 0.0
144 ; 2028310.108411138 ; 2.027547846357913E8 ; 2.91134646133068E8 ; 2.7427891443133476E10 ; 0.0
145 ; 2025657.6878956172 ; 2.0276931410357898E8 ; 2.9316295624147916E8 ; 2.7630646227769268E10 ; 0.0
146 ; 2021884.676497618 ; 2.0278381073307368E8 ; 2.9518861392937475E8 ; 2.783341554187285E10 ; 0.0
147 ; 2020090.7475072434 ; 2.0279827400154337E8 ; 2.972104986058724E8 ; 2.8036199352605923E10 ; 0.0
148 ; 2014252.4418034735 ; 2.0281270339313328E8 ; 2.992305893533796E8 ; 2.8238997626607468E10 ; 0.0
149 ; 2010157.8285138826 ; 2.0282709839868325E8 ; 3.0124484179518306E8 ; 2.8441810330000603E10 ; 0.0
150 ; 2009753.9741130802 ; 2.0284145851555163E8 ; 3.032549996236969E8 ; 2.8644637428399284E10 ; 0.0
151 ; 2005923.5284048675 ; 2.0285578324744612E8 ; 3.0526475359781003E8 ; 2.8847478886914837E10 ; 0.0
152 ; 2000871.436825537 ; 2.0287007210426047E8 ; 3.072706771262149E8 ; 2.9050334670162285E10 ; 0.0
153 ; 2000671.2861383923 ; 2.0288432460191756E8 ; 3.0927154856304044E8 ; 2.9253204742266544E10 ; 0.0
154 ; 1998095.9686812866 ; 2.0289854026221797E8 ; 3.1127221984917885E8 ; 2.945608906686846E10 ; 0.0
155 ; 1994363.4917084062 ; 2.0291271861269423E8 ; 3.132703158178601E8 ; 2.965898760713068E10 ; 0.0
156 ; 1991315.0295617178 ; 2.0292685918647048E8 ; 3.152646793095685E8 ; 2.9861900325743374E10 ; 0.0
157 ; 1985108.833265228 ; 2.0294096152212697E8 ; 3.172559943391302E8 ; 3.0064827184929844E10 ; 0.0
158 ; 1983305.2086268775 ; 2.0295502516356984E8 ; 3.1924110317239547E8 ; 3.026776814645197E10 ; 0.0
159 ; 1980553.5868416892 ; 2.029690496599052E8 ; 3.2122440838102233E8 ; 3.047072317161554E10 ; 0.0
160 ; 1976407.7534713042 ; 2.0298303456531808E8 ; 3.2320496196786404E8 ; 3.0673692221275444E10 ; 0.0
161 ; 1973329.05687464 ; 2.0299697943895546E8 ; 3.2518136972133535E8 ; 3.0876675255840763E10 ; 0.0
162 ; 1968300.699802169 ; 2.030108838448138E8 ; 3.2715469877821E8 ; 3.107967223527972E10 ; 0.0
163 ; 1968245.30749627 ; 2.0302474735163012E8 ; 3.2912299947801214E8 ; 3.1282683119124535E10 ; 0.0
164 ; 1963974.242452314 ; 2.030385695327775E8 ; 3.310912447855084E8 ; 3.1485707866476166E10 ; 0.0
165 ; 1959788.2377018102 ; 2.030523499661637E8 ; 3.330552190279607E8 ; 3.168874643600894E10 ; 0.0
166 ; 1956611.6770907224 ; 2.0306608823413387E8 ; 3.3501500726566255E8 ; 3.1891798785975105E10 ; 0.0
167 ; 1949074.9608484278 ; 2.0307978392337635E8 ; 3.3697161894275326E8 ; 3.209486487420924E10 ; 0.0
168 ; 1952132.1315293643 ; 2.0309343662483191E8 ; 3.389206939036017E8 ; 3.2297944658132618E10 ; 0.0
169 ; 1945154.893834751 ; 2.0310704593360615E8 ; 3.408728260351311E8 ; 3.250103809475745E10 ; 0.0
170 ; 1942510.185008417 ; 2.031206114488848E8 ; 3.4281798092896587E8 ; 3.2704145140691055E10 ; 0.0
171 ; 1941109.9683769078 ; 2.0313413277385226E8 ; 3.447604911139743E8 ; 3.290726575213994E10 ; 0.0
172 ; 1937841.6207379624 ; 2.0314760951561275E8 ; 3.467016010823512E8 ; 3.311039988491379E10 ; 0.0
173 ; 1932666.4642744674 ; 2.031610412851142E8 ; 3.486394427030892E8 ; 3.3313547494429405E10 ; 0.0
174 ; 1930071.7521776904 ; 2.031744276970747E8 ; 3.5057210916736364E8 ; 3.351670853571452E10 ; 0.0
175 ; 1926698.2086895125 ; 2.031877683699118E8 ; 3.5250218091954136E8 ; 3.3719882963411594E10 ; 0.0
176 ; 1927222.8481873379 ; 2.0320106292567366E8 ; 3.5442887912823087E8 ; 3.3923070731781506E10 ; 0.0
177 ; 1921733.443503326 ; 2.0321431098997316E8 ; 3.563561019764182E8 ; 3.412627179470718E10 ; 0.0
178 ; 1920746.7716209418 ; 2.032275121919239E8 ; 3.582778354199215E8 ; 3.4329486105697155E10 ; 0.0
179 ; 1918546.2804740919 ; 2.0324066616407827E8 ; 3.6019858219154245E8 ; 3.453271361788908E10 ; 0.0
180 ; 1915314.6868902603 ; 2.0325377254236808E8 ; 3.621171284720165E8 ; 3.4735954284053154E10 ; 0.0
181 ; 1910476.9282450106 ; 2.032668309660467E8 ; 3.6403244315890676E8 ; 3.493920805659552E10 ; 0.0
182 ; 1911492.201116386 ; 2.032798410776334E8 ; 3.6594292008715177E8 ; 3.514247488756157E10 ; 0.0
183 ; 1909792.747930986 ; 2.0329280252285957E8 ; 3.6785441228826815E8 ; 3.5345754728639206E10 ; 0.0
184 ; 1905005.7704774109 ; 2.0330571495061663E8 ; 3.6976420503619915E8 ; 3.554904753116206E10 ; 0.0
185 ; 1903042.5204836212 ; 2.0331857801290578E8 ; 3.7166921080667657E8 ; 3.575235324611268E10 ; 0.0
186 ; 1901494.5619904075 ; 2.0333139136478934E8 ; 3.735722533271602E8 ; 3.595567182412559E10 ; 0.0
187 ; 1895873.4712476616 ; 2.0334415466434386E8 ; 3.7547374788915056E8 ; 3.615900321549038E10 ; 0.0
188 ; 1897192.5603645914 ; 2.0335686757261458E8 ; 3.7736962136039823E8 ; 3.6362347370154724E10 ; 0.0
189 ; 1894801.5933428865 ; 2.0336952975357157E8 ; 3.7926681392076284E8 ; 3.656570423772734E10 ; 0.0
190 ; 1888125.4241610288 ; 2.0338214087406725E8 ; 3.8116161551410574E8 ; 3.676907376748091E10 ; 0.0
191 ; 1888802.1817532966 ; 2.0339470060379526E8 ; 3.8304974093826675E8 ; 3.697245590835498E10 ; 0.0
192 ; 1888265.8805351579 ; 2.034072086152509E8 ; 3.8493854312002003E8 ; 3.717585060895878E10 ; 0.0
193 ; 1882742.7693658096 ; 2.0341966458369252E8 ; 3.868268090005552E8 ; 3.737925781757403E10 ; 0.0
194 ; 1881498.103798332 ; 2.0343206818710458E8 ; 3.88709551769921E8 ; 3.758267748215772E10 ; 0.0
195 ; 1881537.8763398929 ; 2.0344441910616156E8 ; 3.9059104987371933E8 ; 3.7786109550344826E10 ; 0.0
196 ; 1874015.813718249 ; 2.034567170241933E8 ; 3.9247258775005925E8 ; 3.798955396945099E10 ; 0.0
197 ; 1875576.6712700508 ; 2.034689616271513E8 ; 3.943466035637775E8 ; 3.819301068647518E10 ; 0.0
198 ; 1871898.5504290785 ; 2.0348115260357636E8 ; 3.962221802350476E8 ; 3.839647964810233E10 ; 0.0
199 ; 1866194.8369685458 ; 2.0349328964456692E8 ; 3.980940787854767E8 ; 3.859996080070591E10 ; 0.0
