CSV File for the City 4 on Day 17
1 - Minute m 
2 - Power Consumed at minute m 
3 - Power Produced at minute m 
4 - Energy Consumed since the beginning of the day 
5 - Energy Produced since the beginning of the day 
6 - Energy Lost since the beginning of the day on lines starting from the city
 
0 ; 4718045.126619225 ; 5.147302549846936E7 ; 0.0 ; 0.0 ; 0.0
1 ; 4723686.350245204 ; 5.162734648612366E7 ; 4718045.126619225 ; 5.147302549846936E7 ; 613.6199999999999
2 ; 4727124.849073645 ; 5.2090309449086614E7 ; 9441731.47686443 ; 1.0310037198459302E8 ; 1227.2399999999998
3 ; 4732908.427574124 ; 5.2861914387358226E7 ; 1.4168856325938074E7 ; 1.5519068143367964E8 ; 1840.8599999999997
4 ; 4739732.923046615 ; 5.3942161300938465E7 ; 1.8901764753512196E7 ; 2.0805259582103786E8 ; 2454.4799999999996
5 ; 4748008.178977337 ; 5.533105018982736E7 ; 2.364149767655881E7 ; 2.6199475712197632E8 ; 3068.0999999999995
6 ; 4758740.876319126 ; 5.7028581054024875E7 ; 2.8389505855536148E7 ; 3.173258073118037E8 ; 3681.7199999999993
7 ; 4773876.523927615 ; 5.9034753893531054E7 ; 3.3148246731855273E7 ; 3.743543883658286E8 ; 4295.339999999999
8 ; 4795170.515947262 ; 6.134956870834586E7 ; 3.792212325578289E7 ; 4.333891422593596E8 ; 4908.959999999999
9 ; 4829411.590405957 ; 6.397302549846932E7 ; 4.271729377173015E7 ; 4.947387109677055E8 ; 5522.579999999999
10 ; 4879844.083903285 ; 6.690512426390144E7 ; 4.75467053621361E7 ; 5.587117364661748E8 ; 6136.199999999999
11 ; 4959703.875166728 ; 7.014586500464219E7 ; 5.2426549446039386E7 ; 6.256168607300763E8 ; 6749.819999999999
12 ; 5088141.538083979 ; 7.369524772069156E7 ; 5.7386253321206115E7 ; 6.957627257347186E8 ; 7363.439999999999
13 ; 5208566.663861714 ; 7.755327241204956E7 ; 6.247439485929009E7 ; 7.694579734554101E8 ; 7977.059999999999
14 ; 5221643.371584751 ; 8.171993907871625E7 ; 6.768296152315181E7 ; 8.470112458674597E8 ; 8590.679999999998
15 ; 5229598.266602273 ; 8.619524772069153E7 ; 7.290460489473656E7 ; 9.287311849461759E8 ; 9204.3
16 ; 5234283.073895651 ; 9.09791983379755E7 ; 7.813420316133884E7 ; 1.0149264326668675E9 ; 9817.919999999998
17 ; 5239849.051296973 ; 9.607179093056813E7 ; 8.336848623523448E7 ; 1.105905631004843E9 ; 10431.539999999997
18 ; 5246827.625370127 ; 1.0147302549846935E8 ; 8.860833528653146E7 ; 1.2019774219354112E9 ; 11045.159999999996
19 ; 5252677.725587378 ; 1.0718290204167922E8 ; 9.38551629119016E7 ; 1.3034504474338806E9 ; 11658.779999999995
20 ; 5258079.195395649 ; 1.1320142056019773E8 ; 9.910784063748898E7 ; 1.4106333494755597E9 ; 12272.399999999994
21 ; 5266049.310749518 ; 1.195285810540249E8 ; 1.0436591983288462E8 ; 1.5238347700357575E9 ; 12886.019999999993
22 ; 5268981.120669644 ; 1.2616438352316068E8 ; 1.0963196914363414E8 ; 1.6433633510897825E9 ; 13499.639999999992
23 ; 5276878.104594896 ; 1.3310882796760516E8 ; 1.1490095026430379E8 ; 1.7695277346129432E9 ; 14113.259999999991
24 ; 5282375.314986175 ; 1.4036191438735825E8 ; 1.2017782836889869E8 ; 1.9026365625805483E9 ; 14726.87999999999
25 ; 5288889.778101487 ; 1.4661168368060344E8 ; 1.2546020368388486E8 ; 2.0429984769679065E9 ; 15340.499999999989
26 ; 5292876.990346098 ; 1.4661168368060344E8 ; 1.3074909346198635E8 ; 2.18961016064851E9 ; 15954.119999999988
27 ; 5298155.827132007 ; 1.4661168368060344E8 ; 1.3604197045233244E8 ; 2.3362218443291135E9 ; 16567.739999999987
28 ; 5306112.070676721 ; 1.4661168368060344E8 ; 1.4134012627946445E8 ; 2.482833528009717E9 ; 17181.359999999986
29 ; 5311498.1567070065 ; 1.4661168368060344E8 ; 1.4664623835014117E8 ; 2.6294452116903205E9 ; 17794.979999999985
30 ; 5316207.043216243 ; 1.4661168368060344E8 ; 1.519577365068482E8 ; 2.776056895370924E9 ; 18408.599999999984
31 ; 5322325.574123755 ; 1.4661168368060344E8 ; 1.5727394355006444E8 ; 2.9226685790515275E9 ; 19022.219999999983
32 ; 5326359.2857814245 ; 1.4661168368060344E8 ; 1.6259626912418818E8 ; 3.069280262732131E9 ; 19635.839999999982
33 ; 5333144.132532317 ; 1.4661168368060344E8 ; 1.679226284099696E8 ; 3.2158919464127345E9 ; 20249.45999999998
34 ; 5337533.631907386 ; 1.4661168368060344E8 ; 1.7325577254250193E8 ; 3.362503630093338E9 ; 20863.07999999998
35 ; 5339645.915281011 ; 1.4661168368060344E8 ; 1.785933061744093E8 ; 3.5091153137739415E9 ; 21476.69999999998
36 ; 5345897.818203976 ; 1.4661168368060344E8 ; 1.839329520896903E8 ; 3.655726997454545E9 ; 22090.319999999978
37 ; 5350529.203989528 ; 1.4661168368060344E8 ; 1.8927884990789428E8 ; 3.8023386811351485E9 ; 22703.939999999977
38 ; 5356112.458336732 ; 1.4661168368060344E8 ; 1.9462937911188382E8 ; 3.948950364815752E9 ; 23317.559999999976
39 ; 5358088.236106365 ; 1.4661168368060344E8 ; 1.9998549157022056E8 ; 4.0955620484963555E9 ; 23931.179999999975
40 ; 5362528.569006528 ; 1.4661168368060344E8 ; 2.0534357980632693E8 ; 4.242173732176959E9 ; 24544.799999999974
41 ; 5366925.4579263665 ; 1.4661168368060344E8 ; 2.1070610837533346E8 ; 4.388785415857562E9 ; 25158.419999999973
42 ; 5370310.055201689 ; 1.4661168368060344E8 ; 2.1607303383325982E8 ; 4.535397099538165E9 ; 25772.03999999997
43 ; 5371769.329294463 ; 1.4661168368060344E8 ; 2.214433438884615E8 ; 4.682008783218768E9 ; 26385.65999999997
44 ; 5376995.703479936 ; 1.4661168368060344E8 ; 2.2681511321775597E8 ; 4.828620466899371E9 ; 26999.27999999997
45 ; 5378477.123693875 ; 1.4661168368060344E8 ; 2.3219210892123592E8 ; 4.975232150579974E9 ; 27612.89999999997
46 ; 5382157.914926056 ; 1.4661168368060344E8 ; 2.375705860449298E8 ; 5.121843834260577E9 ; 28226.519999999968
47 ; 5384178.626226892 ; 1.4661168368060344E8 ; 2.4295274395985585E8 ; 5.26845551794118E9 ; 28840.139999999967
48 ; 5386310.023664151 ; 1.4661168368060344E8 ; 2.4833692258608276E8 ; 5.415067201621783E9 ; 29453.759999999966
49 ; 5388219.765899526 ; 1.4661168368060344E8 ; 2.537232326097469E8 ; 5.561678885302386E9 ; 30067.379999999965
50 ; 5389810.91139269 ; 1.4661168368060344E8 ; 2.5911145237564644E8 ; 5.708290568982989E9 ; 30680.999999999964
51 ; 5391574.117394238 ; 1.4661168368060344E8 ; 2.6450126328703913E8 ; 5.854902252663592E9 ; 31294.619999999963
52 ; 5393090.929382692 ; 1.4661168368060344E8 ; 2.6989283740443337E8 ; 6.001513936344195E9 ; 31908.23999999996
53 ; 5393943.426471077 ; 1.4661168368060344E8 ; 2.7528592833381605E8 ; 6.148125620024798E9 ; 32521.85999999996
54 ; 5395443.455124594 ; 1.4661168368060344E8 ; 2.806798717602871E8 ; 6.294737303705401E9 ; 33135.47999999996
55 ; 5398638.272925274 ; 1.4661168368060344E8 ; 2.860753152154117E8 ; 6.441348987386004E9 ; 33749.09999999996
56 ; 5399630.283608799 ; 1.4661168368060344E8 ; 2.91473953488337E8 ; 6.587960671066607E9 ; 34362.719999999965
57 ; 5400057.129792736 ; 1.4661168368060344E8 ; 2.968735837719458E8 ; 6.7345723547472105E9 ; 34976.33999999997
58 ; 5400504.877628658 ; 1.4661168368060344E8 ; 3.022736409017385E8 ; 6.881184038427814E9 ; 35589.95999999997
59 ; 5401452.7812278215 ; 1.4661168368060344E8 ; 3.076741457793672E8 ; 7.027795722108417E9 ; 36203.57999999997
60 ; 5402070.535456192 ; 1.4661168368060344E8 ; 3.1307559856059504E8 ; 7.17440740578902E9 ; 36817.199999999975
61 ; 5402915.842505489 ; 1.4661168368060344E8 ; 3.184776690960512E8 ; 7.321019089469623E9 ; 37430.81999999998
62 ; 5402465.626653415 ; 1.4661168368060344E8 ; 3.2388058493855673E8 ; 7.467630773150226E9 ; 38044.43999999998
63 ; 5404055.949750897 ; 1.4661168368060344E8 ; 3.2928305056521016E8 ; 7.614242456830829E9 ; 38658.05999999998
64 ; 5406627.688538426 ; 1.4661168368060344E8 ; 3.3468710651496106E8 ; 7.760854140511432E9 ; 39271.679999999986
65 ; 5408403.691137096 ; 1.4661168368060344E8 ; 3.400937342034995E8 ; 7.907465824192035E9 ; 39885.29999999999
66 ; 5407576.495561297 ; 1.4661168368060344E8 ; 3.455021378946366E8 ; 8.054077507872638E9 ; 40498.91999999999
67 ; 5408902.310765044 ; 1.4661168368060344E8 ; 3.509097143901979E8 ; 8.200689191553241E9 ; 41112.53999999999
68 ; 5411327.194566272 ; 1.4661168368060344E8 ; 3.563186167009629E8 ; 8.347300875233844E9 ; 41726.159999999996
69 ; 5409913.394092898 ; 1.4661168368060344E8 ; 3.6172994389552915E8 ; 8.493912558914447E9 ; 42339.78
70 ; 5408628.285121628 ; 1.4661168368060344E8 ; 3.6713985728962207E8 ; 8.64052424259505E9 ; 42953.4
71 ; 5411834.875228333 ; 1.4661168368060344E8 ; 3.725484855747437E8 ; 8.787135926275654E9 ; 43567.020000000004
72 ; 5410944.462034885 ; 1.4661168368060344E8 ; 3.7796032044997203E8 ; 8.933747609956257E9 ; 44180.64000000001
73 ; 5411726.334730119 ; 1.4661168368060344E8 ; 3.833712649120069E8 ; 9.08035929363686E9 ; 44794.26000000001
74 ; 5410156.277104496 ; 1.4661168368060344E8 ; 3.8878299124673706E8 ; 9.226970977317463E9 ; 45407.88000000001
75 ; 5411127.9170625275 ; 1.4661168368060344E8 ; 3.9419314752384156E8 ; 9.373582660998066E9 ; 46021.500000000015
76 ; 5410595.793245611 ; 1.4661168368060344E8 ; 3.996042754409041E8 ; 9.520194344678669E9 ; 46635.12000000002
77 ; 5412659.888219798 ; 1.4661168368060344E8 ; 4.050148712341497E8 ; 9.666806028359272E9 ; 47248.74000000002
78 ; 5411137.61997755 ; 1.4661168368060344E8 ; 4.1042753112236947E8 ; 9.813417712039875E9 ; 47862.36000000002
79 ; 5409140.001054103 ; 1.4661168368060344E8 ; 4.15838668742347E8 ; 9.960029395720478E9 ; 48475.980000000025
80 ; 5406773.006832026 ; 1.4661168368060344E8 ; 4.212478087434011E8 ; 1.0106641079401081E10 ; 49089.60000000003
81 ; 5405005.973583033 ; 1.4661168368060344E8 ; 4.266545817502331E8 ; 1.0253252763081684E10 ; 49703.22000000003
82 ; 5405780.771759377 ; 1.4661168368060344E8 ; 4.3205958772381616E8 ; 1.0399864446762287E10 ; 50316.84000000003
83 ; 5401627.411298516 ; 1.4661168368060344E8 ; 4.3746536849557555E8 ; 1.054647613044289E10 ; 50930.460000000036
84 ; 5400239.671413865 ; 1.4661168368060344E8 ; 4.4286699590687406E8 ; 1.0693087814123493E10 ; 51544.08000000004
85 ; 5399326.157997364 ; 1.4661168368060344E8 ; 4.482672355782879E8 ; 1.0839699497804096E10 ; 52157.70000000004
86 ; 5396928.2527598385 ; 1.4661168368060344E8 ; 4.5366656173628527E8 ; 1.09863111814847E10 ; 52771.32000000004
87 ; 5396839.187416678 ; 1.4661168368060344E8 ; 4.590634899890451E8 ; 1.1132922865165302E10 ; 53384.940000000046
88 ; 5394152.634460704 ; 1.4661168368060344E8 ; 4.6446032917646176E8 ; 1.1279534548845905E10 ; 53998.56000000005
89 ; 5390941.520576141 ; 1.4661168368060344E8 ; 4.6985448181092244E8 ; 1.1426146232526508E10 ; 54612.18000000005
90 ; 5391112.732604019 ; 1.4661168368060344E8 ; 4.7524542333149856E8 ; 1.1572757916207111E10 ; 55225.800000000054
91 ; 5387924.878167983 ; 1.4661168368060344E8 ; 4.806365360641026E8 ; 1.1719369599887714E10 ; 55839.42000000006
92 ; 5385392.013682542 ; 1.4661168368060344E8 ; 4.860244609422706E8 ; 1.1865981283568317E10 ; 56453.04000000006
93 ; 5384163.45363736 ; 1.4661168368060344E8 ; 4.914098529559531E8 ; 1.201259296724892E10 ; 57066.66000000006
94 ; 5380448.469300886 ; 1.4661168368060344E8 ; 4.967940164095905E8 ; 1.2159204650929523E10 ; 57680.280000000064
95 ; 5378907.569903732 ; 1.4661168368060344E8 ; 5.0217446487889135E8 ; 1.2305816334610126E10 ; 58293.90000000007
96 ; 5377676.345502189 ; 1.4661168368060344E8 ; 5.075533724487951E8 ; 1.245242801829073E10 ; 58907.52000000007
97 ; 5375023.158851979 ; 1.4661168368060344E8 ; 5.129310487942973E8 ; 1.2599039701971333E10 ; 59521.14000000007
98 ; 5370638.642612809 ; 1.4661168368060344E8 ; 5.1830607195314926E8 ; 1.2745651385651936E10 ; 60134.760000000075
99 ; 5369029.596198033 ; 1.4661168368060344E8 ; 5.236767105957621E8 ; 1.2892263069332539E10 ; 60748.38000000008
100 ; 5367389.443221752 ; 1.4661168368060344E8 ; 5.290457401919601E8 ; 1.3038874753013142E10 ; 61362.00000000008
101 ; 5363022.745845608 ; 1.4661168368060344E8 ; 5.3441312963518184E8 ; 1.3185486436693745E10 ; 61975.62000000008
102 ; 5362902.41591166 ; 1.4661168368060344E8 ; 5.397761523810275E8 ; 1.3332098120374348E10 ; 62589.240000000085
103 ; 5357628.059134616 ; 1.4661168368060344E8 ; 5.451390547969391E8 ; 1.347870980405495E10 ; 63202.86000000009
104 ; 5356099.389078489 ; 1.4661168368060344E8 ; 5.504966828560737E8 ; 1.3625321487735554E10 ; 63816.48000000009
105 ; 5351780.30080426 ; 1.4661168368060344E8 ; 5.558527822451522E8 ; 1.3771933171416157E10 ; 64430.10000000009
106 ; 5349658.565750573 ; 1.4661168368060344E8 ; 5.612045625459565E8 ; 1.391854485509676E10 ; 65043.720000000096
107 ; 5344054.982230937 ; 1.4661168368060344E8 ; 5.665542211117071E8 ; 1.4065156538777363E10 ; 65657.3400000001
108 ; 5343894.333259234 ; 1.4661168368060344E8 ; 5.71898276093938E8 ; 1.4211768222457966E10 ; 66270.9600000001
109 ; 5340531.793079594 ; 1.4661168368060344E8 ; 5.772421704271972E8 ; 1.4358379906138569E10 ; 66884.58000000009
110 ; 5337452.352073435 ; 1.4661168368060344E8 ; 5.825827022202768E8 ; 1.4504991589819172E10 ; 67498.20000000008
111 ; 5334322.769164153 ; 1.4661168368060344E8 ; 5.879201545723503E8 ; 1.4651603273499775E10 ; 68111.82000000008
112 ; 5330815.097238546 ; 1.4661168368060344E8 ; 5.932544773415145E8 ; 1.4798214957180378E10 ; 68725.44000000008
113 ; 5328254.003306943 ; 1.4661168368060344E8 ; 5.98585292438753E8 ; 1.4944826640860981E10 ; 69339.06000000007
114 ; 5327110.949821811 ; 1.4661168368060344E8 ; 6.0391354644206E8 ; 1.5091438324541584E10 ; 69952.68000000007
115 ; 5321115.9573133625 ; 1.4661168368060344E8 ; 6.092406573918818E8 ; 1.5238050008222187E10 ; 70566.30000000006
116 ; 5319179.689251292 ; 1.4661168368060344E8 ; 6.145617733491952E8 ; 1.538466169190279E10 ; 71179.92000000006
117 ; 5314640.771026127 ; 1.4661168368060344E8 ; 6.198809530384465E8 ; 1.5531273375583393E10 ; 71793.54000000005
118 ; 5311843.811848312 ; 1.4661168368060344E8 ; 6.251955938094727E8 ; 1.5677885059263996E10 ; 72407.16000000005
119 ; 5307192.398011129 ; 1.4661168368060344E8 ; 6.30507437621321E8 ; 1.58244967429446E10 ; 73020.78000000004
120 ; 5306357.301922962 ; 1.4661168368060344E8 ; 6.35814630019332E8 ; 1.5971108426625202E10 ; 73634.40000000004
121 ; 5298971.806598529 ; 1.4661168368060344E8 ; 6.41120987321255E8 ; 1.6117720110305805E10 ; 74248.02000000003
122 ; 5298023.702469865 ; 1.4661168368060344E8 ; 6.464199591278535E8 ; 1.6264331793986408E10 ; 74861.64000000003
123 ; 5290966.395392293 ; 1.4661168368060344E8 ; 6.517179828303233E8 ; 1.6410943477667011E10 ; 75475.26000000002
124 ; 5288223.617977143 ; 1.4661168368060344E8 ; 6.570089492257156E8 ; 1.6557555161347614E10 ; 76088.88000000002
125 ; 5286548.860117883 ; 1.4661168368060344E8 ; 6.622971728436928E8 ; 1.6704166845028217E10 ; 76702.50000000001
126 ; 5282533.504468386 ; 1.4661168368060344E8 ; 6.675837217038107E8 ; 1.685077852870882E10 ; 77316.12000000001
127 ; 5278601.906529024 ; 1.4661168368060344E8 ; 6.728662552082791E8 ; 1.6997390212389423E10 ; 77929.74
128 ; 5274529.990427567 ; 1.4661168368060344E8 ; 6.781448571148082E8 ; 1.7144001896070026E10 ; 78543.36
129 ; 5268820.150063564 ; 1.4661168368060344E8 ; 6.834193871052358E8 ; 1.729061357975063E10 ; 79156.98
130 ; 5265511.756029218 ; 1.4661168368060344E8 ; 6.886882072552993E8 ; 1.7437225263431232E10 ; 79770.59999999999
131 ; 5259650.507683029 ; 1.4661168368060344E8 ; 6.939537190113286E8 ; 1.7583836947111835E10 ; 80384.21999999999
132 ; 5253680.053401161 ; 1.4661168368060344E8 ; 6.992133695190116E8 ; 1.773044863079244E10 ; 80997.83999999998
133 ; 5246253.7562744655 ; 1.4661168368060344E8 ; 7.044670495724127E8 ; 1.787706031447304E10 ; 81611.45999999998
134 ; 5240529.093018334 ; 1.4661168368060344E8 ; 7.097133033286872E8 ; 1.8023671998153645E10 ; 82225.07999999997
135 ; 5235358.040348886 ; 1.4661168368060344E8 ; 7.149538324217055E8 ; 1.8170283681834248E10 ; 82838.69999999997
136 ; 5229144.997801152 ; 1.4661168368060344E8 ; 7.201891904620544E8 ; 1.831689536551485E10 ; 83452.31999999996
137 ; 5222723.5058516385 ; 1.4661168368060344E8 ; 7.254183354598556E8 ; 1.8463507049195454E10 ; 84065.93999999996
138 ; 5218573.058116516 ; 1.4661168368060344E8 ; 7.306410589657072E8 ; 1.8610118732876057E10 ; 84679.55999999995
139 ; 5213149.454418901 ; 1.4661168368060344E8 ; 7.358596320238237E8 ; 1.875673041655666E10 ; 85293.17999999995
140 ; 5206629.013043622 ; 1.4661168368060344E8 ; 7.410727814782426E8 ; 1.8903342100237263E10 ; 85906.79999999994
141 ; 5199403.833918801 ; 1.4661168368060344E8 ; 7.462794104912863E8 ; 1.9049953783917866E10 ; 86520.41999999994
142 ; 5196268.601806385 ; 1.4661168368060344E8 ; 7.514788143252051E8 ; 1.919656546759847E10 ; 87134.03999999994
143 ; 5189403.94937196 ; 1.4661168368060344E8 ; 7.566750829270115E8 ; 1.934317715127907E10 ; 87747.65999999993
144 ; 5179941.114128052 ; 1.4661168368060344E8 ; 7.618644868763834E8 ; 1.9489788834959675E10 ; 88361.27999999993
145 ; 5177507.4657308655 ; 1.4661168368060344E8 ; 7.670444279905114E8 ; 1.9636400518640278E10 ; 88974.89999999992
146 ; 5174399.030061576 ; 1.4661168368060344E8 ; 7.722219354562423E8 ; 1.978301220232088E10 ; 89588.51999999992
147 ; 5170412.568236449 ; 1.4661168368060344E8 ; 7.773963344863039E8 ; 1.9929623886001484E10 ; 90202.13999999991
148 ; 5165415.980428673 ; 1.4661168368060344E8 ; 7.825667470545404E8 ; 2.0076235569682087E10 ; 90815.75999999991
149 ; 5159541.091033074 ; 1.4661168368060344E8 ; 7.877321630349691E8 ; 2.022284725336269E10 ; 91429.3799999999
150 ; 5157250.073259237 ; 1.4661168368060344E8 ; 7.928917041260022E8 ; 2.0369458937043293E10 ; 92042.9999999999
151 ; 5152837.9892989425 ; 1.4661168368060344E8 ; 7.980489541992614E8 ; 2.0516070620723896E10 ; 92656.6199999999
152 ; 5147512.856374897 ; 1.4661168368060344E8 ; 8.032017921885604E8 ; 2.06626823044045E10 ; 93270.23999999989
153 ; 5144608.20812427 ; 1.4661168368060344E8 ; 8.083493050449352E8 ; 2.0809293988085102E10 ; 93883.85999999988
154 ; 5137912.403083801 ; 1.4661168368060344E8 ; 8.134939132530595E8 ; 2.0955905671765705E10 ; 94497.47999999988
155 ; 5131178.409417616 ; 1.4661168368060344E8 ; 8.186318256561433E8 ; 2.110251735544631E10 ; 95111.09999999987
156 ; 5128285.906917911 ; 1.4661168368060344E8 ; 8.237630040655609E8 ; 2.124912903912691E10 ; 95724.71999999987
157 ; 5125672.063086758 ; 1.4661168368060344E8 ; 8.288912899724789E8 ; 2.1395740722807514E10 ; 96338.33999999987
158 ; 5120283.166652784 ; 1.4661168368060344E8 ; 8.340169620355656E8 ; 2.1542352406488117E10 ; 96951.95999999986
159 ; 5114284.654300778 ; 1.4661168368060344E8 ; 8.391372452022184E8 ; 2.168896409016872E10 ; 97565.57999999986
160 ; 5110457.267101516 ; 1.4661168368060344E8 ; 8.442515298565192E8 ; 2.1835575773849323E10 ; 98179.19999999985
161 ; 5105617.220151449 ; 1.4661168368060344E8 ; 8.493619871236207E8 ; 2.1982187457529926E10 ; 98792.81999999985
162 ; 5102161.320315262 ; 1.4661168368060344E8 ; 8.544676043437722E8 ; 2.212879914121053E10 ; 99406.43999999984
163 ; 5096680.715948318 ; 1.4661168368060344E8 ; 8.595697656640874E8 ; 2.2275410824891132E10 ; 100020.05999999984
164 ; 5091764.173698409 ; 1.4661168368060344E8 ; 8.646664463800358E8 ; 2.2422022508571735E10 ; 100633.67999999983
165 ; 5086694.123316477 ; 1.4661168368060344E8 ; 8.697582105537342E8 ; 2.256863419225234E10 ; 101247.29999999983
166 ; 5084797.902313508 ; 1.4661168368060344E8 ; 8.748449046770507E8 ; 2.271524587593294E10 ; 101860.91999999982
167 ; 5077989.617452194 ; 1.4661168368060344E8 ; 8.799297025793642E8 ; 2.2861857559613544E10 ; 102474.53999999982
168 ; 5073589.330403445 ; 1.4661168368060344E8 ; 8.850076921968163E8 ; 2.3008469243294147E10 ; 103088.15999999981
169 ; 5068837.239633857 ; 1.4661168368060344E8 ; 8.900812815272198E8 ; 2.315508092697475E10 ; 103701.77999999981
170 ; 5062003.597129248 ; 1.4661168368060344E8 ; 8.951501187668536E8 ; 2.3301692610655354E10 ; 104315.3999999998
171 ; 5059223.20092455 ; 1.4661168368060344E8 ; 9.002121223639828E8 ; 2.3448304294335957E10 ; 104929.0199999998
172 ; 5052534.531883203 ; 1.4661168368060344E8 ; 9.052713455649073E8 ; 2.359491597801656E10 ; 105542.6399999998
173 ; 5048556.4217414595 ; 1.4661168368060344E8 ; 9.103238800967906E8 ; 2.3741527661697163E10 ; 106156.25999999979
174 ; 5046788.443086288 ; 1.4661168368060344E8 ; 9.15372436518532E8 ; 2.3888139345377766E10 ; 106769.87999999979
175 ; 5043009.45886119 ; 1.4661168368060344E8 ; 9.204192249616183E8 ; 2.403475102905837E10 ; 107383.49999999978
176 ; 5041574.913357584 ; 1.4661168368060344E8 ; 9.254622344204795E8 ; 2.418136271273897E10 ; 107997.11999999978
