CSV File for the City 2 on Day 92
1 - Minute m 
2 - Power Consumed at minute m 
3 - Power Produced at minute m 
4 - Energy Consumed since the beginning of the day 
5 - Energy Produced since the beginning of the day 
6 - Energy Lost since the beginning of the day on lines starting from the city
 
0 ; 1788873.370990865 ; 1.0525513477313712E8 ; 0.0 ; 0.0 ; 0.0
1 ; 1790988.154334611 ; 1.0540911278649259E8 ; 1788873.370990865 ; 1.0525513477313712E8 ; 0.0
2 ; 1792670.4269523756 ; 1.0587176773670152E8 ; 3579861.525325476 ; 2.106642475596297E8 ; 0.0
3 ; 1795609.5905519363 ; 1.0664309999519187E8 ; 5372531.952277852 ; 3.165360152963312E8 ; 0.0
4 ; 1798268.4908533334 ; 1.0772310989484054E8 ; 7168141.542829788 ; 4.231791152915231E8 ; 0.0
5 ; 1802194.8455926748 ; 1.091117977281251E8 ; 8966410.033683121 ; 5.3090222518636364E8 ; 0.0
6 ; 1806133.8629766544 ; 1.1080916374546906E8 ; 1.0768604879275795E7 ; 6.400140229144888E8 ; 0.0
7 ; 1811601.077063063 ; 1.1281520815380168E8 ; 1.257473874225245E7 ; 7.508231866599579E8 ; 0.0
8 ; 1822975.3422107704 ; 1.151299311153518E8 ; 1.4386339819315514E7 ; 8.636383948137596E8 ; 0.0
9 ; 1835427.399097257 ; 1.1775333274669164E8 ; 1.6209315161526283E7 ; 9.787683259291114E8 ; 0.0
10 ; 1858229.3191243096 ; 1.2068541311804438E8 ; 1.804474256062354E7 ; 1.096521658675803E9 ; 0.0
11 ; 1890612.7601460635 ; 1.2392617225286451E8 ; 1.9902971879747853E7 ; 1.2172070717938473E9 ; 0.0
12 ; 1945908.1686687907 ; 1.274756101276975E8 ; 2.1793584639893916E7 ; 1.341133244046712E9 ; 0.0
13 ; 1997879.4974353937 ; 1.3133372667232019E8 ; 2.3739492808562707E7 ; 1.4686088541744094E9 ; 0.0
14 ; 2003551.509854241 ; 1.3550052177016044E8 ; 2.57373723059981E7 ; 1.5999425808467295E9 ; 0.0
15 ; 2006287.878650286 ; 1.3997599525898927E8 ; 2.7740923815852344E7 ; 1.73544310261689E9 ; 0.0
16 ; 2008691.2281725332 ; 1.4476014693187758E8 ; 2.974721169450263E7 ; 1.8754190978758793E9 ; 0.0
17 ; 2011051.425969215 ; 1.4985297653840175E8 ; 3.1755902922675163E7 ; 2.020179244807757E9 ; 0.0
18 ; 2013136.0587261876 ; 1.5525448378608423E8 ; 3.3766954348644376E7 ; 2.1700322213461585E9 ; 0.0
19 ; 2016306.8990871422 ; 1.6096466834204814E8 ; 3.578009040737056E7 ; 2.3252867051322427E9 ; 0.0
20 ; 2018590.329954515 ; 1.6698352983486548E8 ; 3.77963973064577E7 ; 2.486251373474291E9 ; 0.0
21 ; 2022205.1758956304 ; 1.7331106785657474E8 ; 3.981498763641221E7 ; 2.6532349033091564E9 ; 0.0
22 ; 2024928.3499715005 ; 1.799472819648437E8 ; 4.183719281230784E7 ; 2.826545971165731E9 ; 0.0
23 ; 2026372.161134579 ; 1.8689217168525165E8 ; 4.3862121162279345E7 ; 3.0064932531305747E9 ; 0.0
24 ; 2028405.204590931 ; 1.9414573651366514E8 ; 4.588849332341392E7 ; 3.1933854248158264E9 ; 0.0
25 ; 2030776.1908018794 ; 2.0039601681686512E8 ; 4.7916898528004855E7 ; 3.3875311613294916E9 ; 0.0
26 ; 2034770.5173910512 ; 2.0039655987192884E8 ; 4.9947674718806736E7 ; 3.5879271781463566E9 ; 0.0
27 ; 2035296.999007467 ; 2.0039713439363816E8 ; 5.1982445236197785E7 ; 3.7883237380182853E9 ; 0.0
28 ; 2038343.1044052464 ; 2.003977397837526E8 ; 5.401774223520525E7 ; 3.9887208724119234E9 ; 0.0
29 ; 2041138.475676752 ; 2.003983754267301E8 ; 5.6056085339610495E7 ; 4.189118612195676E9 ; 0.0
30 ; 2043933.0126041218 ; 2.00399040692158E8 ; 5.809722381528725E7 ; 4.389516987622406E9 ; 0.0
31 ; 2045448.620023775 ; 2.003997349371225E8 ; 6.014115682789137E7 ; 4.589916028314564E9 ; 0.0
32 ; 2047809.7224991815 ; 2.0040045750850108E8 ; 6.2186605447915144E7 ; 4.790315763251686E9 ; 0.0
33 ; 2048537.5960502364 ; 2.0040120774516547E8 ; 6.423441517041433E7 ; 4.990716220760187E9 ; 0.0
34 ; 2052098.443258724 ; 2.0040198498008385E8 ; 6.628295276646456E7 ; 5.191117428505353E9 ; 0.0
35 ; 2053133.1127141863 ; 2.0040278854231405E8 ; 6.833505120972328E7 ; 5.391519413485436E9 ; 0.0
36 ; 2055681.28113227 ; 2.0040361775888103E8 ; 7.038818432243747E7 ; 5.59192220202775E9 ; 0.0
37 ; 2058270.7107524276 ; 2.0040447195653376E8 ; 7.244386560356973E7 ; 5.792325819786631E9 ; 0.0
38 ; 2060499.2385014065 ; 2.0040535046337867E8 ; 7.450213631432216E7 ; 5.992730291743164E9 ; 0.0
39 ; 2061228.9291074914 ; 2.0040625261038855E8 ; 7.656263555282356E7 ; 6.193135642206543E9 ; 0.0
40 ; 2063466.8535649069 ; 2.0040717773278663E8 ; 7.862386448193105E7 ; 6.393541894816932E9 ; 0.0
41 ; 2064854.481338426 ; 2.004081251713075E8 ; 8.068733133549595E7 ; 6.593949072549718E9 ; 0.0
42 ; 2066641.9325605496 ; 2.004090942733375E8 ; 8.275218581683438E7 ; 6.794357197721025E9 ; 0.0
43 ; 2067782.9743682088 ; 2.004100843939374E8 ; 8.481882774939492E7 ; 6.994766291994363E9 ; 0.0
44 ; 2070775.1155157764 ; 2.0041109489675257E8 ; 8.688661072376314E7 ; 7.1951763763883E9 ; 0.0
45 ; 2070697.593833991 ; 2.0041212515481445E8 ; 8.895738583927892E7 ; 7.395587471285052E9 ; 0.0
46 ; 2070261.563258466 ; 2.0041317455123937E8 ; 9.102808343311292E7 ; 7.595999596439867E9 ; 0.0
47 ; 2072106.5339991052 ; 2.0041424247983006E8 ; 9.309834499637139E7 ; 7.796412770991106E9 ; 0.0
48 ; 2074920.2153694301 ; 2.0041532834558553E8 ; 9.517045153037049E7 ; 7.996827013470936E9 ; 0.0
49 ; 2074571.5106138221 ; 2.0041643156512597E8 ; 9.724537174573992E7 ; 8.197242341816522E9 ; 0.0
50 ; 2074996.9577049024 ; 2.004175515670381E8 ; 9.931994325635375E7 ; 8.397658773381648E9 ; 0.0
51 ; 2075941.5024611303 ; 2.004186877921472E8 ; 1.0139494021405865E8 ; 8.598076324948687E9 ; 0.0
52 ; 2076500.61081742 ; 2.0041983969372192E8 ; 1.0347088171651979E8 ; 8.798495012740833E9 ; 0.0
53 ; 2077944.6637563615 ; 2.0042100673761752E8 ; 1.055473823273372E8 ; 8.998914852434555E9 ; 0.0
54 ; 2078964.424467324 ; 2.0042218840236285E8 ; 1.0762532699109356E8 ; 9.199335859172173E9 ; 0.0
55 ; 2079868.4054422176 ; 2.0042338417919683E8 ; 1.0970429141556089E8 ; 9.399758047574535E9 ; 0.0
56 ; 2080025.5120104547 ; 2.0042459357205942E8 ; 1.1178415982100311E8 ; 9.600181431753733E9 ; 0.0
57 ; 2080363.3868502555 ; 2.004258160975416E8 ; 1.1386418533301356E8 ; 9.800606025325792E9 ; 0.0
58 ; 2080082.5422797983 ; 2.0042705128479925E8 ; 1.1594454871986382E8 ; 1.0001031841423334E10 ; 0.0
59 ; 2082971.9611363665 ; 2.0042829867543495E8 ; 1.1802463126214361E8 ; 1.0201458892708134E10 ; 0.0
60 ; 2081874.8842388138 ; 2.0042955782335174E8 ; 1.2010760322327998E8 ; 1.0401887191383568E10 ; 0.0
61 ; 2082080.824720304 ; 2.0043082829458258E8 ; 1.2218947810751879E8 ; 1.0602316749206919E10 ; 0.0
62 ; 2082779.8336998112 ; 2.0043210966709855E8 ; 1.242715589322391E8 ; 1.0802747577501501E10 ; 0.0
63 ; 2083725.5277545638 ; 2.0043340153059947E8 ; 1.2635433876593891E8 ; 1.10031796871686E10 ; 0.0
64 ; 2083828.476581232 ; 2.0043470348628923E8 ; 1.2843806429369347E8 ; 1.12036130886992E10 ; 0.0
65 ; 2083482.5503781391 ; 2.0043601514663857E8 ; 1.305218927702747E8 ; 1.140404779218549E10 ; 0.0
66 ; 2085171.3762659854 ; 2.0043733613513806E8 ; 1.3260537532065284E8 ; 1.1604483807332129E10 ; 0.0
67 ; 2085512.8237094206 ; 2.0043866608604276E8 ; 1.3469054669691882E8 ; 1.1804921143467266E10 ; 0.0
68 ; 2085461.3586366253 ; 2.0044000464411092E8 ; 1.3677605952062824E8 ; 1.2005359809553308E10 ; 0.0
69 ; 2086242.5446375026 ; 2.0044135146433836E8 ; 1.3886152087926486E8 ; 1.220579981419742E10 ; 0.0
70 ; 2086788.829245405 ; 2.0044270621168995E8 ; 1.4094776342390236E8 ; 1.2406241165661758E10 ; 0.0
71 ; 2087025.8821578017 ; 2.0044406856082952E8 ; 1.4303455225314778E8 ; 1.2606683871873447E10 ; 0.0
72 ; 2088381.64333138 ; 2.0044543819584975E8 ; 1.4512157813530558E8 ; 1.2807127940434277E10 ; 0.0
73 ; 2086502.4392916735 ; 2.0044681481000254E8 ; 1.4720995977863696E8 ; 1.3007573378630127E10 ; 0.0
74 ; 2087179.6746055435 ; 2.0044819810543138E8 ; 1.4929646221792865E8 ; 1.320802019344013E10 ; 0.0
75 ; 2088731.5961389947 ; 2.0044958779290605E8 ; 1.513836418925342E8 ; 1.340846839154556E10 ; 0.0
76 ; 2087815.753303438 ; 2.004509835915606E8 ; 1.5347237348867318E8 ; 1.3608917979338467E10 ; 0.0
77 ; 2087538.3587953316 ; 2.004523852286351E8 ; 1.5556018924197662E8 ; 1.3809368962930027E10 ; 0.0
78 ; 2087184.1707738992 ; 2.0045379243922183E8 ; 1.5764772760077196E8 ; 1.4009821348158663E10 ; 0.0
79 ; 2086565.0522106932 ; 2.0045520496601596E8 ; 1.5973491177154586E8 ; 1.4210275140597885E10 ; 0.0
80 ; 2087610.8474814931 ; 2.0045662255907175E8 ; 1.6182147682375655E8 ; 1.4410730345563902E10 ; 0.0
81 ; 2086299.86219676 ; 2.0045804497556353E8 ; 1.6390908767123803E8 ; 1.4611186968122974E10 ; 0.0
82 ; 2085721.6289301566 ; 2.0045947197955292E8 ; 1.659953875334348E8 ; 1.4811645013098537E10 ; 0.0
83 ; 2085508.3361397467 ; 2.0046090334176135E8 ; 1.6808110916236496E8 ; 1.501210448507809E10 ; 0.0
84 ; 2083750.884151411 ; 2.004623388393487E8 ; 1.701666174985047E8 ; 1.5212565388419851E10 ; 0.0
85 ; 2083290.7246145166 ; 2.004637782556979E8 ; 1.722503683826561E8 ; 1.54130277272592E10 ; 0.0
86 ; 2083396.229332356 ; 2.0046522138020566E8 ; 1.7433365910727063E8 ; 1.5613491505514896E10 ; 0.0
87 ; 2082713.4780078586 ; 2.0046666800807893E8 ; 1.76417055336603E8 ; 1.5813956726895102E10 ; 0.0
88 ; 2082430.1555530531 ; 2.00468117940138E8 ; 1.7849976881461084E8 ; 1.6014423394903181E10 ; 0.0
89 ; 2081731.0291740564 ; 2.0046957098262507E8 ; 1.8058219897016388E8 ; 1.6214891512843319E10 ; 0.0
90 ; 2082118.705972404 ; 2.00471026947019E8 ; 1.8266392999933794E8 ; 1.6415361083825945E10 ; 0.0
91 ; 2080865.6883321996 ; 2.0047248564985612E8 ; 1.8474604870531034E8 ; 1.6615832110772964E10 ; 0.0
92 ; 2080085.9892124813 ; 2.0047394691255662E8 ; 1.8682691439364254E8 ; 1.6816304596422821E10 ; 0.0
93 ; 2079814.2769023925 ; 2.0047541056125677E8 ; 1.8890700038285503E8 ; 1.7016778543335377E10 ; 0.0
94 ; 2079854.835973773 ; 2.004768764266468E8 ; 1.9098681465975744E8 ; 1.7217253953896633E10 ; 0.0
95 ; 2077880.0220020895 ; 2.004783443438141E8 ; 1.930666694957312E8 ; 1.741773083032328E10 ; 0.0
96 ; 2076810.6703654553 ; 2.0047981415209204E8 ; 1.951445495177333E8 ; 1.7618209174667095E10 ; 0.0
97 ; 2077136.9550256291 ; 2.0048128569491377E8 ; 1.9722136018809876E8 ; 1.7818688988819187E10 ; 0.0
98 ; 2075153.7807545797 ; 2.0048275881967142E8 ; 1.992984971431244E8 ; 1.80191702745141E10 ; 0.0
99 ; 2074324.090044154 ; 2.0048423337757996E8 ; 2.0137365092387897E8 ; 1.821965303333377E10 ; 0.0
100 ; 2074835.4981953125 ; 2.0048570922354603E8 ; 2.034479750139231E8 ; 1.842013726671135E10 ; 0.0
101 ; 2072421.2387108922 ; 2.0048718621604168E8 ; 2.0552281051211843E8 ; 1.8620622975934895E10 ; 0.0
102 ; 2072474.9340489192 ; 2.0048866421698222E8 ; 2.075952317508293E8 ; 1.8821110162150936E10 ; 0.0
103 ; 2071015.4244903743 ; 2.0049014309160885E8 ; 2.0966770668487823E8 ; 1.902159882636792E10 ; 0.0
104 ; 2069315.2499258954 ; 2.0049162270837542E8 ; 2.117387221093686E8 ; 1.922208896945953E10 ; 0.0
105 ; 2070183.2368515476 ; 2.0049310293883932E8 ; 2.1380803735929447E8 ; 1.9422580592167904E10 ; 0.0
106 ; 2069024.0425150627 ; 2.0049458365755635E8 ; 2.1587822059614602E8 ; 1.9623073695106743E10 ; 0.0
107 ; 2066610.5856883817 ; 2.004960647419796E8 ; 2.179472446386611E8 ; 1.9823568278764297E10 ; 0.0
108 ; 2067510.18418397 ; 2.004975460723618E8 ; 2.2001385522434947E8 ; 2.002406434350628E10 ; 0.0
109 ; 2065681.4247888373 ; 2.0049902753166154E8 ; 2.2208136540853345E8 ; 2.022456188957864E10 ; 0.0
110 ; 2063996.972922997 ; 2.0050050900545284E8 ; 2.241470468333223E8 ; 2.0425060917110302E10 ; 0.0
111 ; 2064761.0859555856 ; 2.0050199038183805E8 ; 2.262110438062453E8 ; 2.0625561426115753E10 ; 0.0
112 ; 2062274.0761700547 ; 2.0050347155136403E8 ; 2.282758048922009E8 ; 2.0826063416497593E10 ; 0.0
113 ; 2059977.643126882 ; 2.0050495240694144E8 ; 2.3033807896837094E8 ; 2.1026566888048958E10 ; 0.0
114 ; 2060564.6102216225 ; 2.0050643284376705E8 ; 2.3239805661149782E8 ; 2.12270718404559E10 ; 0.0
115 ; 2058752.6869815274 ; 2.0050791275924885E8 ; 2.3445862122171944E8 ; 2.1427578273299664E10 ; 0.0
116 ; 2057748.6346572877 ; 2.0050939205293417E8 ; 2.3651737390870097E8 ; 2.1628086186058914E10 ; 0.0
117 ; 2056086.275501172 ; 2.0051087062644014E8 ; 2.3857512254335827E8 ; 2.1828595578111847E10 ; 0.0
118 ; 2056529.9798222978 ; 2.0051234838338703E8 ; 2.4063120881885943E8 ; 2.202910644873829E10 ; 0.0
119 ; 2054659.6145805828 ; 2.005138252293339E8 ; 2.4268773879868174E8 ; 2.2229618797121677E10 ; 0.0
120 ; 2053015.012368037 ; 2.0051530107171685E8 ; 2.447423984132623E8 ; 2.2430132622351013E10 ; 0.0
121 ; 2050615.9515546062 ; 2.0051677581978914E8 ; 2.4679541342563033E8 ; 2.263064792342273E10 ; 0.0
122 ; 2051476.7959321532 ; 2.005182493845641E8 ; 2.4884602937718493E8 ; 2.283116469924252E10 ; 0.0
123 ; 2048176.716476067 ; 2.005197216787597E8 ; 2.5089750617311707E8 ; 2.3031682948627083E10 ; 0.0
124 ; 2049102.979001399 ; 2.0052119261674532E8 ; 2.5294568288959312E8 ; 2.3232202670305843E10 ; 0.0
125 ; 2046064.3582409467 ; 2.0052266211449063E8 ; 2.5499478586859453E8 ; 2.343272386292259E10 ; 0.0
126 ; 2044822.248889309 ; 2.0052413008951607E8 ; 2.5704085022683546E8 ; 2.363324652503708E10 ; 0.0
127 ; 2042843.5754277315 ; 2.0052559646084547E8 ; 2.5908567247572476E8 ; 2.3833770655126595E10 ; 0.0
128 ; 2042470.6858044397 ; 2.0052706114896014E8 ; 2.611285160511525E8 ; 2.403429625158744E10 ; 0.0
129 ; 2039541.473570444 ; 2.0052852407575482E8 ; 2.6317098673695692E8 ; 2.42348233127364E10 ; 0.0
130 ; 2038689.6669602103 ; 2.0052998516449508E8 ; 2.6521052821052736E8 ; 2.4435351836812157E10 ; 0.0
131 ; 2036504.2150781443 ; 2.005314443397766E8 ; 2.6724921787748757E8 ; 2.463588182197665E10 ; 0.0
132 ; 2034524.3824115763 ; 2.0053290152748552E8 ; 2.692857220925657E8 ; 2.4836413266316425E10 ; 0.0
133 ; 2033002.7744801587 ; 2.0053435665476042E8 ; 2.713202464749773E8 ; 2.503694616784391E10 ; 0.0
134 ; 2031245.011341914 ; 2.0053580964995593E8 ; 2.733532492494575E8 ; 2.5237480524498672E10 ; 0.0
135 ; 2027551.7367100148 ; 2.005372604426071E8 ; 2.753844942607994E8 ; 2.543801633414863E10 ; 0.0
136 ; 2026410.5191752913 ; 2.0053870896339566E8 ; 2.774120459975094E8 ; 2.5638553594591236E10 ; 0.0
137 ; 2023277.4172445796 ; 2.0054015514411694E8 ; 2.794384565166847E8 ; 2.583909230355463E10 ; 0.0
138 ; 2021011.9882030312 ; 2.0054159891764858E8 ; 2.8146173393392926E8 ; 2.6039632458698746E10 ; 0.0
139 ; 2019034.4219409379 ; 2.0054304021791977E8 ; 2.834827459221323E8 ; 2.6240174057616394E10 ; 0.0
140 ; 2017609.2423558107 ; 2.0054447897988188E8 ; 2.8550178034407324E8 ; 2.6440717097834312E10 ; 0.0
141 ; 2013325.3378049969 ; 2.0054591513948032E8 ; 2.8751938958642906E8 ; 2.6641261576814194E10 ; 0.0
142 ; 2013162.8835571357 ; 2.0054734863362697E8 ; 2.8953271492423403E8 ; 2.6841807491953674E10 ; 0.0
143 ; 2010162.5359685312 ; 2.0054877940017393E8 ; 2.915458778077912E8 ; 2.7042354840587303E10 ; 0.0
144 ; 2008299.363035285 ; 2.0055020737788805E8 ; 2.935560403437597E8 ; 2.7242903619987476E10 ; 0.0
145 ; 2007457.1657133487 ; 2.005516325064264E8 ; 2.95564339706795E8 ; 2.7443453827365364E10 ; 0.0
146 ; 2005738.9289429674 ; 2.0055305472631264E8 ; 2.9757179687250835E8 ; 2.764400545987179E10 ; 0.0
147 ; 2002979.4036539528 ; 2.0055447397891408E8 ; 2.995775358014513E8 ; 2.7844558514598106E10 ; 0.0
148 ; 2002386.738786417 ; 2.005558902064197E8 ; 3.015805152051053E8 ; 2.804511298857702E10 ; 0.0
149 ; 2000077.129730915 ; 2.0055730335181892E8 ; 3.035829019438917E8 ; 2.824566887878344E10 ; 0.0
150 ; 1999107.5368880883 ; 2.005587133588809E8 ; 3.0558297907362264E8 ; 2.8446226182135258E10 ; 0.0
151 ; 1996874.93324097 ; 2.00560120172135E8 ; 3.075820866105107E8 ; 2.8646784895494137E10 ; 0.0
152 ; 1996580.4998425005 ; 2.005615237368513E8 ; 3.0957896154375166E8 ; 2.884734501566627E10 ; 0.0
153 ; 1993050.2516233725 ; 2.0056292399902245E8 ; 3.115755420435942E8 ; 2.9047906539403122E10 ; 0.0
154 ; 1993135.0283072367 ; 2.0056432090534556E8 ; 3.135685922952176E8 ; 2.9248469463402145E10 ; 0.0
155 ; 1992141.7418488788 ; 2.0056571440320513E8 ; 3.1556172732352483E8 ; 2.944903378430749E10 ; 0.0
156 ; 1989739.766854562 ; 2.0056710444065645E8 ; 3.175538690653737E8 ; 2.9649599498710697E10 ; 0.0
157 ; 1988790.2865314577 ; 2.0056849096640933E8 ; 3.195436088322283E8 ; 2.9850166603151352E10 ; 0.0
158 ; 1986234.9702012523 ; 2.0056987392981276E8 ; 3.2153239911875975E8 ; 3.005073509411776E10 ; 0.0
159 ; 1985132.2633478662 ; 2.0057125328083983E8 ; 3.23518634088961E8 ; 3.0251304968047573E10 ; 0.0
160 ; 1983267.5669592354 ; 2.0057262897007325E8 ; 3.2550376635230887E8 ; 3.045187622132841E10 ; 0.0
161 ; 1982674.6474230876 ; 2.0057400094869134E8 ; 3.2748703391926813E8 ; 3.0652448850298485E10 ; 0.0
162 ; 1980784.3523751853 ; 2.0057536916845453E8 ; 3.294697085666912E8 ; 3.0853022851247177E10 ; 0.0
163 ; 1979045.2678365447 ; 2.005767335816922E8 ; 3.314504929190664E8 ; 3.105359822041563E10 ; 0.0
164 ; 1976884.5365586171 ; 2.005780941412901E8 ; 3.33429538186903E8 ; 3.1254174953997322E10 ; 0.0
165 ; 1975809.3373683398 ; 2.005794508006782E8 ; 3.354064227234616E8 ; 3.145475304813861E10 ; 0.0
166 ; 1972966.9841186237 ; 2.0058080351381865E8 ; 3.3738223206083E8 ; 3.165533249893929E10 ; 0.0
167 ; 1971054.202670557 ; 2.005821522351946E8 ; 3.3935519904494864E8 ; 3.1855913302453106E10 ; 0.0
168 ; 1969980.2733857029 ; 2.00583496919799E8 ; 3.413262532476192E8 ; 3.20564954546883E10 ; 0.0
169 ; 1967778.85467223 ; 2.0058483752312395E8 ; 3.432962335210049E8 ; 3.22570789516081E10 ; 0.0
170 ; 1967253.280512018 ; 2.0058617400115046E8 ; 3.4526401237567717E8 ; 3.2457663789131226E10 ; 0.0
171 ; 1963823.5808471215 ; 2.005875063103383E8 ; 3.472312656561892E8 ; 3.2658249963132378E10 ; 0.0
172 ; 1962484.2208740958 ; 2.0058883440761638E8 ; 3.4919508923703635E8 ; 3.2858837469442715E10 ; 0.0
173 ; 1960946.2798827225 ; 2.0059015825037354E8 ; 3.511575734579104E8 ; 3.305942630385033E10 ; 0.0
174 ; 1960101.0193158954 ; 2.0059147779644927E8 ; 3.5311851973779315E8 ; 3.3260016462100704E10 ; 0.0
175 ; 1960336.95864944 ; 2.0059279300412515E8 ; 3.5507862075710905E8 ; 3.3460607939897152E10 ; 0.0
176 ; 1959900.9254042653 ; 2.0059410383211622E8 ; 3.570389577157585E8 ; 3.3661200732901276E10 ; 0.0
177 ; 1957760.072899826 ; 2.0059541023956293E8 ; 3.5899885864116275E8 ; 3.386179483673339E10 ; 0.0
178 ; 1956689.3258077498 ; 2.0059671218602312E8 ; 3.609566187140626E8 ; 3.4062390246972954E10 ; 0.0
179 ; 1954992.7402716544 ; 2.005980096314643E8 ; 3.629133080398703E8 ; 3.4262986959158978E10 ; 0.0
180 ; 1953571.8878529188 ; 2.005993025362563E8 ; 3.6486830078014195E8 ; 3.446358496879044E10 ; 0.0
181 ; 1952797.6359060935 ; 2.006005908611641E8 ; 3.6682187266799486E8 ; 3.46641842713267E10 ; 0.0
182 ; 1952157.671574714 ; 2.006018745673406E8 ; 3.6877467030390096E8 ; 3.486478486218787E10 ; 0.0
183 ; 1951815.5858980177 ; 2.0060315361632034E8 ; 3.7072682797547567E8 ; 3.50653867367552E10 ; 0.0
184 ; 1950797.7846408833 ; 2.006044279700125E8 ; 3.726786435613737E8 ; 3.526598989037152E10 ; 0.0
185 ; 1948797.678467317 ; 2.006056975906948E8 ; 3.746294413460146E8 ; 3.546659431834153E10 ; 0.0
186 ; 1948170.702413938 ; 2.0060696244100738E8 ; 3.7657823902448195E8 ; 3.566720001593223E10 ; 0.0
187 ; 1947690.5989156493 ; 2.006082224839468E8 ; 3.7852640972689587E8 ; 3.586780697837324E10 ; 0.0
188 ; 1946218.926501768 ; 2.006094776828603E8 ; 3.804741003258115E8 ; 3.6068415200857185E10 ; 0.0
189 ; 1944343.5237418294 ; 2.0061072800144035E8 ; 3.8242031925231326E8 ; 3.626902467854005E10 ; 0.0
190 ; 1944105.130058605 ; 2.0061197340371898E8 ; 3.843646627760551E8 ; 3.646963540654149E10 ; 0.0
191 ; 1943287.880247117 ; 2.0061321385406283E8 ; 3.863087679061137E8 ; 3.6670247379945206E10 ; 0.0
192 ; 1942213.9058656634 ; 2.0061444931716797E8 ; 3.882520557863608E8 ; 3.687086059379927E10 ; 0.0
193 ; 1940399.3309746326 ; 2.00615679758055E8 ; 3.9019426969222647E8 ; 3.707147504311644E10 ; 0.0
194 ; 1938439.7979778002 ; 2.006169051420643E8 ; 3.921346690232011E8 ; 3.72720907228745E10 ; 0.0
195 ; 1938858.9505299088 ; 2.006181254348514E8 ; 3.940731088211789E8 ; 3.747270762801656E10 ; 0.0
196 ; 1937587.325905417 ; 2.0061934060238257E8 ; 3.9601196777170885E8 ; 3.7673325753451416E10 ; 0.0
197 ; 1937664.9707292153 ; 2.0062055061093044E8 ; 3.979495550976143E8 ; 3.7873945094053795E10 ; 0.0
198 ; 1935163.8060369352 ; 2.0062175542706984E8 ; 3.998872200683435E8 ; 3.807456564466473E10 ; 0.0
199 ; 1936470.658094398 ; 2.0062295501767373E8 ; 4.0182238387438047E8 ; 3.82751874000918E10 ; 0.0
