CSV File for the City 1 on Day 1
1 - Minute m 
2 - Power Consumed at minute m 
3 - Power Produced at minute m 
4 - Energy Consumed since the beginning of the day 
5 - Energy Produced since the beginning of the day 
6 - Energy Lost since the beginning of the day on lines starting from the city
 
0 ; 1.186529728771365E7 ; 1.4005786477929452E7 ; 0.0 ; 0.0 ; 0.0
1 ; 1.1877673054044817E7 ; 1.4005786477929452E7 ; 1.186529728771365E7 ; 1.4005786477929452E7 ; 0.0
2 ; 1.1886823882759696E7 ; 1.4005786477929452E7 ; 2.3742970341758467E7 ; 2.8011572955858905E7 ; 0.0
3 ; 1.1906243930091314E7 ; 1.4005786477929452E7 ; 3.5629794224518165E7 ; 4.201735943378836E7 ; 0.0
4 ; 1.1920304514210803E7 ; 1.4005786477929452E7 ; 4.753603815460948E7 ; 5.602314591171781E7 ; 0.0
5 ; 1.194409203555276E7 ; 1.4005786477929452E7 ; 5.9456342668820284E7 ; 7.002893238964726E7 ; 0.0
6 ; 1.1969824737636898E7 ; 1.4005786477929452E7 ; 7.140043470437305E7 ; 8.403471886757672E7 ; 0.0
7 ; 1.2010831896501098E7 ; 1.4005786477929452E7 ; 8.337025944200994E7 ; 9.804050534550618E7 ; 0.0
8 ; 1.2068999399191303E7 ; 1.4005786477929452E7 ; 9.538109133851103E7 ; 1.1204629182343563E8 ; 0.0
9 ; 1.2157313486096032E7 ; 1.4005786477929452E7 ; 1.0745009073770234E8 ; 1.2605207830136509E8 ; 0.0
10 ; 1.2294327752881825E7 ; 1.4005786477929452E7 ; 1.1960740422379836E8 ; 1.4005786477929455E8 ; 0.0
11 ; 1.2505085947746098E7 ; 1.4005786477929452E7 ; 1.3190173197668019E8 ; 1.54063651257224E8 ; 0.0
12 ; 1.2851700848977245E7 ; 1.4005786477929452E7 ; 1.444068179244263E8 ; 1.6806943773515344E8 ; 0.0
13 ; 1.3185350454819728E7 ; 1.4005786477929452E7 ; 1.5725851877340353E8 ; 1.8207522421308288E8 ; 0.0
14 ; 1.322536271616849E7 ; 1.4005786477929452E7 ; 1.7044386922822326E8 ; 1.9608101069101232E8 ; 0.0
15 ; 1.3240584005705297E7 ; 1.4005786477929452E7 ; 1.8366923194439176E8 ; 2.1008679716894177E8 ; 0.0
16 ; 1.3253611655223927E7 ; 1.4005786477929452E7 ; 1.9690981595009705E8 ; 2.240925836468712E8 ; 0.0
17 ; 1.3270683969747344E7 ; 1.4005786477929452E7 ; 2.10163427605321E8 ; 2.3809837012480065E8 ; 0.0
18 ; 1.3287755692905113E7 ; 1.4005786477929452E7 ; 2.2343411157506832E8 ; 2.521041566027301E8 ; 0.0
19 ; 1.3300966067364875E7 ; 1.4005786477929452E7 ; 2.3672186726797342E8 ; 2.6610994308065954E8 ; 0.0
20 ; 1.3317331484616647E7 ; 1.4005786477929452E7 ; 2.500228333353383E8 ; 2.80115729558589E8 ; 0.0
21 ; 1.3334766892415648E7 ; 1.4005786477929452E7 ; 2.6334016481995493E8 ; 2.9412151603651845E8 ; 0.0
22 ; 1.3348996995178362E7 ; 1.4005786477929452E7 ; 2.766749317123706E8 ; 3.081273025144479E8 ; 0.0
23 ; 1.336262402770015E7 ; 1.4005786477929452E7 ; 2.900239287075489E8 ; 3.221330889923774E8 ; 0.0
24 ; 1.338241624463677E7 ; 1.4005786477929452E7 ; 3.0338655273524904E8 ; 3.361388754703069E8 ; 0.0
25 ; 1.3395544626527978E7 ; 1.4005786477929452E7 ; 3.167689689798858E8 ; 3.5014466194823635E8 ; 0.0
26 ; 1.3412027928936558E7 ; 1.4005786477929452E7 ; 3.301645136064138E8 ; 3.641504484261658E8 ; 0.0
27 ; 1.342657190088868E7 ; 1.4005786477929452E7 ; 3.435765415353503E8 ; 3.781562349040953E8 ; 0.0
28 ; 1.3441663482470555E7 ; 1.4005786477929452E7 ; 3.57003113436239E8 ; 3.9216202138202477E8 ; 0.0
29 ; 1.345561176381846E7 ; 1.4005786477929452E7 ; 3.704447769187096E8 ; 4.0616780785995424E8 ; 0.0
30 ; 1.347049077465845E7 ; 1.4005786477929452E7 ; 3.83900388682528E8 ; 4.201735943378837E8 ; 0.0
31 ; 1.3483496575836403E7 ; 1.4005786477929452E7 ; 3.9737087945718646E8 ; 4.341793808158132E8 ; 0.0
32 ; 1.3498878732515762E7 ; 1.4005786477929452E7 ; 4.108543760330229E8 ; 4.4818516729374266E8 ; 0.0
33 ; 1.3511188504874546E7 ; 1.4005786477929452E7 ; 4.2435325476553863E8 ; 4.621909537716721E8 ; 0.0
34 ; 1.3526146602635967E7 ; 1.4005786477929452E7 ; 4.3786444327041316E8 ; 4.761967402496016E8 ; 0.0
35 ; 1.3539149982728535E7 ; 1.4005786477929452E7 ; 4.5139058987304914E8 ; 4.902025267275311E8 ; 0.0
36 ; 1.3553058710003478E7 ; 1.4005786477929452E7 ; 4.649297398557777E8 ; 5.0420831320546055E8 ; 0.0
37 ; 1.3558435728214053E7 ; 1.4005786477929452E7 ; 4.784827985657812E8 ; 5.1821409968339E8 ; 0.0
38 ; 1.357533581840895E7 ; 1.4005786477929452E7 ; 4.920412342939952E8 ; 5.322198861613195E8 ; 0.0
39 ; 1.3585872965911958E7 ; 1.4005786477929452E7 ; 5.0561657011240417E8 ; 5.46225672639249E8 ; 0.0
40 ; 1.3593024292549007E7 ; 1.4005786477929452E7 ; 5.1920244307831615E8 ; 5.602314591171784E8 ; 0.0
41 ; 1.3605047575687276E7 ; 1.4005786477929452E7 ; 5.3279546737086517E8 ; 5.742372455951079E8 ; 0.0
42 ; 1.3618190239827866E7 ; 1.4005786477929452E7 ; 5.464005149465524E8 ; 5.882430320730374E8 ; 0.0
43 ; 1.3625595707590707E7 ; 1.4005786477929452E7 ; 5.600187051863803E8 ; 6.022488185509669E8 ; 0.0
44 ; 1.363539928660098E7 ; 1.4005786477929452E7 ; 5.73644300893971E8 ; 6.162546050288963E8 ; 0.0
45 ; 1.3639885532400565E7 ; 1.4005786477929452E7 ; 5.872797001805719E8 ; 6.302603915068258E8 ; 0.0
46 ; 1.3645775971208831E7 ; 1.4005786477929452E7 ; 6.009195857129725E8 ; 6.442661779847553E8 ; 0.0
47 ; 1.365258022210369E7 ; 1.4005786477929452E7 ; 6.145653616841813E8 ; 6.582719644626848E8 ; 0.0
48 ; 1.3655516617179481E7 ; 1.4005786477929452E7 ; 6.28217941906285E8 ; 6.722777509406142E8 ; 0.0
49 ; 1.3666183467100922E7 ; 1.4005786477929452E7 ; 6.418734585234646E8 ; 6.862835374185437E8 ; 0.0
50 ; 1.3669032157907467E7 ; 1.4005786477929452E7 ; 6.555396419905655E8 ; 7.002893238964732E8 ; 0.0
51 ; 1.3672629269810878E7 ; 1.4005786477929452E7 ; 6.69208674148473E8 ; 7.142951103744026E8 ; 0.0
52 ; 1.3681468003984071E7 ; 1.4005786477929452E7 ; 6.828813034182839E8 ; 7.283008968523321E8 ; 0.0
53 ; 1.3682117932567624E7 ; 1.4005786477929452E7 ; 6.96562771422268E8 ; 7.423066833302616E8 ; 0.0
54 ; 1.3684892239873517E7 ; 1.4005786477929452E7 ; 7.102448893548356E8 ; 7.563124698081911E8 ; 0.0
55 ; 1.3687032789858721E7 ; 1.4005786477929452E7 ; 7.239297815947092E8 ; 7.703182562861205E8 ; 0.0
56 ; 1.3690958897248298E7 ; 1.4005786477929452E7 ; 7.376168143845679E8 ; 7.8432404276405E8 ; 0.0
57 ; 1.3695217034637181E7 ; 1.4005786477929452E7 ; 7.513077732818161E8 ; 7.983298292419795E8 ; 0.0
58 ; 1.3697846362518892E7 ; 1.4005786477929452E7 ; 7.650029903164533E8 ; 8.12335615719909E8 ; 0.0
59 ; 1.3701343767177666E7 ; 1.4005786477929452E7 ; 7.787008366789722E8 ; 8.263414021978384E8 ; 0.0
60 ; 1.3703494120741785E7 ; 1.4005786477929452E7 ; 7.9240218044615E8 ; 8.403471886757679E8 ; 0.0
61 ; 1.3708512062781256E7 ; 1.4005786477929452E7 ; 8.061056745668917E8 ; 8.543529751536974E8 ; 0.0
62 ; 1.3712221635872694E7 ; 1.4005786477929452E7 ; 8.198141866296729E8 ; 8.683587616316268E8 ; 0.0
63 ; 1.3711616773560131E7 ; 1.4005786477929452E7 ; 8.335264082655456E8 ; 8.823645481095563E8 ; 0.0
64 ; 1.3714834174677456E7 ; 1.4005786477929452E7 ; 8.472380250391058E8 ; 8.963703345874858E8 ; 0.0
65 ; 1.3716759345071822E7 ; 1.4005786477929452E7 ; 8.609528592137833E8 ; 9.103761210654153E8 ; 0.0
66 ; 1.3717235510856502E7 ; 1.4005786477929452E7 ; 8.74669618558855E8 ; 9.243819075433447E8 ; 0.0
67 ; 1.3719354030955128E7 ; 1.4005786477929452E7 ; 8.883868540697116E8 ; 9.383876940212742E8 ; 0.0
68 ; 1.3721507324791718E7 ; 1.4005786477929452E7 ; 9.021062081006666E8 ; 9.523934804992037E8 ; 0.0
69 ; 1.3729452885844678E7 ; 1.4005786477929452E7 ; 9.158277154254583E8 ; 9.663992669771332E8 ; 0.0
70 ; 1.3726750390256666E7 ; 1.4005786477929452E7 ; 9.29557168311303E8 ; 9.804050534550626E8 ; 0.0
71 ; 1.3728705327829212E7 ; 1.4005786477929452E7 ; 9.432839187015597E8 ; 9.944108399329921E8 ; 0.0
72 ; 1.3730330243603276E7 ; 1.4005786477929452E7 ; 9.570126240293889E8 ; 1.0084166264109216E9 ; 0.0
73 ; 1.3731831274556298E7 ; 1.4005786477929452E7 ; 9.707429542729921E8 ; 1.022422412888851E9 ; 0.0
74 ; 1.3732788397710184E7 ; 1.4005786477929452E7 ; 9.844747855475484E8 ; 1.0364281993667805E9 ; 0.0
75 ; 1.3728677428213354E7 ; 1.4005786477929452E7 ; 9.982075739452586E8 ; 1.05043398584471E9 ; 0.0
76 ; 1.3736031500133252E7 ; 1.4005786477929452E7 ; 1.011936251373472E9 ; 1.0644397723226395E9 ; 0.0
77 ; 1.3731843120830612E7 ; 1.4005786477929452E7 ; 1.0256722828736053E9 ; 1.0784455588005688E9 ; 0.0
78 ; 1.3730991496073365E7 ; 1.4005786477929452E7 ; 1.0394041259944359E9 ; 1.0924513452784982E9 ; 0.0
79 ; 1.3723935116925433E7 ; 1.4005786477929452E7 ; 1.0531351174905093E9 ; 1.1064571317564275E9 ; 0.0
80 ; 1.3720844342089983E7 ; 1.4005786477929452E7 ; 1.0668590526074347E9 ; 1.1204629182343569E9 ; 0.0
81 ; 1.371775005918637E7 ; 1.4005786477929452E7 ; 1.0805798969495246E9 ; 1.1344687047122862E9 ; 0.0
82 ; 1.3713397970787894E7 ; 1.4005786477929452E7 ; 1.094297647008711E9 ; 1.1484744911902156E9 ; 0.0
83 ; 1.3709274449935788E7 ; 1.4005786477929452E7 ; 1.108011044979499E9 ; 1.162480277668145E9 ; 0.0
84 ; 1.3704736799296448E7 ; 1.4005786477929452E7 ; 1.1217203194294348E9 ; 1.1764860641460743E9 ; 0.0
85 ; 1.370416917500708E7 ; 1.4005786477929452E7 ; 1.1354250562287312E9 ; 1.1904918506240036E9 ; 0.0
86 ; 1.3699195896574298E7 ; 1.4005786477929452E7 ; 1.1491292254037383E9 ; 1.204497637101933E9 ; 0.0
87 ; 1.3692058233264213E7 ; 1.4005786477929452E7 ; 1.1628284213003125E9 ; 1.2185034235798624E9 ; 0.0
88 ; 1.3685062011558E7 ; 1.4005786477929452E7 ; 1.1765204795335767E9 ; 1.2325092100577917E9 ; 0.0
89 ; 1.3684800054300694E7 ; 1.4005786477929452E7 ; 1.1902055415451348E9 ; 1.246514996535721E9 ; 0.0
90 ; 1.3678159587515384E7 ; 1.4005786477929452E7 ; 1.2038903415994356E9 ; 1.2605207830136504E9 ; 0.0
91 ; 1.3672031242095394E7 ; 1.4005786477929452E7 ; 1.217568501186951E9 ; 1.2745265694915798E9 ; 0.0
92 ; 1.3666731829404583E7 ; 1.4005786477929452E7 ; 1.2312405324290464E9 ; 1.2885323559695091E9 ; 0.0
93 ; 1.3662016534771243E7 ; 1.4005786477929452E7 ; 1.244907264258451E9 ; 1.3025381424474385E9 ; 0.0
94 ; 1.3656584203663107E7 ; 1.4005786477929452E7 ; 1.2585692807932222E9 ; 1.3165439289253678E9 ; 0.0
95 ; 1.3652043206163527E7 ; 1.4005786477929452E7 ; 1.2722258649968853E9 ; 1.3305497154032972E9 ; 0.0
96 ; 1.364469117115777E7 ; 1.4005786477929452E7 ; 1.285877908203049E9 ; 1.3445555018812265E9 ; 0.0
97 ; 1.3637693643753236E7 ; 1.4005786477929452E7 ; 1.2995225993742068E9 ; 1.358561288359156E9 ; 0.0
98 ; 1.3630400627557935E7 ; 1.4005786477929452E7 ; 1.31316029301796E9 ; 1.3725670748370852E9 ; 0.0
99 ; 1.3628366139444025E7 ; 1.4005786477929452E7 ; 1.326790693645518E9 ; 1.3865728613150146E9 ; 0.0
100 ; 1.362255433303748E7 ; 1.4005786477929452E7 ; 1.3404190597849622E9 ; 1.400578647792944E9 ; 0.0
101 ; 1.3616906148906711E7 ; 1.4005786477929452E7 ; 1.3540416141179996E9 ; 1.4145844342708733E9 ; 0.0
102 ; 1.361119245737925E7 ; 1.4005786477929452E7 ; 1.3676585202669063E9 ; 1.4285902207488027E9 ; 0.0
103 ; 1.3601416171705931E7 ; 1.4005786477929452E7 ; 1.3812697127242856E9 ; 1.442596007226732E9 ; 0.0
104 ; 1.3597649440342508E7 ; 1.4005786477929452E7 ; 1.3948711288959916E9 ; 1.4566017937046614E9 ; 0.0
105 ; 1.3584934618163044E7 ; 1.4005786477929452E7 ; 1.408468778336334E9 ; 1.4706075801825907E9 ; 0.0
106 ; 1.3577713327660896E7 ; 1.4005786477929452E7 ; 1.422053712954497E9 ; 1.48461336666052E9 ; 0.0
107 ; 1.3574513363854777E7 ; 1.4005786477929452E7 ; 1.435631426282158E9 ; 1.4986191531384494E9 ; 0.0
108 ; 1.3567914078225458E7 ; 1.4005786477929452E7 ; 1.4492059396460128E9 ; 1.5126249396163788E9 ; 0.0
109 ; 1.3557691316666154E7 ; 1.4005786477929452E7 ; 1.4627738537242382E9 ; 1.5266307260943081E9 ; 0.0
110 ; 1.3550051491316117E7 ; 1.4005786477929452E7 ; 1.4763315450409043E9 ; 1.5406365125722375E9 ; 0.0
111 ; 1.3541313062433563E7 ; 1.4005786477929452E7 ; 1.4898815965322204E9 ; 1.5546422990501668E9 ; 0.0
112 ; 1.3535413122841064E7 ; 1.4005786477929452E7 ; 1.5034229095946538E9 ; 1.5686480855280962E9 ; 0.0
113 ; 1.3525438228552105E7 ; 1.4005786477929452E7 ; 1.516958322717495E9 ; 1.5826538720060256E9 ; 0.0
114 ; 1.3519449094058625E7 ; 1.4005786477929452E7 ; 1.530483760946047E9 ; 1.596659658483955E9 ; 0.0
115 ; 1.3507655448208578E7 ; 1.4005786477929452E7 ; 1.5440032100401056E9 ; 1.6106654449618843E9 ; 0.0
116 ; 1.3499603063445129E7 ; 1.4005786477929452E7 ; 1.5575108654883142E9 ; 1.6246712314398136E9 ; 0.0
117 ; 1.3490632987390509E7 ; 1.4005786477929452E7 ; 1.5710104685517592E9 ; 1.638677017917743E9 ; 0.0
118 ; 1.3485095857295703E7 ; 1.4005786477929452E7 ; 1.5845011015391498E9 ; 1.6526828043956723E9 ; 0.0
119 ; 1.347541807221558E7 ; 1.4005786477929452E7 ; 1.5979861973964455E9 ; 1.6666885908736017E9 ; 0.0
120 ; 1.3466961650631195E7 ; 1.4005786477929452E7 ; 1.611461615468661E9 ; 1.680694377351531E9 ; 0.0
121 ; 1.3458541520157736E7 ; 1.4005786477929452E7 ; 1.6249285771192923E9 ; 1.6947001638294604E9 ; 0.0
122 ; 1.3443185947837405E7 ; 1.4005786477929452E7 ; 1.63838711863945E9 ; 1.7087059503073897E9 ; 0.0
123 ; 1.343726633216743E7 ; 1.4005786477929452E7 ; 1.6518303045872874E9 ; 1.722711736785319E9 ; 0.0
124 ; 1.3425902537374958E7 ; 1.4005786477929452E7 ; 1.6652675709194548E9 ; 1.7367175232632484E9 ; 0.0
125 ; 1.3422769769367186E7 ; 1.4005786477929452E7 ; 1.6786934734568298E9 ; 1.7507233097411778E9 ; 0.0
126 ; 1.3408965657591674E7 ; 1.4005786477929452E7 ; 1.692116243226197E9 ; 1.7647290962191072E9 ; 0.0
127 ; 1.3399596042417824E7 ; 1.4005786477929452E7 ; 1.7055252088837886E9 ; 1.7787348826970365E9 ; 0.0
128 ; 1.3387457688313618E7 ; 1.4005786477929452E7 ; 1.7189248049262064E9 ; 1.7927406691749659E9 ; 0.0
129 ; 1.33790319397625E7 ; 1.4005786477929452E7 ; 1.73231226261452E9 ; 1.8067464556528952E9 ; 0.0
130 ; 1.337222757180572E7 ; 1.4005786477929452E7 ; 1.7456912945542827E9 ; 1.8207522421308246E9 ; 0.0
131 ; 1.3355011762628838E7 ; 1.4005786477929452E7 ; 1.7590635221260884E9 ; 1.834758028608754E9 ; 0.0
132 ; 1.3335822868881095E7 ; 1.4005786477929452E7 ; 1.7724185338887172E9 ; 1.8487638150866833E9 ; 0.0
133 ; 1.3323632339861885E7 ; 1.4005786477929452E7 ; 1.7857543567575982E9 ; 1.8627696015646126E9 ; 0.0
134 ; 1.3310070738641849E7 ; 1.4005786477929452E7 ; 1.79907798909746E9 ; 1.876775388042542E9 ; 0.0
135 ; 1.3292744237410633E7 ; 1.4005786477929452E7 ; 1.8123880598361018E9 ; 1.8907811745204713E9 ; 0.0
136 ; 1.3277360625623304E7 ; 1.4005786477929452E7 ; 1.8256808040735123E9 ; 1.9047869609984007E9 ; 0.0
137 ; 1.3263078461694112E7 ; 1.4005786477929452E7 ; 1.8389581646991355E9 ; 1.91879274747633E9 ; 0.0
138 ; 1.3248022970847785E7 ; 1.4005786477929452E7 ; 1.8522212431608295E9 ; 1.9327985339542594E9 ; 0.0
139 ; 1.323214901761061E7 ; 1.4005786477929452E7 ; 1.8654692661316774E9 ; 1.9468043204321887E9 ; 0.0
140 ; 1.3217244551989615E7 ; 1.4005786477929452E7 ; 1.878701415149288E9 ; 1.960810106910118E9 ; 0.0
141 ; 1.3199177054266887E7 ; 1.4005786477929452E7 ; 1.8919186597012775E9 ; 1.9748158933880475E9 ; 0.0
142 ; 1.3183356809709447E7 ; 1.4005786477929452E7 ; 1.9051178367555444E9 ; 1.9888216798659768E9 ; 0.0
143 ; 1.3166840085729454E7 ; 1.4005786477929452E7 ; 1.918301193565254E9 ; 2.0028274663439062E9 ; 0.0
144 ; 1.3149126299707733E7 ; 1.4005786477929452E7 ; 1.9314680336509833E9 ; 2.0168332528218355E9 ; 0.0
145 ; 1.3137401147502234E7 ; 1.4005786477929452E7 ; 1.944617159950691E9 ; 2.0308390392997649E9 ; 0.0
146 ; 1.3125878327294435E7 ; 1.4005786477929452E7 ; 1.9577545610981932E9 ; 2.0448448257776942E9 ; 0.0
147 ; 1.3114592806832438E7 ; 1.4005786477929452E7 ; 1.9708804394254875E9 ; 2.0588506122556236E9 ; 0.0
148 ; 1.3106774059013337E7 ; 1.4005786477929452E7 ; 1.98399503223232E9 ; 2.072856398733553E9 ; 0.0
149 ; 1.3094190926359106E7 ; 1.4005786477929452E7 ; 1.9971018062913334E9 ; 2.0868621852114823E9 ; 0.0
150 ; 1.3083091709259493E7 ; 1.4005786477929452E7 ; 2.0101959972176926E9 ; 2.1008679716894116E9 ; 0.0
151 ; 1.3074181759406988E7 ; 1.4005786477929452E7 ; 2.0232790889269521E9 ; 2.114873758167341E9 ; 0.0
152 ; 1.3060610064342763E7 ; 1.4005786477929452E7 ; 2.0363532706863592E9 ; 2.1288795446452703E9 ; 0.0
153 ; 1.3049638164634358E7 ; 1.4005786477929452E7 ; 2.049413880750702E9 ; 2.1428853311231997E9 ; 0.0
154 ; 1.3042477165110074E7 ; 1.4005786477929452E7 ; 2.0624635189153364E9 ; 2.156891117601129E9 ; 0.0
155 ; 1.3027901718565632E7 ; 1.4005786477929452E7 ; 2.0755059960804465E9 ; 2.1708969040790586E9 ; 0.0
156 ; 1.3018527350624733E7 ; 1.4005786477929452E7 ; 2.0885338977990122E9 ; 2.1849026905569882E9 ; 0.0
157 ; 1.3005954398918387E7 ; 1.4005786477929452E7 ; 2.101552425149637E9 ; 2.198908477034918E9 ; 0.0
158 ; 1.2990115029250998E7 ; 1.4005786477929452E7 ; 2.1145583795485554E9 ; 2.2129142635128474E9 ; 0.0
159 ; 1.2987191764800705E7 ; 1.4005786477929452E7 ; 2.1275484945778065E9 ; 2.226920049990777E9 ; 0.0
160 ; 1.2966622518177152E7 ; 1.4005786477929452E7 ; 2.1405356863426073E9 ; 2.2409258364687066E9 ; 0.0
161 ; 1.2960354690032652E7 ; 1.4005786477929452E7 ; 2.1535023088607845E9 ; 2.254931622946636E9 ; 0.0
162 ; 1.2943498794148896E7 ; 1.4005786477929452E7 ; 2.166462663550817E9 ; 2.268937409424566E9 ; 0.0
163 ; 1.2935591169907153E7 ; 1.4005786477929452E7 ; 2.179406162344966E9 ; 2.2829431959024954E9 ; 0.0
164 ; 1.2922120414013049E7 ; 1.4005786477929452E7 ; 2.192341753514873E9 ; 2.296948982380425E9 ; 0.0
165 ; 1.2913125130355457E7 ; 1.4005786477929452E7 ; 2.205263873928886E9 ; 2.3109547688583546E9 ; 0.0
166 ; 1.2901092608320616E7 ; 1.4005786477929452E7 ; 2.2181769990592413E9 ; 2.324960555336284E9 ; 0.0
167 ; 1.288731878084005E7 ; 1.4005786477929452E7 ; 2.231078091667562E9 ; 2.3389663418142138E9 ; 0.0
168 ; 1.287395328798758E7 ; 1.4005786477929452E7 ; 2.243965410448402E9 ; 2.3529721282921433E9 ; 0.0
169 ; 1.2865866026209138E7 ; 1.4005786477929452E7 ; 2.2568393637363896E9 ; 2.366977914770073E9 ; 0.0
170 ; 1.285147063028734E7 ; 1.4005786477929452E7 ; 2.269705229762599E9 ; 2.3809837012480025E9 ; 0.0
171 ; 1.2838464061592598E7 ; 1.4005786477929452E7 ; 2.282556700392886E9 ; 2.394989487725932E9 ; 0.0
172 ; 1.2828146975526512E7 ; 1.4005786477929452E7 ; 2.2953951644544787E9 ; 2.4089952742038617E9 ; 0.0
173 ; 1.2818496759159E7 ; 1.4005786477929452E7 ; 2.308223311430005E9 ; 2.4230010606817913E9 ; 0.0
174 ; 1.2810774891569652E7 ; 1.4005786477929452E7 ; 2.321041808189164E9 ; 2.437006847159721E9 ; 0.0
175 ; 1.2798629324783029E7 ; 1.4005786477929452E7 ; 2.333852583080734E9 ; 2.4510126336376505E9 ; 0.0
176 ; 1.279444658448536E7 ; 1.4005786477929452E7 ; 2.3466512124055166E9 ; 2.46501842011558E9 ; 0.0
177 ; 1.2784608998113405E7 ; 1.4005786477929452E7 ; 2.359445658990002E9 ; 2.4790242065935097E9 ; 0.0
178 ; 1.2778630466107816E7 ; 1.4005786477929452E7 ; 2.372230267988116E9 ; 2.4930299930714393E9 ; 0.0
179 ; 1.2770046862618819E7 ; 1.4005786477929452E7 ; 2.3850088984542236E9 ; 2.507035779549369E9 ; 0.0
180 ; 1.2758998416883316E7 ; 1.4005786477929452E7 ; 2.3977789453168426E9 ; 2.5210415660272985E9 ; 0.0
181 ; 1.275728986916855E7 ; 1.4005786477929452E7 ; 2.410537943733726E9 ; 2.535047352505228E9 ; 0.0
182 ; 1.2743117058922319E7 ; 1.4005786477929452E7 ; 2.423295233602895E9 ; 2.5490531389831576E9 ; 0.0
183 ; 1.273849397361517E7 ; 1.4005786477929452E7 ; 2.436038350661817E9 ; 2.563058925461087E9 ; 0.0
184 ; 1.27289702185623E7 ; 1.4005786477929452E7 ; 2.4487768446354322E9 ; 2.577064711939017E9 ; 0.0
185 ; 1.2722527624294095E7 ; 1.4005786477929452E7 ; 2.4615058148539944E9 ; 2.5910704984169464E9 ; 0.0
186 ; 1.2716321434037924E7 ; 1.4005786477929452E7 ; 2.4742283424782887E9 ; 2.605076284894876E9 ; 0.0
187 ; 1.270774307720749E7 ; 1.4005786477929452E7 ; 2.486944663912327E9 ; 2.6190820713728056E9 ; 0.0
188 ; 1.2701677931860399E7 ; 1.4005786477929452E7 ; 2.4996524069895344E9 ; 2.633087857850735E9 ; 0.0
189 ; 1.2695367444138285E7 ; 1.4005786477929452E7 ; 2.512354084921395E9 ; 2.647093644328665E9 ; 0.0
190 ; 1.2682246832407609E7 ; 1.4005786477929452E7 ; 2.525049452365533E9 ; 2.6610994308065944E9 ; 0.0
191 ; 1.2685215081025627E7 ; 1.4005786477929452E7 ; 2.5377316991979403E9 ; 2.675105217284524E9 ; 0.0
192 ; 1.2673852468288865E7 ; 1.4005786477929452E7 ; 2.550416914278966E9 ; 2.6891110037624536E9 ; 0.0
193 ; 1.2668587247753898E7 ; 1.4005786477929452E7 ; 2.563090766747255E9 ; 2.703116790240383E9 ; 0.0
194 ; 1.2657028488596603E7 ; 1.4005786477929452E7 ; 2.575759353995009E9 ; 2.7171225767183127E9 ; 0.0
195 ; 1.2647455386909448E7 ; 1.4005786477929452E7 ; 2.5884163824836054E9 ; 2.7311283631962423E9 ; 0.0
196 ; 1.2643178524631543E7 ; 1.4005786477929452E7 ; 2.601063837870515E9 ; 2.745134149674172E9 ; 0.0
