CSV File for the City 6 on Day 358
1 - Minute m 
2 - Power Consumed at minute m 
3 - Power Produced at minute m 
4 - Energy Consumed since the beginning of the day 
5 - Energy Produced since the beginning of the day 
6 - Energy Lost since the beginning of the day on lines starting from the city
 
0 ; 1.1153207341898607E7 ; 1.0593740680483565E8 ; 0.0 ; 0.0 ; 0.0
1 ; 1.1157948676281018E7 ; 1.0608815351979458E8 ; 1.1153207341898607E7 ; 1.0593740680483565E8 ; 0.0
2 ; 1.1174633202198805E7 ; 1.065479036367887E8 ; 2.2311156018179625E7 ; 2.1202556032463023E8 ; 0.0
3 ; 1.1189619076282987E7 ; 1.0731666194717997E8 ; 3.348578922037843E7 ; 3.185734639614189E8 ; 0.0
4 ; 1.1207640335049957E7 ; 1.0839443276264292E8 ; 4.4675408296661414E7 ; 4.258901259085989E8 ; 0.0
5 ; 1.1221611198620236E7 ; 1.0978121988535225E8 ; 5.588304863171137E7 ; 5.342845586712418E8 ; 0.0
6 ; 1.1250386714632219E7 ; 1.1147702658105364E8 ; 6.710465983033161E7 ; 6.440657785565941E8 ; 0.0
7 ; 1.1282874371912055E7 ; 1.1348185555545223E8 ; 7.835504654496382E7 ; 7.555428051376477E8 ; 0.0
8 ; 1.1340038053700425E7 ; 1.1579570893431222E8 ; 8.963792091687587E7 ; 8.690246606931E8 ; 0.0
9 ; 1.1418258263326084E7 ; 1.1841858824760514E8 ; 1.0097795897057629E8 ; 9.848203696274122E8 ; 0.0
10 ; 1.1542039995416181E7 ; 1.213504944179827E8 ; 1.1239621723390236E8 ; 1.1032389578750174E9 ; 0.0
11 ; 1.174507369860889E7 ; 1.2459142775377801E8 ; 1.2393825722931854E8 ; 1.2245894522930002E9 ; 0.0
12 ; 1.2056429533394858E7 ; 1.2814138794665793E8 ; 1.3568333092792743E8 ; 1.3491808800467782E9 ; 0.0
13 ; 1.236426775688988E7 ; 1.3200037407397074E8 ; 1.477397604613223E8 ; 1.477322267993436E9 ; 0.0
14 ; 1.239960551467652E7 ; 1.3616838460574502E8 ; 1.601040282182122E8 ; 1.609322642067407E9 ; 0.0
15 ; 1.2413270925851557E7 ; 1.4064541741621643E8 ; 1.725036337328887E8 ; 1.745491026673152E9 ; 0.0
16 ; 1.2429019512958849E7 ; 1.4543146979967996E8 ; 1.8491690465874025E8 ; 1.8861364440893683E9 ; 0.0
17 ; 1.2440095354325619E7 ; 1.5052653849038985E8 ; 1.973459241716991E8 ; 2.0315679138890483E9 ; 0.0
18 ; 1.245778487204592E7 ; 1.559306196861714E8 ; 2.0978601952602473E8 ; 2.1820944523794384E9 ; 0.0
19 ; 1.2473093223556265E7 ; 1.6164370907535014E8 ; 2.2224380439807063E8 ; 2.33802507206561E9 ; 0.0
20 ; 1.2484452259136543E7 ; 1.67665801866564E8 ; 2.347168976216269E8 ; 2.49966878114096E9 ; 0.0
21 ; 1.2498306219187425E7 ; 1.7399689282099578E8 ; 2.4720134988076347E8 ; 2.667334583007524E9 ; 0.0
22 ; 1.251586657594575E7 ; 1.8063697628654212E8 ; 2.596996560999509E8 ; 2.84133147582852E9 ; 0.0
23 ; 1.252864106580937E7 ; 1.8758604623343337E8 ; 2.7221552267589664E8 ; 3.0219684521150618E9 ; 0.0
24 ; 1.2545573677053973E7 ; 1.948440962908224E8 ; 2.84744163741706E8 ; 3.209554498348495E9 ; 0.0
25 ; 1.2558454420478962E7 ; 2.0109916068206155E8 ; 2.9728973741876E8 ; 3.4043985946393175E9 ; 0.0
26 ; 1.2570411914586255E7 ; 2.0110478029875648E8 ; 3.0984819183923894E8 ; 3.605497755321379E9 ; 0.0
27 ; 1.2585050445976317E7 ; 2.0111071726248547E8 ; 3.224186037538252E8 ; 3.806602535620136E9 ; 0.0
28 ; 1.2599144539906055E7 ; 2.011169642076774E8 ; 3.350036541998015E8 ; 4.0077132528826213E9 ; 0.0
29 ; 1.2614469208890593E7 ; 2.0112351360992593E8 ; 3.476027987397076E8 ; 4.2088302170902987E9 ; 0.0
30 ; 1.2627298861090975E7 ; 2.011303578197411E8 ; 3.602172679485982E8 ; 4.409953730700225E9 ; 0.0
31 ; 1.2640027747341212E7 ; 2.0113748909474838E8 ; 3.7284456680968916E8 ; 4.611084088519966E9 ; 0.0
32 ; 1.265198490098264E7 ; 2.0114489963014573E8 ; 3.854845945570304E8 ; 4.812221577614715E9 ; 0.0
33 ; 1.2667442505915023E7 ; 2.011525815872737E8 ; 3.98136579458013E8 ; 5.013366477244861E9 ; 0.0
34 ; 1.2679138642332282E7 ; 2.0116052712019485E8 ; 4.1080402196392804E8 ; 5.214519058832134E9 ; 0.0
35 ; 1.2687389982965063E7 ; 2.0116872840021804E8 ; 4.234831606062603E8 ; 5.415679585952329E9 ; 0.0
36 ; 1.2704560381916141E7 ; 2.011771776383375E8 ; 4.3617055058922535E8 ; 5.616848314352547E9 ; 0.0
37 ; 1.2714378247020924E7 ; 2.011858671055881E8 ; 4.488751109711415E8 ; 5.818025491990884E9 ; 0.0
38 ; 1.2723388175288415E7 ; 2.0119478915134534E8 ; 4.615894892181624E8 ; 6.019211359096472E9 ; 0.0
39 ; 1.2732329254607242E7 ; 2.0120393621962076E8 ; 4.7431287739345086E8 ; 6.220406148247817E9 ; 0.0
40 ; 1.2742382338134347E7 ; 2.012133008634231E8 ; 4.870452066480581E8 ; 6.421610084467438E9 ; 0.0
41 ; 1.2751227159574943E7 ; 2.0122287575727016E8 ; 4.9978758898619246E8 ; 6.622823385330861E9 ; 0.0
42 ; 1.2761414813910125E7 ; 2.0123265370794782E8 ; 5.125388161457674E8 ; 6.824046261088131E9 ; 0.0
43 ; 1.2768887503799878E7 ; 2.012426276636214E8 ; 5.253002309596775E8 ; 7.025278914796079E9 ; 0.0
44 ; 1.2775640332271747E7 ; 2.012527907214092E8 ; 5.380691184634774E8 ; 7.2265215424597E9 ; 0.0
45 ; 1.2786261000994641E7 ; 2.0126313613353226E8 ; 5.508447587957491E8 ; 7.427774333181108E9 ; 0.0
46 ; 1.2793533409238705E7 ; 2.012736573121537E8 ; 5.636310197967438E8 ; 7.629037469314641E9 ; 0.0
47 ; 1.2795443675697928E7 ; 2.012843478330215E8 ; 5.764245532059824E8 ; 7.830311126626795E9 ; 0.0
48 ; 1.2799961689318215E7 ; 2.012952014380248E8 ; 5.892199968816804E8 ; 8.031595474459816E9 ; 0.0
49 ; 1.2805431236505061E7 ; 2.013062120367712E8 ; 6.020199585709985E8 ; 8.2328906758978405E9 ; 0.0
50 ; 1.281084505517376E7 ; 2.0131737370728722E8 ; 6.148253898075036E8 ; 8.434196887934611E9 ; 0.0
51 ; 1.2816319906482048E7 ; 2.0132868069593927E8 ; 6.276362348626773E8 ; 8.6355142616419E9 ; 0.0
52 ; 1.2815931180740671E7 ; 2.0134012741666657E8 ; 6.404525547691594E8 ; 8.83684294233784E9 ; 0.0
53 ; 1.2822655618238073E7 ; 2.0135170844961154E8 ; 6.532684859499002E8 ; 9.038183069754505E9 ; 0.0
54 ; 1.2831113969029509E7 ; 2.0136341853922716E8 ; 6.660911415681382E8 ; 9.239534778204117E9 ; 0.0
55 ; 1.2832996458966274E7 ; 2.0137525259193385E8 ; 6.789222555371678E8 ; 9.440898196743343E9 ; 0.0
56 ; 1.283415510530189E7 ; 2.0138720567339405E8 ; 6.91755251996134E8 ; 9.642273449335278E9 ; 0.0
57 ; 1.2834838059003446E7 ; 2.013992730054645E8 ; 7.045894071014359E8 ; 9.84366065500867E9 ; 0.0
58 ; 1.283863353335911E7 ; 2.014114499628825E8 ; 7.174242451604394E8 ; 1.0045059928014135E10 ; 0.0
59 ; 1.284153313921244E7 ; 2.0142373206973583E8 ; 7.302628786937985E8 ; 1.0246471377977018E10 ; 0.0
60 ; 1.2845713063107E7 ; 2.0143611499576142E8 ; 7.43104411833011E8 ; 1.0447895110046755E10 ; 0.0
61 ; 1.2849168173333608E7 ; 2.014485945525127E8 ; 7.55950124896118E8 ; 1.0649331225042517E10 ; 0.0
62 ; 1.2848588100221014E7 ; 2.014611666894313E8 ; 7.687992930694517E8 ; 1.085077981959503E10 ; 0.0
63 ; 1.2851727416120633E7 ; 2.0147382748985463E8 ; 7.816478811696727E8 ; 1.1052240986284462E10 ; 0.0
64 ; 1.285589321706597E7 ; 2.014865731669871E8 ; 7.944996085857934E8 ; 1.1253714813774317E10 ; 0.0
65 ; 1.2858160349371038E7 ; 2.014994000598586E8 ; 8.073555018028593E8 ; 1.1455201386941303E10 ; 0.0
66 ; 1.2858127091211924E7 ; 2.015123046292921E8 ; 8.202136621522304E8 ; 1.1656700787001162E10 ; 0.0
67 ; 1.286146615427398E7 ; 2.0152528345389745E8 ; 8.330717892434423E8 ; 1.1858213091630453E10 ; 0.0
68 ; 1.2859926441038743E7 ; 2.0153833322610763E8 ; 8.459332553977163E8 ; 1.205973837508435E10 ; 0.0
69 ; 1.28655413697246E7 ; 2.0155145074827E8 ; 8.58793181838755E8 ; 1.226127670831046E10 ; 0.0
70 ; 1.2866365167983102E7 ; 2.015646329288039E8 ; 8.716587232084796E8 ; 1.246282815905873E10 ; 0.0
71 ; 1.2867702483703421E7 ; 2.015778767784335E8 ; 8.845250883764627E8 ; 1.2664392791987534E10 ; 0.0
72 ; 1.2871126719470013E7 ; 2.0159117940650362E8 ; 8.973927908601661E8 ; 1.2865970668765966E10 ; 0.0
73 ; 1.2869201606376708E7 ; 2.0160453801738378E8 ; 9.102639175796361E8 ; 1.306756184817247E10 ; 0.0
74 ; 1.287113830763473E7 ; 2.016179499069662E8 ; 9.231331191860127E8 ; 1.3269166386189854E10 ; 0.0
75 ; 1.2872946293760093E7 ; 2.0163141245926026E8 ; 9.360042574936475E8 ; 1.347078433609682E10 ; 0.0
76 ; 1.2871569708317094E7 ; 2.016449231430864E8 ; 9.488772037874075E8 ; 1.3672415748556082E10 ; 0.0
77 ; 1.2875681955901086E7 ; 2.0165847950887117E8 ; 9.617487734957246E8 ; 1.3874060671699167E10 ; 0.0
78 ; 1.2869974064121561E7 ; 2.0167207918554386E8 ; 9.746244554516256E8 ; 1.4075719151208038E10 ; 0.0
79 ; 1.2867719747667562E7 ; 2.0168571987753534E8 ; 9.874944295157472E8 ; 1.4277391230393581E10 ; 0.0
80 ; 1.2868080981605727E7 ; 2.016993993618786E8 ; 1.0003621492634147E9 ; 1.4479076950271116E10 ; 0.0
81 ; 1.2864329192521662E7 ; 2.0171311548541006E8 ; 1.0132302302450205E9 ; 1.4680776349632996E10 ; 0.0
82 ; 1.2862519510504749E7 ; 2.0172686616207066E8 ; 1.0260945594375422E9 ; 1.4882489465118406E10 ; 0.0
83 ; 1.2854406064656615E7 ; 2.0174064937030494E8 ; 1.0389570789480469E9 ; 1.5084216331280478E10 ; 0.0
84 ; 1.2850012782424409E7 ; 2.0175446315055645E8 ; 1.0518114850127035E9 ; 1.5285956980650782E10 ; 0.0
85 ; 1.2848379469360687E7 ; 2.0176830560285735E8 ; 1.064661497795128E9 ; 1.5487711443801338E10 ; 0.0
86 ; 1.2844906982747653E7 ; 2.0178217488450986E8 ; 1.0775098772644887E9 ; 1.5689479749404196E10 ; 0.0
87 ; 1.2842712323572157E7 ; 2.0179606920785746E8 ; 1.0903547842472363E9 ; 1.5891261924288706E10 ; 0.0
88 ; 1.2840497301592655E7 ; 2.01809986838143E8 ; 1.1031974965708084E9 ; 1.6093057993496563E10 ; 0.0
89 ; 1.2831228907530759E7 ; 2.018239260914514E8 ; 1.116037993872401E9 ; 1.6294867980334705E10 ; 0.0
90 ; 1.2827624773769714E7 ; 2.0183788533273426E8 ; 1.1288692227799318E9 ; 1.6496691906426157E10 ; 0.0
91 ; 1.282229820170514E7 ; 2.018518629739136E8 ; 1.1416968475537014E9 ; 1.6698529791758892E10 ; 0.0
92 ; 1.2822501610007962E7 ; 2.0186585747206247E8 ; 1.1545191457554066E9 ; 1.6900381654732805E10 ; 0.0
93 ; 1.2815864578366296E7 ; 2.018798673276589E8 ; 1.1673416473654146E9 ; 1.7102247512204868E10 ; 0.0
94 ; 1.2809700362509936E7 ; 2.0189389108291188E8 ; 1.180157511943781E9 ; 1.7304127379532528E10 ; 0.0
95 ; 1.2804226383568654E7 ; 2.0190792732015544E8 ; 1.1929672123062909E9 ; 1.750602127061544E10 ; 0.0
96 ; 1.2799476389240434E7 ; 2.0192197466030917E8 ; 1.2057714386898596E9 ; 1.7707929197935596E10 ; 0.0
97 ; 1.2794482704626476E7 ; 2.0193603176140207E8 ; 1.2185709150791001E9 ; 1.7909851172595905E10 ; 0.0
98 ; 1.2792207603967272E7 ; 2.0195009731715792E8 ; 1.2313653977837267E9 ; 1.8111787204357307E10 ; 0.0
99 ; 1.2783240848267522E7 ; 2.01964170055639E8 ; 1.244157605387694E9 ; 1.8313737301674465E10 ; 0.0
100 ; 1.2780909521337071E7 ; 2.019782487379464E8 ; 1.2569408462359614E9 ; 1.8515701471730103E10 ; 0.0
101 ; 1.2772707584751213E7 ; 2.0199233215697443E8 ; 1.2697217557572985E9 ; 1.871767972046805E10 ; 0.0
102 ; 1.2766269557153175E7 ; 2.0200641913621697E8 ; 1.2824944633420496E9 ; 1.8919672052625023E10 ; 0.0
103 ; 1.2763442373471526E7 ; 2.0202050852862355E8 ; 1.2952607328992028E9 ; 1.912167847176124E10 ; 0.0
104 ; 1.275591642755709E7 ; 2.0203459921550307E8 ; 1.3080241752726743E9 ; 1.932369898028986E10 ; 0.0
105 ; 1.2748545581168992E7 ; 2.020486901054735E8 ; 1.3207800917002313E9 ; 1.9525733579505363E10 ; 0.0
106 ; 1.2742704133911066E7 ; 2.0206278013345507E8 ; 1.3335286372814002E9 ; 1.9727782269610836E10 ; 0.0
107 ; 1.2735533098546894E7 ; 2.0207686825970566E8 ; 1.3462713414153113E9 ; 1.992984504974429E10 ; 0.0
108 ; 1.2730958348373625E7 ; 2.0209095346889624E8 ; 1.3590068745138583E9 ; 2.0131921918003994E10 ; 0.0
109 ; 1.2726011926001204E7 ; 2.0210503476922473E8 ; 1.371737832862232E9 ; 2.033401287147289E10 ; 0.0
110 ; 1.2716657248490412E7 ; 2.0211911119156682E8 ; 1.3844638447882333E9 ; 2.0536117906242115E10 ; 0.0
111 ; 1.2709279859260613E7 ; 2.0213318178866187E8 ; 1.3971805020367236E9 ; 2.073823701743368E10 ; 0.0
112 ; 1.2702848825325483E7 ; 2.021472456343325E8 ; 1.4098897818959842E9 ; 2.0940370199222343E10 ; 0.0
113 ; 1.2699879680849453E7 ; 2.0216130182273668E8 ; 1.4225926307213097E9 ; 2.1142517444856674E10 ; 0.0
114 ; 1.2689128035174008E7 ; 2.0217534946765038E8 ; 1.4352925104021592E9 ; 2.134467874667941E10 ; 0.0
115 ; 1.2681170535021527E7 ; 2.021893877017799E8 ; 1.447981638437333E9 ; 2.154685409614706E10 ; 0.0
116 ; 1.2670810617818765E7 ; 2.0220341567610243E8 ; 1.4606628089723547E9 ; 2.174904348384884E10 ; 0.0
117 ; 1.2668636912578205E7 ; 2.0221743255923367E8 ; 1.4733336195901735E9 ; 2.195124689952494E10 ; 0.0
118 ; 1.2658776009922909E7 ; 2.0223143753682122E8 ; 1.4860022565027516E9 ; 2.2153464332084175E10 ; 0.0
119 ; 1.2649389835298192E7 ; 2.0224542981096265E8 ; 1.4986610325126746E9 ; 2.2355695769620995E10 ; 0.0
120 ; 1.2644501168952333E7 ; 2.022594085996475E8 ; 1.5113104223479729E9 ; 2.2557941199431957E10 ; 0.0
121 ; 1.2634422036832808E7 ; 2.0227337313622153E8 ; 1.523954923516925E9 ; 2.2760200608031605E10 ; 0.0
122 ; 1.2627895754795322E7 ; 2.0228732266887295E8 ; 1.536589345553758E9 ; 2.2962473981167828E10 ; 0.0
123 ; 1.2619929791554462E7 ; 2.0230125646013916E8 ; 1.5492172413085532E9 ; 2.31647613038367E10 ; 0.0
124 ; 1.2607596521023646E7 ; 2.0231517378643337E8 ; 1.5618371711001077E9 ; 2.336706256029684E10 ; 0.0
125 ; 1.2603564326428302E7 ; 2.0232907393759024E8 ; 1.5744447676211314E9 ; 2.3569377734083275E10 ; 0.0
126 ; 1.2593283821903437E7 ; 2.0234295621642956E8 ; 1.5870483319475598E9 ; 2.3771706808020866E10 ; 0.0
127 ; 1.2581861718658177E7 ; 2.0235681993833742E8 ; 1.5996416157694633E9 ; 2.3974049764237297E10 ; 0.0
128 ; 1.2573777270207144E7 ; 2.023706644308638E8 ; 1.6122234774881215E9 ; 2.4176406584175636E10 ; 0.0
129 ; 1.2565953779635193E7 ; 2.0238448903333643E8 ; 1.6247972547583287E9 ; 2.43787772486065E10 ; 0.0
130 ; 1.2558812928993303E7 ; 2.0239829309648943E8 ; 1.6373632085379639E9 ; 2.4581161737639835E10 ; 0.0
131 ; 1.2544240133940587E7 ; 2.0241207598210683E8 ; 1.649922021466957E9 ; 2.4783560030736324E10 ; 0.0
132 ; 1.2532274041502777E7 ; 2.0242583706267998E8 ; 1.6624662616008978E9 ; 2.498597210671843E10 ; 0.0
133 ; 1.2517571900078606E7 ; 2.0243957572107825E8 ; 1.6749985356424005E9 ; 2.518839794378111E10 ; 0.0
134 ; 1.2504374303448157E7 ; 2.024532913502327E8 ; 1.687516107542479E9 ; 2.5390837519502186E10 ; 0.0
135 ; 1.2492901790297491E7 ; 2.0246698335283172E8 ; 1.7000204818459272E9 ; 2.5593290810852417E10 ; 0.0
136 ; 1.24761813172325E7 ; 2.0248065114102876E8 ; 1.7125133836362247E9 ; 2.579575779420525E10 ; 0.0
137 ; 1.2464875312094467E7 ; 2.02494294136161E8 ; 1.7249895649534574E9 ; 2.599823844534628E10 ; 0.0
138 ; 1.2445579222232422E7 ; 2.02507911768479E8 ; 1.7374544402655518E9 ; 2.620073273948244E10 ; 0.0
139 ; 1.2436098300117614E7 ; 2.0252150347688654E8 ; 1.7499000194877841E9 ; 2.640324065125092E10 ; 0.0
140 ; 1.2424071729925148E7 ; 2.025350687086905E8 ; 1.7623361177879019E9 ; 2.6605762154727806E10 ; 0.0
141 ; 1.2408448659265986E7 ; 2.025486069193601E8 ; 1.774760189517827E9 ; 2.6808297223436497E10 ; 0.0
142 ; 1.2390287390037317E7 ; 2.025621175722953E8 ; 1.787168638177093E9 ; 2.7010845830355858E10 ; 0.0
143 ; 1.2379664808721151E7 ; 2.0257560013860384E8 ; 1.7995589255671303E9 ; 2.7213407947928154E10 ; 0.0
144 ; 1.2362441099440431E7 ; 2.0258905409688678E8 ; 1.8119385903758514E9 ; 2.7415983548066757E10 ; 0.0
145 ; 1.2353822279813187E7 ; 2.026024789330319E8 ; 1.8243010314752917E9 ; 2.7618572602163643E10 ; 0.0
146 ; 1.2346266370603465E7 ; 2.026158741400149E8 ; 1.836654853755105E9 ; 2.7821175081096676E10 ; 0.0
147 ; 1.2336107420038143E7 ; 2.0262923921770793E8 ; 1.8490011201257086E9 ; 2.802379095523669E10 ; 0.0
148 ; 1.2325021070432913E7 ; 2.026425736726953E8 ; 1.8613372275457468E9 ; 2.82264201944544E10 ; 0.0
149 ; 1.231407429639449E7 ; 2.0265587701809567E8 ; 1.8736622486161797E9 ; 2.8429062768127094E10 ; 0.0
150 ; 1.230520192813583E7 ; 2.0266914877339125E8 ; 1.8859763229125743E9 ; 2.863171864514519E10 ; 0.0
151 ; 1.2294139662342308E7 ; 2.026823884642627E8 ; 1.8982815248407102E9 ; 2.8834387793918583E10 ; 0.0
152 ; 1.2292595661192732E7 ; 2.026955956224306E8 ; 1.9105756645030525E9 ; 2.9037070182382847E10 ; 0.0
153 ; 1.2275875719676163E7 ; 2.0270876978550223E8 ; 1.9228682601642451E9 ; 2.9239765778005276E10 ; 0.0
154 ; 1.2265953049570462E7 ; 2.027219104968241E8 ; 1.9351441358839214E9 ; 2.944247454779078E10 ; 0.0
155 ; 1.2258468084391797E7 ; 2.0273501730533978E8 ; 1.947410088933492E9 ; 2.96451964582876E10 ; 0.0
156 ; 1.2246019178933555E7 ; 2.027480897654529E8 ; 1.9596685570178838E9 ; 2.984793147559294E10 ; 0.0
157 ; 1.2237684186331438E7 ; 2.027611274368948E8 ; 1.9719145761968174E9 ; 3.0050679565358395E10 ; 0.0
158 ; 1.2221599895283632E7 ; 2.027741298845973E8 ; 1.984152260383149E9 ; 3.0253440692795288E10 ; 0.0
159 ; 1.2215674075165989E7 ; 2.0278709667856967E8 ; 1.9963738602784326E9 ; 3.0456214822679886E10 ; 0.0
160 ; 1.2205169909458311E7 ; 2.0280002739378E8 ; 2.0085895343535986E9 ; 3.0659001919358456E10 ; 0.0
161 ; 1.2197432292214826E7 ; 2.0281292161004102E8 ; 2.020794704263057E9 ; 3.0861801946752235E10 ; 0.0
162 ; 1.2181559694408499E7 ; 2.028257789118996E8 ; 2.0329921365552719E9 ; 3.1064614868362278E10 ; 0.0
163 ; 1.2168920758454166E7 ; 2.0283859888853037E8 ; 2.0451736962496803E9 ; 3.1267440647274178E10 ; 0.0
164 ; 1.2160585927973384E7 ; 2.0285138113363293E8 ; 2.0573426170081344E9 ; 3.147027924616271E10 ; 0.0
165 ; 1.2151049894328902E7 ; 2.0286412524533278E8 ; 2.0695032029361076E9 ; 3.167313062729634E10 ; 0.0
166 ; 1.214173168079428E7 ; 2.0287683082608542E8 ; 2.0816542528304365E9 ; 3.1875994752541676E10 ; 0.0
167 ; 1.2127888232888946E7 ; 2.0288949748258415E8 ; 2.0937959845112307E9 ; 3.207887158336776E10 ; 0.0
168 ; 1.212106332874253E7 ; 2.0290212482567084E8 ; 2.1059238727441196E9 ; 3.2281761080850346E10 ; 0.0
169 ; 1.2109131117929487E7 ; 2.0291471247024962E8 ; 2.1180449360728621E9 ; 3.2484663205676018E10 ; 0.0
170 ; 1.2096055623784874E7 ; 2.0292726003520396E8 ; 2.1301540671907916E9 ; 3.2687577918146267E10 ; 0.0
171 ; 1.2089965177963449E7 ; 2.0293976714331615E8 ; 2.1422501228145764E9 ; 3.2890505178181473E10 ; 0.0
172 ; 1.2074959895226154E7 ; 2.0295223342118979E8 ; 2.15434008799254E9 ; 3.3093444945324787E10 ; 0.0
173 ; 1.2065874819404367E7 ; 2.0296465849917483E8 ; 2.166415047887766E9 ; 3.3296397178745975E10 ; 0.0
174 ; 1.205981156806372E7 ; 2.0297704201129526E8 ; 2.1784809227071705E9 ; 3.349936183724515E10 ; 0.0
175 ; 1.2052952467260268E7 ; 2.02989383595179E8 ; 2.190540734275234E9 ; 3.3702338879256447E10 ; 0.0
176 ; 1.2045853430344276E7 ; 2.0300168289199033E8 ; 2.2025936867424946E9 ; 3.3905328262851627E10 ; 0.0
177 ; 1.2035103597439535E7 ; 2.0301393954636478E8 ; 2.2146395401728387E9 ; 3.4108329945743618E10 ; 0.0
178 ; 1.2031373481717892E7 ; 2.030261532063457E8 ; 2.2266746437702785E9 ; 3.431134388528998E10 ; 0.0
179 ; 1.2025219265700096E7 ; 2.0303832352332348E8 ; 2.2387060172519965E9 ; 3.451437003849633E10 ; 0.0
180 ; 1.2019104070698112E7 ; 2.0305045015197647E8 ; 2.2507312365176964E9 ; 3.471740836201965E10 ; 0.0
181 ; 1.2011142925673014E7 ; 2.03062532750214E8 ; 2.2627503405883946E9 ; 3.492045881217163E10 ; 0.0
182 ; 1.2003084789606817E7 ; 2.0307457097912124E8 ; 2.2747614835140676E9 ; 3.5123521344921844E10 ; 0.0
183 ; 1.199524037969133E7 ; 2.030865645029059E8 ; 2.2867645683036747E9 ; 3.532659591590096E10 ; 0.0
184 ; 1.1989529917116335E7 ; 2.0309851298884675E8 ; 2.298759808683366E9 ; 3.552968248040387E10 ; 0.0
185 ; 1.1984577726670286E7 ; 2.0311041610724375E8 ; 2.310749338600482E9 ; 3.5732780993392715E10 ; 0.0
186 ; 1.1979715139004292E7 ; 2.0312227353136978E8 ; 2.3227339163271523E9 ; 3.593589140949996E10 ; 0.0
187 ; 1.197188243838352E7 ; 2.0313408493742424E8 ; 2.3347136314661565E9 ; 3.6139013683031334E10 ; 0.0
188 ; 1.1962754885757457E7 ; 2.0314585000448772E8 ; 2.34668551390454E9 ; 3.634214776796876E10 ; 0.0
189 ; 1.1958937591524715E7 ; 2.0315756841447857E8 ; 2.3586482687902975E9 ; 3.654529361797324E10 ; 0.0
190 ; 1.1952983046807194E7 ; 2.031692398521106E8 ; 2.370607206381822E9 ; 3.6748451186387726E10 ; 0.0
191 ; 1.1944000004068365E7 ; 2.0318086400485232E8 ; 2.3825601894286294E9 ; 3.695162042623984E10 ; 0.0
192 ; 1.1938475728058375E7 ; 2.0319244056288743E8 ; 2.394504189432698E9 ; 3.715480129024469E10 ; 0.0
193 ; 1.1929494042542191E7 ; 2.032039692190766E8 ; 2.406442665160756E9 ; 3.735799373080758E10 ; 0.0
194 ; 1.1923751890669478E7 ; 2.0321544966892055E8 ; 2.418372159203298E9 ; 3.756119770002666E10 ; 0.0
195 ; 1.1917855571869606E7 ; 2.0322688161052412E8 ; 2.4302959110939674E9 ; 3.776441314969558E10 ; 0.0
