CSV File for the City 6 on Day 121
1 - Minute m 
2 - Power Consumed at minute m 
3 - Power Produced at minute m 
4 - Energy Consumed since the beginning of the day 
5 - Energy Produced since the beginning of the day 
6 - Energy Lost since the beginning of the day on lines starting from the city
 
0 ; 1.128921212030467E7 ; 1.0616353341557762E8 ; 0.0 ; 0.0 ; 0.0
1 ; 1.1300648989718188E7 ; 1.0631444578657275E8 ; 1.128921212030467E7 ; 1.0616353341557762E8 ; 0.0
2 ; 1.1312798476376582E7 ; 1.0677434834339556E8 ; 2.2589861110022858E7 ; 2.1247797920215037E8 ; 0.0
3 ; 1.1326977884198697E7 ; 1.0754324453959745E8 ; 3.3902659586399436E7 ; 3.1925232754554594E8 ; 0.0
4 ; 1.1346009247179266E7 ; 1.0862113746688133E8 ; 4.522963747059813E7 ; 4.267955720851434E8 ; 0.0
5 ; 1.1366210940834919E7 ; 1.1000802983908945E8 ; 5.65756467177774E7 ; 5.354167095520247E8 ; 0.0
6 ; 1.1397606648549208E7 ; 1.1170392397789714E8 ; 6.794185765861233E7 ; 6.454247393911142E8 ; 0.0
7 ; 1.1430212991734775E7 ; 1.1370882180038822E8 ; 7.933946430716154E7 ; 7.571286633690114E8 ; 0.0
8 ; 1.1482463539898999E7 ; 1.1602272480866498E8 ; 9.076967729889631E7 ; 8.708374851693996E8 ; 0.0
9 ; 1.1565042132433534E7 ; 1.1864563408162463E8 ; 1.022521408387953E8 ; 9.868602099780645E8 ; 0.0
10 ; 1.1689038566458618E7 ; 1.2157755026900804E8 ; 1.1381718297122884E8 ; 1.105505844059689E9 ; 0.0
11 ; 1.188676325561071E7 ; 1.248184735877975E8 ; 1.2550622153768745E8 ; 1.2270833943286972E9 ; 0.0
12 ; 1.2209220772651836E7 ; 1.2836840382101068E8 ; 1.3739298479329816E8 ; 1.3519018679164946E9 ; 0.0
13 ; 1.2514549163655782E7 ; 1.3222734031890672E8 ; 1.4960220556594998E8 ; 1.4802702717375052E9 ; 0.0
14 ; 1.2549461626535054E7 ; 1.363952820025885E8 ; 1.6211675472960576E8 ; 1.612497612056412E9 ; 0.0
15 ; 1.2561116156768845E7 ; 1.4087222736995363E8 ; 1.7466621635614082E8 ; 1.7488928940590005E9 ; 0.0
16 ; 1.257523147390526E7 ; 1.4565817450391838E8 ; 1.8722733251290968E8 ; 1.8897651214289541E9 ; 0.0
17 ; 1.2592977194624584E7 ; 1.5075312108280733E8 ; 1.9980256398681495E8 ; 2.0354232959328725E9 ; 0.0
18 ; 1.2611045091391938E7 ; 1.5615706439277828E8 ; 2.1239554118143952E8 ; 2.18617641701568E9 ; 0.0
19 ; 1.2624567077499699E7 ; 1.618700013421283E8 ; 2.2500658627283147E8 ; 2.342333481408458E9 ; 0.0
20 ; 1.2638257860703355E7 ; 1.6789192847730598E8 ; 2.3763115335033116E8 ; 2.5042034827505865E9 ; 0.0
21 ; 1.2653392240489932E7 ; 1.742228420004411E8 ; 2.502694112110345E8 ; 2.6720954112278924E9 ; 0.0
22 ; 1.2667546211810175E7 ; 1.8086273778818935E8 ; 2.6292280345152444E8 ; 2.8463182532283335E9 ; 0.0
23 ; 1.2682818369183857E7 ; 1.8781161141168278E8 ; 2.755903496633346E8 ; 3.027180991016523E9 ; 0.0
24 ; 1.2704542886580208E7 ; 1.9506945815737206E8 ; 2.8827316803251845E8 ; 3.2149926024282055E9 ; 0.0
25 ; 1.2718724149031881E7 ; 2.0132431394673055E8 ; 3.009777109190987E8 ; 3.4100620605855775E9 ; 0.0
26 ; 1.2733316950126575E7 ; 2.0132972139513785E8 ; 3.1369643506813055E8 ; 3.611386374532308E9 ; 0.0
27 ; 1.274378440803018E7 ; 2.0133544435903513E8 ; 3.2642975201825714E8 ; 3.812716095927446E9 ; 0.0
28 ; 1.2764073075251728E7 ; 2.0134147720501852E8 ; 3.391735364262873E8 ; 4.014051540286481E9 ; 0.0
29 ; 1.2778447031829929E7 ; 2.0134781412529242E8 ; 3.51937609501539E8 ; 4.2153930174914994E9 ; 0.0
30 ; 1.2789702082645062E7 ; 2.0135444915959603E8 ; 3.6471605653336895E8 ; 4.416740831616792E9 ; 0.0
31 ; 1.2803866687814074E7 ; 2.0136137621669483E8 ; 3.77505758616014E8 ; 4.618095280776388E9 ; 0.0
32 ; 1.2818647428341484E7 ; 2.0136858909530067E8 ; 3.9030962530382806E8 ; 4.819456656993083E9 ; 0.0
33 ; 1.2831522074234976E7 ; 2.0137608150430033E8 ; 4.0312827273216957E8 ; 5.020825246088384E9 ; 0.0
34 ; 1.2844534048423735E7 ; 2.0138384708219063E8 ; 4.1595979480640453E8 ; 5.222201327592684E9 ; 0.0
35 ; 1.2858653543806551E7 ; 2.0139187941563487E8 ; 4.2880432885482824E8 ; 5.423585174674874E9 ; 0.0
36 ; 1.2870370544932833E7 ; 2.0140017205707198E8 ; 4.416629823986348E8 ; 5.624977054090509E9 ; 0.0
37 ; 1.2885100123481212E7 ; 2.014087185413262E8 ; 4.5453335294356763E8 ; 5.826377226147581E9 ; 0.0
38 ; 1.2895788317745194E7 ; 2.0141751240117988E8 ; 4.6741845306704885E8 ; 6.027785944688908E9 ; 0.0
39 ; 1.2909495244268743E7 ; 2.0142654718188646E8 ; 4.8031424138479406E8 ; 6.229203457090088E9 ; 0.0
40 ; 1.2919642650644656E7 ; 2.0143581645461258E8 ; 4.932237366290628E8 ; 6.430630004271975E9 ; 0.0
41 ; 1.292844864387455E7 ; 2.0144531382881105E8 ; 5.0614337927970743E8 ; 6.632065820726587E9 ; 0.0
42 ; 1.293801454448233E7 ; 2.0145503296353537E8 ; 5.1907182792358196E8 ; 6.833511134555398E9 ; 0.0
43 ; 1.2938336957549814E7 ; 2.0146496757771623E8 ; 5.320098424680643E8 ; 7.034966167518933E9 ; 0.0
44 ; 1.2933243303008286E7 ; 2.0147511145942754E8 ; 5.449481794256141E8 ; 7.236431135096649E9 ; 0.0
45 ; 1.292826780165965E7 ; 2.0148545847417596E8 ; 5.578814227286224E8 ; 7.437906246556077E9 ; 0.0
46 ; 1.291713214347981E7 ; 2.014960025722531E8 ; 5.708096905302821E8 ; 7.639391705030253E9 ; 0.0
47 ; 1.291498762243954E7 ; 2.0150673779519337E8 ; 5.83726822673762E8 ; 7.840887707602507E9 ; 0.0
48 ; 1.2904679740670074E7 ; 2.0151765828138384E8 ; 5.966418102962015E8 ; 8.0423944453977E9 ; 0.0
49 ; 1.2896992636312125E7 ; 2.0152875827087396E8 ; 6.095464900368716E8 ; 8.243912103679084E9 ; 0.0
50 ; 1.2888654924302591E7 ; 2.015400321094352E8 ; 6.224434826731837E8 ; 8.445440861949958E9 ; 0.0
51 ; 1.288060677673246E7 ; 2.0155147425192007E8 ; 6.353321375974863E8 ; 8.646980894059393E9 ; 0.0
52 ; 1.2870463496014033E7 ; 2.015630792649708E8 ; 6.482127443742187E8 ; 8.848532368311314E9 ; 0.0
53 ; 1.285999598684707E7 ; 2.0157484182912734E8 ; 6.610832078702327E8 ; 9.050095447576284E9 ; 0.0
54 ; 1.2850479574975071E7 ; 2.0158675674038222E8 ; 6.739432038570797E8 ; 9.251670289405413E9 ; 0.0
55 ; 1.284062837733179E7 ; 2.015988189112302E8 ; 6.867936834320548E8 ; 9.453257046145796E9 ; 0.0
56 ; 1.2828109904452017E7 ; 2.0161102337125716E8 ; 6.996343118093865E8 ; 9.654855865057026E9 ; 0.0
57 ; 1.2821700482533278E7 ; 2.016233652673118E8 ; 7.124624217138385E8 ; 9.856466888428284E9 ; 0.0
58 ; 1.2810977984930826E7 ; 2.016358398633018E8 ; 7.252841221963718E8 ; 1.0058090253695595E10 ; 0.0
59 ; 1.2800935526973836E7 ; 2.0164844253965235E8 ; 7.380951001813027E8 ; 1.0259726093558897E10 ; 0.0
60 ; 1.2792433118947756E7 ; 2.016611687924651E8 ; 7.508960357082765E8 ; 1.0461374536098549E10 ; 0.0
61 ; 1.2783504914970417E7 ; 2.0167401423241076E8 ; 7.636884688272243E8 ; 1.0663035704891014E10 ; 0.0
62 ; 1.2770359089723831E7 ; 2.0168697458338845E8 ; 7.764719737421947E8 ; 1.0864709719123425E10 ; 0.0
63 ; 1.2761894645352667E7 ; 2.0170004568098056E8 ; 7.892423328319185E8 ; 1.1066396693706814E10 ; 0.0
64 ; 1.2750834025354616E7 ; 2.0171322347073156E8 ; 8.020042274772712E8 ; 1.1268096739387794E10 ; 0.0
65 ; 1.2738732242559787E7 ; 2.0172650400627586E8 ; 8.147550615026258E8 ; 1.1469809962858526E10 ; 0.0
66 ; 1.272863544113339E7 ; 2.0173988344733772E8 ; 8.274937937451856E8 ; 1.1671536466864801E10 ; 0.0
67 ; 1.271584457898859E7 ; 2.0175335805762494E8 ; 8.40222429186319E8 ; 1.187327635031214E10 ; 0.0
68 ; 1.2710033942463426E7 ; 2.017669242026356E8 ; 8.529382737653075E8 ; 1.2075029708369764E10 ; 0.0
69 ; 1.2693965130516926E7 ; 2.0178057834739515E8 ; 8.65648307707771E8 ; 1.22767966325724E10 ; 0.0
70 ; 1.2686181060769975E7 ; 2.0179431705414048E8 ; 8.783422728382878E8 ; 1.2478577210919794E10 ; 0.0
71 ; 1.2671263058931358E7 ; 2.018081369799643E8 ; 8.910284538990579E8 ; 1.2680371527973934E10 ; 0.0
72 ; 1.2663792168621322E7 ; 2.018220348744337E8 ; 9.036997169579892E8 ; 1.28821796649539E10 ; 0.0
73 ; 1.2653168058585783E7 ; 2.0183600757719356E8 ; 9.163635091266105E8 ; 1.3084001699828333E10 ; 0.0
74 ; 1.2635461236371052E7 ; 2.018500520155656E8 ; 9.290166771851963E8 ; 1.3285837707405527E10 ; 0.0
75 ; 1.2628677122607753E7 ; 2.018641652021517E8 ; 9.416521384215673E8 ; 1.3487687759421093E10 ; 0.0
76 ; 1.2617862227484567E7 ; 2.0187834423244947E8 ; 9.54280815544175E8 ; 1.3689551924623245E10 ; 0.0
77 ; 1.2607006421944475E7 ; 2.0189258628248766E8 ; 9.668986777716596E8 ; 1.3891430268855694E10 ; 0.0
78 ; 1.259398160756027E7 ; 2.0190688860648626E8 ; 9.795056841936041E8 ; 1.4093322855138182E10 ; 0.0
79 ; 1.2571953282925252E7 ; 2.0192124853454787E8 ; 9.920996658011644E8 ; 1.4295229743744667E10 ; 0.0
80 ; 1.255840153538379E7 ; 2.019356634703836E8 ; 1.0046716190840896E9 ; 1.4497150992279215E10 ; 0.0
81 ; 1.2540185809280679E7 ; 2.0195013088907862E8 ; 1.0172300206194735E9 ; 1.4699086655749598E10 ; 0.0
82 ; 1.2522183360380964E7 ; 2.0196464833489895E8 ; 1.0297702064287541E9 ; 1.4901036786638676E10 ; 0.0
83 ; 1.250515932136698E7 ; 2.0197921341914374E8 ; 1.0422923897891351E9 ; 1.5103001434973576E10 ; 0.0
84 ; 1.2490066752210993E7 ; 2.0199382381804398E8 ; 1.0547975491105021E9 ; 1.530498064839272E10 ; 0.0
85 ; 1.247626394782987E7 ; 2.0200847727071014E8 ; 1.0672876158627131E9 ; 1.5506974472210764E10 ; 0.0
86 ; 1.2461501218218477E7 ; 2.0202317157712936E8 ; 1.079763879810543E9 ; 1.5708982949481474E10 ; 0.0
87 ; 1.244092634388983E7 ; 2.020379045962137E8 ; 1.0922253810287616E9 ; 1.5911006121058603E10 ; 0.0
88 ; 1.2427329535691818E7 ; 2.0205267424389985E8 ; 1.1046663073726513E9 ; 1.6113044025654818E10 ; 0.0
89 ; 1.2410200261063246E7 ; 2.0206747849130058E8 ; 1.117093636908343E9 ; 1.6315096699898718E10 ; 0.0
90 ; 1.2391349200650468E7 ; 2.0208231536290824E8 ; 1.1295038371694064E9 ; 1.6517164178390018E10 ; 0.0
91 ; 1.2376462144841254E7 ; 2.0209718293484995E8 ; 1.1418951863700569E9 ; 1.6719246493752926E10 ; 0.0
92 ; 1.23565947695595E7 ; 2.0211207933319455E8 ; 1.154271648514898E9 ; 1.6921343676687777E10 ; 0.0
93 ; 1.2340376603245107E7 ; 2.0212700273231047E8 ; 1.1666282432844574E9 ; 1.7123455756020971E10 ; 0.0
94 ; 1.2324142803266603E7 ; 2.0214195135327426E8 ; 1.1789686198877025E9 ; 1.732558275875328E10 ; 0.0
95 ; 1.2307217997168068E7 ; 2.0215692346232882E8 ; 1.191292762690969E9 ; 1.7527724710106556E10 ; 0.0
96 ; 1.2289630605868125E7 ; 2.021719173693908E8 ; 1.203599980688137E9 ; 1.7729881633568886E10 ; 0.0
97 ; 1.22698965041367E7 ; 2.0218693142660594E8 ; 1.2158896112940052E9 ; 1.793205355093828E10 ; 0.0
98 ; 1.2250233347419988E7 ; 2.0220196402695176E8 ; 1.228159507798142E9 ; 1.8134240482364883E10 ; 0.0
99 ; 1.2237115710092153E7 ; 2.022170136028863E8 ; 1.240409741145562E9 ; 1.8336442446391834E10 ; 0.0
100 ; 1.2219231827988649E7 ; 2.0223207862504175E8 ; 1.252646856855654E9 ; 1.853865945999472E10 ; 0.0
101 ; 1.2199249186317127E7 ; 2.0224715760096267E8 ; 1.2648660886836426E9 ; 1.8740891538619762E10 ; 0.0
102 ; 1.2182911742995141E7 ; 2.0226224907388625E8 ; 1.2770653378699598E9 ; 1.8943138696220726E10 ; 0.0
103 ; 1.2164192174881155E7 ; 2.0227735162156495E8 ; 1.2892482496129549E9 ; 1.9145400945294613E10 ; 0.0
104 ; 1.214487011917086E7 ; 2.0229246385512954E8 ; 1.301412441787836E9 ; 1.934767829691618E10 ; 0.0
105 ; 1.2125330702347651E7 ; 2.0230758441799128E8 ; 1.313557311907007E9 ; 1.954997076077131E10 ; 0.0
106 ; 1.2111114672951363E7 ; 2.0232271198478264E8 ; 1.3256826426093547E9 ; 1.97522783451893E10 ; 0.0
107 ; 1.2088375374775866E7 ; 2.0233784526033512E8 ; 1.3377937572823062E9 ; 1.9954601057174084E10 ; 0.0
108 ; 1.2068180373114752E7 ; 2.0235298297869286E8 ; 1.349882132657082E9 ; 2.0156938902434418E10 ; 0.0
109 ; 1.2048921205307549E7 ; 2.0236812390216118E8 ; 1.361950313030197E9 ; 2.035929188541311E10 ; 0.0
110 ; 1.2031653943770709E7 ; 2.023832668203888E8 ; 1.3739992342355044E9 ; 2.056166000931527E10 ; 0.0
111 ; 1.201370895345835E7 ; 2.023984105494826E8 ; 1.386030888179275E9 ; 2.076404327613566E10 ; 0.0
112 ; 1.1994447504970811E7 ; 2.0241355393115413E8 ; 1.3980445971327333E9 ; 2.0966441686685143E10 ; 0.0
113 ; 1.1973301195361858E7 ; 2.024286958318963E8 ; 1.4100390446377041E9 ; 2.1168855240616295E10 ; 0.0
114 ; 1.1954939894883052E7 ; 2.024438351421897E8 ; 1.422012345833066E9 ; 2.1371283936448193E10 ; 0.0
115 ; 1.1936835216357974E7 ; 2.024589707757373E8 ; 1.4339672857279491E9 ; 2.157372777159038E10 ; 0.0
116 ; 1.1918693438282056E7 ; 2.0247410166872647E8 ; 1.445904120944307E9 ; 2.177618674236612E10 ; 0.0
117 ; 1.190088956186764E7 ; 2.0248922677911785E8 ; 1.457822814382589E9 ; 2.1978660844034847E10 ; 0.0
118 ; 1.1877147309593868E7 ; 2.025043450859592E8 ; 1.4697237039444568E9 ; 2.2181150070813965E10 ; 0.0
119 ; 1.1855960874175917E7 ; 2.0251945558872437E8 ; 1.4816008512540507E9 ; 2.2383654415899925E10 ; 0.0
120 ; 1.1839670080333497E7 ; 2.0253455730667585E8 ; 1.4934568121282268E9 ; 2.258617387148865E10 ; 0.0
121 ; 1.181704538300471E7 ; 2.025496492782502E8 ; 1.5052964822085602E9 ; 2.2788708428795326E10 ; 0.0
122 ; 1.1793427228493243E7 ; 2.025647305604655E8 ; 1.517113527591565E9 ; 2.2991258078073578E10 ; 0.0
123 ; 1.1775562927559284E7 ; 2.0257980022835046E8 ; 1.528906954820058E9 ; 2.3193822808634045E10 ; 0.0
124 ; 1.175814412843683E7 ; 2.0259485737439334E8 ; 1.5406825177476175E9 ; 2.3396402608862396E10 ; 0.0
125 ; 1.1735732735021036E7 ; 2.026099011080113E8 ; 1.5524406618760543E9 ; 2.359899746623679E10 ; 0.0
126 ; 1.171573243183757E7 ; 2.0262493055503833E8 ; 1.5641763946110754E9 ; 2.3801607367344803E10 ; 0.0
127 ; 1.1693371839871299E7 ; 2.0263994485723177E8 ; 1.575892127042913E9 ; 2.400423229789984E10 ; 0.0
128 ; 1.1671087495561944E7 ; 2.0265494317179623E8 ; 1.5875854988827844E9 ; 2.4206872242757072E10 ; 0.0
129 ; 1.1652923214947097E7 ; 2.0266992467092475E8 ; 1.5992565863783462E9 ; 2.4409527185928867E10 ; 0.0
130 ; 1.1630101982814342E7 ; 2.0268488854135618E8 ; 1.6109095095932932E9 ; 2.4612197110599792E10 ; 0.0
131 ; 1.1602756119350549E7 ; 2.0269983398394832E8 ; 1.6225396115761075E9 ; 2.4814881999141148E10 ; 0.0
132 ; 1.1577155277833158E7 ; 2.0271476021326625E8 ; 1.634142367695458E9 ; 2.5017581833125095E10 ; 0.0
133 ; 1.1554629487682912E7 ; 2.0272966645718533E8 ; 1.6457195229732912E9 ; 2.522029659333836E10 ; 0.0
134 ; 1.1525332260420697E7 ; 2.027445519565081E8 ; 1.657274152460974E9 ; 2.5423026259795544E10 ; 0.0
135 ; 1.150465334924658E7 ; 2.0275941596459496E8 ; 1.6687994847213948E9 ; 2.5625770811752052E10 ; 0.0
136 ; 1.1477419797010822E7 ; 2.0277425774700764E8 ; 1.6803041380706413E9 ; 2.582853022771665E10 ; 0.0
137 ; 1.1454844787003433E7 ; 2.0278907658116534E8 ; 1.6917815578676522E9 ; 2.6031304485463657E10 ; 0.0
138 ; 1.1424475347109718E7 ; 2.0280387175601298E8 ; 1.7032364026546557E9 ; 2.6234093562044823E10 ; 0.0
139 ; 1.139772627560471E7 ; 2.0281864257170096E8 ; 1.7146608780017655E9 ; 2.6436897433800835E10 ; 0.0
140 ; 1.1374890769560592E7 ; 2.0283338833927634E8 ; 1.7260586042773702E9 ; 2.6639716076372536E10 ; 0.0
141 ; 1.134610507657755E7 ; 2.0284810838038447E8 ; 1.7374334950469308E9 ; 2.684254946471181E10 ; 0.0
142 ; 1.1321108487018047E7 ; 2.028628020269814E8 ; 1.7487796001235085E9 ; 2.7045397573092197E10 ; 0.0
143 ; 1.1295044794533972E7 ; 2.0287746862105587E8 ; 1.7601007086105266E9 ; 2.724826037511918E10 ; 0.0
144 ; 1.1269547080505062E7 ; 2.028921075143613E8 ; 1.7713957534050605E9 ; 2.7451137843740234E10 ; 0.0
145 ; 1.1249660874694156E7 ; 2.0290671806815675E8 ; 1.7826653004855657E9 ; 2.7654029951254597E10 ; 0.0
146 ; 1.1226687147107441E7 ; 2.0292129965295708E8 ; 1.7939149613602598E9 ; 2.7856936669322754E10 ; 0.0
147 ; 1.1204320175696427E7 ; 2.0293585164829144E8 ; 1.8051416485073671E9 ; 2.805985796897571E10 ; 0.0
148 ; 1.1181425462662393E7 ; 2.029503734424703E8 ; 1.8163459686830635E9 ; 2.8262793820624004E10 ; 0.0
149 ; 1.1165141133693067E7 ; 2.0296486443236014E8 ; 1.827527394145726E9 ; 2.8465744194066475E10 ; 0.0
150 ; 1.1138841110495975E7 ; 2.0297932402316624E8 ; 1.838692535279419E9 ; 2.8668709058498837E10 ; 0.0
151 ; 1.1119260688544968E7 ; 2.029937516282224E8 ; 1.849831376389915E9 ; 2.8871688382522003E10 ; 0.0
152 ; 1.1094546087421507E7 ; 2.030081466687882E8 ; 1.86095063707846E9 ; 2.9074682134150227E10 ; 0.0
153 ; 1.1071751785638008E7 ; 2.0302250857385293E8 ; 1.8720451831658814E9 ; 2.9277690280819016E10 ; 0.0
154 ; 1.10545841918699E7 ; 2.030368367799461E8 ; 1.8831169349515195E9 ; 2.9480712789392868E10 ; 0.0
155 ; 1.1033514859703941E7 ; 2.0305113073095438E8 ; 1.8941715191433895E9 ; 2.9683749626172813E10 ; 0.0
156 ; 1.1007900467280334E7 ; 2.030653898779449E8 ; 1.9052050340030935E9 ; 2.9886800756903767E10 ; 0.0
157 ; 1.098425383046226E7 ; 2.0307961367899403E8 ; 1.9162129344703739E9 ; 3.008986614678171E10 ; 0.0
158 ; 1.0966334893679708E7 ; 2.0309380159902224E8 ; 1.927197188300836E9 ; 3.0292945760460705E10 ; 0.0
159 ; 1.0943127834426278E7 ; 2.031079531096344E8 ; 1.9381635231945157E9 ; 3.0496039562059727E10 ; 0.0
160 ; 1.0921970273389468E7 ; 2.0312206768896517E8 ; 1.9491066510289419E9 ; 3.069914751516936E10 ; 0.0
161 ; 1.0897632435076816E7 ; 2.0313614482152984E8 ; 1.9600286213023314E9 ; 3.0902269582858326E10 ; 0.0
162 ; 1.0874026338635938E7 ; 2.0315018399807987E8 ; 1.9709262537374082E9 ; 3.1105405727679855E10 ; 0.0
163 ; 1.0854897326197986E7 ; 2.0316418471546313E8 ; 1.981800280076044E9 ; 3.1308555911677937E10 ; 0.0
164 ; 1.0832471861246854E7 ; 2.0317814647648913E8 ; 1.9926551774022422E9 ; 3.15117200963934E10 ; 0.0
165 ; 1.0808097175660292E7 ; 2.0319206878979808E8 ; 2.003487649263489E9 ; 3.171489824286989E10 ; 0.0
166 ; 1.0785894146107808E7 ; 2.0320595116973478E8 ; 2.0142957464391494E9 ; 3.1918090311659687E10 ; 0.0
167 ; 1.0764637308983216E7 ; 2.0321979313622627E8 ; 2.0250816405852573E9 ; 3.2121296262829422E10 ; 0.0
168 ; 1.0739406496228712E7 ; 2.0323359421466357E8 ; 2.0358462778942406E9 ; 3.232451605596565E10 ; 0.0
169 ; 1.0721068167186566E7 ; 2.0324735393578732E8 ; 2.0465856843904693E9 ; 3.2527749650180313E10 ; 0.0
170 ; 1.0698795625998868E7 ; 2.03261071835577E8 ; 2.0573067525576558E9 ; 3.27309970041161E10 ; 0.0
171 ; 1.0676566605152825E7 ; 2.0327474745514378E8 ; 2.0680055481836548E9 ; 3.2934258075951675E10 ; 0.0
172 ; 1.0651841246221254E7 ; 2.0328838034062687E8 ; 2.0786821147888076E9 ; 3.313753282340682E10 ; 0.0
173 ; 1.0631830533889612E7 ; 2.03301970043093E8 ; 2.089333956035029E9 ; 3.3340821203747444E10 ; 0.0
174 ; 1.0611841895646695E7 ; 2.033155161184395E8 ; 2.0999657865689185E9 ; 3.354412317379054E10 ; 0.0
175 ; 1.0593861866987292E7 ; 2.0332901812729996E8 ; 2.1105776284645653E9 ; 3.3747438689908978E10 ; 0.0
176 ; 1.057396006281742E7 ; 2.033424756349534E8 ; 2.1211714903315525E9 ; 3.3950767708036278E10 ; 0.0
177 ; 1.0554795515193842E7 ; 2.033558882112359E8 ; 2.1317454503943698E9 ; 3.415411018367123E10 ; 0.0
178 ; 1.0534810093236934E7 ; 2.0336925543045542E8 ; 2.1423002459095638E9 ; 3.4357466071882465E10 ; 0.0
179 ; 1.0514901206222458E7 ; 2.033825768713089E8 ; 2.152835056002801E9 ; 3.456083532731292E10 ; 0.0
180 ; 1.0494415486583337E7 ; 2.033958521168023E8 ; 2.1633499572090235E9 ; 3.476421790418423E10 ; 0.0
181 ; 1.047705362673824E7 ; 2.034090807541731E8 ; 2.1738443726956067E9 ; 3.496761375630103E10 ; 0.0
182 ; 1.045675189621324E7 ; 2.0342226237481508E8 ; 2.184321426322345E9 ; 3.517102283705521E10 ; 0.0
183 ; 1.043643153009383E7 ; 2.034353965742056E8 ; 2.194778178218558E9 ; 3.537444509943002E10 ; 0.0
184 ; 1.0420778325325834E7 ; 2.0344848295183504E8 ; 2.2052146097486515E9 ; 3.557788049600423E10 ; 0.0
185 ; 1.039950799541892E7 ; 2.0346152111113852E8 ; 2.2156353880739775E9 ; 3.578132897895606E10 ; 0.0
186 ; 1.037982091127307E7 ; 2.0347451065942988E8 ; 2.2260348960693965E9 ; 3.59847905000672E10 ; 0.0
187 ; 1.0362100736398522E7 ; 2.0348745120783722E8 ; 2.2364147169806695E9 ; 3.618826501072663E10 ; 0.0
188 ; 1.0342097083001964E7 ; 2.0350034237124115E8 ; 2.246776817717068E9 ; 3.639175246193447E10 ; 0.0
189 ; 1.0320701800114604E7 ; 2.0351318376821423E8 ; 2.2571189148000703E9 ; 3.659525280430571E10 ; 0.0
190 ; 1.030240313905635E7 ; 2.0352597502096277E8 ; 2.267439616600185E9 ; 3.679876598807392E10 ; 0.0
191 ; 1.0283394923597155E7 ; 2.0353871575527033E8 ; 2.277742019739241E9 ; 3.700229196309489E10 ; 0.0
192 ; 1.0263682313564865E7 ; 2.035514056004427E8 ; 2.2880254146628385E9 ; 3.720583067885016E10 ; 0.0
193 ; 1.0244739911218481E7 ; 2.0356404418925488E8 ; 2.298289096976403E9 ; 3.74093820844506E10 ; 0.0
194 ; 1.0229092192451129E7 ; 2.0357663115789947E8 ; 2.308533836887622E9 ; 3.7612946128639854E10 ; 0.0
195 ; 1.0205800337937916E7 ; 2.0358916614593682E8 ; 2.318762929080073E9 ; 3.781652275979775E10 ; 0.0
