CSV File for the City 4 on Day 77
1 - Minute m 
2 - Power Consumed at minute m 
3 - Power Produced at minute m 
4 - Energy Consumed since the beginning of the day 
5 - Energy Produced since the beginning of the day 
6 - Energy Lost since the beginning of the day on lines starting from the city
 
0 ; 6816704.679684881 ; 1.0610226743154243E8 ; 0.0 ; 0.0 ; 0.0
1 ; 6827448.757621048 ; 1.0625275569590575E8 ; 6816704.679684881 ; 1.0610226743154243E8 ; 0.0
2 ; 6832078.46547883 ; 1.0671227525525996E8 ; 1.364415343730593E7 ; 2.1235502312744817E8 ; 0.0
3 ; 6841257.899041282 ; 1.0748083069486827E8 ; 2.0476231902784757E7 ; 3.1906729838270813E8 ; 0.0
4 ; 6853237.275760096 ; 1.0855842613146186E8 ; 2.7317489801826037E7 ; 4.265481290775764E8 ; 0.0
5 ; 6864785.539761599 ; 1.0994506518790627E8 ; 3.417072707758613E7 ; 5.3510655520903826E8 ; 0.0
6 ; 6877265.336260623 ; 1.116407509704291E8 ; 4.103551261734773E7 ; 6.450516203969445E8 ; 0.0
7 ; 6904651.581021452 ; 1.1364548604873717E8 ; 4.791277795360836E7 ; 7.566923713673736E8 ; 0.0
8 ; 6934150.552060516 ; 1.1595927243931764E8 ; 5.481742953462981E7 ; 8.703378574161108E8 ; 0.0
9 ; 6986684.55130676 ; 1.1858211159217364E8 ; 6.175158008669032E7 ; 9.862971298554285E8 ; 0.0
10 ; 7064057.748668608 ; 1.2151400438119996E8 ; 6.873826463799708E7 ; 1.104879241447602E9 ; 0.0
11 ; 7186256.76545629 ; 1.247549510983465E8 ; 7.580232238666569E7 ; 1.226393245828802E9 ; 0.0
12 ; 7384708.674151198 ; 1.2830495145166335E8 ; 8.298857915212198E7 ; 1.3511481969271486E9 ; 0.0
13 ; 7575914.342789425 ; 1.3216400456725568E8 ; 9.037328782627317E7 ; 1.4794531483788118E9 ; 0.0
14 ; 7597151.2758128345 ; 1.3633210899512047E8 ; 9.79492021690626E7 ; 1.6116171529460676E9 ; 0.0
15 ; 7608523.639864764 ; 1.4080926271877044E8 ; 1.0554635344487543E8 ; 1.747949261941188E9 ; 0.0
16 ; 7612958.79004595 ; 1.455954631684989E8 ; 1.1315487708474019E8 ; 1.8887585246599586E9 ; 0.0
17 ; 7624397.257886314 ; 1.5069070723807815E8 ; 1.2076783587478614E8 ; 2.0343539878284576E9 ; 0.0
18 ; 7631755.324179357 ; 1.5609499130464268E8 ; 1.2839223313267246E8 ; 2.185044695066536E9 ; 0.0
19 ; 7642361.567603058 ; 1.618083112514613E8 ; 1.360239884568518E8 ; 2.3411396863711786E9 ; 0.0
20 ; 7650445.768913047 ; 1.6783066249327078E8 ; 1.4366635002445486E8 ; 2.50294799762264E9 ; 0.0
21 ; 7660789.7502094405 ; 1.741620400038179E8 ; 1.5131679579336792E8 ; 2.670778660115911E9 ; 0.0
22 ; 7667832.429906967 ; 1.808024383452388E8 ; 1.5897758554357737E8 ; 2.844940700119729E9 ; 0.0
23 ; 7677390.484565193 ; 1.87751851698896E8 ; 1.6664541797348434E8 ; 3.0257431384649677E9 ; 0.0
24 ; 7686740.979827292 ; 1.9501027389729214E8 ; 1.7432280845804954E8 ; 3.2134949901638637E9 ; 0.0
25 ; 7695549.037485471 ; 2.0126573935487252E8 ; 1.8200954943787682E8 ; 3.408505264061156E9 ; 0.0
26 ; 7700381.014411277 ; 2.0127178913788322E8 ; 1.897050984753623E8 ; 3.6097710034160285E9 ; 0.0
27 ; 7711704.913241549 ; 2.0127818552224225E8 ; 1.9740547948977357E8 ; 3.8110427925539117E9 ; 0.0
28 ; 7717333.5836675055 ; 2.012849212729697E8 ; 2.051171844030151E8 ; 4.0123209780761538E9 ; 0.0
29 ; 7728297.168911312 ; 2.0129198896949363E8 ; 2.1283451798668262E8 ; 4.2136058993491235E9 ; 0.0
30 ; 7739199.122530136 ; 2.01299381036859E8 ; 2.2056281515559393E8 ; 4.414897888318617E9 ; 0.0
31 ; 7746890.963487104 ; 2.013070897758623E8 ; 2.2830201427812406E8 ; 4.616197269355475E9 ; 0.0
32 ; 7753185.340758321 ; 2.0131510739192295E8 ; 2.3604890524161118E8 ; 4.817504359131338E9 ; 0.0
33 ; 7760923.78447672 ; 2.0132342602253714E8 ; 2.438020905823695E8 ; 5.018819466523261E9 ; 0.0
34 ; 7769424.625605632 ; 2.0133203776319107E8 ; 2.5156301436684623E8 ; 5.220142892545798E9 ; 0.0
35 ; 7773549.108017109 ; 2.0134093469164327E8 ; 2.5933243899245188E8 ; 5.42147493030899E9 ; 0.0
36 ; 7781694.649057638 ; 2.0135010889051363E8 ; 2.67105988100469E8 ; 5.622815865000633E9 ; 0.0
37 ; 7787189.531781031 ; 2.013595524681445E8 ; 2.748876827495266E8 ; 5.824165973891147E9 ; 0.0
38 ; 7794928.937725923 ; 2.0136925757772294E8 ; 2.8267487228130764E8 ; 6.025525526359291E9 ; 0.0
39 ; 7799448.709521345 ; 2.0137921643467456E8 ; 2.9046980121903354E8 ; 6.226894783937014E9 ; 0.0
40 ; 7806350.427473468 ; 2.0138942133235854E8 ; 2.982692499285549E8 ; 6.428274000371688E9 ; 0.0
41 ; 7814794.234146142 ; 2.0139986465610817E8 ; 3.060756003560284E8 ; 6.629663421704046E9 ; 0.0
42 ; 7819241.2841152605 ; 2.0141053889567536E8 ; 3.138903945901745E8 ; 6.831063286360154E9 ; 0.0
43 ; 7823778.003082786 ; 2.014214366561471E8 ; 3.2170963587428975E8 ; 7.03247382525583E9 ; 0.0
44 ; 7829329.793139801 ; 2.0143255066741058E8 ; 3.2953341387737256E8 ; 7.233895261911977E9 ; 0.0
45 ; 7836532.081700242 ; 2.0144387379224926E8 ; 3.373627436705124E8 ; 7.435327812579388E9 ; 0.0
46 ; 7835960.694811799 ; 2.0145539903315598E8 ; 3.4519927575221264E8 ; 7.636771686371637E9 ; 0.0
47 ; 7841957.688163568 ; 2.0146711953795165E8 ; 3.5303523644702446E8 ; 7.838227085404794E9 ; 0.0
48 ; 7841622.243620664 ; 2.014790286042991E8 ; 3.6087719413518804E8 ; 8.039694204942745E9 ; 0.0
49 ; 7847173.193322974 ; 2.0149111968320006E8 ; 3.6871881637880874E8 ; 8.241173233547045E9 ; 0.0
50 ; 7850272.287178056 ; 2.0150338638156283E8 ; 3.765659895721317E8 ; 8.442664353230245E9 ; 0.0
51 ; 7852195.110922095 ; 2.01515822463925E8 ; 3.8441626185930973E8 ; 8.644167739611807E9 ; 0.0
52 ; 7853157.00746197 ; 2.015284218534128E8 ; 3.9226845697023183E8 ; 8.845683562075731E9 ; 0.0
53 ; 7857339.95152518 ; 2.0154117863201466E8 ; 4.001216139776938E8 ; 9.047211983929144E9 ; 0.0
54 ; 7856977.699058541 ; 2.0155408704024273E8 ; 4.0797895392921895E8 ; 9.24875316256116E9 ; 0.0
55 ; 7861172.7387504205 ; 2.0156714147625196E8 ; 4.158359316282775E8 ; 9.450307249601402E9 ; 0.0
56 ; 7863521.015253632 ; 2.0158033649448124E8 ; 4.236971043670279E8 ; 9.651874391077654E9 ; 0.0
57 ; 7865420.518482537 ; 2.0159366680387756E8 ; 4.315606253822815E8 ; 9.853454727572136E9 ; 0.0
58 ; 7867907.383763414 ; 2.016071272657585E8 ; 4.3942604590076405E8 ; 1.0055048394376013E10 ; 0.0
59 ; 7869405.8965598475 ; 2.0162071289136502E8 ; 4.472939532845275E8 ; 1.0256655521641771E10 ; 0.0
60 ; 7869931.059770782 ; 2.0163441883915132E8 ; 4.551633591810873E8 ; 1.0458276234533136E10 ; 0.0
61 ; 7868512.514635124 ; 2.0164824041185504E8 ; 4.630332902408581E8 ; 1.0659910653372288E10 ; 0.0
62 ; 7874935.221595968 ; 2.016621730533865E8 ; 4.709018027554932E8 ; 1.0861558893784143E10 ; 0.0
63 ; 7872697.402070146 ; 2.0167621234557262E8 ; 4.7877673797708917E8 ; 1.106322106683753E10 ; 0.0
64 ; 7878515.236324707 ; 2.016903540047867E8 ; 4.8664943537915933E8 ; 1.1264897279183104E10 ; 0.0
65 ; 7877003.6693143975 ; 2.0170459387849316E8 ; 4.9452795061548406E8 ; 1.1466587633187891E10 ; 0.0
66 ; 7879760.249878815 ; 2.0171892794173166E8 ; 5.0240495428479844E8 ; 1.1668292227066383E10 ; 0.0
67 ; 7879201.600831733 ; 2.0173335229356396E8 ; 5.1028471453467727E8 ; 1.1870011155008116E10 ; 0.0
68 ; 7882039.924675966 ; 2.0174786315350246E8 ; 5.18163916135509E8 ; 1.207174450730168E10 ; 0.0
69 ; 7882021.272506076 ; 2.017624568579385E8 ; 5.2604595606018496E8 ; 1.2273492370455181E10 ; 0.0
70 ; 7884086.241121268 ; 2.0177712985658503E8 ; 5.33927977332691E8 ; 1.247525482731312E10 ; 0.0
71 ; 7883921.38091562 ; 2.0179187870894715E8 ; 5.418120635738122E8 ; 1.2677031957169704E10 ; 0.0
72 ; 7887174.077367366 ; 2.0180670008083183E8 ; 5.496959849547279E8 ; 1.287882383587865E10 ; 0.0
73 ; 7886735.57745695 ; 2.01821590740906E8 ; 5.575831590320953E8 ; 1.3080630535959482E10 ; 0.0
74 ; 7888453.5651557855 ; 2.0183654755731186E8 ; 5.654698946095523E8 ; 1.3282452126700388E10 ; 0.0
75 ; 7890860.2578773815 ; 2.0185156749434566E8 ; 5.73358348174708E8 ; 1.34842886742577E10 ; 0.0
76 ; 7888321.27320701 ; 2.0186664760920587E8 ; 5.812492084325854E8 ; 1.3686140241752045E10 ; 0.0
77 ; 7889368.023813605 ; 2.018817850488153E8 ; 5.891375297057924E8 ; 1.388800688936125E10 ; 0.0
78 ; 7885221.868020316 ; 2.0189697704672056E8 ; 5.97026897729606E8 ; 1.4089888674410065E10 ; 0.0
79 ; 7885653.914618359 ; 2.019122209200717E8 ; 6.049121195976263E8 ; 1.4291785651456785E10 ; 0.0
80 ; 7885810.334753102 ; 2.0192751406668442E8 ; 6.127977735122447E8 ; 1.4493697872376858E10 ; 0.0
81 ; 7882151.556941262 ; 2.019428539621855E8 ; 6.206835838469979E8 ; 1.4695625386443542E10 ; 0.0
82 ; 7879612.88148859 ; 2.0195823815724298E8 ; 6.285657354039391E8 ; 1.4897568240405727E10 ; 0.0
83 ; 7877243.61101798 ; 2.019736642748808E8 ; 6.364453482854277E8 ; 1.5099526478562971E10 ; 0.0
84 ; 7873865.587025656 ; 2.0198913000787818E8 ; 6.443225918964456E8 ; 1.5301500142837852E10 ; 0.0
85 ; 7874198.8488853825 ; 2.020046331162532E8 ; 6.521964574834713E8 ; 1.550348927284573E10 ; 0.0
86 ; 7869675.456764356 ; 2.0202017142482927E8 ; 6.600706563323567E8 ; 1.5705493905961983E10 ; 0.0
87 ; 7867727.90894702 ; 2.020357428208844E8 ; 6.67940331789121E8 ; 1.5907514077386812E10 ; 0.0
88 ; 7866326.120295023 ; 2.020513452518807E8 ; 6.75808059698068E8 ; 1.6109549820207697E10 ; 0.0
89 ; 7860191.756722794 ; 2.0206697672327393E8 ; 6.836743858183631E8 ; 1.6311601165459578E10 ; 0.0
90 ; 7861047.699485801 ; 2.020826352964002E8 ; 6.915345775750859E8 ; 1.6513668142182852E10 ; 0.0
91 ; 7859670.19188874 ; 2.0209831908643907E8 ; 6.993956252745717E8 ; 1.6715750777479252E10 ; 0.0
92 ; 7855484.695933481 ; 2.0211402626045066E8 ; 7.072552954664603E8 ; 1.6917849096565691E10 ; 0.0
93 ; 7850008.888610426 ; 2.021297550354848E8 ; 7.151107801623938E8 ; 1.7119963122826141E10 ; 0.0
94 ; 7850013.862770036 ; 2.0214550367676026E8 ; 7.229607890510043E8 ; 1.7322092877861626E10 ; 0.0
95 ; 7844420.485344194 ; 2.0216127049591255E8 ; 7.308108029137744E8 ; 1.7524238381538387E10 ; 0.0
96 ; 7843600.220395136 ; 2.021770538493072E8 ; 7.386552233991185E8 ; 1.77263996520343E10 ; 0.0
97 ; 7841430.674810205 ; 2.0219285213641727E8 ; 7.464988236195136E8 ; 1.792857670588361E10 ; 0.0
98 ; 7838000.436824723 ; 2.0220866379826292E8 ; 7.543402542943238E8 ; 1.8130769558020027E10 ; 0.0
99 ; 7831856.12089169 ; 2.022244873159105E8 ; 7.621782547311485E8 ; 1.833297822181829E10 ; 0.0
100 ; 7826766.989657264 ; 2.0224032120902964E8 ; 7.700101108520402E8 ; 1.85352027091342E10 ; 0.0
101 ; 7827630.875539514 ; 2.022561640345062E8 ; 7.778368778416975E8 ; 1.873744303034323E10 ; 0.0
102 ; 7823874.654526615 ; 2.0227201438510883E8 ; 7.85664508717237E8 ; 1.893969919437774E10 ; 0.0
103 ; 7817043.813126294 ; 2.0228787088820755E8 ; 7.934883833717636E8 ; 1.9141971208762848E10 ; 0.0
104 ; 7816774.190947268 ; 2.0230373220454228E8 ; 8.013054271848899E8 ; 1.9344259079651054E10 ; 0.0
105 ; 7811036.98740709 ; 2.023195970270394E8 ; 8.091222013758372E8 ; 1.95465628118556E10 ; 0.0
106 ; 7807130.4148527095 ; 2.0233546407967487E8 ; 8.169332383632443E8 ; 1.9748882408882637E10 ; 0.0
107 ; 7805831.752829417 ; 2.023513321163815E8 ; 8.24740368778097E8 ; 1.995121787296231E10 ; 0.0
108 ; 7800163.427574742 ; 2.0236719991999942E8 ; 8.325462005309265E8 ; 2.0153569205078693E10 ; 0.0
109 ; 7795083.54156256 ; 2.0238306630126762E8 ; 8.403463639585012E8 ; 2.035593640499869E10 ; 0.0
110 ; 7792345.405416807 ; 2.02398930097855E8 ; 8.481414475000638E8 ; 2.0558319471299957E10 ; 0.0
111 ; 7787280.350163336 ; 2.0241479017342952E8 ; 8.559337929054806E8 ; 2.076071840139781E10 ; 0.0
112 ; 7782662.314167375 ; 2.0243064541676384E8 ; 8.63721073255644E8 ; 2.0963133191571243E10 ; 0.0
113 ; 7779428.81745889 ; 2.024464947408761E8 ; 8.715037355698113E8 ; 2.1165563836988007E10 ; 0.0
114 ; 7772286.98771356 ; 2.024623370822043E8 ; 8.792831643872702E8 ; 2.136801033172888E10 ; 0.0
115 ; 7770505.293054877 ; 2.024781713998131E8 ; 8.870554513749838E8 ; 2.1570472668811085E10 ; 0.0
116 ; 7769408.473343703 ; 2.0249399667463136E8 ; 8.948259566680386E8 ; 2.17729508402109E10 ; 0.0
117 ; 7760096.028689204 ; 2.0250981190872005E8 ; 9.025953651413823E8 ; 2.1975444836885532E10 ; 0.0
118 ; 7759396.190896924 ; 2.0252561612456805E8 ; 9.103554611700715E8 ; 2.2177954648794254E10 ; 0.0
119 ; 7751052.616437557 ; 2.025414083644158E8 ; 9.181148573609684E8 ; 2.2380480264918823E10 ; 0.0
120 ; 7747705.541477969 ; 2.025571876896052E8 ; 9.258659099774059E8 ; 2.2583021673283237E10 ; 0.0
121 ; 7741517.567274128 ; 2.0257295317995462E8 ; 9.336136155188838E8 ; 2.2785578860972843E10 ; 0.0
122 ; 7737734.938380744 ; 2.0258870393315804E8 ; 9.413551330861579E8 ; 2.2988151814152798E10 ; 0.0
123 ; 7732849.510364635 ; 2.0260443906420785E8 ; 9.490928680245386E8 ; 2.3190740518085957E10 ; 0.0
124 ; 7725943.077669683 ; 2.026201577048393E8 ; 9.568257175349033E8 ; 2.3393344957150166E10 ; 0.0
125 ; 7722955.425017567 ; 2.0263585900299683E8 ; 9.64551660612573E8 ; 2.3595965114855003E10 ; 0.0
126 ; 7716232.41578619 ; 2.0265154212232068E8 ; 9.722746160375906E8 ; 2.3798600973858E10 ; 0.0
127 ; 7711597.626093189 ; 2.026672062416531E8 ; 9.799908484533768E8 ; 2.4001252515980324E10 ; 0.0
128 ; 7707454.547413296 ; 2.0268285055456358E8 ; 9.877024460794699E8 ; 2.4203919722221977E10 ; 0.0
129 ; 7700195.440564815 ; 2.0269847426889208E8 ; 9.954099006268833E8 ; 2.4406602572776543E10 ; 0.0
130 ; 7692993.125327629 ; 2.027140766063095E8 ; 1.0031100960674481E9 ; 2.4609301047045433E10 ; 0.0
131 ; 7687376.240583714 ; 2.0272965680189517E8 ; 1.0108030891927757E9 ; 2.481201512365174E10 ; 0.0
132 ; 7680583.120744587 ; 2.027452141037298E8 ; 1.0184904654333594E9 ; 2.5014744780453636E10 ; 0.0
133 ; 7670198.553974737 ; 2.027607477725043E8 ; 1.026171048554104E9 ; 2.5217489994557365E10 ; 0.0
134 ; 7662169.810670222 ; 2.0277625708114272E8 ; 1.0338412471080787E9 ; 2.542025074232987E10 ; 0.0
135 ; 7652254.530852437 ; 2.0279174131443995E8 ; 1.041503416918749E9 ; 2.562302699941101E10 ; 0.0
136 ; 7647508.163671971 ; 2.0280719976871237E8 ; 1.0491556714496014E9 ; 2.5825818740725452E10 ; 0.0
137 ; 7639035.6364674065 ; 2.028226317514619E8 ; 1.0568031796132734E9 ; 2.6028625940494164E10 ; 0.0
138 ; 7630118.074755904 ; 2.0283803658105227E8 ; 1.0644422152497408E9 ; 2.6231448572245625E10 ; 0.0
139 ; 7619950.094229641 ; 2.028534135863975E8 ; 1.0720723333244967E9 ; 2.6434286608826675E10 ; 0.0
140 ; 7611903.439247847 ; 2.028687621066617E8 ; 1.0796922834187264E9 ; 2.6637140022413074E10 ; 0.0
141 ; 7601965.8544188645 ; 2.0288408149097E8 ; 1.0873041868579743E9 ; 2.6840008784519737E10 ; 0.0
142 ; 7594215.15137568 ; 2.028993710981298E8 ; 1.094906152712393E9 ; 2.7042892866010708E10 ; 0.0
143 ; 7585236.743646823 ; 2.0291463029636294E8 ; 1.1025003678637688E9 ; 2.7245792237108837E10 ; 0.0
144 ; 7576136.1733354805 ; 2.0292985846304658E8 ; 1.1100856046074157E9 ; 2.74487068674052E10 ; 0.0
145 ; 7569069.496471731 ; 2.029450549844644E8 ; 1.1176617407807512E9 ; 2.7651636725868248E10 ; 0.0
146 ; 7568081.824825006 ; 2.0296021925556633E8 ; 1.1252308102772229E9 ; 2.785458178085271E10 ; 0.0
147 ; 7559138.421726841 ; 2.0297535067973706E8 ; 1.132798892102048E9 ; 2.8057542000108276E10 ; 0.0
148 ; 7553590.968785405 ; 2.0299044866857287E8 ; 1.1403580305237749E9 ; 2.8260517350788013E10 ; 0.0
149 ; 7546605.083072563 ; 2.0300551264166647E8 ; 1.1479116214925604E9 ; 2.8463507799456585E10 ; 0.0
150 ; 7539225.358319691 ; 2.030205420263995E8 ; 1.155458226575633E9 ; 2.866651331209825E10 ; 0.0
151 ; 7533007.849321856 ; 2.0303553625774246E8 ; 1.1629974519339528E9 ; 2.886953385412465E10 ; 0.0
152 ; 7527834.150961437 ; 2.0305049477806178E8 ; 1.1705304597832747E9 ; 2.9072569390382393E10 ; 0.0
153 ; 7522464.29523585 ; 2.030654170369335E8 ; 1.178058293934236E9 ; 2.9275619885160454E10 ; 0.0
154 ; 7518572.369332623 ; 2.0308030249096385E8 ; 1.185580758229472E9 ; 2.9478685302197388E10 ; 0.0
155 ; 7508844.188858267 ; 2.0309515060361585E8 ; 1.1930993305988045E9 ; 2.968176560468835E10 ; 0.0
156 ; 7503800.603855032 ; 2.0310996084504214E8 ; 1.2006081747876627E9 ; 2.9884860755291965E10 ; 0.0
157 ; 7496021.042078088 ; 2.0312473269192362E8 ; 1.2081119753915179E9 ; 3.008797071613701E10 ; 0.0
158 ; 7491075.426244298 ; 2.0313946562731367E8 ; 1.215607996433596E9 ; 3.0291095448828934E10 ; 0.0
159 ; 7486844.650187226 ; 2.0315415914048782E8 ; 1.2230990718598402E9 ; 3.049423491445625E10 ; 0.0
160 ; 7477931.240885137 ; 2.031688127267986E8 ; 1.2305859165100274E9 ; 3.0697389073596737E10 ; 0.0
161 ; 7469792.044034757 ; 2.0318342588753545E8 ; 1.2380638477509124E9 ; 3.0900557886323536E10 ; 0.0
162 ; 7468982.421938349 ; 2.0319799812978932E8 ; 1.2455336397949471E9 ; 3.110374131221107E10 ; 0.0
163 ; 7458469.716964674 ; 2.0321252896632203E8 ; 1.2530026222168856E9 ; 3.130693931034086E10 ; 0.0
164 ; 7453030.8469818905 ; 2.0322701791544008E8 ; 1.2604610919338503E9 ; 3.1510151839307182E10 ; 0.0
165 ; 7446702.395875994 ; 2.0324146450087267E8 ; 1.2679141227808323E9 ; 3.1713378857222622E10 ; 0.0
166 ; 7437639.122959345 ; 2.03255868251654E8 ; 1.2753608251767082E9 ; 3.1916620321723495E10 ; 0.0
167 ; 7433631.036890216 ; 2.032702287020094E8 ; 1.2827984642996676E9 ; 3.211987618997515E10 ; 0.0
168 ; 7425625.194629919 ; 2.032845453912455E8 ; 1.2902320953365579E9 ; 3.2323146418677162E10 ; 0.0
169 ; 7420122.669009271 ; 2.0329881786364388E8 ; 1.2976577205311878E9 ; 3.252643096406841E10 ; 0.0
170 ; 7412861.401704995 ; 2.033130456683584E8 ; 1.305077843200197E9 ; 3.2729729781932053E10 ; 0.0
171 ; 7407512.218184821 ; 2.0332722835931596E8 ; 1.312490704601902E9 ; 3.293304282760041E10 ; 0.0
172 ; 7400335.697223447 ; 2.0334136549512073E8 ; 1.3198982168200867E9 ; 3.313637005595973E10 ; 0.0
173 ; 7396716.337737503 ; 2.033554566389612E8 ; 1.3272985525173101E9 ; 3.333971142145485E10 ; 0.0
174 ; 7391339.334937968 ; 2.0336950135852057E8 ; 1.3346952688550477E9 ; 3.354306687809381E10 ; 0.0
175 ; 7385131.425679225 ; 2.0338349922589013E8 ; 1.3420866081899858E9 ; 3.374643637945233E10 ; 0.0
176 ; 7381652.013700683 ; 2.0339744981748533E8 ; 1.349471739615665E9 ; 3.3949819878678223E10 ; 0.0
177 ; 7375976.726647087 ; 2.0341135271396488E8 ; 1.3568533916293657E9 ; 3.415321732849571E10 ; 0.0
178 ; 7370872.742203157 ; 2.0342520750015208E8 ; 1.3642293683560128E9 ; 3.4356628681209675E10 ; 0.0
179 ; 7367662.300085093 ; 2.0343901376495916E8 ; 1.371600241098216E9 ; 3.456005388870982E10 ; 0.0
180 ; 7366091.15320159 ; 2.0345277110131395E8 ; 1.3789679033983011E9 ; 3.4763492902474785E10 ; 0.0
181 ; 7360773.762494435 ; 2.034664791060887E8 ; 1.3863339945515027E9 ; 3.4966945673576096E10 ; 0.0
182 ; 7354006.910552722 ; 2.034801373800316E8 ; 1.393694768313997E9 ; 3.517041215268218E10 ; 0.0
183 ; 7349954.193747377 ; 2.034937455277002E8 ; 1.4010487752245498E9 ; 3.537389229006221E10 ; 0.0
184 ; 7346210.602563654 ; 2.0350730315739718E8 ; 1.408398729418297E9 ; 3.557738603558991E10 ; 0.0
185 ; 7344758.143115619 ; 2.0352080988110822E8 ; 1.4157449400208607E9 ; 3.578089333874731E10 ; 0.0
186 ; 7336468.39987688 ; 2.0353426531444156E8 ; 1.4230896981639762E9 ; 3.598441414862842E10 ; 0.0
187 ; 7336463.0009340355 ; 2.0354766907656989E8 ; 1.430426166563853E9 ; 3.6187948413942856E10 ; 0.0
188 ; 7330508.739102966 ; 2.0356102079017377E8 ; 1.4377626295647871E9 ; 3.6391496083019424E10 ; 0.0
189 ; 7330029.494387209 ; 2.0357432008138722E8 ; 1.4450931383038902E9 ; 3.65950571038096E10 ; 0.0
190 ; 7323649.502348063 ; 2.0358756657974467E8 ; 1.4524231677982774E9 ; 3.679863142389099E10 ; 0.0
191 ; 7318629.939136359 ; 2.0360075991812983E8 ; 1.4597468173006253E9 ; 3.700221899047073E10 ; 0.0
192 ; 7314853.953207986 ; 2.0361389973272616E8 ; 1.4670654472397616E9 ; 3.720581975038886E10 ; 0.0
193 ; 7309957.65729363 ; 2.0362698566296878E8 ; 1.4743803011929696E9 ; 3.740943365012159E10 ; 0.0
194 ; 7307985.841905731 ; 2.0364001735149807E8 ; 1.481690258850263E9 ; 3.761306063578456E10 ; 0.0
195 ; 7299666.689584808 ; 2.0365299444411466E8 ; 1.488998244692169E9 ; 3.781670065313606E10 ; 0.0
196 ; 7297411.884095506 ; 2.0366591658973572E8 ; 1.4962979113817537E9 ; 3.802035364758018E10 ; 0.0
197 ; 7291391.122231802 ; 2.0367878344035295E8 ; 1.503595323265849E9 ; 3.8224019564169914E10 ; 0.0
198 ; 7290450.039379457 ; 2.0369159465099147E8 ; 1.5108867143880808E9 ; 3.842769834761027E10 ; 0.0
199 ; 7281992.037513742 ; 2.0370434987967038E8 ; 1.5181771644274602E9 ; 3.863138994226126E10 ; 0.0
200 ; 7281049.9353434425 ; 1.84831298239482E8 ; 1.525459156464974E9 ; 3.883509429214093E10 ; 0.0
201 ; 7274206.823032284 ; 1.5488969781911013E8 ; 1.5327402064003174E9 ; 3.901992559038041E10 ; 0.0
