CSV File for the City 3 on Day 176
1 - Minute m 
2 - Power Consumed at minute m 
3 - Power Produced at minute m 
4 - Energy Consumed since the beginning of the day 
5 - Energy Produced since the beginning of the day 
6 - Energy Lost since the beginning of the day on lines starting from the city
 
0 ; 641935.4919220558 ; 1.054988313235608E8 ; 0.0 ; 0.0 ; 0.0
1 ; 643907.6019315695 ; 1.0565175432852137E8 ; 641935.4919220558 ; 1.054988313235608E8 ; 0.0
2 ; 645805.4547962738 ; 1.0611346122981033E8 ; 1285843.0938536255 ; 2.1115058565208218E8 ; 0.0
3 ; 648882.2691029103 ; 1.0688395372606552E8 ; 1931648.5486498992 ; 3.172640468818925E8 ; 0.0
4 ; 651988.3622263717 ; 1.0796323334280777E8 ; 2580530.8177528093 ; 4.24148000607958E8 ; 0.0
5 ; 655521.9658291938 ; 1.0935130142290246E8 ; 3232519.179979181 ; 5.321112339507658E8 ; 0.0
6 ; 661968.0166537041 ; 1.1104815911797926E8 ; 3888041.1458083745 ; 6.414625353736682E8 ; 0.0
7 ; 668823.0368797993 ; 1.1305380738093692E8 ; 4550009.162462079 ; 7.525106944916475E8 ; 0.0
8 ; 679599.0654947239 ; 1.1536824695964545E8 ; 5218832.199341878 ; 8.655645018725843E8 ; 0.0
9 ; 695273.0734891142 ; 1.1799147839194167E8 ; 5898431.264836602 ; 9.809327488322299E8 ; 0.0
10 ; 722515.2102837408 ; 1.20923502001997E8 ; 6593704.338325717 ; 1.0989242272241716E9 ; 0.0
11 ; 763021.6457610149 ; 1.2416431789811453E8 ; 7316219.548609457 ; 1.2198477292261686E9 ; 0.0
12 ; 828861.2504099126 ; 1.2771392597199115E8 ; 8079241.194370472 ; 1.344012047124283E9 ; 0.0
13 ; 890856.6521549893 ; 1.3157232589945543E8 ; 8908102.444780385 ; 1.4717259730962741E9 ; 0.0
14 ; 898248.1270753997 ; 1.3573951714267063E8 ; 9798959.096935375 ; 1.6032982989957294E9 ; 0.0
15 ; 901818.3824521883 ; 1.4021549895376664E8 ; 1.0697207224010775E7 ; 1.7390378161384E9 ; 0.0
16 ; 905179.8034872306 ; 1.450002703798448E8 ; 1.1599025606462963E7 ; 1.8792533150921667E9 ; 0.0
17 ; 906894.3425581952 ; 1.500938302692754E8 ; 1.2504205409950193E7 ; 2.0242535854720116E9 ; 0.0
18 ; 910277.4518991667 ; 1.5549617727919304E8 ; 1.3411099752508389E7 ; 2.1743474157412868E9 ; 0.0
19 ; 911194.4299853768 ; 1.6120730988407692E8 ; 1.4321377204407556E7 ; 2.3298435930204797E9 ; 0.0
20 ; 915197.0753759684 ; 1.6722722638528916E8 ; 1.5232571634392932E7 ; 2.4910509029045568E9 ; 0.0
21 ; 919535.3520517112 ; 1.7355592492143837E8 ; 1.61477687097689E7 ; 2.658278129289846E9 ; 0.0
22 ; 922885.1935053541 ; 1.801934034794249E8 ; 1.706730406182061E7 ; 2.831834054211284E9 ; 0.0
23 ; 925118.8415623421 ; 1.8713965990602398E8 ; 1.7990189255325966E7 ; 3.012027457690709E9 ; 0.0
24 ; 927349.2757893256 ; 1.943946919198622E8 ; 1.8915308096888307E7 ; 3.199167117596733E9 ; 0.0
25 ; 930845.9530128317 ; 2.0064653802182865E8 ; 1.984265737267763E7 ; 3.3935618095165954E9 ; 0.0
26 ; 934029.0284376099 ; 2.0064874354431343E8 ; 2.0773503325690463E7 ; 3.594208347538424E9 ; 0.0
27 ; 936530.8144599105 ; 2.0065107518844077E8 ; 2.1707532354128074E7 ; 3.7948570910827374E9 ; 0.0
28 ; 939374.6681302804 ; 2.0065353028303915E8 ; 2.2644063168587983E7 ; 3.9955081662711782E9 ; 0.0
29 ; 942992.3602431437 ; 2.006561060898452E8 ; 2.358343783671826E7 ; 4.1961616965542173E9 ; 0.0
30 ; 945242.3260654642 ; 2.0065879981512734E8 ; 2.4526430196961407E7 ; 4.396817802644063E9 ; 0.0
31 ; 946354.9828756497 ; 2.0066160862089193E8 ; 2.5471672523026872E7 ; 4.59747660245919E9 ; 0.0
32 ; 948769.9188421137 ; 2.0066452963560224E8 ; 2.641802750590252E7 ; 4.798138211080082E9 ; 0.0
33 ; 952576.7054440251 ; 2.0066755996435308E8 ; 2.7366797424744636E7 ; 4.998802740715684E9 ; 0.0
34 ; 955427.0508631736 ; 2.0067069669845706E8 ; 2.8319374130188663E7 ; 5.199470300680037E9 ; 0.0
35 ; 958680.6062526328 ; 2.0067393692440942E8 ; 2.9274801181051835E7 ; 5.400140997378493E9 ; 0.0
36 ; 958687.7172605052 ; 2.0067727773221076E8 ; 3.023348178730447E7 ; 5.600814934302903E9 ; 0.0
37 ; 960595.866770201 ; 2.006807162230353E8 ; 3.1192169504564974E7 ; 5.801492212035114E9 ; 0.0
38 ; 963135.2951146155 ; 2.006842495162434E8 ; 3.2152765371335175E7 ; 6.002172928258149E9 ; 0.0
39 ; 964408.3712423907 ; 2.006878747557431E8 ; 3.311590066644979E7 ; 6.202857177774392E9 ; 0.0
40 ; 967534.1755331821 ; 2.0069158911571404E8 ; 3.408030903769218E7 ; 6.403545052530135E9 ; 0.0
41 ; 969511.4905168079 ; 2.006953898057117E8 ; 3.5047843213225365E7 ; 6.604236641645849E9 ; 0.0
42 ; 970517.6210764167 ; 2.006992740751749E8 ; 3.601735470374218E7 ; 6.804932031451561E9 ; 0.0
43 ; 971816.1259301776 ; 2.007032392173643E8 ; 3.6987872324818596E7 ; 7.005631305526736E9 ; 0.0
44 ; 974142.3570383337 ; 2.0070728257276058E8 ; 3.795968845074877E7 ; 7.206334544744101E9 ; 0.0
45 ; 976212.694446657 ; 2.0071140153195497E8 ; 3.8933830807787105E7 ; 7.407041827316861E9 ; 0.0
46 ; 978239.9245152102 ; 2.0071559353806496E8 ; 3.9910043502233766E7 ; 7.607753228848816E9 ; 0.0
47 ; 977533.2774304308 ; 2.00719856088709E8 ; 4.0888283426748976E7 ; 7.808468822386881E9 ; 0.0
48 ; 979626.9529703463 ; 2.0072418673757413E8 ; 4.1865816704179406E7 ; 8.00918867847559E9 ; 0.0
49 ; 980798.2454151957 ; 2.007285830956104E8 ; 4.2845443657149754E7 ; 8.209912865213164E9 ; 0.0
50 ; 983504.8406960149 ; 2.0073304283188456E8 ; 4.382624190256495E7 ; 8.410641448308775E9 ; 0.0
51 ; 979998.5858755666 ; 2.0073756367412508E8 ; 4.4809746743260965E7 ; 8.61137449114066E9 ; 0.0
52 ; 981615.6219580917 ; 2.0074214340898925E8 ; 4.578974532913653E7 ; 8.812112054814785E9 ; 0.0
53 ; 983205.2155014875 ; 2.0074677988208103E8 ; 4.677136095109462E7 ; 9.012854198223774E9 ; 0.0
54 ; 986067.8888447179 ; 2.007514709977475E8 ; 4.775456616659611E7 ; 9.213600978105854E9 ; 0.0
55 ; 985317.6344215161 ; 2.0075621471867964E8 ; 4.874063405544083E7 ; 9.414352449103601E9 ; 0.0
56 ; 986365.1606322844 ; 2.0076100906534126E8 ; 4.972595168986234E7 ; 9.61510866382228E9 ; 0.0
57 ; 987011.1782083248 ; 2.0076585211524904E8 ; 5.071231685049462E7 ; 9.815869672887623E9 ; 0.0
58 ; 987058.6127474195 ; 2.0077074200212356E8 ; 5.1699328028702945E7 ; 1.0016635525002872E10 ; 0.0
59 ; 988598.6430119141 ; 2.0077567691493094E8 ; 5.268638664145036E7 ; 1.0217406267004995E10 ; 0.0
60 ; 987703.6840374653 ; 2.0078065509683192E8 ; 5.367498528446227E7 ; 1.0418181943919926E10 ; 0.0
61 ; 987853.9191521327 ; 2.007856748440543E8 ; 5.4662688968499735E7 ; 1.0618962599016758E10 ; 0.0
62 ; 991112.806843881 ; 2.007907345047032E8 ; 5.565054288765187E7 ; 1.0819748273860813E10 ; 0.0
63 ; 993219.1643100057 ; 2.0079583247752118E8 ; 5.664165569449575E7 ; 1.1020539008365517E10 ; 0.0
64 ; 992270.885992259 ; 2.0080096721061108E8 ; 5.763487485880576E7 ; 1.1221334840843039E10 ; 0.0
65 ; 992398.6263055309 ; 2.0080613720013043E8 ; 5.862714574479802E7 ; 1.142213580805365E10 ; 0.0
66 ; 993270.9643717284 ; 2.008113409889675E8 ; 5.961954437110355E7 ; 1.162294194525378E10 ; 0.0
67 ; 993322.669389095 ; 2.0081657716540658E8 ; 6.061281533547527E7 ; 1.1823753286242748E10 ; 0.0
68 ; 993361.1439914285 ; 2.0082184436179E8 ; 6.1606138004864365E7 ; 1.2024569863408155E10 ; 0.0
69 ; 993382.1148920001 ; 2.008271412531825E8 ; 6.259949914885579E7 ; 1.2225391707769945E10 ; 0.0
70 ; 995159.3227643162 ; 2.00832466556044E8 ; 6.359288126374779E7 ; 1.2426218849023129E10 ; 0.0
71 ; 996398.5640702763 ; 2.0083781902691498E8 ; 6.45880405865121E7 ; 1.2627051315579172E10 ; 0.0
72 ; 993798.7835959749 ; 2.0084319746111837E8 ; 6.558443915058238E7 ; 1.2827889134606087E10 ; 0.0
73 ; 994513.6779146172 ; 2.0084860069148183E8 ; 6.657823793417835E7 ; 1.3028732332067205E10 ; 0.0
74 ; 994087.866997268 ; 2.0085402758708277E8 ; 6.757275161209297E7 ; 1.3229580932758688E10 ; 0.0
75 ; 994569.5227129214 ; 2.008594770520186E8 ; 6.856683947909024E7 ; 1.343043496034577E10 ; 0.0
76 ; 997166.678824843 ; 2.008649480242043E8 ; 6.956140900180316E7 ; 1.3631294437397789E10 ; 0.0
77 ; 995401.9815753313 ; 2.008704394741985E8 ; 7.0558575680628E7 ; 1.3832159385421993E10 ; 0.0
78 ; 995418.4546294415 ; 2.0087595040405956E8 ; 7.155397766220333E7 ; 1.4033029824896193E10 ; 0.0
79 ; 996068.1538518672 ; 2.008814798462325E8 ; 7.254939611683276E7 ; 1.4233905775300253E10 ; 0.0
80 ; 994490.3167186104 ; 2.0088702686246705E8 ; 7.354546427068463E7 ; 1.4434787255146486E10 ; 0.0
81 ; 993673.7268581516 ; 2.008925905427679E8 ; 7.453995458740324E7 ; 1.4635674282008953E10 ; 0.0
82 ; 994168.8273712142 ; 2.0089817000437647E8 ; 7.553362831426139E7 ; 1.4836566872551722E10 ; 0.0
83 ; 994435.9737954836 ; 2.0090376439078498E8 ; 7.65277971416326E7 ; 1.5037465042556099E10 ; 0.0
84 ; 991931.1488460564 ; 2.009093728707823E8 ; 7.752223311542809E7 ; 1.5238368806946884E10 ; 0.0
85 ; 993470.6028531229 ; 2.009149946375313E8 ; 7.851416426427415E7 ; 1.5439278179817667E10 ; 0.0
86 ; 990075.560491043 ; 2.0092062890767756E8 ; 7.950763486712727E7 ; 1.5640193174455198E10 ; 0.0
87 ; 989468.8088874066 ; 2.0092627492048854E8 ; 8.049771042761831E7 ; 1.5841113803362875E10 ; 0.0
88 ; 991383.4310204795 ; 2.0093193193702328E8 ; 8.148717923650572E7 ; 1.6042040078283363E10 ; 0.0
89 ; 989323.0456967971 ; 2.0093759923933148E8 ; 8.24785626675262E7 ; 1.6242972010220387E10 ; 0.0
90 ; 988816.9764139964 ; 2.009432761296815E8 ; 8.3467885713223E7 ; 1.6443909609459719E10 ; 0.0
91 ; 986722.0813510852 ; 2.0094896192981666E8 ; 8.445670268963699E7 ; 1.66448528855894E10 ; 0.0
92 ; 986409.8249705017 ; 2.0095465598023897E8 ; 8.544342477098808E7 ; 1.6845801847519217E10 ; 0.0
93 ; 985897.4960705766 ; 2.0096035763951954E8 ; 8.642983459595858E7 ; 1.7046756503499456E10 ; 0.0
94 ; 985145.7098285044 ; 2.0096606628363508E8 ; 8.741573209202915E7 ; 1.7247716861138977E10 ; 0.0
95 ; 985680.9563444931 ; 2.0097178130532953E8 ; 8.840087780185767E7 ; 1.744868292742261E10 ; 0.0
96 ; 983297.785916567 ; 2.0097750211349982E8 ; 8.938655875820217E7 ; 1.764965470872794E10 ; 0.0
97 ; 983329.2131317445 ; 2.0098322813260567E8 ; 9.036985654411873E7 ; 1.785063221084144E10 ; 0.0
98 ; 982062.9634499797 ; 2.009889588021018E8 ; 9.135318575725047E7 ; 1.8051615438974045E10 ; 0.0
99 ; 981213.035153343 ; 2.0099469357589233E8 ; 9.233524872070046E7 ; 1.8252604397776146E10 ; 0.0
100 ; 981251.2090222653 ; 2.010004319218065E8 ; 9.33164617558538E7 ; 1.845359909135204E10 ; 0.0
101 ; 979720.2555591163 ; 2.0100617332109472E8 ; 9.429771296487607E7 ; 1.8654599523273846E10 ; 0.0
102 ; 978438.5279454353 ; 2.0101191726794448E8 ; 9.527743322043519E7 ; 1.885560569659494E10 ; 0.0
103 ; 976535.1768351118 ; 2.010176632690153E8 ; 9.625587174838062E7 ; 1.9056617613862885E10 ; 0.0
104 ; 975810.9343562612 ; 2.0102341084299204E8 ; 9.723240692521572E7 ; 1.92576352771319E10 ; 0.0
105 ; 974639.9797238184 ; 2.0102915952015555E8 ; 9.820821785957198E7 ; 1.945865868797489E10 ; 0.0
106 ; 974192.3663995108 ; 2.010349088419707E8 ; 9.918285783929579E7 ; 1.965968784749505E10 ; 0.0
107 ; 973257.1154847961 ; 2.010406583606904E8 ; 1.001570502056953E8 ; 1.986072275633702E10 ; 0.0
108 ; 971482.5310238075 ; 2.0104640763897532E8 ; 1.0113030732118009E8 ; 2.0061763414697712E10 ; 0.0
109 ; 971271.3344972874 ; 2.0105215624952886E8 ; 1.0210178985220389E8 ; 2.026280982233669E10 ; 0.0
110 ; 970008.9746846689 ; 2.010579037747463E8 ; 1.0307306118670118E8 ; 2.0463861978586216E10 ; 0.0
111 ; 969768.8090763851 ; 2.01063649806378E8 ; 1.0404307016138585E8 ; 2.0664919882360962E10 ; 0.0
112 ; 968675.2852300147 ; 2.010693939452058E8 ; 1.0501283897046223E8 ; 2.086598353216734E10 ; 0.0
113 ; 965581.3457900553 ; 2.0107513580073246E8 ; 1.0598151425569224E8 ; 2.1067052926112545E10 ; 0.0
114 ; 964109.828763627 ; 2.010808749908829E8 ; 1.069470956014823E8 ; 2.1268128061913277E10 ; 0.0
115 ; 962662.9182261681 ; 2.0108661114171782E8 ; 1.0791120543024594E8 ; 2.146920893690416E10 ; 0.0
116 ; 962051.5114500832 ; 2.0109234388715804E8 ; 1.088738683484721E8 ; 2.1670295548045876E10 ; 0.0
117 ; 960484.4874972666 ; 2.0109807286872008E8 ; 1.0983591985992219E8 ; 2.1871387891933033E10 ; 0.0
118 ; 961315.0176215445 ; 2.011037977352619E8 ; 1.1079640434741946E8 ; 2.2072485964801754E10 ; 0.0
119 ; 958013.4568692546 ; 2.0110951814273873E8 ; 1.11757719365041E8 ; 2.2273589762537014E10 ; 0.0
120 ; 957127.1862536831 ; 2.0111523375396845E8 ; 1.1271573282191026E8 ; 2.2474699280679752E10 ; 0.0
121 ; 957005.1254552918 ; 2.011209442384059E8 ; 1.1367286000816394E8 ; 2.267581451443372E10 ; 0.0
122 ; 955703.6344098663 ; 2.0112664927192655E8 ; 1.1462986513361923E8 ; 2.2876935458672127E10 ; 0.0
123 ; 952478.4926386088 ; 2.0113234853661782E8 ; 1.155855687680291E8 ; 2.3078062107944054E10 ; 0.0
124 ; 951236.4729568384 ; 2.0113804172057912E8 ; 1.165380472606677E8 ; 2.327919445648067E10 ; 0.0
125 ; 950143.8989569369 ; 2.0114372851772937E8 ; 1.1748928373362453E8 ; 2.348033249820125E10 ; 0.0
126 ; 949828.6612130752 ; 2.0114940862762198E8 ; 1.1843942763258147E8 ; 2.368147622671898E10 ; 0.0
127 ; 948426.7953951535 ; 2.0115508175526693E8 ; 1.1938925629379454E8 ; 2.38826256353466E10 ; 0.0
128 ; 945231.9612288442 ; 2.0116074761095974E8 ; 1.203376830891897E8 ; 2.4083780717101868E10 ; 0.0
129 ; 944303.7695562827 ; 2.0116640591011694E8 ; 1.2128291505041854E8 ; 2.4284941464712826E10 ; 0.0
130 ; 943339.21726383 ; 2.0117205637311786E8 ; 1.2222721881997482E8 ; 2.4486107870622944E10 ; 0.0
131 ; 940506.3985636248 ; 2.0117769872515255E8 ; 1.2317055803723866E8 ; 2.4687279926996063E10 ; 0.0
132 ; 938582.8166757108 ; 2.0118333269607508E8 ; 1.2411106443580228E8 ; 2.4888457625721214E10 ; 0.0
133 ; 936678.5191958093 ; 2.01188958020263E8 ; 1.2504964725247799E8 ; 2.508964095841729E10 ; 0.0
134 ; 934067.8644157589 ; 2.0119457443648154E8 ; 1.259863257716738E8 ; 2.5290829916437553E10 ; 0.0
135 ; 931521.7199512805 ; 2.0120018168775335E8 ; 1.2692039363608956E8 ; 2.5492024490874035E10 ; 0.0
136 ; 929824.9540732042 ; 2.0120577952123275E8 ; 1.2785191535604085E8 ; 2.5693224672561787E10 ; 0.0
137 ; 926587.0068470282 ; 2.0121136768808505E8 ; 1.2878174031011406E8 ; 2.589443045208302E10 ; 0.0
138 ; 924920.1730806128 ; 2.0121694594337013E8 ; 1.2970832731696108E8 ; 2.6095641819771103E10 ; 0.0
139 ; 920430.7597570987 ; 2.0122251404593036E8 ; 1.3063324749004169E8 ; 2.6296858765714474E10 ; 0.0
140 ; 919095.9492259333 ; 2.012280717582828E8 ; 1.3155367824979879E8 ; 2.6498081279760403E10 ; 0.0
141 ; 917186.2041337776 ; 2.0123361884651536E8 ; 1.3247277419902472E8 ; 2.6699309351518684E10 ; 0.0
142 ; 916139.9498469576 ; 2.0123915508018652E8 ; 1.333899604031585E8 ; 2.69005429703652E10 ; 0.0
143 ; 911518.9479989422 ; 2.0124468023222917E8 ; 1.3430610035300547E8 ; 2.7101782125445385E10 ; 0.0
144 ; 909975.6993024707 ; 2.0125019407885766E8 ; 1.352176193010044E8 ; 2.7303026805677612E10 ; 0.0
145 ; 908456.3941797729 ; 2.012556963994783E8 ; 1.3612759500030687E8 ; 2.750427699975647E10 ; 0.0
146 ; 907814.8088387514 ; 2.012611869766031E8 ; 1.3703605139448664E8 ; 2.770553269615595E10 ; 0.0
147 ; 904818.2670884749 ; 2.0126666559576672E8 ; 1.379438662033254E8 ; 2.7906793883132553E10 ; 0.0
148 ; 903776.508310905 ; 2.012721320454464E8 ; 1.3884868447041386E8 ; 2.810806054872832E10 ; 0.0
149 ; 902835.3767646445 ; 2.0127758611698467E8 ; 1.3975246097872478E8 ; 2.8309332680773766E10 ; 0.0
150 ; 900789.0694114099 ; 2.0128302760451484E8 ; 1.4065529635548943E8 ; 2.851061026689075E10 ; 0.0
151 ; 899730.4607004708 ; 2.0128845630488935E8 ; 1.4155608542490083E8 ; 2.8711893294495266E10 ; 0.0
152 ; 897642.4010402268 ; 2.0129387201761043E8 ; 1.424558158856013E8 ; 2.8913181750800156E10 ; 0.0
153 ; 893527.5080344366 ; 2.0129927454476342E8 ; 1.4335345828664154E8 ; 2.9114475622817764E10 ; 0.0
154 ; 893060.1621095355 ; 2.0130466369095218E8 ; 1.4424698579467598E8 ; 2.9315774897362526E10 ; 0.0
155 ; 893394.9133587298 ; 2.013100392632372E8 ; 1.451400459567855E8 ; 2.951707956105348E10 ; 0.0
156 ; 890496.1661984416 ; 2.013154010710754E8 ; 1.4603344087014422E8 ; 2.9718389600316715E10 ; 0.0
157 ; 889206.6337341386 ; 2.0132074892626247E8 ; 1.4692393703634265E8 ; 2.991970500138779E10 ; 0.0
158 ; 887643.9416734576 ; 2.013260826428769E8 ; 1.478131436700768E8 ; 3.0121025750314053E10 ; 0.0
159 ; 886295.4400829136 ; 2.0133140203722617E8 ; 1.4870078761175025E8 ; 3.032235183295693E10 ; 0.0
160 ; 884077.4659161667 ; 2.0133670692779475E8 ; 1.4958708305183315E8 ; 3.0523683234994156E10 ; 0.0
161 ; 882887.9187634249 ; 2.013419971351938E8 ; 1.504711605177493E8 ; 3.072501994192195E10 ; 0.0
162 ; 882545.6561318906 ; 2.013472724821128E8 ; 1.5135404843651274E8 ; 3.0926361939057144E10 ; 0.0
163 ; 878913.2788560893 ; 2.0135253279327258E8 ; 1.5223659409264463E8 ; 3.1127709211539257E10 ; 0.0
164 ; 877899.1129300601 ; 2.0135777789538032E8 ; 1.5311550737150073E8 ; 3.132906174433253E10 ; 0.0
165 ; 878465.3126542108 ; 2.0136300761708564E8 ; 1.539934064844308E8 ; 3.1530419522227913E10 ; 0.0
166 ; 876194.4198775674 ; 2.0136822178893867E8 ; 1.54871871797085E8 ; 3.1731782529844997E10 ; 0.0
167 ; 875574.4331523785 ; 2.013734202433491E8 ; 1.5574806621696255E8 ; 3.1933150751633938E10 ; 0.0
168 ; 874287.623526086 ; 2.0137860281454694E8 ; 1.5662364065011492E8 ; 3.213452417187729E10 ; 0.0
169 ; 871054.8162599502 ; 2.0138376933854446E8 ; 1.5749792827364102E8 ; 3.2335902774691837E10 ; 0.0
170 ; 868656.5895101177 ; 2.0138891965309936E8 ; 1.5836898308990097E8 ; 3.253728654403038E10 ; 0.0
171 ; 868156.8908693963 ; 2.0139405359767938E8 ; 1.5923763967941108E8 ; 3.273867546368348E10 ; 0.0
172 ; 863757.0603037375 ; 2.0139917101342788E8 ; 1.601057965702805E8 ; 3.294006951728116E10 ; 0.0
173 ; 866234.0274349662 ; 2.0140427174313068E8 ; 1.6096955363058424E8 ; 3.3141468688294586E10 ; 0.0
174 ; 862986.4548524023 ; 2.0140935563118395E8 ; 1.618357876580192E8 ; 3.3342872960037716E10 ; 0.0
175 ; 861077.820803271 ; 2.0141442252356327E8 ; 1.6269877411287162E8 ; 3.35442823156689E10 ; 0.0
176 ; 860252.1814816544 ; 2.0141947226779354E8 ; 1.635598519336749E8 ; 3.3745696738192463E10 ; 0.0
177 ; 859776.3575412243 ; 2.014245047129201E8 ; 1.6442010411515656E8 ; 3.3947116210460255E10 ; 0.0
178 ; 857644.6449084559 ; 2.0142951970948055E8 ; 1.652798804726978E8 ; 3.4148540715173176E10 ; 0.0
179 ; 856059.5479551452 ; 2.0143451710947773E8 ; 1.6613752511760625E8 ; 3.4349970234882656E10 ; 0.0
180 ; 855708.95688781 ; 2.0143949676635346E8 ; 1.669935846655614E8 ; 3.4551404751992134E10 ; 0.0
181 ; 856542.2689244245 ; 2.014444585349632E8 ; 1.6784929362244922E8 ; 3.4752844248758484E10 ; 0.0
182 ; 853775.2721570354 ; 2.0144940227155134E8 ; 1.6870583589137363E8 ; 3.495428870729345E10 ; 0.0
183 ; 852665.9862865404 ; 2.0145432783372766E8 ; 1.6955961116353068E8 ; 3.5155738109565E10 ; 0.0
184 ; 850129.2402319044 ; 2.0145923508044425E8 ; 1.7041227714981723E8 ; 3.535719243739873E10 ; 0.0
185 ; 850163.1847220408 ; 2.0146412387197322E8 ; 1.7126240639004913E8 ; 3.555865167247917E10 ; 0.0
186 ; 847442.0772521362 ; 2.0146899406988528E8 ; 1.7211256957477117E8 ; 3.576011579635114E10 ; 0.0
187 ; 847428.0666414665 ; 2.0147384553702888E8 ; 1.7296001165202332E8 ; 3.596158479042103E10 ; 0.0
188 ; 847089.540607662 ; 2.0147867813750997E8 ; 1.738074397186648E8 ; 3.616305863595805E10 ; 0.0
189 ; 845727.6909104144 ; 2.0148349173667267E8 ; 1.7465452925927246E8 ; 3.6364537314095566E10 ; 0.0
190 ; 845308.0816032108 ; 2.0148828620108014E8 ; 1.7550025695018288E8 ; 3.656602080583224E10 ; 0.0
191 ; 844786.2881086707 ; 2.014930613984965E8 ; 1.7634556503178608E8 ; 3.676750909203332E10 ; 0.0
192 ; 840954.8464544064 ; 2.0149781719786906E8 ; 1.7719035131989476E8 ; 3.6969002153431816E10 ; 0.0
193 ; 840385.2773958625 ; 2.0150255346931115E8 ; 1.7803130616634917E8 ; 3.7170499970629684E10 ; 0.0
194 ; 840442.343814268 ; 2.0150727008408555E8 ; 1.7887169144374505E8 ; 3.7372002524099E10 ; 0.0
195 ; 838804.2291124058 ; 2.0151196691458842E8 ; 1.797121337875593E8 ; 3.757350979418308E10 ; 0.0
196 ; 835162.9388036265 ; 2.0151664383433375E8 ; 1.8055093801667172E8 ; 3.777502176109767E10 ; 0.0
197 ; 836411.2189971373 ; 2.0152130071793827E8 ; 1.8138610095547533E8 ; 3.797653840493201E10 ; 0.0
198 ; 835293.9109069735 ; 2.0152593744110683E8 ; 1.8222251217447248E8 ; 3.817805970564995E10 ; 0.0
199 ; 834448.6057168359 ; 2.0153055388061833E8 ; 1.8305780608537945E8 ; 3.837958564309106E10 ; 0.0
200 ; 832343.7514628447 ; 2.0153514991431198E8 ; 1.8389225469109628E8 ; 3.858111619697167E10 ; 0.0
201 ; 830354.9628020135 ; 1.894814240374512E8 ; 1.8472459844255912E8 ; 3.878265134688599E10 ; 0.0
