CSV File for the City 1 on Day 70
1 - Minute m 
2 - Power Consumed at minute m 
3 - Power Produced at minute m 
4 - Energy Consumed since the beginning of the day 
5 - Energy Produced since the beginning of the day 
6 - Energy Lost since the beginning of the day on lines starting from the city
 
0 ; 1.6014382396288257E7 ; 1.0548188745674798E8 ; 0.0 ; 0.0 ; 0.0
1 ; 1.6027088463847006E7 ; 1.0563479208765054E8 ; 1.6014382396288257E7 ; 1.0548188745674798E8 ; 0.0
2 ; 1.6046464990308944E7 ; 1.0609648214292458E8 ; 3.2041470860135265E7 ; 2.1111667954439852E8 ; 0.0
3 ; 1.6064748931843504E7 ; 1.0686695944958335E8 ; 4.808793585044421E7 ; 3.172131616873231E8 ; 0.0
4 ; 1.6084815207918204E7 ; 1.0794622565039897E8 ; 6.415268478228772E7 ; 4.2408012113690645E8 ; 0.0
5 ; 1.6112271977242172E7 ; 1.0933428219298083E8 ; 8.023749999020591E7 ; 5.320263467873054E8 ; 0.0
6 ; 1.6157809242271166E7 ; 1.1103113031992725E8 ; 9.634977196744809E7 ; 6.413606289802862E8 ; 0.0
7 ; 1.620936972485621E7 ; 1.1303677106020343E8 ; 1.1250758120971926E8 ; 7.523917593002135E8 ; 0.0
8 ; 1.6288819046510004E7 ; 1.1535120522188318E8 ; 1.2871695093457547E8 ; 8.654285303604169E8 ; 0.0
9 ; 1.6403400435896093E7 ; 1.1797443338637328E8 ; 1.4500576998108548E8 ; 9.807797355823001E8 ; 0.0
10 ; 1.6586774214404384E7 ; 1.2090645590421689E8 ; 1.6140917041698158E8 ; 1.0987541689686732E9 ; 0.0
11 ; 1.6871450140290342E7 ; 1.2414727289254615E8 ; 1.7799594463138595E8 ; 1.21966062487289E9 ; 0.0
12 ; 1.7335365606067594E7 ; 1.2769688423422888E8 ; 1.948673947716763E8 ; 1.3438078977654362E9 ; 0.0
13 ; 1.778132875272622E7 ; 1.3155528957872194E8 ; 2.122027603777439E8 ; 1.471504781999665E9 ; 0.0
14 ; 1.783314056266751E7 ; 1.3572248834461862E8 ; 2.2998408913047013E8 ; 1.603060071578387E9 ; 0.0
15 ; 1.7849320500707265E7 ; 1.40198479723845E8 ; 2.4781722969313765E8 ; 1.7387825599230056E9 ; 0.0
16 ; 1.7875630759318694E7 ; 1.44983262687436E8 ; 2.656665501938449E8 ; 1.8789810396468506E9 ; 0.0
17 ; 1.7892864361960154E7 ; 1.5007683599279323E8 ; 2.835421809531636E8 ; 2.0239643023342867E9 ; 0.0
18 ; 1.7912671547324363E7 ; 1.554791981923073E8 ; 3.014350453151238E8 ; 2.17404113832708E9 ; 0.0
19 ; 1.7933916126970798E7 ; 1.611903476432061E8 ; 3.1934771686244816E8 ; 2.3295203365193872E9 ; 0.0
20 ; 1.7954034241826683E7 ; 1.6721028251847634E8 ; 3.37281632989419E8 ; 2.4907106841625934E9 ; 0.0
21 ; 1.7976222250719313E7 ; 1.7353900081869468E8 ; 3.5523566723124564E8 ; 2.65792096668107E9 ; 0.0
22 ; 1.7994306361598138E7 ; 1.801765003845973E8 ; 3.7321188948196495E8 ; 2.8314599674997644E9 ; 0.0
23 ; 1.8019784799095023E7 ; 1.8712277891021454E8 ; 3.912061958435631E8 ; 3.0116364678843617E9 ; 0.0
24 ; 1.804542491899185E7 ; 1.943778339563988E8 ; 4.092259806426581E8 ; 3.198759246794576E9 ; 0.0
25 ; 1.8058114349852066E7 ; 2.0062970386276177E8 ; 4.2727140556165E8 ; 3.393137080750975E9 ; 0.0
26 ; 1.808390598894294E7 ; 2.006319337983903E8 ; 4.4532951991150206E8 ; 3.593766784613737E9 ; 0.0
27 ; 1.8097925966883138E7 ; 2.0063429030048826E8 ; 4.63413425900445E8 ; 3.7943987184121275E9 ; 0.0
28 ; 1.8124040444640104E7 ; 2.0063677053466976E8 ; 4.815113518673281E8 ; 3.995033008712616E9 ; 0.0
29 ; 1.813873412773745E7 ; 2.0063937160138687E8 ; 4.996353923119682E8 ; 4.195669779247286E9 ; 0.0
30 ; 1.8161793742606852E7 ; 2.0064209054866782E8 ; 5.1777412643970567E8 ; 4.396309150848673E9 ; 0.0
31 ; 1.8180430004460856E7 ; 2.0064492438432094E8 ; 5.3593592018231255E8 ; 4.596951241397341E9 ; 0.0
32 ; 1.8204154668810595E7 ; 2.0064787008753106E8 ; 5.541163501867734E8 ; 4.797596165781662E9 ; 0.0
33 ; 1.8215038714842964E7 ; 2.0065092461978978E8 ; 5.72320504855584E8 ; 4.998244035869193E9 ; 0.0
34 ; 1.823600471074366E7 ; 2.0065408493511677E8 ; 5.90535543570427E8 ; 5.198894960488983E9 ; 0.0
35 ; 1.825030316785009E7 ; 2.0065734798954263E8 ; 6.087715482811706E8 ; 5.3995490454241E9 ; 0.0
36 ; 1.8266775096480872E7 ; 2.006607107498373E8 ; 6.270218514490207E8 ; 5.600206393413643E9 ; 0.0
37 ; 1.828254015562525E7 ; 2.0066417020147875E8 ; 6.452886265455016E8 ; 5.80086710416348E9 ; 0.0
38 ; 1.82958124846499E7 ; 2.0066772335586745E8 ; 6.635711667011268E8 ; 6.001531274364959E9 ; 0.0
39 ; 1.8314685250110175E7 ; 2.0067136725680086E8 ; 6.818669791857767E8 ; 6.202198997720826E9 ; 0.0
40 ; 1.8332328740819756E7 ; 2.0067509898622844E8 ; 7.001816644358869E8 ; 6.402870364977627E9 ; 0.0
41 ; 1.8340453391613346E7 ; 2.006789156693156E8 ; 7.185139931767067E8 ; 6.603545463963855E9 ; 0.0
42 ; 1.8354619605521962E7 ; 2.0068281447884762E8 ; 7.3685444656832E8 ; 6.80422437963317E9 ; 0.0
43 ; 1.8367093987263344E7 ; 2.006867926390098E8 ; 7.55209066173842E8 ; 7.004907194112018E9 ; 0.0
44 ; 1.8379996760167997E7 ; 2.006908474285818E8 ; 7.735761601611053E8 ; 7.205593986751027E9 ; 0.0
45 ; 1.8385911026822954E7 ; 2.006949761835859E8 ; 7.919561569212732E8 ; 7.406284834179609E9 ; 0.0
46 ; 1.8398138833632626E7 ; 2.0069917629942942E8 ; 8.103420679480962E8 ; 7.606979810363195E9 ; 0.0
47 ; 1.8403681182928905E7 ; 2.007034452325825E8 ; 8.287402067817287E8 ; 7.807678986662624E9 ; 0.0
48 ; 1.8413255797133084E7 ; 2.0070778050183082E8 ; 8.471438879646577E8 ; 8.008382431895206E9 ; 0.0
49 ; 1.841826070987312E7 ; 2.0071217968914232E8 ; 8.655571437617908E8 ; 8.2090902123970375E9 ; 0.0
50 ; 1.8428126703058846E7 ; 2.0071664044018638E8 ; 8.839754044716638E8 ; 8.40980239208618E9 ; 0.0
51 ; 1.843233886627313E7 ; 2.0072116046454057E8 ; 9.024035311747227E8 ; 8.610519032526365E9 ; 0.0
52 ; 1.8437044168903198E7 ; 2.0072573753562006E8 ; 9.208358700409958E8 ; 8.811240192990906E9 ; 0.0
53 ; 1.8443566436061036E7 ; 2.0073036949036145E8 ; 9.392729142098991E8 ; 9.011965930526525E9 ; 0.0
54 ; 1.8449162866223488E7 ; 2.007350542286912E8 ; 9.577164806459601E8 ; 9.212696300016888E9 ; 0.0
55 ; 1.8450917092815854E7 ; 2.0073978971280694E8 ; 9.761656435121835E8 ; 9.413431354245579E9 ; 0.0
56 ; 1.84588391515798E7 ; 2.007445739662971E8 ; 9.946165606049994E8 ; 9.614171143958385E9 ; 0.0
57 ; 1.846121186395988E7 ; 2.007494050731228E8 ; 1.0130753997565793E9 ; 9.814915717924683E9 ; 0.0
58 ; 1.8470259871560037E7 ; 2.0075428117648366E8 ; 1.0315366116205392E9 ; 1.0015665122997805E10 ; 0.0
59 ; 1.8471408111504354E7 ; 2.0075920047758704E8 ; 1.0500068714920993E9 ; 1.0216419404174288E10 ; 0.0
60 ; 1.8475056491243992E7 ; 2.0076416123433873E8 ; 1.0684782796036036E9 ; 1.0417178604651875E10 ; 0.0
61 ; 1.8474262125081677E7 ; 2.0076916175997102E8 ; 1.0869533360948477E9 ; 1.0617942765886213E10 ; 0.0
62 ; 1.848051761615216E7 ; 2.0077420042162228E8 ; 1.1054275982199295E9 ; 1.0818711927646185E10 ; 0.0
63 ; 1.848119528905008E7 ; 2.0077927563888112E8 ; 1.1239081158360815E9 ; 1.1019486128067806E10 ; 0.0
64 ; 1.848876449678178E7 ; 2.0078438588230616E8 ; 1.1423893111251316E9 ; 1.1220265403706688E10 ; 0.0
65 ; 1.8489830134104345E7 ; 2.0078952967193156E8 ; 1.1608780756219134E9 ; 1.1421049789588995E10 ; 0.0
66 ; 1.8491085350814417E7 ; 2.0079470557576695E8 ; 1.1793679057560177E9 ; 1.1621839319260927E10 ; 0.0
67 ; 1.8497998724221334E7 ; 2.0079991220829937E8 ; 1.197858991106832E9 ; 1.1822634024836695E10 ; 0.0
68 ; 1.8502143336933166E7 ; 2.0080514822900397E8 ; 1.2163569898310533E9 ; 1.2023433937044994E10 ; 0.0
69 ; 1.8501450255719133E7 ; 2.0081041234086874E8 ; 1.2348591331679864E9 ; 1.2224239085273998E10 ; 0.0
70 ; 1.8499416982877705E7 ; 2.0081570328893855E8 ; 1.2533605834237056E9 ; 1.2425049497614866E10 ; 0.0
71 ; 1.8503569980939597E7 ; 2.0082101985888243E8 ; 1.2718600004065833E9 ; 1.2625865200903805E10 ; 0.0
72 ; 1.8504993939702887E7 ; 2.0082636087558705E8 ; 1.290363570387523E9 ; 1.2826686220762688E10 ; 0.0
73 ; 1.8508134215876475E7 ; 2.0083172520178008E8 ; 1.308868564327226E9 ; 1.3027512581638275E10 ; 0.0
74 ; 1.8509156487319894E7 ; 2.008371117366848E8 ; 1.3273766985431025E9 ; 1.3228344306840055E10 ; 0.0
75 ; 1.8509772158235356E7 ; 2.0084251941470835E8 ; 1.3458858550304224E9 ; 1.342918141857674E10 ; 0.0
76 ; 1.8508885033429615E7 ; 2.0084794720416465E8 ; 1.3643956271886578E9 ; 1.363002393799145E10 ; 0.0
77 ; 1.851518706442286E7 ; 2.008533941060333E8 ; 1.3829045122220874E9 ; 1.3830871885195614E10 ; 0.0
78 ; 1.850864304152184E7 ; 2.0085885915275475E8 ; 1.4014196992865102E9 ; 1.4031725279301647E10 ; 0.0
79 ; 1.850405645715685E7 ; 2.0086434140706265E8 ; 1.419928342328032E9 ; 1.4232584138454401E10 ; 0.0
80 ; 1.8501081838837348E7 ; 2.0086983996085298E8 ; 1.438432398785189E9 ; 1.4433448479861464E10 ; 0.0
81 ; 1.8489030745664626E7 ; 2.0087535393409055E8 ; 1.4569334806240263E9 ; 1.4634318319822317E10 ; 0.0
82 ; 1.848885169746225E7 ; 2.0088088247375202E8 ; 1.475422511369691E9 ; 1.4835193673756407E10 ; 0.0
83 ; 1.8490218675022535E7 ; 2.008864247528055E8 ; 1.4939113630671532E9 ; 1.503607455623016E10 ; 0.0
84 ; 1.8479286576437317E7 ; 2.0089197996922606E8 ; 1.5124015817421758E9 ; 1.5236960980982965E10 ; 0.0
85 ; 1.846827468786125E7 ; 2.008975473450468E8 ; 1.530880868318613E9 ; 1.5437852960952192E10 ; 0.0
86 ; 1.846343477493959E7 ; 2.0090312612544408E8 ; 1.5493491430064743E9 ; 1.563875050829724E10 ; 0.0
87 ; 1.845740674098141E7 ; 2.0090871557785723E8 ; 1.5678125777814138E9 ; 1.5839653634422684E10 ; 0.0
88 ; 1.8454731271369085E7 ; 2.009143149911409E8 ; 1.5862699845223951E9 ; 1.6040562350000542E10 ; 0.0
89 ; 1.8447355579240557E7 ; 2.0091992367474982E8 ; 1.604724715793764E9 ; 1.6241476664991682E10 ; 0.0
90 ; 1.8441694666477676E7 ; 2.009255409579548E8 ; 1.6231720713730047E9 ; 1.6442396588666431E10 ; 0.0
91 ; 1.843558549459664E7 ; 2.0093116618908912E8 ; 1.6416137660394824E9 ; 1.6643322129624386E10 ; 0.0
92 ; 1.842381730508213E7 ; 2.0093679873482445E8 ; 1.660049351534079E9 ; 1.6844253295813475E10 ; 0.0
93 ; 1.841897016684893E7 ; 2.0094243797947514E8 ; 1.6784731688391612E9 ; 1.70451900945483E10 ; 0.0
94 ; 1.8416830428077284E7 ; 2.0094808332433027E8 ; 1.69689213900601E9 ; 1.7246132532527775E10 ; 0.0
95 ; 1.840404640172315E7 ; 2.0095373418701205E8 ; 1.7153089694340873E9 ; 1.7447080615852104E10 ; 0.0
96 ; 1.8399759790917348E7 ; 2.0095939000086015E8 ; 1.7337130158358104E9 ; 1.7648034350039116E10 ; 0.0
97 ; 1.839075248263616E7 ; 2.0096505021434075E8 ; 1.7521127756267278E9 ; 1.7848993740039974E10 ; 0.0
98 ; 1.838276335047543E7 ; 2.0097071429047918E8 ; 1.770503528109364E9 ; 1.8049958790254314E10 ; 0.0
99 ; 1.8376283802519098E7 ; 2.0097638170631596E8 ; 1.7888862914598393E9 ; 1.8250929504544792E10 ; 0.0
100 ; 1.836665213398974E7 ; 2.009820519523846E8 ; 1.8072625752623584E9 ; 1.8451905886251106E10 ; 0.0
101 ; 1.8357663383600473E7 ; 2.009877245322106E8 ; 1.8256292273963482E9 ; 1.865288793820349E10 ; 0.0
102 ; 1.83457186982033E7 ; 2.0099339896183124E8 ; 1.8439868907799487E9 ; 1.8853875662735703E10 ; 0.0
103 ; 1.833913859262019E7 ; 2.009990747693345E8 ; 1.862332609478152E9 ; 1.9054869061697533E10 ; 0.0
104 ; 1.8333220073372595E7 ; 2.010047514944171E8 ; 1.8806717480707722E9 ; 1.9255868136466866E10 ; 0.0
105 ; 1.8317617673054785E7 ; 2.0101042868796048E8 ; 1.8990049681441448E9 ; 1.945687288796128E10 ; 0.0
106 ; 1.8313150372241836E7 ; 2.0101610591162413E8 ; 1.9173225858171995E9 ; 1.9657883316649242E10 ; 0.0
107 ; 1.8301512808679204E7 ; 2.010217827374556E8 ; 1.9356357361894412E9 ; 1.9858899422560867E10 ; 0.0
108 ; 1.829118138759842E7 ; 2.0102745874751624E8 ; 1.9539372489981203E9 ; 2.0059921205298325E10 ; 0.0
109 ; 1.8281729078708638E7 ; 2.0103313353352255E8 ; 1.9722284303857188E9 ; 2.026094866404584E10 ; 0.0
110 ; 1.8273724261364255E7 ; 2.0103880669650176E8 ; 1.9905101594644275E9 ; 2.0461981797579365E10 ; 0.0
111 ; 1.826085942048192E7 ; 2.0104447784646183E8 ; 2.0087838837257917E9 ; 2.0663020604275867E10 ; 0.0
112 ; 1.8252549407561783E7 ; 2.0105014660207462E8 ; 2.0270447431462736E9 ; 2.086406508212233E10 ; 0.0
113 ; 1.8238354270170134E7 ; 2.0105581259037203E8 ; 2.0452972925538354E9 ; 2.1065115228724403E10 ; 0.0
114 ; 1.822630922412993E7 ; 2.010614754464545E8 ; 2.0635356468240056E9 ; 2.1266171041314774E10 ; 0.0
115 ; 1.8217883873519294E7 ; 2.010671348132112E8 ; 2.0817619560481355E9 ; 2.1467232516761227E10 ; 0.0
116 ; 1.8208159106477212E7 ; 2.0107279034105176E8 ; 2.0999798399216547E9 ; 2.1668299651574436E10 ; 0.0
117 ; 1.819654392085668E7 ; 2.0107844168764853E8 ; 2.118187999028132E9 ; 2.186937244191549E10 ; 0.0
118 ; 1.818651295909381E7 ; 2.0108408851768947E8 ; 2.1363845429489887E9 ; 2.2070450883603138E10 ; 0.0
119 ; 1.817220757136288E7 ; 2.0108973050264084E8 ; 2.1545710559080825E9 ; 2.2271534972120827E10 ; 0.0
120 ; 1.816080981048731E7 ; 2.010953673205194E8 ; 2.1727432634794455E9 ; 2.2472624702623466E10 ; 0.0
121 ; 1.814980553767385E7 ; 2.0110099865567377E8 ; 2.1909040732899327E9 ; 2.2673720069943985E10 ; 0.0
122 ; 1.8134077510733545E7 ; 2.0110662419857454E8 ; 2.2090538788276067E9 ; 2.287482106859966E10 ; 0.0
123 ; 1.8124594535215314E7 ; 2.011122436456126E8 ; 2.2271879563383403E9 ; 2.3075927692798233E10 ; 0.0
124 ; 1.8109360513261434E7 ; 2.0111785669890553E8 ; 2.2453125508735557E9 ; 2.3277039936443844E10 ; 0.0
125 ; 1.8103165417443078E7 ; 2.011234630661117E8 ; 2.263421911386817E9 ; 2.347815779314275E10 ; 0.0
126 ; 1.808921478996297E7 ; 2.0112906246025163E8 ; 2.2815250768042603E9 ; 2.3679281256208862E10 ; 0.0
127 ; 1.807260694179182E7 ; 2.0113465459953645E8 ; 2.299614291594223E9 ; 2.3880410318669113E10 ; 0.0
128 ; 1.8064382364196673E7 ; 2.0114023920720288E8 ; 2.317686898536015E9 ; 2.408154497326865E10 ; 0.0
129 ; 1.8046976618150715E7 ; 2.0114581601135507E8 ; 2.335751280900212E9 ; 2.4282685212475853E10 ; 0.0
130 ; 1.8031853286938E7 ; 2.0115138474481204E8 ; 2.3537982575183625E9 ; 2.448383102848721E10 ; 0.0
131 ; 1.8014515099759396E7 ; 2.011569451449616E8 ; 2.3718301108053007E9 ; 2.468498241323202E10 ; 0.0
132 ; 1.7995247149271935E7 ; 2.0116249695361948E8 ; 2.3898446259050603E9 ; 2.4886139358376984E10 ; 0.0
133 ; 1.797533328349598E7 ; 2.011680399168942E8 ; 2.4078398730543323E9 ; 2.5087301855330605E10 ; 0.0
134 ; 1.795574009958963E7 ; 2.011735737850569E8 ; 2.425815206337828E9 ; 2.5288469895247498E10 ; 0.0
135 ; 1.793482069891938E7 ; 2.011790983124164E8 ; 2.443770946437418E9 ; 2.5489643469032555E10 ; 0.0
136 ; 1.79128824856791E7 ; 2.0118461325719887E8 ; 2.4617057671363373E9 ; 2.569082256734497E10 ; 0.0
137 ; 1.7891992000346325E7 ; 2.01190118381432E8 ; 2.4796186496220164E9 ; 2.589200718060217E10 ; 0.0
138 ; 1.7875170511771027E7 ; 2.011956134508338E8 ; 2.4975106416223626E9 ; 2.60931972989836E10 ; 0.0
139 ; 1.7856362841339793E7 ; 2.0120109823470542E8 ; 2.515385812134134E9 ; 2.6294392912434433E10 ; 0.0
140 ; 1.7835301014003947E7 ; 2.0120657250582814E8 ; 2.5332421749754734E9 ; 2.649559401066914E10 ; 0.0
141 ; 1.78123701294558E7 ; 2.012120360403641E8 ; 2.551077475989477E9 ; 2.669680058317497E10 ; 0.0
142 ; 1.7789332614514727E7 ; 2.0121748861776066E8 ; 2.5688898461189327E9 ; 2.6898012619215332E10 ; 0.0
143 ; 1.7768076446901057E7 ; 2.0122293002065882E8 ; 2.5866791787334476E9 ; 2.709923010783309E10 ; 0.0
144 ; 1.7747159081581917E7 ; 2.0122836003480428E8 ; 2.6044472551803484E9 ; 2.7300453037853752E10 ; 0.0
145 ; 1.77360282759287E7 ; 2.012337784489625E8 ; 2.6221944142619305E9 ; 2.7501681397888557E10 ; 0.0
146 ; 1.7721103163411967E7 ; 2.0123918505483645E8 ; 2.639930442537859E9 ; 2.770291517633752E10 ; 0.0
147 ; 1.7706113740803797E7 ; 2.0124457964698753E8 ; 2.657651545701271E9 ; 2.7904154361392357E10 ; 0.0
148 ; 1.7691075400832027E7 ; 2.0124996202275938E8 ; 2.675357659442075E9 ; 2.8105398941039345E10 ; 0.0
149 ; 1.7677770317725707E7 ; 2.0125533198220456E8 ; 2.693048734842907E9 ; 2.8306648903062103E10 ; 0.0
150 ; 1.7662034714123122E7 ; 2.0126068932801372E8 ; 2.7107265051606326E9 ; 2.8507904235044308E10 ; 0.0
151 ; 1.7645838827427436E7 ; 2.0126603386544746E8 ; 2.728388539874756E9 ; 2.8709164924372322E10 ; 0.0
152 ; 1.7632865244084287E7 ; 2.0127136540227062E8 ; 2.7460343787021832E9 ; 2.891043095823777E10 ; 0.0
153 ; 1.761559306178499E7 ; 2.0127668374868897E8 ; 2.7636672439462676E9 ; 2.911170232364004E10 ; 0.0
154 ; 1.759915553741736E7 ; 2.0128198871728805E8 ; 2.781282837008053E9 ; 2.931297900738873E10 ; 0.0
155 ; 1.758719033930888E7 ; 2.012872801229744E8 ; 2.79888199254547E9 ; 2.9514260996106018E10 ; 0.0
156 ; 1.7571950481936134E7 ; 2.012925577829187E8 ; 2.816469182884779E9 ; 2.9715548276228992E10 ; 0.0
157 ; 1.7557124935509574E7 ; 2.01297821516501E8 ; 2.834041133366715E9 ; 2.991684083401191E10 ; 0.0
158 ; 1.7539026196444225E7 ; 2.01303071145258E8 ; 2.8515982583022246E9 ; 3.011813865552841E10 ; 0.0
159 ; 1.7524823535985056E7 ; 2.013083064928319E8 ; 2.8691372844986687E9 ; 3.031944172667367E10 ; 0.0
160 ; 1.7506339607692774E7 ; 2.013135273849213E8 ; 2.8866621080346537E9 ; 3.0520750033166504E10 ; 0.0
161 ; 1.7490374231381353E7 ; 2.013187336492339E8 ; 2.9041684476423464E9 ; 3.0722063560551426E10 ; 0.0
162 ; 1.7479260217987645E7 ; 2.013239251154405E8 ; 2.921658821873728E9 ; 3.092338229420066E10 ; 0.0
163 ; 1.7461055885183215E7 ; 2.0132910161513084E8 ; 2.9391380820917153E9 ; 3.11247062193161E10 ; 0.0
164 ; 1.7446328837334868E7 ; 2.013342629817711E8 ; 2.9565991379768987E9 ; 3.1326035320931232E10 ; 0.0
165 ; 1.7431039426428203E7 ; 2.0133940905066255E8 ; 2.9740454668142333E9 ; 3.1527369583913002E10 ; 0.0
166 ; 1.7417239765257567E7 ; 2.0134453965890178E8 ; 2.9914765062406616E9 ; 3.1728708992963665E10 ; 0.0
167 ; 1.7401502999370772E7 ; 2.013496546453424E8 ; 3.008893746005919E9 ; 3.1930053532622566E10 ; 0.0
168 ; 1.738398696639011E7 ; 2.0135475385055795E8 ; 3.0262952490052896E9 ; 3.213140318726791E10 ; 0.0
169 ; 1.73696643026526E7 ; 2.0135983711680597E8 ; 3.0436792359716797E9 ; 3.233275794111847E10 ; 0.0
170 ; 1.735031229747738E7 ; 2.0136490428799358E8 ; 3.0610489002743325E9 ; 3.2534117778235275E10 ; 0.0
171 ; 1.7333907543726243E7 ; 2.013699552096439E8 ; 3.07839921257181E9 ; 3.273548268252327E10 ; 0.0
172 ; 1.7318590370314013E7 ; 2.0137498972886387E8 ; 3.095733120115536E9 ; 3.2936852637732914E10 ; 0.0
173 ; 1.7303111380759E7 ; 2.0138000769431302E8 ; 3.1130517104858503E9 ; 3.3138227627461777E10 ; 0.0
174 ; 1.729354130698097E7 ; 2.0138500895617333E8 ; 3.1303548218666096E9 ; 3.333960763515609E10 ; 0.0
175 ; 1.7281983805898983E7 ; 2.0138999336612007E8 ; 3.1476483631735907E9 ; 3.3540992644112263E10 ; 0.0
176 ; 1.727755472144227E7 ; 2.013949607772937E8 ; 3.16493034697949E9 ; 3.3742382637478382E10 ; 0.0
177 ; 1.726305192312556E7 ; 2.0139991104427266E8 ; 3.182207901700932E9 ; 3.3943777598255676E10 ; 0.0
178 ; 1.7254226469311375E7 ; 2.0140484402304694E8 ; 3.199470953624058E9 ; 3.414517750929995E10 ; 0.0
179 ; 1.724229329722244E7 ; 2.014097595709928E8 ; 3.216725180093369E9 ; 3.4346582353322998E10 ; 0.0
180 ; 1.7233373550119985E7 ; 2.0141465754684806E8 ; 3.2339674733905916E9 ; 3.454799211289399E10 ; 0.0
181 ; 1.722615766741813E7 ; 2.0141953781068844E8 ; 3.2512008469407115E9 ; 3.4749406770440834E10 ; 0.0
182 ; 1.7214572407865115E7 ; 2.0142440022390446E8 ; 3.2684270046081295E9 ; 3.4950826308251526E10 ; 0.0
183 ; 1.7205132042329147E7 ; 2.0142924464917925E8 ; 3.2856415770159945E9 ; 3.515225070847543E10 ; 0.0
184 ; 1.719619744560559E7 ; 2.01434070950467E8 ; 3.302846709058324E9 ; 3.535367995312461E10 ; 0.0
185 ; 1.718589884358823E7 ; 2.014388789929722E8 ; 3.3200429065039296E9 ; 3.555511402407508E10 ; 0.0
186 ; 1.716963100772553E7 ; 2.0144366864312956E8 ; 3.337228805347518E9 ; 3.5756552903068054E10 ; 0.0
187 ; 1.7162616688109744E7 ; 2.0144843976858437E8 ; 3.3543984363552437E9 ; 3.595799657171118E10 ; 0.0
188 ; 1.7154199792781163E7 ; 2.014531922381739E8 ; 3.3715610530433536E9 ; 3.615944501147977E10 ; 0.0
189 ; 1.7144049063294653E7 ; 2.0145792592190894E8 ; 3.388715252836135E9 ; 3.636089820371794E10 ; 0.0
190 ; 1.713281900614461E7 ; 2.0146264069095632E8 ; 3.40585930189943E9 ; 3.656235612963985E10 ; 0.0
191 ; 1.7128785333956946E7 ; 2.0146733641762185E8 ; 3.4229921209055743E9 ; 3.67638187703308E10 ; 0.0
192 ; 1.7111970439171106E7 ; 2.014720129753336E8 ; 3.440120906239531E9 ; 3.696528610674843E10 ; 0.0
193 ; 1.7104907984800026E7 ; 2.0147667023862624E8 ; 3.4572328766787024E9 ; 3.716675811972376E10 ; 0.0
194 ; 1.7094858107555773E7 ; 2.0148130808312526E8 ; 3.474337784663502E9 ; 3.736823478996239E10 ; 0.0
195 ; 1.7080340885943692E7 ; 2.014859263855322E8 ; 3.491432642771058E9 ; 3.756971609804551E10 ; 0.0
