CSV File for the City 6 on Day 96
1 - Minute m 
2 - Power Consumed at minute m 
3 - Power Produced at minute m 
4 - Energy Consumed since the beginning of the day 
5 - Energy Produced since the beginning of the day 
6 - Energy Lost since the beginning of the day on lines starting from the city
 
0 ; 1.1204313708385143E7 ; 1.0611476949502549E8 ; 0.0 ; 0.0 ; 0.0
1 ; 1.121582685773082E7 ; 1.0626566736800462E8 ; 1.1204313708385143E7 ; 1.0611476949502549E8 ; 0.0
2 ; 1.122744154770383E7 ; 1.0672555635146037E8 ; 2.2420140566115964E7 ; 2.123804368630301E8 ; 0.0
3 ; 1.1241457544036068E7 ; 1.074944400904969E8 ; 3.364758211381979E7 ; 3.191059932144905E8 ; 0.0
4 ; 1.1261122959324732E7 ; 1.0857232185095352E8 ; 4.488903965785586E7 ; 4.266004333049874E8 ; 0.0
5 ; 1.1277389933655027E7 ; 1.0995920450158912E8 ; 5.615016261718059E7 ; 5.351727551559409E8 ; 0.0
6 ; 1.1304462125486119E7 ; 1.1165509049813864E8 ; 6.742755255083562E7 ; 6.451319596575301E8 ; 0.0
7 ; 1.1342535663079917E7 ; 1.136599818694449E8 ; 7.873201467632174E7 ; 7.567870501556687E8 ; 0.0
8 ; 1.1394807696315162E7 ; 1.1597388020584756E8 ; 9.007455033940166E7 ; 8.704470320251136E8 ; 0.0
9 ; 1.1475982831069496E7 ; 1.185967866499846E8 ; 1.0146935803571683E8 ; 9.864209122309611E8 ; 0.0
10 ; 1.1601898945973497E7 ; 1.2152870189012957E8 ; 1.1294534086678633E8 ; 1.1050176988809457E9 ; 0.0
11 ; 1.179719757761173E7 ; 1.2476962615615746E8 ; 1.2454723981275983E8 ; 1.2265464007710752E9 ; 0.0
12 ; 1.2116387224294342E7 ; 1.2831955921819326E8 ; 1.3634443739037156E8 ; 1.3513160269272327E9 ; 0.0
13 ; 1.2421611689046197E7 ; 1.3217850038796341E8 ; 1.484608246146659E8 ; 1.479635586145426E9 ; 0.0
14 ; 1.2458974864443846E7 ; 1.3634644852283E8 ; 1.608824363037121E8 ; 1.6118140865333896E9 ; 0.0
15 ; 1.2469582154302122E7 ; 1.408234020324533E8 ; 1.7334141116815594E8 ; 1.7481605350562196E9 ; 0.0
16 ; 1.2489132400784526E7 ; 1.4560935888799056E8 ; 1.8581099332245806E8 ; 1.8889839370886729E9 ; 0.0
17 ; 1.2499108746300163E7 ; 1.5070431663370678E8 ; 1.9830012572324258E8 ; 2.0345932959766634E9 ; 0.0
18 ; 1.251202383809043E7 ; 1.5610827240084308E8 ; 2.1079923446954274E8 ; 2.18529761261037E9 ; 0.0
19 ; 1.2531337981224854E7 ; 1.6182122292356017E8 ; 2.2331125830763316E8 ; 2.3414058850112133E9 ; 0.0
20 ; 1.2542171715216726E7 ; 1.6784316455675384E8 ; 2.3584259628885803E8 ; 2.5032271079347734E9 ; 0.0
21 ; 1.2560741847132111E7 ; 1.7417409329552004E8 ; 2.4838476800407475E8 ; 2.671070272491527E9 ; 0.0
22 ; 1.2569474479917258E7 ; 1.808140047960353E8 ; 2.6094550985120687E8 ; 2.845244365787047E9 ; 0.0
23 ; 1.2590032278305726E7 ; 1.877628943976084E8 ; 2.735149843311241E8 ; 3.026058370583082E9 ; 0.0
24 ; 1.2603663542394366E7 ; 1.9502075714565766E8 ; 2.8610501660942984E8 ; 3.2138212649806905E9 ; 0.0
25 ; 1.2616038735398542E7 ; 2.0127562871355152E8 ; 2.987086801518242E8 ; 3.408842022126348E9 ; 0.0
26 ; 1.2632666661694758E7 ; 2.012810514636006E8 ; 3.113247188872227E8 ; 3.6101176508398995E9 ; 0.0
27 ; 1.264896753581623E7 ; 2.0128678899626628E8 ; 3.239573855489175E8 ; 3.8113987023035E9 ; 0.0
28 ; 1.2663097015170079E7 ; 2.0129283542122808E8 ; 3.366063530847337E8 ; 4.0126854912997665E9 ; 0.0
29 ; 1.2676836386857228E7 ; 2.0129918467471057E8 ; 3.492694500999038E8 ; 4.2139783267209945E9 ; 0.0
30 ; 1.2689666325114477E7 ; 2.013058305431653E8 ; 3.6194628648676103E8 ; 4.415277511395705E9 ; 0.0
31 ; 1.2703525476604013E7 ; 2.0131276668638575E8 ; 3.746359528118755E8 ; 4.61658334193887E9 ; 0.0
32 ; 1.2714860383993601E7 ; 2.0131998665990818E8 ; 3.873394782884795E8 ; 4.817896108625257E9 ; 0.0
33 ; 1.2728672246181225E7 ; 2.0132748393657085E8 ; 4.0005433867247313E8 ; 5.019216095285165E9 ; 0.0
34 ; 1.274110925432417E7 ; 2.0133525192712587E8 ; 4.127830109186544E8 ; 5.220543579221736E9 ; 0.0
35 ; 1.2755197258530544E7 ; 2.0134328399981663E8 ; 4.255241201729786E8 ; 5.421878831148862E9 ; 0.0
36 ; 1.2766432415935317E7 ; 2.0135157349885425E8 ; 4.3827931743150914E8 ; 5.623222115148679E9 ; 0.0
37 ; 1.2777365242828947E7 ; 2.0136011376174408E8 ; 4.510457498474445E8 ; 5.824573688647533E9 ; 0.0
38 ; 1.2788004620131556E7 ; 2.0136889813543034E8 ; 4.6382311509027344E8 ; 6.025933802409278E9 ; 0.0
39 ; 1.2801553749838745E7 ; 2.0137791999124333E8 ; 4.76611119710405E8 ; 6.227302700544708E9 ; 0.0
40 ; 1.280876619436798E7 ; 2.0138717273864648E8 ; 4.8941267346024376E8 ; 6.428680620535952E9 ; 0.0
41 ; 1.2818330901424564E7 ; 2.013966498377941E8 ; 5.0222143965461177E8 ; 6.630067793274598E9 ; 0.0
42 ; 1.2829168851582415E7 ; 2.014063448109209E8 ; 5.1503977055603635E8 ; 6.831464443112392E9 ; 0.0
43 ; 1.2834031436889935E7 ; 2.0141625125259373E8 ; 5.2786893940761876E8 ; 7.032870787923313E9 ; 0.0
44 ; 1.2842131608068405E7 ; 2.014263628388636E8 ; 5.407029708445086E8 ; 7.234287039175907E9 ; 0.0
45 ; 1.2853811806436434E7 ; 2.0143667333536267E8 ; 5.53545102452577E8 ; 7.4357134020147705E9 ; 0.0
46 ; 1.2857825444152888E7 ; 2.0144717660439512E8 ; 5.663989142590134E8 ; 7.637150075350133E9 ; 0.0
47 ; 1.2865796068760706E7 ; 2.014578666110754E8 ; 5.792567397031662E8 ; 7.838597251954528E9 ; 0.0
48 ; 1.2870995665096853E7 ; 2.0146873742856884E8 ; 5.92122535771927E8 ; 8.040055118565603E9 ; 0.0
49 ; 1.2877096135079509E7 ; 2.014797832424918E8 ; 6.049935314370239E8 ; 8.241523855994172E9 ; 0.0
50 ; 1.2879268187562644E7 ; 2.0149099835452923E8 ; 6.178706275721034E8 ; 8.443003639236664E9 ; 0.0
51 ; 1.2888260132066237E7 ; 2.0150237718532705E8 ; 6.30749895759666E8 ; 8.644494637591192E9 ; 0.0
52 ; 1.2892109534821363E7 ; 2.0151391427671602E8 ; 6.436381558917322E8 ; 8.84599701477652E9 ; 0.0
53 ; 1.2892726953681E7 ; 2.0152560429332292E8 ; 6.565302654265536E8 ; 9.047510929053236E9 ; 0.0
54 ; 1.2898208872199265E7 ; 2.0153744202362284E8 ; 6.694229923802346E8 ; 9.24903653334656E9 ; 0.0
55 ; 1.2901419868199356E7 ; 2.0154942238048407E8 ; 6.823212012524339E8 ; 9.450573975370182E9 ; 0.0
56 ; 1.2905342949162727E7 ; 2.0156154040125534E8 ; 6.952226211206332E8 ; 9.652123397750666E9 ; 0.0
57 ; 1.291409940751648E7 ; 2.0157379124744225E8 ; 7.08127964069796E8 ; 9.85368493815192E9 ; 0.0
58 ; 1.2915576609266214E7 ; 2.015861702040171E8 ; 7.210420634773124E8 ; 1.0055258729399363E10 ; 0.0
59 ; 1.2919282047075856E7 ; 2.0159867267840385E8 ; 7.339576400865786E8 ; 1.025684489960338E10 ; 0.0
60 ; 1.291973011527445E7 ; 2.016112941991768E8 ; 7.468769221336545E8 ; 1.0458443572281784E10 ; 0.0
61 ; 1.2927194406932775E7 ; 2.0162403041450927E8 ; 7.597966522489289E8 ; 1.066005486648096E10 ; 0.0
62 ; 1.2927716974468462E7 ; 2.0163687709040588E8 ; 7.727238466558617E8 ; 1.086167889689547E10 ; 0.0
63 ; 1.2931469705652524E7 ; 2.0164983010874864E8 ; 7.856515636303302E8 ; 1.1063315773985876E10 ; 0.0
64 ; 1.2934011296212038E7 ; 2.016628854651855E8 ; 7.985830333359827E8 ; 1.1264965604094625E10 ; 0.0
65 ; 1.293608641240014E7 ; 2.0167603926688725E8 ; 8.115170446321948E8 ; 1.146662848955981E10 ; 0.0
66 ; 1.2937506620846462E7 ; 2.0168928773019603E8 ; 8.244531310445949E8 ; 1.1668304528826698E10 ; 0.0
67 ; 1.2940709245563729E7 ; 2.0170262717818674E8 ; 8.373906376654414E8 ; 1.1869993816556894E10 ; 0.0
68 ; 1.2944309314906064E7 ; 2.0171605403816092E8 ; 8.503313469110051E8 ; 1.207169644373508E10 ; 0.0
69 ; 1.294485856784049E7 ; 2.0172956483908987E8 ; 8.632756562259113E8 ; 1.2273412497773241E10 ; 0.0
70 ; 1.29476007404473E7 ; 2.0174315620902315E8 ; 8.762205147937517E8 ; 1.2475142062612331E10 ; 0.0
71 ; 1.2950416397084722E7 ; 2.0175682487247565E8 ; 8.89168115534199E8 ; 1.2676885218821354E10 ; 0.0
72 ; 1.2952947709986642E7 ; 2.0177056764780614E8 ; 9.021185319312837E8 ; 1.287864204369383E10 ; 0.0
73 ; 1.2952061943261465E7 ; 2.0178438144459733E8 ; 9.150714796412704E8 ; 1.3080412611341637E10 ; 0.0
74 ; 1.2956010322927514E7 ; 2.0179826326104802E8 ; 9.280235415845319E8 ; 1.3282196992786234E10 ; 0.0
75 ; 1.2958278021852946E7 ; 2.0181221018138453E8 ; 9.409795519074594E8 ; 1.3483995256047281E10 ; 0.0
76 ; 1.296087230831092E7 ; 2.0182621937329978E8 ; 9.539378299293123E8 ; 1.3685807466228666E10 ; 0.0
77 ; 1.2957988285600765E7 ; 2.0184028808542508E8 ; 9.668987022376232E8 ; 1.3887633685601967E10 ; 0.0
78 ; 1.2957432098557167E7 ; 2.0185441364484093E8 ; 9.79856690523224E8 ; 1.4089473973687391E10 ; 0.0
79 ; 1.295853213524093E7 ; 2.018685934546309E8 ; 9.928141226217811E8 ; 1.4291328387332232E10 ; 0.0
80 ; 1.295273110101977E7 ; 2.0188282499148238E8 ; 1.005772654757022E9 ; 1.4493196980786863E10 ; 0.0
81 ; 1.2947848692321034E7 ; 2.0189710580333716E8 ; 1.0187253858580418E9 ; 1.4695079805778345E10 ; 0.0
82 ; 1.2950120771737784E7 ; 2.019114335070948E8 ; 1.0316732345503628E9 ; 1.4896976911581682E10 ; 0.0
83 ; 1.2945666878518518E7 ; 2.0192580578637043E8 ; 1.0446233553221006E9 ; 1.5098888345088778E10 ; 0.0
84 ; 1.2942527098917434E7 ; 2.0194022038930824E8 ; 1.0575690222006191E9 ; 1.5300814150875149E10 ; 0.0
85 ; 1.2938197169873914E7 ; 2.0195467512645262E8 ; 1.0705115492995366E9 ; 1.5502754371264458E10 ; 0.0
86 ; 1.2934350273711417E7 ; 2.0196916786867648E8 ; 1.0834497464694104E9 ; 1.5704709046390911E10 ; 0.0
87 ; 1.2931974181340665E7 ; 2.0198369654516837E8 ; 1.0963840967431219E9 ; 1.5906678214259588E10 ; 0.0
88 ; 1.2932077552684886E7 ; 2.0199825914147726E8 ; 1.1093160709244626E9 ; 1.6108661910804756E10 ; 0.0
89 ; 1.2927550752689749E7 ; 2.0201285369761616E8 ; 1.1222481484771473E9 ; 1.6310660169946234E10 ; 0.0
90 ; 1.292105529318641E7 ; 2.0202747830622292E8 ; 1.1351756992298372E9 ; 1.651267302364385E10 ; 0.0
91 ; 1.2918827510217227E7 ; 2.0204213111077866E8 ; 1.1480967545230236E9 ; 1.6714700501950073E10 ; 0.0
92 ; 1.2915250519639866E7 ; 2.0205681030388266E8 ; 1.1610155820332408E9 ; 1.6916742633060852E10 ; 0.0
93 ; 1.2912076721789917E7 ; 2.0207151412558284E8 ; 1.1739308325528808E9 ; 1.7118799443364735E10 ; 0.0
94 ; 1.290460927947268E7 ; 2.0208624086176103E8 ; 1.1868429092746706E9 ; 1.732087095749032E10 ; 0.0
95 ; 1.2900603423449043E7 ; 2.021009888425721E8 ; 1.1997475185541432E9 ; 1.7522957198352077E10 ; 0.0
96 ; 1.2896598284418438E7 ; 2.021157564409353E8 ; 1.2126481219775922E9 ; 1.772505818719465E10 ; 0.0
97 ; 1.2892419482797587E7 ; 2.021305420710774E8 ; 1.2255447202620106E9 ; 1.7927173943635586E10 ; 0.0
98 ; 1.2887368452914093E7 ; 2.0214534418712556E8 ; 1.2384371397448082E9 ; 1.8129304485706665E10 ; 0.0
99 ; 1.2882661625461694E7 ; 2.021601612817492E8 ; 1.2513245081977222E9 ; 1.833144982989379E10 ; 0.0
100 ; 1.2881117551428147E7 ; 2.0217499188484952E8 ; 1.2642071698231838E9 ; 1.853360999117554E10 ; 0.0
101 ; 1.2876124843603017E7 ; 2.0218983456229508E8 ; 1.2770882873746119E9 ; 1.873578498306039E10 ; 0.0
102 ; 1.2869583108084952E7 ; 2.022046879147023E8 ; 1.289964412218215E9 ; 1.8937974817622684E10 ; 0.0
103 ; 1.2863689842249006E7 ; 2.0221955057625946E8 ; 1.3028339953263E9 ; 1.9140179505537388E10 ; 0.0
104 ; 1.2859059660528697E7 ; 2.022344212135931E8 ; 1.3156976851685488E9 ; 1.9342399056113647E10 ; 0.0
105 ; 1.2854656763710916E7 ; 2.0224929852467495E8 ; 1.3285567448290775E9 ; 1.954463347732724E10 ; 0.0
106 ; 1.2848550504502337E7 ; 2.0226418123776877E8 ; 1.3414114015927885E9 ; 1.9746882775851913E10 ; 0.0
107 ; 1.284626684656316E7 ; 2.0227906811041537E8 ; 1.3542599520972908E9 ; 1.9949146957089684E10 ; 0.0
108 ; 1.2839337874746358E7 ; 2.0229395792845443E8 ; 1.3671062189438539E9 ; 2.01514260252001E10 ; 0.0
109 ; 1.2829930567190137E7 ; 2.0230884950508234E8 ; 1.3799455568186002E9 ; 2.0353719983128555E10 ; 0.0
110 ; 1.2828675630872611E7 ; 2.0232374167994443E8 ; 1.3927754873857903E9 ; 2.0556028832633636E10 ; 0.0
111 ; 1.2820277326479005E7 ; 2.0233863331826052E8 ; 1.405604163016663E9 ; 2.075835257431358E10 ; 0.0
112 ; 1.2814163362239737E7 ; 2.023535233099826E8 ; 1.418424440343142E9 ; 2.096069120763184E10 ; 0.0
113 ; 1.2807053686612086E7 ; 2.023684105689836E8 ; 1.4312386037053819E9 ; 2.1163044730941822E10 ; 0.0
114 ; 1.2801662523163462E7 ; 2.0238329403227594E8 ; 1.444045657391994E9 ; 2.1365413141510807E10 ; 0.0
115 ; 1.2793641326175286E7 ; 2.02398172659259E8 ; 1.4568473199151576E9 ; 2.1567796435543083E10 ; 0.0
116 ; 1.2789608964484362E7 ; 2.0241304543099418E8 ; 1.4696409612413328E9 ; 2.1770194608202343E10 ; 0.0
117 ; 1.2784312236181842E7 ; 2.02427911349507E8 ; 1.4824305702058172E9 ; 2.197260765363334E10 ; 0.0
118 ; 1.2773139618322104E7 ; 2.024427694371146E8 ; 1.495214882441999E9 ; 2.2175035564982845E10 ; 0.0
119 ; 1.2767935667869452E7 ; 2.024576187357782E8 ; 1.507988022060321E9 ; 2.237747833441996E10 ; 0.0
120 ; 1.275915922405363E7 ; 2.0247245830647966E8 ; 1.5207559577281907E9 ; 2.257993595315574E10 ; 0.0
121 ; 1.274888110014565E7 ; 2.0248728722862044E8 ; 1.5335151169522443E9 ; 2.278240841146222E10 ; 0.0
122 ; 1.2745609834291946E7 ; 2.025021045994433E8 ; 1.5462639980523899E9 ; 2.2984895698690838E10 ; 0.0
123 ; 1.274339010570466E7 ; 2.0251690953347486E8 ; 1.5590096078866818E9 ; 2.318739780329028E10 ; 0.0
124 ; 1.2731737430335935E7 ; 2.0253170116198888E8 ; 1.5717529979923863E9 ; 2.3389914712823753E10 ; 0.0
125 ; 1.2721478767501468E7 ; 2.0254647863248897E8 ; 1.5844847354227223E9 ; 2.359244641398574E10 ; 0.0
126 ; 1.2715714681217154E7 ; 2.025612411082105E8 ; 1.5972062141902237E9 ; 2.379499289261823E10 ; 0.0
127 ; 1.27076659612169E7 ; 2.025759877676407E8 ; 1.609921928871441E9 ; 2.399755413372644E10 ; 0.0
128 ; 1.2697934637054075E7 ; 2.025907178040561E8 ; 1.6226295948326578E9 ; 2.420013012149408E10 ; 0.0
129 ; 1.2691521841675196E7 ; 2.02605430425077E8 ; 1.6353275294697118E9 ; 2.4402720839298134E10 ; 0.0
130 ; 1.2686197586037265E7 ; 2.0262012485223812E8 ; 1.648019051311387E9 ; 2.460532626972321E10 ; 0.0
131 ; 1.2669024211452438E7 ; 2.0263480032057485E8 ; 1.6607052488974242E9 ; 2.4807946394575447E10 ; 0.0
132 ; 1.2656253983863417E7 ; 2.026494560782245E8 ; 1.6733742731088767E9 ; 2.5010581194896023E10 ; 0.0
133 ; 1.2644410013391426E7 ; 2.0266409138604188E8 ; 1.68603052709274E9 ; 2.5213230650974247E10 ; 0.0
134 ; 1.2634717895732129E7 ; 2.026787055172289E8 ; 1.6986749371061316E9 ; 2.541589474236029E10 ; 0.0
135 ; 1.2624173170441765E7 ; 2.0269329775697744E8 ; 1.7113096550018637E9 ; 2.5618573447877518E10 ; 0.0
136 ; 1.2612544524060948E7 ; 2.0270786740212506E8 ; 1.7239338281723056E9 ; 2.5821266745634495E10 ; 0.0
137 ; 1.2597865153349526E7 ; 2.0272241376082298E8 ; 1.7365463726963665E9 ; 2.602397461303662E10 ; 0.0
138 ; 1.2584161717206642E7 ; 2.027369361522161E8 ; 1.7491442378497162E9 ; 2.6226697026797443E10 ; 0.0
139 ; 1.2570605728192898E7 ; 2.0275143390613428E8 ; 1.761728399566923E9 ; 2.642943396294966E10 ; 0.0
140 ; 1.2559240521056613E7 ; 2.0276590636279464E8 ; 1.7742990052951157E9 ; 2.6632185396855797E10 ; 0.0
141 ; 1.2544016205475878E7 ; 2.0278035287251446E8 ; 1.7868582458161724E9 ; 2.683495130321859E10 ; 0.0
142 ; 1.2531086844251674E7 ; 2.0279477279543424E8 ; 1.7994022620216482E9 ; 2.7037731656091103E10 ; 0.0
143 ; 1.2521463584733311E7 ; 2.028091655012505E8 ; 1.8119333488658998E9 ; 2.7240526428886536E10 ; 0.0
144 ; 1.2505650856793378E7 ; 2.028235303689581E8 ; 1.824454812450633E9 ; 2.7443335594387787E10 ; 0.0
145 ; 1.2494061113308145E7 ; 2.0283786678660128E8 ; 1.8369604633074265E9 ; 2.7646159124756744E10 ; 0.0
146 ; 1.2486458097583026E7 ; 2.0285217415103397E8 ; 1.8494545244207346E9 ; 2.7848996991543346E10 ; 0.0
147 ; 1.2479642672383765E7 ; 2.028664518676879E8 ; 1.8619409825183177E9 ; 2.805184916569438E10 ; 0.0
148 ; 1.247233026639368E7 ; 2.0288069935034922E8 ; 1.8744206251907015E9 ; 2.825471561756207E10 ; 0.0
149 ; 1.2464901646570198E7 ; 2.0289491602094254E8 ; 1.8868929554570951E9 ; 2.845759631691242E10 ; 0.0
150 ; 1.2451211541804722E7 ; 2.029091013093227E8 ; 1.8993578571036654E9 ; 2.866049123293336E10 ; 0.0
151 ; 1.244660603376782E7 ; 2.0292325465307373E8 ; 1.9118090686454701E9 ; 2.8863400334242683E10 ; 0.0
152 ; 1.2437336070011567E7 ; 2.0293737549731433E8 ; 1.9242556746792378E9 ; 2.9066323588895756E10 ; 0.0
153 ; 1.2427832463577185E7 ; 2.0295146329451075E8 ; 1.9366930107492495E9 ; 2.926926096439307E10 ; 0.0
154 ; 1.2419137462007169E7 ; 2.029655175042953E8 ; 1.9491208432128267E9 ; 2.947221242768758E10 ; 0.0
155 ; 1.2409115732314026E7 ; 2.0297953759329164E8 ; 1.961539980674834E9 ; 2.9675177945191875E10 ; 0.0
156 ; 1.2395605715751303E7 ; 2.0299352303494573E8 ; 1.9739490964071481E9 ; 2.9878157482785168E10 ; 0.0
157 ; 1.2389274266477868E7 ; 2.030074733093626E8 ; 1.9863447021228995E9 ; 3.0081151005820114E10 ; 0.0
158 ; 1.2380909955703918E7 ; 2.0302138790314853E8 ; 1.9987339763893774E9 ; 3.028415847912948E10 ; 0.0
159 ; 1.2372105873552652E7 ; 2.0303526630925888E8 ; 2.0111148863450813E9 ; 3.0487179867032627E10 ; 0.0
160 ; 1.2361857900492E7 ; 2.0304910802685058E8 ; 2.023486992218634E9 ; 3.0690215133341885E10 ; 0.0
161 ; 1.235343274000394E7 ; 2.030629125611399E8 ; 2.0358488501191258E9 ; 3.0893264241368736E10 ; 0.0
162 ; 1.2345840265079847E7 ; 2.03076679423265E8 ; 2.0482022828591297E9 ; 3.1096327153929874E10 ; 0.0
163 ; 1.2334776070998153E7 ; 2.0309040813015273E8 ; 2.0605481231242094E9 ; 3.1299403833353138E10 ; 0.0
164 ; 1.2321407476550546E7 ; 2.0310409820439023E8 ; 2.0728828991952076E9 ; 3.150249424148329E10 ; 0.0
165 ; 1.231702388677293E7 ; 2.0311774917410067E8 ; 2.0852043066717582E9 ; 3.1705598339687683E10 ; 0.0
166 ; 1.2304193556222433E7 ; 2.0313136057282296E8 ; 2.097521330558531E9 ; 3.1908716088861782E10 ; 0.0
167 ; 1.2291972612573547E7 ; 2.0314493193939564E8 ; 2.1098255241147535E9 ; 3.2111847449434605E10 ; 0.0
168 ; 1.228908479951055E7 ; 2.0315846281784442E8 ; 2.122117496727327E9 ; 3.2314992381374E10 ; 0.0
169 ; 1.2277192225479754E7 ; 2.0317195275727355E8 ; 2.1344065815268376E9 ; 3.2518150844191845E10 ; 0.0
170 ; 1.2271259808217073E7 ; 2.031854013117607E8 ; 2.1466837737523174E9 ; 3.272132279694912E10 ; 0.0
171 ; 1.2258374832298284E7 ; 2.0319880804025507E8 ; 2.1589550335605345E9 ; 3.292450819826088E10 ; 0.0
172 ; 1.2249829398780968E7 ; 2.0321217250647923E8 ; 2.1712134083928328E9 ; 3.3127707006301136E10 ; 0.0
173 ; 1.223616994598796E7 ; 2.032254942788338E8 ; 2.1834632377916136E9 ; 3.3330919178807613E10 ; 0.0
174 ; 1.223539399834659E7 ; 2.0323877293030533E8 ; 2.1956994077376018E9 ; 3.353414467308645E10 ; 0.0
175 ; 1.2228469012275144E7 ; 2.0325200803837714E8 ; 2.2079348017359486E9 ; 3.3737383446016754E10 ; 0.0
176 ; 1.2219243863633962E7 ; 2.0326519918494302E8 ; 2.220163270748224E9 ; 3.394063545405513E10 ; 0.0
177 ; 1.2213360912133215E7 ; 2.032783459562238E8 ; 2.232382514611858E9 ; 3.4143900653240074E10 ; 0.0
178 ; 1.2207296833354393E7 ; 2.032914479426865E8 ; 2.244595875523991E9 ; 3.4347178999196297E10 ; 0.0
179 ; 1.22046153153265E7 ; 2.03304504738966E8 ; 2.2568031723573456E9 ; 3.4550470447138985E10 ; 0.0
180 ; 1.2194018495842928E7 ; 2.033175159437894E8 ; 2.2690077876726723E9 ; 3.475377495187795E10 ; 0.0
181 ; 1.2191229467478579E7 ; 2.0333048115990254E8 ; 2.281201806168515E9 ; 3.495709246782174E10 ; 0.0
182 ; 1.2183850030598266E7 ; 2.0334339999399918E8 ; 2.293393035635994E9 ; 3.516042294898164E10 ; 0.0
183 ; 1.2179787382687109E7 ; 2.0335627205665198E8 ; 2.305576885666592E9 ; 3.536376634897564E10 ; 0.0
184 ; 1.2175124942102501E7 ; 2.0336909696224606E8 ; 2.317756673049279E9 ; 3.556712262103229E10 ; 0.0
185 ; 1.2166175735761298E7 ; 2.033818743289145E8 ; 2.3299317979913816E9 ; 3.577049171799454E10 ; 0.0
186 ; 1.2160925270696647E7 ; 2.033946037784758E8 ; 2.342097973727143E9 ; 3.597387359232345E10 ; 0.0
187 ; 1.2154124758606717E7 ; 2.0340728493637338E8 ; 2.3542588989978395E9 ; 3.617726819610192E10 ; 0.0
188 ; 1.2146540534105942E7 ; 2.0341991743161696E8 ; 2.3664130237564464E9 ; 3.638067548103829E10 ; 0.0
189 ; 1.214471981519872E7 ; 2.034325008967258E8 ; 2.378559564290552E9 ; 3.658409539846991E10 ; 0.0
190 ; 1.2137158727485737E7 ; 2.034450349676736E8 ; 2.390704284105751E9 ; 3.678752789936664E10 ; 0.0
191 ; 1.2131376759222694E7 ; 2.0345751928383523E8 ; 2.4028414428332367E9 ; 3.699097293433431E10 ; 0.0
192 ; 1.2125575239461498E7 ; 2.034699534879351E8 ; 2.414972819592459E9 ; 3.719443045361815E10 ; 0.0
193 ; 1.211846861239393E7 ; 2.0348233722599703E8 ; 2.4270983948319206E9 ; 3.739790040710609E10 ; 0.0
194 ; 1.2116467805678112E7 ; 2.0349467014729574E8 ; 2.4392168634443145E9 ; 3.7601382744332085E10 ; 0.0
195 ; 1.21075164452089E7 ; 2.0350695190430993E8 ; 2.4513333312499924E9 ; 3.780487741447938E10 ; 0.0
