CSV File for the City 1 on Day 77
1 - Minute m 
2 - Power Consumed at minute m 
3 - Power Produced at minute m 
4 - Energy Consumed since the beginning of the day 
5 - Energy Produced since the beginning of the day 
6 - Energy Lost since the beginning of the day on lines starting from the city
 
0 ; 1.6031369912406705E7 ; 1.0550349658647558E8 ; 0.0 ; 0.0 ; 0.0
1 ; 1.6047807822608277E7 ; 1.0565642385656953E8 ; 1.6031369912406705E7 ; 1.0550349658647558E8 ; 0.0
2 ; 1.6063035410531465E7 ; 1.0611813467276564E8 ; 3.2079177735014983E7 ; 2.111599204430451E8 ; 0.0
3 ; 1.608431248466591E7 ; 1.068886307024324E8 ; 4.814221314554645E7 ; 3.1727805511581075E8 ; 0.0
4 ; 1.6109998567798344E7 ; 1.07967913442563E8 ; 6.422652563021236E7 ; 4.2416668581824315E8 ; 0.0
5 ; 1.6132019043430356E7 ; 1.0935598421056294E8 ; 8.03365241980107E7 ; 5.3213459926080614E8 ; 0.0
6 ; 1.6179516252369406E7 ; 1.1105284413596967E8 ; 9.646854324144106E7 ; 6.41490583471369E8 ; 0.0
7 ; 1.623226662207848E7 ; 1.1305849415322202E8 ; 1.1264805949381046E8 ; 7.525434276073387E8 ; 0.0
8 ; 1.6308240434302438E7 ; 1.1537293499558794E8 ; 1.2888032611588894E8 ; 8.656019217605608E8 ; 0.0
9 ; 1.6422088416887809E7 ; 1.1799616719034147E8 ; 1.4518856655019137E8 ; 9.809748567561487E8 ; 0.0
10 ; 1.6604575485879036E7 ; 1.2092819105526239E8 ; 1.616106549670792E8 ; 1.0989710239464903E9 ; 0.0
11 ; 1.689274859313271E7 ; 1.2416900669651434E8 ; 1.7821523045295823E8 ; 1.2198992150017526E9 ; 0.0
12 ; 1.7356184934140455E7 ; 1.2771861400793365E8 ; 1.9510797904609093E8 ; 1.344068221698267E9 ; 0.0
13 ; 1.77988900061786E7 ; 1.3157701267174053E8 ; 2.1246416398023137E8 ; 1.4717868357062006E9 ; 0.0
14 ; 1.7855756694157336E7 ; 1.3574420216066104E8 ; 2.3026305398640996E8 ; 1.6033638483779411E9 ; 0.0
15 ; 1.78788578614876E7 ; 1.4022018174142712E8 ; 2.481188106805673E8 ; 1.739108050538602E9 ; 0.0
16 ; 1.789563862962135E7 ; 1.4500495047960004E8 ; 2.659976685420549E8 ; 1.8793282322800293E9 ; 0.0
17 ; 1.791605213384786E7 ; 1.5009850724564227E8 ; 2.838933071716762E8 ; 2.0243331827596292E9 ; 0.0
18 ; 1.7933287062416792E7 ; 1.5550085072214836E8 ; 3.0180935930552405E8 ; 2.1744316900052714E9 ; 0.0
19 ; 1.7959188034699325E7 ; 1.6121197941212508E8 ; 3.1974264636794084E8 ; 2.32993254072742E9 ; 0.0
20 ; 1.797844267982602E7 ; 1.6723189164820394E8 ; 3.3770183440264016E8 ; 2.491144520139545E9 ; 0.0
21 ; 1.7999732141154233E7 ; 1.735605856026565E8 ; 3.556802770824662E8 ; 2.658376411787749E9 ; 0.0
22 ; 1.8023321369727697E7 ; 1.8019805929807782E8 ; 3.736800092236204E8 ; 2.831936997390405E9 ; 0.0
23 ; 1.8040100554098513E7 ; 1.8714431061859965E8 ; 3.917033305933481E8 ; 3.012135056688483E9 ; 0.0
24 ; 1.8064631669754494E7 ; 1.9439933732149565E8 ; 4.097434311474466E8 ; 3.199279367307083E9 ; 0.0
25 ; 1.8084794042501252E7 ; 2.0065117794722638E8 ; 4.278080628172011E8 ; 3.3936787046285787E9 ; 0.0
26 ; 1.81030570404976E7 ; 2.0065337786832115E8 ; 4.4589285685970235E8 ; 3.594329882575805E9 ; 0.0
27 ; 1.812485760625262E7 ; 2.0065570382626992E8 ; 4.6399591390019995E8 ; 3.794983260444126E9 ; 0.0
28 ; 1.814243198201162E7 ; 2.006581531901708E8 ; 4.8212077150645256E8 ; 3.995638964270396E9 ; 0.0
29 ; 1.8166881934659723E7 ; 2.0066072326163405E8 ; 5.002632034884642E8 ; 4.196297117460567E9 ; 0.0
30 ; 1.818459737170474E7 ; 2.0066341128613055E8 ; 5.184300854231239E8 ; 4.396957840722201E9 ; 0.0
31 ; 1.8205144653400984E7 ; 2.0066621446394992E8 ; 5.3661468279482865E8 ; 4.597621252008332E9 ; 0.0
32 ; 1.822690246851301E7 ; 2.0066912996069926E8 ; 5.548198274482297E8 ; 4.798287466472282E9 ; 0.0
33 ; 1.824309763598845E7 ; 2.0067215491728625E8 ; 5.730467299167427E8 ; 4.9989565964329815E9 ; 0.0
34 ; 1.8258000871732842E7 ; 2.006752864593422E8 ; 5.912898275527312E8 ; 5.199628751350267E9 ; 0.0
35 ; 1.8272639144822005E7 ; 2.006785217060521E8 ; 6.09547828424464E8 ; 5.400304037809609E9 ; 0.0
36 ; 1.8294879821289115E7 ; 2.006818577783686E8 ; 6.27820467569286E8 ; 5.600982559515661E9 ; 0.0
37 ; 1.830861583915685E7 ; 2.00685291806598E8 ; 6.46115347390575E8 ; 5.80166441729403E9 ; 0.0
38 ; 1.8325577782479513E7 ; 2.006888209373538E8 ; 6.644239632297319E8 ; 6.002349709100628E9 ; 0.0
39 ; 1.8344230268682633E7 ; 2.0069244233988166E8 ; 6.827495410122114E8 ; 6.203038530037982E9 ; 0.0
40 ; 1.8354607437186535E7 ; 2.0069615321176675E8 ; 7.01093771280894E8 ; 6.403730972377864E9 ; 0.0
41 ; 1.837037897054786E7 ; 2.0069995078403935E8 ; 7.194483787180805E8 ; 6.604427125589631E9 ; 0.0
42 ; 1.8378097345858186E7 ; 2.0070383232570013E8 ; 7.378187576886284E8 ; 6.805127076373671E9 ; 0.0
43 ; 1.8388742599814117E7 ; 2.0070779514768985E8 ; 7.561968550344867E8 ; 7.00583090869937E9 ; 0.0
44 ; 1.840457446992944E7 ; 2.007118366063311E8 ; 7.745855976343007E8 ; 7.20653870384706E9 ; 0.0
45 ; 1.8412154203516148E7 ; 2.0071595410627246E8 ; 7.929901721042302E8 ; 7.407250540453391E9 ; 0.0
46 ; 1.8425279962859426E7 ; 2.007201451029658E8 ; 8.114023263077463E8 ; 7.607966494559664E9 ; 0.0
47 ; 1.8433379071236797E7 ; 2.0072440710470968E8 ; 8.298276062706057E8 ; 7.808686639662629E9 ; 0.0
48 ; 1.8439713615596693E7 ; 2.007287376742906E8 ; 8.482609853418425E8 ; 8.009411046767339E9 ; 0.0
49 ; 1.8444181025876153E7 ; 2.0073313443025458E8 ; 8.667006989574392E8 ; 8.210139784441629E9 ; 0.0
50 ; 1.8457306742711645E7 ; 2.0073759504784104E8 ; 8.851448799833153E8 ; 8.410872918871884E9 ; 0.0
51 ; 1.8457349452165384E7 ; 2.007421172596091E8 ; 9.03602186726027E8 ; 8.611610513919725E9 ; 0.0
52 ; 1.8466111713152185E7 ; 2.0074669885578647E8 ; 9.220595361781924E8 ; 8.812352631179335E9 ; 0.0
53 ; 1.846676694354953E7 ; 2.0075133768436897E8 ; 9.405256478913445E8 ; 9.013099330035122E9 ; 0.0
54 ; 1.8473259497100137E7 ; 2.0075603165099737E8 ; 9.589924148348941E8 ; 9.21385066771949E9 ; 0.0
55 ; 1.8480148800928764E7 ; 2.0076077871863708E8 ; 9.774656743319942E8 ; 9.414606699370487E9 ; 0.0
56 ; 1.8485335347808626E7 ; 2.0076557690708408E8 ; 9.959458231329229E8 ; 9.615367478089125E9 ; 0.0
57 ; 1.848977902070919E7 ; 2.0077042429231912E8 ; 1.0144311584807315E9 ; 9.816133054996208E9 ; 0.0
58 ; 1.8494466347431414E7 ; 2.0077531900573036E8 ; 1.0329209375014406E9 ; 1.0016903479288527E10 ; 0.0
59 ; 1.8498835403640453E7 ; 2.0078025923322365E8 ; 1.0514154038488721E9 ; 1.0217678798294256E10 ; 0.0
60 ; 1.8503312446909443E7 ; 2.0078524321423686E8 ; 1.0699142392525126E9 ; 1.041845905752748E10 ; 0.0
61 ; 1.8504128145162277E7 ; 2.0079026924067456E8 ; 1.0884175516994221E9 ; 1.0619244300741716E10 ; 0.0
62 ; 1.8505227664638117E7 ; 2.0079533565577692E8 ; 1.1069216798445845E9 ; 1.0820034569982391E10 ; 0.0
63 ; 1.851215162902004E7 ; 2.008004408529355E8 ; 1.1254269075092225E9 ; 1.1020829905638168E10 ; 0.0
64 ; 1.8516530320096105E7 ; 2.008055832744679E8 ; 1.1439390591382425E9 ; 1.1221630346491104E10 ; 0.0
65 ; 1.8520056691743195E7 ; 2.0081076141036114E8 ; 1.1624555894583385E9 ; 1.1422435929765572E10 ; 0.0
66 ; 1.8524686946147773E7 ; 2.0081597379699335E8 ; 1.1809756461500816E9 ; 1.1623246691175932E10 ; 0.0
67 ; 1.852524692429075E7 ; 2.0082121901584145E8 ; 1.1995003330962293E9 ; 1.1824062664972925E10 ; 0.0
68 ; 1.8527991120333858E7 ; 2.0082649569218272E8 ; 1.21802558002052E9 ; 1.2024883883988766E10 ; 0.0
69 ; 1.8531217355907887E7 ; 2.008318024937958E8 ; 1.236553571140854E9 ; 1.2225710379680948E10 ; 0.0
70 ; 1.8534685350241758E7 ; 2.0083713812966728E8 ; 1.2550847884967618E9 ; 1.2426542182174744E10 ; 0.0
71 ; 1.853600791350318E7 ; 2.0084250134870806E8 ; 1.2736194738470035E9 ; 1.262737932030441E10 ; 0.0
72 ; 1.8541671725251827E7 ; 2.008478909384843E8 ; 1.2921554817605066E9 ; 1.2828221821653118E10 ; 0.0
73 ; 1.853782320533719E7 ; 2.0085330572396582E8 ; 1.3106971534857585E9 ; 1.3029069712591602E10 ; 0.0
74 ; 1.8543938927060127E7 ; 2.0085874456629524E8 ; 1.3292349766910958E9 ; 1.3229923018315569E10 ; 0.0
75 ; 1.854408861368827E7 ; 2.0086420636158025E8 ; 1.347778915618156E9 ; 1.3430781762881865E10 ; 0.0
76 ; 1.854204842889358E7 ; 2.0086969003971124E8 ; 1.3663230042318442E9 ; 1.3631645969243444E10 ; 0.0
77 ; 1.8542747174455438E7 ; 2.0087519456320557E8 ; 1.3848650526607378E9 ; 1.3832515659283155E10 ; 0.0
78 ; 1.8539741635175668E7 ; 2.008807189260802E8 ; 1.4034077998351932E9 ; 1.4033390853846361E10 ; 0.0
79 ; 1.853841595929711E7 ; 2.0088626215275335E8 ; 1.4219475414703689E9 ; 1.4234271572772442E10 ; 0.0
80 ; 1.8532942055522155E7 ; 2.0089182329697615E8 ; 1.440485957429666E9 ; 1.4435157834925196E10 ; 0.0
81 ; 1.852430622005137E7 ; 2.0089740144079474E8 ; 1.4590188994851882E9 ; 1.4636049658222172E10 ; 0.0
82 ; 1.8520731688396893E7 ; 2.009029956935429E8 ; 1.4775432057052395E9 ; 1.4836947059662966E10 ; 0.0
83 ; 1.8518284362118285E7 ; 2.0090860519086576E8 ; 1.4960639373936365E9 ; 1.5037850055356508E10 ; 0.0
84 ; 1.8516169011102192E7 ; 2.009142290937739E8 ; 1.5145822217557547E9 ; 1.5238758660547375E10 ; 0.0
85 ; 1.850977846398064E7 ; 2.0091986658772844E8 ; 1.533098390766857E9 ; 1.543967288964115E10 ; 0.0
86 ; 1.8498659387602307E7 ; 2.009255168817561E8 ; 1.5516081692308376E9 ; 1.5640592756228878E10 ; 0.0
87 ; 1.849699395446846E7 ; 2.0093117920759434E8 ; 1.57010682861844E9 ; 1.5841518273110634E10 ; 0.0
88 ; 1.8488443355287746E7 ; 2.0093685281886572E8 ; 1.5886038225729084E9 ; 1.6042449452318228E10 ; 0.0
89 ; 1.8479471654621262E7 ; 2.0094253699028143E8 ; 1.6070922659281962E9 ; 1.6243386305137093E10 ; 0.0
90 ; 1.847489236021266E7 ; 2.009482310168728E8 ; 1.6255717375828176E9 ; 1.6444328842127375E10 ; 0.0
91 ; 1.8472847509397123E7 ; 2.0095393421325058E8 ; 1.64404662994303E9 ; 1.6645277073144247E10 ; 0.0
92 ; 1.8465752196893547E7 ; 2.0095964591289115E8 ; 1.6625194774524271E9 ; 1.6846231007357498E10 ; 0.0
93 ; 1.8457691197023317E7 ; 2.00965365467449E8 ; 1.6809852296493206E9 ; 1.704719065327039E10 ; 0.0
94 ; 1.844985305369314E7 ; 2.0097109224609464E8 ; 1.699442920846344E9 ; 1.724815601873784E10 ; 0.0
95 ; 1.844540076849315E7 ; 2.009768256348773E8 ; 1.717892773900037E9 ; 1.7449127110983932E10 ; 0.0
96 ; 1.843421158967581E7 ; 2.009825650361117E8 ; 1.7363381746685302E9 ; 1.765010393661881E10 ; 0.0
97 ; 1.843162682111734E7 ; 2.009883098677881E8 ; 1.7547723862582061E9 ; 1.785108650165492E10 ; 0.0
98 ; 1.842090340697171E7 ; 2.009940595630047E8 ; 1.7732040130793235E9 ; 1.8052074811522705E10 ; 0.0
99 ; 1.841120606502749E7 ; 2.00999813569422E8 ; 1.7916249164862952E9 ; 1.825306887108571E10 ; 0.0
100 ; 1.8403583640863273E7 ; 2.0100557134873804E8 ; 1.8100361225513227E9 ; 1.8454068684655132E10 ; 0.0
101 ; 1.8400006687240407E7 ; 2.0101133237618408E8 ; 1.8284397061921859E9 ; 1.8655074256003872E10 ; 0.0
102 ; 1.8384908862962842E7 ; 2.0101709614003956E8 ; 1.8468397128794262E9 ; 1.8856085588380054E10 ; 0.0
103 ; 1.8376066678406134E7 ; 2.010228621411664E8 ; 1.8652246217423892E9 ; 1.9057102684520096E10 ; 0.0
104 ; 1.837325473250787E7 ; 2.010286298925608E8 ; 1.8836006884207954E9 ; 1.9258125546661263E10 ; 0.0
105 ; 1.8362110362224028E7 ; 2.010343989189234E8 ; 1.9019739431533034E9 ; 1.945915417655382E10 ; 0.0
106 ; 1.8355323702574898E7 ; 2.010401687562454E8 ; 1.9203360535155275E9 ; 1.9660188575472744E10 ; 0.0
107 ; 1.8345503182249114E7 ; 2.0104593895141146E8 ; 1.9386913772181025E9 ; 1.986122874422899E10 ; 0.0
108 ; 1.8340059887028314E7 ; 2.0105170906181797E8 ; 1.9570368804003515E9 ; 2.00622746831804E10 ; 0.0
109 ; 1.832803235374512E7 ; 2.010574786550064E8 ; 1.9753769402873797E9 ; 2.0263326392242218E10 ; 0.0
110 ; 1.831577994725686E7 ; 2.010632473083109E8 ; 1.993704972641125E9 ; 2.0464383870897224E10 ; 0.0
111 ; 1.8306294129487876E7 ; 2.0106901460851982E8 ; 2.0120207525883818E9 ; 2.0665447118205536E10 ; 0.0
112 ; 1.8291720524956092E7 ; 2.0107478015155047E8 ; 2.0303270467178698E9 ; 2.0866516132814056E10 ; 0.0
113 ; 1.8286755050844144E7 ; 2.0108054354213676E8 ; 2.0486187672428257E9 ; 2.1067590912965607E10 ; 0.0
114 ; 1.8276334490313463E7 ; 2.0108630439352885E8 ; 2.06690552229367E9 ; 2.1268671456507744E10 ; 0.0
115 ; 1.826199890196335E7 ; 2.0109206232720476E8 ; 2.0851818567839835E9 ; 2.146975776090127E10 ; 0.0
116 ; 1.8253968732395917E7 ; 2.0109781697259322E8 ; 2.1034438556859467E9 ; 2.1670849823228477E10 ; 0.0
117 ; 1.8242285990213558E7 ; 2.0110356796680728E8 ; 2.1216978244183426E9 ; 2.187194764020107E10 ; 0.0
118 ; 1.823171769958066E7 ; 2.0110931495438838E8 ; 2.1399401104085562E9 ; 2.2073051208167877E10 ; 0.0
119 ; 1.822400145784041E7 ; 2.011150575870603E8 ; 2.1581718281081367E9 ; 2.2274160523122265E10 ; 0.0
120 ; 1.8208512687938422E7 ; 2.011207955234928E8 ; 2.176395829565977E9 ; 2.2475275580709324E10 ; 0.0
121 ; 1.819375333365724E7 ; 2.011265284290744E8 ; 2.1946043422539153E9 ; 2.267639637623282E10 ; 0.0
122 ; 1.8185462460014135E7 ; 2.0113225597569382E8 ; 2.2127980955875726E9 ; 2.2877522904661892E10 ; 0.0
123 ; 1.8172352002077587E7 ; 2.011379778415301E8 ; 2.230983558047587E9 ; 2.3078655160637585E10 ; 0.0
124 ; 1.8159834079311185E7 ; 2.0114369371085066E8 ; 2.2491559100496645E9 ; 2.3279793138479115E10 ; 0.0
125 ; 1.814833433093166E7 ; 2.0114940327381703E8 ; 2.267315744128976E9 ; 2.3480936832189964E10 ; 0.0
126 ; 1.8135469513797242E7 ; 2.0115510622629842E8 ; 2.2854640784599075E9 ; 2.368208623546378E10 ; 0.0
127 ; 1.812802631785207E7 ; 2.0116080226969203E8 ; 2.303599547973705E9 ; 2.388324134169008E10 ; 0.0
128 ; 1.8112323184621654E7 ; 2.011664911107504E8 ; 2.321727574291557E9 ; 2.408440214395977E10 ; 0.0
129 ; 1.809792332174948E7 ; 2.011721724614153E8 ; 2.3398398974761786E9 ; 2.4285568635070522E10 ; 0.0
130 ; 1.8082776000986326E7 ; 2.01177846038658E8 ; 2.3579378207979283E9 ; 2.4486740807531937E10 ; 0.0
131 ; 1.806271261200386E7 ; 2.011835115643255E8 ; 2.3760205967989144E9 ; 2.4687918653570595E10 ; 0.0
132 ; 1.8041335786030605E7 ; 2.0118916876499265E8 ; 2.394083309410918E9 ; 2.4889102165134922E10 ; 0.0
133 ; 1.8027034525055762E7 ; 2.0119481737181973E8 ; 2.412124645196949E9 ; 2.5090291333899914E10 ; 0.0
134 ; 1.8005428302680556E7 ; 2.0120045712041554E8 ; 2.430151679722005E9 ; 2.5291486151271732E10 ; 0.0
135 ; 1.798622224423744E7 ; 2.0120608775070545E8 ; 2.4481571080246854E9 ; 2.5492686608392147E10 ; 0.0
136 ; 1.7971641242208265E7 ; 2.012117090068045E8 ; 2.466143330268923E9 ; 2.5693892696142853E10 ; 0.0
137 ; 1.7947143465304594E7 ; 2.0121732063689524E8 ; 2.4841149715111313E9 ; 2.589510440514966E10 ; 0.0
138 ; 1.792939964543201E7 ; 2.0122292239310992E8 ; 2.5020621149764357E9 ; 2.6096321725786552E10 ; 0.0
139 ; 1.790680664090964E7 ; 2.0122851403141728E8 ; 2.5199915146218677E9 ; 2.629754464817966E10 ; 0.0
140 ; 1.7886953848621108E7 ; 2.0123409531151336E8 ; 2.5378983212627773E9 ; 2.649877316221108E10 ; 0.0
141 ; 1.786988738403165E7 ; 2.0123966599671635E8 ; 2.555785275111398E9 ; 2.670000725752259E10 ; 0.0
142 ; 1.7844547437304232E7 ; 2.0124522585386539E8 ; 2.57365516249543E9 ; 2.6901246923519306E10 ; 0.0
143 ; 1.7829560023047194E7 ; 2.012507746532229E8 ; 2.591499709932734E9 ; 2.7102492149373173E10 ; 0.0
144 ; 1.78042050890877E7 ; 2.0125631216838056E8 ; 2.609329269955781E9 ; 2.7303742924026394E10 ; 0.0
145 ; 1.779037247232351E7 ; 2.0126183817616886E8 ; 2.6271334750448685E9 ; 2.7504999236194775E10 ; 0.0
146 ; 1.7777891254964396E7 ; 2.0126735245656958E8 ; 2.644923847517192E9 ; 2.7706261074370945E10 ; 0.0
147 ; 1.7757678946795657E7 ; 2.0127285479263166E8 ; 2.6627017387721562E9 ; 2.7907528426827515E10 ; 0.0
148 ; 1.775030360631782E7 ; 2.0127834497039014E8 ; 2.6804594177189517E9 ; 2.8108801281620148E10 ; 0.0
149 ; 1.7732588252477508E7 ; 2.012838227787878E8 ; 2.6982097213252697E9 ; 2.8310079626590538E10 ; 0.0
150 ; 1.7719550502275486E7 ; 2.012892880095998E8 ; 2.7159423095777473E9 ; 2.8511363449369328E10 ; 0.0
151 ; 1.7706089199136898E7 ; 2.012947404573609E8 ; 2.733661860080023E9 ; 2.871265273737893E10 ; 0.0
152 ; 1.7691207059632584E7 ; 2.013001799192952E8 ; 2.7513679492791595E9 ; 2.891394747783629E10 ; 0.0
153 ; 1.7675193345403466E7 ; 2.0130560619524854E8 ; 2.7690591563387923E9 ; 2.9115247657755585E10 ; 0.0
154 ; 1.76622454648161E7 ; 2.013110190876232E8 ; 2.786734349684196E9 ; 2.9316553263950832E10 ; 0.0
155 ; 1.764335982501474E7 ; 2.0131641840131485E8 ; 2.804396595149012E9 ; 2.9517864283038456E10 ; 0.0
156 ; 1.7633668025866907E7 ; 2.013218039436517E8 ; 2.8220399549740267E9 ; 2.971918070143977E10 ; 0.0
157 ; 1.7615251445323497E7 ; 2.0132717552433586E8 ; 2.8396736229998937E9 ; 2.9920502505383423E10 ; 0.0
158 ; 1.760615512329529E7 ; 2.013325329553868E8 ; 2.857288874445217E9 ; 3.012182968090776E10 ; 0.0
159 ; 1.7590304703591518E7 ; 2.013378760510865E8 ; 2.8748950295685124E9 ; 3.0323162213863148E10 ; 0.0
160 ; 1.7575957188757904E7 ; 2.0134320462792677E8 ; 2.892485334272104E9 ; 3.0524500089914234E10 ; 0.0
161 ; 1.7557860680333354E7 ; 2.0134851850455835E8 ; 2.9100612914608617E9 ; 3.072584329454216E10 ; 0.0
162 ; 1.754204688185654E7 ; 2.013538175017416E8 ; 2.927619152141195E9 ; 3.092719181304672E10 ; 0.0
163 ; 1.7530971991076794E7 ; 2.0135910144229892E8 ; 2.9451611990230513E9 ; 3.1128545630548462E10 ; 0.0
164 ; 1.7511552256845824E7 ; 2.0136437015106913E8 ; 2.962692171014128E9 ; 3.132990473199076E10 ; 0.0
165 ; 1.7495421800019283E7 ; 2.013696234548628E8 ; 2.980203723270974E9 ; 3.153126910214183E10 ; 0.0
166 ; 1.7485027094944775E7 ; 2.0137486118241963E8 ; 2.9976991450709934E9 ; 3.1732638725596695E10 ; 0.0
167 ; 1.746838584446533E7 ; 2.0138008316436705E8 ; 3.0151841721659384E9 ; 3.1934013586779114E10 ; 0.0
168 ; 1.7453151894529454E7 ; 2.013852892331802E8 ; 3.0326525580104036E9 ; 3.213539366994348E10 ; 0.0
169 ; 1.7437839075013854E7 ; 2.0139047922314322E8 ; 3.050105709904933E9 ; 3.2336778959176662E10 ; 0.0
170 ; 1.7421119607961334E7 ; 2.0139565297031215E8 ; 3.0675435489799466E9 ; 3.2538169438399807E10 ; 0.0
171 ; 1.7400477831450015E7 ; 2.0140081031247854E8 ; 3.084964668587908E9 ; 3.273956509137012E10 ; 0.0
172 ; 1.738913590164283E7 ; 2.014059510891348E8 ; 3.102365146419358E9 ; 3.29409659016826E10 ; 0.0
173 ; 1.7371231961357668E7 ; 2.0141107514144045E8 ; 3.1197542823210006E9 ; 3.3142371852771732E10 ; 0.0
174 ; 1.7365232985800162E7 ; 2.014161823121893E8 ; 3.137125514282358E9 ; 3.3343782927913174E10 ; 0.0
175 ; 1.7355642144643348E7 ; 2.0142127244577822E8 ; 3.1544907472681584E9 ; 3.3545199110225365E10 ; 0.0
176 ; 1.734730227918973E7 ; 2.014263453881765E8 ; 3.1718463894128017E9 ; 3.3746620382671143E10 ; 0.0
177 ; 1.733595540753492E7 ; 2.014314009868963E8 ; 3.1891936916919913E9 ; 3.394804672805932E10 ; 0.0
178 ; 1.7325962684115555E7 ; 2.0143643909096438E8 ; 3.2065296470995264E9 ; 3.4149478129046215E10 ; 0.0
179 ; 1.7317022956928987E7 ; 2.0144145955089423E8 ; 3.223855609783642E9 ; 3.435091456813718E10 ; 0.0
180 ; 1.730719708099587E7 ; 2.014464622186596E8 ; 3.241172632740571E9 ; 3.455235602768807E10 ; 0.0
181 ; 1.7292917885587472E7 ; 2.014514469476686E8 ; 3.258479829821567E9 ; 3.475380248990673E10 ; 0.0
182 ; 1.7285385367808595E7 ; 2.0145641359273875E8 ; 3.2757727477071548E9 ; 3.49552539368544E10 ; 0.0
183 ; 1.727988152023128E7 ; 2.014613620100728E8 ; 3.2930581330749636E9 ; 3.5156710350447136E10 ; 0.0
184 ; 1.7267029584277313E7 ; 2.0146629205723533E8 ; 3.310338014595195E9 ; 3.535817171245721E10 ; 0.0
185 ; 1.7256217789189056E7 ; 2.0147120359313026E8 ; 3.327605044179472E9 ; 3.555963800451444E10 ; 0.0
186 ; 1.7248562305540204E7 ; 2.0147609647797877E8 ; 3.344861261968661E9 ; 3.5761109208107574E10 ; 0.0
187 ; 1.7237841727530617E7 ; 2.0148097057329813E8 ; 3.362109824274201E9 ; 3.5962585304585556E10 ; 0.0
188 ; 1.7226000563118022E7 ; 2.0148582574188137E8 ; 3.3793476660017314E9 ; 3.616406627515885E10 ; 0.0
189 ; 1.7218908952775415E7 ; 2.0149066184777716E8 ; 3.3965736665648494E9 ; 3.6365552100900734E10 ; 0.0
190 ; 1.7207179010175366E7 ; 2.014954787562708E8 ; 3.413792575517625E9 ; 3.656704276274851E10 ; 0.0
191 ; 1.7199902617710624E7 ; 2.015002763338654E8 ; 3.4309997545278E9 ; 3.676853824150478E10 ; 0.0
192 ; 1.7187203615382984E7 ; 2.0150505444826406E8 ; 3.4481996571455107E9 ; 3.6970038517838646E10 ; 0.0
193 ; 1.718524802137639E7 ; 2.015098129683523E8 ; 3.465386860760894E9 ; 3.717154357228691E10 ; 0.0
194 ; 1.7172085140687846E7 ; 2.015145517641811E8 ; 3.4825721087822704E9 ; 3.7373053385255264E10 ; 0.0
195 ; 1.716094008584076E7 ; 2.0151927070695078E8 ; 3.4997441939229584E9 ; 3.757456793701945E10 ; 0.0
