CSV File for the City 4 on Day 36
1 - Minute m 
2 - Power Consumed at minute m 
3 - Power Produced at minute m 
4 - Energy Consumed since the beginning of the day 
5 - Energy Produced since the beginning of the day 
6 - Energy Lost since the beginning of the day on lines starting from the city
 
0 ; 6792878.80691985 ; 1.0556012828884318E8 ; 0.0 ; 0.0 ; 0.0
1 ; 6802023.958108801 ; 1.057082883533516E8 ; 6792878.80691985 ; 1.0556012828884318E8 ; 0.0
2 ; 6809410.305011307 ; 1.0616565450138184E8 ; 1.3594902765028652E7 ; 2.1126841664219478E8 ; 0.0
3 ; 6816960.203219519 ; 1.0693225196215266E8 ; 2.0404313070039958E7 ; 3.174340711435766E8 ; 0.0
4 ; 6828324.664048824 ; 1.0800810456923884E8 ; 2.7221273273259476E7 ; 4.243663231057293E8 ; 0.0
5 ; 6839138.298432861 ; 1.0939323428423053E8 ; 3.40495979373083E7 ; 5.323744276749681E8 ; 0.0
6 ; 6855606.045806929 ; 1.1108766071662071E8 ; 4.088873623574116E7 ; 6.417676619591987E8 ; 0.0
7 ; 6881135.968246439 ; 1.1309140066102517E8 ; 4.774434228154809E7 ; 7.528553226758194E8 ; 0.0
8 ; 6909556.14211267 ; 1.1540446767480838E8 ; 5.462547824979453E7 ; 8.659467233368446E8 ; 0.0
9 ; 6963556.106489124 ; 1.1802687171935272E8 ; 6.15350343919072E7 ; 9.81351191011653E8 ; 0.0
10 ; 7042406.081181684 ; 1.209586188862446E8 ; 6.849859049839632E7 ; 1.0993780627310057E9 ; 0.0
11 ; 7164137.107521069 ; 1.2419971122552559E8 ; 7.554099657957801E7 ; 1.2203366816172502E9 ; 0.0
12 ; 7362439.238172694 ; 1.2775014668715408E8 ; 8.270513368709908E7 ; 1.3445363928427758E9 ; 0.0
13 ; 7552833.421640082 ; 1.3160991917954367E8 ; 9.006757292527178E7 ; 1.4722865395299299E9 ; 0.0
14 ; 7577297.459152208 ; 1.357790187413121E8 ; 9.762040634691186E7 ; 1.6038964587094736E9 ; 0.0
15 ; 7583626.4402560275 ; 1.402574318150947E8 ; 1.0519770380606407E8 ; 1.7396754774507856E9 ; 0.0
16 ; 7592508.320840676 ; 1.450451416062759E8 ; 1.127813302463201E8 ; 1.8799329092658803E9 ; 0.0
17 ; 7600972.571500088 ; 1.5014212850536254E8 ; 1.2037383856716077E8 ; 2.0249780508721561E9 ; 0.0
18 ; 7610403.633417201 ; 1.5554837055076456E8 ; 1.2797481113866086E8 ; 2.1751201793775187E9 ; 0.0
19 ; 7618742.012111442 ; 1.6126384390890715E8 ; 1.3558521477207807E8 ; 2.330668549928283E9 ; 0.0
20 ; 7628607.321331963 ; 1.6728852335057154E8 ; 1.4320395678418952E8 ; 2.49193239383719E9 ; 0.0
21 ; 7638374.42849501 ; 1.736223827056466E8 ; 1.508325641055215E8 ; 2.659220917187762E9 ; 0.0
22 ; 7644968.603841352 ; 1.8026539528251386E8 ; 1.5847093853401652E8 ; 2.8328432998934083E9 ; 0.0
23 ; 7655709.491854121 ; 1.8721753424254715E8 ; 1.6611590713785788E8 ; 3.0131086951759224E9 ; 0.0
24 ; 7664602.372564551 ; 1.9447877292425102E8 ; 1.7377161662971202E8 ; 3.2003262294184694E9 ; 0.0
25 ; 7672236.519624759 ; 2.0073712601327395E8 ; 1.8143621900227657E8 ; 3.3948050023427205E9 ; 0.0
26 ; 7679823.9146629125 ; 2.007461157997181E8 ; 1.8910845552190134E8 ; 3.595542128355994E9 ; 0.0
27 ; 7690737.048434429 ; 2.0075548687504143E8 ; 1.9678827943656427E8 ; 3.796288244155712E9 ; 0.0
28 ; 7698643.657310965 ; 2.007652155068228E8 ; 2.044790164849987E8 ; 3.9970437310307536E9 ; 0.0
29 ; 7708597.073691362 ; 2.0077527902120203E8 ; 2.1217766014230967E8 ; 4.197808946537576E9 ; 0.0
30 ; 7714878.123487654 ; 2.0078565585879517E8 ; 2.1988625721600103E8 ; 4.398584225558778E9 ; 0.0
31 ; 7722121.786946838 ; 2.007963256027898E8 ; 2.276011353394887E8 ; 4.599369881417573E9 ; 0.0
32 ; 7732028.141965098 ; 2.0080726898436725E8 ; 2.3532325712643552E8 ; 4.800166207020363E9 ; 0.0
33 ; 7737019.016270264 ; 2.0081846787012753E8 ; 2.430552852684006E8 ; 5.00097347600473E9 ; 0.0
34 ; 7745180.936897947 ; 2.0082990523563892E8 ; 2.5079230428467086E8 ; 5.201791943874858E9 ; 0.0
35 ; 7752466.954646284 ; 2.0084156512865692E8 ; 2.585374852215688E8 ; 5.4026218491104965E9 ; 0.0
36 ; 7759915.400504229 ; 2.0085343262499222E8 ; 2.6628995217621508E8 ; 5.603463414239154E9 ; 0.0
37 ; 7766334.942483592 ; 2.008654937794819E8 ; 2.740498675767193E8 ; 5.804316846864146E9 ; 0.0
38 ; 7774350.836212859 ; 2.0087773557404754E8 ; 2.818162025192029E8 ; 6.005182340643628E9 ; 0.0
39 ; 7778404.870506676 ; 2.008901458644104E8 ; 2.8959055335541576E8 ; 6.206060076217675E9 ; 0.0
40 ; 7786610.204302747 ; 2.0090271332668167E8 ; 2.9736895822592247E8 ; 6.406950222082086E9 ; 0.0
41 ; 7791559.399068531 ; 2.0091542740475065E8 ; 3.051555684302252E8 ; 6.607852935408768E9 ; 0.0
42 ; 7795878.519245205 ; 2.0092827825914967E8 ; 3.129471278292937E8 ; 6.808768362813519E9 ; 0.0
43 ; 7800306.194636062 ; 2.0094125671787727E8 ; 3.2074300634853894E8 ; 7.009696641072668E9 ; 0.0
44 ; 7806846.59609773 ; 2.00954354229503E8 ; 3.28543312543175E8 ; 7.210637897790545E9 ; 0.0
45 ; 7810505.105463861 ; 2.0096756281875268E8 ; 3.363501591392727E8 ; 7.411592252020048E9 ; 0.0
46 ; 7812479.715094707 ; 2.0098087504467678E8 ; 3.4416066424473655E8 ; 7.6125598148388E9 ; 0.0
47 ; 7820372.102006115 ; 2.009942839614309E8 ; 3.5197314395983124E8 ; 7.813540689883477E9 ; 0.0
48 ; 7820706.01314135 ; 2.0100778308164266E8 ; 3.597935160618374E8 ; 8.014534973844908E9 ; 0.0
49 ; 7824016.37744841 ; 2.0102136634229946E8 ; 3.676142220749787E8 ; 8.215542756926551E9 ; 0.0
50 ; 7824771.255513356 ; 2.0103502807306337E8 ; 3.7543823845242715E8 ; 8.41656412326885E9 ; 0.0
51 ; 7827507.462927088 ; 2.010487629669009E8 ; 3.832630097079405E8 ; 8.617599151341913E9 ; 0.0
52 ; 7831217.63147288 ; 2.010625660529039E8 ; 3.910905171708676E8 ; 8.818647914308815E9 ; 0.0
53 ; 7830673.037042542 ; 2.0107643267117155E8 ; 3.989217348023405E8 ; 9.01971048036172E9 ; 0.0
54 ; 7833788.880140463 ; 2.010903584496216E8 ; 4.0675240783938307E8 ; 9.22078691303289E9 ; 0.0
55 ; 7834850.054708358 ; 2.0110433928259987E8 ; 4.1458619671952355E8 ; 9.421877271482512E9 ; 0.0
56 ; 7838148.317258553 ; 2.0111837131116125E8 ; 4.224210467742319E8 ; 9.622981610765112E9 ; 0.0
57 ; 7839242.3420844935 ; 2.0113245090489832E8 ; 4.3025919509149045E8 ; 9.824099982076273E9 ; 0.0
58 ; 7841584.734885069 ; 2.011465746452019E8 ; 4.380984374335749E8 ; 1.002523243298117E10 ; 0.0
59 ; 7840804.1307474505 ; 2.0116073930984226E8 ; 4.4594002216846E8 ; 1.0226379007626373E10 ; 0.0
60 ; 7843499.557980785 ; 2.011749418587676E8 ; 4.5378082629920745E8 ; 1.0427539746936216E10 ; 0.0
61 ; 7846099.5913098 ; 2.0118917942102262E8 ; 4.616243258571882E8 ; 1.0628714688794985E10 ; 0.0
62 ; 7845488.080027055 ; 2.0120344928269744E8 ; 4.69470425448498E8 ; 1.0829903868216007E10 ; 0.0
63 ; 7847988.650839221 ; 2.0121774887582275E8 ; 4.7731591352852505E8 ; 1.1031107317498705E10 ; 0.0
64 ; 7848671.357020698 ; 2.0123207576813436E8 ; 4.8516390217936426E8 ; 1.1232325066374527E10 ; 0.0
65 ; 7851045.2068494875 ; 2.0124642765363574E8 ; 4.9301257353638494E8 ; 1.1433557142142662E10 ; 0.0
66 ; 7851318.269817687 ; 2.0126080234389293E8 ; 5.0086361874323446E8 ; 1.1634803569796297E10 ; 0.0
67 ; 7853454.851897158 ; 2.0127519776000148E8 ; 5.0871493701305217E8 ; 1.183606437214019E10 ; 0.0
68 ; 7854091.275182803 ; 2.0128961192517033E8 ; 5.1656839186494935E8 ; 1.2037339569900192E10 ; 0.0
69 ; 7853896.441237974 ; 2.013040429578717E8 ; 5.244224831401321E8 ; 1.2238629181825363E10 ; 0.0
70 ; 7853629.225747566 ; 2.013184890655104E8 ; 5.322763795813701E8 ; 1.2439933224783236E10 ; 0.0
71 ; 7855887.668304897 ; 2.0133294853857034E8 ; 5.401300088071177E8 ; 1.2641251713848745E10 ; 0.0
72 ; 7853882.382685066 ; 2.0134741974519908E8 ; 5.479858964754226E8 ; 1.2842584662387316E10 ; 0.0
73 ; 7856645.621912092 ; 2.0136190112619466E8 ; 5.558397788581077E8 ; 1.3043932082132515E10 ; 0.0
74 ; 7856860.418883911 ; 2.0137639119036216E8 ; 5.636964244800198E8 ; 1.3245293983258709E10 ; 0.0
75 ; 7856450.472935347 ; 2.0139088851021048E8 ; 5.715532848989037E8 ; 1.3446670374449072E10 ; 0.0
76 ; 7860761.901167418 ; 2.0140539171796158E8 ; 5.79409735371839E8 ; 1.3648061262959282E10 ; 0.0
77 ; 7857189.336000118 ; 2.0141989950184748E8 ; 5.872704972730064E8 ; 1.3849466654677244E10 ; 0.0
78 ; 7856054.774135011 ; 2.01434410602672E8 ; 5.951276866090065E8 ; 1.4050886554179092E10 ; 0.0
79 ; 7853253.04282821 ; 2.0144892381061688E8 ; 6.029837413831415E8 ; 1.4252320964781765E10 ; 0.0
80 ; 7850960.580647729 ; 2.0146343796227202E8 ; 6.108369944259697E8 ; 1.4453769888592382E10 ; 0.0
81 ; 7846892.2579979785 ; 2.014779519378738E8 ; 6.186879550066174E8 ; 1.4655233326554655E10 ; 0.0
82 ; 7847845.997051147 ; 2.0149246465873405E8 ; 6.265348472646154E8 ; 1.4856711278492529E10 ; 0.0
83 ; 7844726.762736468 ; 2.015069750848459E8 ; 6.343826932616665E8 ; 1.5058203743151262E10 ; 0.0
84 ; 7843309.047252811 ; 2.0152148221265253E8 ; 6.42227420024403E8 ; 1.5259710718236109E10 ; 0.0
85 ; 7839106.658558426 ; 2.0153598507296678E8 ; 6.500707290716558E8 ; 1.5461232200448761E10 ; 0.0
86 ; 7833527.827305605 ; 2.0155048272902992E8 ; 6.579098357302141E8 ; 1.5662768185521729E10 ; 0.0
87 ; 7833615.55816554 ; 2.0156497427469945E8 ; 6.657433635575197E8 ; 1.586431866825076E10 ; 0.0
88 ; 7830722.887130965 ; 2.0157945883275628E8 ; 6.735769791156852E8 ; 1.606588364252546E10 ; 0.0
89 ; 7827992.467087328 ; 2.0159393555332252E8 ; 6.814077020028162E8 ; 1.6267463101358215E10 ; 0.0
90 ; 7825140.143504092 ; 2.0160840361238167E8 ; 6.892356944699035E8 ; 1.6469057036911537E10 ; 0.0
91 ; 7818726.680018856 ; 2.0162286221039382E8 ; 6.970608346134076E8 ; 1.6670665440523918E10 ; 0.0
92 ; 7818771.139340832 ; 2.0163731057099932E8 ; 7.048795612934265E8 ; 1.6872288302734312E10 ; 0.0
93 ; 7814689.845186673 ; 2.0165174793980405E8 ; 7.126983324327674E8 ; 1.7073925613305311E10 ; 0.0
94 ; 7810374.7455878835 ; 2.01666173583241E8 ; 7.205130222779541E8 ; 1.7275577361245113E10 ; 0.0
95 ; 7808099.362105556 ; 2.0168058678750247E8 ; 7.283233970235419E8 ; 1.7477243534828354E10 ; 0.0
96 ; 7802708.422244001 ; 2.0169498685753822E8 ; 7.361314963856475E8 ; 1.7678924121615856E10 ; 0.0
97 ; 7801959.782536313 ; 2.0170937311611474E8 ; 7.439342048078915E8 ; 1.7880619108473396E10 ; 0.0
98 ; 7798272.815212455 ; 2.0172374490293148E8 ; 7.517361645904278E8 ; 1.808232848158951E10 ; 0.0
99 ; 7794415.33217785 ; 2.0173810157379058E8 ; 7.595344374056402E8 ; 1.8284052226492443E10 ; 0.0
100 ; 7789170.644242527 ; 2.017524424998157E8 ; 7.673288527378181E8 ; 1.8485790328066235E10 ; 0.0
101 ; 7784854.0605623005 ; 2.0176676706671742E8 ; 7.751180233820606E8 ; 1.868754277056605E10 ; 0.0
102 ; 7781667.445879581 ; 2.017810746741015E8 ; 7.829028774426229E8 ; 1.888930953763277E10 ; 0.0
103 ; 7777414.200206739 ; 2.0179536473481777E8 ; 7.906845448885025E8 ; 1.9091090612306873E10 ; 0.0
104 ; 7772647.884868617 ; 2.0180963667434633E8 ; 7.984619590887092E8 ; 1.929288597704169E10 ; 0.0
105 ; 7768578.101356463 ; 2.0182388993021905E8 ; 8.062346069735779E8 ; 1.9494695613716038E10 ; 0.0
106 ; 7764620.115978434 ; 2.0183812395147413E8 ; 8.140031850749344E8 ; 1.9696519503646255E10 ; 0.0
107 ; 7757884.16594985 ; 2.018523381981413E8 ; 8.217678051909128E8 ; 1.989835762759773E10 ; 0.0
108 ; 7754964.764220285 ; 2.018665321407559E8 ; 8.295256893568627E8 ; 2.010020996579587E10 ; 0.0
109 ; 7753019.450108835 ; 2.018807052599E8 ; 8.372806541210829E8 ; 2.0302076497936626E10 ; 0.0
110 ; 7746962.3291775435 ; 2.0189485704576898E8 ; 8.450336735711918E8 ; 2.0503957203196526E10 ; 0.0
111 ; 7742492.399316581 ; 2.0190898699776155E8 ; 8.527806359003693E8 ; 2.0705852060242294E10 ; 0.0
112 ; 7738342.491697644 ; 2.019230946240924E8 ; 8.605231282996858E8 ; 2.0907761047240055E10 ; 0.0
113 ; 7730697.137647313 ; 2.0193717944142565E8 ; 8.682614707913835E8 ; 2.1109684141864147E10 ; 0.0
114 ; 7727656.254805258 ; 2.019512409745278E8 ; 8.759921679290308E8 ; 2.1311621321305573E10 ; 0.0
115 ; 7720148.622427729 ; 2.0196527875593942E8 ; 8.83719824183836E8 ; 2.15135725622801E10 ; 0.0
116 ; 7716083.871588403 ; 2.0197929232566398E8 ; 8.914399728062637E8 ; 2.171553784103604E10 ; 0.0
117 ; 7712491.875406468 ; 2.0199328123087308E8 ; 8.99156056677852E8 ; 2.1917517133361706E10 ; 0.0
118 ; 7707981.201065782 ; 2.0200724502562714E8 ; 9.068685485532585E8 ; 2.211951041459258E10 ; 0.0
119 ; 7701308.423647845 ; 2.020211832706104E8 ; 9.145765297543243E8 ; 2.2321517659618206E10 ; 0.0
120 ; 7695880.299817947 ; 2.0203509553287956E8 ; 9.222778381779722E8 ; 2.2523538842888817E10 ; 0.0
121 ; 7690221.564601999 ; 2.020489813856255E8 ; 9.299737184777901E8 ; 2.2725573938421696E10 ; 0.0
122 ; 7684375.702565985 ; 2.0206284040794674E8 ; 9.376639400423921E8 ; 2.292762291980732E10 ; 0.0
123 ; 7677557.134298166 ; 2.0207667218463445E8 ; 9.453483157449582E8 ; 2.3129685760215267E10 ; 0.0
124 ; 7673930.011987786 ; 2.020904763059684E8 ; 9.530258728792564E8 ; 2.3331762432399902E10 ; 0.0
125 ; 7668443.954935054 ; 2.0210425236752287E8 ; 9.606998028912442E8 ; 2.353385290870587E10 ; 0.0
126 ; 7661310.013702616 ; 2.021179999699822E8 ; 9.683682468461792E8 ; 2.3735957161073395E10 ; 0.0
127 ; 7655145.175262454 ; 2.0213171871896544E8 ; 9.760295568598819E8 ; 2.3938075161043377E10 ; 0.0
128 ; 7651013.700041471 ; 2.0214540822485954E8 ; 9.836847020351443E8 ; 2.414020687976234E10 ; 0.0
129 ; 7642321.451718147 ; 2.0215906810266066E8 ; 9.913357157351857E8 ; 2.43423522879872E10 ; 0.0
130 ; 7634951.2948675975 ; 2.0217269797182316E8 ; 9.989780371869038E8 ; 2.4544511356089863E10 ; 0.0
131 ; 7628061.856824431 ; 2.0218629745611578E8 ; 1.0066129884817715E9 ; 2.4746684054061687E10 ; 0.0
132 ; 7617995.315779601 ; 2.0219986618348473E8 ; 1.0142410503385959E9 ; 2.4948870351517803E10 ; 0.0
133 ; 7609422.440116066 ; 2.022134037859233E8 ; 1.0218590456543754E9 ; 2.5151070217701286E10 ; 0.0
134 ; 7602204.928850865 ; 2.0222690989934745E8 ; 1.0294684680944915E9 ; 2.535328362148721E10 ; 0.0
135 ; 7592559.890503129 ; 2.022403841634776E8 ; 1.0370706730233424E9 ; 2.555551053138656E10 ; 0.0
136 ; 7585548.300553228 ; 2.0225382622172555E8 ; 1.0446632329138455E9 ; 2.5757750915550037E10 ; 0.0
137 ; 7572352.831748137 ; 2.022672357210869E8 ; 1.0522487812143987E9 ; 2.5960004741771763E10 ; 0.0
138 ; 7565080.693220242 ; 2.0228061231203827E8 ; 1.0598211340461469E9 ; 2.616227197749285E10 ; 0.0
139 ; 7557144.896420997 ; 2.0229395564843944E8 ; 1.0673862147393671E9 ; 2.636455258980489E10 ; 0.0
140 ; 7545339.259131757 ; 2.0230726538743988E8 ; 1.0749433596357882E9 ; 2.656684654545333E10 ; 0.0
141 ; 7536782.1001879405 ; 2.0232054118938935E8 ; 1.0824886988949199E9 ; 2.676915381084077E10 ; 0.0
142 ; 7525696.507062067 ; 2.0233378271775296E8 ; 1.090025480995108E9 ; 2.697147435203016E10 ; 0.0
143 ; 7519922.022743164 ; 2.0234698963902962E8 ; 1.0975511775021698E9 ; 2.7173808134747913E10 ; 0.0
144 ; 7507569.818846219 ; 2.023601616226745E8 ; 1.105071099524913E9 ; 2.7376155124386944E10 ; 0.0
145 ; 7501271.937937307 ; 2.0237329834102473E8 ; 1.1125786693437593E9 ; 2.7578515286009617E10 ; 0.0
146 ; 7496143.842707629 ; 2.0238639946922845E8 ; 1.1200799412816966E9 ; 2.7780888584350643E10 ; 0.0
147 ; 7488051.762085321 ; 2.0239946468517727E8 ; 1.1275760851244042E9 ; 2.798327498381987E10 ; 0.0
148 ; 7481569.894206888 ; 2.0241249366944116E8 ; 1.1350641368864896E9 ; 2.8185674448505047E10 ; 0.0
149 ; 7474078.264303389 ; 2.0242548610520682E8 ; 1.1425457067806966E9 ; 2.8388086942174488E10 ; 0.0
150 ; 7465801.7474248735 ; 2.0243844167821836E8 ; 1.150019785045E9 ; 2.8590512428279694E10 ; 0.0
151 ; 7462391.861667048 ; 2.0245136007672063E8 ; 1.157485586792425E9 ; 2.8792950869957912E10 ; 0.0
152 ; 7453556.887316352 ; 2.0246424099140507E8 ; 1.164947978654092E9 ; 2.8995402230034634E10 ; 0.0
153 ; 7447731.211256206 ; 2.0247708411535802E8 ; 1.1724015355414085E9 ; 2.919786647102604E10 ; 0.0
154 ; 7439944.947797462 ; 2.0248988914401102E8 ; 1.1798492667526648E9 ; 2.9400343555141396E10 ; 0.0
155 ; 7433367.190363566 ; 2.0250265577509344E8 ; 1.1872892117004623E9 ; 2.9602833444285408E10 ; 0.0
156 ; 7426419.52967796 ; 2.02515383708587E8 ; 1.194722578890826E9 ; 2.98053361000605E10 ; 0.0
157 ; 7419962.05442071 ; 2.025280726466824E8 ; 1.2021489984205039E9 ; 3.000785148376909E10 ; 0.0
158 ; 7410319.241310158 ; 2.0254072229373777E8 ; 1.2095689604749246E9 ; 3.021037955641577E10 ; 0.0
159 ; 7404246.795093478 ; 2.025533323562387E8 ; 1.2169792797162347E9 ; 3.041292027870951E10 ; 0.0
160 ; 7395401.396447092 ; 2.0256590254276016E8 ; 1.2243835265113282E9 ; 3.061547361106575E10 ; 0.0
161 ; 7389522.206824812 ; 2.0257843256393015E8 ; 1.2317789279077754E9 ; 3.081803951360851E10 ; 0.0
162 ; 7380080.88269299 ; 2.025909221323945E8 ; 1.2391684501146002E9 ; 3.102061794617244E10 ; 0.0
163 ; 7373768.73604529 ; 2.0260337096278346E8 ; 1.2465485309972932E9 ; 3.1223208868304832E10 ; 0.0
164 ; 7366800.413732701 ; 2.026157787716797E8 ; 1.2539222997333386E9 ; 3.1425812239267616E10 ; 0.0
165 ; 7357972.339265344 ; 2.0262814527758747E8 ; 1.2612891001470714E9 ; 3.1628428018039295E10 ; 0.0
166 ; 7351822.655947035 ; 2.026404702009033E8 ; 1.2686470724863367E9 ; 3.1831056163316883E10 ; 0.0
167 ; 7344892.287695328 ; 2.0265275326388764E8 ; 1.2759988951422837E9 ; 3.2033696633517788E10 ; 0.0
168 ; 7336655.576577776 ; 2.0266499419063798E8 ; 1.283343787429979E9 ; 3.2236349386781677E10 ; 0.0
169 ; 7329524.156652992 ; 2.0267719270706284E8 ; 1.2906804430065567E9 ; 3.2439014380972317E10 ; 0.0
170 ; 7319672.125211015 ; 2.0268934854085714E8 ; 1.2980099671632097E9 ; 3.264169157367938E10 ; 0.0
171 ; 7314837.414713089 ; 2.0270146142147827E8 ; 1.3053296392884207E9 ; 3.2844380922220234E10 ; 0.0
172 ; 7306217.2480333075 ; 2.027135310801234E8 ; 1.3126444767031338E9 ; 3.3047082383641712E10 ; 0.0
173 ; 7300483.0943705775 ; 2.0272555724970767E8 ; 1.319950693951167E9 ; 3.3249795914721836E10 ; 0.0
174 ; 7295598.108217091 ; 2.027375396648433E8 ; 1.3272511770455377E9 ; 3.3452521471971542E10 ; 0.0
175 ; 7289912.658717585 ; 2.0274947806181946E8 ; 1.3345467751537547E9 ; 3.3655259011636387E10 ; 0.0
176 ; 7282933.183077235 ; 2.027613721785832E8 ; 1.3418366878124723E9 ; 3.3858008489698208E10 ; 0.0
177 ; 7281898.06611811 ; 2.0277322175472105E8 ; 1.3491196209955497E9 ; 3.4060769861876793E10 ; 0.0
178 ; 7275191.858875014 ; 2.027850265314413E8 ; 1.3564015190616677E9 ; 3.4263543083631516E10 ; 0.0
179 ; 7270110.415066945 ; 2.0279678625155726E8 ; 1.3636767109205427E9 ; 3.446632811016296E10 ; 0.0
180 ; 7266148.8600984 ; 2.0280850065947098E8 ; 1.3709468213356097E9 ; 3.466912489641451E10 ; 0.0
181 ; 7263075.24738468 ; 2.0282016950115782E8 ; 1.378212970195708E9 ; 3.487193339707398E10 ; 0.0
182 ; 7256058.791973494 ; 2.0283179252415162E8 ; 1.3854760454430928E9 ; 3.507475356657514E10 ; 0.0
183 ; 7253350.549307328 ; 2.0284336947753054E8 ; 1.3927321042350664E9 ; 3.52775853590993E10 ; 0.0
184 ; 7248728.578354496 ; 2.0285490011190328E8 ; 1.3999854547843738E9 ; 3.548042872857683E10 ; 0.0
185 ; 7244602.817813021 ; 2.0286638417939627E8 ; 1.4072341833627284E9 ; 3.568328362868873E10 ; 0.0
186 ; 7238356.228876693 ; 2.0287782143364105E8 ; 1.4144787861805413E9 ; 3.5886150012868126E10 ; 0.0
187 ; 7236302.091105445 ; 2.0288921162976235E8 ; 1.4217171424094179E9 ; 3.6089027834301765E10 ; 0.0
188 ; 7231891.162456705 ; 2.029005545243668E8 ; 1.4289534445005233E9 ; 3.6291917045931526E10 ; 0.0
189 ; 7224648.920530471 ; 2.029118498755318E8 ; 1.43618533566298E9 ; 3.6494817600455894E10 ; 0.0
190 ; 7222535.911599441 ; 2.029230974427951E8 ; 1.4434099845835106E9 ; 3.669772945033143E10 ; 0.0
191 ; 7216991.123273248 ; 2.0293429698714498E8 ; 1.45063252049511E9 ; 3.690065254777422E10 ; 0.0
192 ; 7213135.566309628 ; 2.029454482710104E8 ; 1.4578495116183832E9 ; 3.710358684476137E10 ; 0.0
193 ; 7206869.167885807 ; 2.02956551058252E8 ; 1.4650626471846929E9 ; 3.730653229303238E10 ; 0.0
194 ; 7202573.1432746705 ; 2.0296760511415341E8 ; 1.4722695163525786E9 ; 3.750948884409063E10 ; 0.0
195 ; 7198711.049009596 ; 2.029786102054127E8 ; 1.4794720894958534E9 ; 3.771245644920478E10 ; 0.0
196 ; 7193008.563623968 ; 2.0298956610013458E8 ; 1.486670800544863E9 ; 3.7915435059410194E10 ; 0.0
197 ; 7190268.439510658 ; 2.0300047256782264E8 ; 1.493863809108487E9 ; 3.811842462551033E10 ; 0.0
198 ; 7184969.649989283 ; 2.0301132937937212E8 ; 1.5010540775479975E9 ; 3.8321425098078156E10 ; 0.0
199 ; 7178763.00553347 ; 2.0302213630706298E8 ; 1.5082390471979868E9 ; 3.852443642745753E10 ; 0.0
200 ; 7176932.967738285 ; 2.030328931245532E8 ; 1.5154178102035203E9 ; 3.872745856376459E10 ; 0.0
201 ; 7170004.393997756 ; 1.7350142586620486E8 ; 1.5225947431712587E9 ; 3.893049145688914E10 ; 0.0
