CSV File for the City 2 on Day 226
1 - Minute m 
2 - Power Consumed at minute m 
3 - Power Produced at minute m 
4 - Energy Consumed since the beginning of the day 
5 - Energy Produced since the beginning of the day 
6 - Energy Lost since the beginning of the day on lines starting from the city
 
0 ; 139001.12309449326 ; 1.0518100786828527E8 ; 0.0 ; 0.0 ; 0.0
1 ; 140551.42933426084 ; 1.053343556628533E8 ; 139001.12309449326 ; 1.0518100786828527E8 ; 0.0
2 ; 142548.78010828362 ; 1.0579640255660328E8 ; 279552.5524287541 ; 2.1051536353113857E8 ; 0.0
3 ; 144191.88025415264 ; 1.0656715790159255E8 ; 422101.3325370377 ; 3.1631176608774185E8 ; 0.0
4 ; 148231.26176246398 ; 1.0764663225893337E8 ; 566293.2127911904 ; 4.228789239893344E8 ; 0.0
5 ; 151580.0576526232 ; 1.0903483723679817E8 ; 714524.4745536543 ; 5.3052555624826777E8 ; 0.0
6 ; 157916.84184818337 ; 1.1073178511208466E8 ; 866104.5322062775 ; 6.395603934850659E8 ; 0.0
7 ; 163439.32695038363 ; 1.1273748817909992E8 ; 1024021.3740544608 ; 7.502921785971506E8 ; 0.0
8 ; 172844.4517681448 ; 1.1505195781773633E8 ; 1187460.7010048444 ; 8.630296667762505E8 ; 0.0
9 ; 186110.9039220838 ; 1.1767520336613542E8 ; 1360305.1527729891 ; 9.780816245939867E8 ; 0.0
10 ; 207560.57843731053 ; 1.2060723099680042E8 ; 1546416.056695073 ; 1.095756827960122E9 ; 0.0
11 ; 242788.34424362064 ; 1.2384804287230828E8 ; 1753976.6351323836 ; 1.2163640589569225E9 ; 0.0
12 ; 297458.36779031163 ; 1.2739763683008203E8 ; 1996764.979376004 ; 1.3402121018292308E9 ; 0.0
13 ; 349344.66838257824 ; 1.3125600669761842E8 ; 2294223.3471663157 ; 1.4676097386593127E9 ; 0.0
14 ; 356494.37408813013 ; 1.3542314313677603E8 ; 2643568.0155488937 ; 1.5988657453569312E9 ; 0.0
15 ; 358036.9973399598 ; 1.3989903476766235E8 ; 3000062.3896370237 ; 1.7342888884937072E9 ; 0.0
16 ; 360203.47652605345 ; 1.446836692959704E8 ; 3358099.3869769834 ; 1.8741879232613695E9 ; 0.0
17 ; 363163.0591938904 ; 1.4977703444480243E8 ; 3718302.863503037 ; 2.01887159255734E9 ; 0.0
18 ; 366472.0801107889 ; 1.55179118605986E8 ; 4081465.9226969276 ; 2.1686486270021424E9 ; 0.0
19 ; 370939.6206137042 ; 1.6088991121840885E8 ; 4447938.002807717 ; 2.3238277456081285E9 ; 0.0
20 ; 372978.4193370943 ; 1.6690940293001363E8 ; 4818877.623421421 ; 2.4847176568265376E9 ; 0.0
21 ; 374045.7774958345 ; 1.7323758561221692E8 ; 5191856.042758515 ; 2.6516270597565513E9 ; 0.0
22 ; 377787.1545641411 ; 1.7987445228678864E8 ; 5565901.82025435 ; 2.824864645368768E9 ; 0.0
23 ; 379802.6533165366 ; 1.8681999700929695E8 ; 5943688.974818491 ; 3.0047390976555567E9 ; 0.0
24 ; 382039.46827930503 ; 1.9407421473781228E8 ; 6323491.628135028 ; 3.1915590946648536E9 ; 0.0
25 ; 386404.65069173306 ; 2.0032514210180694E8 ; 6705531.096414333 ; 3.385633309402666E9 ; 0.0
26 ; 390259.17737266317 ; 2.0032632332038912E8 ; 7091935.747106066 ; 3.585958451504473E9 ; 0.0
27 ; 392926.56388365896 ; 2.0032752462271023E8 ; 7482194.924478729 ; 3.7862847748248625E9 ; 0.0
28 ; 394358.19406459574 ; 2.0032874340505493E8 ; 7875121.488362389 ; 3.9866122994475727E9 ; 0.0
29 ; 397013.2050745835 ; 2.003299774483608E8 ; 8269479.682426984 ; 4.1869410428526278E9 ; 0.0
30 ; 400729.2274676563 ; 2.003312248549258E8 ; 8666492.887501568 ; 4.387271020300988E9 ; 0.0
31 ; 403656.6916937607 ; 2.0033248399582857E8 ; 9067222.114969224 ; 4.587602245155914E9 ; 0.0
32 ; 405071.7687413217 ; 2.0033375346738988E8 ; 9470878.806662984 ; 4.787934729151743E9 ; 0.0
33 ; 408662.71054714796 ; 2.0033503205516616E8 ; 9875950.575404305 ; 4.988268482619133E9 ; 0.0
34 ; 410095.79016836936 ; 2.003363187041669E8 ; 1.0284613285951452E7 ; 5.188603514674299E9 ; 0.0
35 ; 412696.1247519737 ; 2.0033761249419072E8 ; 1.0694709076119822E7 ; 5.388939833378466E9 ; 0.0
36 ; 416332.73516894336 ; 2.0033891261936173E8 ; 1.1107405200871795E7 ; 5.589277445872657E9 ; 0.0
37 ; 418270.36512789695 ; 2.0034021837110922E8 ; 1.1523737936040739E7 ; 5.789616358492019E9 ; 0.0
38 ; 419585.3265877059 ; 2.0034152912397194E8 ; 1.1942008301168635E7 ; 5.989956576863128E9 ; 0.0
39 ; 422130.4437030695 ; 2.003428443237225E8 ; 1.2361593627756342E7 ; 6.1902981059871E9 ; 0.0
40 ; 422995.7226931841 ; 2.003441634774008E8 ; 1.2783724071459413E7 ; 6.3906409503108225E9 ; 0.0
41 ; 426504.4288996398 ; 2.0034548614492196E8 ; 1.3206719794152597E7 ; 6.590985113788223E9 ; 0.0
42 ; 427591.1125767332 ; 2.0034681193198705E8 ; 1.3633224223052237E7 ; 6.7913305999331455E9 ; 0.0
43 ; 429765.0069527978 ; 2.0034814048407385E8 ; 1.406081533562897E7 ; 6.991677411865132E9 ; 0.0
44 ; 431147.8495250731 ; 2.0034947148132628E8 ; 1.4490580342581768E7 ; 7.192025552349206E9 ; 0.0
45 ; 432966.58451566636 ; 2.0035080463419428E8 ; 1.4921728192106841E7 ; 7.392375023830532E9 ; 0.0
46 ; 435753.1487345493 ; 2.0035213967970127E8 ; 1.5354694776622508E7 ; 7.592725828464726E9 ; 0.0
47 ; 436199.613738266 ; 2.0035347637823924E8 ; 1.5790447925357057E7 ; 7.793077968144427E9 ; 0.0
48 ; 438853.323928008 ; 2.003548145108084E8 ; 1.6226647539095324E7 ; 7.993431444522667E9 ; 0.0
49 ; 440619.63194078585 ; 2.003561538766321E8 ; 1.6665500863023331E7 ; 8.193786259033475E9 ; 0.0
50 ; 440772.94421140524 ; 2.003574942910904E8 ; 1.710612049496412E7 ; 8.394142412910107E9 ; 0.0
51 ; 440818.61999694805 ; 2.003588355839245E8 ; 1.7546893439175524E7 ; 8.594499907201197E9 ; 0.0
52 ; 444552.92352300213 ; 2.0036017759767213E8 ; 1.798771205917247E7 ; 8.794858742785122E9 ; 0.0
53 ; 443936.32397349714 ; 2.0036152018630058E8 ; 1.843226498269547E7 ; 8.995218920382793E9 ; 0.0
54 ; 444451.0144415444 ; 2.0036286321400905E8 ; 1.8876201306668967E7 ; 9.195580440569094E9 ; 0.0
55 ; 446980.23432429205 ; 2.0036420655417737E8 ; 1.9320652321110513E7 ; 9.395943303783102E9 ; 0.0
56 ; 447306.50445565407 ; 2.0036555008844012E8 ; 1.9767632555434804E7 ; 9.59630751033728E9 ; 0.0
57 ; 449744.97114249185 ; 2.0036689370586962E8 ; 2.021493905989046E7 ; 9.79667306042572E9 ; 0.0
58 ; 450759.2999769268 ; 2.0036823730225366E8 ; 2.0664684031032953E7 ; 9.99703995413159E9 ; 0.0
59 ; 450565.3736529001 ; 2.003695807794549E8 ; 2.111544333100988E7 ; 1.0197408191433844E10 ; 0.0
60 ; 452833.34550355695 ; 2.00370924044842E8 ; 2.156600870466278E7 ; 1.0397777772213299E10 ; 0.0
61 ; 452229.09674580675 ; 2.0037226701078314E8 ; 2.201884205016634E7 ; 1.059814869625814E10 ; 0.0
62 ; 453739.739846571 ; 2.003736095941943E8 ; 2.2471071146912146E7 ; 1.0798520963268923E10 ; 0.0
63 ; 455398.8360346401 ; 2.003749517161355E8 ; 2.292481088675872E7 ; 1.0998894572863117E10 ; 0.0
64 ; 457081.39036867983 ; 2.0037629330144927E8 ; 2.338020972279336E7 ; 1.1199269524579252E10 ; 0.0
65 ; 457977.7441748229 ; 2.0037763427843636E8 ; 2.383729111316204E7 ; 1.1399645817880701E10 ; 0.0
66 ; 457652.96729062486 ; 2.003789745785642E8 ; 2.4295268857336864E7 ; 1.1600023452159138E10 ; 0.0
67 ; 460107.4774275589 ; 2.0038031413620457E8 ; 2.475292182462749E7 ; 1.1800402426737701E10 ; 0.0
68 ; 460307.2141899876 ; 2.0038165288839704E8 ; 2.5213029302055046E7 ; 1.2000782740873905E10 ; 0.0
69 ; 460274.62382793386 ; 2.0038299077463514E8 ; 2.5673336516245034E7 ; 1.2201164393762302E10 ; 0.0
70 ; 461255.27010992053 ; 2.0038432773667318E8 ; 2.6133611140072968E7 ; 1.2401547384536938E10 ; 0.0
71 ; 464650.4258264966 ; 2.0038566371835092E8 ; 2.659486641018289E7 ; 1.2601931712273611E10 ; 0.0
72 ; 463972.684785042 ; 2.0038699866543484E8 ; 2.7059516836009387E7 ; 1.2802317375991962E10 ; 0.0
73 ; 464400.81246996793 ; 2.003883325254735E8 ; 2.752348952079443E7 ; 1.3002704374657398E10 ; 0.0
74 ; 465389.05620676716 ; 2.0038966524766633E8 ; 2.7987890333264396E7 ; 1.320309270718287E10 ; 0.0
75 ; 466414.10431502294 ; 2.0039099678274375E8 ; 2.8453279389471162E7 ; 1.3403482372430536E10 ; 0.0
76 ; 466986.0372993488 ; 2.00392327082858E8 ; 2.8919693493786186E7 ; 1.360387336921328E10 ; 0.0
77 ; 469519.4548977393 ; 2.003936561014832E8 ; 2.9386679531085536E7 ; 1.3804265696296137E10 ; 0.0
78 ; 467416.7230697217 ; 2.003949837933243E8 ; 2.9856198985983275E7 ; 1.400465935239762E10 ; 0.0
79 ; 468485.05728005496 ; 2.0039631011423326E8 ; 3.0323615709052995E7 ; 1.4205054336190943E10 ; 0.0
80 ; 468172.5344067903 ; 2.003976350211325E8 ; 3.079210076633305E7 ; 1.4405450646305176E10 ; 0.0
81 ; 468570.5055875432 ; 2.0039895847194448E8 ; 3.126027330073984E7 ; 1.460584828132631E10 ; 0.0
82 ; 469756.1321678245 ; 2.0040028042552713E8 ; 3.1728843806327384E7 ; 1.4806247239798254E10 ; 0.0
83 ; 468720.0045624161 ; 2.004016008416143E8 ; 3.2198599938495208E7 ; 1.5006647520223782E10 ; 0.0
84 ; 468895.3665999473 ; 2.0040291968076104E8 ; 3.2667319943057623E7 ; 1.5207049121065395E10 ; 0.0
85 ; 468809.8261766868 ; 2.004042369042931E8 ; 3.313621530965757E7 ; 1.5407452040746157E10 ; 0.0
86 ; 468415.37617417314 ; 2.0040555247426027E8 ; 3.3605025135834254E7 ; 1.560785627765045E10 ; 0.0
87 ; 469005.7957362622 ; 2.004068663533935E8 ; 3.407344051200843E7 ; 1.580826183012471E10 ; 0.0
88 ; 470121.26881923596 ; 2.00408178505065E8 ; 3.454244630774469E7 ; 1.6008668696478104E10 ; 0.0
89 ; 469445.11993346014 ; 2.0040948889325148E8 ; 3.5012567576563925E7 ; 1.620907687498317E10 ; 0.0
90 ; 469027.7397821764 ; 2.0041079748250008E8 ; 3.548201269649739E7 ; 1.6409486363876421E10 ; 0.0
91 ; 469451.4623939512 ; 2.0041210423789677E8 ; 3.5951040436279565E7 ; 1.6609897161358921E10 ; 0.0
92 ; 469884.5875156451 ; 2.0041340912503704E8 ; 3.642049189867352E7 ; 1.6810309265596817E10 ; 0.0
93 ; 468830.9343856062 ; 2.0041471210999864E8 ; 3.6890376486189164E7 ; 1.7010722674721853E10 ; 0.0
94 ; 469709.5728292416 ; 2.0041601315931645E8 ; 3.735920742057477E7 ; 1.7211137386831852E10 ; 0.0
95 ; 469668.65144256566 ; 2.0041731223995876E8 ; 3.782891699340401E7 ; 1.741155339999117E10 ; 0.0
96 ; 469753.0224103631 ; 2.0041860931930557E8 ; 3.829858564484657E7 ; 1.761197071223113E10 ; 0.0
97 ; 469791.0413493354 ; 2.004199043651281E8 ; 3.876833866725694E7 ; 1.7812389321550434E10 ; 0.0
98 ; 468944.6303235026 ; 2.0042119734556997E8 ; 3.923812970860627E7 ; 1.801280922591556E10 ; 0.0
99 ; 469279.2893983021 ; 2.0042248822912928E8 ; 3.970707433892977E7 ; 1.821323042326113E10 ; 0.0
100 ; 468026.874472388 ; 2.0042377698464233E8 ; 4.017635362832808E7 ; 1.841365291149026E10 ; 0.0
101 ; 468612.9672726053 ; 2.0042506358126795E8 ; 4.0644380502800465E7 ; 1.8614076688474903E10 ; 0.0
102 ; 468253.539280327 ; 2.004263479884734E8 ; 4.111299347007307E7 ; 1.881450175205617E10 ; 0.0
103 ; 468282.4801726868 ; 2.0042763017602053E8 ; 4.158124700935339E7 ; 1.9014928100044643E10 ; 0.0
104 ; 467198.68913372443 ; 2.0042891011395362E8 ; 4.204952948952608E7 ; 1.9215355730220665E10 ; 0.0
105 ; 469321.92973921815 ; 2.004301877725872E8 ; 4.2516728178659804E7 ; 1.9415784640334618E10 ; 0.0
106 ; 467178.08553793683 ; 2.0043146312249526E8 ; 4.298605010839902E7 ; 1.9616214828107204E10 ; 0.0
107 ; 466951.1549903221 ; 2.0043273613450086E8 ; 4.345322819393696E7 ; 1.98166462912297E10 ; 0.0
108 ; 467393.77891106915 ; 2.004340067796663E8 ; 4.392017934892728E7 ; 2.00170790273642E10 ; 0.0
109 ; 466598.70051002596 ; 2.0043527502928433E8 ; 4.438757312783835E7 ; 2.0217513034143867E10 ; 0.0
110 ; 466423.18561600824 ; 2.0043654085486928E8 ; 4.4854171828348376E7 ; 2.0417948309173153E10 ; 0.0
111 ; 466678.851090532 ; 2.0043780422814935E8 ; 4.5320595013964385E7 ; 2.0618384850028023E10 ; 0.0
112 ; 465290.7115101386 ; 2.0043906512105894E8 ; 4.578727386505492E7 ; 2.0818822654256172E10 ; 0.0
113 ; 466123.50303749216 ; 2.0044032350573167E8 ; 4.625256457656506E7 ; 2.101926171937723E10 ; 0.0
114 ; 465526.79295380024 ; 2.0044157935449362E8 ; 4.671868807960255E7 ; 2.1219702042882965E10 ; 0.0
115 ; 464698.42393791524 ; 2.0044283263985732E8 ; 4.718421487255634E7 ; 2.1420143622237457E10 ; 0.0
116 ; 463814.0356687731 ; 2.0044408333451572E8 ; 4.764891329649426E7 ; 2.1620586454877316E10 ; 0.0
117 ; 464132.0931004446 ; 2.004453314113367E8 ; 4.8112727332163036E7 ; 2.182103053821183E10 ; 0.0
118 ; 465436.4307119603 ; 2.004465768433579E8 ; 4.857685942526348E7 ; 2.2021475869623165E10 ; 0.0
119 ; 463409.92184953793 ; 2.0044781960378194E8 ; 4.904229585597544E7 ; 2.2221922446466522E10 ; 0.0
120 ; 463373.9414773921 ; 2.0044905966597167E8 ; 4.950570577782498E7 ; 2.2422370266070305E10 ; 0.0
121 ; 463141.5964684126 ; 2.0045029700344586E8 ; 4.996907971930238E7 ; 2.2622819325736275E10 ; 0.0
122 ; 462720.4377331812 ; 2.0045153158987528E8 ; 5.043222131577079E7 ; 2.282326962273972E10 ; 0.0
123 ; 462327.1611459341 ; 2.004527633990787E8 ; 5.089494175350397E7 ; 2.3023721154329594E10 ; 0.0
124 ; 461132.662601668 ; 2.004539924050193E8 ; 5.1357268914649904E7 ; 2.3224173917728672E10 ; 0.0
125 ; 460899.7637187655 ; 2.0045521858180138E8 ; 5.181840157725157E7 ; 2.342462791013369E10 ; 0.0
126 ; 460359.3792483439 ; 2.004564419036669E8 ; 5.227930134097034E7 ; 2.3625083128715492E10 ; 0.0
127 ; 459725.64186575986 ; 2.004576623449928E8 ; 5.273966072021868E7 ; 2.382553957061916E10 ; 0.0
128 ; 459740.89759463764 ; 2.004588798802877E8 ; 5.319938636208444E7 ; 2.4025997232964153E10 ; 0.0
129 ; 459101.64275158715 ; 2.0046009448418975E8 ; 5.365912725967908E7 ; 2.422645611284444E10 ; 0.0
130 ; 457822.4495878625 ; 2.004613061314636E8 ; 5.411822890243067E7 ; 2.442691620732863E10 ; 0.0
131 ; 455536.24160353944 ; 2.004625147969982E8 ; 5.457605135201853E7 ; 2.462737751346009E10 ; 0.0
132 ; 455831.4136983629 ; 2.004637204558047E8 ; 5.5031587593622066E7 ; 2.4827840028257088E10 ; 0.0
133 ; 454282.2049583121 ; 2.00464923083014E8 ; 5.548741900732043E7 ; 2.502830374871289E10 ; 0.0
134 ; 452281.6534750579 ; 2.0046612265387508E8 ; 5.594170121227874E7 ; 2.5228768671795906E10 ; 0.0
135 ; 451520.1412428875 ; 2.004673191437528E8 ; 5.63939828657538E7 ; 2.542923479444978E10 ; 0.0
136 ; 450801.81515024306 ; 2.0046851252812636E8 ; 5.6845503006996684E7 ; 2.5629702113593533E10 ; 0.0
137 ; 448747.42266741535 ; 2.0046970278258744E8 ; 5.729630482214693E7 ; 2.583017062612166E10 ; 0.0
138 ; 448528.3518023938 ; 2.0047088988283882E8 ; 5.7745052244814344E7 ; 2.6030640328904247E10 ; 0.0
139 ; 446487.68887945835 ; 2.0047207380469263E8 ; 5.819358059661674E7 ; 2.6231111218787086E10 ; 0.0
140 ; 445544.2613299787 ; 2.004732545240692E8 ; 5.86400682854962E7 ; 2.6431583292591778E10 ; 0.0
141 ; 444152.16446086805 ; 2.0047443201699555E8 ; 5.908561254682618E7 ; 2.663205654711585E10 ; 0.0
142 ; 442558.3583195436 ; 2.0047560625960425E8 ; 5.9529764711287044E7 ; 2.6832530979132843E10 ; 0.0
143 ; 441021.219045635 ; 2.0047677722813225E8 ; 5.997232306960659E7 ; 2.703300658539245E10 ; 0.0
144 ; 438933.9283498934 ; 2.0047794489891964E8 ; 6.041334428865222E7 ; 2.7233483362620583E10 ; 0.0
145 ; 438939.63758915383 ; 2.0047910924840885E8 ; 6.085227821700211E7 ; 2.74339613075195E10 ; 0.0
146 ; 438819.4648872986 ; 2.0048027025314346E8 ; 6.1291217854591265E7 ; 2.763444041676791E10 ; 0.0
147 ; 437524.9174079953 ; 2.0048142788976738E8 ; 6.1730037319478564E7 ; 2.7834920687021053E10 ; 0.0
148 ; 437072.1358136359 ; 2.0048258213502404E8 ; 6.216756223688656E7 ; 2.803540211491082E10 ; 0.0
149 ; 437157.45422756165 ; 2.004837329657555E8 ; 6.26046343727002E7 ; 2.8235884697045845E10 ; 0.0
150 ; 436246.86375918926 ; 2.0048488035890174E8 ; 6.304179182692776E7 ; 2.84363684300116E10 ; 0.0
151 ; 436163.8401291133 ; 2.004860242914999E8 ; 6.347803869068695E7 ; 2.8636853310370502E10 ; 0.0
152 ; 436315.1745187961 ; 2.004871647406838E8 ; 6.391420253081606E7 ; 2.8837339334662003E10 ; 0.0
153 ; 433963.30355845025 ; 2.0048830168368304E8 ; 6.435051770533486E7 ; 2.9037826499402687E10 ; 0.0
154 ; 434251.43530136504 ; 2.0048943509782267E8 ; 6.478448100889331E7 ; 2.923831480108637E10 ; 0.0
155 ; 433139.1296207872 ; 2.0049056496052253E8 ; 6.5218732444194674E7 ; 2.9438804236184193E10 ; 0.0
156 ; 433088.26649421576 ; 2.0049169124929684E8 ; 6.5651871573815465E7 ; 2.9639294801144714E10 ; 0.0
157 ; 431380.6177664915 ; 2.0049281394175363E8 ; 6.608495984030968E7 ; 2.9839786492394012E10 ; 0.0
158 ; 430401.2263046981 ; 2.004939330155944E8 ; 6.651634045807617E7 ; 3.0040279306335766E10 ; 0.0
159 ; 431264.53598951164 ; 2.0049504844861367E8 ; 6.694674168438087E7 ; 3.024077323935136E10 ; 0.0
160 ; 430143.2355197849 ; 2.0049616021869868E8 ; 6.737800622037038E7 ; 3.0441268287799973E10 ; 0.0
161 ; 430257.0957394221 ; 2.0049726830382895E8 ; 6.780814945589016E7 ; 3.0641764448018673E10 ; 0.0
162 ; 430032.96497511485 ; 2.0049837268207613E8 ; 6.823840655162959E7 ; 3.0842261716322502E10 ; 0.0
163 ; 428043.9353190465 ; 2.0049947333160353E8 ; 6.86684395166047E7 ; 3.1042760089004578E10 ; 0.0
164 ; 429088.3497705393 ; 2.00500570230666E8 ; 6.909648345192376E7 ; 3.124325956233618E10 ; 0.0
165 ; 428149.9695853864 ; 2.0050166335760966E8 ; 6.95255718016943E7 ; 3.144376013256685E10 ; 0.0
166 ; 426630.21280026395 ; 2.0050275269087166E8 ; 6.99537217712797E7 ; 3.1644261795924458E10 ; 0.0
167 ; 426976.7673507736 ; 2.0050383820898E8 ; 7.038035198407996E7 ; 3.184476454861533E10 ; 0.0
168 ; 426102.86225349596 ; 2.005049198905534E8 ; 7.080732875143073E7 ; 3.204526838682431E10 ; 0.0
169 ; 426047.2442680891 ; 2.005059977143012E8 ; 7.123343161368424E7 ; 3.2245773306714863E10 ; 0.0
170 ; 424943.3357800736 ; 2.0050707165902305E8 ; 7.165947885795233E7 ; 3.2446279304429165E10 ; 0.0
171 ; 423250.23428127397 ; 2.0050814170360893E8 ; 7.20844221937324E7 ; 3.264678637608819E10 ; 0.0
172 ; 423008.1909939418 ; 2.005092078270391E8 ; 7.250767242801367E7 ; 3.2847294517791798E10 ; 0.0
173 ; 422982.97521563567 ; 2.0051027000838387E8 ; 7.29306806190076E7 ; 3.3047803725618835E10 ; 0.0
174 ; 422903.65874547616 ; 2.0051132822680372E8 ; 7.335366359422323E7 ; 3.324831399562722E10 ; 0.0
175 ; 421323.04599 ; 2.005123824615491E8 ; 7.377656725296871E7 ; 3.3448825323854023E10 ; 0.0
176 ; 421725.5540797957 ; 2.0051343269196042E8 ; 7.419789029895872E7 ; 3.364933770631557E10 ; 0.0
177 ; 420459.8840493357 ; 2.0051447889746818E8 ; 7.461961585303852E7 ; 3.384985113900753E10 ; 0.0
178 ; 420777.2790365159 ; 2.0051552105759272E8 ; 7.504007573708786E7 ; 3.4050365617905E10 ; 0.0
179 ; 421263.2664033273 ; 2.0051655915194443E8 ; 7.546085301612438E7 ; 3.4250881138962593E10 ; 0.0
180 ; 420984.1461224865 ; 2.005175931602237E8 ; 7.588211628252771E7 ; 3.445139769811454E10 ; 0.0
181 ; 421038.0612209797 ; 2.0051862306222087E8 ; 7.63031004286502E7 ; 3.4651915291274765E10 ; 0.0
182 ; 419126.6400835822 ; 2.0051964883781642E8 ; 7.672413848987117E7 ; 3.485243391433698E10 ; 0.0
183 ; 417847.6143404834 ; 2.0052067046698084E8 ; 7.714326512995476E7 ; 3.50529535631748E10 ; 0.0
184 ; 418557.6132840023 ; 2.005216879297749E8 ; 7.756111274429524E7 ; 3.525347423364178E10 ; 0.0
185 ; 418990.9824701983 ; 2.0052270120634955E8 ; 7.797967035757925E7 ; 3.545399592157155E10 ; 0.0
186 ; 417047.41963046277 ; 2.0052371027694598E8 ; 7.839866134004945E7 ; 3.56545186227779E10 ; 0.0
187 ; 416341.1950820024 ; 2.0052471512189588E8 ; 7.881570875967991E7 ; 3.585504233305485E10 ; 0.0
188 ; 416674.7377638471 ; 2.005257157216214E8 ; 7.923204995476192E7 ; 3.605556704817674E10 ; 0.0
189 ; 416886.18487224967 ; 2.005267120566352E8 ; 7.964872469252577E7 ; 3.625609276389836E10 ; 0.0
190 ; 416263.46947621286 ; 2.0052770410754073E8 ; 8.006561087739803E7 ; 3.6456619475954994E10 ; 0.0
191 ; 414562.73062869185 ; 2.0052869185503224E8 ; 8.048187434687424E7 ; 3.665714718006254E10 ; 0.0
192 ; 414885.0624391481 ; 2.005296752798949E8 ; 8.089643707750294E7 ; 3.685767587191757E10 ; 0.0
193 ; 414405.09647400794 ; 2.0053065436300483E8 ; 8.131132213994208E7 ; 3.7058205547197464E10 ; 0.0
194 ; 414677.46115857636 ; 2.0053162908532953E8 ; 8.172572723641609E7 ; 3.725873620156047E10 ; 0.0
195 ; 412974.44744896493 ; 2.0053259942792773E8 ; 8.214040469757466E7 ; 3.74592678306458E10 ; 0.0
196 ; 413454.43522870744 ; 2.005335653719496E8 ; 8.255337914502363E7 ; 3.765980043007372E10 ; 0.0
197 ; 413787.563474765 ; 2.0053452689863703E8 ; 8.296683358025233E7 ; 3.786033399544567E10 ; 0.0
198 ; 412539.95908982836 ; 2.005354839893236E8 ; 8.33806211437271E7 ; 3.806086852234431E10 ; 0.0
199 ; 412435.7259215892 ; 2.0053643662543485E8 ; 8.379316110281692E7 ; 3.826140400633363E10 ; 0.0
200 ; 413501.4533194069 ; 2.0053738478848848E8 ; 8.420559682873851E7 ; 3.846194044295907E10 ; 0.0
201 ; 411690.0416680427 ; 2.005383284600944E8 ; 8.461909828205791E7 ; 3.866247782774756E10 ; 0.0
