CSV File for the City 3 on Day 19
1 - Minute m 
2 - Power Consumed at minute m 
3 - Power Produced at minute m 
4 - Energy Consumed since the beginning of the day 
5 - Energy Produced since the beginning of the day 
6 - Energy Lost since the beginning of the day on lines starting from the city
 
0 ; 5946315.654462098 ; 7035311.720272024 ; 0.0 ; 0.0 ; 0.0
1 ; 5953255.916876499 ; 7035311.720272024 ; 5946315.654462098 ; 7035311.720272024 ; 0.0
2 ; 5958570.820710311 ; 7035311.720272024 ; 1.1899571571338598E7 ; 1.4070623440544048E7 ; 0.0
3 ; 5969098.792809072 ; 7035311.720272024 ; 1.785814239204891E7 ; 2.1105935160816073E7 ; 0.0
4 ; 5973134.705703808 ; 7035311.720272024 ; 2.3827241184857983E7 ; 2.8141246881088097E7 ; 0.0
5 ; 5984639.132615437 ; 7035311.720272024 ; 2.980037589056179E7 ; 3.517655860136012E7 ; 0.0
6 ; 6000006.571527419 ; 7035311.720272024 ; 3.578501502317723E7 ; 4.221187032163215E7 ; 0.0
7 ; 6020936.129175592 ; 7035311.720272024 ; 4.178502159470465E7 ; 4.9247182041904174E7 ; 0.0
8 ; 6048746.3020407865 ; 7035311.720272024 ; 4.780595772388025E7 ; 5.62824937621762E7 ; 0.0
9 ; 6088617.080314787 ; 7035311.720272024 ; 5.385470402592103E7 ; 6.331780548244823E7 ; 0.0
10 ; 6156042.62735238 ; 7035311.720272024 ; 5.994332110623582E7 ; 7.035311720272025E7 ; 0.0
11 ; 6258089.015738367 ; 7035311.720272024 ; 6.60993637335882E7 ; 7.738842892299227E7 ; 0.0
12 ; 6427105.089114993 ; 7035311.720272024 ; 7.235745274932656E7 ; 8.44237406432643E7 ; 0.0
13 ; 6580858.904705381 ; 7035311.720272024 ; 7.878455783844155E7 ; 9.145905236353631E7 ; 0.0
14 ; 6600503.141589082 ; 7035311.720272024 ; 8.536541674314693E7 ; 9.849436408380833E7 ; 0.0
15 ; 6606203.565261761 ; 7035311.720272024 ; 9.1965919884736E7 ; 1.0552967580408035E8 ; 0.0
16 ; 6614113.75558787 ; 7035311.720272024 ; 9.857212344999777E7 ; 1.1256498752435237E8 ; 0.0
17 ; 6622131.708973541 ; 7035311.720272024 ; 1.0518623720558564E8 ; 1.1960029924462439E8 ; 0.0
18 ; 6630051.414162793 ; 7035311.720272024 ; 1.1180836891455919E8 ; 1.2663561096489641E8 ; 0.0
19 ; 6638262.279760053 ; 7035311.720272024 ; 1.1843842032872199E8 ; 1.3367092268516843E8 ; 0.0
20 ; 6645611.917934629 ; 7035311.720272024 ; 1.2507668260848203E8 ; 1.4070623440544045E8 ; 0.0
21 ; 6655939.456740993 ; 7035311.720272024 ; 1.3172229452641666E8 ; 1.4774154612571248E8 ; 0.0
22 ; 6661806.055644091 ; 7035311.720272024 ; 1.3837823398315766E8 ; 1.5477685784598452E8 ; 0.0
23 ; 6671068.714108045 ; 7035311.720272024 ; 1.4504004003880176E8 ; 1.6181216956625655E8 ; 0.0
24 ; 6678880.120192805 ; 7035311.720272024 ; 1.517111087529098E8 ; 1.688474812865286E8 ; 0.0
25 ; 6688380.212779435 ; 7035311.720272024 ; 1.583899888731026E8 ; 1.7588279300680062E8 ; 0.0
26 ; 6695526.634331522 ; 7035311.720272024 ; 1.6507836908588204E8 ; 1.8291810472707266E8 ; 0.0
27 ; 6702951.753060792 ; 7035311.720272024 ; 1.7177389572021356E8 ; 1.899534164473447E8 ; 0.0
28 ; 6709001.129886732 ; 7035311.720272024 ; 1.7847684747327435E8 ; 1.9698872816761672E8 ; 0.0
29 ; 6716664.629280232 ; 7035311.720272024 ; 1.851858486031611E8 ; 2.0402403988788876E8 ; 0.0
30 ; 6725457.810713609 ; 7035311.720272024 ; 1.9190251323244134E8 ; 2.110593516081608E8 ; 0.0
31 ; 6732276.662447821 ; 7035311.720272024 ; 1.9862797104315495E8 ; 2.1809466332843283E8 ; 0.0
32 ; 6737877.910382287 ; 7035311.720272024 ; 2.0536024770560277E8 ; 2.2512997504870486E8 ; 0.0
33 ; 6745265.438262477 ; 7035311.720272024 ; 2.1209812561598507E8 ; 2.321652867689769E8 ; 0.0
34 ; 6751298.679627173 ; 7035311.720272024 ; 2.1884339105424753E8 ; 2.3920059848924893E8 ; 0.0
35 ; 6756952.861261271 ; 7035311.720272024 ; 2.255946897338747E8 ; 2.4623591020952097E8 ; 0.0
36 ; 6765387.00788883 ; 7035311.720272024 ; 2.32351642595136E8 ; 2.53271221929793E8 ; 0.0
37 ; 6770077.421047351 ; 7035311.720272024 ; 2.391170296030248E8 ; 2.6030653365006503E8 ; 0.0
38 ; 6776486.472013373 ; 7035311.720272024 ; 2.4588710702407217E8 ; 2.6734184537033707E8 ; 0.0
39 ; 6781472.964868576 ; 7035311.720272024 ; 2.5266359349608555E8 ; 2.743771570906091E8 ; 0.0
40 ; 6786681.70735764 ; 7035311.720272024 ; 2.5944506646095413E8 ; 2.814124688108811E8 ; 0.0
41 ; 6792016.013082004 ; 7035311.720272024 ; 2.6623174816831177E8 ; 2.884477805311531E8 ; 0.0
42 ; 6793250.263456321 ; 7035311.720272024 ; 2.730237641813938E8 ; 2.954830922514251E8 ; 0.0
43 ; 6802804.81359547 ; 7035311.720272024 ; 2.7981701444485015E8 ; 3.025184039716971E8 ; 0.0
44 ; 6805062.657661566 ; 7035311.720272024 ; 2.866198192584456E8 ; 3.095537156919691E8 ; 0.0
45 ; 6809828.032111204 ; 7035311.720272024 ; 2.934248819161072E8 ; 3.165890274122411E8 ; 0.0
46 ; 6812912.093367747 ; 7035311.720272024 ; 3.002347099482184E8 ; 3.236243391325131E8 ; 0.0
47 ; 6813992.216512145 ; 7035311.720272024 ; 3.0704762204158616E8 ; 3.306596508527851E8 ; 0.0
48 ; 6816015.635224349 ; 7035311.720272024 ; 3.138616142580983E8 ; 3.376949625730571E8 ; 0.0
49 ; 6822961.647320065 ; 7035311.720272024 ; 3.2067762989332265E8 ; 3.447302742933291E8 ; 0.0
50 ; 6822409.708780629 ; 7035311.720272024 ; 3.2750059154064274E8 ; 3.517655860136011E8 ; 0.0
51 ; 6823637.675834184 ; 7035311.720272024 ; 3.343230012494234E8 ; 3.588008977338731E8 ; 0.0
52 ; 6829573.485508495 ; 7035311.720272024 ; 3.4114663892525756E8 ; 3.6583620945414513E8 ; 0.0
53 ; 6830203.794552057 ; 7035311.720272024 ; 3.4797621241076607E8 ; 3.7287152117441714E8 ; 0.0
54 ; 6830893.886158383 ; 7035311.720272024 ; 3.548064162053181E8 ; 3.7990683289468914E8 ; 0.0
55 ; 6833390.205748775 ; 7035311.720272024 ; 3.616373100914765E8 ; 3.8694214461496115E8 ; 0.0
56 ; 6835056.156520779 ; 7035311.720272024 ; 3.684707002972253E8 ; 3.9397745633523315E8 ; 0.0
57 ; 6834920.15721639 ; 7035311.720272024 ; 3.753057564537461E8 ; 4.0101276805550516E8 ; 0.0
58 ; 6836698.120725813 ; 7035311.720272024 ; 3.8214067661096245E8 ; 4.0804807977577716E8 ; 0.0
59 ; 6839266.737873851 ; 7035311.720272024 ; 3.8897737473168826E8 ; 4.1508339149604917E8 ; 0.0
60 ; 6840281.289851655 ; 7035311.720272024 ; 3.958166414695621E8 ; 4.221187032163212E8 ; 0.0
61 ; 6839987.624417082 ; 7035311.720272024 ; 4.026569227594138E8 ; 4.291540149365932E8 ; 0.0
62 ; 6841500.907880912 ; 7035311.720272024 ; 4.0949691038383085E8 ; 4.361893266568652E8 ; 0.0
63 ; 6846518.571621662 ; 7035311.720272024 ; 4.1633841129171175E8 ; 4.432246383771372E8 ; 0.0
64 ; 6845013.517300848 ; 7035311.720272024 ; 4.231849298633334E8 ; 4.502599500974092E8 ; 0.0
65 ; 6845435.39190459 ; 7035311.720272024 ; 4.3002994338063425E8 ; 4.572952618176812E8 ; 0.0
66 ; 6848929.691532875 ; 7035311.720272024 ; 4.3687537877253884E8 ; 4.643305735379532E8 ; 0.0
67 ; 6848970.835838174 ; 7035311.720272024 ; 4.437243084640717E8 ; 4.713658852582252E8 ; 0.0
68 ; 6848130.700195859 ; 7035311.720272024 ; 4.505732792999099E8 ; 4.784011969784972E8 ; 0.0
69 ; 6846418.988979368 ; 7035311.720272024 ; 4.5742141000010574E8 ; 4.854365086987692E8 ; 0.0
70 ; 6849351.465951743 ; 7035311.720272024 ; 4.642678289890851E8 ; 4.924718204190412E8 ; 0.0
71 ; 6850365.075521696 ; 7035311.720272024 ; 4.711171804550368E8 ; 4.995071321393132E8 ; 0.0
72 ; 6851799.485781422 ; 7035311.720272024 ; 4.779675455305585E8 ; 5.065424438595852E8 ; 0.0
73 ; 6850681.226479902 ; 7035311.720272024 ; 4.8481934501633996E8 ; 5.1357775557985723E8 ; 0.0
74 ; 6853057.425091729 ; 7035311.720272024 ; 4.9167002624281985E8 ; 5.2061306730012923E8 ; 0.0
75 ; 6853855.234377351 ; 7035311.720272024 ; 4.985230836679116E8 ; 5.2764837902040124E8 ; 0.0
76 ; 6849836.769338425 ; 7035311.720272024 ; 5.053769389022889E8 ; 5.3468369074067324E8 ; 0.0
77 ; 6850115.595449528 ; 7035311.720272024 ; 5.1222677567162734E8 ; 5.417190024609452E8 ; 0.0
78 ; 6851362.619202891 ; 7035311.720272024 ; 5.1907689126707685E8 ; 5.487543141812173E8 ; 0.0
79 ; 6849694.670174441 ; 7035311.720272024 ; 5.2592825388627976E8 ; 5.557896259014894E8 ; 0.0
80 ; 6845813.457575588 ; 7035311.720272024 ; 5.327779485564542E8 ; 5.628249376217614E8 ; 0.0
81 ; 6842581.124514068 ; 7035311.720272024 ; 5.396237620140297E8 ; 5.698602493420335E8 ; 0.0
82 ; 6842031.58908513 ; 7035311.720272024 ; 5.464663431385438E8 ; 5.768955610623056E8 ; 0.0
83 ; 6841938.817476822 ; 7035311.720272024 ; 5.53308374727629E8 ; 5.839308727825776E8 ; 0.0
84 ; 6838423.023765653 ; 7035311.720272024 ; 5.601503135451058E8 ; 5.909661845028497E8 ; 0.0
85 ; 6835554.836135063 ; 7035311.720272024 ; 5.669887365688715E8 ; 5.980014962231218E8 ; 0.0
86 ; 6832467.320953057 ; 7035311.720272024 ; 5.738242914050065E8 ; 6.050368079433938E8 ; 0.0
87 ; 6829896.257383518 ; 7035311.720272024 ; 5.806567587259595E8 ; 6.120721196636659E8 ; 0.0
88 ; 6828502.043954332 ; 7035311.720272024 ; 5.87486654983343E8 ; 6.19107431383938E8 ; 0.0
89 ; 6825599.334891526 ; 7035311.720272024 ; 5.943151570272974E8 ; 6.2614274310421E8 ; 0.0
90 ; 6821765.461855921 ; 7035311.720272024 ; 6.011407563621889E8 ; 6.331780548244821E8 ; 0.0
91 ; 6818837.002216729 ; 7035311.720272024 ; 6.079625218240448E8 ; 6.402133665447541E8 ; 0.0
92 ; 6815044.551351871 ; 7035311.720272024 ; 6.147813588262615E8 ; 6.472486782650262E8 ; 0.0
93 ; 6815612.398384373 ; 7035311.720272024 ; 6.215964033776134E8 ; 6.542839899852983E8 ; 0.0
94 ; 6811463.993552938 ; 7035311.720272024 ; 6.284120157759978E8 ; 6.613193017055703E8 ; 0.0
95 ; 6807990.473858431 ; 7035311.720272024 ; 6.352234797695507E8 ; 6.683546134258424E8 ; 0.0
96 ; 6804978.59387249 ; 7035311.720272024 ; 6.420314702434092E8 ; 6.753899251461145E8 ; 0.0
97 ; 6803676.653267171 ; 7035311.720272024 ; 6.488364488372817E8 ; 6.824252368663865E8 ; 0.0
98 ; 6797175.396740966 ; 7035311.720272024 ; 6.556401254905488E8 ; 6.894605485866586E8 ; 0.0
99 ; 6794758.355105634 ; 7035311.720272024 ; 6.624373008872898E8 ; 6.964958603069307E8 ; 0.0
100 ; 6791702.030743561 ; 7035311.720272024 ; 6.692320592423954E8 ; 7.035311720272027E8 ; 0.0
101 ; 6787226.526900274 ; 7035311.720272024 ; 6.76023761273139E8 ; 7.105664837474748E8 ; 0.0
102 ; 6785547.164145571 ; 7035311.720272024 ; 6.828109878000393E8 ; 7.176017954677469E8 ; 0.0
103 ; 6780933.854143207 ; 7035311.720272024 ; 6.895965349641849E8 ; 7.246371071880189E8 ; 0.0
104 ; 6779763.775313199 ; 7035311.720272024 ; 6.963774688183281E8 ; 7.31672418908291E8 ; 0.0
105 ; 6772665.526085931 ; 7035311.720272024 ; 7.031572325936413E8 ; 7.38707730628563E8 ; 0.0
106 ; 6770744.114347438 ; 7035311.720272024 ; 7.099298981197273E8 ; 7.457430423488351E8 ; 0.0
107 ; 6768034.685852145 ; 7035311.720272024 ; 7.167006422340747E8 ; 7.527783540691072E8 ; 0.0
108 ; 6763453.395983273 ; 7035311.720272024 ; 7.234686769199269E8 ; 7.598136657893792E8 ; 0.0
109 ; 6760049.431157038 ; 7035311.720272024 ; 7.302321303159101E8 ; 7.668489775096513E8 ; 0.0
110 ; 6756847.570777952 ; 7035311.720272024 ; 7.369921797470671E8 ; 7.738842892299234E8 ; 0.0
111 ; 6750353.388792718 ; 7035311.720272024 ; 7.43749027317845E8 ; 7.809196009501954E8 ; 0.0
112 ; 6748061.443013781 ; 7035311.720272024 ; 7.504993807066377E8 ; 7.879549126704675E8 ; 0.0
113 ; 6744130.410954304 ; 7035311.720272024 ; 7.572474421496515E8 ; 7.949902243907396E8 ; 0.0
114 ; 6737447.796398563 ; 7035311.720272024 ; 7.639915725606059E8 ; 8.020255361110116E8 ; 0.0
115 ; 6733402.227355975 ; 7035311.720272024 ; 7.707290203570044E8 ; 8.090608478312837E8 ; 0.0
116 ; 6729048.183148496 ; 7035311.720272024 ; 7.774624225843604E8 ; 8.160961595515558E8 ; 0.0
117 ; 6724211.892469859 ; 7035311.720272024 ; 7.841914707675089E8 ; 8.231314712718278E8 ; 0.0
118 ; 6719679.30703576 ; 7035311.720272024 ; 7.909156826599787E8 ; 8.301667829920999E8 ; 0.0
119 ; 6715007.719114021 ; 7035311.720272024 ; 7.976353619670146E8 ; 8.37202094712372E8 ; 0.0
120 ; 6709723.68687694 ; 7035311.720272024 ; 8.043503696861286E8 ; 8.44237406432644E8 ; 0.0
121 ; 6702686.144639433 ; 7035311.720272024 ; 8.110600933730055E8 ; 8.512727181529161E8 ; 0.0
122 ; 6698970.322870054 ; 7035311.720272024 ; 8.17762779517645E8 ; 8.583080298731881E8 ; 0.0
123 ; 6695110.984940571 ; 7035311.720272024 ; 8.24461749840515E8 ; 8.653433415934602E8 ; 0.0
124 ; 6690462.093722879 ; 7035311.720272024 ; 8.311568608254555E8 ; 8.723786533137323E8 ; 0.0
125 ; 6686014.2938926695 ; 7035311.720272024 ; 8.378473229191784E8 ; 8.794139650340043E8 ; 0.0
126 ; 6678880.772107466 ; 7035311.720272024 ; 8.44533337213071E8 ; 8.864492767542764E8 ; 0.0
127 ; 6673948.753393168 ; 7035311.720272024 ; 8.512122179851785E8 ; 8.934845884745485E8 ; 0.0
128 ; 6668583.45492837 ; 7035311.720272024 ; 8.578861667385716E8 ; 9.005199001948205E8 ; 0.0
129 ; 6662943.1752330735 ; 7035311.720272024 ; 8.645547501935E8 ; 9.075552119150926E8 ; 0.0
130 ; 6660575.854475203 ; 7035311.720272024 ; 8.712176933687332E8 ; 9.145905236353647E8 ; 0.0
131 ; 6649817.667247812 ; 7035311.720272024 ; 8.778782692232084E8 ; 9.216258353556367E8 ; 0.0
132 ; 6642401.018032436 ; 7035311.720272024 ; 8.845280868904562E8 ; 9.286611470759088E8 ; 0.0
133 ; 6636119.204894464 ; 7035311.720272024 ; 8.911704879084886E8 ; 9.356964587961808E8 ; 0.0
134 ; 6627791.2672837805 ; 7035311.720272024 ; 8.97806607113383E8 ; 9.427317705164529E8 ; 0.0
135 ; 6619302.387987956 ; 7035311.720272024 ; 9.044343983806669E8 ; 9.49767082236725E8 ; 0.0
136 ; 6613462.7637112755 ; 7035311.720272024 ; 9.110537007686548E8 ; 9.56802393956997E8 ; 0.0
137 ; 6602851.099476257 ; 7035311.720272024 ; 9.176671635323662E8 ; 9.638377056772691E8 ; 0.0
138 ; 6597125.560952956 ; 7035311.720272024 ; 9.242700146318424E8 ; 9.708730173975412E8 ; 0.0
139 ; 6588757.708854393 ; 7035311.720272024 ; 9.308671401927953E8 ; 9.779083291178132E8 ; 0.0
140 ; 6582481.190590547 ; 7035311.720272024 ; 9.374558979016497E8 ; 9.849436408380853E8 ; 0.0
141 ; 6570980.997355036 ; 7035311.720272024 ; 9.440383790922402E8 ; 9.919789525583574E8 ; 0.0
142 ; 6565714.412543353 ; 7035311.720272024 ; 9.506093600895952E8 ; 9.990142642786294E8 ; 0.0
143 ; 6556440.803429671 ; 7035311.720272024 ; 9.571750745021385E8 ; 1.0060495759989015E9 ; 0.0
144 ; 6549884.160541786 ; 7035311.720272024 ; 9.637315153055682E8 ; 1.0130848877191736E9 ; 0.0
145 ; 6542955.704804078 ; 7035311.720272024 ; 9.7028139946611E8 ; 1.0201201994394456E9 ; 0.0
146 ; 6536227.772576827 ; 7035311.720272024 ; 9.76824355170914E8 ; 1.0271555111597177E9 ; 0.0
147 ; 6532637.417250175 ; 7035311.720272024 ; 9.833605829434909E8 ; 1.0341908228799897E9 ; 0.0
148 ; 6525170.142943589 ; 7035311.720272024 ; 9.89893220360741E8 ; 1.0412261346002618E9 ; 0.0
149 ; 6520138.346658849 ; 7035311.720272024 ; 9.964183905036846E8 ; 1.0482614463205339E9 ; 0.0
150 ; 6514439.5326769 ; 7035311.720272024 ; 1.0029385288503435E9 ; 1.0552967580408059E9 ; 0.0
151 ; 6508190.603529801 ; 7035311.720272024 ; 1.0094529683830204E9 ; 1.062332069761078E9 ; 0.0
152 ; 6502970.686155354 ; 7035311.720272024 ; 1.0159611589865502E9 ; 1.0693673814813501E9 ; 0.0
153 ; 6493775.599340048 ; 7035311.720272024 ; 1.0224641296727055E9 ; 1.076402693201622E9 ; 0.0
154 ; 6491988.793083339 ; 7035311.720272024 ; 1.0289579052720456E9 ; 1.083438004921894E9 ; 0.0
155 ; 6484382.531502726 ; 7035311.720272024 ; 1.0354498940651289E9 ; 1.0904733166421661E9 ; 0.0
156 ; 6479987.890079852 ; 7035311.720272024 ; 1.0419342765966316E9 ; 1.0975086283624382E9 ; 0.0
157 ; 6473199.500027624 ; 7035311.720272024 ; 1.0484142644867115E9 ; 1.1045439400827103E9 ; 0.0
158 ; 6467569.931949846 ; 7035311.720272024 ; 1.0548874639867392E9 ; 1.1115792518029823E9 ; 0.0
159 ; 6462551.088122059 ; 7035311.720272024 ; 1.061355033918689E9 ; 1.1186145635232544E9 ; 0.0
160 ; 6456454.617436052 ; 7035311.720272024 ; 1.067817585006811E9 ; 1.1256498752435265E9 ; 0.0
161 ; 6449661.891662182 ; 7035311.720272024 ; 1.074274039624247E9 ; 1.1326851869637985E9 ; 0.0
162 ; 6441217.172613649 ; 7035311.720272024 ; 1.0807237015159092E9 ; 1.1397204986840706E9 ; 0.0
163 ; 6435978.6816164 ; 7035311.720272024 ; 1.0871649186885228E9 ; 1.1467558104043427E9 ; 0.0
164 ; 6430603.457948802 ; 7035311.720272024 ; 1.0936008973701391E9 ; 1.1537911221246147E9 ; 0.0
165 ; 6423690.381122123 ; 7035311.720272024 ; 1.1000315008280878E9 ; 1.1608264338448868E9 ; 0.0
166 ; 6417780.419080563 ; 7035311.720272024 ; 1.10645519120921E9 ; 1.1678617455651588E9 ; 0.0
167 ; 6412281.614034241 ; 7035311.720272024 ; 1.1128729716282904E9 ; 1.174897057285431E9 ; 0.0
168 ; 6406700.059611186 ; 7035311.720272024 ; 1.1192852532423246E9 ; 1.181932369005703E9 ; 0.0
169 ; 6397050.636952215 ; 7035311.720272024 ; 1.1256919533019357E9 ; 1.188967680725975E9 ; 0.0
170 ; 6394328.762330592 ; 7035311.720272024 ; 1.1320890039388878E9 ; 1.196002992446247E9 ; 0.0
171 ; 6387473.31059106 ; 7035311.720272024 ; 1.1384833327012184E9 ; 1.2030383041665192E9 ; 0.0
172 ; 6379624.5810484225 ; 7035311.720272024 ; 1.1448708060118093E9 ; 1.2100736158867912E9 ; 0.0
173 ; 6374356.393573685 ; 7035311.720272024 ; 1.1512504305928578E9 ; 1.2171089276070633E9 ; 0.0
174 ; 6370830.847167407 ; 7035311.720272024 ; 1.1576247869864316E9 ; 1.2241442393273354E9 ; 0.0
175 ; 6368692.296335035 ; 7035311.720272024 ; 1.163995617833599E9 ; 1.2311795510476074E9 ; 0.0
176 ; 6363434.663560025 ; 7035311.720272024 ; 1.170364310129934E9 ; 1.2382148627678795E9 ; 0.0
177 ; 6360097.5131886415 ; 7035311.720272024 ; 1.176727744793494E9 ; 1.2452501744881516E9 ; 0.0
178 ; 6356966.955491901 ; 7035311.720272024 ; 1.1830878423066826E9 ; 1.2522854862084236E9 ; 0.0
179 ; 6351766.731455712 ; 7035311.720272024 ; 1.1894448092621746E9 ; 1.2593207979286957E9 ; 0.0
180 ; 6346491.0490507465 ; 7035311.720272024 ; 1.1957965759936304E9 ; 1.2663561096489677E9 ; 0.0
181 ; 6344917.952558621 ; 7035311.720272024 ; 1.2021430670426812E9 ; 1.2733914213692398E9 ; 0.0
182 ; 6338830.784083913 ; 7035311.720272024 ; 1.2084879849952397E9 ; 1.2804267330895119E9 ; 0.0
183 ; 6335226.739181217 ; 7035311.720272024 ; 1.2148268157793236E9 ; 1.287462044809784E9 ; 0.0
184 ; 6334349.329639064 ; 7035311.720272024 ; 1.2211620425185049E9 ; 1.294497356530056E9 ; 0.0
185 ; 6329190.278961692 ; 7035311.720272024 ; 1.2274963918481438E9 ; 1.301532668250328E9 ; 0.0
186 ; 6326378.145908291 ; 7035311.720272024 ; 1.2338255821271055E9 ; 1.3085679799706001E9 ; 0.0
187 ; 6323174.300580795 ; 7035311.720272024 ; 1.2401519602730138E9 ; 1.3156032916908722E9 ; 0.0
188 ; 6320388.005801494 ; 7035311.720272024 ; 1.2464751345735946E9 ; 1.3226386034111443E9 ; 0.0
189 ; 6313564.307851521 ; 7035311.720272024 ; 1.252795522579396E9 ; 1.3296739151314163E9 ; 0.0
190 ; 6311417.707102436 ; 7035311.720272024 ; 1.2591090868872476E9 ; 1.3367092268516884E9 ; 0.0
191 ; 6309032.553570237 ; 7035311.720272024 ; 1.26542050459435E9 ; 1.3437445385719604E9 ; 0.0
192 ; 6305287.990214406 ; 7035311.720272024 ; 1.2717295371479204E9 ; 1.3507798502922325E9 ; 0.0
193 ; 6298687.967812738 ; 7035311.720272024 ; 1.2780348251381347E9 ; 1.3578151620125046E9 ; 0.0
194 ; 6297117.179540346 ; 7035311.720272024 ; 1.2843335131059475E9 ; 1.3648504737327766E9 ; 0.0
195 ; 6293499.641954649 ; 7035311.720272024 ; 1.290630630285488E9 ; 1.3718857854530487E9 ; 0.0
196 ; 6289140.404396872 ; 7035311.720272024 ; 1.2969241299274426E9 ; 1.3789210971733208E9 ; 0.0
197 ; 6285472.763419329 ; 7035311.720272024 ; 1.3032132703318393E9 ; 1.3859564088935928E9 ; 0.0
198 ; 6284690.362975302 ; 7035311.720272024 ; 1.3094987430952587E9 ; 1.392991720613865E9 ; 0.0
199 ; 6278303.707434029 ; 7035311.720272024 ; 1.315783433458234E9 ; 1.400027032334137E9 ; 0.0
200 ; 6273185.2112698555 ; 7035311.720272024 ; 1.322061737165668E9 ; 1.407062344054409E9 ; 0.0
201 ; 6269356.759957332 ; 7035311.720272024 ; 1.3283349223769379E9 ; 1.414097655774681E9 ; 0.0
202 ; 6267038.533293837 ; 7035311.720272024 ; 1.3346042791368952E9 ; 1.4211329674949532E9 ; 0.0
203 ; 6263358.312895063 ; 7035311.720272024 ; 1.340871317670189E9 ; 1.4281682792152252E9 ; 0.0
204 ; 6261110.140077238 ; 7035311.720272024 ; 1.347134675983084E9 ; 1.4352035909354973E9 ; 0.0
205 ; 6255749.884953118 ; 7035311.720272024 ; 1.3533957861231613E9 ; 1.4422389026557693E9 ; 0.0
206 ; 6252157.828683821 ; 7035311.720272024 ; 1.3596515360081143E9 ; 1.4492742143760414E9 ; 0.0
207 ; 6246727.63500897 ; 7035311.720272024 ; 1.3659036938367982E9 ; 1.4563095260963135E9 ; 0.0
208 ; 6243818.565032646 ; 7035311.720272024 ; 1.3721504214718072E9 ; 1.4633448378165855E9 ; 0.0
