CSV File for the City 3 on Day 32
1 - Minute m 
2 - Power Consumed at minute m 
3 - Power Produced at minute m 
4 - Energy Consumed since the beginning of the day 
5 - Energy Produced since the beginning of the day 
6 - Energy Lost since the beginning of the day on lines starting from the city
 
0 ; 2373119.291833588 ; 1.0527942221788332E8 ; 0.0 ; 0.0 ; 0.0
1 ; 2375873.4941710304 ; 1.0543107899812073E8 ; 2373119.291833588 ; 1.0527942221788332E8 ; 0.0
2 ; 2377639.085012649 ; 1.0589160439207652E8 ; 4748992.786004618 ; 2.1071050121600404E8 ; 0.0
3 ; 2380745.4356528395 ; 1.0666101355239993E8 ; 7126631.871017267 ; 3.1660210560808057E8 ; 0.0
4 ; 2384647.6543056634 ; 1.0773932128543174E8 ; 9507377.306670107 ; 4.232631191604805E8 ; 0.0
5 ; 2388210.032311114 ; 1.091265416716916E8 ; 1.189202496097577E7 ; 5.3100244044591224E8 ; 0.0
6 ; 2393692.000405323 ; 1.1082268764892957E8 ; 1.4280234993286883E7 ; 6.401289821176038E8 ; 0.0
7 ; 2401817.5093989996 ; 1.1282777057929909E8 ; 1.6673926993692206E7 ; 7.509516697665334E8 ; 0.0
8 ; 2412103.6352329087 ; 1.1514179982889974E8 ; 1.9075744503091205E7 ; 8.637794403458325E8 ; 0.0
9 ; 2429543.671006207 ; 1.1776478239218748E8 ; 2.148784813832411E7 ; 9.789212401747322E8 ; 0.0
10 ; 2457678.8603898794 ; 1.2069672259410363E8 ; 2.3917391809330318E7 ; 1.0966860225669198E9 ; 0.0
11 ; 2497203.4128505033 ; 1.2393762189836034E8 ; 2.63750706697202E7 ; 1.2173827451610234E9 ; 0.0
12 ; 2564197.09346563 ; 1.2748747884124544E8 ; 2.88722740825707E7 ; 1.3413203670593836E9 ; 0.0
13 ; 2627603.5472744056 ; 1.313462890978176E8 ; 3.143647117603633E7 ; 1.468807845900629E9 ; 0.0
14 ; 2635331.1336575435 ; 1.3551404567362094E8 ; 3.406407472331074E7 ; 1.6001541349984467E9 ; 0.0
15 ; 2637016.158249862 ; 1.3999073920255578E8 ; 3.669940585696828E7 ; 1.7356681806720676E9 ; 0.0
16 ; 2640315.7368539134 ; 1.447763583224688E8 ; 3.9336422015218146E7 ; 1.8756589198746233E9 ; 0.0
17 ; 2642519.490963794 ; 1.498708900956098E8 ; 4.197673775207206E7 ; 2.020435278197092E9 ; 0.0
18 ; 2645477.4765477534 ; 1.5527432044145924E8 ; 4.461925724303585E7 ; 2.1703061682927017E9 ; 0.0
19 ; 2649578.6406870317 ; 1.6098663455367628E8 ; 4.726473471958361E7 ; 2.325580488734161E9 ; 0.0
20 ; 2652104.296632866 ; 1.6700781727961168E8 ; 4.991431336027064E7 ; 2.486567123287837E9 ; 0.0
21 ; 2657163.9617276196 ; 1.733378534484099E8 ; 5.2566417656903505E7 ; 2.6535749405674486E9 ; 0.0
22 ; 2659867.4127458287 ; 1.7997672814090854E8 ; 5.5223581618631124E7 ; 2.8269127940158587E9 ; 0.0
23 ; 2662820.46223693 ; 1.8692442690049332E8 ; 5.788344903137695E7 ; 3.0068895221567674E9 ; 0.0
24 ; 2664384.7737319255 ; 1.9418093588840628E8 ; 6.0546269493613884E7 ; 3.1938139490572605E9 ; 0.0
25 ; 2669164.71560016 ; 2.004342828879246E8 ; 6.321065426734581E7 ; 3.387994884945667E9 ; 0.0
26 ; 2672160.658303152 ; 2.0043800340552363E8 ; 6.587981898294597E7 ; 3.5884291678335915E9 ; 0.0
27 ; 2674560.8465243634 ; 2.004418552262111E8 ; 6.855197964124912E7 ; 3.788867171239115E9 ; 0.0
28 ; 2677214.2221180317 ; 2.0044582766438502E8 ; 7.122654048777348E7 ; 3.9893090264653263E9 ; 0.0
29 ; 2680395.6417578254 ; 2.0044991084149274E8 ; 7.390375470989151E7 ; 4.189754854129711E9 ; 0.0
30 ; 2682989.6682901727 ; 2.0045409565644363E8 ; 7.658415035164934E7 ; 4.390204764971204E9 ; 0.0
31 ; 2685587.4297900447 ; 2.0045837374665454E8 ; 7.926714001993951E7 ; 4.590658860627647E9 ; 0.0
32 ; 2688506.0438870545 ; 2.0046273744338807E8 ; 8.195272744972956E7 ; 4.791117234374302E9 ; 0.0
33 ; 2690971.7592492257 ; 2.0046717972418576E8 ; 8.464123349361661E7 ; 4.99157997181769E9 ; 0.0
34 ; 2694122.5946500506 ; 2.004716941644742E8 ; 8.733220525286584E7 ; 5.192047151541876E9 ; 0.0
35 ; 2697390.185256582 ; 2.0047627488983202E8 ; 9.002632784751588E7 ; 5.39251884570635E9 ; 0.0
36 ; 2699488.3483734783 ; 2.0048091652994052E8 ; 9.272371803277247E7 ; 5.592995120596182E9 ; 0.0
37 ; 2701114.2337570116 ; 2.0048561417487934E8 ; 9.542320638114594E7 ; 5.793476037126122E9 ; 0.0
38 ; 2703415.4490816067 ; 2.004903633341599E8 ; 9.812432061490294E7 ; 5.993961651301002E9 ; 0.0
39 ; 2705750.684658825 ; 2.004951598986885E8 ; 1.0082773606398454E8 ; 6.194452014635161E9 ; 0.0
40 ; 2708308.5719961133 ; 2.0050000010571066E8 ; 1.0353348674864337E8 ; 6.39494717453385E9 ; 0.0
41 ; 2710901.7890785765 ; 2.005048805066882E8 ; 1.0624179532063948E8 ; 6.595447174639561E9 ; 0.0
42 ; 2711864.0057630343 ; 2.0050979793799558E8 ; 1.0895269710971805E8 ; 6.795952055146249E9 ; 0.0
43 ; 2711936.5199907734 ; 2.005147494942813E8 ; 1.116645611154811E8 ; 6.996461853084245E9 ; 0.0
44 ; 2715898.7542356304 ; 2.0051973250431603E8 ; 1.1437649763547187E8 ; 7.196976602578526E9 ; 0.0
45 ; 2715370.495132695 ; 2.0052474450914028E8 ; 1.1709239638970749E8 ; 7.397496335082842E9 ; 0.0
46 ; 2717789.4452172383 ; 2.0052978324232113E8 ; 1.1980776688484019E8 ; 7.598021079591982E9 ; 0.0
47 ; 2719886.9604513748 ; 2.005348466121339E8 ; 1.2252555633005743E8 ; 7.798550862834303E9 ; 0.0
48 ; 2721234.782533847 ; 2.0053993268549144E8 ; 1.252454432905088E8 ; 7.999085709446437E9 ; 0.0
49 ; 2720755.640201726 ; 2.0054503967345557E8 ; 1.2796667807304266E8 ; 8.199625642131928E9 ; 0.0
50 ; 2723903.0829891143 ; 2.0055016591817638E8 ; 1.306874337132444E8 ; 8.400170681805384E9 ; 0.0
51 ; 2723369.1181829157 ; 2.0055530988111815E8 ; 1.334113367962335E8 ; 8.60072084772356E9 ; 0.0
52 ; 2724577.4698573053 ; 2.0056047013244215E8 ; 1.3613470591441643E8 ; 8.80127615760468E9 ; 0.0
53 ; 2725356.039155137 ; 2.0056564534142902E8 ; 1.3885928338427374E8 ; 9.001836627737122E9 ; 0.0
54 ; 2725120.1125431517 ; 2.005708342678347E8 ; 1.4158463942342886E8 ; 9.20240227307855E9 ; 0.0
55 ; 2726745.726644757 ; 2.00576035754084E8 ; 1.4430975953597203E8 ; 9.402973107346386E9 ; 0.0
56 ; 2726904.9283255907 ; 2.0058124871821558E8 ; 1.4703650526261678E8 ; 9.60354914310047E9 ; 0.0
57 ; 2727583.6141288136 ; 2.0058647214750165E8 ; 1.4976341019094238E8 ; 9.804130391818686E9 ; 0.0
58 ; 2728602.4003988067 ; 2.0059170509267265E8 ; 1.524909938050712E8 ; 1.0004716863966187E10 ; 0.0
59 ; 2729499.523216142 ; 2.005969466626852E8 ; 1.5521959620547003E8 ; 1.0205308569058859E10 ; 0.0
60 ; 2728655.0221229666 ; 2.0060219601997826E8 ; 1.5794909572868615E8 ; 1.0405905515721544E10 ; 0.0
61 ; 2728166.125402941 ; 2.0060745237616748E8 ; 1.6067775075080913E8 ; 1.0606507711741522E10 ; 0.0
62 ; 2729424.696226504 ; 2.0061271498813382E8 ; 1.6340591687621206E8 ; 1.080711516411769E10 ; 0.0
63 ; 2730990.138996146 ; 2.006179831544671E8 ; 1.6613534157243857E8 ; 1.1007727879105824E10 ; 0.0
64 ; 2730589.644426214 ; 2.0062325621222857E8 ; 1.6886633171143472E8 ; 1.120834586226029E10 ; 0.0
65 ; 2731202.852043912 ; 2.0062853353400162E8 ; 1.7159692135586095E8 ; 1.1408969118472519E10 ; 0.0
66 ; 2731167.6131653637 ; 2.0063381452520183E8 ; 1.7432812420790488E8 ; 1.1609597652006521E10 ; 0.0
67 ; 2732175.319144474 ; 2.0063909862162155E8 ; 1.7705929182107025E8 ; 1.1810231466531723E10 ; 0.0
68 ; 2733475.3037835774 ; 2.006443852871859E8 ; 1.7979146714021474E8 ; 1.2010870565153345E10 ; 0.0
69 ; 2732612.5260177623 ; 2.0064967401190037E8 ; 1.825249424439983E8 ; 1.221151495044053E10 ; 0.0
70 ; 2732665.2329891003 ; 2.0065496430997163E8 ; 1.8525755497001606E8 ; 1.241216462445243E10 ; 0.0
71 ; 2733809.556521755 ; 2.0066025571808535E8 ; 1.8799022020300516E8 ; 1.2612819588762402E10 ; 0.0
72 ; 2732457.127405551 ; 2.0066554779382622E8 ; 1.907240297595269E8 ; 1.2813479844480488E10 ; 0.0
73 ; 2734261.5378753752 ; 2.0067084011422735E8 ; 1.9345648688693246E8 ; 1.3014145392274315E10 ; 0.0
74 ; 2733372.9042027644 ; 2.0067613227443692E8 ; 1.9619074842480785E8 ; 1.3214816232388542E10 ; 0.0
75 ; 2733905.724803445 ; 2.0068142388649157E8 ; 1.989241213290106E8 ; 1.341549236466298E10 ; 0.0
76 ; 2734505.5403981423 ; 2.00686714578187E8 ; 2.0165802705381405E8 ; 1.361617378854947E10 ; 0.0
77 ; 2732387.0528041204 ; 2.0069200399203715E8 ; 2.043925325942122E8 ; 1.3816860503127659E10 ; 0.0
78 ; 2733715.3006418264 ; 2.0069729178431392E8 ; 2.0712491964701632E8 ; 1.4017552507119696E10 ; 0.0
79 ; 2732642.1842868407 ; 2.007025776241608E8 ; 2.0985863494765815E8 ; 1.4218249798904009E10 ; 0.0
80 ; 2731951.2746762335 ; 2.007078611927736E8 ; 2.1259127713194498E8 ; 1.441895237652817E10 ; 0.0
81 ; 2730680.3532319735 ; 2.007131421826431E8 ; 2.1532322840662122E8 ; 1.4619660237720943E10 ; 0.0
82 ; 2728788.4670694037 ; 2.007184202968534E8 ; 2.1805390875985318E8 ; 1.4820373379903587E10 ; 0.0
83 ; 2729031.0294638975 ; 2.0072369524843284E8 ; 2.207826972269226E8 ; 1.5021091800200441E10 ; 0.0
84 ; 2727293.625945144 ; 2.0072896675975138E8 ; 2.235117282563865E8 ; 1.5221815495448874E10 ; 0.0
85 ; 2727489.9954601224 ; 2.0073423456196186E8 ; 2.2623902188233164E8 ; 1.5422544462208626E10 ; 0.0
86 ; 2728513.75650249 ; 2.0073949839448118E8 ; 2.2896651187779176E8 ; 1.5623278696770588E10 ; 0.0
87 ; 2725233.5578439883 ; 2.0074475800450793E8 ; 2.3169502563429424E8 ; 1.582401819516507E10 ; 0.0
88 ; 2724092.6967874346 ; 2.0075001314657408E8 ; 2.3442025919213822E8 ; 1.6024762953169577E10 ; 0.0
89 ; 2723088.1581648057 ; 2.0075526358212742E8 ; 2.3714435188892567E8 ; 1.622551296631615E10 ; 0.0
90 ; 2721646.7945369226 ; 2.0076050907914302E8 ; 2.3986744004709047E8 ; 1.6426268229898277E10 ; 0.0
91 ; 2721348.8702559895 ; 2.0076574941176063E8 ; 2.425890868416274E8 ; 1.662702873897742E10 ; 0.0
92 ; 2719874.1779299984 ; 2.0077098435994703E8 ; 2.4531043571188337E8 ; 1.6827794488389181E10 ; 0.0
93 ; 2718279.64183971 ; 2.0077621370918044E8 ; 2.4803030988981336E8 ; 1.7028565472749128E10 ; 0.0
94 ; 2718348.4871549834 ; 2.007814372501561E8 ; 2.5074858953165308E8 ; 1.722934168645831E10 ; 0.0
95 ; 2715416.3577881167 ; 2.0078665477851075E8 ; 2.5346693801880807E8 ; 1.7430123123708466E10 ; 0.0
96 ; 2714028.268532207 ; 2.0079186609456542E8 ; 2.5618235437659618E8 ; 1.7630909778486977E10 ; 0.0
97 ; 2713691.4753028993 ; 2.0079707100308436E8 ; 2.588963826451284E8 ; 1.7831701644581543E10 ; 0.0
98 ; 2712765.3564952477 ; 2.008022693130495E8 ; 2.616100741204313E8 ; 1.803249871558463E10 ; 0.0
99 ; 2710699.912772105 ; 2.0080746083744904E8 ; 2.6432283947692657E8 ; 1.823330098489768E10 ; 0.0
100 ; 2709561.924581512 ; 2.008126453930795E8 ; 2.6703353938969868E8 ; 1.8434108445735126E10 ; 0.0
101 ; 2708756.637078686 ; 2.0081782280035955E8 ; 2.697431013142802E8 ; 1.8634921091128204E10 ; 0.0
102 ; 2705410.1707920567 ; 2.008229928831558E8 ; 2.724518579513589E8 ; 1.8835738913928562E10 ; 0.0
103 ; 2706072.941845834 ; 2.0082815546861887E8 ; 2.7515726812215096E8 ; 1.9036561906811718E10 ; 0.0
104 ; 2704221.2484114873 ; 2.0083331038702947E8 ; 2.778633410639968E8 ; 1.923739006228034E10 ; 0.0
105 ; 2703047.1798431487 ; 2.008384574716537E8 ; 2.8056756231240827E8 ; 1.9438223372667366E10 ; 0.0
106 ; 2700529.597188563 ; 2.008435965586068E8 ; 2.832706094922514E8 ; 1.963906183013902E10 ; 0.0
107 ; 2699536.633758463 ; 2.008487274867253E8 ; 2.8597113908944E8 ; 1.9839905426697624E10 ; 0.0
108 ; 2699979.5098918667 ; 2.0085385009744605E8 ; 2.886706757231985E8 ; 2.004075415418435E10 ; 0.0
109 ; 2696108.8480962557 ; 2.0085896423469284E8 ; 2.9137065523309034E8 ; 2.0241608004281796E10 ; 0.0
110 ; 2694968.842780165 ; 2.0086406974476916E8 ; 2.940667640811866E8 ; 2.0442466968516487E10 ; 0.0
111 ; 2693309.8290781374 ; 2.0086916647625723E8 ; 2.9676173292396677E8 ; 2.0643331038261257E10 ; 0.0
112 ; 2691722.5661736275 ; 2.0087425427992272E8 ; 2.994550427530449E8 ; 2.0844200204737514E10 ; 0.0
113 ; 2688767.212749768 ; 2.0087933300862476E8 ; 3.021467653192185E8 ; 2.1045074459017437E10 ; 0.0
114 ; 2687254.314288123 ; 2.0088440251723108E8 ; 3.048355325319683E8 ; 2.1245953792026062E10 ; 0.0
115 ; 2685902.62834134 ; 2.0088946266253775E8 ; 3.0752278684625643E8 ; 2.1446838194543293E10 ; 0.0
116 ; 2685374.32185969 ; 2.008945133031934E8 ; 3.1020868947459775E8 ; 2.164772765720583E10 ; 0.0
117 ; 2682431.917338017 ; 2.008995542996274E8 ; 3.1289406379645747E8 ; 2.184862217050902E10 ; 0.0
118 ; 2681078.537283585 ; 2.0090458551398227E8 ; 3.155764957137955E8 ; 2.204952172480865E10 ; 0.0
119 ; 2678689.906604432 ; 2.009096068100493E8 ; 3.182575742510791E8 ; 2.225042631032263E10 ; 0.0
120 ; 2677040.1480012233 ; 2.0091461805320796E8 ; 3.209362641576835E8 ; 2.2451335917132683E10 ; 0.0
121 ; 2675173.0928400536 ; 2.0091961911036843E8 ; 3.236133043056847E8 ; 2.265225053518589E10 ; 0.0
122 ; 2673826.6795717105 ; 2.009246098499169E8 ; 3.2628847739852476E8 ; 2.2853170154296257E10 ; 0.0
123 ; 2670820.557466509 ; 2.0092959014166418E8 ; 3.2896230407809645E8 ; 2.3054094764146175E10 ; 0.0
124 ; 2669673.899830694 ; 2.009345598567966E8 ; 3.3163312463556296E8 ; 2.3255024354287838E10 ; 0.0
125 ; 2666235.4689475787 ; 2.0093951886782965E8 ; 3.3430279853539366E8 ; 2.3455958914144634E10 ; 0.0
126 ; 2664495.9466431458 ; 2.0094446704856402E8 ; 3.3696903400434124E8 ; 2.3656898433012463E10 ; 0.0
127 ; 2662684.297477119 ; 2.009494042740437E8 ; 3.396335299509844E8 ; 2.3857842900061028E10 ; 0.0
128 ; 2661224.7945283367 ; 2.0095433042051643E8 ; 3.4229621424846154E8 ; 2.405879230433507E10 ; 0.0
129 ; 2658405.632685085 ; 2.009592453653959E8 ; 3.449574390429899E8 ; 2.425974663475559E10 ; 0.0
130 ; 2656341.064122124 ; 2.009641489872262E8 ; 3.47615844675675E8 ; 2.4460705880120983E10 ; 0.0
131 ; 2653187.9115154115 ; 2.009690411656476E8 ; 3.502721857397971E8 ; 2.4661670029108208E10 ; 0.0
132 ; 2648724.8770130235 ; 2.0097392178136447E8 ; 3.5292537365131253E8 ; 2.4862639070273857E10 ; 0.0
133 ; 2645589.501650456 ; 2.0097879071611443E8 ; 3.5557409852832556E8 ; 2.506361299205522E10 ; 0.0
134 ; 2645416.9748236346 ; 2.0098364785263932E8 ; 3.58219688029976E8 ; 2.5264591782771336E10 ; 0.0
135 ; 2641893.4420766714 ; 2.009884930746572E8 ; 3.6086510500479966E8 ; 2.5465575430623974E10 ; 0.0
136 ; 2638087.4951114384 ; 2.0099332626683626E8 ; 3.6350699844687635E8 ; 2.566656392369863E10 ; 0.0
137 ; 2634521.0410613497 ; 2.0099814731476933E8 ; 3.661450859419878E8 ; 2.586755724996547E10 ; 0.0
138 ; 2631198.697498354 ; 2.010029561049503E8 ; 3.6877960698304915E8 ; 2.606855539728024E10 ; 0.0
139 ; 2628265.626545652 ; 2.0100775252475122E8 ; 3.7141080568054754E8 ; 2.626955835338519E10 ; 0.0
140 ; 2625910.086512763 ; 2.010125364624005E8 ; 3.740390713070932E8 ; 2.647056610590994E10 ; 0.0
141 ; 2622813.201382126 ; 2.0101730780696243E8 ; 3.7666498139360595E8 ; 2.667157864237234E10 ; 0.0
142 ; 2619334.895709825 ; 2.010220664483175E8 ; 3.7928779459498805E8 ; 2.6872595950179302E10 ; 0.0
143 ; 2616883.9516402395 ; 2.010268122771436E8 ; 3.8190712949069786E8 ; 2.707361801662762E10 ; 0.0
144 ; 2612375.3407845874 ; 2.0103154518489817E8 ; 3.845240134423381E8 ; 2.7274644828904766E10 ; 0.0
145 ; 2609286.6271515656 ; 2.0103626506380132E8 ; 3.871363887831227E8 ; 2.7475676374089664E10 ; 0.0
146 ; 2606062.566197116 ; 2.0104097180681938E8 ; 3.8974567541027427E8 ; 2.7676712639153465E10 ; 0.0
147 ; 2604776.8758713873 ; 2.0104566530764967E8 ; 3.9235173797647136E8 ; 2.7877753610960285E10 ; 0.0
148 ; 2604184.138247782 ; 2.010503454607056E8 ; 3.949565148523427E8 ; 2.8078799276267937E10 ; 0.0
149 ; 2601813.380004468 ; 2.0105501216110277E8 ; 3.975606989905905E8 ; 2.827984962172864E10 ; 0.0
150 ; 2597952.161279225 ; 2.0105966530464536E8 ; 4.00162512370595E8 ; 2.8480904633889744E10 ; 0.0
151 ; 2596451.9055760046 ; 2.0106430478781357E8 ; 4.027604645318742E8 ; 2.868196429919439E10 ; 0.0
152 ; 2594054.7070118496 ; 2.0106893050775126E8 ; 4.053569164374502E8 ; 2.8883028603982204E10 ; 0.0
153 ; 2589670.312325204 ; 2.0107354236225438E8 ; 4.0795097114446205E8 ; 2.9084097534489956E10 ; 0.0
154 ; 2588968.763493043 ; 2.010781402497599E8 ; 4.105406414567872E8 ; 2.928517107685221E10 ; 0.0
155 ; 2587602.2819276643 ; 2.0108272406933522E8 ; 4.131296102202803E8 ; 2.948624921710197E10 ; 0.0
156 ; 2584755.582495244 ; 2.0108729372066802E8 ; 4.1571721250220793E8 ; 2.9687331941171307E10 ; 0.0
157 ; 2581985.5390215144 ; 2.0109184910405657E8 ; 4.183019680847032E8 ; 2.9888419234891975E10 ; 0.0
158 ; 2579289.7650536946 ; 2.0109639012040076E8 ; 4.208839536237247E8 ; 3.0089511083996033E10 ; 0.0
159 ; 2577270.6528107333 ; 2.0110091667119306E8 ; 4.234632433887784E8 ; 3.0290607474116432E10 ; 0.0
160 ; 2575034.0108813285 ; 2.0110542865851033E8 ; 4.2604051404158914E8 ; 3.0491708390787624E10 ; 0.0
161 ; 2571919.885106613 ; 2.0110992598500568E8 ; 4.2861554805247045E8 ; 3.0692813819446136E10 ; 0.0
162 ; 2569049.7725681164 ; 2.01114408553901E8 ; 4.3118746793757707E8 ; 3.089392374543114E10 ; 0.0
163 ; 2567684.1653742716 ; 2.0111887626897955E8 ; 4.337565177101452E8 ; 3.1095038153985043E10 ; 0.0
164 ; 2564425.111836237 ; 2.0112332903457916E8 ; 4.3632420187551945E8 ; 3.129615703025402E10 ; 0.0
165 ; 2560809.797973947 ; 2.0112776675558543E8 ; 4.388886269873557E8 ; 3.14972803592886E10 ; 0.0
166 ; 2558918.1318691764 ; 2.011321893374256E8 ; 4.4144943678532964E8 ; 3.1698408126044186E10 ; 0.0
167 ; 2556197.397378676 ; 2.0113659668606234E8 ; 4.4400835491719884E8 ; 3.189954031538161E10 ; 0.0
168 ; 2553887.781301433 ; 2.011409887079881E8 ; 4.465645523145775E8 ; 3.2100676912067673E10 ; 0.0
169 ; 2551527.482782666 ; 2.0114536531021976E8 ; 4.4911844009587896E8 ; 3.230181790077566E10 ; 0.0
170 ; 2548137.0030783243 ; 2.0114972640029305E8 ; 4.516699675786616E8 ; 3.250296326608588E10 ; 0.0
171 ; 2545120.134445855 ; 2.0115407188625792E8 ; 4.5421810458173996E8 ; 3.270411299248617E10 ; 0.0
172 ; 2543543.090782853 ; 2.011584016766736E8 ; 4.567632247161858E8 ; 3.290526706437243E10 ; 0.0
173 ; 2541741.380181817 ; 2.0116271568060407E8 ; 4.593067678069687E8 ; 3.3106425466049103E10 ; 0.0
174 ; 2539040.3711287146 ; 2.0116701380761388E8 ; 4.618485091871505E8 ; 3.3307588181729706E10 ; 0.0
175 ; 2538632.08168255 ; 2.0117129596776387E8 ; 4.643875495582792E8 ; 3.350875519553732E10 ; 0.0
176 ; 2535694.582945271 ; 2.0117556207160738E8 ; 4.669261816399618E8 ; 3.370992649150508E10 ; 0.0
177 ; 2534814.4273152584 ; 2.011798120301864E8 ; 4.6946187622290707E8 ; 3.3911102053576687E10 ; 0.0
178 ; 2533220.3683426944 ; 2.011840457550282E8 ; 4.719966906502223E8 ; 3.4112281865606873E10 ; 0.0
179 ; 2530649.7507465784 ; 2.011882631581417E8 ; 4.74529911018565E8 ; 3.43134659113619E10 ; 0.0
180 ; 2530522.36042122 ; 2.0119246415201455E8 ; 4.770605607693116E8 ; 3.451465417452004E10 ; 0.0
181 ; 2528098.4465380115 ; 2.0119664864960986E8 ; 4.7959108312973285E8 ; 3.471584663867206E10 ; 0.0
182 ; 2527130.8583164713 ; 2.012008165643633E8 ; 4.821191815762709E8 ; 3.491704328732167E10 ; 0.0
183 ; 2525155.4379077978 ; 2.012049678101805E8 ; 4.8464631243458736E8 ; 3.511824410388603E10 ; 0.0
184 ; 2524389.092763159 ; 2.0120910230143428E8 ; 4.871714678724952E8 ; 3.531944907169621E10 ; 0.0
185 ; 2522362.272842561 ; 2.0121321995296225E8 ; 4.8969585696525836E8 ; 3.552065817399765E10 ; 0.0
186 ; 2520780.538669316 ; 2.0121732068006435E8 ; 4.9221821923810095E8 ; 3.5721871393950615E10 ; 0.0
187 ; 2519259.000287983 ; 2.0122140439850077E8 ; 4.9473899977677023E8 ; 3.592308871463068E10 ; 0.0
188 ; 2517360.5039136647 ; 2.012254710244897E8 ; 4.9725825877705824E8 ; 3.6124310119029175E10 ; 0.0
189 ; 2516112.9280560613 ; 2.012295204747053E8 ; 4.997756192809719E8 ; 3.6325535590053665E10 ; 0.0
190 ; 2515420.646894331 ; 2.0123355266627604E8 ; 5.0229173220902795E8 ; 3.652676511052837E10 ; 0.0
191 ; 2512953.2044951147 ; 2.0123756751678255E8 ; 5.048071528559223E8 ; 3.672799866319465E10 ; 0.0
192 ; 2511747.132842543 ; 2.0124156494425622E8 ; 5.073201060604174E8 ; 3.692923623071143E10 ; 0.0
193 ; 2511056.777781476 ; 2.0124554486717746E8 ; 5.0983185319325995E8 ; 3.713047779565569E10 ; 0.0
194 ; 2509135.1802108716 ; 2.012495072044742E8 ; 5.1234290997104144E8 ; 3.733172334052287E10 ; 0.0
195 ; 2508516.5568098435 ; 2.0125345187552065E8 ; 5.148520451512523E8 ; 3.753297284772735E10 ; 0.0
196 ; 2507061.5994554595 ; 2.012573788001356E8 ; 5.173605617080622E8 ; 3.773422629960287E10 ; 0.0
197 ; 2504390.4370081327 ; 2.0126128789858153E8 ; 5.1986762330751765E8 ; 3.7935483678403E10 ; 0.0
198 ; 2503096.0853476245 ; 2.0126517909156325E8 ; 5.223720137445258E8 ; 3.813674496630158E10 ; 0.0
199 ; 2502061.0783763635 ; 2.012690523002269E8 ; 5.2487510982987344E8 ; 3.833801014539314E10 ; 0.0
