CSV File for the City 1 on Day 238
1 - Minute m 
2 - Power Consumed at minute m 
3 - Power Produced at minute m 
4 - Energy Consumed since the beginning of the day 
5 - Energy Produced since the beginning of the day 
6 - Energy Lost since the beginning of the day on lines starting from the city
 
0 ; 2058081.6462340362 ; 1.0526341829860923E8 ; 0.0 ; 0.0 ; 0.0
1 ; 2079287.1329376458 ; 1.0541470213705152E8 ; 2058081.6462340362 ; 1.0526341829860923E8 ; 0.0
2 ; 2092737.795943367 ; 1.0587486579259995E8 ; 4137368.779171682 ; 2.1067812043566075E8 ; 0.0
3 ; 2116929.968740743 ; 1.0664393080657166E8 ; 6230106.575115049 ; 3.165529862282607E8 ; 0.0
4 ; 2139395.0365937822 ; 1.077219189967488E8 ; 8347036.543855792 ; 4.2319691703483236E8 ; 0.0
5 ; 2169946.129016505 ; 1.0910885183725345E8 ; 1.0486431580449574E7 ; 5.3091883603158116E8 ; 0.0
6 ; 2209593.7385487105 ; 1.1080474970118204E8 ; 1.265637770946608E7 ; 6.400276878688346E8 ; 0.0
7 ; 2259899.8494908093 ; 1.1280963100113595E8 ; 1.486597144801479E7 ; 7.508324375700166E8 ; 0.0
8 ; 2341736.4890132044 ; 1.1512351128991675E8 ; 1.71258712975056E7 ; 8.636420685711526E8 ; 0.0
9 ; 2460637.9127365304 ; 1.1774640240746677E8 ; 1.9467607786518805E7 ; 9.787655798610693E8 ; 0.0
10 ; 2646276.016705148 ; 1.2067831177273238E8 ; 2.1928245699255336E7 ; 1.096511982268536E9 ; 0.0
11 ; 2930604.540306647 ; 1.2391924191363963E8 ; 2.4574521715960484E7 ; 1.2171902940412683E9 ; 0.0
12 ; 3393299.939195041 ; 1.2746919030226246E8 ; 2.750512625626713E7 ; 1.341109535954908E9 ; 0.0
13 ; 3843212.7939548614 ; 1.3132814951965445E8 ; 3.089842619546217E7 ; 1.4685787262571704E9 ; 0.0
14 ; 3898209.067081104 ; 1.354961077258734E8 ; 3.474163898941703E7 ; 1.599906875776825E9 ; 0.0
15 ; 3918810.588338024 ; 1.3997304936811763E8 ; 3.863984805649813E7 ; 1.7354029835026984E9 ; 0.0
16 ; 3941568.318998503 ; 1.4475895603378585E8 ; 4.255865864483616E7 ; 1.875376032870816E9 ; 0.0
17 ; 3966197.3175787404 ; 1.4985380734978154E8 ; 4.650022696383466E7 ; 2.0201349889046018E9 ; 0.0
18 ; 3984836.6312596104 ; 1.5525758184198266E8 ; 5.04664242814134E7 ; 2.1699887962543836E9 ; 0.0
19 ; 4010104.182230285 ; 1.6097025769260707E8 ; 5.445126091267301E7 ; 2.3252463780963664E9 ; 0.0
20 ; 4031691.7418640116 ; 1.669918133603376E8 ; 5.84613650949033E7 ; 2.4862166357889733E9 ; 0.0
21 ; 4055504.6615220346 ; 1.733222280523241E8 ; 6.249305683676731E7 ; 2.653208449149311E9 ; 0.0
22 ; 4075106.477046686 ; 1.7996148205517507E8 ; 6.654856149828935E7 ; 2.8265306772016354E9 ; 0.0
23 ; 4101433.0387244937 ; 1.8690955694302267E8 ; 7.062366797533603E7 ; 3.00649215925681E9 ; 0.0
24 ; 4122621.8078401927 ; 1.941664356856447E8 ; 7.472510101406053E7 ; 3.193401716199833E9 ; 0.0
25 ; 4143947.1388672213 ; 2.004201435783243E8 ; 7.884772282190073E7 ; 3.3875681518854775E9 ; 0.0
26 ; 4169243.0056714816 ; 2.0042421425532004E8 ; 8.299166996076794E7 ; 3.587988295463802E9 ; 0.0
27 ; 4192797.5012480435 ; 2.0042840415415725E8 ; 8.716091296643943E7 ; 3.788412509719122E9 ; 0.0
28 ; 4216184.36464128 ; 2.004327016787694E8 ; 9.135371046768747E7 ; 3.988840913873279E9 ; 0.0
29 ; 4239174.522759115 ; 2.0043709639675033E8 ; 9.556989483232875E7 ; 4.1892736155520487E9 ; 0.0
30 ; 4255090.192159966 ; 2.0044157893865737E8 ; 9.980906935508786E7 ; 4.389710711948799E9 ; 0.0
31 ; 4283663.195186238 ; 2.0044614089785907E8 ; 1.0406415954724783E8 ; 4.590152290887457E9 ; 0.0
32 ; 4302668.018035662 ; 2.0045077473432922E8 ; 1.0834782274243407E8 ; 4.7905984317853155E9 ; 0.0
33 ; 4320737.307765359 ; 2.0045547368442726E8 ; 1.1265049076046973E8 ; 4.991049206519645E9 ; 0.0
34 ; 4343297.030886686 ; 2.0046023167773616E8 ; 1.169712280682351E8 ; 5.191504680204072E9 ; 0.0
35 ; 4357655.243024096 ; 2.0046504326136425E8 ; 1.2131452509912178E8 ; 5.391964911881808E9 ; 0.0
36 ; 4381873.869492087 ; 2.0046990353167823E8 ; 1.2567218034214588E8 ; 5.592429955143172E9 ; 0.0
37 ; 4395120.220653769 ; 2.0047480807315964E8 ; 1.3005405421163796E8 ; 5.79289985867485E9 ; 0.0
38 ; 4412323.021685795 ; 2.0047975290391856E8 ; 1.3444917443229172E8 ; 5.99337466674801E9 ; 0.0
39 ; 4437884.294296716 ; 2.004847344273181E8 ; 1.3886149745397753E8 ; 6.193854419651928E9 ; 0.0
40 ; 4446451.118134088 ; 2.0048974938913524E8 ; 1.4329938174827424E8 ; 6.3943391540792465E9 ; 0.0
41 ; 4464206.942278326 ; 2.0049479483969155E8 ; 1.4774583286640832E8 ; 6.594828903468382E9 ; 0.0
42 ; 4482318.467470191 ; 2.0049986810041294E8 ; 1.5221003980868664E8 ; 6.795323698308073E9 ; 0.0
43 ; 4499055.378286549 ; 2.0050496673431668E8 ; 1.5669235827615684E8 ; 6.995823566408486E9 ; 0.0
44 ; 4512077.803245223 ; 2.0051008851996762E8 ; 1.6119141365444338E8 ; 7.196328533142803E9 ; 0.0
45 ; 4527833.014801321 ; 2.005152314284908E8 ; 1.657034914576886E8 ; 7.396838621662771E9 ; 0.0
46 ; 4539075.691813075 ; 2.005203936032712E8 ; 1.7023132447248992E8 ; 7.597353853091262E9 ; 0.0
47 ; 4548110.90059012 ; 2.0052557334201425E8 ; 1.74770400164303E8 ; 7.797874246694533E9 ; 0.0
48 ; 4561759.569714878 ; 2.0053076908087778E8 ; 1.7931851106489313E8 ; 7.998399820036548E9 ; 0.0
49 ; 4567251.605817546 ; 2.005359793804221E8 ; 1.83880270634608E8 ; 8.198930589117426E9 ; 0.0
50 ; 4578825.386045691 ; 2.005412029131552E8 ; 1.8844752224042556E8 ; 8.399466568497848E9 ; 0.0
51 ; 4587112.6206389805 ; 2.0054643845247906E8 ; 1.9302634762647125E8 ; 8.600007771411003E9 ; 0.0
52 ; 4596979.624775 ; 2.005516848628657E8 ; 1.9761346024711022E8 ; 8.800554209863482E9 ; 0.0
53 ; 4604047.736080217 ; 2.0055694109111518E8 ; 2.022104398718852E8 ; 9.001105894726347E9 ; 0.0
54 ; 4611065.601955233 ; 2.0056220615856534E8 ; 2.0681448760796544E8 ; 9.201662835817463E9 ; 0.0
55 ; 4621212.472083139 ; 2.0056747915413976E8 ; 2.1142555320992067E8 ; 9.402225041976028E9 ; 0.0
56 ; 4627737.908392281 ; 2.0057275922813484E8 ; 2.1604676568200383E8 ; 9.602792521130169E9 ; 0.0
57 ; 4634215.443972114 ; 2.0057804558665973E8 ; 2.206745035903961E8 ; 9.803365280358303E9 ; 0.0
58 ; 4646120.766816327 ; 2.005833374866531E8 ; 2.2530871903436822E8 ; 1.0003943325944963E10 ; 0.0
59 ; 4655982.886730917 ; 2.0058863423141038E8 ; 2.2995483980118454E8 ; 1.0204526663431616E10 ; 0.0
60 ; 4661397.054861868 ; 2.00593935166564E8 ; 2.3461082268791544E8 ; 1.0405115297663027E10 ; 0.0
61 ; 4664503.298150993 ; 2.0059923967646486E8 ; 2.3927221974277732E8 ; 1.060570923282959E10 ; 0.0
62 ; 4677307.404811712 ; 2.0060454718092102E8 ; 2.439367230409283E8 ; 1.0806308472506054E10 ; 0.0
63 ; 4683795.954460309 ; 2.006098571322539E8 ; 2.4861403044574E8 ; 1.1006913019686975E10 ; 0.0
64 ; 4692004.93180674 ; 2.006151690126378E8 ; 2.5329782640020034E8 ; 1.120752287681923E10 ; 0.0
65 ; 4695490.206839117 ; 2.006204823316918E8 ; 2.5798983133200708E8 ; 1.1408138045831867E10 ; 0.0
66 ; 4701548.876697796 ; 2.0062579662429765E8 ; 2.626853215388462E8 ; 1.1608758528163559E10 ; 0.0
67 ; 4711986.284960193 ; 2.0063111144861934E8 ; 2.67386870415544E8 ; 1.1809384324787857E10 ; 0.0
68 ; 4715859.818897684 ; 2.0063642638430402E8 ; 2.720988567005042E8 ; 1.2010015436236477E10 ; 0.0
69 ; 4724250.316734778 ; 2.0064174103084517E8 ; 2.7681471651940185E8 ; 1.221065186262078E10 ; 0.0
70 ; 4727362.3214957025 ; 2.0064705500609148E8 ; 2.8153896683613664E8 ; 1.2411293603651627E10 ; 0.0
71 ; 4730124.939806518 ; 2.0065236794488743E8 ; 2.8626632915763235E8 ; 1.2611940658657719E10 ; 0.0
72 ; 4742004.06316548 ; 2.0065767949783164E8 ; 2.909964540974389E8 ; 1.2812593026602606E10 ; 0.0
73 ; 4749142.825069234 ; 2.0066298933014208E8 ; 2.9573845816060436E8 ; 1.3013250706100437E10 ; 0.0
74 ; 4753810.0491548935 ; 2.006682971206175E8 ; 3.004876009856736E8 ; 1.321391369543058E10 ; 0.0
75 ; 4760170.590752533 ; 2.0067360256068602E8 ; 3.052414110348285E8 ; 1.3414581992551197E10 ; 0.0
76 ; 4765696.185984105 ; 2.0067890535353225E8 ; 3.10001581625581E8 ; 1.3615255595111883E10 ; 0.0
77 ; 4771676.450700926 ; 2.0068420521329623E8 ; 3.1476727781156516E8 ; 1.3815934500465416E10 ; 0.0
78 ; 4776890.434363612 ; 2.006895018643368E8 ; 3.195389542622661E8 ; 1.4016618705678713E10 ; 0.0
79 ; 4771586.00052668 ; 2.0069479504055396E8 ; 3.243158446966297E8 ; 1.4217308207543049E10 ; 0.0
80 ; 4768964.388627543 ; 2.0070008448476502E8 ; 3.2908743069715637E8 ; 1.4418003002583603E10 ; 0.0
81 ; 4773851.059175937 ; 2.007053699481291E8 ; 3.338563950857839E8 ; 1.4618703087068367E10 ; 0.0
82 ; 4772747.567297635 ; 2.007106511896162E8 ; 3.386302461449598E8 ; 1.4819408457016497E10 ; 0.0
83 ; 4765770.194395004 ; 2.00715927975517E8 ; 3.4340299371225744E8 ; 1.5020119108206112E10 ; 0.0
84 ; 4771516.059406699 ; 2.007212000789894E8 ; 3.4816876390665245E8 ; 1.522083503618163E10 ; 0.0
85 ; 4768945.787268739 ; 2.0072646727963907E8 ; 3.5294027996605915E8 ; 1.5421556236260618E10 ; 0.0
86 ; 4768684.276475093 ; 2.00731729363131E8 ; 3.577092257533279E8 ; 1.5622282703540257E10 ; 0.0
87 ; 4767726.374575512 ; 2.007369861208293E8 ; 3.62477910029803E8 ; 1.5823014432903387E10 ; 0.0
88 ; 4764919.200778364 ; 2.007422373494633E8 ; 3.672456364043785E8 ; 1.6023751419024216E10 ; 0.0
89 ; 4767782.776004057 ; 2.0074748285081717E8 ; 3.7201055560515684E8 ; 1.6224493656373678E10 ; 0.0
90 ; 4763625.658165429 ; 2.0075272243144172E8 ; 3.767783383811609E8 ; 1.6425241139224495E10 ; 0.0
91 ; 4761965.71701482 ; 2.0075795590238652E8 ; 3.8154196403932637E8 ; 1.6625993861655937E10 ; 0.0
92 ; 4757213.664521121 ; 2.0076318307895032E8 ; 3.863039297563412E8 ; 1.6826751817558323E10 ; 0.0
93 ; 4754719.282018065 ; 2.0076840378044876E8 ; 3.910611434208623E8 ; 1.7027515000637274E10 ; 0.0
94 ; 4759029.918266431 ; 2.0077361782999787E8 ; 3.958158627028804E8 ; 1.722828340441772E10 ; 0.0
95 ; 4749974.680092575 ; 2.00778825054312E8 ; 4.005748926211468E8 ; 1.742905702224772E10 ; 0.0
96 ; 4753308.707661622 ; 2.0078402528351542E8 ; 4.053248673012394E8 ; 1.7629835847302032E10 ; 0.0
97 ; 4748696.512572043 ; 2.0078921835096624E8 ; 4.10078176008901E8 ; 1.783061987258555E10 ; 0.0
98 ; 4746472.163881967 ; 2.007944040930918E8 ; 4.1482687252147305E8 ; 1.8031409090936516E10 ; 0.0
99 ; 4747318.36070647 ; 2.0079958234923476E8 ; 4.19573344685355E8 ; 1.8232203495029606E10 ; 0.0
100 ; 4745353.669731502 ; 2.008047529615092E8 ; 4.2432066304606146E8 ; 1.843300307737884E10 ; 0.0
101 ; 4737485.006529845 ; 2.0080991577466568E8 ; 4.2906601671579295E8 ; 1.863380783034035E10 ; 0.0
102 ; 4733376.765343831 ; 2.0081507063596475E8 ; 4.338035017223228E8 ; 1.8834617746115017E10 ; 0.0
103 ; 4729577.733437833 ; 2.0082021739505872E8 ; 4.3853687848766667E8 ; 1.903543281675098E10 ; 0.0
104 ; 4727263.504254579 ; 2.0082535590388033E8 ; 4.432664562211045E8 ; 1.9236253034146038E10 ; 0.0
105 ; 4727632.765550544 ; 2.0083048601653847E8 ; 4.479937197253591E8 ; 1.943707839004992E10 ; 0.0
106 ; 4721518.4834071 ; 2.008356075892203E8 ; 4.5272135249090964E8 ; 1.9637908876066456E10 ; 0.0
107 ; 4720024.183584763 ; 2.0084072048009902E8 ; 4.574428709743167E8 ; 1.9838744483655678E10 ; 0.0
108 ; 4714836.784667321 ; 2.0084582454924756E8 ; 4.6216289515790147E8 ; 2.0039585204135777E10 ; 0.0
109 ; 4714331.35098924 ; 2.0085091965855694E8 ; 4.668777319425688E8 ; 2.0240431028685024E10 ; 0.0
110 ; 4710453.567063188 ; 2.008560056716598E8 ; 4.71592063293558E8 ; 2.0441281948343582E10 ; 0.0
111 ; 4707107.572413654 ; 2.0086108245385817E8 ; 4.763025168606212E8 ; 2.0642137954015244E10 ; 0.0
112 ; 4700641.765479952 ; 2.0086614987205565E8 ; 4.810096244330349E8 ; 2.08429990364691E10 ; 0.0
113 ; 4694077.064348174 ; 2.0087120779469323E8 ; 4.857102661985148E8 ; 2.1043865186341156E10 ; 0.0
114 ; 4690208.1945963865 ; 2.00876256091689E8 ; 4.90404343262863E8 ; 2.124473639413585E10 ; 0.0
115 ; 4688801.317628154 ; 2.008812946343811E8 ; 4.950945514574594E8 ; 2.144561265022754E10 ; 0.0
116 ; 4684306.705499123 ; 2.0088632329547408E8 ; 4.9978335277508754E8 ; 2.164649394486192E10 ; 0.0
117 ; 4679683.154315001 ; 2.0089134194898808E8 ; 5.0446765948058665E8 ; 2.1847380268157394E10 ; 0.0
118 ; 4668048.9613868315 ; 2.0089635047021097E8 ; 5.0914734263490164E8 ; 2.2048271610106384E10 ; 0.0
119 ; 4667144.612418179 ; 2.0090134873565295E8 ; 5.138153915962885E8 ; 2.2249167960576595E10 ; 0.0
120 ; 4661617.93599024 ; 2.0090633662300393E8 ; 5.184825362087067E8 ; 2.245006930931225E10 ; 0.0
121 ; 4656130.712241037 ; 2.0091131401109284E8 ; 5.231441541446969E8 ; 2.2650975645935253E10 ; 0.0
122 ; 4649830.591890374 ; 2.0091628077984956E8 ; 5.2780028485693794E8 ; 2.2851886959946346E10 ; 0.0
123 ; 4640008.963261133 ; 2.0092123681026858E8 ; 5.3245011544882834E8 ; 2.3052803240726196E10 ; 0.0
124 ; 4637994.093163641 ; 2.0092618198437476E8 ; 5.370901244120895E8 ; 2.3253724477536465E10 ; 0.0
125 ; 4634807.550464144 ; 2.0093111618519083E8 ; 5.417281185052531E8 ; 2.345465065952084E10 ; 0.0
126 ; 4621256.697961462 ; 2.0093603929670674E8 ; 5.463629260557172E8 ; 2.365558177570603E10 ; 0.0
127 ; 4617883.680432272 ; 2.0094095120385036E8 ; 5.509841827536787E8 ; 2.385651781500274E10 ; 0.0
128 ; 4617477.520367754 ; 2.0094585179246014E8 ; 5.55602066434111E8 ; 2.405745876620659E10 ; 0.0
129 ; 4607388.892826566 ; 2.0095074094925866E8 ; 5.602195439544787E8 ; 2.425840461799905E10 ; 0.0
130 ; 4597197.194500146 ; 2.0095561856182802E8 ; 5.648269328473053E8 ; 2.4459355358948307E10 ; 0.0
131 ; 4586839.820775015 ; 2.009604845185862E8 ; 5.694241300418054E8 ; 2.4660310977510136E10 ; 0.0
132 ; 4577004.100720603 ; 2.009653387087648E8 ; 5.740109698625804E8 ; 2.486127146202872E10 ; 0.0
133 ; 4562791.148024297 ; 2.0097018102238786E8 ; 5.785879739633011E8 ; 2.5062236800737484E10 ; 0.0
134 ; 4552320.936048913 ; 2.0097501135025167E8 ; 5.831507651113254E8 ; 2.5263206981759872E10 ; 0.0
135 ; 4536256.355428 ; 2.0097982958390582E8 ; 5.877030860473742E8 ; 2.5464181993110123E10 ; 0.0
136 ; 4525264.67648579 ; 2.0098463561563492E8 ; 5.922393424028022E8 ; 2.5665161822694027E10 ; 0.0
137 ; 4508964.387123582 ; 2.009894293384415E8 ; 5.96764607079288E8 ; 2.586614645830966E10 ; 0.0
138 ; 4499710.244855436 ; 2.0099421064602962E8 ; 6.012735714664116E8 ; 2.60671358876481E10 ; 0.0
139 ; 4489584.007390602 ; 2.0099897943278942E8 ; 6.05773281711267E8 ; 2.6268130098294132E10 ; 0.0
140 ; 4470305.774733143 ; 2.0100373559378222E8 ; 6.102628657186576E8 ; 2.646912907772692E10 ; 0.0
141 ; 4463753.40273009 ; 2.0100847902472657E8 ; 6.147331714933908E8 ; 2.66701328133207E10 ; 0.0
142 ; 4449512.260774878 ; 2.0101320962198505E8 ; 6.191969248961209E8 ; 2.687114129234543E10 ; 0.0
143 ; 4428672.289263127 ; 2.0101792728255132E8 ; 6.236464371568958E8 ; 2.7072154501967415E10 ; 0.0
144 ; 4416864.573954177 ; 2.0102263190403834E8 ; 6.280751094461589E8 ; 2.7273172429249966E10 ; 0.0
145 ; 4417322.45125011 ; 2.010273233846668E8 ; 6.324919740201131E8 ; 2.7474195061154003E10 ; 0.0
146 ; 4407602.744368109 ; 2.0103200162325427E8 ; 6.369092964713632E8 ; 2.767522238453867E10 ; 0.0
147 ; 4399283.387827094 ; 2.0103666651920483E8 ; 6.413168992157313E8 ; 2.7876254386161922E10 ; 0.0
148 ; 4391069.030301956 ; 2.0104131797249928E8 ; 6.457161826035583E8 ; 2.8077291052681126E10 ; 0.0
149 ; 4389559.035990064 ; 2.0104595588368568E8 ; 6.501072516338602E8 ; 2.8278332370653625E10 ; 0.0
150 ; 4381444.812478987 ; 2.0105058015387055E8 ; 6.544968106698503E8 ; 2.847937832653731E10 ; 0.0
151 ; 4375154.835504605 ; 2.010551906847104E8 ; 6.588782554823294E8 ; 2.868042890669118E10 ; 0.0
152 ; 4366571.164255684 ; 2.0105978737840372E8 ; 6.63253410317834E8 ; 2.8881484097375893E10 ; 0.0
153 ; 4357533.738474105 ; 2.0106437013768312E8 ; 6.676199814820898E8 ; 2.9082543884754295E10 ; 0.0
154 ; 4356039.54538061 ; 2.0106893886580834E8 ; 6.719775152205639E8 ; 2.928360825489198E10 ; 0.0
155 ; 4350075.894861184 ; 2.0107349346655917E8 ; 6.763335547659445E8 ; 2.9484677193757786E10 ; 0.0
156 ; 4337626.250027334 ; 2.0107803384422895E8 ; 6.806836306608057E8 ; 2.9685750687224346E10 ; 0.0
157 ; 4329620.442071772 ; 2.0108255990361822E8 ; 6.85021256910833E8 ; 2.9886828721068577E10 ; 0.0
158 ; 4324640.784667271 ; 2.010870715500289E8 ; 6.893508773529048E8 ; 3.0087911280972195E10 ; 0.0
159 ; 4317475.970790959 ; 2.0109156868925855E8 ; 6.93675518137572E8 ; 3.0288998352522224E10 ; 0.0
160 ; 4310327.490256035 ; 2.0109605122759515E8 ; 6.97992994108363E8 ; 3.0490089921211483E10 ; 0.0
161 ; 4302532.403017544 ; 2.0110051907181177E8 ; 7.023033215986191E8 ; 3.069118597243908E10 ; 0.0
162 ; 4296595.993108519 ; 2.01104972129162E8 ; 7.066058540016366E8 ; 3.089228649151089E10 ; 0.0
163 ; 4293424.017378366 ; 2.0110941030737516E8 ; 7.109024499947451E8 ; 3.1093391463640053E10 ; 0.0
164 ; 4284699.70118912 ; 2.01113833514652E8 ; 7.151958740121235E8 ; 3.129450087394743E10 ; 0.0
165 ; 4277007.630631833 ; 2.011182416596606E8 ; 7.194805737133126E8 ; 3.1495614707462082E10 ; 0.0
166 ; 4272607.518870429 ; 2.0112263465153238E8 ; 7.237575813439444E8 ; 3.1696732949121742E10 ; 0.0
167 ; 4262758.7516428605 ; 2.0112701239985844E8 ; 7.280301888628149E8 ; 3.1897855583773273E10 ; 0.0
168 ; 4259686.128215123 ; 2.0113137481468597E8 ; 7.322929476144577E8 ; 3.209898259617313E10 ; 0.0
169 ; 4252043.235579173 ; 2.0113572180651492E8 ; 7.365526337426728E8 ; 3.2300113970987816E10 ; 0.0
170 ; 4243035.690010682 ; 2.0114005328629494E8 ; 7.408046769782519E8 ; 3.250124969279433E10 ; 0.0
171 ; 4239545.227740409 ; 2.0114436916542214E8 ; 7.450477126682626E8 ; 3.2702389746080627E10 ; 0.0
172 ; 4230499.2150377715 ; 2.0114866935573652E8 ; 7.49287257896003E8 ; 3.2903534115246048E10 ; 0.0
173 ; 4221759.155861657 ; 2.011529537695191E8 ; 7.535177571110408E8 ; 3.3104682784601784E10 ; 0.0
174 ; 4220886.301657177 ; 2.011572223194895E8 ; 7.577395162669024E8 ; 3.3305835738371304E10 ; 0.0
175 ; 4210115.714391999 ; 2.0116147491880345E8 ; 7.619604025685596E8 ; 3.3506992960690792E10 ; 0.0
176 ; 4202793.124984975 ; 2.0116571148105064E8 ; 7.661705182829516E8 ; 3.3708154435609596E10 ; 0.0
177 ; 4203106.2253871625 ; 2.0116993192025247E8 ; 7.703733114079366E8 ; 3.390932014709065E10 ; 0.0
178 ; 4192981.32133765 ; 2.011741361508601E8 ; 7.745764176333238E8 ; 3.4110490079010902E10 ; 0.0
179 ; 4190033.3392679878 ; 2.0117832408775264E8 ; 7.787693989546615E8 ; 3.4311664215161762E10 ; 0.0
180 ; 4182776.6813953174 ; 2.0118249564623523E8 ; 7.829594322939295E8 ; 3.451284253924951E10 ; 0.0
181 ; 4179601.5965666138 ; 2.011866507420375E8 ; 7.871422089753247E8 ; 3.4714025034895744E10 ; 0.0
182 ; 4174678.739906081 ; 2.011907892913119E8 ; 7.913218105718913E8 ; 3.491521168563778E10 ; 0.0
183 ; 4169010.680710622 ; 2.0119491121063232E8 ; 7.954964893117974E8 ; 3.511640247492909E10 ; 0.0
184 ; 4171136.741658939 ; 2.0119901641699275E8 ; 7.99665499992508E8 ; 3.5317597386139725E10 ; 0.0
185 ; 4160815.5228311247 ; 2.0120310482780588E8 ; 8.03836636734167E8 ; 3.551879640255672E10 ; 0.0
186 ; 4155131.5334092816 ; 2.01207176360902E8 ; 8.079974522569981E8 ; 3.571999950738452E10 ; 0.0
187 ; 4153190.1571477307 ; 2.0121123093452793E8 ; 8.121525837904073E8 ; 3.592120668374542E10 ; 0.0
188 ; 4147211.4463762143 ; 2.0121526846734586E8 ; 8.163057739475551E8 ; 3.612241791467995E10 ; 0.0
189 ; 4142925.9449669244 ; 2.0121928887843254E8 ; 8.204529853939313E8 ; 3.632363318314729E10 ; 0.0
190 ; 4134084.3227852695 ; 2.0122329208727837E8 ; 8.245959113388982E8 ; 3.652485247202573E10 ; 0.0
191 ; 4132148.8960856483 ; 2.0122727801378655E8 ; 8.287299956616834E8 ; 3.672607576411301E10 ; 0.0
192 ; 4126351.3319046176 ; 2.012312465782724E8 ; 8.328621445577691E8 ; 3.692730304212679E10 ; 0.0
193 ; 4121984.0924744764 ; 2.0123519770146266E8 ; 8.369884958896737E8 ; 3.712853428870506E10 ; 0.0
194 ; 4116483.161835496 ; 2.012391313044949E8 ; 8.411104799821482E8 ; 3.7329769486406525E10 ; 0.0
195 ; 4109719.773943411 ; 2.012430473089169E8 ; 8.452269631439837E8 ; 3.753100861771102E10 ; 0.0
196 ; 4106329.0662506907 ; 2.0124694563668627E8 ; 8.493366829179271E8 ; 3.7732251665019936E10 ; 0.0
197 ; 4100048.183368227 ; 2.0125082621017E8 ; 8.534430119841778E8 ; 3.7933498610656624E10 ; 0.0
198 ; 4097197.282648969 ; 2.0125468895214397E8 ; 8.57543060167546E8 ; 3.813474943686679E10 ; 0.0
199 ; 4090900.2944929875 ; 2.0125853378579268E8 ; 8.61640257450195E8 ; 3.833600412581893E10 ; 0.0
200 ; 4088235.6708927634 ; 2.01262360634709E8 ; 8.657311577446879E8 ; 3.853726265960472E10 ; 0.0
201 ; 4078096.668831684 ; 2.012661694228939E8 ; 8.698193934155806E8 ; 3.873852502023943E10 ; 0.0
