CSV File for the City 4 on Day 18
1 - Minute m 
2 - Power Consumed at minute m 
3 - Power Produced at minute m 
4 - Energy Consumed since the beginning of the day 
5 - Energy Produced since the beginning of the day 
6 - Energy Lost since the beginning of the day on lines starting from the city
 
0 ; 6797502.79099247 ; 1.0536510698358545E8 ; 0.0 ; 0.0 ; 0.0
1 ; 6804231.435619399 ; 1.055080689079178E8 ; 6797502.79099247 ; 1.0536510698358545E8 ; 0.0
2 ; 6812532.729107101 ; 1.0596026483837935E8 ; 1.360173422661187E7 ; 2.1087317589150324E8 ; 0.0
3 ; 6819343.618564066 ; 1.0672180716166133E8 ; 2.041426695571897E7 ; 3.168334407298826E8 ; 0.0
4 ; 6830281.162485312 ; 1.0779282774632204E8 ; 2.7233610574283037E7 ; 4.235552478915439E8 ; 0.0
5 ; 6843421.547060977 ; 1.091734776279844E8 ; 3.406389173676835E7 ; 5.3134807563786596E8 ; 0.0
6 ; 6857356.015754062 ; 1.1086392355812708E8 ; 4.0907313283829324E7 ; 6.405215532658503E8 ; 0.0
7 ; 6881289.848411428 ; 1.1286433985607743E8 ; 4.776466929958338E7 ; 7.513854768239774E8 ; 0.0
8 ; 6917307.273881748 ; 1.1517489452584118E8 ; 5.464595914799481E7 ; 8.642498166800548E8 ; 0.0
9 ; 6966131.787977958 ; 1.177957302874273E8 ; 6.156326642187656E7 ; 9.794247112058959E8 ; 0.0
10 ; 7041529.911869552 ; 1.2072694391955763E8 ; 6.852939820985451E7 ; 1.0972204414933233E9 ; 0.0
11 ; 7165613.1171358 ; 1.2396856979360017E8 ; 7.557092812172407E7 ; 1.217947385412881E9 ; 0.0
12 ; 7362935.987381477 ; 1.2752057353818688E8 ; 8.273654123885986E7 ; 1.341915955206481E9 ; 0.0
13 ; 7553859.617829342 ; 1.3138285837459594E8 ; 9.009947722624134E7 ; 1.4694365287446678E9 ; 0.0
14 ; 7575799.612931066 ; 1.3555528158281845E8 ; 9.765333684407067E7 ; 1.6008193871192636E9 ; 0.0
15 ; 7584408.7531664325 ; 1.4003767515884858E8 ; 1.0522913645700175E8 ; 1.7363746687020822E9 ; 0.0
16 ; 7595747.21098444 ; 1.4482986478335908E8 ; 1.1281354521016818E8 ; 1.8764123438609307E9 ; 0.0
17 ; 7600803.771112098 ; 1.499316837048712E8 ; 1.2040929242115262E8 ; 2.0212422086442897E9 ; 0.0
18 ; 7610085.754738247 ; 1.5534298088776207E8 ; 1.2801009619226472E8 ; 2.171173892349161E9 ; 0.0
19 ; 7619630.502801673 ; 1.6106362446347335E8 ; 1.3562018194700298E8 ; 2.326516873236923E9 ; 0.0
20 ; 7629808.191559007 ; 1.670935020453138E8 ; 1.4323981244980466E8 ; 2.4875804977003965E9 ; 0.0
21 ; 7638218.850831823 ; 1.7343251929385802E8 ; 1.5086962064136368E8 ; 2.6546739997457104E9 ; 0.0
22 ; 7646147.686086545 ; 1.800805977122171E8 ; 1.5850783949219552E8 ; 2.8281065190395684E9 ; 0.0
23 ; 7655635.144962031 ; 1.8703767226333624E8 ; 1.6615398717828205E8 ; 3.0081871167517853E9 ; 0.0
24 ; 7662931.904153994 ; 1.9430368911998713E8 ; 1.738096223232441E8 ; 3.1952247890151215E9 ; 0.0
25 ; 7670239.251999346 ; 2.0056664458007184E8 ; 1.814725542273981E8 ; 3.3895284781351085E9 ; 0.0
26 ; 7682339.14399507 ; 2.0058004942359182E8 ; 1.8914279347939745E8 ; 3.5900951227151804E9 ; 0.0
27 ; 7688508.705010363 ; 2.005936420471824E8 ; 1.9682513262339252E8 ; 3.790675172138772E9 ; 0.0
28 ; 7699070.5246442035 ; 2.0060739657593083E8 ; 2.0451364132840288E8 ; 3.9912688141859546E9 ; 0.0
29 ; 7709018.160700912 ; 2.0062129123727766E8 ; 2.1221271185304707E8 ; 4.1918762107618856E9 ; 0.0
30 ; 7715522.754472076 ; 2.006353076190766E8 ; 2.19921730013748E8 ; 4.392497501999164E9 ; 0.0
31 ; 7721393.586881668 ; 2.0064943007142705E8 ; 2.2763725276822007E8 ; 4.59313280961824E9 ; 0.0
32 ; 7730489.256265619 ; 2.0066364522401673E8 ; 2.3535864635510173E8 ; 4.793782239689668E9 ; 0.0
33 ; 7738277.847462384 ; 2.006779415958545E8 ; 2.4308913561136734E8 ; 4.994445884913685E9 ; 0.0
34 ; 7745987.052793762 ; 2.006923092787772E8 ; 2.5082741345882973E8 ; 5.19512382650954E9 ; 0.0
35 ; 7753386.874179313 ; 2.007067396798808E8 ; 2.585734005116235E8 ; 5.395816135788317E9 ; 0.0
36 ; 7759896.402133526 ; 2.0072122531108895E8 ; 2.663267873858028E8 ; 5.596522875468198E9 ; 0.0
37 ; 7765368.206025738 ; 2.007357596165242E8 ; 2.7408668378793633E8 ; 5.797244100779286E9 ; 0.0
38 ; 7773434.373405137 ; 2.0075033683028945E8 ; 2.8185205199396205E8 ; 5.99797986039581E9 ; 0.0
39 ; 7780665.571072913 ; 2.0076495185880035E8 ; 2.896254863673672E8 ; 6.1987301972261E9 ; 0.0
40 ; 7783294.510544811 ; 2.0077960018301237E8 ; 2.9740615193844014E8 ; 6.3994951490849E9 ; 0.0
41 ; 7793863.98504275 ; 2.0079427777683502E8 ; 3.05189446448985E8 ; 6.600274749267912E9 ; 0.0
42 ; 7796526.994698132 ; 2.0080898103876942E8 ; 3.1298331043402773E8 ; 6.801069027044747E9 ; 0.0
43 ; 7800791.48099527 ; 2.008237067343922E8 ; 3.2077983742872584E8 ; 7.001878008083517E9 ; 0.0
44 ; 7805218.990277359 ; 2.0083845194777283E8 ; 3.2858062890972114E8 ; 7.202701714817909E9 ; 0.0
45 ; 7810253.005307521 ; 2.0085321404027852E8 ; 3.363858478999985E8 ; 7.403540166765682E9 ; 0.0
46 ; 7814008.9687648155 ; 2.0086799061551222E8 ; 3.44196100905306E8 ; 7.604393380805961E9 ; 0.0
47 ; 7814234.20074588 ; 2.00882779489363E8 ; 3.520101098740708E8 ; 7.805261371421473E9 ; 0.0
48 ; 7820175.955688462 ; 2.0089757866433313E8 ; 3.598243440748167E8 ; 8.006144150910835E9 ; 0.0
49 ; 7822649.284420145 ; 2.009123863074573E8 ; 3.676445200305052E8 ; 8.207041729575169E9 ; 0.0
50 ; 7823672.813325997 ; 2.0092720073124868E8 ; 3.754671693149253E8 ; 8.407954115882626E9 ; 0.0
51 ; 7828921.029337832 ; 2.009420203772056E8 ; 3.832908421282513E8 ; 8.608881316613874E9 ; 0.0
52 ; 7829398.551754479 ; 2.0095684380149096E8 ; 3.9111976315758914E8 ; 8.80982333699108E9 ; 0.0
53 ; 7829543.640439321 ; 2.009716696624615E8 ; 3.989491617093436E8 ; 9.01078018079257E9 ; 0.0
54 ; 7830891.340007871 ; 2.009864967097777E8 ; 4.0677870534978294E8 ; 9.211751850455032E9 ; 0.0
55 ; 7834558.552110675 ; 2.0100132377486756E8 ; 4.1460959668979084E8 ; 9.41273834716481E9 ; 0.0
56 ; 7834673.5843512425 ; 2.0101614976255417E8 ; 4.224441552419015E8 ; 9.613739670939678E9 ; 0.0
57 ; 7835427.590457656 ; 2.0103097364368615E8 ; 4.3027882882625276E8 ; 9.814755820702232E9 ; 0.0
58 ; 7839473.89452062 ; 2.010457944486351E8 ; 4.3811425641671044E8 ; 1.0015786794345919E10 ; 0.0
59 ; 7842807.827587171 ; 2.010606112615445E8 ; 4.459537303112311E8 ; 1.0216832588794554E10 ; 0.0
60 ; 7841011.147135113 ; 2.0107542321523115E8 ; 4.5379653813881826E8 ; 1.0417893200056099E10 ; 0.0
61 ; 7845798.660136264 ; 2.010902294866559E8 ; 4.616375492859534E8 ; 1.061896862327133E10 ; 0.0
62 ; 7845804.409109688 ; 2.0110502929289064E8 ; 4.694833479460897E8 ; 1.0820058852757986E10 ; 0.0
63 ; 7847452.777206621 ; 2.011198218875205E8 ; 4.773291523551994E8 ; 1.1021163882050877E10 ; 0.0
64 ; 7846814.256648385 ; 2.0113460655742744E8 ; 4.85176605132406E8 ; 1.1222283703938396E10 ; 0.0
65 ; 7847924.214887036 ; 2.011493826199095E8 ; 4.9302341938905436E8 ; 1.1423418310495825E10 ; 0.0
66 ; 7849831.087513096 ; 2.011641494200958E8 ; 5.008713436039414E8 ; 1.1624567693115734E10 ; 0.0
67 ; 7850725.497203917 ; 2.0117890632862258E8 ; 5.0872117469145447E8 ; 1.182573184253583E10 ; 0.0
68 ; 7852842.620294553 ; 2.0119365273954064E8 ; 5.165719001886584E8 ; 1.2026910748864452E10 ; 0.0
69 ; 7853296.32824439 ; 2.0120838806842762E8 ; 5.24424742808953E8 ; 1.2228104401603992E10 ; 0.0
70 ; 7853810.519105916 ; 2.0122311175068247E8 ; 5.322780391371974E8 ; 1.242931278967242E10 ; 0.0
71 ; 7853844.081484321 ; 2.0123782323998195E8 ; 5.401318496563033E8 ; 1.2630535901423103E10 ; 0.0
72 ; 7854931.83768304 ; 2.0125252200688177E8 ; 5.479856937377876E8 ; 1.2831773724663086E10 ; 0.0
73 ; 7857683.704747613 ; 2.01267207537547E8 ; 5.558406255754707E8 ; 1.3033026246669968E10 ; 0.0
74 ; 7855872.247651776 ; 2.0128187933259758E8 ; 5.636983092802182E8 ; 1.3234293454207514E10 ; 0.0
75 ; 7855275.914548438 ; 2.0129653690605804E8 ; 5.7155418152787E8 ; 1.3435575333540112E10 ; 0.0
76 ; 7857595.124500255 ; 2.0131117978439972E8 ; 5.794094574424185E8 ; 1.3636871870446169E10 ; 0.0
77 ; 7858543.081947963 ; 2.013258075056668E8 ; 5.872670525669187E8 ; 1.3838183050230568E10 ; 0.0
78 ; 7856344.823093443 ; 2.0134041961867756E8 ; 5.951255956488667E8 ; 1.4039508857736235E10 ; 0.0
79 ; 7853610.043530172 ; 2.0135501568229377E8 ; 6.029819404719601E8 ; 1.4240849277354912E10 ; 0.0
80 ; 7848904.808182133 ; 2.0136959526475105E8 ; 6.108355505154903E8 ; 1.4442204293037205E10 ; 0.0
81 ; 7849153.459801037 ; 2.0138415794304502E8 ; 6.186844553236724E8 ; 1.4643573888301956E10 ; 0.0
82 ; 7843929.572920195 ; 2.013987033023676E8 ; 6.265336087834735E8 ; 1.4844958046245E10 ; 0.0
83 ; 7844947.930195834 ; 2.014132309355887E8 ; 6.343775383563937E8 ; 1.5046356749547369E10 ; 0.0
84 ; 7840304.141874354 ; 2.014277404427797E8 ; 6.422224862865895E8 ; 1.5247769980482958E10 ; 0.0
85 ; 7837876.92528364 ; 2.0144223143077415E8 ; 6.500627904284638E8 ; 1.5449197720925737E10 ; 0.0
86 ; 7833107.646361889 ; 2.0145670351276296E8 ; 6.579006673537475E8 ; 1.5650639952356512E10 ; 0.0
87 ; 7832049.841278553 ; 2.0147115630792075E8 ; 6.657337750001094E8 ; 1.5852096655869274E10 ; 0.0
88 ; 7828527.86693136 ; 2.0148558944106066E8 ; 6.73565824841388E8 ; 1.6053567812177195E10 ; 0.0
89 ; 7826864.111616119 ; 2.0150000254231516E8 ; 6.813943527083193E8 ; 1.6255053401618256E10 ; 0.0
90 ; 7821342.799089822 ; 2.015143952468409E8 ; 6.892212168199354E8 ; 1.645655340416057E10 ; 0.0
91 ; 7820981.66657907 ; 2.0152876719454497E8 ; 6.970425596190252E8 ; 1.6658067799407412E10 ; 0.0
92 ; 7816318.743343909 ; 2.0154311802983156E8 ; 7.048635412856044E8 ; 1.6859596566601957E10 ; 0.0
93 ; 7814179.238548943 ; 2.0155744740136656E8 ; 7.126798600289483E8 ; 1.7061139684631788E10 ; 0.0
94 ; 7808692.071330567 ; 2.015717549618593E8 ; 7.204940392674973E8 ; 1.7262697132033154E10 ; 0.0
95 ; 7808290.44026612 ; 2.015860403678596E8 ; 7.283027313388278E8 ; 1.7464268886995014E10 ; 0.0
96 ; 7804046.1975970855 ; 2.0160030327956918E8 ; 7.36111021779094E8 ; 1.7665854927362873E10 ; 0.0
97 ; 7798924.133453536 ; 2.0161454336066604E8 ; 7.43915067976691E8 ; 1.786745523064244E10 ; 0.0
98 ; 7793900.046072757 ; 2.016287602781411E8 ; 7.517139921101445E8 ; 1.8069069774003105E10 ; 0.0
99 ; 7792687.392756551 ; 2.0164295370214593E8 ; 7.595078921562172E8 ; 1.8270698534281246E10 ; 0.0
100 ; 7787252.7554375 ; 2.0165712330585074E8 ; 7.673005795489738E8 ; 1.847234148798339E10 ; 0.0
101 ; 7786121.823147018 ; 2.0167126876531205E8 ; 7.750878323044113E8 ; 1.867399861128924E10 ; 0.0
102 ; 7781174.724997141 ; 2.01685389759349E8 ; 7.828739541275584E8 ; 1.8875669880054554E10 ; 0.0
103 ; 7778186.99942668 ; 2.01699485969428E8 ; 7.906551288525555E8 ; 1.9077355269813904E10 ; 0.0
104 ; 7774715.329954342 ; 2.0171355707955483E8 ; 7.984333158519822E8 ; 1.9279054755783333E10 ; 0.0
105 ; 7771293.521226262 ; 2.0172760277617377E8 ; 8.062080311819366E8 ; 1.948076831286289E10 ; 0.0
106 ; 7765407.383800822 ; 2.0174162274807343E8 ; 8.139793247031629E8 ; 1.968249591563906E10 ; 0.0
107 ; 7762084.160977968 ; 2.0175561668629822E8 ; 8.217447320869638E8 ; 1.9884237538387135E10 ; 0.0
108 ; 7757106.137754121 ; 2.0176958428406596E8 ; 8.295068162479417E8 ; 2.0085993155073433E10 ; 0.0
109 ; 7749830.160688286 ; 2.0178352523669034E8 ; 8.372639223856958E8 ; 2.02877627393575E10 ; 0.0
110 ; 7748496.255713532 ; 2.017974392415084E8 ; 8.450137525463841E8 ; 2.048954626459419E10 ; 0.0
111 ; 7743273.398521762 ; 2.0181132599781257E8 ; 8.527622488020977E8 ; 2.0691343703835697E10 ; 0.0
112 ; 7738155.871918791 ; 2.018251852067869E8 ; 8.605055222006195E8 ; 2.089315502983351E10 ; 0.0
113 ; 7729838.024207762 ; 2.0183901657144725E8 ; 8.682436780725383E8 ; 2.10949802150403E10 ; 0.0
114 ; 7727939.986814106 ; 2.0185281979658508E8 ; 8.75973516096746E8 ; 2.1296819231611744E10 ; 0.0
115 ; 7725712.629075495 ; 2.0186659458871496E8 ; 8.837014560835601E8 ; 2.149867205140833E10 ; 0.0
116 ; 7717829.826758154 ; 2.0188034065602487E8 ; 8.914271687126356E8 ; 2.1700538645997044E10 ; 0.0
117 ; 7711405.512698637 ; 2.0189405770832992E8 ; 8.991449985393938E8 ; 2.190241898665307E10 ; 0.0
118 ; 7707026.8832220435 ; 2.019077454570286E8 ; 9.068564040520924E8 ; 2.2104313044361397E10 ; 0.0
119 ; 7703200.496301675 ; 2.0192140361506182E8 ; 9.145634309353144E8 ; 2.2306220789818424E10 ; 0.0
120 ; 7696687.343359415 ; 2.0193503189687437E8 ; 9.222666314316161E8 ; 2.2508142193433487E10 ; 0.0
121 ; 7691346.9852482565 ; 2.019486300183787E8 ; 9.299633187749755E8 ; 2.271007722533036E10 ; 0.0
122 ; 7685803.820202543 ; 2.0196219769692084E8 ; 9.376546657602237E8 ; 2.291202585534874E10 ; 0.0
123 ; 7678205.440131406 ; 2.0197573465124848E8 ; 9.453404695804263E8 ; 2.3113988053045662E10 ; 0.0
124 ; 7673767.808503388 ; 2.0198924060148075E8 ; 9.530186750205578E8 ; 2.331596378769691E10 ; 0.0
125 ; 7670202.343798523 ; 2.0200271526907995E8 ; 9.606924428290612E8 ; 2.3517953028298393E10 ; 0.0
126 ; 7664180.352992805 ; 2.0201615837682506E8 ; 9.683626451728597E8 ; 2.3719955743567474E10 ; 0.0
127 ; 7655873.55461581 ; 2.0202956964878654E8 ; 9.760268255258524E8 ; 2.3921971901944298E10 ; 0.0
128 ; 7653831.542625402 ; 2.0204294881030297E8 ; 9.836826990804683E8 ; 2.4124001471593086E10 ; 0.0
129 ; 7649623.015293493 ; 2.0205629558795875E8 ; 9.913365306230937E8 ; 2.432604442040339E10 ; 0.0
130 ; 7640173.086685175 ; 2.0206960970956352E8 ; 9.989861536383872E8 ; 2.452810071599135E10 ; 0.0
131 ; 7630949.223558862 ; 2.0208289090413246E8 ; 1.0066263267250724E9 ; 2.4730170325700912E10 ; 0.0
132 ; 7622935.2623442225 ; 2.0209613890186793E8 ; 1.0142572759486313E9 ; 2.4932253216605045E10 ; 0.0
133 ; 7613236.121816272 ; 2.0210935343414232E8 ; 1.0218802112109755E9 ; 2.5134349355506912E10 ; 0.0
134 ; 7605322.356665907 ; 2.0212253423348173E8 ; 1.0294934473327918E9 ; 2.5336458708941055E10 ; 0.0
135 ; 7596238.757358086 ; 2.021356810335508E8 ; 1.0370987696894577E9 ; 2.5538581243174538E10 ; 0.0
136 ; 7585752.79840851 ; 2.021487935691384E8 ; 1.0446950084468157E9 ; 2.5740716924208088E10 ; 0.0
137 ; 7576961.967420373 ; 2.0216187157614428E8 ; 1.0522807612452242E9 ; 2.5942865717777225E10 ; 0.0
138 ; 7568632.735272706 ; 2.0217491479156637E8 ; 1.0598577232126446E9 ; 2.614502758935337E10 ; 0.0
139 ; 7560226.150398408 ; 2.0218792295348912E8 ; 1.0674263559479172E9 ; 2.6347202504144936E10 ; 0.0
140 ; 7549896.8620387735 ; 2.0220089580107242E8 ; 1.0749865820983157E9 ; 2.6549390427098423E10 ; 0.0
141 ; 7540736.875712798 ; 2.022138330745412E8 ; 1.0825364789603546E9 ; 2.6751591322899494E10 ; 0.0
142 ; 7532822.555308365 ; 2.0222673451517588E8 ; 1.0900772158360674E9 ; 2.6953805155974037E10 ; 0.0
143 ; 7521480.181750868 ; 2.022395998653032E8 ; 1.0976100383913758E9 ; 2.7156031890489212E10 ; 0.0
144 ; 7514781.934145554 ; 2.0225242886828783E8 ; 1.1051315185731266E9 ; 2.7358271490354515E10 ; 0.0
145 ; 7505575.230156682 ; 2.0226522126852456E8 ; 1.112646300507272E9 ; 2.75605239192228E10 ; 0.0
146 ; 7502020.259792697 ; 2.0227797681143084E8 ; 1.1201518757374287E9 ; 2.7762789140491325E10 ; 0.0
147 ; 7493064.466421021 ; 2.0229069524344006E8 ; 1.1276538959972215E9 ; 2.7965067117302757E10 ; 0.0
148 ; 7487450.920007971 ; 2.0230337631199506E8 ; 1.1351469604636426E9 ; 2.8167357812546196E10 ; 0.0
149 ; 7480932.34579509 ; 2.0231601976554245E8 ; 1.1426344113836505E9 ; 2.8369661188858192E10 ; 0.0
150 ; 7470602.764266044 ; 2.0232862535352692E8 ; 1.1501153437294457E9 ; 2.8571977208623734E10 ; 0.0
151 ; 7468035.278091913 ; 2.0234119282638633E8 ; 1.1575859464937117E9 ; 2.877430583397726E10 ; 0.0
152 ; 7461308.350944985 ; 2.0235372193554705E8 ; 1.1650539817718036E9 ; 2.8976647026803646E10 ; 0.0
153 ; 7453535.797600903 ; 2.0236621243341962E8 ; 1.1725152901227486E9 ; 2.9179000748739193E10 ; 0.0
154 ; 7447777.481047253 ; 2.0237866407339486E8 ; 1.1799688259203496E9 ; 2.938136696117261E10 ; 0.0
155 ; 7439814.702086658 ; 2.0239107660984027E8 ; 1.1874166034013968E9 ; 2.9583745625246006E10 ; 0.0
156 ; 7434072.9788740715 ; 2.024034497980967E8 ; 1.1948564181034834E9 ; 2.9786136701855846E10 ; 0.0
157 ; 7426467.500486997 ; 2.0241578339447546E8 ; 1.2022904910823574E9 ; 2.9988540151653942E10 ; 0.0
158 ; 7415993.688583566 ; 2.0242807715625554E8 ; 1.2097169585828445E9 ; 3.0190955935048416E10 ; 0.0
159 ; 7409248.240510085 ; 2.0244033084168127E8 ; 1.217132952271428E9 ; 3.039338401220467E10 ; 0.0
160 ; 7402696.451266448 ; 2.024525442099601E8 ; 1.224542200511938E9 ; 3.0595824343046352E10 ; 0.0
161 ; 7395530.85651976 ; 2.0246471702126077E8 ; 1.2319448969632046E9 ; 3.0798276887256313E10 ; 0.0
162 ; 7390172.720955005 ; 2.0247684903671148E8 ; 1.2393404278197243E9 ; 3.1000741604277573E10 ; 0.0
163 ; 7380295.907175655 ; 2.0248894001839867E8 ; 1.2467306005406792E9 ; 3.1203218453314285E10 ; 0.0
164 ; 7374269.3208277095 ; 2.0250098972936553E8 ; 1.2541108964478548E9 ; 3.1405707393332684E10 ; 0.0
165 ; 7368332.366450327 ; 2.0251299793361118E8 ; 1.2614851657686825E9 ; 3.160820838306205E10 ; 0.0
166 ; 7363138.1153646 ; 2.025249643960897E8 ; 1.2688534981351328E9 ; 3.1810721380995663E10 ; 0.0
167 ; 7352947.804351004 ; 2.0253688888270947E8 ; 1.2762166362504973E9 ; 3.2013246345391754E10 ; 0.0
168 ; 7344291.994937029 ; 2.025487711603328E8 ; 1.2835695840548484E9 ; 3.2215783234274464E10 ; 0.0
169 ; 7339054.339214464 ; 2.025606109967754E8 ; 1.2909138760497854E9 ; 3.2418332005434795E10 ; 0.0
170 ; 7332197.167696491 ; 2.0257240816080645E8 ; 1.298252930389E9 ; 3.2620892616431572E10 ; 0.0
171 ; 7325918.262522649 ; 2.0258416242214844E8 ; 1.3055851275566964E9 ; 3.2823465024592377E10 ; 0.0
172 ; 7315766.390839226 ; 2.0259587355147734E8 ; 1.312911045819219E9 ; 3.3026049187014526E10 ; 0.0
173 ; 7309991.37250849 ; 2.0260754132042292E8 ; 1.3202268122100585E9 ; 3.3228645060566E10 ; 0.0
174 ; 7304232.831358522 ; 2.0261916550156903E8 ; 1.327536803582567E9 ; 3.3431252601886425E10 ; 0.0
175 ; 7297754.54818632 ; 2.0263074586845428E8 ; 1.3348410364139254E9 ; 3.3633871767387993E10 ; 0.0
176 ; 7294074.903725824 ; 2.0264228219557253E8 ; 1.3421387909621117E9 ; 3.3836502513256447E10 ; 0.0
177 ; 7290762.10339702 ; 2.026537742583737E8 ; 1.3494328658658376E9 ; 3.403914479545202E10 ; 0.0
178 ; 7286193.274567297 ; 2.026652218332647E8 ; 1.3567236279692347E9 ; 3.4241798569710392E10 ; 0.0
179 ; 7280383.462054412 ; 2.026766246976103E8 ; 1.364009821243802E9 ; 3.4444463791543655E10 ; 0.0
180 ; 7275254.629262273 ; 2.0268798262973416E8 ; 1.3712902047058566E9 ; 3.4647140416241264E10 ; 0.0
181 ; 7272901.015379143 ; 2.0269929540892014E8 ; 1.3785654593351188E9 ; 3.4849828398871E10 ; 0.0
182 ; 7271166.684417067 ; 2.0271056281541333E8 ; 1.385838360350498E9 ; 3.505252769427992E10 ; 0.0
183 ; 7261956.049060377 ; 2.0272178463042152E8 ; 1.393109527034915E9 ; 3.525523825709534E10 ; 0.0
184 ; 7257982.445500614 ; 2.0273296063611656E8 ; 1.4003714830839753E9 ; 3.545796004172576E10 ; 0.0
185 ; 7253930.665213503 ; 2.0274409061563584E8 ; 1.407629465529476E9 ; 3.566069300236188E10 ; 0.0
186 ; 7250228.012423957 ; 2.0275517435308376E8 ; 1.4148833961946895E9 ; 3.5863437092977516E10 ; 0.0
187 ; 7245263.054266838 ; 2.0276621163353345E8 ; 1.4221336242071135E9 ; 3.60661922673306E10 ; 0.0
188 ; 7238580.2488928465 ; 2.027772022430284E8 ; 1.4293788872613804E9 ; 3.626895847896413E10 ; 0.0
189 ; 7236553.23335727 ; 2.0278814596858424E8 ; 1.4366174675102732E9 ; 3.647173568120715E10 ; 0.0
190 ; 7232724.288409006 ; 2.027990425981905E8 ; 1.4438540207436304E9 ; 3.6674523827175735E10 ; 0.0
191 ; 7227293.263687843 ; 2.0280989192081234E8 ; 1.4510867450320394E9 ; 3.6877322869773926E10 ; 0.0
192 ; 7223643.939466681 ; 2.0282069372639284E8 ; 1.4583140382957273E9 ; 3.708013276169474E10 ; 0.0
193 ; 7218931.735357794 ; 2.0283144780585447E8 ; 1.465537682235194E9 ; 3.7282953455421135E10 ; 0.0
194 ; 7214288.283270488 ; 2.0284215395110148E8 ; 1.4727566139705517E9 ; 3.748578490322699E10 ; 0.0
195 ; 7211124.896670109 ; 2.0285281195502177E8 ; 1.4799709022538223E9 ; 3.768862705717809E10 ; 0.0
196 ; 7203031.770293527 ; 2.028634216114889E8 ; 1.4871820271504924E9 ; 3.789147986913312E10 ; 0.0
197 ; 7200512.581490264 ; 2.0287398271536452E8 ; 1.494385058920786E9 ; 3.8094343290744606E10 ; 0.0
198 ; 7197487.609914839 ; 2.0288449506250018E8 ; 1.5015855715022762E9 ; 3.829721727345997E10 ; 0.0
199 ; 7191761.667326422 ; 2.0289495844973978E8 ; 1.508783059112191E9 ; 3.850010176852247E10 ; 0.0
200 ; 7185902.927675192 ; 2.0290537267492178E8 ; 1.5159748207795174E9 ; 3.8702996726972206E10 ; 0.0
201 ; 7183984.8371238215 ; 1.8465716824288863E8 ; 1.5231607237071927E9 ; 3.8905902099647125E10 ; 0.0
