CSV File for the City 4 on Day 39
1 - Minute m 
2 - Power Consumed at minute m 
3 - Power Produced at minute m 
4 - Energy Consumed since the beginning of the day 
5 - Energy Produced since the beginning of the day 
6 - Energy Lost since the beginning of the day on lines starting from the city
 
0 ; 6795178.64473971 ; 1.0561509822876939E8 ; 0.0 ; 0.0 ; 0.0
1 ; 6801124.315919211 ; 1.0576384716663438E8 ; 6795178.64473971 ; 1.0561509822876939E8 ; 0.0
2 ; 6810376.51175322 ; 1.0622176406690207E8 ; 1.359630296065892E7 ; 2.1137894539540377E8 ; 0.0
3 ; 6818563.424687123 ; 1.0698886747320956E8 ; 2.040667947241214E7 ; 3.1760070946230584E8 ; 0.0
4 ; 6827739.49353721 ; 1.0806517465035558E8 ; 2.7225242897099264E7 ; 4.245895769355154E8 ; 0.0
5 ; 6839528.386184288 ; 1.094507012963869E8 ; 3.4052982390636474E7 ; 5.32654751585871E8 ; 0.0
6 ; 6857029.024926939 ; 1.1114546126218978E8 ; 4.0892510776820764E7 ; 6.421054528822579E8 ; 0.0
7 ; 6879119.341415365 ; 1.1314946628910309E8 ; 4.77495398017477E7 ; 7.532509141444477E8 ; 0.0
8 ; 6910695.227205095 ; 1.154627257753464E8 ; 5.462865914316307E7 ; 8.664003804335508E8 ; 0.0
9 ; 6962417.700713244 ; 1.1808524658160532E8 ; 6.153935437036817E7 ; 9.818631062088972E8 ; 0.0
10 ; 7040172.563560481 ; 1.2101703288488567E8 ; 6.850177207108141E7 ; 1.0999483527905025E9 ; 0.0
11 ; 7163833.304373184 ; 1.2425808608777818E8 ; 7.55419446346419E7 ; 1.2209653856753883E9 ; 0.0
12 ; 7362297.89842089 ; 1.278084047876921E8 ; 8.270577793901509E7 ; 1.3452234717631664E9 ; 0.0
13 ; 7550060.818453423 ; 1.316679848076216E8 ; 9.006807583743598E7 ; 1.4730318765508585E9 ; 0.0
14 ; 7575578.550381224 ; 1.3583681928688115E8 ; 9.761813665588939E7 ; 1.60469986135848E9 ; 0.0
15 ; 7583134.530097797 ; 1.4031489882725108E8 ; 1.0519371520627062E8 ; 1.7405366806453612E9 ; 0.0
16 ; 7592087.744317168 ; 1.4510221168739262E8 ; 1.1277684973636842E8 ; 1.8808515794726124E9 ; 0.0
17 ; 7601192.717934884 ; 1.5019874401641944E8 ; 1.2036893748068559E8 ; 2.025953791160005E9 ; 0.0
18 ; 7610010.298492772 ; 1.5560448011628485E8 ; 1.2797013019862047E8 ; 2.1761525351764245E9 ; 0.0
19 ; 7617324.034857485 ; 1.6131940272218993E8 ; 1.3558014049711323E8 ; 2.3317570152927094E9 ; 0.0
20 ; 7625592.705509377 ; 1.6734349329049775E8 ; 1.431974645319707E8 ; 2.4930764180148993E9 ; 0.0
21 ; 7636528.827299825 ; 1.7367673228452358E8 ; 1.5082305723748007E8 ; 2.660419911305397E9 ; 0.0
22 ; 7642641.115224503 ; 1.8031909944991297E8 ; 1.584595860647799E8 ; 2.8340966435899205E9 ; 0.0
23 ; 7653751.529341171 ; 1.8727057407293218E8 ; 1.6610222718000442E8 ; 3.0144157430398335E9 ; 0.0
24 ; 7661862.888224639 ; 1.945311352167155E8 ; 1.7375597870934558E8 ; 3.201686317112766E9 ; 0.0
25 ; 7672510.740829032 ; 2.007888028303825E8 ; 1.814178415975702E8 ; 3.396217452329481E9 ; 0.0
26 ; 7679663.067275616 ; 2.0079710396981636E8 ; 1.8909035233839923E8 ; 3.5970062551598635E9 ; 0.0
27 ; 7690318.693586722 ; 2.0080578747898465E8 ; 1.9677001540567484E8 ; 3.7978033591296797E9 ; 0.0
28 ; 7697960.782667621 ; 2.008148333663103E8 ; 2.0446033409926158E8 ; 3.9986091466086645E9 ; 0.0
29 ; 7705941.529397465 ; 2.0082422220215175E8 ; 2.121582948819292E8 ; 4.1994239799749746E9 ; 0.0
30 ; 7715634.797167109 ; 2.008339351996864E8 ; 2.1986423641132665E8 ; 4.400248202177126E9 ; 0.0
31 ; 7723612.533525294 ; 2.0084395427479893E8 ; 2.2757987120849377E8 ; 4.601082137376812E9 ; 0.0
32 ; 7730127.813746158 ; 2.0085426208749297E8 ; 2.3530348374201906E8 ; 4.801926091651611E9 ; 0.0
33 ; 7738850.335004582 ; 2.0086484206736624E8 ; 2.430336115557652E8 ; 5.002780353739104E9 ; 0.0
34 ; 7744128.675828225 ; 2.008756784256042E8 ; 2.5077246189076978E8 ; 5.203645195806471E9 ; 0.0
35 ; 7752946.160298318 ; 2.008867561557907E8 ; 2.58516590566598E8 ; 5.404520874232075E9 ; 0.0
36 ; 7761718.851444539 ; 2.0089806102563134E8 ; 2.6626953672689632E8 ; 5.605407630387865E9 ; 0.0
37 ; 7766057.3790749535 ; 2.0090957956145892E8 ; 2.740312555783408E8 ; 5.806305691413496E9 ; 0.0
38 ; 7773161.404073932 ; 2.009212990271572E8 ; 2.8179731295741576E8 ; 6.007215270974955E9 ; 0.0
39 ; 7780363.342079332 ; 2.0093320739891085E8 ; 2.895704743614897E8 ; 6.208136570002111E9 ; 0.0
40 ; 7783840.155903792 ; 2.0094529333697388E8 ; 2.9735083770356905E8 ; 6.409069777401022E9 ; 0.0
41 ; 7792427.970058771 ; 2.009575461554509E8 ; 3.051346778594729E8 ; 6.610015070737996E9 ; 0.0
42 ; 7795807.961070492 ; 2.0096995579090905E8 ; 3.1292710582953167E8 ; 6.810972616893447E9 ; 0.0
43 ; 7802150.065079963 ; 2.0098251277048203E8 ; 3.2072291379060215E8 ; 7.011942572684356E9 ; 0.0
44 ; 7801843.317165937 ; 2.0099520817999256E8 ; 3.2852506385568213E8 ; 7.212925085454838E9 ; 0.0
45 ; 7809300.141249492 ; 2.0100803363250494E8 ; 3.3632690717284805E8 ; 7.41392029363483E9 ; 0.0
46 ; 7813317.281947948 ; 2.010209812376217E8 ; 3.441362073140975E8 ; 7.614928327267336E9 ; 0.0
47 ; 7818828.403393291 ; 2.010340435717574E8 ; 3.519495245960455E8 ; 7.815949308504957E9 ; 0.0
48 ; 7818055.9418084305 ; 2.0104721364955655E8 ; 3.5976835299943876E8 ; 8.0169833520767145E9 ; 0.0
49 ; 7820959.668941908 ; 2.0106048489656785E8 ; 3.6758640894124717E8 ; 8.218030565726271E9 ; 0.0
50 ; 7823570.176221807 ; 2.0107385112324342E8 ; 3.754073686101891E8 ; 8.419091050622839E9 ; 0.0
51 ; 7825205.071350789 ; 2.0108730650029725E8 ; 3.8323093878641087E8 ; 8.620164901746082E9 ; 0.0
52 ; 7828555.522551317 ; 2.0110084553542984E8 ; 3.910561438577617E8 ; 8.82125220824638E9 ; 0.0
53 ; 7830260.6841179 ; 2.0111446305140492E8 ; 3.98884699380313E8 ; 9.022353053781809E9 ; 0.0
54 ; 7834030.8934412245 ; 2.0112815416544878E8 ; 4.067149600644309E8 ; 9.223467516833214E9 ; 0.0
55 ; 7835612.2698885035 ; 2.0114191426993057E8 ; 4.145489909578721E8 ; 9.424595670998663E9 ; 0.0
56 ; 7839144.125669043 ; 2.011557390142745E8 ; 4.223846032277606E8 ; 9.625737585268593E9 ; 0.0
57 ; 7838799.968559365 ; 2.0116962428804845E8 ; 4.302237473534297E8 ; 9.826893324282867E9 ; 0.0
58 ; 7840045.6587377 ; 2.0118356620517114E8 ; 4.3806254732198906E8 ; 1.0028062948570915E10 ; 0.0
59 ; 7840763.746966967 ; 2.0119756108917728E8 ; 4.459025929807268E8 ; 1.0229246514776087E10 ; 0.0
60 ; 7844172.597594822 ; 2.012116054594807E8 ; 4.5374335672769374E8 ; 1.0430444075865265E10 ; 0.0
61 ; 7843629.609046576 ; 2.012256960185756E8 ; 4.6158752932528853E8 ; 1.0631655681324745E10 ; 0.0
62 ; 7846276.757899345 ; 2.012398296401171E8 ; 4.694311589343351E8 ; 1.083288137734332E10 ; 0.0
63 ; 7847920.6472982345 ; 2.012540033578251E8 ; 4.7727743569223446E8 ; 1.1034121206983438E10 ; 0.0
64 ; 7847943.713287777 ; 2.012682143551567E8 ; 4.851253563395327E8 ; 1.1235375210341263E10 ; 0.0
65 ; 7851174.928590996 ; 2.0128245995569548E8 ; 4.9297330005282044E8 ; 1.1436643424696419E10 ; 0.0
66 ; 7852775.963938071 ; 2.012967376142088E8 ; 5.0082447498141146E8 ; 1.1637925884652115E10 ; 0.0
67 ; 7850865.521307301 ; 2.013110449083263E8 ; 5.086772509453495E8 ; 1.1839222622266323E10 ; 0.0
68 ; 7850836.886838444 ; 2.0132537953079605E8 ; 5.165281164666568E8 ; 1.204053366717465E10 ; 0.0
69 ; 7852628.737763033 ; 2.0133973928227776E8 ; 5.2437895335349524E8 ; 1.2241859046705446E10 ; 0.0
70 ; 7852587.719548695 ; 2.0135412206463403E8 ; 5.322315820912583E8 ; 1.2443198785987724E10 ; 0.0
71 ; 7854789.381101155 ; 2.0136852587468442E8 ; 5.40084169810807E8 ; 1.2644552908052359E10 ; 0.0
72 ; 7855684.845600304 ; 2.013829487983888E8 ; 5.479389591919081E8 ; 1.2845921433927044E10 ; 0.0
73 ; 7854798.951167308 ; 2.01397389005429E8 ; 5.557946440375084E8 ; 1.3047304382725433E10 ; 0.0
74 ; 7855490.1456877785 ; 2.014118447441596E8 ; 5.636494429886757E8 ; 1.3248701771730862E10 ; 0.0
75 ; 7855519.213500751 ; 2.0142631433690172E8 ; 5.715049331343635E8 ; 1.3450113616475021E10 ; 0.0
76 ; 7856162.814983873 ; 2.0144079617555428E8 ; 5.793604523478643E8 ; 1.3651539930811924E10 ; 0.0
77 ; 7856145.480212033 ; 2.0145528871750033E8 ; 5.872166151628481E8 ; 1.3852980726987478E10 ; 0.0
78 ; 7855743.011721369 ; 2.014697904817868E8 ; 5.950727606430602E8 ; 1.4054436015704979E10 ; 0.0
79 ; 7852219.015331072 ; 2.0148430004555777E8 ; 6.029285036547816E8 ; 1.4255905806186766E10 ; 0.0
80 ; 7850140.757481996 ; 2.0149881604072374E8 ; 6.107807226701126E8 ; 1.4457390106232323E10 ; 0.0
81 ; 7847868.208990032 ; 2.0151333715084898E8 ; 6.186308634275947E8 ; 1.4658888922273046E10 ; 0.0
82 ; 7844597.290088137 ; 2.015278621082422E8 ; 6.264787316365846E8 ; 1.4860402259423895E10 ; 0.0
83 ; 7843739.960785191 ; 2.0154238969123563E8 ; 6.343233289266728E8 ; 1.5061930121532137E10 ; 0.0
84 ; 7839586.499412182 ; 2.0155691872163922E8 ; 6.42167068887458E8 ; 1.5263472511223373E10 ; 0.0
85 ; 7837778.27174785 ; 2.0157144806235775E8 ; 6.500066553868701E8 ; 1.5465029429945013E10 ; 0.0
86 ; 7835190.659856509 ; 2.015859766151591E8 ; 6.57844433658618E8 ; 1.566660087800737E10 ; 0.0
87 ; 7833229.936830683 ; 2.0160050331858352E8 ; 6.656796243184745E8 ; 1.586818685462253E10 ; 0.0
88 ; 7828258.57889834 ; 2.0161502714598364E8 ; 6.735128542553052E8 ; 1.6069787357941114E10 ; 0.0
89 ; 7827516.629499241 ; 2.016295471036865E8 ; 6.813411128342035E8 ; 1.6271402385087097E10 ; 0.0
90 ; 7822608.031574698 ; 2.0164406222926918E8 ; 6.891686294637027E8 ; 1.6473031932190784E10 ; 0.0
91 ; 7821366.556614574 ; 2.0165857158994004E8 ; 6.969912374952774E8 ; 1.6674675994420053E10 ; 0.0
92 ; 7819541.827455837 ; 2.0167307428101858E8 ; 7.048126040518919E8 ; 1.6876334566009993E10 ; 0.0
93 ; 7813148.014971108 ; 2.0168756942450717E8 ; 7.126321458793478E8 ; 1.7078007640291012E10 ; 0.0
94 ; 7807555.527313906 ; 2.0170205616774863E8 ; 7.204452938943189E8 ; 1.727969520971552E10 ; 0.0
95 ; 7805287.276009364 ; 2.0171653368216357E8 ; 7.282528494216329E8 ; 1.7481397265883266E10 ; 0.0
96 ; 7802394.0036150385 ; 2.0173100116206264E8 ; 7.360581366976422E8 ; 1.768311379956543E10 ; 0.0
97 ; 7797031.552957022 ; 2.017454578235285E8 ; 7.438605307012572E8 ; 1.7884844800727493E10 ; 0.0
98 ; 7794460.118335636 ; 2.0175990290336272E8 ; 7.516575622542143E8 ; 1.808659025855102E10 ; 0.0
99 ; 7792491.0339012435 ; 2.017743356580941E8 ; 7.594520223725499E8 ; 1.8288350161454384E10 ; 0.0
100 ; 7787779.345388655 ; 2.0178875536304355E8 ; 7.672445134064511E8 ; 1.8490124497112476E10 ; 0.0
101 ; 7782364.406770659 ; 2.0180316131144255E8 ; 7.750322927518398E8 ; 1.869191325247552E10 ; 0.0
102 ; 7779362.152577141 ; 2.0181755281360146E8 ; 7.828146571586105E8 ; 1.8893716413786964E10 ; 0.0
103 ; 7777481.876133705 ; 2.0183192919612467E8 ; 7.905940193111876E8 ; 1.9095533966600567E10 ; 0.0
104 ; 7773042.908773595 ; 2.0184628980116948E8 ; 7.983715011873213E8 ; 1.929736589579669E10 ; 0.0
105 ; 7765768.641927659 ; 2.0186063398574615E8 ; 8.061445440960948E8 ; 1.9499212185597862E10 ; 0.0
106 ; 7762683.814868148 ; 2.0187496112105638E8 ; 8.139103127380224E8 ; 1.9701072819583607E10 ; 0.0
107 ; 7757855.098068602 ; 2.0188927059186813E8 ; 8.216729965528905E8 ; 1.9902947780704662E10 ; 0.0
108 ; 7754570.300544799 ; 2.019035617959241E8 ; 8.294308516509591E8 ; 2.010483705129653E10 ; 0.0
109 ; 7747696.828357095 ; 2.0191783414338228E8 ; 8.37185421951504E8 ; 2.0306740613092457E10 ; 0.0
110 ; 7742947.704316521 ; 2.019320870562865E8 ; 8.449331187798611E8 ; 2.050865844723584E10 ; 0.0
111 ; 7742528.091167956 ; 2.0194631996806484E8 ; 8.526760664841776E8 ; 2.0710590534292126E10 ; 0.0
112 ; 7734784.333329979 ; 2.0196053232305476E8 ; 8.604185945753455E8 ; 2.091253685426019E10 ; 0.0
113 ; 7731348.9974502 ; 2.0197472357605314E8 ; 8.681533789086756E8 ; 2.1114497386583244E10 ; 0.0
114 ; 7727865.528757253 ; 2.0198889319188952E8 ; 8.758847279061258E8 ; 2.1316472110159298E10 ; 0.0
115 ; 7718550.833311607 ; 2.0200304064502162E8 ; 8.83612593434883E8 ; 2.151846100335119E10 ; 0.0
116 ; 7715086.873819218 ; 2.020171654191515E8 ; 8.913311442681946E8 ; 2.1720464043996212E10 ; 0.0
117 ; 7710398.693795125 ; 2.020312670068615E8 ; 8.990462311420138E8 ; 2.1922481209415363E10 ; 0.0
118 ; 7704985.62285347 ; 2.020453449092684E8 ; 9.067566298358089E8 ; 2.2124512476422226E10 ; 0.0
119 ; 7700056.807557401 ; 2.0205939863569516E8 ; 9.144616154586624E8 ; 2.2326557821331493E10 ; 0.0
120 ; 7693786.929153914 ; 2.0207342770335898E8 ; 9.221616722662197E8 ; 2.252861721996719E10 ; 0.0
121 ; 7688306.507737021 ; 2.0208743163707492E8 ; 9.298554591953737E8 ; 2.2730690647670547E10 ; 0.0
122 ; 7683339.187172765 ; 2.0210140996897432E8 ; 9.375437657031107E8 ; 2.293277807930762E10 ; 0.0
123 ; 7675065.592562091 ; 2.0211536223823664E8 ; 9.452271048902835E8 ; 2.3134879489276596E10 ; 0.0
124 ; 7672427.1980149625 ; 2.021292879908348E8 ; 9.529021704828455E8 ; 2.333699485151483E10 ; 0.0
125 ; 7668295.308795177 ; 2.0214318677929267E8 ; 9.605745976808605E8 ; 2.3539124139505665E10 ; 0.0
126 ; 7660561.784619161 ; 2.0215705816245425E8 ; 9.682428929896557E8 ; 2.3741267326284958E10 ; 0.0
127 ; 7656130.53791856 ; 2.0217090170526385E8 ; 9.75903454774275E8 ; 2.394342438444741E10 ; 0.0
128 ; 7646830.841488542 ; 2.0218471697855702E8 ; 9.835595853121935E8 ; 2.4145595286152676E10 ; 0.0
129 ; 7641950.120753012 ; 2.0219850355886093E8 ; 9.912064161536821E8 ; 2.4347780003131233E10 ; 0.0
130 ; 7636132.120515183 ; 2.022122610282046E8 ; 9.988483662744352E8 ; 2.4549978506690094E10 ; 0.0
131 ; 7625649.379127829 ; 2.0222598897393757E8 ; 1.0064844983949504E9 ; 2.47521907677183E10 ; 0.0
132 ; 7617357.538417791 ; 2.0223968698855752E8 ; 1.0141101477740782E9 ; 2.4954416756692238E10 ; 0.0
133 ; 7607652.719160104 ; 2.022533546695453E8 ; 1.0217275053124961E9 ; 2.5156656443680794E10 ; 0.0
134 ; 7599690.539680718 ; 2.022669916192079E8 ; 1.0293351580316561E9 ; 2.5358909798350338E10 ; 0.0
135 ; 7591008.14202933 ; 2.0228059744452864E8 ; 1.0369348485713369E9 ; 2.5561176789969547E10 ; 0.0
136 ; 7583985.254785128 ; 2.0229417175702396E8 ; 1.0445258567133662E9 ; 2.5763457387414078E10 ; 0.0
137 ; 7573582.825603004 ; 2.023077141726068E8 ; 1.0521098419681513E9 ; 2.59657515591711E10 ; 0.0
138 ; 7564836.320851193 ; 2.0232122431145614E8 ; 1.0596834247937543E9 ; 2.6168059273343708E10 ; 0.0
139 ; 7556712.57918622 ; 2.0233470179789245E8 ; 1.0672482611146055E9 ; 2.6370380497655163E10 ; 0.0
140 ; 7548357.696832919 ; 2.0234814626025847E8 ; 1.0748049736937919E9 ; 2.6572715199453056E10 ; 0.0
141 ; 7537785.591155121 ; 2.0236155733080554E8 ; 1.0823533313906248E9 ; 2.6775063345713314E10 ; 0.0
142 ; 7527900.114416716 ; 2.0237493464558482E8 ; 1.0898911169817798E9 ; 2.697742490304412E10 ; 0.0
143 ; 7519330.630658307 ; 2.0238827784434322E8 ; 1.0974190170961964E9 ; 2.7179799837689705E10 ; 0.0
144 ; 7508130.811096458 ; 2.0240158657042402E8 ; 1.1049383477268548E9 ; 2.738218811553405E10 ; 0.0
145 ; 7500118.487756791 ; 2.0241486047067177E8 ; 1.1124464785379512E9 ; 2.7584589702104473E10 ; 0.0
146 ; 7492850.335055461 ; 2.0242809919534126E8 ; 1.119946597025708E9 ; 2.7787004562575146E10 ; 0.0
147 ; 7488491.491169953 ; 2.024413023980104E8 ; 1.1274394473607633E9 ; 2.798943266177049E10 ; 0.0
148 ; 7480471.786073267 ; 2.02454469735497E8 ; 1.1349279388519332E9 ; 2.81918739641685E10 ; 0.0
149 ; 7474131.6045701485 ; 2.0246760086777887E8 ; 1.1424084106380064E9 ; 2.8394328433903996E10 ; 0.0
150 ; 7466127.408337801 ; 2.024806954579175E8 ; 1.1498825422425766E9 ; 2.8596796034771774E10 ; 0.0
151 ; 7461600.993380341 ; 2.02493753171985E8 ; 1.1573486696509144E9 ; 2.879927673022969E10 ; 0.0
152 ; 7450983.434991732 ; 2.0250677367899397E8 ; 1.1648102706442947E9 ; 2.9001770483401676E10 ; 0.0
153 ; 7446088.825466932 ; 2.0251975665083033E8 ; 1.1722612540792866E9 ; 2.920427725708067E10 ; 0.0
154 ; 7441358.632428468 ; 2.0253270176218918E8 ; 1.1797073429047534E9 ; 2.94067970137315E10 ; 0.0
155 ; 7432769.587300275 ; 2.0254560869051316E8 ; 1.1871487015371819E9 ; 2.9609329715493687E10 ; 0.0
156 ; 7425831.019309872 ; 2.0255847711593327E8 ; 1.1945814711244822E9 ; 2.98118753241842E10 ; 0.0
157 ; 7419091.574469824 ; 2.025713067212125E8 ; 1.202007302143792E9 ; 3.0014433801300133E10 ; 0.0
158 ; 7411343.268171933 ; 2.025840971916914E8 ; 1.2094263937182617E9 ; 3.0217005108021347E10 ; 0.0
159 ; 7404530.071211326 ; 2.0259684821523616E8 ; 1.2168377369864337E9 ; 3.041958920521304E10 ; 0.0
160 ; 7396970.266362913 ; 2.026095594821887E8 ; 1.224242267057645E9 ; 3.0622186053428276E10 ; 0.0
161 ; 7389497.283453061 ; 2.026222306853188E8 ; 1.231639237324008E9 ; 3.0824795612910465E10 ; 0.0
162 ; 7381491.652392962 ; 2.026348615197783E8 ; 1.239028734607461E9 ; 3.1027417843595783E10 ; 0.0
163 ; 7374351.402148285 ; 2.0264745168305698E8 ; 1.2464102262598538E9 ; 3.1230052705115562E10 ; 0.0
164 ; 7368516.510067315 ; 2.0266000087494045E8 ; 1.253784577662002E9 ; 3.143270015679862E10 ; 0.0
165 ; 7362096.61964297 ; 2.0267250879746947E8 ; 1.2611530941720693E9 ; 3.1635360157673557E10 ; 0.0
166 ; 7353178.130322629 ; 2.0268497515490127E8 ; 1.2685151907917123E9 ; 3.1838032666471027E10 ; 0.0
167 ; 7345883.424223227 ; 2.0269739965367207E8 ; 1.275868368922035E9 ; 3.2040717641625927E10 ; 0.0
168 ; 7336801.162675851 ; 2.0270978200236136E8 ; 1.2832142523462582E9 ; 3.22434150412796E10 ; 0.0
169 ; 7329929.797547074 ; 2.027221219116575E8 ; 1.290551053508934E9 ; 3.244612482328196E10 ; 0.0
170 ; 7320532.339621751 ; 2.0273441909432474E8 ; 1.2978809833064811E9 ; 3.264884694519362E10 ; 0.0
171 ; 7313587.218917458 ; 2.027466732651715E8 ; 1.305201515646103E9 ; 3.2851581364287945E10 ; 0.0
172 ; 7307757.68867165 ; 2.0275888414102003E8 ; 1.3125151028650203E9 ; 3.3054328037553116E10 ; 0.0
173 ; 7299274.149360797 ; 2.027710514406772E8 ; 1.3198228605536919E9 ; 3.3257086921694138E10 ; 0.0
174 ; 7293504.179561175 ; 2.0278317488490638E8 ; 1.3271221347030528E9 ; 3.3459857973134815E10 ; 0.0
175 ; 7289161.528484994 ; 2.027952541964007E8 ; 1.334415638882614E9 ; 3.3662641148019722E10 ; 0.0
176 ; 7283126.289197501 ; 2.0280728909975696E8 ; 1.341704800411099E9 ; 3.386543640221612E10 ; 0.0
177 ; 7280658.584968522 ; 2.0281927932145107E8 ; 1.3489879267002964E9 ; 3.406824369131588E10 ; 0.0
178 ; 7275369.120513179 ; 2.0283122458981407E8 ; 1.356268585285265E9 ; 3.427106297063733E10 ; 0.0
179 ; 7274483.70838235 ; 2.0284312463500917E8 ; 1.3635439544057782E9 ; 3.447389419522714E10 ; 0.0
180 ; 7266097.764587503 ; 2.0285497918901002E8 ; 1.3708184381141605E9 ; 3.467673731986215E10 ; 0.0
181 ; 7262771.880893308 ; 2.0286678798557934E8 ; 1.378084535878748E9 ; 3.487959229905116E10 ; 0.0
182 ; 7257270.207741783 ; 2.0287855076024878E8 ; 1.3853473077596412E9 ; 3.508245908703674E10 ; 0.0
183 ; 7252961.624066843 ; 2.0289026725029942E8 ; 1.392604577967383E9 ; 3.528533763779699E10 ; 0.0
184 ; 7251367.994747091 ; 2.029019371947432E8 ; 1.3998575395914497E9 ; 3.548822790504729E10 ; 0.0
185 ; 7247344.12355066 ; 2.0291356033430463E8 ; 1.407108907586197E9 ; 3.569112984224203E10 ; 0.0
186 ; 7240501.723718719 ; 2.0292513641140398E8 ; 1.4143562517097476E9 ; 3.589404340257633E10 ; 0.0
187 ; 7238428.323040738 ; 2.0293666517014045E8 ; 1.4215967534334662E9 ; 3.609696853898774E10 ; 0.0
188 ; 7229820.09261125 ; 2.0294814635627633E8 ; 1.428835181756507E9 ; 3.629990520415788E10 ; 0.0
189 ; 7226926.143456038 ; 2.0295957971722174E8 ; 1.4360650018491182E9 ; 3.650285335051416E10 ; 0.0
190 ; 7221777.653214815 ; 2.0297096500202E8 ; 1.4432919279925742E9 ; 3.6705812930231384E10 ; 0.0
191 ; 7216605.3647598075 ; 2.0298230196133366E8 ; 1.4505137056457891E9 ; 3.6908783895233406E10 ; 0.0
192 ; 7213937.69474573 ; 2.0299359034743074E8 ; 1.457730311010549E9 ; 3.711176619719474E10 ; 0.0
193 ; 7207221.332287736 ; 2.03004829914172E8 ; 1.4649442487052948E9 ; 3.731475978754217E10 ; 0.0
194 ; 7204239.544719916 ; 2.0301602041699848E8 ; 1.4721514700375826E9 ; 3.751776461745634E10 ; 0.0
195 ; 7200195.329669411 ; 2.030271616129194E8 ; 1.4793557095823026E9 ; 3.772078063787334E10 ; 0.0
196 ; 7193950.112519014 ; 2.0303825326050085E8 ; 1.486555904911972E9 ; 3.792380779948626E10 ; 0.0
197 ; 7190943.793714767 ; 2.0304929511985487E8 ; 1.493749855024491E9 ; 3.812684605274676E10 ; 0.0
198 ; 7184440.445527311 ; 2.0306028695262867E8 ; 1.5009407988182058E9 ; 3.8329895347866615E10 ; 0.0
199 ; 7180925.944026909 ; 2.0307122852199474E8 ; 1.5081252392637331E9 ; 3.8532955634819244E10 ; 0.0
200 ; 7174511.814880616 ; 2.0308211959264106E8 ; 1.51530616520776E9 ; 3.873602686334124E10 ; 0.0
201 ; 7173994.97030198 ; 1.700367138798572E8 ; 1.5224806770226407E9 ; 3.893910898293388E10 ; 0.0
