CSV File for the City 6 on Day 193
1 - Minute m 
2 - Power Consumed at minute m 
3 - Power Produced at minute m 
4 - Energy Consumed since the beginning of the day 
5 - Energy Produced since the beginning of the day 
6 - Energy Lost since the beginning of the day on lines starting from the city
 
0 ; 1429670.1417888459 ; 1.0584672221634486E8 ; 0.0 ; 0.0 ; 0.0
1 ; 1438485.0369241112 ; 1.0599730424024963E8 ; 1429670.1417888459 ; 1.0584672221634486E8 ; 0.0
2 ; 1452926.5691000582 ; 1.0645690357358673E8 ; 2868155.178712957 ; 2.118440264565945E8 ; 0.0
3 ; 1468235.061642741 ; 1.072255260828945E8 ; 4321081.747813015 ; 3.183009300301812E8 ; 0.0
4 ; 1484626.9873416265 ; 1.0830317706688374E8 ; 5789316.809455756 ; 4.2552645611307573E8 ; 0.0
5 ; 1506223.8151973125 ; 1.0968986121347976E8 ; 7273943.796797383 ; 5.338296331799595E8 ; 0.0
6 ; 1530976.214752701 ; 1.1138558256071213E8 ; 8780167.611994695 ; 6.435194943934393E8 ; 0.0
7 ; 1568431.023951823 ; 1.1339034446219015E8 ; 1.0311143826747395E7 ; 7.549050769541514E8 ; 0.0
8 ; 1622178.7596307194 ; 1.1570414955783731E8 ; 1.1879574850699218E7 ; 8.682954214163415E8 ; 0.0
9 ; 1701528.1132906517 ; 1.1832699975047398E8 ; 1.3501753610329937E7 ; 9.839995709741788E8 ; 0.0
10 ; 1831578.821797905 ; 1.2125889618873036E8 ; 1.520328172362059E7 ; 1.1023265707246528E9 ; 0.0
11 ; 2028742.4540039573 ; 1.2449983925664684E8 ; 1.7034860545418493E7 ; 1.223585466913383E9 ; 0.0
12 ; 2348341.7552576363 ; 1.2804982857018301E8 ; 1.906360299942245E7 ; 1.3480853061700299E9 ; 0.0
13 ; 2651884.879874285 ; 1.3190886298070866E8 ; 2.1411944754680086E7 ; 1.476135134740213E9 ; 0.0
14 ; 2689294.9732635138 ; 1.360769405854035E8 ; 2.406382963455437E7 ; 1.6080439977209215E9 ; 0.0
15 ; 2705702.3881319147 ; 1.4055405874434394E8 ; 2.6753124607817885E7 ; 1.744120938306325E9 ; 0.0
16 ; 2719170.24866664 ; 1.453402141039208E8 ; 2.9458826995949797E7 ; 1.884674997050669E9 ; 0.0
17 ; 2735080.836919224 ; 1.5043540262610438E8 ; 3.2177997244616438E7 ; 2.0300152111545897E9 ; 0.0
18 ; 2750023.831324839 ; 1.5583961962296945E8 ; 3.491307808153566E7 ; 2.180450613780694E9 ; 0.0
19 ; 2765116.140141338 ; 1.615528597958052E8 ; 3.76631019128605E7 ; 2.3362902334036636E9 ; 0.0
20 ; 2777589.041057776 ; 1.6757511727807322E8 ; 4.0428218053001836E7 ; 2.4978430931994686E9 ; 0.0
21 ; 2794345.5437134677 ; 1.7390638568143883E8 ; 4.320580709405961E7 ; 2.665418210477542E9 ; 0.0
22 ; 2808575.1361373956 ; 1.805466581440826E8 ; 4.6000152637773074E7 ; 2.839324596158981E9 ; 0.0
23 ; 2828424.675394829 ; 1.8749592738051045E8 ; 4.880872777391047E7 ; 3.0198712543030634E9 ; 0.0
24 ; 2843181.176735774 ; 1.9475418573210472E8 ; 5.1637152449305296E7 ; 3.2073671816835737E9 ; 0.0
25 ; 2858873.637524647 ; 2.0100946611588943E8 ; 5.448033362604107E7 ; 3.4021213674156785E9 ; 0.0
26 ; 2875946.3888417687 ; 2.0101530811138496E8 ; 5.733920726356572E7 ; 3.603130833531568E9 ; 0.0
27 ; 2889371.183332001 ; 2.0102147253426617E8 ; 6.021515365240749E7 ; 3.804146141642953E9 ; 0.0
28 ; 2905790.8944085804 ; 2.0102795073017904E8 ; 6.310452483573949E7 ; 4.005167614177219E9 ; 0.0
29 ; 2918083.358009992 ; 2.0103473391289523E8 ; 6.601031573014808E7 ; 4.2061955649073977E9 ; 0.0
30 ; 2939020.285514615 ; 2.0104181320674294E8 ; 6.892839908815807E7 ; 4.407230298820293E9 ; 0.0
31 ; 2948205.220356829 ; 2.010491796862958E8 ; 7.186741937367268E7 ; 4.608272112027037E9 ; 0.0
32 ; 2968375.7528852574 ; 2.0105682441313186E8 ; 7.48156245940295E7 ; 4.809321291713332E9 ; 0.0
33 ; 2977998.910674938 ; 2.010647384695449E8 ; 7.778400034691475E7 ; 5.010378116126464E9 ; 0.0
34 ; 2990141.0909800115 ; 2.0107291298915333E8 ; 8.07619992575897E7 ; 5.211442854596008E9 ; 0.0
35 ; 3005633.787196262 ; 2.010813391844083E8 ; 8.37521403485697E7 ; 5.412515767585161E9 ; 0.0
36 ; 3018671.7552349353 ; 2.0109000837104905E8 ; 8.675777413576597E7 ; 5.613597106769569E9 ; 0.0
37 ; 3033919.2542891423 ; 2.0109891198959443E8 ; 8.977644589100091E7 ; 5.814687115140618E9 ; 0.0
38 ; 3043400.4129386903 ; 2.0110804162399155E8 ; 9.281036514529005E7 ; 6.015786027130213E9 ; 0.0
39 ; 3056030.2621374317 ; 2.0111738901756588E8 ; 9.585376555822873E7 ; 6.216894068754205E9 ; 0.0
40 ; 3070367.8562086374 ; 2.011269460864373E8 ; 9.890979582036616E7 ; 6.4180114577717705E9 ; 0.0
41 ; 3079476.0891218362 ; 2.0113670493057773E8 ; 1.019801636765748E8 ; 6.619138403858208E9 ; 0.0
42 ; 3090369.3296149634 ; 2.0114665784269252E8 ; 1.0505963976569663E8 ; 6.820275108788785E9 ; 0.0
43 ; 3098951.584371795 ; 2.0115679731511226E8 ; 1.081500090953116E8 ; 7.021421766631477E9 ; 0.0
44 ; 3109462.917321545 ; 2.0116711604487833E8 ; 1.1124896067968339E8 ; 7.222578563946589E9 ; 0.0
45 ; 3120309.516267002 ; 2.011776069372036E8 ; 1.1435842359700494E8 ; 7.423745679991467E9 ; 0.0
46 ; 3128283.6267702193 ; 2.0118826310748175E8 ; 1.1747873311327194E8 ; 7.624923286928671E9 ; 0.0
47 ; 3134056.37820183 ; 2.0119907788201165E8 ; 1.2060701674004215E8 ; 7.826111550036153E9 ; 0.0
48 ; 3140820.764993319 ; 2.0121004479759258E8 ; 1.2374107311824398E8 ; 8.027310627918164E9 ; 0.0
49 ; 3147277.043860137 ; 2.012211576001374E8 ; 1.268818938832373E8 ; 8.228520672715756E9 ; 0.0
50 ; 3154546.530534741 ; 2.0123241024243838E8 ; 1.3002917092709744E8 ; 8.429741830315894E9 ; 0.0
51 ; 3164307.4467708627 ; 2.012437968812104E8 ; 1.3318371745763218E8 ; 8.630974240558332E9 ; 0.0
52 ; 3166400.5314558945 ; 2.0125531187352526E8 ; 1.3634802490440306E8 ; 8.832218037439543E9 ; 0.0
53 ; 3171420.3453933727 ; 2.0126694977273995E8 ; 1.3951442543585896E8 ; 9.033473349313068E9 ; 0.0
54 ; 3180467.637016983 ; 2.012787053240113E8 ; 1.4268584578125232E8 ; 9.234740299085808E9 ; 0.0
55 ; 3184917.434927799 ; 2.012905734594803E8 ; 1.458663134182693E8 ; 9.436019004409819E9 ; 0.0
56 ; 3194532.931370928 ; 2.0130254929319954E8 ; 1.490512308531971E8 ; 9.637309577869299E9 ; 0.0
57 ; 3195917.3607368986 ; 2.0131462811586928E8 ; 1.52245763784568E8 ; 9.838612127162498E9 ; 0.0
58 ; 3203765.5774290888 ; 2.0132680538943878E8 ; 1.5544168114530492E8 ; 1.0039926755278368E10 ; 0.0
59 ; 3205003.70858488 ; 2.013390767416235E8 ; 1.58645446722734E8 ; 1.0241253560667807E10 ; 0.0
60 ; 3215973.3999951067 ; 2.0135143796038088E8 ; 1.6185045043131888E8 ; 1.044259263740943E10 ; 0.0
61 ; 3221637.5563732325 ; 2.0136388498838264E8 ; 1.65066423831314E8 ; 1.064394407536981E10 ; 0.0
62 ; 3221583.775064855 ; 2.013764139175144E8 ; 1.6828806138768724E8 ; 1.0845307960358192E10 ; 0.0
63 ; 3227074.2487208527 ; 2.0138902098343077E8 ; 1.715096451627521E8 ; 1.1046684374275707E10 ; 0.0
64 ; 3234080.7732144673 ; 2.0140170256018734E8 ; 1.7473671941147295E8 ; 1.1248073395259138E10 ; 0.0
65 ; 3236598.904190268 ; 2.0141445515496916E8 ; 1.779708001846874E8 ; 1.1449475097819324E10 ; 0.0
66 ; 3242091.836610375 ; 2.0142727540293044E8 ; 1.8120739908887768E8 ; 1.1650889552974293E10 ; 0.0
67 ; 3244872.2857497237 ; 2.0144016006215787E8 ; 1.8444949092548805E8 ; 1.1852316828377224E10 ; 0.0
68 ; 3250906.039047889 ; 2.0145310600876743E8 ; 1.876943632112378E8 ; 1.2053756988439383E10 ; 0.0
69 ; 3254751.543020546 ; 2.0146611023214132E8 ; 1.9094526925028569E8 ; 1.225521009444815E10 ; 0.0
70 ; 3259774.6098504397 ; 2.0147916983031142E8 ; 1.9420002079330623E8 ; 1.2456676204680292E10 ; 0.0
71 ; 3264949.2715203036 ; 2.0149228200549155E8 ; 1.9745979540315667E8 ; 1.2658155374510603E10 ; 0.0
72 ; 3269212.9100787756 ; 2.015054440597619E8 ; 2.0072474467467698E8 ; 1.2859647656516094E10 ; 0.0
73 ; 3273143.340976519 ; 2.015186533909055E8 ; 2.0399395758475575E8 ; 1.3061153100575855E10 ; 0.0
74 ; 3277529.2496945565 ; 2.0153190748839706E8 ; 2.0726710092573225E8 ; 1.326267175396676E10 ; 0.0
75 ; 3284388.994265486 ; 2.0154520392954308E8 ; 2.105446301754268E8 ; 1.3464203661455158E10 ; 0.0
76 ; 3284722.75782887 ; 2.015585403757709E8 ; 2.138290191696923E8 ; 1.36657488653847E10 ; 0.0
77 ; 3291839.973972143 ; 2.0157191456906462E8 ; 2.1711374192752117E8 ; 1.3867307405760471E10 ; 0.0
78 ; 3288270.3319533314 ; 2.0158532432854506E8 ; 2.204055819014933E8 ; 1.4068879320329536E10 ; 0.0
79 ; 3289520.805130404 ; 2.0159876754718962E8 ; 2.2369385223344663E8 ; 1.4270464644658081E10 ; 0.0
80 ; 3289042.3173817284 ; 2.0161224218868932E8 ; 2.2698337303857702E8 ; 1.447206341220527E10 ; 0.0
81 ; 3289258.8889503363 ; 2.0162574628443825E8 ; 2.3027241535595876E8 ; 1.467367565439396E10 ; 0.0
82 ; 3287549.5176629056 ; 2.0163927793065187E8 ; 2.335616742449091E8 ; 1.48753014006784E10 ; 0.0
83 ; 3286365.022113258 ; 2.0165283528560975E8 ; 2.3684922376257202E8 ; 1.5076940678609053E10 ; 0.0
84 ; 3290307.1135355406 ; 2.0166641656701815E8 ; 2.4013558878468528E8 ; 1.5278593513894663E10 ; 0.0
85 ; 3287295.8313758397 ; 2.0168002004948872E8 ; 2.4342589589822084E8 ; 1.5480259930461681E10 ; 0.0
86 ; 3284457.1460682997 ; 2.016936440621284E8 ; 2.4671319172959667E8 ; 1.568193995051117E10 ; 0.0
87 ; 3286586.3367341803 ; 2.0170728698623654E8 ; 2.4999764887566498E8 ; 1.5883633594573298E10 ; 0.0
88 ; 3287171.0144561836 ; 2.017209472531049E8 ; 2.5328423521239915E8 ; 1.6085340881559534E10 ; 0.0
89 ; 3285242.0690919873 ; 2.017346233419162E8 ; 2.5657140622685534E8 ; 1.628706182881264E10 ; 0.0
90 ; 3283804.411989294 ; 2.0174831377773747E8 ; 2.598566482959473E8 ; 1.6488796452154556E10 ; 0.0
91 ; 3290126.4559027846 ; 2.0176201712960374E8 ; 2.631404527079366E8 ; 1.6690544765932293E10 ; 0.0
92 ; 3281904.671307142 ; 2.0177573200868854E8 ; 2.664305791638394E8 ; 1.6892306783061897E10 ; 0.0
93 ; 3280006.064332838 ; 2.0178945706655738E8 ; 2.6971248383514655E8 ; 1.7094082515070585E10 ; 0.0
94 ; 3279133.472317864 ; 2.018031909935002E8 ; 2.729924898994794E8 ; 1.7295871972137142E10 ; 0.0
95 ; 3278015.2868645126 ; 2.0181693251693985E8 ; 2.7627162337179726E8 ; 1.7497675163130642E10 ; 0.0
96 ; 3274995.872147279 ; 2.018306803999125E8 ; 2.795496386586618E8 ; 1.7699492095647583E10 ; 0.0
97 ; 3276479.115424582 ; 2.0184443343961746E8 ; 2.8282463453080904E8 ; 1.7901322776047497E10 ; 0.0
98 ; 3272326.913358197 ; 2.0185819046603245E8 ; 2.861011136462336E8 ; 1.8103167209487114E10 ; 0.0
99 ; 3272577.6899434 ; 2.01871950340592E8 ; 2.893734405595918E8 ; 1.8305025399953148E10 ; 0.0
100 ; 3269159.0029825517 ; 2.018857119549255E8 ; 2.926460182495352E8 ; 1.850689735029374E10 ; 0.0
101 ; 3270100.4171187724 ; 2.018994742296526E8 ; 2.9591517725251776E8 ; 1.8708783062248665E10 ; 0.0
102 ; 3265558.5144522386 ; 2.019132361132329E8 ; 2.9918527766963655E8 ; 1.8910682536478317E10 ; 0.0
103 ; 3268622.212794731 ; 2.019269965808675E8 ; 3.0245083618408877E8 ; 1.911259577259155E10 ; 0.0
104 ; 3260743.8890122003 ; 2.0194075463345024E8 ; 3.057194583968835E8 ; 1.9314522769172417E10 ; 0.0
105 ; 3254844.074734139 ; 2.019545092965659E8 ; 3.089802022858957E8 ; 1.9516463523805866E10 ; 0.0
106 ; 3257229.999656604 ; 2.019682596195332E8 ; 3.1223504636062986E8 ; 1.9718418033102432E10 ; 0.0
107 ; 3258194.963154112 ; 2.0198200467449102E8 ; 3.154922763602865E8 ; 1.9920386292721966E10 ; 0.0
108 ; 3254531.8409448084 ; 2.0199574355552474E8 ; 3.187504713234406E8 ; 2.0122368297396458E10 ; 0.0
109 ; 3250984.2738904874 ; 2.0200947537783206E8 ; 3.2200500316438544E8 ; 2.032436404095198E10 ; 0.0
110 ; 3248166.2128866985 ; 2.0202319927692538E8 ; 3.2525598743827593E8 ; 2.052637351632981E10 ; 0.0
111 ; 3245166.9076989614 ; 2.020369144078698E8 ; 3.285041536511626E8 ; 2.0728396715606735E10 ; 0.0
112 ; 3240014.0500445142 ; 2.020506199445542E8 ; 3.317493205588616E8 ; 2.0930433630014606E10 ; 0.0
113 ; 3235502.6334691187 ; 2.0206431507899493E8 ; 3.3498933460890615E8 ; 2.113248424995916E10 ; 0.0
114 ; 3236250.293825812 ; 2.020779990206696E8 ; 3.3822483724237525E8 ; 2.1334548565038155E10 ; 0.0
115 ; 3235369.656075936 ; 2.0209167099587995E8 ; 3.4146108753620106E8 ; 2.1536626564058823E10 ; 0.0
116 ; 3228684.6971366 ; 2.0210533024714258E8 ; 3.44696457192277E8 ; 2.1738718235054703E10 ; 0.0
117 ; 3224492.7534763613 ; 2.021189760326061E8 ; 3.479251418894136E8 ; 2.1940823565301846E10 ; 0.0
118 ; 3225569.987612517 ; 2.021326076254931E8 ; 3.5114963464289E8 ; 2.214294254133445E10 ; 0.0
119 ; 3219416.2263213657 ; 2.021462243135666E8 ; 3.543752046305025E8 ; 2.234507514895994E10 ; 0.0
120 ; 3216268.27425999 ; 2.021598253986188E8 ; 3.5759462085682386E8 ; 2.254722137327351E10 ; 0.0
121 ; 3213360.101389346 ; 2.0217341019598228E8 ; 3.6081088913108385E8 ; 2.274938119867213E10 ; 0.0
122 ; 3209980.1746204314 ; 2.0218697803406137E8 ; 3.640242492324732E8 ; 2.2951554608868114E10 ; 0.0
123 ; 3207398.3805435924 ; 2.0220052825388378E8 ; 3.6723422940709364E8 ; 2.3153741586902176E10 ; 0.0
124 ; 3201104.649280898 ; 2.0221406020867094E8 ; 3.7044162778763723E8 ; 2.335594211515606E10 ; 0.0
125 ; 3198046.6813724064 ; 2.0222757326342645E8 ; 3.7364273243691814E8 ; 2.355815617536473E10 ; 0.0
126 ; 3196930.074694536 ; 2.0224106679454172E8 ; 3.7684077911829054E8 ; 2.376038374862816E10 ; 0.0
127 ; 3186112.862814732 ; 2.0225454018941796E8 ; 3.8003770919298506E8 ; 2.39626248154227E10 ; 0.0
128 ; 3184234.349978493 ; 2.0226799284610417E8 ; 3.832238220557998E8 ; 2.4164879355612118E10 ; 0.0
129 ; 3182986.3759656423 ; 2.0228142417294964E8 ; 3.864080564057783E8 ; 2.436714734845822E10 ; 0.0
130 ; 3173921.2070278227 ; 2.0229483358827105E8 ; 3.8959104278174394E8 ; 2.4569428772631172E10 ; 0.0
131 ; 3168654.850475713 ; 2.0230822052003318E8 ; 3.927649639887718E8 ; 2.4771723606219444E10 ; 0.0
132 ; 3159513.676491125 ; 2.0232158440554252E8 ; 3.959336188392475E8 ; 2.497403182673948E10 ; 0.0
133 ; 3150434.4575259537 ; 2.0233492469115353E8 ; 3.9909313251573867E8 ; 2.5176353411145023E10 ; 0.0
134 ; 3142547.218650469 ; 2.0234824083198655E8 ; 4.0224356697326463E8 ; 2.5378688335836178E10 ; 0.0
135 ; 3133632.8413740955 ; 2.0236153229165733E8 ; 4.053861141919151E8 ; 2.5581036576668163E10 ; 0.0
136 ; 3125916.8631127537 ; 2.0237479854201725E8 ; 4.085197470332892E8 ; 2.578339810895982E10 ; 0.0
137 ; 3115188.3886409956 ; 2.023880390629039E8 ; 4.1164566389640194E8 ; 2.598577290750184E10 ; 0.0
138 ; 3101131.137642127 ; 2.024012533419018E8 ; 4.1476085228504294E8 ; 2.6188160946564743E10 ; 0.0
139 ; 3099081.7796722255 ; 2.0241444087411237E8 ; 4.178619834226851E8 ; 2.6390562199906647E10 ; 0.0
140 ; 3086859.030733558 ; 2.024276011619331E8 ; 4.209610652023573E8 ; 2.6592976640780758E10 ; 0.0
141 ; 3077861.8037530566 ; 2.024407337148454E8 ; 4.240479242330909E8 ; 2.679540424194269E10 ; 0.0
142 ; 3069766.4519884684 ; 2.0245383804921073E8 ; 4.2712578603684396E8 ; 2.6997844975657536E10 ; 0.0
143 ; 3060002.4436297077 ; 2.024669136880747E8 ; 4.301955524888324E8 ; 2.7200298813706745E10 ; 0.0
144 ; 3054353.090740828 ; 2.0247996016097885E8 ; 4.332555549324621E8 ; 2.740276572739482E10 ; 0.0
145 ; 3049189.8626574012 ; 2.024929770037794E8 ; 4.363099080232029E8 ; 2.76052456875558E10 ; 0.0
146 ; 3043174.2348485086 ; 2.025059637584735E8 ; 4.393590978858603E8 ; 2.780773866455958E10 ; 0.0
147 ; 3039085.6234734 ; 2.025189199730317E8 ; 4.424022721207088E8 ; 2.8010244628318054E10 ; 0.0
148 ; 3028328.59353952 ; 2.0253184520123702E8 ; 4.454413577441822E8 ; 2.8212763548291084E10 ; 0.0
149 ; 3030079.5569745675 ; 2.0254473900253016E8 ; 4.4846968633772177E8 ; 2.841529539349232E10 ; 0.0
150 ; 3025624.4327987786 ; 2.025576009418605E8 ; 4.5149976589469635E8 ; 2.861784013249485E10 ; 0.0
151 ; 3020097.442586599 ; 2.025704305895428E8 ; 4.5452539032749516E8 ; 2.882039773343671E10 ; 0.0
152 ; 3016214.2123467624 ; 2.025832275211192E8 ; 4.5754548777008176E8 ; 2.9022968164026253E10 ; 0.0
153 ; 3011025.7649071137 ; 2.0259599131722653E8 ; 4.6056170198242855E8 ; 2.922555139154737E10 ; 0.0
154 ; 3005085.5948749683 ; 2.0260872156346846E8 ; 4.635727277473357E8 ; 2.9428147382864597E10 ; 0.0
155 ; 3004117.236905257 ; 2.0262141785029244E8 ; 4.6657781334221065E8 ; 2.9630756104428066E10 ; 0.0
156 ; 2997323.9515958065 ; 2.0263407977287123E8 ; 4.695819305791159E8 ; 2.983337752227836E10 ; 0.0
157 ; 2993432.1211630027 ; 2.0264670693098876E8 ; 4.725792545307117E8 ; 3.003601160205123E10 ; 0.0
158 ; 2988890.0472426056 ; 2.0265929892893028E8 ; 4.755726866518747E8 ; 3.023865830898222E10 ; 0.0
159 ; 2982579.653308381 ; 2.026718553753764E8 ; 4.785615766991173E8 ; 3.0441317607911148E10 ; 0.0
160 ; 2981100.368791858 ; 2.0268437588330105E8 ; 4.815441563524257E8 ; 3.0643989463286526E10 ; 0.0
161 ; 2972207.3563374905 ; 2.0269686006987333E8 ; 4.845252567212176E8 ; 3.0846673839169827E10 ; 0.0
162 ; 2969423.539874359 ; 2.0270930755636257E8 ; 4.8749746407755506E8 ; 3.10493706992397E10 ; 0.0
163 ; 2965447.640515242 ; 2.0272171796804714E8 ; 4.9046688761742944E8 ; 3.1252080006796062E10 ; 0.0
164 ; 2963547.2927500396 ; 2.0273409093412647E8 ; 4.934323352579447E8 ; 3.145480172476411E10 ; 0.0
165 ; 2956760.4265043586 ; 2.0274642608763596E8 ; 4.9639588255069476E8 ; 3.165753581569824E10 ; 0.0
166 ; 2950331.7145133894 ; 2.0275872306536552E8 ; 4.9935264297719914E8 ; 3.1860282241785873E10 ; 0.0
167 ; 2945721.67092881 ; 2.027709815077803E8 ; 5.023029746917125E8 ; 3.206304096485124E10 ; 0.0
168 ; 2942010.7156958585 ; 2.0278320105894485E8 ; 5.0524869636264133E8 ; 3.226581194635902E10 ; 0.0
169 ; 2938496.363052317 ; 2.0279538136644953E8 ; 5.081907070783372E8 ; 3.2468595147417965E10 ; 0.0
170 ; 2929610.4613644793 ; 2.028075220813399E8 ; 5.111292034413895E8 ; 3.2671390528784416E10 ; 0.0
171 ; 2926018.5371973794 ; 2.028196228580482E8 ; 5.14058813902754E8 ; 3.2874198050865757E10 ; 0.0
172 ; 2922435.514494275 ; 2.028316833543276E8 ; 5.1698483243995136E8 ; 3.3077017673723804E10 ; 0.0
173 ; 2918303.624563124 ; 2.0284370323118845E8 ; 5.1990726795444566E8 ; 3.3279849357078133E10 ; 0.0
174 ; 2912114.534457152 ; 2.0285568215283704E8 ; 5.2282557157900876E8 ; 3.3482693060309322E10 ; 0.0
175 ; 2910641.842065311 ; 2.0286761978661627E8 ; 5.257376861134659E8 ; 3.368554874246216E10 ; 0.0
176 ; 2906957.412552318 ; 2.0287951580294845E8 ; 5.2864832795553124E8 ; 3.3888416362248775E10 ; 0.0
177 ; 2899953.8424391765 ; 2.0289136987528008E8 ; 5.3155528536808354E8 ; 3.4091295878051723E10 ; 0.0
178 ; 2900394.6967146043 ; 2.0290318168002865E8 ; 5.344552392105227E8 ; 3.4294187247927002E10 ; 0.0
179 ; 2896648.558095366 ; 2.0291495089653105E8 ; 5.373556339072373E8 ; 3.449709042960703E10 ; 0.0
180 ; 2895626.286922736 ; 2.0292667720699388E8 ; 5.402522824653326E8 ; 3.470000538050356E10 ; 0.0
181 ; 2890202.0347434427 ; 2.0293836029644558E8 ; 5.431479087522553E8 ; 3.4902932057710556E10 ; 0.0
182 ; 2885309.635712724 ; 2.0294999985268986E8 ; 5.460381107869987E8 ; 3.5105870418007E10 ; 0.0
183 ; 2884385.31007484 ; 2.0296159556626117E8 ; 5.489234204227115E8 ; 3.5308820417859695E10 ; 0.0
184 ; 2877204.5175646935 ; 2.029731471303812E8 ; 5.518078057327863E8 ; 3.551178201342596E10 ; 0.0
185 ; 2878508.8431128026 ; 2.029846542409173E8 ; 5.54685010250351E8 ; 3.5714755160556335E10 ; 0.0
186 ; 2872135.81715733 ; 2.0299611659634197E8 ; 5.575635190934638E8 ; 3.591773981479726E10 ; 0.0
187 ; 2871528.051770732 ; 2.0300753389769396E8 ; 5.604356549106212E8 ; 3.61207359313936E10 ; 0.0
188 ; 2863832.338929937 ; 2.0301890584854048E8 ; 5.633071829623919E8 ; 3.63237434652913E10 ; 0.0
189 ; 2867144.1745429095 ; 2.0303023215494087E8 ; 5.661710153013217E8 ; 3.652676237113984E10 ; 0.0
190 ; 2860976.055799117 ; 2.0304151252541137E8 ; 5.690381594758646E8 ; 3.672979260329478E10 ; 0.0
191 ; 2858840.1789633934 ; 2.0305274667089105E8 ; 5.718991355316638E8 ; 3.693283411582019E10 ; 0.0
192 ; 2852259.7562333997 ; 2.03063934304709E8 ; 5.747579757106272E8 ; 3.713588686249108E10 ; 0.0
193 ; 2849084.503575488 ; 2.0307507514255255E8 ; 5.776102354668607E8 ; 3.733895079679579E10 ; 0.0
194 ; 2844233.7424387396 ; 2.030861689024365E8 ; 5.804593199704361E8 ; 3.754202587193835E10 ; 0.0
195 ; 2843218.6886775303 ; 2.030972153046735E8 ; 5.833035537128749E8 ; 3.774511204084078E10 ; 0.0
196 ; 2836823.1791784535 ; 2.0310821407184523E8 ; 5.861467724015524E8 ; 3.7948209256145454E10 ; 0.0
197 ; 2836940.2846437576 ; 2.0311916492877477E8 ; 5.889835955807309E8 ; 3.81513174702173E10 ; 0.0
198 ; 2833000.3146008244 ; 2.0313006760249972E8 ; 5.918205358653747E8 ; 3.835443663514607E10 ; 0.0
199 ; 2829570.1304754014 ; 2.0314092182224616E8 ; 5.946535361799755E8 ; 3.855756670274857E10 ; 0.0
200 ; 2821940.096567909 ; 2.0315172731940374E8 ; 5.974831063104509E8 ; 3.8760707624570816E10 ; 0.0
