CSV File for the City 6 on Day 55
1 - Minute m 
2 - Power Consumed at minute m 
3 - Power Produced at minute m 
4 - Energy Consumed since the beginning of the day 
5 - Energy Produced since the beginning of the day 
6 - Energy Lost since the beginning of the day on lines starting from the city
 
0 ; 1.1119317321069501E7 ; 1.0580655670482132E8 ; 0.0 ; 0.0 ; 0.0
1 ; 1.112943229634908E7 ; 1.0595703779094642E8 ; 1.1119317321069501E7 ; 1.0580655670482132E8 ; 0.0
2 ; 1.1144193691414941E7 ; 1.0641654466844562E8 ; 2.224874961741858E7 ; 2.1176359449576774E8 ; 0.0
3 ; 1.1154887814280434E7 ; 1.0718508387091798E8 ; 3.339294330883352E7 ; 3.1818013916421336E8 ; 0.0
4 ; 1.1173654799026469E7 ; 1.0826266131234062E8 ; 4.454783112311395E7 ; 4.2536522303513134E8 ; 0.0
5 ; 1.1190642977238093E7 ; 1.0964928223507577E8 ; 5.572148592214042E7 ; 5.3362788434747195E8 ; 0.0
6 ; 1.1214705774516596E7 ; 1.1134495116231504E8 ; 6.691212889937851E7 ; 6.432771665825477E8 ; 0.0
7 ; 1.1258211757013127E7 ; 1.1334967185593092E8 ; 7.81268346738951E7 ; 7.546221177448627E8 ; 0.0
8 ; 1.1306921233795015E7 ; 1.1566344728062862E8 ; 8.938504643090823E7 ; 8.679717896007936E8 ; 0.0
9 ; 1.1387877850448461E7 ; 1.1828627957518381E8 ; 1.0069196766470325E8 ; 9.836352368814223E8 ; 0.0
10 ; 1.1517380612956136E7 ; 1.2121817003141296E8 ; 1.1207984551515171E8 ; 1.1019215164566061E9 ; 0.0
11 ; 1.1710239720039956E7 ; 1.2445911908135667E8 ; 1.2359722612810785E8 ; 1.223139686488019E9 ; 0.0
12 ; 1.2029926767884014E7 ; 1.2800912629297432E8 ; 1.353074658481478E8 ; 1.3475988055693758E9 ; 0.0
13 ; 1.2330862183852172E7 ; 1.3186819037444943E8 ; 1.4733739261603183E8 ; 1.47560793186235E9 ; 0.0
14 ; 1.2365895348164754E7 ; 1.360363091870064E8 ; 1.59668254799884E8 ; 1.6074761222367995E9 ; 0.0
15 ; 1.2381754052011658E7 ; 1.4051347976593995E8 ; 1.7203415014804876E8 ; 1.743512431423806E9 ; 0.0
16 ; 1.239580230699778E7 ; 1.4529969834937766E8 ; 1.8441590420006043E8 ; 1.884025911189746E9 ; 0.0
17 ; 1.2405544754357286E7 ; 1.5039496041412786E8 ; 1.968117065070582E8 ; 2.0293256095391235E9 ; 0.0
18 ; 1.2423164324479075E7 ; 1.5579926071782833E8 ; 2.0921725126141548E8 ; 2.1797205699532514E9 ; 0.0
19 ; 1.243890737536713E7 ; 1.6151259334650198E8 ; 2.2164041558589455E8 ; 2.3355198306710796E9 ; 0.0
20 ; 1.2451328801878056E7 ; 1.6753495176654968E8 ; 2.340793229612617E8 ; 2.4970324240175815E9 ; 0.0
21 ; 1.246625151865712E7 ; 1.7386632888016817E8 ; 2.4653065176313975E8 ; 2.664567375784131E9 ; 0.0
22 ; 1.24784224240909E7 ; 1.8050671708317375E8 ; 2.5899690328179687E8 ; 2.838433704664299E9 ; 0.0
23 ; 1.2495470484400226E7 ; 1.8745610832423097E8 ; 2.714753257058878E8 ; 3.018940421747473E9 ; 0.0
24 ; 1.2512475954577934E7 ; 1.9471449416453767E8 ; 2.83970796190288E8 ; 3.206396530071704E9 ; 0.0
25 ; 1.2525865696638227E7 ; 2.0096990673526946E8 ; 2.9648327214486593E8 ; 3.4011110242362413E9 ; 0.0
26 ; 1.2535363104647137E7 ; 2.0097588483252183E8 ; 3.0900913784150416E8 ; 3.602080930971511E9 ; 0.0
27 ; 1.255314626166781E7 ; 2.0098218849835515E8 ; 3.215445009461513E8 ; 3.803056815804033E9 ; 0.0
28 ; 1.2562061689922456E7 ; 2.009888083212209E8 ; 3.340976472078191E8 ; 4.004039004302388E9 ; 0.0
29 ; 1.2576296044006819E7 ; 2.0099573477990144E8 ; 3.4665970889774156E8 ; 4.205027812623609E9 ; 0.0
30 ; 1.2591591695591796E7 ; 2.0100295829088068E8 ; 3.592360049417484E8 ; 4.40602354740351E9 ; 0.0
31 ; 1.2602986571516918E7 ; 2.0101046925213167E8 ; 3.718275966373402E8 ; 4.607026505694391E9 ; 0.0
32 ; 1.2614076800273495E7 ; 2.0101825808315665E8 ; 3.844305832088571E8 ; 4.808036974946523E9 ; 0.0
33 ; 1.2628935436304066E7 ; 2.0102631526120183E8 ; 3.970446600091306E8 ; 5.009055233029679E9 ; 0.0
34 ; 1.2639527832025107E7 ; 2.0103463135364622E8 ; 4.096735954454347E8 ; 5.210081548290881E9 ; 0.0
35 ; 1.2653085956873229E7 ; 2.0104319704662672E8 ; 4.223131232774598E8 ; 5.411116179644527E9 ; 0.0
36 ; 1.26655455105136E7 ; 2.0105200317001674E8 ; 4.3496620923433304E8 ; 5.6121593766911545E9 ; 0.0
37 ; 1.2678261398457436E7 ; 2.0106104071891716E8 ; 4.4763175474484664E8 ; 5.813211379861171E9 ; 0.0
38 ; 1.2685320209086E7 ; 2.0107030087185138E8 ; 4.6031001614330405E8 ; 6.014272420580088E9 ; 0.0
39 ; 1.2696280377581252E7 ; 2.01079775005879E8 ; 4.7299533635239005E8 ; 6.215342721451939E9 ; 0.0
40 ; 1.2706491930200431E7 ; 2.0108945470885828E8 ; 4.856916167299713E8 ; 6.416422496457818E9 ; 0.0
41 ; 1.271550165507871E7 ; 2.0109933178909442E8 ; 4.9839810866017175E8 ; 6.6175119511666765E9 ; 0.0
42 ; 1.2722681216052815E7 ; 2.011093982826141E8 ; 5.1111361031525046E8 ; 6.8186112829557705E9 ; 0.0
43 ; 1.2731902413828205E7 ; 2.0111964645830226E8 ; 5.238362915313033E8 ; 7.019720681238384E9 ; 0.0
44 ; 1.2739473201391825E7 ; 2.0113006882113135E8 ; 5.365681939451315E8 ; 7.220840327696687E9 ; 0.0
45 ; 1.2742516379932279E7 ; 2.011406581137032E8 ; 5.493076671465234E8 ; 7.421970396517818E9 ; 0.0
46 ; 1.2748884345192391E7 ; 2.011514073163117E8 ; 5.620501835264556E8 ; 7.623111054631521E9 ; 0.0
47 ; 1.2758721004888475E7 ; 2.011623096457207E8 ; 5.747990678716481E8 ; 7.824262461947833E9 ; 0.0
48 ; 1.276025261747856E7 ; 2.01173358552838E8 ; 5.875577888765366E8 ; 8.025424771593554E9 ; 0.0
49 ; 1.276597984338371E7 ; 2.0118454771945056E8 ; 6.003180414940152E8 ; 8.226598130146392E9 ; 0.0
50 ; 1.276804100725442E7 ; 2.0119587105417225E8 ; 6.130840213373989E8 ; 8.427782677865843E9 ; 0.0
51 ; 1.2770525115506137E7 ; 2.012073226877399E8 ; 6.258520623446532E8 ; 8.628978548920015E9 ; 0.0
52 ; 1.2775150066987747E7 ; 2.012188969677806E8 ; 6.386225874601594E8 ; 8.830185871607756E9 ; 0.0
53 ; 1.2783634543587428E7 ; 2.0123058845315865E8 ; 6.513977375271472E8 ; 9.031404768575537E9 ; 0.0
54 ; 1.2784883680974437E7 ; 2.012423919079991E8 ; 6.641813720707346E8 ; 9.232635357028696E9 ; 0.0
55 ; 1.2786798552497286E7 ; 2.012543022954725E8 ; 6.769662557517091E8 ; 9.433877748936695E9 ; 0.0
56 ; 1.2789874290561512E7 ; 2.012663147714147E8 ; 6.897530543042064E8 ; 9.635132051232168E9 ; 0.0
57 ; 1.2792644148610868E7 ; 2.012784246778464E8 ; 7.025429285947679E8 ; 9.836398366003582E9 ; 0.0
58 ; 1.2792511050805904E7 ; 2.0129062753644723E8 ; 7.153355727433788E8 ; 1.0037676790681429E10 ; 0.0
59 ; 1.2799585063687604E7 ; 2.0130291904203182E8 ; 7.281280837941847E8 ; 1.0238967418217876E10 ; 0.0
60 ; 1.2802691943187667E7 ; 2.0131529505606776E8 ; 7.409276688578722E8 ; 1.0440270337259909E10 ; 0.0
61 ; 1.2800399689571902E7 ; 2.0132775160026878E8 ; 7.5373036080106E8 ; 1.0641585632315977E10 ; 0.0
62 ; 1.2802824782337401E7 ; 2.0134028485029125E8 ; 7.665307604906318E8 ; 1.0842913383916246E10 ; 0.0
63 ; 1.2809382725180384E7 ; 2.0135289112955624E8 ; 7.793335852729692E8 ; 1.1044253668766537E10 ; 0.0
64 ; 1.2811886035458148E7 ; 2.013655669032157E8 ; 7.921429679981496E8 ; 1.1245606559896093E10 ; 0.0
65 ; 1.2811436860482289E7 ; 2.0137830877227718E8 ; 8.049548540336077E8 ; 1.1446972126799309E10 ; 0.0
66 ; 1.28097493769118E7 ; 2.0139111346789768E8 ; 8.1776629089409E8 ; 1.1648350435571587E10 ; 0.0
67 ; 1.2814360651688004E7 ; 2.0140397784585544E8 ; 8.305760402710018E8 ; 1.1849741549039484E10 ; 0.0
68 ; 1.2816447019744448E7 ; 2.0141689888120446E8 ; 8.433904009226898E8 ; 1.205114552688534E10 ; 0.0
69 ; 1.281580227576753E7 ; 2.0142987366311574E8 ; 8.562068479424342E8 ; 1.2252562425766544E10 ; 0.0
70 ; 1.2817156728365023E7 ; 2.014428993899068E8 ; 8.690226502182018E8 ; 1.245399229942966E10 ; 0.0
71 ; 1.2818035392230889E7 ; 2.014559733642594E8 ; 8.818398069465668E8 ; 1.2655435198819567E10 ; 0.0
72 ; 1.2819719672894305E7 ; 2.014690929886244E8 ; 8.946578423387977E8 ; 1.2856891172183826E10 ; 0.0
73 ; 1.2822167889623787E7 ; 2.0148225576081172E8 ; 9.07477562011692E8 ; 1.3058360265172451E10 ; 0.0
74 ; 1.2822699408981953E7 ; 2.0149545926976195E8 ; 9.202997299013158E8 ; 1.3259842520933262E10 ; 0.0
75 ; 1.2822130879496986E7 ; 2.0150870119149607E8 ; 9.331224293102977E8 ; 1.3461337980203024E10 ; 0.0
76 ; 1.2826003847426085E7 ; 2.0152197928523898E8 ; 9.459445601897947E8 ; 1.366284668139452E10 ; 0.0
77 ; 1.282416284187413E7 ; 2.0153529138971174E8 ; 9.587705640372207E8 ; 1.3864368660679758E10 ; 0.0
78 ; 1.2820441709835002E7 ; 2.0154863541958785E8 ; 9.715947268790948E8 ; 1.406590395206947E10 ; 0.0
79 ; 1.2820153521399226E7 ; 2.0156200936210784E8 ; 9.844151685889299E8 ; 1.4267452587489058E10 ; 0.0
80 ; 1.2813104154373476E7 ; 2.0157541127384716E8 ; 9.972353221103292E8 ; 1.4469014596851166E10 ; 0.0
81 ; 1.2810115243952911E7 ; 2.0158883927763107E8 ; 1.0100484262647027E9 ; 1.4670590008125013E10 ; 0.0
82 ; 1.2805091362484304E7 ; 2.0160229155959174E8 ; 1.0228585415086555E9 ; 1.4872178847402645E10 ; 0.0
83 ; 1.2803247137651209E7 ; 2.016157663663613E8 ; 1.0356636328711399E9 ; 1.5073781138962236E10 ; 0.0
84 ; 1.27976050773654E7 ; 2.0162926200239557E8 ; 1.0484668800087911E9 ; 1.5275396905328598E10 ; 0.0
85 ; 1.2794793207320575E7 ; 2.016427768274232E8 ; 1.0612644850861565E9 ; 1.5477026167330994E10 ; 0.0
86 ; 1.2787186731367797E7 ; 2.016563092540142E8 ; 1.074059278293477E9 ; 1.5678668944158417E10 ; 0.0
87 ; 1.2784305902063813E7 ; 2.0166985774526337E8 ; 1.086846465024845E9 ; 1.5880325253412432E10 ; 0.0
88 ; 1.2780701284334699E7 ; 2.01683420812583E8 ; 1.0996307709269087E9 ; 1.6081995111157696E10 ; 0.0
89 ; 1.2776307973560706E7 ; 2.016969970135999E8 ; 1.1124114722112434E9 ; 1.628367853197028E10 ; 0.0
90 ; 1.2769351097363396E7 ; 2.017105849501525E8 ; 1.1251877801848042E9 ; 1.648537552898388E10 ; 0.0
91 ; 1.2767278632407358E7 ; 2.0172418326638255E8 ; 1.1379571312821677E9 ; 1.6687086113934032E10 ; 0.0
92 ; 1.2759818387206992E7 ; 2.017377906469177E8 ; 1.150724409914575E9 ; 1.6888810297200415E10 ; 0.0
93 ; 1.2752460054659277E7 ; 2.017514058151401E8 ; 1.1634842283017821E9 ; 1.7090548087847332E10 ; 0.0
94 ; 1.2748689728003921E7 ; 2.0176502753153744E8 ; 1.1762366883564415E9 ; 1.729229949366247E10 ; 0.0
95 ; 1.274438638956864E7 ; 2.0177865459213194E8 ; 1.1889853780844455E9 ; 1.7494064521194008E10 ; 0.0
96 ; 1.2736875749687139E7 ; 2.0179228582698378E8 ; 1.201729764474014E9 ; 1.769584317578614E10 ; 0.0
97 ; 1.2730326448479855E7 ; 2.018059200987656E8 ; 1.2144666402237012E9 ; 1.7897635461613125E10 ; 0.0
98 ; 1.272657045057229E7 ; 2.01819556301404E8 ; 1.2271969666721811E9 ; 1.809944138171189E10 ; 0.0
99 ; 1.2722522825573437E7 ; 2.0183319335878512E8 ; 1.2399235371227534E9 ; 1.8301260938013294E10 ; 0.0
100 ; 1.2718204849390857E7 ; 2.018468302235215E8 ; 1.2526460599483268E9 ; 1.8503094131372078E10 ; 0.0
101 ; 1.2709087897921717E7 ; 2.0186046587577623E8 ; 1.2653642647977176E9 ; 1.87049409615956E10 ; 0.0
102 ; 1.2699403686102552E7 ; 2.0187409932214275E8 ; 1.2780733526956394E9 ; 1.8906801427471375E10 ; 0.0
103 ; 1.2695220561727602E7 ; 2.0188772959457645E8 ; 1.290772756381742E9 ; 1.9108675526793518E10 ; 0.0
104 ; 1.2688056053840658E7 ; 2.019013557493764E8 ; 1.3034679769434695E9 ; 1.9310563256388096E10 ; 0.0
105 ; 1.2680565985666387E7 ; 2.0191497686621416E8 ; 1.3161560329973102E9 ; 1.9512464612137474E10 ; 0.0
106 ; 1.2674002080232263E7 ; 2.0192859204720756E8 ; 1.3288365989829764E9 ; 1.971437958900369E10 ; 0.0
107 ; 1.266746043682566E7 ; 2.0194220041603726E8 ; 1.3415106010632086E9 ; 1.9916308181050896E10 ; 0.0
108 ; 1.2660172693708967E7 ; 2.0195580111710382E8 ; 1.3541780615000343E9 ; 2.0118250381466934E10 ; 0.0
109 ; 1.2654151426696502E7 ; 2.0196939331472355E8 ; 1.3668382341937432E9 ; 2.0320206182584038E10 ; 0.0
110 ; 1.264641182739548E7 ; 2.0198297619236088E8 ; 1.3794923856204398E9 ; 2.052217557589876E10 ; 0.0
111 ; 1.2639320602958603E7 ; 2.0199654895189574E8 ; 1.3921387974478352E9 ; 2.072415855209112E10 ; 0.0
112 ; 1.2633045554949196E7 ; 2.0201011081292418E8 ; 1.404778118050794E9 ; 2.092615510104302E10 ; 0.0
113 ; 1.2623798249596797E7 ; 2.020236610120903E8 ; 1.4174111636057432E9 ; 2.112816521185594E10 ; 0.0
114 ; 1.26189693321209E7 ; 2.0203719880244866E8 ; 1.43003496185534E9 ; 2.133018887286803E10 ; 0.0
115 ; 1.261075816599E7 ; 2.0205072345285475E8 ; 1.442653931187461E9 ; 2.153222607167048E10 ; 0.0
116 ; 1.2598738396572575E7 ; 2.0206423424738288E8 ; 1.455264689353451E9 ; 2.1734276795123333E10 ; 0.0
117 ; 1.2592814553000798E7 ; 2.0207773048476997E8 ; 1.4678634277500236E9 ; 2.1936341029370716E10 ; 0.0
118 ; 1.2584419667120332E7 ; 2.020912114778838E8 ; 1.4804562423030243E9 ; 2.2138418759855488E10 ; 0.0
119 ; 1.257467682965572E7 ; 2.021046765532147E8 ; 1.4930406619701445E9 ; 2.234050997133337E10 ; 0.0
120 ; 1.2567065208827661E7 ; 2.0211812505038965E8 ; 1.5056153387998002E9 ; 2.2542614647886585E10 ; 0.0
121 ; 1.2557522333582338E7 ; 2.0213155632170737E8 ; 1.518182404008628E9 ; 2.2744732772936974E10 ; 0.0
122 ; 1.254798359221681E7 ; 2.0214496973169377E8 ; 1.5307399263422103E9 ; 2.2946864329258682E10 ; 0.0
123 ; 1.254108374991342E7 ; 2.0215836465667668E8 ; 1.543287909934427E9 ; 2.3149009298990376E10 ; 0.0
124 ; 1.253202604285787E7 ; 2.0217174048437878E8 ; 1.5558289936843405E9 ; 2.3351167663647053E10 ; 0.0
125 ; 1.252087351120533E7 ; 2.0218509661352804E8 ; 1.5683610197271984E9 ; 2.355333940413143E10 ; 0.0
126 ; 1.2515135778611727E7 ; 2.0219843245348486E8 ; 1.5808818932384038E9 ; 2.375552450074496E10 ; 0.0
127 ; 1.2504232020035205E7 ; 2.0221174742388493E8 ; 1.5933970290170155E9 ; 2.3957722933198444E10 ; 0.0
128 ; 1.2493237966854393E7 ; 2.0222504095429736E8 ; 1.6059012610370507E9 ; 2.415993468062233E10 ; 0.0
129 ; 1.2483683015013069E7 ; 2.022383124838972E8 ; 1.618394499003905E9 ; 2.4362159721576626E10 ; 0.0
130 ; 1.2472842947739802E7 ; 2.0225156146115145E8 ; 1.630878182018918E9 ; 2.4564398034060524E10 ; 0.0
131 ; 1.2459579850227157E7 ; 2.022647873435186E8 ; 1.6433510249666579E9 ; 2.4766649595521675E10 ; 0.0
132 ; 1.2447284480466645E7 ; 2.0227798959716046E8 ; 1.655810604816885E9 ; 2.4968914382865192E10 ; 0.0
133 ; 1.2431008075528113E7 ; 2.0229116769666567E8 ; 1.6682578892973516E9 ; 2.5171192372462353E10 ; 0.0
134 ; 1.2416079594136067E7 ; 2.023043211247852E8 ; 1.6806888973728797E9 ; 2.537348354015902E10 ; 0.0
135 ; 1.2399725271644376E7 ; 2.0231744937217808E8 ; 1.6931049769670157E9 ; 2.5575787861283806E10 ; 0.0
136 ; 1.2386183704548148E7 ; 2.0233055193716794E8 ; 1.70550470223866E9 ; 2.5778105310655983E10 ; 0.0
137 ; 1.2372675337376725E7 ; 2.0234362832550934E8 ; 1.7178908859432082E9 ; 2.598043586259315E10 ; 0.0
138 ; 1.2359627155378113E7 ; 2.0235667805016348E8 ; 1.730263561280585E9 ; 2.618277949091866E10 ; 0.0
139 ; 1.234704440954065E7 ; 2.02369700631083E8 ; 1.7426231884359632E9 ; 2.6385136168968822E10 ; 0.0
140 ; 1.2333693080013942E7 ; 2.0238269559500557E8 ; 1.7549702328455038E9 ; 2.6587505869599907E10 ; 0.0
141 ; 1.2315544130673649E7 ; 2.023956624752554E8 ; 1.7673039259255178E9 ; 2.6789888565194912E10 ; 0.0
142 ; 1.2301277564483415E7 ; 2.0240860081155303E8 ; 1.7796194700561914E9 ; 2.6992284227670166E10 ; 0.0
143 ; 1.2285594802417135E7 ; 2.024215101498325E8 ; 1.7919207476206748E9 ; 2.719469282848172E10 ; 0.0
144 ; 1.227105481309913E7 ; 2.0243439004206547E8 ; 1.804206342423092E9 ; 2.7397114338631554E10 ; 0.0
145 ; 1.2261221153047724E7 ; 2.0244724004609287E8 ; 1.816477397236191E9 ; 2.759954872867362E10 ; 0.0
146 ; 1.2249172975749081E7 ; 2.024600597254625E8 ; 1.8287386183892388E9 ; 2.780199596871971E10 ; 0.0
147 ; 1.2242577470938094E7 ; 2.0247284864927334E8 ; 1.8409877913649879E9 ; 2.8004456028445175E10 ; 0.0
148 ; 1.2225987182609463E7 ; 2.0248560639202583E8 ; 1.853230368835926E9 ; 2.8206928877094448E10 ; 0.0
149 ; 1.2217380141730528E7 ; 2.0249833253347784E8 ; 1.8654563560185356E9 ; 2.8409414483486473E10 ; 0.0
150 ; 1.2207970868040979E7 ; 2.025110266585063E8 ; 1.8776737361602662E9 ; 2.861191281601995E10 ; 0.0
151 ; 1.2193809682562059E7 ; 2.0252368835697407E8 ; 1.8898817070283072E9 ; 2.8814423842678455E10 ; 0.0
152 ; 1.2187585306195665E7 ; 2.0253631722360197E8 ; 1.9020755167108693E9 ; 2.901694753103543E10 ; 0.0
153 ; 1.2174786230796829E7 ; 2.0254891285784552E8 ; 1.914263102017065E9 ; 2.9219483848259033E10 ; 0.0
154 ; 1.2166556091894366E7 ; 2.0256147486377662E8 ; 1.9264378882478619E9 ; 2.942203276111688E10 ; 0.0
155 ; 1.215492509424318E7 ; 2.025740028499694E8 ; 1.9386044443397563E9 ; 2.9624594235980656E10 ; 0.0
156 ; 1.2140163159319298E7 ; 2.0258649642939052E8 ; 1.9507593694339995E9 ; 2.9827168238830624E10 ; 0.0
157 ; 1.2133448771871347E7 ; 2.025989552192936E8 ; 1.962899532593319E9 ; 3.0029754735260014E10 ; 0.0
158 ; 1.21194138235483E7 ; 2.0261137884111756E8 ; 1.9750329813651903E9 ; 3.023235369047931E10 ; 0.0
159 ; 1.2106211908124797E7 ; 2.0262376692038867E8 ; 1.9871523951887386E9 ; 3.0434965069320427E10 ; 0.0
160 ; 1.2094386897602983E7 ; 2.0263611908662638E8 ; 1.9992586070968633E9 ; 3.0637588836240814E10 ; 0.0
161 ; 1.2087831693323914E7 ; 2.0264843497325245E8 ; 2.0113529939944663E9 ; 3.0840224955327442E10 ; 0.0
162 ; 1.2074909121039137E7 ; 2.0266071421750352E8 ; 2.0234408256877902E9 ; 3.1042873390300694E10 ; 0.0
163 ; 1.206246287525017E7 ; 2.0267295646034697E8 ; 2.0355157348088293E9 ; 3.1245534104518196E10 ; 0.0
164 ; 1.205008911883388E7 ; 2.026851613463996E8 ; 2.0475781976840794E9 ; 3.1448207060978542E10 ; 0.0
165 ; 1.203987379736023E7 ; 2.026973285238497E8 ; 2.0596282868029132E9 ; 3.1650892222324944E10 ; 0.0
166 ; 1.2028033226945527E7 ; 2.027094576443813E8 ; 2.0716681606002734E9 ; 3.1853589550848793E10 ; 0.0
167 ; 1.2018535178525772E7 ; 2.0272154836310193E8 ; 2.083696193827219E9 ; 3.2056299008493176E10 ; 0.0
168 ; 1.2004176495604368E7 ; 2.0273360033847228E8 ; 2.0957147290057447E9 ; 3.2259020556856277E10 ; 0.0
169 ; 1.1994286965902861E7 ; 2.0274561323223895E8 ; 2.107718905501349E9 ; 3.2461754157194748E10 ; 0.0
170 ; 1.1984390966110494E7 ; 2.027575867093692E8 ; 2.1197131924672518E9 ; 3.2664499770426987E10 ; 0.0
171 ; 1.1970742040903023E7 ; 2.0276952043798825E8 ; 2.1316975834333622E9 ; 3.2867257357136356E10 ; 0.0
172 ; 1.1958550658964897E7 ; 2.0278141408931878E8 ; 2.1436683254742653E9 ; 3.3070026877574345E10 ; 0.0
173 ; 1.1944883147985928E7 ; 2.0279326733762252E8 ; 2.15562687613323E9 ; 3.3272808291663662E10 ; 0.0
174 ; 1.193776547010154E7 ; 2.0280507986014393E8 ; 2.167571759281216E9 ; 3.3475601559001286E10 ; 0.0
175 ; 1.1929880877696738E7 ; 2.02816851337056E8 ; 2.1795095247513175E9 ; 3.367840663886143E10 ; 0.0
176 ; 1.1925359970177403E7 ; 2.0282858145140764E8 ; 2.191439405629014E9 ; 3.3881223490198486E10 ; 0.0
177 ; 1.1916484073110078E7 ; 2.0284026988907328E8 ; 2.203364765599191E9 ; 3.4084052071649895E10 ; 0.0
178 ; 1.1911420335376037E7 ; 2.0285191633870408E8 ; 2.2152812496723013E9 ; 3.4286892341538967E10 ; 0.0
179 ; 1.1901422286768133E7 ; 2.0286352049168065E8 ; 2.2271926700076776E9 ; 3.448974425787767E10 ; 0.0
180 ; 1.1896511641370159E7 ; 2.0287508204206786E8 ; 2.2390940922944455E9 ; 3.4692607778369354E10 ; 0.0
181 ; 1.1889478073972052E7 ; 2.0288660068657076E8 ; 2.250990603935816E9 ; 3.489548286041142E10 ; 0.0
182 ; 1.1880712181930445E7 ; 2.0289807612449238E8 ; 2.262880082009788E9 ; 3.509836946109799E10 ; 0.0
183 ; 1.1876284618204858E7 ; 2.0290950805769277E8 ; 2.2747607941917186E9 ; 3.530126753722248E10 ; 0.0
184 ; 1.18678635688009E7 ; 2.0292089619054946E8 ; 2.2866370788099236E9 ; 3.5504177045280174E10 ; 0.0
185 ; 1.1862610184583578E7 ; 2.0293224022991955E8 ; 2.2985049423787246E9 ; 3.5707097941470726E10 ; 0.0
186 ; 1.1854313737835165E7 ; 2.0294353988510275E8 ; 2.3103675525633082E9 ; 3.5910030181700645E10 ; 0.0
187 ; 1.1848648497270474E7 ; 2.0295479486780587E8 ; 2.322221866301143E9 ; 3.611297372158575E10 ; 0.0
188 ; 1.1837138793611482E7 ; 2.0296600489210847E8 ; 2.3340705147984138E9 ; 3.631592851645355E10 ; 0.0
189 ; 1.1836696308021722E7 ; 2.029771696744298E8 ; 2.3459076535920253E9 ; 3.651889452134566E10 ; 0.0
190 ; 1.1823919413497003E7 ; 2.0298828893349677E8 ; 2.357744349900047E9 ; 3.672187169102009E10 ; 0.0
191 ; 1.1816364273479337E7 ; 2.0299936239031288E8 ; 2.369568269313544E9 ; 3.692485997995358E10 ; 0.0
192 ; 1.1808670479861688E7 ; 2.0301038976812857E8 ; 2.3813846335870233E9 ; 3.7127859342343895E10 ; 0.0
193 ; 1.1802157620226867E7 ; 2.0302137079241216E8 ; 2.393193304066885E9 ; 3.733086973211202E10 ; 0.0
194 ; 1.1796661698752992E7 ; 2.0303230519082206E8 ; 2.404995461687112E9 ; 3.7533891102904434E10 ; 0.0
195 ; 1.1793867836910686E7 ; 2.0304319269317985E8 ; 2.4167921233858647E9 ; 3.773692340809525E10 ; 0.0
