CSV File for the City 6 on Day 323
1 - Minute m 
2 - Power Consumed at minute m 
3 - Power Produced at minute m 
4 - Energy Consumed since the beginning of the day 
5 - Energy Produced since the beginning of the day 
6 - Energy Lost since the beginning of the day on lines starting from the city
 
0 ; 1.1255970873124175E7 ; 1.0667216869788274E8 ; 0.0 ; 0.0 ; 0.0
1 ; 1.126518776389117E7 ; 1.0682287570492458E8 ; 1.1255970873124175E7 ; 1.0667216869788274E8 ; 0.0
2 ; 1.1276877740789479E7 ; 1.0728259700352755E8 ; 2.2521158637015343E7 ; 2.1349504440280733E8 ; 0.0
3 ; 1.1294432987942016E7 ; 1.0805133525336975E8 ; 3.379803637780482E7 ; 3.207776414063349E8 ; 0.0
4 ; 1.131071687334967E7 ; 1.0912909282519877E8 ; 4.509246936574684E7 ; 4.288289766597046E8 ; 0.0
5 ; 1.1329757718660168E7 ; 1.1051587179209095E8 ; 5.640318623909651E7 ; 5.379580694849033E8 ; 0.0
6 ; 1.1354540180244278E7 ; 1.1221167392171243E8 ; 6.773294395775667E7 ; 6.484739412769942E8 ; 0.0
7 ; 1.1397103038194895E7 ; 1.1421650066964996E8 ; 7.908748413800095E7 ; 7.606856151987066E8 ; 0.0
8 ; 1.1446065266361443E7 ; 1.1653035317387009E8 ; 9.048458717619585E7 ; 8.749021158683566E8 ; 0.0
9 ; 1.1526517208726682E7 ; 1.191532322503568E8 ; 1.0193065244255729E8 ; 9.914324690422267E8 ; 0.0
10 ; 1.165395277192139E7 ; 1.2208513838996655E8 ; 1.1345716965128398E8 ; 1.1105857012925835E9 ; 0.0
11 ; 1.1853197390865095E7 ; 1.2532607175652966E8 ; 1.2511112242320538E8 ; 1.23267083968255E9 ; 0.0
12 ; 1.216860803313071E7 ; 1.2887603218621579E8 ; 1.3696431981407046E8 ; 1.3579969114390795E9 ; 0.0
13 ; 1.2472430605874112E7 ; 1.3273501918816847E8 ; 1.4913292784720117E8 ; 1.4868729436252954E9 ; 0.0
14 ; 1.2508978628897956E7 ; 1.369030319464038E8 ; 1.616053584530753E8 ; 1.619607962813464E9 ; 0.0
15 ; 1.2524635751999937E7 ; 1.4138006932295513E8 ; 1.7411433708197325E8 ; 1.7565109947598677E9 ; 0.0
16 ; 1.2539789107717011E7 ; 1.461661298622358E8 ; 1.866389728339732E8 ; 1.8978910640828228E9 ; 0.0
17 ; 1.2557335756439393E7 ; 1.5126121179657963E8 ; 1.991787619416902E8 ; 2.0440571939450586E9 ; 0.0
18 ; 1.2568581292549904E7 ; 1.5666531305291027E8 ; 2.117360976981296E8 ; 2.195318405741638E9 ; 0.0
19 ; 1.2586529567028893E7 ; 1.6237843126048014E8 ; 2.243046789906795E8 ; 2.3519837187945485E9 ; 0.0
20 ; 1.2600029440177873E7 ; 1.684005637596111E8 ; 2.3689120855770838E8 ; 2.5143621500550284E9 ; 0.0
21 ; 1.2619481725222485E7 ; 1.747317076113626E8 ; 2.4949123799788624E8 ; 2.6827627138146396E9 ; 0.0
22 ; 1.2631913740097001E7 ; 1.8137185960804588E8 ; 2.6211071972310874E8 ; 2.857494421426002E9 ; 0.0
23 ; 1.2648623189183597E7 ; 1.883210162844982E8 ; 2.7474263346320575E8 ; 3.038866281034048E9 ; 0.0
24 ; 1.2662682778620264E7 ; 1.955791739300264E8 ; 2.8739125665238935E8 ; 3.2271872973185463E9 ; 0.0
25 ; 1.2676679585400442E7 ; 2.0183436949911192E8 ; 3.000539394310096E8 ; 3.422766471248573E9 ; 0.0
26 ; 1.269249942111849E7 ; 2.0184014666131046E8 ; 3.1273061901641005E8 ; 3.624600840747685E9 ; 0.0
27 ; 1.2709716383915484E7 ; 2.018462703395484E8 ; 3.2542311843752855E8 ; 3.8264409874089956E9 ; 0.0
28 ; 1.272069532962445E7 ; 2.0185273597058347E8 ; 3.3813283482144403E8 ; 4.028287257748544E9 ; 0.0
29 ; 1.2735532460921213E7 ; 2.0185953881214225E8 ; 3.508535301510685E8 ; 4.2301399937191277E9 ; 0.0
30 ; 1.2749971183243733E7 ; 2.0186667395692807E8 ; 3.6358906261198974E8 ; 4.43199953253127E9 ; 0.0
31 ; 1.2766288970736576E7 ; 2.0187413634665892E8 ; 3.763390337952335E8 ; 4.633866206488198E9 ; 0.0
32 ; 1.2779736482271066E7 ; 2.0188192078605577E8 ; 3.8910532276597005E8 ; 4.835740342834857E9 ; 0.0
33 ; 1.278896041650895E7 ; 2.0189002195670566E8 ; 4.018850592482411E8 ; 5.037622263620913E9 ; 0.0
34 ; 1.280505886226613E7 ; 2.018984344307293E8 ; 4.146740196647501E8 ; 5.239512285577619E9 ; 0.0
35 ; 1.2819142184582336E7 ; 2.0190715268418998E8 ; 4.274790785270162E8 ; 5.4414107200083475E9 ; 0.0
36 ; 1.2832559465053719E7 ; 2.019161711101858E8 ; 4.402982207115986E8 ; 5.643317872692537E9 ; 0.0
37 ; 1.2842634701902267E7 ; 2.0192548403157365E8 ; 4.531307801766523E8 ; 5.845234043802723E9 ; 0.0
38 ; 1.2852792793248165E7 ; 2.0193508571328047E8 ; 4.659734148785546E8 ; 6.047159527834296E9 ; 0.0
39 ; 1.2865309346534831E7 ; 2.019449703741625E8 ; 4.7882620767180276E8 ; 6.249094613547577E9 ; 0.0
40 ; 1.2875420868598798E7 ; 2.0195513219838083E8 ; 4.916915170183376E8 ; 6.45103958392174E9 ; 0.0
41 ; 1.2883110551802509E7 ; 2.0196556534626624E8 ; 5.045669378869364E8 ; 6.65299471612012E9 ; 0.0
42 ; 1.2892436491366845E7 ; 2.0197626396465307E8 ; 5.1745004843873894E8 ; 6.854960281466386E9 ; 0.0
43 ; 1.290416541147327E7 ; 2.0198722219666687E8 ; 5.303424849301058E8 ; 7.056936545431039E9 ; 0.0
44 ; 1.2910964144015443E7 ; 2.0199843419095555E8 ; 5.432466503415791E8 ; 7.258923767627706E9 ; 0.0
45 ; 1.291930193034207E7 ; 2.0200989411035916E8 ; 5.561576144855945E8 ; 7.460922201818661E9 ; 0.0
46 ; 1.2927752060688222E7 ; 2.0202159614001682E8 ; 5.690769164159366E8 ; 7.66293209592902E9 ; 0.0
47 ; 1.2935460754456097E7 ; 2.0203353449491414E8 ; 5.820046684766248E8 ; 7.8649536920690365E9 ; 0.0
48 ; 1.2942152280897241E7 ; 2.0204570342687738E8 ; 5.949401292310809E8 ; 8.066987226563951E9 ; 0.0
49 ; 1.2945200319367837E7 ; 2.0205809723102406E8 ; 6.078822815119781E8 ; 8.269032929990828E9 ; 0.0
50 ; 1.2952509006207246E7 ; 2.020707102516822E8 ; 6.20827481831346E8 ; 8.471091027221851E9 ; 0.0
51 ; 1.2956567797784565E7 ; 2.020835368877931E8 ; 6.337799908375533E8 ; 8.673161737473534E9 ; 0.0
52 ; 1.2961618890159652E7 ; 2.0209657159781393E8 ; 6.467365586353378E8 ; 8.875245274361326E9 ; 0.0
53 ; 1.2962247878622359E7 ; 2.0210980890413868E8 ; 6.596981775254974E8 ; 9.07734184595914E9 ; 0.0
54 ; 1.2965844954180485E7 ; 2.0212324339705667E8 ; 6.726604254041198E8 ; 9.27945165486328E9 ; 0.0
55 ; 1.2972787947936868E7 ; 2.0213686973826957E8 ; 6.856262703583003E8 ; 9.481574898260336E9 ; 0.0
56 ; 1.2979758891392509E7 ; 2.0215068266398764E8 ; 6.985990583062372E8 ; 9.683711767998606E9 ; 0.0
57 ; 1.2983954987942195E7 ; 2.021646769876275E8 ; 7.115788171976297E8 ; 9.885862450662594E9 ; 0.0
58 ; 1.2991715111475518E7 ; 2.0217884760213265E8 ; 7.245627721855719E8 ; 1.008802712765022E10 ; 0.0
59 ; 1.2993141064284477E7 ; 2.0219318948193958E8 ; 7.375544872970474E8 ; 1.0290205975252354E10 ; 0.0
60 ; 1.2994251779904978E7 ; 2.0220769768461066E8 ; 7.505476283613318E8 ; 1.0492399164734293E10 ; 0.0
61 ; 1.2999201911099669E7 ; 2.0222236735215563E8 ; 7.635418801412368E8 ; 1.0694606862418903E10 ; 0.0
62 ; 1.3001398620535495E7 ; 2.022371937120631E8 ; 7.765410820523365E8 ; 1.0896829229771059E10 ; 0.0
63 ; 1.3007390927577337E7 ; 2.0225217207806242E8 ; 7.89542480672872E8 ; 1.1099066423483122E10 ; 0.0
64 ; 1.3007647696917266E7 ; 2.0226729785063595E8 ; 8.025498716004493E8 ; 1.1301318595561184E10 ; 0.0
65 ; 1.301485356357934E7 ; 2.0228256651730138E8 ; 8.155575192973666E8 ; 1.150358589341182E10 ; 0.0
66 ; 1.3016732646492707E7 ; 2.0229797365268248E8 ; 8.285723728609459E8 ; 1.1705868459929121E10 ; 0.0
67 ; 1.3019097606510757E7 ; 2.0231351491838622E8 ; 8.415891055074387E8 ; 1.1908166433581804E10 ; 0.0
68 ; 1.302367988227083E7 ; 2.023291860627032E8 ; 8.546082031139494E8 ; 1.211047994850019E10 ; 0.0
69 ; 1.3027614267193774E7 ; 2.0234498292014745E8 ; 8.676318829962202E8 ; 1.2312809134562895E10 ; 0.0
70 ; 1.3026081026975254E7 ; 2.0236090141085148E8 ; 8.80659497263414E8 ; 1.2515154117483042E10 ; 0.0
71 ; 1.303072999185836E7 ; 2.0237693753983015E8 ; 8.936855782903893E8 ; 1.2717515018893894E10 ; 0.0
72 ; 1.3035321804477794E7 ; 2.0239308739612782E8 ; 9.067163082822477E8 ; 1.2919891956433723E10 ; 0.0
73 ; 1.3035204137229312E7 ; 2.0240934715186107E8 ; 9.197516300867255E8 ; 1.3122285043829851E10 ; 0.0
74 ; 1.303871112413262E7 ; 2.0242571306116906E8 ; 9.327868342239548E8 ; 1.3324694390981712E10 ; 0.0
75 ; 1.3040926474852435E7 ; 2.0244218145908296E8 ; 9.458255453480874E8 ; 1.3527120104042881E10 ; 0.0
76 ; 1.3043212557316283E7 ; 2.0245874876032445E8 ; 9.588664718229399E8 ; 1.3729562285501965E10 ; 0.0
77 ; 1.304296363069692E7 ; 2.0247541145804325E8 ; 9.719096843802562E8 ; 1.393202103426229E10 ; 0.0
78 ; 1.3044455712672275E7 ; 2.0249216612250265E8 ; 9.849526480109531E8 ; 1.4134496445720333E10 ; 0.0
79 ; 1.3040765410149774E7 ; 2.0250900939972082E8 ; 9.979971037236253E8 ; 1.4336988611842836E10 ; 0.0
80 ; 1.303966047625418E7 ; 2.0252593801007634E8 ; 1.0110378691337751E9 ; 1.4539497621242558E10 ; 0.0
81 ; 1.3040732055438336E7 ; 2.025429487468842E8 ; 1.0240775296100293E9 ; 1.4742023559252634E10 ; 0.0
82 ; 1.3035740706223326E7 ; 2.0256003847494897E8 ; 1.0371182616654676E9 ; 1.4944566507999517E10 ; 0.0
83 ; 1.3033724602109725E7 ; 2.025772041291012E8 ; 1.050154002371691E9 ; 1.5147126546474466E10 ; 0.0
84 ; 1.3027893975381264E7 ; 2.0259444271272188E8 ; 1.0631877269738007E9 ; 1.5349703750603567E10 ; 0.0
85 ; 1.3026568634373544E7 ; 2.0261175129626048E8 ; 1.076215620949182E9 ; 1.555229819331629E10 ; 0.0
86 ; 1.3026102894633738E7 ; 2.0262912701575017E8 ; 1.0892421895835555E9 ; 1.575490994461255E10 ; 0.0
87 ; 1.3024868310006544E7 ; 2.0264656707132506E8 ; 1.1022682924781892E9 ; 1.5957539071628302E10 ; 0.0
88 ; 1.3021140554417301E7 ; 2.0266406872574216E8 ; 1.1152931607881958E9 ; 1.6160185638699627E10 ; 0.0
89 ; 1.301835168325853E7 ; 2.0268162930291194E8 ; 1.1283143013426132E9 ; 1.636284970742537E10 ; 0.0
90 ; 1.3013751648081308E7 ; 2.0269924618644E8 ; 1.1413326530258718E9 ; 1.6565531336728281E10 ; 0.0
91 ; 1.3008302178481016E7 ; 2.0271691681818244E8 ; 1.154346404673953E9 ; 1.676823058291472E10 ; 0.0
92 ; 1.301037078513586E7 ; 2.0273463869681713E8 ; 1.1673547068524342E9 ; 1.6970947499732903E10 ; 0.0
93 ; 1.3003326573291035E7 ; 2.02752409376433E8 ; 1.18036507763757E9 ; 1.717368213842972E10 ; 0.0
94 ; 1.3000404724616764E7 ; 2.027702264651389E8 ; 1.193368404210861E9 ; 1.7376434547806152E10 ; 0.0
95 ; 1.2995370071110424E7 ; 2.0278808762369365E8 ; 1.2063688089354777E9 ; 1.757920477427129E10 ; 0.0
96 ; 1.2994555847977623E7 ; 2.0280599056415817E8 ; 1.2193641790065882E9 ; 1.7781992861894985E10 ; 0.0
97 ; 1.2989506422417346E7 ; 2.0282393304857165E8 ; 1.2323587348545659E9 ; 1.7984798852459145E10 ; 0.0
98 ; 1.2985530915829835E7 ; 2.028419128876516E8 ; 1.2453482412769833E9 ; 1.8187622785507717E10 ; 0.0
99 ; 1.2985760004539518E7 ; 2.0285992793951908E8 ; 1.2583337721928132E9 ; 1.839046469839537E10 ; 0.0
100 ; 1.2978713863108177E7 ; 2.0287797610845003E8 ; 1.2713195321973526E9 ; 1.859332462633489E10 ; 0.0
101 ; 1.2974502887355346E7 ; 2.028960553436522E8 ; 1.2842982460604608E9 ; 1.879620260244334E10 ; 0.0
102 ; 1.2969363257258745E7 ; 2.02914163638069E8 ; 1.2972727489478161E9 ; 1.899909865778699E10 ; 0.0
103 ; 1.296305626895375E7 ; 2.0293229902721012E8 ; 1.3102421122050748E9 ; 1.920201282142506E10 ; 0.0
104 ; 1.2958151832037367E7 ; 2.0295045958800876E8 ; 1.3232051684740286E9 ; 1.940494512045227E10 ; 0.0
105 ; 1.2958394011309994E7 ; 2.02968643437706E8 ; 1.336163320306066E9 ; 1.960789558004028E10 ; 0.0
106 ; 1.2952304796147615E7 ; 2.029868487327621E8 ; 1.3491217143173761E9 ; 1.9810864223477985E10 ; 0.0
107 ; 1.2946866063735522E7 ; 2.0300507366779453E8 ; 1.3620740191135237E9 ; 2.0013851072210747E10 ; 0.0
108 ; 1.294419806343625E7 ; 2.0302331647454274E8 ; 1.3750208851772592E9 ; 2.021685614587854E10 ; 0.0
109 ; 1.2933713253058912E7 ; 2.0304157542085925E8 ; 1.3879650832406955E9 ; 2.0419879462353085E10 ; 0.0
110 ; 1.2931988146727268E7 ; 2.0305984880972707E8 ; 1.4008987964937544E9 ; 2.0622921037773945E10 ; 0.0
111 ; 1.2927686607014615E7 ; 2.0307813497830287E8 ; 1.4138307846404817E9 ; 2.082598088658367E10 ; 0.0
112 ; 1.2923078774082093E7 ; 2.0309643229698563E8 ; 1.4267584712474964E9 ; 2.1029059021561974E10 ; 0.0
113 ; 1.2916654146125464E7 ; 2.0311473916851074E8 ; 1.4396815500215786E9 ; 2.123215545385896E10 ; 0.0
114 ; 1.2911809709035672E7 ; 2.0313305402706844E8 ; 1.452598204167704E9 ; 2.143527019302747E10 ; 0.0
115 ; 1.2902700950815769E7 ; 2.031513753374468E8 ; 1.4655100138767397E9 ; 2.163840324705454E10 ; 0.0
116 ; 1.2894876275246715E7 ; 2.0316970159419867E8 ; 1.4784127148275554E9 ; 2.1841554622391987E10 ; 0.0
117 ; 1.289193752026472E7 ; 2.031880313208317E8 ; 1.491307591102802E9 ; 2.2044724323986187E10 ; 0.0
118 ; 1.2883427477751913E7 ; 2.032063630690217E8 ; 1.5041995286230667E9 ; 2.224791235530702E10 ; 0.0
119 ; 1.287955566993704E7 ; 2.0322469541784817E8 ; 1.5170829561008186E9 ; 2.245111871837604E10 ; 0.0
120 ; 1.2873949792219251E7 ; 2.0324302697305197E8 ; 1.5299625117707558E9 ; 2.2654343413793888E10 ; 0.0
121 ; 1.2864870853487795E7 ; 2.0326135636631417E8 ; 1.542836461562975E9 ; 2.285758644076694E10 ; 0.0
122 ; 1.286388882896662E7 ; 2.0327968225455636E8 ; 1.5557013324164627E9 ; 2.3060847797133255E10 ; 0.0
123 ; 1.2854297184613425E7 ; 2.0329800331926078E8 ; 1.5685652212454293E9 ; 2.326412747938781E10 ; 0.0
124 ; 1.2848912491934933E7 ; 2.033163182658109E8 ; 1.5814195184300427E9 ; 2.346742548270707E10 ; 0.0
125 ; 1.283769811842358E7 ; 2.033346258228514E8 ; 1.5942684309219778E9 ; 2.367074180097288E10 ; 0.0
126 ; 1.2833752532076202E7 ; 2.0335292474166662E8 ; 1.6071061290404012E9 ; 2.3874076426795734E10 ; 0.0
127 ; 1.2824264722063612E7 ; 2.0337121379557827E8 ; 1.6199398815724773E9 ; 2.40774293515374E10 ; 0.0
128 ; 1.2819627744986007E7 ; 2.0338949177936032E8 ; 1.632764146294541E9 ; 2.4280800565332977E10 ; 0.0
129 ; 1.281204443570431E7 ; 2.0340775750867188E8 ; 1.645583774039527E9 ; 2.448419005711234E10 ; 0.0
130 ; 1.280730936707383E7 ; 2.0342600981950697E8 ; 1.6583958184752312E9 ; 2.468759781462101E10 ; 0.0
131 ; 1.2789641397583751E7 ; 2.0344424756766063E8 ; 1.671203127842305E9 ; 2.4891023824440517E10 ; 0.0
132 ; 1.2781310273228873E7 ; 2.0346246962821135E8 ; 1.6839927692398887E9 ; 2.509446807200818E10 ; 0.0
133 ; 1.2767228953418545E7 ; 2.03480674895019E8 ; 1.6967740795131176E9 ; 2.529793054163639E10 ; 0.0
134 ; 1.2757099256405978E7 ; 2.034988622802379E8 ; 1.709541308466536E9 ; 2.550141121653141E10 ; 0.0
135 ; 1.274753431307964E7 ; 2.0351703071384484E8 ; 1.722298407722942E9 ; 2.570491007881165E10 ; 0.0
136 ; 1.2736248958023893E7 ; 2.035351791431809E8 ; 1.7350459420360217E9 ; 2.5908427109525494E10 ; 0.0
137 ; 1.2720665493327208E7 ; 2.035533065325078E8 ; 1.7477821909940455E9 ; 2.6111962288668674E10 ; 0.0
138 ; 1.2712347764277568E7 ; 2.0357141186257726E8 ; 1.7605028564873726E9 ; 2.6315515595201183E10 ; 0.0
139 ; 1.2696645644379955E7 ; 2.0358949413021362E8 ; 1.77321520425165E9 ; 2.651908700706376E10 ; 0.0
140 ; 1.268335508707903E7 ; 2.03607552347909E8 ; 1.78591184989603E9 ; 2.6722676501193974E10 ; 0.0
141 ; 1.2673779778221475E7 ; 2.0362558554343104E8 ; 1.798595204983109E9 ; 2.692628405354188E10 ; 0.0
142 ; 1.2662846160982748E7 ; 2.0364359275944227E8 ; 1.8112689847613304E9 ; 2.712990963908531E10 ; 0.0
143 ; 1.2648556413970893E7 ; 2.0366157305313113E8 ; 1.8239318309223132E9 ; 2.7333553231844753E10 ; 0.0
144 ; 1.2637981759691E7 ; 2.0367952549585444E8 ; 1.8365803873362842E9 ; 2.7537214804897884E10 ; 0.0
145 ; 1.2628368852682836E7 ; 2.036974491727903E8 ; 1.8492183690959752E9 ; 2.7740894330393738E10 ; 0.0
146 ; 1.2621543571449997E7 ; 2.0371534318260193E8 ; 1.861846737948658E9 ; 2.794459177956653E10 ; 0.0
147 ; 1.2616784649621764E7 ; 2.0373320663711157E8 ; 1.874468281520108E9 ; 2.814830712274913E10 ; 0.0
148 ; 1.2604676479233652E7 ; 2.0375103866098425E8 ; 1.8870850661697297E9 ; 2.8352040329386242E10 ; 0.0
149 ; 1.2597075201352408E7 ; 2.0376883839142108E8 ; 1.8996897426489635E9 ; 2.8555791368047226E10 ; 0.0
150 ; 1.2589104118804755E7 ; 2.0378660497786215E8 ; 1.9122868178503158E9 ; 2.875956020643865E10 ; 0.0
151 ; 1.2580970952944048E7 ; 2.0380433758169806E8 ; 1.9248759219691205E9 ; 2.896334681141651E10 ; 0.0
152 ; 1.2574225178388396E7 ; 2.0382203537599042E8 ; 1.9374568929220645E9 ; 2.916715114899821E10 ; 0.0
153 ; 1.256494578009277E7 ; 2.0383969754520062E8 ; 1.950031118100453E9 ; 2.9370973184374203E10 ; 0.0
154 ; 1.256070363998835E7 ; 2.0385732328492704E8 ; 1.9625960638805456E9 ; 2.9574812881919403E10 ; 0.0
155 ; 1.2550769064785032E7 ; 2.0387491180164996E8 ; 1.975156767520534E9 ; 2.977867020520433E10 ; 0.0
156 ; 1.2543204808117958E7 ; 2.038924623124843E8 ; 1.987707536585319E9 ; 2.998254511700598E10 ; 0.0
157 ; 1.2530582949835727E7 ; 2.0390997404493967E8 ; 2.000250741393437E9 ; 3.0186437579318466E10 ; 0.0
158 ; 1.2525977774542378E7 ; 2.0392744623668775E8 ; 2.0127813243432727E9 ; 3.0390347553363407E10 ; 0.0
159 ; 1.2515620761920918E7 ; 2.0394487813533673E8 ; 2.025307302117815E9 ; 3.0594274999600094E10 ; 0.0
160 ; 1.2506722330741389E7 ; 2.0396226899821222E8 ; 2.037822922879736E9 ; 3.079821987773543E10 ; 0.0
161 ; 1.2500107390005372E7 ; 2.0397961809214503E8 ; 2.0503296452104774E9 ; 3.1002182146733643E10 ; 0.0
162 ; 1.2487508748011515E7 ; 2.0399692469326517E8 ; 2.0628297526004827E9 ; 3.1206161764825787E10 ; 0.0
163 ; 1.248178392691092E7 ; 2.0401418808680198E8 ; 2.0753172613484943E9 ; 3.141015868951905E10 ; 0.0
164 ; 1.2469687641541097E7 ; 2.040314075668902E8 ; 2.0877990452754052E9 ; 3.1614172877605854E10 ; 0.0
165 ; 1.2464439231619779E7 ; 2.0404858243638206E8 ; 2.1002687329169462E9 ; 3.1818204285172745E10 ; 0.0
166 ; 1.2455228999703959E7 ; 2.0406571200666443E8 ; 2.112733172148566E9 ; 3.2022252867609127E10 ; 0.0
167 ; 1.2444110805155538E7 ; 2.04082795597482E8 ; 2.12518840114827E9 ; 3.222631857961579E10 ; 0.0
168 ; 1.243923864873102E7 ; 2.0409983253676534E8 ; 2.1376325119534254E9 ; 3.2430401375213272E10 ; 0.0
169 ; 1.2430801766045049E7 ; 2.041168221604641E8 ; 2.1500717506021566E9 ; 3.263450120775004E10 ; 0.0
170 ; 1.2420360015183026E7 ; 2.0413376381238517E8 ; 2.1625025523682017E9 ; 3.2838618029910503E10 ; 0.0
171 ; 1.2412558962360837E7 ; 2.0415065684403563E8 ; 2.1749229123833847E9 ; 3.304275179372289E10 ; 0.0
172 ; 1.2402809209842993E7 ; 2.0416750061447027E8 ; 2.1873354713457456E9 ; 3.3246902450566925E10 ; 0.0
173 ; 1.239668311959201E7 ; 2.0418429449014375E8 ; 2.1997382805555887E9 ; 3.3451069951181396E10 ; 0.0
174 ; 1.2375439296729747E7 ; 2.0420103784476668E8 ; 2.212134963675181E9 ; 3.365525424567154E10 ; 0.0
175 ; 1.2350792575465837E7 ; 2.0421773005916652E8 ; 2.2245104029719105E9 ; 3.3859455283516308E10 ; 0.0
176 ; 1.2325207794154886E7 ; 2.0423437052115205E8 ; 2.236861195547376E9 ; 3.4063673013575474E10 ; 0.0
177 ; 1.2308007336149067E7 ; 2.04250958625382E8 ; 2.2491864033415313E9 ; 3.4267907384096626E10 ; 0.0
178 ; 1.2281679701488145E7 ; 2.042674937732375E8 ; 2.2614944106776805E9 ; 3.447215834272201E10 ; 0.0
179 ; 1.2259307749498514E7 ; 2.0428397537269822E8 ; 2.2737760903791685E9 ; 3.467642583649525E10 ; 0.0
180 ; 1.2237209714505354E7 ; 2.043E8 ; 2.286035398128667E9 ; 3.488070981186794E10 ; 0.0
181 ; 1.221093569528323E7 ; 2.043E8 ; 2.298272607843172E9 ; 3.508500981186794E10 ; 0.0
182 ; 1.2194324225199334E7 ; 2.043E8 ; 2.3104835435384555E9 ; 3.528930981186794E10 ; 0.0
183 ; 1.2169059645268975E7 ; 2.043E8 ; 2.3226778677636547E9 ; 3.549360981186794E10 ; 0.0
184 ; 1.2149164879961804E7 ; 2.043E8 ; 2.3348469274089236E9 ; 3.569790981186794E10 ; 0.0
185 ; 1.2125030818831727E7 ; 2.043E8 ; 2.3469960922888856E9 ; 3.590220981186794E10 ; 0.0
186 ; 1.210261263591445E7 ; 2.043E8 ; 2.3591211231077175E9 ; 3.610650981186794E10 ; 0.0
187 ; 1.207857314510394E7 ; 2.043E8 ; 2.371223735743632E9 ; 3.631080981186794E10 ; 0.0
188 ; 1.2056108137928337E7 ; 2.043E8 ; 2.383302308888736E9 ; 3.651510981186794E10 ; 0.0
189 ; 1.203435454611537E7 ; 2.043E8 ; 2.3953584170266643E9 ; 3.671940981186794E10 ; 0.0
190 ; 1.201497738998936E7 ; 2.043E8 ; 2.4073927715727797E9 ; 3.692370981186794E10 ; 0.0
191 ; 1.1986990291381173E7 ; 2.043E8 ; 2.419407748962769E9 ; 3.712800981186794E10 ; 0.0
192 ; 1.1963281322461117E7 ; 2.043E8 ; 2.4313947392541504E9 ; 3.733230981186794E10 ; 0.0
193 ; 1.1945002052814113E7 ; 2.043E8 ; 2.4433580205766115E9 ; 3.753660981186794E10 ; 0.0
194 ; 1.1917305478649745E7 ; 2.043E8 ; 2.4553030226294255E9 ; 3.774090981186794E10 ; 0.0
195 ; 1.1896200974551871E7 ; 2.043E8 ; 2.467220328108075E9 ; 3.794520981186794E10 ; 0.0
196 ; 1.187404726049176E7 ; 2.043E8 ; 2.479116529082627E9 ; 3.814950981186794E10 ; 0.0
197 ; 1.185300690398151E7 ; 2.043E8 ; 2.4909905763431187E9 ; 3.835380981186794E10 ; 0.0
