CSV File for the City 6 on Day 43
1 - Minute m 
2 - Power Consumed at minute m 
3 - Power Produced at minute m 
4 - Energy Consumed since the beginning of the day 
5 - Energy Produced since the beginning of the day 
6 - Energy Lost since the beginning of the day on lines starting from the city
 
0 ; 1.1113106052663215E7 ; 1.0563803497170374E8 ; 0.0 ; 0.0 ; 0.0
1 ; 1.1128169103974722E7 ; 1.0578778614702374E8 ; 1.1113106052663215E7 ; 1.0563803497170374E8 ; 0.0
2 ; 1.113612863771041E7 ; 1.062466215605667E8 ; 2.2241275156637937E7 ; 2.1142582111872748E8 ; 0.0
3 ; 1.1151326164239457E7 ; 1.0701455332505882E8 ; 3.3377403794348344E7 ; 3.1767244267929417E8 ; 0.0
4 ; 1.1168054680305151E7 ; 1.0809159258188915E8 ; 4.45287299585878E7 ; 4.24686996004353E8 ; 0.0
5 ; 1.118429469191127E7 ; 1.0947774935049379E8 ; 5.5696784638892956E7 ; 5.3277858858624214E8 ; 0.0
6 ; 1.1212635802333528E7 ; 1.111730323856552E8 ; 6.688107933080423E7 ; 6.422563379367359E8 ; 0.0
7 ; 1.1250380625161223E7 ; 1.1317744904711962E8 ; 7.809371513313776E7 ; 7.53429370322391E8 ; 0.0
8 ; 1.1304400066817647E7 ; 1.1549100518583637E8 ; 8.9344095758299E7 ; 8.666068193695107E8 ; 0.0
9 ; 1.1386464218659375E7 ; 1.1811370505078858E8 ; 1.0064849582511663E8 ; 9.82097824555347E8 ; 0.0
10 ; 1.1509068338764366E7 ; 1.2104555121980613E8 ; 1.12034960043776E8 ; 1.1002115296061356E9 ; 0.0
11 ; 1.1706455008797335E7 ; 1.2428654455696145E8 ; 1.2354402838254037E8 ; 1.2212570808259418E9 ; 0.0
12 ; 1.2025017425075764E7 ; 1.2783668419818208E8 ; 1.3525048339133772E8 ; 1.3455436253829033E9 ; 0.0
13 ; 1.232640726468065E7 ; 1.3169596756563812E8 ; 1.472755008164135E8 ; 1.4733803095810854E9 ; 0.0
14 ; 1.2362639636707563E7 ; 1.3586439041034657E8 ; 1.5960190808109415E8 ; 1.6050762771467235E9 ; 0.0
15 ; 1.2374665601232873E7 ; 1.4034194688135797E8 ; 1.7196454771780172E8 ; 1.74094066755707E9 ; 0.0
16 ; 1.239130294783322E7 ; 1.451286296189262E8 ; 1.843392133190346E8 ; 1.881282614438428E9 ; 0.0
17 ; 1.2405961217453152E7 ; 1.502244298682687E8 ; 1.9673051626686782E8 ; 2.0264112440573542E9 ; 0.0
18 ; 1.2420792041643767E7 ; 1.556293376099494E8 ; 2.0913647748432097E8 ; 2.176635673925623E9 ; 0.0
19 ; 1.2433754016417421E7 ; 1.613433417025793E8 ; 2.2155726952596474E8 ; 2.3322650115355725E9 ; 0.0
20 ; 1.2449293979813693E7 ; 1.673664300334321E8 ; 2.3399102354238215E8 ; 2.493608353238152E9 ; 0.0
21 ; 1.2464391811403155E7 ; 1.7369858967269716E8 ; 2.4644031752219585E8 ; 2.660974783271584E9 ; 0.0
22 ; 1.2477261929066023E7 ; 1.8033980702740258E8 ; 2.58904709333599E8 ; 2.834673372944281E9 ; 0.0
23 ; 1.2491964610411203E7 ; 1.8729006799150044E8 ; 2.7138197126266503E8 ; 3.0150131799716835E9 ; 0.0
24 ; 1.2507732788270006E7 ; 1.945493580891559E8 ; 2.8387393587307626E8 ; 3.202303247963184E9 ; 0.0
25 ; 1.251979247797331E7 ; 2.008057035070739E8 ; 2.9638166866134626E8 ; 3.3968526060523396E9 ; 0.0
26 ; 1.253470856710602E7 ; 2.0081263725464782E8 ; 3.0890146113931954E8 ; 3.5976583095594134E9 ; 0.0
27 ; 1.2546591071047686E7 ; 2.0081991380007106E8 ; 3.2143616970642555E8 ; 3.798470946814061E9 ; 0.0
28 ; 1.2562980640592908E7 ; 2.0082751841564673E8 ; 3.339827607774732E8 ; 3.9992908606141324E9 ; 0.0
29 ; 1.2575388541697592E7 ; 2.00835436556736E8 ; 3.4654574141806614E8 ; 4.200118379029779E9 ; 0.0
30 ; 1.2588495123302732E7 ; 2.0084365393484652E8 ; 3.5912112995976377E8 ; 4.400953815586515E9 ; 0.0
31 ; 1.2602046624484634E7 ; 2.008521565786279E8 ; 3.717096250830665E8 ; 4.601797469521362E9 ; 0.0
32 ; 1.2615183227620147E7 ; 2.0086093088351935E8 ; 3.843116717075512E8 ; 4.80264962609999E9 ; 0.0
33 ; 1.2628784851026531E7 ; 2.0086996365094906E8 ; 3.969268549351713E8 ; 5.003510556983509E9 ; 0.0
34 ; 1.2640136726140963E7 ; 2.0087924211807698E8 ; 4.0955563978619784E8 ; 5.204380520634459E9 ; 0.0
35 ; 1.26529355709136E7 ; 2.008887539791122E8 ; 4.221957765123388E8 ; 5.405259762752536E9 ; 0.0
36 ; 1.2662967974365607E7 ; 2.0089848739923754E8 ; 4.3484871208325243E8 ; 5.606148516731648E9 ; 0.0
37 ; 1.2676665805099161E7 ; 2.009084310221408E8 ; 4.47511680057618E8 ; 5.807047004130886E9 ; 0.0
38 ; 1.2683524675301855E7 ; 2.009185739720992E8 ; 4.601883458627172E8 ; 6.007955435153027E9 ; 0.0
39 ; 1.2695290929000804E7 ; 2.0092890585149354E8 ; 4.7287187053801906E8 ; 6.208874009125126E9 ; 0.0
40 ; 1.2702509918537185E7 ; 2.0093941673455036E8 ; 4.8556716146701986E8 ; 6.40980291497662E9 ; 0.0
41 ; 1.2714217010271683E7 ; 2.009500971580291E8 ; 4.9826967138555706E8 ; 6.61074233171117E9 ; 0.0
42 ; 1.272230298072187E7 ; 2.0096093810948753E8 ; 5.109838883958287E8 ; 6.8116924288692E9 ; 0.0
43 ; 1.2731912433224654E7 ; 2.0097193101367941E8 ; 5.237061913765506E8 ; 7.012653366978687E9 ; 0.0
44 ; 1.273954869297273E7 ; 2.0098306771756324E8 ; 5.364381038097753E8 ; 7.213625297992367E9 ; 0.0
45 ; 1.2745749375850689E7 ; 2.0099434047432998E8 ; 5.49177652502748E8 ; 7.41460836570993E9 ; 0.0
46 ; 1.2751671617158867E7 ; 2.010057419267947E8 ; 5.619234018785987E8 ; 7.61560270618426E9 ; 0.0
47 ; 1.2755802618279573E7 ; 2.0101726509044027E8 ; 5.746750734957576E8 ; 7.816608448111055E9 ; 0.0
48 ; 1.2760586655356644E7 ; 2.010289033363496E8 ; 5.874308761140372E8 ; 8.017625713201496E9 ; 0.0
49 ; 1.2768586931547306E7 ; 2.0104065037422004E8 ; 6.001914627693938E8 ; 8.218654616537846E9 ; 0.0
50 ; 1.2768657678571125E7 ; 2.0105250023561427E8 ; 6.129600497009411E8 ; 8.4196952669120655E9 ; 0.0
51 ; 1.2773932522382185E7 ; 2.010644472575692E8 ; 6.257287073795122E8 ; 8.62074776714768E9 ; 0.0
52 ; 1.2776528653398165E7 ; 2.010764860666566E8 ; 6.385026399018943E8 ; 8.821812214405249E9 ; 0.0
53 ; 1.2780832449589023E7 ; 2.0108861156356555E8 ; 6.512791685552925E8 ; 9.022888700471905E9 ; 0.0
54 ; 1.2781810637544407E7 ; 2.0110081890825623E8 ; 6.640600010048815E8 ; 9.223977312035471E9 ; 0.0
55 ; 1.278788905856489E7 ; 2.011131035057195E8 ; 6.768418116424259E8 ; 9.425078130943727E9 ; 0.0
56 ; 1.279296484113822E7 ; 2.0112546099236196E8 ; 6.896297007009908E8 ; 9.626191234449448E9 ; 0.0
57 ; 1.2791410895730909E7 ; 2.011378872230256E8 ; 7.02422665542129E8 ; 9.827316695441809E9 ; 0.0
58 ; 1.279335457954385E7 ; 2.0115037825864297E8 ; 7.152140764378599E8 ; 1.0028454582664835E10 ; 0.0
59 ; 1.279682757884215E7 ; 2.01162930354521E8 ; 7.280074310174037E8 ; 1.0229604960923477E10 ; 0.0
60 ; 1.279817001900345E7 ; 2.0117553994924104E8 ; 7.408042585962459E8 ; 1.0430767891277998E10 ; 0.0
61 ; 1.2805058080795588E7 ; 2.011882036541596E8 ; 7.536024286152494E8 ; 1.063194343122724E10 ; 0.0
62 ; 1.2808414209661985E7 ; 2.0120091824349007E8 ; 7.66407486696045E8 ; 1.08331316348814E10 ; 0.0
63 ; 1.2805299807389269E7 ; 2.0121368064494368E8 ; 7.79215900905707E8 ; 1.103433255312489E10 ; 0.0
64 ; 1.2808107412623908E7 ; 2.0122648793090734E8 ; 7.920212007130963E8 ; 1.1235546233769833E10 ; 0.0
65 ; 1.2811366558252906E7 ; 2.0123933731013337E8 ; 8.048293081257201E8 ; 1.143677272170074E10 ; 0.0
66 ; 1.2811297385695996E7 ; 2.0125222611991778E8 ; 8.176406746839731E8 ; 1.1638012059010874E10 ; 0.0
67 ; 1.2813705231579097E7 ; 2.0126515181874186E8 ; 8.304519720696691E8 ; 1.183926428513079E10 ; 0.0
68 ; 1.2816780323029013E7 ; 2.0127811197935313E8 ; 8.432656773012482E8 ; 1.2040529436949533E10 ; 0.0
69 ; 1.2819495301535998E7 ; 2.0129110428226182E8 ; 8.560824576242772E8 ; 1.2241807548928886E10 ; 0.0
70 ; 1.2817977339929398E7 ; 2.0130412650962967E8 ; 8.689019529258132E8 ; 1.2443098653211147E10 ; 0.0
71 ; 1.2820199272416474E7 ; 2.013171765395288E8 ; 8.817199302657425E8 ; 1.2644402779720778E10 ; 0.0
72 ; 1.281884848230707E7 ; 2.013302523405486E8 ; 8.94540129538159E8 ; 1.2845719956260305E10 ; 0.0
73 ; 1.281877260771037E7 ; 2.0134335196673098E8 ; 9.073589780204661E8 ; 1.3047050208600855E10 ; 0.0
74 ; 1.2824136979857417E7 ; 2.0135647355281284E8 ; 9.201777506281765E8 ; 1.3248393560567585E10 ; 0.0
75 ; 1.2821929143578738E7 ; 2.013696153097586E8 ; 9.330018876080339E8 ; 1.3449750034120398E10 ; 0.0
76 ; 1.2821018549962858E7 ; 2.0138277552056363E8 ; 9.458238167516127E8 ; 1.3651119649430157E10 ; 0.0
77 ; 1.2819440507787298E7 ; 2.013959525363127E8 ; 9.586448353015755E8 ; 1.385250242495072E10 ; 0.0
78 ; 1.2820725773944283E7 ; 2.014091447724772E8 ; 9.714642758093629E8 ; 1.4053898377487032E10 ; 0.0
79 ; 1.2816009076648148E7 ; 2.0142235070543614E8 ; 9.842850015833071E8 ; 1.425530752225951E10 ; 0.0
80 ; 1.2811592527623191E7 ; 2.014355688692069E8 ; 9.971010106599553E8 ; 1.4456729872964947E10 ; 0.0
81 ; 1.2806656340622233E7 ; 2.0144879785237256E8 ; 1.0099126031875784E9 ; 1.4658165441834154E10 ; 0.0
82 ; 1.2802974950238263E7 ; 2.014620362951932E8 ; 1.0227192595282006E9 ; 1.4859614239686527E10 ; 0.0
83 ; 1.2797353415334212E7 ; 2.014752828868898E8 ; 1.0355222344784389E9 ; 1.506107627598172E10 ; 0.0
84 ; 1.2793876562428856E7 ; 2.0148853636308935E8 ; 1.0483195878937731E9 ; 1.526255155886861E10 ; 0.0
85 ; 1.2789796482740005E7 ; 2.0150179550342155E8 ; 1.0611134644562019E9 ; 1.5464040095231699E10 ; 0.0
86 ; 1.2788898490990166E7 ; 2.0151505912925678E8 ; 1.073903260938942E9 ; 1.566554189073512E10 ; 0.0
87 ; 1.2785647378838297E7 ; 2.0152832610157722E8 ; 1.086692159429932E9 ; 1.5867056949864378E10 ; 0.0
88 ; 1.2776980254182536E7 ; 2.0154159531897166E8 ; 1.0994778068087704E9 ; 1.6068585275965956E10 ; 0.0
89 ; 1.2772083944683889E7 ; 2.0155486571574754E8 ; 1.112254787062953E9 ; 1.6270126871284927E10 ; 0.0
90 ; 1.2769097137305055E7 ; 2.0156813626015136E8 ; 1.1250268710076368E9 ; 1.6471681737000675E10 ; 0.0
91 ; 1.2762523416907346E7 ; 2.01581405952692E8 ; 1.1377959681449418E9 ; 1.6673249873260826E10 ; 0.0
92 ; 1.2756073809553651E7 ; 2.015946738245595E8 ; 1.150558491561849E9 ; 1.6874831279213518E10 ; 0.0
93 ; 1.2752969573546648E7 ; 2.0160793893613398E8 ; 1.1633145653714027E9 ; 1.7076425953038078E10 ; 0.0
94 ; 1.2747732395826677E7 ; 2.0162120037557876E8 ; 1.1760675349449494E9 ; 1.7278033891974213E10 ; 0.0
95 ; 1.2741188271644777E7 ; 2.0163445725751257E8 ; 1.188815267340776E9 ; 1.7479655092349792E10 ; 0.0
96 ; 1.2735126435789768E7 ; 2.016477087217561E8 ; 1.2015564556124208E9 ; 1.7681289549607304E10 ; 0.0
97 ; 1.273056081753606E7 ; 2.016609539321481E8 ; 1.2142915820482106E9 ; 1.788293725832906E10 ; 0.0
98 ; 1.2722031077932965E7 ; 2.0167419207542682E8 ; 1.2270221428657467E9 ; 1.8084598212261208E10 ; 0.0
99 ; 1.2720569039264968E7 ; 2.016874223601731E8 ; 1.2397441739436798E9 ; 1.8286272404336636E10 ; 0.0
100 ; 1.2709518831408182E7 ; 2.0170064401581085E8 ; 1.2524647429829447E9 ; 1.8487959826696808E10 ; 0.0
101 ; 1.2706703940197062E7 ; 2.0171385629166198E8 ; 1.265174261814353E9 ; 1.868966047071262E10 ; 0.0
102 ; 1.2698626807848768E7 ; 2.017270584560522E8 ; 1.27788096575455E9 ; 1.889137432700428E10 ; 0.0
103 ; 1.2693287088107606E7 ; 2.0174024979546487E8 ; 1.2905795925623987E9 ; 1.909310138546033E10 ; 0.0
104 ; 1.268308146166793E7 ; 2.017534296137396E8 ; 1.3032728796505063E9 ; 1.9294841635255795E10 ; 0.0
105 ; 1.2675050019084226E7 ; 2.0176659723131362E8 ; 1.3159559611121743E9 ; 1.9496595064869534E10 ; 0.0
106 ; 1.2672821767782964E7 ; 2.017797519845029E8 ; 1.3286310111312585E9 ; 1.9698361662100845E10 ; 0.0
107 ; 1.2665534471638069E7 ; 2.0179289322482094E8 ; 1.3413038328990414E9 ; 1.990014141408535E10 ; 0.0
108 ; 1.2657256612118889E7 ; 2.018060203183328E8 ; 1.3539693673706794E9 ; 2.010193430731017E10 ; 0.0
109 ; 1.2647735521128494E7 ; 2.018191326450426E8 ; 1.3666266239827983E9 ; 2.03037403276285E10 ; 0.0
110 ; 1.2639795880901193E7 ; 2.018322295983126E8 ; 1.3792743595039268E9 ; 2.0505559460273544E10 ; 0.0
111 ; 1.2631362897211222E7 ; 2.0184531058431157E8 ; 1.3919141553848279E9 ; 2.0707391689871857E10 ; 0.0
112 ; 1.2627049100114357E7 ; 2.0185837502149147E8 ; 1.4045455182820392E9 ; 2.090923700045617E10 ; 0.0
113 ; 1.261583193264672E7 ; 2.0187142234009022E8 ; 1.4171725673821535E9 ; 2.111109537547766E10 ; 0.0
114 ; 1.2609926386444936E7 ; 2.018844519816596E8 ; 1.4297883993148003E9 ; 2.1312966797817753E10 ; 0.0
115 ; 1.2602650152723081E7 ; 2.0189746339861646E8 ; 1.4423983257012453E9 ; 2.151485124979941E10 ; 0.0
116 ; 1.2594595269330667E7 ; 2.019104560538163E8 ; 1.4550009758539684E9 ; 2.171674871319803E10 ; 0.0
117 ; 1.2585860241867173E7 ; 2.0192342942014766E8 ; 1.4675955711232991E9 ; 2.1918659169251846E10 ; 0.0
118 ; 1.2574464098622644E7 ; 2.019363829801464E8 ; 1.4801814313651662E9 ; 2.2120582598671993E10 ; 0.0
119 ; 1.2564980326651318E7 ; 2.0194931622562882E8 ; 1.4927558954637887E9 ; 2.2322518981652138E10 ; 0.0
120 ; 1.256125973471149E7 ; 2.0196222865734226E8 ; 1.50532087579044E9 ; 2.2524468297877766E10 ; 0.0
121 ; 1.2549411953531133E7 ; 2.019751197846327E8 ; 1.5178821355251515E9 ; 2.2726430526535107E10 ; 0.0
122 ; 1.254512795882547E7 ; 2.0198798912512815E8 ; 1.5304315474786825E9 ; 2.292840564631974E10 ; 0.0
123 ; 1.2530079672403954E7 ; 2.0200083620443696E8 ; 1.542976675437508E9 ; 2.313039363544487E10 ; 0.0
124 ; 1.252382760774732E7 ; 2.0201366055586052E8 ; 1.5555067551099122E9 ; 2.3332394471649307E10 ; 0.0
125 ; 1.2509109513310213E7 ; 2.0202646172011933E8 ; 1.5680305827176595E9 ; 2.353440813220517E10 ; 0.0
126 ; 1.2502353622346025E7 ; 2.0203923924509183E8 ; 1.5805396922309697E9 ; 2.373643459392529E10 ; 0.0
127 ; 1.2494035287225513E7 ; 2.020519926855654E8 ; 1.5930420458533156E9 ; 2.393847383317038E10 ; 0.0
128 ; 1.2486644799270242E7 ; 2.0206472160299894E8 ; 1.605536081140541E9 ; 2.4140525825855946E10 ; 0.0
129 ; 1.2474698917527782E7 ; 2.0207742556529588E8 ; 1.6180227259398112E9 ; 2.4342590547458946E10 ; 0.0
130 ; 1.24634252554978E7 ; 2.0209010414658824E8 ; 1.630497424857339E9 ; 2.4544667973024242E10 ; 0.0
131 ; 1.2448315640460202E7 ; 2.0210275692702976E8 ; 1.6429608501128366E9 ; 2.474675807717083E10 ; 0.0
132 ; 1.243639761377005E7 ; 2.0211538349259898E8 ; 1.6554091657532969E9 ; 2.494886083409786E10 ; 0.0
133 ; 1.2422619358681256E7 ; 2.0212798343491068E8 ; 1.6678455633670669E9 ; 2.5150976217590458E10 ; 0.0
134 ; 1.2403770446667083E7 ; 2.0214055635103598E8 ; 1.680268182725748E9 ; 2.5353104201025368E10 ; 0.0
135 ; 1.2392610754382424E7 ; 2.021531018433303E8 ; 1.6926719531724153E9 ; 2.5555244757376404E10 ; 0.0
136 ; 1.2378660498638585E7 ; 2.0216561951926908E8 ; 1.7050645639267976E9 ; 2.5757397859219734E10 ; 0.0
137 ; 1.2363297590278132E7 ; 2.0217810899129048E8 ; 1.7174432244254363E9 ; 2.5959563478739002E10 ; 0.0
138 ; 1.234604827566769E7 ; 2.0219056987664512E8 ; 1.7298065220157144E9 ; 2.6161741587730293E10 ; 0.0
139 ; 1.2332209450251294E7 ; 2.022030017972523E8 ; 1.742152570291382E9 ; 2.6363932157606937E10 ; 0.0
140 ; 1.2317380203479756E7 ; 2.0221540437956244E8 ; 1.7544847797416334E9 ; 2.656613515940419E10 ; 0.0
141 ; 1.2301585829201901E7 ; 2.022277772544254E8 ; 1.7668021599451132E9 ; 2.6768350563783752E10 ; 0.0
142 ; 1.2287486279789196E7 ; 2.0224012005696455E8 ; 1.779103745774315E9 ; 2.6970578341038177E10 ; 0.0
143 ; 1.2272907376113081E7 ; 2.0225243242645597E8 ; 1.7913912320541043E9 ; 2.7172818461095142E10 ; 0.0
144 ; 1.225456621860475E7 ; 2.0226471400621313E8 ; 1.8036641394302175E9 ; 2.73750708935216E10 ; 0.0
145 ; 1.224618842292169E7 ; 2.0227696444347605E8 ; 1.8159187056488223E9 ; 2.7577335607527813E10 ; 0.0
146 ; 1.2233188096917184E7 ; 2.0228918338930547E8 ; 1.828164894071744E9 ; 2.777961257197129E10 ; 0.0
147 ; 1.2222218252057828E7 ; 2.0230137049848115E8 ; 1.840398082168661E9 ; 2.7981901755360596E10 ; 0.0
148 ; 1.2210620087690074E7 ; 2.0231352542940456E8 ; 1.852620300420719E9 ; 2.8184203125859077E10 ; 0.0
149 ; 1.2203736485569723E7 ; 2.0232564784400567E8 ; 1.864830920508409E9 ; 2.8386516651288483E10 ; 0.0
150 ; 1.219145842269374E7 ; 2.0233773740765336E8 ; 1.8770346569939787E9 ; 2.858884229913249E10 ; 0.0
151 ; 1.2179800623933641E7 ; 2.0234979378906974E8 ; 1.8892261154166725E9 ; 2.8791180036540142E10 ; 0.0
152 ; 1.216890277764911E7 ; 2.0236181666024783E8 ; 1.901405916040606E9 ; 2.8993529830329212E10 ; 0.0
153 ; 1.2158208526174594E7 ; 2.023738056963727E8 ; 1.9135748188182552E9 ; 2.919589164698946E10 ; 0.0
154 ; 1.2144301112940226E7 ; 2.0238576057574567E8 ; 1.9257330273444297E9 ; 2.9398265452685833E10 ; 0.0
155 ; 1.2138828046661869E7 ; 2.023976809797118E8 ; 1.93787732845737E9 ; 2.9600651213261578E10 ; 0.0
156 ; 1.2122662690229163E7 ; 2.0240956659259E8 ; 1.950016156504032E9 ; 2.980304889424129E10 ; 0.0
157 ; 1.2113628383809939E7 ; 2.0242141710160628E8 ; 1.962138819194261E9 ; 3.000545846083388E10 ; 0.0
158 ; 1.2098950550603028E7 ; 2.0243323219682935E8 ; 1.974252447578071E9 ; 3.0207879877935486E10 ; 0.0
159 ; 1.2087666180573618E7 ; 2.0244501157110903E8 ; 1.986351398128674E9 ; 3.0410313110132317E10 ; 0.0
160 ; 1.2076945264283782E7 ; 2.0245675492001694E8 ; 1.9984390643092477E9 ; 3.0612758121703426E10 ; 0.0
161 ; 1.2065120079381308E7 ; 2.0246846194178966E8 ; 2.0105160095735316E9 ; 3.0815214876623444E10 ; 0.0
162 ; 1.2052418198378349E7 ; 2.0248013233727404E8 ; 2.0225811296529129E9 ; 3.1017683338565235E10 ; 0.0
163 ; 1.2043495373606747E7 ; 2.0249176580987474E8 ; 2.0346335478512912E9 ; 3.1220163470902508E10 ; 0.0
164 ; 1.2032723300315257E7 ; 2.0250336206550366E8 ; 2.0466770432248979E9 ; 3.1422655236712383E10 ; 0.0
165 ; 1.2020738816068353E7 ; 2.0251492081253162E8 ; 2.058709766525213E9 ; 3.1625158598777885E10 ; 0.0
166 ; 1.2005795662830357E7 ; 2.025264417617417E8 ; 2.0707305053412814E9 ; 3.1827673519590416E10 ; 0.0
167 ; 1.1998427162818199E7 ; 2.0253792462628436E8 ; 2.0827363010041118E9 ; 3.2030199961352158E10 ; 0.0
168 ; 1.198327560999099E7 ; 2.0254936912163454E8 ; 2.09473472816693E9 ; 3.2232737885978443E10 ; 0.0
169 ; 1.197201640105272E7 ; 2.0256077496555024E8 ; 2.106718003776921E9 ; 3.243528725510008E10 ; 0.0
170 ; 1.1956074517615499E7 ; 2.0257214187803265E8 ; 2.1186900201779737E9 ; 3.2637848030065628E10 ; 0.0
171 ; 1.1945493899228303E7 ; 2.0258346958128795E8 ; 2.1306460946955893E9 ; 3.284042017194366E10 ; 0.0
172 ; 1.1935130291319458E7 ; 2.025947577996905E8 ; 2.1425915885948176E9 ; 3.304300364152495E10 ; 0.0
173 ; 1.1923768209057024E7 ; 2.0260600625974745E8 ; 2.154526718886137E9 ; 3.324559839932464E10 ; 0.0
174 ; 1.191499268110843E7 ; 2.0261721469006464E8 ; 2.166450487095194E9 ; 3.3448204405584385E10 ; 0.0
175 ; 1.1909770263502097E7 ; 2.0262838282131398E8 ; 2.1783654797763023E9 ; 3.365082162027445E10 ; 0.0
176 ; 1.1899996356435405E7 ; 2.026395103862019E8 ; 2.1902752500398045E9 ; 3.3853450003095764E10 ; 0.0
177 ; 1.1893448260820212E7 ; 2.0265059711943892E8 ; 2.2021752463962398E9 ; 3.4056089513481968E10 ; 0.0
178 ; 1.1885169313956251E7 ; 2.0266164275771067E8 ; 2.21406869465706E9 ; 3.4258740110601406E10 ; 0.0
179 ; 1.1877093015473189E7 ; 2.0267264703964978E8 ; 2.2259538639710164E9 ; 3.4461401753359116E10 ; 0.0
180 ; 1.1872806660728533E7 ; 2.0268360970580882E8 ; 2.23783095698649E9 ; 3.4664074400398766E10 ; 0.0
181 ; 1.1865197770001002E7 ; 2.0269453049863443E8 ; 2.249703763647218E9 ; 3.4866758010104576E10 ; 0.0
182 ; 1.1858470580750095E7 ; 2.0270540916244215E8 ; 2.261568961417219E9 ; 3.506945254060321E10 ; 0.0
183 ; 1.184746312438778E7 ; 2.0271624544339257E8 ; 2.273427431997969E9 ; 3.5272157949765656E10 ; 0.0
184 ; 1.1841135875679487E7 ; 2.027270390894681E8 ; 2.285274895122357E9 ; 3.5474874195209045E10 ; 0.0
185 ; 1.1834839653628403E7 ; 2.0273778985045052E8 ; 2.2971160309980364E9 ; 3.5677601234298515E10 ; 0.0
186 ; 1.1825499027804168E7 ; 2.027484974778998E8 ; 2.3089508706516647E9 ; 3.5880339024148964E10 ; 0.0
187 ; 1.1819854195082983E7 ; 2.0275916172513324E8 ; 2.320776369679469E9 ; 3.608308752162686E10 ; 0.0
188 ; 1.1812476589541694E7 ; 2.0276978234720576E8 ; 2.3325962238745522E9 ; 3.6285846683352E10 ; 0.0
189 ; 1.1805700430169536E7 ; 2.0278035910089064E8 ; 2.344408700464094E9 ; 3.64886164656992E10 ; 0.0
190 ; 1.1798950361286797E7 ; 2.0279089174466112E8 ; 2.3562144008942637E9 ; 3.6691396824800095E10 ; 0.0
191 ; 1.1792171702435352E7 ; 2.0280138003867283E8 ; 2.3680133512555504E9 ; 3.6894187716544754E10 ; 0.0
192 ; 1.1783300887432793E7 ; 2.0281182374474657E8 ; 2.379805522957986E9 ; 3.709698909658343E10 ; 0.0
193 ; 1.1776747753140084E7 ; 2.0282222262635192E8 ; 2.3915888238454185E9 ; 3.729980092032817E10 ; 0.0
194 ; 1.1770181039998403E7 ; 2.028325764485915E8 ; 2.4033655715985584E9 ; 3.750262314295452E10 ; 0.0
195 ; 1.1761756430600248E7 ; 2.0284288497818568E8 ; 2.415135752638557E9 ; 3.7705455719403114E10 ; 0.0
