CSV File for the City 1 on Day 194
1 - Minute m 
2 - Power Consumed at minute m 
3 - Power Produced at minute m 
4 - Energy Consumed since the beginning of the day 
5 - Energy Produced since the beginning of the day 
6 - Energy Lost since the beginning of the day on lines starting from the city
 
0 ; 1959600.5599587173 ; 1.054308455124189E8 ; 0.0 ; 0.0 ; 0.0
1 ; 1971621.652808912 ; 1.0558366004766774E8 ; 1959600.5599587173 ; 1.054308455124189E8 ; 0.0
2 ; 1991413.5170489345 ; 1.0604526760738698E8 ; 3931222.2127676294 ; 2.1101450556008664E8 ; 0.0
3 ; 2014518.9429088675 ; 1.0681567060942346E8 ; 5922635.729816563 ; 3.170597731674736E8 ; 0.0
4 ; 2033870.4419374885 ; 1.0789487123887652E8 ; 7937154.672725431 ; 4.238754437768971E8 ; 0.0
5 ; 2066406.2425515582 ; 1.0928287142997587E8 ; 9971025.11466292 ; 5.317703150157736E8 ; 0.0
6 ; 2107369.9625239545 ; 1.1097967284956202E8 ; 1.2037431357214477E7 ; 6.410531864457495E8 ; 0.0
7 ; 2164250.59492661 ; 1.1298527688248718E8 ; 1.414480131973843E7 ; 7.520328592953116E8 ; 0.0
8 ; 2244287.06064814 ; 1.152996846192298E8 ; 1.6309051914665041E7 ; 8.650181361777987E8 ; 0.0
9 ; 2356301.3973585963 ; 1.1792289684597594E8 ; 1.8553338975313183E7 ; 9.803178207970285E8 ; 0.0
10 ; 2537533.5169055066 ; 1.2085491403737861E8 ; 2.090964037267178E7 ; 1.0982407176430044E9 ; 0.0
11 ; 2831618.6063883654 ; 1.240957363521488E8 ; 2.3447173889577284E7 ; 1.219095631680383E9 ; 0.0
12 ; 3295477.7059534206 ; 1.276453636315755E8 ; 2.627879249596565E7 ; 1.3431913680325317E9 ; 0.0
13 ; 3736365.6373522216 ; 1.3150379540100569E8 ; 2.9574270201919068E7 ; 1.4708367316641073E9 ; 0.0
14 ; 3792539.217472799 ; 1.356710308742534E8 ; 3.331063583927129E7 ; 1.602340527065113E9 ; 0.0
15 ; 3815340.170626117 ; 1.4014706896084005E8 ; 3.7103175056744084E7 ; 1.7380115579393663E9 ; 0.0
16 ; 3835127.711898083 ; 1.4493190827591357E8 ; 4.09185152273702E7 ; 1.8781586269002063E9 ; 0.0
17 ; 3862938.3635373376 ; 1.5002554715263334E8 ; 4.475364293926828E7 ; 2.0230905351761198E9 ; 0.0
18 ; 3882424.0069152624 ; 1.554279836567697E8 ; 4.861658130280562E7 ; 2.173116082328753E9 ; 0.0
19 ; 3907514.1617251164 ; 1.611392156032233E8 ; 5.249900530972088E7 ; 2.3285440659855227E9 ; 0.0
20 ; 3928636.581430597 ; 1.6715924057414725E8 ; 5.6406519471446E7 ; 2.489683281588746E9 ; 0.0
21 ; 3953747.1744557396 ; 1.7348805593833843E8 ; 6.03351560528766E7 ; 2.6568425221628933E9 ; 0.0
22 ; 3973204.8482096586 ; 1.8012565887155646E8 ; 6.428890322733234E7 ; 2.8303305781012316E9 ; 0.0
23 ; 3999017.654824416 ; 1.8707204637743688E8 ; 6.8262108075542E7 ; 3.010456236972788E9 ; 0.0
24 ; 4018346.8752205814 ; 1.9432721530867368E8 ; 7.226112573036642E7 ; 3.1975282833502245E9 ; 0.0
25 ; 4044442.165598013 ; 2.0057920328635487E8 ; 7.6279472605587E7 ; 3.3918554986588984E9 ; 0.0
26 ; 4065831.91299639 ; 2.0058155475770262E8 ; 8.032391477118503E7 ; 3.5924347019452534E9 ; 0.0
27 ; 4091024.780805573 ; 2.0058403554126903E8 ; 8.438974668418142E7 ; 3.793016256702956E9 ; 0.0
28 ; 4114076.788333259 ; 2.005866420932389E8 ; 8.8480771464987E7 ; 3.993600292244225E9 ; 0.0
29 ; 4132854.6411427073 ; 2.0058937081926683E8 ; 9.259484825332025E7 ; 4.194186934337464E9 ; 0.0
30 ; 4154066.9489509077 ; 2.0059221809199142E8 ; 9.672770289446296E7 ; 4.394776305156731E9 ; 0.0
31 ; 4177415.86280497 ; 2.0059518026736528E8 ; 1.0088176984341386E8 ; 4.595368523248722E9 ; 0.0
32 ; 4199950.630339427 ; 2.005982536997278E8 ; 1.0505918570621882E8 ; 4.795963703516088E9 ; 0.0
33 ; 4220085.567172472 ; 2.0060143475557762E8 ; 1.0925913633655825E8 ; 4.996561957215816E9 ; 0.0
34 ; 4240614.043216344 ; 2.0060471982602698E8 ; 1.1347922190373072E8 ; 5.197163391971394E9 ; 0.0
35 ; 4258940.026512318 ; 2.0060810533794537E8 ; 1.1771983594694707E8 ; 5.3977681117974205E9 ; 0.0
36 ; 4282146.908119005 ; 2.006115877638182E8 ; 1.219787759734594E8 ; 5.5983762171353655E9 ; 0.0
37 ; 4299209.047572251 ; 2.0061516363036296E8 ; 1.262609228815784E8 ; 5.798987804899183E9 ; 0.0
38 ; 4310729.035070633 ; 2.0061882952595854E8 ; 1.3056013192915066E8 ; 5.999602968529546E9 ; 0.0
39 ; 4334137.005342057 ; 2.0062258210695285E8 ; 1.348708609642213E8 ; 6.200221798055504E9 ; 0.0
40 ; 4346763.86470031 ; 2.006264181029212E8 ; 1.3920499796956336E8 ; 6.4008443801624565E9 ; 0.0
41 ; 4366958.750720393 ; 2.0063033432095185E8 ; 1.4355176183426368E8 ; 6.601470798265378E9 ; 0.0
42 ; 4380938.06572396 ; 2.0063432764903852E8 ; 1.4791872058498406E8 ; 6.802101132586329E9 ; 0.0
43 ; 4394203.620714006 ; 2.0063839505865893E8 ; 1.5229965865070802E8 ; 7.002735460235368E9 ; 0.0
44 ; 4411145.97015719 ; 2.0064253360661837E8 ; 1.5669386227142203E8 ; 7.203373855294026E9 ; 0.0
45 ; 4426059.232566363 ; 2.0064674043623492E8 ; 1.611050082415792E8 ; 7.404016388900644E9 ; 0.0
46 ; 4440580.095560301 ; 2.0065101277793944E8 ; 1.6553106747414556E8 ; 7.604663129336879E9 ; 0.0
47 ; 4449010.725594215 ; 2.0065534794936E8 ; 1.6997164756970587E8 ; 7.805314142114819E9 ; 0.0
48 ; 4460850.466905286 ; 2.0065974335495627E8 ; 1.744206582953001E8 ; 8.005969490064178E9 ; 0.0
49 ; 4473991.79498297 ; 2.0066419648526415E8 ; 1.788815087622054E8 ; 8.206629233419135E9 ; 0.0
50 ; 4478140.314925654 ; 2.0066870491580716E8 ; 1.8335550055718836E8 ; 8.407293429904399E9 ; 0.0
51 ; 4488541.914674916 ; 2.0067326630572513E8 ; 1.87833640872114E8 ; 8.607962134820206E9 ; 0.0
52 ; 4495620.353346028 ; 2.006778783961674E8 ; 1.923221827867889E8 ; 8.80863540112593E9 ; 0.0
53 ; 4508374.454975992 ; 2.0068253900849193E8 ; 1.9681780314013493E8 ; 9.009313279522099E9 ; 0.0
54 ; 4514184.683416731 ; 2.006872460423082E8 ; 2.0132617759511092E8 ; 9.20999581853059E9 ; 0.0
55 ; 4521277.337238504 ; 2.0069199747339737E8 ; 2.0584036227852765E8 ; 9.410683064572899E9 ; 0.0
56 ; 4531168.0516492715 ; 2.0069679135153916E8 ; 2.1036163961576614E8 ; 9.611375062046297E9 ; 0.0
57 ; 4538734.4671613015 ; 2.0070162579827175E8 ; 2.148928076674154E8 ; 9.812071853397837E9 ; 0.0
58 ; 4544472.694848913 ; 2.0070649900460717E8 ; 2.194315421345767E8 ; 1.0012773479196108E10 ; 0.0
59 ; 4557962.737622112 ; 2.0071140922872224E8 ; 2.2397601482942563E8 ; 1.0213479978200714E10 ; 0.0
60 ; 4565639.550430404 ; 2.0071635479364184E8 ; 2.2853397756704774E8 ; 1.0414191387429436E10 ; 0.0
61 ; 4573469.779301905 ; 2.0072133408492902E8 ; 2.3309961711747816E8 ; 1.0614907742223078E10 ; 0.0
62 ; 4574088.768328353 ; 2.0072634554839474E8 ; 2.3767308689678007E8 ; 1.0815629076308006E10 ; 0.0
63 ; 4582520.525825903 ; 2.0073138768783677E8 ; 2.422471756651084E8 ; 1.1016355421856401E10 ; 0.0
64 ; 4588040.031300311 ; 2.007364590628173E8 ; 2.468296961909343E8 ; 1.1217086809544239E10 ; 0.0
65 ; 4596783.337852092 ; 2.0074155828648552E8 ; 2.514177362222346E8 ; 1.1417823268607056E10 ; 0.0
66 ; 4597874.297956584 ; 2.0074668402345115E8 ; 2.560145195600867E8 ; 1.1618564826893541E10 ; 0.0
67 ; 4613217.214126786 ; 2.0075183498771352E8 ; 2.6061239385804328E8 ; 1.1819311510916992E10 ; 0.0
68 ; 4619532.260300433 ; 2.0075700994064948E8 ; 2.6522561107217008E8 ; 1.2020063345904705E10 ; 0.0
69 ; 4624059.00636166 ; 2.0076220768906242E8 ; 2.6984514333247054E8 ; 1.2220820355845354E10 ; 0.0
70 ; 4628698.262199932 ; 2.0076742708329463E8 ; 2.744692023388322E8 ; 1.2421582563534416E10 ; 0.0
71 ; 4636025.054192694 ; 2.0077266701540372E8 ; 2.7909790060103214E8 ; 1.262234999061771E10 ; 0.0
72 ; 4642049.796521817 ; 2.0077792641740358E8 ; 2.8373392565522486E8 ; 1.2823122657633114E10 ; 0.0
73 ; 4647723.887139783 ; 2.0078320425957006E8 ; 2.883759754517467E8 ; 1.3023900584050518E10 ; 0.0
74 ; 4658042.3628375055 ; 2.0078849954881102E8 ; 2.930236993388865E8 ; 1.3224683788310087E10 ; 0.0
75 ; 4661855.50313993 ; 2.0079381132709953E8 ; 2.97681741701724E8 ; 1.3425472287858898E10 ; 0.0
76 ; 4666307.215690688 ; 2.0079913866996992E8 ; 3.023435972048639E8 ; 1.3626266099185997E10 ; 0.0
77 ; 4666335.763300335 ; 2.0080448068507484E8 ; 3.070099044205546E8 ; 1.3827065237855967E10 ; 0.0
78 ; 4672467.459151713 ; 2.0080983651080218E8 ; 3.1167624018385494E8 ; 1.4027869718541042E10 ; 0.0
79 ; 4674078.07925009 ; 2.0081520531495035E8 ; 3.163487076430066E8 ; 1.4228679555051844E10 ; 0.0
80 ; 4672666.511761747 ; 2.008205862934599E8 ; 3.210227857222567E8 ; 1.4429494760366795E10 ; 0.0
81 ; 4672981.1218311265 ; 2.008259786692001E8 ; 3.2569545223401845E8 ; 1.4630315346660255E10 ; 0.0
82 ; 4673912.274594312 ; 2.0083138169080842E8 ; 3.3036843335584956E8 ; 1.4831141325329456E10 ; 0.0
83 ; 4674767.447955494 ; 2.0083679463158134E8 ; 3.350423456304439E8 ; 1.5031972707020266E10 ; 0.0
84 ; 4674867.499046744 ; 2.0084221678841403E8 ; 3.3971711307839936E8 ; 1.5232809501651848E10 ; 0.0
85 ; 4670692.075456074 ; 2.0084764748078796E8 ; 3.443919805774461E8 ; 1.5433651718440262E10 ; 0.0
86 ; 4667020.70960351 ; 2.0085308604980367E8 ; 3.490626726529022E8 ; 1.563449936592105E10 ; 0.0
87 ; 4669028.257790442 ; 2.0085853185725743E8 ; 3.537296933625057E8 ; 1.5835352451970852E10 ; 0.0
88 ; 4670002.352971607 ; 2.008639842847597E8 ; 3.583987216202961E8 ; 1.603621098382811E10 ; 0.0
89 ; 4668654.257487704 ; 2.0086944273289406E8 ; 3.6306872397326773E8 ; 1.623707496811287E10 ; 0.0
90 ; 4663756.611631301 ; 2.0087490662041423E8 ; 3.6773737823075545E8 ; 1.6437944410845764E10 ; 0.0
91 ; 4662564.332371205 ; 2.0088037538347805E8 ; 3.724011348423867E8 ; 1.6638819317466179E10 ; 0.0
92 ; 4664212.393641749 ; 2.008858484749165E8 ; 3.7706369917475796E8 ; 1.6839699692849657E10 ; 0.0
93 ; 4659623.430694344 ; 2.008913253635364E8 ; 3.817279115683997E8 ; 1.7040585541324574E10 ; 0.0
94 ; 4656086.530243759 ; 2.0089680553345513E8 ; 3.8638753499909407E8 ; 1.724147686668811E10 ; 0.0
95 ; 4660607.320893447 ; 2.009022884834659E8 ; 3.910436215293378E8 ; 1.7442373672221565E10 ; 0.0
96 ; 4655571.847953163 ; 2.0090777372643217E8 ; 3.957042288502313E8 ; 1.7643275960705032E10 ; 0.0
97 ; 4650654.124408316 ; 2.0091326078871003E8 ; 4.0035980069818443E8 ; 1.7844183734431465E10 ; 0.0
98 ; 4645999.809359191 ; 2.0091874920959702E8 ; 4.0501045482259274E8 ; 1.8045096995220177E10 ; 0.0
99 ; 4649922.807349988 ; 2.0092423854080617E8 ; 4.096564546319519E8 ; 1.8246015744429775E10 ; 0.0
100 ; 4643151.604572516 ; 2.0092972834596434E8 ; 4.143063774393019E8 ; 1.844693998297058E10 ; 0.0
101 ; 4640678.088074567 ; 2.0093521820013332E8 ; 4.1894952904387444E8 ; 1.8647869711316544E10 ; 0.0
102 ; 4641616.360751364 ; 2.009407076893529E8 ; 4.23590207131949E8 ; 1.8848804929516678E10 ; 0.0
103 ; 4638791.186356016 ; 2.0094619641020462E8 ; 4.282318234927004E8 ; 1.904974563720603E10 ; 0.0
104 ; 4633746.918025653 ; 2.009516839693956E8 ; 4.328706146790564E8 ; 1.9250691833616238E10 ; 0.0
105 ; 4629241.737981094 ; 2.009571699833611E8 ; 4.375043615970821E8 ; 1.9451643517585632E10 ; 0.0
106 ; 4625552.028837684 ; 2.0096265407788497E8 ; 4.4213360333506316E8 ; 1.9652600687568993E10 ; 0.0
107 ; 4621354.18130962 ; 2.0096813588773748E8 ; 4.4675915536390084E8 ; 1.9853563341646877E10 ; 0.0
108 ; 4619751.896376197 ; 2.0097361505632916E8 ; 4.513805095452105E8 ; 2.0054531477534615E10 ; 0.0
109 ; 4615126.779249164 ; 2.0097909123538038E8 ; 4.560002614415867E8 ; 2.0255505092590942E10 ; 0.0
110 ; 4613285.471006971 ; 2.0098456408460566E8 ; 4.6061538822083586E8 ; 2.0456484183826324E10 ; 0.0
111 ; 4611090.716136446 ; 2.0099003327141201E8 ; 4.6522867369184285E8 ; 2.065746874791093E10 ; 0.0
112 ; 4603796.576913116 ; 2.0099549847061056E8 ; 4.698397644079793E8 ; 2.0858458781182343E10 ; 0.0
113 ; 4601799.089384246 ; 2.010009593641413E8 ; 4.744435609848924E8 ; 2.1059454279652954E10 ; 0.0
114 ; 4594554.647395869 ; 2.0100641564080957E8 ; 4.790453600742767E8 ; 2.1260455239017094E10 ; 0.0
115 ; 4590322.089298832 ; 2.0101186699603435E8 ; 4.8363991472167253E8 ; 2.14614616546579E10 ; 0.0
116 ; 4591024.011720903 ; 2.0101731313160765E8 ; 4.882302368109714E8 ; 2.1662473521653934E10 ; 0.0
117 ; 4584891.776332022 ; 2.010227537554641E8 ; 4.928212608226923E8 ; 2.186349083478554E10 ; 0.0
118 ; 4575901.339817016 ; 2.010281885814608E8 ; 4.974061525990243E8 ; 2.2064513588541004E10 ; 0.0
119 ; 4572230.043086837 ; 2.0103361732916668E8 ; 5.019820539388413E8 ; 2.2265541777122463E10 ; 0.0
120 ; 4566605.065921139 ; 2.010390397236609E8 ; 5.065542839819281E8 ; 2.246657539445163E10 ; 0.0
121 ; 4565032.041516992 ; 2.0104445549533975E8 ; 5.1112088904784924E8 ; 2.266761443417529E10 ; 0.0
122 ; 4554544.597887059 ; 2.0104986437973222E8 ; 5.1568592108936626E8 ; 2.2868658889670628E10 ; 0.0
123 ; 4550375.3782487735 ; 2.0105526611732298E8 ; 5.202404656872533E8 ; 2.306970875405036E10 ; 0.0
124 ; 4542940.56563997 ; 2.010606604533831E8 ; 5.2479084106550205E8 ; 2.3270764020167686E10 ; 0.0
125 ; 4538897.110691318 ; 2.01066047137808E8 ; 5.29333781631142E8 ; 2.347182468062107E10 ; 0.0
126 ; 4534924.651172692 ; 2.0107142592496192E8 ; 5.338726787418333E8 ; 2.367289072775888E10 ; 0.0
127 ; 4529093.213804192 ; 2.0107679657352933E8 ; 5.38407603393006E8 ; 2.387396215368384E10 ; 0.0
128 ; 4525434.024361815 ; 2.010821588463721E8 ; 5.429366966068102E8 ; 2.407503895025737E10 ; 0.0
129 ; 4515104.029400708 ; 2.0108751251039293E8 ; 5.474621306311721E8 ; 2.427612110910374E10 ; 0.0
130 ; 4507566.619287572 ; 2.010928573364043E8 ; 5.519772346605728E8 ; 2.4477208621614132E10 ; 0.0
131 ; 4493975.86481056 ; 2.0109819309900275E8 ; 5.564848012798604E8 ; 2.4678301478950535E10 ; 0.0
132 ; 4483212.420256477 ; 2.0110351957644862E8 ; 5.60978777144671E8 ; 2.4879399672049538E10 ; 0.0
133 ; 4474268.5653228015 ; 2.0110883655055022E8 ; 5.654619895649275E8 ; 2.5080503191625988E10 ; 0.0
134 ; 4460550.301518673 ; 2.0111414380655318E8 ; 5.699362581302502E8 ; 2.5281612028176537E10 ; 0.0
135 ; 4444508.57433001 ; 2.0111944113303402E8 ; 5.743968084317689E8 ; 2.548272617198309E10 ; 0.0
136 ; 4431966.404586633 ; 2.0112472832179806E8 ; 5.788413170060989E8 ; 2.5683845613116123E10 ; 0.0
137 ; 4418261.80587148 ; 2.011300051677815E8 ; 5.832732834106855E8 ; 2.588497034143792E10 ; 0.0
138 ; 4408166.433604947 ; 2.0113527146895736E8 ; 5.87691545216557E8 ; 2.60861003466057E10 ; 0.0
139 ; 4393289.017373556 ; 2.0114052702624515E8 ; 5.92099711650162E8 ; 2.6287235618074657E10 ; 0.0
140 ; 4377605.87715822 ; 2.0114577164342412E8 ; 5.964930006675355E8 ; 2.6488376145100903E10 ; 0.0
141 ; 4367696.295649214 ; 2.011510051270501E8 ; 6.008706065446937E8 ; 2.6689521916744328E10 ; 0.0
142 ; 4355437.064309563 ; 2.0115622728637534E8 ; 6.052383028403429E8 ; 2.6890672921871376E10 ; 0.0
143 ; 4344521.574411722 ; 2.0116143793327177E8 ; 6.095937399046525E8 ; 2.7091829149157753E10 ; 0.0
144 ; 4328315.0848465925 ; 2.0116663688215697E8 ; 6.139382614790642E8 ; 2.7292990587091026E10 ; 0.0
145 ; 4321494.788352511 ; 2.0117182394992325E8 ; 6.182665765639108E8 ; 2.7494157223973183E10 ; 0.0
146 ; 4317804.397580027 ; 2.0117699895586938E8 ; 6.225880713522633E8 ; 2.7695329047923107E10 ; 0.0
147 ; 4306537.488595532 ; 2.0118216172163498E8 ; 6.269058757498434E8 ; 2.7896506046878975E10 ; 0.0
148 ; 4303548.375861528 ; 2.011873120711374E8 ; 6.312124132384388E8 ; 2.809768820860061E10 ; 0.0
149 ; 4298980.934757132 ; 2.0119244983051094E8 ; 6.355159616143004E8 ; 2.8298875520671745E10 ; 0.0
150 ; 4290689.303407128 ; 2.0119757482804862E8 ; 6.398149425490575E8 ; 2.8500067970502254E10 ; 0.0
151 ; 4278461.318084947 ; 2.012026868941459E8 ; 6.441056318524646E8 ; 2.8701265545330303E10 ; 0.0
152 ; 4276831.835283645 ; 2.0120778586124668E8 ; 6.483840931705495E8 ; 2.890246823222445E10 ; 0.0
153 ; 4267078.885957225 ; 2.012128715637913E8 ; 6.526609250058331E8 ; 2.9103676018085697E10 ; 0.0
154 ; 4261933.14876744 ; 2.0121794383816642E8 ; 6.569280038917904E8 ; 2.930488888964949E10 ; 0.0
155 ; 4257354.075850611 ; 2.012230025226569E8 ; 6.611899370405579E8 ; 2.9506106833487656E10 ; 0.0
156 ; 4247937.757156337 ; 2.0122804745739937E8 ; 6.654472911164085E8 ; 2.970732983601031E10 ; 0.0
157 ; 4242188.124535528 ; 2.0123307848433754E8 ; 6.696952288735648E8 ; 2.9908557883467712E10 ; 0.0
158 ; 4233608.994372768 ; 2.0123809544717923E8 ; 6.739374169981004E8 ; 3.010979096195205E10 ; 0.0
159 ; 4225464.842623009 ; 2.012430981913549E8 ; 6.781710259924731E8 ; 3.0311029057399227E10 ; 0.0
160 ; 4222360.759105767 ; 2.0124808656397772E8 ; 6.823964908350961E8 ; 3.0512272155590584E10 ; 0.0
161 ; 4211869.945399899 ; 2.0125306041380507E8 ; 6.866188515942019E8 ; 3.071352024215456E10 ; 0.0
162 ; 4210909.738598895 ; 2.012580195912016E8 ; 6.908307215396018E8 ; 3.0914773302568367E10 ; 0.0
163 ; 4200979.286320591 ; 2.012629639481034E8 ; 6.950416312782007E8 ; 3.111603132215957E10 ; 0.0
164 ; 4191625.2802685685 ; 2.0126789333798364E8 ; 6.992426105645213E8 ; 3.1317294286107674E10 ; 0.0
165 ; 4184409.0199000393 ; 2.0127280761581933E8 ; 7.034342358447899E8 ; 3.1518562179445656E10 ; 0.0
166 ; 4177296.2784663676 ; 2.0127770663805944E8 ; 7.0761864486469E8 ; 3.1719834987061474E10 ; 0.0
167 ; 4172191.37128431 ; 2.0128259026259387E8 ; 7.117959411431563E8 ; 3.192111269369953E10 ; 0.0
168 ; 4167851.803329253 ; 2.0128745834872395E8 ; 7.159681325144407E8 ; 3.2122395283962124E10 ; 0.0
169 ; 4158895.667892103 ; 2.012923107571335E8 ; 7.201359843177699E8 ; 3.232368274231085E10 ; 0.0
170 ; 4152786.8247294053 ; 2.012971473498614E8 ; 7.24294879985662E8 ; 3.252497505306798E10 ; 0.0
171 ; 4145816.2786021307 ; 2.0130196799027476E8 ; 7.284476668103914E8 ; 3.2726272200417843E10 ; 0.0
172 ; 4133817.840409364 ; 2.0130677254304314E8 ; 7.325934830889935E8 ; 3.292757416840812E10 ; 0.0
173 ; 4131140.869130959 ; 2.0131156087411383E8 ; 7.36727300929403E8 ; 3.3128880940951164E10 ; 0.0
174 ; 4128794.4513515565 ; 2.0131633285068786E8 ; 7.408584417985339E8 ; 3.333019250182528E10 ; 0.0
175 ; 4119169.6894835583 ; 2.0132108834119672E8 ; 7.449872362498854E8 ; 3.353150883467597E10 ; 0.0
176 ; 4119380.2003649413 ; 2.0132582721528026E8 ; 7.49106405939369E8 ; 3.3732829923017166E10 ; 0.0
177 ; 4112293.446206498 ; 2.013305493437649E8 ; 7.532257861397339E8 ; 3.3934155750232445E10 ; 0.0
178 ; 4109371.290429712 ; 2.0133525459864303E8 ; 7.573380795859404E8 ; 3.413548629957621E10 ; 0.0
179 ; 4104194.7738418425 ; 2.0133994285305285E8 ; 7.614474508763701E8 ; 3.4336821554174854E10 ; 0.0
180 ; 4101549.520558208 ; 2.013446139812589E8 ; 7.655516456502119E8 ; 3.453816149702791E10 ; 0.0
181 ; 4091400.039405819 ; 2.0134926785863346E8 ; 7.696531951707702E8 ; 3.473950611100917E10 ; 0.0
182 ; 4090461.6669788454 ; 2.013539043616384E8 ; 7.73744595210176E8 ; 3.4940855378867805E10 ; 0.0
183 ; 4080642.271928885 ; 2.0135852336780772E8 ; 7.778350568771548E8 ; 3.514220928322945E10 ; 0.0
184 ; 4078468.239540948 ; 2.013631247557307E8 ; 7.819156991490837E8 ; 3.534356780659725E10 ; 0.0
185 ; 4072415.2730521946 ; 2.013677084050356E8 ; 7.859941673886247E8 ; 3.554493093135298E10 ; 0.0
186 ; 4064283.695292291 ; 2.013722741963739E8 ; 7.900665826616769E8 ; 3.574629863975802E10 ; 0.0
187 ; 4058021.119821253 ; 2.0137682201140523E8 ; 7.941308663569691E8 ; 3.594767091395439E10 ; 0.0
188 ; 4059737.954436356 ; 2.0138135173278245E8 ; 7.981888874767904E8 ; 3.61490477359658E10 ; 0.0
189 ; 4053153.6525170957 ; 2.0138586324413764E8 ; 8.022486254312267E8 ; 3.635042908769858E10 ; 0.0
190 ; 4048064.641601541 ; 2.0139035643006834E8 ; 8.063017790837438E8 ; 3.655181495094272E10 ; 0.0
191 ; 4043639.735176698 ; 2.0139483117612424E8 ; 8.103498437253454E8 ; 3.675320530737279E10 ; 0.0
192 ; 4041921.406866353 ; 2.013992873687945E8 ; 8.14393483460522E8 ; 3.695460013854891E10 ; 0.0
193 ; 4034534.8799234657 ; 2.0140372489549524E8 ; 8.184354048673884E8 ; 3.715599942591771E10 ; 0.0
194 ; 4028432.9906849763 ; 2.0140814364455763E8 ; 8.224699397473118E8 ; 3.73574031508132E10 ; 0.0
195 ; 4023540.3501122165 ; 2.014125435052164E8 ; 8.264983727379968E8 ; 3.7558811294457756E10 ; 0.0
196 ; 4017597.898062306 ; 2.0141692436759853E8 ; 8.30521913088109E8 ; 3.7760223837962975E10 ; 0.0
197 ; 4014151.792000337 ; 2.0142128612271258E8 ; 8.345395109861714E8 ; 3.7961640762330574E10 ; 0.0
198 ; 4007732.828980767 ; 2.0142562866243815E8 ; 8.385536627781717E8 ; 3.8163062048453285E10 ; 0.0
199 ; 4003762.314335168 ; 2.014299518795159E8 ; 8.425613956071525E8 ; 3.836448767711572E10 ; 0.0
200 ; 3999054.534792421 ; 2.014342556675376E8 ; 8.465651579214877E8 ; 3.856591762899524E10 ; 0.0
201 ; 3992493.333977803 ; 1.9454034489245668E8 ; 8.505642124562801E8 ; 3.876735188466277E10 ; 0.0
