CSV File for the City 4 on Day 22
1 - Minute m 
2 - Power Consumed at minute m 
3 - Power Produced at minute m 
4 - Energy Consumed since the beginning of the day 
5 - Energy Produced since the beginning of the day 
6 - Energy Lost since the beginning of the day on lines starting from the city
 
0 ; 6793548.857357516 ; 1.0534966582113662E8 ; 0.0 ; 0.0 ; 0.0
1 ; 6800882.105558279 ; 1.054916888036319E8 ; 6793548.857357516 ; 1.0534966582113662E8 ; 0.0
2 ; 6808799.654614143 ; 1.0594286680555776E8 ; 1.3594430962915795E7 ; 2.1084135462476853E8 ; 0.0
3 ; 6818142.6948614335 ; 1.0670331935536021E8 ; 2.0403230617529936E7 ; 3.167842214303263E8 ; 0.0
4 ; 6828596.834154553 ; 1.0777319576822126E8 ; 2.722137331239137E7 ; 4.234875407856865E8 ; 0.0
5 ; 6840218.8155943 ; 1.0915267951716608E8 ; 3.4049970146545924E7 ; 5.3126073655390775E8 ; 0.0
6 ; 6855822.000394971 ; 1.1084198932794812E8 ; 4.0890188962140225E7 ; 6.404134160710738E8 ; 0.0
7 ; 6877119.054780714 ; 1.1284137299614316E8 ; 4.7746010962535195E7 ; 7.512554053990219E8 ; 0.0
8 ; 6913228.541230945 ; 1.1515108899505228E8 ; 5.462313001731591E7 ; 8.64096778395165E8 ; 0.0
9 ; 6964861.0085540805 ; 1.1777137297742772E8 ; 6.1536358558546856E7 ; 9.792478673902173E8 ; 0.0
10 ; 7038842.399895871 ; 1.2070239358249718E8 ; 6.850121956710094E7 ; 1.097019240367645E9 ; 0.0
11 ; 7162484.084852033 ; 1.2394421248360059E8 ; 7.554006196699682E7 ; 1.2177216339501421E9 ; 0.0
12 ; 7363805.267827815 ; 1.2749676800739798E8 ; 8.270254605184886E7 ; 1.3416658464337428E9 ; 0.0
13 ; 7551387.925224394 ; 1.3135989151466167E8 ; 9.006635131967667E7 ; 1.4691626144411407E9 ; 0.0
14 ; 7576008.805150898 ; 1.3553334735263944E8 ; 9.761773924490106E7 ; 1.6005225059558024E9 ; 0.0
15 ; 7585331.944902594 ; 1.4001687704803026E8 ; 1.0519374805005196E8 ; 1.7360558533084419E9 ; 0.0
16 ; 7593618.273459785 ; 1.448102328052583E8 ; 1.1277907999495456E8 ; 1.876072730356472E9 ; 0.0
17 ; 7603121.350396141 ; 1.499131958985701E8 ; 1.2037269826841435E8 ; 2.0208829631617303E9 ; 0.0
18 ; 7610046.260729296 ; 1.5532558285494047E8 ; 1.2797581961881049E8 ; 2.1707961590603004E9 ; 0.0
19 ; 7619748.003208781 ; 1.6104724435918745E8 ; 1.355858658795398E8 ; 2.326121741915241E9 ; 0.0
20 ; 7628290.823814248 ; 1.6707806088286498E8 ; 1.4320561388274857E8 ; 2.4871689862744284E9 ; 0.0
21 ; 7636523.517339655 ; 1.7341793744808516E8 ; 1.5083390470656282E8 ; 2.6542470471572933E9 ; 0.0
22 ; 7643618.007185331 ; 1.800667986963567E8 ; 1.5847042822390246E8 ; 2.8276649846053786E9 ; 0.0
23 ; 7653003.133321366 ; 1.870245846969871E8 ; 1.661140462310878E8 ; 3.0077317833017354E9 ; 0.0
24 ; 7665090.106607027 ; 1.9429124756446433E8 ; 1.7376704936440918E8 ; 3.1947563679987226E9 ; 0.0
25 ; 7671672.29708012 ; 2.0055478970088744E8 ; 1.814321394710162E8 ; 3.3890476155631866E9 ; 0.0
26 ; 7680737.120850814 ; 2.0056872777675438E8 ; 1.8910381176809633E8 ; 3.5896024052640743E9 ; 0.0
27 ; 7690934.013791909 ; 2.0058280567353174E8 ; 1.9678454888894713E8 ; 3.7901711330408287E9 ; 0.0
28 ; 7696459.073639068 ; 2.0059700251401967E8 ; 2.0447548290273905E8 ; 3.99075393871436E9 ; 0.0
29 ; 7705706.803514112 ; 2.006113010186295E8 ; 2.121719419763781E8 ; 4.1913509412283797E9 ; 0.0
30 ; 7713988.154107532 ; 2.0062568678082713E8 ; 2.1987764877989224E8 ; 4.391962242247009E9 ; 0.0
31 ; 7721663.048974264 ; 2.0064014770396274E8 ; 2.2759163693399978E8 ; 4.592587929027837E9 ; 0.0
32 ; 7730135.562127932 ; 2.006546735609864E8 ; 2.3531329998297405E8 ; 4.793228076731799E9 ; 0.0
33 ; 7737151.309023532 ; 2.0066925564809364E8 ; 2.4304343554510197E8 ; 4.993882750292786E9 ; 0.0
34 ; 7744829.431711121 ; 2.006838865105201E8 ; 2.507805868541255E8 ; 5.194552005940879E9 ; 0.0
35 ; 7751567.257696247 ; 2.006985597240627E8 ; 2.585254162858366E8 ; 5.395235892451399E9 ; 0.0
36 ; 7758725.3829209525 ; 2.0071326971989647E8 ; 2.6627698354353285E8 ; 5.595934452175462E9 ; 0.0
37 ; 7766917.453956452 ; 2.0072801164323446E8 ; 2.740357089264538E8 ; 5.796647721895358E9 ; 0.0
38 ; 7771268.295067736 ; 2.0074278123860374E8 ; 2.8180262638041025E8 ; 5.997375733538592E9 ; 0.0
39 ; 7777720.7794265915 ; 2.0075757475618124E8 ; 2.89573894675478E8 ; 6.198118514777196E9 ; 0.0
40 ; 7783955.59427001 ; 2.007723888748928E8 ; 2.9735161545490456E8 ; 6.398876089533377E9 ; 0.0
41 ; 7789319.980444598 ; 2.0078722063893387E8 ; 3.0513557104917455E8 ; 6.59964847840827E9 ; 0.0
42 ; 7793510.113145479 ; 2.008020674050971E8 ; 3.1292489102961916E8 ; 6.800435699047204E9 ; 0.0
43 ; 7799096.3706233855 ; 2.0081692679884925E8 ; 3.207184011427646E8 ; 7.001237766452301E9 ; 0.0
44 ; 7804506.753158039 ; 2.0083179667752975E8 ; 3.2851749751338804E8 ; 7.20205469325115E9 ; 0.0
45 ; 7807300.7018947955 ; 2.008466750993755E8 ; 3.363220042665461E8 ; 7.402886489928679E9 ; 0.0
46 ; 7812345.818955304 ; 2.0086156029733518E8 ; 3.441293049684409E8 ; 7.603733165028055E9 ; 0.0
47 ; 7815626.649737215 ; 2.008764506568409E8 ; 3.519416507873962E8 ; 7.804594725325391E9 ; 0.0
48 ; 7819625.301917216 ; 2.0089134469686246E8 ; 3.5975727743713343E8 ; 8.005471175982232E9 ; 0.0
49 ; 7822408.520851712 ; 2.009062410536985E8 ; 3.675769027390506E8 ; 8.206362520679094E9 ; 0.0
50 ; 7823129.980021013 ; 2.0092113846705803E8 ; 3.7539931125990236E8 ; 8.407268761732793E9 ; 0.0
51 ; 7827209.718583038 ; 2.009360357680663E8 ; 3.8322244123992336E8 ; 8.60818990019985E9 ; 0.0
52 ; 7830346.6702486295 ; 2.0095093186889482E8 ; 3.910496509585064E8 ; 8.809125935967916E9 ; 0.0
53 ; 7832106.4270909345 ; 2.0096582575376615E8 ; 3.9887999762875503E8 ; 9.010076867836811E9 ; 0.0
54 ; 7833164.208510501 ; 2.009807164711271E8 ; 4.06712104055846E8 ; 9.211042693590578E9 ; 0.0
55 ; 7834737.64915921 ; 2.009956031268184E8 ; 4.145452682643565E8 ; 9.412023410061705E9 ; 0.0
56 ; 7836080.171731818 ; 2.0101048487809703E8 ; 4.223800059135157E8 ; 9.613019013188522E9 ; 0.0
57 ; 7838443.968407748 ; 2.010253609283902E8 ; 4.302160860852475E8 ; 9.81402949806662E9 ; 0.0
58 ; 7840861.714238704 ; 2.0104023052267936E8 ; 4.3805453005365527E8 ; 1.001505485899501E10 ; 0.0
59 ; 7841734.905665921 ; 2.0105509294342846E8 ; 4.4589539176789397E8 ; 1.021609508951769E10 ; 0.0
60 ; 7844652.81128139 ; 2.0106994750698328E8 ; 4.537371266735599E8 ; 1.0417150182461119E10 ; 0.0
61 ; 7844458.27859624 ; 2.010847935603798E8 ; 4.615817794848413E8 ; 1.0618220129968102E10 ; 0.0
62 ; 7847450.814976769 ; 2.010996304785093E8 ; 4.694262377634375E8 ; 1.081930492352848E10 ; 0.0
63 ; 7845642.182061477 ; 2.0111445766159394E8 ; 4.7727368857841426E8 ; 1.102040455400699E10 ; 0.0
64 ; 7848746.461517534 ; 2.0112927453293484E8 ; 4.8511933076047575E8 ; 1.1221519011668585E10 ; 0.0
65 ; 7848346.722206375 ; 2.011440805368989E8 ; 4.9296807722199327E8 ; 1.1422648286201519E10 ; 0.0
66 ; 7849575.032257487 ; 2.0115887513711557E8 ; 5.008164239441996E8 ; 1.1623792366738419E10 ; 0.0
67 ; 7850252.476810944 ; 2.0117365781485835E8 ; 5.086659989764571E8 ; 1.1824951241875534E10 ; 0.0
68 ; 7852122.508180006 ; 2.0118842806759006E8 ; 5.1651625145326805E8 ; 1.2026124899690392E10 ; 0.0
69 ; 7848849.320493679 ; 2.012031854076524E8 ; 5.243683739614481E8 ; 1.2227313327757982E10 ; 0.0
70 ; 7854317.629675909 ; 2.0121792936108395E8 ; 5.322172232819418E8 ; 1.2428516513165634E10 ; 0.0
71 ; 7853850.929974644 ; 2.0123265946655184E8 ; 5.400715409116176E8 ; 1.2629734442526718E10 ; 0.0
72 ; 7854255.205575703 ; 2.01247375274385E8 ; 5.479253918415923E8 ; 1.283096710199327E10 ; 0.0
73 ; 7857257.956347885 ; 2.0126207634569788E8 ; 5.55779647047168E8 ; 1.3032214477267656E10 ; 0.0
74 ; 7855169.564728272 ; 2.0127676225159484E8 ; 5.63636905003516E8 ; 1.3233476553613354E10 ; 0.0
75 ; 7855382.810703951 ; 2.012914325724469E8 ; 5.714920745682442E8 ; 1.3434753315864948E10 ; 0.0
76 ; 7854434.986180725 ; 2.0130608689723355E8 ; 5.793474573789482E8 ; 1.3636044748437395E10 ; 0.0
77 ; 7857929.509949753 ; 2.0132072482294235E8 ; 5.87201892365129E8 ; 1.383735083533463E10 ; 0.0
78 ; 7854094.661098385 ; 2.0133534595402133E8 ; 5.950598218750788E8 ; 1.4038671560157572E10 ; 0.0
79 ; 7851511.117748212 ; 2.013499499018782E8 ; 6.029139165361772E8 ; 1.4240006906111593E10 ; 0.0
80 ; 7851176.626913231 ; 2.013645362844225E8 ; 6.107654276539254E8 ; 1.4441356856013472E10 ; 0.0
81 ; 7848718.932824977 ; 2.0137910472564572E8 ; 6.186166042808386E8 ; 1.4642721392297894E10 ; 0.0
82 ; 7845142.942928369 ; 2.0139365485523668E8 ; 6.264653232136636E8 ; 1.4844100497023539E10 ; 0.0
83 ; 7842648.484265927 ; 2.0140818630822805E8 ; 6.343104661565919E8 ; 1.5045494151878775E10 ; 0.0
84 ; 7839061.588559785 ; 2.014226987246717E8 ; 6.421531146408578E8 ; 1.5246902338187002E10 ; 0.0
85 ; 7837248.191906448 ; 2.014371917493398E8 ; 6.499921762294176E8 ; 1.5448325036911674E10 ; 0.0
86 ; 7834061.327088161 ; 2.0145166503144985E8 ; 6.57829424421324E8 ; 1.5649762228661015E10 ; 0.0
87 ; 7830977.621967609 ; 2.014661182244109E8 ; 6.656634857484121E8 ; 1.5851213893692465E10 ; 0.0
88 ; 7829570.219441734 ; 2.014805509855895E8 ; 6.734944633703797E8 ; 1.6052680011916876E10 ; 0.0
89 ; 7825800.879088439 ; 2.014949629760937E8 ; 6.813240335898215E8 ; 1.6254160562902466E10 ; 0.0
90 ; 7823528.1036072895 ; 2.015093538605731E8 ; 6.891498344689099E8 ; 1.645565552587856E10 ; 0.0
91 ; 7821695.984770911 ; 2.0152372330703428E8 ; 6.969733625725172E8 ; 1.6657164879739132E10 ; 0.0
92 ; 7817571.142182755 ; 2.015380709866694E8 ; 7.04795058557288E8 ; 1.6858688603046165E10 ; 0.0
93 ; 7810561.360622714 ; 2.0155239657369795E8 ; 7.126126296994708E8 ; 1.7060226674032835E10 ; 0.0
94 ; 7808348.335732603 ; 2.0156669974521965E8 ; 7.204231910600935E8 ; 1.7261779070606533E10 ; 0.0
95 ; 7806351.047399137 ; 2.0158098018107805E8 ; 7.282315393958261E8 ; 1.7463345770351753E10 ; 0.0
96 ; 7801745.585673353 ; 2.0159523756373394E8 ; 7.360378904432253E8 ; 1.7664926750532833E10 ; 0.0
97 ; 7799944.660534748 ; 2.016094715781477E8 ; 7.438396360288986E8 ; 1.7866521988096565E10 ; 0.0
98 ; 7796868.611179285 ; 2.0162368191166982E8 ; 7.516395806894333E8 ; 1.8068131459674713E10 ; 0.0
99 ; 7791374.572338663 ; 2.0163786825393924E8 ; 7.594364493006126E8 ; 1.8269755141586384E10 ; 0.0
100 ; 7787240.994641345 ; 2.0165203029678854E8 ; 7.672278238729513E8 ; 1.8471393009840324E10 ; 0.0
101 ; 7785717.046532834 ; 2.0166616773415586E8 ; 7.750150648675926E8 ; 1.867304504013711E10 ; 0.0
102 ; 7782149.523332437 ; 2.016802802620025E8 ; 7.828007819141254E8 ; 1.887471120787127E10 ; 0.0
103 ; 7774731.455712073 ; 2.0169436757823646E8 ; 7.905829314374579E8 ; 1.907639148813327E10 ; 0.0
104 ; 7771991.459656013 ; 2.0170842938264084E8 ; 7.9835766289317E8 ; 1.9278085855711506E10 ; 0.0
105 ; 7768254.570110228 ; 2.017224653768072E8 ; 8.06129654352826E8 ; 1.9479794285094147E10 ; 0.0
106 ; 7762575.694787021 ; 2.0173647526407337E8 ; 8.138979089229362E8 ; 1.9681516750470955E10 ; 0.0
107 ; 7761271.891996461 ; 2.0175045874946514E8 ; 8.216604846177232E8 ; 1.9883253225735027E10 ; 0.0
108 ; 7755746.553431606 ; 2.0176441553964204E8 ; 8.294217565097197E8 ; 2.0085003684484493E10 ; 0.0
109 ; 7752874.221099307 ; 2.017783453428466E8 ; 8.371775030631514E8 ; 2.0286768100024136E10 ; 0.0
110 ; 7744817.6684716195 ; 2.0179224786885682E8 ; 8.449303772842506E8 ; 2.048854644536698E10 ; 0.0
111 ; 7741346.183099456 ; 2.018061228289419E8 ; 8.526751949527222E8 ; 2.069033869323584E10 ; 0.0
112 ; 7736841.91531066 ; 2.0181996993582073E8 ; 8.604165411358217E8 ; 2.089214481606478E10 ; 0.0
113 ; 7731627.73286242 ; 2.018337889036229E8 ; 8.681533830511323E8 ; 2.1093964786000603E10 ; 0.0
114 ; 7726836.039492873 ; 2.0184757944785264E8 ; 8.758850107839948E8 ; 2.1295798574904224E10 ; 0.0
115 ; 7719574.71974964 ; 2.0186134128535467E8 ; 8.836118468234876E8 ; 2.1497646154352077E10 ; 0.0
116 ; 7715888.048898103 ; 2.018750741342824E8 ; 8.913314215432373E8 ; 2.1699507495637432E10 ; 0.0
117 ; 7709260.212146467 ; 2.0188877771406835E8 ; 8.990473095921354E8 ; 2.1901382569771713E10 ; 0.0
118 ; 7708201.5791084925 ; 2.0190245174539593E8 ; 9.06756569804282E8 ; 2.2103271347485783E10 ; 0.0
119 ; 7700567.342968768 ; 2.019160959501737E8 ; 9.144647713833904E8 ; 2.230517379923118E10 ; 0.0
120 ; 7694647.0944901025 ; 2.0192971005151084E8 ; 9.221653387263592E8 ; 2.250708989518135E10 ; 0.0
121 ; 7689068.486380505 ; 2.0194329377369425E8 ; 9.298599858208493E8 ; 2.270901960523286E10 ; 0.0
122 ; 7685111.342157312 ; 2.019568468421672E8 ; 9.375490543072298E8 ; 2.2910962899006554E10 ; 0.0
123 ; 7678850.810732998 ; 2.0197036898350945E8 ; 9.452341656493871E8 ; 2.311291974584872E10 ; 0.0
124 ; 7673648.210380475 ; 2.019838599254184E8 ; 9.529130164601201E8 ; 2.331489011483223E10 ; 0.0
125 ; 7667555.0281144595 ; 2.0199731939669162E8 ; 9.605866646705005E8 ; 2.351687397475765E10 ; 0.0
126 ; 7663622.149291643 ; 2.020107471272106E8 ; 9.68254219698615E8 ; 2.371887129415434E10 ; 0.0
127 ; 7652898.04059647 ; 2.0202414284792528E8 ; 9.759178418479066E8 ; 2.3920882041281548E10 ; 0.0
128 ; 7651953.8997461395 ; 2.0203750629084003E8 ; 9.835707398885031E8 ; 2.4122906184129475E10 ; 0.0
129 ; 7644901.8753804015 ; 2.0205083718900004E8 ; 9.912226937882493E8 ; 2.4324943690420315E10 ; 0.0
130 ; 7635877.1057479 ; 2.0206413527647915E8 ; 9.988675956636297E8 ; 2.4526994527609314E10 ; 0.0
131 ; 7630680.517868075 ; 2.0207740028836802E8 ; 1.0065034727693776E9 ; 2.472905866288579E10 ; 0.0
132 ; 7620094.73509462 ; 2.0209063196076354E8 ; 1.0141341532872456E9 ; 2.493113606317416E10 ; 0.0
133 ; 7609082.787370428 ; 2.0210383003075856E8 ; 1.0217542480223403E9 ; 2.5133226695134922E10 ; 0.0
134 ; 7602324.065086244 ; 2.0211699423643276E8 ; 1.0293633308097107E9 ; 2.533533052516568E10 ; 0.0
135 ; 7594848.5144811245 ; 2.0213012431684375E8 ; 1.036965654874797E9 ; 2.553744751940211E10 ; 0.0
136 ; 7580929.508163989 ; 2.0214322001201916E8 ; 1.044560503389278E9 ; 2.5739577643718956E10 ; 0.0
137 ; 7574684.547046367 ; 2.0215628106294906E8 ; 1.0521414328974421E9 ; 2.5941720863730976E10 ; 0.0
138 ; 7567457.381231384 ; 2.021693072115791E8 ; 1.0597161174444885E9 ; 2.6143877144793926E10 ; 0.0
139 ; 7560440.055994734 ; 2.0218229820080423E8 ; 1.06728357482572E9 ; 2.6346046452005505E10 ; 0.0
140 ; 7549096.4294347465 ; 2.0219525377446246E8 ; 1.0748440148817146E9 ; 2.654822875020631E10 ; 0.0
141 ; 7540394.188637602 ; 2.022081736773299E8 ; 1.0823931113111494E9 ; 2.6750424003980774E10 ; 0.0
142 ; 7529356.304285997 ; 2.0222105765511543E8 ; 1.0899335054997869E9 ; 2.6952632177658104E10 ; 0.0
143 ; 7518258.442053807 ; 2.0223390545445633E8 ; 1.0974628618040729E9 ; 2.715485323531322E10 ; 0.0
144 ; 7508860.79675472 ; 2.0224671682291403E8 ; 1.1049811202461267E9 ; 2.7357087140767677E10 ; 0.0
145 ; 7504592.2230167845 ; 2.0225949150897044E8 ; 1.1124899810428815E9 ; 2.755933385759059E10 ; 0.0
146 ; 7496144.102801905 ; 2.022722292620244E8 ; 1.1199945732658982E9 ; 2.7761593349099564E10 ; 0.0
147 ; 7490438.862370106 ; 2.0228492983238876E8 ; 1.1274907173687E9 ; 2.7963865578361588E10 ; 0.0
148 ; 7485222.69423776 ; 2.0229759297128743E8 ; 1.13498115623107E9 ; 2.8166150508193977E10 ; 0.0
149 ; 7477041.787572989 ; 2.0231021843085313E8 ; 1.1424663789253078E9 ; 2.8368448101165264E10 ; 0.0
150 ; 7471660.9177312525 ; 2.0232280596412498E8 ; 1.1499434207128808E9 ; 2.857075831959612E10 ; 0.0
151 ; 7464734.655854053 ; 2.023353553250469E8 ; 1.1574150816306121E9 ; 2.8773081125560246E10 ; 0.0
152 ; 7452592.303125353 ; 2.0234786626846567E8 ; 1.1648798162864661E9 ; 2.8975416480885292E10 ; 0.0
153 ; 7448811.85553528 ; 2.023603385501298E8 ; 1.1723324085895915E9 ; 2.917776434715376E10 ; 0.0
154 ; 7441108.779101708 ; 2.0237277192668813E8 ; 1.1797812204451268E9 ; 2.9380124685703888E10 ; 0.0
155 ; 7435981.42792071 ; 2.0238516615568915E8 ; 1.1872223292242284E9 ; 2.9582497457630577E10 ; 0.0
156 ; 7429527.119838972 ; 2.0239752099558005E8 ; 1.1946583106521492E9 ; 2.9784882623786266E10 ; 0.0
157 ; 7419372.583184728 ; 2.024098362057063E8 ; 1.2020878377719882E9 ; 2.9987280144781845E10 ; 0.0
158 ; 7414465.937242888 ; 2.0242211154631126E8 ; 1.2095072103551729E9 ; 3.0189689980987553E10 ; 0.0
159 ; 7408084.149337265 ; 2.0243434677853614E8 ; 1.2169216762924159E9 ; 3.0392112092533863E10 ; 0.0
160 ; 7399420.243534805 ; 2.024465416644198E8 ; 1.2243297604417531E9 ; 3.05945464393124E10 ; 0.0
161 ; 7393967.142381829 ; 2.0245869596689913E8 ; 1.231729180685288E9 ; 3.079699298097682E10 ; 0.0
162 ; 7385197.8674617335 ; 2.024708094498092E8 ; 1.2391231478276699E9 ; 3.099945167694372E10 ; 0.0
163 ; 7378874.334551033 ; 2.0248288187788385E8 ; 1.2465083456951315E9 ; 3.120192248639353E10 ; 0.0
164 ; 7371485.90960625 ; 2.0249491301675627E8 ; 1.2538872200296826E9 ; 3.1404405368271416E10 ; 0.0
165 ; 7362273.266091389 ; 2.0250690263295966E8 ; 1.2612587059392889E9 ; 3.1606900281288174E10 ; 0.0
166 ; 7355901.517453838 ; 2.0251885049392822E8 ; 1.2686209792053802E9 ; 3.1809407183921135E10 ; 0.0
167 ; 7349768.106647338 ; 2.0253075636799803E8 ; 1.275976880722834E9 ; 3.2011926034415062E10 ; 0.0
168 ; 7343571.280154319 ; 2.025426200244082E8 ; 1.2833266488294814E9 ; 3.221445679078306E10 ; 0.0
169 ; 7334532.574874296 ; 2.0255444123330203E8 ; 1.2906702201096356E9 ; 3.2416999410807465E10 ; 0.0
170 ; 7327028.700467973 ; 2.0256621976572835E8 ; 1.29800475268451E9 ; 3.2619553852040768E10 ; 0.0
171 ; 7318757.420734621 ; 2.025779553936429E8 ; 1.305331781384978E9 ; 3.2822120071806496E10 ; 0.0
172 ; 7312218.536978698 ; 2.025896478899098E8 ; 1.3126505388057127E9 ; 3.3024698027200138E10 ; 0.0
173 ; 7303247.739571575 ; 2.0260129702830315E8 ; 1.3199627573426914E9 ; 3.322728767509005E10 ; 0.0
174 ; 7298039.115405219 ; 2.026129025835087E8 ; 1.327266005082263E9 ; 3.3429888972118355E10 ; 0.0
175 ; 7294702.357435671 ; 2.0262446433112553E8 ; 1.3345640441976683E9 ; 3.3632501874701862E10 ; 0.0
176 ; 7291843.95536853 ; 2.0263598204766795E8 ; 1.341858746555104E9 ; 3.383512633903299E10 ; 0.0
177 ; 7288169.844340259 ; 2.026474555105673E8 ; 1.3491505905104725E9 ; 3.4037762321080658E10 ; 0.0
178 ; 7282727.488974273 ; 2.0265888449817392E8 ; 1.3564387603548129E9 ; 3.4240409776591225E10 ; 0.0
179 ; 7274854.749973219 ; 2.0267026878975916E8 ; 1.3637214878437872E9 ; 3.44430686610894E10 ; 0.0
180 ; 7272159.906645859 ; 2.0268160816551748E8 ; 1.3709963425937605E9 ; 3.464573892987916E10 ; 0.0
181 ; 7267495.738733195 ; 2.0269290240656853E8 ; 1.3782685025004063E9 ; 3.484842053804468E10 ; 0.0
182 ; 7262850.209067204 ; 2.027041512949593E8 ; 1.3855359982391396E9 ; 3.505111344045125E10 ; 0.0
183 ; 7260004.9289431 ; 2.0271535461366653E8 ; 1.3927988484482067E9 ; 3.525381759174621E10 ; 0.0
184 ; 7253605.690047093 ; 2.027265121465987E8 ; 1.4000588533771498E9 ; 3.545653294635988E10 ; 0.0
185 ; 7251068.604923686 ; 2.027376236785986E8 ; 1.4073124590671968E9 ; 3.565925945850648E10 ; 0.0
186 ; 7247514.6707522785 ; 2.0274868899544564E8 ; 1.4145635276721206E9 ; 3.5861997082185074E10 ; 0.0
187 ; 7239992.7111402815 ; 2.0275970788385805E8 ; 1.4218110423428729E9 ; 3.606474577118052E10 ; 0.0
188 ; 7235746.829927759 ; 2.0277068013149568E8 ; 1.4290510350540133E9 ; 3.626750547906438E10 ; 0.0
189 ; 7229126.6219932595 ; 2.027816055269622E8 ; 1.436286781883941E9 ; 3.647027615919587E10 ; 0.0
190 ; 7226130.315734162 ; 2.027924838598077E8 ; 1.4435159085059342E9 ; 3.667305776472283E10 ; 0.0
191 ; 7223230.995694683 ; 2.0280331492053124E8 ; 1.4507420388216684E9 ; 3.687585024858264E10 ; 0.0
192 ; 7216901.435269845 ; 2.0281409850058347E8 ; 1.457965269817363E9 ; 3.7078653563503174E10 ; 0.0
193 ; 7213238.808777593 ; 2.0282483439236918E8 ; 1.4651821712526329E9 ; 3.728146766200375E10 ; 0.0
194 ; 7207331.676221393 ; 2.0283552238924983E8 ; 1.4723954100614104E9 ; 3.7484292496396126E10 ; 0.0
195 ; 7203854.073753073 ; 2.0284616228554642E8 ; 1.4796027417376318E9 ; 3.768712801878538E10 ; 0.0
196 ; 7199533.604651892 ; 2.02856753876542E8 ; 1.486806595811385E9 ; 3.788997418107092E10 ; 0.0
197 ; 7194566.006670608 ; 2.0286729695848444E8 ; 1.4940061294160368E9 ; 3.8092830934947464E10 ; 0.0
198 ; 7190712.034395574 ; 2.0287779132858908E8 ; 1.5012006954227076E9 ; 3.8295698231905945E10 ; 0.0
199 ; 7184865.013452467 ; 2.0288823678504157E8 ; 1.508391407457103E9 ; 3.8498576023234535E10 ; 0.0
200 ; 7180739.057225818 ; 2.0289863312700045E8 ; 1.5155762724705555E9 ; 3.870146426001958E10 ; 0.0
