CSV File for the City 1 on Day 75
1 - Minute m 
2 - Power Consumed at minute m 
3 - Power Produced at minute m 
4 - Energy Consumed since the beginning of the day 
5 - Energy Produced since the beginning of the day 
6 - Energy Lost since the beginning of the day on lines starting from the city
 
0 ; 1.6022112122906813E7 ; 1.0549776637057576E8 ; 0.0 ; 0.0 ; 0.0
1 ; 1.6043547866824305E7 ; 1.056506883561446E8 ; 1.6022112122906813E7 ; 1.0549776637057576E8 ; 0.0
2 ; 1.605881942340563E7 ; 1.061123943220745E8 ; 3.2065659989731118E7 ; 2.1114845472672036E8 ; 0.0
3 ; 1.608100219889744E7 ; 1.0688288597437018E8 ; 4.812447941313675E7 ; 3.1726084904879487E8 ; 0.0
4 ; 1.6101244365857905E7 ; 1.0796216484527552E8 ; 6.420548161203419E7 ; 4.2414373502316505E8 ; 0.0
5 ; 1.613018298766651E7 ; 1.0935023228365725E8 ; 8.030672597789209E7 ; 5.3210589986844057E8 ; 0.0
6 ; 1.6170471182439025E7 ; 1.1104708944635352E8 ; 9.643690896555859E7 ; 6.414561321520978E8 ; 0.0
7 ; 1.6224173001177672E7 ; 1.1305273729061627E8 ; 1.1260738014799762E8 ; 7.525032215984514E8 ; 0.0
8 ; 1.6295877640427478E7 ; 1.1536717656775922E8 ; 1.2883155314917529E8 ; 8.655559588890676E8 ; 0.0
9 ; 1.641892854511148E7 ; 1.1799040781811047E8 ; 1.4512743078960276E8 ; 9.809231354568269E8 ; 0.0
10 ; 1.6605227933242131E7 ; 1.209224313673492E8 ; 1.6154635933471423E8 ; 1.0989135432749374E9 ; 0.0
11 ; 1.6888373693679005E7 ; 1.2416324732428333E8 ; 1.7815158726795638E8 ; 1.2198359746422865E9 ; 0.0
12 ; 1.7348151523697197E7 ; 1.2771285558010492E8 ; 1.9503996096163538E8 ; 1.34399922196657E9 ; 0.0
13 ; 1.779883670381313E7 ; 1.3157125580913478E8 ; 2.1238811248533258E8 ; 1.4717120775466747E9 ; 0.0
14 ; 1.7847565136845626E7 ; 1.357384474710449E8 ; 2.301869491891457E8 ; 1.6032833333558095E9 ; 0.0
15 ; 1.7869215485983685E7 ; 1.4021442981452143E8 ; 2.4803451432599133E8 ; 1.7390217808268542E9 ; 0.0
16 ; 1.7891621240030743E7 ; 1.4499920188231257E8 ; 2.65903729811975E8 ; 1.8792362106413755E9 ; 0.0
17 ; 1.791198515786534E7 ; 1.5009276251758006E8 ; 2.8379535105200577E8 ; 2.024235412523688E9 ; 0.0
18 ; 1.7927576613082986E7 ; 1.5549511037145722E8 ; 3.017073362098711E8 ; 2.1743281750412683E9 ; 0.0
19 ; 1.7949177872263983E7 ; 1.6120624391170016E8 ; 3.196349128229541E8 ; 2.3298232854127254E9 ; 0.0
20 ; 1.7974402427423984E7 ; 1.672261614323041E8 ; 3.375840906952181E8 ; 2.4910295293244257E9 ; 0.0
21 ; 1.7995080466276642E7 ; 1.7355486106394914E8 ; 3.5555849312264204E8 ; 2.6582556907567296E9 ; 0.0
22 ; 1.801381159549072E7 ; 1.8019234078513104E8 ; 3.735535735889187E8 ; 2.8318105518206787E9 ; 0.0
23 ; 1.8037311110263076E7 ; 1.8713859843383282E8 ; 3.915673851844094E8 ; 3.0120028926058097E9 ; 0.0
24 ; 1.805836101025246E7 ; 1.9439363171958804E8 ; 4.096046962946724E8 ; 3.1991414910396423E9 ; 0.0
25 ; 1.807600558453559E7 ; 2.006454791339793E8 ; 4.276630573049249E8 ; 3.3935351227592306E9 ; 0.0
26 ; 1.8098678447034363E7 ; 2.006476859999607E8 ; 4.457390628894605E8 ; 3.59418060189321E9 ; 0.0
27 ; 1.811768228568682E7 ; 2.006500190091714E8 ; 4.6383774133649486E8 ; 3.794828287893171E9 ; 0.0
28 ; 1.8145106729484145E7 ; 2.0065247548098192E8 ; 4.8195542362218165E8 ; 3.9954783069023423E9 ; 0.0
29 ; 1.8157190788857304E7 ; 2.0065505266776842E8 ; 5.001005303516658E8 ; 4.196130782383324E9 ; 0.0
30 ; 1.818047405052848E7 ; 2.0065774776660097E8 ; 5.182577211405231E8 ; 4.396785835051092E9 ; 0.0
31 ; 1.8197088019323815E7 ; 2.0066055793050805E8 ; 5.3643819519105154E8 ; 4.597443582817693E9 ; 0.0
32 ; 1.8212897751719043E7 ; 2.0066348027924687E8 ; 5.546352832103753E8 ; 4.7981041407482E9 ; 0.0
33 ; 1.823729095439779E7 ; 2.0066651190952268E8 ; 5.728481809620943E8 ; 4.998767621027448E9 ; 0.0
34 ; 1.8253328941000022E7 ; 2.0066964990461305E8 ; 5.910854719164921E8 ; 5.199434132936971E9 ; 0.0
35 ; 1.8268392897413097E7 ; 2.0067289134336406E8 ; 6.093388008574921E8 ; 5.400103782841584E9 ; 0.0
36 ; 1.828670708613038E7 ; 2.0067623330853784E8 ; 6.276071937549052E8 ; 5.600776674184948E9 ; 0.0
37 ; 1.830318493066099E7 ; 2.0067967289449993E8 ; 6.458939008410356E8 ; 5.801452907493485E9 ; 0.0
38 ; 1.8317539832182366E7 ; 2.0068320721424484E8 ; 6.641970857716966E8 ; 6.002132580387985E9 ; 0.0
39 ; 1.8331380185089484E7 ; 2.0068683340576607E8 ; 6.82514625603879E8 ; 6.20281578760223E9 ; 0.0
40 ; 1.8344895429605227E7 ; 2.0069054863778308E8 ; 7.008460057889684E8 ; 6.403502621007997E9 ; 0.0
41 ; 1.836184215584476E7 ; 2.006943501148447E8 ; 7.191909012185737E8 ; 6.60419316964578E9 ; 0.0
42 ; 1.8374564174593985E7 ; 2.006982350818324E8 ; 7.375527433744185E8 ; 6.804887519760624E9 ; 0.0
43 ; 1.838700288597553E7 ; 2.0070220082789046E8 ; 7.559273075490124E8 ; 7.005585754842457E9 ; 0.0
44 ; 1.83983944651159E7 ; 2.0070624468981388E8 ; 7.743143104349879E8 ; 7.206287955670347E9 ; 0.0
45 ; 1.840629341096697E7 ; 2.0071036405492595E8 ; 7.927127049001038E8 ; 7.406994200360161E9 ; 0.0
46 ; 1.8414831470640488E7 ; 2.0071455636347896E8 ; 8.111189983110708E8 ; 7.607704564415087E9 ; 0.0
47 ; 1.842517227460233E7 ; 2.007188191106126E8 ; 8.295338297817113E8 ; 7.808419120778565E9 ; 0.0
48 ; 1.8429920985372E7 ; 2.0072314984790412E8 ; 8.479590020563136E8 ; 8.009137939889178E9 ; 0.0
49 ; 1.8439046070200086E7 ; 2.0072754618454432E8 ; 8.663889230416856E8 ; 8.2098610897370825E9 ; 0.0
50 ; 1.8446910925417863E7 ; 2.007320057881722E8 ; 8.848279691118857E8 ; 8.410588635921627E9 ; 0.0
51 ; 1.8451277289492443E7 ; 2.00736526385401E8 ; 9.032748800373036E8 ; 8.611320641709799E9 ; 0.0
52 ; 1.845884425094989E7 ; 2.0074110576206574E8 ; 9.21726157326796E8 ; 8.8120571680952E9 ; 0.0
53 ; 1.845793087930626E7 ; 2.00745741763222E8 ; 9.401850015777459E8 ; 9.012798273857265E9 ; 0.0
54 ; 1.846906606408503E7 ; 2.007504322929234E8 ; 9.586429324570522E8 ; 9.213544015620487E9 ; 0.0
55 ; 1.847385596017222E7 ; 2.0075517531380376E8 ; 9.771119985211372E8 ; 9.41429444791341E9 ; 0.0
56 ; 1.847527460139772E7 ; 2.0075996884648818E8 ; 9.955858544813094E8 ; 9.615049623227215E9 ; 0.0
57 ; 1.8482250916864473E7 ; 2.0076481096885556E8 ; 1.0140611290827072E9 ; 9.815809592073704E9 ; 0.0
58 ; 1.8483315560794666E7 ; 2.0076969981517288E8 ; 1.0325433799995717E9 ; 1.0016574403042559E10 ; 0.0
59 ; 1.8489263576371174E7 ; 2.007746335751209E8 ; 1.0510266955603664E9 ; 1.021734410285773E10 ; 0.0
60 ; 1.8493034634251975E7 ; 2.0077961049272785E8 ; 1.0695159591367376E9 ; 1.0418118736432852E10 ; 0.0
61 ; 1.84934450794887E7 ; 2.0078462886522758E8 ; 1.0880089937709897E9 ; 1.061889834692558E10 ; 0.0
62 ; 1.8500461581519864E7 ; 2.0078968704185575E8 ; 1.1065024388504784E9 ; 1.0819682975790806E10 ; 0.0
63 ; 1.850524974162538E7 ; 2.007947834225977E8 ; 1.1250029004319983E9 ; 1.102047266283266E10 ; 0.0
64 ; 1.8508505233623534E7 ; 2.0079991645689848E8 ; 1.1435081501736236E9 ; 1.1221267446255259E10 ; 0.0
65 ; 1.8513183718937322E7 ; 2.0080508464234635E8 ; 1.162016655407247E9 ; 1.1422067362712156E10 ; 0.0
66 ; 1.851531231734228E7 ; 2.0081028652333808E8 ; 1.1805298391261845E9 ; 1.1622872447354502E10 ; 0.0
67 ; 1.851607372989741E7 ; 2.0081552068973452E8 ; 1.1990451514435267E9 ; 1.182368273387784E10 ; 0.0
68 ; 1.8524490752519917E7 ; 2.0082078577551326E8 ; 1.2175612251734242E9 ; 1.2024498254567575E10 ; 0.0
69 ; 1.852005665315975E7 ; 2.008260804574248E8 ; 1.236085715925944E9 ; 1.2225319040343088E10 ; 0.0
70 ; 1.8523732010714624E7 ; 2.0083140345365727E8 ; 1.254605772579104E9 ; 1.2426145120800512E10 ; 0.0
71 ; 1.8523621817584112E7 ; 2.008367535225146E8 ; 1.2731295045898185E9 ; 1.262697652425417E10 ; 0.0
72 ; 1.8529401176444165E7 ; 2.0084212946111208E8 ; 1.2916531264074025E9 ; 1.2827813277776684E10 ; 0.0
73 ; 1.8531209556453686E7 ; 2.0084753010409224E8 ; 1.3101825275838466E9 ; 1.3028655407237797E10 ; 0.0
74 ; 1.8537628592159394E7 ; 2.0085295432236445E8 ; 1.3287137371403003E9 ; 1.3229502937341888E10 ; 0.0
75 ; 1.8537376803571038E7 ; 2.0085840102187017E8 ; 1.3472513657324598E9 ; 1.3430355891664253E10 ; 0.0
76 ; 1.8535483986947507E7 ; 2.0086386914237574E8 ; 1.3657887425360308E9 ; 1.3631214292686123E10 ; 0.0
77 ; 1.8533174400989927E7 ; 2.0086935765629452E8 ; 1.3843242265229783E9 ; 1.3832078161828499E10 ; 0.0
78 ; 1.853429459098601E7 ; 2.0087486556753898E8 ; 1.4028574009239683E9 ; 1.4032947519484793E10 ; 0.0
79 ; 1.8527985616334014E7 ; 2.0088039191040426E8 ; 1.4213916955149543E9 ; 1.4233822385052332E10 ; 0.0
80 ; 1.8520863163563635E7 ; 2.008859357484833E8 ; 1.4399196811312883E9 ; 1.4434702776962736E10 ; 0.0
81 ; 1.8519185127914496E7 ; 2.008914961736141E8 ; 1.458440544294852E9 ; 1.463558871271122E10 ; 0.0
82 ; 1.85126889469899E7 ; 2.0089707230485928E8 ; 1.4769597294227664E9 ; 1.4836480208884834E10 ; 0.0
83 ; 1.850446193249414E7 ; 2.009026632875178E8 ; 1.4954724183697565E9 ; 1.5037377281189693E10 ; 0.0
84 ; 1.850358416953572E7 ; 2.009082682921689E8 ; 1.5139768803022506E9 ; 1.5238279944477211E10 ; 0.0
85 ; 1.8499453321379617E7 ; 2.009138865137478E8 ; 1.5324804644717863E9 ; 1.543918821276938E10 ; 0.0
86 ; 1.8491199453124993E7 ; 2.0091951717065296E8 ; 1.550979917793166E9 ; 1.5640102099283129E10 ; 0.0
87 ; 1.848369916253929E7 ; 2.0092515950388384E8 ; 1.569471117246291E9 ; 1.5841021616453781E10 ; 0.0
88 ; 1.8477347832546614E7 ; 2.0093081277620956E8 ; 1.5879548164088302E9 ; 1.6041946775957664E10 ; 0.0
89 ; 1.8472064173036892E7 ; 2.0093647627136698E8 ; 1.6064321642413769E9 ; 1.6242877588733873E10 ; 0.0
90 ; 1.846678483190294E7 ; 2.0094214929328796E8 ; 1.6249042284144137E9 ; 1.644381406500524E10 ; 0.0
91 ; 1.8460697998495076E7 ; 2.0094783116535497E8 ; 1.6433710132463167E9 ; 1.6644756214298527E10 ; 0.0
92 ; 1.8452524747711282E7 ; 2.0095352122968414E8 ; 1.6618317112448118E9 ; 1.6845704045463882E10 ; 0.0
93 ; 1.844696043973514E7 ; 2.0095921884643555E8 ; 1.680284235992523E9 ; 1.7046657566693567E10 ; 0.0
94 ; 1.8442180867266923E7 ; 2.0096492339314908E8 ; 1.6987311964322581E9 ; 1.724761678554E10 ; 0.0
95 ; 1.8428330957633052E7 ; 2.0097063426410583E8 ; 1.717173377299525E9 ; 1.744858170893315E10 ; 0.0
96 ; 1.8429443214602787E7 ; 2.0097635086971402E8 ; 1.735601708257158E9 ; 1.7649552343197258E10 ; 0.0
97 ; 1.841104941653582E7 ; 2.009820726359183E8 ; 1.7540311514717607E9 ; 1.785052869406697E10 ; 0.0
98 ; 1.840846859776884E7 ; 2.0098779900363222E8 ; 1.7724422008882966E9 ; 1.805151076670289E10 ; 0.0
99 ; 1.840094301273334E7 ; 2.0099352942819262E8 ; 1.7908506694860654E9 ; 1.825249856570652E10 ; 0.0
100 ; 1.839131074073016E7 ; 2.0099926337883526E8 ; 1.8092516124987988E9 ; 1.8453492095134712E10 ; 0.0
101 ; 1.83861681779685E7 ; 2.0100500033819133E8 ; 1.827642923239529E9 ; 1.8654491358513546E10 ; 0.0
102 ; 1.8374743308722083E7 ; 2.010107398018033E8 ; 1.8460290914174974E9 ; 1.8855496358851738E10 ; 0.0
103 ; 1.8369325448310323E7 ; 2.0101648127766016E8 ; 1.8644038347262194E9 ; 1.905650709865354E10 ; 0.0
104 ; 1.836110184745172E7 ; 2.0102222428575093E8 ; 1.8827731601745298E9 ; 1.9257523579931202E10 ; 0.0
105 ; 1.834750047314097E7 ; 2.0102796835763577E8 ; 1.9011342620219815E9 ; 1.9458545804216953E10 ; 0.0
106 ; 1.834032038497955E7 ; 2.010337130360341E8 ; 1.9194817624951224E9 ; 1.965957377257459E10 ; 0.0
107 ; 1.8333190408959918E7 ; 2.0103945787442914E8 ; 1.937822082880102E9 ; 1.9860607485610622E10 ; 0.0
108 ; 1.8321898532678287E7 ; 2.0104520243668777E8 ; 1.9561552732890618E9 ; 2.006164694348505E10 ; 0.0
109 ; 1.8312297415617343E7 ; 2.010509462966961E8 ; 1.9744771718217402E9 ; 2.0262692145921738E10 ; 0.0
110 ; 1.830036084587063E7 ; 2.0105668903800875E8 ; 1.9927894692373574E9 ; 2.0463743092218433E10 ; 0.0
111 ; 1.829195718376654E7 ; 2.0106243025351262E8 ; 2.011089830083228E9 ; 2.0664799781256443E10 ; 0.0
112 ; 1.828345446684557E7 ; 2.0106816954510367E8 ; 2.0293817872669947E9 ; 2.0865862211509956E10 ; 0.0
113 ; 1.827393877071205E7 ; 2.010739065233766E8 ; 2.0476652417338402E9 ; 2.106693038105506E10 ; 0.0
114 ; 1.8258500305211414E7 ; 2.010796408073268E8 ; 2.0659391805045524E9 ; 2.1268004287578438E10 ; 0.0
115 ; 1.82519782618004E7 ; 2.0108537202406394E8 ; 2.0841976808097637E9 ; 2.1469083928385765E10 ; 0.0
116 ; 1.8238326372335445E7 ; 2.0109109980853724E8 ; 2.102449659071564E9 ; 2.167016930040983E10 ; 0.0
117 ; 1.8228603209707286E7 ; 2.0109682380327103E8 ; 2.1206879854438994E9 ; 2.1871260400218365E10 ; 0.0
118 ; 1.822008017265999E7 ; 2.0110254365811113E8 ; 2.1389165886536067E9 ; 2.2072357224021637E10 ; 0.0
119 ; 1.820428059075493E7 ; 2.0110825902998105E8 ; 2.157136668826267E9 ; 2.227345976767975E10 ; 0.0
120 ; 1.819299905675753E7 ; 2.011139695826477E8 ; 2.1753409494170218E9 ; 2.247456802670973E10 ; 0.0
121 ; 1.818413737315349E7 ; 2.011196749864964E8 ; 2.193533948473779E9 ; 2.2675681996292377E10 ; 0.0
122 ; 1.8166855146048006E7 ; 2.0112537491831437E8 ; 2.211718085846933E9 ; 2.2876801671278873E10 ; 0.0
123 ; 1.815990726855178E7 ; 2.0113106906108314E8 ; 2.229884940992981E9 ; 2.307792704619719E10 ; 0.0
124 ; 1.8145728266346768E7 ; 2.011367571037785E8 ; 2.248044848261533E9 ; 2.3279058115258274E10 ; 0.0
125 ; 1.8132070968482845E7 ; 2.0114243874117866E8 ; 2.2661905765278797E9 ; 2.3480194872362053E10 ; 0.0
126 ; 1.8123066429226045E7 ; 2.011481136736794E8 ; 2.2843226474963627E9 ; 2.3681337311103233E10 ; 0.0
127 ; 1.8109025111509882E7 ; 2.011537816071168E8 ; 2.3024457139255886E9 ; 2.3882485424776913E10 ; 0.0
128 ; 1.809652385634966E7 ; 2.011594422525963E8 ; 2.3205547390370984E9 ; 2.408363920638403E10 ; 0.0
129 ; 1.8082436407662813E7 ; 2.0116509532632878E8 ; 2.338651262893448E9 ; 2.4284798648636627E10 ; 0.0
130 ; 1.8066227657102868E7 ; 2.0117074054947266E8 ; 2.3567336993011107E9 ; 2.4485963743962955E10 ; 0.0
131 ; 1.804998715016463E7 ; 2.011763776479819E8 ; 2.374799926958214E9 ; 2.468713448451243E10 ; 0.0
132 ; 1.802639777782752E7 ; 2.0118200635246018E8 ; 2.3928499141083784E9 ; 2.488831086216041E10 ; 0.0
133 ; 1.800929069065398E7 ; 2.011876263980201E8 ; 2.410876311886206E9 ; 2.508949286851287E10 ; 0.0
134 ; 1.7990662206915196E7 ; 2.0119323752414823E8 ; 2.42888560257686E9 ; 2.5290680494910892E10 ; 0.0
135 ; 1.797619613131999E7 ; 2.0119883947457483E8 ; 2.4468762647837753E9 ; 2.549187373243504E10 ; 0.0
136 ; 1.7947468033337068E7 ; 2.012044319971486E8 ; 2.4648524609150953E9 ; 2.5693072571909615E10 ; 0.0
137 ; 1.7929635331401575E7 ; 2.0121001484371626E8 ; 2.4827999289484324E9 ; 2.5894277003906765E10 ; 0.0
138 ; 1.7911918434162945E7 ; 2.0121558777000636E8 ; 2.500729564279834E9 ; 2.609548701875048E10 ; 0.0
139 ; 1.7885569524170026E7 ; 2.0122115053551772E8 ; 2.518641482713997E9 ; 2.629670260652049E10 ; 0.0
140 ; 1.7871092061754566E7 ; 2.0122670290341166E8 ; 2.536527052238167E9 ; 2.6497923757056007E10 ; 0.0
141 ; 1.7849366133221973E7 ; 2.0123224464040855E8 ; 2.5543981442999215E9 ; 2.669915045995942E10 ; 0.0
142 ; 1.7827635380436193E7 ; 2.0123777551668793E8 ; 2.5722475104331436E9 ; 2.6900382704599827E10 ; 0.0
143 ; 1.780922437083392E7 ; 2.0124329530579248E8 ; 2.59007514581358E9 ; 2.7101620480116516E10 ; 0.0
144 ; 1.7785356978061166E7 ; 2.012488037845353E8 ; 2.607884370184414E9 ; 2.730286377542231E10 ; 0.0
145 ; 1.7774640598553184E7 ; 2.0125430073291078E8 ; 2.625669727162475E9 ; 2.7504112579206844E10 ; 0.0
146 ; 1.776078895107095E7 ; 2.012597859340086E8 ; 2.6434443677610283E9 ; 2.7705366879939754E10 ; 0.0
147 ; 1.774293517346895E7 ; 2.0126525917393088E8 ; 2.661205156712099E9 ; 2.7906626665873764E10 ; 0.0
148 ; 1.7730784831331722E7 ; 2.0127072024171227E8 ; 2.678948091885568E9 ; 2.8107891925047695E10 ; 0.0
149 ; 1.771783375760596E7 ; 2.01276168929243E8 ; 2.6966788767169E9 ; 2.8309162645289406E10 ; 0.0
150 ; 1.7701279162268747E7 ; 2.0128160503119466E8 ; 2.714396710474506E9 ; 2.8510438814218647E10 ; 0.0
151 ; 1.768796107265097E7 ; 2.012870283449486E8 ; 2.7320979896367745E9 ; 2.871172041924984E10 ; 0.0
152 ; 1.7673097870953944E7 ; 2.0129243867052692E8 ; 2.7497859507094254E9 ; 2.8913007447594788E10 ; 0.0
153 ; 1.7656738602157257E7 ; 2.0129783581052595E8 ; 2.7674590485803795E9 ; 2.9114299886265316E10 ; 0.0
154 ; 1.7643747257289387E7 ; 2.01303219570052E8 ; 2.7851157871825366E9 ; 2.9315597722075844E10 ; 0.0
155 ; 1.7631619290824547E7 ; 2.0130858975665936E8 ; 2.802759534439826E9 ; 2.9516900941645897E10 ; 0.0
156 ; 1.7612012308518123E7 ; 2.0131394618029073E8 ; 2.8203911537306504E9 ; 2.9718209531402557E10 ; 0.0
157 ; 1.7597530401664324E7 ; 2.0131928865321934E8 ; 2.8380031660391684E9 ; 2.9919523477582848E10 ; 0.0
158 ; 1.7584577636709396E7 ; 2.0132461698999342E8 ; 2.8556006964408326E9 ; 3.012084276623607E10 ; 0.0
159 ; 1.756880996276133E7 ; 2.013299310073825E8 ; 2.873185274077542E9 ; 3.0322167383226063E10 ; 0.0
160 ; 1.755304264781203E7 ; 2.0133523052432555E8 ; 2.890754084040303E9 ; 3.0523497314233444E10 ; 0.0
161 ; 1.7537216033714667E7 ; 2.013405153618809E8 ; 2.908307126688115E9 ; 3.072483254475777E10 ; 0.0
162 ; 1.752241083361625E7 ; 2.0134578534317797E8 ; 2.92584434272183E9 ; 3.092617306011965E10 ; 0.0
163 ; 1.7509514875131454E7 ; 2.0135104029337057E8 ; 2.943366753555446E9 ; 3.112751884546283E10 ; 0.0
164 ; 1.7494328351661358E7 ; 2.0135628003959194E8 ; 2.9608762684305778E9 ; 3.13288698857562E10 ; 0.0
165 ; 1.747712921983128E7 ; 2.013615044109111E8 ; 2.978370596782239E9 ; 3.153022616579579E10 ; 0.0
166 ; 1.7457838998108525E7 ; 2.01366713238291E8 ; 2.9958477260020704E9 ; 3.1731587670206703E10 ; 0.0
167 ; 1.7444979231687184E7 ; 2.013719063545477E8 ; 3.013305565000179E9 ; 3.1932954383444996E10 ; 0.0
168 ; 1.7431343957476057E7 ; 2.0137708359431136E8 ; 3.030750544231866E9 ; 3.2134326289799545E10 ; 0.0
169 ; 1.7411756509354427E7 ; 2.0138224479398817E8 ; 3.048181888189342E9 ; 3.2335703373393856E10 ; 0.0
170 ; 1.739966618134649E7 ; 2.0138738979172388E8 ; 3.0655936446986966E9 ; 3.2537085618187843E10 ; 0.0
171 ; 1.7382607050939452E7 ; 2.013925184273683E8 ; 3.082993310880043E9 ; 3.273847300797957E10 ; 0.0
172 ; 1.7369132205498964E7 ; 2.0139763054244116E8 ; 3.1003759179309826E9 ; 3.2939865526406937E10 ; 0.0
173 ; 1.7350022906884942E7 ; 2.01402725980099E8 ; 3.117745050136482E9 ; 3.314126315694938E10 ; 0.0
174 ; 1.7340876500354335E7 ; 2.0140780458510318E8 ; 3.135095073043367E9 ; 3.3342665882929478E10 ; 0.0
175 ; 1.7332988051682953E7 ; 2.014128662037892E8 ; 3.152435949543721E9 ; 3.354407368751458E10 ; 0.0
176 ; 1.7325216657210227E7 ; 2.0141791068403646E8 ; 3.169768937595404E9 ; 3.374548655371837E10 ; 0.0
177 ; 1.7313689987503227E7 ; 2.0142293787523976E8 ; 3.1870941542526145E9 ; 3.3946904464402405E10 ; 0.0
178 ; 1.7302232031299867E7 ; 2.01427947628281E8 ; 3.2044078442401175E9 ; 3.4148327402277645E10 ; 0.0
179 ; 1.729365494288939E7 ; 2.0143293979550245E8 ; 3.2217100762714176E9 ; 3.4349755349905926E10 ; 0.0
180 ; 1.7281529624820337E7 ; 2.0143791423068053E8 ; 3.239003731214307E9 ; 3.455118828970143E10 ; 0.0
181 ; 1.7275830462237645E7 ; 2.0144287078900036E8 ; 3.256285260839127E9 ; 3.475262620393211E10 ; 0.0
182 ; 1.7263377634604715E7 ; 2.0144780932703164E8 ; 3.273561091301365E9 ; 3.4954069074721115E10 ; 0.0
183 ; 1.725564645048246E7 ; 2.0145272970270467E8 ; 3.29082446893597E9 ; 3.515551688404815E10 ; 0.0
184 ; 1.7247637021275777E7 ; 2.0145763177528766E8 ; 3.308080115386452E9 ; 3.5356969613750854E10 ; 0.0
185 ; 1.7236027093937736E7 ; 2.0146251540536448E8 ; 3.325327752407728E9 ; 3.5558427245526146E10 ; 0.0
186 ; 1.722660135859007E7 ; 2.0146738045481333E8 ; 3.342563779501666E9 ; 3.575988976093151E10 ; 0.0
187 ; 1.7213914487881523E7 ; 2.014722267867859E8 ; 3.359790380860256E9 ; 3.596135714138632E10 ; 0.0
188 ; 1.720786408612827E7 ; 2.0147705426568726E8 ; 3.377004295348138E9 ; 3.616282936817311E10 ; 0.0
189 ; 1.7198372673168816E7 ; 2.0148186275715655E8 ; 3.394212159434266E9 ; 3.63643064224388E10 ; 0.0
190 ; 1.718507717716257E7 ; 2.0148665212804818E8 ; 3.4114105321074347E9 ; 3.656578828519595E10 ; 0.0
191 ; 1.7178192788511027E7 ; 2.0149142224641344E8 ; 3.4285956092845974E9 ; 3.6767274937324005E10 ; 0.0
192 ; 1.716914464205391E7 ; 2.01496172981483E8 ; 3.445773802073108E9 ; 3.696876635957042E10 ; 0.0
193 ; 1.7156787689720646E7 ; 2.0150090420364997E8 ; 3.4629429467151623E9 ; 3.71702625325519E10 ; 0.0
194 ; 1.7148649001684736E7 ; 2.0150561578445303E8 ; 3.480099734404883E9 ; 3.7371763436755554E10 ; 0.0
195 ; 1.713658455690489E7 ; 2.015103075965608E8 ; 3.4972483834065676E9 ; 3.757326905254001E10 ; 0.0
