CSV File for the City 6 on Day 253
1 - Minute m 
2 - Power Consumed at minute m 
3 - Power Produced at minute m 
4 - Energy Consumed since the beginning of the day 
5 - Energy Produced since the beginning of the day 
6 - Energy Lost since the beginning of the day on lines starting from the city
 
0 ; 2789086.7936407784 ; 1.0577740422683045E8 ; 0.0 ; 0.0 ; 0.0
1 ; 2800361.246540433 ; 1.0592779846787983E8 ; 2789086.7936407784 ; 1.0577740422683045E8 ; 0.0
2 ; 2811138.27680969 ; 1.0638722574029526E8 ; 5589448.040181211 ; 2.1170520269471028E8 ; 0.0
3 ; 2823226.131598517 ; 1.0715569316645133E8 ; 8400586.3169909 ; 3.1809242843500555E8 ; 0.0
4 ; 2840071.6507902998 ; 1.082332072051816E8 ; 1.1223812448589418E7 ; 4.252481216014569E8 ; 0.0
5 ; 2854400.5789863053 ; 1.096197735912773E8 ; 1.4063884099379718E7 ; 5.334813288066385E8 ; 0.0
6 ; 2882578.2682091407 ; 1.113153972799289E8 ; 1.6918284678366024E7 ; 6.431011023979158E8 ; 0.0
7 ; 2919326.698277519 ; 1.1332008239731401E8 ; 1.9800862946575165E7 ; 7.544164996778448E8 ; 0.0
8 ; 2970772.003525791 ; 1.1563383219845086E8 ; 2.2720189644852683E7 ; 8.677365820751588E8 ; 0.0
9 ; 3050491.2341150166 ; 1.182566490333044E8 ; 2.5690961648378473E7 ; 9.833704142736096E8 ; 0.0
10 ; 3174025.194181276 ; 1.2118853432196021E8 ; 2.874145288249349E7 ; 1.101627063306914E9 ; 0.0
11 ; 3368575.6334627382 ; 1.2442948853947726E8 ; 3.1915478076674763E7 ; 1.2228155976288743E9 ; 0.0
12 ; 3689230.2090814286 ; 1.2797951121079656E8 ; 3.52840537101375E7 ; 1.3472450861683517E9 ; 0.0
13 ; 3991429.0214661043 ; 1.3183860091583252E8 ; 3.897328391921893E7 ; 1.4752245973791482E9 ; 0.0
14 ; 4026733.0395719493 ; 1.3600675530462027E8 ; 4.2964712940685034E7 ; 1.6070631982949808E9 ; 0.0
15 ; 4043195.7304982715 ; 1.4048397112214148E8 ; 4.699144598025698E7 ; 1.743069953599601E9 ; 0.0
16 ; 4052757.0669531003 ; 1.4527024424221864E8 ; 5.103464171075525E7 ; 1.8835539247217426E9 ; 0.0
17 ; 4066346.8839892293 ; 1.5036556970966122E8 ; 5.508739877770835E7 ; 2.0288241689639614E9 ; 0.0
18 ; 4079492.216040773 ; 1.5576994178967798E8 ; 5.915374566169758E7 ; 2.1791897386736226E9 ; 0.0
19 ; 4093419.2079366427 ; 1.6148335402343538E8 ; 6.323323787773836E7 ; 2.3349596804633007E9 ; 0.0
20 ; 4106813.464800236 ; 1.675057992885588E8 ; 6.7326657085675E7 ; 2.4964430344867363E9 ; 0.0
21 ; 4123595.9156923266 ; 1.738372698633283E8 ; 7.143347055047524E7 ; 2.6639488337752953E9 ; 0.0
22 ; 4135657.8456377084 ; 1.8047775749332267E8 ; 7.555706646616757E7 ; 2.8377861036386237E9 ; 0.0
23 ; 4148386.4804802355 ; 1.8742725345930415E8 ; 7.969272431180528E7 ; 3.0182638611319466E9 ; 0.0
24 ; 4162955.00743271 ; 1.9468574864520913E8 ; 8.384111079228552E7 ; 3.205691114591251E9 ; 0.0
25 ; 4174920.7279320187 ; 2.009412745033941E8 ; 8.800406579971823E7 ; 3.40037686323646E9 ; 0.0
26 ; 4190102.532399505 ; 2.0094736915675032E8 ; 9.217898652765025E7 ; 3.6013181377398543E9 ; 0.0
27 ; 4205834.320969273 ; 2.0095379198620206E8 ; 9.636908906004976E7 ; 3.8022655068966045E9 ; 0.0
28 ; 4220528.197582609 ; 2.0096053293680656E8 ; 1.0057492338101903E8 ; 4.003219298882807E9 ; 0.0
29 ; 4233616.725386812 ; 2.0096758186655754E8 ; 1.0479545157860163E8 ; 4.2041798318196135E9 ; 0.0
30 ; 4247278.952644009 ; 2.0097492859780574E8 ; 1.0902906830398844E8 ; 4.405147413686171E9 ; 0.0
31 ; 4258507.466364502 ; 2.009825629643004E8 ; 1.1327634725663245E8 ; 4.606122342283977E9 ; 0.0
32 ; 4272470.871921768 ; 2.0099047485372365E8 ; 1.1753485472299695E8 ; 4.807104905248277E9 ; 0.0
33 ; 4282467.434472304 ; 2.0099865424569115E8 ; 1.2180732559491871E8 ; 5.008095380102E9 ; 0.0
34 ; 4295423.547077579 ; 2.0100709124527848E8 ; 1.2608979302939102E8 ; 5.209094034347692E9 ; 0.0
35 ; 4307677.577670751 ; 2.0101577611220297E8 ; 1.303852165764686E8 ; 5.41010112559297E9 ; 0.0
36 ; 4317378.12632925 ; 2.010246992858491E8 ; 1.3469289415413934E8 ; 5.611116901705173E9 ; 0.0
37 ; 4328901.129107543 ; 2.0103385140636683E8 ; 1.3901027228046858E8 ; 5.812141600991022E9 ; 0.0
38 ; 4343608.679610165 ; 2.0104322333210433E8 ; 1.4333917340957612E8 ; 6.013175452397388E9 ; 0.0
39 ; 4350796.6314375615 ; 2.0105280615365615E8 ; 1.4768278208918628E8 ; 6.214218675729493E9 ; 0.0
40 ; 4359734.520119555 ; 2.0106259120481792E8 ; 1.5203357872062385E8 ; 6.415271481883149E9 ; 0.0
41 ; 4369911.1852539955 ; 2.010725700707415E8 ; 1.563933132407434E8 ; 6.616334073087967E9 ; 0.0
42 ; 4379527.123697637 ; 2.010827345935809E8 ; 1.607632244259974E8 ; 6.817406643158709E9 ; 0.0
43 ; 4387891.291363433 ; 2.0109307687590963E8 ; 1.6514275154969504E8 ; 7.01848937775229E9 ; 0.0
44 ; 4395906.027965959 ; 2.0110358928217822E8 ; 1.695306428410585E8 ; 7.2195824546282E9 ; 0.0
45 ; 4401932.291123109 ; 2.0111426443846458E8 ; 1.7392654886902446E8 ; 7.4206860439103775E9 ; 0.0
46 ; 4405179.538545266 ; 2.0112509523075217E8 ; 1.7832848116014758E8 ; 7.621800308348842E9 ; 0.0
47 ; 4412610.109788672 ; 2.0113607480195415E8 ; 1.8273366069869286E8 ; 7.822925403579594E9 ; 0.0
48 ; 4420314.804835176 ; 2.011471965478805E8 ; 1.8714627080848154E8 ; 8.024061478381548E9 ; 0.0
49 ; 4423874.845424427 ; 2.0115845411232838E8 ; 1.915665856133167E8 ; 8.225208674929428E9 ; 0.0
50 ; 4431561.226524486 ; 2.0116984138145697E8 ; 1.9599046045874113E8 ; 8.426367129041757E9 ; 0.0
51 ; 4433906.142525742 ; 2.011813524775898E8 ; 2.004220216852656E8 ; 8.627536970423214E9 ; 0.0
52 ; 4435738.346793894 ; 2.011929817525726E8 ; 2.0485592782779133E8 ; 8.828718322900805E9 ; 0.0
53 ; 4441525.604204643 ; 2.0120472378079775E8 ; 2.0929166617458522E8 ; 9.029911304653378E9 ; 0.0
54 ; 4444882.77956834 ; 2.012165733519931E8 ; 2.1373319177878988E8 ; 9.231116028434175E9 ; 0.0
55 ; 4449140.931344809 ; 2.0122852546385908E8 ; 2.1817807455835822E8 ; 9.43233260178617E9 ; 0.0
56 ; 4455814.108374068 ; 2.0124057531462675E8 ; 2.2262721548970303E8 ; 9.633561127250029E9 ; 0.0
57 ; 4457900.824022845 ; 2.0125271829559875E8 ; 2.270830295980771E8 ; 9.834801702564655E9 ; 0.0
58 ; 4460166.060729512 ; 2.0126494998372447E8 ; 2.3154093042209995E8 ; 1.0036054420860254E10 ; 0.0
59 ; 4461623.062700031 ; 2.012772661342539E8 ; 2.3600109648282945E8 ; 1.0237319370843979E10 ; 0.0
60 ; 4468105.908423681 ; 2.0128966267350507E8 ; 2.4046271954552948E8 ; 1.0438596636978233E10 ; 0.0
61 ; 4471506.374261037 ; 2.0130213569177568E8 ; 2.4493082545395318E8 ; 1.063988629965174E10 ; 0.0
62 ; 4472748.781636589 ; 2.0131468143642095E8 ; 2.4940233182821423E8 ; 1.0841188435343515E10 ; 0.0
63 ; 4482719.250129534 ; 2.0132729630511728E8 ; 2.5387508060985082E8 ; 1.1042503116779936E10 ; 0.0
64 ; 4481598.210375201 ; 2.0133997683932516E8 ; 2.5835779985998034E8 ; 1.1243830413085052E10 ; 0.0
65 ; 4483258.033231521 ; 2.0135271971796167E8 ; 2.6283939807035553E8 ; 1.1445170389924377E10 ; 0.0
66 ; 4483132.125733146 ; 2.0136552175128978E8 ; 2.6732265610358706E8 ; 1.164652310964234E10 ; 0.0
67 ; 4493895.828348055 ; 2.0137837987502852E8 ; 2.718057882293202E8 ; 1.184788863139363E10 ; 0.0
68 ; 4491562.213543546 ; 2.0139129114468607E8 ; 2.7629968405766827E8 ; 1.2049267011268658E10 ; 0.0
69 ; 4496469.58864161 ; 2.0140425273011598E8 ; 2.807912462712118E8 ; 1.2250658302413343E10 ; 0.0
70 ; 4499704.354702793 ; 2.0141726191029465E8 ; 2.852877158598534E8 ; 1.245206255514346E10 ; 0.0
71 ; 4500689.409629174 ; 2.014303160683176E8 ; 2.8978742021455616E8 ; 1.2653479817053755E10 ; 0.0
72 ; 4499591.910757606 ; 2.0144341268661007E8 ; 2.942881096241853E8 ; 1.2854910133122072E10 ; 0.0
73 ; 4504365.619360035 ; 2.0145654934234783E8 ; 2.987877015349429E8 ; 1.3056353545808681E10 ; 0.0
74 ; 4506664.648139927 ; 2.014697237030817E8 ; 3.0329206715430295E8 ; 1.325781009515103E10 ; 0.0
75 ; 4508742.664270297 ; 2.014829335225612E8 ; 3.077987318024429E8 ; 1.345927981885411E10 ; 0.0
76 ; 4506520.060306922 ; 2.0149617663674945E8 ; 3.123074744667132E8 ; 1.3660762752376673E10 ; 0.0
77 ; 4512552.224881854 ; 2.015094509600239E8 ; 3.168139945270201E8 ; 1.3862258929013422E10 ; 0.0
78 ; 4510190.119545946 ; 2.0152275448155555E8 ; 3.213265467519019E8 ; 1.4063768379973446E10 ; 0.0
79 ; 4509333.350344617 ; 2.015360852618596E8 ; 3.2583673687144786E8 ; 1.4265291134455002E10 ; 0.0
80 ; 4505648.884558991 ; 2.015494414295111E8 ; 3.3034607022179246E8 ; 1.4466827219716862E10 ; 0.0
81 ; 4503231.733057082 ; 2.015628211780187E8 ; 3.3485171910635144E8 ; 1.4668376661146374E10 ; 0.0
82 ; 4502117.419711118 ; 2.0157622276284903E8 ; 3.393549508394085E8 ; 1.4869939482324392E10 ; 0.0
83 ; 4503242.815080182 ; 2.015896444985961E8 ; 3.4385706825911963E8 ; 1.5071515705087242E10 ; 0.0
84 ; 4498681.856569576 ; 2.016030847562884E8 ; 3.483603110741998E8 ; 1.5273105349585838E10 ; 0.0
85 ; 4493183.71717515 ; 2.0161654196082768E8 ; 3.528589929307694E8 ; 1.5474708434342127E10 ; 0.0
86 ; 4491455.210738791 ; 2.016300145885532E8 ; 3.573521766479445E8 ; 1.5676324976302954E10 ; 0.0
87 ; 4488360.948973423 ; 2.0164350116492552E8 ; 3.618436318586833E8 ; 1.5877954990891506E10 ; 0.0
88 ; 4486889.382632953 ; 2.0165700026232424E8 ; 3.663319928076567E8 ; 1.607959849205643E10 ; 0.0
89 ; 4483184.113928313 ; 2.0167051049795368E8 ; 3.708188821902897E8 ; 1.6281255492318754E10 ; 0.0
90 ; 4482854.073820421 ; 2.0168403053185183E8 ; 3.75302066304218E8 ; 1.6482926002816708E10 ; 0.0
91 ; 4477063.982069299 ; 2.0169755906499687E8 ; 3.797849203780384E8 ; 1.668461003334856E10 ; 0.0
92 ; 4476816.548580358 ; 2.017110948375069E8 ; 3.842619843601077E8 ; 1.6886307592413557E10 ; 0.0
93 ; 4471245.848591861 ; 2.017246366269279E8 ; 3.8873880090868807E8 ; 1.7088018687251064E10 ; 0.0
94 ; 4467501.0997104375 ; 2.0173818324660566E8 ; 3.9321004675727993E8 ; 1.728974332387799E10 ; 0.0
95 ; 4464217.584758744 ; 2.0175173354413706E8 ; 3.976775478569904E8 ; 1.7491481507124596E10 ; 0.0
96 ; 4462217.364019062 ; 2.017652863998973E8 ; 4.0214176544174916E8 ; 1.769323324066873E10 ; 0.0
97 ; 4457482.145823497 ; 2.017788407256387E8 ; 4.066039828057682E8 ; 1.789499852706863E10 ; 0.0
98 ; 4452239.502850047 ; 2.017923954631575E8 ; 4.110614649515917E8 ; 1.809677736779427E10 ; 0.0
99 ; 4452782.456859578 ; 2.0180594958302554E8 ; 4.155137044544417E8 ; 1.8298569763257427E10 ; 0.0
100 ; 4446745.100949951 ; 2.018195020833828E8 ; 4.199664869113013E8 ; 1.8500375712840454E10 ; 0.0
101 ; 4441086.631165021 ; 2.0183305198878855E8 ; 4.2441323201225126E8 ; 1.8702195214923836E10 ; 0.0
102 ; 4439042.097309539 ; 2.0184659834912744E8 ; 4.288543186434163E8 ; 1.8904028266912624E10 ; 0.0
103 ; 4429789.972127497 ; 2.0186014023856804E8 ; 4.332933607407258E8 ; 1.9105874865261753E10 ; 0.0
104 ; 4432840.410437113 ; 2.0187367675457087E8 ; 4.377231507128533E8 ; 1.930773500550032E10 ; 0.0
105 ; 4422792.414672163 ; 2.0188720701694384E8 ; 4.421559911232904E8 ; 1.950960868225489E10 ; 0.0
106 ; 4422713.236547055 ; 2.0190073016694227E8 ; 4.4657878353796256E8 ; 1.9711495889271835E10 ; 0.0
107 ; 4419641.193680494 ; 2.019142453664114E8 ; 4.510014967745096E8 ; 1.9913396619438778E10 ; 0.0
108 ; 4411433.444556417 ; 2.0192775179696903E8 ; 4.554211379681901E8 ; 2.011531086480519E10 ; 0.0
109 ; 4410503.014755745 ; 2.0194124865922672E8 ; 4.598325714127465E8 ; 2.031723861660216E10 ; 0.0
110 ; 4404015.55417775 ; 2.0195473517204708E8 ; 4.642430744275022E8 ; 2.0519179865261387E10 ; 0.0
111 ; 4396004.702662003 ; 2.019682105718355E8 ; 4.6864708998168E8 ; 2.0721134600433434E10 ; 0.0
112 ; 4393117.535050352 ; 2.0198167411186463E8 ; 4.7304309468434197E8 ; 2.092310281100527E10 ; 0.0
113 ; 4386150.806014734 ; 2.0199512506163013E8 ; 4.774362122193923E8 ; 2.1125084485117134E10 ; 0.0
114 ; 4384851.993788654 ; 2.0200856270623568E8 ; 4.81822363025407E8 ; 2.1327079610178764E10 ; 0.0
115 ; 4378477.455777112 ; 2.020219863458062E8 ; 4.862072150191957E8 ; 2.1529088172885E10 ; 0.0
116 ; 4373105.201995724 ; 2.0203539529492766E8 ; 4.905856924749728E8 ; 2.1731110159230804E10 ; 0.0
117 ; 4365917.658995837 ; 2.0204878888211215E8 ; 4.949587976769685E8 ; 2.1933145554525734E10 ; 0.0
118 ; 4361493.163207007 ; 2.0206216644928718E8 ; 4.993247153359643E8 ; 2.2135194343407845E10 ; 0.0
119 ; 4355563.325391187 ; 2.0207552735130778E8 ; 5.036862084991713E8 ; 2.2337256509857132E10 ; 0.0
120 ; 4347499.3925713925 ; 2.0208887095549023E8 ; 5.080417718245625E8 ; 2.253933203720844E10 ; 0.0
121 ; 4346604.571795571 ; 2.0210219664116672E8 ; 5.123892712171339E8 ; 2.274142090816393E10 ; 0.0
122 ; 4338174.00875705 ; 2.0211550379925948E8 ; 5.1673587578892946E8 ; 2.2943523104805096E10 ; 0.0
123 ; 4335123.065168936 ; 2.021287918318738E8 ; 5.210740497976865E8 ; 2.3145638608604355E10 ; 0.0
124 ; 4326477.892852414 ; 2.0214206015190876E8 ; 5.2540917286285543E8 ; 2.334776740043623E10 ; 0.0
125 ; 4321667.39407648 ; 2.021553081826848E8 ; 5.2973565075570786E8 ; 2.354990946058814E10 ; 0.0
126 ; 4318481.167945153 ; 2.0216853535758793E8 ; 5.340573181497843E8 ; 2.3752064768770824E10 ; 0.0
127 ; 4307595.1919746725 ; 2.021817411197286E8 ; 5.383757993177295E8 ; 2.3954233304128414E10 ; 0.0
128 ; 4302337.789511271 ; 2.0219492492161572E8 ; 5.426833945097041E8 ; 2.4156415045248142E10 ; 0.0
129 ; 4299820.189545454 ; 2.022080862248446E8 ; 5.469857322992154E8 ; 2.4358609970169758E10 ; 0.0
130 ; 4288919.989706569 ; 2.0222122449979788E8 ; 5.51285552488761E8 ; 2.4560818056394604E10 ; 0.0
131 ; 4280579.24819805 ; 2.0223433922535932E8 ; 5.555744724784675E8 ; 2.47630392808944E10 ; 0.0
132 ; 4267513.00055162 ; 2.0224742988863972E8 ; 5.598550517266655E8 ; 2.4965273620119762E10 ; 0.0
133 ; 4256720.390353023 ; 2.0226049598471424E8 ; 5.641225647272171E8 ; 2.5167521050008404E10 ; 0.0
134 ; 4247465.239811164 ; 2.022735370163707E8 ; 5.6837928511757E8 ; 2.536978154599312E10 ; 0.0
135 ; 4231554.82749604 ; 2.0228655249386844E8 ; 5.726267503573812E8 ; 2.5572055083009487E10 ; 0.0
136 ; 4222695.5007831175 ; 2.0229954193470693E8 ; 5.768583051848773E8 ; 2.5774341635503357E10 ; 0.0
137 ; 4211740.517689762 ; 2.023125048634042E8 ; 5.810810006856604E8 ; 2.5976641177438065E10 ; 0.0
138 ; 4204982.955489917 ; 2.0232544081128436E8 ; 5.852927412033501E8 ; 2.6178953682301468E10 ; 0.0
139 ; 4196382.318522226 ; 2.023383493162734E8 ; 5.8949772415884E8 ; 2.638127912311275E10 ; 0.0
140 ; 4181780.3883530656 ; 2.0235122992270368E8 ; 5.936941064773622E8 ; 2.6583617472429024E10 ; 0.0
141 ; 4171454.020150549 ; 2.0236408218112642E8 ; 5.978758868657153E8 ; 2.6785968702351727E10 ; 0.0
142 ; 4160129.754545265 ; 2.023769056481312E8 ; 6.020473408858658E8 ; 2.6988332784532852E10 ; 0.0
143 ; 4143470.5500307283 ; 2.0238969988617334E8 ; 6.06207470640411E8 ; 2.7190709690180984E10 ; 0.0
144 ; 4137579.363101272 ; 2.0240246446340778E8 ; 6.103509411904417E8 ; 2.7393099390067158E10 ; 0.0
145 ; 4130394.073054471 ; 2.0241519895352957E8 ; 6.14488520553543E8 ; 2.7595501854530567E10 ; 0.0
146 ; 4123113.728445191 ; 2.0242790293562102E8 ; 6.186189146265974E8 ; 2.7797917053484097E10 ; 0.0
147 ; 4114867.0181583236 ; 2.0244057599400437E8 ; 6.227420283550426E8 ; 2.8000344956419716E10 ; 0.0
148 ; 4111836.011318252 ; 2.0245321771810073E8 ; 6.268568953732009E8 ; 2.820278553241372E10 ; 0.0
149 ; 4104129.578070936 ; 2.0246582770229423E8 ; 6.309687313845191E8 ; 2.840523875013182E10 ; 0.0
150 ; 4098461.9392048293 ; 2.0247840554580146E8 ; 6.3507286096259E8 ; 2.8607704577834114E10 ; 0.0
151 ; 4086976.2094144803 ; 2.0249095085254627E8 ; 6.391713229017948E8 ; 2.8810182983379917E10 ; 0.0
152 ; 4081708.9987195116 ; 2.0250346323103908E8 ; 6.432582991112093E8 ; 2.9012673934232464E10 ; 0.0
153 ; 4075684.8158751205 ; 2.0251594229426083E8 ; 6.473400081099287E8 ; 2.9215177397463505E10 ; 0.0
154 ; 4072667.706818961 ; 2.025283876595518E8 ; 6.514156929258039E8 ; 2.9417693339757767E10 ; 0.0
155 ; 4062341.5860270187 ; 2.0254079894850406E8 ; 6.554883606326228E8 ; 2.962022172741732E10 ; 0.0
156 ; 4056002.662195578 ; 2.025531757868586E8 ; 6.595507022186499E8 ; 2.9822762526365826E10 ; 0.0
157 ; 4047830.4715120764 ; 2.025655178044058E8 ; 6.636067048808454E8 ; 3.0025315702152683E10 ; 0.0
158 ; 4042678.597077969 ; 2.0257782463489023E8 ; 6.676545353523575E8 ; 3.022788121995709E10 ; 0.0
159 ; 4033021.055421897 ; 2.0259009591591844E8 ; 6.716972139494355E8 ; 3.043045904459198E10 ; 0.0
160 ; 4022920.7002622657 ; 2.0260233128887075E8 ; 6.757302350048574E8 ; 3.06330491405079E10 ; 0.0
161 ; 4019538.346384912 ; 2.0261453039881593E8 ; 6.797531557051197E8 ; 3.0835651471796772E10 ; 0.0
162 ; 4008201.0412558364 ; 2.026266928944292E8 ; 6.837726940515046E8 ; 3.1038266002195587E10 ; 0.0
163 ; 4002507.748316531 ; 2.026388184279134E8 ; 6.877808950927604E8 ; 3.1240892695090015E10 ; 0.0
164 ; 3994897.847929342 ; 2.0265090665492275E8 ; 6.91783402841077E8 ; 3.144353151351793E10 ; 0.0
165 ; 3984633.73201479 ; 2.0266295723448977E8 ; 6.957783006890063E8 ; 3.164618242017285E10 ; 0.0
166 ; 3988224.8467941033 ; 2.026749698289547E8 ; 6.997629344210211E8 ; 3.184884537740734E10 ; 0.0
167 ; 3974772.605826079 ; 2.0268694410389736E8 ; 7.037511592678152E8 ; 3.2051520347236298E10 ; 0.0
168 ; 3970686.621150804 ; 2.026988797280719E8 ; 7.077259318736413E8 ; 3.2254207291340195E10 ; 0.0
169 ; 3962121.032738688 ; 2.0271077637334344E8 ; 7.116966184947921E8 ; 3.2456906171068268E10 ; 0.0
170 ; 3956065.568137942 ; 2.0272263371462736E8 ; 7.156587395275308E8 ; 3.2659616947441612E10 ; 0.0
171 ; 3947565.270598791 ; 2.0273445142983067E8 ; 7.196148050956687E8 ; 3.286233958115624E10 ; 0.0
172 ; 3942086.192413396 ; 2.0274622919979542E8 ; 7.235623703662674E8 ; 3.306507403258607E10 ; 0.0
173 ; 3935578.317511979 ; 2.0275796670824423E8 ; 7.275044565586809E8 ; 3.3267820261785866E10 ; 0.0
174 ; 3930311.841679491 ; 2.0276966364172775E8 ; 7.314400348761929E8 ; 3.347057822849411E10 ; 0.0
175 ; 3922603.90979778 ; 2.0278131968957388E8 ; 7.353703467178724E8 ; 3.3673347892135838E10 ; 0.0
176 ; 3917308.0353999124 ; 2.027929345438391E8 ; 7.392929506276702E8 ; 3.3876129211825413E10 ; 0.0
177 ; 3912696.884448262 ; 2.0280450789926118E8 ; 7.432102586630701E8 ; 3.407892214636925E10 ; 0.0
178 ; 3906550.686214876 ; 2.0281603945321375E8 ; 7.471229555475184E8 ; 3.4281726654268513E10 ; 0.0
179 ; 3901193.952640184 ; 2.0282752890566248E8 ; 7.510295062337333E8 ; 3.4484542693721725E10 ; 0.0
180 ; 3893610.2551733586 ; 2.0283897595912266E8 ; 7.549307001863735E8 ; 3.468737022262739E10 ; 0.0
181 ; 3891105.3642130406 ; 2.028503803186185E8 ; 7.588243104415468E8 ; 3.489020919858651E10 ; 0.0
182 ; 3886055.5379825397 ; 2.028617416916437E8 ; 7.627154158057598E8 ; 3.509305957890513E10 ; 0.0
183 ; 3877050.163411286 ; 2.028730597881233E8 ; 7.666014713437424E8 ; 3.529592132059677E10 ; 0.0
184 ; 3878014.4861636097 ; 2.0288433432037726E8 ; 7.704785215071536E8 ; 3.5498794380384895E10 ; 0.0
185 ; 3868795.181884952 ; 2.0289556500308478E8 ; 7.743565359933172E8 ; 3.570167871470527E10 ; 0.0
186 ; 3865767.8645196883 ; 2.0290675155325028E8 ; 7.782253311752023E8 ; 3.590457427970835E10 ; 0.0
187 ; 3857381.9234521706 ; 2.0291789369017035E8 ; 7.82091099039722E8 ; 3.6107481031261604E10 ; 0.0
188 ; 3851970.141680143 ; 2.0292899113540187E8 ; 7.859484809631741E8 ; 3.6310398924951775E10 ; 0.0
189 ; 3849840.8221108746 ; 2.0294004361273143E8 ; 7.898004511048542E8 ; 3.651332791608717E10 ; 0.0
190 ; 3839440.3788788067 ; 2.0295105084814537E8 ; 7.936502919269651E8 ; 3.6716267959699905E10 ; 0.0
191 ; 3833971.3549762582 ; 2.029620125698014E8 ; 7.97489732305844E8 ; 3.691921901054805E10 ; 0.0
192 ; 3832719.694064815 ; 2.029729285080007E8 ; 8.013237036608202E8 ; 3.712218102311785E10 ; 0.0
193 ; 3826137.854361162 ; 2.029837983951614E8 ; 8.051564233548851E8 ; 3.7325153951625854E10 ; 0.0
194 ; 3821069.1563732503 ; 2.0299462196579257E8 ; 8.089825612092463E8 ; 3.752813775002102E10 ; 0.0
195 ; 3816089.2450642507 ; 2.0300539895646945E8 ; 8.128036303656195E8 ; 3.773113237198681E10 ; 0.0
196 ; 3811122.8041783134 ; 2.0301612910580936E8 ; 8.166197196106838E8 ; 3.7934137770943275E10 ; 0.0
197 ; 3802655.1920348 ; 2.030268121544484E8 ; 8.204308424148622E8 ; 3.813715390004909E10 ; 0.0
198 ; 3801669.309540917 ; 2.03037447845019E8 ; 8.24233497606897E8 ; 3.834018071220354E10 ; 0.0
199 ; 3795400.5883082026 ; 2.0304803592212838E8 ; 8.280351669164379E8 ; 3.854321816004855E10 ; 0.0
200 ; 3787629.636874529 ; 2.0305857613233745E8 ; 8.318305675047461E8 ; 3.874626619597068E10 ; 0.0
201 ; 3783618.9530384485 ; 1.6073462014729702E8 ; 8.356181971416206E8 ; 3.894932477210302E10 ; 0.0
