CSV File for the City 6 on Day 264
1 - Minute m 
2 - Power Consumed at minute m 
3 - Power Produced at minute m 
4 - Energy Consumed since the beginning of the day 
5 - Energy Produced since the beginning of the day 
6 - Energy Lost since the beginning of the day on lines starting from the city
 
0 ; 4149717.021475887 ; 1.0606733414154187E8 ; 0.0 ; 0.0 ; 0.0
1 ; 4158484.908259355 ; 1.0621820832587498E8 ; 4149717.021475887 ; 1.0606733414154187E8 ; 0.0
2 ; 4168947.460565649 ; 1.0667807540208021E8 ; 8308201.929735241 ; 2.1228554246741685E8 ; 0.0
3 ; 4177406.8266502423 ; 1.0744693924167621E8 ; 1.247714939030089E7 ; 3.1896361786949706E8 ; 0.0
4 ; 4192866.3597314195 ; 1.0852480331655616E8 ; 1.6654556216951132E7 ; 4.264105571111733E8 ; 0.0
5 ; 4206752.5524547305 ; 1.0991167067896909E8 ; 2.0847422576682553E7 ; 5.349353604277294E8 ; 0.0
6 ; 4231533.611905942 ; 1.1160754394356969E8 ; 2.5054175129137285E7 ; 6.448470311066985E8 ; 0.0
7 ; 4269105.249589794 ; 1.1361242527177912E8 ; 2.9285708741043225E7 ; 7.564545750502682E8 ; 0.0
8 ; 4314275.639300178 ; 1.1592631635867232E8 ; 3.355481399063302E7 ; 8.700670003220472E8 ; 0.0
9 ; 4394479.4308699705 ; 1.1854921842257822E8 ; 3.786908962993319E7 ; 9.859933166807196E8 ; 0.0
10 ; 4516891.486715118 ; 1.2148113219754064E8 ; 4.226356906080316E7 ; 1.1045425351032977E9 ; 0.0
11 ; 4709014.083635473 ; 1.2472205792875108E8 ; 4.6780460547518276E7 ; 1.2260236673008385E9 ; 0.0
12 ; 5028101.591809183 ; 1.2827199537101802E8 ; 5.148947463115375E7 ; 1.3507457252295895E9 ; 0.0
13 ; 5329213.6146004405 ; 1.3213094379029763E8 ; 5.651757622296293E7 ; 1.4790177206006074E9 ; 0.0
14 ; 5359409.392536865 ; 1.3629890196826106E8 ; 6.184678983756337E7 ; 1.611148664390905E9 ; 0.0
15 ; 5370677.295700292 ; 1.4077586820983326E8 ; 6.720619923010024E7 ; 1.747447566359166E9 ; 0.0
16 ; 5388293.450685215 ; 1.455618403535932E8 ; 7.257687652580054E7 ; 1.8882234345689993E9 ; 0.0
17 ; 5398474.081933226 ; 1.506568157848861E8 ; 7.796516997648576E7 ; 2.0337852749225924E9 ; 0.0
18 ; 5409400.7932741195 ; 1.5606079145146292E8 ; 8.336364405841899E7 ; 2.1844420907074785E9 ; 0.0
19 ; 5421195.601274078 ; 1.6177376388143054E8 ; 8.877304485169311E7 ; 2.3405028821589413E9 ; 0.0
20 ; 5430874.2435689345 ; 1.6779572920327023E8 ; 9.419424045296718E7 ; 2.502276646040372E9 ; 0.0
21 ; 5446292.387501636 ; 1.7412668316766158E8 ; 9.962511469653612E7 ; 2.6700723752436423E9 ; 0.0
22 ; 5458440.815244402 ; 1.807666211708352E8 ; 1.0507140708403777E8 ; 2.844199058411304E9 ; 0.0
23 ; 5467713.685292414 ; 1.8771553827916813E8 ; 1.1052984789928217E8 ; 3.024965679582139E9 ; 0.0
24 ; 5476941.15106425 ; 1.9497342925473523E8 ; 1.1599756158457458E8 ; 3.212681217861307E9 ; 0.0
25 ; 5494109.27943301 ; 2.0122832947971436E8 ; 1.2147450273563883E8 ; 3.407654647116042E9 ; 0.0
26 ; 5504534.202571824 ; 2.0123378101989782E8 ; 1.2696861201507184E8 ; 3.6088829765957565E9 ; 0.0
27 ; 5515511.703640188 ; 2.0123954717634135E8 ; 1.3247314621764366E8 ; 3.8101167576156545E9 ; 0.0
28 ; 5527520.847269125 ; 2.0124562175876442E8 ; 1.3798865792128384E8 ; 4.011356304791996E9 ; 0.0
29 ; 5541193.485021567 ; 2.012519984050774E8 ; 1.4351617876855296E8 ; 4.2126019265507603E9 ; 0.0
30 ; 5555278.845483303 ; 2.0125867060711077E8 ; 1.4905737225357452E8 ; 4.413853924955837E9 ; 0.0
31 ; 5562666.346526666 ; 2.012656317356093E8 ; 1.5461265109905782E8 ; 4.615112595562948E9 ; 0.0
32 ; 5569891.059071721 ; 2.0127287506433132E8 ; 1.6017531744558448E8 ; 4.816378227298557E9 ; 0.0
33 ; 5584077.306221313 ; 2.0128039379312032E8 ; 1.657452085046562E8 ; 5.017651102362888E9 ; 0.0
34 ; 5591857.22005528 ; 2.0128818106983793E8 ; 1.713292858108775E8 ; 5.218931496156009E9 ; 0.0
35 ; 5605778.014801102 ; 2.012962300110731E8 ; 1.7692114303093278E8 ; 5.420219677225846E9 ; 0.0
36 ; 5611857.835952383 ; 2.0130453372156352E8 ; 1.825269210457339E8 ; 5.621515907236919E9 ; 0.0
37 ; 5622227.3344169585 ; 2.0131308531228632E8 ; 1.8813877888168627E8 ; 5.822820440958483E9 ; 0.0
38 ; 5632611.489747647 ; 2.0132187791719514E8 ; 1.9376100621610323E8 ; 6.024133526270769E9 ; 0.0
39 ; 5638752.380030142 ; 2.013309047085972E8 ; 1.9939361770585087E8 ; 6.225455404187964E9 ; 0.0
40 ; 5647046.82633506 ; 2.0134015891117957E8 ; 2.0503237008588102E8 ; 6.426786308896562E9 ; 0.0
41 ; 5651036.040254682 ; 2.0134963381470776E8 ; 2.106794169122161E8 ; 6.628126467807741E9 ; 0.0
42 ; 5660163.759437245 ; 2.0135932278543028E8 ; 2.1633045295247078E8 ; 6.829476101622449E9 ; 0.0
43 ; 5664762.324971082 ; 2.0136921927623314E8 ; 2.21990616711908E8 ; 7.030835424407879E9 ; 0.0
44 ; 5674245.7896572435 ; 2.0137931683559534E8 ; 2.276553790368791E8 ; 7.232204643684112E9 ; 0.0
45 ; 5678269.933739814 ; 2.0138960911540276E8 ; 2.3332962482653633E8 ; 7.433583960519707E9 ; 0.0
46 ; 5686686.02968721 ; 2.0140008987768212E8 ; 2.3900789476027614E8 ; 7.63497356963511E9 ; 0.0
47 ; 5685446.806117532 ; 2.014107530003199E8 ; 2.4469458078996333E8 ; 7.836373659512792E9 ; 0.0
48 ; 5693882.414894062 ; 2.0142159248183244E8 ; 2.5038002759608087E8 ; 8.037784412513111E9 ; 0.0
49 ; 5694778.447687627 ; 2.014326024452552E8 ; 2.5607391001097494E8 ; 8.239206004994944E9 ; 0.0
50 ; 5698633.272764584 ; 2.0144377714121762E8 ; 2.6176868845866257E8 ; 8.440638607440199E9 ; 0.0
51 ; 5700641.170287187 ; 2.0145511095027012E8 ; 2.6746732173142716E8 ; 8.642082384581417E9 ; 0.0
52 ; 5701704.287477163 ; 2.0146659838452774E8 ; 2.731679629017143E8 ; 8.843537495531687E9 ; 0.0
53 ; 5704329.675322739 ; 2.014782340886929E8 ; 2.7886966718919146E8 ; 9.045004093916214E9 ; 0.0
54 ; 5706415.6250106 ; 2.0149001284051657E8 ; 2.845739968645142E8 ; 9.246482328004908E9 ; 0.0
55 ; 5708824.072748952 ; 2.0150192955075577E8 ; 2.902804124895248E8 ; 9.447972340845425E9 ; 0.0
56 ; 5708015.572312397 ; 2.0151397926268062E8 ; 2.9598923656227374E8 ; 9.649474270396181E9 ; 0.0
57 ; 5709396.531214956 ; 2.015261571511819E8 ; 3.0169725213458616E8 ; 9.850988249658861E9 ; 0.0
58 ; 5713178.769232824 ; 2.015384585215264E8 ; 3.074066486658011E8 ; 1.0052514406810043E10 ; 0.0
59 ; 5714705.651820891 ; 2.0155087880780458E8 ; 3.131198274350339E8 ; 1.025405286533157E10 ; 0.0
60 ; 5716227.503840382 ; 2.0156341357111096E8 ; 3.188345330868548E8 ; 1.0455603744139374E10 ; 0.0
61 ; 5719337.3761448115 ; 2.0157605849749517E8 ; 3.245507605906952E8 ; 1.0657167157710485E10 ; 0.0
62 ; 5718299.655122928 ; 2.015888093957181E8 ; 3.3027009796684E8 ; 1.0858743216207981E10 ; 0.0
63 ; 5717628.6022420665 ; 2.0160166219484463E8 ; 3.3598839762196296E8 ; 1.1060332025603699E10 ; 0.0
64 ; 5721376.776104623 ; 2.01614612941702E8 ; 3.41706026224205E8 ; 1.1261933687798544E10 ; 0.0
65 ; 5723828.143520415 ; 2.016276577982293E8 ; 3.4742740300030965E8 ; 1.1463548300740246E10 ; 0.0
66 ; 5720514.138426317 ; 2.0164079303874198E8 ; 3.5315123114383006E8 ; 1.1665175958538475E10 ; 0.0
67 ; 5723704.981080173 ; 2.0165401504713207E8 ; 3.5887174528225636E8 ; 1.1866816751577217E10 ; 0.0
68 ; 5723679.026495893 ; 2.0166732031402344E8 ; 3.6459545026333654E8 ; 1.206847076662435E10 ; 0.0
69 ; 5728340.657256278 ; 2.0168070543389803E8 ; 3.703191292898324E8 ; 1.2270138086938374E10 ; 0.0
70 ; 5725505.85955518 ; 2.01694167102209E8 ; 3.760474699470887E8 ; 1.2471818792372272E10 ; 0.0
71 ; 5724001.691250854 ; 2.0170770211249283E8 ; 3.817729758066439E8 ; 1.2673512959474482E10 ; 0.0
72 ; 5724215.077878193 ; 2.0172130735349256E8 ; 3.8749697749789476E8 ; 1.2875220661586975E10 ; 0.0
73 ; 5726801.337059383 ; 2.0173497980630186E8 ; 3.9322119257577294E8 ; 1.3076941968940468E10 ; 0.0
74 ; 5726370.243845424 ; 2.0174871654153866E8 ; 3.989479939128323E8 ; 1.3278676948746769E10 ; 0.0
75 ; 5724939.050849278 ; 2.017625147165557E8 ; 4.046743641566777E8 ; 1.3480425665288307E10 ; 0.0
76 ; 5727180.6434908025 ; 2.0177637157269454E8 ; 4.10399303207527E8 ; 1.3682188180004864E10 ; 0.0
77 ; 5726065.130579404 ; 2.0179028443258792E8 ; 4.161264838510178E8 ; 1.3883964551577559E10 ; 0.0
78 ; 5720190.450315135 ; 2.0180425069751564E8 ; 4.218525489815972E8 ; 1.4085754836010147E10 ; 0.0
79 ; 5718057.2677675085 ; 2.0181826784481674E8 ; 4.275727394319123E8 ; 1.4287559086707663E10 ; 0.0
80 ; 5714585.316108096 ; 2.0183233342536178E8 ; 4.332907966996798E8 ; 1.4489377354552479E10 ; 0.0
81 ; 5710607.5199410515 ; 2.0184644506108648E8 ; 4.390053820157879E8 ; 1.469120968797784E10 ; 0.0
82 ; 5705663.812120682 ; 2.0186060044258973E8 ; 4.4471598953572893E8 ; 1.4893056133038927E10 ; 0.0
83 ; 5703886.988623072 ; 2.0187479732679585E8 ; 4.504216533478496E8 ; 1.5094916733481516E10 ; 0.0
84 ; 5697383.459408568 ; 2.0188903353468293E8 ; 4.561255403364727E8 ; 1.5296791530808311E10 ; 0.0
85 ; 5692668.007639667 ; 2.0190330694907713E8 ; 4.618229237958813E8 ; 1.5498680564342995E10 ; 0.0
86 ; 5687166.434916702 ; 2.0191761551251307E8 ; 4.675155918035209E8 ; 1.5700583871292072E10 ; 0.0
87 ; 5683916.096066254 ; 2.0193195722516012E8 ; 4.732027582384376E8 ; 1.5902501486804585E10 ; 0.0
88 ; 5679326.317661623 ; 2.0194633014281428E8 ; 4.788866743345038E8 ; 1.6104433444029745E10 ; 0.0
89 ; 5675028.190448644 ; 2.0196073237495455E8 ; 4.845660006521655E8 ; 1.630637977417256E10 ; 0.0
90 ; 5666781.1499768635 ; 2.019751620828634E8 ; 4.902410288426141E8 ; 1.6508340506547514E10 ; 0.0
91 ; 5658964.592363287 ; 2.0198961747780988E8 ; 4.9590780999259096E8 ; 1.6710315668630377E10 ; 0.0
92 ; 5659112.270473904 ; 2.020040968192945E8 ; 5.0156677458495426E8 ; 1.6912305286108187E10 ; 0.0
93 ; 5653463.400296592 ; 2.020185984133544E8 ; 5.0722588685542816E8 ; 1.711430938292748E10 ; 0.0
94 ; 5646425.951556789 ; 2.0203312061092773E8 ; 5.128793502557247E8 ; 1.7316327981340836E10 ; 0.0
95 ; 5643835.723862441 ; 2.0204766180627537E8 ; 5.1852577620728153E8 ; 1.7518361101951763E10 ; 0.0
96 ; 5637981.671431862 ; 2.020622204354591E8 ; 5.24169611931144E8 ; 1.7720408763758038E10 ; 0.0
97 ; 5630903.908997329 ; 2.020767949748742E8 ; 5.2980759360257584E8 ; 1.7922470984193497E10 ; 0.0
98 ; 5623986.395279963 ; 2.020913839398351E8 ; 5.354384975115732E8 ; 1.812454777916837E10 ; 0.0
99 ; 5618536.477780356 ; 2.021059858832127E8 ; 5.410624839068532E8 ; 1.8326639163108204E10 ; 0.0
100 ; 5610075.130223218 ; 2.0212059939412165E8 ; 5.466810203846335E8 ; 1.8528745148991417E10 ; 0.0
101 ; 5605994.874740273 ; 2.0213522309665582E8 ; 5.522910955148568E8 ; 1.873086574838554E10 ; 0.0
102 ; 5601039.175281305 ; 2.0214985564867097E8 ; 5.57897090389597E8 ; 1.8933000971482197E10 ; 0.0
103 ; 5595109.212161137 ; 2.0216449574061233E8 ; 5.634981295648783E8 ; 1.9135150827130867E10 ; 0.0
104 ; 5590846.423537021 ; 2.0217914209438637E8 ; 5.690932387770395E8 ; 1.933731532287148E10 ; 0.0
105 ; 5583113.538216912 ; 2.0219379346227455E8 ; 5.746840852005765E8 ; 1.9539494464965866E10 ; 0.0
106 ; 5576095.117844526 ; 2.0220844862588808E8 ; 5.802671987387935E8 ; 1.974168825842814E10 ; 0.0
107 ; 5569679.180319813 ; 2.0222310639516202E8 ; 5.858432938566381E8 ; 1.9943896707054028E10 ; 0.0
108 ; 5561288.024451637 ; 2.022377656073873E8 ; 5.914129730369579E8 ; 2.014611981344919E10 ; 0.0
109 ; 5554747.100864452 ; 2.0225242512627953E8 ; 5.969742610614095E8 ; 2.0348357579056576E10 ; 0.0
110 ; 5546260.810123303 ; 2.0226708384108278E8 ; 6.025290081622739E8 ; 2.0550610004182854E10 ; 0.0
111 ; 5537654.088713943 ; 2.0228174066570756E8 ; 6.080752689723972E8 ; 2.0752877088023937E10 ; 0.0
112 ; 5534155.808587095 ; 2.022963945379015E8 ; 6.136129230611111E8 ; 2.0955158828689644E10 ; 0.0
113 ; 5526792.787201267 ; 2.0231104441845128E8 ; 6.191470788696982E8 ; 2.1157455223227547E10 ; 0.0
114 ; 5517364.484197719 ; 2.023256892904152E8 ; 6.246738716568995E8 ; 2.1359766267645996E10 ; 0.0
115 ; 5513024.846259484 ; 2.023403281583845E8 ; 6.301912361410972E8 ; 2.1562091956936413E10 ; 0.0
116 ; 5507209.9641715195 ; 2.0235496004777297E8 ; 6.357042609873567E8 ; 2.17644322850948E10 ; 0.0
117 ; 5497452.828618302 ; 2.023695840041333E8 ; 6.412114709515282E8 ; 2.196678724514257E10 ; 0.0
118 ; 5490178.576475411 ; 2.0238419909249964E8 ; 6.467089237801465E8 ; 2.2169156829146706E10 ; 0.0
119 ; 5481467.357411406 ; 2.0239880439675462E8 ; 6.521991023566219E8 ; 2.2371541028239204E10 ; 0.0
120 ; 5476843.522479561 ; 2.0241339901902065E8 ; 6.576805697140332E8 ; 2.257393983263596E10 ; 0.0
121 ; 5465716.491725654 ; 2.0242798207907403E8 ; 6.631574132365128E8 ; 2.277635323165498E10 ; 0.0
122 ; 5459174.588577528 ; 2.0244255271378136E8 ; 6.686231297282385E8 ; 2.2978781213734055E10 ; 0.0
123 ; 5453505.544231134 ; 2.0245711007655683E8 ; 6.74082304316816E8 ; 2.3181223766447838E10 ; 0.0
124 ; 5443518.198521587 ; 2.024716533368403E8 ; 6.795358098610471E8 ; 2.3383680876524395E10 ; 0.0
125 ; 5436067.8197435485 ; 2.0248618167959467E8 ; 6.849793280595688E8 ; 2.3586152529861237E10 ; 0.0
126 ; 5426392.493559689 ; 2.0250069430482227E8 ; 6.904153958793123E8 ; 2.3788638711540833E10 ; 0.0
127 ; 5417795.786464474 ; 2.0251519042709926E8 ; 6.95841788372872E8 ; 2.3991139405845654E10 ; 0.0
128 ; 5408489.436550706 ; 2.0252966927512738E8 ; 7.012595841593364E8 ; 2.4193654596272755E10 ; 0.0
129 ; 5398805.452938579 ; 2.0254413009130242E8 ; 7.066680735958872E8 ; 2.4396184265547882E10 ; 0.0
130 ; 5391639.806267206 ; 2.0255857213129872E8 ; 7.120668790488257E8 ; 2.4598728395639183E10 ; 0.0
131 ; 5379621.186090585 ; 2.0257299466366914E8 ; 7.17458518855093E8 ; 2.480128696777048E10 ; 0.0
132 ; 5363689.930722494 ; 2.0258739696945956E8 ; 7.228381400411836E8 ; 2.500385996243415E10 ; 0.0
133 ; 5350027.754715226 ; 2.02601778341838E8 ; 7.282018299719061E8 ; 2.520644735940361E10 ; 0.0
134 ; 5343113.7216232335 ; 2.0261613808573705E8 ; 7.335518577266213E8 ; 2.540904913774545E10 ; 0.0
135 ; 5330207.237912846 ; 2.026304755175095E8 ; 7.388949714482445E8 ; 2.5611665275831184E10 ; 0.0
136 ; 5313066.757388298 ; 2.0264478996459678E8 ; 7.442251786861573E8 ; 2.5814295751348694E10 ; 0.0
137 ; 5297066.335547179 ; 2.0265908076520917E8 ; 7.495382454435457E8 ; 2.601694054131329E10 ; 0.0
138 ; 5286422.415048713 ; 2.0267334726801786E8 ; 7.548353117790929E8 ; 2.62195996220785E10 ; 0.0
139 ; 5274017.302577939 ; 2.0268758883185822E8 ; 7.601217341941416E8 ; 2.6422272969346516E10 ; 0.0
140 ; 5261113.023059892 ; 2.0270180482544363E8 ; 7.653957514967196E8 ; 2.6624960558178375E10 ; 0.0
141 ; 5246335.09641966 ; 2.0271599462708977E8 ; 7.706568645197794E8 ; 2.682766236300382E10 ; 0.0
142 ; 5234317.694416621 ; 2.0273015762444884E8 ; 7.759031996161991E8 ; 2.703037835763091E10 ; 0.0
143 ; 5221215.7633802015 ; 2.027442932142533E8 ; 7.811375173106158E8 ; 2.723310851525536E10 ; 0.0
144 ; 5209721.604921109 ; 2.027584008020687E8 ; 7.86358733073996E8 ; 2.7435852808469612E10 ; 0.0
145 ; 5199837.456894183 ; 2.0277247980205542E8 ; 7.91568454678917E8 ; 2.7638611209271683E10 ; 0.0
146 ; 5189291.265104079 ; 2.027865296367388E8 ; 7.967682921358112E8 ; 2.784138368907374E10 ; 0.0
147 ; 5177827.492021547 ; 2.0280054973678768E8 ; 8.019575834009153E8 ; 2.8044170218710476E10 ; 0.0
148 ; 5171888.639163287 ; 2.028145395408002E8 ; 8.071354108929368E8 ; 2.824697076844726E10 ; 0.0
149 ; 5162439.077647538 ; 2.02828498495098E8 ; 8.123072995321001E8 ; 2.8449785307988064E10 ; 0.0
150 ; 5154087.012220847 ; 2.0284242605352664E8 ; 8.174697386097476E8 ; 2.8652613806483162E10 ; 0.0
151 ; 5142540.332047833 ; 2.0285632167726403E8 ; 8.226238256219685E8 ; 2.885545623253669E10 ; 0.0
152 ; 5134080.362369983 ; 2.0287018483463475E8 ; 8.277663659540163E8 ; 2.9058312554213955E10 ; 0.0
153 ; 5122698.846640104 ; 2.0288401500093126E8 ; 8.329004463163863E8 ; 2.9261182739048588E10 ; 0.0
154 ; 5116795.117165546 ; 2.028978116582412E8 ; 8.380231451630265E8 ; 2.946406675404952E10 ; 0.0
155 ; 5108199.61207792 ; 2.029115742952807E8 ; 8.43139940280192E8 ; 2.966696456570776E10 ; 0.0
156 ; 5096874.56002174 ; 2.029253024072334E8 ; 8.4824813989227E8 ; 2.986987614000304E10 ; 0.0
157 ; 5091334.425689155 ; 2.02938995495595E8 ; 8.533450144522917E8 ; 3.0072801442410275E10 ; 0.0
158 ; 5082460.803879227 ; 2.0295265306802326E8 ; 8.584363488779808E8 ; 3.027574043790587E10 ; 0.0
159 ; 5070707.2055574395 ; 2.0296627463819292E8 ; 8.635188096818601E8 ; 3.0478693090973892E10 ; 0.0
160 ; 5059275.325209096 ; 2.0297985972565582E8 ; 8.685895168874176E8 ; 3.0681659365612083E10 ; 0.0
161 ; 5053391.484672804 ; 2.0299340785570556E8 ; 8.736487922126267E8 ; 3.0884639225337738E10 ; 0.0
162 ; 5043813.776613211 ; 2.0300691855924678E8 ; 8.787021836972995E8 ; 3.1087632633193443E10 ; 0.0
163 ; 5032913.908489726 ; 2.0302039137266907E8 ; 8.837459974739127E8 ; 3.129063955175269E10 ; 0.0
164 ; 5024390.272185971 ; 2.030338258377248E8 ; 8.887789113824024E8 ; 3.149365994312536E10 ; 0.0
165 ; 5012861.673178426 ; 2.0304722150141138E8 ; 8.938033016545883E8 ; 3.1696693768963085E10 ; 0.0
166 ; 5001415.9934441475 ; 2.0306057791585714E8 ; 8.988161633277668E8 ; 3.1899740990464497E10 ; 0.0
167 ; 4995353.827712439 ; 2.0307389463821128E8 ; 9.03817579321211E8 ; 3.2102801568380352E10 ; 0.0
168 ; 4983894.7998493025 ; 2.0308717123053738E8 ; 9.088129331489234E8 ; 3.2305875463018562E10 ; 0.0
169 ; 4976474.236407251 ; 2.0310040725971052E8 ; 9.137968279487727E8 ; 3.25089626342491E10 ; 0.0
170 ; 4966963.375156293 ; 2.0311360229731756E8 ; 9.1877330218518E8 ; 3.2712063041508812E10 ; 0.0
171 ; 4954550.722918144 ; 2.031267559195611E8 ; 9.237402655603362E8 ; 3.291517664380613E10 ; 0.0
172 ; 4945071.221710299 ; 2.0313986770716628E8 ; 9.286948162832544E8 ; 3.311830339972569E10 ; 0.0
173 ; 4937412.294511056 ; 2.0315293724529082E8 ; 9.336398875049647E8 ; 3.3321443267432854E10 ; 0.0
174 ; 4932818.856217109 ; 2.031659641234379E8 ; 9.385772997994758E8 ; 3.3524596204678146E10 ; 0.0
175 ; 4926229.683540833 ; 2.0317894793537202E8 ; 9.435101186556929E8 ; 3.3727762168801586E10 ; 0.0
176 ; 4914401.10084906 ; 2.0319188827903736E8 ; 9.484363483392338E8 ; 3.3930941116736958E10 ; 0.0
177 ; 4913290.615031227 ; 2.0320478475647905E8 ; 9.533507494400828E8 ; 3.4134133005015995E10 ; 0.0
178 ; 4899608.919194137 ; 2.0321763697376695E8 ; 9.58264040055114E8 ; 3.4337337789772472E10 ; 0.0
179 ; 4894963.201684919 ; 2.032304445409217E8 ; 9.631636489743081E8 ; 3.454055542674624E10 ; 0.0
180 ; 4887746.273242291 ; 2.032432070718433E8 ; 9.680586121759931E8 ; 3.474378587128716E10 ; 0.0
181 ; 4876010.17923338 ; 2.0325592418424207E8 ; 9.729463584492353E8 ; 3.494702907835901E10 ; 0.0
182 ; 4871295.334911158 ; 2.0326859549957162E8 ; 9.778223686284688E8 ; 3.515028500254325E10 ; 0.0
183 ; 4862161.586873976 ; 2.0328122064296418E8 ; 9.826936639633799E8 ; 3.535355359804282E10 ; 0.0
184 ; 4856830.9152745735 ; 2.0329379924316776E8 ; 9.875558255502539E8 ; 3.555683481868579E10 ; 0.0
185 ; 4847616.215290941 ; 2.0330633093248546E8 ; 9.924126564655285E8 ; 3.5760128617928955E10 ; 0.0
186 ; 4846508.863887508 ; 2.0331881534671685E8 ; 9.972602726808194E8 ; 3.596343494886144E10 ; 0.0
187 ; 4837603.210893051 ; 2.0333125212510076E8 ; 1.002106781544707E9 ; 3.616675376420816E10 ; 0.0
188 ; 4827357.41633303 ; 2.0334364091026047E8 ; 1.0069443847556E9 ; 3.637008501633326E10 ; 0.0
189 ; 4817889.089257526 ; 2.0335598134815E8 ; 1.011771742171933E9 ; 3.657342865724352E10 ; 0.0
190 ; 4812808.21606946 ; 2.0336827308800274E8 ; 1.0165896312611905E9 ; 3.6776784638591675E10 ; 0.0
191 ; 4805145.2074070545 ; 2.0338051578228113E8 ; 1.02140243947726E9 ; 3.698015291167968E10 ; 0.0
192 ; 4799716.828854431 ; 2.0339270908662823E8 ; 1.026207584684667E9 ; 3.718353342746196E10 ; 0.0
193 ; 4792374.417753633 ; 2.0340485265982074E8 ; 1.0310073015135214E9 ; 3.738692613654859E10 ; 0.0
194 ; 4787423.253762792 ; 2.0341694616372353E8 ; 1.035799675931275E9 ; 3.759033098920841E10 ; 0.0
195 ; 4776754.091631348 ; 2.034289892632454E8 ; 1.0405870991850379E9 ; 3.779374793537214E10 ; 0.0
196 ; 4769125.58603679 ; 2.034409816262965E8 ; 1.0453638532766691E9 ; 3.799717692463538E10 ; 0.0
197 ; 4764141.052465979 ; 2.034529229237468E8 ; 1.050132978862706E9 ; 3.820061790626168E10 ; 0.0
198 ; 4755424.258280288 ; 2.0346481282938612E8 ; 1.054897119915172E9 ; 3.8404070829185425E10 ; 0.0
199 ; 4751323.761766365 ; 2.0347665101988506E8 ; 1.0596525441734523E9 ; 3.860753564201481E10 ; 0.0
200 ; 4739847.447352739 ; 1.8855474837405708E8 ; 1.0644038679352186E9 ; 3.881101229303469E10 ; 0.0
201 ; 4734755.621518889 ; 1.5466017775746796E8 ; 1.0691437153825713E9 ; 3.8999567041408745E10 ; 0.0
