CSV File for the City 1 on Day 32
1 - Minute m 
2 - Power Consumed at minute m 
3 - Power Produced at minute m 
4 - Energy Consumed since the beginning of the day 
5 - Energy Produced since the beginning of the day 
6 - Energy Lost since the beginning of the day on lines starting from the city
 
0 ; 1.5973353593811685E7 ; 1.0527942221788332E8 ; 0.0 ; 0.0 ; 0.0
1 ; 1.5992366825460006E7 ; 1.0543107899812073E8 ; 1.5973353593811685E7 ; 1.0527942221788332E8 ; 0.0
2 ; 1.6011317747837575E7 ; 1.0589160439207652E8 ; 3.1965720419271693E7 ; 2.1071050121600404E8 ; 0.0
3 ; 1.6028793556522343E7 ; 1.0666101355239993E8 ; 4.7977038167109266E7 ; 3.1660210560808057E8 ; 0.0
4 ; 1.6053158216924889E7 ; 1.0773932128543174E8 ; 6.4005831723631606E7 ; 4.232631191604805E8 ; 0.0
5 ; 1.6084455654401194E7 ; 1.091265416716916E8 ; 8.00589899405565E7 ; 5.3100244044591224E8 ; 0.0
6 ; 1.6122031654036168E7 ; 1.1082268764892957E8 ; 9.61434455949577E7 ; 6.401289821176038E8 ; 0.0
7 ; 1.617391302144786E7 ; 1.1282777057929909E8 ; 1.1226547724899386E8 ; 7.509516697665334E8 ; 0.0
8 ; 1.6256168433928957E7 ; 1.1514179982889974E8 ; 1.2843939027044171E8 ; 8.637794403458325E8 ; 0.0
9 ; 1.6370529286005782E7 ; 1.1776478239218748E8 ; 1.4469555870437068E8 ; 9.789212401747322E8 ; 0.0
10 ; 1.6553076262376295E7 ; 1.2069672259410363E8 ; 1.6106608799037647E8 ; 1.0966860225669198E9 ; 0.0
11 ; 1.6844954218837E7 ; 1.2393762189836034E8 ; 1.7761916425275278E8 ; 1.2173827451610234E9 ; 0.0
12 ; 1.730646096758293E7 ; 1.2748747884124544E8 ; 1.9446411847158977E8 ; 1.3413203670593836E9 ; 0.0
13 ; 1.7751365016424373E7 ; 1.313462890978176E8 ; 2.1177057943917271E8 ; 1.468807845900629E9 ; 0.0
14 ; 1.7798256415127244E7 ; 1.3551404567362094E8 ; 2.295219444555971E8 ; 1.6001541349984467E9 ; 0.0
15 ; 1.782385568651252E7 ; 1.3999073920255578E8 ; 2.4732020087072435E8 ; 1.7356681806720676E9 ; 0.0
16 ; 1.7846700410768256E7 ; 1.447763583224688E8 ; 2.6514405655723688E8 ; 1.8756589198746233E9 ; 0.0
17 ; 1.7866344504015904E7 ; 1.498708900956098E8 ; 2.829907569680051E8 ; 2.020435278197092E9 ; 0.0
18 ; 1.7887463666166745E7 ; 1.5527432044145924E8 ; 3.0085710147202104E8 ; 2.1703061682927017E9 ; 0.0
19 ; 1.79094843904308E7 ; 1.6098663455367628E8 ; 3.1874456513818777E8 ; 2.325580488734161E9 ; 0.0
20 ; 1.7929300694810264E7 ; 1.6700781727961168E8 ; 3.366540495286186E8 ; 2.486567123287837E9 ; 0.0
21 ; 1.7952359315346807E7 ; 1.733378534484099E8 ; 3.5458335022342885E8 ; 2.6535749405674486E9 ; 0.0
22 ; 1.7970607866375446E7 ; 1.7997672814090854E8 ; 3.725357095387757E8 ; 2.8269127940158587E9 ; 0.0
23 ; 1.799170278220128E7 ; 1.8692442690049332E8 ; 3.905063174051511E8 ; 3.0068895221567674E9 ; 0.0
24 ; 1.8018177650710233E7 ; 1.9418093588840628E8 ; 4.084980201873524E8 ; 3.1938139490572605E9 ; 0.0
25 ; 1.8032802493274543E7 ; 2.004342828879246E8 ; 4.2651619783806264E8 ; 3.387994884945667E9 ; 0.0
26 ; 1.8058558970936704E7 ; 2.0043800340552363E8 ; 4.445490003313372E8 ; 3.5884291678335915E9 ; 0.0
27 ; 1.807381360912968E7 ; 2.004418552262111E8 ; 4.626075593022739E8 ; 3.788867171239115E9 ; 0.0
28 ; 1.809519692413586E7 ; 2.0044582766438502E8 ; 4.806813729114036E8 ; 3.9893090264653263E9 ; 0.0
29 ; 1.811468875365661E7 ; 2.0044991084149274E8 ; 4.9877656983553946E8 ; 4.189754854129711E9 ; 0.0
30 ; 1.8138958360551994E7 ; 2.0045409565644363E8 ; 5.168912585891961E8 ; 4.390204764971204E9 ; 0.0
31 ; 1.8156116160558954E7 ; 2.0045837374665454E8 ; 5.350302169497481E8 ; 4.590658860627647E9 ; 0.0
32 ; 1.8175339405519977E7 ; 2.0046273744338807E8 ; 5.531863331103071E8 ; 4.791117234374302E9 ; 0.0
33 ; 1.8194760546376064E7 ; 2.0046717972418576E8 ; 5.713616725158271E8 ; 4.99157997181769E9 ; 0.0
34 ; 1.821326021644775E7 ; 2.004716941644742E8 ; 5.895564330622032E8 ; 5.192047151541876E9 ; 0.0
35 ; 1.8228992417776145E7 ; 2.0047627488983202E8 ; 6.077696932786509E8 ; 5.39251884570635E9 ; 0.0
36 ; 1.8241932089766916E7 ; 2.0048091652994052E8 ; 6.25998685696427E8 ; 5.592995120596182E9 ; 0.0
37 ; 1.8261673082751047E7 ; 2.0048561417487934E8 ; 6.442406177861938E8 ; 5.793476037126122E9 ; 0.0
38 ; 1.8277108567655675E7 ; 2.004903633341599E8 ; 6.625022908689449E8 ; 5.993961651301002E9 ; 0.0
39 ; 1.8289770339356698E7 ; 2.004951598986885E8 ; 6.807793994366006E8 ; 6.194452014635161E9 ; 0.0
40 ; 1.8303569154370718E7 ; 2.0050000010571066E8 ; 6.990691697759572E8 ; 6.39494717453385E9 ; 0.0
41 ; 1.8318398075329605E7 ; 2.005048805066882E8 ; 7.173727389303279E8 ; 6.595447174639561E9 ; 0.0
42 ; 1.8327523331397124E7 ; 2.0050979793799558E8 ; 7.356911370056576E8 ; 6.795952055146249E9 ; 0.0
43 ; 1.8343453943756465E7 ; 2.005147494942813E8 ; 7.540186603370547E8 ; 6.996461853084245E9 ; 0.0
44 ; 1.8354418608111028E7 ; 2.0051973250431603E8 ; 7.723621142808112E8 ; 7.196976602578526E9 ; 0.0
45 ; 1.8362030508559752E7 ; 2.0052474450914028E8 ; 7.907165328889222E8 ; 7.397496335082842E9 ; 0.0
46 ; 1.837163890062762E7 ; 2.0052978324232113E8 ; 8.090785633974819E8 ; 7.598021079591982E9 ; 0.0
47 ; 1.838113551849136E7 ; 2.005348466121339E8 ; 8.274502022981095E8 ; 7.798550862834303E9 ; 0.0
48 ; 1.8392291063644387E7 ; 2.0053993268549144E8 ; 8.458313378166009E8 ; 7.999085709446437E9 ; 0.0
49 ; 1.839502550233781E7 ; 2.0054503967345557E8 ; 8.642236288802453E8 ; 8.199625642131928E9 ; 0.0
50 ; 1.8401597878007647E7 ; 2.0055016591817638E8 ; 8.826186543825831E8 ; 8.400170681805384E9 ; 0.0
51 ; 1.840631833704175E7 ; 2.0055530988111815E8 ; 9.010202522605908E8 ; 8.60072084772356E9 ; 0.0
52 ; 1.8413092919880155E7 ; 2.0056047013244215E8 ; 9.194265705976325E8 ; 8.80127615760468E9 ; 0.0
53 ; 1.841489928171813E7 ; 2.0056564534142902E8 ; 9.378396635175127E8 ; 9.001836627737122E9 ; 0.0
54 ; 1.8421837984237317E7 ; 2.005708342678347E8 ; 9.562545627992308E8 ; 9.20240227307855E9 ; 0.0
55 ; 1.842310368253766E7 ; 2.00576035754084E8 ; 9.746764007834681E8 ; 9.402973107346386E9 ; 0.0
56 ; 1.8430776621794313E7 ; 2.0058124871821558E8 ; 9.930995044660058E8 ; 9.60354914310047E9 ; 0.0
57 ; 1.8432493892521027E7 ; 2.0058647214750165E8 ; 1.0115302810878001E9 ; 9.804130391818686E9 ; 0.0
58 ; 1.8438303095592264E7 ; 2.0059170509267265E8 ; 1.0299627749803212E9 ; 1.0004716863966187E10 ; 0.0
59 ; 1.8442830687331703E7 ; 2.005969466626852E8 ; 1.0484010780759134E9 ; 1.0205308569058859E10 ; 0.0
60 ; 1.844666439192628E7 ; 2.0060219601997826E8 ; 1.0668439087632451E9 ; 1.0405905515721544E10 ; 0.0
61 ; 1.844675047165667E7 ; 2.0060745237616748E8 ; 1.0852905731551714E9 ; 1.0606507711741522E10 ; 0.0
62 ; 1.8449159366028797E7 ; 2.0061271498813382E8 ; 1.103737323626828E9 ; 1.080711516411769E10 ; 0.0
63 ; 1.8455572088350117E7 ; 2.006179831544671E8 ; 1.1221864829928567E9 ; 1.1007727879105824E10 ; 0.0
64 ; 1.845464178693037E7 ; 2.0062325621222857E8 ; 1.1406420550812068E9 ; 1.120834586226029E10 ; 0.0
65 ; 1.8462062836995948E7 ; 2.0062853353400162E8 ; 1.1590966968681371E9 ; 1.1408969118472519E10 ; 0.0
66 ; 1.8465049119336896E7 ; 2.0063381452520183E8 ; 1.177558759705133E9 ; 1.1609597652006521E10 ; 0.0
67 ; 1.8463786424275137E7 ; 2.0063909862162155E8 ; 1.1960238088244698E9 ; 1.1810231466531723E10 ; 0.0
68 ; 1.8467382884476934E7 ; 2.006443852871859E8 ; 1.214487595248745E9 ; 1.2010870565153345E10 ; 0.0
69 ; 1.8470530154146105E7 ; 2.0064967401190037E8 ; 1.2329549781332219E9 ; 1.221151495044053E10 ; 0.0
70 ; 1.847039864183633E7 ; 2.0065496430997163E8 ; 1.251425508287368E9 ; 1.241216462445243E10 ; 0.0
71 ; 1.847314820586694E7 ; 2.0066025571808535E8 ; 1.2698959069292045E9 ; 1.2612819588762402E10 ; 0.0
72 ; 1.84756052710485E7 ; 2.0066554779382622E8 ; 1.2883690551350715E9 ; 1.2813479844480488E10 ; 0.0
73 ; 1.8476842275089603E7 ; 2.0067084011422735E8 ; 1.30684466040612E9 ; 1.3014145392274315E10 ; 0.0
74 ; 1.8475942762695916E7 ; 2.0067613227443692E8 ; 1.3253215026812096E9 ; 1.3214816232388542E10 ; 0.0
75 ; 1.84757386701789E7 ; 2.0068142388649157E8 ; 1.3437974454439056E9 ; 1.341549236466298E10 ; 0.0
76 ; 1.8480227016332548E7 ; 2.00686714578187E8 ; 1.3622731841140845E9 ; 1.361617378854947E10 ; 0.0
77 ; 1.8476619666349545E7 ; 2.0069200399203715E8 ; 1.380753411130417E9 ; 1.3816860503127659E10 ; 0.0
78 ; 1.8479191720389273E7 ; 2.0069729178431392E8 ; 1.3992300307967668E9 ; 1.4017552507119696E10 ; 0.0
79 ; 1.846488426667263E7 ; 2.007025776241608E8 ; 1.4177092225171561E9 ; 1.4218249798904009E10 ; 0.0
80 ; 1.8462484384364966E7 ; 2.007078611927736E8 ; 1.4361741067838287E9 ; 1.441895237652817E10 ; 0.0
81 ; 1.845674352574199E7 ; 2.007131421826431E8 ; 1.4546365911681938E9 ; 1.4619660237720943E10 ; 0.0
82 ; 1.8449113237067383E7 ; 2.007184202968534E8 ; 1.4730933346939359E9 ; 1.4820373379903587E10 ; 0.0
83 ; 1.8446956949848033E7 ; 2.0072369524843284E8 ; 1.4915424479310033E9 ; 1.5021091800200441E10 ; 0.0
84 ; 1.843906086895344E7 ; 2.0072896675975138E8 ; 1.5099894048808513E9 ; 1.5221815495448874E10 ; 0.0
85 ; 1.8432353112409554E7 ; 2.0073423456196186E8 ; 1.5284284657498047E9 ; 1.5422544462208626E10 ; 0.0
86 ; 1.8425410975826025E7 ; 2.0073949839448118E8 ; 1.5468608188622143E9 ; 1.5623278696770588E10 ; 0.0
87 ; 1.842293244365774E7 ; 2.0074475800450793E8 ; 1.5652862298380404E9 ; 1.582401819516507E10 ; 0.0
88 ; 1.841630803349209E7 ; 2.0075001314657408E8 ; 1.583709162281698E9 ; 1.6024762953169577E10 ; 0.0
89 ; 1.840946578957458E7 ; 2.0075526358212742E8 ; 1.60212547031519E9 ; 1.622551296631615E10 ; 0.0
90 ; 1.8396122074530765E7 ; 2.0076050907914302E8 ; 1.6205349361047647E9 ; 1.6426268229898277E10 ; 0.0
91 ; 1.838977414338437E7 ; 2.0076574941176063E8 ; 1.6389310581792955E9 ; 1.662702873897742E10 ; 0.0
92 ; 1.838181745831184E7 ; 2.0077098435994703E8 ; 1.65732083232268E9 ; 1.6827794488389181E10 ; 0.0
93 ; 1.837631344739146E7 ; 2.0077621370918044E8 ; 1.6757026497809918E9 ; 1.7028565472749128E10 ; 0.0
94 ; 1.836622347115927E7 ; 2.007814372501561E8 ; 1.6940789632283833E9 ; 1.722934168645831E10 ; 0.0
95 ; 1.836008487164219E7 ; 2.0078665477851075E8 ; 1.7124451866995425E9 ; 1.7430123123708466E10 ; 0.0
96 ; 1.8353710640043143E7 ; 2.0079186609456542E8 ; 1.7308052715711846E9 ; 1.7630909778486977E10 ; 0.0
97 ; 1.8343236872225787E7 ; 2.0079707100308436E8 ; 1.749158982211228E9 ; 1.7831701644581543E10 ; 0.0
98 ; 1.8334205217178926E7 ; 2.008022693130495E8 ; 1.7675022190834537E9 ; 1.803249871558463E10 ; 0.0
99 ; 1.832323660627441E7 ; 2.0080746083744904E8 ; 1.7858364243006325E9 ; 1.823330098489768E10 ; 0.0
100 ; 1.831809294738583E7 ; 2.008126453930795E8 ; 1.8041596609069068E9 ; 1.8434108445735126E10 ; 0.0
101 ; 1.830910437435926E7 ; 2.0081782280035955E8 ; 1.8224777538542926E9 ; 1.8634921091128204E10 ; 0.0
102 ; 1.829736114569528E7 ; 2.008229928831558E8 ; 1.840786858228652E9 ; 1.8835738913928562E10 ; 0.0
103 ; 1.828562390746682E7 ; 2.0082815546861887E8 ; 1.8590842193743472E9 ; 1.9036561906811718E10 ; 0.0
104 ; 1.8275937347997576E7 ; 2.0083331038702947E8 ; 1.877369843281814E9 ; 1.923739006228034E10 ; 0.0
105 ; 1.826779878719951E7 ; 2.008384574716537E8 ; 1.8956457806298118E9 ; 1.9438223372667366E10 ; 0.0
106 ; 1.825661579603803E7 ; 2.008435965586068E8 ; 1.9139135794170113E9 ; 1.963906183013902E10 ; 0.0
107 ; 1.824489177486378E7 ; 2.008487274867253E8 ; 1.9321701952130494E9 ; 1.9839905426697624E10 ; 0.0
108 ; 1.823374531041984E7 ; 2.0085385009744605E8 ; 1.9504150869879131E9 ; 2.004075415418435E10 ; 0.0
109 ; 1.8227552915318504E7 ; 2.0085896423469284E8 ; 1.968648832298333E9 ; 2.0241608004281796E10 ; 0.0
110 ; 1.820988810070588E7 ; 2.0086406974476916E8 ; 1.9868763852136514E9 ; 2.0442466968516487E10 ; 0.0
111 ; 1.8199901785646837E7 ; 2.0086916647625723E8 ; 2.0050862733143573E9 ; 2.0643331038261257E10 ; 0.0
112 ; 1.818737704003545E7 ; 2.0087425427992272E8 ; 2.0232861751000042E9 ; 2.0844200204737514E10 ; 0.0
113 ; 1.8182104070435215E7 ; 2.0087933300862476E8 ; 2.0414735521400397E9 ; 2.1045074459017437E10 ; 0.0
114 ; 1.8171400293707162E7 ; 2.0088440251723108E8 ; 2.059655656210475E9 ; 2.1245953792026062E10 ; 0.0
115 ; 1.815620416753466E7 ; 2.0088946266253775E8 ; 2.077827056504182E9 ; 2.1446838194543293E10 ; 0.0
116 ; 1.8141071570938982E7 ; 2.008945133031934E8 ; 2.0959832606717167E9 ; 2.164772765720583E10 ; 0.0
117 ; 1.812685874622961E7 ; 2.008995542996274E8 ; 2.1141243322426558E9 ; 2.184862217050902E10 ; 0.0
118 ; 1.811849697294752E7 ; 2.0090458551398227E8 ; 2.1322511909888854E9 ; 2.204952172480865E10 ; 0.0
119 ; 1.810517684411778E7 ; 2.009096068100493E8 ; 2.150369687961833E9 ; 2.225042631032263E10 ; 0.0
120 ; 1.809275565593335E7 ; 2.0091461805320796E8 ; 2.1684748648059506E9 ; 2.2451335917132683E10 ; 0.0
121 ; 1.8076593388482753E7 ; 2.0091961911036843E8 ; 2.186567620461884E9 ; 2.265225053518589E10 ; 0.0
122 ; 1.806386606969607E7 ; 2.009246098499169E8 ; 2.2046442138503666E9 ; 2.2853170154296257E10 ; 0.0
123 ; 1.8055428198970657E7 ; 2.0092959014166418E8 ; 2.2227080799200625E9 ; 2.3054094764146175E10 ; 0.0
124 ; 1.8039315615895726E7 ; 2.009345598567966E8 ; 2.2407635081190333E9 ; 2.3255024354287838E10 ; 0.0
125 ; 1.802534764519125E7 ; 2.0093951886782965E8 ; 2.258802823734929E9 ; 2.3455958914144634E10 ; 0.0
126 ; 1.8011158997655295E7 ; 2.0094446704856402E8 ; 2.2768281713801203E9 ; 2.3656898433012463E10 ; 0.0
127 ; 1.7996043392548792E7 ; 2.009494042740437E8 ; 2.2948393303777757E9 ; 2.3857842900061028E10 ; 0.0
128 ; 1.7982982387864202E7 ; 2.0095433042051643E8 ; 2.312835373770324E9 ; 2.405879230433507E10 ; 0.0
129 ; 1.7968222797079556E7 ; 2.009592453653959E8 ; 2.3308183561581883E9 ; 2.425974663475559E10 ; 0.0
130 ; 1.7944487110119265E7 ; 2.009641489872262E8 ; 2.348786578955268E9 ; 2.4460705880120983E10 ; 0.0
131 ; 1.7926348434336007E7 ; 2.009690411656476E8 ; 2.3667310660653872E9 ; 2.4661670029108208E10 ; 0.0
132 ; 1.7907227696217153E7 ; 2.0097392178136447E8 ; 2.3846574144997234E9 ; 2.4862639070273857E10 ; 0.0
133 ; 1.7887226607892487E7 ; 2.0097879071611443E8 ; 2.4025646421959405E9 ; 2.506361299205522E10 ; 0.0
134 ; 1.7864017369990934E7 ; 2.0098364785263932E8 ; 2.420451868803833E9 ; 2.5264591782771336E10 ; 0.0
135 ; 1.7847379785593443E7 ; 2.009884930746572E8 ; 2.438315886173824E9 ; 2.5465575430623974E10 ; 0.0
136 ; 1.782498763746479E7 ; 2.0099332626683626E8 ; 2.4561632659594173E9 ; 2.566656392369863E10 ; 0.0
137 ; 1.7801225937917355E7 ; 2.0099814731476933E8 ; 2.4739882535968823E9 ; 2.586755724996547E10 ; 0.0
138 ; 1.7781974323375504E7 ; 2.010029561049503E8 ; 2.4917894795347996E9 ; 2.606855539728024E10 ; 0.0
139 ; 1.77591284992894E7 ; 2.0100775252475122E8 ; 2.5095714538581753E9 ; 2.626955835338519E10 ; 0.0
140 ; 1.7737030565084025E7 ; 2.010125364624005E8 ; 2.527330582357465E9 ; 2.647056610590994E10 ; 0.0
141 ; 1.7711951102321483E7 ; 2.0101730780696243E8 ; 2.545067612922549E9 ; 2.667157864237234E10 ; 0.0
142 ; 1.769302140073558E7 ; 2.010220664483175E8 ; 2.5627795640248704E9 ; 2.6872595950179302E10 ; 0.0
143 ; 1.766941891887634E7 ; 2.010268122771436E8 ; 2.580472585425606E9 ; 2.707361801662762E10 ; 0.0
144 ; 1.7649008413142502E7 ; 2.0103154518489817E8 ; 2.598142004344482E9 ; 2.7274644828904766E10 ; 0.0
145 ; 1.763160758366424E7 ; 2.0103626506380132E8 ; 2.6157910127576246E9 ; 2.7475676374089664E10 ; 0.0
146 ; 1.7614090437135458E7 ; 2.0104097180681938E8 ; 2.633422620341289E9 ; 2.7676712639153465E10 ; 0.0
147 ; 1.759687734703328E7 ; 2.0104566530764967E8 ; 2.6510367107784243E9 ; 2.7877753610960285E10 ; 0.0
148 ; 1.758396425605227E7 ; 2.010503454607056E8 ; 2.668633588125458E9 ; 2.8078799276267937E10 ; 0.0
149 ; 1.7568861086894583E7 ; 2.0105501216110277E8 ; 2.6862175523815103E9 ; 2.827984962172864E10 ; 0.0
150 ; 1.755286822576462E7 ; 2.0105966530464536E8 ; 2.703786413468405E9 ; 2.8480904633889744E10 ; 0.0
151 ; 1.7535196356046773E7 ; 2.0106430478781357E8 ; 2.7213392816941695E9 ; 2.868196429919439E10 ; 0.0
152 ; 1.751580549265239E7 ; 2.0106893050775126E8 ; 2.738874478050216E9 ; 2.8883028603982204E10 ; 0.0
153 ; 1.749902873376682E7 ; 2.0107354236225438E8 ; 2.7563902835428686E9 ; 2.9084097534489956E10 ; 0.0
154 ; 1.7485749313121624E7 ; 2.010781402497599E8 ; 2.7738893122766356E9 ; 2.928517107685221E10 ; 0.0
155 ; 1.7468874863467373E7 ; 2.0108272406933522E8 ; 2.7913750615897574E9 ; 2.948624921710197E10 ; 0.0
156 ; 1.7452435031580467E7 ; 2.0108729372066802E8 ; 2.8088439364532247E9 ; 2.9687331941171307E10 ; 0.0
157 ; 1.743548348389924E7 ; 2.0109184910405657E8 ; 2.826296371484805E9 ; 2.9888419234891975E10 ; 0.0
158 ; 1.7419036009526856E7 ; 2.0109639012040076E8 ; 2.843731854968704E9 ; 3.0089511083996033E10 ; 0.0
159 ; 1.740205904725473E7 ; 2.0110091667119306E8 ; 2.861150890978231E9 ; 3.0290607474116432E10 ; 0.0
160 ; 1.7383447290321007E7 ; 2.0110542865851033E8 ; 2.8785529500254855E9 ; 3.0491708390787624E10 ; 0.0
161 ; 1.7364154039880946E7 ; 2.0110992598500568E8 ; 2.8959363973158064E9 ; 3.0692813819446136E10 ; 0.0
162 ; 1.7346419532141916E7 ; 2.01114408553901E8 ; 2.913300551355687E9 ; 3.089392374543114E10 ; 0.0
163 ; 1.7330510010093242E7 ; 2.0111887626897955E8 ; 2.930646970887829E9 ; 3.1095038153985043E10 ; 0.0
164 ; 1.7315073812782254E7 ; 2.0112332903457916E8 ; 2.947977480897922E9 ; 3.129615703025402E10 ; 0.0
165 ; 1.729656029364839E7 ; 2.0112776675558543E8 ; 2.9652925547107043E9 ; 3.14972803592886E10 ; 0.0
166 ; 1.7277299472076796E7 ; 2.011321893374256E8 ; 2.9825891150043526E9 ; 3.1698408126044186E10 ; 0.0
167 ; 1.726185998613348E7 ; 2.0113659668606234E8 ; 2.9998664144764295E9 ; 3.189954031538161E10 ; 0.0
168 ; 1.7241337621695008E7 ; 2.011409887079881E8 ; 3.017128274462563E9 ; 3.2100676912067673E10 ; 0.0
169 ; 1.7226214747196637E7 ; 2.0114536531021976E8 ; 3.034369612084258E9 ; 3.230181790077566E10 ; 0.0
170 ; 1.7206840021070905E7 ; 2.0114972640029305E8 ; 3.0515958268314548E9 ; 3.250296326608588E10 ; 0.0
171 ; 1.718740645605137E7 ; 2.0115407188625792E8 ; 3.0688026668525257E9 ; 3.270411299248617E10 ; 0.0
172 ; 1.717207087036322E7 ; 2.011584016766736E8 ; 3.085990073308577E9 ; 3.290526706437243E10 ; 0.0
173 ; 1.7154646639347818E7 ; 2.0116271568060407E8 ; 3.1031621441789403E9 ; 3.3106425466049103E10 ; 0.0
174 ; 1.714356879373967E7 ; 2.0116701380761388E8 ; 3.1203167908182883E9 ; 3.3307588181729706E10 ; 0.0
175 ; 1.7129163088455845E7 ; 2.0117129596776387E8 ; 3.137460359612028E9 ; 3.350875519553732E10 ; 0.0
176 ; 1.7119212849434104E7 ; 2.0117556207160738E8 ; 3.154589522700484E9 ; 3.370992649150508E10 ; 0.0
177 ; 1.7111019062570885E7 ; 2.011798120301864E8 ; 3.1717087355499177E9 ; 3.3911102053576687E10 ; 0.0
178 ; 1.7100260573295E7 ; 2.011840457550282E8 ; 3.1888197546124887E9 ; 3.4112281865606873E10 ; 0.0
179 ; 1.708893043028326E7 ; 2.011882631581417E8 ; 3.205920015185784E9 ; 3.43134659113619E10 ; 0.0
180 ; 1.7083075899164576E7 ; 2.0119246415201455E8 ; 3.223008945616067E9 ; 3.451465417452004E10 ; 0.0
181 ; 1.7064876144312307E7 ; 2.0119664864960986E8 ; 3.2400920215152316E9 ; 3.471584663867206E10 ; 0.0
182 ; 1.705775701422549E7 ; 2.012008165643633E8 ; 3.257156897659544E9 ; 3.491704328732167E10 ; 0.0
183 ; 1.7047286734862342E7 ; 2.012049678101805E8 ; 3.2742146546737695E9 ; 3.511824410388603E10 ; 0.0
184 ; 1.7039782722596608E7 ; 2.0120910230143428E8 ; 3.291261941408632E9 ; 3.531944907169621E10 ; 0.0
185 ; 1.702820541349709E7 ; 2.0121321995296225E8 ; 3.3083017241312284E9 ; 3.552065817399765E10 ; 0.0
186 ; 1.701554369895767E7 ; 2.0121732068006435E8 ; 3.3253299295447254E9 ; 3.5721871393950615E10 ; 0.0
187 ; 1.7003823559486765E7 ; 2.0122140439850077E8 ; 3.342345473243683E9 ; 3.592308871463068E10 ; 0.0
188 ; 1.6990488789626822E7 ; 2.012254710244897E8 ; 3.3593492968031697E9 ; 3.6124310119029175E10 ; 0.0
189 ; 1.698436446175198E7 ; 2.012295204747053E8 ; 3.3763397855927963E9 ; 3.6325535590053665E10 ; 0.0
190 ; 1.6973653658635937E7 ; 2.0123355266627604E8 ; 3.3933241500545483E9 ; 3.652676511052837E10 ; 0.0
191 ; 1.6964517033436853E7 ; 2.0123756751678255E8 ; 3.4102978037131844E9 ; 3.672799866319465E10 ; 0.0
192 ; 1.6951901895522214E7 ; 2.0124156494425622E8 ; 3.427262320746621E9 ; 3.692923623071143E10 ; 0.0
193 ; 1.6942521564627424E7 ; 2.0124554486717746E8 ; 3.4442142226421432E9 ; 3.713047779565569E10 ; 0.0
194 ; 1.6930858718110662E7 ; 2.012495072044742E8 ; 3.461156744206771E9 ; 3.733172334052287E10 ; 0.0
195 ; 1.6920688917954948E7 ; 2.0125345187552065E8 ; 3.4780876029248815E9 ; 3.753297284772735E10 ; 0.0
