CSV File for the City 5 on Day 19
1 - Minute m 
2 - Power Consumed at minute m 
3 - Power Produced at minute m 
4 - Energy Consumed since the beginning of the day 
5 - Energy Produced since the beginning of the day 
6 - Energy Lost since the beginning of the day on lines starting from the city
 
0 ; 8480109.242248738 ; 1.008155781741695E7 ; 0.0 ; 0.0 ; 0.0
1 ; 8489616.141733188 ; 1.008155781741695E7 ; 8480109.242248738 ; 1.008155781741695E7 ; 0.0
2 ; 8497945.179219967 ; 1.008155781741695E7 ; 1.696972538398193E7 ; 2.01631156348339E7 ; 0.0
3 ; 8510336.724386517 ; 1.008155781741695E7 ; 2.5467670563201897E7 ; 3.0244673452250846E7 ; 0.0
4 ; 8520619.073787708 ; 1.008155781741695E7 ; 3.397800728758842E7 ; 4.03262312696678E7 ; 0.0
5 ; 8539592.86497989 ; 1.008155781741695E7 ; 4.249862636137612E7 ; 5.040778908708475E7 ; 0.0
6 ; 8558549.82927244 ; 1.008155781741695E7 ; 5.1038219226356015E7 ; 6.04893469045017E7 ; 0.0
7 ; 8586536.509242514 ; 1.008155781741695E7 ; 5.9596769055628456E7 ; 7.057090472191864E7 ; 0.0
8 ; 8629171.41743634 ; 1.008155781741695E7 ; 6.818330556487097E7 ; 8.06524625393356E7 ; 0.0
9 ; 8693628.103122473 ; 1.008155781741695E7 ; 7.681247698230731E7 ; 9.073402035675254E7 ; 0.0
10 ; 8789509.439071096 ; 1.008155781741695E7 ; 8.550610508542979E7 ; 1.008155781741695E8 ; 0.0
11 ; 8945821.935939403 ; 1.008155781741695E7 ; 9.429561452450088E7 ; 1.1089713599158645E8 ; 0.0
12 ; 9194258.738907276 ; 1.008155781741695E7 ; 1.0324143646044028E8 ; 1.209786938090034E8 ; 0.0
13 ; 9430063.845471872 ; 1.008155781741695E7 ; 1.1243569519934756E8 ; 1.3106025162642035E8 ; 0.0
14 ; 9461999.630976252 ; 1.008155781741695E7 ; 1.2186575904481943E8 ; 1.4114180944383729E8 ; 0.0
15 ; 9472085.162365923 ; 1.008155781741695E7 ; 1.3132775867579567E8 ; 1.5122336726125422E8 ; 0.0
16 ; 9483889.978972452 ; 1.008155781741695E7 ; 1.407998438381616E8 ; 1.6130492507867116E8 ; 0.0
17 ; 9494722.392507069 ; 1.008155781741695E7 ; 1.5028373381713405E8 ; 1.713864828960881E8 ; 0.0
18 ; 9505602.843506455 ; 1.008155781741695E7 ; 1.5977845620964113E8 ; 1.8146804071350503E8 ; 0.0
19 ; 9516680.671384716 ; 1.008155781741695E7 ; 1.6928405905314758E8 ; 1.9154959853092197E8 ; 0.0
20 ; 9526644.015656974 ; 1.008155781741695E7 ; 1.788007397245323E8 ; 2.016311563483389E8 ; 0.0
21 ; 9535143.361816362 ; 1.008155781741695E7 ; 1.8832738374018928E8 ; 2.1171271416575584E8 ; 0.0
22 ; 9549367.041653546 ; 1.008155781741695E7 ; 1.9786252710200566E8 ; 2.2179427198317277E8 ; 0.0
23 ; 9561582.857150618 ; 1.008155781741695E7 ; 2.074118941436592E8 ; 2.318758298005897E8 ; 0.0
24 ; 9572207.144138178 ; 1.008155781741695E7 ; 2.1697347700080982E8 ; 2.4195738761800665E8 ; 0.0
25 ; 9582596.816394154 ; 1.008155781741695E7 ; 2.26545684144948E8 ; 2.5203894543542358E8 ; 0.0
26 ; 9594526.664102336 ; 1.008155781741695E7 ; 2.3612828096134216E8 ; 2.6212050325284052E8 ; 0.0
27 ; 9604817.427628946 ; 1.008155781741695E7 ; 2.457228076254445E8 ; 2.722020610702575E8 ; 0.0
28 ; 9615732.048860393 ; 1.008155781741695E7 ; 2.5532762505307344E8 ; 2.8228361888767445E8 ; 0.0
29 ; 9627805.838358404 ; 1.008155781741695E7 ; 2.6494335710193384E8 ; 2.923651767050914E8 ; 0.0
30 ; 9638595.062837549 ; 1.008155781741695E7 ; 2.7457116294029224E8 ; 3.024467345225084E8 ; 0.0
31 ; 9647051.60862914 ; 1.008155781741695E7 ; 2.842097580031298E8 ; 3.1252829233992535E8 ; 0.0
32 ; 9655901.057315685 ; 1.008155781741695E7 ; 2.9385680961175895E8 ; 3.226098501573423E8 ; 0.0
33 ; 9666715.46530829 ; 1.008155781741695E7 ; 3.0351271066907465E8 ; 3.326914079747593E8 ; 0.0
34 ; 9675695.106135648 ; 1.008155781741695E7 ; 3.1317942613438296E8 ; 3.4277296579217625E8 ; 0.0
35 ; 9688070.918780508 ; 1.008155781741695E7 ; 3.228551212405186E8 ; 3.528545236095932E8 ; 0.0
36 ; 9693408.459350606 ; 1.008155781741695E7 ; 3.3254319215929914E8 ; 3.629360814270102E8 ; 0.0
37 ; 9703423.994745938 ; 1.008155781741695E7 ; 3.422366006186497E8 ; 3.7301763924442714E8 ; 0.0
38 ; 9711499.33619924 ; 1.008155781741695E7 ; 3.5194002461339563E8 ; 3.830991970618441E8 ; 0.0
39 ; 9718038.227476692 ; 1.008155781741695E7 ; 3.6165152394959486E8 ; 3.931807548792611E8 ; 0.0
40 ; 9728087.320420545 ; 1.008155781741695E7 ; 3.713695621770716E8 ; 4.0326231269667804E8 ; 0.0
41 ; 9732247.352689534 ; 1.008155781741695E7 ; 3.8109764949749213E8 ; 4.13343870514095E8 ; 0.0
42 ; 9738383.968821287 ; 1.008155781741695E7 ; 3.908298968501817E8 ; 4.23425428331512E8 ; 0.0
43 ; 9748556.947607191 ; 1.008155781741695E7 ; 4.00568280819003E8 ; 4.3350698614892894E8 ; 0.0
44 ; 9750488.545065781 ; 1.008155781741695E7 ; 4.103168377666102E8 ; 4.435885439663459E8 ; 0.0
45 ; 9756428.91850431 ; 1.008155781741695E7 ; 4.2006732631167597E8 ; 4.536701017837629E8 ; 0.0
46 ; 9761707.195966702 ; 1.008155781741695E7 ; 4.2982375523018026E8 ; 4.6375165960117984E8 ; 0.0
47 ; 9764769.869141906 ; 1.008155781741695E7 ; 4.39585462426147E8 ; 4.738332174185968E8 ; 0.0
48 ; 9773042.809591273 ; 1.008155781741695E7 ; 4.493502322952889E8 ; 4.8391477523601377E8 ; 0.0
49 ; 9774195.817423655 ; 1.008155781741695E7 ; 4.591232751048802E8 ; 4.9399633305343074E8 ; 0.0
50 ; 9776946.75862108 ; 1.008155781741695E7 ; 4.6889747092230386E8 ; 5.040778908708477E8 ; 0.0
51 ; 9778807.855530001 ; 1.008155781741695E7 ; 4.7867441768092495E8 ; 5.1415944868826467E8 ; 0.0
52 ; 9782718.40059799 ; 1.008155781741695E7 ; 4.88453225536455E8 ; 5.2424100650568163E8 ; 0.0
53 ; 9786251.507257188 ; 1.008155781741695E7 ; 4.9823594393705297E8 ; 5.343225643230986E8 ; 0.0
54 ; 9788883.918122526 ; 1.008155781741695E7 ; 5.080221954443101E8 ; 5.444041221405156E8 ; 0.0
55 ; 9792707.876090461 ; 1.008155781741695E7 ; 5.1781107936243266E8 ; 5.544856799579325E8 ; 0.0
56 ; 9791374.42494784 ; 1.008155781741695E7 ; 5.276037872385231E8 ; 5.645672377753494E8 ; 0.0
57 ; 9793663.74763453 ; 1.008155781741695E7 ; 5.37395161663471E8 ; 5.746487955927663E8 ; 0.0
58 ; 9797748.715394406 ; 1.008155781741695E7 ; 5.471888254111055E8 ; 5.847303534101832E8 ; 0.0
59 ; 9798278.650112292 ; 1.008155781741695E7 ; 5.569865741264999E8 ; 5.948119112276001E8 ; 0.0
60 ; 9799689.01002232 ; 1.008155781741695E7 ; 5.667848527766122E8 ; 6.04893469045017E8 ; 0.0
61 ; 9804881.0220297 ; 1.008155781741695E7 ; 5.765845417866344E8 ; 6.149750268624339E8 ; 0.0
62 ; 9802654.46741172 ; 1.008155781741695E7 ; 5.863894228086642E8 ; 6.250565846798508E8 ; 0.0
63 ; 9804347.59826273 ; 1.008155781741695E7 ; 5.96192077276076E8 ; 6.351381424972677E8 ; 0.0
64 ; 9809124.191526247 ; 1.008155781741695E7 ; 6.059964248743387E8 ; 6.452197003146846E8 ; 0.0
65 ; 9808390.873827098 ; 1.008155781741695E7 ; 6.15805549065865E8 ; 6.553012581321015E8 ; 0.0
66 ; 9815025.969673079 ; 1.008155781741695E7 ; 6.256139399396921E8 ; 6.653828159495184E8 ; 0.0
67 ; 9812050.522778137 ; 1.008155781741695E7 ; 6.354289659093652E8 ; 6.754643737669353E8 ; 0.0
68 ; 9813136.257290859 ; 1.008155781741695E7 ; 6.452410164321433E8 ; 6.855459315843523E8 ; 0.0
69 ; 9814897.5217722 ; 1.008155781741695E7 ; 6.550541526894342E8 ; 6.956274894017692E8 ; 0.0
70 ; 9814447.721029712 ; 1.008155781741695E7 ; 6.648690502112063E8 ; 7.057090472191861E8 ; 0.0
71 ; 9817389.292126356 ; 1.008155781741695E7 ; 6.746834979322361E8 ; 7.15790605036603E8 ; 0.0
72 ; 9816498.344203817 ; 1.008155781741695E7 ; 6.845008872243624E8 ; 7.258721628540199E8 ; 0.0
73 ; 9819745.216661137 ; 1.008155781741695E7 ; 6.943173855685662E8 ; 7.359537206714368E8 ; 0.0
74 ; 9816456.206013435 ; 1.008155781741695E7 ; 7.041371307852273E8 ; 7.460352784888537E8 ; 0.0
75 ; 9816432.503042294 ; 1.008155781741695E7 ; 7.139535869912407E8 ; 7.561168363062706E8 ; 0.0
76 ; 9819730.690101659 ; 1.008155781741695E7 ; 7.237700194942831E8 ; 7.661983941236875E8 ; 0.0
77 ; 9817240.162315985 ; 1.008155781741695E7 ; 7.335897501843847E8 ; 7.762799519411044E8 ; 0.0
78 ; 9816203.260864437 ; 1.008155781741695E7 ; 7.434069903467007E8 ; 7.863615097585213E8 ; 0.0
79 ; 9817028.073253388 ; 1.008155781741695E7 ; 7.532231936075652E8 ; 7.964430675759382E8 ; 0.0
80 ; 9811516.237258969 ; 1.008155781741695E7 ; 7.630402216808186E8 ; 8.065246253933551E8 ; 0.0
81 ; 9805931.359923096 ; 1.008155781741695E7 ; 7.728517379180775E8 ; 8.16606183210772E8 ; 0.0
82 ; 9805019.541273648 ; 1.008155781741695E7 ; 7.826576692780006E8 ; 8.26687741028189E8 ; 0.0
83 ; 9800864.494498445 ; 1.008155781741695E7 ; 7.924626888192742E8 ; 8.367692988456059E8 ; 0.0
84 ; 9800641.952482007 ; 1.008155781741695E7 ; 8.022635533137727E8 ; 8.468508566630228E8 ; 0.0
85 ; 9794229.024849538 ; 1.008155781741695E7 ; 8.120641952662547E8 ; 8.569324144804397E8 ; 0.0
86 ; 9791022.472362569 ; 1.008155781741695E7 ; 8.218584242911042E8 ; 8.670139722978566E8 ; 0.0
87 ; 9787145.51365047 ; 1.008155781741695E7 ; 8.316494467634667E8 ; 8.770955301152735E8 ; 0.0
88 ; 9784263.860164905 ; 1.008155781741695E7 ; 8.414365922771171E8 ; 8.871770879326904E8 ; 0.0
89 ; 9779930.664858012 ; 1.008155781741695E7 ; 8.51220856137282E8 ; 8.972586457501073E8 ; 0.0
90 ; 9776196.09030495 ; 1.008155781741695E7 ; 8.6100078680214E8 ; 9.073402035675242E8 ; 0.0
91 ; 9774731.468756909 ; 1.008155781741695E7 ; 8.70776982892445E8 ; 9.174217613849411E8 ; 0.0
92 ; 9769850.203939553 ; 1.008155781741695E7 ; 8.805517143612019E8 ; 9.27503319202358E8 ; 0.0
93 ; 9763078.158765072 ; 1.008155781741695E7 ; 8.903215645651414E8 ; 9.375848770197749E8 ; 0.0
94 ; 9761832.119803699 ; 1.008155781741695E7 ; 9.000846427239065E8 ; 9.476664348371918E8 ; 0.0
95 ; 9753489.922049493 ; 1.008155781741695E7 ; 9.098464748437102E8 ; 9.577479926546087E8 ; 0.0
96 ; 9750412.670759331 ; 1.008155781741695E7 ; 9.195999647657597E8 ; 9.678295504720256E8 ; 0.0
97 ; 9745363.697948772 ; 1.008155781741695E7 ; 9.29350377436519E8 ; 9.779111082894425E8 ; 0.0
98 ; 9740887.415650424 ; 1.008155781741695E7 ; 9.390957411344678E8 ; 9.879926661068594E8 ; 0.0
99 ; 9736470.048847055 ; 1.008155781741695E7 ; 9.488366285501182E8 ; 9.980742239242764E8 ; 0.0
100 ; 9731358.601152493 ; 1.008155781741695E7 ; 9.585730985989653E8 ; 1.0081557817416933E9 ; 0.0
101 ; 9721627.16521609 ; 1.008155781741695E7 ; 9.683044572001178E8 ; 1.0182373395591102E9 ; 0.0
102 ; 9720982.495387973 ; 1.008155781741695E7 ; 9.780260843653339E8 ; 1.0283188973765271E9 ; 0.0
103 ; 9716799.840966403 ; 1.008155781741695E7 ; 9.87747066860722E8 ; 1.038400455193944E9 ; 0.0
104 ; 9711945.083905682 ; 1.008155781741695E7 ; 9.974638667016883E8 ; 1.0484820130113609E9 ; 0.0
105 ; 9704358.098265804 ; 1.008155781741695E7 ; 1.007175811785594E9 ; 1.0585635708287778E9 ; 0.0
106 ; 9699384.139547708 ; 1.008155781741695E7 ; 1.0168801698838598E9 ; 1.0686451286461947E9 ; 0.0
107 ; 9694199.733631222 ; 1.008155781741695E7 ; 1.0265795540234075E9 ; 1.0787266864636116E9 ; 0.0
108 ; 9690914.896156533 ; 1.008155781741695E7 ; 1.0362737537570387E9 ; 1.0888082442810285E9 ; 0.0
109 ; 9685147.481761577 ; 1.008155781741695E7 ; 1.0459646686531953E9 ; 1.0988898020984454E9 ; 0.0
110 ; 9678867.083626244 ; 1.008155781741695E7 ; 1.0556498161349568E9 ; 1.1089713599158623E9 ; 0.0
111 ; 9670237.582239328 ; 1.008155781741695E7 ; 1.0653286832185831E9 ; 1.1190529177332792E9 ; 0.0
112 ; 9665492.861003447 ; 1.008155781741695E7 ; 1.0749989208008225E9 ; 1.1291344755506961E9 ; 0.0
113 ; 9659166.428499931 ; 1.008155781741695E7 ; 1.084664413661826E9 ; 1.139216033368113E9 ; 0.0
114 ; 9651907.201455813 ; 1.008155781741695E7 ; 1.0943235800903258E9 ; 1.14929759118553E9 ; 0.0
115 ; 9647108.242930597 ; 1.008155781741695E7 ; 1.1039754872917817E9 ; 1.1593791490029469E9 ; 0.0
116 ; 9639862.657813353 ; 1.008155781741695E7 ; 1.1136225955347123E9 ; 1.1694607068203638E9 ; 0.0
117 ; 9634731.837044554 ; 1.008155781741695E7 ; 1.1232624581925256E9 ; 1.1795422646377807E9 ; 0.0
118 ; 9627972.010488208 ; 1.008155781741695E7 ; 1.13289719002957E9 ; 1.1896238224551976E9 ; 0.0
119 ; 9620176.034658223 ; 1.008155781741695E7 ; 1.1425251620400584E9 ; 1.1997053802726145E9 ; 0.0
120 ; 9614808.350676406 ; 1.008155781741695E7 ; 1.1521453380747166E9 ; 1.2097869380900314E9 ; 0.0
121 ; 9606576.714981118 ; 1.008155781741695E7 ; 1.1617601464253929E9 ; 1.2198684959074483E9 ; 0.0
122 ; 9598851.502218852 ; 1.008155781741695E7 ; 1.171366723140374E9 ; 1.2299500537248652E9 ; 0.0
123 ; 9593227.194436695 ; 1.008155781741695E7 ; 1.180965574642593E9 ; 1.240031611542282E9 ; 0.0
124 ; 9586219.606228108 ; 1.008155781741695E7 ; 1.1905588018370297E9 ; 1.250113169359699E9 ; 0.0
125 ; 9576312.629461324 ; 1.008155781741695E7 ; 1.2001450214432578E9 ; 1.260194727177116E9 ; 0.0
126 ; 9569881.462354923 ; 1.008155781741695E7 ; 1.209721334072719E9 ; 1.2702762849945328E9 ; 0.0
127 ; 9560864.042083219 ; 1.008155781741695E7 ; 1.219291215535074E9 ; 1.2803578428119497E9 ; 0.0
128 ; 9555285.516611854 ; 1.008155781741695E7 ; 1.2288520795771573E9 ; 1.2904394006293666E9 ; 0.0
129 ; 9546655.515796205 ; 1.008155781741695E7 ; 1.238407365093769E9 ; 1.3005209584467835E9 ; 0.0
130 ; 9538187.469744846 ; 1.008155781741695E7 ; 1.2479540206095653E9 ; 1.3106025162642004E9 ; 0.0
131 ; 9529504.069931524 ; 1.008155781741695E7 ; 1.2574922080793102E9 ; 1.3206840740816174E9 ; 0.0
132 ; 9514944.406277442 ; 1.008155781741695E7 ; 1.2670217121492417E9 ; 1.3307656318990343E9 ; 0.0
133 ; 9506394.536922162 ; 1.008155781741695E7 ; 1.276536656555519E9 ; 1.3408471897164512E9 ; 0.0
134 ; 9493788.526344072 ; 1.008155781741695E7 ; 1.2860430510924413E9 ; 1.350928747533868E9 ; 0.0
135 ; 9480440.579680575 ; 1.008155781741695E7 ; 1.2955368396187854E9 ; 1.361010305351285E9 ; 0.0
136 ; 9470557.963201711 ; 1.008155781741695E7 ; 1.305017280198466E9 ; 1.371091863168702E9 ; 0.0
137 ; 9458027.340467822 ; 1.008155781741695E7 ; 1.3144878381616678E9 ; 1.3811734209861188E9 ; 0.0
138 ; 9448036.629269475 ; 1.008155781741695E7 ; 1.3239458655021358E9 ; 1.3912549788035357E9 ; 0.0
139 ; 9438949.775102122 ; 1.008155781741695E7 ; 1.333393902131405E9 ; 1.4013365366209526E9 ; 0.0
140 ; 9423159.390910814 ; 1.008155781741695E7 ; 1.3428328519065073E9 ; 1.4114180944383695E9 ; 0.0
141 ; 9411463.26208419 ; 1.008155781741695E7 ; 1.352256011297418E9 ; 1.4214996522557864E9 ; 0.0
142 ; 9399995.725741519 ; 1.008155781741695E7 ; 1.3616674745595024E9 ; 1.4315812100732033E9 ; 0.0
143 ; 9389500.535655383 ; 1.008155781741695E7 ; 1.371067470285244E9 ; 1.4416627678906202E9 ; 0.0
144 ; 9378147.164075939 ; 1.008155781741695E7 ; 1.3804569708208995E9 ; 1.4517443257080371E9 ; 0.0
145 ; 9369648.43172415 ; 1.008155781741695E7 ; 1.3898351179849753E9 ; 1.461825883525454E9 ; 0.0
146 ; 9358867.89116973 ; 1.008155781741695E7 ; 1.3992047664166994E9 ; 1.471907441342871E9 ; 0.0
147 ; 9351363.610156676 ; 1.008155781741695E7 ; 1.4085636343078692E9 ; 1.4819889991602879E9 ; 0.0
148 ; 9344728.877187485 ; 1.008155781741695E7 ; 1.417914997918026E9 ; 1.4920705569777048E9 ; 0.0
149 ; 9336210.31857336 ; 1.008155781741695E7 ; 1.4272597267952135E9 ; 1.5021521147951217E9 ; 0.0
150 ; 9326219.81338849 ; 1.008155781741695E7 ; 1.436595937113787E9 ; 1.5122336726125386E9 ; 0.0
151 ; 9318005.700262163 ; 1.008155781741695E7 ; 1.4459221569271755E9 ; 1.5223152304299555E9 ; 0.0
152 ; 9309574.0356978 ; 1.008155781741695E7 ; 1.4552401626274376E9 ; 1.5323967882473724E9 ; 0.0
153 ; 9301682.5018628 ; 1.008155781741695E7 ; 1.4645497366631353E9 ; 1.5424783460647893E9 ; 0.0
154 ; 9295506.445680968 ; 1.008155781741695E7 ; 1.473851419164998E9 ; 1.5525599038822062E9 ; 0.0
155 ; 9284697.131101914 ; 1.008155781741695E7 ; 1.483146925610679E9 ; 1.562641461699623E9 ; 0.0
156 ; 9273056.723629227 ; 1.008155781741695E7 ; 1.4924316227417808E9 ; 1.57272301951704E9 ; 0.0
157 ; 9265698.177929161 ; 1.008155781741695E7 ; 1.50170467946541E9 ; 1.582804577334457E9 ; 0.0
158 ; 9255315.107163792 ; 1.008155781741695E7 ; 1.5109703776433392E9 ; 1.5928861351518738E9 ; 0.0
159 ; 9247450.34083948 ; 1.008155781741695E7 ; 1.520225692750503E9 ; 1.6029676929692907E9 ; 0.0
160 ; 9239539.02850442 ; 1.008155781741695E7 ; 1.5294731430913424E9 ; 1.6130492507867076E9 ; 0.0
161 ; 9231920.860509899 ; 1.008155781741695E7 ; 1.5387126821198468E9 ; 1.6231308086041245E9 ; 0.0
162 ; 9220991.10506679 ; 1.008155781741695E7 ; 1.5479446029803567E9 ; 1.6332123664215415E9 ; 0.0
163 ; 9211314.386058694 ; 1.008155781741695E7 ; 1.5571655940854235E9 ; 1.6432939242389584E9 ; 0.0
164 ; 9205450.557609858 ; 1.008155781741695E7 ; 1.5663769084714823E9 ; 1.6533754820563753E9 ; 0.0
165 ; 9195090.098952346 ; 1.008155781741695E7 ; 1.575582359029092E9 ; 1.6634570398737922E9 ; 0.0
166 ; 9186345.31386726 ; 1.008155781741695E7 ; 1.5847774491280444E9 ; 1.673538597691209E9 ; 0.0
167 ; 9174706.50013442 ; 1.008155781741695E7 ; 1.5939637944419117E9 ; 1.683620155508626E9 ; 0.0
168 ; 9169257.915960127 ; 1.008155781741695E7 ; 1.6031385009420462E9 ; 1.693701713326043E9 ; 0.0
169 ; 9157916.158034807 ; 1.008155781741695E7 ; 1.6123077588580062E9 ; 1.7037832711434598E9 ; 0.0
170 ; 9149124.788738454 ; 1.008155781741695E7 ; 1.621465675016041E9 ; 1.7138648289608767E9 ; 0.0
171 ; 9138037.136480283 ; 1.008155781741695E7 ; 1.6306147998047795E9 ; 1.7239463867782936E9 ; 0.0
172 ; 9127877.989631582 ; 1.008155781741695E7 ; 1.6397528369412599E9 ; 1.7340279445957105E9 ; 0.0
173 ; 9119321.519349415 ; 1.008155781741695E7 ; 1.6488807149308915E9 ; 1.7441095024131274E9 ; 0.0
174 ; 9115654.705215743 ; 1.008155781741695E7 ; 1.6580000364502409E9 ; 1.7541910602305443E9 ; 0.0
175 ; 9108825.150806153 ; 1.008155781741695E7 ; 1.6671156911554565E9 ; 1.7642726180479612E9 ; 0.0
176 ; 9104738.363540854 ; 1.008155781741695E7 ; 1.6762245163062627E9 ; 1.7743541758653781E9 ; 0.0
177 ; 9096611.226917675 ; 1.008155781741695E7 ; 1.6853292546698036E9 ; 1.784435733682795E9 ; 0.0
178 ; 9090150.141821224 ; 1.008155781741695E7 ; 1.6944258658967214E9 ; 1.794517291500212E9 ; 0.0
179 ; 9088100.581639782 ; 1.008155781741695E7 ; 1.7035160160385425E9 ; 1.8045988493176289E9 ; 0.0
180 ; 9078052.386169689 ; 1.008155781741695E7 ; 1.7126041166201823E9 ; 1.8146804071350458E9 ; 0.0
181 ; 9072712.448482372 ; 1.008155781741695E7 ; 1.721682169006352E9 ; 1.8247619649524627E9 ; 0.0
182 ; 9067579.412028933 ; 1.008155781741695E7 ; 1.7307548814548342E9 ; 1.8348435227698796E9 ; 0.0
183 ; 9059687.676983356 ; 1.008155781741695E7 ; 1.7398224608668633E9 ; 1.8449250805872965E9 ; 0.0
184 ; 9054223.709182562 ; 1.008155781741695E7 ; 1.7488821485438466E9 ; 1.8550066384047134E9 ; 0.0
185 ; 9049430.047527973 ; 1.008155781741695E7 ; 1.757936372253029E9 ; 1.8650881962221303E9 ; 0.0
186 ; 9046405.835217737 ; 1.008155781741695E7 ; 1.7669858023005571E9 ; 1.8751697540395472E9 ; 0.0
187 ; 9037334.788908597 ; 1.008155781741695E7 ; 1.7760322081357749E9 ; 1.885251311856964E9 ; 0.0
188 ; 9034137.343526352 ; 1.008155781741695E7 ; 1.7850695429246833E9 ; 1.895332869674381E9 ; 0.0
189 ; 9031156.029819433 ; 1.008155781741695E7 ; 1.7941036802682097E9 ; 1.905414427491798E9 ; 0.0
190 ; 9021441.354062611 ; 1.008155781741695E7 ; 1.8031348362980292E9 ; 1.9154959853092148E9 ; 0.0
191 ; 9015892.963726554 ; 1.008155781741695E7 ; 1.8121562776520917E9 ; 1.9255775431266317E9 ; 0.0
192 ; 9012693.75525483 ; 1.008155781741695E7 ; 1.8211721706158183E9 ; 1.9356591009440486E9 ; 0.0
193 ; 9004597.394300368 ; 1.008155781741695E7 ; 1.830184864371073E9 ; 1.9457406587614655E9 ; 0.0
194 ; 9001073.738006897 ; 1.008155781741695E7 ; 1.8391894617653735E9 ; 1.9558222165788825E9 ; 0.0
195 ; 8993621.378463501 ; 1.008155781741695E7 ; 1.8481905355033803E9 ; 1.9659037743962994E9 ; 0.0
196 ; 8987445.608103553 ; 1.008155781741695E7 ; 1.8571841568818438E9 ; 1.9759853322137163E9 ; 0.0
197 ; 8980767.71014742 ; 1.008155781741695E7 ; 1.8661716024899473E9 ; 1.9860668900311332E9 ; 0.0
198 ; 8976239.785262695 ; 1.008155781741695E7 ; 1.8751523702000947E9 ; 1.99614844784855E9 ; 0.0
199 ; 8973304.40712214 ; 1.008155781741695E7 ; 1.8841286099853573E9 ; 2.006230005665967E9 ; 0.0
200 ; 8967529.198403744 ; 1.008155781741695E7 ; 1.8931019143924794E9 ; 2.016311563483384E9 ; 0.0
201 ; 8959051.542774953 ; 1.008155781741695E7 ; 1.9020694435908833E9 ; 2.0263931213008008E9 ; 0.0
202 ; 8955527.42386275 ; 1.008155781741695E7 ; 1.9110284951336582E9 ; 2.0364746791182177E9 ; 0.0
203 ; 8947637.412289822 ; 1.008155781741695E7 ; 1.9199840225575209E9 ; 2.0465562369356346E9 ; 0.0
204 ; 8943515.526670579 ; 1.008155781741695E7 ; 1.9289316599698107E9 ; 2.0566377947530515E9 ; 0.0
