CSV File for the City 6 on Day 111
1 - Minute m 
2 - Power Consumed at minute m 
3 - Power Produced at minute m 
4 - Energy Consumed since the beginning of the day 
5 - Energy Produced since the beginning of the day 
6 - Energy Lost since the beginning of the day on lines starting from the city
 
0 ; 1.1256761511567527E7 ; 1.0615305554832706E8 ; 0.0 ; 0.0 ; 0.0
1 ; 1.127042215330824E7 ; 1.0630396557370281E8 ; 1.1256761511567527E7 ; 1.0615305554832706E8 ; 0.0
2 ; 1.1278826935067018E7 ; 1.0676386591230032E8 ; 2.2527183664875768E7 ; 2.1245702112202987E8 ; 0.0
3 ; 1.1290996755553715E7 ; 1.0753276005575669E8 ; 3.380601059994279E7 ; 3.192208870343302E8 ; 0.0
4 ; 1.1307311030029852E7 ; 1.0861065113038456E8 ; 4.50970073554965E7 ; 4.267536470900869E8 ; 0.0
5 ; 1.1330607893388677E7 ; 1.0999754188080513E8 ; 5.640431838552636E7 ; 5.3536429822047144E8 ; 0.0
6 ; 1.1356983074164072E7 ; 1.1169343465532109E8 ; 6.773492627891503E7 ; 6.453618401012766E8 ; 0.0
7 ; 1.1394714091304932E7 ; 1.136983313932085E8 ; 7.909190935307911E7 ; 7.570552747565978E8 ; 0.0
8 ; 1.145191425900801E7 ; 1.1601223361408746E8 ; 9.048662344438404E7 ; 8.707536061498063E8 ; 0.0
9 ; 1.1526331188282145E7 ; 1.1863514240950781E8 ; 1.0193853770339204E8 ; 9.867658397638937E8 ; 0.0
10 ; 1.1653475891097741E7 ; 1.215670584368586E8 ; 1.1346486889167419E8 ; 1.1054009821734016E9 ; 0.0
11 ; 1.1852523915701346E7 ; 1.2480798191568068E8 ; 1.2511834478277193E8 ; 1.2269680406102602E9 ; 0.0
12 ; 1.2170511295751099E7 ; 1.2835791262643316E8 ; 1.3697086869847327E8 ; 1.351776022525941E9 ; 0.0
13 ; 1.2472869869266665E7 ; 1.3221684991172701E8 ; 1.4914137999422437E8 ; 1.480133935152374E9 ; 0.0
14 ; 1.2512437159144357E7 ; 1.3638479268001246E8 ; 1.6161424986349103E8 ; 1.612350785064101E9 ; 0.0
15 ; 1.2523867894743793E7 ; 1.408617394116693E8 ; 1.741266870226354E8 ; 1.7487355777441134E9 ; 0.0
16 ; 1.2538837286593037E7 ; 1.456476881674216E8 ; 1.866505549173792E8 ; 1.8895973171557827E9 ; 0.0
17 ; 1.2552363733633917E7 ; 1.5074263659896657E8 ; 1.9918939220397225E8 ; 2.0352450053232043E9 ; 0.0
18 ; 1.2566672974806707E7 ; 1.5614658196168303E8 ; 2.1174175593760616E8 ; 2.1859876419221706E9 ; 0.0
19 ; 1.258635472633617E7 ; 1.6185952112925836E8 ; 2.2430842891241285E8 ; 2.342134223883854E9 ; 0.0
20 ; 1.2598214336628594E7 ; 1.6788145061005542E8 ; 2.3689478363874903E8 ; 2.503993745013112E9 ; 0.0
21 ; 1.2613944465113612E7 ; 1.7421236656502256E8 ; 2.4949299797537762E8 ; 2.6718751956231675E9 ; 0.0
22 ; 1.2627068258356133E7 ; 1.8085226482693923E8 ; 2.6210694244049123E8 ; 2.84608756218819E9 ; 0.0
23 ; 1.2645551426134303E7 ; 1.8780114092078096E8 ; 2.7473401069884735E8 ; 3.026939827015129E9 ; 0.0
24 ; 1.2662585412329912E7 ; 1.9505899008498263E8 ; 2.8737956212498164E8 ; 3.21474096793591E9 ; 0.0
25 ; 1.267597087890859E7 ; 2.0131384819156566E8 ; 3.0004214753731155E8 ; 3.409799958020893E9 ; 0.0
26 ; 1.2690039731513115E7 ; 2.0131925780543897E8 ; 3.127181184162201E8 ; 3.6111138062124586E9 ; 0.0
27 ; 1.2704784500163905E7 ; 2.0132498273196182E8 ; 3.254081581477333E8 ; 3.8124330640178976E9 ; 0.0
28 ; 1.2721305242673028E7 ; 2.0133101728643003E8 ; 3.381129426478972E8 ; 4.0137580467498593E9 ; 0.0
29 ; 1.2734403969020765E7 ; 2.0133735560990274E8 ; 3.508342478905702E8 ; 4.215089064036289E9 ; 0.0
30 ; 1.2749046286883555E7 ; 2.013439916914798E8 ; 3.63568651859591E8 ; 4.416426419646192E9 ; 0.0
31 ; 1.2760693221056478E7 ; 2.013509193901187E8 ; 3.7631769814647454E8 ; 4.617770411337671E9 ; 0.0
32 ; 1.278021182218937E7 ; 2.0135813245585227E8 ; 3.89078391367531E8 ; 4.81912133072779E9 ; 0.0
33 ; 1.2787862006479045E7 ; 2.01365624550286E8 ; 4.018586031897204E8 ; 5.020479463183642E9 ; 0.0
34 ; 1.2798644951479733E7 ; 2.013733892662713E8 ; 4.146464651961994E8 ; 5.221845087733929E9 ; 0.0
35 ; 1.281497584357127E7 ; 2.0138142014666983E8 ; 4.2744511014767915E8 ; 5.4232184770002E9 ; 0.0
36 ; 1.2829133419653097E7 ; 2.0138971070214033E8 ; 4.402600859912504E8 ; 5.62459989714687E9 ; 0.0
37 ; 1.28384924787277E7 ; 2.0139825442789602E8 ; 4.530892194109035E8 ; 5.82598960784901E9 ; 0.0
38 ; 1.2850741234041592E7 ; 2.014070448193965E8 ; 4.659277118896312E8 ; 6.027387862276907E9 ; 0.0
39 ; 1.2863326129511058E7 ; 2.0141607538695234E8 ; 4.787784531236728E8 ; 6.228794907096304E9 ; 0.0
40 ; 1.2872075054084342E7 ; 2.0142533966923317E8 ; 4.9164177925318384E8 ; 6.430210982483256E9 ; 0.0
41 ; 1.2884041348967547E7 ; 2.014348312456823E8 ; 5.045138543072682E8 ; 6.63163632215249E9 ; 0.0
42 ; 1.2893899635390235E7 ; 2.014445437478508E8 ; 5.1739789565623575E8 ; 6.833071153398172E9 ; 0.0
43 ; 1.2901050532760203E7 ; 2.0145447086967358E8 ; 5.30291795291626E8 ; 7.034515697146023E9 ; 0.0
44 ; 1.2912772580416335E7 ; 2.0146460637671673E8 ; 5.431928458243861E8 ; 7.235970168015697E9 ; 0.0
45 ; 1.2917521310211277E7 ; 2.0147494411443222E8 ; 5.561056184048024E8 ; 7.437434774392413E9 ; 0.0
46 ; 1.2926570410194246E7 ; 2.0148547801546136E8 ; 5.690231397150137E8 ; 7.638909718506845E9 ; 0.0
47 ; 1.2931382185965484E7 ; 2.0149620210603175E8 ; 5.81949710125208E8 ; 7.840395196522306E9 ; 0.0
48 ; 1.2940211620416813E7 ; 2.015071105114958E8 ; 5.948810923111736E8 ; 8.041891398628338E9 ; 0.0
49 ; 1.2944841411239851E7 ; 2.0151819746106103E8 ; 6.078213039315903E8 ; 8.243398509139833E9 ; 0.0
50 ; 1.29513157886997E7 ; 2.0152945729176274E8 ; 6.207661453428302E8 ; 8.444916706600895E9 ; 0.0
51 ; 1.2954713072859515E7 ; 2.015408844517313E8 ; 6.337174611315299E8 ; 8.646446163892658E9 ; 0.0
52 ; 1.2960563593561793E7 ; 2.015524735028049E8 ; 6.466721742043895E8 ; 8.847987048344389E9 ; 0.0
53 ; 1.2964841663896995E7 ; 2.0156421912253866E8 ; 6.596327377979512E8 ; 9.049539521847195E9 ; 0.0
54 ; 1.2966720692548033E7 ; 2.0157611610565943E8 ; 6.725975794618483E8 ; 9.251103740969734E9 ; 0.0
55 ; 1.2972394635994636E7 ; 2.015881593650144E8 ; 6.855643001543963E8 ; 9.452679857075394E9 ; 0.0
56 ; 1.2981424081838863E7 ; 2.016003439320593E8 ; 6.98536694790391E8 ; 9.654268016440409E9 ; 0.0
57 ; 1.2978048925889134E7 ; 2.0161266495693052E8 ; 7.115181188722298E8 ; 9.855868360372467E9 ; 0.0
58 ; 1.2985475309207916E7 ; 2.016251177081431E8 ; 7.24496167798119E8 ; 1.0057481025329397E10 ; 0.0
59 ; 1.2987096824952682E7 ; 2.016376975719536E8 ; 7.374816431073269E8 ; 1.025910614303754E10 ; 0.0
60 ; 1.2991967530805627E7 ; 2.0165040005142576E8 ; 7.504687399322796E8 ; 1.0460743840609493E10 ; 0.0
61 ; 1.2995660076581223E7 ; 2.0166322076523295E8 ; 7.634607074630852E8 ; 1.066239424066092E10 ; 0.0
62 ; 1.2999371210101523E7 ; 2.0167615544623056E8 ; 7.764563675396664E8 ; 1.0864057461426151E10 ; 0.0
63 ; 1.3006118830226088E7 ; 2.0168919993982753E8 ; 7.894557387497679E8 ; 1.1065733616872381E10 ; 0.0
64 ; 1.3009413544980248E7 ; 2.017023502021856E8 ; 8.02461857579994E8 ; 1.1267422816812208E10 ; 0.0
65 ; 1.3010138751603989E7 ; 2.0171560229827097E8 ; 8.154712711249743E8 ; 1.1469125167014393E10 ; 0.0
66 ; 1.3017413382153366E7 ; 2.0172895239978236E8 ; 8.284814098765782E8 ; 1.1670840769312664E10 ; 0.0
67 ; 1.3016573187682927E7 ; 2.0174239678297645E8 ; 8.414988232587316E8 ; 1.1872569721712446E10 ; 0.0
68 ; 1.301707138791054E7 ; 2.0175593182641006E8 ; 8.545153964464145E8 ; 1.2074312118495422E10 ; 0.0
69 ; 1.3025076799494537E7 ; 2.0176955400861686E8 ; 8.67532467834325E8 ; 1.2276068050321833E10 ; 0.0
70 ; 1.302371553406565E7 ; 2.0178325990573445E8 ; 8.805575446338195E8 ; 1.247783760433045E10 ; 0.0
71 ; 1.3026403299188422E7 ; 2.0179704618909553E8 ; 8.935812601678851E8 ; 1.2679620864236185E10 ; 0.0
72 ; 1.3035303010143703E7 ; 2.0181090962279677E8 ; 9.066076634670734E8 ; 1.2881417910425282E10 ; 0.0
73 ; 1.3033256386718597E7 ; 2.0182484706125593E8 ; 9.196429664772172E8 ; 1.3083228820048079E10 ; 0.0
74 ; 1.3036688847681267E7 ; 2.0183885544676775E8 ; 9.326762228639358E8 ; 1.3285053667109335E10 ; 0.0
75 ; 1.3037269131931767E7 ; 2.018529318070675E8 ; 9.457129117116171E8 ; 1.3486892522556103E10 ; 0.0
76 ; 1.3040877228866188E7 ; 2.0186707325290978E8 ; 9.587501808435489E8 ; 1.368874545436317E10 ; 0.0
77 ; 1.304125456326739E7 ; 2.0188127697566953E8 ; 9.717910580724151E8 ; 1.3890612527616081E10 ; 0.0
78 ; 1.3046676539928671E7 ; 2.018955402449712E8 ; 9.848323126356825E8 ; 1.4092493804591751E10 ; 0.0
79 ; 1.3037060513395004E7 ; 2.01909860406351E8 ; 9.978789891756111E8 ; 1.4294389344836721E10 ; 0.0
80 ; 1.3038206042615296E7 ; 2.01924234878957E8 ; 1.0109160496890061E9 ; 1.4496299205243073E10 ; 0.0
81 ; 1.3033179366419323E7 ; 2.0193866115328994E8 ; 1.0239542557316214E9 ; 1.469822344012203E10 ; 0.0
82 ; 1.303279456835441E7 ; 2.019531367889887E8 ; 1.0369874350980407E9 ; 1.490016210127532E10 ; 0.0
83 ; 1.3032647046739537E7 ; 2.019676594126624E8 ; 1.0500202296663951E9 ; 1.5102115238064308E10 ; 0.0
84 ; 1.3027600111805366E7 ; 2.0198222671577117E8 ; 1.0630528767131346E9 ; 1.530408289747697E10 ; 0.0
85 ; 1.3026419341400769E7 ; 2.0199683645255765E8 ; 1.07608047682494E9 ; 1.5506065124192741E10 ; 0.0
86 ; 1.3024192185580755E7 ; 2.020114864380294E8 ; 1.0891068961663408E9 ; 1.57080619606453E10 ; 0.0
87 ; 1.3022032919595052E7 ; 2.0202617454599434E8 ; 1.1021310883519216E9 ; 1.591007344708333E10 ; 0.0
88 ; 1.3017343387086922E7 ; 2.0204089870714858E8 ; 1.1151531212715166E9 ; 1.6112099621629324E10 ; 0.0
89 ; 1.3013977316358054E7 ; 2.0205565690721777E8 ; 1.1281704646586034E9 ; 1.6314140520336473E10 ; 0.0
90 ; 1.301363282705275E7 ; 2.0207044718515128E8 ; 1.1411844419749615E9 ; 1.651619617724369E10 ; 0.0
91 ; 1.301078179558726E7 ; 2.0208526763136965E8 ; 1.1541980748020144E9 ; 1.6718266624428843E10 ; 0.0
92 ; 1.3006776726714374E7 ; 2.0210011638606453E8 ; 1.1672088565976017E9 ; 1.6920351892060213E10 ; 0.0
93 ; 1.3003427385189781E7 ; 2.021149916375506E8 ; 1.180215633324316E9 ; 1.7122452008446278E10 ; 0.0
94 ; 1.2995366003832458E7 ; 2.0212989162066898E8 ; 1.1932190607095058E9 ; 1.7324567000083828E10 ; 0.0
95 ; 1.2999961547494369E7 ; 2.0214481461524138E8 ; 1.2062144267133381E9 ; 1.75266968917045E10 ; 0.0
96 ; 1.299208210357454E7 ; 2.0215975894457385E8 ; 1.2192143882608325E9 ; 1.772884170631974E10 ; 0.0
97 ; 1.298734232329741E7 ; 2.0217472297400936E8 ; 1.232206470364407E9 ; 1.7931001465264313E10 ; 0.0
98 ; 1.2987583461871171E7 ; 2.0218970510952836E8 ; 1.2451938126877046E9 ; 1.8133176188238323E10 ; 0.0
99 ; 1.2978507811523378E7 ; 2.0220470379639575E8 ; 1.2581813961495757E9 ; 1.833536589334785E10 ; 0.0
100 ; 1.2975349677576646E7 ; 2.022197175178537E8 ; 1.2711599039610991E9 ; 1.8537570597144245E10 ; 0.0
101 ; 1.2974656089405378E7 ; 2.0223474479385883E8 ; 1.2841352536386757E9 ; 1.8739790314662098E10 ; 0.0
102 ; 1.296526286921474E7 ; 2.0224978417986274E8 ; 1.297109909728081E9 ; 1.8942025059455956E10 ; 0.0
103 ; 1.2963802227181388E7 ; 2.022648342656346E8 ; 1.3100751725972958E9 ; 1.914427484363582E10 ; 0.0
104 ; 1.2957768581720075E7 ; 2.0227989367412466E8 ; 1.3230389748244772E9 ; 1.9346539677901455E10 ; 0.0
105 ; 1.2950240649801016E7 ; 2.0229496106036755E8 ; 1.3359967434061973E9 ; 1.954881957157558E10 ; 0.0
106 ; 1.2947738553996842E7 ; 2.0231003511042398E8 ; 1.3489469840559983E9 ; 1.975111453263595E10 ; 0.0
107 ; 1.2941303476219978E7 ; 2.0232511454035997E8 ; 1.3618947226099951E9 ; 1.9953424567746372E10 ; 0.0
108 ; 1.2938836326474814E7 ; 2.0234019809526214E8 ; 1.374836026086215E9 ; 2.015574968228673E10 ; 0.0
109 ; 1.2931697531165604E7 ; 2.023552845482881E8 ; 1.38777486241269E9 ; 2.0358089880381992E10 ; 0.0
110 ; 1.292952205356159E7 ; 2.0237037269975057E8 ; 1.4007065599438555E9 ; 2.056044516493028E10 ; 0.0
111 ; 1.292325485825601E7 ; 2.0238546137623447E8 ; 1.4136360819974172E9 ; 2.0762815537630028E10 ; 0.0
112 ; 1.2916315542692464E7 ; 2.0240054942974555E8 ; 1.4265593368556733E9 ; 2.0965200999006264E10 ; 0.0
113 ; 1.2912186833444063E7 ; 2.024156357368896E8 ; 1.4394756523983657E9 ; 2.116760154843601E10 ; 0.0
114 ; 1.2905135882849215E7 ; 2.024307191980813E8 ; 1.4523878392318099E9 ; 2.1370017184172897E10 ; 0.0
115 ; 1.2900275416154996E7 ; 2.0244579873678148E8 ; 1.465292975114659E9 ; 2.157244790337098E10 ; 0.0
116 ; 1.2895440508541977E7 ; 2.0246087329876187E8 ; 1.4781932505308142E9 ; 2.177489370210776E10 ; 0.0
117 ; 1.2890938914732527E7 ; 2.0247594185139653E8 ; 1.4910886910393562E9 ; 2.1977354575406525E10 ; 0.0
118 ; 1.2882656980732443E7 ; 2.0249100338297874E8 ; 1.5039796299540887E9 ; 2.217983051725792E10 ; 0.0
119 ; 1.2876762562721191E7 ; 2.0250605690206268E8 ; 1.5168622869348211E9 ; 2.23823215206409E10 ; 0.0
120 ; 1.287373253514495E7 ; 2.0252110143682873E8 ; 1.5297390494975424E9 ; 2.258482757754296E10 ; 0.0
121 ; 1.2864135598737836E7 ; 2.025361360344719E8 ; 1.5426127820326874E9 ; 2.278734867897979E10 ; 0.0
122 ; 1.2858057750744762E7 ; 2.0255115976061216E8 ; 1.5554769176314254E9 ; 2.2989884815014263E10 ; 0.0
123 ; 1.285222274610614E7 ; 2.0256617169872627E8 ; 1.5683349753821702E9 ; 2.3192435974774876E10 ; 0.0
124 ; 1.2844778820707489E7 ; 2.025811709495998E8 ; 1.5811871981282763E9 ; 2.3395002146473602E10 ; 0.0
125 ; 1.2837089549533578E7 ; 2.025961566307992E8 ; 1.594031976948984E9 ; 2.3597583317423203E10 ; 0.0
126 ; 1.2833877478313096E7 ; 2.0261112787616262E8 ; 1.6068690664985175E9 ; 2.3800179474054E10 ; 0.0
127 ; 1.2821948945157211E7 ; 2.026260838353093E8 ; 1.6197029439768307E9 ; 2.4002790601930164E10 ; 0.0
128 ; 1.2816032826959744E7 ; 2.0264102367316636E8 ; 1.632524892921988E9 ; 2.4205416685765472E10 ; 0.0
129 ; 1.2811682406051194E7 ; 2.0265594656951264E8 ; 1.6453409257489479E9 ; 2.440805770943864E10 ; 0.0
130 ; 1.2799991032334812E7 ; 2.0267085171853885E8 ; 1.658152608154999E9 ; 2.4610713656008152E10 ; 0.0
131 ; 1.279025925166489E7 ; 2.0268573832842356E8 ; 1.6709525991873338E9 ; 2.4813384507726692E10 ; 0.0
132 ; 1.2780180865919827E7 ; 2.0270060562092412E8 ; 1.6837428584389987E9 ; 2.5016070246055115E10 ; 0.0
133 ; 1.2767409380563477E7 ; 2.027154528309824E8 ; 1.6965230393049185E9 ; 2.521877085167604E10 ; 0.0
134 ; 1.2752508293830255E7 ; 2.0273027920634428E8 ; 1.709290448685482E9 ; 2.5421486304507023E10 ; 0.0
135 ; 1.2743503223034507E7 ; 2.0274508400719285E8 ; 1.7220429569793122E9 ; 2.5624216583713367E10 ; 0.0
136 ; 1.2731703695012609E7 ; 2.0275986650579458E8 ; 1.7347864602023468E9 ; 2.5826961667720562E10 ; 0.0
137 ; 1.2720146137901092E7 ; 2.027746259861578E8 ; 1.7475181638973594E9 ; 2.6029721534226357E10 ; 0.0
138 ; 1.270938369604436E7 ; 2.027893617437035E8 ; 1.7602383100352604E9 ; 2.6232496160212513E10 ; 0.0
139 ; 1.2697974753979644E7 ; 2.0280407308494762E8 ; 1.772947693731305E9 ; 2.6435285521956215E10 ; 0.0
140 ; 1.2684697940039193E7 ; 2.028187593271942E8 ; 1.7856456684852846E9 ; 2.6638089595041164E10 ; 0.0
141 ; 1.2670245055422388E7 ; 2.0283341979823992E8 ; 1.7983303664253237E9 ; 2.684090835436836E10 ; 0.0
142 ; 1.2661638602641305E7 ; 2.0284805383608815E8 ; 1.811000611480746E9 ; 2.70437417741666E10 ; 0.0
143 ; 1.2646055949278742E7 ; 2.0286266078867382E8 ; 1.8236622500833874E9 ; 2.7246589828002686E10 ; 0.0
144 ; 1.2634614086694289E7 ; 2.028772400135971E8 ; 1.8363083060326662E9 ; 2.744945248879136E10 ; 0.0
145 ; 1.262873575482475E7 ; 2.0289179087786674E8 ; 1.8489429201193604E9 ; 2.7652329728804955E10 ; 0.0
146 ; 1.2617995576473791E7 ; 2.0290631275765234E8 ; 1.861571655874185E9 ; 2.7855221519682823E10 ; 0.0
147 ; 1.2609647475132108E7 ; 2.0292080503804478E8 ; 1.8741896514506588E9 ; 2.8058127832440475E10 ; 0.0
148 ; 1.259757384095647E7 ; 2.029352671128253E8 ; 1.8867992989257908E9 ; 2.826104863747852E10 ; 0.0
149 ; 1.2569193511705229E7 ; 2.029496983842423E8 ; 1.8993968727667472E9 ; 2.8463983904591343E10 ; 0.0
150 ; 1.2549428888515843E7 ; 2.0296409826279584E8 ; 1.9119660662784524E9 ; 2.8666933602975586E10 ; 0.0
151 ; 1.2523292193776317E7 ; 2.0297846616702935E8 ; 1.9245154951669683E9 ; 2.886989770123838E10 ; 0.0
152 ; 1.2498052089019818E7 ; 2.029928015233288E8 ; 1.9370387873607447E9 ; 2.907287616740541E10 ; 0.0
153 ; 1.2476505470981183E7 ; 2.030071037657283E8 ; 1.9495368394497645E9 ; 2.927586896892874E10 ; 0.0
154 ; 1.2449892278086811E7 ; 2.030213723357223E8 ; 1.9620133449207456E9 ; 2.947887607269447E10 ; 0.0
155 ; 1.2423266823314326E7 ; 2.030356066820846E8 ; 1.9744632371988325E9 ; 2.9681897445030193E10 ; 0.0
156 ; 1.239858884640568E7 ; 2.0304980626069286E8 ; 1.986886504022147E9 ; 2.9884933051712276E10 ; 0.0
157 ; 1.2374839483252563E7 ; 2.0306397053435934E8 ; 1.9992850928685527E9 ; 3.008798285797297E10 ; 0.0
158 ; 1.2346189159509018E7 ; 2.0307809897266728E8 ; 2.0116599323518052E9 ; 3.0291046828507328E10 ; 0.0
159 ; 1.2325076920992656E7 ; 2.030921910518126E8 ; 2.0240061215113142E9 ; 3.0494124927479996E10 ; 0.0
160 ; 1.2299946937018665E7 ; 2.031062462544511E8 ; 2.0363311984323068E9 ; 3.0697217118531807E10 ; 0.0
161 ; 1.227315403165897E7 ; 2.0312026406955054E8 ; 2.0486311453693254E9 ; 3.090032336478626E10 ; 0.0
162 ; 1.2246374483567022E7 ; 2.0313424399224767E8 ; 2.0609042994009843E9 ; 3.110344362885581E10 ; 0.0
163 ; 1.2222183408411006E7 ; 2.031481855237101E8 ; 2.0731506738845513E9 ; 3.1306577872848057E10 ; 0.0
164 ; 1.2200472428629098E7 ; 2.0316208817100248E8 ; 2.0853728572929623E9 ; 3.1509726058371765E10 ; 0.0
165 ; 1.2171714559299557E7 ; 2.0317595144695735E8 ; 2.0975733297215915E9 ; 3.1712888146542767E10 ; 0.0
166 ; 1.2149467039110893E7 ; 2.031897748700501E8 ; 2.109745044280891E9 ; 3.1916064097989723E10 ; 0.0
167 ; 1.2121435859628983E7 ; 2.032035579642779E8 ; 2.1218945113200018E9 ; 3.211925387285977E10 ; 0.0
168 ; 1.2097603447067857E7 ; 2.0321730025904277E8 ; 2.1340159471796308E9 ; 3.232245743082405E10 ; 0.0
169 ; 1.2068572669919332E7 ; 2.032310012890384E8 ; 2.1461135506266985E9 ; 3.2525674731083096E10 ; 0.0
170 ; 1.2046258395521455E7 ; 2.032446605941405E8 ; 2.158182123296618E9 ; 3.2728905732372135E10 ; 0.0
171 ; 1.201958962630891E7 ; 2.0325827771930096E8 ; 2.1702283816921396E9 ; 3.2932150392966274E10 ; 0.0
172 ; 1.199665148157895E7 ; 2.0327185221444508E8 ; 2.1822479713184485E9 ; 3.3135408670685574E10 ; 0.0
173 ; 1.1969486576154284E7 ; 2.0328538363437247E8 ; 2.1942446228000274E9 ; 3.3338680522900017E10 ; 0.0
174 ; 1.1950328680962535E7 ; 2.0329887153866085E8 ; 2.2062141093761816E9 ; 3.354196590653439E10 ; 0.0
175 ; 1.1925996273413945E7 ; 2.033123154915731E8 ; 2.218164438057144E9 ; 3.374526477807305E10 ; 0.0
176 ; 1.1904717052893907E7 ; 2.0332571506196707E8 ; 2.2300904343305583E9 ; 3.3948577093564625E10 ; 0.0
177 ; 1.1882137732931271E7 ; 2.0333906982320863E8 ; 2.2419951513834524E9 ; 3.415190280862659E10 ; 0.0
178 ; 1.1860172797969157E7 ; 2.03352379353087E8 ; 2.2538772891163836E9 ; 3.43552418784498E10 ; 0.0
179 ; 1.1840398479344135E7 ; 2.0336564323373324E8 ; 2.265737461914353E9 ; 3.455859425780289E10 ; 0.0
180 ; 1.18187342243657E7 ; 2.033788610515409E8 ; 2.2775778603936973E9 ; 3.476195990103662E10 ; 0.0
181 ; 1.1797039285060879E7 ; 2.033920323970895E8 ; 2.289396594618063E9 ; 3.4965338762088165E10 ; 0.0
182 ; 1.1773505005453683E7 ; 2.0340515686507022E8 ; 2.301193633903124E9 ; 3.516873079448525E10 ; 0.0
183 ; 1.174964248756361E7 ; 2.0341823405421397E8 ; 2.3129671389085774E9 ; 3.537213595135032E10 ; 0.0
184 ; 1.1726031451014949E7 ; 2.0343126356722173E8 ; 2.324716781396141E9 ; 3.557555418540453E10 ; 0.0
185 ; 1.1705051282579303E7 ; 2.0344424501069707E8 ; 2.336442812847156E9 ; 3.5778985448971756E10 ; 0.0
186 ; 1.1685249654167783E7 ; 2.034571779950808E8 ; 2.3481478641297355E9 ; 3.598242969398245E10 ; 0.0
187 ; 1.1662009467504665E7 ; 2.0347006213458747E8 ; 2.359833113783903E9 ; 3.618588687197753E10 ; 0.0
188 ; 1.1639588324748138E7 ; 2.0348289704714417E8 ; 2.3714951232514076E9 ; 3.638935693411212E10 ; 0.0
189 ; 1.1620883776737716E7 ; 2.034956823543309E8 ; 2.3831347115761557E9 ; 3.659283983115926E10 ; 0.0
190 ; 1.1595100560970498E7 ; 2.035084176813229E8 ; 2.3947555953528934E9 ; 3.6796335513513596E10 ; 0.0
191 ; 1.1571149124347076E7 ; 2.035211026568349E8 ; 2.4063506959138637E9 ; 3.6999843931194916E10 ; 0.0
192 ; 1.1552635282168029E7 ; 2.0353373691306692E8 ; 2.417921845038211E9 ; 3.720336503385175E10 ; 0.0
193 ; 1.153089295563047E7 ; 2.0354632008565167E8 ; 2.429474480320379E9 ; 3.7406898770764824E10 ; 0.0
194 ; 1.1509715080604434E7 ; 2.0355885181360373E8 ; 2.441005373276009E9 ; 3.761044509085048E10 ; 0.0
195 ; 1.1482640655558733E7 ; 2.035713317392703E8 ; 2.4525150883566136E9 ; 3.7814003942664085E10 ; 0.0
