CSV File for the City 6 on Day 179
1 - Minute m 
2 - Power Consumed at minute m 
3 - Power Produced at minute m 
4 - Energy Consumed since the beginning of the day 
5 - Energy Produced since the beginning of the day 
6 - Energy Lost since the beginning of the day on lines starting from the city
 
0 ; 2675988.062123435 ; 1.0598217408402231E8 ; 0.0 ; 0.0 ; 0.0
1 ; 2683162.023341111 ; 1.0613297675448555E8 ; 2675988.062123435 ; 1.0598217408402231E8 ; 0.0
2 ; 2696067.9849912184 ; 1.0659277813783476E8 ; 5359150.085464546 ; 2.1211515083850786E8 ; 0.0
3 ; 2710453.2251840187 ; 1.0736158264642608E8 ; 8055218.070455765 ; 3.187079289763426E8 ; 0.0
4 ; 2723362.6985860625 ; 1.0843939424539411E8 ; 1.0765671295639783E7 ; 4.260695116227687E8 ; 0.0
5 ; 2739832.577549711 ; 1.0982621642703962E8 ; 1.3489033994225845E7 ; 5.345089058681628E8 ; 0.0
6 ; 2765589.6125653167 ; 1.1152205218776289E8 ; 1.6228866571775556E7 ; 6.443351222952025E8 ; 0.0
7 ; 2804111.4987249207 ; 1.1352690400788915E8 ; 1.8994456184340872E7 ; 7.558571744829654E8 ; 0.0
8 ; 2857893.2240288286 ; 1.1584077383470142E8 ; 2.1798567683065794E7 ; 8.693840784908545E8 ; 0.0
9 ; 2933162.141613295 ; 1.1846366306894767E8 ; 2.4656460907094624E7 ; 9.852248523255559E8 ; 0.0
10 ; 3061890.859300115 ; 1.213955725550422E8 ; 2.7589623048707917E7 ; 1.1036885153945036E9 ; 0.0
11 ; 3257465.5741343717 ; 1.2463650257512054E8 ; 3.065151390800803E7 ; 1.2250840879495459E9 ; 0.0
12 ; 3571722.2549777557 ; 1.2818645284704712E8 ; 3.39089794821424E7 ; 1.3497205905246663E9 ; 0.0
13 ; 3874440.865632977 ; 1.3204542252640766E8 ; 3.748070173712016E7 ; 1.4779070433717134E9 ; 0.0
14 ; 3911121.1920496 ; 1.3621341021245426E8 ; 4.135514260275313E7 ; 1.609952465898121E9 ; 0.0
15 ; 3924864.6761416676 ; 1.406904139579038E8 ; 4.526626379480273E7 ; 1.7461658761105754E9 ; 0.0
16 ; 3939431.547946742 ; 1.4547643128243116E8 ; 4.91911284709444E7 ; 1.8868562900684793E9 ; 0.0
17 ; 3953315.7498815013 ; 1.5057145918963596E8 ; 5.313056001889114E7 ; 2.0323327213509104E9 ; 0.0
18 ; 3965282.9968329454 ; 1.5597549418721747E8 ; 5.708387576877264E7 ; 2.1829041805405464E9 ; 0.0
19 ; 3979454.0444743675 ; 1.616885323100411E8 ; 6.1049158765605584E7 ; 2.338879674727764E9 ; 0.0
20 ; 3994817.7623563656 ; 1.6771056914575067E8 ; 6.5028612810079955E7 ; 2.500568207037805E9 ; 0.0
21 ; 4005947.6639456344 ; 1.740415998625513E8 ; 6.902343057243632E7 ; 2.6682787761835556E9 ; 0.0
22 ; 4021327.106914976 ; 1.8068161923877227E8 ; 7.302937823638195E7 ; 2.842320376046107E9 ; 0.0
23 ; 4035334.7892086976 ; 1.8763062169381183E8 ; 7.705070534329693E7 ; 3.023001995284879E9 ; 0.0
24 ; 4044522.3362419535 ; 1.948886013200677E8 ; 8.108604013250563E7 ; 3.210632616978691E9 ; 0.0
25 ; 4060640.3805346056 ; 2.0114359281364933E8 ; 8.513056246874759E7 ; 3.405521218298759E9 ; 0.0
26 ; 4078593.130128094 ; 2.011491375440316E8 ; 8.919120284928219E7 ; 3.606664811112408E9 ; 0.0
27 ; 4089203.0742128952 ; 2.011549981115981E8 ; 9.326979597941029E7 ; 3.80781394865644E9 ; 0.0
28 ; 4104275.224011811 ; 2.0116116762661734E8 ; 9.735899905362318E7 ; 4.008968946768038E9 ; 0.0
29 ; 4117371.242669542 ; 2.011676390339685E8 ; 1.01463274277635E8 ; 4.210130114394655E9 ; 0.0
30 ; 4133197.023441309 ; 2.0117440514364755E8 ; 1.0558064552030453E8 ; 4.411297753428624E9 ; 0.0
31 ; 4142182.4720513686 ; 2.0118145866008174E8 ; 1.0971384254374585E8 ; 4.612472158572271E9 ; 0.0
32 ; 4159669.49735565 ; 2.01188792210073E8 ; 1.1385602501579721E8 ; 4.813653617232353E9 ; 0.0
33 ; 4169070.7596508735 ; 2.011963983692258E8 ; 1.1801569451315287E8 ; 5.014842409442427E9 ; 0.0
34 ; 4181357.945169707 ; 2.0120426968674994E8 ; 1.2218476527280374E8 ; 5.216038807811652E9 ; 0.0
35 ; 4193805.432351473 ; 2.0121239870856005E8 ; 1.2636612321797344E8 ; 5.417243077498402E9 ; 0.0
36 ; 4204608.306171822 ; 2.0122077799862507E8 ; 1.3055992865032491E8 ; 5.618455476206962E9 ; 0.0
37 ; 4216084.266033179 ; 2.012294001585466E8 ; 1.3476453695649675E8 ; 5.819676254205586E9 ; 0.0
38 ; 4227189.266365777 ; 2.0123825784536996E8 ; 1.3898062122252992E8 ; 6.020905654364133E9 ; 0.0
39 ; 4239458.079120211 ; 2.012473437876527E8 ; 1.4320781048889568E8 ; 6.222143912209503E9 ; 0.0
40 ; 4249098.755145348 ; 2.012566507998326E8 ; 1.474472685680159E8 ; 6.423391255997156E9 ; 0.0
41 ; 4255056.466342552 ; 2.012661717949527E8 ; 1.5169636732316124E8 ; 6.6246479067969885E9 ; 0.0
42 ; 4268955.616951837 ; 2.0127589979581228E8 ; 1.5595142378950378E8 ; 6.825914078591941E9 ; 0.0
43 ; 4274747.529545942 ; 2.012858279446223E8 ; 1.602203794064556E8 ; 7.0271899783877535E9 ; 0.0
44 ; 4284651.431819255 ; 2.012959495112505E8 ; 1.6449512693600154E8 ; 7.228475806332376E9 ; 0.0
45 ; 4292128.8827047385 ; 2.0130625790014526E8 ; 1.687797783678208E8 ; 7.429771755843626E9 ; 0.0
46 ; 4296072.144968428 ; 2.0131674665603188E8 ; 1.7307190725052553E8 ; 7.631078013743772E9 ; 0.0
47 ; 4303922.720801023 ; 2.01327409468473E8 ; 1.7736797939549395E8 ; 7.832394760399803E9 ; 0.0
48 ; 4310102.415494242 ; 2.0133824017538732E8 ; 1.8167190211629498E8 ; 8.033722169868277E9 ; 0.0
49 ; 4315255.928178979 ; 2.013492327656172E8 ; 1.859820045317892E8 ; 8.235060410043664E9 ; 0.0
50 ; 4319655.29509297 ; 2.013603813806336E8 ; 1.9029726045996818E8 ; 8.436409642809281E9 ; 0.0
51 ; 4326012.972686703 ; 2.0137168031546426E8 ; 1.9461691575506115E8 ; 8.637770024189915E9 ; 0.0
52 ; 4326511.616435155 ; 2.0138312401892552E8 ; 1.9894292872774786E8 ; 8.839141704505379E9 ; 0.0
53 ; 4329706.558207929 ; 2.013947070932354E8 ; 2.0326944034418303E8 ; 9.040524828524303E9 ; 0.0
54 ; 4335461.23225234 ; 2.0140642429307985E8 ; 2.0759914690239096E8 ; 9.241919535617538E9 ; 0.0
55 ; 4337429.378792991 ; 2.0141827052419952E8 ; 2.119346081346433E8 ; 9.443325959910618E9 ; 0.0
56 ; 4338968.270959168 ; 2.0143024084156013E8 ; 2.162720375134363E8 ; 9.644744230434818E9 ; 0.0
57 ; 4344798.137021228 ; 2.0144233044716355E8 ; 2.2061100578439546E8 ; 9.846174471276379E9 ; 0.0
58 ; 4348682.368585897 ; 2.014545346875533E8 ; 2.2495580392141667E8 ; 1.0047616801723541E10 ; 0.0
59 ; 4351491.875006269 ; 2.01466849051062E8 ; 2.2930448629000255E8 ; 1.0249071336411095E10 ; 0.0
60 ; 4354791.190535788 ; 2.0147926916484585E8 ; 2.336559781650088E8 ; 1.0450538185462156E10 ; 0.0
61 ; 4359143.882299148 ; 2.0149179079174483E8 ; 2.380107693555446E8 ; 1.0652017454627003E10 ; 0.0
62 ; 4360627.77287354 ; 2.0150440982700503E8 ; 2.4236991323784375E8 ; 1.0853509245418747E10 ; 0.0
63 ; 4366845.076355788 ; 2.0151712229489517E8 ; 2.467305410107173E8 ; 1.1055013655245752E10 ; 0.0
64 ; 4369592.616731106 ; 2.0152992434524548E8 ; 2.510973860870731E8 ; 1.1256530777540648E10 ; 0.0
65 ; 4373206.495797594 ; 2.0154281224993458E8 ; 2.554669787038042E8 ; 1.1458060701885893E10 ; 0.0
66 ; 4376161.926781947 ; 2.015557823993468E8 ; 2.598401851996018E8 ; 1.1659603514135828E10 ; 0.0
67 ; 4378952.406969607 ; 2.0156883129881915E8 ; 2.6421634712638375E8 ; 1.1861159296535175E10 ; 0.0
68 ; 4384916.882714899 ; 2.0158195556509548E8 ; 2.685952995333533E8 ; 1.2062728127833994E10 ; 0.0
69 ; 4385756.488306237 ; 2.0159515192280254E8 ; 2.7298021641606826E8 ; 1.226431008339909E10 ; 0.0
70 ; 4384150.281359036 ; 2.0160841720096025E8 ; 2.773659729043745E8 ; 1.2465905235321892E10 ; 0.0
71 ; 4386374.417212676 ; 2.0162174832953796E8 ; 2.817501231857335E8 ; 1.2667513652522852E10 ; 0.0
72 ; 4392883.804695825 ; 2.0163514233606514E8 ; 2.8613649760294616E8 ; 1.286913540085239E10 ; 0.0
73 ; 4393259.467823425 ; 2.0164859634230447E8 ; 2.90529381407642E8 ; 1.3070770543188456E10 ; 0.0
74 ; 4392150.87941607 ; 2.016621075609937E8 ; 2.9492264087546545E8 ; 1.327241913953076E10 ; 0.0
75 ; 4398630.889147126 ; 2.0167567329266155E8 ; 2.993147917548815E8 ; 1.3474081247091753E10 ; 0.0
76 ; 4398690.013547571 ; 2.0168929092252132E8 ; 3.037134226440286E8 ; 1.3675756920384415E10 ; 0.0
77 ; 4402319.547873893 ; 2.0170295791744614E8 ; 3.081121126575762E8 ; 1.3877446211306936E10 ; 0.0
78 ; 4397986.501718432 ; 2.0171667182302696E8 ; 3.125144322054501E8 ; 1.4079149169224382E10 ; 0.0
79 ; 4395792.996461389 ; 2.017304302607164E8 ; 3.169124187071686E8 ; 1.428086584104741E10 ; 0.0
80 ; 4396624.809011517 ; 2.0174423092505804E8 ; 3.2130821170363E8 ; 1.4482596271308125E10 ; 0.0
81 ; 4395479.296969294 ; 2.0175807158100232E8 ; 3.257048365126415E8 ; 1.4684340502233183E10 ; 0.0
82 ; 4392769.765080172 ; 2.01771950061309E8 ; 3.301003158096108E8 ; 1.4886098573814186E10 ; 0.0
83 ; 4390990.383013419 ; 2.0178586426403522E8 ; 3.3449308557469094E8 ; 1.5087870523875496E10 ; 0.0
84 ; 4387479.159032187 ; 2.017998121501089E8 ; 3.3888407595770437E8 ; 1.528965638813953E10 ; 0.0
85 ; 4382663.451443269 ; 2.0181379174098596E8 ; 3.4327155511673653E8 ; 1.5491456200289639E10 ; 0.0
86 ; 4385309.96968298 ; 2.0182780111639032E8 ; 3.476542185681798E8 ; 1.5693269992030624E10 ; 0.0
87 ; 4379535.277001308 ; 2.0184183841213474E8 ; 3.520395285378628E8 ; 1.5895097793147015E10 ; 0.0
88 ; 4380365.419951955 ; 2.0185590181802124E8 ; 3.564190638148641E8 ; 1.6096939631559149E10 ; 0.0
89 ; 4374655.572684584 ; 2.0186998957581887E8 ; 3.607994292348161E8 ; 1.629879553337717E10 ; 0.0
90 ; 4374358.276472267 ; 2.0188409997731692E8 ; 3.6517408480750066E8 ; 1.650066552295299E10 ; 0.0
91 ; 4365868.679602374 ; 2.0189823136245188E8 ; 3.6954844308397293E8 ; 1.6702549622930307E10 ; 0.0
92 ; 4366104.212722775 ; 2.0191238211750537E8 ; 3.739143117635753E8 ; 1.6904447854292759E10 ; 0.0
93 ; 4362477.9475092 ; 2.019265506733716E8 ; 3.782804159762981E8 ; 1.7106360236410265E10 ; 0.0
94 ; 4357487.976544529 ; 2.019407355038918E8 ; 3.826428939238073E8 ; 1.7308286787083637E10 ; 0.0
95 ; 4358395.220860767 ; 2.0195493512425342E8 ; 3.870003819003519E8 ; 1.751022752258753E10 ; 0.0
96 ; 4354750.649633435 ; 2.019691480894522E8 ; 3.9135877712121266E8 ; 1.771218245771178E10 ; 0.0
97 ; 4352266.298071716 ; 2.0198337299281478E8 ; 3.9571352777084607E8 ; 1.791415160580123E10 ; 0.0
98 ; 4347686.21097736 ; 2.0199760846457967E8 ; 4.000657940689178E8 ; 1.8116134978794044E10 ; 0.0
99 ; 4342080.515700104 ; 2.0201185317053458E8 ; 4.044134802798952E8 ; 1.8318132587258625E10 ; 0.0
100 ; 4342259.780733691 ; 2.020261058107081E8 ; 4.087555607955953E8 ; 1.852014444042916E10 ; 0.0
101 ; 4335630.300613403 ; 2.0204036511811352E8 ; 4.13097820576329E8 ; 1.872217054623987E10 ; 0.0
102 ; 4331834.495101016 ; 2.0205462985754305E8 ; 4.174334508769424E8 ; 1.8924210911357983E10 ; 0.0
103 ; 4324920.721754523 ; 2.0206889882441026E8 ; 4.2176528537204343E8 ; 1.9126265541215527E10 ; 0.0
104 ; 4324175.702345235 ; 2.020831708436392E8 ; 4.26090206093798E8 ; 1.9328334440039936E10 ; 0.0
105 ; 4317734.491018153 ; 2.020974447685979E8 ; 4.3041438179614323E8 ; 1.9530417610883575E10 ; 0.0
106 ; 4315207.661841797 ; 2.021117194800751E8 ; 4.347321162871614E8 ; 1.9732515055652172E10 ; 0.0
107 ; 4311422.259373997 ; 2.021259938852978E8 ; 4.390473239490032E8 ; 1.9934626775132248E10 ; 0.0
108 ; 4307801.825443209 ; 2.0214026691698882E8 ; 4.4335874620837724E8 ; 2.0136752769017548E10 ; 0.0
109 ; 4303964.309310336 ; 2.0215453753246182E8 ; 4.4766654803382045E8 ; 2.0338893035934536E10 ; 0.0
110 ; 4298842.082686635 ; 2.021688047127529E8 ; 4.5197051234313077E8 ; 2.0541047573467E10 ; 0.0
111 ; 4289598.274785193 ; 2.0218306746178737E8 ; 4.5626935442581743E8 ; 2.0743216378179752E10 ; 0.0
112 ; 4288300.619100118 ; 2.0219732480557945E8 ; 4.6055895270060265E8 ; 2.094539944564154E10 ; 0.0
113 ; 4282881.356080783 ; 2.022115757914647E8 ; 4.6484725331970274E8 ; 2.114759677044712E10 ; 0.0
114 ; 4282453.663017059 ; 2.0222581948736253E8 ; 4.691301346757835E8 ; 2.1349808346238586E10 ; 0.0
115 ; 4270921.701930624 ; 2.02240054981069E8 ; 4.7341258833880055E8 ; 2.155203416572595E10 ; 0.0
116 ; 4265681.866946857 ; 2.0225428137957716E8 ; 4.776835100407312E8 ; 2.1754274220707016E10 ; 0.0
117 ; 4260634.418210171 ; 2.0226849780842483E8 ; 4.8194919190767807E8 ; 2.1956528502086594E10 ; 0.0
118 ; 4254925.169065073 ; 2.0228270341106844E8 ; 4.862098263258882E8 ; 2.215879699989502E10 ; 0.0
119 ; 4252648.719277205 ; 2.0229689734828153E8 ; 4.904647514949533E8 ; 2.2361079703306087E10 ; 0.0
120 ; 4245172.105658226 ; 2.0231107879757714E8 ; 4.947174002142305E8 ; 2.256337660065437E10 ; 0.0
121 ; 4236407.457554428 ; 2.023252469526532E8 ; 4.989625723198887E8 ; 2.2765687679451946E10 ; 0.0
122 ; 4234032.892281271 ; 2.0233940102285948E8 ; 5.031989797774431E8 ; 2.29680129264046E10 ; 0.0
123 ; 4227221.983751305 ; 2.0235354023268598E8 ; 5.074330126697244E8 ; 2.3170352327427456E10 ; 0.0
124 ; 4222927.448335504 ; 2.0236766382127094E8 ; 5.116602346534757E8 ; 2.337270586766014E10 ; 0.0
125 ; 4216539.550364003 ; 2.0238177104192847E8 ; 5.1588316210181123E8 ; 2.357507353148141E10 ; 0.0
126 ; 4211252.530618943 ; 2.0239586116169432E8 ; 5.2009970165217525E8 ; 2.377745530252334E10 ; 0.0
127 ; 4202968.274083492 ; 2.0240993346088973E8 ; 5.243109541827942E8 ; 2.397985116368503E10 ; 0.0
128 ; 4197727.442245963 ; 2.0242398723270172E8 ; 5.285139224568777E8 ; 2.418226109714592E10 ; 0.0
129 ; 4192164.7162124645 ; 2.024380217827801E8 ; 5.3271164989912367E8 ; 2.438468508437862E10 ; 0.0
130 ; 4185239.2858507647 ; 2.0245203642884973E8 ; 5.369038146153362E8 ; 2.45871231061614E10 ; 0.0
131 ; 4169915.6471843217 ; 2.0246603050033778E8 ; 5.41089053901187E8 ; 2.478957514259025E10 ; 0.0
132 ; 4161238.240301875 ; 2.0248000333801544E8 ; 5.452589695483713E8 ; 2.4992041173090588E10 ; 0.0
133 ; 4149525.6799830412 ; 2.02493954293653E8 ; 5.494202077886732E8 ; 2.5194521176428604E10 ; 0.0
134 ; 4143727.7151003513 ; 2.025078827296885E8 ; 5.535697334686562E8 ; 2.5397015130722256E10 ; 0.0
135 ; 4131047.632557294 ; 2.0252178801890856E8 ; 5.577134611837566E8 ; 2.5599523013451942E10 ; 0.0
136 ; 4121440.479527506 ; 2.0253566954414165E8 ; 5.618445088163139E8 ; 2.580204480147085E10 ; 0.0
137 ; 4112315.7321380074 ; 2.0254952669796264E8 ; 5.659659492958413E8 ; 2.600458047101499E10 ; 0.0
138 ; 4099404.8128877045 ; 2.025633588824088E8 ; 5.700782650279794E8 ; 2.6207129997712955E10 ; 0.0
139 ; 4089595.058745321 ; 2.0257716550870606E8 ; 5.74177669840867E8 ; 2.6409693356595364E10 ; 0.0
140 ; 4077068.2793361777 ; 2.025909459970059E8 ; 5.782672648996123E8 ; 2.661227052210407E10 ; 0.0
141 ; 4063553.1282191304 ; 2.026046997761317E8 ; 5.823443331789485E8 ; 2.6814861468101074E10 ; 0.0
142 ; 4053450.1466425597 ; 2.0261842628333473E8 ; 5.864078863071676E8 ; 2.7017466167877205E10 ; 0.0
143 ; 4043465.8362153987 ; 2.0263212496405917E8 ; 5.904613364538102E8 ; 2.7220084594160538E10 ; 0.0
144 ; 4035617.693805561 ; 2.0264579527171555E8 ; 5.945048022900256E8 ; 2.7422716719124596E10 ; 0.0
145 ; 4021314.2628482743 ; 2.0265943666746292E8 ; 5.985404199838312E8 ; 2.7625362514396313E10 ; 0.0
146 ; 4019441.1886044117 ; 2.0267304861999854E8 ; 6.025617342466794E8 ; 2.7828021951063774E10 ; 0.0
147 ; 4011110.019458606 ; 2.0268663060535577E8 ; 6.065811754352838E8 ; 2.8030694999683773E10 ; 0.0
148 ; 4005135.2809003075 ; 2.0270018210670877E8 ; 6.105922854547424E8 ; 2.8233381630289127E10 ; 0.0
149 ; 4002311.748335723 ; 2.0271370261418465E8 ; 6.145974207356428E8 ; 2.8436081812395836E10 ; 0.0
150 ; 3992329.3826967464 ; 2.0272719162468234E8 ; 6.185997324839785E8 ; 2.863879551501002E10 ; 0.0
151 ; 3984833.799211712 ; 2.027406486416979E8 ; 6.225920618666753E8 ; 2.8841522706634705E10 ; 0.0
152 ; 3978798.653285855 ; 2.0275407317515618E8 ; 6.26576895665887E8 ; 2.90442633552764E10 ; 0.0
153 ; 3974427.2387989345 ; 2.027674647412484E8 ; 6.305556943191729E8 ; 2.9247017428451557E10 ; 0.0
154 ; 3965592.1456512623 ; 2.0278082286227566E8 ; 6.345301215579718E8 ; 2.9449784893192806E10 ; 0.0
155 ; 3959186.635783394 ; 2.0279414706649795E8 ; 6.38495713703623E8 ; 2.965256571605508E10 ; 0.0
156 ; 3951036.769029721 ; 2.0280743688798848E8 ; 6.424549003394065E8 ; 2.985535986312158E10 ; 0.0
157 ; 3944427.6137059834 ; 2.0282069186649317E8 ; 6.464059371084362E8 ; 3.0058167300009567E10 ; 0.0
158 ; 3935879.229783758 ; 2.0283391154729503E8 ; 6.503503647221422E8 ; 3.026098799187606E10 ; 0.0
159 ; 3928701.493099034 ; 2.0284709548108354E8 ; 6.54286243951926E8 ; 3.0463821903423355E10 ; 0.0
160 ; 3924629.4270702573 ; 2.0286024322382826E8 ; 6.58214945445025E8 ; 3.0666668998904438E10 ; 0.0
161 ; 3914531.22221313 ; 2.0287335433665696E8 ; 6.621395748720952E8 ; 3.0869529242128265E10 ; 0.0
162 ; 3909126.3935353155 ; 2.028864283857382E8 ; 6.660541060943084E8 ; 3.1072402596464924E10 ; 0.0
163 ; 3899665.6410466833 ; 2.028994649421676E8 ; 6.699632324878436E8 ; 3.1275289024850662E10 ; 0.0
164 ; 3897341.117615562 ; 2.0291246358185843E8 ; 6.738628981288903E8 ; 3.147818848979283E10 ; 0.0
165 ; 3886968.056166804 ; 2.0292542388543555E8 ; 6.777602392465059E8 ; 3.168110095337469E10 ; 0.0
166 ; 3881747.155447431 ; 2.029383454381334E8 ; 6.816472073026726E8 ; 3.1884026377260128E10 ; 0.0
167 ; 3874175.6636178824 ; 2.0295122782969716E8 ; 6.855289544581201E8 ; 3.208696472269826E10 ; 0.0
168 ; 3868559.0806695498 ; 2.0296407065428746E8 ; 6.89403130121738E8 ; 3.2289915950527958E10 ; 0.0
169 ; 3859717.8286118703 ; 2.0297687351038823E8 ; 6.932716892024075E8 ; 3.2492880021182247E10 ; 0.0
170 ; 3856060.6148296376 ; 2.0298963600071782E8 ; 6.971314070310193E8 ; 3.2695856894692635E10 ; 0.0
171 ; 3848003.812756993 ; 2.030023577321428E8 ; 7.00987467645849E8 ; 3.289884653069335E10 ; 0.0
172 ; 3841037.8979012524 ; 2.0301503831559518E8 ; 7.04835471458606E8 ; 3.3101848888425495E10 ; 0.0
173 ; 3831651.1748545896 ; 2.0302767736599183E8 ; 7.086765093565073E8 ; 3.330486392674109E10 ; 0.0
174 ; 3827753.759869183 ; 2.0304027450215706E8 ; 7.125081605313619E8 ; 3.3507891604107082E10 ; 0.0
175 ; 3823980.2885109764 ; 2.0305282934674755E8 ; 7.163359142912312E8 ; 3.3710931878609238E10 ; 0.0
176 ; 3816378.7176403417 ; 2.0306534152617982E8 ; 7.201598945797421E8 ; 3.3913984707955986E10 ; 0.0
177 ; 3812686.3648943002 ; 2.0307781067056024E8 ; 7.239762732973825E8 ; 3.4117050049482166E10 ; 0.0
178 ; 3807120.733443803 ; 2.0309023641361704E8 ; 7.277889596622767E8 ; 3.4320127860152725E10 ; 0.0
179 ; 3798916.8822840448 ; 2.03102618392635E8 ; 7.315960803957206E8 ; 3.4523218096566345E10 ; 0.0
180 ; 3794543.2824172024 ; 2.031149562483919E8 ; 7.353949972780046E8 ; 3.472632071495898E10 ; 0.0
181 ; 3791784.5005292553 ; 2.031272496250973E8 ; 7.391895405604218E8 ; 3.492943567120737E10 ; 0.0
182 ; 3786073.904820645 ; 2.031394981703333E8 ; 7.429813250609511E8 ; 3.5132562920832466E10 ; 0.0
183 ; 3783389.0758107775 ; 2.0315170153499705E8 ; 7.467673989657718E8 ; 3.53357024190028E10 ; 0.0
184 ; 3777864.859425156 ; 2.0316385937324542E8 ; 7.505507880415826E8 ; 3.5538854120537796E10 ; 0.0
185 ; 3771413.1120367493 ; 2.031759713424413E8 ; 7.543286529010078E8 ; 3.574201797991104E10 ; 0.0
186 ; 3764515.8251069393 ; 2.0318803710310158E8 ; 7.581000660130445E8 ; 3.594519395125348E10 ; 0.0
187 ; 3756133.5548793175 ; 2.03200056318847E8 ; 7.618645818381515E8 ; 3.614838198835658E10 ; 0.0
188 ; 3753530.528287228 ; 2.0321202865635353E8 ; 7.656207153930308E8 ; 3.635158204467543E10 ; 0.0
189 ; 3748814.1982722967 ; 2.0322395378530526E8 ; 7.693742459213179E8 ; 3.655479407333179E10 ; 0.0
190 ; 3739534.0368005647 ; 2.0323583137834895E8 ; 7.731230601195903E8 ; 3.6758018027117096E10 ; 0.0
191 ; 3739737.036511071 ; 2.0324766111104986E8 ; 7.768625941563909E8 ; 3.6961253858495445E10 ; 0.0
192 ; 3732546.033207931 ; 2.032594426618491E8 ; 7.80602331192902E8 ; 3.71645015196065E10 ; 0.0
193 ; 3726288.8525859574 ; 2.0327117571202248E8 ; 7.843348772261099E8 ; 3.736776096226835E10 ; 0.0
194 ; 3721011.2141851694 ; 2.0328285994564033E8 ; 7.880611660786958E8 ; 3.757103213798037E10 ; 0.0
195 ; 3719524.3455163864 ; 2.032944950495289E8 ; 7.917821772928809E8 ; 3.777431499792601E10 ; 0.0
196 ; 3711809.6243350883 ; 2.0330608071323293E8 ; 7.955017016383973E8 ; 3.797760949297554E10 ; 0.0
197 ; 3703550.5113048893 ; 2.0331761662897927E8 ; 7.992135112627324E8 ; 3.8180915573688774E10 ; 0.0
198 ; 3701736.1796745146 ; 2.033291024916418E8 ; 8.029170617740372E8 ; 3.838423319031776E10 ; 0.0
199 ; 3697869.632462045 ; 2.0334053799870744E8 ; 8.066187979537117E8 ; 3.8587562292809395E10 ; 0.0
200 ; 3691092.347635455 ; 1.9484949366998798E8 ; 8.103166675861738E8 ; 3.8790902830808105E10 ; 0.0
