CSV File for the City 6 on Day 58
1 - Minute m 
2 - Power Consumed at minute m 
3 - Power Produced at minute m 
4 - Energy Consumed since the beginning of the day 
5 - Energy Produced since the beginning of the day 
6 - Energy Lost since the beginning of the day on lines starting from the city
 
0 ; 1.1121785232873993E7 ; 1.0584253782456574E8 ; 0.0 ; 0.0 ; 0.0
1 ; 1.1132840299832787E7 ; 1.0599311024738556E8 ; 1.1121785232873993E7 ; 1.0584253782456574E8 ; 0.0
2 ; 1.1141722078311197E7 ; 1.064527007889274E8 ; 2.2254625532706782E7 ; 2.118356480719513E8 ; 0.0
3 ; 1.1160847311947826E7 ; 1.0722131537856346E8 ; 3.339634761101798E7 ; 3.182883488608787E8 ; 0.0
4 ; 1.1177085603939813E7 ; 1.0829895937286663E8 ; 4.455719492296581E7 ; 4.2550966423944217E8 ; 0.0
5 ; 1.1195127249304364E7 ; 1.0968563751182896E8 ; 5.5734280526905626E7 ; 5.338086236123088E8 ; 0.0
6 ; 1.1222224047552327E7 ; 1.113813538789849E8 ; 6.692940777620999E7 ; 6.434942611241378E8 ; 0.0
7 ; 1.1256835181585424E7 ; 1.1338611186619592E8 ; 7.815163182376231E7 ; 7.548756150031227E8 ; 0.0
8 ; 1.1315770765160518E7 ; 1.1569991414379025E8 ; 8.940846700534773E7 ; 8.682617268693186E8 ; 0.0
9 ; 1.13898255620207E7 ; 1.1832276263666356E8 ; 1.0072423777050824E8 ; 9.839616410131088E8 ; 0.0
10 ; 1.1514866121759493E7 ; 1.2125465850683612E8 ; 1.1211406333252895E8 ; 1.1022844036497724E9 ; 0.0
11 ; 1.171084843893173E7 ; 1.2449560214283642E8 ; 1.2362892945428844E8 ; 1.2235390621566086E9 ; 0.0
12 ; 1.2028908420207866E7 ; 1.2804559315613595E8 ; 1.3533977789322016E8 ; 1.348034664299445E9 ; 0.0
13 ; 1.2334207059591541E7 ; 1.3190463038471442E8 ; 1.47368686313428E8 ; 1.476080257455581E9 ; 0.0
14 ; 1.2368381137140611E7 ; 1.3607271190367627E8 ; 1.5970289337301955E8 ; 1.6079848878402953E9 ; 0.0
15 ; 1.2380596566550124E7 ; 1.4054983504269314E8 ; 1.7207127451016015E8 ; 1.7440575997439716E9 ; 0.0
16 ; 1.239963769397473E7 ; 1.4533599640990368E8 ; 1.8445187107671028E8 ; 1.8846074347866647E9 ; 0.0
17 ; 1.2411613857026631E7 ; 1.5043119192177334E8 ; 1.9685150877068502E8 ; 2.0299434311965685E9 ; 0.0
18 ; 1.2425628558458481E7 ; 1.5583541683831012E8 ; 2.0926312262771165E8 ; 2.180374623118342E9 ; 0.0
19 ; 1.2442441370860765E7 ; 1.615486658029411E8 ; 2.2168875118617013E8 ; 2.336210039956652E9 ; 0.0
20 ; 1.2453955460116545E7 ; 1.675709328862941E8 ; 2.341311925570309E8 ; 2.4977587057595935E9 ; 0.0
21 ; 1.2468918952817358E7 ; 1.7390221163308594E8 ; 2.4658514801714742E8 ; 2.6653296386458874E9 ; 0.0
22 ; 1.248444888183758E7 ; 1.8054249511130798E8 ; 2.5905406696996477E8 ; 2.839231850278973E9 ; 0.0
23 ; 1.2497723859948054E7 ; 1.8749177596290427E8 ; 2.7153851585180235E8 ; 3.019774345390281E9 ; 0.0
24 ; 1.251119517263578E7 ; 1.9475004645516896E8 ; 2.840362397117504E8 ; 3.2072661213531857E9 ; 0.0
25 ; 1.252964966336749E7 ; 2.0100533943032044E8 ; 2.965474348843862E8 ; 3.4020161678083544E9 ; 0.0
26 ; 1.254001798823299E7 ; 2.0101119439311478E8 ; 3.090770845477537E8 ; 3.6030215072386746E9 ; 0.0
27 ; 1.2554635569442209E7 ; 2.0101737208520153E8 ; 3.2161710253598666E8 ; 3.804032701631789E9 ; 0.0
28 ; 1.256458941419591E7 ; 2.010238637795703E8 ; 3.341717381054289E8 ; 4.005050073716991E9 ; 0.0
29 ; 1.2581517282711852E7 ; 2.0103066061926165E8 ; 3.4673632751962477E8 ; 4.206073937496561E9 ; 0.0
30 ; 1.2593759938005567E7 ; 2.0103775366027844E8 ; 3.5931784480233663E8 ; 4.407104598115823E9 ; 0.0
31 ; 1.2603345304128239E7 ; 2.010451339116795E8 ; 3.719116047403422E8 ; 4.608142351776101E9 ; 0.0
32 ; 1.2617406324911052E7 ; 2.01052792372668E8 ; 3.845149500444704E8 ; 4.80918748568778E9 ; 0.0
33 ; 1.2636494375004496E7 ; 2.0106072006656095E8 ; 3.971323563693815E8 ; 5.010240278060449E9 ; 0.0
34 ; 1.2645057045479888E7 ; 2.0106890807158872E8 ; 4.0976885074438596E8 ; 5.211300998127009E9 ; 0.0
35 ; 1.2654828884936037E7 ; 2.0107734754853117E8 ; 4.2241390778986585E8 ; 5.412369906198598E9 ; 0.0
36 ; 1.2666727126504147E7 ; 2.0108602976524508E8 ; 4.350687366748019E8 ; 5.613447253747129E9 ; 0.0
37 ; 1.2676459837740745E7 ; 2.0109494611817724E8 ; 4.47735463801306E8 ; 5.814533283512375E9 ; 0.0
38 ; 1.2684884519214174E7 ; 2.0110408815099016E8 ; 4.604119236390467E8 ; 6.015628229630552E9 ; 0.0
39 ; 1.2697347709682034E7 ; 2.011134475704524E8 ; 4.730968081582609E8 ; 6.216732317781543E9 ; 0.0
40 ; 1.2709192707135294E7 ; 2.0112301625976226E8 ; 4.857941558679429E8 ; 6.417845765351995E9 ; 0.0
41 ; 1.2716049603096189E7 ; 2.0113278628948724E8 ; 4.9850334857507825E8 ; 6.618968781611757E9 ; 0.0
42 ; 1.2723539206371296E7 ; 2.0114274992630678E8 ; 5.1121939817817444E8 ; 6.820101567901244E9 ; 0.0
43 ; 1.27340951293855E7 ; 2.0115289963974884E8 ; 5.2394293738454574E8 ; 7.021244317827551E9 ; 0.0
44 ; 1.2740074444180278E7 ; 2.0116322810710925E8 ; 5.366770325139312E8 ; 7.222397217467299E9 ; 0.0
45 ; 1.2749781134208078E7 ; 2.0117372821673802E8 ; 5.494171069581115E8 ; 7.423560445574409E9 ; 0.0
46 ; 1.2752529565043172E7 ; 2.0118439306987002E8 ; 5.621668880923196E8 ; 7.624734173791146E9 ; 0.0
47 ; 1.2759200143462041E7 ; 2.011952159811688E8 ; 5.749194176573628E8 ; 7.825918566861016E9 ; 0.0
48 ; 1.276261771823296E7 ; 2.0120619047814265E8 ; 5.876786178008249E8 ; 8.027113782842185E9 ; 0.0
49 ; 1.2771384278886352E7 ; 2.012173102995808E8 ; 6.004412355190579E8 ; 8.228319973320328E9 ; 0.0
50 ; 1.2773806069338499E7 ; 2.0122856939314714E8 ; 6.132126197979442E8 ; 8.429537283619908E9 ; 0.0
51 ; 1.2776284275037203E7 ; 2.0123996191225678E8 ; 6.259864258672826E8 ; 8.630765853013056E9 ; 0.0
52 ; 1.2779236272851754E7 ; 2.012514822123507E8 ; 6.387627101423198E8 ; 8.832005814925312E9 ; 0.0
53 ; 1.2783077161858616E7 ; 2.012631248466712E8 ; 6.515419464151715E8 ; 9.033257297137663E9 ; 0.0
54 ; 1.2785595579140602E7 ; 2.012748845616324E8 ; 6.643250235770301E8 ; 9.234520421984335E9 ; 0.0
55 ; 1.2790321348541265E7 ; 2.0128675629186794E8 ; 6.771106191561706E8 ; 9.435795306545967E9 ; 0.0
56 ; 1.27912066029149E7 ; 2.0129873515503058E8 ; 6.899009405047119E8 ; 9.637082062837835E9 ; 0.0
57 ; 1.2793406846547464E7 ; 2.0131081644640842E8 ; 7.026921471076268E8 ; 9.838380797992867E9 ; 0.0
58 ; 1.2798180652440634E7 ; 2.0132299563341507E8 ; 7.154855539541743E8 ; 1.0039691614439276E10 ; 0.0
59 ; 1.2801378196102606E7 ; 2.013352683500034E8 ; 7.28283734606615E8 ; 1.0241014610072691E10 ; 0.0
60 ; 1.2804470761601195E7 ; 2.013476303910458E8 ; 7.410851128027176E8 ; 1.0442349878422695E10 ; 0.0
61 ; 1.2804487223761654E7 ; 2.013600777067186E8 ; 7.538895835643188E8 ; 1.0643697508813742E10 ; 0.0
62 ; 1.280716052146909E7 ; 2.0137260639692068E8 ; 7.666940707880805E8 ; 1.084505758652046E10 ; 0.0
63 ; 1.2812766134185972E7 ; 2.013852127057548E8 ; 7.795012313095496E8 ; 1.1046430192917381E10 ; 0.0
64 ; 1.2810827327850722E7 ; 2.0139789301609185E8 ; 7.923139974437356E8 ; 1.1247815405623137E10 ; 0.0
65 ; 1.2812316824494218E7 ; 2.0141064384423795E8 ; 8.051248247715863E8 ; 1.1449213298639229E10 ; 0.0
66 ; 1.2815960070165498E7 ; 2.014234618347183E8 ; 8.179371415960805E8 ; 1.1650623942483467E10 ; 0.0
67 ; 1.2819192936804902E7 ; 2.0143634375518984E8 ; 8.30753101666246E8 ; 1.1852047404318186E10 ; 0.0
68 ; 1.2819615773245726E7 ; 2.0144928649149248E8 ; 8.43572294603051E8 ; 1.2053483748073376E10 ; 0.0
69 ; 1.2821312313383466E7 ; 2.014622870428451E8 ; 8.563919103762966E8 ; 1.2254933034564869E10 ; 0.0
70 ; 1.2821819933591746E7 ; 2.014753425171919E8 ; 8.692132226896801E8 ; 1.2456395321607714E10 ; 0.0
71 ; 1.2822905777186668E7 ; 2.014884501267018E8 ; 8.820350426232718E8 ; 1.2657870664124905E10 ; 0.0
72 ; 1.2824878802113699E7 ; 2.0150160718342343E8 ; 8.948579484004585E8 ; 1.2859359114251606E10 ; 0.0
73 ; 1.2825385959348701E7 ; 2.0151481109509546E8 ; 9.076828272025721E8 ; 1.306086072143503E10 ; 0.0
74 ; 1.2823941892718613E7 ; 2.0152805936111233E8 ; 9.205082131619208E8 ; 1.3262375532530125E10 ; 0.0
75 ; 1.2823551954149563E7 ; 2.0154134956864375E8 ; 9.333321550546393E8 ; 1.3463903591891237E10 ; 0.0
76 ; 1.2824968573370185E7 ; 2.0155467938890603E8 ; 9.46155707008789E8 ; 1.366544494145988E10 ; 0.0
77 ; 1.2824307958733965E7 ; 2.0156804657358232E8 ; 9.589806755821592E8 ; 1.3866999620848787E10 ; 0.0
78 ; 1.2823130994040623E7 ; 2.015814489513888E8 ; 9.718049835408931E8 ; 1.4068567667422369E10 ; 0.0
79 ; 1.281930130814217E7 ; 2.0159488442478308E8 ; 9.846281145349337E8 ; 1.4270149116373758E10 ; 0.0
80 ; 1.2817065696184486E7 ; 2.016083509668109E8 ; 9.974474158430759E8 ; 1.4471744000798542E10 ; 0.0
81 ; 1.2811988536928061E7 ; 2.0162184661808732E8 ; 1.0102644815392604E9 ; 1.4673352351765352E10 ; 0.0
82 ; 1.2807122467293061E7 ; 2.0163536948390782E8 ; 1.0230764700761884E9 ; 1.487497419838344E10 ; 0.0
83 ; 1.2802776326235814E7 ; 2.016489177314849E8 ; 1.0358835925434815E9 ; 1.5076609567867348E10 ; 0.0
84 ; 1.2803151408123598E7 ; 2.0166248958730626E8 ; 1.0486863688697172E9 ; 1.5278258485598833E10 ; 0.0
85 ; 1.2797258459248738E7 ; 2.016760833346094E8 ; 1.0614895202778409E9 ; 1.547992097518614E10 ; 0.0
86 ; 1.279153973388986E7 ; 2.0168969731096876E8 ; 1.0742867787370896E9 ; 1.568159705852075E10 ; 0.0
87 ; 1.2790595782608759E7 ; 2.0170332990599066E8 ; 1.0870783184709795E9 ; 1.5883286755831718E10 ; 0.0
88 ; 1.278378940345468E7 ; 2.0171697955911186E8 ; 1.0998689142535882E9 ; 1.6084990085737709E10 ; 0.0
89 ; 1.278028753892607E7 ; 2.017306447574974E8 ; 1.112652703657043E9 ; 1.6286707065296822E10 ; 0.0
90 ; 1.277538914234388E7 ; 2.0174432403403372E8 ; 1.125432991195969E9 ; 1.648843771005432E10 ; 0.0
91 ; 1.2766620188250324E7 ; 2.017580159654125E8 ; 1.138208380338313E9 ; 1.6690182034088352E10 ; 0.0
92 ; 1.276206064738004E7 ; 2.0177171917030203E8 ; 1.1509750005265634E9 ; 1.6891940050053764E10 ; 0.0
93 ; 1.2757997884945435E7 ; 2.0178543230760154E8 ; 1.1637370611739435E9 ; 1.7093711769224066E10 ; 0.0
94 ; 1.2754306183612878E7 ; 2.0179915407477522E8 ; 1.176495059058889E9 ; 1.7295497201531666E10 ; 0.0
95 ; 1.2744532292475523E7 ; 2.018128832062622E8 ; 1.1892493652425017E9 ; 1.749729635560644E10 ; 0.0
96 ; 1.2743018689039001E7 ; 2.018266184719591E8 ; 1.2019938975349772E9 ; 1.7699109238812702E10 ; 0.0
97 ; 1.2736097049360199E7 ; 2.0184035867577174E8 ; 1.2147369162240162E9 ; 1.790093585728466E10 ; 0.0
98 ; 1.2734052430286778E7 ; 2.0185410265423295E8 ; 1.2274730132733765E9 ; 1.8102776215960434E10 ; 0.0
99 ; 1.2724055734952256E7 ; 2.0186784927518314E8 ; 1.2402070657036633E9 ; 1.8304630318614666E10 ; 0.0
100 ; 1.2720913265936816E7 ; 2.0188159743651125E8 ; 1.2529311214386156E9 ; 1.850649816788985E10 ; 0.0
101 ; 1.271290653569352E7 ; 2.0189534606495258E8 ; 1.2656520347045524E9 ; 1.8708379765326363E10 ; 0.0
102 ; 1.2704712210170122E7 ; 2.019090941149413E8 ; 1.2783649412402458E9 ; 1.8910275111391315E10 ; 0.0
103 ; 1.2701547676425068E7 ; 2.0192284056751493E8 ; 1.2910696534504158E9 ; 1.9112184205506256E10 ; 0.0
104 ; 1.2694837754607752E7 ; 2.0193658442926833E8 ; 1.3037712011268408E9 ; 1.9314107046073772E10 ; 0.0
105 ; 1.2686261007393336E7 ; 2.0195032473135477E8 ; 1.3164660388814485E9 ; 1.951604363050304E10 ; 0.0
106 ; 1.2678082944346368E7 ; 2.0196406052853206E8 ; 1.3291522998888419E9 ; 1.9717993955234394E10 ; 0.0
107 ; 1.267436847345661E7 ; 2.0197779089825132E8 ; 1.3418303828331883E9 ; 1.9919958015762928E10 ; 0.0
108 ; 1.2667834217332102E7 ; 2.0199151493978667E8 ; 1.354504751306645E9 ; 2.012193580666118E10 ; 0.0
109 ; 1.265921476173136E7 ; 2.0200523177340367E8 ; 1.367172585523977E9 ; 2.0323927321600964E10 ; 0.0
110 ; 1.265220790630641E7 ; 2.0201894053956476E8 ; 1.3798318002857084E9 ; 2.0525932553374367E10 ; 0.0
111 ; 1.2643273775626013E7 ; 2.0203264039816988E8 ; 1.392484008192015E9 ; 2.0727951493913933E10 ; 0.0
112 ; 1.2637320602624828E7 ; 2.0204633052783078E8 ; 1.4051272819676409E9 ; 2.0929984134312103E10 ; 0.0
113 ; 1.2629241770567268E7 ; 2.020600101251772E8 ; 1.4177646025702658E9 ; 2.1132030464839935E10 ; 0.0
114 ; 1.2620852693014814E7 ; 2.0207367840419352E8 ; 1.430393844340833E9 ; 2.133409047496511E10 ; 0.0
115 ; 1.2615267823342748E7 ; 2.020873345955844E8 ; 1.4430146970338478E9 ; 2.1536164153369305E10 ; 0.0
116 ; 1.2604318048355633E7 ; 2.0210097794616818E8 ; 1.4556299648571906E9 ; 2.173825148796489E10 ; 0.0
117 ; 1.2597598298423007E7 ; 2.021146077182965E8 ; 1.4682342829055462E9 ; 2.1940352465911057E10 ; 0.0
118 ; 1.2588240929965302E7 ; 2.0212822318929917E8 ; 1.4808318812039692E9 ; 2.2142467073629353E10 ; 0.0
119 ; 1.257874213035259E7 ; 2.0214182365095276E8 ; 1.4934201221339345E9 ; 2.2344595296818653E10 ; 0.0
120 ; 1.2572708562873594E7 ; 2.0215540840897223E8 ; 1.505998864264287E9 ; 2.2546737120469604E10 ; 0.0
121 ; 1.256447796427544E7 ; 2.0216897678252414E8 ; 1.5185715728271606E9 ; 2.274889252887858E10 ; 0.0
122 ; 1.2553048612173742E7 ; 2.0218252810376075E8 ; 1.531136050791436E9 ; 2.2951061505661102E10 ; 0.0
123 ; 1.2546522215920806E7 ; 2.021960617173737E8 ; 1.5436890994036098E9 ; 2.3153244033764862E10 ; 0.0
124 ; 1.2536557625490136E7 ; 2.0220957698016676E8 ; 1.5562356216195307E9 ; 2.3355440095482235E10 ; 0.0
125 ; 1.2526916499001661E7 ; 2.0222307326064637E8 ; 1.5687721792450209E9 ; 2.3557649672462402E10 ; 0.0
126 ; 1.251991453123066E7 ; 2.022365499386295E8 ; 1.5812990957440226E9 ; 2.375987274572305E10 ; 0.0
127 ; 1.2507607095956612E7 ; 2.022500064048678E8 ; 1.5938190102752533E9 ; 2.396210929566168E10 ; 0.0
128 ; 1.2499703474050956E7 ; 2.022634420606874E8 ; 1.6063266173712099E9 ; 2.4164359302066547E10 ; 0.0
129 ; 1.2490846161478337E7 ; 2.022768563176436E8 ; 1.6188263208452609E9 ; 2.4366622744127235E10 ; 0.0
130 ; 1.2480022708241334E7 ; 2.022902485971899E8 ; 1.6313171670067391E9 ; 2.4568899600444878E10 ; 0.0
131 ; 1.2466429973929038E7 ; 2.0230361833036035E8 ; 1.6437971897149804E9 ; 2.477118984904207E10 ; 0.0
132 ; 1.2452917386094239E7 ; 2.0231696495746535E8 ; 1.6562636196889093E9 ; 2.497349346737243E10 ; 0.0
133 ; 1.2436723639445817E7 ; 2.0233028792779937E8 ; 1.6687165370750036E9 ; 2.5175810432329895E10 ; 0.0
134 ; 1.2424557691665478E7 ; 2.0234358669936076E8 ; 1.6811532607144494E9 ; 2.5378140720257694E10 ; 0.0
135 ; 1.2411240523159077E7 ; 2.023568607385829E8 ; 1.6935778184061148E9 ; 2.5580484306957054E10 ; 0.0
136 ; 1.2396152926149018E7 ; 2.0237010952007604E8 ; 1.7059890589292738E9 ; 2.5782841167695637E10 ; 0.0
137 ; 1.2383248683480406E7 ; 2.0238333252637956E8 ; 1.718385211855423E9 ; 2.5985211277215714E10 ; 0.0
138 ; 1.236665024572966E7 ; 2.0239652924772406E8 ; 1.7307684605389035E9 ; 2.6187594609742092E10 ; 0.0
139 ; 1.235195244677161E7 ; 2.02409699181803E8 ; 1.7431351107846332E9 ; 2.6389991138989815E10 ; 0.0
140 ; 1.233738731693176E7 ; 2.024228418335532E8 ; 1.7554870632314048E9 ; 2.659240083817162E10 ; 0.0
141 ; 1.2322826860330844E7 ; 2.0243595671494415E8 ; 1.7678244505483365E9 ; 2.6794823680005173E10 ; 0.0
142 ; 1.2309782799304849E7 ; 2.024490433447756E8 ; 1.7801472774086673E9 ; 2.6997259636720116E10 ; 0.0
143 ; 1.2292976502002424E7 ; 2.024621012484827E8 ; 1.7924570602079723E9 ; 2.719970868006489E10 ; 0.0
144 ; 1.22763344706721E7 ; 2.024751299579494E8 ; 1.8047500367099748E9 ; 2.7402170781313374E10 ; 0.0
145 ; 1.2268396138236452E7 ; 2.0248812901132828E8 ; 1.817026371180647E9 ; 2.7604645911271324E10 ; 0.0
146 ; 1.2256608885246258E7 ; 2.0250109795286807E8 ; 1.8292947673188834E9 ; 2.7807134040282654E10 ; 0.0
147 ; 1.2248075705742268E7 ; 2.025140363327472E8 ; 1.8415513762041297E9 ; 2.8009635138235523E10 ; 0.0
148 ; 1.223713700540888E7 ; 2.025269437069142E8 ; 1.853799451909872E9 ; 2.821214917456827E10 ; 0.0
149 ; 1.2226882233421E7 ; 2.0253981963693377E8 ; 1.8660365889152808E9 ; 2.8414676118275185E10 ; 0.0
150 ; 1.2217379201846426E7 ; 2.0255266368983912E8 ; 1.878263471148702E9 ; 2.8617215937912117E10 ; 0.0
151 ; 1.2203394772964727E7 ; 2.0256547543798953E8 ; 1.8904808503505483E9 ; 2.8819768601601955E10 ; 0.0
152 ; 1.2195637169681469E7 ; 2.0257825445893347E8 ; 1.902684245123513E9 ; 2.9022334077039944E10 ; 0.0
153 ; 1.2185573889213663E7 ; 2.0259100033527675E8 ; 1.9148798822931945E9 ; 2.922491233149888E10 ; 0.0
154 ; 1.2174240378678232E7 ; 2.026037126545558E8 ; 1.927065456182408E9 ; 2.9427503331834156E10 ; 0.0
155 ; 1.2164289310672704E7 ; 2.0261639100911543E8 ; 1.9392396965610864E9 ; 2.9630107044488712E10 ; 0.0
156 ; 1.215077264718019E7 ; 2.0262903499599132E8 ; 1.9514039858717592E9 ; 2.983272343549783E10 ; 0.0
157 ; 1.2140480329207892E7 ; 2.026416442167967E8 ; 1.9635547585189393E9 ; 3.003535247049382E10 ; 0.0
158 ; 1.213010980581747E7 ; 2.026542182776133E8 ; 1.9756952388481472E9 ; 3.0237994114710617E10 ; 0.0
159 ; 1.2120373199825436E7 ; 2.0266675678888637E8 ; 1.9878253486539645E9 ; 3.044064833298823E10 ; 0.0
160 ; 1.2109673067893129E7 ; 2.026792593653233E8 ; 1.99994572185379E9 ; 3.064331508977712E10 ; 0.0
161 ; 1.2097525535630375E7 ; 2.026917256257962E8 ; 2.012055394921683E9 ; 3.084599434914244E10 ; 0.0
162 ; 1.2086936398937767E7 ; 2.0270415519324788E8 ; 2.0241529204573135E9 ; 3.1048686074768238E10 ; 0.0
163 ; 1.207333564151392E7 ; 2.0271654769460133E8 ; 2.0362398568562512E9 ; 3.1251390229961487E10 ; 0.0
164 ; 1.2062442222235862E7 ; 2.0272890276067224E8 ; 2.048313192497765E9 ; 3.145410677765609E10 ; 0.0
165 ; 1.205066217558856E7 ; 2.0274122002608502E8 ; 2.060375634720001E9 ; 3.1656835680416763E10 ; 0.0
166 ; 1.2038814515772916E7 ; 2.0275349912919152E8 ; 2.0724262968955896E9 ; 3.185957690044285E10 ; 0.0
167 ; 1.2026960913422272E7 ; 2.0276573971199277E8 ; 2.0844651114113624E9 ; 3.206233039957204E10 ; 0.0
168 ; 1.2016708783850217E7 ; 2.0277794142006353E8 ; 2.0964920723247848E9 ; 3.2265096139284035E10 ; 0.0
169 ; 1.2005970729800675E7 ; 2.0279010390247956E8 ; 2.108508781108635E9 ; 3.2467874080704098E10 ; 0.0
170 ; 1.1990973314097937E7 ; 2.0280222681174725E8 ; 2.1205147518384356E9 ; 3.267066418460658E10 ; 0.0
171 ; 1.198107556946791E7 ; 2.0281430980373606E8 ; 2.1325057251525335E9 ; 3.2873466411418327E10 ; 0.0
172 ; 1.197152744032387E7 ; 2.0282635253761297E8 ; 2.1444868007220016E9 ; 3.3076280721222065E10 ; 0.0
173 ; 1.1958348909896035E7 ; 2.028383546757796E8 ; 2.1564583281623254E9 ; 3.3279107073759678E10 ; 0.0
174 ; 1.1950425900705084E7 ; 2.0285031588381127E8 ; 2.1684166770722213E9 ; 3.348194542843546E10 ; 0.0
175 ; 1.1945188052746989E7 ; 2.0286223583039808E8 ; 2.180367102972926E9 ; 3.368479574431927E10 ; 0.0
176 ; 1.1939474480971117E7 ; 2.028741141872886E8 ; 2.192312291025673E9 ; 3.388765798014967E10 ; 0.0
177 ; 1.1929594293429464E7 ; 2.0288595062923482E8 ; 2.2042517655066442E9 ; 3.409053209433696E10 ; 0.0
178 ; 1.192180119110098E7 ; 2.0289774483393937E8 ; 2.2161813598000736E9 ; 3.4293418044966194E10 ; 0.0
179 ; 1.1916964680070844E7 ; 2.029094964820046E8 ; 2.2281031609911747E9 ; 3.449631578980013E10 ; 0.0
180 ; 1.1907862762829976E7 ; 2.0292120525688326E8 ; 2.2400201256712456E9 ; 3.4699225286282135E10 ; 0.0
181 ; 1.1900357557552196E7 ; 2.029328708448309E8 ; 2.2519279884340754E9 ; 3.490214649153902E10 ; 0.0
182 ; 1.1897552075321151E7 ; 2.0294449293485996E8 ; 2.2638283459916277E9 ; 3.510507936238385E10 ; 0.0
183 ; 1.1889723096840573E7 ; 2.0295607121869546E8 ; 2.275725898066949E9 ; 3.530802385531871E10 ; 0.0
184 ; 1.1878929980863051E7 ; 2.0296760539073196E8 ; 2.2876156211637893E9 ; 3.551097992653741E10 ; 0.0
185 ; 1.1872076129481481E7 ; 2.0297909514799237E8 ; 2.2994945511446524E9 ; 3.571394753192814E10 ; 0.0
186 ; 1.1868807974531343E7 ; 2.0299054019008777E8 ; 2.3113666272741337E9 ; 3.591692662707613E10 ; 0.0
187 ; 1.1857210520883013E7 ; 2.030019402191789E8 ; 2.323235435248665E9 ; 3.611991716726622E10 ; 0.0
188 ; 1.1849805652011588E7 ; 2.030132949399387E8 ; 2.335092645769548E9 ; 3.63229191074854E10 ; 0.0
189 ; 1.1845121823295055E7 ; 2.030246040595163E8 ; 2.3469424514215593E9 ; 3.652593240242534E10 ; 0.0
190 ; 1.1837574530794213E7 ; 2.030358672875022E8 ; 2.3587875732448545E9 ; 3.6728957006484856E10 ; 0.0
191 ; 1.1833751238793055E7 ; 2.030470843358944E8 ; 2.3706251477756486E9 ; 3.6931992873772354E10 ; 0.0
192 ; 1.1823623374304703E7 ; 2.030582549190661E8 ; 2.3824588990144415E9 ; 3.7135039958108246E10 ; 0.0
193 ; 1.1814488428322453E7 ; 2.030693787537339E8 ; 2.3942825223887463E9 ; 3.733809821302731E10 ; 0.0
194 ; 1.180788141607333E7 ; 2.0308045555892763E8 ; 2.4060970108170686E9 ; 3.7541167591781044E10 ; 0.0
195 ; 1.1800840848346295E7 ; 2.0309148505596086E8 ; 2.417904892233142E9 ; 3.774424804733997E10 ; 0.0
