CSV File for the City 1 on Day 346
1 - Minute m 
2 - Power Consumed at minute m 
3 - Power Produced at minute m 
4 - Energy Consumed since the beginning of the day 
5 - Energy Produced since the beginning of the day 
6 - Energy Lost since the beginning of the day on lines starting from the city
 
0 ; 1.6076516625445368E7 ; 1.0559447299919215E8 ; 0.0 ; 0.0 ; 0.0
1 ; 1.6090479779199801E7 ; 1.0574743279904854E8 ; 1.6076516625445368E7 ; 1.0559447299919215E8 ; 0.0
2 ; 1.6106478335099116E7 ; 1.06209173929755E8 ; 3.2166996404645167E7 ; 2.113419057982407E8 ; 0.0
3 ; 1.6127144531814802E7 ; 1.0697969767412567E8 ; 4.827347473974428E7 ; 3.175510797279957E8 ; 0.0
4 ; 1.615059866478297E7 ; 1.0805900517929381E8 ; 6.440061927155909E7 ; 4.2453077740212137E8 ; 0.0
5 ; 1.6179484129682088E7 ; 1.0944709745120543E8 ; 8.055121793634206E7 ; 5.325897825814152E8 ; 0.0
6 ; 1.6216521678251078E7 ; 1.1114397534971121E8 ; 9.673070206602415E7 ; 6.420368800326207E8 ; 0.0
7 ; 1.627164989675868E7 ; 1.1314963958431208E8 ; 1.1294722374427523E8 ; 7.531808553823318E8 ; 0.0
8 ; 1.6349603615265993E7 ; 1.1546409071060795E8 ; 1.292188736410339E8 ; 8.663304949666439E8 ; 0.0
9 ; 1.6468102641435873E7 ; 1.1808732912749022E8 ; 1.4556847725629988E8 ; 9.817945856772518E8 ; 0.0
10 ; 1.6651518473300068E7 ; 1.2101935507511252E8 ; 1.6203657989773574E8 ; 1.099881914804742E9 ; 0.0
11 ; 1.6933961111264493E7 ; 1.2426016863366309E8 ; 1.786880983710358E8 ; 1.2209012698798547E9 ; 0.0
12 ; 1.740042821813765E7 ; 1.2780976972295365E8 ; 1.956220594823003E8 ; 1.3451614385135179E9 ; 0.0
13 ; 1.7844465208957188E7 ; 1.3166815810283059E8 ; 2.1302248770043796E8 ; 1.4729712082364714E9 ; 0.0
14 ; 1.790191429347064E7 ; 1.3583533337440258E8 ; 2.3086695290939516E8 ; 1.604639366339302E9 ; 0.0
15 ; 1.791970673117365E7 ; 1.403112949820696E8 ; 2.487688672028658E8 ; 1.7404746997137046E9 ; 0.0
16 ; 1.794351232172232E7 ; 1.4509604221633086E8 ; 2.6668857393403947E8 ; 1.880785994695774E9 ; 0.0
17 ; 1.796147121372808E7 ; 1.5018957421733555E8 ; 2.846320862557618E8 ; 2.0258820369121048E9 ; 0.0
18 ; 1.7979813761881914E7 ; 1.5559188997913772E8 ; 3.025935574694899E8 ; 2.1760716111294403E9 ; 0.0
19 ; 1.800860850635718E7 ; 1.613029883546041E8 ; 3.2057337123137176E8 ; 2.331663501108578E9 ; 0.0
20 ; 1.80250374775656E7 ; 1.673228680609205E8 ; 3.3858197973772895E8 ; 2.4929664894631824E9 ; 0.0
21 ; 1.8045617321904015E7 ; 1.736515276856363E8 ; 3.5660701721529454E8 ; 2.660289357524103E9 ; 0.0
22 ; 1.806771212566694E7 ; 1.8028896569318116E8 ; 3.7465263453719854E8 ; 2.8339408852097397E9 ; 0.0
23 ; 1.809276025760028E7 ; 1.872351804317872E8 ; 3.9272034666286546E8 ; 3.0142298509029207E9 ; 0.0
24 ; 1.8109510423783768E7 ; 1.9449017014074647E8 ; 4.1081310692046577E8 ; 3.2014650313347077E9 ; 0.0
25 ; 1.813181195186507E7 ; 2.007419738561177E8 ; 4.2892261734424955E8 ; 3.3959552014754543E9 ; 0.0
26 ; 1.8151713979912203E7 ; 2.0074413745534047E8 ; 4.470544292961146E8 ; 3.596697175331572E9 ; 0.0
27 ; 1.8171130573430337E7 ; 2.007464281899856E8 ; 4.6520614327602684E8 ; 3.7974413127869124E9 ; 0.0
28 ; 1.8191097138580322E7 ; 2.0074884394043633E8 ; 4.833772738494572E8 ; 3.998187740976898E9 ; 0.0
29 ; 1.8209286188112516E7 ; 2.0075138251704288E8 ; 5.015683709880375E8 ; 4.1989365849173346E9 ; 0.0
30 ; 1.823535522006346E7 ; 2.0075404166797388E8 ; 5.1977765717615E8 ; 4.399687967434378E9 ; 0.0
31 ; 1.8251845235024173E7 ; 2.0075681908695614E8 ; 5.380130123962135E8 ; 4.600442009102351E9 ; 0.0
32 ; 1.8273498532485534E7 ; 2.0075971242085412E8 ; 5.562648576312377E8 ; 4.801198828189307E9 ; 0.0
33 ; 1.8292150750718173E7 ; 2.0076271927704552E8 ; 5.745383561637232E8 ; 5.001958540610162E9 ; 0.0
34 ; 1.8313468411769744E7 ; 2.0076583723055542E8 ; 5.928305069144413E8 ; 5.202721259887207E9 ; 0.0
35 ; 1.8328389960198216E7 ; 2.007690638309156E8 ; 6.111439753262111E8 ; 5.403487097117763E9 ; 0.0
36 ; 1.8346308544073105E7 ; 2.0077239660872236E8 ; 6.294723652864093E8 ; 5.604256160948678E9 ; 0.0
37 ; 1.8363059864125956E7 ; 2.0077583308187088E8 ; 6.478186738304824E8 ; 5.805028557557401E9 ; 0.0
38 ; 1.838016388678812E7 ; 2.0077937076144862E8 ; 6.661817336946083E8 ; 6.005804390639272E9 ; 0.0
39 ; 1.8394603752503566E7 ; 2.007830071572763E8 ; 6.845618975813965E8 ; 6.206583761400721E9 ; 0.0
40 ; 1.840501255068313E7 ; 2.00786739783088E8 ; 7.029565013339E8 ; 6.407366768557997E9 ; 0.0
41 ; 1.8422487516292054E7 ; 2.0079056616134694E8 ; 7.213615138845831E8 ; 6.6081535083410845E9 ; 0.0
42 ; 1.843128512077218E7 ; 2.0079448382769707E8 ; 7.397840014008752E8 ; 6.808944074502432E9 ; 0.0
43 ; 1.844575589321304E7 ; 2.0079849033505288E8 ; 7.582152865216473E8 ; 7.009738558330129E9 ; 0.0
44 ; 1.845501465765422E7 ; 2.008025832573344E8 ; 7.766610424148604E8 ; 7.210537048665181E9 ; 0.0
45 ; 1.8468150616634615E7 ; 2.008067601928552E8 ; 7.951160570725145E8 ; 7.411339631922516E9 ; 0.0
46 ; 1.848174028236079E7 ; 2.0081101876737416E8 ; 8.135842076891491E8 ; 7.612146392115371E9 ; 0.0
47 ; 1.848931493242414E7 ; 2.0081535663682342E8 ; 8.320659479715099E8 ; 7.812957410882745E9 ; 0.0
48 ; 1.8495827025683634E7 ; 2.0081977148972613E8 ; 8.505552629039341E8 ; 8.013772767519568E9 ; 0.0
49 ; 1.8505066253141537E7 ; 2.0082426104931858E8 ; 8.690510899296178E8 ; 8.2145925390092945E9 ; 0.0
50 ; 1.8509284944028664E7 ; 2.0082882307539243E8 ; 8.875561561827593E8 ; 8.415416800058613E9 ; 0.0
51 ; 1.85177785407959E7 ; 2.0083345536587286E8 ; 9.060654411267879E8 ; 8.616245623134005E9 ; 0.0
52 ; 1.8522153686850704E7 ; 2.008381557581492E8 ; 9.245832196675838E8 ; 8.817079078499878E9 ; 0.0
53 ; 1.852969618770564E7 ; 2.008429221301741E8 ; 9.431053733544345E8 ; 9.017917234258028E9 ; 0.0
54 ; 1.8528816251797475E7 ; 2.0084775240134785E8 ; 9.616350695421401E8 ; 9.218760156388203E9 ; 0.0
55 ; 1.8539721123082444E7 ; 2.0085264453320363E8 ; 9.801638857939376E8 ; 9.41960790878955E9 ; 0.0
56 ; 1.8544629156485833E7 ; 2.0085759652990958E8 ; 9.9870360691702E8 ; 9.620460553322754E9 ; 0.0
57 ; 1.85467305935565E7 ; 2.0086260643860275E8 ; 1.0172482360735058E9 ; 9.821318149852663E9 ; 0.0
58 ; 1.8554116711691946E7 ; 2.008676723495695E8 ; 1.0357949666670623E9 ; 1.0022180756291265E10 ; 0.0
59 ; 1.8557186879588015E7 ; 2.0087279239628673E8 ; 1.0543490833787543E9 ; 1.0223048428640835E10 ; 0.0
60 ; 1.856058269224206E7 ; 2.0087796475533676E8 ; 1.0729062702583423E9 ; 1.042392122103712E10 ; 0.0
61 ; 1.856580697861648E7 ; 2.00883187646209E8 ; 1.0914668529505844E9 ; 1.0624799185792458E10 ; 0.0
62 ; 1.857200805917787E7 ; 2.0088845933100024E8 ; 1.110032659929201E9 ; 1.0825682373438667E10 ; 0.0
63 ; 1.8574441680779234E7 ; 2.0089377811402434E8 ; 1.1286046679883788E9 ; 1.1026570832769667E10 ; 0.0
64 ; 1.858015727455903E7 ; 2.0089914234134266E8 ; 1.147179109669158E9 ; 1.1227464610883692E10 ; 0.0
65 ; 1.8584542772993304E7 ; 2.00904550400224E8 ; 1.165759266943717E9 ; 1.1428363753225035E10 ; 0.0
66 ; 1.85848533037834E7 ; 2.0091000071854407E8 ; 1.1843438097167103E9 ; 1.162926830362526E10 ; 0.0
67 ; 1.859225665407385E7 ; 2.0091549176413202E8 ; 1.2029286630204937E9 ; 1.1830178304343803E10 ; 0.0
68 ; 1.8595859650646728E7 ; 2.0092102204407245E8 ; 1.2215209196745677E9 ; 1.2031093796107935E10 ; 0.0
69 ; 1.8596937905296147E7 ; 2.0092659010396942E8 ; 1.2401167793252144E9 ; 1.2232014818152008E10 ; 0.0
70 ; 1.8603453914178208E7 ; 2.0093219452717948E8 ; 1.2587137172305105E9 ; 1.2432941408255978E10 ; 0.0
71 ; 1.8601373879342772E7 ; 2.0093783393401918E8 ; 1.2773171711446886E9 ; 1.2633873602783157E10 ; 0.0
72 ; 1.860386555658298E7 ; 2.009435069809525E8 ; 1.2959185450240314E9 ; 1.2834811436717176E10 ; 0.0
73 ; 1.8605422723493315E7 ; 2.0094921235976356E8 ; 1.3145224105806143E9 ; 1.303575494369813E10 ; 0.0
74 ; 1.861111117359904E7 ; 2.0095494879671812E8 ; 1.3331278333041077E9 ; 1.3236704156057894E10 ; 0.0
75 ; 1.861068138352837E7 ; 2.0096071505171865E8 ; 1.3517389444777067E9 ; 1.3437659104854612E10 ; 0.0
76 ; 1.8613998378911357E7 ; 2.00966509917456E8 ; 1.3703496258612351E9 ; 1.363861981990633E10 ; 0.0
77 ; 1.8616412536527332E7 ; 2.009723322185609E8 ; 1.3889636242401464E9 ; 1.3839586329823786E10 ; 0.0
78 ; 1.860906253898032E7 ; 2.0097818081075832E8 ; 1.4075800367766738E9 ; 1.4040558662042347E10 ; 0.0
79 ; 1.860618655824312E7 ; 2.0098405458002678E8 ; 1.426189099315654E9 ; 1.4241536842853106E10 ; 0.0
80 ; 1.8604681479222182E7 ; 2.00989952441765E8 ; 1.444795285873897E9 ; 1.4442520897433132E10 ; 0.0
81 ; 1.859669780193266E7 ; 2.0099587333996794E8 ; 1.4633999673531194E9 ; 1.4643510849874897E10 ; 0.0
82 ; 1.8592574036504656E7 ; 2.0100181624641326E8 ; 1.481996665155052E9 ; 1.4844506723214865E10 ; 0.0
83 ; 1.8586650404266685E7 ; 2.0100778015986043E8 ; 1.5005892391915567E9 ; 1.5045508539461279E10 ; 0.0
84 ; 1.858280107020616E7 ; 2.01013764105263E8 ; 1.5191758895958233E9 ; 1.524651631962114E10 ; 0.0
85 ; 1.8580272839740444E7 ; 2.010197671329955E8 ; 1.5377586906660295E9 ; 1.5447530083726402E10 ; 0.0
86 ; 1.8574383095367085E7 ; 2.0102578831809542E8 ; 1.55633896350577E9 ; 1.5648549850859398E10 ; 0.0
87 ; 1.85692906825813E7 ; 2.0103182675952137E8 ; 1.5749133466011372E9 ; 1.5849575639177494E10 ; 0.0
88 ; 1.856217483912247E7 ; 2.0103788157942757E8 ; 1.5934826372837183E9 ; 1.6050607465937016E10 ; 0.0
89 ; 1.855519170781141E7 ; 2.0104395192245546E8 ; 1.612044812122841E9 ; 1.6251645347516443E10 ; 0.0
90 ; 1.8553362731630854E7 ; 2.0105003695504245E8 ; 1.6306000038306522E9 ; 1.6452689299438898E10 ; 0.0
91 ; 1.85478571436341E7 ; 2.0105613586474815E8 ; 1.649153366562283E9 ; 1.665373933639394E10 ; 0.0
92 ; 1.8537998490582947E7 ; 2.0106224785959816E8 ; 1.6677012237059171E9 ; 1.6854795472258688E10 ; 0.0
93 ; 1.853755554430353E7 ; 2.0106837216744566E8 ; 1.6862392221965E9 ; 1.7055857720118286E10 ; 0.0
94 ; 1.852781867044918E7 ; 2.010745080353505E8 ; 1.7047767777408035E9 ; 1.7256926092285732E10 ; 0.0
95 ; 1.851905249764474E7 ; 2.0108065472897574E8 ; 1.7233045964112527E9 ; 1.7458000600321083E10 ; 0.0
96 ; 1.851553800198268E7 ; 2.0108681153200185E8 ; 1.7418236489088974E9 ; 1.765908125505006E10 ; 0.0
97 ; 1.8505341251287345E7 ; 2.010929777455579E8 ; 1.76033918691088E9 ; 1.786016806658206E10 ; 0.0
98 ; 1.849893082508071E7 ; 2.0109915268766993E8 ; 1.7788445281621675E9 ; 1.806126104432762E10 ; 0.0
99 ; 1.8492587689180348E7 ; 2.0110533569272602E8 ; 1.7973434589872482E9 ; 1.8262360197015293E10 ; 0.0
100 ; 1.84839046717102E7 ; 2.0111152611095783E8 ; 1.8158360466764286E9 ; 1.846346553270802E10 ; 0.0
101 ; 1.848038087368467E7 ; 2.0111772330793834E8 ; 1.8343199513481388E9 ; 1.8664577058818977E10 ; 0.0
102 ; 1.846626453590538E7 ; 2.0112392666409546E8 ; 1.8528003322218235E9 ; 1.8865694782126915E10 ; 0.0
103 ; 1.8464053346879993E7 ; 2.0113013557424116E8 ; 1.8712665967577288E9 ; 1.906681870879101E10 ; 0.0
104 ; 1.8455748977246366E7 ; 2.0113634944711578E8 ; 1.8897306501046088E9 ; 1.9267948844365253E10 ; 0.0
105 ; 1.8447468409447554E7 ; 2.0114256770494708E8 ; 1.908186399081855E9 ; 1.946908519381237E10 ; 0.0
106 ; 1.8437554543482848E7 ; 2.0114878978302383E8 ; 1.9266338674913027E9 ; 1.967022776151732E10 ; 0.0
107 ; 1.8429264846276723E7 ; 2.0115501512928337E8 ; 1.9450714220347855E9 ; 1.9871376551300343E10 ; 0.0
108 ; 1.8420772142238487E7 ; 2.0116124320391294E8 ; 1.9635006868810623E9 ; 2.0072531566429626E10 ; 0.0
109 ; 1.841141779678916E7 ; 2.011674734789643E8 ; 1.9819214590233006E9 ; 2.027369280963354E10 ; 0.0
110 ; 1.8399853682356223E7 ; 2.011737054379811E8 ; 2.0003328768200898E9 ; 2.0474860283112507E10 ; 0.0
111 ; 1.8393389259174775E7 ; 2.0117993857563925E8 ; 2.018732730502446E9 ; 2.0676033988550488E10 ; 0.0
112 ; 1.8384928275401052E7 ; 2.0118617239739895E8 ; 2.0371261197616208E9 ; 2.0877213927126125E10 ; 0.0
113 ; 1.8371337728696782E7 ; 2.011924064191688E8 ; 2.0555110480370219E9 ; 2.1078400099523525E10 ; 0.0
114 ; 1.836224345250103E7 ; 2.0119864016698152E8 ; 2.0738823857657187E9 ; 2.1279592505942696E10 ; 0.0
115 ; 1.8348989700526077E7 ; 2.0120487317668033E8 ; 2.0922446292182198E9 ; 2.1480791146109676E10 ; 0.0
116 ; 1.8344876569837354E7 ; 2.012111049936165E8 ; 2.1105936189187458E9 ; 2.1681996019286358E10 ; 0.0
117 ; 1.8327736767702676E7 ; 2.01217335172357E8 ; 2.128938495488583E9 ; 2.1883207124279976E10 ; 0.0
118 ; 1.8318299949250497E7 ; 2.0122356327640226E8 ; 2.1472662322562857E9 ; 2.208442445945233E10 ; 0.0
119 ; 1.831069723027859E7 ; 2.0122978887791392E8 ; 2.1655845322055364E9 ; 2.2285648022728733E10 ; 0.0
120 ; 1.830133432589668E7 ; 2.0123601155745155E8 ; 2.183895229435815E9 ; 2.2486877811606647E10 ; 0.0
121 ; 1.8291789956327863E7 ; 2.0124223090371865E8 ; 2.2021965637617116E9 ; 2.26881138231641E10 ; 0.0
122 ; 1.8275023112378437E7 ; 2.012484465133176E8 ; 2.2204883537180395E9 ; 2.2889356054067818E10 ; 0.0
123 ; 1.827166051953489E7 ; 2.012546579905129E8 ; 2.238763376830418E9 ; 2.3090604500581135E10 ; 0.0
124 ; 1.825380549840267E7 ; 2.0126086494700247E8 ; 2.257035037349953E9 ; 2.3291859158571648E10 ; 0.0
125 ; 1.8240202745283876E7 ; 2.012670670016971E8 ; 2.275288842848356E9 ; 2.349312002351865E10 ; 0.0
126 ; 1.82285868986729E7 ; 2.0127326378050753E8 ; 2.29352904559364E9 ; 2.3694387090520348E10 ; 0.0
127 ; 1.8218165946352623E7 ; 2.012794549161387E8 ; 2.311757632492313E9 ; 2.3895660354300854E10 ; 0.0
128 ; 1.8211047056461666E7 ; 2.0128564004789126E8 ; 2.3299757984386654E9 ; 2.409693980921699E10 ; 0.0
129 ; 1.819487360311879E7 ; 2.012918188214698E8 ; 2.348186845495127E9 ; 2.429822544926488E10 ; 0.0
130 ; 1.8180970767052203E7 ; 2.0129799088879794E8 ; 2.366381719098246E9 ; 2.449951726808635E10 ; 0.0
131 ; 1.815679765431206E7 ; 2.0130415590783948E8 ; 2.3845626898652983E9 ; 2.4700815258975147E10 ; 0.0
132 ; 1.813947169571091E7 ; 2.0131031354242605E8 ; 2.4027194875196104E9 ; 2.4902119414882988E10 ; 0.0
133 ; 1.8124846107839536E7 ; 2.0131646346209037E8 ; 2.4208589592153215E9 ; 2.5103429728425415E10 ; 0.0
134 ; 1.8110009825254016E7 ; 2.0132260534190547E8 ; 2.438983805323161E9 ; 2.5304746191887505E10 ; 0.0
135 ; 1.8087919374579117E7 ; 2.0132873886232936E8 ; 2.457093815148415E9 ; 2.550606879722941E10 ; 0.0
136 ; 1.806786134055094E7 ; 2.013348637090549E8 ; 2.475181734522994E9 ; 2.5707397536091736E10 ; 0.0
137 ; 1.8050764674697094E7 ; 2.0134097957286507E8 ; 2.493249595863545E9 ; 2.590873239980079E10 ; 0.0
138 ; 1.8030242085684426E7 ; 2.0134708614949292E8 ; 2.511300360538242E9 ; 2.6110073379373653E10 ; 0.0
139 ; 1.8014611488584816E7 ; 2.0135318313948652E8 ; 2.529330602623926E9 ; 2.6311420465523148E10 ; 0.0
140 ; 1.7996625439828917E7 ; 2.0135927024807835E8 ; 2.547345214112511E9 ; 2.6512773648662636E10 ; 0.0
141 ; 1.7973288324206527E7 ; 2.0136534718505907E8 ; 2.56534183955234E9 ; 2.6714132918910713E10 ; 0.0
142 ; 1.7949606545900792E7 ; 2.0137141366465592E8 ; 2.5833151278765464E9 ; 2.691549826609577E10 ; 0.0
143 ; 1.793009089687127E7 ; 2.0137746940541485E8 ; 2.601264734422447E9 ; 2.711686967976043E10 ; 0.0
144 ; 1.791450326910911E7 ; 2.0138351413008678E8 ; 2.6191948253193183E9 ; 2.7318247149165844E10 ; 0.0
145 ; 1.7904358130165778E7 ; 2.0138954756551778E8 ; 2.6371093285884275E9 ; 2.751963066329593E10 ; 0.0
146 ; 1.7885463503388036E7 ; 2.0139556944254276E8 ; 2.655013686718593E9 ; 2.7721020210861446E10 ; 0.0
147 ; 1.7873660363590542E7 ; 2.0140157949588302E8 ; 2.672899150221981E9 ; 2.792241578030399E10 ; 0.0
148 ; 1.7859390439850748E7 ; 2.014075774640468E8 ; 2.690772810585572E9 ; 2.8123817359799873E10 ; 0.0
149 ; 1.784704323110327E7 ; 2.0141356308923367E8 ; 2.7086322010254226E9 ; 2.832522493726392E10 ; 0.0
150 ; 1.7833734366827335E7 ; 2.0141953611724162E8 ; 2.726479244256526E9 ; 2.8526638500353153E10 ; 0.0
151 ; 1.78190653167645E7 ; 2.0142549629737765E8 ; 2.7443129786233535E9 ; 2.8728058036470394E10 ; 0.0
152 ; 1.7806191899441443E7 ; 2.0143144338237095E8 ; 2.762132043940118E9 ; 2.8929483532767773E10 ; 0.0
153 ; 1.7792384944947544E7 ; 2.014373771282894E8 ; 2.779938235839559E9 ; 2.9130914976150143E10 ; 0.0
154 ; 1.7779138682778552E7 ; 2.014432972944583E8 ; 2.797730620784507E9 ; 2.933235235327843E10 ; 0.0
155 ; 1.7764148056422506E7 ; 2.014492036433823E8 ; 2.815509759467285E9 ; 2.9533795650572887E10 ; 0.0
156 ; 1.7752033443172213E7 ; 2.0145509594066957E8 ; 2.833273907523708E9 ; 2.973524485421627E10 ; 0.0
157 ; 1.773567486462713E7 ; 2.014609739549584E8 ; 2.85102594096688E9 ; 2.993669995015694E10 ; 0.0
158 ; 1.771854748067897E7 ; 2.014668374578467E8 ; 2.868761615831507E9 ; 3.01381609241119E10 ; 0.0
159 ; 1.7706046717378967E7 ; 2.01472686223823E8 ; 2.8864801633121862E9 ; 3.0339627761569748E10 ; 0.0
160 ; 1.7688792604270093E7 ; 2.0147852003020057E8 ; 2.9041862100295653E9 ; 3.054110044779357E10 ; 0.0
161 ; 1.7682139918466274E7 ; 2.0148433865705293E8 ; 2.9218750026338353E9 ; 3.0742578967823772E10 ; 0.0
162 ; 1.7664714585290663E7 ; 2.0149014188715196E8 ; 2.9395571425523014E9 ; 3.0944063306480824E10 ; 0.0
163 ; 1.765039098732856E7 ; 2.0149592950590777E8 ; 2.957221857137592E9 ; 3.1145553448367977E10 ; 0.0
164 ; 1.7634668725236204E7 ; 2.0150170130131057E8 ; 2.9748722481249204E9 ; 3.1347049377873886E10 ; 0.0
165 ; 1.762246038789115E7 ; 2.015074570638744E8 ; 2.992506916850157E9 ; 3.1548551079175198E10 ; 0.0
166 ; 1.761032002332235E7 ; 2.0151319658658266E8 ; 3.010129377238048E9 ; 3.175005853623907E10 ; 0.0
167 ; 1.758776841960472E7 ; 2.0151891966483542E8 ; 3.0277396972613707E9 ; 3.1951571732825653E10 ; 0.0
168 ; 1.757614061639515E7 ; 2.0152462609639835E8 ; 3.0453274656809754E9 ; 3.215309065249049E10 ; 0.0
169 ; 1.756108107702396E7 ; 2.0153031568135333E8 ; 3.0629036062973704E9 ; 3.2354615278586887E10 ; 0.0
170 ; 1.7542755729258243E7 ; 2.0153598822205064E8 ; 3.0804646873743944E9 ; 3.255614559426824E10 ; 0.0
171 ; 1.753287892976162E7 ; 2.0154164352306253E8 ; 3.0980074431036525E9 ; 3.275768158249029E10 ; 0.0
172 ; 1.7516756901152316E7 ; 2.015472813911385E8 ; 3.115540322033414E9 ; 3.2959223226013355E10 ; 0.0
173 ; 1.7504398814782944E7 ; 2.0155290163516176E8 ; 3.133057078934566E9 ; 3.3160770507404495E10 ; 0.0
174 ; 1.7494562461329922E7 ; 2.0155850406610718E8 ; 3.150561477749349E9 ; 3.3362323409039658E10 ; 0.0
175 ; 1.7483910137711678E7 ; 2.0156408849700052E8 ; 3.168056040210679E9 ; 3.3563881913105766E10 ; 0.0
176 ; 1.7477812754171714E7 ; 2.0156965474287897E8 ; 3.1855399503483906E9 ; 3.3765446001602768E10 ; 0.0
177 ; 1.746975542509773E7 ; 2.0157520262075287E8 ; 3.2030177631025624E9 ; 3.3967015656345646E10 ; 0.0
178 ; 1.7462102475376118E7 ; 2.0158073194956866E8 ; 3.2204875185276604E9 ; 3.41685908589664E10 ; 0.0
179 ; 1.7449169467142735E7 ; 2.0158624255017298E8 ; 3.2379496210030365E9 ; 3.437017159091597E10 ; 0.0
180 ; 1.7438865028619245E7 ; 2.015917342452779E8 ; 3.255398790470179E9 ; 3.457175783346614E10 ; 0.0
181 ; 1.74297697379842E7 ; 2.0159720685942718E8 ; 3.2728376554987984E9 ; 3.477334956771142E10 ; 0.0
182 ; 1.7421744365255058E7 ; 2.0160266021896356E8 ; 3.2902674252367826E9 ; 3.497494677457085E10 ; 0.0
183 ; 1.7413901669183612E7 ; 2.0160809415199712E8 ; 3.3076891696020374E9 ; 3.517654943478981E10 ; 0.0
184 ; 1.740147437484497E7 ; 2.016135084883746E8 ; 3.325103071271221E9 ; 3.537815752894181E10 ; 0.0
185 ; 1.7392893781188324E7 ; 2.0161890305964962E8 ; 3.342504545646066E9 ; 3.557977103743018E10 ; 0.0
186 ; 1.738485127953004E7 ; 2.016242776990539E8 ; 3.3598974394272547E9 ; 3.578138994048983E10 ; 0.0
187 ; 1.7373015855480287E7 ; 2.0162963224146917E8 ; 3.3772822907067847E9 ; 3.598301421818888E10 ; 0.0
188 ; 1.7362764893044557E7 ; 2.0163496652340013E8 ; 3.394655306562265E9 ; 3.618464385043035E10 ; 0.0
189 ; 1.735520809087136E7 ; 2.016402803829482E8 ; 3.4120180714553094E9 ; 3.638627881695375E10 ; 0.0
190 ; 1.7349322387435947E7 ; 2.0164557365978596E8 ; 3.4293732795461807E9 ; 3.65879190973367E10 ; 0.0
191 ; 1.733887489175882E7 ; 2.016508461951324E8 ; 3.4467226019336166E9 ; 3.678956467099648E10 ; 0.0
192 ; 1.732829945332922E7 ; 2.016560978317291E8 ; 3.4640614768253756E9 ; 3.699121551719161E10 ; 0.0
193 ; 1.7317083372278966E7 ; 2.0166132841381687E8 ; 3.4813897762787046E9 ; 3.719287161502334E10 ; 0.0
194 ; 1.7308334502526168E7 ; 2.016665377871131E8 ; 3.498706859650984E9 ; 3.739453294343716E10 ; 0.0
195 ; 1.72989359425598E7 ; 2.016717257987901E8 ; 3.51601519415351E9 ; 3.7596199481224266E10 ; 0.0
