CSV File for the City 4 on Day 116
1 - Minute m 
2 - Power Consumed at minute m 
3 - Power Produced at minute m 
4 - Energy Consumed since the beginning of the day 
5 - Energy Produced since the beginning of the day 
6 - Energy Lost since the beginning of the day on lines starting from the city
 
0 ; 6890544.310269285 ; 1.062595164852936E8 ; 0.0 ; 0.0 ; 0.0
1 ; 6899239.986987182 ; 1.0641008709773433E8 ; 6890544.310269285 ; 1.062595164852936E8 ; 0.0
2 ; 6907803.309323868 ; 1.0686968276378009E8 ; 1.3789784297256466E7 ; 2.1266960358302793E8 ; 0.0
3 ; 6916633.336539999 ; 1.0763830729753453E8 ; 2.0697587606580332E7 ; 3.19539286346808E8 ; 0.0
4 ; 6924239.093278252 ; 1.0871596411367995E8 ; 2.761422094312033E7 ; 4.2717759364434254E8 ; 0.0
5 ; 6938926.368210116 ; 1.1010265620972288E8 ; 3.453846003639858E7 ; 5.358935577580225E8 ; 0.0
6 ; 6956394.629279432 ; 1.1179838615012947E8 ; 4.14773864046087E7 ; 6.459962139677453E8 ; 0.0
7 ; 6977634.306373699 ; 1.1380315605254525E8 ; 4.843378103388813E7 ; 7.577946001178747E8 ; 0.0
8 ; 7010818.840528982 ; 1.1611696757627112E8 ; 5.541141534026183E7 ; 8.715977561704199E8 ; 0.0
9 ; 7061753.305201649 ; 1.1873982191314143E8 ; 6.242223418079081E7 ; 9.87714723746691E8 ; 0.0
10 ; 7141034.696123521 ; 1.2167171978092211E8 ; 6.948398748599246E7 ; 1.1064545456598325E9 ; 0.0
11 ; 7259462.058108848 ; 1.249126614193143E8 ; 7.662502218211599E7 ; 1.2281262654407547E9 ; 0.0
12 ; 7465445.384862019 ; 1.2846264658861682E8 ; 8.388448424022484E7 ; 1.353038926860069E9 ; 0.0
13 ; 7652842.084077604 ; 1.3232167457106376E8 ; 9.134992962508686E7 ; 1.481501573448686E9 ; 0.0
14 ; 7674586.86179883 ; 1.3648974417482084E8 ; 9.900277170916447E7 ; 1.6138232480197496E9 ; 0.0
15 ; 7685383.051074949 ; 1.4096685374058706E8 ; 1.066773585709633E8 ; 1.7503129921945705E9 ; 0.0
16 ; 7692319.223237436 ; 1.45753001150717E8 ; 1.1436274162203825E8 ; 1.8912798459351575E9 ; 0.0
17 ; 7702650.787913782 ; 1.508481838407444E8 ; 1.2205506084527569E8 ; 2.0370328470858746E9 ; 0.0
18 ; 7713142.137788726 ; 1.562523988131628E8 ; 1.2975771163318947E8 ; 2.187881030926619E9 ; 0.0
19 ; 7724227.08689716 ; 1.6196564265328988E8 ; 1.3747085377097818E8 ; 2.344133429739782E9 ; 0.0
20 ; 7731390.063477438 ; 1.6798791154702196E8 ; 1.4519508085787535E8 ; 2.5060990723930717E9 ; 0.0
21 ; 7740910.129931635 ; 1.743192013002685E8 ; 1.5292647092135277E8 ; 2.6740869839400935E9 ; 0.0
22 ; 7749835.389183665 ; 1.8095950735984087E8 ; 1.606673810512844E8 ; 2.848406185240362E9 ; 0.0
23 ; 7758566.62607008 ; 1.87908824835563E8 ; 1.6841721644046807E8 ; 3.029365692600203E9 ; 0.0
24 ; 7772565.3897192525 ; 1.9516714852336568E8 ; 1.7617578306653816E8 ; 3.217274517435766E9 ; 0.0
25 ; 7778877.150415736 ; 2.0142251382731143E8 ; 1.839483484562574E8 ; 3.4124416659591317E9 ; 0.0
26 ; 7790300.587376311 ; 2.0142846282084328E8 ; 1.9172722560667315E8 ; 3.613864179786443E9 ; 0.0
27 ; 7796956.861473442 ; 2.0143475879632792E8 ; 1.9951752619404948E8 ; 3.8152926426072865E9 ; 0.0
28 ; 7805739.740333005 ; 2.0144139553653786E8 ; 2.0731448305552292E8 ; 4.0167274014036145E9 ; 0.0
29 ; 7812862.499098381 ; 2.0144836663247475E8 ; 2.151202227958559E8 ; 4.218168796940152E9 ; 0.0
30 ; 7825137.757862973 ; 2.014556655076286E8 ; 2.229330852949543E8 ; 4.419617163572627E9 ; 0.0
31 ; 7833980.313634816 ; 2.0146328544174853E8 ; 2.3075822305281729E8 ; 4.6210728290802555E9 ; 0.0
32 ; 7841713.510250741 ; 2.0147121959397376E8 ; 2.385922033664521E8 ; 4.822536114522004E9 ; 0.0
33 ; 7848790.22991308 ; 2.0147946102519247E8 ; 2.4643391687670285E8 ; 5.024007334115978E9 ; 0.0
34 ; 7858042.525860098 ; 2.0148800271951595E8 ; 2.5428270710661593E8 ; 5.2254867951411705E9 ; 0.0
35 ; 7866586.145065441 ; 2.0149683760477376E8 ; 2.6214074963247603E8 ; 5.426974797860686E9 ; 0.0
36 ; 7871241.240768898 ; 2.0150595857195503E8 ; 2.7000733577754146E8 ; 5.62847163546546E9 ; 0.0
37 ; 7880273.323483975 ; 2.0151535849353847E8 ; 2.7787857701831037E8 ; 5.829977594037415E9 ; 0.0
38 ; 7888838.556355377 ; 2.015250302406703E8 ; 2.857588503417944E8 ; 6.031492952530953E9 ; 0.0
39 ; 7894268.422423064 ; 2.0153496669916534E8 ; 2.936476888981497E8 ; 6.233017982771624E9 ; 0.0
40 ; 7902347.264046493 ; 2.015451607843202E8 ; 3.015419573205728E8 ; 6.434552949470789E9 ; 0.0
41 ; 7909179.281632576 ; 2.015556054545402E8 ; 3.094443045846193E8 ; 6.636098110255109E9 ; 0.0
42 ; 7913487.180946029 ; 2.0156629372379372E8 ; 3.173534838662519E8 ; 6.837653715709649E9 ; 0.0
43 ; 7919234.278735981 ; 2.0157721867291626E8 ; 3.2526697104719794E8 ; 7.039220009433443E9 ; 0.0
44 ; 7923837.896691631 ; 2.0158837345979598E8 ; 3.3318620532593393E8 ; 7.2407972281063595E9 ; 0.0
45 ; 7929190.314121957 ; 2.015997513284786E8 ; 3.4111004322262555E8 ; 7.442385601566155E9 ; 0.0
46 ; 7933502.631830792 ; 2.0161134561723527E8 ; 3.490392335367475E8 ; 7.643985352894634E9 ; 0.0
47 ; 7938327.380129474 ; 2.0162314976564243E8 ; 3.569727361685783E8 ; 7.845596698511869E9 ; 0.0
48 ; 7940454.148908905 ; 2.0163515732072407E8 ; 3.649110635487078E8 ; 8.047219848277512E9 ; 0.0
49 ; 7945131.7177912975 ; 2.01647361942211E8 ; 3.728515176976167E8 ; 8.248855005598236E9 ; 0.0
50 ; 7948006.697282279 ; 2.0165975740697172E8 ; 3.80796649415408E8 ; 8.450502367540447E9 ; 0.0
51 ; 7952613.929836328 ; 2.0167233761267084E8 ; 3.8874465611269027E8 ; 8.652162124947418E9 ; 0.0
52 ; 7956262.857689824 ; 2.016850965807105E8 ; 3.966972700425266E8 ; 8.85383446256009E9 ; 0.0
53 ; 7959004.098135179 ; 2.0169802845850942E8 ; 4.046535329002164E8 ; 9.0555195591408E9 ; 0.0
54 ; 7961085.911398679 ; 2.0171112752117357E8 ; 4.126125369983516E8 ; 9.25721758759931E9 ; 0.0
55 ; 7960834.1572845215 ; 2.0172438817261025E8 ; 4.205736229097502E8 ; 9.458928715120483E9 ; 0.0
56 ; 7963144.949524379 ; 2.017378049461358E8 ; 4.285344570670347E8 ; 9.660653103293093E9 ; 0.0
57 ; 7970978.092860286 ; 2.017513725046245E8 ; 4.364976020165591E8 ; 9.86239090823923E9 ; 0.0
58 ; 7970984.237571752 ; 2.0176508564024508E8 ; 4.444685801094194E8 ; 1.0064142280743855E10 ; 0.0
59 ; 7974652.516517063 ; 2.01778939273827E8 ; 4.524395643469912E8 ; 1.02659073663841E10 ; 0.0
60 ; 7976599.64937808 ; 2.0179292845389768E8 ; 4.604142168635082E8 ; 1.0467686305657927E10 ; 0.0
61 ; 7978602.827646593 ; 2.0180704835542867E8 ; 4.683908165128863E8 ; 1.0669479234111824E10 ; 0.0
62 ; 7980887.952059963 ; 2.018212942783255E8 ; 4.763694193405329E8 ; 1.0871286282467253E10 ; 0.0
63 ; 7983633.477635733 ; 2.0183566164569524E8 ; 4.843503072925929E8 ; 1.1073107576745579E10 ; 0.0
64 ; 7984116.978246113 ; 2.0185014600192097E8 ; 4.923339407702286E8 ; 1.1274943238391273E10 ; 0.0
65 ; 7988741.165181841 ; 2.0186474301057196E8 ; 5.003180577484747E8 ; 1.1476793384393194E10 ; 0.0
66 ; 7991137.778548664 ; 2.018794484521747E8 ; 5.0830679891365653E8 ; 1.1678658127403767E10 ; 0.0
67 ; 7992597.663478792 ; 2.0189425822186866E8 ; 5.162979366922052E8 ; 1.1880537575855942E10 ; 0.0
68 ; 7995883.049358872 ; 2.0190916832696772E8 ; 5.24290534355684E8 ; 1.208243183407781E10 ; 0.0
69 ; 7996675.824933332 ; 2.019241748844469E8 ; 5.322864174050428E8 ; 1.2284341002404778E10 ; 0.0
70 ; 8000083.253233409 ; 2.019392741183716E8 ; 5.402830932299762E8 ; 1.2486265177289225E10 ; 0.0
71 ; 8000093.161719225 ; 2.019544623572855E8 ; 5.482831764832096E8 ; 1.2688204451407597E10 ; 0.0
72 ; 8000950.179415302 ; 2.0196973603157064E8 ; 5.562832696449288E8 ; 1.2890158913764881E10 ; 0.0
73 ; 8001497.77407145 ; 2.019850916707928E8 ; 5.642842198243442E8 ; 1.3092128649796452E10 ; 0.0
74 ; 8003783.0076682335 ; 2.02000525901043E8 ; 5.722857175984156E8 ; 1.3294113741467245E10 ; 0.0
75 ; 8006815.3520355765 ; 2.0201603544228512E8 ; 5.802895006060839E8 ; 1.3496114267368288E10 ; 0.0
76 ; 8007182.522039292 ; 2.0203161710571852E8 ; 5.882963159581194E8 ; 1.3698130302810574E10 ; 0.0
77 ; 8008046.009592043 ; 2.020472677911627E8 ; 5.963034984801587E8 ; 1.3900161919916292E10 ; 0.0
78 ; 8007088.750545667 ; 2.0206298448447132E8 ; 6.043115444897507E8 ; 1.4102209187707455E10 ; 0.0
79 ; 8005050.884073597 ; 2.020787642549809E8 ; 6.123186332402964E8 ; 1.4304272172191925E10 ; 0.0
80 ; 8005759.273526066 ; 2.020946042529989E8 ; 6.2032368412437E8 ; 1.4506350936446905E10 ; 0.0
81 ; 8004024.257036571 ; 2.0211050170733574E8 ; 6.28329443397896E8 ; 1.4708445540699903E10 ; 0.0
82 ; 8002632.512380152 ; 2.0212645392288396E8 ; 6.363334676549326E8 ; 1.491055604240724E10 ; 0.0
83 ; 7999852.469506551 ; 2.021424582782474E8 ; 6.443361001673127E8 ; 1.5112682496330124E10 ; 0.0
84 ; 7999840.777916003 ; 2.0215851222342253E8 ; 6.523359526368192E8 ; 1.5314824954608372E10 ; 0.0
85 ; 8000073.640297635 ; 2.0217461327753446E8 ; 6.603357934147352E8 ; 1.5516983466831795E10 ; 0.0
86 ; 7995349.498738912 ; 2.021907590266278E8 ; 6.683358670550328E8 ; 1.571915808010933E10 ; 0.0
87 ; 7995400.186083127 ; 2.0220694712151468E8 ; 6.763312165537717E8 ; 1.5921348839135958E10 ; 0.0
88 ; 7992040.142576201 ; 2.022231752756795E8 ; 6.843266167398548E8 ; 1.6123555786257473E10 ; 0.0
89 ; 7991160.910693446 ; 2.0223944126324147E8 ; 6.92318656882431E8 ; 1.6325778961533152E10 ; 0.0
90 ; 7989333.676113767 ; 2.0225574291697484E8 ; 7.003098177931244E8 ; 1.6528018402796392E10 ; 0.0
91 ; 7991345.020391776 ; 2.0227207812638628E8 ; 7.082991514692382E8 ; 1.6730274145713367E10 ; 0.0
92 ; 7990525.256783889 ; 2.0228844483584982E8 ; 7.1629049648963E8 ; 1.6932546223839754E10 ; 0.0
93 ; 7986919.352041986 ; 2.02304841042798E8 ; 7.242810217464138E8 ; 1.7134834668675604E10 ; 0.0
94 ; 7981426.99927585 ; 2.0232126479596937E8 ; 7.322679410984558E8 ; 1.7337139509718403E10 ; 0.0
95 ; 7981120.407828603 ; 2.0233771419371065E8 ; 7.402493680977316E8 ; 1.7539460774514374E10 ; 0.0
96 ; 7978499.384000368 ; 2.023541873823335E8 ; 7.482304885055602E8 ; 1.7741798488708084E10 ; 0.0
97 ; 7977732.012826769 ; 2.0237068255452433E8 ; 7.562089878895606E8 ; 1.7944152676090416E10 ; 0.0
98 ; 7977079.967776911 ; 2.023871979478063E8 ; 7.641867199023874E8 ; 1.814652335864494E10 ; 0.0
99 ; 7972523.560406327 ; 2.0240373184305218E8 ; 7.721637998701643E8 ; 1.8348910556592747E10 ; 0.0
100 ; 7962305.986262524 ; 2.0242028256304717E8 ; 7.801363234305706E8 ; 1.85513142884358E10 ; 0.0
101 ; 7952275.300335019 ; 2.0243684847110033E8 ; 7.880986294168332E8 ; 1.8753734570998844E10 ; 0.0
102 ; 7938372.4918134 ; 2.0245342796970308E8 ; 7.960509047171682E8 ; 1.8956171419469944E10 ; 0.0
103 ; 7923098.567145869 ; 2.0247001949923402E8 ; 8.039892772089816E8 ; 1.9158624847439648E10 ; 0.0
104 ; 7914856.919093969 ; 2.0248662153670847E8 ; 8.119123757761275E8 ; 1.936109486693888E10 ; 0.0
105 ; 7900995.131224003 ; 2.0250323259457132E8 ; 8.198272326952214E8 ; 1.956358148847559E10 ; 0.0
106 ; 7893602.874321116 ; 2.0251985121953225E8 ; 8.277282278264455E8 ; 1.976608472107016E10 ; 0.0
107 ; 7880935.753652878 ; 2.025364759914418E8 ; 8.356218307007666E8 ; 1.9968604572289692E10 ; 0.0
108 ; 7864855.962129377 ; 2.0255310552220702E8 ; 8.435027664544195E8 ; 2.0171141048281136E10 ; 0.0
109 ; 7854876.636699785 ; 2.0256973845474568E8 ; 8.513676224165488E8 ; 2.037369415380334E10 ; 0.0
110 ; 7838844.510018777 ; 2.0258637346197742E8 ; 8.592224990532486E8 ; 2.0576263892258087E10 ; 0.0
111 ; 7828382.5597010255 ; 2.0260300924585098E8 ; 8.670613435632675E8 ; 2.0778850265720066E10 ; 0.0
112 ; 7815285.105952965 ; 2.0261964453640607E8 ; 8.748897261229684E8 ; 2.0981453274965916E10 ; 0.0
113 ; 7801777.244158725 ; 2.026362780908689E8 ; 8.827050112289214E8 ; 2.1184072919502323E10 ; 0.0
114 ; 7790074.078335226 ; 2.0265290869278002E8 ; 8.905067884730802E8 ; 2.1386709197593193E10 ; 0.0
115 ; 7774929.735927021 ; 2.0266953515115356E8 ; 8.982968625514154E8 ; 2.1589362106285973E10 ; 0.0
116 ; 7768541.042634691 ; 2.0268615629966667E8 ; 9.060717922873424E8 ; 2.1792031641437126E10 ; 0.0
117 ; 7751061.113927515 ; 2.02702770995878E8 ; 9.138403333299772E8 ; 2.1994717797736794E10 ; 0.0
118 ; 7739424.311160114 ; 2.0271937812047452E8 ; 9.215913944439046E8 ; 2.219742056873267E10 ; 0.0
119 ; 7724598.102108207 ; 2.027359765765452E8 ; 9.293308187550647E8 ; 2.2400139946853146E10 ; 0.0
120 ; 7713201.5881438535 ; 2.027525652888811E8 ; 9.37055416857173E8 ; 2.260287592342969E10 ; 0.0
121 ; 7697107.716177243 ; 2.0276914320330036E8 ; 9.447686184453168E8 ; 2.280562848871857E10 ; 0.0
122 ; 7683617.734111885 ; 2.0278570928599784E8 ; 9.52465726161494E8 ; 2.300839763192187E10 ; 0.0
123 ; 7674250.941508156 ; 2.028022625229178E8 ; 9.601493438956059E8 ; 2.321118334120787E10 ; 0.0
124 ; 7658220.765377822 ; 2.0281880191914946E8 ; 9.678235948371141E8 ; 2.341398560373079E10 ; 0.0
125 ; 7646119.154610765 ; 2.0283532649834394E8 ; 9.75481815602492E8 ; 2.361680440564994E10 ; 0.0
126 ; 7630671.430797247 ; 2.0285183530215257E8 ; 9.831279347571027E8 ; 2.3819639732148285E10 ; 0.0
127 ; 7618378.587919147 ; 2.028683273896847E8 ; 9.907586061879E8 ; 2.4022491567450436E10 ; 0.0
128 ; 7603630.969267435 ; 2.0288480183698574E8 ; 9.983769847758191E8 ; 2.4225359894840122E10 ; 0.0
129 ; 7592271.136786066 ; 2.02901257736533E8 ; 1.0059806157450866E9 ; 2.442824469667711E10 ; 0.0
130 ; 7576003.626856824 ; 2.0291769419675022E8 ; 1.0135728868818727E9 ; 2.4631145954413643E10 ; 0.0
131 ; 7560300.81764534 ; 2.0293411034153917E8 ; 1.0211488905087295E9 ; 2.4834063648610394E10 ; 0.0
132 ; 7547786.205140325 ; 2.0295050530982774E8 ; 1.0287091913263748E9 ; 2.503699775895193E10 ; 0.0
133 ; 7529634.021287645 ; 2.0296687825513434E8 ; 1.0362569775315151E9 ; 2.5239948264261757E10 ; 0.0
134 ; 7513403.52717463 ; 2.029832283451477E8 ; 1.0437866115528028E9 ; 2.544291514251689E10 ; 0.0
135 ; 7493907.545462796 ; 2.0299955476132137E8 ; 1.0513000150799774E9 ; 2.5645898370862038E10 ; 0.0
136 ; 7479423.527360899 ; 2.030158566984828E8 ; 1.0587939226254402E9 ; 2.584889792562336E10 ; 0.0
137 ; 7462032.761900567 ; 2.0303213336445615E8 ; 1.0662733461528012E9 ; 2.6051913782321842E10 ; 0.0
138 ; 7445502.478988665 ; 2.030483839796981E8 ; 1.0737353789147017E9 ; 2.62549459156863E10 ; 0.0
139 ; 7426872.212387588 ; 2.0306460777694678E8 ; 1.0811808813936903E9 ; 2.6457994299665997E10 ; 0.0
140 ; 7414136.946017974 ; 2.0308080400088286E8 ; 1.088607753606078E9 ; 2.6661058907442944E10 ; 0.0
141 ; 7393438.954372834 ; 2.0309697190780246E8 ; 1.096021890552096E9 ; 2.6864139711443825E10 ; 0.0
142 ; 7376634.171188323 ; 2.0311311076530156E8 ; 1.1034153295064688E9 ; 2.7067236683351627E10 ; 0.0
143 ; 7360083.144101306 ; 2.0312921985197115E8 ; 1.1107919636776571E9 ; 2.727034979411693E10 ; 0.0
144 ; 7343818.205154856 ; 2.0314529845710334E8 ; 1.1181520468217585E9 ; 2.74734790139689E10 ; 0.0
145 ; 7330847.168493286 ; 2.031613458804073E8 ; 1.1254958650269134E9 ; 2.7676624312426003E10 ; 0.0
146 ; 7314696.115019773 ; 2.031773614317351E8 ; 1.1328267121954067E9 ; 2.7879785658306408E10 ; 0.0
147 ; 7300550.972438784 ; 2.031933444308171E8 ; 1.1401414083104265E9 ; 2.8082963019738144E10 ; 0.0
148 ; 7287758.66910676 ; 2.0320929420700637E8 ; 1.1474419592828653E9 ; 2.828615636416896E10 ; 0.0
149 ; 7274052.632063531 ; 2.032252100990317E8 ; 1.154729717951972E9 ; 2.8489365658375965E10 ; 0.0
150 ; 7258339.515833687 ; 2.0324109145475936E8 ; 1.1620037705840356E9 ; 2.8692590868475E10 ; 0.0
151 ; 7243266.988073268 ; 2.0325693763096273E8 ; 1.1692621100998693E9 ; 2.8895831959929756E10 ; 0.0
152 ; 7232049.145173305 ; 2.0327274799309984E8 ; 1.1765053770879426E9 ; 2.909908889756072E10 ; 0.0
153 ; 7216001.053684234 ; 2.0328852191509837E8 ; 1.183737426233116E9 ; 2.9302361645553818E10 ; 0.0
154 ; 7202182.725281015 ; 2.0330425877914822E8 ; 1.1909534272868001E9 ; 2.9505650167468918E10 ; 0.0
155 ; 7186436.951692664 ; 2.033199579755006E8 ; 1.1981556100120811E9 ; 2.9708954426248066E10 ; 0.0
156 ; 7172647.957908514 ; 2.0333561890227434E8 ; 1.2053420469637737E9 ; 2.9912274384223568E10 ; 0.0
157 ; 7155576.156161161 ; 2.0335124096526822E8 ; 1.2125146949216824E9 ; 3.0115610003125843E10 ; 0.0
158 ; 7144462.296609345 ; 2.033668235777801E8 ; 1.2196702710778434E9 ; 3.031896124409111E10 ; 0.0
159 ; 7128761.544549532 ; 2.0338236616043168E8 ; 1.2268147333744528E9 ; 3.052232806766889E10 ; 0.0
160 ; 7113410.663149221 ; 2.0339786814099917E8 ; 1.2339434949190023E9 ; 3.0725710433829323E10 ; 0.0
161 ; 7100267.544942433 ; 2.034133289542498E8 ; 1.2410569055821514E9 ; 3.092910830197032E10 ; 0.0
162 ; 7086875.950652301 ; 2.0342874804178336E8 ; 1.2481571731270938E9 ; 3.1132521630924572E10 ; 0.0
163 ; 7070415.383906469 ; 2.0344412485187933E8 ; 1.2552440490777462E9 ; 3.1335950378966354E10 ; 0.0
164 ; 7057118.3928890405 ; 2.034594588393488E8 ; 1.2623144644616525E9 ; 3.1539394503818233E10 ; 0.0
165 ; 7041284.626757159 ; 2.0347474946539137E8 ; 1.2693715828545415E9 ; 3.174285396265758E10 ; 0.0
166 ; 7028199.099925714 ; 2.0348999619745663E8 ; 1.2764128674812987E9 ; 3.1946328712122974E10 ; 0.0
167 ; 7011099.897806728 ; 2.035051985091103E8 ; 1.2834410665812244E9 ; 3.214981870832043E10 ; 0.0
168 ; 6997809.981091419 ; 2.035203558799046E8 ; 1.290452166479031E9 ; 3.235332390682954E10 ; 0.0
169 ; 6985184.387876283 ; 2.035354677952528E8 ; 1.2974499764601226E9 ; 3.2556844262709446E10 ; 0.0
170 ; 6967832.688255283 ; 2.0355053374630812E8 ; 1.3044351608479989E9 ; 3.27603797305047E10 ; 0.0
171 ; 6952519.55145063 ; 2.0356555322984606E8 ; 1.3114029935362542E9 ; 3.2963930264251007E10 ; 0.0
172 ; 6939912.385040182 ; 2.03580525748151E8 ; 1.318355513087705E9 ; 3.3167495817480854E10 ; 0.0
173 ; 6923902.226668704 ; 2.0359545080890608E8 ; 1.3252954254727452E9 ; 3.3371076343229004E10 ; 0.0
174 ; 6910350.8964375155 ; 2.0361032792508683E8 ; 1.3322193276994138E9 ; 3.357467179403791E10 ; 0.0
175 ; 6899097.234931442 ; 2.0362515661485806E8 ; 1.3391296785958512E9 ; 3.3778282121962997E10 ; 0.0
176 ; 6887930.874273281 ; 2.0363993640147418E8 ; 1.3460287758307827E9 ; 3.3981907278577854E10 ; 0.0
177 ; 6874552.712344644 ; 2.0365466681318256E8 ; 1.352916706705056E9 ; 3.418554721497933E10 ; 0.0
178 ; 6860840.594520526 ; 2.0366934738312998E8 ; 1.3597912594174006E9 ; 3.438920188179251E10 ; 0.0
179 ; 6848836.71723754 ; 2.0368397764927208E8 ; 1.3666521000119212E9 ; 3.4592871229175644E10 ; 0.0
180 ; 6835835.434822579 ; 2.0369855715428567E8 ; 1.3735009367291586E9 ; 3.479655520682491E10 ; 0.0
181 ; 6822576.7694112 ; 2.0371308544548377E8 ; 1.3803367721639812E9 ; 3.50002537639792E10 ; 0.0
182 ; 6809307.990458803 ; 2.037275620747333E8 ; 1.3871593489333923E9 ; 3.520396684942468E10 ; 0.0
183 ; 6794210.246808978 ; 2.0374198659837535E8 ; 1.393968656923851E9 ; 3.540769441149941E10 ; 0.0
184 ; 6786066.275708668 ; 2.037563585771481E8 ; 1.40076286717066E9 ; 3.5611436398097786E10 ; 0.0
185 ; 6771205.838861489 ; 2.0377067757611188E8 ; 1.4075489334463687E9 ; 3.5815192756674934E10 ; 0.0
186 ; 6759774.900807156 ; 2.0378494316457668E8 ; 1.4143201392852302E9 ; 3.6018963434251045E10 ; 0.0
187 ; 6746033.837625505 ; 2.0379915491603205E8 ; 1.4210799141860373E9 ; 3.622274837741562E10 ; 0.0
188 ; 6733127.831885183 ; 2.0381331240807897E8 ; 1.4278259480236628E9 ; 3.642654753233165E10 ; 0.0
189 ; 6721848.327592448 ; 2.0382741522236383E8 ; 1.434559075855548E9 ; 3.663036084473973E10 ; 0.0
190 ; 6708806.580180156 ; 2.038414629445147E8 ; 1.4412809241831403E9 ; 3.68341882599621E10 ; 0.0
191 ; 6692742.482604963 ; 2.038554551640792E8 ; 1.4479897307633204E9 ; 3.703802972290661E10 ; 0.0
192 ; 6681312.989947701 ; 2.038693914744645E8 ; 1.4546824732459254E9 ; 3.724188517807069E10 ; 0.0
193 ; 6668216.743422132 ; 2.0388327147287923E8 ; 1.4613637862358732E9 ; 3.744575456954515E10 ; 0.0
194 ; 6657068.975898389 ; 2.0389709476027694E8 ; 1.4680320029792953E9 ; 3.764963784101803E10 ; 0.0
195 ; 6644453.646528552 ; 2.0391086094130135E8 ; 1.4746890719551938E9 ; 3.7853534935778305E10 ; 0.0
196 ; 6628976.88832662 ; 2.0392456962423348E8 ; 1.4813335256017222E9 ; 3.8057445796719604E10 ; 0.0
197 ; 6620686.0473344475 ; 2.0393822042094013E8 ; 1.487962502490049E9 ; 3.826137036634384E10 ; 0.0
198 ; 6606579.429776588 ; 2.03951812946824E8 ; 1.4945831885373833E9 ; 3.846530858676478E10 ; 0.0
199 ; 6590792.453067602 ; 2.039653468207754E8 ; 1.50118976796716E9 ; 3.86692603997116E10 ; 0.0
200 ; 6581401.505971993 ; 1.7314505618617362E8 ; 1.5077805604202275E9 ; 3.887322574653238E10 ; 0.0
201 ; 6567949.686155316 ; 1.551522438867439E8 ; 1.5143619619261994E9 ; 3.904637080271855E10 ; 0.0
