CSV File for the City 4 on Day 245
1 - Minute m 
2 - Power Consumed at minute m 
3 - Power Produced at minute m 
4 - Energy Consumed since the beginning of the day 
5 - Energy Produced since the beginning of the day 
6 - Energy Lost since the beginning of the day on lines starting from the city
 
0 ; 1221041.8831033593 ; 1.0561370837866953E8 ; 0.0 ; 0.0 ; 0.0
1 ; 1224844.5709346577 ; 1.0576244448913062E8 ; 1221041.8831033593 ; 1.0561370837866953E8 ; 0.0
2 ; 1231464.8410343025 ; 1.062203494447206E8 ; 2445886.454038017 ; 2.1137615286780015E8 ; 0.0
3 ; 1239686.1348852667 ; 1.0698744192297739E8 ; 3677351.2950723195 ; 3.1759650231252074E8 ; 0.0
4 ; 1252102.3861518947 ; 1.0806373931858957E8 ; 4917037.429957586 ; 4.2458394423549813E8 ; 0.0
5 ; 1263602.3641598162 ; 1.0944925745203686E8 ; 6169139.816109481 ; 5.326476835540877E8 ; 0.0
6 ; 1278140.4221652553 ; 1.1114401028562757E8 ; 7432742.180269297 ; 6.420969410061245E8 ; 0.0
7 ; 1303768.3225904794 ; 1.1314800965762782E8 ; 8710882.602434553 ; 7.532409512917521E8 ; 0.0
8 ; 1335008.004198921 ; 1.1546126504546803E8 ; 1.0014650925025033E7 ; 8.663889609493799E8 ; 0.0
9 ; 1383969.5903918957 ; 1.1808378336856627E8 ; 1.1349658929223955E7 ; 9.81850225994848E8 ; 0.0
10 ; 1460240.489168908 ; 1.2101556884006089E8 ; 1.2733628519615851E7 ; 1.0999340093634143E9 ; 0.0
11 ; 1584640.1748428706 ; 1.2425662287473914E8 ; 1.419386900878476E7 ; 1.2209495782034752E9 ; 0.0
12 ; 1783184.6556922516 ; 1.2780694405781373E8 ; 1.577850918362763E7 ; 1.3452062010782144E9 ; 0.0
13 ; 1976216.1890715978 ; 1.3166652817614633E8 ; 1.756169383931988E7 ; 1.473013145136028E9 ; 0.0
14 ; 1997263.495909726 ; 1.3583536831031895E8 ; 1.953791002839148E7 ; 1.6046796733121743E9 ; 0.0
15 ; 2007392.0659712807 ; 1.4031345498290104E8 ; 2.1535173524301205E7 ; 1.7405150416224933E9 ; 0.0
16 ; 2015821.2900070318 ; 1.451007763556266E8 ; 2.3542565590272486E7 ; 1.8808284966053944E9 ; 0.0
17 ; 2022997.7484717097 ; 1.5019731846618727E8 ; 2.555838688027952E7 ; 2.025929272961021E9 ; 0.0
18 ; 2035446.2155493393 ; 1.556030654941033E8 ; 2.758138462875123E7 ; 2.1761265914272084E9 ; 0.0
19 ; 2043294.573241746 ; 1.613180000446861E8 ; 2.9616830844300568E7 ; 2.331729656921312E9 ; 0.0
20 ; 2053433.181534804 ; 1.673421034403979E8 ; 3.1660125417542316E7 ; 2.493047656965998E9 ; 0.0
21 ; 2064164.9943432342 ; 1.7367535600983557E8 ; 3.371355859907712E7 ; 2.660389760406396E9 ; 0.0
22 ; 2072715.8202003282 ; 1.803177373659401E8 ; 3.577772359342036E7 ; 2.8340651164162316E9 ; 0.0
23 ; 2080052.6974932165 ; 1.8726922666668642E8 ; 3.785043941362069E7 ; 3.0143828537821717E9 ; 0.0
24 ; 2090606.5393386753 ; 1.94529802853265E8 ; 3.9930492111113906E7 ; 3.2016520804488583E9 ; 0.0
25 ; 2096385.0347659793 ; 2.0078748576066718E8 ; 4.2021098650452584E7 ; 3.396181883302123E9 ; 0.0
26 ; 2109211.960633655 ; 2.0079580233948988E8 ; 4.4117483685218565E7 ; 3.5969693690627904E9 ; 0.0
27 ; 2116574.8577212193 ; 2.0080450133788145E8 ; 4.622669564585222E7 ; 3.7977651714022803E9 ; 0.0
28 ; 2123948.9145454387 ; 2.0081356267819154E8 ; 4.834327050357344E7 ; 3.998569672740162E9 ; 0.0
29 ; 2134636.526343148 ; 2.0082296685444072E8 ; 5.046721941811888E7 ; 4.1993832354183536E9 ; 0.0
30 ; 2144145.9640964037 ; 2.0083269501296297E8 ; 5.260185594446203E7 ; 4.400206202272795E9 ; 0.0
31 ; 2152192.0852996246 ; 2.008427290118779E8 ; 5.4746001908558436E7 ; 4.601038897285758E9 ; 0.0
32 ; 2161033.3103577085 ; 2.0085305146196097E8 ; 5.689819399385806E7 ; 4.801881626297636E9 ; 0.0
33 ; 2168356.2213174594 ; 2.0086364575149488E8 ; 5.9059227304215774E7 ; 5.002734677759597E9 ; 0.0
34 ; 2177465.684033733 ; 2.0087449605759317E8 ; 6.122758352553324E7 ; 5.203598323511091E9 ; 0.0
35 ; 2186332.6807748014 ; 2.0088558734632364E8 ; 6.3405049209566966E7 ; 5.404472819568685E9 ; 0.0
36 ; 2194627.710268018 ; 2.0089690536374944E8 ; 6.5591381890341766E7 ; 5.605358406915009E9 ; 0.0
37 ; 2201074.8585865786 ; 2.0090843661977428E8 ; 6.778600960060978E7 ; 5.806255312278758E9 ; 0.0
38 ; 2207666.0499111656 ; 2.0092016836643928E8 ; 6.998708445919636E7 ; 6.007163748898532E9 ; 0.0
39 ; 2212961.3085841136 ; 2.009320885720878E8 ; 7.219475050910753E7 ; 6.208083917264971E9 ; 0.0
40 ; 2221427.639822509 ; 2.0094418589259422E8 ; 7.440771181769164E7 ; 6.409016005837059E9 ; 0.0
41 ; 2226847.494313935 ; 2.009564496406537E8 ; 7.662913945751415E7 ; 6.609960191729653E9 ; 0.0
42 ; 2234229.357033525 ; 2.009688697539506E8 ; 7.885598695182809E7 ; 6.810916641370307E9 ; 0.0
43 ; 2239939.236118781 ; 2.009814367628653E8 ; 8.109021630886161E7 ; 7.011885511124258E9 ; 0.0
44 ; 2245236.708562733 ; 2.0099414175824443E8 ; 8.333015554498039E7 ; 7.212866947887123E9 ; 0.0
45 ; 2251128.542075422 ; 2.0100697635964227E8 ; 8.557539225354312E7 ; 7.413861089645368E9 ; 0.0
46 ; 2252056.469386957 ; 2.0101993268434504E8 ; 8.782652079561855E7 ; 7.61486806600501E9 ; 0.0
47 ; 2258648.868215357 ; 2.0103300331740707E8 ; 9.00785772650055E7 ; 7.815887998689355E9 ; 0.0
48 ; 2263494.844953342 ; 2.010461812828631E8 ; 9.233722613322085E7 ; 8.016921002006762E9 ; 0.0
49 ; 2267444.8724665456 ; 2.0105946001622492E8 ; 9.46007209781742E7 ; 8.217967183289624E9 ; 0.0
50 ; 2269460.498956956 ; 2.0107283333832854E8 ; 9.686816585064074E7 ; 8.419026643305849E9 ; 0.0
51 ; 2274247.5611062413 ; 2.0108629543056306E8 ; 9.913762634959769E7 ; 8.620099476644178E9 ; 0.0
52 ; 2276889.887698237 ; 2.0109984081148526E8 ; 1.0141187391070393E8 ; 8.821185772074741E9 ; 0.0
53 ; 2280136.3720009387 ; 2.0111346431480366E8 ; 1.0368876379840216E8 ; 9.022285612886227E9 ; 0.0
54 ; 2280701.8220375986 ; 2.0112716106870022E8 ; 1.059689001704031E8 ; 9.22339907720103E9 ; 0.0
55 ; 2286591.414878098 ; 2.0114092647644615E8 ; 1.0824960199244069E8 ; 9.424526238269732E9 ; 0.0
56 ; 2288631.983830233 ; 2.0115475619826102E8 ; 1.1053619340731879E8 ; 9.625667164746178E9 ; 0.0
57 ; 2293425.3720136518 ; 2.0116864613435793E8 ; 1.1282482539114901E8 ; 9.826821920944439E9 ; 0.0
58 ; 2295789.146578779 ; 2.0118259240911576E8 ; 1.1511825076316267E8 ; 1.0027990567078796E10 ; 0.0
59 ; 2294169.0158866313 ; 2.0119659135631663E8 ; 1.1741403990974145E8 ; 1.0229173159487911E10 ; 0.0
60 ; 2298499.3645176906 ; 2.0121063950538734E8 ; 1.1970820892562808E8 ; 1.0430369750844229E10 ; 0.0
61 ; 2302411.9261300117 ; 2.0122473356858426E8 ; 1.2200670829014577E8 ; 1.0631580390349617E10 ; 0.0
62 ; 2307765.082046234 ; 2.0123887042906204E8 ; 1.2430912021627578E8 ; 1.0832805123918201E10 ; 0.0
63 ; 2307533.7649620585 ; 2.0125304712976918E8 ; 1.2661688529832202E8 ; 1.1034043994347263E10 ; 0.0
64 ; 2311380.5881347586 ; 2.0126726086311528E8 ; 1.2892441906328408E8 ; 1.1235297041477032E10 ; 0.0
65 ; 2311964.7484294684 ; 2.0128150896135816E8 ; 1.3123579965141885E8 ; 1.1436564302340147E10 ; 0.0
66 ; 2317035.016604357 ; 2.0129578888766062E8 ; 1.3354776439984831E8 ; 1.1637845811301506E10 ; 0.0
67 ; 2317650.2939782543 ; 2.0131009822777048E8 ; 1.3586479941645268E8 ; 1.1839141600189167E10 ; 0.0
68 ; 2320243.512417398 ; 2.0132443468227988E8 ; 1.3818244971043092E8 ; 1.2040451698416937E10 ; 0.0
69 ; 2321879.639859044 ; 2.0133879605942246E8 ; 1.4050269322284833E8 ; 1.2241776133099216E10 ; 0.0
70 ; 2325124.028274826 ; 2.013531802683698E8 ; 1.4282457286270738E8 ; 1.2443114929158638E10 ; 0.0
71 ; 2326479.548081417 ; 2.013675853129914E8 ; 1.451496968909822E8 ; 1.2644468109427008E10 ; 0.0
72 ; 2329480.7602493893 ; 2.0138200928604442E8 ; 1.4747617643906364E8 ; 1.284583569474E10 ; 0.0
73 ; 2331832.552438219 ; 2.0139645036376208E8 ; 1.49805657199313E8 ; 1.3047217704026045E10 ; 0.0
74 ; 2333062.269772345 ; 2.0141090680081186E8 ; 1.5213748975175124E8 ; 1.3248614154389807E10 ; 0.0
75 ; 2335739.6272181245 ; 2.0142537692559642E8 ; 1.544705520215236E8 ; 1.3450025061190619E10 ; 0.0
76 ; 2339206.138696795 ; 2.014398591358725E8 ; 1.5680629164874172E8 ; 1.3651450438116215E10 ; 0.0
77 ; 2339705.1626249887 ; 2.0145435189466482E8 ; 1.591454977874385E8 ; 1.3852890297252087E10 ; 0.0
78 ; 2340339.3552758875 ; 2.0146885372645319E8 ; 1.614852029500635E8 ; 1.4054344649146751E10 ; 0.0
79 ; 2337499.7691093585 ; 2.0148336321361345E8 ; 1.638255423053394E8 ; 1.4255813502873205E10 ; 0.0
80 ; 2340483.8090287126 ; 2.0149787899309397E8 ; 1.6616304207444876E8 ; 1.4457296866086819E10 ; 0.0
81 ; 2336145.227637869 ; 2.0151239975331038E8 ; 1.6850352588347748E8 ; 1.4658794745079912E10 ; 0.0
82 ; 2335534.067053054 ; 2.0152692423124328E8 ; 1.7083967111111534E8 ; 1.4860307144833223E10 ; 0.0
83 ; 2333110.8893904546 ; 2.015414512097242E8 ; 1.731752051781684E8 ; 1.5061834069064466E10 ; 0.0
84 ; 2334915.2859606966 ; 2.0155597951489663E8 ; 1.7550831606755885E8 ; 1.526337552027419E10 ; 0.0
85 ; 2333376.5302899326 ; 2.0157050801383963E8 ; 1.7784323135351956E8 ; 1.5464931499789087E10 ; 0.0
86 ; 2333503.4731921568 ; 2.0158503561234254E8 ; 1.8017660788380948E8 ; 1.5666502007802927E10 ; 0.0
87 ; 2331163.1258405005 ; 2.0159956125282016E8 ; 1.8251011135700163E8 ; 1.586808704341527E10 ; 0.0
88 ; 2330251.6275296407 ; 2.016140839123589E8 ; 1.8484127448284215E8 ; 1.606968660466809E10 ; 0.0
89 ; 2331910.7507313383 ; 2.0162860260088447E8 ; 1.871715261103718E8 ; 1.627130068858045E10 ; 0.0
90 ; 2329600.3335904223 ; 2.0164311635944292E8 ; 1.8950343686110315E8 ; 1.6472929291181335E10 ; 0.0
91 ; 2329972.8627560595 ; 2.016576242585872E8 ; 1.9183303719469357E8 ; 1.667457240754078E10 ; 0.0
92 ; 2325937.4571368503 ; 2.016721253968622E8 ; 1.9416301005744964E8 ; 1.6876230031799366E10 ; 0.0
93 ; 2327093.1309567513 ; 2.0168661889938134E8 ; 1.9648894751458648E8 ; 1.7077902157196228E10 ; 0.0
94 ; 2323264.452517762 ; 2.0170110391648862E8 ; 1.9881604064554322E8 ; 1.7279588776095608E10 ; 0.0
95 ; 2324409.745725966 ; 2.0171557962250084E8 ; 2.0113930509806097E8 ; 1.7481289880012096E10 ; 0.0
96 ; 2323028.7393136285 ; 2.0173004521452376E8 ; 2.0346371484378693E8 ; 1.7683005459634598E10 ; 0.0
97 ; 2315966.333585819 ; 2.0174449991133848E8 ; 2.0578674358310056E8 ; 1.788473550484912E10 ; 0.0
98 ; 2318611.414380714 ; 2.017589429523522E8 ; 2.081027099166864E8 ; 1.808648000476046E10 ; 0.0
99 ; 2319493.2258177106 ; 2.0177337359661028E8 ; 2.104213213310671E8 ; 1.828823894771281E10 ; 0.0
100 ; 2316397.5150140533 ; 2.0178779112186483E8 ; 2.127408145568848E8 ; 1.849001232130942E10 ; 0.0
101 ; 2312460.4240952795 ; 2.018021948236965E8 ; 2.1505721207189885E8 ; 1.8691800112431286E10 ; 0.0
102 ; 2312436.9234771226 ; 2.0181658401468632E8 ; 2.1736967249599412E8 ; 1.8893602307254982E10 ; 0.0
103 ; 2310210.2052924694 ; 2.0183095802363387E8 ; 2.1968210941947123E8 ; 1.909541889126967E10 ; 0.0
104 ; 2307761.081038086 ; 2.0184531619481915E8 ; 2.219923196247637E8 ; 1.92972498492933E10 ; 0.0
105 ; 2306735.4393780082 ; 2.0185965788730577E8 ; 2.2430008070580178E8 ; 1.949909516548812E10 ; 0.0
106 ; 2306340.7487109164 ; 2.018739824742819E8 ; 2.266068161451798E8 ; 1.9700954823375427E10 ; 0.0
107 ; 2300604.386595865 ; 2.0188828934243798E8 ; 2.2891315689389074E8 ; 1.990282880584971E10 ; 0.0
108 ; 2301694.3795167655 ; 2.0190257789137763E8 ; 2.312137612804866E8 ; 2.0104717095192146E10 ; 0.0
109 ; 2300441.5355258696 ; 2.0191684753306067E8 ; 2.3351545566000336E8 ; 2.0306619673083523E10 ; 0.0
110 ; 2297243.0552033857 ; 2.0193109769127598E8 ; 2.3581589719552922E8 ; 2.0508536520616585E10 ; 0.0
111 ; 2295788.958607092 ; 2.0194532780114207E8 ; 2.381131402507326E8 ; 2.071046761830786E10 ; 0.0
112 ; 2292374.646864628 ; 2.0195953730863455E8 ; 2.4040892920933968E8 ; 2.0912412946109005E10 ; 0.0
113 ; 2290817.2387045543 ; 2.0197372567013785E8 ; 2.427013038562043E8 ; 2.111437248341764E10 ; 0.0
114 ; 2289010.6863169726 ; 2.019878923520207E8 ; 2.4499212109490886E8 ; 2.131634620908778E10 ; 0.0
115 ; 2285496.28639139 ; 2.0200203683023345E8 ; 2.4728113178122583E8 ; 2.15183341014398E10 ; 0.0
116 ; 2284997.649455234 ; 2.0201615858992592E8 ; 2.495666280676172E8 ; 2.1720336138270035E10 ; 0.0
117 ; 2282392.855392063 ; 2.0203025712508506E8 ; 2.5185162571707243E8 ; 2.1922352296859962E10 ; 0.0
118 ; 2277941.7408893933 ; 2.0204433193819082E8 ; 2.541340185724645E8 ; 2.2124382553985046E10 ; 0.0
119 ; 2275414.298162473 ; 2.0205838253988934E8 ; 2.564119603133539E8 ; 2.2326426885923237E10 ; 0.0
120 ; 2272819.1184027563 ; 2.0207240844868264E8 ; 2.5868737461151636E8 ; 2.2528485268463127E10 ; 0.0
121 ; 2274101.629478036 ; 2.020864091906336E8 ; 2.609601937299191E8 ; 2.2730557676911808E10 ; 0.0
122 ; 2269508.57163302 ; 2.0210038429908556E8 ; 2.6323429535939714E8 ; 2.293264408610244E10 ; 0.0
123 ; 2263290.2998952726 ; 2.021143333143959E8 ; 2.6550380393103015E8 ; 2.3134744470401524E10 ; 0.0
124 ; 2263147.272949888 ; 2.0212825578368223E8 ; 2.6776709423092544E8 ; 2.333685880371592E10 ; 0.0
125 ; 2257887.7623043563 ; 2.0214215126058125E8 ; 2.700302415038753E8 ; 2.3538987059499603E10 ; 0.0
126 ; 2254301.1120067663 ; 2.0215601930501908E8 ; 2.722881292661797E8 ; 2.3741129210760185E10 ; 0.0
127 ; 2252446.974344923 ; 2.0216985948299256E8 ; 2.7454243037818646E8 ; 2.3943285230065205E10 ; 0.0
128 ; 2246077.6069120564 ; 2.0218367136636114E8 ; 2.767948773525314E8 ; 2.41454550895482E10 ; 0.0
129 ; 2247140.947379377 ; 2.0219745453264844E8 ; 2.7904095495944345E8 ; 2.434763876091456E10 ; 0.0
130 ; 2242516.0770917954 ; 2.0221120856485325E8 ; 2.812880959068228E8 ; 2.454983621544721E10 ; 0.0
131 ; 2235561.9267075723 ; 2.0222493305126935E8 ; 2.835306119839146E8 ; 2.4752047424012062E10 ; 0.0
132 ; 2230130.677402048 ; 2.022386275853138E8 ; 2.857661739106222E8 ; 2.495427235706333E10 ; 0.0
133 ; 2224440.5993391825 ; 2.0225229176536298E8 ; 2.879963045880242E8 ; 2.5156510984648643E10 ; 0.0
134 ; 2219153.2225291533 ; 2.022659251945964E8 ; 2.902207451873634E8 ; 2.5358763276414005E10 ; 0.0
135 ; 2212481.0267693843 ; 2.0227952748084757E8 ; 2.9243989840989256E8 ; 2.55610292016086E10 ; 0.0
136 ; 2209204.773877837 ; 2.0229309823646152E8 ; 2.9465237943666196E8 ; 2.5763308729089447E10 ; 0.0
137 ; 2201786.3462566533 ; 2.0230663707815918E8 ; 2.968615842105398E8 ; 2.596560182732591E10 ; 0.0
138 ; 2194606.4835157543 ; 2.0232014362690726E8 ; 2.990633705567965E8 ; 2.6167908464404068E10 ; 0.0
139 ; 2187872.685951587 ; 2.0233361750779462E8 ; 3.0125797704031223E8 ; 2.6370228608030975E10 ; 0.0
140 ; 2183484.4842885677 ; 2.0234705834991357E8 ; 3.034458497262638E8 ; 2.657256222553877E10 ; 0.0
141 ; 2175029.742379206 ; 2.0236046578624693E8 ; 3.056293342105524E8 ; 2.6774909283888683E10 ; 0.0
142 ; 2172817.455902335 ; 2.023738394535597E8 ; 3.078043639529316E8 ; 2.697726974967493E10 ; 0.0
143 ; 2165567.0949988817 ; 2.0238717899229565E8 ; 3.099771814088339E8 ; 2.717964358912849E10 ; 0.0
144 ; 2160647.313452095 ; 2.024004840464786E8 ; 3.121427485038328E8 ; 2.7382030768120785E10 ; 0.0
145 ; 2155256.133256009 ; 2.0241375426361755E8 ; 3.1430339581728494E8 ; 2.7584431252167263E10 ; 0.0
146 ; 2151131.211590492 ; 2.024269892946164E8 ; 3.1645865195054096E8 ; 2.778684500643088E10 ; 0.0
147 ; 2150057.2695773486 ; 2.0244018879368737E8 ; 3.186097831621314E8 ; 2.79892719957255E10 ; 0.0
148 ; 2144954.338348673 ; 2.0245335241826797E8 ; 3.2075984043170875E8 ; 2.8191712184519184E10 ; 0.0
149 ; 2143686.489375619 ; 2.0246647982894182E8 ; 3.2290479477005744E8 ; 2.839416553693745E10 ; 0.0
150 ; 2138025.311751969 ; 2.024795706893627E8 ; 3.2504848125943303E8 ; 2.859663201676639E10 ; 0.0
151 ; 2134205.516744489 ; 2.0249262466618177E8 ; 3.27186506571185E8 ; 2.8799111587455753E10 ; 0.0
152 ; 2131248.480002332 ; 2.0250564142897797E8 ; 3.293207120879295E8 ; 2.9001604212121937E10 ; 0.0
153 ; 2130861.746926961 ; 2.025186206501913E8 ; 3.3145196056793183E8 ; 2.9204109853550915E10 ; 0.0
154 ; 2128172.952966173 ; 2.0253156200505894E8 ; 3.335828223148588E8 ; 2.9406628474201107E10 ; 0.0
155 ; 2122294.604533013 ; 2.025444651715539E8 ; 3.3571099526782495E8 ; 2.9609160036206165E10 ; 0.0
156 ; 2118119.455994963 ; 2.0255732983032647E8 ; 3.3783328987235796E8 ; 2.981170450137772E10 ; 0.0
157 ; 2114636.9755778234 ; 2.0257015566464785E8 ; 3.399514093283529E8 ; 3.0014261831208046E10 ; 0.0
158 ; 2112319.023265324 ; 2.0258294236035627E8 ; 3.4206604630393076E8 ; 3.0216831986872692E10 ; 0.0
159 ; 2107452.5611261623 ; 2.0259568960580534E8 ; 3.4417836532719606E8 ; 3.0419414929233047E10 ; 0.0
160 ; 2105907.553306951 ; 2.0260839709181434E8 ; 3.4628581788832223E8 ; 3.0622010618838852E10 ; 0.0
161 ; 2100780.7481158357 ; 2.0262106451162073E8 ; 3.483917254416292E8 ; 3.0824619015930668E10 ; 0.0
162 ; 2096484.1222308865 ; 2.0263369156083468E8 ; 3.50492506189745E8 ; 3.1027240080442287E10 ; 0.0
163 ; 2093661.7815871972 ; 2.0264627793739504E8 ; 3.525889903119759E8 ; 3.122987377200312E10 ; 0.0
164 ; 2089133.9612396494 ; 2.026588233415276E8 ; 3.546826520935631E8 ; 3.1432520049940514E10 ; 0.0
165 ; 2087112.178538721 ; 2.0267132747570482E8 ; 3.567717860548027E8 ; 3.163517887328204E10 ; 0.0
166 ; 2083015.9434973518 ; 2.0268379004460704E8 ; 3.5885889823334146E8 ; 3.1837850200757744E10 ; 0.0
167 ; 2080302.4870993134 ; 2.026962107550855E8 ; 3.609419141768388E8 ; 3.204053399080235E10 ; 0.0
168 ; 2075197.5642604635 ; 2.027085893161268E8 ; 3.630222166639381E8 ; 3.2243230201557434E10 ; 0.0
169 ; 2074011.1859204143 ; 2.027209254388186E8 ; 3.650974142281986E8 ; 3.244593879087356E10 ; 0.0
170 ; 2068607.5295453435 ; 2.0273321883631703E8 ; 3.67171425414119E8 ; 3.264865971631238E10 ; 0.0
171 ; 2067479.7769241617 ; 2.0274546922381505E8 ; 3.692400329436644E8 ; 3.2851392935148697E10 ; 0.0
172 ; 2059047.4618222355 ; 2.027576763185123E8 ; 3.713075127205885E8 ; 3.3054138404372513E10 ; 0.0
173 ; 2056368.5667682502 ; 2.027698398395861E8 ; 3.733665601824107E8 ; 3.3256896080691025E10 ; 0.0
174 ; 2056575.5596105687 ; 2.0278195950816363E8 ; 3.7542292874917895E8 ; 3.345966592053061E10 ; 0.0
175 ; 2053871.3463968604 ; 2.0279403504729515E8 ; 3.774795043087895E8 ; 3.3662447880038773E10 ; 0.0
176 ; 2049369.0114379849 ; 2.0280606618192834E8 ; 3.7953337565518636E8 ; 3.3865241915086067E10 ; 0.0
177 ; 2044437.1066563812 ; 2.0281805263888356E8 ; 3.8158274466662437E8 ; 3.4068047981267994E10 ; 0.0
178 ; 2043142.2153694553 ; 2.028299941468304E8 ; 3.8362718177328074E8 ; 3.4270866033906876E10 ; 0.0
179 ; 2043276.2246039659 ; 2.0284189043626466E8 ; 3.856703239886502E8 ; 3.44736960280537E10 ; 0.0
180 ; 2039374.5734155145 ; 2.0285374123948678E8 ; 3.8771360021325415E8 ; 3.467653791848997E10 ; 0.0
181 ; 2036483.080543131 ; 2.0286554629058066E8 ; 3.897529747866697E8 ; 3.4879391659729454E10 ; 0.0
182 ; 2032589.9910475581 ; 2.0287730532539374E8 ; 3.9178945786721283E8 ; 3.5082257206020035E10 ; 0.0
183 ; 2031280.8763081213 ; 2.0288901808151743E8 ; 3.938220478582604E8 ; 3.528513451134543E10 ; 0.0
184 ; 2030019.7284057513 ; 2.0290068429826877E8 ; 3.9585332873456854E8 ; 3.548802352942695E10 ; 0.0
185 ; 2023999.220232693 ; 2.0291230371667245E8 ; 3.978833484629743E8 ; 3.569092421372522E10 ; 0.0
186 ; 2021542.550813284 ; 2.029238760794438E8 ; 3.99907347683207E8 ; 3.5893836517441895E10 ; 0.0
187 ; 2020492.6662014597 ; 2.0293540113097233E8 ; 4.0192889023402023E8 ; 3.609676039352134E10 ; 0.0
188 ; 2018247.235624836 ; 2.0294687861730582E8 ; 4.039493829002217E8 ; 3.629969579465231E10 ; 0.0
189 ; 2013695.6377808996 ; 2.0295830828613535E8 ; 4.0596763013584656E8 ; 3.650264267326962E10 ; 0.0
190 ; 2012746.453249268 ; 2.029696898867807E8 ; 4.0798132577362746E8 ; 3.6705600981555756E10 ; 0.0
191 ; 2011153.7914291283 ; 2.0298102317017636E8 ; 4.0999407222687674E8 ; 3.6908570671442535E10 ; 0.0
192 ; 2008607.5793045217 ; 2.029923078888581E8 ; 4.1200522601830584E8 ; 3.711155169461271E10 ; 0.0
193 ; 2003989.3991035565 ; 2.0300354379695025E8 ; 4.1401383359761035E8 ; 3.7314544002501564E10 ; 0.0
194 ; 2003388.8974467416 ; 2.0301473065015313E8 ; 4.1601782299671394E8 ; 3.7517547546298515E10 ; 0.0
195 ; 1999642.803282539 ; 2.0302586820573145E8 ; 4.180212118941607E8 ; 3.772056227694867E10 ; 0.0
196 ; 1996161.1947460123 ; 2.030369562225028E8 ; 4.2002085469744325E8 ; 3.79235881451544E10 ; 0.0
197 ; 1995206.9332706043 ; 2.030479944608267E8 ; 4.2201701589218926E8 ; 3.812662510137691E10 ; 0.0
198 ; 1990674.7221527789 ; 2.0305898268259436E8 ; 4.240122228254599E8 ; 3.832967309583773E10 ; 0.0
199 ; 1988725.3159255036 ; 2.0306992065121838E8 ; 4.2600289754761267E8 ; 3.8532732078520325E10 ; 0.0
