CSV File for the City 2 on Day 47
1 - Minute m 
2 - Power Consumed at minute m 
3 - Power Produced at minute m 
4 - Energy Consumed since the beginning of the day 
5 - Energy Produced since the beginning of the day 
6 - Energy Lost since the beginning of the day on lines starting from the city
 
0 ; 1776763.7031343158 ; 1.0521505647356233E8 ; 0.0 ; 0.0 ; 0.0
1 ; 1777628.5331487148 ; 1.0536895394540823E8 ; 1776763.7031343158 ; 1.0521505647356233E8 ; 0.0
2 ; 1779376.1978485594 ; 1.058315350120959E8 ; 3554392.2362830304 ; 2.1058401041897056E8 ; 0.0
3 ; 1783035.1048718886 ; 1.066028006100505E8 ; 5333768.43413159 ; 3.1641554543106645E8 ; 0.0
4 ; 1786104.489010873 ; 1.0768275159411657E8 ; 7116803.539003478 ; 4.2301834604111695E8 ; 0.0
5 ; 1789171.6073302962 ; 1.0907138872783893E8 ; 8902908.02801435 ; 5.307010976352335E8 ; 0.0
6 ; 1792930.0346511316 ; 1.1076871267440721E8 ; 1.0692079635344647E7 ; 6.397724863630724E8 ; 0.0
7 ; 1798334.9036866147 ; 1.1277472398850107E8 ; 1.248500966999578E7 ; 7.505411990374796E8 ; 0.0
8 ; 1808416.5039832108 ; 1.1508942310926104E8 ; 1.4283344573682394E7 ; 8.633159230259807E8 ; 0.0
9 ; 1821569.7539545263 ; 1.1771281035458791E8 ; 1.6091761077665605E7 ; 9.784053461352417E8 ; 0.0
10 ; 1845047.9926142094 ; 1.2064488591694051E8 ; 1.791333083162013E7 ; 1.0961181564898295E9 ; 0.0
11 ; 1877256.9394974196 ; 1.2388564986076078E8 ; 1.975837882423434E7 ; 1.21676304240677E9 ; 0.0
12 ; 1932186.899143909 ; 1.2743510212160674E8 ; 2.163563576373176E7 ; 1.3406486922675307E9 ; 0.0
13 ; 1983737.5296079186 ; 1.3129324250701958E8 ; 2.3567822662875667E7 ; 1.4680837943891375E9 ; 0.0
14 ; 1989962.8087306304 ; 1.354600706990986E8 ; 2.5551560192483585E7 ; 1.599377036896157E9 ; 0.0
15 ; 1991706.074586583 ; 1.399355862587031E8 ; 2.7541523001214217E7 ; 1.7348371075952556E9 ; 0.0
16 ; 1993527.6039910147 ; 1.447197886311536E8 ; 2.95332290758008E7 ; 1.8747726938539586E9 ; 0.0
17 ; 1996368.1699631014 ; 1.4981267715326038E8 ; 3.152675667979181E7 ; 2.0194924824851122E9 ; 0.0
18 ; 1999622.5298194056 ; 1.552142510614786E8 ; 3.3523124849754915E7 ; 2.1693051596383724E9 ; 0.0
19 ; 2002234.7874408828 ; 1.6092450950096378E8 ; 3.552274737957432E7 ; 2.324519410699851E9 ; 0.0
20 ; 2004357.0990228467 ; 1.669434515352907E8 ; 3.75249821670152E7 ; 2.4854439202008147E9 ; 0.0
21 ; 2006773.2293166819 ; 1.7327107615659848E8 ; 3.9529339266038045E7 ; 2.6523873717361054E9 ; 0.0
22 ; 2009924.4991047268 ; 1.7990738229593062E8 ; 4.153611249535473E7 ; 2.825658447892704E9 ; 0.0
23 ; 2011113.307959182 ; 1.8685236883355695E8 ; 4.354603699445945E7 ; 3.005565830188635E9 ; 0.0
24 ; 2014491.074366645 ; 1.9410603460908425E8 ; 4.5557150302418634E7 ; 3.192418199022192E9 ; 0.0
25 ; 2017591.2484674267 ; 2.0035641932937595E8 ; 4.757164137678528E7 ; 3.386524233631276E9 ; 0.0
26 ; 2019641.7103325108 ; 2.0035706961467156E8 ; 4.958923262525271E7 ; 3.586880652960652E9 ; 0.0
27 ; 2020258.076584632 ; 2.003577535320964E8 ; 5.160887433558522E7 ; 3.7872377225753236E9 ; 0.0
28 ; 2024804.948468611 ; 2.003584698503457E8 ; 5.362913241216985E7 ; 3.98759547610742E9 ; 0.0
29 ; 2024188.3780304827 ; 2.003592173400977E8 ; 5.565393736063846E7 ; 4.1879539459577656E9 ; 0.0
30 ; 2029196.5007656852 ; 2.0035999478041252E8 ; 5.767812573866895E7 ; 4.388313163297863E9 ; 0.0
31 ; 2029735.5972064412 ; 2.0036080096435902E8 ; 5.970732223943464E7 ; 4.588673158078276E9 ; 0.0
32 ; 2032974.2402086146 ; 2.0036163470388368E8 ; 6.173705783664108E7 ; 4.789033959042635E9 ; 0.0
33 ; 2033923.4557056634 ; 2.0036249483395073E8 ; 6.37700320768497E7 ; 4.989395593746519E9 ; 0.0
34 ; 2036083.6469668415 ; 2.0036338021599302E8 ; 6.5803955532555364E7 ; 5.18975808858047E9 ; 0.0
35 ; 2038809.9386024894 ; 2.0036428974072158E8 ; 6.78400391795222E7 ; 5.390121468796463E9 ; 0.0
36 ; 2041000.0241204747 ; 2.0036522233034632E8 ; 6.98788491181247E7 ; 5.590485758537185E9 ; 0.0
37 ; 2043410.7003382896 ; 2.0036617694026315E8 ; 7.191984914224517E7 ; 5.790850980867531E9 ; 0.0
38 ; 2043998.6308218013 ; 2.0036715256026435E8 ; 7.396325984258346E7 ; 5.991217157807794E9 ; 0.0
39 ; 2046263.1732841325 ; 2.0036814821532643E8 ; 7.600725847340526E7 ; 6.191584310368058E9 ; 0.0
40 ; 2048392.2868072898 ; 2.0036916296602988E8 ; 7.805352164668939E7 ; 6.3919524585833845E9 ; 0.0
41 ; 2049370.1631317616 ; 2.0037019590866032E8 ; 8.010191393349667E7 ; 6.592321621549415E9 ; 0.0
42 ; 2049850.094358494 ; 2.003712461750387E8 ; 8.215128409662843E7 ; 6.792691817458075E9 ; 0.0
43 ; 2053618.2465606069 ; 2.0037231293212312E8 ; 8.420113419098692E7 ; 6.993063063633113E9 ; 0.0
44 ; 2053752.2864646097 ; 2.0037339538142163E8 ; 8.625475243754752E7 ; 7.193435376565236E9 ; 0.0
45 ; 2055445.3542157586 ; 2.003744927582512E8 ; 8.830850472401214E7 ; 7.393808771946658E9 ; 0.0
46 ; 2055869.2017867449 ; 2.0037560433087355E8 ; 9.036395007822789E7 ; 7.594183264704909E9 ; 0.0
47 ; 2056586.3473566675 ; 2.003767293995358E8 ; 9.241981928001463E7 ; 7.794558869035783E9 ; 0.0
48 ; 2057144.6219780422 ; 2.0037786729543927E8 ; 9.44764056273713E7 ; 7.994935598435319E9 ; 0.0
49 ; 2058994.8629259204 ; 2.0037901737965757E8 ; 9.653355024934934E7 ; 8.195313465730759E9 ; 0.0
50 ; 2059072.969225949 ; 2.0038017904202095E8 ; 9.859254511227526E7 ; 8.395692483110416E9 ; 0.0
51 ; 2060041.338129714 ; 2.0038135169998252E8 ; 1.006516180815012E8 ; 8.596072662152437E9 ; 0.0
52 ; 2061165.051671915 ; 2.0038253479747844E8 ; 1.0271165941963091E8 ; 8.796454013852419E9 ; 0.0
53 ; 2061302.1464004668 ; 2.0038372780379254E8 ; 1.0477282447130284E8 ; 8.996836548649897E9 ; 0.0
54 ; 2061817.0824005904 ; 2.0038493021243408E8 ; 1.068341266177033E8 ; 9.19722027645369E9 ; 0.0
55 ; 2061602.618173269 ; 2.0038614154003522E8 ; 1.088959437001039E8 ; 9.397605206666124E9 ; 0.0
56 ; 2062621.6172921308 ; 2.0038736132527408E8 ; 1.1095754631827717E8 ; 9.59799134820616E9 ; 0.0
57 ; 2062755.7460803818 ; 2.0038858912782726E8 ; 1.130201679355693E8 ; 9.798378709531433E9 ; 0.0
58 ; 2063083.1571743854 ; 2.0038982452735516E8 ; 1.1508292368164968E8 ; 9.99876729865926E9 ; 0.0
59 ; 2064858.5618609383 ; 2.0039106712252274E8 ; 1.1714600683882406E8 ; 1.0199157123186615E10 ; 0.0
60 ; 2065162.0051079113 ; 2.0039231653005648E8 ; 1.19210865400685E8 ; 1.0399548190309137E10 ; 0.0
61 ; 2065025.8904951317 ; 2.003935723838396E8 ; 1.212760274057929E8 ; 1.0599940506839193E10 ; 0.0
62 ; 2064970.7113482717 ; 2.003948343340451E8 ; 1.2334105329628804E8 ; 1.0800334079223034E10 ; 0.0
63 ; 2065513.9583843115 ; 2.0039610204630703E8 ; 1.2540602400763631E8 ; 1.100072891355708E10 ; 0.0
64 ; 2065352.110722393 ; 2.003973752009294E8 ; 1.2747153796602061E8 ; 1.1201125015603386E10 ; 0.0
65 ; 2064754.5594842602 ; 2.0039865349213284E8 ; 1.29536890076743E8 ; 1.1401522390804316E10 ; 0.0
66 ; 2065750.8351360885 ; 2.0039993662733713E8 ; 1.3160164463622727E8 ; 1.1601921044296448E10 ; 0.0
67 ; 2067703.8312659317 ; 2.0040122432647938E8 ; 1.3366739547136335E8 ; 1.1802320980923784E10 ; 0.0
68 ; 2066905.7457622157 ; 2.004025163213667E8 ; 1.357350993026293E8 ; 1.2002722205250263E10 ; 0.0
69 ; 2067550.4553020203 ; 2.0040381235506174E8 ; 1.3780200504839152E8 ; 1.220312472157163E10 ; 0.0
70 ; 2066753.0783903187 ; 2.004051121813002E8 ; 1.3986955550369355E8 ; 1.2403528533926693E10 ; 0.0
71 ; 2068323.0952906802 ; 2.00406415563939E8 ; 1.4193630858208388E8 ; 1.2603933646107994E10 ; 0.0
72 ; 2067792.3284945567 ; 2.0040772227643356E8 ; 1.4400463167737457E8 ; 1.2804340061671932E10 ; 0.0
73 ; 2066767.502171233 ; 2.004090321013431E8 ; 1.4607242400586912E8 ; 1.3004747783948366E10 ; 0.0
74 ; 2067333.2948628508 ; 2.0041034482986248E8 ; 1.4813919150804034E8 ; 1.320515681604971E10 ; 0.0
75 ; 2068831.8674292031 ; 2.004116602613794E8 ; 1.5020652480290318E8 ; 1.3405567160879572E10 ; 0.0
76 ; 2067663.096683941 ; 2.0041297820305568E8 ; 1.5227535667033237E8 ; 1.3605978821140951E10 ; 0.0
77 ; 2068465.6211944572 ; 2.0041429846943143E8 ; 1.5434301976701632E8 ; 1.3806391799344007E10 ; 0.0
78 ; 2066929.3199863485 ; 2.004156208820507E8 ; 1.5641148538821077E8 ; 1.4006806097813438E10 ; 0.0
79 ; 2067434.553025146 ; 2.004169452691077E8 ; 1.5847841470819712E8 ; 1.420722171869549E10 ; 0.0
80 ; 2065548.2184641808 ; 2.0041827146511254E8 ; 1.6054584926122227E8 ; 1.4407638663964598E10 ; 0.0
81 ; 2066100.837716245 ; 2.0041959931057522E8 ; 1.6261139747968644E8 ; 1.460805693542971E10 ; 0.0
82 ; 2063192.4782327525 ; 2.0042092865170687E8 ; 1.646774983174027E8 ; 1.4808476534740286E10 ; 0.0
83 ; 2064060.4081063238 ; 2.0042225934013754E8 ; 1.6674069079563543E8 ; 1.5008897463391993E10 ; 0.0
84 ; 2063272.752047877 ; 2.0042359123264936E8 ; 1.6880475120374176E8 ; 1.520931972273213E10 ; 0.0
85 ; 2062299.9255838108 ; 2.0042492419092426E8 ; 1.7086802395578963E8 ; 1.5409743313964779E10 ; 0.0
86 ; 2062142.4035953726 ; 2.0042625808130556E8 ; 1.7293032388137344E8 ; 1.5610168238155703E10 ; 0.0
87 ; 2060565.1188592566 ; 2.0042759277457246E8 ; 1.749924662849688E8 ; 1.581059449623701E10 ; 0.0
88 ; 2061240.9357503895 ; 2.004289281457269E8 ; 1.7705303140382805E8 ; 1.6011022089011581E10 ; 0.0
89 ; 2058296.3597183141 ; 2.004302640737918E8 ; 1.7911427233957845E8 ; 1.6211451017157309E10 ; 0.0
90 ; 2058542.9029693173 ; 2.0043160044162035E8 ; 1.8117256869929677E8 ; 1.64118812812311E10 ; 0.0
91 ; 2059002.195208717 ; 2.0043293713571548E8 ; 1.832311116022661E8 ; 1.661231288167272E10 ; 0.0
92 ; 2056874.2068539087 ; 2.004342740460591E8 ; 1.8529011379747483E8 ; 1.6812745818808435E10 ; 0.0
93 ; 2055491.0059749275 ; 2.004356110659504E8 ; 1.8734698800432873E8 ; 1.7013180092854494E10 ; 0.0
94 ; 2053637.8874457977 ; 2.004369480918527E8 ; 1.8940247901030365E8 ; 1.7213615703920444E10 ; 0.0
95 ; 2053260.6533796422 ; 2.004382850232486E8 ; 1.9145611689774945E8 ; 1.74140526520123E10 ; 0.0
96 ; 2052534.7188981397 ; 2.0043962176250267E8 ; 1.935093775511291E8 ; 1.7614490937035545E10 ; 0.0
97 ; 2051247.051026167 ; 2.0044095821473128E8 ; 1.9556191227002725E8 ; 1.781493055879805E10 ; 0.0
98 ; 2050428.9093691423 ; 2.004422942876794E8 ; 1.9761315932105342E8 ; 1.8015371517012783E10 ; 0.0
99 ; 2048953.1031088582 ; 2.004436298916037E8 ; 1.9966358823042256E8 ; 1.821581381130046E10 ; 0.0
100 ; 2049612.5953253645 ; 2.0044496493916187E8 ; 2.017125413335314E8 ; 1.8416257441192066E10 ; 0.0
101 ; 2048218.5435834834 ; 2.0044629934530732E8 ; 2.0376215392885676E8 ; 1.861670240613123E10 ; 0.0
102 ; 2047304.7532122405 ; 2.0044763302718973E8 ; 2.0581037247244024E8 ; 1.8817148705476536E10 ; 0.0
103 ; 2045505.7335101706 ; 2.0044896590406033E8 ; 2.078576772256525E8 ; 1.9017596338503727E10 ; 0.0
104 ; 2043629.3759880958 ; 2.0045029789718217E8 ; 2.0990318295916265E8 ; 1.9218045304407787E10 ; 0.0
105 ; 2041967.3592222221 ; 2.004516289297448E8 ; 2.1194681233515075E8 ; 1.941849560230497E10 ; 0.0
106 ; 2041596.9092422295 ; 2.004529589267834E8 ; 2.1398877969437298E8 ; 1.9618947231234715E10 ; 0.0
107 ; 2041335.2483390463 ; 2.004542878151019E8 ; 2.1603037660361522E8 ; 1.98194001901615E10 ; 0.0
108 ; 2039118.0627693203 ; 2.0045561552319974E8 ; 2.1807171185195428E8 ; 2.00198544779766E10 ; 0.0
109 ; 2038788.5234063298 ; 2.004569419812027E8 ; 2.201108299147236E8 ; 2.02203100934998E10 ; 0.0
110 ; 2036537.621252814 ; 2.004582671207965E8 ; 2.2214961843812993E8 ; 2.0420767035481003E10 ; 0.0
111 ; 2035040.246555176 ; 2.0045959087516442E8 ; 2.2418615605938274E8 ; 2.06212253026018E10 ; 0.0
112 ; 2033222.091648457 ; 2.004609131789272E8 ; 2.2622119630593792E8 ; 2.0821684893476963E10 ; 0.0
113 ; 2032862.2260817476 ; 2.004622339680864E8 ; 2.2825441839758638E8 ; 2.102214580665589E10 ; 0.0
114 ; 2031041.930090481 ; 2.004635531799702E8 ; 2.3028728062366813E8 ; 2.1222608040623978E10 ; 0.0
115 ; 2029833.9455546355 ; 2.00464870753182E8 ; 2.3231832255375862E8 ; 2.1423071593803947E10 ; 0.0
116 ; 2028469.2058714854 ; 2.0046618662755123E8 ; 2.3434815649931327E8 ; 2.162353646455713E10 ; 0.0
117 ; 2026354.4455825633 ; 2.004675007440868E8 ; 2.3637662570518476E8 ; 2.182400265118468E10 ; 0.0
118 ; 2027393.8005907899 ; 2.004688130449324E8 ; 2.3840298015076733E8 ; 2.202447015192877E10 ; 0.0
119 ; 2024218.2816119934 ; 2.0047012347332415E8 ; 2.404303739513581E8 ; 2.22249389649737E10 ; 0.0
120 ; 2022838.1204902788 ; 2.004714319735502E8 ; 2.424545922329701E8 ; 2.2425409088447025E10 ; 0.0
121 ; 2021556.8823950288 ; 2.004727384909121E8 ; 2.4447743035346037E8 ; 2.2625880520420574E10 ; 0.0
122 ; 2019710.8354700948 ; 2.0047404297168794E8 ; 2.464989872358554E8 ; 2.2826353258911488E10 ; 0.0
123 ; 2017657.0795316473 ; 2.004753453630974E8 ; 2.4851869807132548E8 ; 2.3026827301883175E10 ; 0.0
124 ; 2016620.721220759 ; 2.004766456132681E8 ; 2.5053635515085712E8 ; 2.3227302647246273E10 ; 0.0
125 ; 2013550.5390864273 ; 2.0047794367120373E8 ; 2.5255297587207788E8 ; 2.3427779292859543E10 ; 0.0
126 ; 2013934.7306241756 ; 2.004792394867535E8 ; 2.545665264111643E8 ; 2.3628257236530746E10 ; 0.0
127 ; 2011021.2317744286 ; 2.0048053301058286E8 ; 2.5658046114178848E8 ; 2.38287364760175E10 ; 0.0
128 ; 2011038.8746910698 ; 2.004818241941458E8 ; 2.585914823735629E8 ; 2.4029217009028084E10 ; 0.0
129 ; 2008792.4810831123 ; 2.0048311298965818E8 ; 2.6060252124825397E8 ; 2.422969883322223E10 ; 0.0
130 ; 2004971.2318482252 ; 2.004843993500722E8 ; 2.626113137293371E8 ; 2.4430181946211887E10 ; 0.0
131 ; 2003232.3317311967 ; 2.0048568322905225E8 ; 2.6461628496118534E8 ; 2.463066634556196E10 ; 0.0
132 ; 2000948.152750086 ; 2.0048696458095148E8 ; 2.6661951729291654E8 ; 2.483115202879101E10 ; 0.0
133 ; 2000027.6813303642 ; 2.004882433607897E8 ; 2.686204654456666E8 ; 2.5031638993371964E10 ; 0.0
134 ; 1996762.9692834467 ; 2.0048951952423194E8 ; 2.70620493126997E8 ; 2.5232127236732754E10 ; 0.0
135 ; 1993670.139263728 ; 2.004907930275683E8 ; 2.7261725609628046E8 ; 2.5432616756256985E10 ; 0.0
136 ; 1990624.57082823 ; 2.0049206382769424E8 ; 2.746109262355442E8 ; 2.5633107549284554E10 ; 0.0
137 ; 1989299.4286073856 ; 2.0049333188209212E8 ; 2.7660155080637246E8 ; 2.5833599613112247E10 ; 0.0
138 ; 1986858.0437919085 ; 2.004945971488132E8 ; 2.7859085023497987E8 ; 2.603409294499434E10 ; 0.0
139 ; 1985043.0558428387 ; 2.0049585958646053E8 ; 2.8057770827877176E8 ; 2.623458754214315E10 ; 0.0
140 ; 1981661.9461611242 ; 2.0049711915417275E8 ; 2.825627513346146E8 ; 2.643508340172961E10 ; 0.0
141 ; 1979510.221697856 ; 2.0049837581160814E8 ; 2.845444132807757E8 ; 2.663558052088378E10 ; 0.0
142 ; 1976970.0016984507 ; 2.0049962951892972E8 ; 2.865239235024736E8 ; 2.683607889669539E10 ; 0.0
143 ; 1974226.3249533686 ; 2.0050088023679078E8 ; 2.88500893504172E8 ; 2.7036578526214317E10 ; 0.0
144 ; 1970390.1183542516 ; 2.005021279263211E8 ; 2.904751198291254E8 ; 2.7237079406451107E10 ; 0.0
145 ; 1970514.6928143268 ; 2.0050337254911357E8 ; 2.9244550994747967E8 ; 2.743758153437743E10 ; 0.0
146 ; 1967937.1921072868 ; 2.0050461406721172E8 ; 2.94416024640294E8 ; 2.7638084906926544E10 ; 0.0
147 ; 1965548.0122872225 ; 2.0050585244309717E8 ; 2.963839618324013E8 ; 2.7838589520993755E10 ; 0.0
148 ; 1963916.3568629527 ; 2.0050708763967824E8 ; 2.983495098446885E8 ; 2.803909537343685E10 ; 0.0
149 ; 1961787.3284035127 ; 2.005083196202786E8 ; 3.0031342620155144E8 ; 2.823960246107653E10 ; 0.0
150 ; 1961121.8024028516 ; 2.0050954834862638E8 ; 3.0227521352995497E8 ; 2.8440110780696808E10 ; 0.0
151 ; 1958127.5222055793 ; 2.0051077378884408E8 ; 3.042363353323578E8 ; 2.8640620329045433E10 ; 0.0
152 ; 1956521.1830098752 ; 2.0051199590543833E8 ; 3.061944628545634E8 ; 2.884113110283428E10 ; 0.0
153 ; 1954574.2816461523 ; 2.0051321466329062E8 ; 3.081509840375733E8 ; 2.9041643098739716E10 ; 0.0
154 ; 1952845.5552042956 ; 2.0051443002764797E8 ; 3.101055583192194E8 ; 2.9242156313403008E10 ; 0.0
155 ; 1950904.2155527475 ; 2.0051564196411416E8 ; 3.120584038744237E8 ; 2.9442670743430656E10 ; 0.0
156 ; 1949107.100661624 ; 2.0051685043864134E8 ; 3.1400930808997643E8 ; 2.964318638539477E10 ; 0.0
157 ; 1946383.1918889112 ; 2.0051805541752177E8 ; 3.1595841519063807E8 ; 2.9843703235833412E10 ; 0.0
158 ; 1944610.7653853558 ; 2.0051925686738017E8 ; 3.17904798382527E8 ; 3.0044221291250935E10 ; 0.0
159 ; 1942605.059292477 ; 2.005204547551661E8 ; 3.198494091479123E8 ; 3.0244740548118317E10 ; 0.0
160 ; 1940945.7000167286 ; 2.0052164904814675E8 ; 3.217920142072048E8 ; 3.044526100287348E10 ; 0.0
161 ; 1939446.572350948 ; 2.005228397139001E8 ; 3.2373295990722156E8 ; 3.0645782651921627E10 ; 0.0
162 ; 1936482.392998561 ; 2.0052402672030804E8 ; 3.256724064795725E8 ; 3.084630549163553E10 ; 0.0
163 ; 1934947.3186947617 ; 2.005252100355502E8 ; 3.2760888887257105E8 ; 3.1046829518355835E10 ; 0.0
164 ; 1933353.3103989796 ; 2.0052638962809765E8 ; 3.295438361912658E8 ; 3.1247354728391384E10 ; 0.0
165 ; 1931539.826679406 ; 2.0052756546670687E8 ; 3.314771895016648E8 ; 3.144788111801948E10 ; 0.0
166 ; 1930994.8685498093 ; 2.0052873752041426E8 ; 3.334087293283442E8 ; 3.1648408683486187E10 ; 0.0
167 ; 1927647.30075546 ; 2.005299057585304E8 ; 3.3533972419689405E8 ; 3.18489374210066E10 ; 0.0
168 ; 1924836.3013428624 ; 2.0053107015063497E8 ; 3.372673714976495E8 ; 3.204946732676513E10 ; 0.0
169 ; 1923798.8331606018 ; 2.0053223066657147E8 ; 3.3919220779899234E8 ; 3.2249998396915764E10 ; 0.0
170 ; 1922050.9316331234 ; 2.005333872764425E8 ; 3.411160066321529E8 ; 3.2450530627582336E10 ; 0.0
171 ; 1919396.9097579364 ; 2.0053453995060486E8 ; 3.4303805756378603E8 ; 3.265106401485878E10 ; 0.0
172 ; 1918272.2501459406 ; 2.0053568865966514E8 ; 3.4495745447354394E8 ; 3.2851598554809383E10 ; 0.0
173 ; 1915046.8525423852 ; 2.0053683337447527E8 ; 3.4687572672368985E8 ; 3.3052134243469048E10 ; 0.0
174 ; 1915240.2730037011 ; 2.0053797406612834E8 ; 3.4879077357623225E8 ; 3.325267107684352E10 ; 0.0
175 ; 1912806.1083039495 ; 2.0053911070595452E8 ; 3.5070601384923595E8 ; 3.345320905090965E10 ; 0.0
176 ; 1911155.11284652 ; 2.005402432655172E8 ; 3.526188199575399E8 ; 3.3653748161615604E10 ; 0.0
177 ; 1910004.2834760942 ; 2.0054137171660912E8 ; 3.545299750703864E8 ; 3.3854288404881123E10 ; 0.0
178 ; 1908898.9972336472 ; 2.0054249603124887E8 ; 3.564399793538625E8 ; 3.4054829776597733E10 ; 0.0
179 ; 1908754.5747276607 ; 2.0054361618167728E8 ; 3.5834887835109615E8 ; 3.4255372272628983E10 ; 0.0
180 ; 1907756.6729282055 ; 2.0054473214035413E8 ; 3.602576329258238E8 ; 3.445591588881066E10 ; 0.0
181 ; 1904818.4838035635 ; 2.005458438799549E8 ; 3.62165389598752E8 ; 3.465646062095101E10 ; 0.0
182 ; 1904035.8590477207 ; 2.0054695137336755E8 ; 3.640702080825556E8 ; 3.485700646483096E10 ; 0.0
183 ; 1902830.6205963877 ; 2.0054805459368965E8 ; 3.659742439416033E8 ; 3.505755341620433E10 ; 0.0
184 ; 1901223.4900955167 ; 2.005491535142254E8 ; 3.678770745621997E8 ; 3.525810147079802E10 ; 0.0
185 ; 1899574.612986046 ; 2.0055024810848278E8 ; 3.697782980522952E8 ; 3.545865062431225E10 ; 0.0
186 ; 1898950.3381510517 ; 2.0055133835017097E8 ; 3.7167787266528124E8 ; 3.565920087242073E10 ; 0.0
187 ; 1898321.258119479 ; 2.0055242421319762E8 ; 3.735768230034323E8 ; 3.5859752210770905E10 ; 0.0
188 ; 1896495.9718663625 ; 2.0055350567166644E8 ; 3.7547514426155174E8 ; 3.60603046349841E10 ; 0.0
189 ; 1895177.6618109234 ; 2.0055458269987476E8 ; 3.773716402334181E8 ; 3.626085814065577E10 ; 0.0
190 ; 1894143.652149735 ; 2.005556552723112E8 ; 3.7926681789522904E8 ; 3.6461412723355644E10 ; 0.0
191 ; 1892729.263211765 ; 2.005567233636534E8 ; 3.811609615473788E8 ; 3.666196837862795E10 ; 0.0
192 ; 1892071.434698459 ; 2.005577869487658E8 ; 3.8305369081059057E8 ; 3.686252510199161E10 ; 0.0
193 ; 1891004.4280993142 ; 2.0055884600269777E8 ; 3.84945762245289E8 ; 3.706308288894038E10 ; 0.0
194 ; 1889103.761721781 ; 2.0055990050068128E8 ; 3.8683676667338836E8 ; 3.726364173494308E10 ; 0.0
195 ; 1888851.724064368 ; 2.0056095041812924E8 ; 3.8872587043511015E8 ; 3.7464201635443756E10 ; 0.0
196 ; 1886875.990433465 ; 2.0056199573063347E8 ; 3.906147221591745E8 ; 3.7664762585861885E10 ; 0.0
197 ; 1884905.5254832315 ; 2.0056303641396296E8 ; 3.9250159814960796E8 ; 3.786532458159252E10 ; 0.0
198 ; 1884640.4809638667 ; 2.0056407244406208E8 ; 3.943865036750912E8 ; 3.8065887618006485E10 ; 0.0
199 ; 1883931.2750483353 ; 2.0056510379704893E8 ; 3.962711441560551E8 ; 3.826645169045055E10 ; 0.0
