CSV File for the City 6 on Day 242
1 - Minute m 
2 - Power Consumed at minute m 
3 - Power Produced at minute m 
4 - Energy Consumed since the beginning of the day 
5 - Energy Produced since the beginning of the day 
6 - Energy Lost since the beginning of the day on lines starting from the city
 
0 ; 1734040.45151206 ; 1.0550141316214612E8 ; 0.0 ; 0.0 ; 0.0
1 ; 1744444.22539437 ; 1.0564983247032398E8 ; 1734040.45151206 ; 1.0550141316214612E8 ; 0.0
2 ; 1754420.5807595896 ; 1.0610742396658465E8 ; 3478484.67690643 ; 2.111512456324701E8 ; 0.0
3 ; 1766715.4786834945 ; 1.0687421444244534E8 ; 5232905.25766602 ; 3.1725866959905475E8 ; 0.0
4 ; 1790292.1453281532 ; 1.0795022943340671E8 ; 6999620.736349514 ; 4.241328840415001E8 ; 0.0
5 ; 1809075.1058245113 ; 1.0933549266354853E8 ; 8789912.881677667 ; 5.320831134749068E8 ; 0.0
6 ; 1831814.7770787135 ; 1.1103002547343674E8 ; 1.0598987987502178E7 ; 6.414186061384554E8 ; 0.0
7 ; 1869981.7450637957 ; 1.1303384625824535E8 ; 1.2430802764580892E7 ; 7.524486316118921E8 ; 0.0
8 ; 1927833.7292358289 ; 1.1534696994677418E8 ; 1.4300784509644687E7 ; 8.654824778701375E8 ; 0.0
9 ; 2003962.2574352312 ; 1.1796940755328155E8 ; 1.6228618238880515E7 ; 9.808294478169117E8 ; 0.0
10 ; 2132578.766535985 ; 1.2090116583207726E8 ; 1.8232580496315747E7 ; 1.0987988553701932E9 ; 0.0
11 ; 2330329.6758790407 ; 1.2414224705945441E8 ; 2.0365159262851734E7 ; 1.2197000212022705E9 ; 0.0
12 ; 2648770.645870801 ; 1.2769264895911989E8 ; 2.2695488938730776E7 ; 1.343842268261725E9 ; 0.0
13 ; 2949900.3980569784 ; 1.3155236477676386E8 ; 2.5344259584601577E7 ; 1.4715349172208447E9 ; 0.0
14 ; 2985433.658306644 ; 1.3572138349812812E8 ; 2.8294159982658558E7 ; 1.6030872819976087E9 ; 0.0
15 ; 3002267.8444649265 ; 1.401996901944127E8 ; 3.12795936409652E7 ; 1.7388086654957368E9 ; 0.0
16 ; 3016557.4708658783 ; 1.4498726647044376E8 ; 3.428186148543013E7 ; 1.8790083556901495E9 ; 0.0
17 ; 3033875.073817896 ; 1.5008409098565522E8 ; 3.7298418956296004E7 ; 2.0239956221605933E9 ; 0.0
18 ; 3050070.1948368717 ; 1.5549014001596737E8 ; 4.03322940301139E7 ; 2.1740797131462483E9 ; 0.0
19 ; 3065624.399908594 ; 1.6120538802587953E8 ; 4.338236422495077E7 ; 2.3295698531622157E9 ; 0.0
20 ; 3078785.6466007084 ; 1.6722980822387448E8 ; 4.644798862485936E7 ; 2.490775241188095E9 ; 0.0
21 ; 3095621.3239946156 ; 1.7356337307967404E8 ; 4.952677427146007E7 ; 2.6580050494119697E9 ; 0.0
22 ; 3112238.192396019 ; 1.802060547880475E8 ; 5.2622395595454685E7 ; 2.831568422491644E9 ; 0.0
23 ; 3126833.408533165 ; 1.871578256699568E8 ; 5.573463378785071E7 ; 3.011774477279691E9 ; 0.0
24 ; 3140981.797323685 ; 1.9441865850722617E8 ; 5.886146719638387E7 ; 3.198932302949648E9 ; 0.0
25 ; 3154278.083841088 ; 2.0067656770949706E8 ; 6.200244899370755E7 ; 3.393350961456874E9 ; 0.0
26 ; 3171742.1634695106 ; 2.0068507555781367E8 ; 6.515672707754864E7 ; 3.594027529166371E9 ; 0.0
27 ; 3184341.006265263 ; 2.006939268800884E8 ; 6.832846924101815E7 ; 3.7947126047241845E9 ; 0.0
28 ; 3199828.602802266 ; 2.007030983994406E8 ; 7.151281024728341E7 ; 3.995406531604273E9 ; 0.0
29 ; 3216223.566493365 ; 2.0071256808755887E8 ; 7.471263885008568E7 ; 4.1961096300037136E9 ; 0.0
30 ; 3229794.97952517 ; 2.0072231519077197E8 ; 7.792886241657904E7 ; 4.396822198091272E9 ; 0.0
31 ; 3242087.571229749 ; 2.0073232022896117E8 ; 8.11586573961042E7 ; 4.597544513282044E9 ; 0.0
32 ; 3260375.777866717 ; 2.007425649734705E8 ; 8.440074496733396E7 ; 4.798276833511005E9 ; 0.0
33 ; 3269417.2589640254 ; 2.0075303240934092E8 ; 8.766112074520068E7 ; 4.999019398484476E9 ; 0.0
34 ; 3286244.6368703824 ; 2.0076370668635157E8 ; 9.093053800416471E7 ; 5.199772430893817E9 ; 0.0
35 ; 3298769.8062153063 ; 2.007745730625509E8 ; 9.42167826410351E7 ; 5.400536137580169E9 ; 0.0
36 ; 3312202.1317112977 ; 2.007856178432333E8 ; 9.75155524472504E7 ; 5.601310710642719E9 ; 0.0
37 ; 3327532.70114705 ; 2.0079682831768194E8 ; 1.008277545789617E8 ; 5.802096328485952E9 ; 0.0
38 ; 3340358.108589362 ; 2.008081926954575E8 ; 1.0415528728010875E8 ; 6.002893156803635E9 ; 0.0
39 ; 3351674.611128283 ; 2.0081970004356056E8 ; 1.0749564538869812E8 ; 6.203701349499092E9 ; 0.0
40 ; 3355356.9901832263 ; 2.0083134022542986E8 ; 1.108473199998264E8 ; 6.404521049542653E9 ; 0.0
41 ; 3374236.162426144 ; 2.008431038424427E8 ; 1.1420267699000962E8 ; 6.605352389768083E9 ; 0.0
42 ; 3384235.5093716825 ; 2.0085498217835355E8 ; 1.1757691315243576E8 ; 6.806195493610525E9 ; 0.0
43 ; 3389052.849795183 ; 2.0086696714692643E8 ; 1.2096114866180745E8 ; 7.007050475788878E9 ; 0.0
44 ; 3398877.691932308 ; 2.0087905124288136E8 ; 1.2435020151160263E8 ; 7.207917442935805E9 ; 0.0
45 ; 3412903.7716053366 ; 2.0089122749617338E8 ; 1.2774907920353493E8 ; 7.408796494178687E9 ; 0.0
46 ; 3416148.354902985 ; 2.0090348942954946E8 ; 1.3116198297514027E8 ; 7.60968772167486E9 ; 0.0
47 ; 3425571.1646163138 ; 2.0091583101927617E8 ; 1.3457813133004326E8 ; 7.810591211104409E9 ; 0.0
48 ; 3431083.2154495767 ; 2.0092824665889725E8 ; 1.3800370249465957E8 ; 8.011507042123686E9 ; 0.0
49 ; 3436782.610411994 ; 2.0094073112585714E8 ; 1.4143478571010914E8 ; 8.212435288782583E9 ; 0.0
50 ; 3445258.070332124 ; 2.009532795508157E8 ; 1.4487156832052115E8 ; 8.413376019908441E9 ; 0.0
51 ; 3451353.4779889486 ; 2.0096588738947362E8 ; 1.4831682639085326E8 ; 8.614329299459257E9 ; 0.0
52 ; 3455213.262332328 ; 2.0097855039672884E8 ; 1.517681798688422E8 ; 8.81529518684873E9 ; 0.0
53 ; 3460322.764377971 ; 2.00991264602989E8 ; 1.5522339313117453E8 ; 9.016273737245459E9 ; 0.0
54 ; 3466985.9789180695 ; 2.0100402629247043E8 ; 1.5868371589555252E8 ; 9.217265001848448E9 ; 0.0
55 ; 3473356.939942248 ; 2.010168319833245E8 ; 1.621507018744706E8 ; 9.418269028140919E9 ; 0.0
56 ; 3477019.349873742 ; 2.0102967840943956E8 ; 1.6562405881441283E8 ; 9.619285860124243E9 ; 0.0
57 ; 3484300.25563592 ; 2.01042562503778E8 ; 1.6910107816428658E8 ; 9.820315538533682E9 ; 0.0
58 ; 3485759.5773472833 ; 2.0105548138311768E8 ; 1.725853784199225E8 ; 1.002135810103746E10 ; 0.0
59 ; 3491044.082903586 ; 2.0106843233407614E8 ; 1.7607113799726978E8 ; 1.0222413582420578E10 ; 0.0
60 ; 3501317.4860448223 ; 2.0108141280030668E8 ; 1.7956218208017337E8 ; 1.0423482014754654E10 ; 0.0
61 ; 3504100.760396379 ; 2.0109442037076348E8 ; 1.830634995662182E8 ; 1.062456342755496E10 ; 0.0
62 ; 3505531.4807821847 ; 2.0110745276894218E8 ; 1.865676003266146E8 ; 1.0825657847925724E10 ; 0.0
63 ; 3512636.4396187193 ; 2.0112050784301016E8 ; 1.9007313180739677E8 ; 1.1026765300694666E10 ; 0.0
64 ; 3512531.5065692076 ; 2.011335835567482E8 ; 1.9358576824701548E8 ; 1.1227885808537676E10 ; 0.0
65 ; 3520911.5067190398 ; 2.0114667798123226E8 ; 1.9709829975358468E8 ; 1.1429019392094423E10 ; 0.0
66 ; 3525876.3525833758 ; 2.0115978928719005E8 ; 2.0061921126030374E8 ; 1.1630166070075655E10 ; 0.0
67 ; 3529895.562560998 ; 2.011729157379742E8 ; 2.041450876128871E8 ; 1.1831325859362844E10 ; 0.0
68 ; 3536084.7520774626 ; 2.0118605568309686E8 ; 2.0767498317544812E8 ; 1.2032498775100819E10 ; 0.0
69 ; 3535574.9030188513 ; 2.011992075522782E8 ; 2.1121106792752558E8 ; 1.2233684830783915E10 ; 0.0
70 ; 3544936.3733689217 ; 2.0121236984996334E8 ; 2.1474664283054444E8 ; 1.2434884038336193E10 ; 0.0
71 ; 3544409.00406794 ; 2.0122554115026817E8 ; 2.1829157920391336E8 ; 1.2636096408186157E10 ; 0.0
72 ; 3549253.732143641 ; 2.0123872009231636E8 ; 2.218359882079813E8 ; 1.2837321949336426E10 ; 0.0
73 ; 3558427.4511011387 ; 2.0125190537593532E8 ; 2.2538524194012493E8 ; 1.3038560669428741E10 ; 0.0
74 ; 3552973.867450588 ; 2.012650957576797E8 ; 2.2894366939122605E8 ; 1.3239812574804676E10 ; 0.0
75 ; 3558512.7701326916 ; 2.0127829004715565E8 ; 2.3249664325867665E8 ; 1.3441077670562355E10 ; 0.0
76 ; 3566311.9673642707 ; 2.0129148710362023E8 ; 2.3605515602880934E8 ; 1.364235596060951E10 ; 0.0
77 ; 3564663.643683835 ; 2.0130468583283326E8 ; 2.3962146799617362E8 ; 1.384364744771313E10 ; 0.0
78 ; 3564255.1454213383 ; 2.0131788518414104E8 ; 2.4318613163985744E8 ; 1.4044952133545963E10 ; 0.0
79 ; 3565015.681407516 ; 2.0133108414777246E8 ; 2.4675038678527877E8 ; 1.4246270018730104E10 ; 0.0
80 ; 3566641.8142289766 ; 2.0134428175233093E8 ; 2.5031540246668628E8 ; 1.4447601102877876E10 ; 0.0
81 ; 3565610.053611082 ; 2.0135747706246576E8 ; 2.5388204428091526E8 ; 1.4648945384630207E10 ; 0.0
82 ; 3564479.8428706103 ; 2.013706691767089E8 ; 2.5744765433452633E8 ; 1.4850302861692673E10 ; 0.0
83 ; 3562850.915016014 ; 2.01383857225464E8 ; 2.6101213417739695E8 ; 1.505167353086938E10 ; 0.0
84 ; 3561264.375252569 ; 2.0139704036913556E8 ; 2.6457498509241298E8 ; 1.5253057388094845E10 ; 0.0
85 ; 3561048.877181957 ; 2.0141021779638758E8 ; 2.6813624946766555E8 ; 1.545445442846398E10 ; 0.0
86 ; 3560459.654753651 ; 2.0142338872252133E8 ; 2.716972983448475E8 ; 1.5655864646260366E10 ; 0.0
87 ; 3561082.514651272 ; 2.0143655238796327E8 ; 2.752577579996011E8 ; 1.5857288034982887E10 ; 0.0
88 ; 3557629.794715159 ; 2.0144970805685467E8 ; 2.788188405142524E8 ; 1.605872458737085E10 ; 0.0
89 ; 3558249.4022246352 ; 2.014628550157354E8 ; 2.823764703089676E8 ; 1.6260174295427704E10 ; 0.0
90 ; 3560121.3955064556 ; 2.0147599257231456E8 ; 2.8593471971119225E8 ; 1.646163715044344E10 ; 0.0
91 ; 3553261.813957021 ; 2.0148912005432183E8 ; 2.894948411066987E8 ; 1.6663113143015755E10 ; 0.0
92 ; 3552343.351666292 ; 2.0150223680843318E8 ; 2.930481029206557E8 ; 1.6864602263070076E10 ; 0.0
93 ; 3552776.2375822277 ; 2.0151534219926584E8 ; 2.96600446272322E8 ; 1.706610449987851E10 ; 0.0
94 ; 3550412.7519152076 ; 2.0152843560843757E8 ; 3.001532225099042E8 ; 1.7267619842077774E10 ; 0.0
95 ; 3549036.5381375137 ; 2.015415164336851E8 ; 3.037036352618194E8 ; 1.746914827768621E10 ; 0.0
96 ; 3547745.7733655185 ; 2.0155458408803803E8 ; 3.072526717999569E8 ; 1.7670689794119896E10 ; 0.0
97 ; 3544368.6601332375 ; 2.0156763799904436E8 ; 3.108004175733224E8 ; 1.7872244378207935E10 ; 0.0
98 ; 3542634.9360024175 ; 2.0158067760804313E8 ; 3.1434478623345566E8 ; 1.8073812016206978E10 ; 0.0
99 ; 3543759.823586637 ; 2.0159370236948228E8 ; 3.178874211694581E8 ; 1.827539269381502E10 ; 0.0
100 ; 3541968.111423939 ; 2.0160671175027725E8 ; 3.2143118099304473E8 ; 1.8476986396184505E10 ; 0.0
101 ; 3535897.1176054883 ; 2.0161970522920847E8 ; 3.2497314910446864E8 ; 1.8678593107934784E10 ; 0.0
102 ; 3531499.6935358797 ; 2.0163268229635477E8 ; 3.2850904622207415E8 ; 1.8880212813163994E10 ; 0.0
103 ; 3533818.527027061 ; 2.016456424525601E8 ; 3.3204054591561E8 ; 1.908184549546035E10 ; 0.0
104 ; 3528635.353493027 ; 2.0165858520893174E8 ; 3.355743644426371E8 ; 1.928349113791291E10 ; 0.0
105 ; 3527541.754143903 ; 2.0167151008636767E8 ; 3.391029997961301E8 ; 1.948514972312184E10 ; 0.0
106 ; 3523836.63724023 ; 2.0168441661511108E8 ; 3.42630541550274E8 ; 1.968682123320821E10 ; 0.0
107 ; 3519672.694800562 ; 2.0169730433433062E8 ; 3.4615437818751425E8 ; 1.9888505649823322E10 ; 0.0
108 ; 3518623.241763175 ; 2.0171017279172432E8 ; 3.496740508823148E8 ; 2.0090202954157654E10 ; 0.0
109 ; 3517208.249916081 ; 2.0172302154314592E8 ; 3.53192674124078E8 ; 2.029191312694938E10 ; 0.0
110 ; 3513557.360632921 ; 2.017358501522522E8 ; 3.5670988237399405E8 ; 2.0493636148492523E10 ; 0.0
111 ; 3508836.9385563247 ; 2.017486581901696E8 ; 3.6022343973462695E8 ; 2.0695371998644775E10 ; 0.0
112 ; 3503544.8412706885 ; 2.0176144523517966E8 ; 3.6373227667318326E8 ; 2.0897120656834946E10 ; 0.0
113 ; 3501251.8368213708 ; 2.0177421087242126E8 ; 3.6723582151445395E8 ; 2.1098882102070126E10 ; 0.0
114 ; 3497451.684239085 ; 2.0178695469360927E8 ; 3.707370733512753E8 ; 2.1300656312942547E10 ; 0.0
115 ; 3494895.9876418146 ; 2.0179967629676825E8 ; 3.742345250355144E8 ; 2.1502443267636158E10 ; 0.0
116 ; 3490852.3727837577 ; 2.018123752859805E8 ; 3.777294210231562E8 ; 2.1704242943932926E10 ; 0.0
117 ; 3488360.0862580864 ; 2.018250512711475E8 ; 3.8122027339594E8 ; 2.1906055319218906E10 ; 0.0
118 ; 3481519.6908866777 ; 2.0183770386776373E8 ; 3.847086334821981E8 ; 2.2107880370490055E10 ; 0.0
119 ; 3479286.8777019833 ; 2.018503326967027E8 ; 3.881901531730848E8 ; 2.230971807435782E10 ; 0.0
120 ; 3475166.705168031 ; 2.018629373840138E8 ; 3.916694400507868E8 ; 2.251156840705452E10 ; 0.0
121 ; 3471471.952744345 ; 2.018755175607299E8 ; 3.951446067559548E8 ; 2.2713431344438534E10 ; 0.0
122 ; 3464930.9092473486 ; 2.0188807286268455E8 ; 3.9861607870869917E8 ; 2.2915306861999264E10 ; 0.0
123 ; 3463290.071999561 ; 2.0190060293033886E8 ; 4.020810096179465E8 ; 2.311719493486195E10 ; 0.0
124 ; 3460132.68749833 ; 2.0191310740861687E8 ; 4.0554429968994606E8 ; 2.331909553779229E10 ; 0.0
125 ; 3453965.5992985703 ; 2.019255859467493E8 ; 4.090044323774444E8 ; 2.3521008645200905E10 ; 0.0
126 ; 3450432.1243263553 ; 2.0193803819812524E8 ; 4.12458397976743E8 ; 2.3722934231147655E10 ; 0.0
127 ; 3444469.3107961677 ; 2.0195046382015097E8 ; 4.1590883010106933E8 ; 2.392487226934578E10 ; 0.0
128 ; 3438793.195985605 ; 2.019628624741161E8 ; 4.193532994118655E8 ; 2.412682273316593E10 ; 0.0
129 ; 3434624.732194563 ; 2.0197523382506585E8 ; 4.227920926078511E8 ; 2.432878559564005E10 ; 0.0
130 ; 3429512.668211499 ; 2.0198757754168007E8 ; 4.2622671734004563E8 ; 2.4530760829465115E10 ; 0.0
131 ; 3419643.70920775 ; 2.0199989329615778E8 ; 4.2965623000825715E8 ; 2.4732748407006794E10 ; 0.0
132 ; 3414696.65184534 ; 2.0201218076410732E8 ; 4.330758737174649E8 ; 2.493474830030295E10 ; 0.0
133 ; 3405615.5290110693 ; 2.0202443962444198E8 ; 4.3649057036931026E8 ; 2.513676048106706E10 ; 0.0
134 ; 3396978.8285284834 ; 2.020366695592805E8 ; 4.3989618589832133E8 ; 2.53387849206915E10 ; 0.0
135 ; 3385928.2892459603 ; 2.0204887025385216E8 ; 4.432931647268498E8 ; 2.5540821590250782E10 ; 0.0
136 ; 3378065.1313215634 ; 2.0206104139640662E8 ; 4.4667909301609576E8 ; 2.5742870460504635E10 ; 0.0
137 ; 3367988.613229198 ; 2.0207318267812777E8 ; 4.500571581474173E8 ; 2.5944931501901043E10 ; 0.0
138 ; 3358596.204072254 ; 2.0208529379305184E8 ; 4.534251467606465E8 ; 2.614700468457917E10 ; 0.0
139 ; 3351981.4562101373 ; 2.020973744379891E8 ; 4.5678374296471876E8 ; 2.6349089978372223E10 ; 0.0
140 ; 3339233.454466503 ; 2.0210942431244922E8 ; 4.601357244209289E8 ; 2.655118735281021E10 ; 0.0
141 ; 3330329.0546574206 ; 2.0212144311857042E8 ; 4.634749578753954E8 ; 2.675329677712266E10 ; 0.0
142 ; 3323574.431391933 ; 2.0213343056105122E8 ; 4.668052869300528E8 ; 2.6955418220241234E10 ; 0.0
143 ; 3316249.907713726 ; 2.0214538634708604E8 ; 4.701288613614448E8 ; 2.7157551650802284E10 ; 0.0
144 ; 3303956.8171735816 ; 2.021573101863031E8 ; 4.734451112691585E8 ; 2.7359697037149372E10 ; 0.0
145 ; 3296363.422887391 ; 2.0216920179070562E8 ; 4.767490680863321E8 ; 2.7561854347335674E10 ; 0.0
146 ; 3292655.276811883 ; 2.0218106087461534E8 ; 4.8004543150921947E8 ; 2.776402354912638E10 ; 0.0
147 ; 3286911.710655117 ; 2.021928871546188E8 ; 4.8333808678603137E8 ; 2.7966204610000996E10 ; 0.0
148 ; 3279974.101310127 ; 2.022046803495159E8 ; 4.8662499849668646E8 ; 2.8168397497155613E10 ; 0.0
149 ; 3278815.058832839 ; 2.0221644018027076E8 ; 4.899049725979966E8 ; 2.8370602177505127E10 ; 0.0
150 ; 3276233.734486476 ; 2.0222816636996496E8 ; 4.931837876568294E8 ; 2.85728186176854E10 ; 0.0
151 ; 3267243.8639162853 ; 2.0223985864375252E8 ; 4.964600213913159E8 ; 2.8775046784055363E10 ; 0.0
152 ; 3262382.4590121354 ; 2.0225151672881714E8 ; 4.9972726525523216E8 ; 2.8977286642699116E10 ; 0.0
153 ; 3256862.698427733 ; 2.0226314035433125E8 ; 5.029896477142443E8 ; 2.9179538159427933E10 ; 0.0
154 ; 3252695.6807252355 ; 2.0227472925141683E8 ; 5.0624651041267204E8 ; 2.9381801299782265E10 ; 0.0
155 ; 3244990.468964058 ; 2.0228628315310794E8 ; 5.0949920609339726E8 ; 2.958407602903368E10 ; 0.0
156 ; 3242195.902623378 ; 2.0229780179431498E8 ; 5.127441965623613E8 ; 2.9786362312186787E10 ; 0.0
157 ; 3236586.5981920846 ; 2.0230928491179037E8 ; 5.1598639246498466E8 ; 2.9988660113981102E10 ; 0.0
158 ; 3230262.113604817 ; 2.0232073224409586E8 ; 5.1922297906317675E8 ; 3.019096939889289E10 ; 0.0
159 ; 3226168.63377858 ; 2.0233214353157112E8 ; 5.224532411767816E8 ; 3.0393290131136986E10 ; 0.0
160 ; 3219303.5927622593 ; 2.023435185163039E8 ; 5.2567940981056017E8 ; 3.0595622274668556E10 ; 0.0
161 ; 3211227.6552793784 ; 2.0235485694210124E8 ; 5.288987134033224E8 ; 3.079796579318486E10 ; 0.0
162 ; 3212594.7769197505 ; 2.0236615855446205E8 ; 5.321099410586018E8 ; 3.100032065012696E10 ; 0.0
163 ; 3204450.990393449 ; 2.023774231005509E8 ; 5.353225358355215E8 ; 3.1202686808681423E10 ; 0.0
164 ; 3199913.4519546875 ; 2.0238865032917285E8 ; 5.38526986825915E8 ; 3.1405064231781975E10 ; 0.0
165 ; 3195350.427660104 ; 2.0239983999074954E8 ; 5.417269002778697E8 ; 3.160745288211115E10 ; 0.0
166 ; 3187872.042643211 ; 2.0241099183729598E8 ; 5.449222507055298E8 ; 3.18098527221019E10 ; 0.0
167 ; 3184167.130032798 ; 2.0242210562239867E8 ; 5.48110122748173E8 ; 3.2012263713939194E10 ; 0.0
168 ; 3176547.682045559 ; 2.0243318110119456E8 ; 5.512942898782058E8 ; 3.2214685819561592E10 ; 0.0
169 ; 3173642.3207880585 ; 2.024442180303508E8 ; 5.544708375602514E8 ; 3.241711900066279E10 ; 0.0
170 ; 3167294.3912265995 ; 2.024552161680455E8 ; 5.576444798810394E8 ; 3.261956321869314E10 ; 0.0
171 ; 3158759.0068338653 ; 2.0246617527394918E8 ; 5.60811774272266E8 ; 3.2822018434861183E10 ; 0.0
172 ; 3160841.4886037153 ; 2.0247709510920724E8 ; 5.639705332791E8 ; 3.302448461013513E10 ; 0.0
173 ; 3151398.2801683564 ; 2.0248797543642294E8 ; 5.671313747677037E8 ; 3.322696170524434E10 ; 0.0
174 ; 3146672.289128172 ; 2.024988160196413E8 ; 5.702827730478721E8 ; 3.3429449680680763E10 ; 0.0
175 ; 3144252.182380036 ; 2.025096166243335E8 ; 5.734294453370003E8 ; 3.3631948496700405E10 ; 0.0
176 ; 3141247.9509699144 ; 2.0252037701738214E8 ; 5.765736975193803E8 ; 3.3834458113324738E10 ; 0.0
177 ; 3133682.330375406 ; 2.0253109696706715E8 ; 5.797149454703503E8 ; 3.403697849034212E10 ; 0.0
178 ; 3129950.329595147 ; 2.0254177624305207E8 ; 5.828486278007257E8 ; 3.423950958730919E10 ; 0.0
179 ; 3130311.8155255206 ; 2.025524146163711E8 ; 5.859785781303208E8 ; 3.444205136355224E10 ; 0.0
180 ; 3123822.3893801533 ; 2.025630118594169E8 ; 5.891088899458463E8 ; 3.464460377816861E10 ; 0.0
181 ; 3120884.709596995 ; 2.025735677459284E8 ; 5.922327123352264E8 ; 3.484716679002802E10 ; 0.0
182 ; 3119347.4461003602 ; 2.0258408205097982E8 ; 5.953535970448234E8 ; 3.504974035777395E10 ; 0.0
183 ; 3113603.293949197 ; 2.0259455455096954E8 ; 5.984729444909238E8 ; 3.525232443982493E10 ; 0.0
184 ; 3109889.631540946 ; 2.026049850236098E8 ; 6.01586547784873E8 ; 3.54549189943759E10 ; 0.0
185 ; 3105534.566167969 ; 2.0261537324791694E8 ; 6.046964374164139E8 ; 3.565752397939951E10 ; 0.0
186 ; 3100052.135453266 ; 2.0262571900420174E8 ; 6.078019719825819E8 ; 3.586013935264743E10 ; 0.0
187 ; 3097355.766555358 ; 2.0263602207406056E8 ; 6.109020241180351E8 ; 3.6062765071651634E10 ; 0.0
188 ; 3097578.9952407787 ; 2.0264628224036658E8 ; 6.139993798845904E8 ; 3.626540109372569E10 ; 0.0
189 ; 3093648.717693123 ; 2.0265649928726155E8 ; 6.170969588798312E8 ; 3.646804737596606E10 ; 0.0
190 ; 3086206.4373497977 ; 2.0266667300014803E8 ; 6.201906075975243E8 ; 3.667070387525332E10 ; 0.0
191 ; 3085526.2161652353 ; 2.0267680316568187E8 ; 6.232768140348741E8 ; 3.687337054825346E10 ; 0.0
192 ; 3079489.563497716 ; 2.0268688957176486E8 ; 6.263623402510393E8 ; 3.707604735141914E10 ; 0.0
193 ; 3077735.020558899 ; 2.0269693200753823E8 ; 6.294418298145369E8 ; 3.7278734240990906E10 ; 0.0
194 ; 3074744.2866757633 ; 2.027069302633758E8 ; 6.325195648350959E8 ; 3.748143117299844E10 ; 0.0
195 ; 3068795.527543701 ; 2.0271688413087803E8 ; 6.355943091217717E8 ; 3.768413810326182E10 ; 0.0
196 ; 3068429.7042314024 ; 2.02726793402866E8 ; 6.386631046493154E8 ; 3.788685498739269E10 ; 0.0
197 ; 3061135.6474193316 ; 2.0273665787337583E8 ; 6.417315343535467E8 ; 3.8089581780795555E10 ; 0.0
198 ; 3060405.7310410384 ; 2.027464773376533E8 ; 6.447926700009661E8 ; 3.829231843866893E10 ; 0.0
199 ; 3052974.7190053766 ; 2.0275625159214878E8 ; 6.478530757320071E8 ; 3.8495064916006584E10 ; 0.0
200 ; 3050213.548141417 ; 2.027659804345124E8 ; 6.509060504510125E8 ; 3.869782116759873E10 ; 0.0
