CSV File for the City 4 on Day 211
1 - Minute m 
2 - Power Consumed at minute m 
3 - Power Produced at minute m 
4 - Energy Consumed since the beginning of the day 
5 - Energy Produced since the beginning of the day 
6 - Energy Lost since the beginning of the day on lines starting from the city
 
0 ; 446726.6183375251 ; 1.0563955950265709E8 ; 0.0 ; 0.0 ; 0.0
1 ; 453277.8532968455 ; 1.057885196651383E8 ; 446726.6183375251 ; 1.0563955950265709E8 ; 0.0
2 ; 460530.2512893299 ; 1.062466329387742E8 ; 900004.4716343706 ; 2.114280791677954E8 ; 0.0
3 ; 471269.28158323956 ; 1.0701391573648638E8 ; 1360534.7229237005 ; 3.176747121065696E8 ; 0.0
4 ; 481195.3848366038 ; 1.0809038326545411E8 ; 1831804.00450694 ; 4.2468862784305596E8 ; 0.0
5 ; 494024.74590866413 ; 1.0947604929203111E8 ; 2312999.389343544 ; 5.327790111085101E8 ; 0.0
6 ; 509186.97217223793 ; 1.1117092591532049E8 ; 2807024.135252208 ; 6.422550604005412E8 ; 0.0
7 ; 538906.366966755 ; 1.1317502335732925E8 ; 3316211.107424446 ; 7.534259863158617E8 ; 0.0
8 ; 569224.4423187027 ; 1.15488349777672E8 ; 3855117.474391201 ; 8.66601009673191E8 ; 0.0
9 ; 618874.6571130607 ; 1.1811091112034231E8 ; 4424341.916709904 ; 9.820893594508629E8 ; 0.0
10 ; 700074.0942545146 ; 1.2104271099909401E8 ; 5043216.573822964 ; 1.1002002705712051E9 ; 0.0
11 ; 823746.2870131755 ; 1.2428375062651518E8 ; 5743290.668077478 ; 1.2212429815702991E9 ; 0.0
12 ; 1021709.3815207515 ; 1.278340287900177E8 ; 6567036.955090654 ; 1.3455267321968143E9 ; 0.0
13 ; 1213644.4580284043 ; 1.3169354187584776E8 ; 7588746.336611406 ; 1.473360760986832E9 ; 0.0
14 ; 1237827.5270727307 ; 1.3586228394001186E8 ; 8802390.79463981 ; 1.6050543028626797E9 ; 0.0
15 ; 1246263.521328276 ; 1.403402468228953E8 ; 1.0040218321712542E7 ; 1.7409165868026915E9 ; 0.0
16 ; 1256581.884641031 ; 1.4512742030249116E8 ; 1.1286481843040818E7 ; 1.8812568336255867E9 ; 0.0
17 ; 1269107.4643739634 ; 1.5022379227969626E8 ; 1.254306372768185E7 ; 2.026384253928078E9 ; 0.0
18 ; 1276287.4181099483 ; 1.556293489881569E8 ; 1.3812171192055812E7 ; 2.176608046207774E9 ; 0.0
19 ; 1288090.5049828896 ; 1.6134407522069386E8 ; 1.508845861016576E7 ; 2.332237395195931E9 ; 0.0
20 ; 1297465.9837976093 ; 1.6736795456438544E8 ; 1.6376549115148649E7 ; 2.493581470416625E9 ; 0.0
21 ; 1307386.1285365091 ; 1.7370096963687745E8 ; 1.767401509894626E7 ; 2.6609494249810104E9 ; 0.0
22 ; 1317750.5699525585 ; 1.803431023173197E8 ; 1.8981401227482766E7 ; 2.834650394617888E9 ; 0.0
23 ; 1328006.193636598 ; 1.872943339663989E8 ; 2.0299151797435325E7 ; 3.014993496935208E9 ; 0.0
24 ; 1337759.5496965614 ; 1.945546456311242E8 ; 2.1627157991071925E7 ; 3.2022878309016066E9 ; 0.0
25 ; 1348693.1984149336 ; 2.0081205912942E8 ; 2.2964917540768486E7 ; 3.3968424765327306E9 ; 0.0
26 ; 1358207.5519270436 ; 2.0082010325307631E8 ; 2.431361073918342E7 ; 3.5976545356621504E9 ; 0.0
27 ; 1368595.3375321112 ; 2.0082852843740666E8 ; 2.5671818291110463E7 ; 3.798474638915227E9 ; 0.0
28 ; 1380162.1141991997 ; 2.0083731613140708E8 ; 2.7040413628642574E7 ; 3.9993031673526335E9 ; 0.0
29 ; 1389695.1746188866 ; 2.0084644819365388E8 ; 2.8420575742841773E7 ; 4.2001404834840407E9 ; 0.0
30 ; 1397252.8537127941 ; 2.008559069753874E8 ; 2.9810270917460658E7 ; 4.400986931677694E9 ; 0.0
31 ; 1408695.5292675735 ; 2.0086567538556045E8 ; 3.120752377117345E7 ; 4.601842838653082E9 ; 0.0
32 ; 1419654.6734391584 ; 2.0087573693961197E8 ; 3.2616219300441023E7 ; 4.802708514038642E9 ; 0.0
33 ; 1425864.1779793315 ; 2.0088607579383442E8 ; 3.403587397388018E7 ; 5.003584250978254E9 ; 0.0
34 ; 1435658.7360301183 ; 2.0089667676721781E8 ; 3.546173815185951E7 ; 5.204470326772089E9 ; 0.0
35 ; 1443715.78959108 ; 2.0090752535259703E8 ; 3.689739688788962E7 ; 5.405367003539307E9 ; 0.0
36 ; 1452739.6050745784 ; 2.0091860771882093E8 ; 3.8341112677480705E7 ; 5.606274528891904E9 ; 0.0
37 ; 1463525.6259320162 ; 2.0092991070552418E8 ; 3.979385228255528E7 ; 5.807193136610724E9 ; 0.0
38 ; 1469211.5587789547 ; 2.00941421811925E8 ; 4.12573779084873E7 ; 6.008123047316249E9 ; 0.0
39 ; 1476835.2826917449 ; 2.0095312918090743E8 ; 4.2726589467266254E7 ; 6.209064469128174E9 ; 0.0
40 ; 1487895.6037983932 ; 2.0096502157948533E8 ; 4.4203424749958E7 ; 6.410017598309081E9 ; 0.0
41 ; 1493031.3078601419 ; 2.009770883765891E8 ; 4.56913203537564E7 ; 6.610982619888566E9 ; 0.0
42 ; 1500055.2473811524 ; 2.009893195189721E8 ; 4.718435166161654E7 ; 6.811959708265155E9 ; 0.0
43 ; 1505476.4140188433 ; 2.010017055059024E8 ; 4.868440690899769E7 ; 7.012949027784127E9 ; 0.0
44 ; 1512352.7996176444 ; 2.010142373631881E8 ; 5.018988332301654E7 ; 7.21395073329003E9 ; 0.0
45 ; 1518558.744476388 ; 2.0102690661698183E8 ; 5.170223612263419E7 ; 7.414964970653217E9 ; 0.0
46 ; 1525520.6188275595 ; 2.010397052677209E8 ; 5.322079486711057E7 ; 7.615991877270199E9 ; 0.0
47 ; 1530280.1972267092 ; 2.0105262576448202E8 ; 5.474631548593813E7 ; 7.81703158253792E9 ; 0.0
48 ; 1536402.4745232034 ; 2.0106566097996655E8 ; 5.627659568316484E7 ; 8.0180842083024025E9 ; 0.0
49 ; 1540275.7240544448 ; 2.010788041862763E8 ; 5.7812998157688044E7 ; 8.219149869282369E9 ; 0.0
50 ; 1543703.520968541 ; 2.0109204903159595E8 ; 5.935327388174249E7 ; 8.420228673468645E9 ; 0.0
51 ; 1550539.2362238944 ; 2.0110538951786074E8 ; 6.0896977402711034E7 ; 8.62132072250024E9 ; 0.0
52 ; 1553526.4030194734 ; 2.0111881997945812E8 ; 6.2447516638934925E7 ; 8.8224261120181E9 ; 0.0
53 ; 1558675.2886890268 ; 2.011323350629885E8 ; 6.40010430419544E7 ; 9.023544931997559E9 ; 0.0
54 ; 1562235.4942023277 ; 2.0114592970808986E8 ; 6.555971833064342E7 ; 9.224677267060547E9 ; 0.0
55 ; 1566818.9284021556 ; 2.011595991293182E8 ; 6.712195382484575E7 ; 9.425823196768637E9 ; 0.0
56 ; 1571105.0325813019 ; 2.0117333879906175E8 ; 6.86887727532479E7 ; 9.626982795897955E9 ; 0.0
57 ; 1575215.6134560588 ; 2.0118714443146065E8 ; 7.02598777858292E7 ; 9.828156134697016E9 ; 0.0
58 ; 1578353.347207866 ; 2.0120101196729648E8 ; 7.183509339928526E7 ; 1.0029343279128477E10 ; 0.0
59 ; 1583146.7818811731 ; 2.0121493755981165E8 ; 7.341344674649312E7 ; 1.0230544291095774E10 ; 0.0
60 ; 1585960.103197482 ; 2.0122891756141603E8 ; 7.499659352837428E7 ; 1.0431759228655586E10 ; 0.0
61 ; 1590248.8643374126 ; 2.0124294851123735E8 ; 7.658255363157177E7 ; 1.0632988146217003E10 ; 0.0
62 ; 1593833.5143906518 ; 2.0125702712347E8 ; 7.817280249590918E7 ; 1.0834231094728241E10 ; 0.0
63 ; 1598496.9278961727 ; 2.0127115027647793E8 ; 7.976663601029983E7 ; 1.1035488121851711E10 ; 0.0
64 ; 1600697.1774610623 ; 2.0128531500260806E8 ; 8.1365132938196E7 ; 1.123675927212819E10 ; 0.0
65 ; 1603949.0986933438 ; 2.0129951847867092E8 ; 8.296583011565706E7 ; 1.1438044587130796E10 ; 0.0
66 ; 1609563.0322986385 ; 2.0131375801704797E8 ; 8.45697792143504E7 ; 1.1639344105609467E10 ; 0.0
67 ; 1610076.2697001426 ; 2.0132803105738533E8 ; 8.617934224664904E7 ; 1.1840657863626514E10 ; 0.0
68 ; 1615059.7768355268 ; 2.013423351588365E8 ; 8.778941851634918E7 ; 1.2041985894683899E10 ; 0.0
69 ; 1619511.0592059565 ; 2.0135666799281836E8 ; 8.940447829318471E7 ; 1.2243328229842735E10 ; 0.0
70 ; 1624253.3601826571 ; 2.013710273362455E8 ; 9.102398935239066E7 ; 1.2444684897835554E10 ; 0.0
71 ; 1624975.3954059046 ; 2.0138541106521234E8 ; 9.264824271257332E7 ; 1.2646055925171799E10 ; 0.0
72 ; 1627869.3258923527 ; 2.0139981714909127E8 ; 9.427321810797922E7 ; 1.2847441336237011E10 ; 0.0
73 ; 1631866.5589328415 ; 2.014142436450196E8 ; 9.590108743387158E7 ; 1.3048841153386103E10 ; 0.0
74 ; 1635480.1900615182 ; 2.0142868869274834E8 ; 9.753295399280442E7 ; 1.3250255397031122E10 ; 0.0
75 ; 1637434.2791067131 ; 2.0144315050982797E8 ; 9.916843418286595E7 ; 1.3451684085723871E10 ; 0.0
76 ; 1641533.843385704 ; 2.014576273871082E8 ; 1.0080586846197265E8 ; 1.36531272362337E10 ; 0.0
77 ; 1645124.384370916 ; 2.0147211768452996E8 ; 1.0244740230535837E8 ; 1.3854584863620808E10 ; 0.0
78 ; 1644714.2041784443 ; 2.014866198271894E8 ; 1.0409252668972929E8 ; 1.4056056981305338E10 ; 0.0
79 ; 1644490.5113125974 ; 2.0150113230165538E8 ; 1.0573724089390773E8 ; 1.4257543601132526E10 ; 0.0
80 ; 1646093.0963424465 ; 2.0151565365252292E8 ; 1.0738173140522033E8 ; 1.4459044733434181E10 ; 0.0
81 ; 1647829.655326915 ; 2.01530182479186E8 ; 1.0902782450156277E8 ; 1.4660560387086704E10 ; 0.0
82 ; 1647018.3342426098 ; 2.015447174328151E8 ; 1.1067565415688969E8 ; 1.486209056956589E10 ; 0.0
83 ; 1647910.6450714972 ; 2.0155925721352547E8 ; 1.123226724911323E8 ; 1.5063635286998705E10 ; 0.0
84 ; 1649198.2525954368 ; 2.015738005677224E8 ; 1.139705831362038E8 ; 1.526519454421223E10 ; 0.0
85 ; 1649437.1824177166 ; 2.0158834628561252E8 ; 1.1561978138879924E8 ; 1.5466768344779953E10 ; 0.0
86 ; 1650931.377946782 ; 2.0160289319886863E8 ; 1.1726921857121696E8 ; 1.5668356691065565E10 ; 0.0
87 ; 1650307.202535017 ; 2.0161744017843872E8 ; 1.1892014994916373E8 ; 1.5869959584264433E10 ; 0.0
88 ; 1651948.237829407 ; 2.0163198613248894E8 ; 1.2057045715169875E8 ; 1.6071577024442871E10 ; 0.0
89 ; 1651393.821503079 ; 2.016465300044714E8 ; 1.2222240538952816E8 ; 1.627320901057536E10 ; 0.0
90 ; 1651948.5480984475 ; 2.016610707713089E8 ; 1.2387379921103123E8 ; 1.647485554057983E10 ; 0.0
91 ; 1651751.7751779512 ; 2.0167560744168854E8 ; 1.2552574775912967E8 ; 1.667651661135114E10 ; 0.0
92 ; 1649885.9151463155 ; 2.0169013905445695E8 ; 1.2717749953430763E8 ; 1.6878192218792828E10 ; 0.0
93 ; 1650093.1788915233 ; 2.0170466467711067E8 ; 1.2882738544945395E8 ; 1.7079882357847284E10 ; 0.0
94 ; 1649845.713631122 ; 2.017191834043752E8 ; 1.3047747862834547E8 ; 1.7281587022524395E10 ; 0.0
95 ; 1650564.2043404842 ; 2.0173369435686722E8 ; 1.321273243419766E8 ; 1.7483306205928772E10 ; 0.0
96 ; 1648669.3399962466 ; 2.017481966798344E8 ; 1.3377788854631709E8 ; 1.768503990028564E10 ; 0.0
97 ; 1649495.6427476197 ; 2.0176268954196766E8 ; 1.3542655788631332E8 ; 1.7886788096965477E10 ; 0.0
98 ; 1649786.6365211185 ; 2.017771721342818E8 ; 1.3707605352906093E8 ; 1.8088550786507446E10 ; 0.0
99 ; 1650320.3793379765 ; 2.0179164366905943E8 ; 1.3872584016558206E8 ; 1.8290327958641727E10 ; 0.0
100 ; 1647646.707756886 ; 2.0180610337885472E8 ; 1.4037616054492003E8 ; 1.8492119602310787E10 ; 0.0
101 ; 1648340.5273440324 ; 2.0182055051555297E8 ; 1.420238072526769E8 ; 1.869392570568964E10 ; 0.0
102 ; 1647604.8809349746 ; 2.0183498434948263E8 ; 1.4367214778002092E8 ; 1.8895746256205193E10 ; 0.0
103 ; 1646932.5721065903 ; 2.018494041685763E8 ; 1.453197526609559E8 ; 1.9097581240554676E10 ; 0.0
104 ; 1647819.4580029561 ; 2.018638092775781E8 ; 1.469666852330625E8 ; 1.929943064472325E10 ; 0.0
105 ; 1646928.534212381 ; 2.0187819899729383E8 ; 1.4861450469106546E8 ; 1.9501294454000828E10 ; 0.0
106 ; 1646981.952584901 ; 2.0189257266388246E8 ; 1.5026143322527784E8 ; 1.9703172652998123E10 ; 0.0
107 ; 1645110.1189723855 ; 2.019069296281851E8 ; 1.5190841517786273E8 ; 1.9905065225662006E10 ; 0.0
108 ; 1645150.2065902727 ; 2.0192126925509018E8 ; 1.5355352529683512E8 ; 2.010697215529019E10 ; 0.0
109 ; 1645800.460623022 ; 2.0193559092293236E8 ; 1.551986755034254E8 ; 2.030889342454528E10 ; 0.0
110 ; 1643043.5196622203 ; 2.0194989402292308E8 ; 1.5684447596404842E8 ; 2.0510829015468212E10 ; 0.0
111 ; 1640458.328669421 ; 2.0196417795861095E8 ; 1.5848751948371065E8 ; 2.0712778909491135E10 ; 0.0
112 ; 1641246.8074957961 ; 2.019784421453702E8 ; 1.6012797781238008E8 ; 2.0914743087449745E10 ; 0.0
113 ; 1643145.569288561 ; 2.0199268600991574E8 ; 1.6176922461987588E8 ; 2.1116721529595116E10 ; 0.0
114 ; 1639687.700075853 ; 2.0200690898984298E8 ; 1.6341237018916443E8 ; 2.131871421560503E10 ; 0.0
115 ; 1638548.350787574 ; 2.0202111053319114E8 ; 1.650520578892403E8 ; 2.152072112459487E10 ; 0.0
116 ; 1636480.834103105 ; 2.0203529009802884E8 ; 1.6669060624002787E8 ; 2.1722742235128063E10 ; 0.0
117 ; 1635220.4965489025 ; 2.020494471520604E8 ; 1.6832708707413098E8 ; 2.1924777525226093E10 ; 0.0
118 ; 1636846.619741288 ; 2.02063581172252E8 ; 1.6996230757067987E8 ; 2.2126826972378155E10 ; 0.0
119 ; 1634297.417467286 ; 2.0207769164447632E8 ; 1.7159915419042116E8 ; 2.2328890553550407E10 ; 0.0
120 ; 1630297.2471481413 ; 2.020917780631749E8 ; 1.7323345160788846E8 ; 2.2530968245194885E10 ; 0.0
121 ; 1632277.6641954167 ; 2.021058399310368E8 ; 1.7486374885503662E8 ; 2.273306002325806E10 ; 0.0
122 ; 1628344.645984106 ; 2.0211987675869325E8 ; 1.7649602651923203E8 ; 2.29351658631891E10 ; 0.0
123 ; 1626126.1523570253 ; 2.0213388806442696E8 ; 1.7812437116521615E8 ; 2.3137285739947792E10 ; 0.0
124 ; 1625918.1100330225 ; 2.0214787337389553E8 ; 1.7975049731757316E8 ; 2.333941962801222E10 ; 0.0
125 ; 1623584.2723271658 ; 2.0216183221986794E8 ; 1.813764154276062E8 ; 2.3541567501386112E10 ; 0.0
126 ; 1621867.2564520733 ; 2.0217576414197385E8 ; 1.8299999969993335E8 ; 2.374372933360598E10 ; 0.0
127 ; 1621295.3488626138 ; 2.0218966868646455E8 ; 1.8462186695638543E8 ; 2.3945905097747955E10 ; 0.0
128 ; 1620849.9019756948 ; 2.0220354540598527E8 ; 1.8624316230524805E8 ; 2.414809476643442E10 ; 0.0
129 ; 1618557.361786969 ; 2.0221739385935822E8 ; 1.8786401220722374E8 ; 2.435029831184041E10 ; 0.0
130 ; 1615618.0289392376 ; 2.022312136113755E8 ; 1.894825695690107E8 ; 2.4552515705699768E10 ; 0.0
131 ; 1610084.1413725459 ; 2.0224500423260182E8 ; 1.9109818759794995E8 ; 2.4754746919311142E10 ; 0.0
132 ; 1607721.2846307862 ; 2.0225876529918617E8 ; 1.9270827173932248E8 ; 2.4956991923543743E10 ; 0.0
133 ; 1602133.6304315184 ; 2.0227249639268222E8 ; 1.9431599302395326E8 ; 2.515925068884293E10 ; 0.0
134 ; 1597790.033385512 ; 2.022861970998767E8 ; 1.959181266543848E8 ; 2.536152318523561E10 ; 0.0
135 ; 1592984.7218608612 ; 2.0229986701262575E8 ; 1.975159166877703E8 ; 2.5563809382335487E10 ; 0.0
136 ; 1591146.4878311069 ; 2.0231350572769856E8 ; 1.9910890140963116E8 ; 2.5766109249348114E10 ; 0.0
137 ; 1582734.721394862 ; 2.0232711284662792E8 ; 2.0070004789746228E8 ; 2.5968422755075813E10 ; 0.0
138 ; 1578772.8415667661 ; 2.0234068797556767E8 ; 2.0228278261885715E8 ; 2.617074986792244E10 ; 0.0
139 ; 1574816.1763872942 ; 2.023542307251561E8 ; 2.0386155546042392E8 ; 2.6373090555898006E10 ; 0.0
140 ; 1570314.4958936465 ; 2.0236774071038577E8 ; 2.054363716368112E8 ; 2.657544478662316E10 ; 0.0
141 ; 1565769.1127116433 ; 2.023812175504788E8 ; 2.0700668613270485E8 ; 2.6777812527333546E10 ; 0.0
142 ; 1561470.940400917 ; 2.0239466086876753E8 ; 2.085724552454165E8 ; 2.6980193744884026E10 ; 0.0
143 ; 1557812.1198143617 ; 2.0240807029258072E8 ; 2.1013392618581742E8 ; 2.7182588405752792E10 ; 0.0
144 ; 1551320.5792732805 ; 2.024214454531343E8 ; 2.116917383056318E8 ; 2.7384996476045372E10 ; 0.0
145 ; 1551555.804205225 ; 2.0243478598542696E8 ; 2.1324305888490507E8 ; 2.7587417921498505E10 ; 0.0
146 ; 1549155.5204237893 ; 2.0244809152814034E8 ; 2.147946146891103E8 ; 2.7789852707483932E10 ; 0.0
147 ; 1545308.5391572425 ; 2.0246136172354317E8 ; 2.163437702095341E8 ; 2.7992300799012074E10 ; 0.0
148 ; 1544186.243821044 ; 2.0247459621739987E8 ; 2.1788907874869135E8 ; 2.819476216073562E10 ; 0.0
149 ; 1543324.201717147 ; 2.0248779465888268E8 ; 2.194332649925124E8 ; 2.839723675695302E10 ; 0.0
150 ; 1540165.776310373 ; 2.0250095670048767E8 ; 2.2097658919422954E8 ; 2.85997245516119E10 ; 0.0
151 ; 1537260.1336234324 ; 2.025140819979542E8 ; 2.2251675497053993E8 ; 2.880222550831239E10 ; 0.0
152 ; 1536896.178632362 ; 2.0252717021018773E8 ; 2.2405401510416335E8 ; 2.9004739590310345E10 ; 0.0
153 ; 1534272.4915585017 ; 2.0254022099918604E8 ; 2.255909112827957E8 ; 2.920726676052053E10 ; 0.0
154 ; 1532087.9491566673 ; 2.025532340299681E8 ; 2.271251837743542E8 ; 2.940980698151972E10 ; 0.0
155 ; 1532408.304509812 ; 2.0256620897050634E8 ; 2.2865727172351086E8 ; 2.9612360215549686E10 ; 0.0
156 ; 1527622.8737835381 ; 2.025791454916613E8 ; 2.3018968002802068E8 ; 2.981492642452019E10 ; 0.0
157 ; 1528286.076002212 ; 2.025920432671193E8 ; 2.317173029018042E8 ; 3.0017505570011852E10 ; 0.0
158 ; 1526150.924399992 ; 2.026049019733323E8 ; 2.3324558897780642E8 ; 3.0220097613278973E10 ; 0.0
159 ; 1521698.5830465101 ; 2.026177212894606E8 ; 2.3477173990220642E8 ; 3.0422702515252304E10 ; 0.0
160 ; 1521479.278923023 ; 2.026305008973176E8 ; 2.3629343848525292E8 ; 3.0625320236541763E10 ; 0.0
161 ; 1517400.8494532045 ; 2.0264324048131672E8 ; 2.3781491776417595E8 ; 3.082795073743908E10 ; 0.0
162 ; 1516984.3199388757 ; 2.0265593972842085E8 ; 2.3933231861362916E8 ; 3.1030593977920395E10 ; 0.0
163 ; 1513242.4306117208 ; 2.0266859832809335E8 ; 2.4084930293356803E8 ; 3.1233249917648815E10 ; 0.0
164 ; 1514582.9074111131 ; 2.0268121597225136E8 ; 2.4236254536417976E8 ; 3.143591851597691E10 ; 0.0
165 ; 1509583.2759952256 ; 2.026937923552208E8 ; 2.4387712827159086E8 ; 3.163859973194916E10 ; 0.0
166 ; 1507884.307425087 ; 2.0270632717369327E8 ; 2.4538671154758608E8 ; 3.1841293524304382E10 ; 0.0
167 ; 1505735.0259528575 ; 2.0271882012668455E8 ; 2.4689459585501117E8 ; 3.2043999851478077E10 ; 0.0
168 ; 1504180.7339324127 ; 2.027312709154949E8 ; 2.48400330880964E8 ; 3.2246718671604763E10 ; 0.0
169 ; 1500409.452760716 ; 2.0274367924367073E8 ; 2.4990451161489642E8 ; 3.2449449942520256E10 ; 0.0
170 ; 1498127.5709222064 ; 2.0275604481696796E8 ; 2.5140492106765714E8 ; 3.2652193621763927E10 ; 0.0
171 ; 1498152.1815088317 ; 2.027683673433168E8 ; 2.5290304863857934E8 ; 3.2854949666580894E10 ; 0.0
172 ; 1495548.2021019065 ; 2.0278064653278768E8 ; 2.5440120082008818E8 ; 3.305771803392421E10 ; 0.0
173 ; 1494727.0256244815 ; 2.0279288209755895E8 ; 2.558967490221901E8 ; 3.3260498680456997E10 ; 0.0
174 ; 1492812.6872289001 ; 2.0280507375188544E8 ; 2.5739147604781458E8 ; 3.3463291562554554E10 ; 0.0
175 ; 1489035.1186411122 ; 2.028172212120685E8 ; 2.5888428873504347E8 ; 3.366609663630644E10 ; 0.0
176 ; 1487672.3528308796 ; 2.0282932419642702E8 ; 2.6037332385368457E8 ; 3.3868913857518505E10 ; 0.0
177 ; 1488074.8131239992 ; 2.028413824252698E8 ; 2.6186099620651546E8 ; 3.407174318171493E10 ; 0.0
178 ; 1487182.208940835 ; 2.0285339562086883E8 ; 2.6334907101963946E8 ; 3.42745845641402E10 ; 0.0
179 ; 1484761.1473018595 ; 2.0286536350743368E8 ; 2.648362532285803E8 ; 3.447743795976107E10 ; 0.0
180 ; 1483270.7934468582 ; 2.0287728581108677E8 ; 2.6632101437588215E8 ; 3.46803033232685E10 ; 0.0
181 ; 1482377.454534971 ; 2.028891622598399E8 ; 2.6780428516932902E8 ; 3.488318060907959E10 ; 0.0
182 ; 1480150.093189102 ; 2.0290099258357129E8 ; 2.69286662623864E8 ; 3.508606977133943E10 ; 0.0
183 ; 1477878.2902467726 ; 2.0291277651400378E8 ; 2.707668127170531E8 ; 3.5288970763923004E10 ; 0.0
184 ; 1476937.496502165 ; 2.0292451378468394E8 ; 2.722446910072999E8 ; 3.549188354043701E10 ; 0.0
185 ; 1474612.2532642605 ; 2.0293620413096166E8 ; 2.7372162850380206E8 ; 3.5694808054221695E10 ; 0.0
186 ; 1475560.8046478662 ; 2.029478472899708E8 ; 2.751962407570663E8 ; 3.589774425835265E10 ; 0.0
187 ; 1473839.5100928855 ; 2.0295944300061062E8 ; 2.766718015617142E8 ; 3.6100692105642624E10 ; 0.0
188 ; 1472581.2941613714 ; 2.0297099100352773E8 ; 2.781456410718071E8 ; 3.6303651548643234E10 ; 0.0
189 ; 1471544.1293200864 ; 2.029824910410989E8 ; 2.7961822236596847E8 ; 3.650662253964676E10 ; 0.0
190 ; 1469024.750344595 ; 2.0299394285741448E8 ; 2.8108976649528855E8 ; 3.670960503068786E10 ; 0.0
191 ; 1467475.3164085338 ; 2.0300534619826245E8 ; 2.825587912456331E8 ; 3.691259897354527E10 ; 0.0
192 ; 1467074.010205317 ; 2.0301670081111318E8 ; 2.8402626656204164E8 ; 3.711560431974354E10 ; 0.0
193 ; 1463717.3325640538 ; 2.030280064451046E8 ; 2.8549334057224697E8 ; 3.731862102055465E10 ; 0.0
194 ; 1463194.9301286847 ; 2.0303926285102823E8 ; 2.86957057904811E8 ; 3.7521649026999756E10 ; 0.0
195 ; 1463112.4849219765 ; 2.030504697813155E8 ; 2.884202528349397E8 ; 3.7724688289850784E10 ; 0.0
196 ; 1461226.6349117553 ; 2.0306162699002472E8 ; 2.898833653198617E8 ; 3.79277387596321E10 ; 0.0
197 ; 1458304.1993719644 ; 2.0307273423282853E8 ; 2.913445919547735E8 ; 3.813080038662213E10 ; 0.0
198 ; 1457688.2553127797 ; 2.0308379126700193E8 ; 2.928028961541455E8 ; 3.833387312085496E10 ; 0.0
199 ; 1457531.3172709527 ; 2.030947978514107E8 ; 2.942605844094583E8 ; 3.8536956912121956E10 ; 0.0
