CSV File for the City 6 on Day 14
1 - Minute m 
2 - Power Consumed at minute m 
3 - Power Produced at minute m 
4 - Energy Consumed since the beginning of the day 
5 - Energy Produced since the beginning of the day 
6 - Energy Lost since the beginning of the day on lines starting from the city
 
0 ; 8672057.765621087 ; 1.0292192315613832E7 ; 0.0 ; 0.0 ; 0.0
1 ; 8680248.16247297 ; 1.0292192315613832E7 ; 8672057.765621087 ; 1.0292192315613832E7 ; 0.0
2 ; 8687622.308341088 ; 1.0292192315613832E7 ; 1.735230592809406E7 ; 2.0584384631227665E7 ; 0.0
3 ; 8699837.929671358 ; 1.0292192315613832E7 ; 2.6039928236435145E7 ; 3.0876576946841497E7 ; 0.0
4 ; 8711415.61155613 ; 1.0292192315613832E7 ; 3.473976616610651E7 ; 4.116876926245533E7 ; 0.0
5 ; 8729535.90570297 ; 1.0292192315613832E7 ; 4.3451181777662635E7 ; 5.1460961578069165E7 ; 0.0
6 ; 8752203.73094876 ; 1.0292192315613832E7 ; 5.2180717683365606E7 ; 6.1753153893683E7 ; 0.0
7 ; 8775550.035212375 ; 1.0292192315613832E7 ; 6.093292141431437E7 ; 7.204534620929684E7 ; 0.0
8 ; 8820405.57523581 ; 1.0292192315613832E7 ; 6.970847144952674E7 ; 8.233753852491067E7 ; 0.0
9 ; 8881137.935704589 ; 1.0292192315613832E7 ; 7.852887702476256E7 ; 9.262973084052451E7 ; 0.0
10 ; 8981795.200880893 ; 1.0292192315613832E7 ; 8.741001496046714E7 ; 1.0292192315613835E8 ; 0.0
11 ; 9136699.424104482 ; 1.0292192315613832E7 ; 9.639181016134804E7 ; 1.1321411547175218E8 ; 0.0
12 ; 9385830.286960974 ; 1.0292192315613832E7 ; 1.0552850958545253E8 ; 1.2350630778736602E8 ; 0.0
13 ; 9621792.728607558 ; 1.0292192315613832E7 ; 1.149143398724135E8 ; 1.3379850010297985E8 ; 0.0
14 ; 9646823.513494426 ; 1.0292192315613832E7 ; 1.2453613260102105E8 ; 1.4409069241859367E8 ; 0.0
15 ; 9660250.102293422 ; 1.0292192315613832E7 ; 1.3418295611451548E8 ; 1.543828847342075E8 ; 0.0
16 ; 9672263.152825275 ; 1.0292192315613832E7 ; 1.4384320621680892E8 ; 1.6467507704982135E8 ; 0.0
17 ; 9679808.27719084 ; 1.0292192315613832E7 ; 1.5351546936963418E8 ; 1.7496726936543518E8 ; 0.0
18 ; 9692508.190079758 ; 1.0292192315613832E7 ; 1.6319527764682502E8 ; 1.8525946168104902E8 ; 0.0
19 ; 9703616.621716456 ; 1.0292192315613832E7 ; 1.7288778583690476E8 ; 1.9555165399666286E8 ; 0.0
20 ; 9714283.959954608 ; 1.0292192315613832E7 ; 1.8259140245862123E8 ; 2.058438463122767E8 ; 0.0
21 ; 9726971.143373594 ; 1.0292192315613832E7 ; 1.9230568641857585E8 ; 2.1613603862789053E8 ; 0.0
22 ; 9739400.508864779 ; 1.0292192315613832E7 ; 2.0203265756194943E8 ; 2.2642823094350436E8 ; 0.0
23 ; 9751760.372099053 ; 1.0292192315613832E7 ; 2.1177205807081422E8 ; 2.367204232591182E8 ; 0.0
24 ; 9760525.252185171 ; 1.0292192315613832E7 ; 2.2152381844291326E8 ; 2.4701261557473204E8 ; 0.0
25 ; 9774189.069483755 ; 1.0292192315613832E7 ; 2.3128434369509843E8 ; 2.5730480789034587E8 ; 0.0
26 ; 9783207.350694625 ; 1.0292192315613832E7 ; 2.410585327645822E8 ; 2.675970002059597E8 ; 0.0
27 ; 9792601.546141284 ; 1.0292192315613832E7 ; 2.508417401152768E8 ; 2.7788919252157354E8 ; 0.0
28 ; 9804877.031744704 ; 1.0292192315613832E7 ; 2.606343416614181E8 ; 2.8818138483718735E8 ; 0.0
29 ; 9816935.446936829 ; 1.0292192315613832E7 ; 2.704392186931628E8 ; 2.9847357715280116E8 ; 0.0
30 ; 9829261.786064032 ; 1.0292192315613832E7 ; 2.8025615414009964E8 ; 3.0876576946841496E8 ; 0.0
31 ; 9837673.057834985 ; 1.0292192315613832E7 ; 2.900854159261637E8 ; 3.1905796178402877E8 ; 0.0
32 ; 9847256.039335892 ; 1.0292192315613832E7 ; 2.9992308898399866E8 ; 3.293501540996426E8 ; 0.0
33 ; 9856691.852651872 ; 1.0292192315613832E7 ; 3.0977034502333456E8 ; 3.396423464152564E8 ; 0.0
34 ; 9869358.39147812 ; 1.0292192315613832E7 ; 3.1962703687598646E8 ; 3.499345387308702E8 ; 0.0
35 ; 9875185.97392587 ; 1.0292192315613832E7 ; 3.294963952674646E8 ; 3.60226731046484E8 ; 0.0
36 ; 9886876.819222005 ; 1.0292192315613832E7 ; 3.3937158124139047E8 ; 3.705189233620978E8 ; 0.0
37 ; 9899259.253851132 ; 1.0292192315613832E7 ; 3.492584580606125E8 ; 3.808111156777116E8 ; 0.0
38 ; 9905256.137745129 ; 1.0292192315613832E7 ; 3.591577173144636E8 ; 3.911033079933254E8 ; 0.0
39 ; 9910588.43888087 ; 1.0292192315613832E7 ; 3.6906297345220876E8 ; 4.013955003089392E8 ; 0.0
40 ; 9917255.035756698 ; 1.0292192315613832E7 ; 3.789735618910896E8 ; 4.11687692624553E8 ; 0.0
41 ; 9927171.025677904 ; 1.0292192315613832E7 ; 3.888908169268463E8 ; 4.2197988494016683E8 ; 0.0
42 ; 9933258.402797243 ; 1.0292192315613832E7 ; 3.9881798795252424E8 ; 4.3227207725578064E8 ; 0.0
43 ; 9937061.015418258 ; 1.0292192315613832E7 ; 4.0875124635532147E8 ; 4.4256426957139444E8 ; 0.0
44 ; 9945006.568457225 ; 1.0292192315613832E7 ; 4.186883073707397E8 ; 4.5285646188700825E8 ; 0.0
45 ; 9947466.346637798 ; 1.0292192315613832E7 ; 4.2863331393919694E8 ; 4.6314865420262206E8 ; 0.0
46 ; 9956371.396563867 ; 1.0292192315613832E7 ; 4.385807802858347E8 ; 4.7344084651823586E8 ; 0.0
47 ; 9959579.638834413 ; 1.0292192315613832E7 ; 4.485371516823986E8 ; 4.8373303883384967E8 ; 0.0
48 ; 9962726.307980947 ; 1.0292192315613832E7 ; 4.5849673132123303E8 ; 4.940252311494635E8 ; 0.0
49 ; 9966687.442025382 ; 1.0292192315613832E7 ; 4.68459457629214E8 ; 5.043174234650773E8 ; 0.0
50 ; 9971183.765716463 ; 1.0292192315613832E7 ; 4.7842614507123935E8 ; 5.146096157806911E8 ; 0.0
51 ; 9975301.458427534 ; 1.0292192315613832E7 ; 4.883973288369558E8 ; 5.249018080963049E8 ; 0.0
52 ; 9975189.479143763 ; 1.0292192315613832E7 ; 4.9837263029538333E8 ; 5.351940004119187E8 ; 0.0
53 ; 9981142.58440457 ; 1.0292192315613832E7 ; 5.083478197745271E8 ; 5.454861927275325E8 ; 0.0
54 ; 9981239.63016721 ; 1.0292192315613832E7 ; 5.1832896235893166E8 ; 5.557783850431464E8 ; 0.0
55 ; 9983553.832171103 ; 1.0292192315613832E7 ; 5.2831020198909885E8 ; 5.660705773587602E8 ; 0.0
56 ; 9987650.90827968 ; 1.0292192315613832E7 ; 5.3829375582127E8 ; 5.763627696743741E8 ; 0.0
57 ; 9991325.409402974 ; 1.0292192315613832E7 ; 5.482814067295496E8 ; 5.86654961989988E8 ; 0.0
58 ; 9994274.585017027 ; 1.0292192315613832E7 ; 5.582727321389526E8 ; 5.969471543056018E8 ; 0.0
59 ; 9991837.421172371 ; 1.0292192315613832E7 ; 5.682670067239697E8 ; 6.072393466212157E8 ; 0.0
60 ; 9994905.105701197 ; 1.0292192315613832E7 ; 5.782588441451421E8 ; 6.175315389368296E8 ; 0.0
61 ; 9998018.049223315 ; 1.0292192315613832E7 ; 5.882537492508433E8 ; 6.278237312524434E8 ; 0.0
62 ; 1.0000080426362693E7 ; 1.0292192315613832E7 ; 5.982517673000666E8 ; 6.381159235680573E8 ; 0.0
63 ; 1.000205772632439E7 ; 1.0292192315613832E7 ; 6.082518477264292E8 ; 6.484081158836712E8 ; 0.0
64 ; 1.0001508574900154E7 ; 1.0292192315613832E7 ; 6.182539054527537E8 ; 6.58700308199285E8 ; 0.0
65 ; 1.0005888165518783E7 ; 1.0292192315613832E7 ; 6.282554140276538E8 ; 6.689925005148989E8 ; 0.0
66 ; 1.0006773368841987E7 ; 1.0292192315613832E7 ; 6.382613021931726E8 ; 6.792846928305128E8 ; 0.0
67 ; 1.00058627323041E7 ; 1.0292192315613832E7 ; 6.482680755620146E8 ; 6.895768851461266E8 ; 0.0
68 ; 1.0007702632884763E7 ; 1.0292192315613832E7 ; 6.582739382943187E8 ; 6.998690774617405E8 ; 0.0
69 ; 1.0008129278382547E7 ; 1.0292192315613832E7 ; 6.682816409272034E8 ; 7.101612697773544E8 ; 0.0
70 ; 1.000838423087318E7 ; 1.0292192315613832E7 ; 6.78289770205586E8 ; 7.204534620929682E8 ; 0.0
71 ; 1.0008776702823479E7 ; 1.0292192315613832E7 ; 6.882981544364592E8 ; 7.307456544085821E8 ; 0.0
72 ; 1.0011643413392881E7 ; 1.0292192315613832E7 ; 6.983069311392827E8 ; 7.41037846724196E8 ; 0.0
73 ; 1.0010454490794798E7 ; 1.0292192315613832E7 ; 7.083185745526756E8 ; 7.513300390398098E8 ; 0.0
74 ; 1.0012065389741577E7 ; 1.0292192315613832E7 ; 7.183290290434704E8 ; 7.616222313554237E8 ; 0.0
75 ; 1.0013630186745487E7 ; 1.0292192315613832E7 ; 7.283410944332119E8 ; 7.719144236710376E8 ; 0.0
76 ; 1.0014254063441752E7 ; 1.0292192315613832E7 ; 7.383547246199574E8 ; 7.822066159866514E8 ; 0.0
77 ; 1.0012565859182436E7 ; 1.0292192315613832E7 ; 7.483689786833992E8 ; 7.924988083022653E8 ; 0.0
78 ; 1.0012787489643415E7 ; 1.0292192315613832E7 ; 7.583815445425817E8 ; 8.027910006178792E8 ; 0.0
79 ; 1.0006210806785082E7 ; 1.0292192315613832E7 ; 7.683943320322251E8 ; 8.13083192933493E8 ; 0.0
80 ; 1.0003037443552522E7 ; 1.0292192315613832E7 ; 7.784005428390102E8 ; 8.233753852491069E8 ; 0.0
81 ; 1.0003549326911418E7 ; 1.0292192315613832E7 ; 7.884035802825627E8 ; 8.336675775647207E8 ; 0.0
82 ; 9999811.237437591 ; 1.0292192315613832E7 ; 7.984071296094742E8 ; 8.439597698803346E8 ; 0.0
83 ; 9994046.386253431 ; 1.0292192315613832E7 ; 8.084069408469118E8 ; 8.542519621959485E8 ; 0.0
84 ; 9993957.649960902 ; 1.0292192315613832E7 ; 8.184009872331653E8 ; 8.645441545115623E8 ; 0.0
85 ; 9989854.257938178 ; 1.0292192315613832E7 ; 8.283949448831261E8 ; 8.748363468271762E8 ; 0.0
86 ; 9987607.182543036 ; 1.0292192315613832E7 ; 8.383847991410643E8 ; 8.851285391427901E8 ; 0.0
87 ; 9978966.000021024 ; 1.0292192315613832E7 ; 8.483724063236073E8 ; 8.95420731458404E8 ; 0.0
88 ; 9980023.881154342 ; 1.0292192315613832E7 ; 8.583513723236283E8 ; 9.057129237740178E8 ; 0.0
89 ; 9974495.348807672 ; 1.0292192315613832E7 ; 8.683313962047826E8 ; 9.160051160896317E8 ; 0.0
90 ; 9970032.82462313 ; 1.0292192315613832E7 ; 8.783058915535903E8 ; 9.262973084052455E8 ; 0.0
91 ; 9967546.796604663 ; 1.0292192315613832E7 ; 8.882759243782134E8 ; 9.365895007208594E8 ; 0.0
92 ; 9960355.302752497 ; 1.0292192315613832E7 ; 8.98243471174818E8 ; 9.468816930364733E8 ; 0.0
93 ; 9958576.123571638 ; 1.0292192315613832E7 ; 9.082038264775705E8 ; 9.571738853520871E8 ; 0.0
94 ; 9953428.099819299 ; 1.0292192315613832E7 ; 9.181624026011422E8 ; 9.67466077667701E8 ; 0.0
95 ; 9950372.82012304 ; 1.0292192315613832E7 ; 9.281158307009615E8 ; 9.777582699833149E8 ; 0.0
96 ; 9943935.82513306 ; 1.0292192315613832E7 ; 9.380662035210845E8 ; 9.880504622989287E8 ; 0.0
97 ; 9942602.653848674 ; 1.0292192315613832E7 ; 9.480101393462176E8 ; 9.983426546145426E8 ; 0.0
98 ; 9934866.954957185 ; 1.0292192315613832E7 ; 9.579527420000663E8 ; 1.0086348469301565E9 ; 0.0
99 ; 9931233.853765124 ; 1.0292192315613832E7 ; 9.678876089550234E8 ; 1.0189270392457703E9 ; 0.0
100 ; 9926672.49959011 ; 1.0292192315613832E7 ; 9.778188428087885E8 ; 1.0292192315613842E9 ; 0.0
101 ; 9921589.740386674 ; 1.0292192315613832E7 ; 9.877455153083787E8 ; 1.0395114238769981E9 ; 0.0
102 ; 9914245.301020468 ; 1.0292192315613832E7 ; 9.976671050487654E8 ; 1.0498036161926119E9 ; 0.0
103 ; 9912625.01276169 ; 1.0292192315613832E7 ; 1.0075813503497859E9 ; 1.0600958085082258E9 ; 0.0
104 ; 9903284.149652246 ; 1.0292192315613832E7 ; 1.0174939753625476E9 ; 1.0703880008238397E9 ; 0.0
105 ; 9898891.772280646 ; 1.0292192315613832E7 ; 1.0273972595121999E9 ; 1.0806801931394534E9 ; 0.0
106 ; 9892315.363956213 ; 1.0292192315613832E7 ; 1.0372961512844806E9 ; 1.0909723854550672E9 ; 0.0
107 ; 9888609.520550502 ; 1.0292192315613832E7 ; 1.0471884666484368E9 ; 1.101264577770681E9 ; 0.0
108 ; 9881790.902395789 ; 1.0292192315613832E7 ; 1.0570770761689873E9 ; 1.1115567700862947E9 ; 0.0
109 ; 9875511.960696507 ; 1.0292192315613832E7 ; 1.0669588670713831E9 ; 1.1218489624019084E9 ; 0.0
110 ; 9871719.358961672 ; 1.0292192315613832E7 ; 1.0768343790320797E9 ; 1.1321411547175221E9 ; 0.0
111 ; 9866731.684532497 ; 1.0292192315613832E7 ; 1.0867060983910413E9 ; 1.142433347033136E9 ; 0.0
112 ; 9859897.332892403 ; 1.0292192315613832E7 ; 1.0965728300755737E9 ; 1.1527255393487496E9 ; 0.0
113 ; 9850495.700625475 ; 1.0292192315613832E7 ; 1.106432727408466E9 ; 1.1630177316643634E9 ; 0.0
114 ; 9846081.639935173 ; 1.0292192315613832E7 ; 1.1162832231090915E9 ; 1.1733099239799771E9 ; 0.0
115 ; 9842879.900352035 ; 1.0292192315613832E7 ; 1.1261293047490268E9 ; 1.1836021162955909E9 ; 0.0
116 ; 9834359.356467672 ; 1.0292192315613832E7 ; 1.1359721846493788E9 ; 1.1938943086112046E9 ; 0.0
117 ; 9825199.530520836 ; 1.0292192315613832E7 ; 1.1458065440058465E9 ; 1.2041865009268184E9 ; 0.0
118 ; 9822777.919388644 ; 1.0292192315613832E7 ; 1.1556317435363674E9 ; 1.214478693242432E9 ; 0.0
119 ; 9813344.792859513 ; 1.0292192315613832E7 ; 1.165454521455756E9 ; 1.2247708855580459E9 ; 0.0
120 ; 9810996.076794421 ; 1.0292192315613832E7 ; 1.1752678662486155E9 ; 1.2350630778736596E9 ; 0.0
121 ; 9798255.718773685 ; 1.0292192315613832E7 ; 1.18507886232541E9 ; 1.2453552701892734E9 ; 0.0
122 ; 9795295.155466437 ; 1.0292192315613832E7 ; 1.1948771180441835E9 ; 1.255647462504887E9 ; 0.0
123 ; 9786381.408554332 ; 1.0292192315613832E7 ; 1.2046724131996498E9 ; 1.2659396548205009E9 ; 0.0
124 ; 9777846.260632755 ; 1.0292192315613832E7 ; 1.2144587946082041E9 ; 1.2762318471361146E9 ; 0.0
125 ; 9770390.085036667 ; 1.0292192315613832E7 ; 1.2242366408688369E9 ; 1.2865240394517283E9 ; 0.0
126 ; 9762692.437914299 ; 1.0292192315613832E7 ; 1.2340070309538736E9 ; 1.296816231767342E9 ; 0.0
127 ; 9754365.503061406 ; 1.0292192315613832E7 ; 1.243769723391788E9 ; 1.3071084240829558E9 ; 0.0
128 ; 9749673.391491024 ; 1.0292192315613832E7 ; 1.2535240888948493E9 ; 1.3174006163985696E9 ; 0.0
129 ; 9739629.224165274 ; 1.0292192315613832E7 ; 1.2632737622863402E9 ; 1.3276928087141833E9 ; 0.0
130 ; 9732159.249959027 ; 1.0292192315613832E7 ; 1.2730133915105054E9 ; 1.337985001029797E9 ; 0.0
131 ; 9719219.362361256 ; 1.0292192315613832E7 ; 1.2827455507604644E9 ; 1.3482771933454108E9 ; 0.0
132 ; 9709762.487517605 ; 1.0292192315613832E7 ; 1.2924647701228256E9 ; 1.3585693856610246E9 ; 0.0
133 ; 9696624.042631326 ; 1.0292192315613832E7 ; 1.3021745326103432E9 ; 1.3688615779766383E9 ; 0.0
134 ; 9686559.830737215 ; 1.0292192315613832E7 ; 1.3118711566529746E9 ; 1.379153770292252E9 ; 0.0
135 ; 9675905.388089906 ; 1.0292192315613832E7 ; 1.3215577164837117E9 ; 1.3894459626078658E9 ; 0.0
136 ; 9665182.46194041 ; 1.0292192315613832E7 ; 1.3312336218718016E9 ; 1.3997381549234796E9 ; 0.0
137 ; 9654843.662334433 ; 1.0292192315613832E7 ; 1.3408988043337421E9 ; 1.4100303472390933E9 ; 0.0
138 ; 9642744.077766651 ; 1.0292192315613832E7 ; 1.3505536479960766E9 ; 1.420322539554707E9 ; 0.0
139 ; 9631275.333040224 ; 1.0292192315613832E7 ; 1.3601963920738432E9 ; 1.4306147318703208E9 ; 0.0
140 ; 9620134.083255675 ; 1.0292192315613832E7 ; 1.3698276674068835E9 ; 1.4409069241859345E9 ; 0.0
141 ; 9606877.9821694 ; 1.0292192315613832E7 ; 1.3794478014901392E9 ; 1.4511991165015483E9 ; 0.0
142 ; 9596592.25623205 ; 1.0292192315613832E7 ; 1.3890546794723086E9 ; 1.461491308817162E9 ; 0.0
143 ; 9585395.753259953 ; 1.0292192315613832E7 ; 1.3986512717285407E9 ; 1.4717835011327758E9 ; 0.0
144 ; 9571696.972934287 ; 1.0292192315613832E7 ; 1.4082366674818006E9 ; 1.4820756934483895E9 ; 0.0
145 ; 9563717.856449904 ; 1.0292192315613832E7 ; 1.4178083644547348E9 ; 1.4923678857640033E9 ; 0.0
146 ; 9552769.934480835 ; 1.0292192315613832E7 ; 1.4273720823111846E9 ; 1.502660078079617E9 ; 0.0
147 ; 9544764.615940941 ; 1.0292192315613832E7 ; 1.4369248522456656E9 ; 1.5129522703952308E9 ; 0.0
148 ; 9539665.090797052 ; 1.0292192315613832E7 ; 1.4464696168616066E9 ; 1.5232444627108445E9 ; 0.0
149 ; 9531463.889767935 ; 1.0292192315613832E7 ; 1.4560092819524035E9 ; 1.5335366550264583E9 ; 0.0
150 ; 9522280.184908148 ; 1.0292192315613832E7 ; 1.4655407458421714E9 ; 1.543828847342072E9 ; 0.0
151 ; 9511424.5388004 ; 1.0292192315613832E7 ; 1.4750630260270796E9 ; 1.5541210396576858E9 ; 0.0
152 ; 9504050.87724345 ; 1.0292192315613832E7 ; 1.48457445056588E9 ; 1.5644132319732995E9 ; 0.0
153 ; 9496976.315584715 ; 1.0292192315613832E7 ; 1.4940785014431236E9 ; 1.5747054242889132E9 ; 0.0
154 ; 9486627.0981185 ; 1.0292192315613832E7 ; 1.5035754777587082E9 ; 1.584997616604527E9 ; 0.0
155 ; 9477082.6992567 ; 1.0292192315613832E7 ; 1.5130621048568268E9 ; 1.5952898089201407E9 ; 0.0
156 ; 9471074.158418175 ; 1.0292192315613832E7 ; 1.5225391875560834E9 ; 1.6055820012357545E9 ; 0.0
157 ; 9459748.173772482 ; 1.0292192315613832E7 ; 1.5320102617145016E9 ; 1.6158741935513682E9 ; 0.0
158 ; 9449895.840885717 ; 1.0292192315613832E7 ; 1.5414700098882742E9 ; 1.626166385866982E9 ; 0.0
159 ; 9442887.53797335 ; 1.0292192315613832E7 ; 1.5509199057291598E9 ; 1.6364585781825957E9 ; 0.0
160 ; 9431940.930104313 ; 1.0292192315613832E7 ; 1.5603627932671332E9 ; 1.6467507704982095E9 ; 0.0
161 ; 9423408.181286419 ; 1.0292192315613832E7 ; 1.5697947341972375E9 ; 1.6570429628138232E9 ; 0.0
162 ; 9419518.625868637 ; 1.0292192315613832E7 ; 1.5792181423785238E9 ; 1.667335155129437E9 ; 0.0
163 ; 9407080.069874965 ; 1.0292192315613832E7 ; 1.5886376610043924E9 ; 1.6776273474450507E9 ; 0.0
164 ; 9399657.280407045 ; 1.0292192315613832E7 ; 1.5980447410742674E9 ; 1.6879195397606645E9 ; 0.0
165 ; 9390989.013711717 ; 1.0292192315613832E7 ; 1.6074443983546743E9 ; 1.6982117320762782E9 ; 0.0
166 ; 9379426.362386271 ; 1.0292192315613832E7 ; 1.616835387368386E9 ; 1.708503924391892E9 ; 0.0
167 ; 9372309.728941966 ; 1.0292192315613832E7 ; 1.6262148137307723E9 ; 1.7187961167075057E9 ; 0.0
168 ; 9363920.484602053 ; 1.0292192315613832E7 ; 1.6355871234597142E9 ; 1.7290883090231194E9 ; 0.0
169 ; 9352454.804080069 ; 1.0292192315613832E7 ; 1.6449510439443161E9 ; 1.7393805013387332E9 ; 0.0
170 ; 9340829.796470117 ; 1.0292192315613832E7 ; 1.6543034987483962E9 ; 1.749672693654347E9 ; 0.0
171 ; 9334717.008197555 ; 1.0292192315613832E7 ; 1.6636443285448663E9 ; 1.7599648859699607E9 ; 0.0
172 ; 9324662.77459407 ; 1.0292192315613832E7 ; 1.6729790455530639E9 ; 1.7702570782855744E9 ; 0.0
173 ; 9314931.508763328 ; 1.0292192315613832E7 ; 1.682303708327658E9 ; 1.7805492706011882E9 ; 0.0
174 ; 9310948.34431754 ; 1.0292192315613832E7 ; 1.6916186398364213E9 ; 1.790841462916802E9 ; 0.0
175 ; 9304071.12900174 ; 1.0292192315613832E7 ; 1.7009295881807387E9 ; 1.8011336552324157E9 ; 0.0
176 ; 9299452.455571992 ; 1.0292192315613832E7 ; 1.7102336593097405E9 ; 1.8114258475480294E9 ; 0.0
177 ; 9296011.122922923 ; 1.0292192315613832E7 ; 1.7195331117653124E9 ; 1.8217180398636432E9 ; 0.0
178 ; 9288548.646500563 ; 1.0292192315613832E7 ; 1.7288291228882353E9 ; 1.832010232179257E9 ; 0.0
179 ; 9283107.378647849 ; 1.0292192315613832E7 ; 1.738117671534736E9 ; 1.8423024244948707E9 ; 0.0
180 ; 9276608.30577486 ; 1.0292192315613832E7 ; 1.7474007789133837E9 ; 1.8525946168104844E9 ; 0.0
181 ; 9269291.442385236 ; 1.0292192315613832E7 ; 1.7566773872191586E9 ; 1.8628868091260982E9 ; 0.0
182 ; 9267827.126940826 ; 1.0292192315613832E7 ; 1.7659466786615438E9 ; 1.873179001441712E9 ; 0.0
183 ; 9260782.75647703 ; 1.0292192315613832E7 ; 1.7752145057884846E9 ; 1.8834711937573256E9 ; 0.0
184 ; 9256312.903893018 ; 1.0292192315613832E7 ; 1.7844752885449617E9 ; 1.8937633860729394E9 ; 0.0
185 ; 9249243.621952547 ; 1.0292192315613832E7 ; 1.7937316014488547E9 ; 1.9040555783885531E9 ; 0.0
186 ; 9241109.056255784 ; 1.0292192315613832E7 ; 1.8029808450708072E9 ; 1.914347770704167E9 ; 0.0
187 ; 9236629.972548978 ; 1.0292192315613832E7 ; 1.812221954127063E9 ; 1.9246399630197806E9 ; 0.0
188 ; 9232195.28926991 ; 1.0292192315613832E7 ; 1.821458584099612E9 ; 1.9349321553353944E9 ; 0.0
189 ; 9227575.848832129 ; 1.0292192315613832E7 ; 1.830690779388882E9 ; 1.9452243476510081E9 ; 0.0
190 ; 9222181.744057689 ; 1.0292192315613832E7 ; 1.839918355237714E9 ; 1.9555165399666219E9 ; 0.0
191 ; 9217398.561024075 ; 1.0292192315613832E7 ; 1.8491405369817717E9 ; 1.9658087322822356E9 ; 0.0
192 ; 9209892.466992274 ; 1.0292192315613832E7 ; 1.858357935542796E9 ; 1.9761009245978494E9 ; 0.0
193 ; 9202970.511933686 ; 1.0292192315613832E7 ; 1.8675678280097883E9 ; 1.986393116913463E9 ; 0.0
194 ; 9200093.827099167 ; 1.0292192315613832E7 ; 1.876770798521722E9 ; 1.9966853092290769E9 ; 0.0
195 ; 9195528.218773719 ; 1.0292192315613832E7 ; 1.8859708923488212E9 ; 2.0069775015446906E9 ; 0.0
196 ; 9185864.139217557 ; 1.0292192315613832E7 ; 1.8951664205675948E9 ; 2.0172696938603044E9 ; 0.0
197 ; 9183089.935385218 ; 1.0292192315613832E7 ; 1.9043522847068124E9 ; 2.027561886175918E9 ; 0.0
198 ; 9176754.301000185 ; 1.0292192315613832E7 ; 1.9135353746421976E9 ; 2.0378540784915318E9 ; 0.0
199 ; 9172840.863673221 ; 1.0292192315613832E7 ; 1.9227121289431977E9 ; 2.0481462708071456E9 ; 0.0
200 ; 9166611.041285798 ; 1.0292192315613832E7 ; 1.931884969806871E9 ; 2.0584384631227593E9 ; 0.0
201 ; 9159506.781478481 ; 1.0292192315613832E7 ; 1.9410515808481567E9 ; 2.068730655438373E9 ; 0.0
