CSV File for the City 6 on Day 103
1 - Minute m 
2 - Power Consumed at minute m 
3 - Power Produced at minute m 
4 - Energy Consumed since the beginning of the day 
5 - Energy Produced since the beginning of the day 
6 - Energy Lost since the beginning of the day on lines starting from the city
 
0 ; 1.1225534129329842E7 ; 1.0613629237739208E8 ; 0.0 ; 0.0 ; 0.0
1 ; 1.1239127697370226E7 ; 1.0628719779349834E8 ; 1.1225534129329842E7 ; 1.0613629237739208E8 ; 0.0
2 ; 1.124859656132954E7 ; 1.0674709380611369E8 ; 2.246466182670007E7 ; 2.1242349017089042E8 ; 0.0
3 ; 1.1266384493309354E7 ; 1.075159839711895E8 ; 3.3713258388029605E7 ; 3.191705839770041E8 ; 0.0
4 ; 1.128367450673179E7 ; 1.0859387147349733E8 ; 4.497964288133896E7 ; 4.266865679481936E8 ; 0.0
5 ; 1.1301356338074205E7 ; 1.0998075910965914E8 ; 5.626331738807075E7 ; 5.3528043942169094E8 ; 0.0
6 ; 1.1328482216589762E7 ; 1.1167664927297243E8 ; 6.756467372614495E7 ; 6.452611985313501E8 ; 0.0
7 ; 1.1366009804165436E7 ; 1.1368154394022024E8 ; 7.889315594273472E7 ; 7.569378478043226E8 ; 0.0
8 ; 1.1419641848255694E7 ; 1.1599544466063362E8 ; 9.025916574690016E7 ; 8.706193917445428E8 ; 0.0
9 ; 1.1500172325862698E7 ; 1.1861835254715163E8 ; 1.0167880759515585E8 ; 9.866148364051764E8 ; 0.0
10 ; 1.1625145392875448E7 ; 1.2155026827009284E8 ; 1.1317897992101854E8 ; 1.105233188952328E9 ; 0.0
11 ; 1.1823193232348967E7 ; 1.2479119205332449E8 ; 1.2480412531389399E8 ; 1.2267834572224207E9 ; 0.0
12 ; 1.2140328851217601E7 ; 1.2834112367297933E8 ; 1.3662731854624295E8 ; 1.3515746492757452E9 ; 0.0
13 ; 1.2443856812096879E7 ; 1.3220006245873874E8 ; 1.4876764739746055E8 ; 1.4799157729487245E9 ; 0.0
14 ; 1.2480414768508906E7 ; 1.363680072976638E8 ; 1.612115042095574E8 ; 1.6121158354074633E9 ; 0.0
15 ; 1.2496708113750704E7 ; 1.408449566405233E8 ; 1.7369191897806633E8 ; 1.7484838427051272E9 ; 0.0
16 ; 1.2508039290952554E7 ; 1.4563090851053438E8 ; 1.8618862709181702E8 ; 1.8893287993456507E9 ; 0.0
17 ; 1.2520837719418813E7 ; 1.5072586051439938E8 ; 1.9869666638276958E8 ; 2.034959707856185E9 ; 0.0
18 ; 1.2538678981557377E7 ; 1.561298098554964E8 ; 2.112175041021884E8 ; 2.1856855683705845E9 ; 0.0
19 ; 1.255313205103243E7 ; 1.618427533490539E8 ; 2.2375618308374578E8 ; 2.341815378226081E9 ; 0.0
20 ; 1.2568463000961661E7 ; 1.6786468743912044E8 ; 2.363093151347782E8 ; 2.5036581315751348E9 ; 0.0
21 ; 1.2581279206833828E7 ; 1.7419560821712223E8 ; 2.4887777813573986E8 ; 2.671522819014255E9 ; 0.0
22 ; 1.260259379169082E7 ; 1.8083551144178993E8 ; 2.614590573425737E8 ; 2.845718427231377E9 ; 0.0
23 ; 1.261350044429866E7 ; 1.877843925602268E8 ; 2.740616511342645E8 ; 3.026553938673167E9 ; 0.0
24 ; 1.2630378804618673E7 ; 1.9504224672988778E8 ; 2.866751515785632E8 ; 3.214338331233394E9 ; 0.0
25 ; 1.2642054417529328E7 ; 2.0129710973942176E8 ; 2.9930553038318187E8 ; 3.409380577963282E9 ; 0.0
26 ; 1.2658889087049333E7 ; 2.013025240686802E8 ; 3.119475848007112E8 ; 3.610677687702704E9 ; 0.0
27 ; 1.2675027758992983E7 ; 2.0130825343696883E8 ; 3.246064738877605E8 ; 3.8119802117713842E9 ; 0.0
28 ; 1.268690894807171E7 ; 2.0131429207319653E8 ; 3.372815016467535E8 ; 4.013288465208353E9 ; 0.0
29 ; 1.269921442215164E7 ; 2.0132063403233168E8 ; 3.499684105948252E8 ; 4.2146027572815495E9 ; 0.0
30 ; 1.2716035594721377E7 ; 2.0132727321827E8 ; 3.6266762501697683E8 ; 4.415923391313881E9 ; 0.0
31 ; 1.2728158202540264E7 ; 2.0133420340619805E8 ; 3.753836606116982E8 ; 4.617250664532151E9 ; 0.0
32 ; 1.274263045760291E7 ; 2.013414182643097E8 ; 3.881118188142385E8 ; 4.81858486793835E9 ; 0.0
33 ; 1.2756651050401913E7 ; 2.013489113747525E8 ; 4.008544492718414E8 ; 5.01992628620266E9 ; 0.0
34 ; 1.2768131164874975E7 ; 2.0135667625369838E8 ; 4.1361110032224333E8 ; 5.221275197577412E9 ; 0.0
35 ; 1.278120208452933E7 ; 2.0136470637045372E8 ; 4.263792314871183E8 ; 5.42263187383111E9 ; 0.0
36 ; 1.2794331137406236E7 ; 2.0137299516553977E8 ; 4.3916043357164764E8 ; 5.623996580201564E9 ; 0.0
37 ; 1.2805654714598194E7 ; 2.0138153606769395E8 ; 4.519547647090539E8 ; 5.825369575367104E9 ; 0.0
38 ; 1.2817654228385493E7 ; 2.0139032250975668E8 ; 4.6476041942365205E8 ; 6.026751111434797E9 ; 0.0
39 ; 1.282685854381035E7 ; 2.0139934794342458E8 ; 4.7757807365203756E8 ; 6.228141433944554E9 ; 0.0
40 ; 1.2835787982052807E7 ; 2.014086058528639E8 ; 4.904049321958479E8 ; 6.429540781887979E9 ; 0.0
41 ; 1.2848863016282428E7 ; 2.0141808976718995E8 ; 5.0324072017790073E8 ; 6.630949387740843E9 ; 0.0
42 ; 1.28525010231027E7 ; 2.0142779327182892E8 ; 5.160895831941832E8 ; 6.832367477508033E9 ; 0.0
43 ; 1.2865923303207757E7 ; 2.0143771001878804E8 ; 5.289420842172859E8 ; 7.033795270779861E9 ; 0.0
44 ; 1.287293795840212E7 ; 2.0144783373586693E8 ; 5.418080075204936E8 ; 7.23523298079865E9 ; 0.0
45 ; 1.28850171222797E7 ; 2.014581582348495E8 ; 5.546809454788958E8 ; 7.436680814534516E9 ; 0.0
46 ; 1.2887322485374304E7 ; 2.014686774187216E8 ; 5.675659626011754E8 ; 7.638138972769366E9 ; 0.0
47 ; 1.2896135909162316E7 ; 2.0147938528796178E8 ; 5.804532850865498E8 ; 7.839607650188087E9 ; 0.0
48 ; 1.2901912203988543E7 ; 2.0149027594595748E8 ; 5.93349420995712E8 ; 8.041087035476049E9 ; 0.0
49 ; 1.2908854601068364E7 ; 2.0150134360359833E8 ; 6.062513331997006E8 ; 8.242577311422007E9 ; 0.0
50 ; 1.291155983081762E7 ; 2.015125825831015E8 ; 6.19160187800769E8 ; 8.444078655025605E9 ; 0.0
51 ; 1.291708615017421E7 ; 2.015239873211226E8 ; 6.320717476315866E8 ; 8.645591237608707E9 ; 0.0
52 ; 1.2921560712434834E7 ; 2.0153555237120587E8 ; 6.449888337817608E8 ; 8.84711522492983E9 ; 0.0
53 ; 1.2926048640865833E7 ; 2.0154727240562668E8 ; 6.579103944941957E8 ; 9.048650777301037E9 ; 0.0
54 ; 1.2930678671290893E7 ; 2.015591422166774E8 ; 6.708364431350615E8 ; 9.250198049706663E9 ; 0.0
55 ; 1.2937711217735844E7 ; 2.0157115671744612E8 ; 6.837671218063524E8 ; 9.45175719192334E9 ; 0.0
56 ; 1.2939265547510196E7 ; 2.015833109421361E8 ; 6.967048330240883E8 ; 9.653328348640785E9 ; 0.0
57 ; 1.294103425552468E7 ; 2.015956000459709E8 ; 7.096440985715984E8 ; 9.854911659582922E9 ; 0.0
58 ; 1.2947536842423009E7 ; 2.016080193047284E8 ; 7.22585132827123E8 ; 1.0056507259628893E10 ; 0.0
59 ; 1.295045392622882E7 ; 2.016205641139438E8 ; 7.35532669669546E8 ; 1.025811527893362E10 ; 0.0
60 ; 1.2954345404876903E7 ; 2.0163322998781976E8 ; 7.484831235957748E8 ; 1.0459735843047564E10 ; 0.0
61 ; 1.295738281036023E7 ; 2.0164601255787912E8 ; 7.614374690006517E8 ; 1.0661369073035383E10 ; 0.0
62 ; 1.2958909441179603E7 ; 2.0165890757139233E8 ; 7.743948518110119E8 ; 1.0863015085593262E10 ; 0.0
63 ; 1.2965212551511638E7 ; 2.0167191088961118E8 ; 7.873537612521915E8 ; 1.1064673993164654E10 ; 0.0
64 ; 1.2963656589986622E7 ; 2.0168501848583546E8 ; 8.003189738037032E8 ; 1.1266345904054264E10 ; 0.0
65 ; 1.296979944183972E7 ; 2.016982264433393E8 ; 8.132826303936899E8 ; 1.14680309225401E10 ; 0.0
66 ; 1.2972924256405301E7 ; 2.0171153095317972E8 ; 8.262524298355296E8 ; 1.1669729148983438E10 ; 0.0
67 ; 1.2976650282382587E7 ; 2.0172492831190968E8 ; 8.392253540919349E8 ; 1.1871440679936619E10 ; 0.0
68 ; 1.2979535834745917E7 ; 2.017384149192139E8 ; 8.522020043743175E8 ; 1.2073165608248528E10 ; 0.0
69 ; 1.2979455852955565E7 ; 2.0175198727548584E8 ; 8.651815402090634E8 ; 1.2274904023167742E10 ; 0.0
70 ; 1.2982548763945045E7 ; 2.01765641979361E8 ; 8.78160996062019E8 ; 1.2476656010443228E10 ; 0.0
71 ; 1.2987543646729691E7 ; 2.0177937572522086E8 ; 8.911435448259641E8 ; 1.2678421652422588E10 ; 0.0
72 ; 1.2988353091062598E7 ; 2.017931853006798E8 ; 9.041310884726938E8 ; 1.288020102814781E10 ; 0.0
73 ; 1.2989720717803383E7 ; 2.0180706758406654E8 ; 9.171194415637563E8 ; 1.308199421344849E10 ; 0.0
74 ; 1.2992576670653248E7 ; 2.018210195419094E8 ; 9.301091622815597E8 ; 1.3283801281032557E10 ; 0.0
75 ; 1.299358898345716E7 ; 2.0183503822643453E8 ; 9.431017389522129E8 ; 1.3485622300574467E10 ; 0.0
76 ; 1.2995856733597234E7 ; 2.0184912077308446E8 ; 9.560953279356701E8 ; 1.3687457338800901E10 ; 0.0
77 ; 1.2999358822440455E7 ; 2.018632643980636E8 ; 9.690911846692674E8 ; 1.3889306459573986E10 ; 0.0
78 ; 1.2995924185383888E7 ; 2.0187746639591613E8 ; 9.820905434917079E8 ; 1.409116972397205E10 ; 0.0
79 ; 1.2991279694223404E7 ; 2.0189172413714164E8 ; 9.950864676770918E8 ; 1.4293047190367966E10 ; 0.0
80 ; 1.2990818971292378E7 ; 2.0190603506585214E8 ; 1.0080777473713152E9 ; 1.4494938914505108E10 ; 0.0
81 ; 1.2988534332726857E7 ; 2.0192039669747385E8 ; 1.0210685663426076E9 ; 1.469684494957096E10 ; 0.0
82 ; 1.299049016213031E7 ; 2.0193480661649734E8 ; 1.0340571006753345E9 ; 1.4898765346268433E10 ; 0.0
83 ; 1.2982685607297866E7 ; 2.01949262474277E8 ; 1.0470475908374648E9 ; 1.510070015288493E10 ; 0.0
84 ; 1.2979726309552835E7 ; 2.0196376198688307E8 ; 1.0600302764447627E9 ; 1.5302649415359207E10 ; 0.0
85 ; 1.2978968378078232E7 ; 2.0197830293300644E8 ; 1.0730100027543155E9 ; 1.550461317734609E10 ; 0.0
86 ; 1.297867263205249E7 ; 2.0199288315191793E8 ; 1.0859889711323938E9 ; 1.5706591480279097E10 ; 0.0
87 ; 1.2971862042653443E7 ; 2.0200750054148245E8 ; 1.0989676437644463E9 ; 1.5908584363431015E10 ; 0.0
88 ; 1.2969580856942957E7 ; 2.020221530562281E8 ; 1.1119395058070998E9 ; 1.6110591863972498E10 ; 0.0
89 ; 1.2966358103248376E7 ; 2.0203683870547098E8 ; 1.1249090866640427E9 ; 1.6312614017028727E10 ; 0.0
90 ; 1.2960424023713218E7 ; 2.0205155555149487E8 ; 1.137875444767291E9 ; 1.6514650855734198E10 ; 0.0
91 ; 1.2959831079446595E7 ; 2.0206630170778584E8 ; 1.1508358687910042E9 ; 1.6716702411285692E10 ; 0.0
92 ; 1.2956238130367985E7 ; 2.0208107533732122E8 ; 1.1637956998704507E9 ; 1.6918768712993479E10 ; 0.0
93 ; 1.2951904453456124E7 ; 2.02095874650912E8 ; 1.1767519380008187E9 ; 1.71208497883308E10 ; 0.0
94 ; 1.295213755345517E7 ; 2.021106979055983E8 ; 1.189703842454275E9 ; 1.7322945662981712E10 ; 0.0
95 ; 1.29458940953775E7 ; 2.0212554340309682E8 ; 1.20265598000773E9 ; 1.752505636088731E10 ; 0.0
96 ; 1.2939424773639482E7 ; 2.0214040948829904E8 ; 1.2156018741031075E9 ; 1.7727181904290405E10 ; 0.0
97 ; 1.293882123008159E7 ; 2.021552945478195E8 ; 1.228541298876747E9 ; 1.7929322313778706E10 ; 0.0
98 ; 1.2931421861088598E7 ; 2.0217019700859284E8 ; 1.2414801201068285E9 ; 1.8131477608326527E10 ; 0.0
99 ; 1.2930154872337397E7 ; 2.0218511533651862E8 ; 1.254411541967917E9 ; 1.833364780533512E10 ; 0.0
100 ; 1.2922951273990516E7 ; 2.022000480351523E8 ; 1.2673416968402543E9 ; 1.853583292067164E10 ; 0.0
101 ; 1.29181333827987E7 ; 2.0221499364444163E8 ; 1.280264648114245E9 ; 1.873803296870679E10 ; 0.0
102 ; 1.2917063964666272E7 ; 2.022299507395072E8 ; 1.2931827814970436E9 ; 1.8940247962351234E10 ; 0.0
103 ; 1.2906705444244122E7 ; 2.022449179294653E8 ; 1.30609984546171E9 ; 1.914247791309074E10 ; 0.0
104 ; 1.2902841341855995E7 ; 2.0225989385629258E8 ; 1.3190065509059541E9 ; 1.9344722831020206E10 ; 0.0
105 ; 1.2900447086506072E7 ; 2.0227487719373086E8 ; 1.3319093922478101E9 ; 1.95469827248765E10 ; 0.0
106 ; 1.2894667869178468E7 ; 2.0228986664623097E8 ; 1.3448098393343163E9 ; 1.974925760207023E10 ; 0.0
107 ; 1.2885946112421554E7 ; 2.0230486094793424E8 ; 1.3577045072034948E9 ; 1.995154746871646E10 ; 0.0
108 ; 1.288696166675618E7 ; 2.0231985886169055E8 ; 1.3705904533159163E9 ; 2.0153852329664394E10 ; 0.0
109 ; 1.2878948323830517E7 ; 2.0233485917811197E8 ; 1.3834774149826725E9 ; 2.0356172188526085E10 ; 0.0
110 ; 1.2873348402546668E7 ; 2.0234986071466005E8 ; 1.396356363306503E9 ; 2.0558507047704197E10 ; 0.0
111 ; 1.286588967976513E7 ; 2.0236486231476673E8 ; 1.4092297117090497E9 ; 2.0760856908418858E10 ; 0.0
112 ; 1.2861158585444536E7 ; 2.0237986284698665E8 ; 1.422095601388815E9 ; 2.0963221770733624E10 ; 0.0
113 ; 1.2854337013633525E7 ; 2.0239486120418042E8 ; 1.4349567599742594E9 ; 2.116560163358061E10 ; 0.0
114 ; 1.2850396499577546E7 ; 2.0240985630272767E8 ; 1.4478110969878929E9 ; 2.136799649478479E10 ; 0.0
115 ; 1.2842201229508208E7 ; 2.024248470817686E8 ; 1.4606614934874704E9 ; 2.1570406351087517E10 ; 0.0
116 ; 1.2835407917757988E7 ; 2.0243983250247315E8 ; 1.4735036947169785E9 ; 2.1772831198169285E10 ; 0.0
117 ; 1.2826472213006265E7 ; 2.024548115473369E8 ; 1.4863391026347365E9 ; 2.1975271030671757E10 ; 0.0
118 ; 1.2824459205076613E7 ; 2.0246978321950272E8 ; 1.4991655748477428E9 ; 2.2177725842219093E10 ; 0.0
119 ; 1.2816897710036205E7 ; 2.0248474654210675E8 ; 1.5119900340528195E9 ; 2.2380195625438595E10 ; 0.0
120 ; 1.2811741859428441E7 ; 2.0249970055764878E8 ; 1.5248069317628558E9 ; 2.25826803719807E10 ; 0.0
121 ; 1.280479055508774E7 ; 2.0251464432738507E8 ; 1.5376186736222842E9 ; 2.278518007253835E10 ; 0.0
122 ; 1.280012912382467E7 ; 2.025295769307436E8 ; 1.550423464177372E9 ; 2.2987694716865734E10 ; 0.0
123 ; 1.2791991179917907E7 ; 2.0254449746476048E8 ; 1.5632235933011966E9 ; 2.319022429379648E10 ; 0.0
124 ; 1.2787612351931294E7 ; 2.025594050435368E8 ; 1.5760155844811144E9 ; 2.339276879126124E10 ; 0.0
125 ; 1.277658887780836E7 ; 2.0257429879771528E8 ; 1.5888031968330457E9 ; 2.3595328196304775E10 ; 0.0
126 ; 1.2770998914419923E7 ; 2.0258917787397596E8 ; 1.601579785710854E9 ; 2.379790249510249E10 ; 0.0
127 ; 1.2760899811962532E7 ; 2.0260404143455E8 ; 1.614350784625274E9 ; 2.4000491672976467E10 ; 0.0
128 ; 1.2751939798214003E7 ; 2.0261888865675116E8 ; 1.6271116844372365E9 ; 2.420309571441102E10 ; 0.0
129 ; 1.2743731953032276E7 ; 2.0263371873252434E8 ; 1.6398636242354505E9 ; 2.440571460306777E10 ; 0.0
130 ; 1.2737688544866648E7 ; 2.0264853086801E8 ; 1.6526073561884828E9 ; 2.4608348321800293E10 ; 0.0
131 ; 1.2725306231047157E7 ; 2.026633242831249E8 ; 1.6653450447333493E9 ; 2.4810996852668304E10 ; 0.0
132 ; 1.2713694622604357E7 ; 2.0267809821115702E8 ; 1.6780703509643965E9 ; 2.5013660176951427E10 ; 0.0
133 ; 1.270077732711903E7 ; 2.0269285189837602E8 ; 1.6907840455870008E9 ; 2.5216338275162586E10 ; 0.0
134 ; 1.2689383567520134E7 ; 2.0270758460365683E8 ; 1.70348482291412E9 ; 2.5419031127060963E10 ; 0.0
135 ; 1.2677126176972868E7 ; 2.0272229559811702E8 ; 1.71617420648164E9 ; 2.562173871166462E10 ; 0.0
136 ; 1.2664436286968475E7 ; 2.027369841647672E8 ; 1.728851332658613E9 ; 2.5824461007262737E10 ; 0.0
137 ; 1.2657988407294469E7 ; 2.027516495981736E8 ; 1.7415157689455814E9 ; 2.6027197991427505E10 ; 0.0
138 ; 1.2638892607185418E7 ; 2.027662912041327E8 ; 1.754173757352876E9 ; 2.622994964102568E10 ; 0.0
139 ; 1.2626331556120934E7 ; 2.027809082993576E8 ; 1.7668126499600613E9 ; 2.6432715932229813E10 ; 0.0
140 ; 1.2616251393592775E7 ; 2.0279550021117502E8 ; 1.7794389815161822E9 ; 2.663549684052917E10 ; 0.0
141 ; 1.260418920303499E7 ; 2.0281006627723348E8 ; 1.792055232909775E9 ; 2.6838292340740345E10 ; 0.0
142 ; 1.2590817605199393E7 ; 2.0282460584522128E8 ; 1.80465942211281E9 ; 2.704110240701758E10 ; 0.0
143 ; 1.2576216675971903E7 ; 2.0283911827259466E8 ; 1.8172502397180092E9 ; 2.72439270128628E10 ; 0.0
144 ; 1.2565946429994758E7 ; 2.0285360292631546E8 ; 1.8298264563939812E9 ; 2.7446766131135395E10 ; 0.0
145 ; 1.2554020927671373E7 ; 2.028680591825976E8 ; 1.842392402823976E9 ; 2.764961973406171E10 ; 0.0
146 ; 1.2547212681543136E7 ; 2.028824864266629E8 ; 1.8549464237516475E9 ; 2.785248779324431E10 ; 0.0
147 ; 1.2539233451888766E7 ; 2.0289688405250484E8 ; 1.8674936364331906E9 ; 2.805537027967097E10 ; 0.0
148 ; 1.2529185034292866E7 ; 2.0291125146266088E8 ; 1.8800328698850794E9 ; 2.8258267163723476E10 ; 0.0
149 ; 1.2518950557830827E7 ; 2.0292558806799248E8 ; 1.8925620549193723E9 ; 2.846117841518614E10 ; 0.0
150 ; 1.2515012870124348E7 ; 2.029398932874726E8 ; 1.9050810054772031E9 ; 2.866410400325413E10 ; 0.0
151 ; 1.2508245709224854E7 ; 2.029541665479807E8 ; 1.9175960183473275E9 ; 2.8867043896541603E10 ; 0.0
152 ; 1.249730086777699E7 ; 2.0296840728410462E8 ; 1.9301042640565524E9 ; 2.9069998063089584E10 ; 0.0
153 ; 1.2489150160822999E7 ; 2.0298261493794918E8 ; 1.9426015649243293E9 ; 2.9272966470373688E10 ; 0.0
154 ; 1.2481148647594394E7 ; 2.029967889589514E8 ; 1.9550907150851524E9 ; 2.9475949085311638E10 ; 0.0
155 ; 1.2475587255680576E7 ; 2.03010928803702E8 ; 1.9675718637327468E9 ; 2.9678945874270588E10 ; 0.0
156 ; 1.2465915068705123E7 ; 2.0302503393577275E8 ; 1.9800474509884274E9 ; 2.988195680307429E10 ; 0.0
157 ; 1.2454125572853757E7 ; 2.0303910382554987E8 ; 1.9925133660571325E9 ; 3.0084981837010063E10 ; 0.0
158 ; 1.2447552401237983E7 ; 2.0305313795007303E8 ; 2.0049674916299863E9 ; 3.0288020940835613E10 ; 0.0
159 ; 1.2435302157412404E7 ; 2.0306713579287946E8 ; 2.0174150440312243E9 ; 3.0491074078785686E10 ; 0.0
160 ; 1.2424985973580051E7 ; 2.0308109684385365E8 ; 2.0298503461886365E9 ; 3.0694141214578568E10 ; 0.0
161 ; 1.241943509799698E7 ; 2.0309502059908184E8 ; 2.0422753321622167E9 ; 3.089722231142242E10 ; 0.0
162 ; 1.2411068499435022E7 ; 2.031089065607114E8 ; 2.0546947672602136E9 ; 3.1100317332021503E10 ; 0.0
163 ; 1.2401263150500422E7 ; 2.0312275423681492E8 ; 2.0671058357596486E9 ; 3.1303426238582214E10 ; 0.0
164 ; 1.2390722473080795E7 ; 2.0313656314125875E8 ; 2.079507098910149E9 ; 3.150654899281903E10 ; 0.0
165 ; 1.2385086064474521E7 ; 2.0315033279357588E8 ; 2.09189782138323E9 ; 3.170968555596029E10 ; 0.0
166 ; 1.2371519461787041E7 ; 2.03164062718843E8 ; 2.1042829074477046E9 ; 3.1912835888753864E10 ; 0.0
167 ; 1.2361792299105365E7 ; 2.0317775244756165E8 ; 2.1166544269094915E9 ; 3.2115999951472706E10 ; 0.0
168 ; 1.2355204074880121E7 ; 2.0319140151554325E8 ; 2.129016219208597E9 ; 3.231917770392027E10 ; 0.0
169 ; 1.235033318357763E7 ; 2.032050094637977E8 ; 2.141371423283477E9 ; 3.2522369105435814E10 ; 0.0
170 ; 1.2336584927585855E7 ; 2.0321857583842587E8 ; 2.153721756467055E9 ; 3.2725574114899612E10 ; 0.0
171 ; 1.2329363502940265E7 ; 2.0323210019051558E8 ; 2.166058341394641E9 ; 3.2928792690738037E10 ; 0.0
172 ; 1.2316914218592117E7 ; 2.0324558207604054E8 ; 2.178387704897581E9 ; 3.3132024790928555E10 ; 0.0
173 ; 1.2307067584965315E7 ; 2.0325902105576316E8 ; 2.1907046191161733E9 ; 3.3335270373004597E10 ; 0.0
174 ; 1.2300428091269562E7 ; 2.0327241669513988E8 ; 2.2030116867011385E9 ; 3.353852939406036E10 ; 0.0
175 ; 1.2297751949929066E7 ; 2.0328576856423017E8 ; 2.215312114792408E9 ; 3.37418018107555E10 ; 0.0
176 ; 1.2291064389411716E7 ; 2.032990762376078E8 ; 2.227609866742337E9 ; 3.3945087579319733E10 ; 0.0
177 ; 1.2289878173459519E7 ; 2.033123392942755E8 ; 2.239900931131749E9 ; 3.414838665555734E10 ; 0.0
178 ; 1.2283691747575108E7 ; 2.033255573175819E8 ; 2.2521908093052087E9 ; 3.4351698994851616E10 ; 0.0
179 ; 1.2277029986117218E7 ; 2.0333872989514148E8 ; 2.264474501052784E9 ; 3.45550245521692E10 ; 0.0
180 ; 1.226916055377029E7 ; 2.0335185661875683E8 ; 2.2767515310389013E9 ; 3.475836328206434E10 ; 0.0
181 ; 1.226371431118189E7 ; 2.0336493708434343E8 ; 2.2890206915926714E9 ; 3.49617151386831E10 ; 0.0
182 ; 1.2259608653616069E7 ; 2.0337797089185676E8 ; 2.3012844059038534E9 ; 3.516508007576744E10 ; 0.0
183 ; 1.225044131205673E7 ; 2.0339095764522183E8 ; 2.3135440145574694E9 ; 3.5368458046659294E10 ; 0.0
184 ; 1.2245927922130484E7 ; 2.0340389695226482E8 ; 2.325794455869526E9 ; 3.557184900430452E10 ; 0.0
185 ; 1.223857783799467E7 ; 2.0341678842464685E8 ; 2.3380403837916565E9 ; 3.577525290125678E10 ; 0.0
186 ; 1.2235509367968155E7 ; 2.0342963167779994E8 ; 2.350278961629651E9 ; 3.597866968968143E10 ; 0.0
187 ; 1.2229304030504731E7 ; 2.034424263308648E8 ; 2.362514470997619E9 ; 3.618209932135923E10 ; 0.0
188 ; 1.222393402642488E7 ; 2.0345517200663063E8 ; 2.374743775028124E9 ; 3.6385541747690094E10 ; 0.0
189 ; 1.2219487496518217E7 ; 2.03467868331477E8 ; 2.3869677090545487E9 ; 3.6588996919696724E10 ; 0.0
190 ; 1.2216586881137803E7 ; 2.0348051493531704E8 ; 2.399187196551067E9 ; 3.67924647880282E10 ; 0.0
191 ; 1.2205394228483584E7 ; 2.0349311145154294E8 ; 2.4114037834322047E9 ; 3.699594530296352E10 ; 0.0
192 ; 1.2201326687748779E7 ; 2.0350565751697275E8 ; 2.4236091776606884E9 ; 3.719943841441506E10 ; 0.0
193 ; 1.219608856665771E7 ; 2.0351815277179894E8 ; 2.4358105043484373E9 ; 3.740294407193204E10 ; 0.0
194 ; 1.2188229397664258E7 ; 2.0353059685953858E8 ; 2.448006592915095E9 ; 3.7606462224703835E10 ; 0.0
195 ; 1.2185179094263041E7 ; 2.0354298942698503E8 ; 2.460194822312759E9 ; 3.780999282156337E10 ; 0.0
