CSV File for the City 3 on Day 54
1 - Minute m 
2 - Power Consumed at minute m 
3 - Power Produced at minute m 
4 - Energy Consumed since the beginning of the day 
5 - Energy Produced since the beginning of the day 
6 - Energy Lost since the beginning of the day on lines starting from the city
 
0 ; 2374178.7790709035 ; 1.0541441025044176E8 ; 0.0 ; 0.0 ; 0.0
1 ; 2376882.9372481825 ; 1.0556718093756533E8 ; 2374178.7790709035 ; 1.0541441025044176E8 ; 0.0
2 ; 2378717.6110061277 ; 1.060287483248091E8 ; 4751061.716319086 ; 2.109815911880071E8 ; 0.0
3 ; 2382345.0336739006 ; 1.0679911512206978E8 ; 7129779.327325214 ; 3.170103395128162E8 ; 0.0
4 ; 2384038.3366378015 ; 1.0787828378411931E8 ; 9512124.360999115 ; 4.2380945463488597E8 ; 0.0
5 ; 2388683.54823345 ; 1.092662564884376E8 ; 1.1896162697636917E7 ; 5.316877384190053E8 ; 0.0
6 ; 2393971.4758314434 ; 1.109630351149039E8 ; 1.4284846245870367E7 ; 6.409539949074428E8 ; 0.0
7 ; 2403555.5638393257 ; 1.1296862122777152E8 ; 1.667881772170181E7 ; 7.519170300223467E8 ; 0.0
8 ; 2413689.406903196 ; 1.1528301606031859E8 ; 1.9082373285541136E7 ; 8.648856512501183E8 ; 0.0
9 ; 2430425.910677099 ; 1.1790622050252151E8 ; 2.1496062692444332E7 ; 9.801686673104368E8 ; 0.0
10 ; 2456093.776409338 ; 1.2083823509203535E8 ; 2.392648860312143E7 ; 1.0980748878129582E9 ; 0.0
11 ; 2498953.932776237 ; 1.2407906000869438E8 ; 2.638258237953077E7 ; 1.2189131229049935E9 ; 0.0
12 ; 2565365.7742257956 ; 1.2762869507266429E8 ; 2.8881536312307008E7 ; 1.342992182913688E9 ; 0.0
13 ; 2627630.1725911405 ; 1.3148713974629003E8 ; 3.14469020865328E7 ; 1.4706208779863522E9 ; 0.0
14 ; 2634850.3811514443 ; 1.3565439313959527E8 ; 3.4074532259123944E7 ; 1.6021080177326422E9 ; 0.0
15 ; 2638287.3249727017 ; 1.4013045401930177E8 ; 3.670938264027539E7 ; 1.7377624108722374E9 ; 0.0
16 ; 2641121.329580723 ; 1.4491532082115635E8 ; 3.934766996524809E7 ; 1.877892864891539E9 ; 0.0
17 ; 2643415.132923725 ; 1.5000899166527966E8 ; 4.198879129482882E7 ; 2.0228081857126954E9 ; 0.0
18 ; 2646194.709111834 ; 1.5541146437419182E8 ; 4.463220642775254E7 ; 2.172817177377975E9 ; 0.0
19 ; 2650078.4444004325 ; 1.6112273649312088E8 ; 4.727840113686437E7 ; 2.3282286417521667E9 ; 0.0
20 ; 2652627.5273146587 ; 1.6714280531217012E8 ; 4.99284795812648E7 ; 2.4893513782452874E9 ; 0.0
21 ; 2657155.6185595784 ; 1.7347166788990173E8 ; 5.258110710857946E7 ; 2.6564941835574574E9 ; 0.0
22 ; 2659501.670307031 ; 1.8010932107789248E8 ; 5.523826272713903E7 ; 2.829965851447359E9 ; 0.0
23 ; 2660347.2256548395 ; 1.8705576154582864E8 ; 5.7897764397446066E7 ; 3.0100751725252514E9 ; 0.0
24 ; 2664417.7040220224 ; 1.9431098580673057E8 ; 6.055811162310091E7 ; 3.19713093407108E9 ; 0.0
25 ; 2669045.318832655 ; 2.0056303114011326E8 ; 6.322252932712293E7 ; 3.391441919877811E9 ; 0.0
26 ; 2672206.2750254483 ; 2.0056544165327507E8 ; 6.5891574645955585E7 ; 3.5920049510179243E9 ; 0.0
27 ; 2674525.4911940256 ; 2.005679828297187E8 ; 6.856378092098103E7 ; 3.7925703926711993E9 ; 0.0
28 ; 2677421.7925366214 ; 2.005706507983226E8 ; 7.123830641217506E7 ; 3.993138375500918E9 ; 0.0
29 ; 2679425.2446804685 ; 2.005734416476723E8 ; 7.391572820471168E7 ; 4.1937090262992406E9 ; 0.0
30 ; 2682925.457594889 ; 2.0057635144568676E8 ; 7.659515344939214E7 ; 4.394282467946913E9 ; 0.0
31 ; 2684597.320659599 ; 2.00579376257683E8 ; 7.927807890698703E7 ; 4.594858819392599E9 ; 0.0
32 ; 2689961.122536216 ; 2.005825121628189E8 ; 8.196267622764662E7 ; 4.795438195650282E9 ; 0.0
33 ; 2690127.2933699233 ; 2.0058575526889077E8 ; 8.465263735018283E7 ; 4.996020707813101E9 ; 0.0
34 ; 2693861.2032489576 ; 2.0058910172549418E8 ; 8.734276464355275E7 ; 5.196606463081991E9 ; 0.0
35 ; 2696490.808592821 ; 2.005925477355842E8 ; 9.003662584680171E7 ; 5.397195564807486E9 ; 0.0
36 ; 2697097.610557574 ; 2.0059608956549245E8 ; 9.273311665539454E7 ; 5.59778811254307E9 ; 0.0
37 ; 2701341.263893126 ; 2.0059972355347595E8 ; 9.543021426595211E7 ; 5.798384202108562E9 ; 0.0
38 ; 2703188.064688617 ; 2.0060344611688575E8 ; 9.813155552984524E7 ; 5.998983925662039E9 ; 0.0
39 ; 2705662.364380503 ; 2.006072537580514E8 ; 1.0083474359453386E8 ; 6.199587371778925E9 ; 0.0
40 ; 2706743.133573587 ; 2.0061114306898385E8 ; 1.0354040595891437E8 ; 6.400194625536976E9 ; 0.0
41 ; 2709634.760623033 ; 2.0061511073500037E8 ; 1.0624714909248796E8 ; 6.60080576860596E9 ; 0.0
42 ; 2711168.418982451 ; 2.0061915353737578E8 ; 1.08956783853111E8 ; 6.8014208793409605E9 ; 0.0
43 ; 2711452.6712810616 ; 2.0062326835512245E8 ; 1.1166795227209345E8 ; 7.002040032878336E9 ; 0.0
44 ; 2713420.067829225 ; 2.006274521659966E8 ; 1.143794049433745E8 ; 7.2026633012334585E9 ; 0.0
45 ; 2715350.0969203566 ; 2.0063170204682535E8 ; 1.1709282501120372E8 ; 7.403290753399455E9 ; 0.0
46 ; 2716345.4523465196 ; 2.0063601517324135E8 ; 1.1980817510812408E8 ; 7.6039224554462805E9 ; 0.0
47 ; 2717211.1190960556 ; 2.006403888189079E8 ; 1.225245205604706E8 ; 7.804558470619522E9 ; 0.0
48 ; 2718468.40449456 ; 2.0064482035430858E8 ; 1.2524173167956665E8 ; 8.00519885943843E9 ; 0.0
49 ; 2718489.2295984062 ; 2.00649307245171E8 ; 1.279602000840612E8 ; 8.205843679792738E9 ; 0.0
50 ; 2719502.170798463 ; 2.0065384705058622E8 ; 1.3067868931365961E8 ; 8.406492987037909E9 ; 0.0
51 ; 2720604.462529593 ; 2.006584374208801E8 ; 1.3339819148445807E8 ; 8.607146834088495E9 ; 0.0
52 ; 2722565.2735110708 ; 2.0066307609528634E8 ; 1.3611879594698766E8 ; 8.807805271509375E9 ; 0.0
53 ; 2722551.102363891 ; 2.0066776089946494E8 ; 1.3884136122049874E8 ; 9.00846834760466E9 ; 0.0
54 ; 2724508.5898477943 ; 2.006724897429059E8 ; 1.4156391232286263E8 ; 9.209136108504126E9 ; 0.0
55 ; 2725006.277621711 ; 2.0067726061625093E8 ; 1.4428842091271043E8 ; 9.409808598247032E9 ; 0.0
56 ; 2725128.4726969167 ; 2.006820715885634E8 ; 1.4701342719033214E8 ; 9.610485858863283E9 ; 0.0
57 ; 2724579.4394772258 ; 2.0068692080457172E8 ; 1.4973855566302907E8 ; 9.811167930451847E9 ; 0.0
58 ; 2727989.454895438 ; 2.006918064819074E8 ; 1.524631351025063E8 ; 1.0011854851256418E10 ; 0.0
59 ; 2726597.21352398 ; 2.0069672690835664E8 ; 1.5519112455740175E8 ; 1.0212546657738325E10 ; 0.0
60 ; 2727704.4112380794 ; 2.007016804391406E8 ; 1.5791772177092573E8 ; 1.041324338464668E10 ; 0.0
61 ; 2727883.7751766294 ; 2.007066654942368E8 ; 1.606454261821638E8 ; 1.0613945065085821E10 ; 0.0
62 ; 2729079.2113706 ; 2.0071168055575275E8 ; 1.6337330995734042E8 ; 1.0814651730580057E10 ; 0.0
63 ; 2729557.6743606697 ; 2.007167241653595E8 ; 1.66102389168711E8 ; 1.101536341113581E10 ; 0.0
64 ; 2728743.2386895097 ; 2.0072179492179206E8 ; 1.6883194684307167E8 ; 1.121608013530117E10 ; 0.0
65 ; 2730090.809780103 ; 2.0072689147842196E8 ; 1.7156069008176118E8 ; 1.1416801930222963E10 ; 0.0
66 ; 2729540.055423357 ; 2.007320125409052E8 ; 1.7429078089154127E8 ; 1.1617528821701385E10 ; 0.0
67 ; 2730149.606461099 ; 2.007371568649089E8 ; 1.7702032094696462E8 ; 1.181826083424229E10 ; 0.0
68 ; 2729714.755723502 ; 2.0074232325391743E8 ; 1.7975047055342573E8 ; 1.2018997991107199E10 ; 0.0
69 ; 2730843.412372073 ; 2.0074751055711976E8 ; 1.8248018530914924E8 ; 1.2219740314361116E10 ; 0.0
70 ; 2731054.244782023 ; 2.007527176673774E8 ; 1.8521102872152132E8 ; 1.2420487824918236E10 ; 0.0
71 ; 2730978.840733005 ; 2.007579435192731E8 ; 1.8794208296630335E8 ; 1.2621240542585613E10 ; 0.0
72 ; 2730982.699448197 ; 2.0076318708723858E8 ; 1.9067306180703634E8 ; 1.2821998486104887E10 ; 0.0
73 ; 2729830.7353870324 ; 2.0076844738376108E8 ; 1.9340404450648454E8 ; 1.3022761673192125E10 ; 0.0
74 ; 2731738.0572279138 ; 2.007737234576661E8 ; 1.9613387524187157E8 ; 1.3223530120575886E10 ; 0.0
75 ; 2731454.5166990813 ; 2.007790143924748E8 ; 1.9886561329909948E8 ; 1.3424303844033552E10 ; 0.0
76 ; 2733526.836064104 ; 2.0078431930483434E8 ; 2.0159706781579855E8 ; 1.3625082858426027E10 ; 0.0
77 ; 2733000.6514289207 ; 2.007896373430182E8 ; 2.0433059465186265E8 ; 1.3825867177730862E10 ; 0.0
78 ; 2731426.4643118316 ; 2.0079496768549493E8 ; 2.0706359530329156E8 ; 1.402665681507388E10 ; 0.0
79 ; 2729541.7584935343 ; 2.0080030953956237E8 ; 2.097950217676034E8 ; 1.4227451782759375E10 ; 0.0
80 ; 2730321.6159245805 ; 2.0080566214004508E8 ; 2.1252456352609694E8 ; 1.4428252092298937E10 ; 0.0
81 ; 2729053.392559514 ; 2.0081102474805275E8 ; 2.152548851420215E8 ; 1.4629057754438982E10 ; 0.0
82 ; 2728499.1899977196 ; 2.0081639664979672E8 ; 2.1798393853458104E8 ; 1.4829868779187035E10 ; 0.0
83 ; 2727155.500699914 ; 2.0082177715546268E8 ; 2.2071243772457877E8 ; 1.5030685175836832E10 ; 0.0
84 ; 2726539.9675312364 ; 2.008271655981367E8 ; 2.2343959322527868E8 ; 1.5231506952992294E10 ; 0.0
85 ; 2725486.345314681 ; 2.0083256133278254E8 ; 2.261661331928099E8 ; 1.5432334118590431E10 ; 0.0
86 ; 2724094.3840173553 ; 2.0083796373526782E8 ; 2.288916195381246E8 ; 1.5633166679923214E10 ; 0.0
87 ; 2722897.981486178 ; 2.008433722014371E8 ; 2.3161571392214194E8 ; 1.5834004643658482E10 ; 0.0
88 ; 2722376.9872772484 ; 2.008487861462291E8 ; 2.343386119036281E8 ; 1.6034848015859919E10 ; 0.0
89 ; 2721379.3009556946 ; 2.008542050028369E8 ; 2.3706098889090535E8 ; 1.6235696802006147E10 ; 0.0
90 ; 2720366.5904757637 ; 2.008596282219081E8 ; 2.3978236819186103E8 ; 1.6436551007008984E10 ; 0.0
91 ; 2721756.189608337 ; 2.008650552707838E8 ; 2.425027347823368E8 ; 1.6637410635230892E10 ; 0.0
92 ; 2719859.8079987713 ; 2.0087048563277414E8 ; 2.4522449097194514E8 ; 1.6838275690501677E10 ; 0.0
93 ; 2718680.2908999715 ; 2.0087591880646878E8 ; 2.479443507799439E8 ; 1.703914617613445E10 ; 0.0
94 ; 2716219.4870789205 ; 2.0088135430508044E8 ; 2.5066303107084388E8 ; 1.7240022094940918E10 ; 0.0
95 ; 2715079.9149963297 ; 2.0088679165582013E8 ; 2.533792505579228E8 ; 1.7440903449246E10 ; 0.0
96 ; 2712981.6061541024 ; 2.0089223039930227E8 ; 2.5609433047291914E8 ; 1.7641790240901817E10 ; 0.0
97 ; 2713217.705386482 ; 2.0089767008897838E8 ; 2.5880731207907325E8 ; 1.784268247130112E10 ; 0.0
98 ; 2710638.5164558752 ; 2.0090311029059768E8 ; 2.6152052978445974E8 ; 1.80435801413901E10 ; 0.0
99 ; 2711700.9844609005 ; 2.0090855058169365E8 ; 2.6423116830091563E8 ; 1.8244483251680695E10 ; 0.0
100 ; 2708581.8220938197 ; 2.0091399055109498E8 ; 2.6694286928537652E8 ; 1.844539180226239E10 ; 0.0
101 ; 2708513.250766074 ; 2.009194297984595E8 ; 2.6965145110747033E8 ; 1.8646305792813484E10 ; 0.0
102 ; 2706825.0162290633 ; 2.009248679338305E8 ; 2.7235996435823643E8 ; 1.8847225222611942E10 ; 0.0
103 ; 2704357.863404422 ; 2.0093030457721382E8 ; 2.7506678937446547E8 ; 1.9048150090545773E10 ; 0.0
104 ; 2702499.796719791 ; 2.009357393581748E8 ; 2.7777114723786986E8 ; 1.9249080395122986E10 ; 0.0
105 ; 2702529.734688658 ; 2.0094117191545424E8 ; 2.8047364703458965E8 ; 1.945001613448116E10 ; 0.0
106 ; 2700971.8074869406 ; 2.0094660189660227E8 ; 2.831761767692783E8 ; 1.9650957306396614E10 ; 0.0
107 ; 2697791.345700368 ; 2.0095202895762923E8 ; 2.8587714857676524E8 ; 1.9851903908293217E10 ; 0.0
108 ; 2696876.670391281 ; 2.0095745276267284E8 ; 2.885749399224656E8 ; 2.0052855937250847E10 ; 0.0
109 ; 2694977.8686288367 ; 2.0096287298368064E8 ; 2.912718165928569E8 ; 2.025381339001352E10 ; 0.0
110 ; 2694938.628141465 ; 2.0096828930010712E8 ; 2.9396679446148574E8 ; 2.04547762629972E10 ; 0.0
111 ; 2692150.82264373 ; 2.009737013986248E8 ; 2.966617330896272E8 ; 2.0655744552297306E10 ; 0.0
112 ; 2689677.0913577364 ; 2.0097910897284842E8 ; 2.9935388391227096E8 ; 2.085671825369593E10 ; 0.0
113 ; 2688394.429769528 ; 2.009845117230717E8 ; 3.020435610036287E8 ; 2.1057697362668777E10 ; 0.0
114 ; 2687213.592886318 ; 2.0098990935601604E8 ; 3.047319554333982E8 ; 2.125868187439185E10 ; 0.0
115 ; 2685099.7125871456 ; 2.009953015845906E8 ; 3.074191690262845E8 ; 2.1459671783747864E10 ; 0.0
116 ; 2683065.508090571 ; 2.0100068812766317E8 ; 3.1010426873887163E8 ; 2.1660667085332455E10 ; 0.0
117 ; 2682694.537551441 ; 2.0100606870984107E8 ; 3.127873342469622E8 ; 2.1861667773460117E10 ; 0.0
118 ; 2681248.1084352783 ; 2.010114430612622E8 ; 3.1547002878451365E8 ; 2.206267384216996E10 ; 0.0
119 ; 2679558.5235558944 ; 2.0101681091739497E8 ; 3.181512768929489E8 ; 2.2263685285231224E10 ; 0.0
120 ; 2677171.565783254 ; 2.0102217201884744E8 ; 3.208308354165048E8 ; 2.246470209614862E10 ; 0.0
121 ; 2674306.9654774996 ; 2.010275261111845E8 ; 3.2350800698228806E8 ; 2.266572426816747E10 ; 0.0
122 ; 2672928.7213129136 ; 2.0103287294475323E8 ; 3.261823139477656E8 ; 2.2866751794278652E10 ; 0.0
123 ; 2671616.212609439 ; 2.0103821227451596E8 ; 3.288552426690785E8 ; 2.3067784667223404E10 ; 0.0
124 ; 2669167.677554679 ; 2.0104354385989025E8 ; 3.3152685888168794E8 ; 2.326882287949792E10 ; 0.0
125 ; 2667200.485255521 ; 2.010488674645963E8 ; 3.341960265592426E8 ; 2.346986642335781E10 ; 0.0
126 ; 2664988.3133357516 ; 2.010541828565103E8 ; 3.3686322704449815E8 ; 2.3670915290822407E10 ; 0.0
127 ; 2663704.8620056226 ; 2.0105948980752456E8 ; 3.395282153578339E8 ; 2.3871969473678917E10 ; 0.0
128 ; 2660563.85836298 ; 2.0106478809341335E8 ; 3.421919202198396E8 ; 2.4073028963486443E10 ; 0.0
129 ; 2659377.6011242503 ; 2.0107007749370453E8 ; 3.4485248407820255E8 ; 2.4274093751579857E10 ; 0.0
130 ; 2654410.8610766483 ; 2.0107535779155642E8 ; 3.475118616793268E8 ; 2.4475163829073563E10 ; 0.0
131 ; 2653947.5387696256 ; 2.0108062877364016E8 ; 3.501662725404034E8 ; 2.467623918686512E10 ; 0.0
132 ; 2650317.9172566202 ; 2.0108589023002675E8 ; 3.52820220079173E8 ; 2.487731981563876E10 ; 0.0
133 ; 2648464.955213122 ; 2.0109114195407882E8 ; 3.554705379964296E8 ; 2.5078405705868786E10 ; 0.0
134 ; 2644165.167209551 ; 2.0109638374234697E8 ; 3.5811900295164275E8 ; 2.5279496847822865E10 ; 0.0
135 ; 2641081.0616014726 ; 2.0110161539447027E8 ; 3.607631681188523E8 ; 2.5480593231565212E10 ; 0.0
136 ; 2639053.397616647 ; 2.0110683671308106E8 ; 3.634042491804538E8 ; 2.5681694846959682E10 ; 0.0
137 ; 2636836.2779645924 ; 2.011120475037134E8 ; 3.660433025780704E8 ; 2.5882801683672764E10 ; 0.0
138 ; 2631522.742501477 ; 2.011172475747154E8 ; 3.68680138856035E8 ; 2.6083913731176476E10 ; 0.0
139 ; 2632015.7579299496 ; 2.0112243673716506E8 ; 3.713116615985365E8 ; 2.628503097875119E10 ; 0.0
140 ; 2626625.78525407 ; 2.0112761480478945E8 ; 3.739436773564664E8 ; 2.6486153415488354E10 ; 0.0
141 ; 2623483.216075666 ; 2.0113278159388733E8 ; 3.765703031417205E8 ; 2.6687281030293144E10 ; 0.0
142 ; 2620626.0414132914 ; 2.011379369232546E8 ; 3.7919378635779613E8 ; 2.688841381188703E10 ; 0.0
143 ; 2617636.778630547 ; 2.011430806141129E8 ; 3.8181441239920944E8 ; 2.7089551748810287E10 ; 0.0
144 ; 2614891.2547211456 ; 2.011482124900411E8 ; 3.8443204917784E8 ; 2.72906948294244E10 ; 0.0
145 ; 2610747.229030796 ; 2.0115333237690923E8 ; 3.8704694043256116E8 ; 2.749184304191444E10 ; 0.0
146 ; 2609795.461250481 ; 2.0115844010281524E8 ; 3.8965768766159195E8 ; 2.7692996374291348E10 ; 0.0
147 ; 2606566.3085227506 ; 2.0116353549802426E8 ; 3.9226748312284243E8 ; 2.789415481439416E10 ; 0.0
148 ; 2604637.015149658 ; 2.0116861839490995E8 ; 3.948740494313652E8 ; 2.8095318349892185E10 ; 0.0
149 ; 2603166.998817358 ; 2.0117368862789854E8 ; 3.9747868644651484E8 ; 2.8296486968287094E10 ; 0.0
150 ; 2601190.4295130842 ; 2.0117874603341466E8 ; 4.000818534453322E8 ; 2.8497660656914993E10 ; 0.0
151 ; 2597484.8817483913 ; 2.011837904498295E8 ; 4.026830438748453E8 ; 2.8698839402948406E10 ; 0.0
152 ; 2597882.349027603 ; 2.0118882171741074E8 ; 4.052805287565937E8 ; 2.8900023193398235E10 ; 0.0
153 ; 2592448.2757789805 ; 2.0119383967827472E8 ; 4.078784111056213E8 ; 2.9101212015115646E10 ; 0.0
154 ; 2590501.748330525 ; 2.0119884417634013E8 ; 4.104708593814003E8 ; 2.9302405854793922E10 ; 0.0
155 ; 2590206.0852676984 ; 2.0120383505728352E8 ; 4.130613611297308E8 ; 2.9503604698970264E10 ; 0.0
156 ; 2588538.712413306 ; 2.012088121684966E8 ; 4.1565156721499854E8 ; 2.970480853402755E10 ; 0.0
157 ; 2585919.9292817167 ; 2.0121377535904515E8 ; 4.1824010592741185E8 ; 2.9906017346196045E10 ; 0.0
158 ; 2584265.879086118 ; 2.012187244796292E8 ; 4.2082602585669357E8 ; 3.010723112155509E10 ; 0.0
159 ; 2579905.636149647 ; 2.012236593825451E8 ; 4.234102917357797E8 ; 3.030844984603472E10 ; 0.0
160 ; 2576948.3372235615 ; 2.012285799216488E8 ; 4.2599019737192935E8 ; 3.0509673505417267E10 ; 0.0
161 ; 2574556.136508216 ; 2.0123348595232028E8 ; 4.2856714570915294E8 ; 3.0710902085338917E10 ; 0.0
162 ; 2572549.6428228836 ; 2.0123837733142972E8 ; 4.3114170184566116E8 ; 3.0912135571291237E10 ; 0.0
163 ; 2569926.7038215497 ; 2.012432539173047E8 ; 4.33714251488484E8 ; 3.1113373948622665E10 ; 0.0
164 ; 2569290.9676419096 ; 2.0124811556969845E8 ; 4.3628417819230556E8 ; 3.131461720253997E10 ; 0.0
165 ; 2564142.1639280375 ; 2.0125296214975965E8 ; 4.3885346915994745E8 ; 3.151586531810967E10 ; 0.0
166 ; 2562546.0234778635 ; 2.012577935200028E8 ; 4.414176113238755E8 ; 3.171711828025943E10 ; 0.0
167 ; 2561086.6035676156 ; 2.0126260954428035E8 ; 4.4398015734735334E8 ; 3.1918376073779434E10 ; 0.0
168 ; 2557706.8308430486 ; 2.0126741008775508E8 ; 4.4654124395092094E8 ; 3.2119638683323715E10 ; 0.0
169 ; 2555834.1575316493 ; 2.0127219501687413E8 ; 4.49098950781764E8 ; 3.232090609341147E10 ; 0.0
170 ; 2553278.032982802 ; 2.012769641993436E8 ; 4.5165478493929565E8 ; 3.252217828842834E10 ; 0.0
171 ; 2549776.753046265 ; 2.0128171750410402E8 ; 4.542080629722785E8 ; 3.2723455252627686E10 ; 0.0
172 ; 2548171.47882055 ; 2.0128645480130714E8 ; 4.5675783972532475E8 ; 3.292473697013179E10 ; 0.0
173 ; 2545950.707084524 ; 2.0129117596229288E8 ; 4.593060112041453E8 ; 3.3126023424933098E10 ; 0.0
174 ; 2543834.056325315 ; 2.012958808595677E8 ; 4.6185196191122985E8 ; 3.332731460089539E10 ; 0.0
175 ; 2543230.093639283 ; 2.0130056936678344E8 ; 4.6439579596755517E8 ; 3.352861048175496E10 ; 0.0
176 ; 2540634.5013668505 ; 2.0130524135871693E8 ; 4.669390260611944E8 ; 3.3729911051121742E10 ; 0.0
177 ; 2539961.489383156 ; 2.0130989671125033E8 ; 4.694796605625613E8 ; 3.3931216292480457E10 ; 0.0
178 ; 2537631.947900808 ; 2.0131453530135223E8 ; 4.7201962205194443E8 ; 3.4132526189191708E10 ; 0.0
179 ; 2537681.682878134 ; 2.0131915700705945E8 ; 4.7455725399984527E8 ; 3.433384072449306E10 ; 0.0
180 ; 2537047.6727836574 ; 2.0132376170745915E8 ; 4.770949356827234E8 ; 3.453515988150012E10 ; 0.0
181 ; 2532394.214515189 ; 2.013283492826721E8 ; 4.796319833555071E8 ; 3.473648364320758E10 ; 0.0
182 ; 2531636.069588436 ; 2.0133291961383605E8 ; 4.821643775700223E8 ; 3.493781199249025E10 ; 0.0
183 ; 2529902.0655230917 ; 2.0133747258308986E8 ; 4.846960136396107E8 ; 3.513914491210409E10 ; 0.0
184 ; 2528105.266036711 ; 2.013420080735584E8 ; 4.872259157051338E8 ; 3.534048238468718E10 ; 0.0
185 ; 2528481.5400202107 ; 2.013465259693375E8 ; 4.897540209711705E8 ; 3.5541824392760735E10 ; 0.0
186 ; 2526886.2212922387 ; 2.0135102615547985E8 ; 4.922825025111907E8 ; 3.574317091873007E10 ; 0.0
187 ; 2525190.455939521 ; 2.013555085179812E8 ; 4.9480938873248297E8 ; 3.594452194488555E10 ; 0.0
188 ; 2522954.3668107064 ; 2.0135997294376698E8 ; 4.973345791884225E8 ; 3.6145877453403534E10 ; 0.0
189 ; 2523160.3047660105 ; 2.0136441932067955E8 ; 4.998575335552332E8 ; 3.63472374263473E10 ; 0.0
190 ; 2518377.5150515037 ; 2.0136884753746572E8 ; 5.023806938599992E8 ; 3.654860184566798E10 ; 0.0
191 ; 2519070.6455523553 ; 2.0137325748376477E8 ; 5.0489907137505066E8 ; 3.6749970693205444E10 ; 0.0
192 ; 2516661.516131847 ; 2.01377649050097E8 ; 5.07418142020603E8 ; 3.695134395068921E10 ; 0.0
193 ; 2515748.241533239 ; 2.0138202212785235E8 ; 5.099348035367348E8 ; 3.71527215997393E10 ; 0.0
194 ; 2515009.5011327164 ; 2.0138637660927978E8 ; 5.1245055177826804E8 ; 3.735410362186716E10 ; 0.0
195 ; 2513866.5226325 ; 2.0139071238747674E8 ; 5.1496556127940077E8 ; 3.755548999847644E10 ; 0.0
196 ; 2511743.6743450635 ; 2.0139502935637915E8 ; 5.1747942780203325E8 ; 3.7756880710863914E10 ; 0.0
197 ; 2510828.537991128 ; 2.013993274107516E8 ; 5.199911714763783E8 ; 3.795827574022029E10 ; 0.0
198 ; 2508231.8945456184 ; 2.0140360644617808E8 ; 5.225020000143694E8 ; 3.815967506763104E10 ; 0.0
199 ; 2506476.495517348 ; 2.0140786635905275E8 ; 5.2501023190891504E8 ; 3.836107867407722E10 ; 0.0
200 ; 2506201.165419509 ; 2.014121070465712E8 ; 5.275167084044324E8 ; 3.856248654043627E10 ; 0.0
