CSV File for the City 1 on Day 332
1 - Minute m 
2 - Power Consumed at minute m 
3 - Power Produced at minute m 
4 - Energy Consumed since the beginning of the day 
5 - Energy Produced since the beginning of the day 
6 - Energy Lost since the beginning of the day on lines starting from the city
 
0 ; 1.6134887554512333E7 ; 1.0571303124587205E8 ; 0.0 ; 0.0 ; 0.0
1 ; 1.6150560272045864E7 ; 1.0586594513445735E8 ; 1.6134887554512333E7 ; 1.0571303124587205E8 ; 0.0
2 ; 1.616565933131924E7 ; 1.0632764576838073E8 ; 3.2285447826558195E7 ; 2.115789763803294E8 ; 0.0
3 ; 1.6190169682725037E7 ; 1.0709813424469918E8 ; 4.845110715787744E7 ; 3.1790662214871013E8 ; 0.0
4 ; 1.6215404515788661E7 ; 1.0817741154195416E8 ; 6.464127684060247E7 ; 4.250047563934093E8 ; 0.0
5 ; 1.6243712004193285E7 ; 1.0956547851633179E8 ; 8.085668135639113E7 ; 5.331821679353635E8 ; 0.0
6 ; 1.6281354018168638E7 ; 1.1126233589825895E8 ; 9.710039336058442E7 ; 6.427476464516952E8 ; 0.0
7 ; 1.6337460599799084E7 ; 1.1326798428946644E8 ; 1.1338174737875307E8 ; 7.540099823499541E8 ; 0.0
8 ; 1.6410972363208262E7 ; 1.1558242416054595E8 ; 1.2971920797855215E8 ; 8.672779666394205E8 ; 0.0
9 ; 1.6532719889297767E7 ; 1.1820565584902549E8 ; 1.461301803417604E8 ; 9.828603907999665E8 ; 0.0
10 ; 1.671545428567811E7 ; 1.211376795579812E8 ; 1.6266290023105815E8 ; 1.101066046648992E9 ; 0.0
11 ; 1.700207538616912E7 ; 1.2437849535519835E8 ; 1.7937835451673627E8 ; 1.2222037262069733E9 ; 0.0
12 ; 1.7469805356274467E7 ; 1.2792810317289165E8 ; 1.963804299029054E8 ; 1.3465822215621717E9 ; 0.0
13 ; 1.7914199573665377E7 ; 1.3178650280798495E8 ; 2.1385023525917986E8 ; 1.4745103247350633E9 ; 0.0
14 ; 1.7966548839463E7 ; 1.3595369392295033E8 ; 2.3176443483284524E8 ; 1.6062968275430484E9 ; 0.0
15 ; 1.7984417046561033E7 ; 1.4042967604719597E8 ; 2.4973098367230824E8 ; 1.7422505214659986E9 ; 0.0
16 ; 1.801153293557833E7 ; 1.452144485789912E8 ; 2.6771540071886927E8 ; 1.8826801975131946E9 ; 0.0
17 ; 1.8025934807598397E7 ; 1.5030801078790906E8 ; 2.857269336544476E8 ; 2.0278946460921857E9 ; 0.0
18 ; 1.804875245673818E7 ; 1.5571036181776345E8 ; 3.03752868462046E8 ; 2.178202656880095E9 ; 0.0
19 ; 1.8070667097918738E7 ; 1.614215006900129E8 ; 3.218016209187842E8 ; 2.3339130186978583E9 ; 0.0
20 ; 1.809803167871243E7 ; 1.674414263076004E8 ; 3.3987228801670295E8 ; 2.4953345193878713E9 ; 0.0
21 ; 1.8113562150336772E7 ; 1.7377013745919284E8 ; 3.579703196954154E8 ; 2.662775945695472E9 ; 0.0
22 ; 1.8140173959932324E7 ; 1.8040763282378346E8 ; 3.760838818457521E8 ; 2.8365460831546645E9 ; 0.0
23 ; 1.81624378946214E7 ; 1.8735391097561765E8 ; 3.9422405580568445E8 ; 3.016953715978448E9 ; 0.0
24 ; 1.8180467352131102E7 ; 1.9460897038939917E8 ; 4.123864937003058E8 ; 3.2043076269540653E9 ; 0.0
25 ; 1.8200886291038647E7 ; 2.0086085034391886E8 ; 4.3056696105243695E8 ; 3.3989165973434644E9 ; 0.0
26 ; 1.8225763887511853E7 ; 2.0086309696459156E8 ; 4.487678473434756E8 ; 3.599777447687383E9 ; 0.0
27 ; 1.824893106516635E7 ; 2.0086547775415275E8 ; 4.669936112309874E8 ; 3.8006405446519747E9 ; 0.0
28 ; 1.826795167456956E7 ; 2.0086799084533498E8 ; 4.852425422961538E8 ; 4.0015060224061275E9 ; 0.0
29 ; 1.8285392131130215E7 ; 2.008706343000866E8 ; 5.0351049397072333E8 ; 4.2023740132514625E9 ; 0.0
30 ; 1.8303771882069726E7 ; 2.008734061155749E8 ; 5.2179588610185355E8 ; 4.403244647551549E9 ; 0.0
31 ; 1.8329614933991875E7 ; 2.0087630423018166E8 ; 5.400996579839233E8 ; 4.604118053667124E9 ; 0.0
32 ; 1.834713155341999E7 ; 2.0087932652945554E8 ; 5.584292729179152E8 ; 4.8049943578973055E9 ; 0.0
33 ; 1.83658831884876E7 ; 2.008824708519884E8 ; 5.767764044713352E8 ; 5.005873684426761E9 ; 0.0
34 ; 1.8380886286464814E7 ; 2.0088573499518594E8 ; 5.951422876598228E8 ; 5.206756155278749E9 ; 0.0
35 ; 1.8405645431889143E7 ; 2.00889116720905E8 ; 6.135231739462876E8 ; 5.407641890273935E9 ; 0.0
36 ; 1.841906285356243E7 ; 2.0089261376093364E8 ; 6.319288193781768E8 ; 5.608531006994841E9 ; 0.0
37 ; 1.843522333977202E7 ; 2.008962238222927E8 ; 6.503478822317393E8 ; 5.8094236207557745E9 ; 0.0
38 ; 1.845360330983236E7 ; 2.008999445923405E8 ; 6.687831055715113E8 ; 6.010319844578067E9 ; 0.0
39 ; 1.846737769510002E7 ; 2.0090377374366584E8 ; 6.872367088813436E8 ; 6.211219789170407E9 ; 0.0
40 ; 1.848740640968142E7 ; 2.0090770893875635E8 ; 7.057040865764437E8 ; 6.412123562914073E9 ; 0.0
41 ; 1.849933306499461E7 ; 2.009117478344329E8 ; 7.241914929861251E8 ; 6.613031271852829E9 ; 0.0
42 ; 1.8512488862154327E7 ; 2.0091588808604297E8 ; 7.426908260511197E8 ; 6.813943019687262E9 ; 0.0
43 ; 1.8526233818919044E7 ; 2.0092012735140812E8 ; 7.61203314913274E8 ; 7.014858907773305E9 ; 0.0
44 ; 1.8540666140501358E7 ; 2.0092446329452324E8 ; 7.797295487321931E8 ; 7.215779035124713E9 ; 0.0
45 ; 1.854504487290268E7 ; 2.0092889358900717E8 ; 7.982702148726945E8 ; 7.416703498419236E9 ; 0.0
46 ; 1.855625799589846E7 ; 2.0093341592130634E8 ; 8.168152597455971E8 ; 7.617632392008244E9 ; 0.0
47 ; 1.8564848040437076E7 ; 2.0093802799365404E8 ; 8.353715177414956E8 ; 7.81856580792955E9 ; 0.0
48 ; 1.8571954222387746E7 ; 2.009427275267905E8 ; 8.539363657819327E8 ; 8.019503835923204E9 ; 0.0
49 ; 1.858851477984577E7 ; 2.00947512262449E8 ; 8.725083200043205E8 ; 8.220446563449995E9 ; 0.0
50 ; 1.8590054491407692E7 ; 2.0095237996561545E8 ; 8.910968347841662E8 ; 8.421394075712444E9 ; 0.0
51 ; 1.8597576636357363E7 ; 2.0095732842656863E8 ; 9.09686889275574E8 ; 8.62234645567806E9 ; 0.0
52 ; 1.860513207021158E7 ; 2.0096235546271E8 ; 9.282844659119313E8 ; 8.82330378410463E9 ; 0.0
53 ; 1.861502415370973E7 ; 2.00967458920192E8 ; 9.468895979821428E8 ; 9.024266139567339E9 ; 0.0
54 ; 1.8618235928863235E7 ; 2.0097263667535436E8 ; 9.655046221358526E8 ; 9.225233598487532E9 ; 0.0
55 ; 1.862779335492355E7 ; 2.0097788663597795E8 ; 9.841228580647159E8 ; 9.426206235162886E9 ; 0.0
56 ; 1.8629828226431627E7 ; 2.0098320674236676E8 ; 1.0027506514196395E9 ; 9.627184121798864E9 ; 0.0
57 ; 1.863635459877998E7 ; 2.0098859496826726E8 ; 1.0213804796460711E9 ; 9.828167328541231E9 ; 0.0
58 ; 1.8641992954810746E7 ; 2.009940493216357E8 ; 1.0400168342448511E9 ; 1.0029155923509499E10 ; 0.0
59 ; 1.8649974495602123E7 ; 2.009995678452632E8 ; 1.0586588271996619E9 ; 1.0230149972831135E10 ; 0.0
60 ; 1.865489831229401E7 ; 2.0100514861726835E8 ; 1.0773088016952639E9 ; 1.0431149540676397E10 ; 0.0
61 ; 1.8655014995637294E7 ; 2.0101078975146657E8 ; 1.0959637000075579E9 ; 1.0632154689293665E10 ; 0.0
62 ; 1.8659103251941636E7 ; 2.0101648939762607E8 ; 1.114618715003195E9 ; 1.0833165479045132E10 ; 0.0
63 ; 1.8669729918358687E7 ; 2.01022245741619E8 ; 1.1332778182551367E9 ; 1.1034181968442759E10 ; 0.0
64 ; 1.867237890666771E7 ; 2.010280570054764E8 ; 1.1519475481734955E9 ; 1.1235204214184378E10 ; 0.0
65 ; 1.8671108847507626E7 ; 2.0103392144735533E8 ; 1.1706199270801632E9 ; 1.1436232271189854E10 ; 0.0
66 ; 1.8677668855051253E7 ; 2.0103983736142612E8 ; 1.189291035927671E9 ; 1.1637266192637209E10 ; 0.0
67 ; 1.8683956306473732E7 ; 2.010458030776869E8 ; 1.2079687047827222E9 ; 1.1838306029998634E10 ; 0.0
68 ; 1.8685997993763566E7 ; 2.0105181696171287E8 ; 1.226652661089196E9 ; 1.203935183307632E10 ; 0.0
69 ; 1.8687927431096982E7 ; 2.010578774143467E8 ; 1.2453386590829597E9 ; 1.2240403650038034E10 ; 0.0
70 ; 1.8694978822964806E7 ; 2.0106398287133652E8 ; 1.2640265865140567E9 ; 1.2441461527452381E10 ; 0.0
71 ; 1.869734300096508E7 ; 2.010701318029274E8 ; 1.2827215653370216E9 ; 1.2642525510323717E10 ; 0.0
72 ; 1.869897689308155E7 ; 2.0107632271341145E8 ; 1.3014189083379867E9 ; 1.2843595642126644E10 ; 0.0
73 ; 1.870573777485636E7 ; 2.0108255414064223E8 ; 1.3201178852310684E9 ; 1.3044671964840055E10 ; 0.0
74 ; 1.8707583844741363E7 ; 2.0108882465551776E8 ; 1.3388236230059247E9 ; 1.3245754518980698E10 ; 0.0
75 ; 1.871282601650788E7 ; 2.010951328614368E8 ; 1.357531206850666E9 ; 1.3446843343636215E10 ; 0.0
76 ; 1.8713062225490108E7 ; 2.0110147739373243E8 ; 1.376244032867174E9 ; 1.3647938476497652E10 ; 0.0
77 ; 1.871583991860619E7 ; 2.011078569190863E8 ; 1.394957095092664E9 ; 1.3849039953891384E10 ; 0.0
78 ; 1.871028965819212E7 ; 2.0111427013492787E8 ; 1.4136729350112703E9 ; 1.405014781081047E10 ; 0.0
79 ; 1.8710997289732054E7 ; 2.0112071576882076E8 ; 1.4323832246694624E9 ; 1.4251262080945398E10 ; 0.0
80 ; 1.8706835940285407E7 ; 2.011271925778398E8 ; 1.4510942219591944E9 ; 1.4452382796714218E10 ; 0.0
81 ; 1.8702971146777853E7 ; 2.0113369934794113E8 ; 1.4698010578994799E9 ; 1.4653509989292057E10 ; 0.0
82 ; 1.8699858863450084E7 ; 2.0114023489332786E8 ; 1.4885040290462577E9 ; 1.4854643688639997E10 ; 0.0
83 ; 1.868874597871756E7 ; 2.0114679805581313E8 ; 1.5072038879097078E9 ; 1.5055783923533325E10 ; 0.0
84 ; 1.869005158529601E7 ; 2.0115338770418304E8 ; 1.5258926338884254E9 ; 1.5256930721589138E10 ; 0.0
85 ; 1.8684356249998007E7 ; 2.011600027335607E8 ; 1.5445826854737213E9 ; 1.5458084109293322E10 ; 0.0
86 ; 1.8679255578258533E7 ; 2.0116664206477323E8 ; 1.5632670417237194E9 ; 1.5659244112026882E10 ; 0.0
87 ; 1.8675293821629856E7 ; 2.01173304643723E8 ; 1.5819462973019779E9 ; 1.5860410754091656E10 ; 0.0
88 ; 1.8673216815432973E7 ; 2.0117998944076446E8 ; 1.6006215911236076E9 ; 1.6061584058735378E10 ; 0.0
89 ; 1.8667338122062E7 ; 2.011866954500874E8 ; 1.6192948079390407E9 ; 1.6262764048176144E10 ; 0.0
90 ; 1.866295839202631E7 ; 2.0119342168910804E8 ; 1.6379621460611026E9 ; 1.646395074362623E10 ; 0.0
91 ; 1.8658937144645013E7 ; 2.012001671978683E8 ; 1.656625104453129E9 ; 1.6665144165315338E10 ; 0.0
92 ; 1.8651137605589066E7 ; 2.0120693103844404E8 ; 1.675284041597774E9 ; 1.6866344332513206E10 ; 0.0
93 ; 1.864536216848808E7 ; 2.012137122943636E8 ; 1.6939351792033632E9 ; 1.7067551263551651E10 ; 0.0
94 ; 1.864014925902483E7 ; 2.0122051007003582E8 ; 1.7125805413718512E9 ; 1.7268764975846016E10 ; 0.0
95 ; 1.863316210350435E7 ; 2.0122732349018943E8 ; 1.731220690630876E9 ; 1.746998548591605E10 ; 0.0
96 ; 1.8627174760853216E7 ; 2.0123415169932306E8 ; 1.7498538527343805E9 ; 1.767121280940624E10 ; 0.0
97 ; 1.862173607337225E7 ; 2.0124099386116675E8 ; 1.7684810274952338E9 ; 1.787244696110556E10 ; 0.0
98 ; 1.8617149290489513E7 ; 2.0124784915815502E8 ; 1.7871027635686061E9 ; 1.807368795496673E10 ; 0.0
99 ; 1.861180014718158E7 ; 2.0125471679091173E8 ; 1.8057199128590956E9 ; 1.827493580412488E10 ; 0.0
100 ; 1.8600520099639047E7 ; 2.0126159597774652E8 ; 1.824331713006277E9 ; 1.8476190520915794E10 ; 0.0
101 ; 1.859488445067878E7 ; 2.0126848595416355E8 ; 1.842932233105916E9 ; 1.867745211689354E10 ; 0.0
102 ; 1.858865689841479E7 ; 2.012753859723819E8 ; 1.8615271175565948E9 ; 1.8878720602847702E10 ; 0.0
103 ; 1.85832634909825E7 ; 2.0128229530086786E8 ; 1.8801157744550097E9 ; 1.9079995988820084E10 ; 0.0
104 ; 1.8578486123824E7 ; 2.0128921322387943E8 ; 1.8986990379459922E9 ; 1.9281278284120953E10 ; 0.0
105 ; 1.85674427881057E7 ; 2.012961390410223E8 ; 1.917277524069816E9 ; 1.9482567497344833E10 ; 0.0
106 ; 1.856112781240513E7 ; 2.013030720668176E8 ; 1.9358449668579218E9 ; 1.9683863636385857E10 ; 0.0
107 ; 1.8552980465195887E7 ; 2.013100116302814E8 ; 1.954406094670327E9 ; 1.9885166708452675E10 ; 0.0
108 ; 1.8544473371555716E7 ; 2.0131695707451546E8 ; 1.9729590751355228E9 ; 2.0086476720082954E10 ; 0.0
109 ; 1.8535184600081876E7 ; 2.0132390775630936E8 ; 1.9915035485070786E9 ; 2.028779367715747E10 ; 0.0
110 ; 1.8529607001562342E7 ; 2.0133086304575375E8 ; 2.0100387331071606E9 ; 2.048911758491378E10 ; 0.0
111 ; 1.851499592889533E7 ; 2.013378223258645E8 ; 2.028568340108723E9 ; 2.0690448447959534E10 ; 0.0
112 ; 1.8507970114097524E7 ; 2.0134478499221742E8 ; 2.0470833360376182E9 ; 2.0891786270285397E10 ; 0.0
113 ; 1.849755311220804E7 ; 2.013517504525939E8 ; 2.0655913061517158E9 ; 2.1093131055277615E10 ; 0.0
114 ; 1.8493182206230268E7 ; 2.013587181266364E8 ; 2.084088859263924E9 ; 2.129448280573021E10 ; 0.0
115 ; 1.8484754686256897E7 ; 2.0136568744551426E8 ; 2.102582041470154E9 ; 2.1495841523856846E10 ; 0.0
116 ; 1.8473767179611817E7 ; 2.013726578515994E8 ; 2.121066796156411E9 ; 2.169720721130236E10 ; 0.0
117 ; 1.8467218124050785E7 ; 2.0137962879815155E8 ; 2.1395405633360229E9 ; 2.189857986915396E10 ; 0.0
118 ; 1.8457420606626242E7 ; 2.0138659974901292E8 ; 2.1580077814600735E9 ; 2.2099959497952114E10 ; 0.0
119 ; 1.8447884981022984E7 ; 2.0139357017831206E8 ; 2.1764652020666995E9 ; 2.2301346097701126E10 ; 0.0
120 ; 1.843907046595251E7 ; 2.0140053957017666E8 ; 2.1949130870477223E9 ; 2.2502739667879436E10 ; 0.0
121 ; 1.8430335913929828E7 ; 2.0140750741845512E8 ; 2.2133521575136747E9 ; 2.270414020744961E10 ; 0.0
122 ; 1.8415476137558535E7 ; 2.0141447322644645E8 ; 2.2317824934276047E9 ; 2.2905547714868065E10 ; 0.0
123 ; 1.8407399703244023E7 ; 2.0142143650663865E8 ; 2.250197969565163E9 ; 2.3106962188094513E10 ; 0.0
124 ; 1.8390171139381144E7 ; 2.0142839678045493E8 ; 2.2686053692684073E9 ; 2.330838362460115E10 ; 0.0
125 ; 1.8384726183623437E7 ; 2.0143535357800785E8 ; 2.2869955404077883E9 ; 2.3509812021381607E10 ; 0.0
126 ; 1.8377587097162127E7 ; 2.0144230643786103E8 ; 2.3053802665914116E9 ; 2.3711247374959614E10 ; 0.0
127 ; 1.836188289392738E7 ; 2.014492549067982E8 ; 2.323757853688574E9 ; 2.3912689681397476E10 ; 0.0
128 ; 1.8351026604296107E7 ; 2.014561985395996E8 ; 2.3421197365825014E9 ; 2.4114138936304276E10 ; 0.0
129 ; 1.833776207461118E7 ; 2.0146313689882493E8 ; 2.3604707631867976E9 ; 2.4315595134843876E10 ; 0.0
130 ; 1.8328947989901036E7 ; 2.0147006955460346E8 ; 2.378808525261409E9 ; 2.4517058271742702E10 ; 0.0
131 ; 1.8309054503126785E7 ; 2.0147699608443055E8 ; 2.39713747325131E9 ; 2.4718528341297306E10 ; 0.0
132 ; 1.8291399080530945E7 ; 2.0148391607297048E8 ; 2.4154465277544365E9 ; 2.4920005337381737E10 ; 0.0
133 ; 1.8274939232255075E7 ; 2.0149082911186537E8 ; 2.4337379268349676E9 ; 2.512148925345471E10 ; 0.0
134 ; 1.825847699491899E7 ; 2.0149773479955035E8 ; 2.4520128660672226E9 ; 2.5322980082566574E10 ; 0.0
135 ; 1.8241079123420402E7 ; 2.0150463274107414E8 ; 2.4702713430621414E9 ; 2.5524477817366123E10 ; 0.0
136 ; 1.8219930023507502E7 ; 2.0151152254792568E8 ; 2.4885124221855617E9 ; 2.5725982450107197E10 ; 0.0
137 ; 1.8205579740085255E7 ; 2.0151840383786565E8 ; 2.5067323522090693E9 ; 2.592749397265512E10 ; 0.0
138 ; 1.818626905977471E7 ; 2.015252762347639E8 ; 2.5249379319491544E9 ; 2.6129012376492985E10 ; 0.0
139 ; 1.8165127599370558E7 ; 2.0153213936844137E8 ; 2.5431242010089293E9 ; 2.633053765272775E10 ; 0.0
140 ; 1.8148377686205104E7 ; 2.0153899287451738E8 ; 2.5612893286082997E9 ; 2.653206979209619E10 ; 0.0
141 ; 1.812502150424443E7 ; 2.015458363942615E8 ; 2.5794377062945046E9 ; 2.6733608784970707E10 ; 0.0
142 ; 1.810985937597457E7 ; 2.0155266957445025E8 ; 2.597562727798749E9 ; 2.6935154621364967E10 ; 0.0
143 ; 1.8093789997364078E7 ; 2.0155949206722784E8 ; 2.6156725871747236E9 ; 2.713670729093942E10 ; 0.0
144 ; 1.807036883410467E7 ; 2.0156630352997193E8 ; 2.6337663771720877E9 ; 2.7338266783006645E10 ; 0.0
145 ; 1.805815139507176E7 ; 2.015731036251629E8 ; 2.651836746006192E9 ; 2.7539833086536617E10 ; 0.0
146 ; 1.8051851197203726E7 ; 2.0157989202025774E8 ; 2.669894897401264E9 ; 2.774140619016178E10 ; 0.0
147 ; 1.803651703163272E7 ; 2.015866683875676E8 ; 2.687946748598468E9 ; 2.7942986082182037E10 ; 0.0
148 ; 1.8024472110432763E7 ; 2.015934324041392E8 ; 2.7059832656301007E9 ; 2.8144572750569607E10 ; 0.0
149 ; 1.8009699205127347E7 ; 2.0160018375163984E8 ; 2.7240077377405334E9 ; 2.8346166182973747E10 ; 0.0
150 ; 1.7997659308021333E7 ; 2.0160692211624628E8 ; 2.7420174369456606E9 ; 2.8547766366725388E10 ; 0.0
151 ; 1.798578184383342E7 ; 2.0161364718853676E8 ; 2.760015096253682E9 ; 2.8749373288841633E10 ; 0.0
152 ; 1.797101213063392E7 ; 2.0162035866338646E8 ; 2.7780008780975156E9 ; 2.895098693603017E10 ; 0.0
153 ; 1.796234663360492E7 ; 2.0162705623986632E8 ; 2.7959718902281494E9 ; 2.9152607294693558E10 ; 0.0
154 ; 1.795239740774439E7 ; 2.016337396211448E8 ; 2.8139342368617544E9 ; 2.9354234350933426E10 ; 0.0
155 ; 1.793821551350195E7 ; 2.0164040851439282E8 ; 2.831886634269499E9 ; 2.955586809055457E10 ; 0.0
156 ; 1.7922349626565732E7 ; 2.0164706263069156E8 ; 2.849824849783001E9 ; 2.9757508499068962E10 ; 0.0
157 ; 1.791041034682624E7 ; 2.0165370168494317E8 ; 2.867747199409567E9 ; 2.9959155561699654E10 ; 0.0
158 ; 1.7895681561392985E7 ; 2.0166032539578402E8 ; 2.885657609756393E9 ; 3.0160809263384598E10 ; 0.0
159 ; 1.7883861566528797E7 ; 2.01666933485501E8 ; 2.9035532913177857E9 ; 3.036246958878038E10 ; 0.0
160 ; 1.7869817302071903E7 ; 2.0167352567994988E8 ; 2.9214371528843145E9 ; 3.056413652226588E10 ; 0.0
161 ; 1.785944576974408E7 ; 2.016801017084767E8 ; 2.9393069701863866E9 ; 3.076581004794583E10 ; 0.0
162 ; 1.7845081910652626E7 ; 2.0168666130384105E8 ; 2.9571664159561305E9 ; 3.096749014965431E10 ; 0.0
163 ; 1.7830269903589044E7 ; 2.016932042021422E8 ; 2.975011497866783E9 ; 3.116917681095815E10 ; 0.0
164 ; 1.781633550008053E7 ; 2.0169973014274693E8 ; 2.9928417677703724E9 ; 3.137087001516029E10 ; 0.0
165 ; 1.7803797775561333E7 ; 2.017062388682201E8 ; 3.010658103270453E9 ; 3.1572569745303036E10 ; 0.0
166 ; 1.779314282330873E7 ; 2.0171273012425682E8 ; 3.0284619010460143E9 ; 3.1774275984171257E10 ; 0.0
167 ; 1.778045091261707E7 ; 2.0171920365961716E8 ; 3.0462550438693233E9 ; 3.1975988714295513E10 ; 0.0
168 ; 1.776532588381907E7 ; 2.0172565922606236E8 ; 3.0640354947819405E9 ; 3.217770791795513E10 ; 0.0
169 ; 1.7746075135809857E7 ; 2.0173209657829335E8 ; 3.0818008206657596E9 ; 3.2379433577181194E10 ; 0.0
170 ; 1.7737321226469066E7 ; 2.0173851547389087E8 ; 3.0995468958015695E9 ; 3.2581165673759487E10 ; 0.0
171 ; 1.772897277203346E7 ; 2.017449156732575E8 ; 3.1172842170280385E9 ; 3.278290418923338E10 ; 0.0
172 ; 1.7710998529357933E7 ; 2.017512969395615E8 ; 3.135013189800072E9 ; 3.2984649104906635E10 ; 0.0
173 ; 1.769679533360423E7 ; 2.01757659038682E8 ; 3.15272418832943E9 ; 3.3186400401846195E10 ; 0.0
174 ; 1.76897393107799E7 ; 2.0176400173915642E8 ; 3.1704209836630344E9 ; 3.3388158060884876E10 ; 0.0
175 ; 1.76818283129723E7 ; 2.017703248121287E8 ; 3.1881107229738145E9 ; 3.358992206262403E10 ; 0.0
176 ; 1.766909885158087E7 ; 2.017766280312998E8 ; 3.2057925512867866E9 ; 3.379169238743616E10 ; 0.0
177 ; 1.766453346204795E7 ; 2.0178291117287913E8 ; 3.2234616501383677E9 ; 3.399346901546746E10 ; 0.0
178 ; 1.7655011073858954E7 ; 2.017891740155378E8 ; 3.2411261836004157E9 ; 3.419525192664034E10 ; 0.0
179 ; 1.7648570126504082E7 ; 2.0179541634036294E8 ; 3.2587811946742744E9 ; 3.4397041100655876E10 ; 0.0
180 ; 1.7639327500317592E7 ; 2.0180163793081352E8 ; 3.2764297648007784E9 ; 3.459883651699624E10 ; 0.0
181 ; 1.7627238967973508E7 ; 2.0180783857267764E8 ; 3.294069092301096E9 ; 3.4800638154927055E10 ; 0.0
182 ; 1.7620977217842877E7 ; 2.0181401805403066E8 ; 3.3116963312690697E9 ; 3.500244599349973E10 ; 0.0
183 ; 1.761306831378791E7 ; 2.0182017616519496E8 ; 3.3293173084869127E9 ; 3.5204260011553764E10 ; 0.0
184 ; 1.7602370904356766E7 ; 2.0182631269870064E8 ; 3.3469303768007007E9 ; 3.5406080187718956E10 ; 0.0
185 ; 1.759401390061792E7 ; 2.0183242744924748E8 ; 3.3645327477050576E9 ; 3.5607906500417656E10 ; 0.0
186 ; 1.7587811689615313E7 ; 2.01838520213668E8 ; 3.3821267616056757E9 ; 3.5809738927866905E10 ; 0.0
187 ; 1.7582732993492365E7 ; 2.0184459079089144E8 ; 3.399714573295291E9 ; 3.6011577448080574E10 ; 0.0
188 ; 1.7568103360007852E7 ; 2.018506389819092E8 ; 3.417297306288783E9 ; 3.621342203887147E10 ; 0.0
189 ; 1.7563445280824844E7 ; 2.018566645897406E8 ; 3.434865409648791E9 ; 3.641527267785338E10 ; 0.0
190 ; 1.754933071859082E7 ; 2.0186266741940045E8 ; 3.4524288549296155E9 ; 3.6617129342443115E10 ; 0.0
191 ; 1.7548216410866797E7 ; 2.0186864727786687E8 ; 3.469978185648206E9 ; 3.681899200986252E10 ; 0.0
192 ; 1.753326852159101E7 ; 2.018746039740503E8 ; 3.487526402059073E9 ; 3.702086065714039E10 ; 0.0
193 ; 1.752741781699102E7 ; 2.018805373187637E8 ; 3.505059670580664E9 ; 3.722273526111444E10 ; 0.0
194 ; 1.7519933882881615E7 ; 2.0188644712469292E8 ; 3.522587088397655E9 ; 3.7424615798433205E10 ; 0.0
195 ; 1.75135692053263E7 ; 2.0189233320636865E8 ; 3.5401070222805367E9 ; 3.76265022455579E10 ; 0.0
