CSV File for the City 2 on Day 244
1 - Minute m 
2 - Power Consumed at minute m 
3 - Power Produced at minute m 
4 - Energy Consumed since the beginning of the day 
5 - Energy Produced since the beginning of the day 
6 - Energy Lost since the beginning of the day on lines starting from the city
 
0 ; 310216.9624582718 ; 1.0520004269644997E8 ; 0.0 ; 0.0 ; 0.0
1 ; 312753.89209700236 ; 1.0535383184234357E8 ; 310216.9624582718 ; 1.0520004269644997E8 ; 0.0
2 ; 314112.2693661557 ; 1.0581631247455212E8 ; 622970.8545552741 ; 2.1055387453879353E8 ; 0.0
3 ; 315500.3370952067 ; 1.0658748655349553E8 ; 937083.1239214299 ; 3.1637018701334566E8 ; 0.0
4 ; 318886.70231937413 ; 1.0766735591662353E8 ; 1252583.4610166366 ; 4.229576735668412E8 ; 0.0
5 ; 323809.1593785666 ; 1.0905592224486345E8 ; 1571470.1633360106 ; 5.306250294834647E8 ; 0.0
6 ; 326591.17003864306 ; 1.1075318702943012E8 ; 1895279.3227145772 ; 6.396809517283282E8 ; 0.0
7 ; 334476.8450775063 ; 1.1275915154034847E8 ; 2221870.4927532203 ; 7.504341387577584E8 ; 0.0
8 ; 342821.7309805256 ; 1.1507381679811335E8 ; 2556347.3378307265 ; 8.631932902981069E8 ; 0.0
9 ; 356476.5889265776 ; 1.1769718354988348E8 ; 2899169.0688112522 ; 9.782671070962203E8 ; 0.0
10 ; 378304.14289795776 ; 1.2062925225146192E8 ; 3255645.6577378297 ; 1.0959642906461039E9 ; 0.0
11 ; 411718.68213635945 ; 1.2387002305605635E8 ; 3633949.8006357877 ; 1.2165935428975658E9 ; 0.0
12 ; 465023.2247660408 ; 1.2741949581045905E8 ; 4045668.4827721473 ; 1.340463565953622E9 ; 0.0
13 ; 517895.4175229065 ; 1.3127767005886698E8 ; 4510691.707538188 ; 1.4678830617640812E9 ; 0.0
14 ; 524189.3333405954 ; 1.354445450541215E8 ; 5028587.125061095 ; 1.5991607318229482E9 ; 0.0
15 ; 527275.3819670364 ; 1.3992011977572763E8 ; 5552776.45840169 ; 1.7346052768770697E9 ; 0.0
16 ; 528231.4422408342 ; 1.4470439295366058E8 ; 6080051.840368726 ; 1.8745253966527972E9 ; 0.0
17 ; 532144.0523832393 ; 1.497973630967054E8 ; 6608283.2826095605 ; 2.0192297896064577E9 ; 0.0
18 ; 535241.9107689778 ; 1.5519902852393484E8 ; 7140427.3349928 ; 2.169027152703163E9 ; 0.0
19 ; 537702.1557936308 ; 1.6090938739789912E8 ; 7675669.245761778 ; 2.324226181227098E9 ; 0.0
20 ; 539380.0521157226 ; 1.6692843775817832E8 ; 8213371.401555409 ; 2.485135568624997E9 ; 0.0
21 ; 541954.686131992 ; 1.7325617755410358E8 ; 8752751.453671131 ; 2.6520640063831754E9 ; 0.0
22 ; 544959.8171451635 ; 1.7989260467566717E8 ; 9294706.139803123 ; 2.8253201839372787E9 ; 0.0
23 ; 548170.4821072024 ; 1.868377169818802E8 ; 9839665.956948286 ; 3.005212788612946E9 ; 0.0
24 ; 551563.5766376326 ; 1.9409151232607657E8 ; 1.0387836439055488E7 ; 3.192050505594826E9 ; 0.0
25 ; 551683.9817365076 ; 2.0034202947607103E8 ; 1.093940001569312E7 ; 3.3861420179209027E9 ; 0.0
26 ; 555007.1347575443 ; 2.003428141696158E8 ; 1.1491083997429628E7 ; 3.5864840473969736E9 ; 0.0
27 ; 558995.7440472484 ; 2.003436336545231E8 ; 1.2046091132187173E7 ; 3.7868268615665894E9 ; 0.0
28 ; 560259.8705229703 ; 2.0034448594750383E8 ; 1.2605086876234422E7 ; 3.9871704952211123E9 ; 0.0
29 ; 563408.8645479616 ; 2.0034536913659385E8 ; 1.3165346746757392E7 ; 4.1875149811686163E9 ; 0.0
30 ; 564722.8297814835 ; 2.0034628138776454E8 ; 1.3728755611305354E7 ; 4.38786035030521E9 ; 0.0
31 ; 566909.9628380873 ; 2.003472209492984E8 ; 1.4293478441086838E7 ; 4.588206631692975E9 ; 0.0
32 ; 569705.261118861 ; 2.00348186154264E8 ; 1.4860388403924925E7 ; 4.788553852642274E9 ; 0.0
33 ; 573768.2974470434 ; 2.0034917542141083E8 ; 1.5430093665043786E7 ; 4.988902038796538E9 ; 0.0
34 ; 575028.6084199792 ; 2.0035018725477946E8 ; 1.6003861962490829E7 ; 5.189251214217949E9 ; 0.0
35 ; 576438.2535391705 ; 2.0035122024229202E8 ; 1.6578890570910808E7 ; 5.389601401472729E9 ; 0.0
36 ; 579847.2024705837 ; 2.003522730535561E8 ; 1.715532882444998E7 ; 5.589952621715021E9 ; 0.0
37 ; 580953.1839124515 ; 2.003533444370814E8 ; 1.773517602692056E7 ; 5.790304894768578E9 ; 0.0
38 ; 584551.4451367427 ; 2.0035443321707815E8 ; 1.8316129210833013E7 ; 5.990658239205659E9 ; 0.0
39 ; 586469.350037189 ; 2.003555382899769E8 ; 1.8900680655969754E7 ; 6.191012672422737E9 ; 0.0
40 ; 588195.5063149923 ; 2.0035665862078315E8 ; 1.948715000600694E7 ; 6.391368210712714E9 ; 0.0
41 ; 589089.2414234303 ; 2.003577932393589E8 ; 2.0075345512321934E7 ; 6.591724869333497E9 ; 0.0
42 ; 590767.5722383569 ; 2.003589412367016E8 ; 2.0664434753745366E7 ; 6.792082662572856E9 ; 0.0
43 ; 593433.3298345879 ; 2.0036010176127666E8 ; 2.125520232598372E7 ; 6.992441603809558E9 ; 0.0
44 ; 594831.3465021094 ; 2.0036127401544446E8 ; 2.184863565581831E7 ; 7.192801705570834E9 ; 0.0
45 ; 594899.5803841752 ; 2.0036245725201198E8 ; 2.244346700232042E7 ; 7.393162979586279E9 ; 0.0
46 ; 597511.4279665978 ; 2.0036365077092993E8 ; 2.3038366582704596E7 ; 7.593525436838291E9 ; 0.0
47 ; 598024.7710760831 ; 2.0036485391614893E8 ; 2.3635878010671195E7 ; 7.793889087609221E9 ; 0.0
48 ; 599835.7257625089 ; 2.0036606607264236E8 ; 2.4233902781747278E7 ; 7.994253941525371E9 ; 0.0
49 ; 599279.6079490812 ; 2.003672866635991E8 ; 2.4833738507509787E7 ; 8.194620007598013E9 ; 0.0
50 ; 602120.3360183999 ; 2.0036851514778563E8 ; 2.543301811545887E7 ; 8.394987294261612E9 ; 0.0
51 ; 602603.804380673 ; 2.0036975101707485E8 ; 2.6035138451477267E7 ; 8.595355809409397E9 ; 0.0
52 ; 603932.2528928871 ; 2.0037099379413635E8 ; 2.663774225585794E7 ; 8.795725560426472E9 ; 0.0
53 ; 605048.4659584217 ; 2.003722430302823E8 ; 2.7241674508750826E7 ; 8.996096554220608E9 ; 0.0
54 ; 604332.4347820269 ; 2.0037349830346167E8 ; 2.7846722974709246E7 ; 9.19646879725089E9 ; 0.0
55 ; 606957.5518124814 ; 2.0037475921639517E8 ; 2.8451055409491275E7 ; 9.396842295554352E9 ; 0.0
56 ; 607120.8701381598 ; 2.0037602539484277E8 ; 2.9058012961303756E7 ; 9.597217054770746E9 ; 0.0
57 ; 608662.3021083075 ; 2.0037729648599625E8 ; 2.9665133831441917E7 ; 9.797593080165588E9 ; 0.0
58 ; 608322.5472408949 ; 2.0037857215698835E8 ; 3.0273796133550223E7 ; 9.997970376651585E9 ; 0.0
59 ; 609985.699372444 ; 2.0037985209351093E8 ; 3.0882118680791117E7 ; 1.0198348948808573E10 ; 0.0
60 ; 610136.4835395745 ; 2.003811359985349E8 ; 3.149210438016356E7 ; 1.0398728800902084E10 ; 0.0
61 ; 610390.6117680519 ; 2.003824235911243E8 ; 3.2102240863703135E7 ; 1.059910993690062E10 ; 0.0
62 ; 612234.7795045669 ; 2.003837146053382E8 ; 3.2712631475471187E7 ; 1.0799492360491743E10 ; 0.0
63 ; 613806.5486497589 ; 2.003850087892136E8 ; 3.3324866254975755E7 ; 1.0999876075097082E10 ; 0.0
64 ; 614075.9635699389 ; 2.003863059038238E8 ; 3.393867280362552E7 ; 1.1200261083886295E10 ; 0.0
65 ; 614457.3818423671 ; 2.0038760572240585E8 ; 3.4552748767195456E7 ; 1.140064738979012E10 ; 0.0
66 ; 613705.9002455175 ; 2.003889080295526E8 ; 3.516720614903782E7 ; 1.1601034995512526E10 ; 0.0
67 ; 616459.9353296844 ; 2.003902126204641E8 ; 3.578091204928334E7 ; 1.1801423903542078E10 ; 0.0
68 ; 617102.9970777928 ; 2.0039151930025348E8 ; 3.639737198461302E7 ; 1.2001814116162542E10 ; 0.0
69 ; 618546.6900185324 ; 2.003928278833039E8 ; 3.701447498169082E7 ; 1.2202205635462795E10 ; 0.0
70 ; 618371.9801080971 ; 2.003941381926718E8 ; 3.763302167170935E7 ; 1.24025984633461E10 ; 0.0
71 ; 619286.9757944001 ; 2.0039545005953348E8 ; 3.825139365181745E7 ; 1.2602992601538773E10 ; 0.0
72 ; 620005.4694794496 ; 2.0039676332267135E8 ; 3.8870680627611846E7 ; 1.2803388051598307E10 ; 0.0
73 ; 619677.6622088865 ; 2.0039807782799697E8 ; 3.9490686097091295E7 ; 1.3003784814920979E10 ; 0.0
74 ; 619635.0883556537 ; 2.0039939342810792E8 ; 4.011036375930018E7 ; 1.3204182892748976E10 ; 0.0
75 ; 620284.9979787951 ; 2.0040070998187605E8 ; 4.072999884765583E7 ; 1.3404582286177084E10 ; 0.0
76 ; 620417.7338694414 ; 2.0040202735406438E8 ; 4.1350283845634624E7 ; 1.360498299615896E10 ; 0.0
77 ; 621917.1215187986 ; 2.004033454149711E8 ; 4.1970701579504065E7 ; 1.3805385023513025E10 ; 0.0
78 ; 622065.5467957279 ; 2.0040466404009786E8 ; 4.259261870102286E7 ; 1.4005788368927996E10 ; 0.0
79 ; 622414.8544342135 ; 2.00405983109841E8 ; 4.321468424781859E7 ; 1.4206193032968094E10 ; 0.0
80 ; 622194.3843809139 ; 2.0040730250920385E8 ; 4.3837099102252804E7 ; 1.4406599016077934E10 ; 0.0
81 ; 620291.4317913277 ; 2.0040862212752873E8 ; 4.445929348663372E7 ; 1.4607006318587137E10 ; 0.0
82 ; 620792.3494440754 ; 2.0040994185824648E8 ; 4.5079584918425046E7 ; 1.4807414940714666E10 ; 0.0
83 ; 622275.3013813369 ; 2.004112615986433E8 ; 4.570037726786912E7 ; 1.5007824882572912E10 ; 0.0
84 ; 620663.0096163389 ; 2.0041258124964267E8 ; 4.632265256925046E7 ; 1.5208236144171555E10 ; 0.0
85 ; 621449.2739652898 ; 2.0041390071560168E8 ; 4.6943315578866795E7 ; 1.5408648725421198E10 ; 0.0
86 ; 621423.9661244787 ; 2.004152199041209E8 ; 4.756476485283209E7 ; 1.5609062626136799E10 ; 0.0
87 ; 621274.11062233 ; 2.004165387258661E8 ; 4.818618881895657E7 ; 1.580947784604092E10 ; 0.0
88 ; 620954.7615132293 ; 2.00417857094402E8 ; 4.88074629295789E7 ; 1.6009894384766787E10 ; 0.0
89 ; 620568.8272568698 ; 2.0041917492603606E8 ; 4.9428417691092126E7 ; 1.6210312241861189E10 ; 0.0
90 ; 618709.8581659077 ; 2.004204921396727E8 ; 5.0048986518349E7 ; 1.6410731416787226E10 ; 0.0
91 ; 619077.0666207885 ; 2.0042180865667623E8 ; 5.0667696376514904E7 ; 1.6611151908926899E10 ; 0.0
92 ; 619997.4346010501 ; 2.0042312440074262E8 ; 5.128677344313569E7 ; 1.6811573717583574E10 ; 0.0
93 ; 619746.0612442198 ; 2.0042443929777905E8 ; 5.190677087773675E7 ; 1.7011996841984318E10 ; 0.0
94 ; 619063.642884609 ; 2.0042575327579087E8 ; 5.252651693898097E7 ; 1.7212421281282097E10 ; 0.0
95 ; 619272.984714086 ; 2.0042706626477557E8 ; 5.314558058186558E7 ; 1.7412847034557888E10 ; 0.0
96 ; 616892.1100249639 ; 2.0042837819662297E8 ; 5.376485356657966E7 ; 1.7613274100822662E10 ; 0.0
97 ; 616434.5807487218 ; 2.0042968900502142E8 ; 5.438174567660463E7 ; 1.7813702479019287E10 ; 0.0
98 ; 617459.9529131859 ; 2.004309986253699E8 ; 5.499818025735335E7 ; 1.8014132168024307E10 ; 0.0
99 ; 617527.3713847268 ; 2.004323069946947E8 ; 5.561564021026654E7 ; 1.8214563166649677E10 ; 0.0
100 ; 615944.2772571952 ; 2.0043361405157167E8 ; 5.623316758165126E7 ; 1.841499547364437E10 ; 0.0
101 ; 616531.6977546321 ; 2.0043491973605245E8 ; 5.684911185890846E7 ; 1.8615429087695942E10 ; 0.0
102 ; 615504.6466999316 ; 2.004362239895952E8 ; 5.746564355666309E7 ; 1.8815864007431995E10 ; 0.0
103 ; 614926.3309548586 ; 2.004375267549993E8 ; 5.808114820336302E7 ; 1.901630023142159E10 ; 0.0
104 ; 613798.7072982613 ; 2.0043882797634378E8 ; 5.869607453431788E7 ; 1.921673775817659E10 ; 0.0
105 ; 614969.1409388795 ; 2.00440127598929E8 ; 5.9309873241616145E7 ; 1.9417176586152935E10 ; 0.0
106 ; 612416.1352148243 ; 2.0044142556922185E8 ; 5.992484238255502E7 ; 1.9617616713751865E10 ; 0.0
107 ; 612239.8084641446 ; 2.00442721834804E8 ; 6.053725851776985E7 ; 1.9818058139321087E10 ; 0.0
108 ; 611266.2093103627 ; 2.0044401634432283E8 ; 6.1149498326234E7 ; 2.001850086115589E10 ; 0.0
109 ; 612420.0459305171 ; 2.0044530904744503E8 ; 6.176076453554436E7 ; 2.0218944877500214E10 ; 0.0
110 ; 612444.1989257549 ; 2.0044659989481303E8 ; 6.237318458147488E7 ; 2.0419390186547657E10 ; 0.0
111 ; 611636.2432025004 ; 2.0044788883800343E8 ; 6.2985628780400634E7 ; 2.061983678644247E10 ; 0.0
112 ; 610687.7618192232 ; 2.0044917582948786E8 ; 6.3597265023603134E7 ; 2.0820284675280476E10 ; 0.0
113 ; 608406.605785858 ; 2.004504608225959E8 ; 6.4207952785422355E7 ; 2.1020733851109962E10 ; 0.0
114 ; 607966.779388231 ; 2.0045174377147982E8 ; 6.481635939120822E7 ; 2.122118431193256E10 ; 0.0
115 ; 607701.1890722984 ; 2.0045302463108143E8 ; 6.542432617059645E7 ; 2.142163605570404E10 ; 0.0
116 ; 605532.370768363 ; 2.0045430335710037E8 ; 6.603202735966875E7 ; 2.162208908033512E10 ; 0.0
117 ; 607254.9934799223 ; 2.0045557990596426E8 ; 6.663755973043711E7 ; 2.1822543383692223E10 ; 0.0
118 ; 606267.838760175 ; 2.004568542348003E8 ; 6.724481472391702E7 ; 2.2022998963598186E10 ; 0.0
119 ; 606686.4464800324 ; 2.0045812630140832E8 ; 6.78510825626772E7 ; 2.2223455817832985E10 ; 0.0
120 ; 604780.3637987835 ; 2.0045939606423515E8 ; 6.845776900915724E7 ; 2.242391394413439E10 ; 0.0
121 ; 605571.9042544854 ; 2.0046066348235038E8 ; 6.906254937295602E7 ; 2.2624373340198627E10 ; 0.0
122 ; 603452.4892958427 ; 2.0046192851542336E8 ; 6.96681212772105E7 ; 2.2824834003680977E10 ; 0.0
123 ; 602871.7307200928 ; 2.0046319112370113E8 ; 7.027157376650634E7 ; 2.30252959321964E10 ; 0.0
124 ; 602368.6911430149 ; 2.0046445126798767E8 ; 7.087444549722643E7 ; 2.3225759123320103E10 ; 0.0
125 ; 600557.2990315421 ; 2.004657089096241E8 ; 7.147681418836945E7 ; 2.342622357458809E10 ; 0.0
126 ; 601044.2055923558 ; 2.0046696401046973E8 ; 7.2077371487401E7 ; 2.362668928349771E10 ; 0.0
127 ; 599936.8896962978 ; 2.0046821653288427E8 ; 7.267841569299334E7 ; 2.3827156247508183E10 ; 0.0
128 ; 597820.1620467853 ; 2.0046946643971068E8 ; 7.327835258268964E7 ; 2.4027624464041065E10 ; 0.0
129 ; 597917.6647456794 ; 2.004707136942589E8 ; 7.387617274473643E7 ; 2.4228093930480778E10 ; 0.0
130 ; 596442.7546270151 ; 2.0047195826029044E8 ; 7.44740904094821E7 ; 2.4428564644175037E10 ; 0.0
131 ; 593538.3080313737 ; 2.0047320010200354E8 ; 7.507053316410913E7 ; 2.462903660243533E10 ; 0.0
132 ; 594829.9769426957 ; 2.004744391840193E8 ; 7.56640714721405E7 ; 2.4829509802537334E10 ; 0.0
133 ; 591802.3424885591 ; 2.0047567547136804E8 ; 7.625890144908321E7 ; 2.5029984241721355E10 ; 0.0
134 ; 590739.8033527146 ; 2.0047690892947683E8 ; 7.685070379157177E7 ; 2.5230459917192722E10 ; 0.0
135 ; 588844.835803454 ; 2.0047813952415702E8 ; 7.744144359492448E7 ; 2.54309368261222E10 ; 0.0
136 ; 586938.9889961857 ; 2.0047936722159284E8 ; 7.803028843072793E7 ; 2.563141496564636E10 ; 0.0
137 ; 586077.9214705556 ; 2.0048059198833025E8 ; 7.861722741972412E7 ; 2.583189433286795E10 ; 0.0
138 ; 583614.9865687867 ; 2.0048181379126638E8 ; 7.920330534119467E7 ; 2.603237492485628E10 ; 0.0
139 ; 583374.7768008412 ; 2.0048303259763935E8 ; 7.978692032776347E7 ; 2.623285673864755E10 ; 0.0
140 ; 581667.7021141284 ; 2.004842483750188E8 ; 8.037029510456431E7 ; 2.643333977124519E10 ; 0.0
141 ; 579241.647136524 ; 2.004854610912965E8 ; 8.095196280667844E7 ; 2.663382401962021E10 ; 0.0
142 ; 578080.5419480464 ; 2.004866707146777E8 ; 8.153120445381497E7 ; 2.6834309480711506E10 ; 0.0
143 ; 575977.171540719 ; 2.0048787721367264E8 ; 8.210928499576302E7 ; 2.703479615142618E10 ; 0.0
144 ; 574257.0867633685 ; 2.0048908055708858E8 ; 8.268526216730374E7 ; 2.7235284028639854E10 ; 0.0
145 ; 573628.7366358014 ; 2.0049028071402204E8 ; 8.325951925406711E7 ; 2.743577310919694E10 ; 0.0
146 ; 572409.3187462281 ; 2.004914776538516E8 ; 8.383314799070291E7 ; 2.7636263389910965E10 ; 0.0
147 ; 570525.9465845046 ; 2.004926713462307E8 ; 8.440555730944914E7 ; 2.7836754867564816E10 ; 0.0
148 ; 570558.1518568714 ; 2.004938617610811E8 ; 8.497608325603364E7 ; 2.8037247538911045E10 ; 0.0
149 ; 570819.7791695227 ; 2.0049504886858633E8 ; 8.554664140789051E7 ; 2.8237741400672127E10 ; 0.0
150 ; 569604.5010854361 ; 2.0049623263918564E8 ; 8.611746118706004E7 ; 2.8438236449540714E10 ; 0.0
151 ; 569219.1048008662 ; 2.0049741304356807E8 ; 8.668706568814547E7 ; 2.86387326821799E10 ; 0.0
152 ; 565985.7051283323 ; 2.0049859005266675E8 ; 8.725628479294634E7 ; 2.883923009522347E10 ; 0.0
153 ; 565812.5189187052 ; 2.0049976363765374E8 ; 8.782227049807467E7 ; 2.9039728685276134E10 ; 0.0
154 ; 566235.6661024082 ; 2.0050093376993456E8 ; 8.838808301699337E7 ; 2.9240228448913788E10 ; 0.0
155 ; 564792.1121348859 ; 2.0050210042114353E8 ; 8.895431868309578E7 ; 2.9440729382683723E10 ; 0.0
156 ; 564429.9490378352 ; 2.0050326356313887E8 ; 8.951911079523067E7 ; 2.9641231483104866E10 ; 0.0
157 ; 563274.4779600088 ; 2.0050442316799822E8 ; 9.00835407442685E7 ; 2.9841734746668003E10 ; 0.0
158 ; 561374.2965212911 ; 2.005055792080143E8 ; 9.064681522222851E7 ; 3.0042239169836002E10 ; 0.0
159 ; 560913.8599456075 ; 2.0050673165569076E8 ; 9.12081895187498E7 ; 3.0242744749044018E10 ; 0.0
160 ; 559093.6183138042 ; 2.0050788048373812E8 ; 9.176910337869541E7 ; 3.0443251480699707E10 ; 0.0
161 ; 558911.6571419084 ; 2.005090256650701E8 ; 9.232819699700922E7 ; 3.0643759361183445E10 ; 0.0
162 ; 558932.9759467149 ; 2.005101671727998E8 ; 9.288710865415113E7 ; 3.0844268386848515E10 ; 0.0
163 ; 558321.6321450294 ; 2.0051130498023626E8 ; 9.344604163009784E7 ; 3.1044778554021313E10 ; 0.0
164 ; 555719.2479251336 ; 2.0051243906088117E8 ; 9.400436326224287E7 ; 3.124528985900155E10 ; 0.0
165 ; 555745.3383758225 ; 2.0051356938842544E8 ; 9.4560082510168E7 ; 3.144580229806243E10 ; 0.0
166 ; 554220.6479007227 ; 2.0051469593674633E8 ; 9.511582784854382E7 ; 3.1646315867450855E10 ; 0.0
167 ; 552667.4889396309 ; 2.0051581867990434E8 ; 9.567004849644454E7 ; 3.18468305633876E10 ; 0.0
168 ; 552429.4350535271 ; 2.0051693759214047E8 ; 9.622271598538417E7 ; 3.2047346382067505E10 ; 0.0
169 ; 552096.9536714043 ; 2.0051805264787334E8 ; 9.67751454204377E7 ; 3.2247863319659645E10 ; 0.0
170 ; 549505.1080807892 ; 2.0051916382169676E8 ; 9.73272423741091E7 ; 3.2448381372307518E10 ; 0.0
171 ; 550185.2905466594 ; 2.005202710883771E8 ; 9.78767474821899E7 ; 3.2648900536129215E10 ; 0.0
172 ; 549065.9755928082 ; 2.0052137442285082E8 ; 9.842693277273655E7 ; 3.2849420807217594E10 ; 0.0
173 ; 547258.7981950524 ; 2.0052247380022243E8 ; 9.897599874832936E7 ; 3.3049942181640446E10 ; 0.0
174 ; 546857.13968755 ; 2.0052356919576198E8 ; 9.95232575465244E7 ; 3.325046465544067E10 ; 0.0
175 ; 545944.690922341 ; 2.0052466058490306E8 ; 1.0007011468621196E8 ; 3.3450988224636433E10 ; 0.0
176 ; 546233.1605115861 ; 2.0052574794324076E8 ; 1.006160593771343E8 ; 3.3651512885221336E10 ; 0.0
177 ; 543938.9317466645 ; 2.0052683124652976E8 ; 1.0116229253764588E8 ; 3.3852038633164577E10 ; 0.0
178 ; 544857.5943206946 ; 2.0052791047068235E8 ; 1.0170623146939254E8 ; 3.4052565464411106E10 ; 0.0
179 ; 544179.4269689274 ; 2.0052898559176672E8 ; 1.0225108906371324E8 ; 3.425309337488179E10 ; 0.0
180 ; 542780.3976495035 ; 2.0053005658600518E8 ; 1.0279526849068217E8 ; 3.445362236047356E10 ; 0.0
181 ; 542339.8788539654 ; 2.005311234297725E8 ; 1.0333804888833167E8 ; 3.465415241705956E10 ; 0.0
182 ; 541963.7105136056 ; 2.005321860995944E8 ; 1.0388038876718563E8 ; 3.4854683540489334E10 ; 0.0
183 ; 542079.6021789178 ; 2.0053324457214597E8 ; 1.0442235247769924E8 ; 3.505521572658893E10 ; 0.0
184 ; 539759.7368558026 ; 2.0053429882425016E8 ; 1.0496443207987815E8 ; 3.525574897116107E10 ; 0.0
185 ; 540039.4159225979 ; 2.0053534883287647E8 ; 1.0550419181673396E8 ; 3.545628326998532E10 ; 0.0
186 ; 539201.4359325735 ; 2.0053639457513958E8 ; 1.0604423123265655E8 ; 3.56568186188182E10 ; 0.0
187 ; 537200.8373783332 ; 2.0053743602829802E8 ; 1.0658343266858913E8 ; 3.585735501339334E10 ; 0.0
188 ; 538351.659246384 ; 2.00538473169753E8 ; 1.0712063350596747E8 ; 3.605789244942164E10 ; 0.0
189 ; 537295.813572554 ; 2.005395059770471E8 ; 1.0765898516521385E8 ; 3.625843092259139E10 ; 0.0
190 ; 536510.2171290512 ; 2.0054053442786333E8 ; 1.0819628097878641E8 ; 3.645897042856844E10 ; 0.0
191 ; 535660.5703448197 ; 2.005415585000239E8 ; 1.0873279119591546E8 ; 3.665951096299631E10 ; 0.0
192 ; 534646.7017978845 ; 2.005425781714892E8 ; 1.0926845176626028E8 ; 3.686005252149633E10 ; 0.0
193 ; 534211.5852200552 ; 2.0054359342035684E8 ; 1.0980309846805817E8 ; 3.7060595099667816E10 ; 0.0
194 ; 532865.8338988587 ; 2.005446042248606E8 ; 1.1033731005327822E8 ; 3.726113869308817E10 ; 0.0
195 ; 532742.6764943146 ; 2.0054561056336966E8 ; 1.1087017588717708E8 ; 3.7461683297313034E10 ; 0.0
196 ; 532807.5020214235 ; 2.0054661241438758E8 ; 1.114029185636714E8 ; 3.76622289078764E10 ; 0.0
197 ; 530851.9825391319 ; 2.0054760975655156E8 ; 1.1193572606569281E8 ; 3.7862775520290794E10 ; 0.0
198 ; 529364.1363256003 ; 2.005486025686316E8 ; 1.1246657804823194E8 ; 3.806332313004735E10 ; 0.0
199 ; 529917.1682717657 ; 2.005495908295296E8 ; 1.1299594218455754E8 ; 3.826387173261598E10 ; 0.0
200 ; 528750.956536783 ; 2.0055057451827896E8 ; 1.135258593528293E8 ; 3.846442132344551E10 ; 0.0
201 ; 529045.2728436408 ; 2.0055155361404347E8 ; 1.1405461030936609E8 ; 3.866497189796379E10 ; 0.0
