CSV File for the City 3 on Day 55
1 - Minute m 
2 - Power Consumed at minute m 
3 - Power Produced at minute m 
4 - Energy Consumed since the beginning of the day 
5 - Energy Produced since the beginning of the day 
6 - Energy Lost since the beginning of the day on lines starting from the city
 
0 ; 2374268.682704386 ; 1.0541942777264807E8 ; 0.0 ; 0.0 ; 0.0
1 ; 2376205.116636905 ; 1.0557221279969072E8 ; 2374268.682704386 ; 1.0541942777264807E8 ; 0.0
2 ; 2378173.305266093 ; 1.0603379332846817E8 ; 4750473.799341291 ; 2.109916405723388E8 ; 0.0
3 ; 2381378.6276592575 ; 1.068041719724201E8 ; 7128647.104607385 ; 3.1702543390080696E8 ; 0.0
4 ; 2385512.420025998 ; 1.0788335109713727E8 ; 9510025.732266642 ; 4.2382960587322706E8 ; 0.0
5 ; 2389914.3060550657 ; 1.0927133279956466E8 ; 1.1895538152292639E7 ; 5.3171295697036433E8 ; 0.0
6 ; 2394219.324518149 ; 1.1096811888897887E8 ; 1.4285452458347704E7 ; 6.409842897699289E8 ; 0.0
7 ; 2402940.7174595636 ; 1.1297371087012899E8 ; 1.6679671782865852E7 ; 7.519524086589078E8 ; 0.0
8 ; 2414407.325460778 ; 1.152881099288969E8 ; 1.9082612500325415E7 ; 8.649261195290368E8 ; 0.0
9 ; 2433021.235886956 ; 1.1791131692079306E8 ; 2.1497019825786192E7 ; 9.802142294579337E8 ; 0.0
10 ; 2457701.104415871 ; 1.20843332362544E8 ; 2.393004106167315E7 ; 1.0981255463787267E9 ; 0.0
11 ; 2497541.8039967543 ; 1.2408415642696592E8 ; 2.638774216608902E7 ; 1.2189688787412708E9 ; 0.0
12 ; 2566843.8152476437 ; 1.276337889412426E8 ; 2.8885283970085774E7 ; 1.3430530351682367E9 ; 0.0
13 ; 2627123.6987428092 ; 1.314922293886475E8 ; 3.1452127785333417E7 ; 1.4706868241094794E9 ; 0.0
14 ; 2634672.9290986047 ; 1.3565947691367024E8 ; 3.4079251484076224E7 ; 1.602179053498127E9 ; 0.0
15 ; 2637485.176020681 ; 1.4013553033042884E8 ; 3.671392441317483E7 ; 1.7378385304117973E9 ; 0.0
16 ; 2639316.035583212 ; 1.4492038813417432E8 ; 3.935140958919551E7 ; 1.8779740607422261E9 ; 0.0
17 ; 2643132.3049228187 ; 1.5001404851562998E8 ; 4.1990725624778725E7 ; 2.0228944488764005E9 ; 0.0
18 ; 2646019.805839619 ; 1.554165093778509E8 ; 4.4633857929701544E7 ; 2.1729084973920302E9 ; 0.0
19 ; 2649278.0481381738 ; 1.6112776835524628E8 ; 4.7279877735541165E7 ; 2.3283250067698812E9 ; 0.0
20 ; 2653255.6472015074 ; 1.6714782283437642E8 ; 4.992915578367934E7 ; 2.4894527751251273E9 ; 0.0
21 ; 2656668.098475884 ; 1.7347666997612014E8 ; 5.2582411430880845E7 ; 2.6566005979595037E9 ; 0.0
22 ; 2660719.320415908 ; 1.8011430673880386E8 ; 5.5239079529356726E7 ; 2.8300772679356236E9 ; 0.0
23 ; 2662207.2125672586 ; 1.8706072990189344E8 ; 5.789979884977263E7 ; 3.0101915746744275E9 ; 0.0
24 ; 2663909.6911429744 ; 1.9431593608986795E8 ; 6.056200606233989E7 ; 3.197252304576321E9 ; 0.0
25 ; 2668073.045933035 ; 2.0056796269410777E8 ; 6.322591575348286E7 ; 3.391568240666189E9 ; 0.0
26 ; 2670603.2226953143 ; 2.0057035393300873E8 ; 6.58939887994159E7 ; 3.592136203360297E9 ; 0.0
27 ; 2674027.3188555734 ; 2.0057287539934206E8 ; 6.856459202211122E7 ; 3.792706557293306E9 ; 0.0
28 ; 2676951.533747013 ; 2.0057552332848838E8 ; 7.123861934096679E7 ; 3.993279432692648E9 ; 0.0
29 ; 2680407.8705426585 ; 2.0057829391196057E8 ; 7.391557087471381E7 ; 4.1938549560211363E9 ; 0.0
30 ; 2682289.5534483963 ; 2.0058118331635228E8 ; 7.659597874525647E7 ; 4.394433249933097E9 ; 0.0
31 ; 2686375.1440381855 ; 2.0058418770085266E8 ; 7.927826829870486E7 ; 4.595014433249449E9 ; 0.0
32 ; 2687194.132049146 ; 2.0058730323326266E8 ; 8.196464344274305E7 ; 4.795598620950301E9 ; 0.0
33 ; 2691342.963102017 ; 2.0059052610448074E8 ; 8.465183757479219E7 ; 4.996185924183564E9 ; 0.0
34 ; 2693653.0110161565 ; 2.005938525414585E8 ; 8.73431805378942E7 ; 5.196776450288045E9 ; 0.0
35 ; 2697466.8627049346 ; 2.005972788186507E8 ; 9.003683354891036E7 ; 5.397370302829503E9 ; 0.0
36 ; 2697919.855588803 ; 2.0060080126800668E8 ; 9.27343004116153E7 ; 5.597967581648153E9 ; 0.0
37 ; 2700679.2827643086 ; 2.0060441628756687E8 ; 9.54322202672041E7 ; 5.79856838291616E9 ; 0.0
38 ; 2702829.074608599 ; 2.0060812034874055E8 ; 9.813289954996842E7 ; 5.999172799203727E9 ; 0.0
39 ; 2704568.1537009845 ; 2.006119100023516E8 ; 1.0083572862457702E8 ; 6.199780919552467E9 ; 0.0
40 ; 2706412.7060160167 ; 2.006157818835433E8 ; 1.03540296778278E8 ; 6.400392829554819E9 ; 0.0
41 ; 2709302.5823115194 ; 2.0061973271563777E8 ; 1.0624670948429401E8 ; 6.601008611438362E9 ; 0.0
42 ; 2710355.933844329 ; 2.0062375931304565E8 ; 1.0895601206660554E8 ; 6.801628344154E9 ; 0.0
43 ; 2712845.315812513 ; 2.0062785858332092E8 ; 1.1166636800044987E8 ; 7.002252103467046E9 ; 0.0
44 ; 2714701.0483377716 ; 2.0063202752845255E8 ; 1.1437921331626238E8 ; 7.202879962050366E9 ; 0.0
45 ; 2716917.429898349 ; 2.0063626324548128E8 ; 1.1709391436460015E8 ; 7.403511989578819E9 ; 0.0
46 ; 2716717.621812798 ; 2.0064056292652467E8 ; 1.198108317944985E8 ; 7.604148252824301E9 ; 0.0
47 ; 2717921.1406257977 ; 2.006449238582883E8 ; 1.225275494163113E8 ; 7.804788815750826E9 ; 0.0
48 ; 2719290.9427141384 ; 2.006493434211352E8 ; 1.252454705569371E8 ; 8.005433739609114E9 ; 0.0
49 ; 2721871.7014615713 ; 2.0065381908778024E8 ; 1.2796476149965124E8 ; 8.206083083030249E9 ; 0.0
50 ; 2721150.749823149 ; 2.006583484216689E8 ; 1.306866332011128E8 ; 8.406736902118029E9 ; 0.0
51 ; 2722009.3755459525 ; 2.0066292907509595E8 ; 1.3340778395093596E8 ; 8.607395250539698E9 ; 0.0
52 ; 2722660.876160568 ; 2.0066755878711224E8 ; 1.361297933264819E8 ; 8.808058179614794E9 ; 0.0
53 ; 2722356.34803968 ; 2.0067223538126346E8 ; 1.3885245420264247E8 ; 9.008725738401905E9 ; 0.0
54 ; 2724759.7527994956 ; 2.0067695676319963E8 ; 1.4157481055068216E8 ; 9.209397973783169E9 ; 0.0
55 ; 2726193.080579721 ; 2.00681720918189E8 ; 1.4429957030348164E8 ; 9.410074930546368E9 ; 0.0
56 ; 2725701.465307633 ; 2.0068652590856588E8 ; 1.4702576338406137E8 ; 9.610756651464556E9 ; 0.0
57 ; 2725137.204275324 ; 2.0069136987113857E8 ; 1.49751464849369E8 ; 9.811443177373121E9 ; 0.0
58 ; 2726946.624595552 ; 2.006962510145789E8 ; 1.524766020536443E8 ; 1.0012134547244259E10 ; 0.0
59 ; 2728035.3503496246 ; 2.0070116761681274E8 ; 1.5520354867823985E8 ; 1.0212830798258839E10 ; 0.0
60 ; 2725808.6715612398 ; 2.007061180224271E8 ; 1.579315840285895E8 ; 1.0413531965875652E10 ; 0.0
61 ; 2728011.682021204 ; 2.007111006401075E8 ; 1.6065739270015073E8 ; 1.0614238083898079E10 ; 0.0
62 ; 2729941.7739740605 ; 2.007161139401165E8 ; 1.6338540438217193E8 ; 1.0814949184538187E10 ; 0.0
63 ; 2728183.210601857 ; 2.007211564518225E8 ; 1.66115346156146E8 ; 1.1015665298478304E10 ; 0.0
64 ; 2729054.798995729 ; 2.007262267612863E8 ; 1.6884352936674786E8 ; 1.1216386454930126E10 ; 0.0
65 ; 2730249.0441615735 ; 2.0073132350891086E8 ; 1.715725841657436E8 ; 1.1417112681691412E10 ; 0.0
66 ; 2729437.896539485 ; 2.0073644538715908E8 ; 1.7430283320990518E8 ; 1.1617844005200323E10 ; 0.0
67 ; 2730533.7652975963 ; 2.0074159113834217E8 ; 1.7703227110644466E8 ; 1.1818580450587482E10 ; 0.0
68 ; 2730037.4851993658 ; 2.0074675955248177E8 ; 1.7976280487174225E8 ; 1.2019322041725824E10 ; 0.0
69 ; 2731145.9866073146 ; 2.007519494652463E8 ; 1.824928423569416E8 ; 1.2220068801278307E10 ; 0.0
70 ; 2730810.012319144 ; 2.0075715975596273E8 ; 1.8522398834354892E8 ; 1.2420820750743553E10 ; 0.0
71 ; 2732366.3169742357 ; 2.0076238934570375E8 ; 1.8795479835586807E8 ; 1.2621577910499516E10 ; 0.0
72 ; 2731502.6797997886 ; 2.0076763719544974E8 ; 1.906871646728423E8 ; 1.2822340299845219E10 ; 0.0
73 ; 2730539.584842848 ; 2.007729023043247E8 ; 1.934186673526421E8 ; 1.3023107937040668E10 ; 0.0
74 ; 2730679.8552065003 ; 2.007781837079048E8 ; 1.9614920693748495E8 ; 1.3223880839344994E10 ; 0.0
75 ; 2731911.171830411 ; 2.0078348047659844E8 ; 1.9887988679269144E8 ; 1.3424659023052898E10 ; 0.0
76 ; 2732546.575818594 ; 2.007887917140956E8 ; 2.0161179796452186E8 ; 1.3625442503529497E10 ; 0.0
77 ; 2733690.619404392 ; 2.007941165558847E8 ; 2.0434434454034045E8 ; 1.3826231295243593E10 ; 0.0
78 ; 2732865.113779204 ; 2.0079945416783515E8 ; 2.0707803515974486E8 ; 1.4027025411799479E10 ; 0.0
79 ; 2731685.597471592 ; 2.0080480374484316E8 ; 2.0981090027352408E8 ; 1.4227824865967314E10 ; 0.0
80 ; 2729852.954484557 ; 2.0081016450953886E8 ; 2.1254258587099567E8 ; 1.4428629669712156E10 ; 0.0
81 ; 2729438.9009586656 ; 2.0081553571105245E8 ; 2.1527243882548022E8 ; 1.4629439834221695E10 ; 0.0
82 ; 2728171.665790219 ; 2.008209166238367E8 ; 2.1800187772643888E8 ; 1.4830255369932747E10 ; 0.0
83 ; 2727596.4128463925 ; 2.0082630654654452E8 ; 2.207300493922291E8 ; 1.5031076286556583E10 ; 0.0
84 ; 2726643.923881767 ; 2.0083170480095822E8 ; 2.234576458050755E8 ; 1.5231902593103128E10 ; 0.0
85 ; 2725625.9318610798 ; 2.0083711073096928E8 ; 2.2618428972895727E8 ; 1.5432734297904087E10 ; 0.0
86 ; 2723941.4317080844 ; 2.0084252370160568E8 ; 2.2890991566081834E8 ; 1.5633571408635056E10 ; 0.0
87 ; 2724011.3398589715 ; 2.0084794309810534E8 ; 2.3163385709252644E8 ; 1.583441393233666E10 ; 0.0
88 ; 2722534.5225309744 ; 2.008533683250332E8 ; 2.343578684323854E8 ; 1.6035261875434765E10 ; 0.0
89 ; 2722535.079004093 ; 2.0085879880543995E8 ; 2.370804029549164E8 ; 1.6236115243759798E10 ; 0.0
90 ; 2720563.385948765 ; 2.00864233980061E8 ; 2.3980293803392047E8 ; 1.6436974042565239E10 ; 0.0
91 ; 2718878.9773802855 ; 2.0086967330655304E8 ; 2.4252350141986924E8 ; 1.66378382765453E10 ; 0.0
92 ; 2717114.3858735664 ; 2.0087511625876707E8 ; 2.4524238039724952E8 ; 1.6838707949851852E10 ; 0.0
93 ; 2717306.3464072505 ; 2.0088056232605603E8 ; 2.4795949478312308E8 ; 1.7039583066110619E10 ; 0.0
94 ; 2717030.6091793776 ; 2.00886011012615E8 ; 2.5067680112953034E8 ; 1.7240463628436676E10 ; 0.0
95 ; 2715628.4194344077 ; 2.0089146183685276E8 ; 2.5339383173870972E8 ; 1.744134963944929E10 ; 0.0
96 ; 2713716.21462688 ; 2.0089691433079353E8 ; 2.5610946015814412E8 ; 1.7642241101286144E10 ; 0.0
97 ; 2714075.14945796 ; 2.0090236803950626E8 ; 2.58823176372771E8 ; 1.784313801561694E10 ; 0.0
98 ; 2712208.5422648634 ; 2.009078225205616E8 ; 2.6153725152222896E8 ; 1.8044040383656445E10 ; 0.0
99 ; 2711298.2414486944 ; 2.0091327734351406E8 ; 2.642494600644938E8 ; 1.8244948206177006E10 ; 0.0
100 ; 2710371.954201069 ; 2.009187320894086E8 ; 2.669607583059425E8 ; 1.844586148352052E10 ; 0.0
101 ; 2706711.46385468 ; 2.009241863503105E8 ; 2.696711302601436E8 ; 1.864678021560993E10 ; 0.0
102 ; 2706435.307473939 ; 2.009296397288571E8 ; 2.7237784172399825E8 ; 1.884770440196024E10 ; 0.0
103 ; 2704129.9631180223 ; 2.0093509183783057E8 ; 2.750842770314722E8 ; 1.90486340416891E10 ; 0.0
104 ; 2703035.610688363 ; 2.0094054229975057E8 ; 2.777884069945902E8 ; 1.9249569133526928E10 ; 0.0
105 ; 2702083.638573805 ; 2.0094599074648565E8 ; 2.804914426052786E8 ; 1.945050967582668E10 ; 0.0
106 ; 2701463.3066858016 ; 2.0095143681888303E8 ; 2.8319352624385244E8 ; 1.9651455666573166E10 ; 0.0
107 ; 2699331.3888607426 ; 2.0095688016641492E8 ; 2.8589498955053824E8 ; 1.9852407103392048E10 ; 0.0
108 ; 2699194.4510834753 ; 2.0096232044684154E8 ; 2.88594320939399E8 ; 2.0053363983558464E10 ; 0.0
109 ; 2696050.809419905 ; 2.009677573258894E8 ; 2.912935153904825E8 ; 2.0254326304005306E10 ; 0.0
110 ; 2695604.183139803 ; 2.0097319047694436E8 ; 2.939895661999024E8 ; 2.0455294061331196E10 ; 0.0
111 ; 2693106.760974374 ; 2.009786195807583E8 ; 2.966851703830422E8 ; 2.065626725180814E10 ; 0.0
112 ; 2690933.385018566 ; 2.0098404432516965E8 ; 2.9937827714401656E8 ; 2.0857245871388897E10 ; 0.0
113 ; 2689272.9396035145 ; 2.0098946440483612E8 ; 3.0206921052903515E8 ; 2.1058229915714066E10 ; 0.0
114 ; 2687926.4523236956 ; 2.0099487952097946E8 ; 3.0475848346863866E8 ; 2.12592193801189E10 ; 0.0
115 ; 2686039.6988862697 ; 2.010002893811419E8 ; 3.0744640992096233E8 ; 2.146021425963988E10 ; 0.0
116 ; 2683613.5698904837 ; 2.0100569369895315E8 ; 3.101324496198486E8 ; 2.1661214549021023E10 ; 0.0
117 ; 2683586.5847577527 ; 2.0101109219390798E8 ; 3.128160631897391E8 ; 2.1862220242719975E10 ; 0.0
118 ; 2681084.045715198 ; 2.010164845911535E8 ; 3.1549964977449685E8 ; 2.2063231334913883E10 ; 0.0
119 ; 2679861.0553304213 ; 2.010218706212859E8 ; 3.1818073382021207E8 ; 2.2264247819505035E10 ; 0.0
120 ; 2676363.291079482 ; 2.0102725002015588E8 ; 3.2086059487554246E8 ; 2.246526969012632E10 ; 0.0
121 ; 2674496.168556726 ; 2.0103262252868295E8 ; 3.235369581666219E8 ; 2.2666296940146477E10 ; 0.0
122 ; 2671983.9732815786 ; 2.0103798789267752E8 ; 3.262114543351787E8 ; 2.286732956267516E10 ; 0.0
123 ; 2671295.8009077604 ; 2.0104334586267066E8 ; 3.2888343830846024E8 ; 2.3068367550567837E10 ; 0.0
124 ; 2668080.7743255864 ; 2.010486961937515E8 ; 3.3155473410936797E8 ; 2.3269410896430508E10 ; 0.0
125 ; 2667459.459037031 ; 2.0105403864541122E8 ; 3.342228148836936E8 ; 2.347045959262426E10 ; 0.0
126 ; 2665466.2005661186 ; 2.0105937298139393E8 ; 3.368902743427306E8 ; 2.3671513631269672E10 ; 0.0
127 ; 2664354.4144392353 ; 2.0106469896955398E8 ; 3.395557405432967E8 ; 2.387257300425107E10 ; 0.0
128 ; 2660826.709308554 ; 2.0107001638171896E8 ; 3.4222009495773596E8 ; 2.4073637703220623E10 ; 0.0
129 ; 2659004.6176187177 ; 2.0107532499355888E8 ; 3.448809216670445E8 ; 2.427470771960234E10 ; 0.0
130 ; 2656825.7287999596 ; 2.010806245844606E8 ; 3.4753992628466326E8 ; 2.44757830445959E10 ; 0.0
131 ; 2654338.9706348837 ; 2.0108591493740746E8 ; 3.501967520134632E8 ; 2.4676863669180363E10 ; 0.0
132 ; 2651084.579127806 ; 2.0109119583886418E8 ; 3.528510909840981E8 ; 2.487794958411777E10 ; 0.0
133 ; 2648507.9440525463 ; 2.0109646707866627E8 ; 3.5550217556322587E8 ; 2.5079040779956635E10 ; 0.0
134 ; 2645106.9053103896 ; 2.0110172844991407E8 ; 3.581506835072784E8 ; 2.52801372470353E10 ; 0.0
135 ; 2643154.44610693 ; 2.0110697974887124E8 ; 3.607957904125888E8 ; 2.5481238975485214E10 ; 0.0
136 ; 2639469.1256224457 ; 2.0111222077486718E8 ; 3.634389448586957E8 ; 2.5682345955234085E10 ; 0.0
137 ; 2635571.119776673 ; 2.0111745133020374E8 ; 3.6607841398431814E8 ; 2.5883458176008953E10 ; 0.0
138 ; 2633396.651089113 ; 2.011226712200654E8 ; 3.687139851040948E8 ; 2.6084575627339157E10 ; 0.0
139 ; 2630985.1999694076 ; 2.011278802524332E8 ; 3.7134738175518394E8 ; 2.6285698298559223E10 ; 0.0
140 ; 2627423.5959990094 ; 2.011330782380022E8 ; 3.7397836695515335E8 ; 2.6486826178811657E10 ; 0.0
141 ; 2623345.763047449 ; 2.0113826499010214E8 ; 3.7660579055115235E8 ; 2.668795925704966E10 ; 0.0
142 ; 2620213.3470602026 ; 2.011434403246212E8 ; 3.792291363141998E8 ; 2.688909752203976E10 ; 0.0
143 ; 2617110.5062534716 ; 2.0114860405993298E8 ; 3.8184934966126E8 ; 2.709024096236438E10 ; 0.0
144 ; 2614065.8871633545 ; 2.0115375601682618E8 ; 3.844664601675135E8 ; 2.7291389566424313E10 ; 0.0
145 ; 2611209.9315178776 ; 2.0115889601843715E8 ; 3.8708052605467683E8 ; 2.749254332244114E10 ; 0.0
146 ; 2611641.660304249 ; 2.01164023890185E8 ; 3.8969173598619473E8 ; 2.7693702218459576E10 ; 0.0
147 ; 2608476.090666088 ; 2.0116913945970935E8 ; 3.92303377646499E8 ; 2.7894866242349762E10 ; 0.0
148 ; 2605885.7309785644 ; 2.0117424255681032E8 ; 3.949118537371651E8 ; 2.809603538180947E10 ; 0.0
149 ; 2603804.526696772 ; 2.0117933301339114E8 ; 3.9751773946814364E8 ; 2.829720962436628E10 ; 0.0
150 ; 2600816.2054844755 ; 2.0118441066340253E8 ; 4.0012154399484044E8 ; 2.849838895737967E10 ; 0.0
151 ; 2599080.112796295 ; 2.0118947534278962E8 ; 4.027223602003249E8 ; 2.869957336804307E10 ; 0.0
152 ; 2599011.6442080387 ; 2.0119452688944077E8 ; 4.053214403131212E8 ; 2.890076284338586E10 ; 0.0
153 ; 2595067.264978039 ; 2.011995651431382E8 ; 4.079204519573292E8 ; 2.9101957370275303E10 ; 0.0
154 ; 2592888.8367646947 ; 2.0120458994551066E8 ; 4.1051551922230726E8 ; 2.930315693541844E10 ; 0.0
155 ; 2590256.85684481 ; 2.0120960113998777E8 ; 4.1310840805907196E8 ; 2.9504361525363953E10 ; 0.0
156 ; 2587822.8998891297 ; 2.012145985717562E8 ; 4.1569866491591674E8 ; 2.970557112650394E10 ; 0.0
157 ; 2585950.6000108626 ; 2.0121958208771744E8 ; 4.1828648781580585E8 ; 2.9906785725075695E10 ; 0.0
158 ; 2583858.0487577803 ; 2.0122455153644702E8 ; 4.208724384158167E8 ; 3.0108005307163414E10 ; 0.0
159 ; 2580984.934044736 ; 2.012295067681555E8 ; 4.234562964645745E8 ; 3.030922985869986E10 ; 0.0
160 ; 2578125.265157982 ; 2.0123444763465056E8 ; 4.2603728139861923E8 ; 3.0510459365468014E10 ; 0.0
161 ; 2576444.5083380546 ; 2.0123937398930097E8 ; 4.2861540666377723E8 ; 3.0711693813102665E10 ; 0.0
162 ; 2572375.771687415 ; 2.012442856870014E8 ; 4.3119185117211527E8 ; 3.0912933187091965E10 ; 0.0
163 ; 2570230.347502818 ; 2.0124918258413878E8 ; 4.3376422694380265E8 ; 3.1114177472778965E10 ; 0.0
164 ; 2567425.7564363386 ; 2.0125406453855985E8 ; 4.363344572913055E8 ; 3.1315426655363102E10 ; 0.0
165 ; 2566776.037601165 ; 2.0125893140953988E8 ; 4.3890188304774183E8 ; 3.151668071990166E10 ; 0.0
166 ; 2564867.6088346136 ; 2.0126378305775252E8 ; 4.41468659085343E8 ; 3.17179396513112E10 ; 0.0
167 ; 2561334.923661374 ; 2.0126861934524077E8 ; 4.440335266941776E8 ; 3.191920343436895E10 ; 0.0
168 ; 2559246.911199278 ; 2.012734401353889E8 ; 4.46594861617839E8 ; 3.212047205371419E10 ; 0.0
169 ; 2556473.8307167445 ; 2.012782452928956E8 ; 4.4915410852903825E8 ; 3.232174549384958E10 ; 0.0
170 ; 2554612.2286303835 ; 2.0128303468374768E8 ; 4.51710582359755E8 ; 3.2523023739142475E10 ; 0.0
171 ; 2551144.801007249 ; 2.012878081751953E8 ; 4.5426519458838534E8 ; 3.272430677382622E10 ; 0.0
172 ; 2549832.3409478427 ; 2.0129256563572752E8 ; 4.568163393893926E8 ; 3.2925594582001415E10 ; 0.0
173 ; 2547014.8133711964 ; 2.01297306935049E8 ; 4.593661717303405E8 ; 3.3126887147637142E10 ; 0.0
174 ; 2544032.101709313 ; 2.0130203194405758E8 ; 4.6191318654371166E8 ; 3.332818445457219E10 ; 0.0
175 ; 2544718.559050047 ; 2.013067405348224E8 ; 4.6445721864542097E8 ; 3.3529486486516247E10 ; 0.0
176 ; 2542456.598968416 ; 2.0131143258056307E8 ; 4.67001937204471E8 ; 3.3730793227051067E10 ; 0.0
177 ; 2540318.11055562 ; 2.0131610795562932E8 ; 4.695443938034394E8 ; 3.393210465963163E10 ; 0.0
178 ; 2540167.442029995 ; 2.0132076653548163E8 ; 4.72084711913995E8 ; 3.4133420767587257E10 ; 0.0
179 ; 2537090.4839321957 ; 2.0132540819667226E8 ; 4.7462487935602504E8 ; 3.4334741534122738E10 ; 0.0
180 ; 2535272.4463001015 ; 2.0133003281682715E8 ; 4.7716196983995724E8 ; 3.453606694231941E10 ; 0.0
181 ; 2533425.4718328724 ; 2.013346402746283E8 ; 4.796972422862573E8 ; 3.473739697513624E10 ; 0.0
182 ; 2535242.280645772 ; 2.0133923044979694E8 ; 4.822306677580902E8 ; 3.4938731615410866E10 ; 0.0
183 ; 2533364.2442001 ; 2.013438032230771E8 ; 4.84765910038736E8 ; 3.5140070845860664E10 ; 0.0
184 ; 2530934.7762005515 ; 2.0134835847621977E8 ; 4.872992742829361E8 ; 3.534141464908374E10 ; 0.0
185 ; 2528259.8124591014 ; 2.0135289609196782E8 ; 4.898302090591366E8 ; 3.554276300755996E10 ; 0.0
186 ; 2527475.121479733 ; 2.013574159540411E8 ; 4.9235846887159574E8 ; 3.5744115903651924E10 ; 0.0
187 ; 2526528.3224785817 ; 2.0136191794712234E8 ; 4.948859439930755E8 ; 3.5945473319605965E10 ; 0.0
188 ; 2524165.9722336363 ; 2.0136640195684338E8 ; 4.974124723155541E8 ; 3.6146835237553085E10 ; 0.0
189 ; 2522414.8365926957 ; 2.0137086786977193E8 ; 4.9993663828778774E8 ; 3.6348201639509926E10 ; 0.0
190 ; 2521205.5199301355 ; 2.013753155733987E8 ; 5.024590531243804E8 ; 3.65495725073797E10 ; 0.0
191 ; 2518921.187045533 ; 2.0137974495612517E8 ; 5.0498025864431053E8 ; 3.67509478229531E10 ; 0.0
192 ; 2518536.912719253 ; 2.0138415590725142E8 ; 5.0749917983135605E8 ; 3.6952327567909225E10 ; 0.0
193 ; 2517811.5842800085 ; 2.0138854831696486E8 ; 5.100177167440753E8 ; 3.7153711723816475E10 ; 0.0
194 ; 2516118.386444325 ; 2.013929220763288E8 ; 5.125355283283553E8 ; 3.735510027213344E10 ; 0.0
195 ; 2515188.5834662146 ; 2.0139727707727194E8 ; 5.1505164671479964E8 ; 3.755649319420977E10 ; 0.0
196 ; 2511507.6338338787 ; 2.0140161321257767E8 ; 5.175668352982659E8 ; 3.775789047128704E10 ; 0.0
197 ; 2510145.296864406 ; 2.0140593037587428E8 ; 5.2007834293209976E8 ; 3.795929208449962E10 ; 0.0
198 ; 2510594.0099845636 ; 2.0141022846162507E8 ; 5.2258848822896415E8 ; 3.8160698014875496E10 ; 0.0
199 ; 2508690.2371786307 ; 2.0141450736511907E8 ; 5.250990822389487E8 ; 3.836210824333712E10 ; 0.0
200 ; 2508013.3560745246 ; 2.014187669824618E8 ; 5.276077724761273E8 ; 3.856352275070224E10 ; 0.0
