CSV File for the City 4 on Day 113
1 - Minute m 
2 - Power Consumed at minute m 
3 - Power Produced at minute m 
4 - Energy Consumed since the beginning of the day 
5 - Energy Produced since the beginning of the day 
6 - Energy Lost since the beginning of the day on lines starting from the city
 
0 ; 6886411.328655084 ; 1.0625551798574385E8 ; 0.0 ; 0.0 ; 0.0
1 ; 6893160.299363764 ; 1.064060876969369E8 ; 6886411.328655084 ; 1.0625551798574385E8 ; 0.0
2 ; 6899413.1630086675 ; 1.0686568251092073E8 ; 1.3779571628018849E7 ; 2.1266160568268076E8 ; 0.0
3 ; 6908992.743902083 ; 1.076343062563566E8 ; 2.0678984791027516E7 ; 3.195272881936015E8 ; 0.0
4 ; 6918531.181387451 ; 1.0871196236115599E8 ; 2.75879775349296E7 ; 4.271615944499581E8 ; 0.0
5 ; 6929379.421600462 ; 1.1009865383459026E8 ; 3.450650871631705E7 ; 5.358735568111141E8 ; 0.0
6 ; 6947911.141104521 ; 1.1179438325130346E8 ; 4.143588813791751E7 ; 6.459722106457043E8 ; 0.0
7 ; 6971712.463491022 ; 1.1379915273742414E8 ; 4.838379927902203E7 ; 7.577665938970077E8 ; 0.0
8 ; 7007625.457299769 ; 1.1611296395894915E8 ; 5.535551174251305E7 ; 8.715657466344318E8 ; 0.0
9 ; 7057559.993097699 ; 1.187358181125493E8 ; 6.236313719981282E7 ; 9.876787105933809E8 ; 0.0
10 ; 7132611.738966888 ; 1.2166771591891384E8 ; 6.942069719291052E7 ; 1.1064145287059302E9 ; 0.0
11 ; 7259289.481944448 ; 1.2490865761872217E8 ; 7.65533089318774E7 ; 1.228082244624844E9 ; 0.0
12 ; 7453827.056388699 ; 1.2845864297129485E8 ; 8.381259841382185E7 ; 1.3529909022435663E9 ; 0.0
13 ; 7648236.973389964 ; 1.3231767125594264E8 ; 9.126642547021055E7 ; 1.4814495452148612E9 ; 0.0
14 ; 7668415.0480725 ; 1.3648574127599484E8 ; 9.891466244360052E7 ; 1.6137672164708037E9 ; 0.0
15 ; 7681481.107114529 ; 1.4096285136545444E8 ; 1.0658307749167302E8 ; 1.7502529577467985E9 ; 0.0
16 ; 7688326.705068676 ; 1.4574899939819303E8 ; 1.1426455859878755E8 ; 1.891215809112253E9 ; 0.0
17 ; 7699581.089959964 ; 1.5084418279956648E8 ; 1.2195288530385622E8 ; 2.036964808510446E9 ; 0.0
18 ; 7705606.6574480515 ; 1.5624839856030345E8 ; 1.2965246639381619E8 ; 2.1878089913100123E9 ; 0.0
19 ; 7717148.8716769535 ; 1.6196164325249246E8 ; 1.3735807305126423E8 ; 2.3440573898703156E9 ; 0.0
20 ; 7723312.947421518 ; 1.679839130474722E8 ; 1.4507522192294118E8 ; 2.506019033122808E9 ; 0.0
21 ; 7734475.941196007 ; 1.7431520373541144E8 ; 1.527985348703627E8 ; 2.67400294617028E9 ; 0.0
22 ; 7742768.293318125 ; 1.809555107463507E8 ; 1.605330108115587E8 ; 2.8483181499056916E9 ; 0.0
23 ; 7752061.679291858 ; 1.8790482917247188E8 ; 1.6827577910487682E8 ; 3.0292736606520424E9 ; 0.0
24 ; 7764716.940960026 ; 1.951631537913531E8 ; 1.7602784078416866E8 ; 3.2171784898245144E9 ; 0.0
25 ; 7772293.703093135 ; 2.0141851998815545E8 ; 1.8379255772512868E8 ; 3.4123416436158676E9 ; 0.0
26 ; 7781820.74980621 ; 2.014244698170315E8 ; 1.9156485142822182E8 ; 3.613760163604023E9 ; 0.0
27 ; 7789756.914740889 ; 2.0143076655082387E8 ; 1.9934667217802805E8 ; 3.8151846334210544E9 ; 0.0
28 ; 7800144.129840968 ; 2.014374039526978E8 ; 2.0713642909276894E8 ; 4.016615399971878E9 ; 0.0
29 ; 7805080.7887802 ; 2.0144437559410718E8 ; 2.149365732226099E8 ; 4.218052803924576E9 ; 0.0
30 ; 7814116.3689767 ; 2.014516748791878E8 ; 2.2274165401139012E8 ; 4.419497179518683E9 ; 0.0
31 ; 7825103.772175094 ; 2.014592950686524E8 ; 2.3055577038036683E8 ; 4.620948854397871E9 ; 0.0
32 ; 7835349.903769687 ; 2.0146722930303562E8 ; 2.3838087415254194E8 ; 4.822408149466523E9 ; 0.0
33 ; 7844965.419883857 ; 2.0147547062515536E8 ; 2.462162240563116E8 ; 5.023875378769559E9 ; 0.0
34 ; 7850025.953738594 ; 2.0148401200167802E8 ; 2.5406118947619545E8 ; 5.225350849394714E9 ; 0.0
35 ; 7856665.0765301 ; 2.0149284634369308E8 ; 2.6191121542993405E8 ; 5.426834861396393E9 ; 0.0
36 ; 7865087.954516579 ; 2.0150196652622223E8 ; 2.697678805064642E8 ; 5.628327707740086E9 ; 0.0
37 ; 7871713.073327618 ; 2.015113654066058E8 ; 2.776329684609808E8 ; 5.829829674266308E9 ; 0.0
38 ; 7877964.162564966 ; 2.0152103584172636E8 ; 2.855046815343084E8 ; 6.031341039672914E9 ; 0.0
39 ; 7886662.574779132 ; 2.0153097070404458E8 ; 2.9338264569687337E8 ; 6.23286207551464E9 ; 0.0
40 ; 7896127.948424267 ; 2.015411628964375E8 ; 3.012693082716525E8 ; 6.434393046218684E9 ; 0.0
41 ; 7897040.898793837 ; 2.0155160536584175E8 ; 3.091654362200768E8 ; 6.635934209115122E9 ; 0.0
42 ; 7907917.425431752 ; 2.0156229111571494E8 ; 3.170624771188706E8 ; 6.837485814480964E9 ; 0.0
43 ; 7911119.402595226 ; 2.0157321321733975E8 ; 3.2497039454430234E8 ; 7.039048105596679E9 ; 0.0
44 ; 7915766.459656054 ; 2.0158436482000226E8 ; 3.3288151394689757E8 ; 7.240621318814018E9 ; 0.0
45 ; 7921938.3768163975 ; 2.0159573916008326E8 ; 3.407972804065536E8 ; 7.442205683634021E9 ; 0.0
46 ; 7926905.553951738 ; 2.01607329569108E8 ; 3.4871921878337E8 ; 7.643801422794104E9 ; 0.0
47 ; 7931687.877590126 ; 2.0161912948080227E8 ; 3.5664612433732176E8 ; 7.845408752363212E9 ; 0.0
48 ; 7932388.878485898 ; 2.0163113243720758E8 ; 3.645778122149119E8 ; 8.047027881844014E9 ; 0.0
49 ; 7937176.568400172 ; 2.0164333209390995E8 ; 3.725102010933978E8 ; 8.248659014281221E9 ; 0.0
50 ; 7938937.608599754 ; 2.0165572222443777E8 ; 3.8044737766179794E8 ; 8.450302346375132E9 ; 0.0
51 ; 7944571.60333116 ; 2.0166829672388488E8 ; 3.883863152703977E8 ; 8.65195806859957E9 ; 0.0
52 ; 7947330.956056191 ; 2.016810496118154E8 ; 3.963308868737289E8 ; 8.853626365323454E9 ; 0.0
53 ; 7947090.353945058 ; 2.016939750345051E8 ; 4.0427821782978505E8 ; 9.055307414935268E9 ; 0.0
54 ; 7950660.885458689 ; 2.017070672665737E8 ; 4.122253081837301E8 ; 9.257001389969774E9 ; 0.0
55 ; 7956611.582804452 ; 2.017203207120604E8 ; 4.2017596906918883E8 ; 9.458708457236347E9 ; 0.0
56 ; 7956590.438249247 ; 2.0173372990499297E8 ; 4.281325806519933E8 ; 9.660428777948408E9 ; 0.0
57 ; 7962705.074460876 ; 2.0174728950949883E8 ; 4.360891710902425E8 ; 9.862162507853401E9 ; 0.0
58 ; 7960775.7340241745 ; 2.0176099431950387E8 ; 4.4405187616470337E8 ; 1.00639097973629E10 ; 0.0
59 ; 7964273.313797316 ; 2.0177483925806227E8 ; 4.5201265189872754E8 ; 1.0265670791682404E10 ; 0.0
60 ; 7966296.358147444 ; 2.0178881937635806E8 ; 4.5997692521252483E8 ; 1.0467445630940466E10 ; 0.0
61 ; 7969559.551891166 ; 2.0180292985241666E8 ; 4.679432215706723E8 ; 1.0669234450316824E10 ; 0.0
62 ; 7970505.659580436 ; 2.0181716598956192E8 ; 4.759127811225634E8 ; 1.087103738016924E10 ; 0.0
63 ; 7972106.500671931 ; 2.018315232146515E8 ; 4.8388328678214383E8 ; 1.1072854546158802E10 ; 0.0
64 ; 7978749.076645485 ; 2.0184599707612103E8 ; 4.9185539328281575E8 ; 1.1274686069373453E10 ; 0.0
65 ; 7976388.302128834 ; 2.0186058324186522E8 ; 4.9983414235946125E8 ; 1.1476532066449574E10 ; 0.0
66 ; 7982284.513723159 ; 2.018752774969814E8 ; 5.078105306615901E8 ; 1.1678392649691439E10 ; 0.0
67 ; 7980058.885816298 ; 2.0189007574139932E8 ; 5.1579281517531323E8 ; 1.188026792718842E10 ; 0.0
68 ; 7982611.333793669 ; 2.0190497398741776E8 ; 5.237728740611295E8 ; 1.208215800292982E10 ; 0.0
69 ; 7985246.766542283 ; 2.0191996835716826E8 ; 5.3175548539492315E8 ; 1.2284062976917236E10 ; 0.0
70 ; 7985699.500434508 ; 2.0193505508002263E8 ; 5.397407321614654E8 ; 1.2485982945274405E10 ; 0.0
71 ; 7986789.77860556 ; 2.0195023048996052E8 ; 5.477264316618999E8 ; 1.2687918000354427E10 ; 0.0
72 ; 7989746.075112426 ; 2.0196549102291048E8 ; 5.557132214405055E8 ; 1.2889868230844387E10 ; 0.0
73 ; 7990864.71379321 ; 2.0198083321407765E8 ; 5.63702967515618E8 ; 1.3091833721867298E10 ; 0.0
74 ; 7993152.436381757 ; 2.019962536952689E8 ; 5.716938322294111E8 ; 1.3293814555081375E10 ; 0.0
75 ; 7995730.374089035 ; 2.0201174919222513E8 ; 5.79686984665793E8 ; 1.3495810808776644E10 ; 0.0
76 ; 7995297.512241166 ; 2.020273165219698E8 ; 5.87682715039882E8 ; 1.3697822557968868E10 ; 0.0
77 ; 7998174.680538139 ; 2.0204295259018067E8 ; 5.956780125521231E8 ; 1.3899849874490837E10 ; 0.0
78 ; 7999486.795772865 ; 2.020586543885919E8 ; 6.036761872326612E8 ; 1.4101892827081018E10 ; 0.0
79 ; 7995129.24475486 ; 2.020744189924315E8 ; 6.116756740284342E8 ; 1.430395148146961E10 ; 0.0
80 ; 7995534.215526882 ; 2.0209024355789968E8 ; 6.196708032731891E8 ; 1.4506025900462042E10 ; 0.0
81 ; 7992549.727617052 ; 2.021061253196916E8 ; 6.27666337488716E8 ; 1.4708116144019941E10 ; 0.0
82 ; 7990921.854678449 ; 2.0212206158856803E8 ; 6.35658887216333E8 ; 1.4910222269339632E10 ; 0.0
83 ; 7990764.421029803 ; 2.0213804974897698E8 ; 6.436498090710114E8 ; 1.51123443309282E10 ; 0.0
84 ; 7989399.317443277 ; 2.021540872567284E8 ; 6.516405734920412E8 ; 1.5314482380677177E10 ; 0.0
85 ; 7986471.315863401 ; 2.0217017163672364E8 ; 6.596299728094845E8 ; 1.5516636467933907E10 ; 0.0
86 ; 7987158.028676639 ; 2.0218630048074102E8 ; 6.676164441253479E8 ; 1.5718806639570631E10 ; 0.0
87 ; 7984295.506298812 ; 2.0220247144527858E8 ; 6.756036021540245E8 ; 1.5920992940051373E10 ; 0.0
88 ; 7983285.188321192 ; 2.022186822494548E8 ; 6.835878976603233E8 ; 1.612319541149665E10 ; 0.0
89 ; 7980914.639098362 ; 2.0223493067296678E8 ; 6.915711828486445E8 ; 1.6325414093746105E10 ; 0.0
90 ; 7978487.28022832 ; 2.022512145541072E8 ; 6.995520974877429E8 ; 1.6527649024419071E10 ; 0.0
91 ; 7976176.30436426 ; 2.0226753178783873E8 ; 7.075305847679713E8 ; 1.6729900238973179E10 ; 0.0
92 ; 7974417.2240367085 ; 2.0228388032392618E8 ; 7.155067610723355E8 ; 1.6932167770761017E10 ; 0.0
93 ; 7974248.282247127 ; 2.0230025816512555E8 ; 7.234811782963722E8 ; 1.7134451651084944E10 ; 0.0
94 ; 7971634.252990861 ; 2.0231666336542928E8 ; 7.314554265786194E8 ; 1.733675190925007E10 ; 0.0
95 ; 7971194.467745742 ; 2.0233309402836725E8 ; 7.394270608316102E8 ; 1.7539068572615498E10 ; 0.0
96 ; 7968796.670539251 ; 2.0234954830536184E8 ; 7.47398255299356E8 ; 1.7741401666643864E10 ; 0.0
97 ; 7965857.604273656 ; 2.0236602439413685E8 ; 7.553670519698952E8 ; 1.7943751214949226E10 ; 0.0
98 ; 7963102.571183973 ; 2.0238252053717855E8 ; 7.633329095741689E8 ; 1.8146117239343365E10 ; 0.0
99 ; 7960286.706817643 ; 2.023990350202481E8 ; 7.712960121453528E8 ; 1.8348499759880543E10 ; 0.0
100 ; 7957139.687784037 ; 2.0241556617094374E8 ; 7.792562988521705E8 ; 1.855089879490079E10 ; 0.0
101 ; 7955505.776462913 ; 2.0243211235731217E8 ; 7.872134385399545E8 ; 1.8753314361071735E10 ; 0.0
102 ; 7953163.524239409 ; 2.0244867198650688E8 ; 7.951689443164175E8 ; 1.8955746473429047E10 ; 0.0
103 ; 7948262.131973052 ; 2.0246524350349313E8 ; 8.031221078406569E8 ; 1.9158195145415554E10 ; 0.0
104 ; 7945502.139508059 ; 2.024818253897975E8 ; 8.110703699726299E8 ; 1.936066038891905E10 ; 0.0
105 ; 7944501.937547162 ; 2.0249841616230133E8 ; 8.190158721121379E8 ; 1.9563142214308846E10 ; 0.0
106 ; 7942354.137243984 ; 2.0251501437207624E8 ; 8.269603740496851E8 ; 1.9765640630471146E10 ; 0.0
107 ; 7939461.329832407 ; 2.0253161860326076E8 ; 8.349027281869291E8 ; 1.9968155644843224E10 ; 0.0
108 ; 7936185.874588235 ; 2.0254822747197658E8 ; 8.428421895167615E8 ; 2.0170687263446484E10 ; 0.0
109 ; 7930136.459461295 ; 2.025648396252835E8 ; 8.507783753913498E8 ; 2.037323549091846E10 ; 0.0
110 ; 7929338.410002915 ; 2.025814537401714E8 ; 8.587085118508111E8 ; 2.0575800330543743E10 ; 0.0
111 ; 7926603.809056912 ; 2.025980685225881E8 ; 8.666378502608141E8 ; 2.0778381784283913E10 ; 0.0
112 ; 7925559.54842108 ; 2.0261468270650232E8 ; 8.74564454069871E8 ; 2.09809798528065E10 ; 0.0
113 ; 7919011.848304631 ; 2.0263129505300006E8 ; 8.82490013618292E8 ; 2.1183594535513E10 ; 0.0
114 ; 7914179.287376091 ; 2.0264790434941334E8 ; 8.904090254665966E8 ; 2.1386225830566E10 ; 0.0
115 ; 7915723.479097513 ; 2.0266450940848053E8 ; 8.983232047539726E8 ; 2.1588873734915417E10 ; 0.0
116 ; 7907673.313266085 ; 2.0268110906753674E8 ; 9.062389282330701E8 ; 2.17915382443239E10 ; 0.0
117 ; 7906277.334769536 ; 2.026977021877334E8 ; 9.141466015463362E8 ; 2.1994219353391434E10 ; 0.0
118 ; 7906476.706303683 ; 2.027142876532861E8 ; 9.220528788811057E8 ; 2.2196917055579166E10 ; 0.0
119 ; 7899569.859352234 ; 2.027308643707494E8 ; 9.299593555874094E8 ; 2.2399631343232452E10 ; 0.0
120 ; 7893876.987859785 ; 2.027474312683179E8 ; 9.378589254467616E8 ; 2.2602362207603203E10 ; 0.0
121 ; 7891550.742859142 ; 2.0276398729515246E8 ; 9.457528024346213E8 ; 2.280510963887152E10 ; 0.0
122 ; 7888199.845280893 ; 2.0278053142073086E8 ; 9.536443531774805E8 ; 2.300787362616667E10 ; 0.0
123 ; 7882660.745652923 ; 2.0279706263422158E8 ; 9.615325530227613E8 ; 2.3210654157587402E10 ; 0.0
124 ; 7881236.597464029 ; 2.028135799438805E8 ; 9.694152137684143E8 ; 2.3413451220221622E10 ; 0.0
125 ; 7874531.754019078 ; 2.0283008237646896E8 ; 9.772964503658783E8 ; 2.3616264800165504E10 ; 0.0
126 ; 7871424.483135775 ; 2.0284656897669294E8 ; 9.851709821198974E8 ; 2.3819094882541973E10 ; 0.0
127 ; 7866571.093552084 ; 2.0286303880666238E8 ; 9.930424066030332E8 ; 2.4021941451518665E10 ; 0.0
128 ; 7863022.458719072 ; 2.0287949094536978E8 ; 1.0009089776965853E9 ; 2.422480449032533E10 ; 0.0
129 ; 7856143.215528848 ; 2.0289592448818764E8 ; 1.0087720001553043E9 ; 2.44276839812707E10 ; 0.0
130 ; 7841372.330425479 ; 2.0291233854638362E8 ; 1.0166281433708332E9 ; 2.4630579905758884E10 ; 0.0
131 ; 7829346.503666871 ; 2.0292873224665338E8 ; 1.0244695157012587E9 ; 2.4833492244305267E10 ; 0.0
132 ; 7809831.280152724 ; 2.0294510473066962E8 ; 1.0322988622049255E9 ; 2.503642097655192E10 ; 0.0
133 ; 7794480.117199307 ; 2.0296145515464762E8 ; 1.0401086934850782E9 ; 2.5239366081282593E10 ; 0.0
134 ; 7776258.450309609 ; 2.029777826889259E8 ; 1.0479031736022775E9 ; 2.544232753643724E10 ; 0.0
135 ; 7761084.244447044 ; 2.0299408651756185E8 ; 1.0556794320525872E9 ; 2.5645305319126167E10 ; 0.0
136 ; 7742246.592038279 ; 2.0301036583794165E8 ; 1.0634405162970341E9 ; 2.584829940564373E10 ; 0.0
137 ; 7727100.98657592 ; 2.0302661986040404E8 ; 1.0711827628890724E9 ; 2.605130977148167E10 ; 0.0
138 ; 7707203.171451345 ; 2.030428478078772E8 ; 1.0789098638756483E9 ; 2.6254336391342075E10 ; 0.0
139 ; 7690626.154560522 ; 2.0305904891552854E8 ; 1.0866170670470996E9 ; 2.6457379239149952E10 ; 0.0
140 ; 7674078.353207417 ; 2.0307522243042657E8 ; 1.0943076932016602E9 ; 2.666043828806548E10 ; 0.0
141 ; 7656364.120584312 ; 2.030913676112149E8 ; 1.1019817715548675E9 ; 2.6863513510495907E10 ; 0.0
142 ; 7639982.961671285 ; 2.0310748372779736E8 ; 1.1096381356754518E9 ; 2.706660487810712E10 ; 0.0
143 ; 7621285.291215097 ; 2.0312357006103414E8 ; 1.117278118637123E9 ; 2.726971236183492E10 ; 0.0
144 ; 7599751.560202025 ; 2.031396259024486E8 ; 1.1248994039283383E9 ; 2.7472835931895954E10 ; 0.0
145 ; 7590386.082769697 ; 2.031556505539441E8 ; 1.1324991554885404E9 ; 2.76759755577984E10 ; 0.0
146 ; 7574387.664522055 ; 2.0317164332753074E8 ; 1.14008954157131E9 ; 2.7879131208352345E10 ; 0.0
147 ; 7560187.20718536 ; 2.031876035450613E8 ; 1.1476639292358322E9 ; 2.8082302851679874E10 ; 0.0
148 ; 7544963.506057617 ; 2.032035305379766E8 ; 1.1552241164430175E9 ; 2.8285490455224937E10 ; 0.0
149 ; 7527720.576732061 ; 2.032194236470593E8 ; 1.162769079949075E9 ; 2.8488693985762913E10 ; 0.0
150 ; 7515439.232310205 ; 2.0323528222219622E8 ; 1.1702968005258071E9 ; 2.8691913409409973E10 ; 0.0
151 ; 7502360.488415365 ; 2.032511056221488E8 ; 1.1778122397581174E9 ; 2.8895148691632168E10 ; 0.0
152 ; 7484827.037537684 ; 2.0326689321433142E8 ; 1.185314600246533E9 ; 2.909839979725432E10 ; 0.0
153 ; 7468828.748274882 ; 2.0328264437459692E8 ; 1.1927994272840705E9 ; 2.930166669046865E10 ; 0.0
154 ; 7456301.373145955 ; 2.032983584870299E8 ; 1.2002682560323453E9 ; 2.9504949334843246E10 ; 0.0
155 ; 7443407.025947326 ; 2.0331403494374654E8 ; 1.2077245574054914E9 ; 2.9708247693330276E10 ; 0.0
156 ; 7425053.774345442 ; 2.0332967314470136E8 ; 1.2151679644314387E9 ; 2.991156172827402E10 ; 0.0
157 ; 7413868.846245091 ; 2.0334527249750054E8 ; 1.222593018205784E9 ; 3.0114891401418724E10 ; 0.0
158 ; 7398453.889235766 ; 2.0336083241722116E8 ; 1.2300068870520291E9 ; 3.0318236673916225E10 ; 0.0
159 ; 7383993.948790367 ; 2.03376352326237E8 ; 1.2374053409412649E9 ; 3.0521597506333447E10 ; 0.0
160 ; 7366662.429815452 ; 2.0339183165404952E8 ; 1.2447893348900552E9 ; 3.0724973858659683E10 ; 0.0
161 ; 7349338.6171204755 ; 2.0340726983712503E8 ; 1.2521559973198707E9 ; 3.0928365690313732E10 ; 0.0
162 ; 7336247.760027761 ; 2.0342266631873682E8 ; 1.2595053359369912E9 ; 3.1131772960150856E10 ; 0.0
163 ; 7322672.8965488 ; 2.0343802054881275E8 ; 1.2668415836970189E9 ; 3.1335195626469593E10 ; 0.0
164 ; 7306371.972788258 ; 2.0345333198378775E8 ; 1.2741642565935676E9 ; 3.1538633647018406E10 ; 0.0
165 ; 7290806.898021588 ; 2.0346860008646116E8 ; 1.281470628566356E9 ; 3.1742086979002193E10 ; 0.0
166 ; 7276422.370651643 ; 2.0348382432585886E8 ; 1.2887614354643776E9 ; 3.1945555579088654E10 ; 0.0
167 ; 7261008.673765057 ; 2.0349900417709967E8 ; 1.2960378578350294E9 ; 3.2149039403414513E10 ; 0.0
168 ; 7245199.531178669 ; 2.0351413912126648E8 ; 1.3032988665087943E9 ; 3.2352538407591614E10 ; 0.0
169 ; 7231375.968309302 ; 2.0352922864528105E8 ; 1.310544066039973E9 ; 3.255605254671288E10 ; 0.0
170 ; 7214486.391103372 ; 2.0354427224178332E8 ; 1.3177754420082824E9 ; 3.2759581775358162E10 ; 0.0
171 ; 7199132.530406931 ; 2.0355926940901446E8 ; 1.3249899283993857E9 ; 3.2963126047599945E10 ; 0.0
172 ; 7183185.302878765 ; 2.0357421965070358E8 ; 1.3321890609297926E9 ; 3.316668531700896E10 ; 0.0
173 ; 7167922.129945056 ; 2.035891224759583E8 ; 1.3393722462326715E9 ; 3.3370259536659664E10 ; 0.0
174 ; 7156842.060231877 ; 2.0360397739915854E8 ; 1.3465401683626165E9 ; 3.3573848659135624E10 ; 0.0
175 ; 7141682.497547752 ; 2.0361878393985406E8 ; 1.3536970104228485E9 ; 3.3777452636534782E10 ; 0.0
176 ; 7131015.478084738 ; 2.036335416226649E8 ; 1.3608386929203963E9 ; 3.3981071420474636E10 ; 0.0
177 ; 7118025.6434511235 ; 2.036482499771854E8 ; 1.3679697083984811E9 ; 3.41847049620973E10 ; 0.0
178 ; 7103752.423641473 ; 2.0366290853789076E8 ; 1.3750877340419323E9 ; 3.4388353212074486E10 ; 0.0
179 ; 7091432.810317667 ; 2.0367751684404704E8 ; 1.3821914864655738E9 ; 3.459201612061237E10 ; 0.0
180 ; 7077787.245806758 ; 2.0369207443962374E8 ; 1.3892829192758915E9 ; 3.479569363745642E10 ; 0.0
181 ; 7063875.73537944 ; 2.0370658087320918E8 ; 1.3963607065216982E9 ; 3.499938571189604E10 ; 0.0
182 ; 7051347.228478018 ; 2.0372103569792846E8 ; 1.4034245822570777E9 ; 3.520309229276925E10 ; 0.0
183 ; 7038212.182319076 ; 2.037354384713643E8 ; 1.4104759294855556E9 ; 3.540681332846718E10 ; 0.0
184 ; 7022957.28075923 ; 2.0374978875547996E8 ; 1.4175141416678748E9 ; 3.5610548766938545E10 ; 0.0
185 ; 7014233.538895531 ; 2.0376408611654475E8 ; 1.4245370989486341E9 ; 3.581429855569402E10 ; 0.0
186 ; 6995325.39861825 ; 2.0377833012506196E8 ; 1.4315513324875298E9 ; 3.601806264181057E10 ; 0.0
187 ; 6984455.29691343 ; 2.0379252035569885E8 ; 1.438546657886148E9 ; 3.622184097193563E10 ; 0.0
188 ; 6970551.402712768 ; 2.0380665638721892E8 ; 1.4455311131830614E9 ; 3.642563349229133E10 ; 0.0
189 ; 6955653.607272592 ; 2.0382073780241615E8 ; 1.4525016645857742E9 ; 3.662944014867855E10 ; 0.0
190 ; 6945892.537804019 ; 2.0383476418805143E8 ; 1.4594573181930468E9 ; 3.6833260886480965E10 ; 0.0
191 ; 6927951.843118909 ; 2.03848735134791E8 ; 1.466403210730851E9 ; 3.7037095650669014E10 ; 0.0
192 ; 6920552.188491979 ; 2.0386265023714632E8 ; 1.4733311625739698E9 ; 3.72409443858038E10 ; 0.0
193 ; 6905139.762281929 ; 2.038765090934165E8 ; 1.480251714762462E9 ; 3.744480703604095E10 ; 0.0
194 ; 6890918.989263369 ; 2.038903113056319E8 ; 1.4871568545247438E9 ; 3.764868354513436E10 ; 0.0
195 ; 6878797.45267554 ; 2.039040564794997E8 ; 1.494047773514007E9 ; 3.7852573856439995E10 ; 0.0
196 ; 6866409.277239778 ; 2.0391774422435114E8 ; 1.5009265709666827E9 ; 3.8056477912919495E10 ; 0.0
197 ; 6851558.30877659 ; 2.0393137415309027E8 ; 1.5077929802439225E9 ; 3.8260395657143845E10 ; 0.0
198 ; 6841936.929613731 ; 2.0394494588214436E8 ; 1.514644538552699E9 ; 3.8464327031296936E10 ; 0.0
199 ; 6826963.854707215 ; 2.0395845903141573E8 ; 1.521486475482313E9 ; 3.866827197717908E10 ; 0.0
200 ; 6812698.424172866 ; 1.7344160633692208E8 ; 1.5283134393370202E9 ; 3.8872230436210495E10 ; 0.0
201 ; 6798054.827648048 ; 1.551453148684605E8 ; 1.535126137761193E9 ; 3.904567204254742E10 ; 0.0
