CSV File for the City 6 on Day 15
1 - Minute m 
2 - Power Consumed at minute m 
3 - Power Produced at minute m 
4 - Energy Consumed since the beginning of the day 
5 - Energy Produced since the beginning of the day 
6 - Energy Lost since the beginning of the day on lines starting from the city
 
0 ; 8671585.09716376 ; 1.0291061764113383E7 ; 0.0 ; 0.0 ; 0.0
1 ; 8677427.083177572 ; 1.0291061764113383E7 ; 8671585.09716376 ; 1.0291061764113383E7 ; 0.0
2 ; 8683493.743060187 ; 1.0291061764113383E7 ; 1.7349012180341333E7 ; 2.0582123528226767E7 ; 0.0
3 ; 8698111.035476007 ; 1.0291061764113383E7 ; 2.603250592340152E7 ; 3.0873185292340152E7 ; 0.0
4 ; 8709393.675016744 ; 1.0291061764113383E7 ; 3.4730616958877526E7 ; 4.116424705645353E7 ; 0.0
5 ; 8726515.58241569 ; 1.0291061764113383E7 ; 4.344001063389427E7 ; 5.1455308820566915E7 ; 0.0
6 ; 8746677.870548688 ; 1.0291061764113383E7 ; 5.2166526216309965E7 ; 6.17463705846803E7 ; 0.0
7 ; 8775165.583609888 ; 1.0291061764113383E7 ; 6.091320408685865E7 ; 7.203743234879369E7 ; 0.0
8 ; 8818505.946024856 ; 1.0291061764113383E7 ; 6.968836967046854E7 ; 8.232849411290707E7 ; 0.0
9 ; 8880577.586672027 ; 1.0291061764113383E7 ; 7.850687561649339E7 ; 9.261955587702045E7 ; 0.0
10 ; 8978479.639655147 ; 1.0291061764113383E7 ; 8.738745320316541E7 ; 1.0291061764113383E8 ; 0.0
11 ; 9137584.022745 ; 1.0291061764113383E7 ; 9.636593284282055E7 ; 1.1320167940524721E8 ; 0.0
12 ; 9386126.342673857 ; 1.0291061764113383E7 ; 1.0550351686556555E8 ; 1.234927411693606E8 ; 0.0
13 ; 9618960.185721934 ; 1.0291061764113383E7 ; 1.148896432082394E8 ; 1.3378380293347397E8 ; 0.0
14 ; 9647020.913419703 ; 1.0291061764113383E7 ; 1.2450860339396134E8 ; 1.4407486469758737E8 ; 0.0
15 ; 9660575.483335739 ; 1.0291061764113383E7 ; 1.3415562430738105E8 ; 1.5436592646170077E8 ; 0.0
16 ; 9668025.20807631 ; 1.0291061764113383E7 ; 1.438161997907168E8 ; 1.6465698822581416E8 ; 0.0
17 ; 9682180.574957376 ; 1.0291061764113383E7 ; 1.534842249987931E8 ; 1.7494804998992756E8 ; 0.0
18 ; 9691196.714668995 ; 1.0291061764113383E7 ; 1.6316640557375047E8 ; 1.8523911175404096E8 ; 0.0
19 ; 9703674.792540006 ; 1.0291061764113383E7 ; 1.7285760228841946E8 ; 1.9553017351815435E8 ; 0.0
20 ; 9716576.788128112 ; 1.0291061764113383E7 ; 1.8256127708095947E8 ; 2.0582123528226775E8 ; 0.0
21 ; 9727628.436467862 ; 1.0291061764113383E7 ; 1.9227785386908758E8 ; 2.1611229704638115E8 ; 0.0
22 ; 9739734.97011264 ; 1.0291061764113383E7 ; 2.0200548230555543E8 ; 2.2640335881049454E8 ; 0.0
23 ; 9748920.34560873 ; 1.0291061764113383E7 ; 2.1174521727566808E8 ; 2.3669442057460794E8 ; 0.0
24 ; 9760484.958720386 ; 1.0291061764113383E7 ; 2.2149413762127683E8 ; 2.4698548233872133E8 ; 0.0
25 ; 9772970.513476808 ; 1.0291061764113383E7 ; 2.312546225799972E8 ; 2.5727654410283473E8 ; 0.0
26 ; 9788230.16768323 ; 1.0291061764113383E7 ; 2.4102759309347403E8 ; 2.6756760586694813E8 ; 0.0
27 ; 9792570.528226707 ; 1.0291061764113383E7 ; 2.5081582326115727E8 ; 2.778586676310615E8 ; 0.0
28 ; 9806430.058431916 ; 1.0291061764113383E7 ; 2.6060839378938398E8 ; 2.8814972939517486E8 ; 0.0
29 ; 9814344.795510646 ; 1.0291061764113383E7 ; 2.704148238478159E8 ; 2.984407911592882E8 ; 0.0
30 ; 9826180.34434249 ; 1.0291061764113383E7 ; 2.802291686433265E8 ; 3.087318529234016E8 ; 0.0
31 ; 9838468.687772203 ; 1.0291061764113383E7 ; 2.90055348987669E8 ; 3.1902291468751496E8 ; 0.0
32 ; 9847925.291371062 ; 1.0291061764113383E7 ; 2.998938176754412E8 ; 3.293139764516283E8 ; 0.0
33 ; 9858123.926907789 ; 1.0291061764113383E7 ; 3.0974174296681225E8 ; 3.396050382157417E8 ; 0.0
34 ; 9865143.836497325 ; 1.0291061764113383E7 ; 3.1959986689372003E8 ; 3.4989609997985506E8 ; 0.0
35 ; 9878568.787984157 ; 1.0291061764113383E7 ; 3.2946501073021734E8 ; 3.601871617439684E8 ; 0.0
36 ; 9884372.567457918 ; 1.0291061764113383E7 ; 3.393435795182015E8 ; 3.704782235080818E8 ; 0.0
37 ; 9891616.796732636 ; 1.0291061764113383E7 ; 3.492279520856594E8 ; 3.8076928527219516E8 ; 0.0
38 ; 9903921.087466208 ; 1.0291061764113383E7 ; 3.5911956888239205E8 ; 3.910603470363085E8 ; 0.0
39 ; 9912122.541972086 ; 1.0291061764113383E7 ; 3.690234899698582E8 ; 4.013514088004219E8 ; 0.0
40 ; 9919767.167640613 ; 1.0291061764113383E7 ; 3.7893561251183033E8 ; 4.1164247056453526E8 ; 0.0
41 ; 9926608.44587981 ; 1.0291061764113383E7 ; 3.8885537967947096E8 ; 4.219335323286486E8 ; 0.0
42 ; 9935168.520519776 ; 1.0291061764113383E7 ; 3.987819881253508E8 ; 4.32224594092762E8 ; 0.0
43 ; 9938202.190737769 ; 1.0291061764113383E7 ; 4.0871715664587057E8 ; 4.4251565585687536E8 ; 0.0
44 ; 9942983.243049711 ; 1.0291061764113383E7 ; 4.1865535883660835E8 ; 4.528067176209887E8 ; 0.0
45 ; 9951817.84274762 ; 1.0291061764113383E7 ; 4.2859834207965803E8 ; 4.630977793851021E8 ; 0.0
46 ; 9955507.782659953 ; 1.0291061764113383E7 ; 4.3855015992240566E8 ; 4.7338884114921546E8 ; 0.0
47 ; 9961186.261796443 ; 1.0291061764113383E7 ; 4.485056677050656E8 ; 4.836799029133288E8 ; 0.0
48 ; 9961858.369067747 ; 1.0291061764113383E7 ; 4.58466853966862E8 ; 4.939709646774422E8 ; 0.0
49 ; 9968046.620232925 ; 1.0291061764113383E7 ; 4.6842871233592975E8 ; 5.0426202644155556E8 ; 0.0
50 ; 9970513.300864002 ; 1.0291061764113383E7 ; 4.783967589561627E8 ; 5.145530882056689E8 ; 0.0
51 ; 9972051.239022596 ; 1.0291061764113383E7 ; 4.883672722570267E8 ; 5.248441499697823E8 ; 0.0
52 ; 9974628.125941694 ; 1.0291061764113383E7 ; 4.983393234960493E8 ; 5.3513521173389566E8 ; 0.0
53 ; 9978292.206948603 ; 1.0291061764113383E7 ; 5.08313951621991E8 ; 5.454262734980091E8 ; 0.0
54 ; 9979625.9639028 ; 1.0291061764113383E7 ; 5.1829224382893956E8 ; 5.557173352621225E8 ; 0.0
55 ; 9987170.536473747 ; 1.0291061764113383E7 ; 5.282718697928423E8 ; 5.660083970262359E8 ; 0.0
56 ; 9987146.754456116 ; 1.0291061764113383E7 ; 5.38259040329316E8 ; 5.762994587903494E8 ; 0.0
57 ; 9989092.089000518 ; 1.0291061764113383E7 ; 5.482461870837722E8 ; 5.865905205544628E8 ; 0.0
58 ; 9990789.268788388 ; 1.0291061764113383E7 ; 5.582352791727726E8 ; 5.968815823185762E8 ; 0.0
59 ; 9994302.399552958 ; 1.0291061764113383E7 ; 5.68226068441561E8 ; 6.071726440826896E8 ; 0.0
60 ; 9995447.157166371 ; 1.0291061764113383E7 ; 5.782203708411139E8 ; 6.174637058468031E8 ; 0.0
61 ; 9996548.997348413 ; 1.0291061764113383E7 ; 5.882158179982803E8 ; 6.277547676109165E8 ; 0.0
62 ; 9998392.675437963 ; 1.0291061764113383E7 ; 5.982123669956287E8 ; 6.380458293750299E8 ; 0.0
63 ; 9999634.878530983 ; 1.0291061764113383E7 ; 6.082107596710666E8 ; 6.483368911391433E8 ; 0.0
64 ; 1.0000055076998152E7 ; 1.0291061764113383E7 ; 6.182103945495976E8 ; 6.586279529032568E8 ; 0.0
65 ; 1.0003516508141669E7 ; 1.0291061764113383E7 ; 6.282104496265957E8 ; 6.689190146673702E8 ; 0.0
66 ; 1.0005466032107925E7 ; 1.0291061764113383E7 ; 6.382139661347374E8 ; 6.792100764314836E8 ; 0.0
67 ; 1.0009064099178182E7 ; 1.0291061764113383E7 ; 6.482194321668453E8 ; 6.89501138195597E8 ; 0.0
68 ; 1.0007211730995774E7 ; 1.0291061764113383E7 ; 6.582284962660235E8 ; 6.997921999597105E8 ; 0.0
69 ; 1.001021557165559E7 ; 1.0291061764113383E7 ; 6.682357079970193E8 ; 7.100832617238239E8 ; 0.0
70 ; 1.0011121983354611E7 ; 1.0291061764113383E7 ; 6.782459235686749E8 ; 7.203743234879373E8 ; 0.0
71 ; 1.0012477293212337E7 ; 1.0291061764113383E7 ; 6.882570455520295E8 ; 7.306653852520508E8 ; 0.0
72 ; 1.0010361012051046E7 ; 1.0291061764113383E7 ; 6.982695228452418E8 ; 7.409564470161642E8 ; 0.0
73 ; 1.0010346023997694E7 ; 1.0291061764113383E7 ; 7.082798838572929E8 ; 7.512475087802776E8 ; 0.0
74 ; 1.0013804237832949E7 ; 1.0291061764113383E7 ; 7.182902298812906E8 ; 7.61538570544391E8 ; 0.0
75 ; 1.0010085794889797E7 ; 1.0291061764113383E7 ; 7.283040341191235E8 ; 7.718296323085045E8 ; 0.0
76 ; 1.0013271934252005E7 ; 1.0291061764113383E7 ; 7.383141199140133E8 ; 7.821206940726179E8 ; 0.0
77 ; 1.0012480465777641E7 ; 1.0291061764113383E7 ; 7.483273918482653E8 ; 7.924117558367313E8 ; 0.0
78 ; 1.0010182167991625E7 ; 1.0291061764113383E7 ; 7.583398723140429E8 ; 8.027028176008447E8 ; 0.0
79 ; 1.0006280568584075E7 ; 1.0291061764113383E7 ; 7.683500544820346E8 ; 8.129938793649582E8 ; 0.0
80 ; 1.0005465269054275E7 ; 1.0291061764113383E7 ; 7.783563350506186E8 ; 8.232849411290716E8 ; 0.0
81 ; 1.0002572813916996E7 ; 1.0291061764113383E7 ; 7.88361800319673E8 ; 8.33576002893185E8 ; 0.0
82 ; 9994519.244989287 ; 1.0291061764113383E7 ; 7.9836437313359E8 ; 8.438670646572984E8 ; 0.0
83 ; 9994099.746203536 ; 1.0291061764113383E7 ; 8.083588923785793E8 ; 8.541581264214119E8 ; 0.0
84 ; 9990990.699764976 ; 1.0291061764113383E7 ; 8.183529921247828E8 ; 8.644491881855253E8 ; 0.0
85 ; 9991079.123658905 ; 1.0291061764113383E7 ; 8.283439828245478E8 ; 8.747402499496387E8 ; 0.0
86 ; 9986138.720756998 ; 1.0291061764113383E7 ; 8.383350619482067E8 ; 8.850313117137522E8 ; 0.0
87 ; 9980968.952159379 ; 1.0291061764113383E7 ; 8.483212006689637E8 ; 8.953223734778656E8 ; 0.0
88 ; 9976064.663711905 ; 1.0291061764113383E7 ; 8.583021696211231E8 ; 9.05613435241979E8 ; 0.0
89 ; 9973490.751323383 ; 1.0291061764113383E7 ; 8.68278234284835E8 ; 9.159044970060924E8 ; 0.0
90 ; 9969780.402871722 ; 1.0291061764113383E7 ; 8.782517250361583E8 ; 9.261955587702059E8 ; 0.0
91 ; 9964775.71057207 ; 1.0291061764113383E7 ; 8.8822150543903E8 ; 9.364866205343193E8 ; 0.0
92 ; 9962919.230859822 ; 1.0291061764113383E7 ; 8.981862811496022E8 ; 9.467776822984327E8 ; 0.0
93 ; 9956142.348507829 ; 1.0291061764113383E7 ; 9.08149200380462E8 ; 9.570687440625461E8 ; 0.0
94 ; 9953973.647455845 ; 1.0291061764113383E7 ; 9.181053427289699E8 ; 9.673598058266596E8 ; 0.0
95 ; 9946545.76299218 ; 1.0291061764113383E7 ; 9.280593163764257E8 ; 9.77650867590773E8 ; 0.0
96 ; 9944477.327415776 ; 1.0291061764113383E7 ; 9.380058621394179E8 ; 9.879419293548864E8 ; 0.0
97 ; 9939227.337708753 ; 1.0291061764113383E7 ; 9.479503394668337E8 ; 9.982329911189998E8 ; 0.0
98 ; 9934447.950387694 ; 1.0291061764113383E7 ; 9.578895668045424E8 ; 1.0085240528831133E9 ; 0.0
99 ; 9931776.481623732 ; 1.0291061764113383E7 ; 9.678240147549301E8 ; 1.0188151146472267E9 ; 0.0
100 ; 9925598.236160146 ; 1.0291061764113383E7 ; 9.777557912365539E8 ; 1.0291061764113401E9 ; 0.0
101 ; 9919244.74851664 ; 1.0291061764113383E7 ; 9.876813894727141E8 ; 1.0393972381754535E9 ; 0.0
102 ; 9914308.70877072 ; 1.0291061764113383E7 ; 9.976006342212307E8 ; 1.049688299939567E9 ; 0.0
103 ; 9908325.507965283 ; 1.0291061764113383E7 ; 1.0075149429300015E9 ; 1.0599793617036804E9 ; 0.0
104 ; 9904332.833274264 ; 1.0291061764113383E7 ; 1.0174232684379668E9 ; 1.0702704234677938E9 ; 0.0
105 ; 9903951.071328655 ; 1.0291061764113383E7 ; 1.0273276012712411E9 ; 1.0805614852319071E9 ; 0.0
106 ; 9893112.769870322 ; 1.0291061764113383E7 ; 1.0372315523425697E9 ; 1.0908525469960206E9 ; 0.0
107 ; 9887861.193661941 ; 1.0291061764113383E7 ; 1.04712466511244E9 ; 1.101143608760134E9 ; 0.0
108 ; 9882291.47409565 ; 1.0291061764113383E7 ; 1.0570125263061019E9 ; 1.1114346705242474E9 ; 0.0
109 ; 9874980.43529938 ; 1.0291061764113383E7 ; 1.0668948177801976E9 ; 1.1217257322883608E9 ; 0.0
110 ; 9870168.56830212 ; 1.0291061764113383E7 ; 1.076769798215497E9 ; 1.1320167940524743E9 ; 0.0
111 ; 9865890.678470142 ; 1.0291061764113383E7 ; 1.0866399667837992E9 ; 1.1423078558165877E9 ; 0.0
112 ; 9857453.7410149 ; 1.0291061764113383E7 ; 1.0965058574622693E9 ; 1.152598917580701E9 ; 0.0
113 ; 9852045.087191984 ; 1.0291061764113383E7 ; 1.1063633112032843E9 ; 1.1628899793448145E9 ; 0.0
114 ; 9846380.587721972 ; 1.0291061764113383E7 ; 1.1162153562904763E9 ; 1.173181041108928E9 ; 0.0
115 ; 9839478.701215602 ; 1.0291061764113383E7 ; 1.1260617368781984E9 ; 1.1834721028730414E9 ; 0.0
116 ; 9833361.603397943 ; 1.0291061764113383E7 ; 1.135901215579414E9 ; 1.1937631646371548E9 ; 0.0
117 ; 9825972.625438018 ; 1.0291061764113383E7 ; 1.1457345771828117E9 ; 1.2040542264012682E9 ; 0.0
118 ; 9819538.120966014 ; 1.0291061764113383E7 ; 1.1555605498082497E9 ; 1.2143452881653817E9 ; 0.0
119 ; 9811519.94695118 ; 1.0291061764113383E7 ; 1.1653800879292157E9 ; 1.224636349929495E9 ; 0.0
120 ; 9804468.305607488 ; 1.0291061764113383E7 ; 1.1751916078761668E9 ; 1.2349274116936085E9 ; 0.0
121 ; 9798532.587094106 ; 1.0291061764113383E7 ; 1.1849960761817744E9 ; 1.245218473457722E9 ; 0.0
122 ; 9790117.981825681 ; 1.0291061764113383E7 ; 1.1947946087688684E9 ; 1.2555095352218354E9 ; 0.0
123 ; 9783440.566386499 ; 1.0291061764113383E7 ; 1.204584726750694E9 ; 1.2658005969859488E9 ; 0.0
124 ; 9776680.451806957 ; 1.0291061764113383E7 ; 1.2143681673170805E9 ; 1.2760916587500622E9 ; 0.0
125 ; 9769157.02214751 ; 1.0291061764113383E7 ; 1.2241448477688875E9 ; 1.2863827205141757E9 ; 0.0
126 ; 9761068.500814276 ; 1.0291061764113383E7 ; 1.233914004791035E9 ; 1.296673782278289E9 ; 0.0
127 ; 9752702.714259923 ; 1.0291061764113383E7 ; 1.2436750732918491E9 ; 1.3069648440424025E9 ; 0.0
128 ; 9746383.047263788 ; 1.0291061764113383E7 ; 1.253427776006109E9 ; 1.317255905806516E9 ; 0.0
129 ; 9735856.625460742 ; 1.0291061764113383E7 ; 1.2631741590533729E9 ; 1.3275469675706294E9 ; 0.0
130 ; 9728970.182204098 ; 1.0291061764113383E7 ; 1.2729100156788335E9 ; 1.3378380293347428E9 ; 0.0
131 ; 9718187.87049334 ; 1.0291061764113383E7 ; 1.2826389858610375E9 ; 1.3481290910988562E9 ; 0.0
132 ; 9706284.888155887 ; 1.0291061764113383E7 ; 1.292357173731531E9 ; 1.3584201528629696E9 ; 0.0
133 ; 9696674.881138375 ; 1.0291061764113383E7 ; 1.3020634586196868E9 ; 1.368711214627083E9 ; 0.0
134 ; 9686994.181592258 ; 1.0291061764113383E7 ; 1.3117601335008252E9 ; 1.3790022763911965E9 ; 0.0
135 ; 9673152.513187777 ; 1.0291061764113383E7 ; 1.3214471276824174E9 ; 1.38929333815531E9 ; 0.0
136 ; 9663331.524369571 ; 1.0291061764113383E7 ; 1.3311202801956053E9 ; 1.3995843999194233E9 ; 0.0
137 ; 9650605.17748562 ; 1.0291061764113383E7 ; 1.3407836117199748E9 ; 1.4098754616835368E9 ; 0.0
138 ; 9639319.535634553 ; 1.0291061764113383E7 ; 1.3504342168974605E9 ; 1.4201665234476502E9 ; 0.0
139 ; 9627959.388664728 ; 1.0291061764113383E7 ; 1.360073536433095E9 ; 1.4304575852117636E9 ; 0.0
140 ; 9618434.651006676 ; 1.0291061764113383E7 ; 1.3697014958217597E9 ; 1.440748646975877E9 ; 0.0
141 ; 9604429.365158547 ; 1.0291061764113383E7 ; 1.3793199304727664E9 ; 1.4510397087399905E9 ; 0.0
142 ; 9592712.026131155 ; 1.0291061764113383E7 ; 1.388924359837925E9 ; 1.461330770504104E9 ; 0.0
143 ; 9581405.707553282 ; 1.0291061764113383E7 ; 1.398517071864056E9 ; 1.4716218322682173E9 ; 0.0
144 ; 9570625.90391859 ; 1.0291061764113383E7 ; 1.4080984775716095E9 ; 1.4819128940323308E9 ; 0.0
145 ; 9559107.694229532 ; 1.0291061764113383E7 ; 1.417669103475528E9 ; 1.4922039557964442E9 ; 0.0
146 ; 9554935.34812288 ; 1.0291061764113383E7 ; 1.4272282111697576E9 ; 1.5024950175605576E9 ; 0.0
147 ; 9542088.250539262 ; 1.0291061764113383E7 ; 1.4367831465178804E9 ; 1.512786079324671E9 ; 0.0
148 ; 9535049.748342458 ; 1.0291061764113383E7 ; 1.4463252347684197E9 ; 1.5230771410887845E9 ; 0.0
149 ; 9524735.333453026 ; 1.0291061764113383E7 ; 1.4558602845167623E9 ; 1.533368202852898E9 ; 0.0
150 ; 9517007.575681368 ; 1.0291061764113383E7 ; 1.4653850198502152E9 ; 1.5436592646170113E9 ; 0.0
151 ; 9512313.667297985 ; 1.0291061764113383E7 ; 1.4749020274258966E9 ; 1.5539503263811247E9 ; 0.0
152 ; 9501630.731967002 ; 1.0291061764113383E7 ; 1.4844143410931947E9 ; 1.5642413881452382E9 ; 0.0
153 ; 9492633.097520608 ; 1.0291061764113383E7 ; 1.4939159718251617E9 ; 1.5745324499093516E9 ; 0.0
154 ; 9484949.597515931 ; 1.0291061764113383E7 ; 1.5034086049226823E9 ; 1.584823511673465E9 ; 0.0
155 ; 9475852.778879302 ; 1.0291061764113383E7 ; 1.512893554520198E9 ; 1.5951145734375784E9 ; 0.0
156 ; 9469124.755074417 ; 1.0291061764113383E7 ; 1.5223694072990775E9 ; 1.6054056352016919E9 ; 0.0
157 ; 9459453.865826214 ; 1.0291061764113383E7 ; 1.531838532054152E9 ; 1.6156966969658053E9 ; 0.0
158 ; 9450027.43734769 ; 1.0291061764113383E7 ; 1.5412979859199781E9 ; 1.6259877587299187E9 ; 0.0
159 ; 9441461.482533397 ; 1.0291061764113383E7 ; 1.5507480133573258E9 ; 1.6362788204940321E9 ; 0.0
160 ; 9434560.776498862 ; 1.0291061764113383E7 ; 1.5601894748398592E9 ; 1.6465698822581456E9 ; 0.0
161 ; 9423352.950245934 ; 1.0291061764113383E7 ; 1.569624035616358E9 ; 1.656860944022259E9 ; 0.0
162 ; 9411915.378348675 ; 1.0291061764113383E7 ; 1.579047388566604E9 ; 1.6671520057863724E9 ; 0.0
163 ; 9403465.21058686 ; 1.0291061764113383E7 ; 1.5884593039449525E9 ; 1.6774430675504858E9 ; 0.0
164 ; 9397524.120527275 ; 1.0291061764113383E7 ; 1.5978627691555393E9 ; 1.6877341293145993E9 ; 0.0
165 ; 9385064.773008738 ; 1.0291061764113383E7 ; 1.6072602932760665E9 ; 1.6980251910787127E9 ; 0.0
166 ; 9378557.379861807 ; 1.0291061764113383E7 ; 1.6166453580490754E9 ; 1.7083162528428261E9 ; 0.0
167 ; 9366865.70000076 ; 1.0291061764113383E7 ; 1.6260239154289372E9 ; 1.7186073146069396E9 ; 0.0
168 ; 9360508.232575588 ; 1.0291061764113383E7 ; 1.635390781128938E9 ; 1.728898376371053E9 ; 0.0
169 ; 9353338.042138867 ; 1.0291061764113383E7 ; 1.6447512893615136E9 ; 1.7391894381351664E9 ; 0.0
170 ; 9339589.79751475 ; 1.0291061764113383E7 ; 1.6541046274036524E9 ; 1.7494804998992798E9 ; 0.0
171 ; 9334327.53063787 ; 1.0291061764113383E7 ; 1.663444217201167E9 ; 1.7597715616633933E9 ; 0.0
172 ; 9323135.11635778 ; 1.0291061764113383E7 ; 1.672778544731805E9 ; 1.7700626234275067E9 ; 0.0
173 ; 9313985.948190495 ; 1.0291061764113383E7 ; 1.682101679848163E9 ; 1.78035368519162E9 ; 0.0
174 ; 9309199.530570399 ; 1.0291061764113383E7 ; 1.6914156657963533E9 ; 1.7906447469557335E9 ; 0.0
175 ; 9303216.940671915 ; 1.0291061764113383E7 ; 1.7007248653269238E9 ; 1.800935808719847E9 ; 0.0
176 ; 9297450.075276302 ; 1.0291061764113383E7 ; 1.7100280822675958E9 ; 1.8112268704839604E9 ; 0.0
177 ; 9289334.727153905 ; 1.0291061764113383E7 ; 1.7193255323428721E9 ; 1.8215179322480738E9 ; 0.0
178 ; 9286166.328945909 ; 1.0291061764113383E7 ; 1.7286148670700262E9 ; 1.8318089940121872E9 ; 0.0
179 ; 9281120.774450965 ; 1.0291061764113383E7 ; 1.737901033398972E9 ; 1.8421000557763007E9 ; 0.0
180 ; 9277750.805703422 ; 1.0291061764113383E7 ; 1.747182154173423E9 ; 1.852391117540414E9 ; 0.0
181 ; 9269617.175585104 ; 1.0291061764113383E7 ; 1.7564599049791265E9 ; 1.8626821793045275E9 ; 0.0
182 ; 9262824.028309211 ; 1.0291061764113383E7 ; 1.7657295221547115E9 ; 1.872973241068641E9 ; 0.0
183 ; 9256487.900856603 ; 1.0291061764113383E7 ; 1.7749923461830206E9 ; 1.8832643028327544E9 ; 0.0
184 ; 9250649.927494287 ; 1.0291061764113383E7 ; 1.784248834083877E9 ; 1.8935553645968678E9 ; 0.0
185 ; 9246353.52479568 ; 1.0291061764113383E7 ; 1.7934994840113714E9 ; 1.9038464263609812E9 ; 0.0
186 ; 9241038.568236789 ; 1.0291061764113383E7 ; 1.8027458375361671E9 ; 1.9141374881250947E9 ; 0.0
187 ; 9237876.904832894 ; 1.0291061764113383E7 ; 1.811986876104404E9 ; 1.924428549889208E9 ; 0.0
188 ; 9229619.022302933 ; 1.0291061764113383E7 ; 1.8212247530092368E9 ; 1.9347196116533215E9 ; 0.0
189 ; 9220338.79569977 ; 1.0291061764113383E7 ; 1.8304543720315397E9 ; 1.945010673417435E9 ; 0.0
190 ; 9220207.886135276 ; 1.0291061764113383E7 ; 1.8396747108272395E9 ; 1.9553017351815484E9 ; 0.0
191 ; 9214792.696820427 ; 1.0291061764113383E7 ; 1.8488949187133749E9 ; 1.9655927969456618E9 ; 0.0
192 ; 9208378.576169433 ; 1.0291061764113383E7 ; 1.8581097114101954E9 ; 1.9758838587097752E9 ; 0.0
193 ; 9198965.739403158 ; 1.0291061764113383E7 ; 1.8673180899863648E9 ; 1.9861749204738886E9 ; 0.0
194 ; 9198040.717203988 ; 1.0291061764113383E7 ; 1.876517055725768E9 ; 1.996465982238002E9 ; 0.0
195 ; 9191183.635104625 ; 1.0291061764113383E7 ; 1.8857150964429722E9 ; 2.0067570440021155E9 ; 0.0
196 ; 9184716.400094882 ; 1.0291061764113383E7 ; 1.8949062800780768E9 ; 2.017048105766229E9 ; 0.0
197 ; 9180005.181918373 ; 1.0291061764113383E7 ; 1.9040909964781718E9 ; 2.0273391675303423E9 ; 0.0
198 ; 9174488.495759286 ; 1.0291061764113383E7 ; 1.9132710016600902E9 ; 2.0376302292944558E9 ; 0.0
199 ; 9169904.403897192 ; 1.0291061764113383E7 ; 1.9224454901558495E9 ; 2.0479212910585692E9 ; 0.0
200 ; 9164949.136513215 ; 1.0291061764113383E7 ; 1.9316153945597467E9 ; 2.0582123528226826E9 ; 0.0
201 ; 9159184.141049862 ; 1.0291061764113383E7 ; 1.94078034369626E9 ; 2.068503414586796E9 ; 0.0
