CSV File for the City 1 on Day 323
1 - Minute m 
2 - Power Consumed at minute m 
3 - Power Produced at minute m 
4 - Energy Consumed since the beginning of the day 
5 - Energy Produced since the beginning of the day 
6 - Energy Lost since the beginning of the day on lines starting from the city
 
0 ; 1.617545447574539E7 ; 1.0576567256987265E8 ; 0.0 ; 0.0 ; 0.0
1 ; 1.619529412373565E7 ; 1.0591854796528196E8 ; 1.617545447574539E7 ; 1.0576567256987265E8 ; 0.0
2 ; 1.620954972812206E7 ; 1.0638021426250091E8 ; 3.237074859948104E7 ; 2.116842205351546E8 ; 0.0
3 ; 1.6234485895729918E7 ; 1.0715067252540076E8 ; 4.85802983276031E7 ; 3.180644347976555E8 ; 0.0
4 ; 1.6257059739028761E7 ; 1.0822992370228052E8 ; 6.4814784223333016E7 ; 4.252151073230563E8 ; 0.0
5 ; 1.6286087168307103E7 ; 1.0961796862237072E8 ; 8.107184396236178E7 ; 5.334450310253368E8 ; 0.0
6 ; 1.632632140922091E7 ; 1.1131480799273786E8 ; 9.735793113066888E7 ; 6.430629996477075E8 ; 0.0
7 ; 1.6376727532497467E7 ; 1.1332044239561659E8 ; 1.1368425253988978E8 ; 7.543778076404454E8 ; 0.0
8 ; 1.6457616367809441E7 ; 1.1563487228619349E8 ; 1.3006098007238725E8 ; 8.67698250036062E8 ; 0.0
9 ; 1.6574516009499121E7 ; 1.1825809799086225E8 ; 1.465185964401967E8 ; 9.833331223222555E8 ; 0.0
10 ; 1.6762870462966857E7 ; 1.2119011970596546E8 ; 1.6309311244969583E8 ; 1.1015912203131177E9 ; 0.0
11 ; 1.7052813187821217E7 ; 1.2443093749703512E8 ; 1.7985598291266268E8 ; 1.2227813400190833E9 ; 0.0
12 ; 1.7511692665518187E7 ; 1.2798055129853919E8 ; 1.969087961004839E8 ; 1.3472122775161183E9 ; 0.0
13 ; 1.7960123813761584E7 ; 1.318389609141351E8 ; 2.144204887660021E8 ; 1.4751928288146574E9 ; 0.0
14 ; 1.8013723014886633E7 ; 1.3600616601742923E8 ; 2.3238061257976368E8 ; 1.6070317897287927E9 ; 0.0
15 ; 1.8030701602911975E7 ; 1.404821661532349E8 ; 2.5039433559465033E8 ; 1.743037955746222E9 ; 0.0
16 ; 1.805238579091069E7 ; 1.4526696073931757E8 ; 2.684250371975623E8 ; 1.883520121899457E9 ; 0.0
17 ; 1.8077498689586494E7 ; 1.5036054906861064E8 ; 2.86477422988473E8 ; 2.0287870826387746E9 ; 0.0
18 ; 1.80997885445294E7 ; 1.5576293031188363E8 ; 3.045549216780595E8 ; 2.179147631707385E9 ; 0.0
19 ; 1.812156186258094E7 ; 1.6147410352083752E8 ; 3.226547102225889E8 ; 2.3349105620192685E9 ; 0.0
20 ; 1.8147950461332507E7 ; 1.67494067631601E8 ; 3.4077627208516985E8 ; 2.496384665540106E9 ; 0.0
21 ; 1.8165409618274722E7 ; 1.7382282146859792E8 ; 3.5892422254650235E8 ; 2.6638787331717067E9 ; 0.0
22 ; 1.818702889521022E7 ; 1.804603637487527E8 ; 3.770896321647771E8 ; 2.8377015546403046E9 ; 0.0
23 ; 1.8209437513004977E7 ; 1.8740669308600032E8 ; 3.952766610599873E8 ; 3.018161918389057E9 ; 0.0
24 ; 1.8232288371247396E7 ; 1.9466180799606347E8 ; 4.1348609857299227E8 ; 3.2055686114750576E9 ; 0.0
25 ; 1.8250682900546715E7 ; 2.0091374779964477E8 ; 4.317183869442397E8 ; 3.400230419471121E9 ; 0.0
26 ; 1.8277370732952774E7 ; 2.009160586645242E8 ; 4.499690698447864E8 ; 3.601144167270766E9 ; 0.0
27 ; 1.8295164414892998E7 ; 2.0091850813581935E8 ; 4.682464405777392E8 ; 3.80206022593529E9 ; 0.0
28 ; 1.8316965795479607E7 ; 2.009210943882334E8 ; 4.8654160499263215E8 ; 4.0029787340711093E9 ; 0.0
29 ; 1.834006168636238E7 ; 2.009238155248569E8 ; 5.0485857078811175E8 ; 4.2038998284593425E9 ; 0.0
30 ; 1.836009562470717E7 ; 2.0092666958277124E8 ; 5.2319863247447413E8 ; 4.4048236439842E9 ; 0.0
31 ; 1.8375248053145897E7 ; 2.0092965453866357E8 ; 5.415587280991813E8 ; 4.605750313566971E9 ; 0.0
32 ; 1.839774708129042E7 ; 2.009327683144223E8 ; 5.599339761523272E8 ; 4.806679968105635E9 ; 0.0
33 ; 1.8419840557087183E7 ; 2.0093600878268227E8 ; 5.783317232336175E8 ; 5.007612736420057E9 ; 0.0
34 ; 1.8438035073342558E7 ; 2.0093937377229172E8 ; 5.967515637907047E8 ; 5.20854874520274E9 ; 0.0
35 ; 1.8453455924710393E7 ; 2.00942861073676E8 ; 6.151895988640473E8 ; 5.409488118975032E9 ; 0.0
36 ; 1.847278706356663E7 ; 2.0094646844407433E8 ; 6.336430547887577E8 ; 5.610430980048708E9 ; 0.0
37 ; 1.8492950714074794E7 ; 2.0095019361262947E8 ; 6.521158418523244E8 ; 5.811377448492783E9 ; 0.0
38 ; 1.850841847089247E7 ; 2.0095403428531218E8 ; 6.706087925663992E8 ; 6.0123276421054125E9 ; 0.0
39 ; 1.8525834374676555E7 ; 2.00957988149665E8 ; 6.891172110372916E8 ; 6.213281676390724E9 ; 0.0
40 ; 1.8541613343346126E7 ; 2.0096205287935233E8 ; 7.076430454119682E8 ; 6.414239664540389E9 ; 0.0
41 ; 1.8555681728656046E7 ; 2.009662261385065E8 ; 7.261846587553144E8 ; 6.615201717419742E9 ; 0.0
42 ; 1.8564039921141848E7 ; 2.0097050558586124E8 ; 7.447403404839704E8 ; 6.8161679435582485E9 ; 0.0
43 ; 1.85834007572682E7 ; 2.0097488887866676E8 ; 7.633043804051123E8 ; 7.01713844914411E9 ; 0.0
44 ; 1.859485876160857E7 ; 2.009793736763822E8 ; 7.818877811623805E8 ; 7.218113338022777E9 ; 0.0
45 ; 1.860622456662337E7 ; 2.0098395764414367E8 ; 8.00482639923989E8 ; 7.419092711699159E9 ; 0.0
46 ; 1.8619174970753398E7 ; 2.0098863845600674E8 ; 8.190888644906124E8 ; 7.620076669343303E9 ; 0.0
47 ; 1.862553586054836E7 ; 2.0099341379796565E8 ; 8.377080394613658E8 ; 7.82106530779931E9 ; 0.0
48 ; 1.8640686756030772E7 ; 2.0099828137075096E8 ; 8.563335753219142E8 ; 8.022058721597276E9 ; 0.0
49 ; 1.8641833055960592E7 ; 2.0100323889240962E8 ; 8.74974262077945E8 ; 8.223057002968027E9 ; 0.0
50 ; 1.865281513771883E7 ; 2.0100828410067287E8 ; 8.936160951339055E8 ; 8.424060241860436E9 ; 0.0
51 ; 1.865783879581189E7 ; 2.0101341475511724E8 ; 9.122689102716243E8 ; 8.62506852596111E9 ; 0.0
52 ; 1.866266532054939E7 ; 2.010186286391256E8 ; 9.309267490674362E8 ; 8.826081940716227E9 ; 0.0
53 ; 1.86743486427448E7 ; 2.0102392356165546E8 ; 9.495894143879856E8 ; 9.027100569355352E9 ; 0.0
54 ; 1.867959818281436E7 ; 2.0102929735882267E8 ; 9.682637630307304E8 ; 9.228124492917007E9 ; 0.0
55 ; 1.868784333556759E7 ; 2.010347478953078E8 ; 9.869433612135447E8 ; 9.42915379027583E9 ; 0.0
56 ; 1.8689756900506508E7 ; 2.0104027306559506E8 ; 1.0056312045491123E9 ; 9.630188538171137E9 ; 0.0
57 ; 1.8700322901984617E7 ; 2.01045870795051E8 ; 1.0243209614496188E9 ; 9.831228811236732E9 ; 0.0
58 ; 1.870615368012831E7 ; 2.0105153904085305E8 ; 1.0430212843516034E9 ; 1.0032274682031784E10 ; 0.0
59 ; 1.8707833224722166E7 ; 2.0105727579277584E8 ; 1.0617274380317317E9 ; 1.0233326221072638E10 ; 0.0
60 ; 1.871592084905745E7 ; 2.0106307907384425E8 ; 1.080435271256454E9 ; 1.0434383496865414E10 ; 0.0
61 ; 1.8721729957142606E7 ; 2.0106894694086224E8 ; 1.0991511921055114E9 ; 1.0635446575939259E10 ; 0.0
62 ; 1.8725881500982355E7 ; 2.0107487748482525E8 ; 1.117872922062654E9 ; 1.0836515522880121E10 ; 0.0
63 ; 1.873074741409464E7 ; 2.0108086883122498E8 ; 1.1365988035636363E9 ; 1.1037590400364946E10 ; 0.0
64 ; 1.873151603961211E7 ; 2.0108691914025438E8 ; 1.155329550977731E9 ; 1.123867126919617E10 ; 0.0
65 ; 1.874193924915366E7 ; 2.0109302660692054E8 ; 1.174061067017343E9 ; 1.1439758188336426E10 ; 0.0
66 ; 1.874425920279848E7 ; 2.0109918946107298E8 ; 1.1928030062664967E9 ; 1.1640851214943346E10 ; 0.0
67 ; 1.8751850452871002E7 ; 2.011054059673545E8 ; 1.211547265469295E9 ; 1.1841950404404419E10 ; 0.0
68 ; 1.875357925237226E7 ; 2.0111167442508128E8 ; 1.230299115922166E9 ; 1.2043055810371773E10 ; 0.0
69 ; 1.8762533688764296E7 ; 2.01117993168059E8 ; 1.2490526951745384E9 ; 1.2244167484796854E10 ; 0.0
70 ; 1.8762686935687695E7 ; 2.011243605643406E8 ; 1.2678152288633027E9 ; 1.2445285477964912E10 ; 0.0
71 ; 1.8768491521607716E7 ; 2.0113077501593205E8 ; 1.2865779157989905E9 ; 1.2646409838529253E10 ; 0.0
72 ; 1.8772758472661726E7 ; 2.0113723495845112E8 ; 1.3053464073205981E9 ; 1.2847540613545185E10 ; 0.0
73 ; 1.8772278010172755E7 ; 2.0114373886074442E8 ; 1.3241191657932599E9 ; 1.3048677848503635E10 ; 0.0
74 ; 1.877669829605014E7 ; 2.0115028522446764E8 ; 1.3428914438034327E9 ; 1.324982158736438E10 ; 0.0
75 ; 1.878235013136556E7 ; 2.0115687258363318E8 ; 1.3616681420994828E9 ; 1.3450971872588848E10 ; 0.0
76 ; 1.8786008133443393E7 ; 2.0116349950412977E8 ; 1.3804504922308483E9 ; 1.3652128745172482E10 ; 0.0
77 ; 1.8785047811203193E7 ; 2.011701645832173E8 ; 1.3992365003642917E9 ; 1.385329224467661E10 ; 0.0
78 ; 1.8786976107278366E7 ; 2.0117686644900104E8 ; 1.418021548175495E9 ; 1.4054462409259829E10 ; 0.0
79 ; 1.878286220158449E7 ; 2.0118360375988832E8 ; 1.4368085242827733E9 ; 1.425563927570883E10 ; 0.0
80 ; 1.8772726053277146E7 ; 2.0119037520403054E8 ; 1.4555913864843578E9 ; 1.4456822879468718E10 ; 0.0
81 ; 1.8778310270066995E7 ; 2.0119717949875367E8 ; 1.474364112537635E9 ; 1.4658013254672749E10 ; 0.0
82 ; 1.8769412062138498E7 ; 2.012040153899796E8 ; 1.493142422807702E9 ; 1.4859210434171503E10 ; 0.0
83 ; 1.876888625237289E7 ; 2.0121088165164047E8 ; 1.5119118348698406E9 ; 1.5060414449561483E10 ; 0.0
84 ; 1.876783822744852E7 ; 2.0121777708508876E8 ; 1.5306807211222136E9 ; 1.5261625331213123E10 ; 0.0
85 ; 1.876271712494127E7 ; 2.012247005185042E8 ; 1.549448559349662E9 ; 1.5462843108298212E10 ; 0.0
86 ; 1.875990827176653E7 ; 2.0123165080630007E8 ; 1.5682112764746034E9 ; 1.5664067808816717E10 ; 0.0
87 ; 1.8754487881435614E7 ; 2.0123862682853E8 ; 1.5869711847463698E9 ; 1.5865299459623016E10 ; 0.0
88 ; 1.8747961694458935E7 ; 2.0124562749029687E8 ; 1.6057256726278055E9 ; 1.6066538086451546E10 ; 0.0
89 ; 1.8746665016126297E7 ; 2.0125265172116476E8 ; 1.6244736343222644E9 ; 1.6267783713941843E10 ; 0.0
90 ; 1.8739798036899053E7 ; 2.01259698474576E8 ; 1.6432202993383908E9 ; 1.6469036365663008E10 ; 0.0
91 ; 1.873512052832453E7 ; 2.01266766727273E8 ; 1.66196009737529E9 ; 1.6670296064137585E10 ; 0.0
92 ; 1.8734412421087444E7 ; 2.0127385547872683E8 ; 1.6806952179036145E9 ; 1.6871562830864857E10 ; 0.0
93 ; 1.8727125706474654E7 ; 2.012809637505732E8 ; 1.699429630324702E9 ; 1.7072836686343584E10 ; 0.0
94 ; 1.871799157564446E7 ; 2.0128809058605558E8 ; 1.7181567560311766E9 ; 1.727411765009416E10 ; 0.0
95 ; 1.8717692779621992E7 ; 2.0129523504947746E8 ; 1.736874747606821E9 ; 1.7475405740680214E10 ; 0.0
96 ; 1.8715549524786867E7 ; 2.0130239622566327E8 ; 1.7555924403864431E9 ; 1.767670097572969E10 ; 0.0
97 ; 1.870970701369126E7 ; 2.0130957321942866E8 ; 1.77430798991123E9 ; 1.7878003371955353E10 ; 0.0
98 ; 1.8703076023372535E7 ; 2.0131676515506062E8 ; 1.7930176969249213E9 ; 1.807931294517478E10 ; 0.0
99 ; 1.8696447111013226E7 ; 2.0132397117580763E8 ; 1.811720772948294E9 ; 1.828062971032984E10 ; 0.0
100 ; 1.868777418624866E7 ; 2.0133119044338E8 ; 1.830417220059307E9 ; 1.848195368150565E10 ; 0.0
101 ; 1.8684508521603547E7 ; 2.0133842213746086E8 ; 1.8491049942455559E9 ; 1.8683284871949028E10 ; 0.0
102 ; 1.8672123759325575E7 ; 2.013456654552276E8 ; 1.8677895027671595E9 ; 1.888462329408649E10 ; 0.0
103 ; 1.866785302337841E7 ; 2.0135291961088404E8 ; 1.886461626526485E9 ; 1.9085968959541718E10 ; 0.0
104 ; 1.866101729173569E7 ; 2.013601838352035E8 ; 1.9051294795498633E9 ; 1.9287321879152603E10 ; 0.0
105 ; 1.8656559267034218E7 ; 2.013674573750824E8 ; 1.923790496841599E9 ; 1.948868206298781E10 ; 0.0
106 ; 1.8648009429207765E7 ; 2.0137473949310485E8 ; 1.9424470561086333E9 ; 1.9690049520362892E10 ; 0.0
107 ; 1.863807284865276E7 ; 2.0138202946711782E8 ; 1.961095065537841E9 ; 1.9891424259855995E10 ; 0.0
108 ; 1.863146347828971E7 ; 2.013893265898171E8 ; 1.979733138386494E9 ; 2.0092806289323112E10 ; 0.0
109 ; 1.8626677355686E7 ; 2.013966301683437E8 ; 1.9983646018647835E9 ; 2.029419561591293E10 ; 0.0
110 ; 1.8619068803376716E7 ; 2.0140393952389082E8 ; 2.0169912792204695E9 ; 2.0495592246081272E10 ; 0.0
111 ; 1.860925608222842E7 ; 2.0141125399132115E8 ; 2.0356103480238461E9 ; 2.0696996185605164E10 ; 0.0
112 ; 1.860540196981251E7 ; 2.0141857291879424E8 ; 2.0542196041060746E9 ; 2.0898407439596485E10 ; 0.0
113 ; 1.859560512424116E7 ; 2.014258956674043E8 ; 2.072825006075887E9 ; 2.1099826012515278E10 ; 0.0
114 ; 1.85869955194168E7 ; 2.014332216108274E8 ; 2.091420611200128E9 ; 2.1301251908182682E10 ; 0.0
115 ; 1.857995909177776E7 ; 2.0144055013497874E8 ; 2.110007606719545E9 ; 2.150268512979351E10 ; 0.0
116 ; 1.856802496273706E7 ; 2.0144788063767946E8 ; 2.1285875658113227E9 ; 2.170412567992849E10 ; 0.0
117 ; 1.8560963027416416E7 ; 2.0145521252833268E8 ; 2.1471555907740598E9 ; 2.190557356056617E10 ; 0.0
118 ; 1.855259884580841E7 ; 2.0146254522760868E8 ; 2.165716553801476E9 ; 2.21070287730945E10 ; 0.0
119 ; 1.8540753442847215E7 ; 2.0146987816713926E8 ; 2.1842691526472845E9 ; 2.230849131832211E10 ; 0.0
120 ; 1.853549835111924E7 ; 2.0147721078922078E8 ; 2.2028099060901318E9 ; 2.250996119648925E10 ; 0.0
121 ; 1.8524858907544874E7 ; 2.014845425465257E8 ; 2.221345404441251E9 ; 2.271143840727847E10 ; 0.0
122 ; 1.8510061819347683E7 ; 2.0149187290182254E8 ; 2.239870263348796E9 ; 2.2912922949824993E10 ; 0.0
123 ; 1.8507286888070174E7 ; 2.014992013277043E8 ; 2.2583803251681437E9 ; 2.3114414822726814E10 ; 0.0
124 ; 1.849552326239292E7 ; 2.0150652730632436E8 ; 2.276887612056214E9 ; 2.331591402405452E10 ; 0.0
125 ; 1.848415468238253E7 ; 2.0151385032914054E8 ; 2.295383135318607E9 ; 2.3517420551360844E10 ; 0.0
126 ; 1.847580551325616E7 ; 2.0152116989666665E8 ; 2.3138672900009894E9 ; 2.3718934401689983E10 ; 0.0
127 ; 1.846644927262461E7 ; 2.015284855182313E8 ; 2.3323430955142455E9 ; 2.392045557158665E10 ; 0.0
128 ; 1.845444821912327E7 ; 2.0153579671174413E8 ; 2.35080954478687E9 ; 2.412198405710488E10 ; 0.0
129 ; 1.8444931771232326E7 ; 2.0154310300346875E8 ; 2.3692639930059934E9 ; 2.4323519853816624E10 ; 0.0
130 ; 1.8431448721963014E7 ; 2.015504039278028E8 ; 2.3877089247772255E9 ; 2.452506295682009E10 ; 0.0
131 ; 1.8414530221274976E7 ; 2.0155769902706426E8 ; 2.4061403734991884E9 ; 2.4726613360747894E10 ; 0.0
132 ; 1.8396734734997083E7 ; 2.0156498785128453E8 ; 2.4245549037204633E9 ; 2.492817105977496E10 ; 0.0
133 ; 1.8382066775696516E7 ; 2.015722699580076E8 ; 2.4429516384554605E9 ; 2.5129736047626244E10 ; 0.0
134 ; 1.8364761059818417E7 ; 2.0157954491209516E8 ; 2.4613337052311573E9 ; 2.533130831758425E10 ; 0.0
135 ; 1.834724249748309E7 ; 2.0158681228553793E8 ; 2.4796984662909756E9 ; 2.5532887862496346E10 ; 0.0
136 ; 1.8327212812349178E7 ; 2.0159407165727237E8 ; 2.498045708788459E9 ; 2.5734474674781883E10 ; 0.0
137 ; 1.8311714025824152E7 ; 2.0160132261300313E8 ; 2.516372921600808E9 ; 2.5936068746439156E10 ; 0.0
138 ; 1.829517932031565E7 ; 2.016085647450309E8 ; 2.534684635626632E9 ; 2.613767006905216E10 ; 0.0
139 ; 1.827926134632668E7 ; 2.0161579765208545E8 ; 2.552979814946948E9 ; 2.6339278633797188E10 ; 0.0
140 ; 1.825823011168851E7 ; 2.016230209391636E8 ; 2.571259076293275E9 ; 2.6540894431449272E10 ; 0.0
141 ; 1.8241008609603416E7 ; 2.0163023421737242E8 ; 2.5895173064049635E9 ; 2.6742517452388435E10 ; 0.0
142 ; 1.8224293959479567E7 ; 2.016374371037769E8 ; 2.607758315014567E9 ; 2.694414768660581E10 ; 0.0
143 ; 1.8204486969945017E7 ; 2.0164462922125247E8 ; 2.625982608974046E9 ; 2.7145785123709583E10 ; 0.0
144 ; 1.819031053458954E7 ; 2.016518101983418E8 ; 2.644187095943991E9 ; 2.7347429752930836E10 ; 0.0
145 ; 1.8175788485603184E7 ; 2.016589796691161E8 ; 2.662377406478581E9 ; 2.7549081563129177E10 ; 0.0
146 ; 1.816401801086359E7 ; 2.0166613727304077E8 ; 2.6805531949641843E9 ; 2.7750740542798294E10 ; 0.0
147 ; 1.815214514697697E7 ; 2.0167328265484464E8 ; 2.698717212975048E9 ; 2.7952406680071335E10 ; 0.0
148 ; 1.8140215692081824E7 ; 2.016804154643937E8 ; 2.716869358122025E9 ; 2.815407996272618E10 ; 0.0
149 ; 1.8130345272947583E7 ; 2.0168753535656843E8 ; 2.735009573814107E9 ; 2.8355760378190575E10 ; 0.0
150 ; 1.8117173345393114E7 ; 2.0169464199114487E8 ; 2.7531399190870547E9 ; 2.8557447913547142E10 ; 0.0
151 ; 1.8106008055662725E7 ; 2.0170173503267923E8 ; 2.771257092432448E9 ; 2.875914255553829E10 ; 0.0
152 ; 1.809346156409461E7 ; 2.0170881415039617E8 ; 2.7893631004881105E9 ; 2.896084429057097E10 ; 0.0
153 ; 1.808396771866918E7 ; 2.0171587901808023E8 ; 2.807456562052205E9 ; 2.9162553104721363E10 ; 0.0
154 ; 1.8069228388858743E7 ; 2.017229293139708E8 ; 2.8255405297708745E9 ; 2.9364268983739445E10 ; 0.0
155 ; 1.8058390092894997E7 ; 2.0172996472066E8 ; 2.8436097581597333E9 ; 2.9565991913053417E10 ; 0.0
156 ; 1.804674314816243E7 ; 2.0173698492499372E8 ; 2.8616681482526283E9 ; 2.976772187777408E10 ; 0.0
157 ; 1.8034102933538776E7 ; 2.0174398961797586E8 ; 2.8797148914007907E9 ; 2.9969458862699074E10 ; 0.0
158 ; 1.8022673553103406E7 ; 2.017509784946751E8 ; 2.8977489943343296E9 ; 3.017120285231705E10 ; 0.0
159 ; 1.801153362035991E7 ; 2.0175795125413468E8 ; 2.915771667887433E9 ; 3.0372953830811726E10 ; 0.0
160 ; 1.799859148364314E7 ; 2.017649075992849E8 ; 2.933783201507793E9 ; 3.057471178206586E10 ; 0.0
161 ; 1.7982945337045208E7 ; 2.01771847236858E8 ; 2.951781792991436E9 ; 3.0776476689665146E10 ; 0.0
162 ; 1.7970914925767194E7 ; 2.0177876987730607E8 ; 2.969764738328481E9 ; 3.0978248536902004E10 ; 0.0
163 ; 1.7961882973461553E7 ; 2.017856752347208E8 ; 2.9877356532542486E9 ; 3.1180027306779312E10 ; 0.0
164 ; 1.794704813068033E7 ; 2.0179256302675608E8 ; 3.0056975362277102E9 ; 3.1381812982014034E10 ; 0.0
165 ; 1.7937224020852543E7 ; 2.017994329745528E8 ; 3.023644584358391E9 ; 3.158360554504079E10 ; 0.0
166 ; 1.792309799413972E7 ; 2.0180628480266577E8 ; 3.0415818083792434E9 ; 3.1785404978015343E10 ; 0.0
167 ; 1.7914893661592536E7 ; 2.018131182389928E8 ; 3.059504906373383E9 ; 3.198721126281801E10 ; 0.0
168 ; 1.7897498530312184E7 ; 2.0181993301470613E8 ; 3.0774198000349755E9 ; 3.2189024381057003E10 ; 0.0
169 ; 1.7883714179595765E7 ; 2.0182672886418563E8 ; 3.0953172985652876E9 ; 3.239084431407171E10 ; 0.0
170 ; 1.786837000655998E7 ; 2.0183350552495405E8 ; 3.1132010127448835E9 ; 3.2592671042935894E10 ; 0.0
171 ; 1.7862988180237312E7 ; 2.0184026273761424E8 ; 3.1310693827514434E9 ; 3.279450454846085E10 ; 0.0
172 ; 1.784722712190704E7 ; 2.0184700024578813E8 ; 3.1489323709316807E9 ; 3.2996344811198463E10 ; 0.0
173 ; 1.7836454980158396E7 ; 2.018537177960575E8 ; 3.166779598053588E9 ; 3.3198191811444252E10 ; 0.0
174 ; 1.780377903087593E7 ; 2.0186041513790667E8 ; 3.1846160530337462E9 ; 3.340004552924031E10 ; 0.0
175 ; 1.7770092356343668E7 ; 2.0186709202366662E8 ; 3.2024198320646224E9 ; 3.3601905944378216E10 ; 0.0
176 ; 1.7739342883703545E7 ; 2.0187374820846084E8 ; 3.220189924420966E9 ; 3.3803773036401882E10 ; 0.0
177 ; 1.770595644352054E7 ; 2.018803834501528E8 ; 3.23792926730467E9 ; 3.4005646784610344E10 ; 0.0
178 ; 1.7671121429155994E7 ; 2.0188699750929502E8 ; 3.2556352237481904E9 ; 3.4207527168060497E10 ; 0.0
179 ; 1.7638416108228058E7 ; 2.018935901490793E8 ; 3.273306345177346E9 ; 3.440941416556979E10 ; 0.0
180 ; 1.7610917978824E7 ; 2.019E8 ; 3.2909447612855744E9 ; 3.461130775571887E10 ; 0.0
181 ; 1.7574504705899574E7 ; 2.019E8 ; 3.3085556792643986E9 ; 3.481320775571887E10 ; 0.0
182 ; 1.7539521000279468E7 ; 2.019E8 ; 3.3261301839702983E9 ; 3.501510775571887E10 ; 0.0
183 ; 1.7508110697392296E7 ; 2.019E8 ; 3.3436697049705777E9 ; 3.521700775571887E10 ; 0.0
184 ; 1.7478584047443733E7 ; 2.019E8 ; 3.36117781566797E9 ; 3.541890775571887E10 ; 0.0
185 ; 1.7441353088526893E7 ; 2.019E8 ; 3.378656399715414E9 ; 3.562080775571887E10 ; 0.0
186 ; 1.740868189986696E7 ; 2.019E8 ; 3.396097752803941E9 ; 3.582270775571887E10 ; 0.0
187 ; 1.737707934499522E7 ; 2.019E8 ; 3.413506434703808E9 ; 3.602460775571887E10 ; 0.0
188 ; 1.7343975914724525E7 ; 2.019E8 ; 3.430883514048803E9 ; 3.622650775571887E10 ; 0.0
189 ; 1.731291327956054E7 ; 2.019E8 ; 3.448227489963527E9 ; 3.642840775571887E10 ; 0.0
190 ; 1.7280546962622818E7 ; 2.019E8 ; 3.465540403243088E9 ; 3.663030775571887E10 ; 0.0
191 ; 1.7244405447643816E7 ; 2.019E8 ; 3.4828209502057104E9 ; 3.683220775571887E10 ; 0.0
192 ; 1.720999282614994E7 ; 2.019E8 ; 3.500065355653354E9 ; 3.703410775571887E10 ; 0.0
193 ; 1.718126389704972E7 ; 2.019E8 ; 3.517275348479504E9 ; 3.723600775571887E10 ; 0.0
194 ; 1.7149161381213177E7 ; 2.019E8 ; 3.534456612376554E9 ; 3.743790775571887E10 ; 0.0
195 ; 1.7113997576271906E7 ; 2.019E8 ; 3.551605773757767E9 ; 3.763980775571887E10 ; 0.0
196 ; 1.7082631505297814E7 ; 2.019E8 ; 3.568719771334039E9 ; 3.784170775571887E10 ; 0.0
197 ; 1.7049137747035798E7 ; 2.019E8 ; 3.585802402839337E9 ; 3.804360775571887E10 ; 0.0
198 ; 1.70155644100284E7 ; 2.019E8 ; 3.602851540586373E9 ; 3.824550775571887E10 ; 0.0
