CSV File for the City 4 on Day 5
1 - Minute m 
2 - Power Consumed at minute m 
3 - Power Produced at minute m 
4 - Energy Consumed since the beginning of the day 
5 - Energy Produced since the beginning of the day 
6 - Energy Lost since the beginning of the day on lines starting from the city
 
0 ; 4723161.175542351 ; 5.124831340745424E7 ; 0.0 ; 0.0 ; 0.0
1 ; 4726108.023394586 ; 5.1402634395108536E7 ; 4723161.175542351 ; 5.124831340745424E7 ; 613.6199999999999
2 ; 4733885.868257855 ; 5.186559735807149E7 ; 9449269.198936936 ; 1.0265094780256277E8 ; 1227.2399999999998
3 ; 4736541.948079662 ; 5.26372022963431E7 ; 1.418315506719479E7 ; 1.5451654516063428E8 ; 1840.8599999999997
4 ; 4743440.175617712 ; 5.371744920992334E7 ; 1.891969701527445E7 ; 2.0715374745697737E8 ; 2454.4799999999996
5 ; 4754063.0864378195 ; 5.510633809881224E7 ; 2.366313719089216E7 ; 2.608711966669007E8 ; 3068.0999999999995
6 ; 4764555.850704286 ; 5.6803868963009745E7 ; 2.841720027732998E7 ; 3.159775347657129E8 ; 3681.7199999999993
7 ; 4777655.651075083 ; 5.8810041802515924E7 ; 3.3181756128034268E7 ; 3.727814037287227E8 ; 4295.339999999999
8 ; 4799292.72583285 ; 6.112485661733073E7 ; 3.795941177910935E7 ; 4.315914455312386E8 ; 4908.959999999999
9 ; 4832380.407907576 ; 6.374831340745419E7 ; 4.27587045049422E7 ; 4.9271630214856935E8 ; 5522.579999999999
10 ; 4880762.052327459 ; 6.668041217288631E7 ; 4.759108491284978E7 ; 5.564646155560236E8 ; 6136.199999999999
11 ; 4962920.379828569 ; 6.992115291362706E7 ; 5.247184696517724E7 ; 6.2314502772891E8 ; 6749.819999999999
12 ; 5093241.842681748 ; 7.347053562967643E7 ; 5.743476734500581E7 ; 6.93066180642537E8 ; 7363.439999999999
13 ; 5213253.790335193 ; 7.732856032103443E7 ; 6.252800918768756E7 ; 7.665367162722135E8 ; 7977.059999999999
14 ; 5228357.434024531 ; 8.149522698770112E7 ; 6.774126297802275E7 ; 8.438652765932479E8 ; 8590.679999999998
15 ; 5233264.132466275 ; 8.59705356296764E7 ; 7.296962041204728E7 ; 9.253605035809491E8 ; 9204.3
16 ; 5238176.644928861 ; 9.075448624696037E7 ; 7.820288454451355E7 ; 1.0113310392106254E9 ; 9817.919999999998
17 ; 5245660.592645885 ; 9.5847078839553E7 ; 8.344106118944241E7 ; 1.1020855254575858E9 ; 10431.539999999997
18 ; 5251544.921601231 ; 1.0124831340745422E8 ; 8.86867217820883E7 ; 1.1979326042971387E9 ; 11045.159999999996
19 ; 5256510.768630987 ; 1.0695818995066409E8 ; 9.393826670368953E7 ; 1.299180917704593E9 ; 11658.779999999995
20 ; 5261101.980302563 ; 1.129767084691826E8 ; 9.919477747232051E7 ; 1.406139107655257E9 ; 12272.399999999994
21 ; 5266994.66172068 ; 1.1930386896300974E8 ; 1.0445587945262307E8 ; 1.5191158161244395E9 ; 12886.019999999993
22 ; 5272569.644357213 ; 1.2593967143214552E8 ; 1.0972287411434375E8 ; 1.6384196850874493E9 ; 13499.639999999992
23 ; 5280735.120341105 ; 1.3288411587659E8 ; 1.1499544375870097E8 ; 1.764359356519595E9 ; 14113.259999999991
24 ; 5286277.926822522 ; 1.401372022963431E8 ; 1.2027617887904207E8 ; 1.897243472396185E9 ; 14726.87999999999
25 ; 5291996.914107375 ; 1.4638697158958828E8 ; 1.255624568058646E8 ; 2.037380674692528E9 ; 15340.499999999989
26 ; 5296992.179802151 ; 1.4638697158958828E8 ; 1.3085445371997198E8 ; 2.1837676462821164E9 ; 15954.119999999988
27 ; 5303736.618301382 ; 1.4638697158958828E8 ; 1.3615144589977413E8 ; 2.3301546178717046E9 ; 16567.739999999987
28 ; 5308925.523356172 ; 1.4638697158958828E8 ; 1.4145518251807553E8 ; 2.4765415894612927E9 ; 17181.359999999986
29 ; 5313705.408022814 ; 1.4638697158958828E8 ; 1.467641080414317E8 ; 2.622928561050881E9 ; 17794.979999999985
30 ; 5320387.536619424 ; 1.4638697158958828E8 ; 1.5207781344945452E8 ; 2.769315532640469E9 ; 18408.599999999984
31 ; 5326773.667328478 ; 1.4638697158958828E8 ; 1.5739820098607394E8 ; 2.9157025042300572E9 ; 19022.219999999983
32 ; 5331546.194761856 ; 1.4638697158958828E8 ; 1.6272497465340242E8 ; 3.0620894758196454E9 ; 19635.839999999982
33 ; 5336261.232760979 ; 1.4638697158958828E8 ; 1.6805652084816426E8 ; 3.2084764474092336E9 ; 20249.45999999998
34 ; 5341507.384180053 ; 1.4638697158958828E8 ; 1.7339278208092523E8 ; 3.3548634189988217E9 ; 20863.07999999998
35 ; 5347236.863273637 ; 1.4638697158958828E8 ; 1.7873428946510527E8 ; 3.50125039058841E9 ; 21476.69999999998
36 ; 5351255.045759451 ; 1.4638697158958828E8 ; 1.8408152632837892E8 ; 3.647637362177998E9 ; 22090.319999999978
37 ; 5356025.123250414 ; 1.4638697158958828E8 ; 1.8943278137413836E8 ; 3.794024333767586E9 ; 22703.939999999977
38 ; 5360109.624558135 ; 1.4638697158958828E8 ; 1.9478880649738878E8 ; 3.9404113053571744E9 ; 23317.559999999976
39 ; 5363965.046069626 ; 1.4638697158958828E8 ; 2.001489161219469E8 ; 4.0867982769467626E9 ; 23931.179999999975
40 ; 5367547.470596812 ; 1.4638697158958828E8 ; 2.0551288116801652E8 ; 4.2331852485363507E9 ; 24544.799999999974
41 ; 5370913.993074377 ; 1.4638697158958828E8 ; 2.1088042863861334E8 ; 4.379572220125939E9 ; 25158.419999999973
42 ; 5372627.523259458 ; 1.4638697158958828E8 ; 2.1625134263168773E8 ; 4.525959191715528E9 ; 25772.03999999997
43 ; 5380720.081570492 ; 1.4638697158958828E8 ; 2.216239701549472E8 ; 4.672346163305116E9 ; 26385.65999999997
44 ; 5379354.205309057 ; 1.4638697158958828E8 ; 2.270046902365177E8 ; 4.818733134894704E9 ; 26999.27999999997
45 ; 5385884.255160421 ; 1.4638697158958828E8 ; 2.3238404444182676E8 ; 4.965120106484292E9 ; 27612.89999999997
46 ; 5385580.917123315 ; 1.4638697158958828E8 ; 2.3776992869698718E8 ; 5.11150707807388E9 ; 28226.519999999968
47 ; 5389127.196759859 ; 1.4638697158958828E8 ; 2.431555096141105E8 ; 5.257894049663468E9 ; 28840.139999999967
48 ; 5391424.787682901 ; 1.4638697158958828E8 ; 2.4854463681087035E8 ; 5.404281021253057E9 ; 29453.759999999966
49 ; 5393024.903149948 ; 1.4638697158958828E8 ; 2.5393606159855324E8 ; 5.550667992842645E9 ; 30067.379999999965
50 ; 5396777.727103377 ; 1.4638697158958828E8 ; 2.593290865017032E8 ; 5.697054964432233E9 ; 30680.999999999964
51 ; 5396904.150354117 ; 1.4638697158958828E8 ; 2.6472586422880659E8 ; 5.843441936021821E9 ; 31294.619999999963
52 ; 5400377.317090994 ; 1.4638697158958828E8 ; 2.701227683791607E8 ; 5.989828907611409E9 ; 31908.23999999996
53 ; 5399019.004750584 ; 1.4638697158958828E8 ; 2.755231456962517E8 ; 6.136215879200997E9 ; 32521.85999999996
54 ; 5400365.31942737 ; 1.4638697158958828E8 ; 2.809221647010023E8 ; 6.2826028507905855E9 ; 33135.47999999996
55 ; 5403262.710198527 ; 1.4638697158958828E8 ; 2.863225300204297E8 ; 6.428989822380174E9 ; 33749.09999999996
56 ; 5404138.815013938 ; 1.4638697158958828E8 ; 2.917257927306282E8 ; 6.575376793969762E9 ; 34362.719999999965
57 ; 5402603.260672197 ; 1.4638697158958828E8 ; 2.9712993154564214E8 ; 6.72176376555935E9 ; 34976.33999999997
58 ; 5406096.803755494 ; 1.4638697158958828E8 ; 3.0253253480631435E8 ; 6.868150737148938E9 ; 35589.95999999997
59 ; 5406432.932886039 ; 1.4638697158958828E8 ; 3.079386316100699E8 ; 7.014537708738526E9 ; 36203.57999999997
60 ; 5408103.630266421 ; 1.4638697158958828E8 ; 3.1334506454295594E8 ; 7.1609246803281145E9 ; 36817.199999999975
61 ; 5407398.504384274 ; 1.4638697158958828E8 ; 3.1875316817322236E8 ; 7.307311651917703E9 ; 37430.81999999998
62 ; 5408567.1824946245 ; 1.4638697158958828E8 ; 3.2416056667760664E8 ; 7.453698623507291E9 ; 38044.43999999998
63 ; 5409955.213600834 ; 1.4638697158958828E8 ; 3.295691338601013E8 ; 7.600085595096879E9 ; 38658.05999999998
64 ; 5411267.633280871 ; 1.4638697158958828E8 ; 3.349790890737021E8 ; 7.746472566686467E9 ; 39271.679999999986
65 ; 5410555.334781571 ; 1.4638697158958828E8 ; 3.40390356706983E8 ; 7.892859538276055E9 ; 39885.29999999999
66 ; 5412780.078542709 ; 1.4638697158958828E8 ; 3.4580091204176456E8 ; 8.0392465098656435E9 ; 40498.91999999999
67 ; 5413419.427148686 ; 1.4638697158958828E8 ; 3.5121369212030727E8 ; 8.185633481455232E9 ; 41112.53999999999
68 ; 5412565.666111404 ; 1.4638697158958828E8 ; 3.5662711154745597E8 ; 8.33202045304482E9 ; 41726.159999999996
69 ; 5412688.834133064 ; 1.4638697158958828E8 ; 3.620396772135674E8 ; 8.478407424634408E9 ; 42339.78
70 ; 5415464.096644125 ; 1.4638697158958828E8 ; 3.6745236604770046E8 ; 8.624794396223997E9 ; 42953.4
71 ; 5416457.237536728 ; 1.4638697158958828E8 ; 3.7286783014434457E8 ; 8.771181367813585E9 ; 43567.020000000004
72 ; 5417224.141952852 ; 1.4638697158958828E8 ; 3.782842873818813E8 ; 8.917568339403173E9 ; 44180.64000000001
73 ; 5418425.989797073 ; 1.4638697158958828E8 ; 3.8370151152383417E8 ; 9.063955310992762E9 ; 44794.26000000001
74 ; 5417322.043969726 ; 1.4638697158958828E8 ; 3.891199375136312E8 ; 9.21034228258235E9 ; 45407.88000000001
75 ; 5416411.66520888 ; 1.4638697158958828E8 ; 3.94537259557601E8 ; 9.356729254171938E9 ; 46021.500000000015
76 ; 5418668.2548992885 ; 1.4638697158958828E8 ; 3.9995367122280985E8 ; 9.503116225761526E9 ; 46635.12000000002
77 ; 5418488.69378364 ; 1.4638697158958828E8 ; 4.053723394777091E8 ; 9.649503197351114E9 ; 47248.74000000002
78 ; 5417596.21907907 ; 1.4638697158958828E8 ; 4.1079082817149276E8 ; 9.795890168940702E9 ; 47862.36000000002
79 ; 5417153.002121903 ; 1.4638697158958828E8 ; 4.1620842439057183E8 ; 9.94227714053029E9 ; 48475.980000000025
80 ; 5413187.183943653 ; 1.4638697158958828E8 ; 4.2162557739269376E8 ; 1.0088664112119879E10 ; 49089.60000000003
81 ; 5412544.161236622 ; 1.4638697158958828E8 ; 4.270387645766374E8 ; 1.0235051083709467E10 ; 49703.22000000003
82 ; 5411418.193973564 ; 1.4638697158958828E8 ; 4.3245130873787403E8 ; 1.0381438055299055E10 ; 50316.84000000003
83 ; 5407205.544478624 ; 1.4638697158958828E8 ; 4.378627269318476E8 ; 1.0527825026888643E10 ; 50930.460000000036
84 ; 5408041.087732189 ; 1.4638697158958828E8 ; 4.4326993247632617E8 ; 1.0674211998478231E10 ; 51544.08000000004
85 ; 5407804.946287718 ; 1.4638697158958828E8 ; 4.4867797356405836E8 ; 1.082059897006782E10 ; 52157.70000000004
86 ; 5403964.093619999 ; 1.4638697158958828E8 ; 4.5408577851034606E8 ; 1.0966985941657408E10 ; 52771.32000000004
87 ; 5404593.690600461 ; 1.4638697158958828E8 ; 4.5948974260396606E8 ; 1.1113372913246996E10 ; 53384.940000000046
88 ; 5401394.978495145 ; 1.4638697158958828E8 ; 4.648943362945665E8 ; 1.1259759884836584E10 ; 53998.56000000005
89 ; 5397460.007721797 ; 1.4638697158958828E8 ; 4.7029573127306163E8 ; 1.1406146856426172E10 ; 54612.18000000005
90 ; 5397750.075279165 ; 1.4638697158958828E8 ; 4.756931912807834E8 ; 1.155253382801576E10 ; 55225.800000000054
91 ; 5394372.547570164 ; 1.4638697158958828E8 ; 4.810909413560626E8 ; 1.1698920799605349E10 ; 55839.42000000006
92 ; 5393698.879866625 ; 1.4638697158958828E8 ; 4.8648531390363276E8 ; 1.1845307771194937E10 ; 56453.04000000006
93 ; 5391064.3583660275 ; 1.4638697158958828E8 ; 4.9187901278349936E8 ; 1.1991694742784525E10 ; 57066.66000000006
94 ; 5389298.541782621 ; 1.4638697158958828E8 ; 4.972700771418654E8 ; 1.2138081714374113E10 ; 57680.280000000064
95 ; 5387538.489071937 ; 1.4638697158958828E8 ; 5.02659375683648E8 ; 1.2284468685963701E10 ; 58293.90000000007
96 ; 5383814.377809296 ; 1.4638697158958828E8 ; 5.0804691417271996E8 ; 1.243085565755329E10 ; 58907.52000000007
97 ; 5382644.5118598 ; 1.4638697158958828E8 ; 5.1343072855052924E8 ; 1.2577242629142878E10 ; 59521.14000000007
98 ; 5378600.514793419 ; 1.4638697158958828E8 ; 5.18813373062389E8 ; 1.2723629600732466E10 ; 60134.760000000075
99 ; 5379046.149623482 ; 1.4638697158958828E8 ; 5.241919735771824E8 ; 1.2870016572322054E10 ; 60748.38000000008
100 ; 5374572.491638155 ; 1.4638697158958828E8 ; 5.2957101972680587E8 ; 1.3016403543911642E10 ; 61362.00000000008
101 ; 5372074.705530019 ; 1.4638697158958828E8 ; 5.3494559221844405E8 ; 1.316279051550123E10 ; 61975.62000000008
102 ; 5370427.982783293 ; 1.4638697158958828E8 ; 5.40317666923974E8 ; 1.3309177487090818E10 ; 62589.240000000085
103 ; 5366992.168009635 ; 1.4638697158958828E8 ; 5.456880949067574E8 ; 1.3455564458680407E10 ; 63202.86000000009
104 ; 5364117.647301613 ; 1.4638697158958828E8 ; 5.51055087074767E8 ; 1.3601951430269995E10 ; 63816.48000000009
105 ; 5361897.671584317 ; 1.4638697158958828E8 ; 5.564192047220685E8 ; 1.3748338401859583E10 ; 64430.10000000009
106 ; 5359067.181545267 ; 1.4638697158958828E8 ; 5.617811023936529E8 ; 1.3894725373449171E10 ; 65043.720000000096
107 ; 5356742.0603565825 ; 1.4638697158958828E8 ; 5.671401695751982E8 ; 1.404111234503876E10 ; 65657.3400000001
108 ; 5355390.190479705 ; 1.4638697158958828E8 ; 5.724969116355548E8 ; 1.4187499316628347E10 ; 66270.9600000001
109 ; 5349952.695014461 ; 1.4638697158958828E8 ; 5.778523018260345E8 ; 1.4333886288217936E10 ; 66884.58000000009
110 ; 5349118.063432464 ; 1.4638697158958828E8 ; 5.83202254521049E8 ; 1.4480273259807524E10 ; 67498.20000000008
111 ; 5345440.588071577 ; 1.4638697158958828E8 ; 5.885513725844815E8 ; 1.4626660231397112E10 ; 68111.82000000008
112 ; 5341847.227704283 ; 1.4638697158958828E8 ; 5.938968131725531E8 ; 1.47730472029867E10 ; 68725.44000000008
113 ; 5337572.593357815 ; 1.4638697158958828E8 ; 5.992386604002573E8 ; 1.4919434174576288E10 ; 69339.06000000007
114 ; 5335091.357000755 ; 1.4638697158958828E8 ; 6.045762329936152E8 ; 1.5065821146165876E10 ; 69952.68000000007
115 ; 5333230.554382271 ; 1.4638697158958828E8 ; 6.099113243506159E8 ; 1.5212208117755465E10 ; 70566.30000000006
116 ; 5329794.269738747 ; 1.4638697158958828E8 ; 6.152445549049982E8 ; 1.5358595089345053E10 ; 71179.92000000006
117 ; 5325862.2525276765 ; 1.4638697158958828E8 ; 6.20574349174737E8 ; 1.550498206093464E10 ; 71793.54000000005
118 ; 5322626.604760018 ; 1.4638697158958828E8 ; 6.259002114272647E8 ; 1.565136903252423E10 ; 72407.16000000005
119 ; 5317665.132842944 ; 1.4638697158958828E8 ; 6.312228380320247E8 ; 1.5797756004113817E10 ; 73020.78000000004
120 ; 5315106.189103944 ; 1.4638697158958828E8 ; 6.365405031648676E8 ; 1.5944142975703405E10 ; 73634.40000000004
121 ; 5311210.439293998 ; 1.4638697158958828E8 ; 6.418556093539716E8 ; 1.6090529947292994E10 ; 74248.02000000003
122 ; 5308343.397922814 ; 1.4638697158958828E8 ; 6.471668197932656E8 ; 1.6236916918882582E10 ; 74861.64000000003
123 ; 5304605.591002463 ; 1.4638697158958828E8 ; 6.524751631911883E8 ; 1.638330389047217E10 ; 75475.26000000002
124 ; 5301066.379990818 ; 1.4638697158958828E8 ; 6.577797687821908E8 ; 1.6529690862061758E10 ; 76088.88000000002
125 ; 5298660.7938374225 ; 1.4638697158958828E8 ; 6.630808351621816E8 ; 1.6676077833651346E10 ; 76702.50000000001
126 ; 5293030.7019037055 ; 1.4638697158958828E8 ; 6.68379495956019E8 ; 1.6822464805240934E10 ; 77316.12000000001
127 ; 5290672.627041317 ; 1.4638697158958828E8 ; 6.736725266579227E8 ; 1.6968851776830523E10 ; 77929.74
128 ; 5289167.730413941 ; 1.4638697158958828E8 ; 6.789631992849641E8 ; 1.711523874842011E10 ; 78543.36
129 ; 5282353.183355821 ; 1.4638697158958828E8 ; 6.84252367015378E8 ; 1.72616257200097E10 ; 79156.98
130 ; 5276806.257421334 ; 1.4638697158958828E8 ; 6.895347201987338E8 ; 1.740801269159929E10 ; 79770.59999999999
131 ; 5272474.200250607 ; 1.4638697158958828E8 ; 6.948115264561552E8 ; 1.7554399663188877E10 ; 80384.21999999999
132 ; 5266111.940137362 ; 1.4638697158958828E8 ; 7.000840006564058E8 ; 1.7700786634778465E10 ; 80997.83999999998
133 ; 5261373.966713448 ; 1.4638697158958828E8 ; 7.053501125965432E8 ; 1.7847173606368053E10 ; 81611.45999999998
134 ; 5254855.973665348 ; 1.4638697158958828E8 ; 7.106114865632566E8 ; 1.799356057795764E10 ; 82225.07999999997
135 ; 5250606.848016285 ; 1.4638697158958828E8 ; 7.15866342536922E8 ; 1.813994754954723E10 ; 82838.69999999997
136 ; 5244740.696855521 ; 1.4638697158958828E8 ; 7.211169493849382E8 ; 1.8286334521136818E10 ; 83452.31999999996
137 ; 5237337.75645583 ; 1.4638697158958828E8 ; 7.263616900817938E8 ; 1.8432721492726406E10 ; 84065.93999999996
138 ; 5231031.008900437 ; 1.4638697158958828E8 ; 7.315990278382496E8 ; 1.8579108464315994E10 ; 84679.55999999995
139 ; 5228757.192065103 ; 1.4638697158958828E8 ; 7.3683005884715E8 ; 1.8725495435905582E10 ; 85293.17999999995
140 ; 5223155.548532749 ; 1.4638697158958828E8 ; 7.420588160392151E8 ; 1.887188240749517E10 ; 85906.79999999994
141 ; 5215351.391306972 ; 1.4638697158958828E8 ; 7.472819715877478E8 ; 1.901826937908476E10 ; 86520.41999999994
142 ; 5209621.855472415 ; 1.4638697158958828E8 ; 7.524973229790548E8 ; 1.9164656350674347E10 ; 87134.03999999994
143 ; 5203500.63393437 ; 1.4638697158958828E8 ; 7.577069448345273E8 ; 1.9311043322263935E10 ; 87747.65999999993
144 ; 5195464.979069892 ; 1.4638697158958828E8 ; 7.629104454684616E8 ; 1.9457430293853523E10 ; 88361.27999999993
145 ; 5193469.98804837 ; 1.4638697158958828E8 ; 7.681059104475316E8 ; 1.960381726544311E10 ; 88974.89999999992
146 ; 5186485.370218007 ; 1.4638697158958828E8 ; 7.732993804355799E8 ; 1.97502042370327E10 ; 89588.51999999992
147 ; 5185052.832276036 ; 1.4638697158958828E8 ; 7.784858658057979E8 ; 1.9896591208622288E10 ; 90202.13999999991
148 ; 5180014.733536691 ; 1.4638697158958828E8 ; 7.836709186380739E8 ; 2.0042978180211876E10 ; 90815.75999999991
149 ; 5177553.4915689025 ; 1.4638697158958828E8 ; 7.888509333716106E8 ; 2.0189365151801464E10 ; 91429.3799999999
150 ; 5169968.828381557 ; 1.4638697158958828E8 ; 7.940284868631796E8 ; 2.0335752123391052E10 ; 92042.9999999999
151 ; 5168515.339910564 ; 1.4638697158958828E8 ; 7.991984556915611E8 ; 2.048213909498064E10 ; 92656.6199999999
152 ; 5165894.453433342 ; 1.4638697158958828E8 ; 8.043669710314716E8 ; 2.062852606657023E10 ; 93270.23999999989
153 ; 5160134.4587482335 ; 1.4638697158958828E8 ; 8.09532865484905E8 ; 2.0774913038159817E10 ; 93883.85999999988
154 ; 5154340.73756165 ; 1.4638697158958828E8 ; 8.146929999436532E8 ; 2.0921300009749405E10 ; 94497.47999999988
155 ; 5150237.321419367 ; 1.4638697158958828E8 ; 8.198473406812149E8 ; 2.1067686981338993E10 ; 95111.09999999987
156 ; 5148456.144496476 ; 1.4638697158958828E8 ; 8.249975780026343E8 ; 2.121407395292858E10 ; 95724.71999999987
157 ; 5142827.715263849 ; 1.4638697158958828E8 ; 8.301460341471307E8 ; 2.136046092451817E10 ; 96338.33999999987
158 ; 5140107.016295254 ; 1.4638697158958828E8 ; 8.352888618623946E8 ; 2.1506847896107758E10 ; 96951.95999999986
159 ; 5133035.139388895 ; 1.4638697158958828E8 ; 8.404289688786898E8 ; 2.1653234867697346E10 ; 97565.57999999986
160 ; 5128012.964036499 ; 1.4638697158958828E8 ; 8.455620040180787E8 ; 2.1799621839286934E10 ; 98179.19999999985
161 ; 5124621.213810071 ; 1.4638697158958828E8 ; 8.506900169821151E8 ; 2.1946008810876522E10 ; 98792.81999999985
162 ; 5119613.412998299 ; 1.4638697158958828E8 ; 8.558146381959252E8 ; 2.209239578246611E10 ; 99406.43999999984
163 ; 5114838.782898052 ; 1.4638697158958828E8 ; 8.609342516089236E8 ; 2.22387827540557E10 ; 100020.05999999984
164 ; 5110759.198027271 ; 1.4638697158958828E8 ; 8.660490903918216E8 ; 2.2385169725645287E10 ; 100633.67999999983
165 ; 5106745.753989361 ; 1.4638697158958828E8 ; 8.711598495898489E8 ; 2.2531556697234875E10 ; 101247.29999999983
166 ; 5101204.644515748 ; 1.4638697158958828E8 ; 8.762665953438382E8 ; 2.2677943668824463E10 ; 101860.91999999982
167 ; 5095734.837494978 ; 1.4638697158958828E8 ; 8.81367799988354E8 ; 2.282433064041405E10 ; 102474.53999999982
168 ; 5093631.470760783 ; 1.4638697158958828E8 ; 8.864635348258489E8 ; 2.297071761200364E10 ; 103088.15999999981
169 ; 5089907.690376905 ; 1.4638697158958828E8 ; 8.915571662966098E8 ; 2.3117104583593227E10 ; 103701.77999999981
170 ; 5084424.307790863 ; 1.4638697158958828E8 ; 8.966470739869866E8 ; 2.3263491555182816E10 ; 104315.3999999998
171 ; 5077593.672982677 ; 1.4638697158958828E8 ; 9.017314982947775E8 ; 2.3409878526772404E10 ; 104929.0199999998
172 ; 5073430.421886991 ; 1.4638697158958828E8 ; 9.068090919677602E8 ; 2.355626549836199E10 ; 105542.6399999998
173 ; 5071098.791837578 ; 1.4638697158958828E8 ; 9.118825223896472E8 ; 2.370265246995158E10 ; 106156.25999999979
174 ; 5066179.310021235 ; 1.4638697158958828E8 ; 9.169536211814848E8 ; 2.384903944154117E10 ; 106769.87999999979
175 ; 5064267.11726107 ; 1.4638697158958828E8 ; 9.220198004915061E8 ; 2.3995426413130756E10 ; 107383.49999999978
176 ; 5061570.315469587 ; 1.4638697158958828E8 ; 9.270840676087672E8 ; 2.4141813384720345E10 ; 107997.11999999978
