CSV File for the City 6 on Day 28
1 - Minute m 
2 - Power Consumed at minute m 
3 - Power Produced at minute m 
4 - Energy Consumed since the beginning of the day 
5 - Energy Produced since the beginning of the day 
6 - Energy Lost since the beginning of the day on lines starting from the city
 
0 ; 1.1113355980995866E7 ; 1.0539288269767484E8 ; 0.0 ; 0.0 ; 0.0
1 ; 1.1124790086362923E7 ; 1.0553888996585912E8 ; 1.1113355980995866E7 ; 1.0539288269767484E8 ; 0.0
2 ; 1.1136081226939952E7 ; 1.0599414086854568E8 ; 2.2238146067358788E7 ; 2.1093177266353396E8 ; 0.0
3 ; 1.1150041256502686E7 ; 1.0675870280662274E8 ; 3.337422729429874E7 ; 3.1692591353207964E8 ; 0.0
4 ; 1.1166538578349683E7 ; 1.078326462794404E8 ; 4.4524268550801426E7 ; 4.236846163387024E8 ; 0.0
5 ; 1.1185992073579775E7 ; 1.0921604290938097E8 ; 5.5690807129151106E7 ; 5.315172626181428E8 ; 0.0
6 ; 1.1216679560314534E7 ; 1.1090896273262462E8 ; 6.687679920273088E7 ; 6.407333055275238E8 ; 0.0
7 ; 1.1251715453000285E7 ; 1.1291147082521945E8 ; 7.809347876304542E7 ; 7.516422682601484E8 ; 0.0
8 ; 1.1302441383875515E7 ; 1.1522362349462306E8 ; 8.934519421604571E7 ; 8.645537390853679E8 ; 0.0
9 ; 1.1384761829539593E7 ; 1.1784546444047868E8 ; 1.0064763559992123E8 ; 9.79777362579991E8 ; 0.0
10 ; 1.1511448650140118E7 ; 1.2077702141688448E8 ; 1.1203239742946082E8 ; 1.0976228270204697E9 ; 0.0
11 ; 1.1705638640869558E7 ; 1.2401830394665155E8 ; 1.2354384607960095E8 ; 1.218399848437354E9 ; 0.0
12 ; 1.202796519585723E7 ; 1.2756930250696877E8 ; 1.352494847204705E8 ; 1.3424181523840055E9 ; 0.0
13 ; 1.2329253631252168E7 ; 1.3142998934373796E8 ; 1.4727744991632771E8 ; 1.4699874548909743E9 ; 0.0
14 ; 1.236022482334506E7 ; 1.35600320757316E8 ; 1.5960670354757988E8 ; 1.6014174442347121E9 ; 0.0
15 ; 1.237856739190793E7 ; 1.4008024044024515E8 ; 1.7196692837092495E8 ; 1.7370177649920282E9 ; 0.0
16 ; 1.2392806089762144E7 ; 1.4486968331647745E8 ; 1.8434549576283288E8 ; 1.8770980054322734E9 ; 0.0
17 ; 1.2404213864417486E7 ; 1.4996857934983262E8 ; 1.9673830185259503E8 ; 2.021967688748751E9 ; 0.0
18 ; 1.2420229969759397E7 ; 1.553768569179284E8 ; 2.0914251571701252E8 ; 2.1719362680985837E9 ; 0.0
19 ; 1.2437033370223124E7 ; 1.6109444552141467E8 ; 2.2156274568677193E8 ; 2.327313125016512E9 ; 0.0
20 ; 1.245241367595465E7 ; 1.671212777594032E8 ; 2.3399977905699506E8 ; 2.4884075705379267E9 ; 0.0
21 ; 1.2465606933855033E7 ; 1.7345729061825266E8 ; 2.464521927329497E8 ; 2.65552884829733E9 ; 0.0
22 ; 1.2479101953682149E7 ; 1.8010242618553245E8 ; 2.5891779966680473E8 ; 2.8289861389155827E9 ; 0.0
23 ; 1.249241427276191E7 ; 1.8705663192315292E8 ; 2.7139690162048686E8 ; 3.009088565101115E9 ; 0.0
24 ; 1.2505347142821185E7 ; 1.9431986062803525E8 ; 2.8388931589324874E8 ; 3.196145197024268E9 ; 0.0
25 ; 1.2523324290061658E7 ; 2.0058011108707455E8 ; 2.963946630360699E8 ; 3.390465057652303E9 ; 0.0
26 ; 1.2537990446037952E7 ; 2.005908937511867E8 ; 3.089179873261316E8 ; 3.591045168739378E9 ; 0.0
27 ; 1.2553198881095905E7 ; 2.0060194483884645E8 ; 3.2145597777216953E8 ; 3.791636062490565E9 ; 0.0
28 ; 1.256560096478397E7 ; 2.0061323514467373E8 ; 3.340091766532654E8 ; 3.9922380073294115E9 ; 0.0
29 ; 1.2575531902681408E7 ; 2.0062473890436116E8 ; 3.465747776180494E8 ; 4.1928512424740853E9 ; 0.0
30 ; 1.2592431019747183E7 ; 2.0063643339198998E8 ; 3.591503095207308E8 ; 4.393475981378447E9 ; 0.0
31 ; 1.2607232744081823E7 ; 2.0064829855117726E8 ; 3.71742740540478E8 ; 4.594112414770436E9 ; 0.0
32 ; 1.2618540466919163E7 ; 2.006603166632505E8 ; 3.843499732845598E8 ; 4.794760713321613E9 ; 0.0
33 ; 1.2632366643524112E7 ; 2.0067247205250114E8 ; 3.9696851375147897E8 ; 4.995421029984864E9 ; 0.0
34 ; 1.2645775442558272E7 ; 2.0068475082671726E8 ; 4.096008803950031E8 ; 5.196093502037365E9 ; 0.0
35 ; 1.265694472201886E7 ; 2.0069714065021166E8 ; 4.2224665583756137E8 ; 5.396778252864082E9 ; 0.0
36 ; 1.2667500298089398E7 ; 2.0070963054613483E8 ; 4.349036005595802E8 ; 5.597475393514294E9 ; 0.0
37 ; 1.2677585084615575E7 ; 2.007222107247863E8 ; 4.475711008576696E8 ; 5.798185024060429E9 ; 0.0
38 ; 1.2688084186280817E7 ; 2.0073487243476197E8 ; 4.602486859422852E8 ; 5.998907234785215E9 ; 0.0
39 ; 1.2699834339689188E7 ; 2.00747607834011E8 ; 4.72936770128566E8 ; 6.199642107219977E9 ; 0.0
40 ; 1.2708380538209982E7 ; 2.007604098781605E8 ; 4.856366044682552E8 ; 6.400389715053988E9 ; 0.0
41 ; 1.2718473900281286E7 ; 2.0077327222376314E8 ; 4.983449850064652E8 ; 6.601150124932149E9 ; 0.0
42 ; 1.2723607590397261E7 ; 2.0078618914441186E8 ; 5.110634589067465E8 ; 6.801923397155912E9 ; 0.0
43 ; 1.2731922428511525E7 ; 2.007991554579344E8 ; 5.2378706649714375E8 ; 7.002709586300324E9 ; 0.0
44 ; 1.2742340121324716E7 ; 2.0081216646312243E8 ; 5.3651898892565525E8 ; 7.203508741758259E9 ; 0.0
45 ; 1.2748879438424582E7 ; 2.008252178846652E8 ; 5.492613290469799E8 ; 7.404320908221381E9 ; 0.0
46 ; 1.275457369328608E7 ; 2.0083830582514685E8 ; 5.620102084854045E8 ; 7.605146126106047E9 ; 0.0
47 ; 1.2760482705991935E7 ; 2.0085142672312889E8 ; 5.747647821786906E8 ; 7.805984431931193E9 ; 0.0
48 ; 1.2765214279569726E7 ; 2.008645773164806E8 ; 5.875252648846825E8 ; 8.006835858654323E9 ; 0.0
49 ; 1.2768981398876293E7 ; 2.0087775461024162E8 ; 6.002904791642523E8 ; 8.207700435970803E9 ; 0.0
50 ; 1.2772106598035045E7 ; 2.0089095584840268E8 ; 6.130594605631286E8 ; 8.408578190581045E9 ; 0.0
51 ; 1.2776401261941088E7 ; 2.0090417848908064E8 ; 6.258315671611637E8 ; 8.609469146429447E9 ; 0.0
52 ; 1.2778860836184653E7 ; 2.0091742018263736E8 ; 6.386079684231048E8 ; 8.810373324918528E9 ; 0.0
53 ; 1.278451167232426E7 ; 2.0093067875235668E8 ; 6.513868292592894E8 ; 9.011290745101166E9 ; 0.0
54 ; 1.2789599525818547E7 ; 2.0094395217734832E8 ; 6.641713409316137E8 ; 9.212221423853523E9 ; 0.0
55 ; 1.2791480268957293E7 ; 2.0095723857739368E8 ; 6.769609404574323E8 ; 9.413165376030872E9 ; 0.0
56 ; 1.279291599832005E7 ; 2.00970536199488E8 ; 6.897524207263895E8 ; 9.614122614608267E9 ; 0.0
57 ; 1.2794526968058126E7 ; 2.0098384340586722E8 ; 7.025453367247096E8 ; 9.815093150807755E9 ; 0.0
58 ; 1.2799791214523574E7 ; 2.0099715866333663E8 ; 7.153398636927677E8 ; 1.0016076994213621E10 ; 0.0
59 ; 1.2802310894768776E7 ; 2.010104805337431E8 ; 7.281396549072913E8 ; 1.0217074152876957E10 ; 0.0
60 ; 1.2806287490649454E7 ; 2.0102380766545326E8 ; 7.409419658020601E8 ; 1.04180846334107E10 ; 0.0
61 ; 1.2807489911746468E7 ; 2.0103713878571883E8 ; 7.537482532927096E8 ; 1.0619108441076153E10 ; 0.0
62 ; 1.2809607703421965E7 ; 2.0105047269382536E8 ; 7.665557432044561E8 ; 1.0820145579861872E10 ; 0.0
63 ; 1.2809531531005273E7 ; 2.010638082549337E8 ; 7.79365350907878E8 ; 1.1021196052555696E10 ; 0.0
64 ; 1.2815150528980609E7 ; 2.010771443945356E8 ; 7.921748824388833E8 ; 1.122225986081063E10 ; 0.0
65 ; 1.2814618716662986E7 ; 2.0109048009345448E8 ; 8.049900329678639E8 ; 1.1423337005205166E10 ; 0.0
66 ; 1.2818728459120344E7 ; 2.0110381438333067E8 ; 8.178046516845269E8 ; 1.162442748529862E10 ; 0.0
67 ; 1.2817697508002797E7 ; 2.0111714634253824E8 ; 8.306233801436473E8 ; 1.1825531299681952E10 ; 0.0
68 ; 1.281958290495028E7 ; 2.011304750924871E8 ; 8.434410776516501E8 ; 1.202664844602449E10 ; 0.0
69 ; 1.281964421182732E7 ; 2.0114379979426864E8 ; 8.562606605566003E8 ; 1.2227778921116978E10 ; 0.0
70 ; 1.2824653657438492E7 ; 2.0115711964560947E8 ; 8.690803047684276E8 ; 1.2428922720911247E10 ; 0.0
71 ; 1.2825999375747247E7 ; 2.011704338781007E8 ; 8.819049584258661E8 ; 1.2630079840556856E10 ; 0.0
72 ; 1.2827715549562508E7 ; 2.0118374175467503E8 ; 8.947309578016133E8 ; 1.2831250274434958E10 ; 0.0
73 ; 1.2821372291750675E7 ; 2.0119704256730592E8 ; 9.075586733511758E8 ; 1.3032434016189632E10 ; 0.0
74 ; 1.2826091792071056E7 ; 2.012103356349074E8 ; 9.203800456429265E8 ; 1.3233631058756939E10 ; 0.0
75 ; 1.2826469722404212E7 ; 2.012236203014139E8 ; 9.332061374349976E8 ; 1.3434841394391846E10 ; 0.0
76 ; 1.282478680919846E7 ; 2.0123689593402332E8 ; 9.460326071574018E8 ; 1.363606501469326E10 ; 0.0
77 ; 1.2828817304885078E7 ; 2.0125016192158705E8 ; 9.588573939666003E8 ; 1.3837301910627283E10 ; 0.0
78 ; 1.2821435307751479E7 ; 2.0126341767313325E8 ; 9.716862112714853E8 ; 1.403855207254887E10 ; 0.0
79 ; 1.2819766616053248E7 ; 2.0127666261651078E8 ; 9.845076465792369E8 ; 1.4239815490222004E10 ; 0.0
80 ; 1.281790633741798E7 ; 2.0128989619714263E8 ; 9.973274131952901E8 ; 1.4441092152838514E10 ; 0.0
81 ; 1.2809433475658815E7 ; 2.0130311787687865E8 ; 1.010145319532708E9 ; 1.4642382049035658E10 ; 0.0
82 ; 1.2809295329089427E7 ; 2.013163271329389E8 ; 1.0229547530083668E9 ; 1.4843685166912537E10 ; 0.0
83 ; 1.2802870282703E7 ; 2.013295234569391E8 ; 1.0357640483374562E9 ; 1.5045001494045475E10 ; 0.0
84 ; 1.2799729529259099E7 ; 2.013427063539912E8 ; 1.0485669186201593E9 ; 1.5246331017502415E10 ; 0.0
85 ; 1.2798399243489759E7 ; 2.013558753418725E8 ; 1.0613666481494184E9 ; 1.5447673723856405E10 ; 0.0
86 ; 1.279170751258378E7 ; 2.013690299502571E8 ; 1.074165047392908E9 ; 1.5649029599198278E10 ; 0.0
87 ; 1.2788033723668963E7 ; 2.0138216972000462E8 ; 1.0869567549054918E9 ; 1.5850398629148535E10 ; 0.0
88 ; 1.277948140154154E7 ; 2.0139529420250142E8 ; 1.099744788629161E9 ; 1.605178079886854E10 ; 0.0
89 ; 1.277604779968361E7 ; 2.0140840295904952E8 ; 1.1125242700307024E9 ; 1.6253176093071041E10 ; 0.0
90 ; 1.2773726806316175E7 ; 2.014214955602997E8 ; 1.125300317830386E9 ; 1.645458449603009E10 ; 0.0
91 ; 1.2766438688716125E7 ; 2.0143457158572495E8 ; 1.138074044636702E9 ; 1.665600599159039E10 ; 0.0
92 ; 1.2762904742234187E7 ; 2.0144763062313107E8 ; 1.1508404833254182E9 ; 1.6857440563176115E10 ; 0.0
93 ; 1.2758029853351044E7 ; 2.0146067226820138E8 ; 1.1636033880676525E9 ; 1.7058888193799246E10 ; 0.0
94 ; 1.2752109268102368E7 ; 2.014736961240729E8 ; 1.1763614179210036E9 ; 1.7260348866067448E10 ; 0.0
95 ; 1.274596842107595E7 ; 2.0148670180094153E8 ; 1.189113527189106E9 ; 1.746182256219152E10 ; 0.0
96 ; 1.2739258469285477E7 ; 2.0149968891569394E8 ; 1.201859495610182E9 ; 1.7663309263992462E10 ; 0.0
97 ; 1.2732847280215004E7 ; 2.015126570915642E8 ; 1.2145987540794675E9 ; 1.7864808952908157E10 ; 0.0
98 ; 1.2725018770566534E7 ; 2.0152560595781317E8 ; 1.2273316013596826E9 ; 1.806632160999972E10 ; 0.0
99 ; 1.272096558816689E7 ; 2.0153853514942887E8 ; 1.240056620130249E9 ; 1.8267847215957535E10 ; 0.0
100 ; 1.2712250405443424E7 ; 2.0155144430684665E8 ; 1.252777585718416E9 ; 1.8469385751106964E10 ; 0.0
101 ; 1.2710186211858511E7 ; 2.0156433307568723E8 ; 1.2654898361238594E9 ; 1.867093719541381E10 ; 0.0
102 ; 1.269990659197532E7 ; 2.0157720110651147E8 ; 1.278200022335718E9 ; 1.88725015284895E10 ; 0.0
103 ; 1.2695201387944818E7 ; 2.015900480545909E8 ; 1.2908999289276931E9 ; 1.907407872959601E10 ; 0.0
104 ; 1.2686389829250488E7 ; 2.016028735796925E8 ; 1.303595130315638E9 ; 1.92756687776506E10 ; 0.0
105 ; 1.2682226028050337E7 ; 2.016156773458769E8 ; 1.3162815201448886E9 ; 1.9477271651230293E10 ; 0.0
106 ; 1.2675444869842399E7 ; 2.0162845902130926E8 ; 1.328963746172939E9 ; 1.967888732857617E10 ; 0.0
107 ; 1.2665371500065915E7 ; 2.016412182780814E8 ; 1.3416391910427814E9 ; 1.988051578759748E10 ; 0.0
108 ; 1.2661357907280302E7 ; 2.0165395479204515E8 ; 1.3543045625428472E9 ; 2.008215700587556E10 ; 0.0
109 ; 1.265308287641436E7 ; 2.0166666824265537E8 ; 1.3669659204501274E9 ; 2.0283810960667606E10 ; 0.0
110 ; 1.2642356056358168E7 ; 2.0167935831282273E8 ; 1.3796190033265417E9 ; 2.0485477628910263E10 ; 0.0
111 ; 1.2637865000654113E7 ; 2.0169202468877488E8 ; 1.3922613593828998E9 ; 2.0687156987223087E10 ; 0.0
112 ; 1.2629804079577036E7 ; 2.017046670599261E8 ; 1.404899224383554E9 ; 2.088884901191186E10 ; 0.0
113 ; 1.2623426058980195E7 ; 2.0171728511875436E8 ; 1.417529028463131E9 ; 2.1090553678971786E10 ; 0.0
114 ; 1.2614661758106975E7 ; 2.017298785606858E8 ; 1.4301524545221112E9 ; 2.129227096409054E10 ; 0.0
115 ; 1.260379775154789E7 ; 2.0174244708398557E8 ; 1.4427671162802181E9 ; 2.1494000842651226E10 ; 0.0
116 ; 1.259862406749214E7 ; 2.01754990389655E8 ; 1.455370914031766E9 ; 2.169574328973521E10 ; 0.0
117 ; 1.2587644809258433E7 ; 2.017675081813349E8 ; 1.4679695380992582E9 ; 2.1897498280124866E10 ; 0.0
118 ; 1.2578340879572103E7 ; 2.0178000016521394E8 ; 1.4805571829085166E9 ; 2.2099265788306202E10 ; 0.0
119 ; 1.2569290880426029E7 ; 2.017924660499425E8 ; 1.4931355237880888E9 ; 2.2301045788471416E10 ; 0.0
120 ; 1.2565014187001083E7 ; 2.0180490554655108E8 ; 1.5057048146685147E9 ; 2.250283825452136E10 ; 0.0
121 ; 1.2551586612552252E7 ; 2.0181731836837342E8 ; 1.5182698288555157E9 ; 2.270464316006791E10 ; 0.0
122 ; 1.2544068213714587E7 ; 2.0182970423097387E8 ; 1.530821415468068E9 ; 2.2906460478436283E10 ; 0.0
123 ; 1.2536992361309873E7 ; 2.018420628520786E8 ; 1.5433654836817825E9 ; 2.3108290182667255E10 ; 0.0
124 ; 1.2524333108699275E7 ; 2.0185439395151064E8 ; 1.5559024760430923E9 ; 2.3310132245519333E10 ; 0.0
125 ; 1.2517191338847533E7 ; 2.0186669725112864E8 ; 1.5684268091517916E9 ; 2.3511986639470844E10 ; 0.0
126 ; 1.2510589046483047E7 ; 2.0187897247476864E8 ; 1.5809440004906392E9 ; 2.3713853336721973E10 ; 0.0
127 ; 1.2497281066168651E7 ; 2.018912193481891E8 ; 1.5934545895371222E9 ; 2.3915732309196743E10 ; 0.0
128 ; 1.2483398095154306E7 ; 2.0190343759901893E8 ; 1.6059518706032908E9 ; 2.4117623528544933E10 ; 0.0
129 ; 1.2476683835149657E7 ; 2.0191562695670837E8 ; 1.618435268698445E9 ; 2.431952696614395E10 ; 0.0
130 ; 1.2464203957820693E7 ; 2.019277871524822E8 ; 1.6309119525335948E9 ; 2.452144259310066E10 ; 0.0
131 ; 1.2449079316167701E7 ; 2.0193991791929564E8 ; 1.6433761564914155E9 ; 2.472337038025314E10 ; 0.0
132 ; 1.243414737227326E7 ; 2.0195201899179262E8 ; 1.655825235807583E9 ; 2.4925310298172436E10 ; 0.0
133 ; 1.24248783543679E7 ; 2.0196409010626605E8 ; 1.6682593831798563E9 ; 2.5127262317164227E10 ; 0.0
134 ; 1.2408176010301825E7 ; 2.0197613100062042E8 ; 1.6806842615342243E9 ; 2.5329226407270493E10 ; 0.0
135 ; 1.239041716886388E7 ; 2.0198814141433606E8 ; 1.693092437544526E9 ; 2.5531202538271114E10 ; 0.0
136 ; 1.2377166094054114E7 ; 2.0200012108843562E8 ; 1.7054828547133899E9 ; 2.573319067968545E10 ; 0.0
137 ; 1.2364047361391222E7 ; 2.020120697654519E8 ; 1.717860020807444E9 ; 2.5935190800773888E10 ; 0.0
138 ; 1.2349667260448055E7 ; 2.0202398718939772E8 ; 1.7302240681688354E9 ; 2.613720287053934E10 ; 0.0
139 ; 1.2333574337643936E7 ; 2.0203587310573715E8 ; 1.7425737354292834E9 ; 2.6339226857728737E10 ; 0.0
140 ; 1.2321061714859936E7 ; 2.0204772726135814E8 ; 1.7549073097669272E9 ; 2.6541262730834473E10 ; 0.0
141 ; 1.2306579530940032E7 ; 2.0205954940454692E8 ; 1.7672283714817872E9 ; 2.674331045809583E10 ; 0.0
142 ; 1.2292312067455206E7 ; 2.020713392849633E8 ; 1.7795349510127273E9 ; 2.6945370007500378E10 ; 0.0
143 ; 1.2273903818022324E7 ; 2.0208309665361762E8 ; 1.7918272630801826E9 ; 2.714744134678534E10 ; 0.0
144 ; 1.2258383890526177E7 ; 2.0209482126284853E8 ; 1.8041011668982048E9 ; 2.7349524443438957E10 ; 0.0
145 ; 1.2248426582161842E7 ; 2.0210651286630225E8 ; 1.816359550788731E9 ; 2.7551619264701805E10 ; 0.0
146 ; 1.223696135470357E7 ; 2.021181712189127E8 ; 1.828607977370893E9 ; 2.7753725777568108E10 ; 0.0
147 ; 1.222633256760934E7 ; 2.0212979607688272E8 ; 1.8408449387255967E9 ; 2.795584394878702E10 ; 0.0
148 ; 1.2214996233186843E7 ; 2.021413871976663E8 ; 1.853071271293206E9 ; 2.8157973744863903E10 ; 0.0
149 ; 1.2204376820257224E7 ; 2.0215294433995163E8 ; 1.865286267526393E9 ; 2.836011513206157E10 ; 0.0
150 ; 1.2193498384031307E7 ; 2.021644672636452E8 ; 1.8774906443466501E9 ; 2.856226807640152E10 ; 0.0
151 ; 1.2183046331545833E7 ; 2.021759557298565E8 ; 1.8896841427306814E9 ; 2.8764432543665165E10 ; 0.0
152 ; 1.2170013246921368E7 ; 2.0218740950088367E8 ; 1.9018671890622272E9 ; 2.896660849939502E10 ; 0.0
153 ; 1.2158270899692213E7 ; 2.021988283402E8 ; 1.9140372023091486E9 ; 2.9168795908895905E10 ; 0.0
154 ; 1.2145946705927957E7 ; 2.0221021201244092E8 ; 1.9261954732088408E9 ; 2.9370994737236103E10 ; 0.0
155 ; 1.2136413656491749E7 ; 2.022215602833918E8 ; 1.9383414199147687E9 ; 2.9573204949248543E10 ; 0.0
156 ; 1.2126462118166408E7 ; 2.0223287291997635E8 ; 1.9504778335712605E9 ; 2.9775426509531933E10 ; 0.0
157 ; 1.2112324907324808E7 ; 2.0224414969024578E8 ; 1.962604295689427E9 ; 2.997765938245191E10 ; 0.0
158 ; 1.2103899445747541E7 ; 2.022553903633683E8 ; 1.9747166205967517E9 ; 3.0179903532142155E10 ; 0.0
159 ; 1.2085666432276564E7 ; 2.0226659470961946E8 ; 1.9868205200424993E9 ; 3.0382158922505524E10 ; 0.0
160 ; 1.2077603664823769E7 ; 2.022777625003728E8 ; 1.9989061864747758E9 ; 3.058442551721514E10 ; 0.0
161 ; 1.206565006631149E7 ; 2.022888935080911E8 ; 2.0109837901395996E9 ; 3.0786703279715515E10 ; 0.0
162 ; 1.2055944273855088E7 ; 2.0229998750631815E8 ; 2.0230494402059112E9 ; 3.0988992173223606E10 ; 0.0
163 ; 1.2042892669995818E7 ; 2.0231104426967102E8 ; 2.0351053844797661E9 ; 3.1191292160729923E10 ; 0.0
164 ; 1.2032640021901002E7 ; 2.023220635738325E8 ; 2.047148277149762E9 ; 3.1393603204999596E10 ; 0.0
165 ; 1.2020413450038407E7 ; 2.0233304519554442E8 ; 2.0591809171716628E9 ; 3.159592526857343E10 ; 0.0
166 ; 1.200687207590306E7 ; 2.0234398891260085E8 ; 2.0712013306217012E9 ; 3.1798258313768974E10 ; 0.0
167 ; 1.199619125254902E7 ; 2.0235489450384218E8 ; 2.0832082026976044E9 ; 3.2000602302681576E10 ; 0.0
168 ; 1.1983561236078797E7 ; 2.0236576174914926E8 ; 2.0952043939501534E9 ; 3.2202957197185417E10 ; 0.0
169 ; 1.1969533266586555E7 ; 2.0237659042943788E8 ; 2.107187955186232E9 ; 3.2405322958934566E10 ; 0.0
170 ; 1.195943047337994E7 ; 2.023873803266538E8 ; 2.1191574884528186E9 ; 3.2607699549364006E10 ; 0.0
171 ; 1.1945505175366074E7 ; 2.0239813122376794E8 ; 2.1311169189261985E9 ; 3.281008692969066E10 ; 0.0
172 ; 1.1936136814898023E7 ; 2.0240884290477186E8 ; 2.1430624241015646E9 ; 3.3012485060914425E10 ; 0.0
173 ; 1.1919837077224374E7 ; 2.0241951515467364E8 ; 2.154998560916463E9 ; 3.32148939038192E10 ; 0.0
174 ; 1.1912755104657358E7 ; 2.024301477594939E8 ; 2.166918397993687E9 ; 3.3417313418973873E10 ; 0.0
175 ; 1.1907095525074262E7 ; 2.0244074050626227E8 ; 2.1788311530983443E9 ; 3.3619743566733368E10 ; 0.0
176 ; 1.1899010336518519E7 ; 2.0245129318301392E8 ; 2.190738248623419E9 ; 3.382218430723963E10 ; 0.0
177 ; 1.189228462759535E7 ; 2.0246180557878643E8 ; 2.202637258959937E9 ; 3.4024635600422646E10 ; 0.0
178 ; 1.1882750917461043E7 ; 2.02472277483617E8 ; 2.2145295435875325E9 ; 3.422709740600143E10 ; 0.0
179 ; 1.1877512797977269E7 ; 2.024827086885396E8 ; 2.2264122945049934E9 ; 3.442956968348505E10 ; 0.0
180 ; 1.1869001810416449E7 ; 2.024930989855826E8 ; 2.238289807302971E9 ; 3.4632052392173584E10 ; 0.0
181 ; 1.185944390709728E7 ; 2.0250344816776645E8 ; 2.250158809113387E9 ; 3.4834545491159164E10 ; 0.0
182 ; 1.1853499436352422E7 ; 2.0251375602910167E8 ; 2.2620182530204844E9 ; 3.503704893932693E10 ; 0.0
183 ; 1.1846077085097708E7 ; 2.0252402236458692E8 ; 2.2738717524568367E9 ; 3.5239562695356026E10 ; 0.0
184 ; 1.1843068056368705E7 ; 2.0253424697020733E8 ; 2.2857178295419345E9 ; 3.544208671772061E10 ; 0.0
185 ; 1.1831284399187306E7 ; 2.025444296429329E8 ; 2.2975608975983033E9 ; 3.564462096469082E10 ; 0.0
186 ; 1.1825420015757214E7 ; 2.0255457018071714E8 ; 2.3093921819974904E9 ; 3.5847165394333755E10 ; 0.0
187 ; 1.1816410063407416E7 ; 2.0256466838249594E8 ; 2.3212176020132475E9 ; 3.604971996451447E10 ; 0.0
188 ; 1.1811136906535376E7 ; 2.0257472404818636E8 ; 2.333034012076655E9 ; 3.625228463289697E10 ; 0.0
189 ; 1.1804901310205093E7 ; 2.025847369786858E8 ; 2.34484514898319E9 ; 3.645485935694516E10 ; 0.0
190 ; 1.1795139868791986E7 ; 2.025947069758712E8 ; 2.356650050293395E9 ; 3.665744409392384E10 ; 0.0
191 ; 1.17851099380549E7 ; 2.0260463384259832E8 ; 2.368445190162187E9 ; 3.686003880089971E10 ; 0.0
192 ; 1.1781405086480286E7 ; 2.026145173827013E8 ; 2.380230300100242E9 ; 3.706264343474231E10 ; 0.0
193 ; 1.1773639959049774E7 ; 2.0262435740099218E8 ; 2.3920117051867223E9 ; 3.726525795212501E10 ; 0.0
194 ; 1.1770210955100963E7 ; 2.0263415370326054E8 ; 2.403785345145772E9 ; 3.7467882309526E10 ; 0.0
195 ; 1.1756467531124404E7 ; 2.0264390609627348E8 ; 2.415555556100873E9 ; 3.767051646322926E10 ; 0.0
