CSV File for the City 3 on Day 362
1 - Minute m 
2 - Power Consumed at minute m 
3 - Power Produced at minute m 
4 - Energy Consumed since the beginning of the day 
5 - Energy Produced since the beginning of the day 
6 - Energy Lost since the beginning of the day on lines starting from the city
 
0 ; 2377640.2737038727 ; 1.0542936911528715E8 ; 0.0 ; 0.0 ; 0.0
1 ; 2381656.606105546 ; 1.05582180065454E8 ; 2377640.2737038727 ; 1.0542936911528715E8 ; 0.0
2 ; 2383016.7096234714 ; 1.0604378434178552E8 ; 4759296.879809419 ; 2.1101154918074116E8 ; 0.0
3 ; 2386391.3048517853 ; 1.0681418438571072E8 ; 7142313.58943289 ; 3.170553335225267E8 ; 0.0
4 ; 2389705.7540361495 ; 1.0789338240406579E8 ; 9528704.894284675 ; 4.238695179082374E8 ; 0.0
5 ; 2395595.813475478 ; 1.0928138035065651E8 ; 1.1918410648320824E7 ; 5.317629003123032E8 ; 0.0
6 ; 2400524.2126605865 ; 1.1097817990944442E8 ; 1.4314006461796302E7 ; 6.410442806629597E8 ; 0.0
7 ; 2407014.339932192 ; 1.1298378247968334E8 ; 1.6714530674456889E7 ; 7.520224605724041E8 ; 0.0
8 ; 2418273.4767126204 ; 1.1529818916330391E8 ; 1.9121545014389083E7 ; 8.650062430520875E8 ; 0.0
9 ; 2434923.142658537 ; 1.1792140075481045E8 ; 2.1539818491101705E7 ; 9.803044322153914E8 ; 0.0
10 ; 2460196.721405722 ; 1.208534177339027E8 ; 2.397474163376024E7 ; 1.098225832970202E9 ; 0.0
11 ; 2503642.3649532646 ; 1.2409424026098332E8 ; 2.6434938355165962E7 ; 1.2190792507041047E9 ; 0.0
12 ; 2569336.959281167 ; 1.2764386817564961E8 ; 2.8938580720119227E7 ; 1.343173490965088E9 ; 0.0
13 ; 2633245.997425664 ; 1.3150230099820185E8 ; 3.1507917679400392E7 ; 1.4708173591407375E9 ; 0.0
14 ; 2640763.9626979814 ; 1.356695379341358E8 ; 3.414116367682606E7 ; 1.6023196601389394E9 ; 0.0
15 ; 2642298.4049916486 ; 1.401455778815207E8 ; 3.678192763952404E7 ; 1.7379891980730753E9 ; 0.0
16 ; 2645577.866368423 ; 1.4493041944110283E8 ; 3.942422604451569E7 ; 1.878134775954596E9 ; 0.0
17 ; 2648360.8339989777 ; 1.500240609289206E8 ; 4.206980391088411E7 ; 2.0230651953956988E9 ; 0.0
18 ; 2652146.552941849 ; 1.5542650039116824E8 ; 4.471816474488309E7 ; 2.1730892563246193E9 ; 0.0
19 ; 2654200.702218186 ; 1.6113773562100956E8 ; 4.737031129782494E7 ; 2.3285157567157874E9 ; 0.0
20 ; 2657039.992709519 ; 1.671577641770155E8 ; 5.0024512000043124E7 ; 2.4896534923367968E9 ; 0.0
21 ; 2660128.050365286 ; 1.7348658340288284E8 ; 5.268155199275264E7 ; 2.656811256513812E9 ; 0.0
22 ; 2664584.611170443 ; 1.8012419044808602E8 ; 5.5341680043117926E7 ; 2.830297839916695E9 ; 0.0
23 ; 2667625.0175155317 ; 1.8707058228912055E8 ; 5.800626465428837E7 ; 3.0104220303647814E9 ; 0.0
24 ; 2669224.5499923155 ; 1.943257557510063E8 ; 6.06738896718039E7 ; 3.197492612653902E9 ; 0.0
25 ; 2673534.2496784097 ; 2.005777484269287E8 ; 6.3343114221796215E7 ; 3.391818368404908E9 ; 0.0
26 ; 2676000.1776390495 ; 2.0058010473626426E8 ; 6.6016648471474625E7 ; 3.5923961168318367E9 ; 0.0
27 ; 2680524.7869443176 ; 2.0058259047003812E8 ; 6.869264864911367E7 ; 3.792976221568101E9 ; 0.0
28 ; 2682939.9886544673 ; 2.0058520205746138E8 ; 7.137317343605798E7 ; 3.993558812038139E9 ; 0.0
29 ; 2685290.8915154007 ; 2.00587935877975E8 ; 7.405611342471245E7 ; 4.1941440140956E9 ; 0.0
30 ; 2686324.6762015764 ; 2.005907882789406E8 ; 7.674140431622785E7 ; 4.394731949973576E9 ; 0.0
31 ; 2689956.973413098 ; 2.0059375559211868E8 ; 7.942772899242944E7 ; 4.595322738252516E9 ; 0.0
32 ; 2695718.627648451 ; 2.0059683414886045E8 ; 8.211768596584253E7 ; 4.795916493844634E9 ; 0.0
33 ; 2694627.638679186 ; 2.0060002029397222E8 ; 8.481340459349099E7 ; 4.996513327993494E9 ; 0.0
34 ; 2699333.3553344584 ; 2.0060331039823627E8 ; 8.750803223217018E7 ; 5.197113348287466E9 ; 0.0
35 ; 2699917.7032517893 ; 2.006067008695975E8 ; 9.020736558750464E7 ; 5.397716658685702E9 ; 0.0
36 ; 2704032.1760541527 ; 2.006101881630441E8 ; 9.290728329075643E7 ; 5.5983233595553E9 ; 0.0
37 ; 2705699.413448306 ; 2.0061376878922683E8 ; 9.561131546681058E7 ; 5.798933547718344E9 ; 0.0
38 ; 2707719.333367793 ; 2.006174393218755E8 ; 9.831701488025889E7 ; 5.99954731650757E9 ; 0.0
39 ; 2711812.482693721 ; 2.0062119640407982E8 ; 1.0102473421362668E8 ; 6.200164755829446E9 ; 0.0
40 ; 2713926.3419137686 ; 2.0062503675350922E8 ; 1.037365466963204E8 ; 6.400785952233525E9 ; 0.0
41 ; 2714963.1423636777 ; 2.0062895716665104E8 ; 1.0645047303823417E8 ; 6.601410988987035E9 ; 0.0
42 ; 2714808.8529564836 ; 2.0063295452214783E8 ; 1.0916543618059786E8 ; 6.802039946153686E9 ; 0.0
43 ; 2718817.7845195606 ; 2.0063702578331545E8 ; 1.1188024503355435E8 ; 7.002672900675834E9 ; 0.0
44 ; 2719627.1091172122 ; 2.0064116799992225E8 ; 1.145990628180739E8 ; 7.203309926459149E9 ; 0.0
45 ; 2721126.3873051107 ; 2.0064537830930725E8 ; 1.1731868992719111E8 ; 7.403951094459071E9 ; 0.0
46 ; 2722699.9876782796 ; 2.006496539369121E8 ; 1.2003981631449622E8 ; 7.604596472768378E9 ; 0.0
47 ; 2722403.5187345683 ; 2.0065399219629687E8 ; 1.227625163021745E8 ; 7.805246126705291E9 ; 0.0
48 ; 2726112.7339520203 ; 2.0065839048870692E8 ; 1.2548491982090907E8 ; 8.0059001189015875E9 ; 0.0
49 ; 2728560.935841206 ; 2.006628463022509E8 ; 1.2821103255486108E8 ; 8.206558509390294E9 ; 0.0
50 ; 2727462.3520574626 ; 2.0066735721074775E8 ; 1.3093959349070229E8 ; 8.407221355692545E9 ; 0.0
51 ; 2726715.8996259626 ; 2.0067192087229326E8 ; 1.3366705584275974E8 ; 8.607888712903294E9 ; 0.0
52 ; 2729651.00694589 ; 2.0067653502759397E8 ; 1.3639377174238572E8 ; 8.808560633775587E9 ; 0.0
53 ; 2728564.6369605963 ; 2.0068119749810955E8 ; 1.391234227493316E8 ; 9.00923716880318E9 ; 0.0
54 ; 2730978.544619167 ; 2.006859061840426E8 ; 1.418519873862922E8 ; 9.20991836630129E9 ; 0.0
55 ; 2730177.7717374545 ; 2.0069065906220844E8 ; 1.4458296593091136E8 ; 9.410604272485332E9 ; 0.0
56 ; 2731015.9797614724 ; 2.006954541838152E8 ; 1.4731314370264882E8 ; 9.61129493154754E9 ; 0.0
57 ; 2733268.824543396 ; 2.007002896721797E8 ; 1.500441596824103E8 ; 9.811990385731356E9 ; 0.0
58 ; 2732817.1103352164 ; 2.0070516372040236E8 ; 1.527774285069537E8 ; 1.0012690675403536E10 ; 0.0
59 ; 2735191.842761766 ; 2.007100745890205E8 ; 1.5551024561728892E8 ; 1.0213395839123938E10 ; 0.0
60 ; 2734776.3667324833 ; 2.007150206036568E8 ; 1.5824543746005067E8 ; 1.0414105913712957E10 ; 0.0
61 ; 2733508.584368172 ; 2.0072000015267792E8 ; 1.6098021382678315E8 ; 1.0614820934316614E10 ; 0.0
62 ; 2735368.6449468294 ; 2.0072501168487453E8 ; 1.6371372241115132E8 ; 1.0815540934469292E10 ; 0.0
63 ; 2735679.1435217396 ; 2.0073005370717415E8 ; 1.6644909105609816E8 ; 1.1016265946154167E10 ; 0.0
64 ; 2735745.722751369 ; 2.0073512478239402E8 ; 1.691847701996199E8 ; 1.1216995999861341E10 ; 0.0
65 ; 2735278.11134715 ; 2.007402235270418E8 ; 1.7192051592237127E8 ; 1.1417731124643736E10 ; 0.0
66 ; 2737236.7077316125 ; 2.0074534860916933E8 ; 1.746557940337184E8 ; 1.1618471348170778E10 ; 0.0
67 ; 2739703.503358893 ; 2.0075049874628347E8 ; 1.7739303074145E8 ; 1.1819216696779947E10 ; 0.0
68 ; 2737778.193257435 ; 2.0075567270331785E8 ; 1.801327342448089E8 ; 1.201996719552623E10 ; 0.0
69 ; 2737811.992589324 ; 2.0076086929066738E8 ; 1.8287051243806633E8 ; 1.2220722868229548E10 ; 0.0
70 ; 2738597.450231902 ; 2.0076608736228764E8 ; 1.8560832443065566E8 ; 1.2421483737520214E10 ; 0.0
71 ; 2737973.364048559 ; 2.0077132581385943E8 ; 1.8834692188088757E8 ; 1.2622249824882502E10 ; 0.0
72 ; 2739201.1824779115 ; 2.0077658358101976E8 ; 1.9108489524493614E8 ; 1.2823021150696362E10 ; 0.0
73 ; 2740043.289440108 ; 2.0078185963765812E8 ; 1.9382409642741406E8 ; 1.3023797734277382E10 ; 0.0
74 ; 2741244.851728054 ; 2.0078715299427852E8 ; 1.9656413971685416E8 ; 1.322457959391504E10 ; 0.0
75 ; 2739268.598626204 ; 2.0079246269642568E8 ; 1.993053845685822E8 ; 1.3425366746909317E10 ; 0.0
76 ; 2741999.147650259 ; 2.007977878231748E8 ; 2.020446531672084E8 ; 1.3626159209605743E10 ; 0.0
77 ; 2740413.1177540016 ; 2.0080312748568323E8 ; 2.0478665231485868E8 ; 1.3826956997428919E10 ; 0.0
78 ; 2740454.257630305 ; 2.008084808258029E8 ; 2.075270654326127E8 ; 1.4027760124914602E10 ; 0.0
79 ; 2739135.132975722 ; 2.0081384701475132E8 ; 2.10267519690243E8 ; 1.4228568605740406E10 ; 0.0
80 ; 2738992.678699326 ; 2.008192252518401E8 ; 2.1300665482321873E8 ; 1.4429382452755157E10 ; 0.0
81 ; 2737751.730831382 ; 2.0082461476325855E8 ; 2.1574564750191805E8 ; 1.4630201678006998E10 ; 0.0
82 ; 2736608.5160222864 ; 2.0083001480091083E8 ; 2.1848339923274943E8 ; 1.4831026292770256E10 ; 0.0
83 ; 2736512.1253588703 ; 2.008354246413047E8 ; 2.2122000774877173E8 ; 1.5031856307571167E10 ; 0.0
84 ; 2736329.7175995964 ; 2.0084084358448997E8 ; 2.239565198741306E8 ; 1.5232691732212471E10 ; 0.0
85 ; 2734717.909297965 ; 2.0084627095304456E8 ; 2.266928495917302E8 ; 1.543353257579696E10 ; 0.0
86 ; 2734325.2952414504 ; 2.0085170609110668E8 ; 2.2942756750102818E8 ; 1.5634378846750006E10 ; 0.0
87 ; 2733909.6072181575 ; 2.0085714836345062E8 ; 2.3216189279626963E8 ; 1.5835230552841112E10 ; 0.0
88 ; 2730098.149685023 ; 2.008625971546052E8 ; 2.3489580240348777E8 ; 1.6036087701204563E10 ; 0.0
89 ; 2732956.4558437853 ; 2.0086805186801225E8 ; 2.376259005531728E8 ; 1.6236950298359169E10 ; 0.0
90 ; 2729126.14007353 ; 2.0087351192522374E8 ; 2.4035885700901657E8 ; 1.643781835022718E10 ; 0.0
91 ; 2728001.821527771 ; 2.0087897676513606E8 ; 2.430879831490901E8 ; 1.6638691862152405E10 ; 0.0
92 ; 2727888.0712434463 ; 2.0088444584325945E8 ; 2.458159849706179E8 ; 1.6839570838917542E10 ; 0.0
93 ; 2725922.766486005 ; 2.00889918631021E8 ; 2.4854387304186133E8 ; 1.7040455284760801E10 ; 0.0
94 ; 2725985.485192949 ; 2.008953946151001E8 ; 2.5126979580834734E8 ; 1.7241345203391823E10 ; 0.0
95 ; 2725038.0158610474 ; 2.0090087329679435E8 ; 2.539957812935403E8 ; 1.7442240598006924E10 ; 0.0
96 ; 2723364.7907601316 ; 2.0090635419141492E8 ; 2.5672081930940133E8 ; 1.764314147130372E10 ; 0.0
97 ; 2722460.819379778 ; 2.0091183682770947E8 ; 2.5944418410016146E8 ; 1.7844047825495132E10 ; 0.0
98 ; 2721120.196051935 ; 2.0091732074731216E8 ; 2.6216664491954124E8 ; 1.804495966232284E10 ; 0.0
99 ; 2720517.1589690247 ; 2.0092280550421855E8 ; 2.6488776511559317E8 ; 1.8245876983070152E10 ; 0.0
100 ; 2719163.0650495426 ; 2.009282906642848E8 ; 2.6760828227456218E8 ; 1.844679978857437E10 ; 0.0
101 ; 2716962.471799432 ; 2.0093377580475006E8 ; 2.703274453396117E8 ; 1.8647728079238655E10 ; 0.0
102 ; 2715660.2421121527 ; 2.0093926051378024E8 ; 2.7304440781141114E8 ; 1.8848661855043404E10 ; 0.0
103 ; 2715098.942208211 ; 2.0094474439003322E8 ; 2.757600680535233E8 ; 1.9049601115557182E10 ; 0.0
104 ; 2714382.203841941 ; 2.0095022704224348E8 ; 2.7847516699573153E8 ; 1.9250545859947216E10 ; 0.0
105 ; 2711423.6976175834 ; 2.009557080888258E8 ; 2.8118954919957346E8 ; 1.945149608698946E10 ; 0.0
106 ; 2710969.834279784 ; 2.0096118715749687E8 ; 2.8390097289719105E8 ; 1.9652451795078285E10 ; 0.0
107 ; 2710315.5149683724 ; 2.009666638849141E8 ; 2.866119427314708E8 ; 1.9853412982235783E10 ; 0.0
108 ; 2706477.4928821865 ; 2.0097213791633067E8 ; 2.893222582464392E8 ; 2.0054379646120697E10 ; 0.0
109 ; 2707961.3251509075 ; 2.0097760890526617E8 ; 2.920287357393214E8 ; 2.025535178403703E10 ; 0.0
110 ; 2706215.7684410024 ; 2.0098307651319185E8 ; 2.947366970644723E8 ; 2.0456329392942295E10 ; 0.0
111 ; 2703487.672003808 ; 2.0098854040923008E8 ; 2.9744291283291334E8 ; 2.0657312469455486E10 ; 0.0
112 ; 2702414.8922971734 ; 2.009940002698672E8 ; 3.0014640050491714E8 ; 2.0858301009864716E10 ; 0.0
113 ; 2701817.9501041984 ; 2.0099945577867904E8 ; 3.028488153972143E8 ; 2.1059295010134583E10 ; 0.0
114 ; 2699734.81822296 ; 2.0100490662606853E8 ; 3.055506333473185E8 ; 2.126029446591326E10 ; 0.0
115 ; 2697165.6712850705 ; 2.0101035250901505E8 ; 3.082503681655414E8 ; 2.146129937253933E10 ; 0.0
116 ; 2696334.1611810615 ; 2.010157931308346E8 ; 3.109475338368265E8 ; 2.1662309725048344E10 ; 0.0
117 ; 2696106.00174766 ; 2.0102122820095062E8 ; 3.1364386799800754E8 ; 2.186332551817918E10 ; 0.0
118 ; 2693180.8065994005 ; 2.0102665743467465E8 ; 3.163399739997552E8 ; 2.206434674638013E10 ; 0.0
119 ; 2692496.5057600765 ; 2.010320805529965E8 ; 3.190331548063546E8 ; 2.2265373403814804E10 ; 0.0
120 ; 2690057.4379508067 ; 2.0103749728238365E8 ; 3.2172565131211466E8 ; 2.24664054843678E10 ; 0.0
121 ; 2688034.429761529 ; 2.0104290735458922E8 ; 3.2441570875006545E8 ; 2.2667442981650185E10 ; 0.0
122 ; 2686863.45963901 ; 2.0104831050646806E8 ; 3.27103743179827E8 ; 2.2868485889004772E10 ; 0.0
123 ; 2683416.2891358417 ; 2.010537064798007E8 ; 3.29790606639466E8 ; 2.3069534199511242E10 ; 0.0
124 ; 2682138.8771245563 ; 2.0105909502112502E8 ; 3.324740229286018E8 ; 2.3270587905991043E10 ; 0.0
125 ; 2680175.1578446985 ; 2.010644758815748E8 ; 3.3515616180572635E8 ; 2.347164700101217E10 ; 0.0
126 ; 2678227.3100377535 ; 2.0106984881672516E8 ; 3.378363369635711E8 ; 2.3672711476893745E10 ; 0.0
127 ; 2676112.4333583475 ; 2.010752135864445E8 ; 3.405145642736088E8 ; 2.3873781325710472E10 ; 0.0
128 ; 2674651.1965012853 ; 2.0108056995475253E8 ; 3.431906767069672E8 ; 2.4074856539296917E10 ; 0.0
129 ; 2673622.314775059 ; 2.0108591768968457E8 ; 3.458653279034685E8 ; 2.427593710925167E10 ; 0.0
130 ; 2670210.050843864 ; 2.0109125656316084E8 ; 3.4853895021824354E8 ; 2.4477023026941357E10 ; 0.0
131 ; 2667367.365838641 ; 2.0109658635086176E8 ; 3.512091602690874E8 ; 2.4678114283504517E10 ; 0.0
132 ; 2664956.363033818 ; 2.011019068321081E8 ; 3.53876527634926E8 ; 2.4879210869855377E10 ; 0.0
133 ; 2662099.3068874707 ; 2.0110721778974602E8 ; 3.5654148399795985E8 ; 2.5080312776687485E10 ; 0.0
134 ; 2658941.5646000584 ; 2.0111251901003677E8 ; 3.592035833048473E8 ; 2.528141999447723E10 ; 0.0
135 ; 2658224.2131855492 ; 2.011178102825511E8 ; 3.6186252486944735E8 ; 2.5482532513487267E10 ; 0.0
136 ; 2652460.5601826147 ; 2.011230914000677E8 ; 3.645207490826329E8 ; 2.5683650323769817E10 ; 0.0
137 ; 2650310.321067621 ; 2.0112836215847567E8 ; 3.6717320964281553E8 ; 2.5884773415169884E10 ; 0.0
138 ; 2647031.3622465963 ; 2.0113362235668132E8 ; 3.6982351996388316E8 ; 2.6085901777328358E10 ; 0.0
139 ; 2644580.750043299 ; 2.011388717965181E8 ; 3.7247055132612973E8 ; 2.628703539968504E10 ; 0.0
140 ; 2641265.184503834 ; 2.0114411028266057E8 ; 3.75115132076173E8 ; 2.6488174271481556E10 ; 0.0
141 ; 2637954.561846328 ; 2.011493376225416E8 ; 3.7775639726067686E8 ; 2.6689318381764217E10 ; 0.0
142 ; 2636187.3645684035 ; 2.0115455362627286E8 ; 3.803943518225232E8 ; 2.689046771938676E10 ; 0.0
143 ; 2631421.967826235 ; 2.0115975810656828E8 ; 3.830305391870916E8 ; 2.7091622273013035E10 ; 0.0
144 ; 2630221.9114804436 ; 2.011649508786708E8 ; 3.8566196115491784E8 ; 2.7292782031119602E10 ; 0.0
145 ; 2628625.8861022005 ; 2.0117013176028177E8 ; 3.8829218306639826E8 ; 2.7493946981998272E10 ; 0.0
146 ; 2626842.2392552844 ; 2.0117530057149303E8 ; 3.9092080895250046E8 ; 2.7695117113758553E10 ; 0.0
147 ; 2622873.6691329405 ; 2.011804571347218E8 ; 3.935476511917558E8 ; 2.7896292414330044E10 ; 0.0
148 ; 2621072.539614286 ; 2.0118560127464795E8 ; 3.961705248608887E8 ; 2.8097472871464767E10 ; 0.0
149 ; 2618832.9615466995 ; 2.0119073281815377E8 ; 3.98791597400503E8 ; 2.8298658472739414E10 ; 0.0
150 ; 2616983.807285576 ; 2.011958515942658E8 ; 4.014104303620497E8 ; 2.8499849205557568E10 ; 0.0
151 ; 2612930.6809116006 ; 2.012009574340992E8 ; 4.0402741416933525E8 ; 2.8701045057151833E10 ; 0.0
152 ; 2612443.4461730914 ; 2.0120605017080402E8 ; 4.0664034485024685E8 ; 2.890224601458593E10 ; 0.0
153 ; 2609713.0570023116 ; 2.0121112963951355E8 ; 4.092527882964199E8 ; 2.9103452064756733E10 ; 0.0
154 ; 2607315.2322247014 ; 2.012161956772945E8 ; 4.118625013534222E8 ; 2.9304663194396248E10 ; 0.0
155 ; 2606046.051304453 ; 2.0122124812309927E8 ; 4.144698165856469E8 ; 2.9505879390073544E10 ; 0.0
156 ; 2604330.187964342 ; 2.0122628681771988E8 ; 4.170758626369514E8 ; 2.9707100638196644E10 ; 0.0
157 ; 2600405.8051781463 ; 2.0123131160374346E8 ; 4.196801928249157E8 ; 2.9908326925014362E10 ; 0.0
158 ; 2600418.92203856 ; 2.012363223255097E8 ; 4.222805986300939E8 ; 3.0109558236618107E10 ; 0.0
159 ; 2597940.252321226 ; 2.0124131882906955E8 ; 4.248810175521324E8 ; 3.0310794558943615E10 ; 0.0
160 ; 2595392.613855816 ; 2.0124630096214578E8 ; 4.274789578044537E8 ; 3.0512035877772686E10 ; 0.0
161 ; 2594250.2232209197 ; 2.0125126857409453E8 ; 4.300743504183095E8 ; 3.0713282178734833E10 ; 0.0
162 ; 2591611.4241754804 ; 2.0125622151586872E8 ; 4.3266860064153045E8 ; 3.0914533447308926E10 ; 0.0
163 ; 2589487.460173161 ; 2.0126115963998258E8 ; 4.3526021206570596E8 ; 3.1115789668824795E10 ; 0.0
164 ; 2586601.62299527 ; 2.0126608280047736E8 ; 4.3784969952587914E8 ; 3.131705082846478E10 ; 0.0
165 ; 2585830.0091254073 ; 2.0127099085288846E8 ; 4.404363011488744E8 ; 3.1518316911265255E10 ; 0.0
166 ; 2582521.6923581767 ; 2.0127588365421376E8 ; 4.430221311579998E8 ; 3.1719587902118145E10 ; 0.0
167 ; 2578012.84354003 ; 2.0128076106288284E8 ; 4.45604652850358E8 ; 3.1920863785772358E10 ; 0.0
168 ; 2577234.707788537 ; 2.012856229387276E8 ; 4.48182665693898E8 ; 3.212214454683524E10 ; 0.0
169 ; 2573731.5637564133 ; 2.0129046914295366E8 ; 4.5075990040168655E8 ; 3.2323430169773968E10 ; 0.0
170 ; 2572355.6560508735 ; 2.0129529953811312E8 ; 4.5333363196544296E8 ; 3.252472063891692E10 ; 0.0
171 ; 2572073.166538301 ; 2.013001139880778E8 ; 4.559059876214938E8 ; 3.2726015938455032E10 ; 0.0
172 ; 2567292.3263346073 ; 2.0130491235801387E8 ; 4.584780607880321E8 ; 3.292731605244311E10 ; 0.0
173 ; 2564592.9081476256 ; 2.0130969451435715E8 ; 4.610453531143667E8 ; 3.3128620964801125E10 ; 0.0
174 ; 2562943.2391516403 ; 2.0131446032478938E8 ; 4.6360994602251434E8 ; 3.3329930659315483E10 ; 0.0
175 ; 2563014.7922794046 ; 2.0131920965821514E8 ; 4.66172889261666E8 ; 3.3531245119640274E10 ; 0.0
176 ; 2562007.5641124817 ; 2.0132394238473982E8 ; 4.687359040539454E8 ; 3.373256432929849E10 ; 0.0
177 ; 2561550.107314317 ; 2.0132865837564817E8 ; 4.712979116180579E8 ; 3.3933888271683228E10 ; 0.0
178 ; 2560429.787870403 ; 2.013333575033837E8 ; 4.738594617253722E8 ; 3.4135216930058876E10 ; 0.0
179 ; 2557022.5364017324 ; 2.0133803964152876E8 ; 4.764198915132426E8 ; 3.433655028756226E10 ; 0.0
180 ; 2556110.629927597 ; 2.0134270466478524E8 ; 4.7897691404964435E8 ; 3.453788832720379E10 ; 0.0
181 ; 2554678.291831718 ; 2.0134735244895607E8 ; 4.815330246795719E8 ; 3.4739231031868576E10 ; 0.0
182 ; 2551332.605545106 ; 2.0135198287092727E8 ; 4.8408770297140366E8 ; 3.4940578384317535E10 ; 0.0
183 ; 2552683.788572132 ; 2.0135659580865058E8 ; 4.8663903557694876E8 ; 3.514193036718846E10 ; 0.0
184 ; 2550393.9101289175 ; 2.0136119114112678E8 ; 4.891917193655209E8 ; 3.534328696299711E10 ; 0.0
185 ; 2549581.737426525 ; 2.013657687483896E8 ; 4.917421132756498E8 ; 3.554464815413824E10 ; 0.0
186 ; 2547626.455161524 ; 2.013703285114899E8 ; 4.942916950130763E8 ; 3.574601392288663E10 ; 0.0
187 ; 2546433.653892092 ; 2.013748703124808E8 ; 4.968393214682378E8 ; 3.594738425139812E10 ; 0.0
188 ; 2544389.1795517886 ; 2.0137939403440312E8 ; 4.993857551221299E8 ; 3.6148759121710594E10 ; 0.0
189 ; 2543285.993904247 ; 2.013838995612711E8 ; 5.019301443016817E8 ; 3.6350138515744995E10 ; 0.0
190 ; 2541865.6660261275 ; 2.01388386778059E8 ; 5.0447343029558593E8 ; 3.655152241530627E10 ; 0.0
191 ; 2540807.258021998 ; 2.0139285557068792E8 ; 5.0701529596161205E8 ; 3.675291080208433E10 ; 0.0
192 ; 2538702.955021134 ; 2.013973058260131E8 ; 5.0955610321963406E8 ; 3.6954303657655014E10 ; 0.0
193 ; 2536848.824283313 ; 2.0140173743181154E8 ; 5.120948061746552E8 ; 3.7155700963481026E10 ; 0.0
194 ; 2536793.6361380783 ; 2.0140615027677035E8 ; 5.146316549989385E8 ; 3.7357102700912834E10 ; 0.0
195 ; 2532714.679439703 ; 2.0141054425047514E8 ; 5.171684486350766E8 ; 3.7558508851189606E10 ; 0.0
196 ; 2533988.2348000766 ; 2.0141491924339896E8 ; 5.197011633145163E8 ; 3.775991939544008E10 ; 0.0
197 ; 2532750.175203323 ; 2.0141927514689165E8 ; 5.222351515493164E8 ; 3.796133431468348E10 ; 0.0
198 ; 2530782.6475931723 ; 2.0142361185316947E8 ; 5.247679017245197E8 ; 3.816275358983037E10 ; 0.0
199 ; 2528935.336033084 ; 2.0142792925530505E8 ; 5.2729868437211293E8 ; 3.836417720168354E10 ; 0.0
