CSV File for the City 4 on Day 62
1 - Minute m 
2 - Power Consumed at minute m 
3 - Power Produced at minute m 
4 - Energy Consumed since the beginning of the day 
5 - Energy Produced since the beginning of the day 
6 - Energy Lost since the beginning of the day on lines starting from the city
 
0 ; 6804811.047709963 ; 1.0595926067589644E8 ; 0.0 ; 0.0 ; 0.0
1 ; 6809165.570461636 ; 1.0610955926840198E8 ; 6804811.047709963 ; 1.0595926067589644E8 ; 0.0
2 ; 6816972.569009341 ; 1.0656890506377378E8 ; 1.3613976618171599E7 ; 2.1206881994429842E8 ; 0.0
3 ; 6821848.618107995 ; 1.073373039261865E8 ; 2.043094918718094E7 ; 3.186377250080722E8 ; 0.0
4 ; 6837608.678107679 ; 1.0841476114269131E8 ; 2.7252797805288933E7 ; 4.259750289342587E8 ; 0.0
5 ; 6848031.307100432 ; 1.098012813834095E8 ; 3.409040648339661E7 ; 5.3438979007695E8 ; 0.0
6 ; 6865124.950566969 ; 1.1149686866543123E8 ; 4.093843779049704E7 ; 6.441910714603596E8 ; 0.0
7 ; 6884432.906124371 ; 1.1350152632105243E8 ; 4.780356274106401E7 ; 7.556879401257908E8 ; 0.0
8 ; 6918000.209831364 ; 1.158152569709248E8 ; 5.468799564718838E7 ; 8.691894664468433E8 ; 0.0
9 ; 6970320.106285334 ; 1.1843806250261992E8 ; 6.1605995857019745E7 ; 9.85004723417768E8 ; 0.0
10 ; 7048435.247659877 ; 1.2136994405501366E8 ; 6.857631596330509E7 ; 1.103442785920388E9 ; 0.0
11 ; 7171161.943269827 ; 1.2461090200879279E8 ; 7.562475121096496E7 ; 1.2248127299754016E9 ; 0.0
12 ; 7369083.187197966 ; 1.281609359832705E8 ; 8.27959131542348E7 ; 1.3494236319841945E9 ; 0.0
13 ; 7559281.655394404 ; 1.3202004483957094E8 ; 9.016499634143277E7 ; 1.477584567967465E9 ; 0.0
14 ; 7579557.415111613 ; 1.361882266901226E8 ; 9.772427799682717E7 ; 1.609604612807036E9 ; 0.0
15 ; 7589812.255155142 ; 1.4066547891427368E8 ; 1.0530383541193879E8 ; 1.7457928394971585E9 ; 0.0
16 ; 7596259.785267226 ; 1.4545179817972836E8 ; 1.1289364766709393E8 ; 1.8864583184114323E9 ; 0.0
17 ; 7607359.037349782 ; 1.5054718046939638E8 ; 1.2048990745236117E8 ; 2.0319101165911605E9 ; 0.0
18 ; 7615729.502885785 ; 1.559516211131565E8 ; 1.2809726648971094E8 ; 2.182457297060557E9 ; 0.0
19 ; 7621413.373393925 ; 1.6166511482395753E8 ; 1.3571299599259672E8 ; 2.338408918173713E9 ; 0.0
20 ; 7631196.090207595 ; 1.676876557376248E8 ; 1.4333440936599064E8 ; 2.5000740329976707E9 ; 0.0
21 ; 7639672.003888425 ; 1.7401923745570108E8 ; 1.5096560545619825E8 ; 2.6677616887352953E9 ; 0.0
22 ; 7650499.588619494 ; 1.806598530906303E8 ; 1.5860527746008667E8 ; 2.841780926190996E9 ; 0.0
23 ; 7660911.7528065955 ; 1.876094953125949E8 ; 1.6625577704870617E8 ; 3.0224407792816267E9 ; 0.0
24 ; 7668269.240231661 ; 1.9486815639733112E8 ; 1.7391668880151278E8 ; 3.2100502745942216E9 ; 0.0
25 ; 7677327.021689069 ; 2.011238691724645E8 ; 1.8158495804174444E8 ; 3.404918430991553E9 ; 0.0
26 ; 7684382.037507259 ; 2.0113017310229376E8 ; 1.892622850634335E8 ; 3.606042300164017E9 ; 0.0
27 ; 7693591.5721435165 ; 2.0113682885977668E8 ; 1.9694666710094076E8 ; 3.807172473266311E9 ; 0.0
28 ; 7701381.933492543 ; 2.0114382761909476E8 ; 2.046402586730843E8 ; 4.0083093021260877E9 ; 0.0
29 ; 7712661.475598766 ; 2.0115116039298552E8 ; 2.1234164060657683E8 ; 4.2094531297451825E9 ; 0.0
30 ; 7717252.382841625 ; 2.01158818074776E8 ; 2.2005430208217558E8 ; 4.410604290138168E9 ; 0.0
31 ; 7726355.427464953 ; 2.0116679147808248E8 ; 2.277715544650172E8 ; 4.611763108212944E9 ; 0.0
32 ; 7736218.912675068 ; 2.0117507137396386E8 ; 2.3549790989248216E8 ; 4.812929899691027E9 ; 0.0
33 ; 7740649.5723266965 ; 2.0118364852537698E8 ; 2.4323412880515724E8 ; 5.014104971064991E9 ; 0.0
34 ; 7751626.101672152 ; 2.0119251371884114E8 ; 2.5097477837748393E8 ; 5.215288619590368E9 ; 0.0
35 ; 7755111.246113846 ; 2.0120165779327118E8 ; 2.5872640447915608E8 ; 5.41648113330921E9 ; 0.0
36 ; 7761397.382167723 ; 2.0121107166598392E8 ; 2.664815157252699E8 ; 5.617682791102481E9 ; 0.0
37 ; 7770745.979735354 ; 2.012207463559226E8 ; 2.742429131074376E8 ; 5.818893862768465E9 ; 0.0
38 ; 7775821.479268437 ; 2.012306730041778E8 ; 2.82013659087173E8 ; 6.020114609124388E9 ; 0.0
39 ; 7784257.8436353635 ; 2.0124084289190862E8 ; 2.897894805664414E8 ; 6.221345282128566E9 ; 0.0
40 ; 7788293.843326837 ; 2.01251247455791E8 ; 2.975737384100768E8 ; 6.422586125020474E9 ; 0.0
41 ; 7792802.361175426 ; 2.012618783011345E8 ; 3.0536203225340366E8 ; 6.623837372476265E9 ; 0.0
42 ; 7795072.812144621 ; 2.0127272721281976E8 ; 3.131548346145791E8 ; 6.825099250777399E9 ; 0.0
43 ; 7803690.170924732 ; 2.012837861642165E8 ; 3.209499074267237E8 ; 7.026371977990219E9 ; 0.0
44 ; 7807744.002563646 ; 2.0129504732424352E8 ; 3.2875359759764844E8 ; 7.227655764154435E9 ; 0.0
45 ; 7813120.336102772 ; 2.0130650306273326E8 ; 3.365613416002121E8 ; 7.428950811478679E9 ; 0.0
46 ; 7815907.283681399 ; 2.0131814595425966E8 ; 3.443744619363149E8 ; 7.630257314541412E9 ; 0.0
47 ; 7820728.007874732 ; 2.0132996878058422E8 ; 3.521903692199963E8 ; 7.831575460495672E9 ; 0.0
48 ; 7821892.076738239 ; 2.013419645318684E8 ; 3.60011097227871E8 ; 8.032905429276257E9 ; 0.0
49 ; 7826193.119491543 ; 2.0135412640679258E8 ; 3.6783298930460924E8 ; 8.234247393808125E9 ; 0.0
50 ; 7826972.312357721 ; 2.013664478117145E8 ; 3.7565918242410076E8 ; 8.435601520214917E9 ; 0.0
51 ; 7831731.416942991 ; 2.0137892235898998E8 ; 3.834861547364585E8 ; 8.636967968026632E9 ; 0.0
52 ; 7830949.241616956 ; 2.0139154386457044E8 ; 3.913178861534015E8 ; 8.838346890385622E9 ; 0.0
53 ; 7836189.853086217 ; 2.0140430634498224E8 ; 3.9914883539501846E8 ; 9.039738434250193E9 ; 0.0
54 ; 7836417.414082578 ; 2.014172040137838E8 ; 4.069850252481047E8 ; 9.241142740595175E9 ; 0.0
55 ; 7838056.983733462 ; 2.0143023127758765E8 ; 4.148214426621873E8 ; 9.44255994460896E9 ; 0.0
56 ; 7840544.415948109 ; 2.014433827317256E8 ; 4.2265949964592075E8 ; 9.643990175886547E9 ; 0.0
57 ; 7841717.992036691 ; 2.0145665315562844E8 ; 4.3050004406186885E8 ; 9.845433558618273E9 ; 0.0
58 ; 7841251.232900629 ; 2.0147003750798228E8 ; 4.3834176205390555E8 ; 1.0046890211773901E10 ; 0.0
59 ; 7844477.482633218 ; 2.0148353092171782E8 ; 4.4618301328680617E8 ; 1.0248360249281883E10 ; 0.0
60 ; 7845993.622742335 ; 2.0149712869888163E8 ; 4.540274907694394E8 ; 1.0449843780203602E10 ; 0.0
61 ; 7848929.323818441 ; 2.0151082630543283E8 ; 4.6187348439218175E8 ; 1.0651340908902483E10 ; 0.0
62 ; 7850126.339917162 ; 2.0152461936600253E8 ; 4.697224137160002E8 ; 1.0852851735207916E10 ; 0.0
63 ; 7851529.244442157 ; 2.0153850365864915E8 ; 4.775725400559174E8 ; 1.105437635457392E10 ; 0.0
64 ; 7851609.178019578 ; 2.0155247510963675E8 ; 4.8542406930035955E8 ; 1.1255914858232569E10 ; 0.0
65 ; 7857357.78711218 ; 2.0156652978826144E8 ; 4.9327567847837913E8 ; 1.1457467333342205E10 ; 0.0
66 ; 7854193.242956755 ; 2.0158066390174487E8 ; 5.011330362654913E8 ; 1.1659033863130466E10 ; 0.0
67 ; 7854217.836669695 ; 2.0159487379021266E8 ; 5.0898722950844806E8 ; 1.1860614527032211E10 ; 0.0
68 ; 7855826.693106336 ; 2.0160915592177105E8 ; 5.1684144734511775E8 ; 1.2062209400822424E10 ; 0.0
69 ; 7858219.633636393 ; 2.016235068876935E8 ; 5.246972740382241E8 ; 1.2263818556744194E10 ; 0.0
70 ; 7858607.614748795 ; 2.0163792339772594E8 ; 5.325554936718605E8 ; 1.2465442063631887E10 ; 0.0
71 ; 7859934.572553928 ; 2.0165240227551824E8 ; 5.404141012866093E8 ; 1.2667079987029613E10 ; 0.0
72 ; 7862196.1300095655 ; 2.016669404541864E8 ; 5.482740358591632E8 ; 1.2868732389305132E10 ; 0.0
73 ; 7862066.44636586 ; 2.0168153497200996E8 ; 5.561362319891727E8 ; 1.3070399329759317E10 ; 0.0
74 ; 7861925.040778835 ; 2.016961829682664E8 ; 5.639982984355385E8 ; 1.3272080864731327E10 ; 0.0
75 ; 7859621.564599551 ; 2.0171088167920426E8 ; 5.718602234763174E8 ; 1.3473777047699593E10 ; 0.0
76 ; 7860337.95737297 ; 2.0172562843415508E8 ; 5.797198450409169E8 ; 1.3675487929378798E10 ; 0.0
77 ; 7859367.046508478 ; 2.017404206517834E8 ; 5.8758018299829E8 ; 1.3877213557812952E10 ; 0.0
78 ; 7862334.3104008185 ; 2.0175525583647412E8 ; 5.954395500447984E8 ; 1.4078953978464735E10 ; 0.0
79 ; 7856446.547395925 ; 2.017701315748548E8 ; 6.033018843551992E8 ; 1.4280709234301208E10 ; 0.0
80 ; 7855816.282762471 ; 2.017850455324509E8 ; 6.111583309025952E8 ; 1.4482479365876062E10 ; 0.0
81 ; 7851085.617181143 ; 2.0179999545047152E8 ; 6.190141471853577E8 ; 1.4684264411408514E10 ; 0.0
82 ; 7850252.515066494 ; 2.018149791427217E8 ; 6.268652328025389E8 ; 1.4886064406858986E10 ; 0.0
83 ; 7847093.950358952 ; 2.0182999449263933E8 ; 6.347154853176054E8 ; 1.5087879386001707E10 ; 0.0
84 ; 7844204.900071495 ; 2.018450394504518E8 ; 6.425625792679644E8 ; 1.5289709380494347E10 ; 0.0
85 ; 7844972.063851363 ; 2.0186011203045E8 ; 6.504067841680359E8 ; 1.5491554419944798E10 ; 0.0
86 ; 7841321.570154044 ; 2.0187521030837512E8 ; 6.582517562318872E8 ; 1.5693414531975248E10 ; 0.0
87 ; 7840575.817195211 ; 2.018903324189151E8 ; 6.660930778020413E8 ; 1.5895289742283623E10 ; 0.0
88 ; 7832269.464631784 ; 2.0190547655330622E8 ; 6.739336536192365E8 ; 1.6097180074702538E10 ; 0.0
89 ; 7832132.139194452 ; 2.019206409570369E8 ; 6.817659230838683E8 ; 1.6299085551255844E10 ; 0.0
90 ; 7829434.602906167 ; 2.019358239276492E8 ; 6.895980552230628E8 ; 1.6501006192212881E10 ; 0.0
91 ; 7825929.799322202 ; 2.019510238126348E8 ; 6.974274898259689E8 ; 1.670294201614053E10 ; 0.0
92 ; 7823009.870089139 ; 2.0196623900742143E8 ; 7.052534196252911E8 ; 1.6904893039953165E10 ; 0.0
93 ; 7819030.816297766 ; 2.0198146795344642E8 ; 7.130764294953803E8 ; 1.7106859278960587E10 ; 0.0
94 ; 7817395.204109487 ; 2.0199670913631374E8 ; 7.20895460311678E8 ; 1.7308840746914032E10 ; 0.0
95 ; 7815487.916173682 ; 2.0201196108403093E8 ; 7.287128555157875E8 ; 1.7510837456050346E10 ; 0.0
96 ; 7813302.717308465 ; 2.0202722236532295E8 ; 7.365283434319612E8 ; 1.7712849417134377E10 ; 0.0
97 ; 7804665.450003888 ; 2.020424915880194E8 ; 7.443416461492697E8 ; 1.79148766394997E10 ; 0.0
98 ; 7805583.158321553 ; 2.0205776739751217E8 ; 7.521463115992736E8 ; 1.811691913108772E10 ; 0.0
99 ; 7799425.043373874 ; 2.0207304847528014E8 ; 7.599518947575951E8 ; 1.831897689848523E10 ; 0.0
100 ; 7795927.697966315 ; 2.0208833353747863E8 ; 7.677513198009689E8 ; 1.852104994696051E10 ; 0.0
101 ; 7795648.561927923 ; 2.0210362133359012E8 ; 7.755472474989352E8 ; 1.872313828049799E10 ; 0.0
102 ; 7788961.265468766 ; 2.0211891064513403E8 ; 7.833428960608631E8 ; 1.892524190183158E10 ; 0.0
103 ; 7786305.161005591 ; 2.0213420028443256E8 ; 7.911318573263319E8 ; 1.9127360812476715E10 ; 0.0
104 ; 7781071.319880966 ; 2.0214948909343034E8 ; 7.989181624873375E8 ; 1.9329495012761147E10 ; 0.0
105 ; 7776483.047606757 ; 2.021647759425654E8 ; 8.066992338072184E8 ; 1.9531644501854576E10 ; 0.0
106 ; 7775344.6347571155 ; 2.021800597296894E8 ; 8.144757168548251E8 ; 1.9733809277797142E10 ; 0.0
107 ; 7771013.810486067 ; 2.02195339379034E8 ; 8.222510614895823E8 ; 1.9935989337526833E10 ; 0.0
108 ; 7763973.313855226 ; 2.0221061384022298E8 ; 8.300220753000684E8 ; 2.0138184676905865E10 ; 0.0
109 ; 7761220.700041604 ; 2.02225882087326E8 ; 8.377860486139235E8 ; 2.0340395290746086E10 ; 0.0
110 ; 7756027.670120203 ; 2.0224114311795366E8 ; 8.455472693139652E8 ; 2.0542621172833412E10 ; 0.0
111 ; 7750943.900873262 ; 2.0225639595239162E8 ; 8.533032969840854E8 ; 2.0744862315951366E10 ; 0.0
112 ; 7746702.963706037 ; 2.022716396327713E8 ; 8.610542408849587E8 ; 2.094711871190376E10 ; 0.0
113 ; 7743220.538646373 ; 2.0228687322227654E8 ; 8.688009438486648E8 ; 2.114939035153653E10 ; 0.0
114 ; 7739594.149027292 ; 2.0230209580438375E8 ; 8.765441643873111E8 ; 2.1351677224758804E10 ; 0.0
115 ; 7733669.629989029 ; 2.0231730648213464E8 ; 8.842837585363384E8 ; 2.1553979320563187E10 ; 0.0
116 ; 7727465.6434559375 ; 2.0233250437743962E8 ; 8.920174281663275E8 ; 2.1756296627045322E10 ; 0.0
117 ; 7723240.3876487315 ; 2.0234768863041064E8 ; 8.997448938097835E8 ; 2.1958629131422764E10 ; 0.0
118 ; 7717930.985082096 ; 2.0236285839872226E8 ; 9.074681341974322E8 ; 2.2160976820053173E10 ; 0.0
119 ; 7713551.253156633 ; 2.0237801285699934E8 ; 9.151860651825143E8 ; 2.2363339678451897E10 ; 0.0
120 ; 7708141.068020168 ; 2.0239315119623065E8 ; 9.22899616435671E8 ; 2.2565717691308895E10 ; 0.0
121 ; 7703629.266656465 ; 2.024082726232067E8 ; 9.306077575036912E8 ; 2.2768110842505127E10 ; 0.0
122 ; 7697811.184601028 ; 2.0242337635998103E8 ; 9.383113867703477E8 ; 2.2970519115128334E10 ; 0.0
123 ; 7692112.940140859 ; 2.024384616433538E8 ; 9.460091979549488E8 ; 2.3172942491488316E10 ; 0.0
124 ; 7688023.678319954 ; 2.0245352772437668E8 ; 9.537013108950896E8 ; 2.3375380953131668E10 ; 0.0
125 ; 7680965.200508858 ; 2.024685738678782E8 ; 9.613893345734096E8 ; 2.3577834480856045E10 ; 0.0
126 ; 7677152.374966854 ; 2.0248359935200846E8 ; 9.690702997739184E8 ; 2.3780303054723923E10 ; 0.0
127 ; 7671455.246337077 ; 2.0249860346780238E8 ; 9.767474521488853E8 ; 2.398278665407593E10 ; 0.0
128 ; 7665084.405419274 ; 2.0251358551876083E8 ; 9.844189073952223E8 ; 2.4185285257543736E10 ; 0.0
129 ; 7661857.846943459 ; 2.0252854482044867E8 ; 9.920839918006415E8 ; 2.4387798843062496E10 ; 0.0
130 ; 7653820.1986932065 ; 2.0254348070010906E8 ; 9.99745849647585E8 ; 2.4590327387882946E10 ; 0.0
131 ; 7643900.310885163 ; 2.0255839249629322E8 ; 1.0073996698462782E9 ; 2.4792870868583054E10 ; 0.0
132 ; 7635597.305037353 ; 2.0257327955850503E8 ; 1.0150435701571634E9 ; 2.4995429261079346E10 ; 0.0
133 ; 7627028.873674423 ; 2.0258814124685988E8 ; 1.0226791674622008E9 ; 2.519800254063785E10 ; 0.0
134 ; 7620652.506989676 ; 2.0260297693175703E8 ; 1.0303061963358752E9 ; 2.5400590681884712E10 ; 0.0
135 ; 7613125.780652635 ; 2.0261778599356493E8 ; 1.0379268488428649E9 ; 2.560319365881647E10 ; 0.0
136 ; 7602351.6890562475 ; 2.02632567822319E8 ; 1.0455399746235175E9 ; 2.5805811444810036E10 ; 0.0
137 ; 7592270.403603295 ; 2.026473218174312E8 ; 1.0531423263125738E9 ; 2.6008444012632355E10 ; 0.0
138 ; 7585181.927038526 ; 2.026620473874112E8 ; 1.0607345967161771E9 ; 2.6211091334449787E10 ; 0.0
139 ; 7574753.348288172 ; 2.0267674394959795E8 ; 1.0683197786432157E9 ; 2.64137533818372E10 ; 0.0
140 ; 7564792.521825937 ; 2.0269141092990232E8 ; 1.0758945319915037E9 ; 2.6616430125786797E10 ; 0.0
141 ; 7559795.235662552 ; 2.0270604776255903E8 ; 1.0834593245133297E9 ; 2.6819121536716698E10 ; 0.0
142 ; 7548888.012235589 ; 2.027206538898887E8 ; 1.0910191197489922E9 ; 2.7021827584479256E10 ; 0.0
143 ; 7539082.681644892 ; 2.027352287620687E8 ; 1.0985680077612278E9 ; 2.7224548238369144E10 ; 0.0
144 ; 7529898.985201554 ; 2.0274977183691275E8 ; 1.1061070904428728E9 ; 2.7427283467131214E10 ; 0.0
145 ; 7524632.521463693 ; 2.0276428257965928E8 ; 1.1136369894280744E9 ; 2.763003323896813E10 ; 0.0
146 ; 7516955.719683957 ; 2.0277876046276733E8 ; 1.121161621949538E9 ; 2.7832797521547787E10 ; 0.0
147 ; 7509205.339711445 ; 2.0279320496572042E8 ; 1.1286785776692219E9 ; 2.8035576282010555E10 ; 0.0
148 ; 7505610.948051141 ; 2.0280761557483795E8 ; 1.1361877830089333E9 ; 2.8238369486976276E10 ; 0.0
149 ; 7501355.466166074 ; 2.0282199178309333E8 ; 1.1436933939569845E9 ; 2.8441177102551113E10 ; 0.0
150 ; 7493633.827307763 ; 2.0283633308993918E8 ; 1.1511947494231505E9 ; 2.8643999094334206E10 ; 0.0
151 ; 7486351.040138861 ; 2.0285063900113887E8 ; 1.1586883832504582E9 ; 2.8846835427424145E10 ; 0.0
152 ; 7476814.669838836 ; 2.0286490902860448E8 ; 1.1661747342905972E9 ; 2.9049686066425285E10 ; 0.0
153 ; 7471905.341334428 ; 2.0287914269024053E8 ; 1.173651548960436E9 ; 2.9252550975453888E10 ; 0.0
154 ; 7465570.976653219 ; 2.0289333950979376E8 ; 1.1811234543017704E9 ; 2.9455430118144127E10 ; 0.0
155 ; 7458344.308572314 ; 2.0290749901670802E8 ; 1.1885890252784238E9 ; 2.965832345765392E10 ; 0.0
156 ; 7454364.551613955 ; 2.0292162074598488E8 ; 1.196047369586996E9 ; 2.9861230956670628E10 ; 0.0
157 ; 7444646.877925246 ; 2.0293570423804903E8 ; 1.2035017341386101E9 ; 3.006415257741661E10 ; 0.0
158 ; 7439256.866666238 ; 2.029497490386187E8 ; 1.2109463810165353E9 ; 3.026708828165466E10 ; 0.0
159 ; 7432738.18787433 ; 2.0296375469858074E8 ; 1.2183856378832016E9 ; 3.047003803069328E10 ; 0.0
160 ; 7428902.8243610095 ; 2.029777207738701E8 ; 1.225818376071076E9 ; 3.067300178539186E10 ; 0.0
161 ; 7420423.168283472 ; 2.0299164682535386E8 ; 1.233247278895437E9 ; 3.087597950616573E10 ; 0.0
162 ; 7411616.404908153 ; 2.0300553241871923E8 ; 1.2406677020637205E9 ; 3.1078971152991085E10 ; 0.0
163 ; 7403601.434809501 ; 2.0301937712436557E8 ; 1.2480793184686286E9 ; 3.1281976685409805E10 ; 0.0
164 ; 7400247.665145189 ; 2.0303318051730028E8 ; 1.255482919903438E9 ; 3.1484996062534172E10 ; 0.0
165 ; 7391240.288644454 ; 2.030469421770384E8 ; 1.2628831675685833E9 ; 3.168802924305147E10 ; 0.0
166 ; 7382072.962960182 ; 2.0306066168750575E8 ; 1.2702744078572278E9 ; 3.189107618522851E10 ; 0.0
167 ; 7378393.997938694 ; 2.0307433863694543E8 ; 1.277656480820188E9 ; 3.209413684691602E10 ; 0.0
168 ; 7370230.390189994 ; 2.0308797261782756E8 ; 1.2850348748181267E9 ; 3.2297211185552963E10 ; 0.0
169 ; 7362448.954569144 ; 2.0310156322676244E8 ; 1.2924051052083166E9 ; 3.250029915817079E10 ; 0.0
170 ; 7356163.995595356 ; 2.0311511006441638E8 ; 1.2997675541628857E9 ; 3.2703400721397552E10 ; 0.0
171 ; 7348382.76934839 ; 2.0312861273543063E8 ; 1.3071237181584811E9 ; 3.2906515831461967E10 ; 0.0
172 ; 7339536.741557705 ; 2.0314207084834328E8 ; 1.3144721009278295E9 ; 3.31096444441974E10 ; 0.0
173 ; 7336061.372332654 ; 2.0315548401551348E8 ; 1.321811637669387E9 ; 3.3312786515045742E10 ; 0.0
174 ; 7329380.217882764 ; 2.0316885185304868E8 ; 1.3291476990417197E9 ; 3.3515941999061256E10 ; 0.0
175 ; 7326498.611004325 ; 2.03182173980734E8 ; 1.3364770792596025E9 ; 3.3719110850914307E10 ; 0.0
176 ; 7325659.3482044665 ; 2.0319545002196434E8 ; 1.343803577870607E9 ; 3.3922293024895042E10 ; 0.0
177 ; 7317507.764036299 ; 2.032086796036786E8 ; 1.3511292372188113E9 ; 3.4125488474917007E10 ; 0.0
178 ; 7315601.25893678 ; 2.0322186235629624E8 ; 1.3584467449828477E9 ; 3.4328697154520687E10 ; 0.0
179 ; 7307009.804962923 ; 2.0323499791365588E8 ; 1.3657623462417846E9 ; 3.453191901687698E10 ; 0.0
180 ; 7304296.028355144 ; 2.0324808591295624E8 ; 1.3730693560467474E9 ; 3.473515401479064E10 ; 0.0
181 ; 7300044.919131429 ; 2.0326112599469873E8 ; 1.3803736520751026E9 ; 3.49384021007036E10 ; 0.0
182 ; 7297267.804546874 ; 2.032741178026322E8 ; 1.387673696994234E9 ; 3.5141663226698296E10 ; 0.0
183 ; 7292613.344994926 ; 2.0328706098369962E8 ; 1.394970964798781E9 ; 3.534493734450093E10 ; 0.0
184 ; 7283132.006194085 ; 2.0329995518798622E8 ; 1.402263578143776E9 ; 3.554822440548463E10 ; 0.0
185 ; 7283391.948078037 ; 2.033128000686698E8 ; 1.40954671014997E9 ; 3.5751524360672615E10 ; 0.0
186 ; 7276935.61413339 ; 2.0332559528197223E8 ; 1.4168301020980482E9 ; 3.595483716074129E10 ; 0.0
187 ; 7273728.481935791 ; 2.033383404871131E8 ; 1.4241070377121816E9 ; 3.615816275602326E10 ; 0.0
188 ; 7269423.795570385 ; 2.0335103534626433E8 ; 1.4313807661941173E9 ; 3.6361501096510376E10 ; 0.0
189 ; 7264753.447124179 ; 2.0336367952450687E8 ; 1.4386501899896877E9 ; 3.656485213185664E10 ; 0.0
190 ; 7257297.5335715655 ; 2.033762726897883E8 ; 1.445914943436812E9 ; 3.676821581138115E10 ; 0.0
191 ; 7254857.304075374 ; 2.0338881451288226E8 ; 1.4531722409703834E9 ; 3.697159208407094E10 ; 0.0
192 ; 7250091.440860862 ; 2.0340130466734898E8 ; 1.460427098274459E9 ; 3.7174980898583824E10 ; 0.0
193 ; 7246489.040981844 ; 2.0341374282949704E8 ; 1.4676771897153196E9 ; 3.7378382203251175E10 ; 0.0
194 ; 7243490.31024495 ; 2.0342612867834678E8 ; 1.4749236787563014E9 ; 3.758179594608067E10 ; 0.0
195 ; 7238282.786319531 ; 2.0343846189559442E8 ; 1.4821671690665464E9 ; 3.778522207475902E10 ; 0.0
196 ; 7234113.463850859 ; 2.034507421655777E8 ; 1.489405451852866E9 ; 3.798866053665461E10 ; 0.0
197 ; 7228899.814992751 ; 2.034629691752425E8 ; 1.496639565316717E9 ; 3.819211127882019E10 ; 0.0
198 ; 7223654.402139103 ; 2.0347514261411056E8 ; 1.5038684651317096E9 ; 3.839557424799543E10 ; 0.0
199 ; 7222006.955248998 ; 2.0348726217424834E8 ; 1.5110921195338488E9 ; 3.859904939060954E10 ; 0.0
200 ; 7218938.894665909 ; 1.952658893756016E8 ; 1.5183141264890978E9 ; 3.880253665278379E10 ; 0.0
