CSV File for the City 1 on Day 16
1 - Minute m 
2 - Power Consumed at minute m 
3 - Power Produced at minute m 
4 - Energy Consumed since the beginning of the day 
5 - Energy Produced since the beginning of the day 
6 - Energy Lost since the beginning of the day on lines starting from the city
 
0 ; 1.1845495339238122E7 ; 1.4068375106745174E7 ; 0.0 ; 0.0 ; 0.0
1 ; 1.1856278900155721E7 ; 1.4068375106745174E7 ; 1.1845495339238122E7 ; 1.4068375106745174E7 ; 0.0
2 ; 1.1872059863330606E7 ; 1.4068375106745174E7 ; 2.3701774239393845E7 ; 2.813675021349035E7 ; 0.0
3 ; 1.18858098287153E7 ; 1.4068375106745174E7 ; 3.557383410272445E7 ; 4.220512532023552E7 ; 0.0
4 ; 1.1904039829108268E7 ; 1.4068375106745174E7 ; 4.745964393143975E7 ; 5.62735004269807E7 ; 0.0
5 ; 1.1926094668300075E7 ; 1.4068375106745174E7 ; 5.936368376054802E7 ; 7.034187553372587E7 ; 0.0
6 ; 1.1953345874507837E7 ; 1.4068375106745174E7 ; 7.128977842884809E7 ; 8.441025064047104E7 ; 0.0
7 ; 1.199476590137103E7 ; 1.4068375106745174E7 ; 8.324312430335593E7 ; 9.847862574721621E7 ; 0.0
8 ; 1.205216625769761E7 ; 1.4068375106745174E7 ; 9.523789020472696E7 ; 1.1254700085396138E8 ; 0.0
9 ; 1.2138606669456705E7 ; 1.4068375106745174E7 ; 1.0729005646242458E8 ; 1.2661537596070655E8 ; 0.0
10 ; 1.2277913553974546E7 ; 1.4068375106745174E7 ; 1.1942866313188128E8 ; 1.4068375106745172E8 ; 0.0
11 ; 1.2491311020837808E7 ; 1.4068375106745174E7 ; 1.3170657668585584E8 ; 1.547521261741969E8 ; 0.0
12 ; 1.283392992733776E7 ; 1.4068375106745174E7 ; 1.4419788770669365E8 ; 1.6882050128094208E8 ; 0.0
13 ; 1.3168853266961168E7 ; 1.4068375106745174E7 ; 1.5703181763403141E8 ; 1.8288887638768727E8 ; 0.0
14 ; 1.3206536315228216E7 ; 1.4068375106745174E7 ; 1.7020067090099257E8 ; 1.9695725149443245E8 ; 0.0
15 ; 1.3224828835163578E7 ; 1.4068375106745174E7 ; 1.834072072162208E8 ; 2.1102562660117763E8 ; 0.0
16 ; 1.3240642464351326E7 ; 1.4068375106745174E7 ; 1.966320360513844E8 ; 2.2509400170792282E8 ; 0.0
17 ; 1.3256322556585547E7 ; 1.4068375106745174E7 ; 2.0987267851573572E8 ; 2.39162376814668E8 ; 0.0
18 ; 1.3265905632110054E7 ; 1.4068375106745174E7 ; 2.2312900107232127E8 ; 2.5323075192141318E8 ; 0.0
19 ; 1.328521550742066E7 ; 1.4068375106745174E7 ; 2.3639490670443133E8 ; 2.6729912702815837E8 ; 0.0
20 ; 1.3297627737957826E7 ; 1.4068375106745174E7 ; 2.4968012221185198E8 ; 2.8136750213490355E8 ; 0.0
21 ; 1.3316685804090938E7 ; 1.4068375106745174E7 ; 2.6297774994980982E8 ; 2.9543587724164873E8 ; 0.0
22 ; 1.333247002978794E7 ; 1.4068375106745174E7 ; 2.7629443575390077E8 ; 3.095042523483939E8 ; 0.0
23 ; 1.3347194811857503E7 ; 1.4068375106745174E7 ; 2.896269057836887E8 ; 3.235726274551391E8 ; 0.0
24 ; 1.3363852868728755E7 ; 1.4068375106745174E7 ; 3.0297410059554625E8 ; 3.376410025618843E8 ; 0.0
25 ; 1.33798314566738E7 ; 1.4068375106745174E7 ; 3.16337953464275E8 ; 3.5170937766862947E8 ; 0.0
26 ; 1.3397677385770204E7 ; 1.4068375106745174E7 ; 3.297177849209488E8 ; 3.6577775277537465E8 ; 0.0
27 ; 1.340843201392702E7 ; 1.4068375106745174E7 ; 3.43115462306719E8 ; 3.7984612788211983E8 ; 0.0
28 ; 1.3426472013086392E7 ; 1.4068375106745174E7 ; 3.5652389432064605E8 ; 3.93914502988865E8 ; 0.0
29 ; 1.3440657442415915E7 ; 1.4068375106745174E7 ; 3.699503663337324E8 ; 4.079828780956102E8 ; 0.0
30 ; 1.345487382149402E7 ; 1.4068375106745174E7 ; 3.833910237761483E8 ; 4.220512532023554E8 ; 0.0
31 ; 1.3466446961034767E7 ; 1.4068375106745174E7 ; 3.9684589759764236E8 ; 4.3611962830910057E8 ; 0.0
32 ; 1.3482876632581025E7 ; 1.4068375106745174E7 ; 4.1031234455867714E8 ; 4.5018800341584575E8 ; 0.0
33 ; 1.3497536874860138E7 ; 1.4068375106745174E7 ; 4.237952211912582E8 ; 4.6425637852259094E8 ; 0.0
34 ; 1.3509476278031368E7 ; 1.4068375106745174E7 ; 4.3729275806611836E8 ; 4.783247536293361E8 ; 0.0
35 ; 1.3522044049644668E7 ; 1.4068375106745174E7 ; 4.508022343441497E8 ; 4.923931287360813E8 ; 0.0
36 ; 1.3533775282684827E7 ; 1.4068375106745174E7 ; 4.6432427839379436E8 ; 5.064615038428265E8 ; 0.0
37 ; 1.3546964555513388E7 ; 1.4068375106745174E7 ; 4.7785805367647916E8 ; 5.2052987894957167E8 ; 0.0
38 ; 1.3555528389298232E7 ; 1.4068375106745174E7 ; 4.9140501823199254E8 ; 5.3459825405631685E8 ; 0.0
39 ; 1.3564989169159858E7 ; 1.4068375106745174E7 ; 5.049605466212908E8 ; 5.48666629163062E8 ; 0.0
40 ; 1.3579044108104471E7 ; 1.4068375106745174E7 ; 5.1852553579045063E8 ; 5.627350042698071E8 ; 0.0
41 ; 1.3586984403561255E7 ; 1.4068375106745174E7 ; 5.321045798985551E8 ; 5.768033793765522E8 ; 0.0
42 ; 1.3598451408934157E7 ; 1.4068375106745174E7 ; 5.456915643021164E8 ; 5.908717544832973E8 ; 0.0
43 ; 1.3606954996883165E7 ; 1.4068375106745174E7 ; 5.592900157110505E8 ; 6.049401295900425E8 ; 0.0
44 ; 1.3612266056960285E7 ; 1.4068375106745174E7 ; 5.728969707079337E8 ; 6.190085046967876E8 ; 0.0
45 ; 1.3621262158550553E7 ; 1.4068375106745174E7 ; 5.86509236764894E8 ; 6.330768798035327E8 ; 0.0
46 ; 1.3627173342855632E7 ; 1.4068375106745174E7 ; 6.001304989234445E8 ; 6.471452549102778E8 ; 0.0
47 ; 1.3633883038515214E7 ; 1.4068375106745174E7 ; 6.137576722663002E8 ; 6.61213630017023E8 ; 0.0
48 ; 1.364103831148746E7 ; 1.4068375106745174E7 ; 6.273915553048154E8 ; 6.752820051237681E8 ; 0.0
49 ; 1.3647984017981293E7 ; 1.4068375106745174E7 ; 6.410325936163028E8 ; 6.893503802305132E8 ; 0.0
50 ; 1.3648840181062786E7 ; 1.4068375106745174E7 ; 6.546805776342841E8 ; 7.034187553372583E8 ; 0.0
51 ; 1.3653728497238273E7 ; 1.4068375106745174E7 ; 6.68329417815347E8 ; 7.174871304440035E8 ; 0.0
52 ; 1.3656884733997364E7 ; 1.4068375106745174E7 ; 6.819831463125852E8 ; 7.315555055507486E8 ; 0.0
53 ; 1.3659031043916367E7 ; 1.4068375106745174E7 ; 6.956400310465826E8 ; 7.456238806574937E8 ; 0.0
54 ; 1.3661043433361914E7 ; 1.4068375106745174E7 ; 7.092990620904989E8 ; 7.596922557642388E8 ; 0.0
55 ; 1.366715364755938E7 ; 1.4068375106745174E7 ; 7.229601055238608E8 ; 7.73760630870984E8 ; 0.0
56 ; 1.367240002402483E7 ; 1.4068375106745174E7 ; 7.366272591714202E8 ; 7.878290059777291E8 ; 0.0
57 ; 1.3675162710811641E7 ; 1.4068375106745174E7 ; 7.502996591954451E8 ; 8.018973810844742E8 ; 0.0
58 ; 1.3675145891379807E7 ; 1.4068375106745174E7 ; 7.639748219062567E8 ; 8.159657561912193E8 ; 0.0
59 ; 1.3680637419760406E7 ; 1.4068375106745174E7 ; 7.776499677976365E8 ; 8.300341312979645E8 ; 0.0
60 ; 1.368381541793849E7 ; 1.4068375106745174E7 ; 7.91330605217397E8 ; 8.441025064047096E8 ; 0.0
61 ; 1.368332349195595E7 ; 1.4068375106745174E7 ; 8.050144206353354E8 ; 8.581708815114547E8 ; 0.0
62 ; 1.3687466049515078E7 ; 1.4068375106745174E7 ; 8.186977441272914E8 ; 8.722392566181998E8 ; 0.0
63 ; 1.369268685293385E7 ; 1.4068375106745174E7 ; 8.323852101768066E8 ; 8.86307631724945E8 ; 0.0
64 ; 1.3691911031826427E7 ; 1.4068375106745174E7 ; 8.460778970297405E8 ; 9.003760068316901E8 ; 0.0
65 ; 1.3692312926021261E7 ; 1.4068375106745174E7 ; 8.597698080615668E8 ; 9.144443819384352E8 ; 0.0
66 ; 1.3695210403415445E7 ; 1.4068375106745174E7 ; 8.73462120987588E8 ; 9.285127570451803E8 ; 0.0
67 ; 1.3697437246549748E7 ; 1.4068375106745174E7 ; 8.871573313910035E8 ; 9.425811321519254E8 ; 0.0
68 ; 1.3695614944095219E7 ; 1.4068375106745174E7 ; 9.008547686375532E8 ; 9.566495072586706E8 ; 0.0
69 ; 1.3704612189766439E7 ; 1.4068375106745174E7 ; 9.145503835816485E8 ; 9.707178823654157E8 ; 0.0
70 ; 1.3702748622830486E7 ; 1.4068375106745174E7 ; 9.282549957714149E8 ; 9.847862574721608E8 ; 0.0
71 ; 1.3702485431767197E7 ; 1.4068375106745174E7 ; 9.419577443942454E8 ; 9.988546325789059E8 ; 0.0
72 ; 1.370514101355813E7 ; 1.4068375106745174E7 ; 9.556602298260126E8 ; 1.0129230076856511E9 ; 0.0
73 ; 1.370716741002869E7 ; 1.4068375106745174E7 ; 9.693653708395708E8 ; 1.0269913827923962E9 ; 0.0
74 ; 1.3705661058955118E7 ; 1.4068375106745174E7 ; 9.830725382495995E8 ; 1.0410597578991413E9 ; 0.0
75 ; 1.3705444967393652E7 ; 1.4068375106745174E7 ; 9.967781993085545E8 ; 1.0551281330058864E9 ; 0.0
76 ; 1.3706757732041968E7 ; 1.4068375106745174E7 ; 1.0104836442759482E9 ; 1.0691965081126316E9 ; 0.0
77 ; 1.3707274964804264E7 ; 1.4068375106745174E7 ; 1.0241904020079901E9 ; 1.0832648832193768E9 ; 0.0
78 ; 1.3706490262836473E7 ; 1.4068375106745174E7 ; 1.0378976769727944E9 ; 1.097333258326122E9 ; 0.0
79 ; 1.3699016975698305E7 ; 1.4068375106745174E7 ; 1.0516041672356309E9 ; 1.1114016334328673E9 ; 0.0
80 ; 1.3693543415119063E7 ; 1.4068375106745174E7 ; 1.0653031842113292E9 ; 1.1254700085396125E9 ; 0.0
81 ; 1.3692781291690452E7 ; 1.4068375106745174E7 ; 1.0789967276264484E9 ; 1.1395383836463578E9 ; 0.0
82 ; 1.36872419809227E7 ; 1.4068375106745174E7 ; 1.0926895089181387E9 ; 1.153606758753103E9 ; 0.0
83 ; 1.3680399037263637E7 ; 1.4068375106745174E7 ; 1.1063767508990614E9 ; 1.1676751338598483E9 ; 0.0
84 ; 1.367701128475321E7 ; 1.4068375106745174E7 ; 1.120057149936325E9 ; 1.1817435089665935E9 ; 0.0
85 ; 1.3673974452676952E7 ; 1.4068375106745174E7 ; 1.1337341612210784E9 ; 1.1958118840733387E9 ; 0.0
86 ; 1.3665745724961454E7 ; 1.4068375106745174E7 ; 1.1474081356737554E9 ; 1.209880259180084E9 ; 0.0
87 ; 1.3666499470970588E7 ; 1.4068375106745174E7 ; 1.161073881398717E9 ; 1.2239486342868292E9 ; 0.0
88 ; 1.3659602558944708E7 ; 1.4068375106745174E7 ; 1.1747403808696876E9 ; 1.2380170093935745E9 ; 0.0
89 ; 1.3653088783872874E7 ; 1.4068375106745174E7 ; 1.1883999834286323E9 ; 1.2520853845003197E9 ; 0.0
90 ; 1.3647733787287695E7 ; 1.4068375106745174E7 ; 1.202053072212505E9 ; 1.266153759607065E9 ; 0.0
91 ; 1.3643439838888716E7 ; 1.4068375106745174E7 ; 1.2157008059997928E9 ; 1.2802221347138102E9 ; 0.0
92 ; 1.363451799296169E7 ; 1.4068375106745174E7 ; 1.2293442458386815E9 ; 1.2942905098205554E9 ; 0.0
93 ; 1.3631985364231007E7 ; 1.4068375106745174E7 ; 1.242978763831643E9 ; 1.3083588849273007E9 ; 0.0
94 ; 1.3626935496226437E7 ; 1.4068375106745174E7 ; 1.2566107491958742E9 ; 1.322427260034046E9 ; 0.0
95 ; 1.361969321838251E7 ; 1.4068375106745174E7 ; 1.2702376846921008E9 ; 1.3364956351407912E9 ; 0.0
96 ; 1.361048287432772E7 ; 1.4068375106745174E7 ; 1.2838573779104834E9 ; 1.3505640102475364E9 ; 0.0
97 ; 1.3605431247336261E7 ; 1.4068375106745174E7 ; 1.297467860784811E9 ; 1.3646323853542817E9 ; 0.0
98 ; 1.3600704989948878E7 ; 1.4068375106745174E7 ; 1.3110732920321472E9 ; 1.378700760461027E9 ; 0.0
99 ; 1.3591822472409738E7 ; 1.4068375106745174E7 ; 1.3246739970220962E9 ; 1.3927691355677722E9 ; 0.0
100 ; 1.358542402930565E7 ; 1.4068375106745174E7 ; 1.338265819494506E9 ; 1.4068375106745174E9 ; 0.0
101 ; 1.3578877202201882E7 ; 1.4068375106745174E7 ; 1.3518512435238116E9 ; 1.4209058857812626E9 ; 0.0
102 ; 1.3576018968310859E7 ; 1.4068375106745174E7 ; 1.3654301207260134E9 ; 1.4349742608880079E9 ; 0.0
103 ; 1.3565251065702489E7 ; 1.4068375106745174E7 ; 1.3790061396943243E9 ; 1.4490426359947531E9 ; 0.0
104 ; 1.3557912110140963E7 ; 1.4068375106745174E7 ; 1.3925713907600267E9 ; 1.4631110111014984E9 ; 0.0
105 ; 1.3550643731995964E7 ; 1.4068375106745174E7 ; 1.4061293028701677E9 ; 1.4771793862082436E9 ; 0.0
106 ; 1.354395792270156E7 ; 1.4068375106745174E7 ; 1.4196799466021638E9 ; 1.4912477613149889E9 ; 0.0
107 ; 1.3536410318170339E7 ; 1.4068375106745174E7 ; 1.4332239045248654E9 ; 1.505316136421734E9 ; 0.0
108 ; 1.352971105550603E7 ; 1.4068375106745174E7 ; 1.4467603148430357E9 ; 1.5193845115284793E9 ; 0.0
109 ; 1.3515176842515765E7 ; 1.4068375106745174E7 ; 1.4602900258985417E9 ; 1.5334528866352246E9 ; 0.0
110 ; 1.3511262308939142E7 ; 1.4068375106745174E7 ; 1.4738052027410574E9 ; 1.5475212617419698E9 ; 0.0
111 ; 1.3499338600183172E7 ; 1.4068375106745174E7 ; 1.4873164650499966E9 ; 1.561589636848715E9 ; 0.0
112 ; 1.3495975759773204E7 ; 1.4068375106745174E7 ; 1.5008158036501799E9 ; 1.5756580119554603E9 ; 0.0
113 ; 1.3484553020886973E7 ; 1.4068375106745174E7 ; 1.514311779409953E9 ; 1.5897263870622056E9 ; 0.0
114 ; 1.3476164860192707E7 ; 1.4068375106745174E7 ; 1.52779633243084E9 ; 1.6037947621689508E9 ; 0.0
115 ; 1.3468989924021116E7 ; 1.4068375106745174E7 ; 1.5412724972910328E9 ; 1.617863137275696E9 ; 0.0
116 ; 1.3459494148619356E7 ; 1.4068375106745174E7 ; 1.5547414872150538E9 ; 1.6319315123824413E9 ; 0.0
117 ; 1.344683785429652E7 ; 1.4068375106745174E7 ; 1.5682009813636732E9 ; 1.6459998874891865E9 ; 0.0
118 ; 1.344311449012063E7 ; 1.4068375106745174E7 ; 1.5816478192179697E9 ; 1.6600682625959318E9 ; 0.0
119 ; 1.3429914341390846E7 ; 1.4068375106745174E7 ; 1.5950909337080903E9 ; 1.674136637702677E9 ; 0.0
120 ; 1.342337954378476E7 ; 1.4068375106745174E7 ; 1.6085208480494812E9 ; 1.6882050128094223E9 ; 0.0
121 ; 1.3412012832375204E7 ; 1.4068375106745174E7 ; 1.621944227593266E9 ; 1.7022733879161675E9 ; 0.0
122 ; 1.3402521234924916E7 ; 1.4068375106745174E7 ; 1.6353562404256413E9 ; 1.7163417630229127E9 ; 0.0
123 ; 1.3393759363027915E7 ; 1.4068375106745174E7 ; 1.6487587616605663E9 ; 1.730410138129658E9 ; 0.0
124 ; 1.3384584233552348E7 ; 1.4068375106745174E7 ; 1.6621525210235941E9 ; 1.7444785132364032E9 ; 0.0
125 ; 1.3374860252723938E7 ; 1.4068375106745174E7 ; 1.6755371052571466E9 ; 1.7585468883431485E9 ; 0.0
126 ; 1.336463014459703E7 ; 1.4068375106745174E7 ; 1.6889119655098705E9 ; 1.7726152634498937E9 ; 0.0
127 ; 1.3353753404307984E7 ; 1.4068375106745174E7 ; 1.7022765956544676E9 ; 1.786683638556639E9 ; 0.0
128 ; 1.3340264074932981E7 ; 1.4068375106745174E7 ; 1.7156303490587757E9 ; 1.8007520136633842E9 ; 0.0
129 ; 1.3332003671861667E7 ; 1.4068375106745174E7 ; 1.7289706131337087E9 ; 1.8148203887701294E9 ; 0.0
130 ; 1.3315719548501104E7 ; 1.4068375106745174E7 ; 1.7423026168055704E9 ; 1.8288887638768747E9 ; 0.0
131 ; 1.3303551270697976E7 ; 1.4068375106745174E7 ; 1.7556183363540714E9 ; 1.84295713898362E9 ; 0.0
132 ; 1.3285097617265742E7 ; 1.4068375106745174E7 ; 1.7689218876247694E9 ; 1.8570255140903652E9 ; 0.0
133 ; 1.3269423620244497E7 ; 1.4068375106745174E7 ; 1.7822069852420352E9 ; 1.8710938891971104E9 ; 0.0
134 ; 1.32580224293646E7 ; 1.4068375106745174E7 ; 1.7954764088622797E9 ; 1.8851622643038557E9 ; 0.0
135 ; 1.3243860008935736E7 ; 1.4068375106745174E7 ; 1.8087344312916443E9 ; 1.899230639410601E9 ; 0.0
136 ; 1.3219403224887306E7 ; 1.4068375106745174E7 ; 1.82197829130058E9 ; 1.9132990145173461E9 ; 0.0
137 ; 1.320991089081192E7 ; 1.4068375106745174E7 ; 1.8351976945254674E9 ; 1.9273673896240914E9 ; 0.0
138 ; 1.3195235773210151E7 ; 1.4068375106745174E7 ; 1.8484076054162793E9 ; 1.9414357647308366E9 ; 0.0
139 ; 1.317835121596472E7 ; 1.4068375106745174E7 ; 1.8616028411894894E9 ; 1.9555041398375819E9 ; 0.0
140 ; 1.3161032161935257E7 ; 1.4068375106745174E7 ; 1.8747811924054542E9 ; 1.969572514944327E9 ; 0.0
141 ; 1.3144421735043587E7 ; 1.4068375106745174E7 ; 1.8879422245673895E9 ; 1.9836408900510724E9 ; 0.0
142 ; 1.3126707250668336E7 ; 1.4068375106745174E7 ; 1.901086646302433E9 ; 1.9977092651578176E9 ; 0.0
143 ; 1.3113372821332533E7 ; 1.4068375106745174E7 ; 1.9142133535531013E9 ; 2.0117776402645628E9 ; 0.0
144 ; 1.3092078443395989E7 ; 1.4068375106745174E7 ; 1.9273267263744338E9 ; 2.025846015371308E9 ; 0.0
145 ; 1.3080217361109028E7 ; 1.4068375106745174E7 ; 1.9404188048178298E9 ; 2.0399143904780533E9 ; 0.0
146 ; 1.3069679114673963E7 ; 1.4068375106745174E7 ; 1.9534990221789389E9 ; 2.0539827655847986E9 ; 0.0
147 ; 1.3057357662941085E7 ; 1.4068375106745174E7 ; 1.9665687012936127E9 ; 2.0680511406915438E9 ; 0.0
148 ; 1.3047553641748315E7 ; 1.4068375106745174E7 ; 1.9796260589565537E9 ; 2.082119515798289E9 ; 0.0
149 ; 1.3039852892818058E7 ; 1.4068375106745174E7 ; 1.9926736125983021E9 ; 2.0961878909050343E9 ; 0.0
150 ; 1.3025102260953939E7 ; 1.4068375106745174E7 ; 2.00571346549112E9 ; 2.1102562660117795E9 ; 0.0
151 ; 1.301317586637737E7 ; 1.4068375106745174E7 ; 2.018738567752074E9 ; 2.1243246411185248E9 ; 0.0
152 ; 1.300324725044797E7 ; 1.4068375106745174E7 ; 2.0317517436184514E9 ; 2.13839301622527E9 ; 0.0
153 ; 1.2990166778848793E7 ; 1.4068375106745174E7 ; 2.0447549908688993E9 ; 2.152461391332015E9 ; 0.0
154 ; 1.2975781875183815E7 ; 1.4068375106745174E7 ; 2.0577451576477482E9 ; 2.1665297664387603E9 ; 0.0
155 ; 1.2967019273910452E7 ; 1.4068375106745174E7 ; 2.070720939522932E9 ; 2.1805981415455055E9 ; 0.0
156 ; 1.2953763721497627E7 ; 1.4068375106745174E7 ; 2.0836879587968426E9 ; 2.194666516652251E9 ; 0.0
157 ; 1.2941047359883765E7 ; 1.4068375106745174E7 ; 2.09664172251834E9 ; 2.208734891758996E9 ; 0.0
158 ; 1.293053743919909E7 ; 1.4068375106745174E7 ; 2.109582769878224E9 ; 2.2228032668657413E9 ; 0.0
159 ; 1.2918740665999103E7 ; 1.4068375106745174E7 ; 2.1225133073174229E9 ; 2.2368716419724865E9 ; 0.0
160 ; 1.2906325215987952E7 ; 1.4068375106745174E7 ; 2.135432047983422E9 ; 2.2509400170792317E9 ; 0.0
161 ; 1.2892888180331584E7 ; 1.4068375106745174E7 ; 2.14833837319941E9 ; 2.265008392185977E9 ; 0.0
162 ; 1.2879101297768915E7 ; 1.4068375106745174E7 ; 2.1612312613797417E9 ; 2.279076767292722E9 ; 0.0
163 ; 1.2870262671379087E7 ; 1.4068375106745174E7 ; 2.1741103626775107E9 ; 2.2931451423994675E9 ; 0.0
164 ; 1.2854622117580054E7 ; 1.4068375106745174E7 ; 2.18698062534889E9 ; 2.3072135175062127E9 ; 0.0
165 ; 1.2842223483413013E7 ; 1.4068375106745174E7 ; 2.19983524746647E9 ; 2.321281892612958E9 ; 0.0
166 ; 1.2828851724194985E7 ; 1.4068375106745174E7 ; 2.212677470949883E9 ; 2.335350267719703E9 ; 0.0
167 ; 1.2816199064307403E7 ; 1.4068375106745174E7 ; 2.225506322674078E9 ; 2.3494186428264484E9 ; 0.0
168 ; 1.2804701719720962E7 ; 1.4068375106745174E7 ; 2.238322521738385E9 ; 2.3634870179331937E9 ; 0.0
169 ; 1.2793581741797846E7 ; 1.4068375106745174E7 ; 2.251127223458106E9 ; 2.377555393039939E9 ; 0.0
170 ; 1.27778728256207E7 ; 1.4068375106745174E7 ; 2.263920805199904E9 ; 2.391623768146684E9 ; 0.0
171 ; 1.2765823213449983E7 ; 1.4068375106745174E7 ; 2.2766986780255246E9 ; 2.4056921432534294E9 ; 0.0
172 ; 1.275065304136579E7 ; 1.4068375106745174E7 ; 2.2894645012389746E9 ; 2.4197605183601747E9 ; 0.0
173 ; 1.2740691836730182E7 ; 1.4068375106745174E7 ; 2.30221515428034E9 ; 2.43382889346692E9 ; 0.0
174 ; 1.2731823410506025E7 ; 1.4068375106745174E7 ; 2.31495584611707E9 ; 2.447897268573665E9 ; 0.0
175 ; 1.2723945650601905E7 ; 1.4068375106745174E7 ; 2.3276876695275764E9 ; 2.4619656436804104E9 ; 0.0
176 ; 1.2717097367581753E7 ; 1.4068375106745174E7 ; 2.3404116151781783E9 ; 2.4760340187871556E9 ; 0.0
177 ; 1.2707316464955287E7 ; 1.4068375106745174E7 ; 2.35312871254576E9 ; 2.490102393893901E9 ; 0.0
178 ; 1.269963765492128E7 ; 1.4068375106745174E7 ; 2.3658360290107155E9 ; 2.504170769000646E9 ; 0.0
179 ; 1.2698019396370867E7 ; 1.4068375106745174E7 ; 2.3785356666656365E9 ; 2.5182391441073914E9 ; 0.0
180 ; 1.2684244511855165E7 ; 1.4068375106745174E7 ; 2.3912336860620074E9 ; 2.5323075192141366E9 ; 0.0
181 ; 1.2676148897067362E7 ; 1.4068375106745174E7 ; 2.4039179305738626E9 ; 2.546375894320882E9 ; 0.0
182 ; 1.2672168455226991E7 ; 1.4068375106745174E7 ; 2.41659407947093E9 ; 2.560444269427627E9 ; 0.0
183 ; 1.2662081669232719E7 ; 1.4068375106745174E7 ; 2.429266247926157E9 ; 2.5745126445343723E9 ; 0.0
184 ; 1.2652466477995638E7 ; 1.4068375106745174E7 ; 2.44192832959539E9 ; 2.5885810196411176E9 ; 0.0
185 ; 1.2646386734012438E7 ; 1.4068375106745174E7 ; 2.4545807960733857E9 ; 2.602649394747863E9 ; 0.0
186 ; 1.2640005675511897E7 ; 1.4068375106745174E7 ; 2.4672271828073983E9 ; 2.616717769854608E9 ; 0.0
187 ; 1.2629378971202506E7 ; 1.4068375106745174E7 ; 2.47986718848291E9 ; 2.6307861449613533E9 ; 0.0
188 ; 1.2623192611406919E7 ; 1.4068375106745174E7 ; 2.4924965674541125E9 ; 2.6448545200680985E9 ; 0.0
189 ; 1.2615531405284988E7 ; 1.4068375106745174E7 ; 2.5051197600655193E9 ; 2.658922895174844E9 ; 0.0
190 ; 1.2609906724499231E7 ; 1.4068375106745174E7 ; 2.517735291470804E9 ; 2.672991270281589E9 ; 0.0
191 ; 1.2595067846400745E7 ; 1.4068375106745174E7 ; 2.5303451981953034E9 ; 2.6870596453883343E9 ; 0.0
192 ; 1.2590226192284875E7 ; 1.4068375106745174E7 ; 2.542940266041704E9 ; 2.7011280204950795E9 ; 0.0
193 ; 1.2581996631199423E7 ; 1.4068375106745174E7 ; 2.5555304922339892E9 ; 2.7151963956018248E9 ; 0.0
194 ; 1.2573010545345576E7 ; 1.4068375106745174E7 ; 2.5681124888651886E9 ; 2.72926477070857E9 ; 0.0
195 ; 1.2567089801491568E7 ; 1.4068375106745174E7 ; 2.5806854994105344E9 ; 2.7433331458153152E9 ; 0.0
196 ; 1.2562910225183925E7 ; 1.4068375106745174E7 ; 2.593252589212026E9 ; 2.7574015209220605E9 ; 0.0
