CSV File for the City 4 on Day 332
1 - Minute m 
2 - Power Consumed at minute m 
3 - Power Produced at minute m 
4 - Energy Consumed since the beginning of the day 
5 - Energy Produced since the beginning of the day 
6 - Energy Lost since the beginning of the day on lines starting from the city
 
0 ; 6862578.220323846 ; 1.0667848774488279E8 ; 0.0 ; 0.0 ; 0.0
1 ; 6868575.6641538935 ; 1.0682893921009737E8 ; 6862578.220323846 ; 1.0667848774488279E8 ; 0.0
2 ; 6878793.539188403 ; 1.0728843076820138E8 ; 1.3731153884477738E7 ; 2.1350742695498016E8 ; 0.0
3 ; 6886839.875461439 ; 1.0805696543610191E8 ; 2.0609947423666142E7 ; 3.2079585772318155E8 ; 0.0
4 ; 6897599.0223762365 ; 1.091345459047876E8 ; 2.749678729912758E7 ; 4.2885282315928346E8 ; 0.0
5 ; 6908859.466673183 ; 1.105211745287705E8 ; 3.439438632150382E7 ; 5.37987369064071E8 ; 0.0
6 ; 6925037.882300773 ; 1.1221685331672463E8 ; 4.1303245788177E7 ; 6.485085435928416E8 ; 0.0
7 ; 6948108.692867539 ; 1.142215839234094E8 ; 4.822828367047777E7 ; 7.607253969095663E8 ; 0.0
8 ; 6983816.935724167 ; 1.1653536764295208E8 ; 5.517639236334531E7 ; 8.749469808329756E8 ; 0.0
9 ; 7031381.329114327 ; 1.191582054035548E8 ; 6.216020929906948E7 ; 9.914823484759277E8 ; 0.0
10 ; 7109982.249091433 ; 1.2209009776367664E8 ; 6.919159062818381E7 ; 1.1106405538794825E9 ; 0.0
11 ; 7235390.333820749 ; 1.2533104490972766E8 ; 7.630157287727524E7 ; 1.2327306516431592E9 ; 0.0
12 ; 7434455.809543145 ; 1.2888104665529779E8 ; 8.353696321109599E7 ; 1.3580616965528867E9 ; 0.0
13 ; 7622520.654243199 ; 1.3274010244192791E8 ; 9.097141902063914E7 ; 1.4869427432081845E9 ; 0.0
14 ; 7646339.6685297415 ; 1.36908211341416E8 ; 9.859393967488234E7 ; 1.6196828456501124E9 ; 0.0
15 ; 7654670.812915687 ; 1.413853720596347E8 ; 1.0624027934341207E8 ; 1.7565910569915285E9 ; 0.0
16 ; 7663762.043775167 ; 1.4617158294182464E8 ; 1.1389495015632775E8 ; 1.8979764290511632E9 ; 0.0
17 ; 7674414.502364973 ; 1.512668419793118E8 ; 1.2155871220010293E8 ; 2.0441480119929879E9 ; 0.0
18 ; 7683233.524327036 ; 1.566711468175841E8 ; 1.292331267024679E8 ; 2.1954148539722996E9 ; 0.0
19 ; 7689569.712748319 ; 1.6238449476565292E8 ; 1.3691636022679493E8 ; 2.3520860007898836E9 ; 0.0
20 ; 7701854.746086309 ; 1.6840688280661115E8 ; 1.4460592993954325E8 ; 2.5144704955555367E9 ; 0.0
21 ; 7708839.863926103 ; 1.7473830760929272E8 ; 1.5230778468562955E8 ; 2.682877378362148E9 ; 0.0
22 ; 7718199.380732781 ; 1.8137876554092932E8 ; 1.6001662454955566E8 ; 2.8576156859714403E9 ; 0.0
23 ; 7727641.855860184 ; 1.883282526806956E8 ; 1.6773482393028843E8 ; 3.0389944515123696E9 ; 0.0
24 ; 7737370.27675249 ; 1.9558676483402675E8 ; 1.754624657861486E8 ; 3.227322704193065E9 ; 0.0
25 ; 7746961.607484838 ; 2.0184233844577685E8 ; 1.831998360629011E8 ; 3.422909469027092E9 ; 0.0
26 ; 7755344.553582836 ; 2.0184851665262678E8 ; 1.9094679767038596E8 ; 3.624751807472869E9 ; 0.0
27 ; 7764141.587510984 ; 2.0185506382392004E8 ; 1.987021422239688E8 ; 3.826600324125496E9 ; 0.0
28 ; 7771732.3175582215 ; 2.0186197482467118E8 ; 2.0646628381147978E8 ; 4.028455387949416E9 ; 0.0
29 ; 7779858.818726487 ; 2.018692443252381E8 ; 2.14238016129038E8 ; 4.2303173627740874E9 ; 0.0
30 ; 7787014.00579695 ; 2.0187686681783095E8 ; 2.220178749477645E8 ; 4.432186607099325E9 ; 0.0
31 ; 7797420.833749415 ; 2.018848366329996E8 ; 2.2980488895356143E8 ; 4.634063473917156E9 ; 0.0
32 ; 7806883.277914236 ; 2.0189314795600274E8 ; 2.3760230978731084E8 ; 4.835948310550156E9 ; 0.0
33 ; 7813545.964569163 ; 2.019017948429681E8 ; 2.4540919306522506E8 ; 5.037841458506159E9 ; 0.0
34 ; 7821839.651741893 ; 2.0191077123676133E8 ; 2.5322273902979422E8 ; 5.239743253349127E9 ; 0.0
35 ; 7830447.191646971 ; 2.0192007098248875E8 ; 2.610445786815361E8 ; 5.441654024585888E9 ; 0.0
36 ; 7836720.00037662 ; 2.0192968784256753E8 ; 2.688750258731831E8 ; 5.643574095568377E9 ; 0.0
37 ; 7842954.096892601 ; 2.0193961551130491E8 ; 2.767117458735597E8 ; 5.845503783410944E9 ; 0.0
38 ; 7851880.370636551 ; 2.019498476289364E8 ; 2.845546999704523E8 ; 6.047443398922249E9 ; 0.0
39 ; 7856892.27833409 ; 2.019603777950811E8 ; 2.9240658034108883E8 ; 6.249393246551186E9 ; 0.0
40 ; 7863725.633912602 ; 2.0197119958157995E8 ; 3.002634726194229E8 ; 6.451353624346267E9 ; 0.0
41 ; 7870189.441500518 ; 2.019823065446905E8 ; 3.0812719825333554E8 ; 6.653324823927847E9 ; 0.0
42 ; 7877971.01761325 ; 2.019936922366182E8 ; 3.159973876948361E8 ; 6.855307130472537E9 ; 0.0
43 ; 7881258.294587863 ; 2.0200535021637234E8 ; 3.238753587124493E8 ; 7.057300822709155E9 ; 0.0
44 ; 7886033.868494399 ; 2.020172740599389E8 ; 3.3175661700703716E8 ; 7.259306172925528E9 ; 0.0
45 ; 7890262.89157942 ; 2.0202945736976975E8 ; 3.3964265087553155E8 ; 7.461323446985466E9 ; 0.0
46 ; 7895896.854740299 ; 2.0204189378359246E8 ; 3.47532913767111E8 ; 7.663352904355236E9 ; 0.0
47 ; 7900361.204194918 ; 2.0205457698254862E8 ; 3.554288106218513E8 ; 7.865394798138828E9 ; 0.0
48 ; 7904007.497388517 ; 2.0206750069867387E8 ; 3.633291718260462E8 ; 8.067449375121377E9 ; 0.0
49 ; 7906526.005713447 ; 2.0208065872173476E8 ; 3.7123317932343477E8 ; 8.269516875820051E9 ; 0.0
50 ; 7910682.217213234 ; 2.0209404490544254E8 ; 3.7913970532914823E8 ; 8.471597534541786E9 ; 0.0
51 ; 7912391.762828573 ; 2.0210765317306376E8 ; 3.8705038754636145E8 ; 8.67369157944723E9 ; 0.0
52 ; 7914833.216761628 ; 2.021214775224525E8 ; 3.9496277930919003E8 ; 8.875799232620293E9 ; 0.0
53 ; 7916776.161201887 ; 2.0213551203052804E8 ; 4.028776125259517E8 ; 9.077920710142746E9 ; 0.0
54 ; 7919933.524025984 ; 2.0214975085722446E8 ; 4.107943886871536E8 ; 9.280056222173273E9 ; 0.0
55 ; 7924712.345744318 ; 2.021641882489394E8 ; 4.1871432221117955E8 ; 9.482205973030499E9 ; 0.0
56 ; 7925635.366902302 ; 2.0217881854150862E8 ; 4.2663903455692387E8 ; 9.684370161279438E9 ; 0.0
57 ; 7929532.52168437 ; 2.0219363616273496E8 ; 4.3456466992382616E8 ; 9.886548979820946E9 ; 0.0
58 ; 7931177.597437303 ; 2.0220863563449815E8 ; 4.424942024455105E8 ; 1.008874261598368E10 ; 0.0
59 ; 7931873.796280031 ; 2.0222381157447386E8 ; 4.504253800429478E8 ; 1.029095125161818E10 ; 0.0
60 ; 7934868.431968439 ; 2.02239158697488E8 ; 4.5835725383922786E8 ; 1.0493175063192654E10 ; 0.0
61 ; 7936708.049833504 ; 2.0225467181653306E8 ; 4.662921222711963E8 ; 1.0695414221890142E10 ; 0.0
62 ; 7940459.993077355 ; 2.0227034584347168E8 ; 4.742288303210298E8 ; 1.0897668893706675E10 ; 0.0
63 ; 7942655.179933384 ; 2.0228617578945222E8 ; 4.821692903141071E8 ; 1.1099939239550146E10 ; 0.0
64 ; 7943271.641294836 ; 2.0230215676506004E8 ; 4.901119454940405E8 ; 1.1302225415339598E10 ; 0.0
65 ; 7947728.625195614 ; 2.0231828398022714E8 ; 4.980552171353353E8 ; 1.1504527572104658E10 ; 0.0
66 ; 7944135.394498454 ; 2.0233455274392185E8 ; 5.0600294576053095E8 ; 1.1706845856084885E10 ; 0.0
67 ; 7946948.197069842 ; 2.0235095846363902E8 ; 5.139470811550294E8 ; 1.1909180408828806E10 ; 0.0
68 ; 7950369.18135263 ; 2.023674966447104E8 ; 5.2189402935209924E8 ; 1.2111531367292444E10 ; 0.0
69 ; 7951490.345688092 ; 2.023841628894534E8 ; 5.2984439853345186E8 ; 1.2313898863937155E10 ; 0.0
70 ; 7954388.050521367 ; 2.0240095289617547E8 ; 5.377958888791399E8 ; 1.2516283026826609E10 ; 0.0
71 ; 7952335.082155145 ; 2.0241786245805037E8 ; 5.457502769296613E8 ; 1.2718683979722784E10 ; 0.0
72 ; 7954230.035637692 ; 2.0243488746188152E8 ; 5.537026120118164E8 ; 1.2921101842180834E10 ; 0.0
73 ; 7954970.412680909 ; 2.0245202388676614E8 ; 5.616568420474541E8 ; 1.3123536729642715E10 ; 0.0
74 ; 7960651.942901352 ; 2.0246926780267385E8 ; 5.69611812460135E8 ; 1.3325988753529482E10 ; 0.0
75 ; 7956853.332098752 ; 2.0248661536895126E8 ; 5.775724644030364E8 ; 1.3528458021332155E10 ; 0.0
76 ; 7959170.159440858 ; 2.0250406283276415E8 ; 5.855293177351351E8 ; 1.3730944636701107E10 ; 0.0
77 ; 7960979.720004525 ; 2.0252160652748734E8 ; 5.93488487894576E8 ; 1.393344869953387E10 ; 0.0
78 ; 7961514.464996142 ; 2.0253924287105164E8 ; 6.014494676145805E8 ; 1.4135970306061357E10 ; 0.0
79 ; 7960092.896218368 ; 2.0255696836425707E8 ; 6.094109820795766E8 ; 1.433850954893241E10 ; 0.0
80 ; 7959079.038402075 ; 2.025747795890594E8 ; 6.17371074975795E8 ; 1.4541066517296667E10 ; 0.0
81 ; 7956261.671420371 ; 2.0259267320683813E8 ; 6.253301540141971E8 ; 1.4743641296885727E10 ; 0.0
82 ; 7954106.177124166 ; 2.026106459566516E8 ; 6.332864156856174E8 ; 1.4946233970092566E10 ; 0.0
83 ; 7952816.494500884 ; 2.026286946534861E8 ; 6.412405218627416E8 ; 1.5148844616049217E10 ; 0.0
84 ; 7950604.9604119025 ; 2.0264681618650338E8 ; 6.491933383572425E8 ; 1.5351473310702703E10 ; 0.0
85 ; 7949176.282221627 ; 2.0266500751729196E8 ; 6.571439433176544E8 ; 1.5554120126889206E10 ; 0.0
86 ; 7945822.980913918 ; 2.0268326567812642E8 ; 6.65093119599876E8 ; 1.5756785134406498E10 ; 0.0
87 ; 7946176.759181836 ; 2.0270158777023828E8 ; 6.730389425807899E8 ; 1.5959468400084625E10 ; 0.0
88 ; 7942373.609102864 ; 2.0271997096210223E8 ; 6.809851193399718E8 ; 1.6162169987854864E10 ; 0.0
89 ; 7941316.152558469 ; 2.0273841248774034E8 ; 6.889274929490746E8 ; 1.6364889958816967E10 ; 0.0
90 ; 7942010.840695456 ; 2.0275690964504716E8 ; 6.968688091016331E8 ; 1.6567628371304707E10 ; 0.0
91 ; 7939465.927921922 ; 2.0277545979413778E8 ; 7.048108199423286E8 ; 1.6770385280949753E10 ; 0.0
92 ; 7937396.873545615 ; 2.0279406035572115E8 ; 7.127502858702505E8 ; 1.697316074074389E10 ; 0.0
93 ; 7935157.428987593 ; 2.028127088094999E8 ; 7.206876827437961E8 ; 1.7175954801099611E10 ; 0.0
94 ; 7929541.957997852 ; 2.0283140269259852E8 ; 7.286228401727837E8 ; 1.737876750990911E10 ; 0.0
95 ; 7927892.846456788 ; 2.0285013959802094E8 ; 7.365523821307815E8 ; 1.758159891260171E10 ; 0.0
96 ; 7924677.044441901 ; 2.028689171731384E8 ; 7.444802749772383E8 ; 1.7784449052199734E10 ; 0.0
97 ; 7923949.405874523 ; 2.0288773311820853E8 ; 7.524049520216802E8 ; 1.798731796937287E10 ; 0.0
98 ; 7918043.087795967 ; 2.0290658518492633E8 ; 7.603289014275547E8 ; 1.819020570249108E10 ; 0.0
99 ; 7918748.072313814 ; 2.0292547117500722E8 ; 7.682469445153507E8 ; 1.8393112287676006E10 ; 0.0
100 ; 7915918.852361472 ; 2.0294438893880293E8 ; 7.761656925876645E8 ; 1.8596037758851013E10 ; 0.0
101 ; 7911555.9454773115 ; 2.029633363739498E8 ; 7.840816114400259E8 ; 1.8798982147789818E10 ; 0.0
102 ; 7908725.466338918 ; 2.0298231142405018E8 ; 7.919931673855033E8 ; 1.900194548416377E10 ; 0.0
103 ; 7904168.898920419 ; 2.030013120773866E8 ; 7.999018928518422E8 ; 1.920492779558782E10 ; 0.0
104 ; 7900759.0823461 ; 2.0302033636566845E8 ; 8.078060617507626E8 ; 1.9407929107665203E10 ; 0.0
105 ; 7898854.429077381 ; 2.030393823628113E8 ; 8.157068208331087E8 ; 1.9610949444030872E10 ; 0.0
106 ; 7895019.602112783 ; 2.030584481837484E8 ; 8.23605675262186E8 ; 1.9813988826393684E10 ; 0.0
107 ; 7893367.154714006 ; 2.0307753198327383E8 ; 8.315006948642988E8 ; 2.0017047274577435E10 ; 0.0
108 ; 7893888.782908581 ; 2.030966319549175E8 ; 8.393940620190128E8 ; 2.0220124806560707E10 ; 0.0
109 ; 7886121.483684318 ; 2.0311574632985073E8 ; 8.472879508019214E8 ; 2.0423221438515625E10 ; 0.0
110 ; 7883666.960742086 ; 2.0313487337582284E8 ; 8.551740722856057E8 ; 2.0626337184845474E10 ; 0.0
111 ; 7878627.658977683 ; 2.031540113961273E8 ; 8.630577392463478E8 ; 2.08294720582213E10 ; 0.0
112 ; 7874917.365548662 ; 2.031731587285979E8 ; 8.709363669053254E8 ; 2.1032626069617424E10 ; 0.0
113 ; 7871324.256307894 ; 2.0319231374463323E8 ; 8.78811284270874E8 ; 2.1235799228346024E10 ; 0.0
114 ; 7868071.359095155 ; 2.032114748482501E8 ; 8.866826085271819E8 ; 2.1438991542090656E10 ; 0.0
115 ; 7866895.251328174 ; 2.032306404751642E8 ; 8.94550679886277E8 ; 2.1642203016938908E10 ; 0.0
116 ; 7860455.175417935 ; 2.0324980909189838E8 ; 9.024175751376052E8 ; 2.184543365741407E10 ; 0.0
117 ; 7856261.543270531 ; 2.0326897919491678E8 ; 9.102780303130231E8 ; 2.204868346650597E10 ; 0.0
118 ; 7852005.6612826465 ; 2.0328814930978552E8 ; 9.181342918562937E8 ; 2.2251952445700886E10 ; 0.0
119 ; 7849060.33956153 ; 2.0330731799035814E8 ; 9.259862975175763E8 ; 2.245524059501067E10 ; 0.0
120 ; 7843840.392537786 ; 2.033264838179858E8 ; 9.338353578571379E8 ; 2.2658547913001026E10 ; 0.0
121 ; 7839569.611262056 ; 2.0334564540075156E8 ; 9.416791982496758E8 ; 2.286187439681901E10 ; 0.0
122 ; 7837029.154815397 ; 2.0336480137272775E8 ; 9.495187678609378E8 ; 2.3065220042219765E10 ; 0.0
123 ; 7833933.944717265 ; 2.033839503932563E8 ; 9.573557970157533E8 ; 2.326858484359249E10 ; 0.0
124 ; 7827353.405314899 ; 2.0340309114625105E8 ; 9.651897309604706E8 ; 2.347196879398575E10 ; 0.0
125 ; 7823455.077788025 ; 2.034222223395216E8 ; 9.730170843657855E8 ; 2.3675371885132E10 ; 0.0
126 ; 7819494.762475101 ; 2.034413427041178E8 ; 9.808405394435735E8 ; 2.3878794107471523E10 ; 0.0
127 ; 7814335.251133263 ; 2.034604509936951E8 ; 9.886600342060486E8 ; 2.408223545017564E10 ; 0.0
128 ; 7809110.079742281 ; 2.0347954598389894E8 ; 9.964743694571819E8 ; 2.4285695901169334E10 ; 0.0
129 ; 7805518.750007995 ; 2.0349862647176853E8 ; 1.0042834795369242E9 ; 2.4489175447153233E10 ; 0.0
130 ; 7795566.885449036 ; 2.035176912751595E8 ; 1.0120889982869322E9 ; 2.4692674073625E10 ; 0.0
131 ; 7792309.273632611 ; 2.0353673923218402E8 ; 1.0198845651723813E9 ; 2.4896191764900158E10 ; 0.0
132 ; 7783218.913365714 ; 2.0355576920066878E8 ; 1.0276768744460139E9 ; 2.5099728504132343E10 ; 0.0
133 ; 7779452.854632309 ; 2.0357478005762976E8 ; 1.0354600933593796E9 ; 2.530328427333301E10 ; 0.0
134 ; 7766448.313421966 ; 2.0359377069876343E8 ; 1.0432395462140119E9 ; 2.550685905339064E10 ; 0.0
135 ; 7762970.141142335 ; 2.0361274003795394E8 ; 1.0510059945274339E9 ; 2.5710452824089405E10 ; 0.0
136 ; 7752613.202629141 ; 2.0363168700679561E8 ; 1.0587689646685762E9 ; 2.5914065564127357E10 ; 0.0
137 ; 7748286.474851289 ; 2.0365061055413058E8 ; 1.0665215778712053E9 ; 2.611769725113415E10 ; 0.0
138 ; 7738980.271982325 ; 2.0366950964560074E8 ; 1.0742698643460567E9 ; 2.6321347861688282E10 ; 0.0
139 ; 7732018.385527125 ; 2.0368838326321375E8 ; 1.0820088446180391E9 ; 2.652501737133388E10 ; 0.0
140 ; 7722685.490479547 ; 2.0370723040492275E8 ; 1.0897408630035663E9 ; 2.6728705754597095E10 ; 0.0
141 ; 7718667.40507584 ; 2.037260500842192E8 ; 1.0974635484940457E9 ; 2.6932412985002018E10 ; 0.0
142 ; 7709406.3196837045 ; 2.037448413297382E8 ; 1.1051822158991215E9 ; 2.713613903508624E10 ; 0.0
143 ; 7700007.512213596 ; 2.037636031848766E8 ; 1.1128916222188053E9 ; 2.7339883876415977E10 ; 0.0
144 ; 7691634.698379005 ; 2.0378233470742276E8 ; 1.120591629731019E9 ; 2.7543647479600853E10 ; 0.0
145 ; 7686635.601317507 ; 2.0380103496919793E8 ; 1.128283264429398E9 ; 2.7747429814308277E10 ; 0.0
146 ; 7680960.33781335 ; 2.038197030557088E8 ; 1.1359699000307155E9 ; 2.7951230849277473E10 ; 0.0
147 ; 7676319.947352195 ; 2.0383833806581095E8 ; 1.1436508603685288E9 ; 2.8155050552333183E10 ; 0.0
148 ; 7674296.1780243935 ; 2.0385693911138278E8 ; 1.151327180315881E9 ; 2.8358888890398994E10 ; 0.0
149 ; 7667036.29705439 ; 2.0387550531700957E8 ; 1.1590014764939053E9 ; 2.8562745829510376E10 ; 0.0
150 ; 7661448.725276222 ; 2.038940358196773E8 ; 1.1666685127909596E9 ; 2.8766621334827385E10 ; 0.0
151 ; 7657178.2283580415 ; 2.0391252976847607E8 ; 1.1743299615162358E9 ; 2.897051537064706E10 ; 0.0
152 ; 7648496.513472291 ; 2.0393098632431278E8 ; 1.1819871397445939E9 ; 2.9174427900415535E10 ; 0.0
153 ; 7648708.570203885 ; 2.0394940465963235E8 ; 1.1896356362580662E9 ; 2.937835888673985E10 ; 0.0
154 ; 7638946.984676606 ; 2.0396778395814815E8 ; 1.19728434482827E9 ; 2.9582308291399483E10 ; 0.0
155 ; 7632368.965689916 ; 2.0398612341458023E8 ; 1.2049232918129466E9 ; 2.978627607535763E10 ; 0.0
156 ; 7631179.385533214 ; 2.040044222344018E8 ; 1.2125556607786365E9 ; 2.9990262198772213E10 ; 0.0
157 ; 7623941.93306562 ; 2.0402267963359368E8 ; 1.2201868401641698E9 ; 3.0194266621006615E10 ; 0.0
158 ; 7618033.72572244 ; 2.040408948384061E8 ; 1.2278107820972354E9 ; 3.039828930064021E10 ; 0.0
159 ; 7613641.75611013 ; 2.040590670851277E8 ; 1.235428815822958E9 ; 3.0602330195478615E10 ; 0.0
160 ; 7603735.889798822 ; 2.0407719561986217E8 ; 1.2430424575790682E9 ; 3.0806389262563744E10 ; 0.0
161 ; 7601716.570147455 ; 2.0409527969831088E8 ; 1.250646193468867E9 ; 3.1010466458183605E10 ; 0.0
162 ; 7595488.390299825 ; 2.041133185855629E8 ; 1.2582479100390146E9 ; 3.1214561737881916E10 ; 0.0
163 ; 7590254.973376811 ; 2.0413131155589104E8 ; 1.2658433984293144E9 ; 3.141867505646748E10 ; 0.0
164 ; 7585058.29770059 ; 2.0414925789255407E8 ; 1.2734336534026911E9 ; 3.162280636802337E10 ; 0.0
165 ; 7578352.937713611 ; 2.0416715688760525E8 ; 1.2810187117003918E9 ; 3.1826955625915924E10 ; 0.0
166 ; 7573789.349064864 ; 2.0418500784170628E8 ; 1.2885970646381054E9 ; 3.2031122782803528E10 ; 0.0
167 ; 7566255.730730862 ; 2.0420281006394717E8 ; 1.2961708539871702E9 ; 3.2235307790645233E10 ; 0.0
168 ; 7559986.410165136 ; 2.0422056287167147E8 ; 1.303737109717901E9 ; 3.243951060070918E10 ; 0.0
169 ; 7554867.537241459 ; 2.042382655903067E8 ; 1.311297096128066E9 ; 3.264373116358085E10 ; 0.0
170 ; 7549631.125984294 ; 2.0425591755319986E8 ; 1.3188519636653075E9 ; 3.2847969429171154E10 ; 0.0
171 ; 7542896.5087004835 ; 2.0427351810145816E8 ; 1.3264015947912917E9 ; 3.3052225346724354E10 ; 0.0
172 ; 7538955.020681443 ; 2.0429106658379412E8 ; 1.333944491299992E9 ; 3.3256498864825813E10 ; 0.0
173 ; 7529798.947715096 ; 2.0430856235637558E8 ; 1.3414834463206735E9 ; 3.3460789931409607E10 ; 0.0
174 ; 7528865.290379948 ; 2.0432600478268015E8 ; 1.3490132452683885E9 ; 3.3665098493765984E10 ; 0.0
175 ; 7526257.049576422 ; 2.0434339323335394E8 ; 1.3565421105587685E9 ; 3.3869424498548664E10 ; 0.0
176 ; 7520934.268957878 ; 2.0436072708607444E8 ; 1.364068367608345E9 ; 3.4073767891782017E10 ; 0.0
177 ; 7518429.273650562 ; 2.0437800572541764E8 ; 1.371589301877303E9 ; 3.427812861886809E10 ; 0.0
178 ; 7514128.449580136 ; 2.0439522854272896E8 ; 1.3791077311509535E9 ; 3.4482506624593506E10 ; 0.0
179 ; 7513244.987072794 ; 2.0441239493599805E8 ; 1.3866218596005337E9 ; 3.468690185313624E10 ; 0.0
180 ; 7507940.637485014 ; 2.044295043097372E8 ; 1.3941351045876064E9 ; 3.4891314248072235E10 ; 0.0
181 ; 7502608.05852425 ; 2.0444655607486352E8 ; 1.4016430452250915E9 ; 3.509574375238197E10 ; 0.0
182 ; 7500815.562517639 ; 2.0446354964858434E8 ; 1.4091456532836156E9 ; 3.530019030845684E10 ; 0.0
183 ; 7495972.935230739 ; 2.0448048445428613E8 ; 1.4166464688461332E9 ; 3.550465385810542E10 ; 0.0
184 ; 7491915.658381761 ; 2.0449735992142674E8 ; 1.424142441781364E9 ; 3.570913434255971E10 ; 0.0
185 ; 7486287.310356524 ; 2.0451417548543057E8 ; 1.4316343574397457E9 ; 3.591363170248113E10 ; 0.0
186 ; 7484328.611191907 ; 2.0453093058758694E8 ; 1.4391206447501023E9 ; 3.611814587796656E10 ; 0.0
187 ; 7483849.49455787 ; 2.045476246749515E8 ; 1.4466049733612943E9 ; 3.6322676808554146E10 ; 0.0
188 ; 7477704.738828388 ; 2.0456425720025024E8 ; 1.4540888228558521E9 ; 3.6527224433229095E10 ; 0.0
189 ; 7472195.126565331 ; 2.0458082762178668E8 ; 1.4615665275946805E9 ; 3.6731788690429344E10 ; 0.0
190 ; 7470701.748756401 ; 2.0459733540335128E8 ; 1.4690387227212458E9 ; 3.693636951805113E10 ; 0.0
191 ; 7466675.263298519 ; 2.0461378001413384E8 ; 1.4765094244700022E9 ; 3.714096685345448E10 ; 0.0
192 ; 7462760.99885293 ; 2.0463016092863837E8 ; 1.4839760997333007E9 ; 3.734558063346862E10 ; 0.0
193 ; 7460141.697680667 ; 2.0464647762660015E8 ; 1.4914388607321537E9 ; 3.7550210794397255E10 ; 0.0
194 ; 7454902.813833897 ; 2.0466272959290552E8 ; 1.4988990024298344E9 ; 3.775485727202386E10 ; 0.0
195 ; 7452107.605718254 ; 2.046789163175138E8 ; 1.5063539052436683E9 ; 3.795952000161676E10 ; 0.0
196 ; 7450271.988321751 ; 2.0469503729538134E8 ; 1.5138060128493865E9 ; 3.816419891793427E10 ; 0.0
197 ; 7446855.841836575 ; 2.047E8 ; 1.5212562848377082E9 ; 3.836889395522965E10 ; 0.0
198 ; 7438995.105275424 ; 2.047E8 ; 1.528703140679545E9 ; 3.857359395522965E10 ; 0.0
199 ; 7438683.427415159 ; 1.900446093169335E8 ; 1.5361421357848203E9 ; 3.877829395522965E10 ; 0.0
200 ; 7436037.003404083 ; 1.5620807492166224E8 ; 1.5435808192122355E9 ; 3.8968338564546585E10 ; 0.0
201 ; 7433197.5310675865 ; 1.5586000678114402E8 ; 1.5510168562156396E9 ; 3.912454663946825E10 ; 0.0
