CSV File for the City 6 on Day 81
1 - Minute m 
2 - Power Consumed at minute m 
3 - Power Produced at minute m 
4 - Energy Consumed since the beginning of the day 
5 - Energy Produced since the beginning of the day 
6 - Energy Lost since the beginning of the day on lines starting from the city
 
0 ; 1.1164725127017252E7 ; 1.0604287894352534E8 ; 0.0 ; 0.0 ; 0.0
1 ; 1.1175224460022435E7 ; 1.0619373671443844E8 ; 1.1164725127017252E7 ; 1.0604287894352534E8 ; 0.0
2 ; 1.118428115782854E7 ; 1.066535886782473E8 ; 2.2339949587039687E7 ; 2.1223661565796378E8 ; 0.0
3 ; 1.1198601321605602E7 ; 1.0742243884192431E8 ; 3.3524230744868226E7 ; 3.188902043362111E8 ; 0.0
4 ; 1.121519745624047E7 ; 1.0850029080075675E8 ; 4.472283206647383E7 ; 4.263126431781354E8 ; 0.0
5 ; 1.1234934542105569E7 ; 1.0988714771697158E8 ; 5.5938029522714294E7 ; 5.3481293397889215E8 ; 0.0
6 ; 1.1262067537879052E7 ; 1.1158301230054685E8 ; 6.717296406481986E7 ; 6.447000816958637E8 ; 0.0
7 ; 1.1299320152971346E7 ; 1.1358788679247755E8 ; 7.84350316026989E7 ; 7.562830939964106E8 ; 0.0
8 ; 1.135358622452271E7 ; 1.1590177295073318E8 ; 8.973435175567025E7 ; 8.698709807888882E8 ; 0.0
9 ; 1.1433220360048834E7 ; 1.1852467203911352E8 ; 1.0108793798019296E8 ; 9.857727537396214E8 ; 0.0
10 ; 1.1556410857750343E7 ; 1.2145658481916589E8 ; 1.1252115834024179E8 ; 1.104297425778735E9 ; 0.0
11 ; 1.1753532142271934E7 ; 1.2469751154528639E8 ; 1.2407756919799213E8 ; 1.2257540105979009E9 ; 0.0
12 ; 1.207092999051251E7 ; 1.2824745196307889E8 ; 1.3583110134026405E8 ; 1.3504515221431873E9 ; 0.0
13 ; 1.2377255579207756E7 ; 1.3210640531099606E8 ; 1.4790203133077657E8 ; 1.4786989741062663E9 ; 0.0
14 ; 1.2412034507797902E7 ; 1.3627437032523823E8 ; 1.6027928690998432E8 ; 1.6108053794172623E9 ; 0.0
15 ; 1.2426670527561191E7 ; 1.4075134524783576E8 ; 1.7269132141778222E8 ; 1.7470797497425005E9 ; 0.0
16 ; 1.2441069617749726E7 ; 1.455373278377938E8 ; 1.851179919453434E8 ; 1.8878310949903364E9 ; 0.0
17 ; 1.245431597072137E7 ; 1.506323153851342E8 ; 1.9755906156309313E8 ; 2.0333684228281302E9 ; 0.0
18 ; 1.246863698833624E7 ; 1.5603630472763002E8 ; 2.100133775338145E8 ; 2.1840007382132645E9 ; 0.0
19 ; 1.2483405572857784E7 ; 1.61749292269994E8 ; 2.2248201452215073E8 ; 2.3400370429408946E9 ; 0.0
20 ; 1.24964187482796E7 ; 1.677712740052537E8 ; 2.3496542009500852E8 ; 2.5017863352108884E9 ; 0.0
21 ; 1.2512988804148225E7 ; 1.7410224553802493E8 ; 2.4746183884328812E8 ; 2.669557609216142E9 ; 0.0
22 ; 1.2527705023935484E7 ; 1.807422021093787E8 ; 2.5997482764743635E8 ; 2.843659854754167E9 ; 0.0
23 ; 1.2542756013675734E7 ; 1.8769113862299126E8 ; 2.725025326713718E8 ; 3.024402056863546E9 ; 0.0
24 ; 1.2559440912942087E7 ; 1.949490496722623E8 ; 2.8504528868504757E8 ; 3.212093195486537E9 ; 0.0
25 ; 1.2570539573486427E7 ; 2.0120397046627593E8 ; 2.976047295979897E8 ; 3.407042245158799E9 ; 0.0
26 ; 1.2585477616870923E7 ; 2.0120944289483416E8 ; 3.101752691714761E8 ; 3.6082462156250753E9 ; 0.0
27 ; 1.2597915909353567E7 ; 2.0121523008157393E8 ; 3.2276074678834707E8 ; 3.8094556585199094E9 ; 0.0
28 ; 1.2611614618864011E7 ; 2.0122132565876332E8 ; 3.353586626977006E8 ; 4.0106708886014833E9 ; 0.0
29 ; 1.2625194250421105E7 ; 2.012277230881386E8 ; 3.479702773165646E8 ; 4.2118922142602468E9 ; 0.0
30 ; 1.2644385951110886E7 ; 2.0123441568784505E8 ; 3.605954715669857E8 ; 4.413119937348386E9 ; 0.0
31 ; 1.265136258160911E7 ; 2.012413966585349E8 ; 3.732398575180966E8 ; 4.614354353036231E9 ; 0.0
32 ; 1.2666433121940797E7 ; 2.0124865910845807E8 ; 3.8589122009970576E8 ; 4.815595749694766E9 ; 0.0
33 ; 1.2678746106393842E7 ; 2.012561960774073E8 ; 3.9855765322164655E8 ; 5.016844408803225E9 ; 0.0
34 ; 1.269156193568381E7 ; 2.0126400055940753E8 ; 4.1123639932804036E8 ; 5.218100604880631E9 ; 0.0
35 ; 1.2702920908335501E7 ; 2.0127206552406445E8 ; 4.2392796126372415E8 ; 5.419364605440039E9 ; 0.0
36 ; 1.2719863086791271E7 ; 2.0128038393651128E8 ; 4.3663088217205966E8 ; 5.620636670964103E9 ; 0.0
37 ; 1.2726822065916153E7 ; 2.0128894877591592E8 ; 4.4935074525885093E8 ; 5.821917054900614E9 ; 0.0
38 ; 1.2736093222223308E7 ; 2.012977530525309E8 ; 4.620775673247671E8 ; 6.02320600367653E9 ; 0.0
39 ; 1.2742702264360946E7 ; 2.013067898232866E8 ; 4.748136605469904E8 ; 6.224503756729061E9 ; 0.0
40 ; 1.2758331890036805E7 ; 2.0131605220594472E8 ; 4.8755636281135136E8 ; 6.425810546552348E9 ; 0.0
41 ; 1.2766752738814091E7 ; 2.0132553339184314E8 ; 5.003146947013882E8 ; 6.627126598758293E9 ; 0.0
42 ; 1.2776511024967581E7 ; 2.0133522665727356E8 ; 5.130814474402023E8 ; 6.828452132150136E9 ; 0.0
43 ; 1.2781256881521028E7 ; 2.0134512537354496E8 ; 5.258579584651699E8 ; 7.029787358807409E9 ; 0.0
44 ; 1.2791681007718503E7 ; 2.013552230157914E8 ; 5.386392153466909E8 ; 7.231132484180954E9 ; 0.0
45 ; 1.279795198149015E7 ; 2.013655131705898E8 ; 5.514308963544095E8 ; 7.432487707196745E9 ; 0.0
46 ; 1.280349787552821E7 ; 2.0137598954245737E8 ; 5.642288483358996E8 ; 7.633853220367334E9 ; 0.0
47 ; 1.2812029691369118E7 ; 2.0138664595929953E8 ; 5.770323462114278E8 ; 7.835229209909792E9 ; 0.0
48 ; 1.2814754519182961E7 ; 2.0139747637688264E8 ; 5.89844375902797E8 ; 8.036615855869091E9 ; 0.0
49 ; 1.2817433033660993E7 ; 2.014084748824044E8 ; 6.026591304219799E8 ; 8.238013332245974E9 ; 0.0
50 ; 1.2825970071085382E7 ; 2.014196356972346E8 ; 6.154765634556409E8 ; 8.439421807128378E9 ; 0.0
51 ; 1.2829043456345772E7 ; 2.0143095317889756E8 ; 6.283025335267262E8 ; 8.640841442825613E9 ; 0.0
52 ; 1.2833869278476834E7 ; 2.0144242182236502E8 ; 6.41131576983072E8 ; 8.84227239600451E9 ; 0.0
53 ; 1.2837889013643716E7 ; 2.014540362607258E8 ; 6.539654462615489E8 ; 9.043714817826876E9 ; 0.0
54 ; 1.2840909894831074E7 ; 2.0146579126529562E8 ; 6.668033352751926E8 ; 9.2451688540876E9 ; 0.0
55 ; 1.2842654362528307E7 ; 2.0147768174522674E8 ; 6.796442451700237E8 ; 9.446634645352896E9 ; 0.0
56 ; 1.2852749784820072E7 ; 2.014897027466737E8 ; 6.92486899532552E8 ; 9.648112327098122E9 ; 0.0
57 ; 1.2845767736477166E7 ; 2.015018494515685E8 ; 7.053396493173721E8 ; 9.849602029844795E9 ; 0.0
58 ; 1.2858368520865748E7 ; 2.015141171760533E8 ; 7.181854170538492E8 ; 1.0051103879296364E10 ; 0.0
59 ; 1.2853149497167896E7 ; 2.01526501368617E8 ; 7.31043785574715E8 ; 1.0252617996472418E10 ; 0.0
60 ; 1.2860901050326625E7 ; 2.0153899760797715E8 ; 7.43896935071883E8 ; 1.0454144497841034E10 ; 0.0
61 ; 1.2862752046864217E7 ; 2.0155160160074556E8 ; 7.567578361222095E8 ; 1.065568349544901E10 ; 0.0
62 ; 1.2863363334723786E7 ; 2.015643091789126E8 ; 7.696205881690738E8 ; 1.0857235097049757E10 ; 0.0
63 ; 1.2868621383773293E7 ; 2.015771162971825E8 ; 7.824839515037977E8 ; 1.105879940622867E10 ; 0.0
64 ; 1.2870043521599235E7 ; 2.0159001903018764E8 ; 7.95352572887571E8 ; 1.1260376522525852E10 ; 0.0
65 ; 1.2872104600916313E7 ; 2.016030135696088E8 ; 8.082226164091703E8 ; 1.146196654155604E10 ; 0.0
66 ; 1.287537058778759E7 ; 2.0161609622122383E8 ; 8.210947210100865E8 ; 1.1663569555125648E10 ; 0.0
67 ; 1.2877131674757851E7 ; 2.016292634019058E8 ; 8.339700915978742E8 ; 1.1865185651346872E10 ; 0.0
68 ; 1.2879650959278526E7 ; 2.016425116365895E8 ; 8.46847223272632E8 ; 1.2066814914748777E10 ; 0.0
69 ; 1.2882911435950259E7 ; 2.0165583755522192E8 ; 8.597268742319106E8 ; 1.2268457426385366E10 ; 0.0
70 ; 1.2881061792169275E7 ; 2.0166923788971183E8 ; 8.726097856678609E8 ; 1.2470113263940588E10 ; 0.0
71 ; 1.2882610976371463E7 ; 2.0168270947089046E8 ; 8.854908474600302E8 ; 1.26717825018303E10 ; 0.0
72 ; 1.2893181401198816E7 ; 2.016962492254947E8 ; 8.983734584364016E8 ; 1.287346521130119E10 ; 0.0
73 ; 1.2889201923077844E7 ; 2.017098541731818E8 ; 9.112666398376005E8 ; 1.3075161460526684E10 ; 0.0
74 ; 1.2889011573738841E7 ; 2.0172352142358407E8 ; 9.241558417606783E8 ; 1.3276871314699865E10 ; 0.0
75 ; 1.2887973983026972E7 ; 2.0173724817341045E8 ; 9.370448533344171E8 ; 1.347859483612345E10 ; 0.0
76 ; 1.289000012280738E7 ; 2.0175103170360026E8 ; 9.499328273174441E8 ; 1.368033208429686E10 ; 0.0
77 ; 1.289222708857433E7 ; 2.0176486937653446E8 ; 9.628228274402515E8 ; 1.388208311600046E10 ; 0.0
78 ; 1.2890143396059074E7 ; 2.0177875863330826E8 ; 9.757150545288258E8 ; 1.4083847985376995E10 ; 0.0
79 ; 1.2884354266483594E7 ; 2.017926969910677E8 ; 9.886051979248848E8 ; 1.4285626744010303E10 ; 0.0
80 ; 1.2881027380403941E7 ; 2.018066820404133E8 ; 1.0014895521913683E9 ; 1.4487419441001371E10 ; 0.0
81 ; 1.2881183053512616E7 ; 2.0182071144287217E8 ; 1.0143705795717723E9 ; 1.4689226123041784E10 ; 0.0
82 ; 1.2875272035072217E7 ; 2.0183478292843994E8 ; 1.0272517626252849E9 ; 1.4891046834484657E10 ; 0.0
83 ; 1.2872541161141545E7 ; 2.0184889429319337E8 ; 1.0401270346603571E9 ; 1.5092881617413097E10 ; 0.0
84 ; 1.2872877263035877E7 ; 2.018630433969739E8 ; 1.0529995758214986E9 ; 1.5294730511706291E10 ; 0.0
85 ; 1.2866099640640983E7 ; 2.0187722816114214E8 ; 1.0658724530845345E9 ; 1.5496593555103266E10 ; 0.0
86 ; 1.286291855549949E7 ; 2.0189144656640318E8 ; 1.0787385527251756E9 ; 1.5698470783264408E10 ; 0.0
87 ; 1.2860924943787135E7 ; 2.0190569665070176E8 ; 1.0916014712806752E9 ; 1.590036222983081E10 ; 0.0
88 ; 1.2857018431926344E7 ; 2.0191997650718716E8 ; 1.1044623962244623E9 ; 1.6102267926481512E10 ; 0.0
89 ; 1.2849071659826215E7 ; 2.0193428428224578E8 ; 1.1173194146563885E9 ; 1.6304187902988699E10 ; 0.0
90 ; 1.2850595822831662E7 ; 2.0194861817360142E8 ; 1.1301684863162148E9 ; 1.6506122187270945E10 ; 0.0
91 ; 1.2840883918297825E7 ; 2.019629764284809E8 ; 1.1430190821390464E9 ; 1.6708070805444546E10 ; 0.0
92 ; 1.284132688470357E7 ; 2.0197735734184432E8 ; 1.1558599660573442E9 ; 1.6910033781873026E10 ; 0.0
93 ; 1.2833604996298686E7 ; 2.0199175925467822E8 ; 1.1687012929420478E9 ; 1.711201113921487E10 ; 0.0
94 ; 1.2824931265968291E7 ; 2.0200618055234995E8 ; 1.1815348979383466E9 ; 1.7314002898469547E10 ; 0.0
95 ; 1.2821161084149146E7 ; 2.0202061966302168E8 ; 1.194359829204315E9 ; 1.7516009079021896E10 ; 0.0
96 ; 1.2817464144335784E7 ; 2.0203507505612257E8 ; 1.207180990288464E9 ; 1.7718029698684917E10 ; 0.0
97 ; 1.2812950398873929E7 ; 2.0204954524087727E8 ; 1.2199984544327998E9 ; 1.792006477374104E10 ; 0.0
98 ; 1.280688370263112E7 ; 2.020640287648888E8 ; 1.2328114048316739E9 ; 1.812211431898192E10 ; 0.0
99 ; 1.2805303793114645E7 ; 2.0207852421277472E8 ; 1.245618288534305E9 ; 1.8324178347746807E10 ; 0.0
100 ; 1.2797977441835318E7 ; 2.020930302048542E8 ; 1.2584235923274198E9 ; 1.8526256871959583E10 ; 0.0
101 ; 1.2794627793256622E7 ; 2.0210754539588484E8 ; 1.2712215697692552E9 ; 1.8728349902164436E10 ; 0.0
102 ; 1.2789890533419147E7 ; 2.0212206847384718E8 ; 1.2840161975625117E9 ; 1.893045744756032E10 ; 0.0
103 ; 1.2782269177488808E7 ; 2.0213659815877557E8 ; 1.2968060880959308E9 ; 1.913257951603417E10 ; 0.0
104 ; 1.2775962541981542E7 ; 2.0215113320163354E8 ; 1.3095883572734196E9 ; 1.9334716114192944E10 ; 0.0
105 ; 1.2771620028107328E7 ; 2.0216567238323224E8 ; 1.322364319815401E9 ; 1.9536867247394577E10 ; 0.0
106 ; 1.2764109373564864E7 ; 2.0218021451319024E8 ; 1.3351359398435085E9 ; 1.973903291977781E10 ; 0.0
107 ; 1.2757157888548333E7 ; 2.0219475842893344E8 ; 1.3479000492170734E9 ; 1.9941213134291E10 ; 0.0
108 ; 1.275224040945043E7 ; 2.022093029947332E8 ; 1.3606572071056218E9 ; 2.0143407892719933E10 ; 0.0
109 ; 1.2745134633827413E7 ; 2.0222384710078174E8 ; 1.3734094475150723E9 ; 2.0345617195714664E10 ; 0.0
110 ; 1.274224593278824E7 ; 2.0223838966230297E8 ; 1.3861545821488998E9 ; 2.0547841042815445E10 ; 0.0
111 ; 1.2732267800553296E7 ; 2.0225292961869773E8 ; 1.398896828081688E9 ; 2.075007943247775E10 ; 0.0
112 ; 1.2726436236405484E7 ; 2.0226746593272188E8 ; 1.4116290958822412E9 ; 2.0952332362096447E10 ; 0.0
113 ; 1.2718861993950726E7 ; 2.022819975896962E8 ; 1.4243555321186466E9 ; 2.1154599828029167E10 ; 0.0
114 ; 1.2710948095088093E7 ; 2.022965235967466E8 ; 1.4370743941125975E9 ; 2.1356881825618862E10 ; 0.0
115 ; 1.2704546119690394E7 ; 2.023110429820737E8 ; 1.4497853422076855E9 ; 2.155917834921561E10 ; 0.0
116 ; 1.2698283570580564E7 ; 2.023255547942505E8 ; 1.462489888327376E9 ; 2.1761489392197685E10 ; 0.0
117 ; 1.2691352316908473E7 ; 2.0234005810154706E8 ; 1.4751881718979564E9 ; 2.1963814946991936E10 ; 0.0
118 ; 1.2683320706096258E7 ; 2.0235455199128118E8 ; 1.4878795242148647E9 ; 2.2166155005093483E10 ; 0.0
119 ; 1.2675001767334325E7 ; 2.023690355691939E8 ; 1.500562844920961E9 ; 2.2368509557084763E10 ; 0.0
120 ; 1.266937041709621E7 ; 2.02383507958849E8 ; 1.5132378466882951E9 ; 2.2570878592653957E10 ; 0.0
121 ; 1.2661268927513884E7 ; 2.023979683010555E8 ; 1.5259072171053913E9 ; 2.277326210061281E10 ; 0.0
122 ; 1.2651109529824633E7 ; 2.0241241575331217E8 ; 1.538568486032905E9 ; 2.2975660068913864E10 ; 0.0
123 ; 1.2641933001065392E7 ; 2.0242684948927322E8 ; 1.5512195955627298E9 ; 2.3178072484667175E10 ; 0.0
124 ; 1.2636542220874475E7 ; 2.0244126869823444E8 ; 1.5638615285637953E9 ; 2.338049933415645E10 ; 0.0
125 ; 1.2626130696097357E7 ; 2.0245567258463866E8 ; 1.5764980707846699E9 ; 2.3582940602854683E10 ; 0.0
126 ; 1.2617513204767216E7 ; 2.0247006036760014E8 ; 1.5891242014807673E9 ; 2.3785396275439323E10 ; 0.0
127 ; 1.2609324980970798E7 ; 2.0248443128044686E8 ; 1.6017417146855345E9 ; 2.3987866335806923E10 ; 0.0
128 ; 1.259679757926131E7 ; 2.0249878457028008E8 ; 1.6143510396665053E9 ; 2.4190350767087368E10 ; 0.0
129 ; 1.2593108870564949E7 ; 2.025131194975505E8 ; 1.6269478372457666E9 ; 2.4392849551657646E10 ; 0.0
130 ; 1.2581185653549748E7 ; 2.0252743533565038E8 ; 1.6395409461163316E9 ; 2.4595362671155197E10 ; 0.0
131 ; 1.2567240967472024E7 ; 2.0254173137052083E8 ; 1.6521221317698812E9 ; 2.479789010649085E10 ; 0.0
132 ; 1.2557336670918524E7 ; 2.025560069002739E8 ; 1.6646893727373533E9 ; 2.500043183786137E10 ; 0.0
133 ; 1.254685318435105E7 ; 2.0257026123482862E8 ; 1.6772467094082718E9 ; 2.5202987844761642E10 ; 0.0
134 ; 1.2531939437016781E7 ; 2.0258449369556066E8 ; 1.6897935625926228E9 ; 2.540555810599647E10 ; 0.0
135 ; 1.2516571748236092E7 ; 2.0259870361496496E8 ; 1.7023255020296395E9 ; 2.560814259969203E10 ; 0.0
136 ; 1.2502529995403185E7 ; 2.0261289033633083E8 ; 1.7148420737778757E9 ; 2.5810741303306995E10 ; 0.0
137 ; 1.2493697733329559E7 ; 2.0262705321342894E8 ; 1.727344603773279E9 ; 2.6013354193643326E10 ; 0.0
138 ; 1.2475305981100012E7 ; 2.026411916102099E8 ; 1.7398383015066085E9 ; 2.6215981246856754E10 ; 0.0
139 ; 1.2461494471019698E7 ; 2.0265530490051395E8 ; 1.7523136074877086E9 ; 2.6418622438466965E10 ; 0.0
140 ; 1.2454273538008476E7 ; 2.0266939246779096E8 ; 1.7647751019587283E9 ; 2.6621277743367477E10 ; 0.0
141 ; 1.243549788888757E7 ; 2.026834537048311E8 ; 1.7772293754967368E9 ; 2.682394713583527E10 ; 0.0
142 ; 1.24199144536266E7 ; 2.026974880135047E8 ; 1.7896648733856244E9 ; 2.70266305895401E10 ; 0.0
143 ; 1.2408579281882152E7 ; 2.027114948045122E8 ; 1.802084787839251E9 ; 2.7229328077553604E10 ; 0.0
144 ; 1.2393168902043432E7 ; 2.027254734971425E8 ; 1.814493367121133E9 ; 2.7432039572358116E10 ; 0.0
145 ; 1.2385037814452266E7 ; 2.0273942351904032E8 ; 1.8268865360231764E9 ; 2.763476504585526E10 ; 0.0
146 ; 1.2378279887521895E7 ; 2.02753344305982E8 ; 1.8392715738376286E9 ; 2.78375044693743E10 ; 0.0
147 ; 1.2365462671664108E7 ; 2.0276723530165896E8 ; 1.8516498537251506E9 ; 2.804025781368028E10 ; 0.0
148 ; 1.2355083767879395E7 ; 2.0278109595746925E8 ; 1.8640153163968146E9 ; 2.8243025048981937E10 ; 0.0
149 ; 1.2345920539747354E7 ; 2.027949257323164E8 ; 1.876370400164694E9 ; 2.8445806144939407E10 ; 0.0
150 ; 1.2341051040135976E7 ; 2.0280872409241506E8 ; 1.8887163207044413E9 ; 2.8648601070671722E10 ; 0.0
151 ; 1.232923525823786E7 ; 2.028224905111041E8 ; 1.9010573717445772E9 ; 2.8851409794764137E10 ; 0.0
152 ; 1.232034775330042E7 ; 2.028362244686658E8 ; 1.913386607002815E9 ; 2.905423228527524E10 ; 0.0
153 ; 1.2306368764042867E7 ; 2.028499254521516E8 ; 1.9257069547561154E9 ; 2.9257068509743908E10 ; 0.0
154 ; 1.2297783643662013E7 ; 2.0286359295521396E8 ; 1.9380133235201583E9 ; 2.945991843519606E10 ; 0.0
155 ; 1.2288621794990333E7 ; 2.028772264779439E8 ; 1.9503111071638203E9 ; 2.9662782028151276E10 ; 0.0
156 ; 1.2280515130815376E7 ; 2.0289082552671444E8 ; 1.9625997289588106E9 ; 2.986565925462922E10 ; 0.0
157 ; 1.2268893829792073E7 ; 2.029043896140293E8 ; 1.9748802440896258E9 ; 3.0068550080155933E10 ; 0.0
158 ; 1.2256402425225185E7 ; 2.0291791825837684E8 ; 1.9871491379194179E9 ; 3.0271454469769962E10 ; 0.0
159 ; 1.2251966442052888E7 ; 2.029314109840891E8 ; 1.999405540344643E9 ; 3.047437238802834E10 ; 0.0
160 ; 1.223751707392052E7 ; 2.0294486732120565E8 ; 2.011657506786696E9 ; 3.067730379901243E10 ; 0.0
161 ; 1.2228895896436088E7 ; 2.0295828680534196E8 ; 2.0238950238606164E9 ; 3.0880248666333633E10 ; 0.0
162 ; 1.2217390296169145E7 ; 2.0297166897756264E8 ; 2.0361239197570524E9 ; 3.1083206953138977E10 ; 0.0
163 ; 1.2208421346727978E7 ; 2.0298501338425845E8 ; 2.0483413100532215E9 ; 3.128617862211654E10 ; 0.0
164 ; 1.2194251284187168E7 ; 2.0299831957702807E8 ; 2.0605497313999496E9 ; 3.1489163635500797E10 ; 0.0
165 ; 1.2185751009712813E7 ; 2.030115871125633E8 ; 2.0727439826841366E9 ; 3.1692161955077824E10 ; 0.0
166 ; 1.2177007441039588E7 ; 2.030248155525386E8 ; 2.0849297336938493E9 ; 3.1895173542190388E10 ; 0.0
167 ; 1.216851224920781E7 ; 2.030380044635041E8 ; 2.097106741134889E9 ; 3.2098198357742928E10 ; 0.0
168 ; 1.2156658054511907E7 ; 2.0305115341678217E8 ; 2.1092752533840966E9 ; 3.2301236362206432E10 ; 0.0
169 ; 1.2143510372184236E7 ; 2.0306426198836765E8 ; 2.1214319114386086E9 ; 3.2504287515623215E10 ; 0.0
170 ; 1.2133530739827275E7 ; 2.030773297588311E8 ; 2.133575421810793E9 ; 3.2707351777611584E10 ; 0.0
171 ; 1.2126334829487288E7 ; 2.0309035631322572E8 ; 2.14570895255062E9 ; 3.2910429107370415E10 ; 0.0
172 ; 1.2114992799029656E7 ; 2.0310334124099678E8 ; 2.1578352873801074E9 ; 3.311351946368364E10 ; 0.0
173 ; 1.2103889087810203E7 ; 2.0311628413589448E8 ; 2.169950280179137E9 ; 3.3316622804924637E10 ; 0.0
174 ; 1.209843126240209E7 ; 2.031291845958896E8 ; 2.1820541692669473E9 ; 3.351973908906053E10 ; 0.0
175 ; 1.2093355615258507E7 ; 2.0314204222309175E8 ; 2.1941526005293493E9 ; 3.372286827365642E10 ; 0.0
176 ; 1.2083277963762393E7 ; 2.0315485662367046E8 ; 2.206245956144608E9 ; 3.3926010315879513E10 ; 0.0
177 ; 1.207733923257735E7 ; 2.0316762740777883E8 ; 2.2183292341083703E9 ; 3.412916517250318E10 ; 0.0
178 ; 1.2072753726271573E7 ; 2.0318035418947962E8 ; 2.2304065733409476E9 ; 3.433233279991096E10 ; 0.0
179 ; 1.2065655302320654E7 ; 2.0319303658667374E8 ; 2.2424793270672193E9 ; 3.453551315410044E10 ; 0.0
180 ; 1.2058877940425843E7 ; 2.0320567422103116E8 ; 2.2545449823695397E9 ; 3.473870619068712E10 ; 0.0
181 ; 1.2052947527274396E7 ; 2.0321826671792388E8 ; 2.2666038603099656E9 ; 3.494191186490815E10 ; 0.0
182 ; 1.2046760004500424E7 ; 2.0323081370636123E8 ; 2.27865680783724E9 ; 3.5145130131626076E10 ; 0.0
183 ; 1.2039550663355984E7 ; 2.032433148189272E8 ; 2.2907035678417406E9 ; 3.5348360945332436E10 ; 0.0
184 ; 1.2031650912741156E7 ; 2.0325576969171974E8 ; 2.3027431185050964E9 ; 3.555160426015136E10 ; 0.0
185 ; 1.2023848046494873E7 ; 2.0326817796429205E8 ; 2.3147747694178376E9 ; 3.575486002984308E10 ; 0.0
186 ; 1.202110913147324E7 ; 2.0328053927959567E8 ; 2.3267986174643326E9 ; 3.595812820780737E10 ; 0.0
187 ; 1.2014924015246265E7 ; 2.0329285328392553E8 ; 2.3388197265958056E9 ; 3.616140874708697E10 ; 0.0
188 ; 1.2004993536113892E7 ; 2.033051196268667E8 ; 2.350834650611052E9 ; 3.6364701600370895E10 ; 0.0
189 ; 1.2000093645174745E7 ; 2.0331733796124262E8 ; 2.362839644147166E9 ; 3.6568006719997765E10 ; 0.0
190 ; 1.1995875140086561E7 ; 2.0332950794306532E8 ; 2.3748397377923408E9 ; 3.677132405795901E10 ; 0.0
191 ; 1.198744613726762E7 ; 2.0334162923148695E8 ; 2.3868356129324274E9 ; 3.697465356590207E10 ; 0.0
192 ; 1.1977635188425556E7 ; 2.03353701488753E8 ; 2.398823059069695E9 ; 3.717799519513355E10 ; 0.0
193 ; 1.1973705438429553E7 ; 2.033657243801568E8 ; 2.4108006942581205E9 ; 3.738134889662231E10 ; 0.0
194 ; 1.1967222927656062E7 ; 2.033776975739957E8 ; 2.42277439969655E9 ; 3.7584714621002464E10 ; 0.0
195 ; 1.1961647864242097E7 ; 2.0338962074152845E8 ; 2.434741622624206E9 ; 3.778809231857646E10 ; 0.0
