CSV File for the City 2 on Day 191
1 - Minute m 
2 - Power Consumed at minute m 
3 - Power Produced at minute m 
4 - Energy Consumed since the beginning of the day 
5 - Energy Produced since the beginning of the day 
6 - Energy Lost since the beginning of the day on lines starting from the city
 
0 ; 257952.96934114525 ; 1.0523212302715608E8 ; 0.0 ; 0.0 ; 0.0
1 ; 258879.9437126309 ; 1.0538607493506116E8 ; 257952.96934114525 ; 1.0523212302715608E8 ; 0.0
2 ; 262860.8531060158 ; 1.0584870594512555E8 ; 516832.91305377614 ; 2.1061819796221724E8 ; 0.0
3 ; 265249.4867505699 ; 1.0662001661260527E8 ; 779693.766159792 ; 3.164669039073428E8 ; 0.0
4 ; 267650.20718529343 ; 1.0770000743848735E8 ; 1044943.2529103619 ; 4.2308692051994807E8 ; 0.0
5 ; 269732.20400857425 ; 1.0908867886559665E8 ; 1312593.4600956552 ; 5.307869279584354E8 ; 0.0
6 ; 275504.5429395845 ; 1.107860312750589E8 ; 1582325.6641042293 ; 6.398756068240321E8 ; 0.0
7 ; 282008.7946403011 ; 1.1279206498318458E8 ; 1857830.2070438138 ; 7.506616380990909E8 ; 0.0
8 ; 290122.08759394946 ; 1.1510678023883176E8 ; 2139839.001684115 ; 8.634537030822755E8 ; 0.0
9 ; 304221.0296089447 ; 1.1773017722129887E8 ; 2429961.089278064 ; 9.785604833211073E8 ; 0.0
10 ; 325810.99156179203 ; 1.206622560387882E8 ; 2734182.118887009 ; 1.096290660542406E9 ; 0.0
11 ; 360076.83645722386 ; 1.2390301672747174E8 ; 3059993.110448801 ; 1.2169529165811944E9 ; 0.0
12 ; 413140.65964792075 ; 1.2745245925117746E8 ; 3420069.9469060246 ; 1.3408559333086662E9 ; 0.0
13 ; 466566.8555223076 ; 1.3131058350170308E8 ; 3833210.606553945 ; 1.4683083925598438E9 ; 0.0
14 ; 473765.4251064442 ; 1.3547738929975027E8 ; 4299777.462076253 ; 1.5996189760615468E9 ; 0.0
15 ; 475551.4445986932 ; 1.3995287639646083E8 ; 4773542.887182698 ; 1.7350963653612971E9 ; 0.0
16 ; 477245.16553830745 ; 1.447370444755244E8 ; 5249094.331781391 ; 1.875049241757758E9 ; 0.0
17 ; 481770.9421171663 ; 1.4982989315581515E8 ; 5726339.497319698 ; 2.0197862862332823E9 ; 0.0
18 ; 483984.97578131733 ; 1.5523142199450827E8 ; 6208110.439436865 ; 2.1696161793890977E9 ; 0.0
19 ; 485230.3579782808 ; 1.609416304906167E8 ; 6692095.415218182 ; 2.324847601383606E9 ; 0.0
20 ; 487774.94577177713 ; 1.6696051808888444E8 ; 7177325.773196463 ; 2.4857892318742228E9 ; 0.0
21 ; 491713.804549579 ; 1.732880841839694E8 ; 7665100.71896824 ; 2.652749749963107E9 ; 0.0
22 ; 494693.4571496348 ; 1.7992432812484574E8 ; 8156814.523517818 ; 2.8260378341470766E9 ; 0.0
23 ; 496677.22203360515 ; 1.868692492193573E8 ; 8651507.980667453 ; 3.005962162271922E9 ; 0.0
24 ; 500004.8736927015 ; 1.9412284673885423E8 ; 9148185.202701058 ; 3.1928314114912796E9 ; 0.0
25 ; 501767.3381404823 ; 2.0037316082103366E8 ; 9648190.076393759 ; 3.386954258230134E9 ; 0.0
26 ; 505243.20009634265 ; 2.0037373851145366E8 ; 1.0149957414534241E7 ; 3.5873274190511675E9 ; 0.0
27 ; 507907.19747806044 ; 2.0037434829296312E8 ; 1.0655200614630584E7 ; 3.787701157562621E9 ; 0.0
28 ; 509990.34199398255 ; 2.0037498933686164E8 ; 1.1163107812108643E7 ; 3.988075505855584E9 ; 0.0
29 ; 512625.30386439513 ; 2.003756608003547E8 ; 1.1673098154102625E7 ; 4.1884504951924458E9 ; 0.0
30 ; 516354.57501651556 ; 2.0037636183055153E8 ; 1.218572345796702E7 ; 4.388826155992801E9 ; 0.0
31 ; 518811.8932856691 ; 2.0037709156822675E8 ; 1.2702078032983536E7 ; 4.589202517823352E9 ; 0.0
32 ; 520962.29655683535 ; 2.0037784915132472E8 ; 1.3220889926269205E7 ; 4.789579609391579E9 ; 0.0
33 ; 523685.4029727654 ; 2.0037863371819493E8 ; 1.3741852222826041E7 ; 4.989957458542903E9 ; 0.0
34 ; 525560.2010229494 ; 2.003794444105504E8 ; 1.4265537625798807E7 ; 5.190336092261098E9 ; 0.0
35 ; 527352.3150551253 ; 2.0038028037614673E8 ; 1.4791097826821756E7 ; 5.390715536671648E9 ; 0.0
36 ; 528332.546308482 ; 2.0038114077118474E8 ; 1.531845014187688E7 ; 5.591095817047794E9 ; 0.0
37 ; 531921.4595695388 ; 2.0038202476244143E8 ; 1.5846782688185362E7 ; 5.791476957818979E9 ; 0.0
38 ; 533227.7759938751 ; 2.003829315291395E8 ; 1.63787041477549E7 ; 5.991858982581421E9 ; 0.0
39 ; 535509.5503038279 ; 2.0038386026456624E8 ; 1.6911931923748776E7 ; 6.19224191411056E9 ; 0.0
40 ; 538102.7864663961 ; 2.0038481017745557E8 ; 1.7447441474052604E7 ; 6.392625774375127E9 ; 0.0
41 ; 539718.9291902286 ; 2.0038578049314758E8 ; 1.7985544260519E7 ; 6.593010584552583E9 ; 0.0
42 ; 541620.6927419407 ; 2.0038677045454192E8 ; 1.852526318970923E7 ; 6.793396365045731E9 ; 0.0
43 ; 543641.6970318076 ; 2.0038777932286042E8 ; 1.9066883882451173E7 ; 6.993783135500273E9 ; 0.0
44 ; 545223.9070515468 ; 2.0038880637823597E8 ; 1.961052557948298E7 ; 7.194170914823133E9 ; 0.0
45 ; 546867.8433457351 ; 2.0038985092014307E8 ; 2.015574948653453E7 ; 7.394559721201369E9 ; 0.0
46 ; 548265.3126893266 ; 2.003909122676864E8 ; 2.0702617329880264E7 ; 7.594949572121512E9 ; 0.0
47 ; 548880.64198031 ; 2.003919897597619E8 ; 2.125088264256959E7 ; 7.795340484389199E9 ; 0.0
48 ; 551620.6505026964 ; 2.0039308275510535E8 ; 2.17997632845499E7 ; 7.995732474148961E9 ; 0.0
49 ; 550013.1843069219 ; 2.0039419063224155E8 ; 2.2351383935052596E7 ; 8.196125556904066E9 ; 0.0
50 ; 552369.0449161594 ; 2.0039531278934723E8 ; 2.290139711935952E7 ; 8.396519747536307E9 ; 0.0
51 ; 554198.5269623114 ; 2.003964486440389E8 ; 2.345376616427568E7 ; 8.596915060325655E9 ; 0.0
52 ; 554147.8414391221 ; 2.0039759763309693E8 ; 2.400796469123799E7 ; 8.797311508969694E9 ; 0.0
53 ; 555769.2747647732 ; 2.0039875921213564E8 ; 2.456211253267711E7 ; 8.99770910660279E9 ; 0.0
54 ; 556693.1246310994 ; 2.0039993285522813E8 ; 2.5117881807441883E7 ; 9.198107865814926E9 ; 0.0
55 ; 558126.7704674053 ; 2.0040111805449435E8 ; 2.5674574932072982E7 ; 9.398507798670155E9 ; 0.0
56 ; 558573.2029672539 ; 2.0040231431965914E8 ; 2.6232701702540386E7 ; 9.59890891672465E9 ; 0.0
57 ; 558229.8558358331 ; 2.0040352117758745E8 ; 2.679127490550764E7 ; 9.799311231044308E9 ; 0.0
58 ; 560405.1562748014 ; 2.0040473817180166E8 ; 2.734950476134347E7 ; 9.999714752221895E9 ; 0.0
59 ; 560512.764962018 ; 2.0040596486198673E8 ; 2.7909909917618275E7 ; 1.0200119490393698E10 ; 0.0
60 ; 561215.088430954 ; 2.0040720082348725E8 ; 2.8470422682580292E7 ; 1.0400525455255684E10 ; 0.0
61 ; 561209.4664556641 ; 2.0040844564680028E8 ; 2.9031637771011245E7 ; 1.060093265607917E10 ; 0.0
62 ; 563320.5843849246 ; 2.004096989370676E8 ; 2.959284723746691E7 ; 1.0801341101725971E10 ; 0.0
63 ; 565489.9724605726 ; 2.004109603135696E8 ; 3.0156167821851835E7 ; 1.1001750800663038E10 ; 0.0
64 ; 563583.969328769 ; 2.004122294092242E8 ; 3.0721657794312406E7 ; 1.1202161760976608E10 ; 0.0
65 ; 566135.2300937735 ; 2.0041350587009177E8 ; 3.1285241763641175E7 ; 1.1402573990385832E10 ; 0.0
66 ; 566063.5197112123 ; 2.004147893548886E8 ; 3.185137699373495E7 ; 1.1602987496255924E10 ; 0.0
67 ; 567908.1790295728 ; 2.0041607953451002E8 ; 3.241744051344616E7 ; 1.1803402285610813E10 ; 0.0
68 ; 566701.536882015 ; 2.0041737609156415E8 ; 3.2985348692475732E7 ; 1.2003818365145323E10 ; 0.0
69 ; 569744.0776517636 ; 2.0041867871991763E8 ; 3.355205022935775E7 ; 1.2204235741236887E10 ; 0.0
70 ; 569645.774542353 ; 2.0041998712425342E8 ; 3.412179430700951E7 ; 1.2404654419956804E10 ; 0.0
71 ; 569698.245722919 ; 2.004213010196419E8 ; 3.4691440081551865E7 ; 1.2605074407081059E10 ; 0.0
72 ; 571280.470279999 ; 2.004226201311249E8 ; 3.5261138327274784E7 ; 1.28054957081007E10 ; 0.0
73 ; 572283.6834121485 ; 2.0042394419331366E8 ; 3.583241879755478E7 ; 1.3005918328231825E10 ; 0.0
74 ; 572760.2794642082 ; 2.0042527295000014E8 ; 3.640470248096693E7 ; 1.3206342272425138E10 ; 0.0
75 ; 572769.0866212115 ; 2.0042660615378213E8 ; 3.697746276043114E7 ; 1.340676754537514E10 ; 0.0
76 ; 574304.6034752409 ; 2.0042794356570193E8 ; 3.755023184705235E7 ; 1.3607194151528921E10 ; 0.0
77 ; 575142.8235925897 ; 2.0042928495489866E8 ; 3.812453645052759E7 ; 1.3807622095094624E10 ; 0.0
78 ; 574774.7565305766 ; 2.004306300982736E8 ; 3.869967927412018E7 ; 1.4008051380049522E10 ; 0.0
79 ; 575007.4473348054 ; 2.0043197878016883E8 ; 3.927445403065076E7 ; 1.4208482010147797E10 ; 0.0
80 ; 575022.4833528609 ; 2.0043333079205838E8 ; 3.984946147798556E7 ; 1.4408913988927965E10 ; 0.0
81 ; 574921.0347944804 ; 2.0043468593225223E8 ; 4.042448396133842E7 ; 1.4609347319720024E10 ; 0.0
82 ; 574598.6324292301 ; 2.00436044005612E8 ; 4.09994049961329E7 ; 1.4809782005652277E10 ; 0.0
83 ; 574507.5418220151 ; 2.0043740482327864E8 ; 4.157400362856213E7 ; 1.5010218049657888E10 ; 0.0
84 ; 574416.1691961319 ; 2.0043876820241174E8 ; 4.2148511170384146E7 ; 1.5210655454481167E10 ; 0.0
85 ; 573647.6854551286 ; 2.0044013396593934E8 ; 4.2722927339580275E7 ; 1.5411094222683578E10 ; 0.0
86 ; 574159.7849351355 ; 2.0044150194231898E8 ; 4.32965750250354E7 ; 1.5611534356649517E10 ; 0.0
87 ; 573568.590900509 ; 2.0044287196530864E8 ; 4.387073480997054E7 ; 1.5811975858591837E10 ; 0.0
88 ; 573138.4846367339 ; 2.0044424387374774E8 ; 4.444430340087105E7 ; 1.6012418730557146E10 ; 0.0
89 ; 573415.3077127829 ; 2.0044561751134768E8 ; 4.5017441885507785E7 ; 1.6212862974430893E10 ; 0.0
90 ; 574105.8256045342 ; 2.004469927264915E8 ; 4.559085719322057E7 ; 1.641330859194224E10 ; 0.0
91 ; 572315.7881732337 ; 2.004483693720423E8 ; 4.616496301882511E7 ; 1.6613755584668732E10 ; 0.0
92 ; 573210.7917086222 ; 2.0044974730516005E8 ; 4.673727880699834E7 ; 1.6814203954040773E10 ; 0.0
93 ; 572534.2711696846 ; 2.004511263871267E8 ; 4.731048959870697E7 ; 1.7014653701345934E10 ; 0.0
94 ; 572648.2302438226 ; 2.0045250648317876E8 ; 4.788302386987665E7 ; 1.721510482773306E10 ; 0.0
95 ; 571865.2053863753 ; 2.0045388746234748E8 ; 4.845567210012048E7 ; 1.7415557334216236E10 ; 0.0
96 ; 569848.7159541864 ; 2.0045526919730595E8 ; 4.9027537305506855E7 ; 1.7616011221678585E10 ; 0.0
97 ; 572372.6138573375 ; 2.004566515642232E8 ; 4.959738602146104E7 ; 1.7816466490875893E10 ; 0.0
98 ; 570652.7388021352 ; 2.004580344426246E8 ; 5.0169758635318376E7 ; 1.8016923142440117E10 ; 0.0
99 ; 572445.6326854997 ; 2.0045941771525848E8 ; 5.074041137412051E7 ; 1.821738117688274E10 ; 0.0
100 ; 571249.1117192766 ; 2.0046080126796877E8 ; 5.131285700680601E7 ; 1.8417840594598E10 ; 0.0
101 ; 569942.0819171622 ; 2.0046218498957324E8 ; 5.188410611852528E7 ; 1.8618301395865967E10 ; 0.0
102 ; 569190.0555176288 ; 2.0046356877174702E8 ; 5.245404820044244E7 ; 1.881876358085554E10 ; 0.0
103 ; 569524.3333703986 ; 2.0046495250891143E8 ; 5.302323825596007E7 ; 1.901922714962729E10 ; 0.0
104 ; 569374.9149515695 ; 2.0046633609812772E8 ; 5.3592762589330465E7 ; 1.92196921021362E10 ; 0.0
105 ; 569341.1610270554 ; 2.0046771943899536E8 ; 5.4162137504282035E7 ; 1.942015843823433E10 ; 0.0
106 ; 567432.9893016218 ; 2.0046910243355492E8 ; 5.4731478665309094E7 ; 1.9620626157673325E10 ; 0.0
107 ; 566752.1781315352 ; 2.0047048498619518E8 ; 5.5298911654610716E7 ; 1.982109526010688E10 ; 0.0
108 ; 567655.3913740973 ; 2.0047186700356436E8 ; 5.586566383274225E7 ; 2.0021565745093075E10 ; 0.0
109 ; 566389.1207390781 ; 2.0047324839448518E8 ; 5.643331922411635E7 ; 2.0222037612096638E10 ; 0.0
110 ; 566276.7839637584 ; 2.0047462906987366E8 ; 5.699970834485543E7 ; 2.0422510860491123E10 ; 0.0
111 ; 565093.6067391038 ; 2.0047600894266135E8 ; 5.756598512881918E7 ; 2.0622985489560997E10 ; 0.0
112 ; 566289.646094116 ; 2.0047738792772117E8 ; 5.813107873555829E7 ; 2.082346149850366E10 ; 0.0
113 ; 564364.8226091317 ; 2.004787659417962E8 ; 5.86973683816524E7 ; 2.102393888643138E10 ; 0.0
114 ; 565358.4970552424 ; 2.0048014290343168E8 ; 5.9261733204261534E7 ; 2.1224417652373177E10 ; 0.0
115 ; 561262.351142133 ; 2.0048151873290995E8 ; 5.9827091701316774E7 ; 2.1424897795276608E10 ; 0.0
116 ; 564173.12175941 ; 2.0048289335218805E8 ; 6.0388354052458905E7 ; 2.1625379314009518E10 ; 0.0
117 ; 562119.2823036673 ; 2.0048426668483815E8 ; 6.095252717421831E7 ; 2.1825862207361706E10 ; 0.0
118 ; 561512.8956645587 ; 2.0048563865599045E8 ; 6.151464645652198E7 ; 2.2026346474046543E10 ; 0.0
119 ; 562352.8367645713 ; 2.004870091922784E8 ; 6.207615935218654E7 ; 2.2226832112702534E10 ; 0.0
120 ; 559670.1693629548 ; 2.004883782217864E8 ; 6.263851218895111E7 ; 2.2427319121894814E10 ; 0.0
121 ; 559052.7061282488 ; 2.0048974567399964E8 ; 6.319818235831407E7 ; 2.26278075001166E10 ; 0.0
122 ; 559920.4469309697 ; 2.0049111147975603E8 ; 6.3757235064442314E7 ; 2.28282972457906E10 ; 0.0
123 ; 558605.66397675 ; 2.0049247557120007E8 ; 6.431715551137328E7 ; 2.3028788357270355E10 ; 0.0
124 ; 557767.6376530953 ; 2.0049383788173884E8 ; 6.487576117535003E7 ; 2.3229280832841557E10 ; 0.0
125 ; 558169.9595015525 ; 2.004951983459996E8 ; 6.543352881300313E7 ; 2.3429774670723297E10 ; 0.0
126 ; 556853.589982265 ; 2.004965568997893E8 ; 6.599169877250468E7 ; 2.3630269869069298E10 ; 0.0
127 ; 555496.5565203086 ; 2.004979134800557E8 ; 6.654855236248694E7 ; 2.3830766425969086E10 ; 0.0
128 ; 554906.7847795855 ; 2.0049926802485E8 ; 6.710404891900725E7 ; 2.4031264339449142E10 ; 0.0
129 ; 553523.1580235913 ; 2.005006204732912E8 ; 6.765895570378684E7 ; 2.423176360747399E10 ; 0.0
130 ; 553789.3003395979 ; 2.0050197076553166E8 ; 6.821247886181043E7 ; 2.443226422794728E10 ; 0.0
131 ; 552019.7895617648 ; 2.0050331884272435E8 ; 6.876626816215003E7 ; 2.4632766198712814E10 ; 0.0
132 ; 549682.2474451152 ; 2.005046646469911E8 ; 6.931828795171179E7 ; 2.483326951755554E10 ; 0.0
133 ; 548879.3060368453 ; 2.0050600812139237E8 ; 6.986797019915691E7 ; 2.503377418220253E10 ; 0.0
134 ; 547257.2806878455 ; 2.0050734920989817E8 ; 7.041684950519376E7 ; 2.523428019032392E10 ; 0.0
135 ; 545489.809986219 ; 2.0050868785736004E8 ; 7.09641067858816E7 ; 2.543478753953382E10 ; 0.0
136 ; 544146.8757120024 ; 2.005100240094843E8 ; 7.150959659586781E7 ; 2.5635296227391182E10 ; 0.0
137 ; 541490.3572199995 ; 2.0051135761280623E8 ; 7.205374347157982E7 ; 2.5835806251400665E10 ; 0.0
138 ; 541532.9365373059 ; 2.0051268861466533E8 ; 7.259523382879981E7 ; 2.603631760901347E10 ; 0.0
139 ; 540821.95975664 ; 2.005140169631816E8 ; 7.313676676533712E7 ; 2.6236830297628136E10 ; 0.0
140 ; 538657.81687516 ; 2.0051534260723263E8 ; 7.367758872509377E7 ; 2.6437344314591316E10 ; 0.0
141 ; 537515.0197513163 ; 2.005166654964316E8 ; 7.421624654196893E7 ; 2.6637859657198547E10 ; 0.0
142 ; 533383.6178470972 ; 2.0051798558110628E8 ; 7.475376156172024E7 ; 2.683837632269498E10 ; 0.0
143 ; 533578.9112395418 ; 2.0051930281227866E8 ; 7.528714517956734E7 ; 2.703889430827609E10 ; 0.0
144 ; 531144.3027432322 ; 2.0052061714164555E8 ; 7.582072409080687E7 ; 2.7239413611088367E10 ; 0.0
145 ; 532378.5737201625 ; 2.0052192852155966E8 ; 7.63518683935501E7 ; 2.7439934228230015E10 ; 0.0
146 ; 528815.3089816659 ; 2.0052323690501162E8 ; 7.688424696727026E7 ; 2.7640456156751575E10 ; 0.0
147 ; 528724.7623733644 ; 2.0052454224561274E8 ; 7.741306227625193E7 ; 2.7840979393656586E10 ; 0.0
148 ; 527059.455841745 ; 2.005258444975781E8 ; 7.794178703862529E7 ; 2.80415039359022E10 ; 0.0
149 ; 527000.2545021358 ; 2.0052714361571068E8 ; 7.846884649446703E7 ; 2.8242029780399776E10 ; 0.0
150 ; 526633.4819970827 ; 2.005284395553857E8 ; 7.899584674896917E7 ; 2.8442556924015488E10 ; 0.0
151 ; 525693.3407122559 ; 2.0052973227253598E8 ; 7.952248023096626E7 ; 2.8643085363570873E10 ; 0.0
152 ; 525117.9196868513 ; 2.005310217236373E8 ; 8.00481735716785E7 ; 2.884361509584341E10 ; 0.0
153 ; 523454.87391588447 ; 2.00532307865695E8 ; 8.057329149136536E7 ; 2.9044146117567047E10 ; 0.0
154 ; 524527.1095810046 ; 2.0053359065623024E8 ; 8.109674636528124E7 ; 2.9244678425432743E10 ; 0.0
155 ; 523018.2465654429 ; 2.0053487005326757E8 ; 8.162127347486225E7 ; 2.9445212016088974E10 ; 0.0
156 ; 522135.3375382336 ; 2.0053614601532245E8 ; 8.21442917214277E7 ; 2.9645746886142242E10 ; 0.0
157 ; 521630.511738444 ; 2.0053741850138935E8 ; 8.266642705896592E7 ; 2.9846283032157566E10 ; 0.0
158 ; 519737.3309990668 ; 2.0053868747093043E8 ; 8.318805757070437E7 ; 3.0046820450658955E10 ; 0.0
159 ; 517884.3900518104 ; 2.0053995288386434E8 ; 8.370779490170343E7 ; 3.0247359138129887E10 ; 0.0
160 ; 519267.7581813837 ; 2.0054121470055586E8 ; 8.422567929175524E7 ; 3.0447899091013752E10 ; 0.0
161 ; 518281.8909943706 ; 2.0054247288180533E8 ; 8.474494704993662E7 ; 3.064844030571431E10 ; 0.0
162 ; 517792.37547155196 ; 2.005437273888391E8 ; 8.526322894093099E7 ; 3.0848982778596115E10 ; 0.0
163 ; 514858.825885041 ; 2.0054497818329972E8 ; 8.578102131640254E7 ; 3.1049526505984955E10 ; 0.0
164 ; 515809.9353387504 ; 2.0054622522723705E8 ; 8.629588014228758E7 ; 3.1250071484168255E10 ; 0.0
165 ; 515601.8345721214 ; 2.0054746848309913E8 ; 8.681169007762633E7 ; 3.1450617709395493E10 ; 0.0
166 ; 512593.4982069829 ; 2.0054870791372392E8 ; 8.732729191219845E7 ; 3.1651165177878593E10 ; 0.0
167 ; 512514.672408261 ; 2.0054994348233083E8 ; 8.783988541040544E7 ; 3.1851713885792316E10 ; 0.0
168 ; 512436.75603675615 ; 2.0055117515251288E8 ; 8.835240008281371E7 ; 3.2052263829274647E10 ; 0.0
169 ; 511564.14482436486 ; 2.0055240288822913E8 ; 8.886483683885047E7 ; 3.225281500442716E10 ; 0.0
170 ; 510580.47415034636 ; 2.005536266537971E8 ; 8.937640098367484E7 ; 3.2453367407315388E10 ; 0.0
171 ; 509360.7139144665 ; 2.0055484641388574E8 ; 8.988698145782518E7 ; 3.2653921033969185E10 ; 0.0
172 ; 507263.0571411077 ; 2.0055606213350853E8 ; 9.039634217173965E7 ; 3.285447588038307E10 ; 0.0
173 ; 506571.32902734005 ; 2.0055727377801687E8 ; 9.090360522888076E7 ; 3.305503194251658E10 ; 0.0
174 ; 506883.9720375548 ; 2.0055848131309357E8 ; 9.14101765579081E7 ; 3.3255589216294594E10 ; 0.0
175 ; 505872.0375850126 ; 2.0055968470474675E8 ; 9.191706052994566E7 ; 3.345614769760769E10 ; 0.0
176 ; 504513.08413764084 ; 2.0056088391930377E8 ; 9.242293256753066E7 ; 3.3656707382312435E10 ; 0.0
177 ; 505047.3768095987 ; 2.005620789234056E8 ; 9.29274456516683E7 ; 3.385726826623174E10 ; 0.0
178 ; 505534.744796192 ; 2.0056326968400097E8 ; 9.343249302847789E7 ; 3.4057830345155144E10 ; 0.0
179 ; 503353.3822337961 ; 2.0056445616834134E8 ; 9.393802777327408E7 ; 3.4258393614839146E10 ; 0.0
180 ; 503563.77750213334 ; 2.0056563834397542E8 ; 9.444138115550788E7 ; 3.4458958071007484E10 ; 0.0
181 ; 501236.5418350442 ; 2.005668161787442E8 ; 9.494494493301001E7 ; 3.465952370935146E10 ; 0.0
182 ; 502182.41552912624 ; 2.005679896407762E8 ; 9.544618147484505E7 ; 3.4860090525530205E10 ; 0.0
183 ; 501920.1658513903 ; 2.0056915869848266E8 ; 9.594836389037418E7 ; 3.506065851517098E10 ; 0.0
184 ; 501192.1450050031 ; 2.0057032332055312E8 ; 9.645028405622557E7 ; 3.526122767386947E10 ; 0.0
185 ; 499315.6230277739 ; 2.0057148347595087E8 ; 9.695147620123057E7 ; 3.5461797997190025E10 ; 0.0
186 ; 500302.20411735895 ; 2.0057263913390887E8 ; 9.745079182425834E7 ; 3.566236948066598E10 ; 0.0
187 ; 498889.16650765267 ; 2.005737902639256E8 ; 9.79510940283757E7 ; 3.586294211979989E10 ; 0.0
188 ; 498351.8614375237 ; 2.0057493683576116E8 ; 9.844998319488335E7 ; 3.606351591006381E10 ; 0.0
189 ; 497688.2504320923 ; 2.0057607881943333E8 ; 9.894833505632088E7 ; 3.6264090846899574E10 ; 0.0
190 ; 496614.4913368023 ; 2.0057721618521395E8 ; 9.944602330675296E7 ; 3.646466692571901E10 ; 0.0
191 ; 496089.50713516277 ; 2.0057834890362537E8 ; 9.994263779808977E7 ; 3.666524414190422E10 ; 0.0
192 ; 494929.60419907677 ; 2.0057947694543698E8 ; 1.0043872730522494E8 ; 3.6865822490807846E10 ; 0.0
193 ; 494988.65151918074 ; 2.005806002816618E8 ; 1.0093365690942402E8 ; 3.706640196775328E10 ; 0.0
194 ; 495333.4759582674 ; 2.005817188835534E8 ; 1.014286455609432E8 ; 3.726698256803494E10 ; 0.0
195 ; 493409.9874654959 ; 2.0058283272260258E8 ; 1.0192397903690147E8 ; 3.7467564286918495E10 ; 0.0
196 ; 494289.72260291816 ; 2.0058394177053452E8 ; 1.0241738902436697E8 ; 3.76681471196411E10 ; 0.0
197 ; 492591.1452762141 ; 2.005850459993058E8 ; 1.029116787469699E8 ; 3.786873106141164E10 ; 0.0
198 ; 492141.6814309525 ; 2.005861453811016E8 ; 1.0340426989224611E8 ; 3.806931610741094E10 ; 0.0
199 ; 492621.16288632015 ; 2.0058723988833287E8 ; 1.0389641157367706E8 ; 3.8269902252792046E10 ; 0.0
200 ; 490884.15744568664 ; 2.0058832949363384E8 ; 1.0438903273656338E8 ; 3.847048949268038E10 ; 0.0
201 ; 490666.77348461293 ; 2.0058941416985932E8 ; 1.0487991689400907E8 ; 3.867107782217402E10 ; 0.0
