CSV File for the City 3 on Day 36
1 - Minute m 
2 - Power Consumed at minute m 
3 - Power Produced at minute m 
4 - Energy Consumed since the beginning of the day 
5 - Energy Produced since the beginning of the day 
6 - Energy Lost since the beginning of the day on lines starting from the city
 
0 ; 2371957.7065498033 ; 1.0530635508003947E8 ; 0.0 ; 0.0 ; 0.0
1 ; 2375219.4213556168 ; 1.0545843573200434E8 ; 2371957.7065498033 ; 1.0530635508003947E8 ; 0.0
2 ; 2376810.306111905 ; 1.0591936348953721E8 ; 4747177.12790542 ; 2.1076479081204382E8 ; 0.0
3 ; 2381746.1444448438 ; 1.0668914752689946E8 ; 7123987.434017325 ; 3.16684154301581E8 ; 0.0
4 ; 2382945.356904065 ; 1.0776779651084554E8 ; 9505733.578462169 ; 4.233733018284805E8 ; 0.0
5 ; 2388947.646283695 ; 1.0915531842740816E8 ; 1.1888678935366234E7 ; 5.31141098339326E8 ; 0.0
6 ; 2394581.2603442855 ; 1.1085172040731207E8 ; 1.427762658164993E7 ; 6.402964167667341E8 ; 0.0
7 ; 2400737.3853159263 ; 1.1285700855769038E8 ; 1.6672207841994215E7 ; 7.511481371740462E8 ; 0.0
8 ; 2411641.3186868266 ; 1.1517118780849367E8 ; 1.907294522731014E7 ; 8.640051457317365E8 ; 0.0
9 ; 2429733.0399752627 ; 1.1779426178204292E8 ; 2.1484586545996968E7 ; 9.791763335402303E8 ; 0.0
10 ; 2456089.0856193546 ; 1.207262326934604E8 ; 2.391431958597223E7 ; 1.0969705953222733E9 ; 0.0
11 ; 2497112.704024487 ; 1.2396710128821579E8 ; 2.6370408671591587E7 ; 1.2176968280157337E9 ; 0.0
12 ; 2563409.96876229 ; 1.2751686682083938E8 ; 2.8867521375616074E7 ; 1.3416639293039496E9 ; 0.0
13 ; 2627466.6418009596 ; 1.3137552707620889E8 ; 3.1430931344378363E7 ; 1.469180796124789E9 ; 0.0
14 ; 2633416.439831152 ; 1.3554307843200344E8 ; 3.405839798617932E7 ; 1.6005563232009978E9 ; 0.0
15 ; 2636543.5674223565 ; 1.4001951595827234E8 ; 3.6691814426010475E7 ; 1.7360994016330013E9 ; 0.0
16 ; 2639907.631050625 ; 1.448048335478826E8 ; 3.9328357993432835E7 ; 1.8761189175912738E9 ; 0.0
17 ; 2642907.376043271 ; 1.4989902407010934E8 ; 4.196826562448346E7 ; 2.0209237511391563E9 ; 0.0
18 ; 2645638.6906803916 ; 1.5530207953891993E8 ; 4.4611173000526726E7 ; 2.1708227752092657E9 ; 0.0
19 ; 2649797.9234111994 ; 1.610139912875599E8 ; 4.725681169120712E7 ; 2.3261248547481856E9 ; 0.0
20 ; 2651672.2991817836 ; 1.6703475014176783E8 ; 4.990660961461832E7 ; 2.4871388460357456E9 ; 0.0
21 ; 2655640.6192314764 ; 1.7336434658513972E8 ; 5.25582819138001E7 ; 2.6541735961775136E9 ; 0.0
22 ; 2658648.5960496576 ; 1.8000277091163236E8 ; 5.5213922533031575E7 ; 2.8275379427626534E9 ; 0.0
23 ; 2662179.256250594 ; 1.8695001336174554E8 ; 5.7872571129081234E7 ; 3.007540713674286E9 ; 0.0
24 ; 2665546.2060630047 ; 1.9420606424038976E8 ; 6.0534750385331824E7 ; 3.1944907270360312E9 ; 0.0
25 ; 2667747.513847854 ; 2.004589549139178E8 ; 6.320029659139483E7 ; 3.388696791276421E9 ; 0.0
26 ; 2671950.59073043 ; 2.0046222392717022E8 ; 6.5868044105242684E7 ; 3.589155746190339E9 ; 0.0
27 ; 2675835.0997254658 ; 2.0046563159092414E8 ; 6.853999469597311E7 ; 3.7896179701175094E9 ; 0.0
28 ; 2675804.275748461 ; 2.004691692752083E8 ; 7.121582979569858E7 ; 3.9900836017084336E9 ; 0.0
29 ; 2678365.549443644 ; 2.0047282873498255E8 ; 7.389163407144704E7 ; 4.190552770983642E9 ; 0.0
30 ; 2682785.8335589566 ; 2.0047660213047096E8 ; 7.656999962089069E7 ; 4.391025599718625E9 ; 0.0
31 ; 2686237.1956181284 ; 2.004804820373781E8 ; 7.925278545444965E7 ; 4.591502201849096E9 ; 0.0
32 ; 2688672.306185779 ; 2.0048446144886082E8 ; 8.193902265006778E7 ; 4.791982683886475E9 ; 0.0
33 ; 2691287.9776568124 ; 2.0048853377095547E8 ; 8.462769495625356E7 ; 4.992467145335336E9 ; 0.0
34 ; 2693840.6642374247 ; 2.004926928129596E8 ; 8.731898293391037E7 ; 5.192955679106291E9 ; 0.0
35 ; 2697645.0670572836 ; 2.0049693277405706E8 ; 9.00128235981478E7 ; 5.3934483719192505E9 ; 0.0
36 ; 2697625.24691606 ; 2.005012482272699E8 ; 9.271046866520508E7 ; 5.593945304693308E9 ; 0.0
37 ; 2701488.543081322 ; 2.0050563410162976E8 ; 9.540809391212113E7 ; 5.794446552920578E9 ; 0.0
38 ; 2704798.839614943 ; 2.0051008566329E8 ; 9.810958245520246E7 ; 5.994952187022208E9 ; 0.0
39 ; 2705981.318057272 ; 2.0051459849614924E8 ; 1.008143812948174E8 ; 6.195462272685498E9 ; 0.0
40 ; 2707821.8488365347 ; 2.0051916848242968E8 ; 1.0352036261287467E8 ; 6.395976871181647E9 ; 0.0
41 ; 2709348.5798419476 ; 2.005237917835457E8 ; 1.0622818446171121E8 ; 6.596496039664077E9 ; 0.0
42 ; 2711869.78840995 ; 2.0052846482150897E8 ; 1.0893753304155315E8 ; 6.797019831447622E9 ; 0.0
43 ; 2713614.3556375573 ; 2.005331842610463E8 ; 1.116494028299631E8 ; 6.997548296269132E9 ; 0.0
44 ; 2713233.838163077 ; 2.0053794699254656E8 ; 1.1436301718560065E8 ; 7.198081480530178E9 ; 0.0
45 ; 2715683.041427341 ; 2.0054275011591008E8 ; 1.1707625102376373E8 ; 7.398619427522724E9 ; 0.0
46 ; 2717372.6113084103 ; 2.0054759092533702E8 ; 1.1979193406519108E8 ; 7.599162177638635E9 ; 0.0
47 ; 2720342.4057628512 ; 2.0055246689506578E8 ; 1.2250930667649949E8 ; 7.7997097685639715E9 ; 0.0
48 ; 2721183.1421803827 ; 2.0055737566605186E8 ; 1.2522964908226234E8 ; 8.000262235459038E9 ; 0.0
49 ; 2721259.4673641184 ; 2.0056231503356344E8 ; 1.2795083222444272E8 ; 8.20081961112509E9 ; 0.0
50 ; 2721546.047511354 ; 2.005672829356594E8 ; 1.3067209169180684E8 ; 8.401381926158653E9 ; 0.0
51 ; 2721259.1793062077 ; 2.005722774425094E8 ; 1.3339363773931819E8 ; 8.601949209094313E9 ; 0.0
52 ; 2723807.2023962266 ; 2.005772967465105E8 ; 1.361148969186244E8 ; 8.802521486536821E9 ; 0.0
53 ; 2723189.6959489603 ; 2.005823391531533E8 ; 1.3883870412102062E8 ; 9.003098783283333E9 ; 0.0
54 ; 2723543.7081930335 ; 2.0058740307258967E8 ; 1.4156189381696957E8 ; 9.203681122436485E9 ; 0.0
55 ; 2726207.0615154468 ; 2.005924870118545E8 ; 1.442854375251626E8 ; 9.404268525509075E9 ; 0.0
56 ; 2726621.8723316505 ; 2.00597589567695E8 ; 1.4701164458667806E8 ; 9.60486101252093E9 ; 0.0
57 ; 2727006.9185191137 ; 2.0060270941996303E8 ; 1.497382664590097E8 ; 9.805458602088625E9 ; 0.0
58 ; 2726331.5911189266 ; 2.0060784532552797E8 ; 1.5246527337752882E8 ; 1.0006061311508589E10 ; 0.0
59 ; 2727317.1128222207 ; 2.0061299611266991E8 ; 1.5519160496864775E8 ; 1.0206669156834116E10 ; 0.0
60 ; 2728400.564309741 ; 2.0061816067591548E8 ; 1.5791892208146998E8 ; 1.0407282152946785E10 ; 0.0
61 ; 2728398.690828066 ; 2.0062333797128096E8 ; 1.6064732264577973E8 ; 1.06079003136227E10 ; 0.0
62 ; 2729716.694513326 ; 2.0062852701189E8 ; 1.6337572133660778E8 ; 1.080852365159398E10 ; 0.0
63 ; 2729804.3688016254 ; 2.0063372686393553E8 ; 1.661054380311211E8 ; 1.1009152178605871E10 ; 0.0
64 ; 2731642.5266228886 ; 2.0063893664295796E8 ; 1.6883524239992273E8 ; 1.1209785905469807E10 ; 0.0
65 ; 2730594.618253308 ; 2.00644155510413E8 ; 1.7156688492654562E8 ; 1.1410424842112764E10 ; 0.0
66 ; 2732082.426799357 ; 2.006493826705065E8 ; 1.7429747954479894E8 ; 1.1611068997623177E10 ; 0.0
67 ; 2732137.138891522 ; 2.0065461736727327E8 ; 1.770295619715983E8 ; 1.1811718380293684E10 ; 0.0
68 ; 2731763.793672345 ; 2.0065985888188013E8 ; 1.7976169911048982E8 ; 1.2012372997660957E10 ; 0.0
69 ; 2733152.66344683 ; 2.0066510653013515E8 ; 1.8249346290416217E8 ; 1.2213032856542837E10 ; 0.0
70 ; 2731420.965913806 ; 2.006703596601856E8 ; 1.85226615567609E8 ; 1.2413697963072971E10 ; 0.0
71 ; 2732313.424436042 ; 2.0067561765038922E8 ; 1.879580365335228E8 ; 1.2614368322733156E10 ; 0.0
72 ; 2732979.9163223915 ; 2.0068087990734512E8 ; 1.9069034995795885E8 ; 1.2815043940383545E10 ; 0.0
73 ; 2731327.671168129 ; 2.0068614586407077E8 ; 1.9342332987428123E8 ; 1.301572482029089E10 ; 0.0
74 ; 2731696.4917877843 ; 2.006914149783135E8 ; 1.9615465754544935E8 ; 1.321641096615496E10 ; 0.0
75 ; 2733649.4693310033 ; 2.0069668673098564E8 ; 1.9888635403723714E8 ; 1.3417102381133274E10 ; 0.0
76 ; 2732465.0609402834 ; 2.007019606247133E8 ; 2.0162000350656813E8 ; 1.361779906786426E10 ; 0.0
77 ; 2733153.3657934717 ; 2.0070723618249E8 ; 2.0435246856750843E8 ; 1.3818501028488974E10 ; 0.0
78 ; 2732835.3430008395 ; 2.0071251294642618E8 ; 2.070856219333019E8 ; 1.4019208264671463E10 ; 0.0
79 ; 2732413.5448516025 ; 2.0071779047658795E8 ; 2.0981845727630273E8 ; 1.421992077761789E10 ; 0.0
80 ; 2731907.007201531 ; 2.0072306834991708E8 ; 2.1255087082115433E8 ; 1.4420638568094477E10 ; 0.0
81 ; 2730051.6774935103 ; 2.0072834615922683E8 ; 2.1528277782835585E8 ; 1.4621361636444393E10 ; 0.0
82 ; 2728488.645840075 ; 2.0073362351226693E8 ; 2.1801282950584936E8 ; 1.482208998260362E10 ; 0.0
83 ; 2727759.126913077 ; 2.0073890003085306E8 ; 2.2074131815168944E8 ; 1.5022823606115887E10 ; 0.0
84 ; 2727071.4067099844 ; 2.0074417535005546E8 ; 2.234690772786025E8 ; 1.522356250614674E10 ; 0.0
85 ; 2726557.7780681844 ; 2.0074944911744246E8 ; 2.261961486853125E8 ; 1.5424306681496796E10 ; 0.0
86 ; 2723848.1603131583 ; 2.007547209923745E8 ; 2.289227064633807E8 ; 1.5625056130614239E10 ; 0.0
87 ; 2724642.617594428 ; 2.0075999064534524E8 ; 2.3164655462369385E8 ; 1.5825810851606613E10 ; 0.0
88 ; 2724040.7031793427 ; 2.007652577573659E8 ; 2.3437119724128827E8 ; 1.6026570842251959E10 ; 0.0
89 ; 2721881.7292770236 ; 2.0077052201939002E8 ; 2.370952379444676E8 ; 1.6227336100009325E10 ; 0.0
90 ; 2719950.3431946915 ; 2.0077578313177514E8 ; 2.3981711967374462E8 ; 1.6428106622028715E10 ; 0.0
91 ; 2721961.6870952467 ; 2.0078104080377957E8 ; 2.425370700169393E8 ; 1.662888240516049E10 ; 0.0
92 ; 2719726.1427828143 ; 2.0078629475309065E8 ; 2.4525903170403457E8 ; 1.682966344596427E10 ; 0.0
93 ; 2717930.5351977684 ; 2.007915447053833E8 ; 2.4797875784681737E8 ; 1.703044974071736E10 ; 0.0
94 ; 2717681.1154437256 ; 2.0079679039390582E8 ; 2.5069668838201514E8 ; 1.7231241285422745E10 ; 0.0
95 ; 2716518.268924092 ; 2.008020315590918E8 ; 2.5341436949745888E8 ; 1.743203807581665E10 ; 0.0
96 ; 2714037.8301308407 ; 2.0080726794819573E8 ; 2.5613088776638296E8 ; 1.7632840107375744E10 ; 0.0
97 ; 2713022.7123844977 ; 2.0081249931495082E8 ; 2.588449255965138E8 ; 1.783364737532394E10 ; 0.0
98 ; 2711314.0386994835 ; 2.008177254192478E8 ; 2.615579483088983E8 ; 1.803445987463889E10 ; 0.0
99 ; 2709919.819645024 ; 2.0082294602683294E8 ; 2.6426926234759778E8 ; 1.8235277600058136E10 ; 0.0
100 ; 2708985.3473380087 ; 2.0082816090902388E8 ; 2.669791821672428E8 ; 1.843610054608497E10 ; 0.0
101 ; 2707438.4851140724 ; 2.008333698424427E8 ; 2.696881675145808E8 ; 1.863692870699399E10 ; 0.0
102 ; 2705942.367095907 ; 2.0083857260876417E8 ; 2.723956059996949E8 ; 1.8837762076836433E10 ; 0.0
103 ; 2703184.2591697047 ; 2.0084376899447918E8 ; 2.751015483667908E8 ; 1.9038600649445198E10 ; 0.0
104 ; 2705278.127425356 ; 2.0084895879067138E8 ; 2.7780473262596047E8 ; 1.923944441843968E10 ; 0.0
105 ; 2700959.277089853 ; 2.0085414179280692E8 ; 2.8051001075338584E8 ; 1.944029337723035E10 ; 0.0
106 ; 2701240.807270066 ; 2.0085931780053604E8 ; 2.832109700304757E8 ; 1.964114751902316E10 ; 0.0
107 ; 2699606.8695551623 ; 2.0086448661750594E8 ; 2.859122108377457E8 ; 1.9842006836823696E10 ; 0.0
108 ; 2696928.5927848113 ; 2.0086964805118397E8 ; 2.886118177073009E8 ; 2.00428713234412E10 ; 0.0
109 ; 2696493.706419386 ; 2.008748019126909E8 ; 2.913087463000857E8 ; 2.0243740971492386E10 ; 0.0
110 ; 2694773.496136569 ; 2.0087994801664326E8 ; 2.9400524000650513E8 ; 2.0444615773405075E10 ; 0.0
111 ; 2693280.400564638 ; 2.008850861810042E8 ; 2.967000135026417E8 ; 2.064549572142172E10 ; 0.0
112 ; 2691099.7940792106 ; 2.008902162269427E8 ; 2.993932939032063E8 ; 2.0846380807602722E10 ; 0.0
113 ; 2688531.1124760276 ; 2.0089533797870025E8 ; 3.020843936972855E8 ; 2.1047271023829666E10 ; 0.0
114 ; 2686608.408579507 ; 2.0090045126346466E8 ; 3.047729248097615E8 ; 2.1248166361808365E10 ; 0.0
115 ; 2685562.554523526 ; 2.009055559112507E8 ; 3.0745953321834105E8 ; 2.144906681307183E10 ; 0.0
116 ; 2684304.8804896064 ; 2.009106517547869E8 ; 3.101450957728646E8 ; 2.164997236898308E10 ; 0.0
117 ; 2681811.6221026303 ; 2.009157386294084E8 ; 3.1282940065335417E8 ; 2.185088302073787E10 ; 0.0
118 ; 2679290.20399758 ; 2.0092081637295532E8 ; 3.155112122754568E8 ; 2.205179875936728E10 ; 0.0
119 ; 2678509.69136121 ; 2.009258848256765E8 ; 3.1819050247945434E8 ; 2.2252719575740234E10 ; 0.0
120 ; 2676399.1411359105 ; 2.0093094383013803E8 ; 3.208690121708155E8 ; 2.245364546056591E10 ; 0.0
121 ; 2674581.2989293914 ; 2.0093599323113656E8 ; 3.2354541131195146E8 ; 2.265457640439605E10 ; 0.0
122 ; 2673284.0472159907 ; 2.00941032875617E8 ; 3.2621999261088085E8 ; 2.2855512397627186E10 ; 0.0
123 ; 2673026.787889561 ; 2.0094606261259434E8 ; 3.2889327665809685E8 ; 2.3056453430502804E10 ; 0.0
124 ; 2669147.055882064 ; 2.009510822930794E8 ; 3.315663034459864E8 ; 2.32573994931154E10 ; 0.0
125 ; 2667087.3834035513 ; 2.0095609177000833E8 ; 3.342354505018684E8 ; 2.3458350575408478E10 ; 0.0
126 ; 2663976.533371758 ; 2.0096109089817536E8 ; 3.3690253788527197E8 ; 2.3659306667178486E10 ; 0.0
127 ; 2661672.1131228576 ; 2.0096607953416926E8 ; 3.395665144186437E8 ; 2.386026775807666E10 ; 0.0
128 ; 2659640.442738632 ; 2.0097105753631255E8 ; 3.422281865317666E8 ; 2.406123383761083E10 ; 0.0
129 ; 2658582.865900825 ; 2.0097602476460388E8 ; 3.4488782697450525E8 ; 2.426220489514714E10 ; 0.0
130 ; 2654997.309149504 ; 2.0098098108066297E8 ; 3.4754640984040606E8 ; 2.4463180919911743E10 ; 0.0
131 ; 2652607.5139772743 ; 2.0098592634767848E8 ; 3.5020140714955556E8 ; 2.4664161900992405E10 ; 0.0
132 ; 2648949.095363681 ; 2.0099086043035808E8 ; 3.5285401466353285E8 ; 2.4865147827340084E10 ; 0.0
133 ; 2646927.907716981 ; 2.009957831948812E8 ; 3.555029637588965E8 ; 2.5066138687770443E10 ; 0.0
134 ; 2642816.000161562 ; 2.010006945088536E8 ; 3.581498916666135E8 ; 2.5267134470965324E10 ; 0.0
135 ; 2639675.298997214 ; 2.0100559424126458E8 ; 3.607927076667751E8 ; 2.546813516547418E10 ; 0.0
136 ; 2637677.351567224 ; 2.0101048226244566E8 ; 3.6343238296577233E8 ; 2.5669140759715443E10 ; 0.0
137 ; 2634427.181915386 ; 2.010153584440316E8 ; 3.6607006031733954E8 ; 2.587015124197789E10 ; 0.0
138 ; 2630552.297580307 ; 2.01020222658923E8 ; 3.6870448749925494E8 ; 2.607116660042192E10 ; 0.0
139 ; 2627765.371520025 ; 2.0102507478125072E8 ; 3.7133503979683524E8 ; 2.6272186823080845E10 ; 0.0
140 ; 2625270.1248813565 ; 2.0102991468634176E8 ; 3.739628051683553E8 ; 2.6473211897862095E10 ; 0.0
141 ; 2621489.107279504 ; 2.0103474225068703E8 ; 3.765880752932366E8 ; 2.6674241812548435E10 ; 0.0
142 ; 2618419.6998294364 ; 2.0103955735191017E8 ; 3.792095644005161E8 ; 2.687527655479912E10 ; 0.0
143 ; 2615108.805521595 ; 2.0104435986873806E8 ; 3.8182798410034555E8 ; 2.707631611215103E10 ; 0.0
144 ; 2611617.4867068394 ; 2.0104914968097255E8 ; 3.8444309290586716E8 ; 2.7277360472019768E10 ; 0.0
145 ; 2610070.968506358 ; 2.0105392666946355E8 ; 3.87054710392574E8 ; 2.747840962170074E10 ; 0.0
146 ; 2606937.828304482 ; 2.0105869071608308E8 ; 3.8966478136108035E8 ; 2.7679463548370205E10 ; 0.0
147 ; 2603518.9721690533 ; 2.010634417037008E8 ; 3.922717191893848E8 ; 2.788052223908629E10 ; 0.0
148 ; 2603747.3578137257 ; 2.0106817951616043E8 ; 3.9487523816155386E8 ; 2.808158568078999E10 ; 0.0
149 ; 2600829.807062022 ; 2.0107290403825703E8 ; 3.974789855193676E8 ; 2.828265386030615E10 ; 0.0
150 ; 2599332.647277646 ; 2.0107761515571576E8 ; 4.000798153264296E8 ; 2.8483726764344406E10 ; 0.0
151 ; 2596118.5682097715 ; 2.0108231275517112E8 ; 4.0267914797370726E8 ; 2.8684804379500122E10 ; 0.0
152 ; 2593720.2105807625 ; 2.010869967241473E8 ; 4.05275266541917E8 ; 2.8885886692255295E10 ; 0.0
153 ; 2590215.201667084 ; 2.0109166695103928E8 ; 4.078689867524978E8 ; 2.9086973688979443E10 ; 0.0
154 ; 2588103.4042834463 ; 2.010963233250949E8 ; 4.1045920195416486E8 ; 2.928806535593048E10 ; 0.0
155 ; 2585054.20206825 ; 2.0110096573639762E8 ; 4.130473053584483E8 ; 2.9489161679255577E10 ; 0.0
156 ; 2584328.6210887567 ; 2.011055940758498E8 ; 4.156323595605166E8 ; 2.9690262644991974E10 ; 0.0
157 ; 2581917.572752941 ; 2.0111020823515725E8 ; 4.1821668818160534E8 ; 2.9891368239067825E10 ; 0.0
158 ; 2578780.788143443 ; 2.0111480810681373E8 ; 4.207986057543583E8 ; 3.0092478447302982E10 ; 0.0
159 ; 2575261.604512396 ; 2.011193935840868E8 ; 4.2337738654250175E8 ; 3.0293593255409798E10 ; 0.0
160 ; 2573057.4478851445 ; 2.011239645610037E8 ; 4.2595264814701414E8 ; 3.0494712648993885E10 ; 0.0
161 ; 2571596.8934969767 ; 2.0112852093233824E8 ; 4.285257055948993E8 ; 3.069583661355489E10 ; 0.0
162 ; 2569882.7269650935 ; 2.01133062593598E8 ; 4.310973024883963E8 ; 3.089696513448723E10 ; 0.0
163 ; 2567476.9506117483 ; 2.0113758944101217E8 ; 4.3366718521536136E8 ; 3.1098098197080826E10 ; 0.0
164 ; 2564072.087112556 ; 2.011421013715199E8 ; 4.362346621659731E8 ; 3.129923578652184E10 ; 0.0
165 ; 2562301.924474695 ; 2.011465982827591E8 ; 4.387987342530857E8 ; 3.150037788789336E10 ; 0.0
166 ; 2560107.0039252997 ; 2.0115108007305574E8 ; 4.413610361775604E8 ; 3.170152448617612E10 ; 0.0
167 ; 2556657.6127906516 ; 2.011555466414137E8 ; 4.439211431814857E8 ; 3.1902675566249176E10 ; 0.0
168 ; 2552855.1245573848 ; 2.0115999788750473E8 ; 4.4647780079427636E8 ; 3.210383111289059E10 ; 0.0
169 ; 2550987.2031898815 ; 2.0116443371165922E8 ; 4.4903065591883373E8 ; 3.2304991110778095E10 ; 0.0
170 ; 2548942.2374805426 ; 2.0116885401485714E8 ; 4.5158164312202364E8 ; 3.2506155544489754E10 ; 0.0
171 ; 2546009.6651333296 ; 2.0117325869871938E8 ; 4.5413058535950416E8 ; 3.2707324398504612E10 ; 0.0
172 ; 2543395.49770386 ; 2.0117764766549942E8 ; 4.566765950246375E8 ; 3.290849765720333E10 ; 0.0
173 ; 2539762.125078854 ; 2.011820208180755E8 ; 4.592199905223414E8 ; 3.310967530486883E10 ; 0.0
174 ; 2539917.926380407 ; 2.0118637805994302E8 ; 4.617597526474202E8 ; 3.331085732568691E10 ; 0.0
175 ; 2539618.9260532414 ; 2.0119071929520708E8 ; 4.642996705738006E8 ; 3.3512043703746853E10 ; 0.0
176 ; 2535209.568130185 ; 2.0119504442857572E8 ; 4.6683928949985385E8 ; 3.371323442304206E10 ; 0.0
177 ; 2535146.549952055 ; 2.011993533653531E8 ; 4.6937449906798404E8 ; 3.391442946747064E10 ; 0.0
178 ; 2532453.3480036096 ; 2.012036460114332E8 ; 4.719096456179361E8 ; 3.411562882083599E10 ; 0.0
179 ; 2532117.3542249375 ; 2.0120792227329355E8 ; 4.744420989659397E8 ; 3.4316832466847424E10 ; 0.0
180 ; 2530278.630664059 ; 2.0121218205798945E8 ; 4.769742163201646E8 ; 3.451804038912072E10 ; 0.0
181 ; 2530125.2963510905 ; 2.012164252731483E8 ; 4.795044949508287E8 ; 3.471925257117871E10 ; 0.0
182 ; 2527764.255483814 ; 2.0122065182696423E8 ; 4.8203462024717975E8 ; 3.492046899645186E10 ; 0.0
183 ; 2525384.1024579857 ; 2.0122486162819293E8 ; 4.8456238450266355E8 ; 3.5121689648278824E10 ; 0.0
184 ; 2523381.0170064867 ; 2.0122905458614665E8 ; 4.8708776860512155E8 ; 3.532291450990702E10 ; 0.0
185 ; 2522376.0780386273 ; 2.0123323061068955E8 ; 4.89611149622128E8 ; 3.5524143564493164E10 ; 0.0
186 ; 2521290.1552061513 ; 2.012373896122331E8 ; 4.9213352570016664E8 ; 3.572537679510385E10 ; 0.0
187 ; 2520384.1733122715 ; 2.0124153150173178E8 ; 4.946548158553728E8 ; 3.592661418471609E10 ; 0.0
188 ; 2518141.1537484387 ; 2.0124565619067883E8 ; 4.9717520002868503E8 ; 3.612785571621782E10 ; 0.0
189 ; 2517039.9648219305 ; 2.0124976359110248E8 ; 4.996933411824335E8 ; 3.63291013724085E10 ; 0.0
190 ; 2516005.376743041 ; 2.0125385361556187E8 ; 5.022103811472554E8 ; 3.65303511359996E10 ; 0.0
191 ; 2512810.8383431803 ; 2.0125792617714363E8 ; 5.0472638652399844E8 ; 3.6731604989615166E10 ; 0.0
192 ; 2510965.578650861 ; 2.012619811894583E8 ; 5.0723919736234164E8 ; 3.693286291579231E10 ; 0.0
193 ; 2511775.879387739 ; 2.012660185666371E8 ; 5.097501629409925E8 ; 3.713412489698177E10 ; 0.0
194 ; 2509883.43474172 ; 2.012700382233285E8 ; 5.122619388203802E8 ; 3.733539091554841E10 ; 0.0
195 ; 2508164.889471478 ; 2.0127404007469553E8 ; 5.1477182225512195E8 ; 3.7536660953771736E10 ; 0.0
196 ; 2506882.417555984 ; 2.0127802403641257E8 ; 5.172799871445934E8 ; 3.773793499384643E10 ; 0.0
197 ; 2504565.0421915166 ; 2.0128199002466276E8 ; 5.197868695621494E8 ; 3.793921301788284E10 ; 0.0
198 ; 2502793.2469356335 ; 2.012859379561353E8 ; 5.222914346043409E8 ; 3.814049500790751E10 ; 0.0
199 ; 2503058.283281407 ; 2.012898677480229E8 ; 5.247942278512765E8 ; 3.834178094586365E10 ; 0.0
200 ; 2499059.883264789 ; 2.0129377931801936E8 ; 5.272972861345579E8 ; 3.854307081361167E10 ; 0.0
