CSV File for the City 2 on Day 325
1 - Minute m 
2 - Power Consumed at minute m 
3 - Power Produced at minute m 
4 - Energy Consumed since the beginning of the day 
5 - Energy Produced since the beginning of the day 
6 - Energy Lost since the beginning of the day on lines starting from the city
 
0 ; 1798781.2008908452 ; 1.0530998069159654E8 ; 0.0 ; 0.0 ; 0.0
1 ; 1801187.731438342 ; 1.0546394222142607E8 ; 1798781.2008908452 ; 1.0530998069159654E8 ; 0.0
2 ; 1802992.2945919428 ; 1.0592658275022212E8 ; 3599968.932329187 ; 2.107739229130226E8 ; 0.0
3 ; 1806133.3143744466 ; 1.0669790254513174E8 ; 5402961.22692113 ; 3.167005056632447E8 ; 0.0
4 ; 1809428.9873868101 ; 1.0777790184430748E8 ; 7209094.541295577 ; 4.2339840820837647E8 ; 0.0
5 ; 1812772.432621537 ; 1.091665808560201E8 ; 9018523.528682387 ; 5.3117631005268395E8 ; 0.0
6 ; 1816918.819514163 ; 1.1086393975787255E8 ; 1.0831295961303923E7 ; 6.40342890908704E8 ; 0.0
7 ; 1822997.463478568 ; 1.1286997869612259E8 ; 1.2648214780818086E7 ; 7.512068306665766E8 ; 0.0
8 ; 1833723.1707847167 ; 1.1518469778512013E8 ; 1.4471212244296655E7 ; 8.640768093626993E8 ; 0.0
9 ; 1845648.4542997123 ; 1.1780809710686374E8 ; 1.6304935415081372E7 ; 9.792615071478194E8 ; 0.0
10 ; 1866873.8518912042 ; 1.207401767106812E8 ; 1.8150583869381085E7 ; 1.097069604254683E9 ; 0.0
11 ; 1901993.724655116 ; 1.239809366130366E8 ; 2.001745772127229E7 ; 1.2178097809653642E9 ; 0.0
12 ; 1955916.3211002033 ; 1.2753037679746583E8 ; 2.1919451445927404E7 ; 1.3417907175784009E9 ; 0.0
13 ; 2006409.130054541 ; 1.313884972146411E8 ; 2.387536776702761E7 ; 1.4693210943758667E9 ; 0.0
14 ; 2012752.577458727 ; 1.3555529778256392E8 ; 2.588177689708215E7 ; 1.6007095915905077E9 ; 0.0
15 ; 2016520.5720733907 ; 1.4003077838688427E8 ; 2.7894529474540878E7 ; 1.7362648893730717E9 ; 0.0
16 ; 2019367.5293223786 ; 1.4481493888134453E8 ; 2.9911050046614267E7 ; 1.876295667759956E9 ; 0.0
17 ; 2022035.6865534745 ; 1.4990777908834162E8 ; 3.1930417575936645E7 ; 2.0211106066413004E9 ; 0.0
18 ; 2023577.6937912146 ; 1.5530929879960483E8 ; 3.395245326249012E7 ; 2.171018385729642E9 ; 0.0
19 ; 2026376.7016111263 ; 1.6101949777698162E8 ; 3.597603095628134E7 ; 2.326327684529247E9 ; 0.0
20 ; 2029652.7442471632 ; 1.670383757533249E8 ; 3.8002407657892466E7 ; 2.4873471823062286E9 ; 0.0
21 ; 2032048.5430869902 ; 1.7336593243347445E8 ; 4.003206040213963E7 ; 2.6543855580595536E9 ; 0.0
22 ; 2033604.8730040204 ; 1.8000216749532372E8 ; 4.206410894522662E7 ; 2.827751490493028E9 ; 0.0
23 ; 2036395.7807772222 ; 1.8694708059096342E8 ; 4.409771381823064E7 ; 3.007753657988352E9 ; 0.0
24 ; 2039299.7407425938 ; 1.9420067134789246E8 ; 4.613410959900786E7 ; 3.194700738579315E9 ; 0.0
25 ; 2041908.4843663643 ; 2.0045098026847088E8 ; 4.8173409339750454E7 ; 3.3889014099272075E9 ; 0.0
26 ; 2043125.3271851123 ; 2.0045155476813275E8 ; 5.021531782411682E7 ; 3.589352390195678E9 ; 0.0
27 ; 2048553.0501797434 ; 2.0045216370164588E8 ; 5.225844315130193E7 ; 3.789803944963811E9 ; 0.0
28 ; 2049697.3997685313 ; 2.004528066112697E8 ; 5.430699620148167E7 ; 3.990256108665457E9 ; 0.0
29 ; 2052176.8598238192 ; 2.0045348302140585E8 ; 5.63566936012502E7 ; 4.1907089152767267E9 ; 0.0
30 ; 2055580.1363156887 ; 2.0045419244001454E8 ; 5.8408870461074024E7 ; 4.391162398298133E9 ; 0.0
31 ; 2056135.700777832 ; 2.004549343600331E8 ; 6.046445059738971E7 ; 4.591616590738148E9 ; 0.0
32 ; 2059665.2467078008 ; 2.0045570826078877E8 ; 6.252058629816754E7 ; 4.792071525098181E9 ; 0.0
33 ; 2061470.5202380046 ; 2.004565136093979E8 ; 6.458025154487534E7 ; 4.99252723335897E9 ; 0.0
34 ; 2063803.8488194677 ; 2.004573498621443E8 ; 6.664172206511334E7 ; 5.192983746968368E9 ; 0.0
35 ; 2066144.7899037988 ; 2.00458216465831E8 ; 6.870552591393282E7 ; 5.393441096830512E9 ; 0.0
36 ; 2067070.227040142 ; 2.0045911285909864E8 ; 7.077167070383662E7 ; 5.593899313296343E9 ; 0.0
37 ; 2069891.7606658852 ; 2.0046003847370616E8 ; 7.283874093087676E7 ; 5.794358426155441E9 ; 0.0
38 ; 2072139.0388661725 ; 2.0046099273576877E8 ; 7.490863269154264E7 ; 5.994818464629148E9 ; 0.0
39 ; 2073761.1672356387 ; 2.0046197506694952E8 ; 7.698077173040882E7 ; 6.195279457364916E9 ; 0.0
40 ; 2074655.9061960299 ; 2.0046298488560137E8 ; 7.905453289764446E7 ; 6.395741432431866E9 ; 0.0
41 ; 2078262.2384638197 ; 2.0046402160785684E8 ; 8.112918880384049E7 ; 6.596204417317467E9 ; 0.0
42 ; 2078188.735716724 ; 2.0046508464866355E8 ; 8.32074510423043E7 ; 6.7966684389253235E9 ; 0.0
43 ; 2079556.6680429294 ; 2.0046617342276385E8 ; 8.528563977802104E7 ; 6.997133523573987E9 ; 0.0
44 ; 2082185.4150595113 ; 2.0046728734561813E8 ; 8.736519644606397E7 ; 7.197599696996751E9 ; 0.0
45 ; 2084348.7242503252 ; 2.0046842583427066E8 ; 8.944738186112347E7 ; 7.398066984342369E9 ; 0.0
46 ; 2084245.346602491 ; 2.0046958830815843E8 ; 9.15317305853738E7 ; 7.59853541017664E9 ; 0.0
47 ; 2085269.9291258645 ; 2.0047077418986318E8 ; 9.361597593197629E7 ; 7.799004998484798E9 ; 0.0
48 ; 2085909.956432374 ; 2.004719829058074E8 ; 9.570124586110215E7 ; 7.999475772674662E9 ; 0.0
49 ; 2088227.4335526924 ; 2.0047321388689542E8 ; 9.778715581753452E7 ; 8.199947755580469E9 ; 0.0
50 ; 2089585.9711516558 ; 2.004744665691004E8 ; 9.987538325108722E7 ; 8.400420969467364E9 ; 0.0
51 ; 2089899.4164690438 ; 2.0047574039399976E8 ; 1.0196496922223887E8 ; 8.600895436036465E9 ; 0.0
52 ; 2090863.8438970435 ; 2.0047703480925947E8 ; 1.040548686387079E8 ; 8.801371176430464E9 ; 0.0
53 ; 2090517.2700318224 ; 2.004783492690706E8 ; 1.0614573248260495E8 ; 9.001848211239723E9 ; 0.0
54 ; 2092988.750331827 ; 2.0047968323453856E8 ; 1.0823624975263678E8 ; 9.202326560508793E9 ; 0.0
55 ; 2091812.2816713338 ; 2.0048103617402852E8 ; 1.1032923850296861E8 ; 9.402806243743332E9 ; 0.0
56 ; 2092145.8384306158 ; 2.0048240756346837E8 ; 1.1242105078463994E8 ; 9.60328727991736E9 ; 0.0
57 ; 2093943.4064576998 ; 2.0048379688661173E8 ; 1.1451319662307055E8 ; 9.80376968748083E9 ; 0.0
58 ; 2094909.0670726346 ; 2.0048520363526312E8 ; 1.1660714002952826E8 ; 1.0004253484367441E10 ; 0.0
59 ; 2096143.9171455603 ; 2.0048662730946782E8 ; 1.1870204909660089E8 ; 1.0204738688002705E10 ; 0.0
60 ; 2095764.8612949841 ; 2.0048806741766846E8 ; 1.2079819301374646E8 ; 1.0405225315312172E10 ; 0.0
61 ; 2096712.565091727 ; 2.0048952347683024E8 ; 1.2289395787504144E8 ; 1.0605713382729841E10 ; 0.0
62 ; 2097608.509715824 ; 2.004909950125375E8 ; 1.2499067044013317E8 ; 1.080620290620667E10 ; 0.0
63 ; 2098283.6836145767 ; 2.0049248155906358E8 ; 1.27088278949849E8 ; 1.1006693901219208E10 ; 0.0
64 ; 2099391.6743323617 ; 2.0049398265941545E8 ; 1.2918656263346358E8 ; 1.120718638277827E10 ; 0.0
65 ; 2099002.854120849 ; 2.0049549786535597E8 ; 1.3128595430779594E8 ; 1.1407680365437687E10 ; 0.0
66 ; 2099353.777246548 ; 2.0049702673740482E8 ; 1.3338495716191679E8 ; 1.1608175863303043E10 ; 0.0
67 ; 2100720.3192888577 ; 2.0049856884482065E8 ; 1.3548431093916333E8 ; 1.1808672890040447E10 ; 0.0
68 ; 2100493.134281815 ; 2.0050012376556528E8 ; 1.3758503125845218E8 ; 1.2009171458885267E10 ; 0.0
69 ; 2100199.9382263953 ; 2.0050169108625272E8 ; 1.39685524392734E8 ; 1.2209671582650833E10 ; 0.0
70 ; 2101378.1291461387 ; 2.0050327040208322E8 ; 1.417857243309604E8 ; 1.2410173273737085E10 ; 0.0
71 ; 2101502.1194955157 ; 2.0050486131676507E8 ; 1.4388710246010652E8 ; 1.2610676544139168E10 ; 0.0
72 ; 2102170.8252034853 ; 2.0050646344242463E8 ; 1.4598860457960203E8 ; 1.2811181405455933E10 ; 0.0
73 ; 2101917.571528562 ; 2.0050807639950618E8 ; 1.480907754048055E8 ; 1.3011687868898357E10 ; 0.0
74 ; 2103065.303092098 ; 2.005096998166629E8 ; 1.5019269297633407E8 ; 1.3212195945297863E10 ; 0.0
75 ; 2103397.36668944 ; 2.0051133333063996E8 ; 1.5229575827942616E8 ; 1.3412705645114527E10 ; 0.0
76 ; 2103483.5502860555 ; 2.0051297658615056E8 ; 1.543991556461156E8 ; 1.3613216978445168E10 ; 0.0
77 ; 2103947.9504542425 ; 2.0051462923574644E8 ; 1.5650263919640166E8 ; 1.3813729955031319E10 ; 0.0
78 ; 2104045.5247426727 ; 2.0051629093968323E8 ; 1.586065871468559E8 ; 1.4014244584267065E10 ; 0.0
79 ; 2104789.3339937925 ; 2.0051796136578146E8 ; 1.6071063267159855E8 ; 1.4214760875206749E10 ; 0.0
80 ; 2103507.425820325 ; 2.005196401892844E8 ; 1.6281542200559235E8 ; 1.441527883657253E10 ; 0.0
81 ; 2102733.5157515868 ; 2.005213270927133E8 ; 1.6491892943141267E8 ; 1.4615798476761816E10 ; 0.0
82 ; 2102361.343414418 ; 2.0052302176572E8 ; 1.6702166294716427E8 ; 1.4816319803854528E10 ; 0.0
83 ; 2102508.6711672894 ; 2.0052472390493873E8 ; 1.691240242905787E8 ; 1.5016842825620249E10 ; 0.0
84 ; 2101347.17744409 ; 2.0052643321383622E8 ; 1.7122653296174598E8 ; 1.5217367549525188E10 ; 0.0
85 ; 2101568.0656764535 ; 2.0052814940256208E8 ; 1.7332788013919008E8 ; 1.5417893982739025E10 ; 0.0
86 ; 2101119.6372609143 ; 2.0052987218779832E8 ; 1.7542944820486653E8 ; 1.5618422132141586E10 ; 0.0
87 ; 2100389.9649832016 ; 2.0053160129260972E8 ; 1.7753056784212744E8 ; 1.5818952004329384E10 ; 0.0
88 ; 2100252.5999906315 ; 2.0053333644629475E8 ; 1.7963095780711064E8 ; 1.6019483605621994E10 ; 0.0
89 ; 2100931.77811716 ; 2.0053507738423726E8 ; 1.8173121040710127E8 ; 1.6220016942068289E10 ; 0.0
90 ; 2098155.240324049 ; 2.0053682384775963E8 ; 1.8383214218521842E8 ; 1.6420552019452526E10 ; 0.0
91 ; 2097683.751084848 ; 2.005385755839774E8 ; 1.8593029742554247E8 ; 1.6621088843300285E10 ; 0.0
92 ; 2097236.0000585755 ; 2.005403323456555E8 ; 1.880279811766273E8 ; 1.6821627418884262E10 ; 0.0
93 ; 2095749.972702733 ; 2.0054209389106652E8 ; 1.9012521717668587E8 ; 1.7022167751229918E10 ; 0.0
94 ; 2097255.2532765465 ; 2.0054385998385087E8 ; 1.922209671493886E8 ; 1.7222709845120983E10 ; 0.0
95 ; 2096005.238256788 ; 2.0054563039287937E8 ; 1.9431822240266517E8 ; 1.7423253705104836E10 ; 0.0
96 ; 2096323.8009913394 ; 2.0054740489211792E8 ; 1.9641422764092195E8 ; 1.7623799335497715E10 ; 0.0
97 ; 2094760.1792373445 ; 2.005491832604949E8 ; 1.9851055144191328E8 ; 1.782434674038983E10 ; 0.0
98 ; 2093476.2100911273 ; 2.0055096528177074E8 ; 2.006053116211506E8 ; 1.8024895923650326E10 ; 0.0
99 ; 2092187.4913508913 ; 2.005527507444104E8 ; 2.0269878783124173E8 ; 1.82254468889321E10 ; 0.0
100 ; 2094277.3485666893 ; 2.005545394414583E8 ; 2.0479097532259262E8 ; 1.842599963967651E10 ; 0.0
101 ; 2091555.3124100238 ; 2.0055633117041594E8 ; 2.068852526711593E8 ; 1.862655417911797E10 ; 0.0
102 ; 2090308.8800772256 ; 2.005581257331222E8 ; 2.0897680798356932E8 ; 1.8827110510288387E10 ; 0.0
103 ; 2089358.8019281244 ; 2.005599229356366E8 ; 2.1106711686364654E8 ; 1.902766863602151E10 ; 0.0
104 ; 2088929.3153700768 ; 2.0056172258812505E8 ; 2.1315647566557467E8 ; 1.922822855895715E10 ; 0.0
105 ; 2088329.4878185997 ; 2.005635245047483E8 ; 2.1524540498094475E8 ; 1.9428790281545273E10 ; 0.0
106 ; 2087804.5967303393 ; 2.0056532850355348E8 ; 2.1733373446876335E8 ; 1.9629353806050022E10 ; 0.0
107 ; 2087061.4617785097 ; 2.0056713440636784E8 ; 2.194215390654937E8 ; 1.9829919134553577E10 ; 0.0
108 ; 2085245.9613525074 ; 2.0056894203869572E8 ; 2.2150860052727222E8 ; 2.0030486268959946E10 ; 0.0
109 ; 2085350.2477801547 ; 2.0057075122961777E8 ; 2.2359384648862472E8 ; 2.0231055210998642E10 ; 0.0
110 ; 2083962.6119707457 ; 2.005725618116931E8 ; 2.2567919673640487E8 ; 2.043162596222826E10 ; 0.0
111 ; 2083408.1377691005 ; 2.005743736208638E8 ; 2.2776315934837562E8 ; 2.063219852403995E10 ; 0.0
112 ; 2081545.8670627575 ; 2.0057618649636236E8 ; 2.2984656748614472E8 ; 2.0832772897660816E10 ; 0.0
113 ; 2082004.7010153779 ; 2.0057800028062117E8 ; 2.3192811335320747E8 ; 2.1033349084157177E10 ; 0.0
114 ; 2078766.0852743445 ; 2.0057981481918505E8 ; 2.3401011805422285E8 ; 2.1233927084437798E10 ; 0.0
115 ; 2079220.5309047732 ; 2.005816299606257E8 ; 2.360888841394972E8 ; 2.143450689925698E10 ; 0.0
116 ; 2078030.6157148408 ; 2.0058344555645895E8 ; 2.3816810467040196E8 ; 2.1635088529217606E10 ; 0.0
117 ; 2077583.3137634627 ; 2.005852614610642E8 ; 2.402461352861168E8 ; 2.1835671974774063E10 ; 0.0
118 ; 2076528.9252581575 ; 2.0058707753160608E8 ; 2.4232371859988028E8 ; 2.2036257236235126E10 ; 0.0
119 ; 2075229.9874887732 ; 2.0058889362795854E8 ; 2.4440024752513844E8 ; 2.223684431376673E10 ; 0.0
120 ; 2073106.259689654 ; 2.005907096126311E8 ; 2.464754775126272E8 ; 2.243743320739469E10 ; 0.0
121 ; 2073381.8238531968 ; 2.0059252535069707E8 ; 2.4854858377231687E8 ; 2.2638023917007324E10 ; 0.0
122 ; 2070684.8124915597 ; 2.005943407097242E8 ; 2.5062196559617007E8 ; 2.283861644235802E10 ; 0.0
123 ; 2071482.213805027 ; 2.0059615555970693E8 ; 2.5269265040866163E8 ; 2.3039210783067745E10 ; 0.0
124 ; 2068180.2658776087 ; 2.0059796977300122E8 ; 2.5476413262246665E8 ; 2.3239806938627453E10 ; 0.0
125 ; 2067998.9856266184 ; 2.0059978322426078E8 ; 2.5683231288834426E8 ; 2.3440404908400455E10 ; 0.0
126 ; 2067044.3391556542 ; 2.0060159579037547E8 ; 2.5890031187397087E8 ; 2.3641004691624718E10 ; 0.0
127 ; 2065585.2309895244 ; 2.0060340735041147E8 ; 2.609673562131265E8 ; 2.3841606287415092E10 ; 0.0
128 ; 2064746.9946055394 ; 2.0060521778555343E8 ; 2.6303294144411603E8 ; 2.4042209694765503E10 ; 0.0
129 ; 2063020.5851303705 ; 2.0060702697904798E8 ; 2.6509768843872157E8 ; 2.4242814912551056E10 ; 0.0
130 ; 2060788.02722412 ; 2.006088348161493E8 ; 2.6716070902385193E8 ; 2.4443421939530106E10 ; 0.0
131 ; 2059570.3332052506 ; 2.0061064118406618E8 ; 2.6922149705107605E8 ; 2.4644030774346256E10 ; 0.0
132 ; 2056644.196660702 ; 2.0061244597191072E8 ; 2.712810673842813E8 ; 2.4844641415530323E10 ; 0.0
133 ; 2055779.4020137242 ; 2.0061424907064852E8 ; 2.73337711580942E8 ; 2.5045253861502235E10 ; 0.0
134 ; 2053265.309274554 ; 2.0061605037305054E8 ; 2.753934909829557E8 ; 2.5245868110572884E10 ; 0.0
135 ; 2051577.5113574935 ; 2.0061784977364624E8 ; 2.7744675629223025E8 ; 2.5446484160945934E10 ; 0.0
136 ; 2049667.0874329915 ; 2.0061964716867822E8 ; 2.7949833380358773E8 ; 2.564710201071958E10 ; 0.0
137 ; 2047784.2415998874 ; 2.0062144245605835E8 ; 2.815480008910207E8 ; 2.584772165788826E10 ; 0.0
138 ; 2045970.3796937892 ; 2.0062323553532508E8 ; 2.835957851326206E8 ; 2.604834310034432E10 ; 0.0
139 ; 2043940.003347284 ; 2.006250263076021E8 ; 2.856417555123144E8 ; 2.6248966335879642E10 ; 0.0
140 ; 2041404.1303757953 ; 2.0062681467555836E8 ; 2.8768569551566166E8 ; 2.6449591362187244E10 ; 0.0
141 ; 2038432.1095519732 ; 2.006286005433691E8 ; 2.8972709964603746E8 ; 2.6650218176862804E10 ; 0.0
142 ; 2037782.1480430607 ; 2.0063038381667843E8 ; 2.917655317555894E8 ; 2.6850846777406174E10 ; 0.0
143 ; 2035544.3299878153 ; 2.0063216440256256E8 ; 2.9380331390363246E8 ; 2.705147716122285E10 ; 0.0
144 ; 2034251.7355473135 ; 2.006339422094946E8 ; 2.958388582336203E8 ; 2.7252109325625412E10 ; 0.0
145 ; 2032319.5479735676 ; 2.006357171473101E8 ; 2.978731099691676E8 ; 2.7452743267834908E10 ; 0.0
146 ; 2029105.2266044836 ; 2.006374891271741E8 ; 2.9990542951714116E8 ; 2.7653378984982216E10 ; 0.0
147 ; 2028001.5134111624 ; 2.006392580615485E8 ; 3.019345347437456E8 ; 2.785401647410939E10 ; 0.0
148 ; 2026382.937184752 ; 2.0064102386416107E8 ; 3.039625362571568E8 ; 2.805465573217094E10 ; 0.0
149 ; 2025764.4352927834 ; 2.0064278644997504E8 ; 3.0598891919434154E8 ; 2.8255296756035103E10 ; 0.0
150 ; 2026424.4172960855 ; 2.0064454573515972E8 ; 3.080146836296343E8 ; 2.8455939542485077E10 ; 0.0
151 ; 2023234.7788948463 ; 2.0064630163706207E8 ; 3.1004110804693043E8 ; 2.8656584088220238E10 ; 0.0
152 ; 2022975.6073986217 ; 2.00648054074179E8 ; 3.120643428258253E8 ; 2.88572303898573E10 ; 0.0
153 ; 2020502.6726664214 ; 2.0064980296613064E8 ; 3.140873184332239E8 ; 2.905787844393148E10 ; 0.0
154 ; 2018232.4438690303 ; 2.0065154823363435E8 ; 3.1610782110589033E8 ; 2.925852824689761E10 ; 0.0
155 ; 2018010.0183463227 ; 2.006532897984796E8 ; 3.181260535497594E8 ; 2.9459179795131245E10 ; 0.0
156 ; 2016294.977762557 ; 2.006550275835033E8 ; 3.201440635681057E8 ; 2.9659833084929726E10 ; 0.0
157 ; 2013103.3393228555 ; 2.0065676151256657E8 ; 3.221603585458683E8 ; 2.986048811251323E10 ; 0.0
158 ; 2013579.173503152 ; 2.0065849151053125E8 ; 3.2417346188519114E8 ; 3.0061144874025795E10 ; 0.0
159 ; 2011938.5214418652 ; 2.0066021750323802E8 ; 3.261870410586943E8 ; 3.0261803365536327E10 ; 0.0
160 ; 2010820.3006746478 ; 2.0066193941748464E8 ; 3.281989795801362E8 ; 3.0462463583039566E10 ; 0.0
161 ; 2008884.6795512307 ; 2.0066365718100494E8 ; 3.3020979988081086E8 ; 3.066312552245705E10 ; 0.0
162 ; 2007251.6815125109 ; 2.0066537072244865E8 ; 3.322186845603621E8 ; 3.0863789179638054E10 ; 0.0
163 ; 2005687.5281692808 ; 2.0066707997136146E8 ; 3.3422593624187464E8 ; 3.1064454550360504E10 ; 0.0
164 ; 2004551.3634617338 ; 2.0066878485816613E8 ; 3.362316237700439E8 ; 3.1265121630331867E10 ; 0.0
165 ; 2002968.0701565663 ; 2.006704853141438E8 ; 3.3823617513350564E8 ; 3.1465790415190033E10 ; 0.0
166 ; 2002740.6644685268 ; 2.0067218127141598E8 ; 3.402391432036622E8 ; 3.1666460900504177E10 ; 0.0
167 ; 2001024.1385068155 ; 2.0067387266292712E8 ; 3.4224188386813074E8 ; 3.1867133081775593E10 ; 0.0
168 ; 1998788.8439602118 ; 2.0067555942242768E8 ; 3.442429080066376E8 ; 3.206780695443852E10 ; 0.0
169 ; 1995986.0585945665 ; 2.0067724148445764E8 ; 3.462416968505978E8 ; 3.2268482513860947E10 ; 0.0
170 ; 1996742.4974988177 ; 2.0067891878433055E8 ; 3.482376829091924E8 ; 3.2469159755345406E10 ; 0.0
171 ; 1993030.9295330513 ; 2.0068059125811806E8 ; 3.502344254066912E8 ; 3.2669838674129738E10 ; 0.0
172 ; 1992768.514091083 ; 2.0068225884263495E8 ; 3.5222745633622426E8 ; 3.2870519265387856E10 ; 0.0
173 ; 1991566.5046899207 ; 2.006839214754244E8 ; 3.5422022485031533E8 ; 3.307120152423049E10 ; 0.0
174 ; 1990542.441721237 ; 2.0068557909474397E8 ; 3.5621179135500526E8 ; 3.3271885445705917E10 ; 0.0
175 ; 1990034.19699746 ; 2.0068723163955182E8 ; 3.582023337967265E8 ; 3.3472571024800663E10 ; 0.0
176 ; 1988512.3040875972 ; 2.0068887904949328E8 ; 3.60192367993724E8 ; 3.3673258256440216E10 ; 0.0
177 ; 1988086.7749452444 ; 2.0069052126488808E8 ; 3.6218088029781157E8 ; 3.3873947135489708E10 ; 0.0
178 ; 1987501.4544049012 ; 2.0069215822671765E8 ; 3.641689670727568E8 ; 3.4074637656754597E10 ; 0.0
179 ; 1985667.9465272026 ; 2.006937898766129E8 ; 3.661564685271617E8 ; 3.4275329814981316E10 ; 0.0
180 ; 1984898.9477724256 ; 2.0069541615684253E8 ; 3.681421364736889E8 ; 3.4476023604857925E10 ; 0.0
181 ; 1983750.753487481 ; 2.0069703701030135E8 ; 3.7012703542146134E8 ; 3.467671902101477E10 ; 0.0
182 ; 1982542.6950904452 ; 2.006986523804992E8 ; 3.721107861749488E8 ; 3.487741605802507E10 ; 0.0
183 ; 1982440.5193975351 ; 2.007E8 ; 3.740933288700393E8 ; 3.507811471040557E10 ; 0.0
184 ; 1980704.0943117687 ; 2.007E8 ; 3.7607576938943684E8 ; 3.527881471040557E10 ; 0.0
185 ; 1980102.5582355857 ; 2.007E8 ; 3.780564734837486E8 ; 3.547951471040557E10 ; 0.0
186 ; 1978555.2193385863 ; 2.007E8 ; 3.800365760419842E8 ; 3.568021471040557E10 ; 0.0
187 ; 1978005.5927980274 ; 2.007E8 ; 3.820151312613228E8 ; 3.588091471040557E10 ; 0.0
188 ; 1977125.2742985748 ; 2.007E8 ; 3.8399313685412085E8 ; 3.608161471040557E10 ; 0.0
189 ; 1975447.7015851082 ; 2.007E8 ; 3.859702621284194E8 ; 3.628231471040557E10 ; 0.0
190 ; 1971906.427750293 ; 2.007E8 ; 3.879457098300045E8 ; 3.648301471040557E10 ; 0.0
191 ; 1968178.41274787 ; 2.007E8 ; 3.899176162577548E8 ; 3.668371471040557E10 ; 0.0
192 ; 1963736.0756414551 ; 2.007E8 ; 3.9188579467050266E8 ; 3.688441471040557E10 ; 0.0
193 ; 1960174.5313315126 ; 2.007E8 ; 3.938495307461441E8 ; 3.708511471040557E10 ; 0.0
194 ; 1957506.1489177654 ; 2.007E8 ; 3.9580970527747566E8 ; 3.728581471040557E10 ; 0.0
195 ; 1952219.3510990364 ; 2.007E8 ; 3.9776721142639345E8 ; 3.748651471040557E10 ; 0.0
196 ; 1949287.7577205757 ; 2.007E8 ; 3.9971943077749246E8 ; 3.768721471040557E10 ; 0.0
197 ; 1946381.193803904 ; 2.007E8 ; 4.0166871853521305E8 ; 3.788791471040557E10 ; 0.0
198 ; 1941179.4987808117 ; 2.007E8 ; 4.0361509972901696E8 ; 3.808861471040557E10 ; 0.0
199 ; 1936814.7663198123 ; 2.007E8 ; 4.0555627922779775E8 ; 3.828931471040557E10 ; 0.0
200 ; 1934999.805662016 ; 2.007E8 ; 4.0749309399411756E8 ; 3.849001471040557E10 ; 0.0
201 ; 1930492.0414488618 ; 2.007E8 ; 4.094280937997796E8 ; 3.869071471040557E10 ; 0.0
