CSV File for the City 1 on Day 9
1 - Minute m 
2 - Power Consumed at minute m 
3 - Power Produced at minute m 
4 - Energy Consumed since the beginning of the day 
5 - Energy Produced since the beginning of the day 
6 - Energy Lost since the beginning of the day on lines starting from the city
 
0 ; 1.5989737703200687E7 ; 1.053007067689288E8 ; 0.0 ; 0.0 ; 0.0
1 ; 1.6007240319867896E7 ; 1.0545271384455335E8 ; 1.5989737703200687E7 ; 1.053007067689288E8 ; 0.0
2 ; 1.6026519319684286E7 ; 1.0591357235331908E8 ; 3.1996978023068585E7 ; 2.1075342061348215E8 ; 0.0
3 ; 1.604691731469771E7 ; 1.066832923975308E8 ; 4.8023497342752874E7 ; 3.166669929668012E8 ; 0.0
4 ; 1.6066776141892094E7 ; 1.0776188357206619E8 ; 6.407041465745059E7 ; 4.23350285364332E8 ; 0.0
5 ; 1.6096643729535727E7 ; 1.0914935476215649E8 ; 8.013719079934268E7 ; 5.311121689363982E8 ; 0.0
6 ; 1.6136670175242323E7 ; 1.108457139368883E8 ; 9.62338345288784E7 ; 6.402615236985548E8 ; 0.0
7 ; 1.6189862119895535E7 ; 1.1285096794790381E8 ; 1.1237050470412073E8 ; 7.511072376354431E8 ; 0.0
8 ; 1.6267425955922253E7 ; 1.1516512234392464E8 ; 1.2856036682401626E8 ; 8.639582055833468E8 ; 0.0
9 ; 1.6383198691875359E7 ; 1.1778818121200919E8 ; 1.4482779277993852E8 ; 9.791233279272715E8 ; 0.0
10 ; 1.656739464480598E7 ; 1.2072014705568045E8 ; 1.612109914718139E8 ; 1.0969115091392808E9 ; 0.0
11 ; 1.6856998083417337E7 ; 1.2396102071818206E8 ; 1.7777838611661986E8 ; 1.2176316561949613E9 ; 0.0
12 ; 1.731612820134465E7 ; 1.2751080135627034E8 ; 1.9463538420003718E8 ; 1.3415926769131434E9 ; 0.0
13 ; 1.7761621916266933E7 ; 1.3136948646642232E8 ; 2.1195151240138182E8 ; 1.4691034782694137E9 ; 0.0
14 ; 1.7813551301964335E7 ; 1.3553707196157968E8 ; 2.2971313431764877E8 ; 1.600472964735836E9 ; 0.0
15 ; 1.7834305045328874E7 ; 1.4001355229302067E8 ; 2.475266856196131E8 ; 1.7360100366974158E9 ; 0.0
16 ; 1.78571168328512E7 ; 1.4479892060910323E8 ; 2.65360990664942E8 ; 1.8760235889904366E9 ; 0.0
17 ; 1.7874923751417655E7 ; 1.4989316894074067E8 ; 2.832181074977932E8 ; 2.0208225095995398E9 ; 0.0
18 ; 1.7896584867701262E7 ; 1.552962884027018E8 ; 3.0109303124921083E8 ; 2.1707156785402803E9 ; 0.0
19 ; 1.79191004846238E7 ; 1.610082694001089E8 ; 3.189896161169121E8 ; 2.326011966942982E9 ; 0.0
20 ; 1.7938782125724763E7 ; 1.6702910183065715E8 ; 3.369087166015359E8 ; 2.487020236343091E9 ; 0.0
21 ; 1.7959277471460644E7 ; 1.7335877527481827E8 ; 3.548474987272607E8 ; 2.654049338173748E9 ; 0.0
22 ; 1.798259099931584E7 ; 1.799972791683213E8 ; 3.7280677619872135E8 ; 2.8274081134485664E9 ; 0.0
23 ; 1.7997883458399363E7 ; 1.8694460295325953E8 ; 3.907893671980372E8 ; 3.0074053926168876E9 ; 0.0
24 ; 1.801801758788392E7 ; 1.9420073620604682E8 ; 4.0878725065643656E8 ; 3.194349995570147E9 ; 0.0
25 ; 1.8041622687843457E7 ; 2.0045370964019927E8 ; 4.268052682443205E8 ; 3.3885507317761936E9 ; 0.0
26 ; 1.8062124004470132E7 ; 2.0045706122545937E8 ; 4.4484689093216395E8 ; 3.589004441416393E9 ; 0.0
27 ; 1.8083679619939085E7 ; 2.004605507743831E8 ; 4.6290901493663406E8 ; 3.7894615026418524E9 ; 0.0
28 ; 1.810211652469225E7 ; 2.0046416923257348E8 ; 4.8099269455657315E8 ; 3.9899220534162354E9 ; 0.0
29 ; 1.8121903457270596E7 ; 2.004679079997181E8 ; 4.990948110812654E8 ; 4.190386222648809E9 ; 0.0
30 ; 1.814040798146495E7 ; 2.004717589442858E8 ; 5.17216714538536E8 ; 4.390854130648527E9 ; 0.0
31 ; 1.816199257583368E7 ; 2.0047571440757683E8 ; 5.3535712252000093E8 ; 4.591325889592813E9 ; 0.0
32 ; 1.8176495733606827E7 ; 2.0047976719936013E8 ; 5.535191150958346E8 ; 4.791801604000389E9 ; 0.0
33 ; 1.8198433795807745E7 ; 2.00483910587066E8 ; 5.716956108294414E8 ; 4.992281371199749E9 ; 0.0
34 ; 1.8215649451889295E7 ; 2.00488138280221E8 ; 5.898940446252491E8 ; 5.192765281786815E9 ; 0.0
35 ; 1.823334120823049E7 ; 2.0049244441153586E8 ; 6.081096940771384E8 ; 5.393253420067036E9 ; 0.0
36 ; 1.8248549560641047E7 ; 2.004968235157994E8 ; 6.263430352853689E8 ; 5.593745864478572E9 ; 0.0
37 ; 1.8263457668290675E7 ; 2.005012705075016E8 ; 6.4459158484601E8 ; 5.794242687994371E9 ; 0.0
38 ; 1.8276268084772646E7 ; 2.0050578065790924E8 ; 6.628550425143006E8 ; 5.994743958501873E9 ; 0.0
39 ; 1.8291790058985244E7 ; 2.005103495721471E8 ; 6.811313105990732E8 ; 6.195249739159782E9 ; 0.0
40 ; 1.830974667273114E7 ; 2.0051497316669786E8 ; 6.994231006580584E8 ; 6.39576008873193E9 ; 0.0
41 ; 1.8319817408570692E7 ; 2.0051964764761853E8 ; 7.177328473307896E8 ; 6.596275061898627E9 ; 0.0
42 ; 1.8334908406648606E7 ; 2.005243694896794E8 ; 7.360526647393602E8 ; 6.796794709546246E9 ; 0.0
43 ; 1.8346067339506686E7 ; 2.0052913541655847E8 ; 7.543875731460088E8 ; 6.997319079035925E9 ; 0.0
44 ; 1.835563920704915E7 ; 2.0053394238216892E8 ; 7.727336404855156E8 ; 7.197848214452483E9 ; 0.0
45 ; 1.836438138282103E7 ; 2.0053878755315313E8 ; 7.910892796925647E8 ; 7.398382156834652E9 ; 0.0
46 ; 1.8376650482417993E7 ; 2.0054366829254586E8 ; 8.094536610753858E8 ; 7.598920944387805E9 ; 0.0
47 ; 1.83857332686051E7 ; 2.005485821445846E8 ; 8.278303115578038E8 ; 7.799464612680351E9 ; 0.0
48 ; 1.8390326029802475E7 ; 2.0055352682062963E8 ; 8.462160448264089E8 ; 8.000013194824936E9 ; 0.0
49 ; 1.840274242266567E7 ; 2.0055850018614465E8 ; 8.646063708562113E8 ; 8.200566721645566E9 ; 0.0
50 ; 1.840054253532825E7 ; 2.0056350024868184E8 ; 8.83009113278877E8 ; 8.401125221831711E9 ; 0.0
51 ; 1.8407524431509983E7 ; 2.0056852514681134E8 ; 9.014096558142053E8 ; 8.601688722080393E9 ; 0.0
52 ; 1.8413221109664343E7 ; 2.0057357313993347E8 ; 9.198171802457153E8 ; 8.802257247227203E9 ; 0.0
53 ; 1.841940991165121E7 ; 2.0057864259891242E8 ; 9.382304013553796E8 ; 9.002830820367136E9 ; 0.0
54 ; 1.842493756596736E7 ; 2.0058373199747136E8 ; 9.566498112670308E8 ; 9.20340946296605E9 ; 0.0
55 ; 1.84290925437751E7 ; 2.0058883990429068E8 ; 9.750747488329982E8 ; 9.40399319496352E9 ; 0.0
56 ; 1.8433325602557622E7 ; 2.0059396497575453E8 ; 9.935038413767732E8 ; 9.604582034867811E9 ; 0.0
57 ; 1.843658483513296E7 ; 2.0059910594929385E8 ; 1.0119371669793309E9 ; 9.805175999843565E9 ; 0.0
58 ; 1.8442750153510276E7 ; 2.0060426163727656E8 ; 1.0303737518144639E9 ; 1.0005775105792858E10 ; 0.0
59 ; 1.8443802722661898E7 ; 2.0060943092140016E8 ; 1.0488165019679742E9 ; 1.0206379367430134E10 ; 0.0
60 ; 1.8448138007299498E7 ; 2.0061461274754393E8 ; 1.067260304690636E9 ; 1.0406988798351534E10 ; 0.0
61 ; 1.8451686866432182E7 ; 2.0061980612104255E8 ; 1.0857084426979356E9 ; 1.0607603411099077E10 ; 0.0
62 ; 1.8456583996064503E7 ; 2.006250101023448E8 ; 1.1041601295643678E9 ; 1.080822321722012E10 ; 0.0
63 ; 1.8458549329768755E7 ; 2.006302238030246E8 ; 1.1226167135604322E9 ; 1.1008848227322464E10 ; 0.0
64 ; 1.8461626030034505E7 ; 2.006354463821141E8 ; 1.1410752628902009E9 ; 1.1209478451125488E10 ; 0.0
65 ; 1.8464647973104965E7 ; 2.006406770427316E8 ; 1.1595368889202354E9 ; 1.1410113897507603E10 ; 0.0
66 ; 1.8464791825251926E7 ; 2.0064591502897835E8 ; 1.1780015368933403E9 ; 1.1610754574550335E10 ; 0.0
67 ; 1.8471636194300126E7 ; 2.0065115962308177E8 ; 1.1964663287185922E9 ; 1.1811400489579313E10 ; 0.0
68 ; 1.846845719264149E7 ; 2.0065641014276385E8 ; 1.2149379649128923E9 ; 1.2012051649202394E10 ; 0.0
69 ; 1.8472980179008875E7 ; 2.006616659388154E8 ; 1.2334064221055338E9 ; 1.2212708059345158E10 ; 0.0
70 ; 1.8475398308243275E7 ; 2.006669263928587E8 ; 1.2518794022845428E9 ; 1.2413369725283974E10 ; 0.0
71 ; 1.8476256709524907E7 ; 2.0067219091528314E8 ; 1.270354800592786E9 ; 1.2614036651676832E10 ; 0.0
72 ; 1.8476394080519076E7 ; 2.0067745894333807E8 ; 1.288831057302311E9 ; 1.2814708842592115E10 ; 0.0
73 ; 1.8480701682139374E7 ; 2.0068272993937108E8 ; 1.30730745138283E9 ; 1.3015386301535454E10 ; 0.0
74 ; 1.848349083535062E7 ; 2.0068800338919863E8 ; 1.3257881530649693E9 ; 1.3216069031474825E10 ; 0.0
75 ; 1.847952363130387E7 ; 2.0069327880059856E8 ; 1.3442716439003198E9 ; 1.3416757034864023E10 ; 0.0
76 ; 1.848026587746835E7 ; 2.00698555701914E8 ; 1.3627511675316236E9 ; 1.3617450313664621E10 ; 0.0
77 ; 1.8483716190396275E7 ; 2.0070383364076015E8 ; 1.381231433409092E9 ; 1.3818148869366535E10 ; 0.0
78 ; 1.847760254589231E7 ; 2.0070911218282494E8 ; 1.3997151495994883E9 ; 1.4018852703007296E10 ; 0.0
79 ; 1.8469285430343702E7 ; 2.007143909107565E8 ; 1.4181927521453805E9 ; 1.421956181519012E10 ; 0.0
80 ; 1.846592359936295E7 ; 2.0071966942313024E8 ; 1.4366620375757241E9 ; 1.4420276206100878E10 ; 0.0
81 ; 1.8465023238357045E7 ; 2.0072494733348915E8 ; 1.455127961175087E9 ; 1.4620995875524008E10 ; 0.0
82 ; 1.8458897210778445E7 ; 2.007302242694516E8 ; 1.473592984413444E9 ; 1.4821720822857496E10 ; 0.0
83 ; 1.8449779649926938E7 ; 2.0073549987188157E8 ; 1.4920518816242225E9 ; 1.5022451047126947E10 ; 0.0
84 ; 1.844029187937335E7 ; 2.0074077379411602E8 ; 1.5105016612741494E9 ; 1.5223186546998829E10 ; 0.0
85 ; 1.8439155375320643E7 ; 2.0074604570124534E8 ; 1.5289419531535227E9 ; 1.5423927320792946E10 ; 0.0
86 ; 1.8430267571878925E7 ; 2.0075131526944256E8 ; 1.5473811085288434E9 ; 1.5624673366494192E10 ; 0.0
87 ; 1.8429936687671058E7 ; 2.0075658218533793E8 ; 1.5658113761007223E9 ; 1.5825424681763634E10 ; 0.0
88 ; 1.842122180326923E7 ; 2.0076184614543507E8 ; 1.5842413127883933E9 ; 1.602618126394897E10 ; 0.0
89 ; 1.8411680494025614E7 ; 2.0076710685556582E8 ; 1.6026625345916624E9 ; 1.6226943110094406E10 ; 0.0
90 ; 1.8407572684161916E7 ; 2.0077236403038085E8 ; 1.621074215085688E9 ; 1.6427710216949972E10 ; 0.0
91 ; 1.840210328316447E7 ; 2.0077761739287356E8 ; 1.63948178776985E9 ; 1.6628482580980352E10 ; 0.0
92 ; 1.8392870876694903E7 ; 2.0078286667393425E8 ; 1.6578838910530145E9 ; 1.6829260198373226E10 ; 0.0
93 ; 1.8384922972521335E7 ; 2.0078811161193338E8 ; 1.6762767619297094E9 ; 1.7030043065047161E10 ; 0.0
94 ; 1.837994779350644E7 ; 2.0079335195233074E8 ; 1.6946616849022307E9 ; 1.7230831176659096E10 ; 0.0
95 ; 1.8371482578790385E7 ; 2.0079858744730943E8 ; 1.7130416326957371E9 ; 1.7431624528611427E10 ; 0.0
96 ; 1.835871272574229E7 ; 2.008038178554326E8 ; 1.7314131152745275E9 ; 1.7632423116058735E10 ; 0.0
97 ; 1.8352839196701646E7 ; 2.008090429413214E8 ; 1.74977182800027E9 ; 1.783322693391417E10 ; 0.0
98 ; 1.8342270855837096E7 ; 2.0081426247535276E8 ; 1.7681246671969714E9 ; 1.803403597685549E10 ; 0.0
99 ; 1.8336316721573405E7 ; 2.0081947623337528E8 ; 1.7864669380528085E9 ; 1.8234850239330845E10 ; 0.0
100 ; 1.8329624482286688E7 ; 2.0082468399644244E8 ; 1.8048032547743819E9 ; 1.843566971556422E10 ; 0.0
101 ; 1.831841355521933E7 ; 2.0082988555056185E8 ; 1.8231328792566686E9 ; 1.863649439956066E10 ; 0.0
102 ; 1.830932276772065E7 ; 2.0083508068645906E8 ; 1.841451292811888E9 ; 1.883732428511122E10 ; 0.0
103 ; 1.8297145970617734E7 ; 2.0084026919935563E8 ; 1.8597606155796087E9 ; 1.903815936579768E10 ; 0.0
104 ; 1.828788240223355E7 ; 2.008454508887598E8 ; 1.8780577615502264E9 ; 1.9238999634997036E10 ; 0.0
105 ; 1.8284242540649083E7 ; 2.008506255582695E8 ; 1.89634564395246E9 ; 1.9439845085885796E10 ; 0.0
106 ; 1.8267614208578896E7 ; 2.0085579301538655E8 ; 1.9146298864931092E9 ; 1.9640695711444065E10 ; 0.0
107 ; 1.8260885852336958E7 ; 2.008609530713417E8 ; 1.932897500701688E9 ; 1.984155150445945E10 ; 0.0
108 ; 1.8249279359570056E7 ; 2.0086610554092902E8 ; 1.951158386554025E9 ; 2.0042412457530792E10 ; 0.0
109 ; 1.824575374598989E7 ; 2.008712502423503E8 ; 1.969407665913595E9 ; 2.024327856307172E10 ; 0.0
110 ; 1.823221355160419E7 ; 2.008763869970675E8 ; 1.9876534196595848E9 ; 2.044414981331407E10 ; 0.0
111 ; 1.8219328881616108E7 ; 2.0088151562966368E8 ; 2.005885633211189E9 ; 2.064502620031114E10 ; 0.0
112 ; 1.8211460821059003E7 ; 2.008866359677114E8 ; 2.0241049620928051E9 ; 2.0845907715940804E10 ; 0.0
113 ; 1.8195406287805177E7 ; 2.0089174784164846E8 ; 2.0423164229138641E9 ; 2.1046794351908516E10 ; 0.0
114 ; 1.8189428614258002E7 ; 2.0089685108466023E8 ; 2.0605118292016692E9 ; 2.1247686099750164E10 ; 0.0
115 ; 1.817353880889209E7 ; 2.0090194553256825E8 ; 2.0787012578159273E9 ; 2.1448582950834824E10 ; 0.0
116 ; 1.816496044022862E7 ; 2.009070310237249E8 ; 2.0968747966248193E9 ; 2.1649484896367393E10 ; 0.0
117 ; 1.8149405654704876E7 ; 2.009121073989136E8 ; 2.115039757065048E9 ; 2.1850391927391117E10 ; 0.0
118 ; 1.814202932731009E7 ; 2.0091717450125408E8 ; 2.1331891627197528E9 ; 2.205130403479003E10 ; 0.0
119 ; 1.8128351772072088E7 ; 2.0092223217611298E8 ; 2.151331192047063E9 ; 2.2252221209291286E10 ; 0.0
120 ; 1.8117178208203495E7 ; 2.009272802710186E8 ; 2.169459543819135E9 ; 2.24531434414674E10 ; 0.0
121 ; 1.8107568226750292E7 ; 2.0093231863558045E8 ; 2.1875767220273385E9 ; 2.265407072173842E10 ; 0.0
122 ; 1.808883460744936E7 ; 2.0093734712141266E8 ; 2.205684290254089E9 ; 2.2855003040374E10 ; 0.0
123 ; 1.8078539518354904E7 ; 2.009423655820615E8 ; 2.2237731248615384E9 ; 2.3055940387495415E10 ; 0.0
124 ; 1.8064208234905876E7 ; 2.0094737387293616E8 ; 2.2418516643798933E9 ; 2.3256882753077477E10 ; 0.0
125 ; 1.8048920080823753E7 ; 2.0095237185124353E8 ; 2.259915872614799E9 ; 2.3457830126950413E10 ; 0.0
126 ; 1.8038812675864648E7 ; 2.0095735937592587E8 ; 2.277964792695623E9 ; 2.3658782498801655E10 ; 0.0
127 ; 1.8027860567225162E7 ; 2.009623363076016E8 ; 2.2960036053714876E9 ; 2.385973985817758E10 ; 0.0
128 ; 1.800820206726737E7 ; 2.0096730250850916E8 ; 2.3140314659387126E9 ; 2.4060702194485184E10 ; 0.0
129 ; 1.799693549026217E7 ; 2.0097225784245348E8 ; 2.33203966800598E9 ; 2.4261669496993694E10 ; 0.0
130 ; 1.7979312830397516E7 ; 2.0097720217475516E8 ; 2.350036603496242E9 ; 2.4462641754836147E10 ; 0.0
131 ; 1.7958271001196817E7 ; 2.0098213537220195E8 ; 2.3680159163266397E9 ; 2.4663618957010902E10 ; 0.0
132 ; 1.7936970485058695E7 ; 2.0098705730300266E8 ; 2.3859741873278365E9 ; 2.4864601092383106E10 ; 0.0
133 ; 1.7918689801524144E7 ; 2.0099196783674344E8 ; 2.4039111578128953E9 ; 2.5065588149686108E10 ; 0.0
134 ; 1.7898626516156573E7 ; 2.0099686684434578E8 ; 2.4218298476144195E9 ; 2.526658011752285E10 ; 0.0
135 ; 1.7880946607363876E7 ; 2.0100175419802678E8 ; 2.439728474130576E9 ; 2.5467576984367195E10 ; 0.0
136 ; 1.7858221597474128E7 ; 2.0100662977126122E8 ; 2.45760942073794E9 ; 2.5668578738565224E10 ; 0.0
137 ; 1.7839305027705643E7 ; 2.010114934387453E8 ; 2.475467642335414E9 ; 2.5869585368336487E10 ; 0.0
138 ; 1.7815511059969857E7 ; 2.0101634507636228E8 ; 2.4933069473631196E9 ; 2.607059686177523E10 ; 0.0
139 ; 1.7794708921923377E7 ; 2.010211845611495E8 ; 2.5111224584230895E9 ; 2.6271613206851593E10 ; 0.0
140 ; 1.777613668340467E7 ; 2.0102601177126703E8 ; 2.5289171673450127E9 ; 2.6472634391412743E10 ; 0.0
141 ; 1.7754259892357435E7 ; 2.0103082658596766E8 ; 2.546693304028417E9 ; 2.667366040318401E10 ; 0.0
142 ; 1.7732301097666647E7 ; 2.0103562888556856E8 ; 2.5644475639207745E9 ; 2.6874691229769978E10 ; 0.0
143 ; 1.7706435232315283E7 ; 2.0104041855142373E8 ; 2.582179865018441E9 ; 2.7075726858655544E10 ; 0.0
144 ; 1.769219801345297E7 ; 2.0104519546589825E8 ; 2.5998863002507563E9 ; 2.7276767277206966E10 ; 0.0
145 ; 1.7676310519218504E7 ; 2.0104995951234314E8 ; 2.6175784982642093E9 ; 2.7477812472672863E10 ; 0.0
146 ; 1.7657294949427653E7 ; 2.010547105750719E8 ; 2.6352548087834277E9 ; 2.7678862432185207E10 ; 0.0
147 ; 1.764280448493716E7 ; 2.0105944853933764E8 ; 2.6529121037328553E9 ; 2.787991714276028E10 ; 0.0
148 ; 1.7627624707392827E7 ; 2.010641732913114E8 ; 2.6705549082177925E9 ; 2.8080976591299618E10 ; 0.0
149 ; 1.7614217398937564E7 ; 2.0106888471806172E8 ; 2.688182532925185E9 ; 2.828204076459093E10 ; 0.0
150 ; 1.7595582606216826E7 ; 2.0107358270753443E8 ; 2.705796750324123E9 ; 2.8483109649308994E10 ; 0.0
151 ; 1.7579848718327556E7 ; 2.0107826714853412E8 ; 2.72339233293034E9 ; 2.868418323201653E10 ; 0.0
152 ; 1.7565893045257002E7 ; 2.0108293793070582E8 ; 2.7409721816486673E9 ; 2.8885261499165062E10 ; 0.0
153 ; 1.7551720441969227E7 ; 2.0108759494451776E8 ; 2.7585380746939244E9 ; 2.9086344437095768E10 ; 0.0
154 ; 1.753494408266856E7 ; 2.0109223808124495E8 ; 2.776089795135894E9 ; 2.9287432032040287E10 ; 0.0
155 ; 1.752108547732231E7 ; 2.010968672329532E8 ; 2.7936247392185626E9 ; 2.9488524270121532E10 ; 0.0
156 ; 1.750271142753518E7 ; 2.0110148229248402E8 ; 2.8111458246958847E9 ; 2.9689621137354485E10 ; 0.0
157 ; 1.7483829416852985E7 ; 2.0110608315344027E8 ; 2.82864853612342E9 ; 2.989072261964697E10 ; 0.0
158 ; 1.7473208590850558E7 ; 2.0111066971017224E8 ; 2.8461323655402727E9 ; 3.0091828702800407E10 ; 0.0
159 ; 1.745321752933323E7 ; 2.0111524185776424E8 ; 2.863605574131123E9 ; 3.029293937251058E10 ; 0.0
160 ; 1.744245638882401E7 ; 2.0111979949202225E8 ; 2.881058791660456E9 ; 3.0494054614368343E10 ; 0.0
161 ; 1.7422159356387522E7 ; 2.011243425094615E8 ; 2.89850124804928E9 ; 3.0695174413860367E10 ; 0.0
162 ; 1.7404786344098024E7 ; 2.011288708072949E8 ; 2.915923407405668E9 ; 3.0896298756369827E10 ; 0.0
163 ; 1.738814410975082E7 ; 2.0113338428342208E8 ; 2.933328193749766E9 ; 3.1097427627177124E10 ; 0.0
164 ; 1.7375809256634206E7 ; 2.0113788283641857E8 ; 2.9507163378595166E9 ; 3.1298561011460545E10 ; 0.0
165 ; 1.7358168779444046E7 ; 2.0114236636552572E8 ; 2.968092147116151E9 ; 3.1499698894296963E10 ; 0.0
166 ; 1.7340387531063274E7 ; 2.0114683477064085E8 ; 2.985450315895595E9 ; 3.1700841260662487E10 ; 0.0
167 ; 1.7324520015259255E7 ; 2.0115128795230797E8 ; 3.002790703426658E9 ; 3.190198809543313E10 ; 0.0
168 ; 1.7309179899870202E7 ; 2.0115572581170893E8 ; 3.0201152234419174E9 ; 3.2103139383385437E10 ; 0.0
169 ; 1.7288158022856645E7 ; 2.0116014825065458E8 ; 3.037424403341788E9 ; 3.2304295109197147E10 ; 0.0
170 ; 1.7277536331505243E7 ; 2.0116455517157692E8 ; 3.0547125613646445E9 ; 3.2505455257447803E10 ; 0.0
171 ; 1.725346185717593E7 ; 2.01168946477521E8 ; 3.07199009769615E9 ; 3.270661981261938E10 ; 0.0
172 ; 1.7241816957083736E7 ; 2.0117332207213748E8 ; 3.0892435595533257E9 ; 3.29077887590969E10 ; 0.0
173 ; 1.7224798418860547E7 ; 2.0117768185967544E8 ; 3.1064853765104094E9 ; 3.3108962081169037E10 ; 0.0
174 ; 1.7214966765665215E7 ; 2.011820257449756E8 ; 3.12371017492927E9 ; 3.3310139763028713E10 ; 0.0
175 ; 1.720838906857677E7 ; 2.0118635363346344E8 ; 3.140925141694935E9 ; 3.351132178877369E10 ; 0.0
176 ; 1.719447395614809E7 ; 2.0119066543114325E8 ; 3.1581335307635117E9 ; 3.3712508142407154E10 ; 0.0
177 ; 1.717984023061368E7 ; 2.0119496104459175E8 ; 3.17532800471966E9 ; 3.39136988078383E10 ; 0.0
178 ; 1.7171879588173267E7 ; 2.0119924038095257E8 ; 3.1925078449502735E9 ; 3.411489376888289E10 ; 0.0
179 ; 1.716602128780262E7 ; 2.0120350334793052E8 ; 3.209679724538447E9 ; 3.431609300926384E10 ; 0.0
180 ; 1.715025521633259E7 ; 2.0120774985378644E8 ; 3.2268457458262496E9 ; 3.451729651261177E10 ; 0.0
181 ; 1.7142192447625525E7 ; 2.01211979807332E8 ; 3.243996001042582E9 ; 3.471850426246555E10 ; 0.0
182 ; 1.7132974648667265E7 ; 2.0121619311792496E8 ; 3.2611381934902077E9 ; 3.491971624227289E10 ; 0.0
183 ; 1.7123983146556634E7 ; 2.012203896954644E8 ; 3.278271168138875E9 ; 3.5120932435390816E10 ; 0.0
184 ; 1.710676674651724E7 ; 2.0122456945038646E8 ; 3.295395151285432E9 ; 3.532215282508628E10 ; 0.0
185 ; 1.710274714732023E7 ; 2.012287322936599E8 ; 3.312501918031949E9 ; 3.552337739453667E10 ; 0.0
186 ; 1.7087934845959015E7 ; 2.0123287813678214E8 ; 3.3296046651792693E9 ; 3.572460612683033E10 ; 0.0
187 ; 1.70758608187961E7 ; 2.012370068917754E8 ; 3.3466926000252285E9 ; 3.592583900496711E10 ; 0.0
188 ; 1.706713627788515E7 ; 2.0124111847118294E8 ; 3.3637684608440247E9 ; 3.612707601185889E10 ; 0.0
189 ; 1.705798444796586E7 ; 2.012452127880655E8 ; 3.3808355971219096E9 ; 3.632831713033007E10 ; 0.0
190 ; 1.7048387596342284E7 ; 2.0124928975599796E8 ; 3.3978935815698757E9 ; 3.652956234311813E10 ; 0.0
191 ; 1.7036644066670876E7 ; 2.0125334928906605E8 ; 3.414941969166218E9 ; 3.673081163287413E10 ; 0.0
192 ; 1.7027870182249803E7 ; 2.0125739130186334E8 ; 3.4319786132328887E9 ; 3.693206498216319E10 ; 0.0
193 ; 1.701594221342183E7 ; 2.012614157094882E8 ; 3.4490064834151387E9 ; 3.713332237346506E10 ; 0.0
194 ; 1.7008919161331426E7 ; 2.0126542242754102E8 ; 3.4660224256285605E9 ; 3.7334583789174545E10 ; 0.0
195 ; 1.7000465668094464E7 ; 2.0126941137212154E8 ; 3.483031344789892E9 ; 3.753584921160209E10 ; 0.0
