CSV File for the City 6 on Day 60
1 - Minute m 
2 - Power Consumed at minute m 
3 - Power Produced at minute m 
4 - Energy Consumed since the beginning of the day 
5 - Energy Produced since the beginning of the day 
6 - Energy Lost since the beginning of the day on lines starting from the city
 
0 ; 1.1122455599430637E7 ; 1.0586516482910666E8 ; 0.0 ; 0.0 ; 0.0
1 ; 1.1134699497884616E7 ; 1.0601578684759957E8 ; 1.1122455599430637E7 ; 1.0586516482910666E8 ; 0.0
2 ; 1.1146604129039686E7 ; 1.0647542280020615E8 ; 2.225715509731525E7 ; 2.1188095167670622E8 ; 0.0
3 ; 1.1163358528190672E7 ; 1.0724407829264349E8 ; 3.3403759226354938E7 ; 3.183563744769124E8 ; 0.0
4 ; 1.117790919065906E7 ; 1.0832175838365018E8 ; 4.4567117754545614E7 ; 4.2560045276955587E8 ; 0.0
5 ; 1.1196905348751366E7 ; 1.0970846754538035E8 ; 5.5745026945204675E7 ; 5.3392221115320605E8 ; 0.0
6 ; 1.1223587078645324E7 ; 1.1140420962741259E8 ; 6.694193229395604E7 ; 6.436306786985865E8 ; 0.0
7 ; 1.125694498869058E7 ; 1.1340898782502973E8 ; 7.816551937260136E7 ; 7.55034888325999E8 ; 0.0
8 ; 1.131491066048643E7 ; 1.157228046523667E8 ; 8.942246436129194E7 ; 8.684438761510288E8 ; 0.0
9 ; 1.139196500370463E7 ; 1.1834566192094743E8 ; 1.0073737502177837E8 ; 9.841666808033955E8 ; 0.0
10 ; 1.1517628064381532E7 ; 1.2127756072403651E8 ; 1.1212934002548301E8 ; 1.1025123427243428E9 ; 0.0
11 ; 1.1712240494124316E7 ; 1.245185014271203E8 ; 1.2364696808986455E8 ; 1.2237899034483793E9 ; 0.0
12 ; 1.2031260131064458E7 ; 1.280684836647124E8 ; 1.3535920858398888E8 ; 1.3483084048754995E9 ; 0.0
13 ; 1.2336803026014065E7 ; 1.3192750634354824E8 ; 1.4739046871505332E8 ; 1.476376888540212E9 ; 0.0
14 ; 1.2369294575805105E7 ; 1.3609556765210396E8 ; 1.5972727174106738E8 ; 1.6083043948837602E9 ; 0.0
15 ; 1.2385545389748508E7 ; 1.4057266507624453E8 ; 1.7209656631687248E8 ; 1.744399962535864E9 ; 0.0
16 ; 1.2401155422345923E7 ; 1.4535879542068723E8 ; 1.84482111706621E8 ; 1.8849726276121087E9 ; 0.0
17 ; 1.2412780831241352E7 ; 1.5045395483585337E8 ; 1.9688326712896693E8 ; 2.030331423032796E9 ; 0.0
18 ; 1.2427162217821663E7 ; 1.5585813884958887E8 ; 2.0929604796020827E8 ; 2.1807853778686495E9 ; 0.0
19 ; 1.2439960733822662E7 ; 1.6157134240315512E8 ; 2.2172321017802992E8 ; 2.3366435167182384E9 ; 0.0
20 ; 1.2454827957897875E7 ; 1.6759355989083502E8 ; 2.341631709118526E8 ; 2.4982148591213937E9 ; 0.0
21 ; 1.2470854384282103E7 ; 1.7392478520246086E8 ; 2.4661799886975047E8 ; 2.6658084190122285E9 ; 0.0
22 ; 1.2484138074333433E7 ; 1.8056501176815635E8 ; 2.5908885325403258E8 ; 2.8397332042146893E9 ; 0.0
23 ; 1.2499246934156457E7 ; 1.875142326045856E8 ; 2.7157299132836604E8 ; 3.020298215982846E9 ; 0.0
24 ; 1.2512897303819917E7 ; 1.9477244036202443E8 ; 2.840722382625225E8 ; 3.2078124485874314E9 ; 0.0
25 ; 1.25284713418812E7 ; 2.010276682697897E8 ; 2.965851355663424E8 ; 3.4025848889494557E9 ; 0.0
26 ; 1.253812686087994E7 ; 2.0103345621995524E8 ; 3.091136069082236E8 ; 3.6036125572192454E9 ; 0.0
27 ; 1.2557715822838588E7 ; 2.0103956533811063E8 ; 3.216517337691036E8 ; 3.804646013439201E9 ; 0.0
28 ; 1.2565711574316388E7 ; 2.0104598727455062E8 ; 3.342094495919422E8 ; 4.0056855787773113E9 ; 0.0
29 ; 1.2581418263738023E7 ; 2.0105271354009604E8 ; 3.467751611662586E8 ; 4.206731566051862E9 ; 0.0
30 ; 1.2597294921433978E7 ; 2.010597355464968E8 ; 3.593565794299966E8 ; 4.407784279591958E9 ; 0.0
31 ; 1.2605727126330135E7 ; 2.010670446444018E8 ; 3.719538743514306E8 ; 4.608844015138454E9 ; 0.0
32 ; 1.2622852238561567E7 ; 2.010746321587034E8 ; 3.8455960147776073E8 ; 4.809911059782856E9 ; 0.0
33 ; 1.2635784552523749E7 ; 2.0108248942112806E8 ; 3.971824537163223E8 ; 5.01098569194156E9 ; 0.0
34 ; 1.2645474698961305E7 ; 2.0109060780000216E8 ; 4.0981823826884604E8 ; 5.212068181362688E9 ; 0.0
35 ; 1.2657413399761487E7 ; 2.010989787271744E8 ; 4.2246371296780735E8 ; 5.41315878916269E9 ; 0.0
36 ; 1.2667257303363949E7 ; 2.011075937221208E8 ; 4.3512112636756885E8 ; 5.614257767889865E9 ; 0.0
37 ; 1.2680129618839754E7 ; 2.0111644441329655E8 ; 4.4778838367093277E8 ; 5.815365361611986E9 ; 0.0
38 ; 1.2688543963805111E7 ; 2.0112552255682975E8 ; 4.604685132897725E8 ; 6.016481806025283E9 ; 0.0
39 ; 1.2697470689822443E7 ; 2.0113482005267793E8 ; 4.7315705725357765E8 ; 6.217607328582112E9 ; 0.0
40 ; 1.2707560166775811E7 ; 2.011443289583859E8 ; 4.858545279434001E8 ; 6.41874214863479E9 ; 0.0
41 ; 1.2716855041120961E7 ; 2.0115404150059777E8 ; 4.985620881101759E8 ; 6.619886477593176E9 ; 0.0
42 ; 1.272709479527515E7 ; 2.011639500844842E8 ; 5.1127894315129685E8 ; 6.821040519093774E9 ; 0.0
43 ; 1.2736978830373717E7 ; 2.0117404730125025E8 ; 5.24006037946572E8 ; 7.022204469178258E9 ; 0.0
44 ; 1.2739566487123705E7 ; 2.011843259338907E8 ; 5.367430167769457E8 ; 7.223378516479508E9 ; 0.0
45 ; 1.274786198079581E7 ; 2.011947789613567E8 ; 5.494825832640694E8 ; 7.424562842413399E9 ; 0.0
46 ; 1.275621534746921E7 ; 2.012053995612941E8 ; 5.622304452448653E8 ; 7.625757621374756E9 ; 0.0
47 ; 1.2760482665872468E7 ; 2.012161811115072E8 ; 5.749866605923345E8 ; 7.82696302093605E9 ; 0.0
48 ; 1.2763013731086925E7 ; 2.012271171902939E8 ; 5.87747143258207E8 ; 8.028179202047558E9 ; 0.0
49 ; 1.276889908062933E7 ; 2.0123820157578996E8 ; 6.005101569892939E8 ; 8.229406319237852E9 ; 0.0
50 ; 1.2774554485435287E7 ; 2.012494282444507E8 ; 6.132790560699233E8 ; 8.4306445208136425E9 ; 0.0
51 ; 1.2776290304962274E7 ; 2.0126079136878884E8 ; 6.260536105553585E8 ; 8.631893949058094E9 ; 0.0
52 ; 1.27811273549566E7 ; 2.0127228531447783E8 ; 6.388299008603208E8 ; 8.833154740426884E9 ; 0.0
53 ; 1.2786022785613853E7 ; 2.0128390463692003E8 ; 6.516110282152774E8 ; 9.034427025741362E9 ; 0.0
54 ; 1.2785782528864851E7 ; 2.012956440773702E8 ; 6.643970510008913E8 ; 9.235710930378283E9 ; 0.0
55 ; 1.279242008841835E7 ; 2.013074985586957E8 ; 6.771828335297562E8 ; 9.437006574455652E9 ; 0.0
56 ; 1.279452359077301E7 ; 2.0131946318084627E8 ; 6.899752536181746E8 ; 9.638314073014347E9 ; 0.0
57 ; 1.2795878724488353E7 ; 2.013315332160979E8 ; 7.027697772089475E8 ; 9.839633536195194E9 ; 0.0
58 ; 1.2800364324947141E7 ; 2.0134370410412884E8 ; 7.155656559334359E8 ; 1.0040965069411293E10 ; 0.0
59 ; 1.2802651944438096E7 ; 2.013559714469779E8 ; 7.28366020258383E8 ; 1.0242308773515423E10 ; 0.0
60 ; 1.2804442214008937E7 ; 2.0136833100392917E8 ; 7.411686722028211E8 ; 1.04436647449624E10 ; 0.0
61 ; 1.2805218813983144E7 ; 2.013807786863614E8 ; 7.539731144168301E8 ; 1.064503307596633E10 ; 0.0
62 ; 1.2810879866892686E7 ; 2.0139331055259594E8 ; 7.667783332308133E8 ; 1.084641385465269E10 ; 0.0
63 ; 1.2813920552688066E7 ; 2.014059228027705E8 ; 7.79589213097706E8 ; 1.1047807165205286E10 ; 0.0
64 ; 1.2813174064764509E7 ; 2.0141861177376333E8 ; 7.924031336503941E8 ; 1.1249213088008057E10 ; 0.0
65 ; 1.2818391939956553E7 ; 2.014313739341883E8 ; 8.052163077151586E8 ; 1.145063169978182E10 ; 0.0
66 ; 1.2816927352777027E7 ; 2.014442058794772E8 ; 8.180346996551151E8 ; 1.165206307371601E10 ; 0.0
67 ; 1.2821104744209103E7 ; 2.0145710432706323E8 ; 8.308516270078921E8 ; 1.1853507279595486E10 ; 0.0
68 ; 1.2819464228210278E7 ; 2.0147006611167708E8 ; 8.436727317521012E8 ; 1.2054964383922548E10 ; 0.0
69 ; 1.2821633818670793E7 ; 2.0148308818076393E8 ; 8.564921959803115E8 ; 1.2256434450034225E10 ; 0.0
70 ; 1.282503186624635E7 ; 2.014961675900285E8 ; 8.693138297989823E8 ; 1.2457917538214989E10 ; 0.0
71 ; 1.2826406471416898E7 ; 2.01509301499113E8 ; 8.821388616652286E8 ; 1.2659413705805017E10 ; 0.0
72 ; 1.282663321771333E7 ; 2.0152248716741112E8 ; 8.949652681366456E8 ; 1.286092300730413E10 ; 0.0
73 ; 1.2824594975038717E7 ; 2.0153572195002067E8 ; 9.077919013543589E8 ; 1.3062445494471542E10 ; 0.0
74 ; 1.2829971865217311E7 ; 2.0154900329383525E8 ; 9.206164963293977E8 ; 1.3263981216421562E10 ; 0.0
75 ; 1.2831889806872852E7 ; 2.0156232873377544E8 ; 9.33446468194615E8 ; 1.3465530219715397E10 ; 0.0
76 ; 1.2829106181879636E7 ; 2.0157569588915813E8 ; 9.462783580014879E8 ; 1.3667092548449173E10 ; 0.0
77 ; 1.2829027610721702E7 ; 2.0158910246020317E8 ; 9.591074641833675E8 ; 1.3868668244338331E10 ; 0.0
78 ; 1.2826939986628946E7 ; 2.0160254622467437E8 ; 9.719364917940892E8 ; 1.4070257346798534E10 ; 0.0
79 ; 1.282163774817688E7 ; 2.0161602503465295E8 ; 9.847634317807181E8 ; 1.4271859893023209E10 ; 0.0
80 ; 1.2819781965634288E7 ; 2.0162953681344053E8 ; 9.97585069528895E8 ; 1.4473475918057861E10 ; 0.0
81 ; 1.2813898984707654E7 ; 2.0164307955258772E8 ; 1.0104048514945294E9 ; 1.4675105454871302E10 ; 0.0
82 ; 1.2812484979805313E7 ; 2.0165665130904567E8 ; 1.0232187504792371E9 ; 1.487674853442389E10 ; 0.0
83 ; 1.2808528712402403E7 ; 2.016702502024365E8 ; 1.0360312354590424E9 ; 1.5078405185732935E10 ; 0.0
84 ; 1.2800131964233104E7 ; 2.0168387441243884E8 ; 1.0488397641714449E9 ; 1.5280075435935371E10 ; 0.0
85 ; 1.2802112117061567E7 ; 2.0169752217628485E8 ; 1.061639896135678E9 ; 1.548175931034781E10 ; 0.0
86 ; 1.2798665712539015E7 ; 2.017111917863647E8 ; 1.0744420082527397E9 ; 1.5683456832524096E10 ; 0.0
87 ; 1.2788675067097457E7 ; 2.0172488158793464E8 ; 1.0872406739652786E9 ; 1.5885168024310461E10 ; 0.0
88 ; 1.2788382707725585E7 ; 2.0173858997692472E8 ; 1.100029349032376E9 ; 1.6086892905898396E10 ; 0.0
89 ; 1.2783359882148102E7 ; 2.0175231539784244E8 ; 1.1128177317401016E9 ; 1.628863149587532E10 ; 0.0
90 ; 1.2774799532466497E7 ; 2.0176605634176856E8 ; 1.1256010916222496E9 ; 1.6490383811273163E10 ; 0.0
91 ; 1.2774360825763863E7 ; 2.0177981134444112E8 ; 1.138375891154716E9 ; 1.6692149867614931E10 ; 0.0
92 ; 1.2769105347150715E7 ; 2.017935789844243E8 ; 1.15115025198048E9 ; 1.6893929678959372E10 ; 0.0
93 ; 1.2763668795073975E7 ; 2.0180735788135853E8 ; 1.1639193573276308E9 ; 1.7095723257943796E10 ; 0.0
94 ; 1.2757520801995076E7 ; 2.0182114669428816E8 ; 1.1766830261227047E9 ; 1.7297530615825153E10 ; 0.0
95 ; 1.275307360427371E7 ; 2.0183494412006363E8 ; 1.1894405469246998E9 ; 1.749935176251944E10 ; 0.0
96 ; 1.2745285012350667E7 ; 2.0184874889181486E8 ; 1.2021936205289736E9 ; 1.7701186706639503E10 ; 0.0
97 ; 1.2739998901414145E7 ; 2.018625597774925E8 ; 1.2149389055413241E9 ; 1.790303545553132E10 ; 0.0
98 ; 1.273201407581571E7 ; 2.018763755784744E8 ; 1.2276789044427383E9 ; 1.810489801530881E10 ; 0.0
99 ; 1.2727931851792194E7 ; 2.0189019512823406E8 ; 1.240410918518554E9 ; 1.8306774390887287E10 ; 0.0
100 ; 1.2721665104657045E7 ; 2.019040172910683E8 ; 1.253138850370346E9 ; 1.8508664586015522E10 ; 0.0
101 ; 1.271628417649842E7 ; 2.019178409608818E8 ; 1.265860515475003E9 ; 1.871056860330659E10 ; 0.0
102 ; 1.2708377245329631E7 ; 2.0193166506002554E8 ; 1.2785767996515014E9 ; 1.891248644426747E10 ; 0.0
103 ; 1.2703000385022825E7 ; 2.0194548853818673E8 ; 1.291285176896831E9 ; 1.9114418109327496E10 ; 0.0
104 ; 1.2697821187354304E7 ; 2.019593103713282E8 ; 1.303988177281854E9 ; 1.931636359786568E10 ; 0.0
105 ; 1.2688324776988938E7 ; 2.019731295606746E8 ; 1.3166859984692082E9 ; 1.9518322908237007E10 ; 0.0
106 ; 1.2684927007216804E7 ; 2.0198694513174325E8 ; 1.3293743232461972E9 ; 1.972029603779768E10 ; 0.0
107 ; 1.2675531217584573E7 ; 2.0200075613341802E8 ; 1.342059250253414E9 ; 1.9922282982929424E10 ; 0.0
108 ; 1.2670616930835743E7 ; 2.020145616370637E8 ; 1.3547347814709985E9 ; 2.0124283739062843E10 ; 0.0
109 ; 1.2663106277306447E7 ; 2.0202836073567933E8 ; 1.3674053984018342E9 ; 2.0326298300699905E10 ; 0.0
110 ; 1.2654418391986057E7 ; 2.0204215254308853E8 ; 1.3800685046791408E9 ; 2.0528326661435585E10 ; 0.0
111 ; 1.2653005578961847E7 ; 2.020559361931652E8 ; 1.392722923071127E9 ; 2.0730368813978672E10 ; 0.0
112 ; 1.2644460177885398E7 ; 2.0206971083909306E8 ; 1.4053759286500888E9 ; 2.0932424750171837E10 ; 0.0
113 ; 1.2633475975303233E7 ; 2.020834756526568E8 ; 1.418020388827974E9 ; 2.113449446101093E10 ; 0.0
114 ; 1.2626748398959877E7 ; 2.0209722982356465E8 ; 1.4306538648032773E9 ; 2.1336577936663586E10 ; 0.0
115 ; 1.261852688307831E7 ; 2.0211097255879954E8 ; 1.4432806132022371E9 ; 2.1538675166487152E10 ; 0.0
116 ; 1.2611524266684242E7 ; 2.0212470308199838E8 ; 1.4558991400853155E9 ; 2.174078613904595E10 ; 0.0
117 ; 1.2602530414298585E7 ; 2.02138420632858E8 ; 1.4685106643519998E9 ; 2.194291084212795E10 ; 0.0
118 ; 1.2597669320625687E7 ; 2.0215212446656626E8 ; 1.4811131947662983E9 ; 2.2145049262760807E10 ; 0.0
119 ; 1.2588776709102578E7 ; 2.0216581385325754E8 ; 1.493710864086924E9 ; 2.2347201387227375E10 ; 0.0
120 ; 1.2576650091434328E7 ; 2.0217948807749102E8 ; 1.5062996407960267E9 ; 2.254936720108063E10 ; 0.0
121 ; 1.2568884246775836E7 ; 2.021931464377515E8 ; 1.518876290887461E9 ; 2.2751546689158123E10 ; 0.0
122 ; 1.2561650265702493E7 ; 2.0220678824597064E8 ; 1.5314451751342368E9 ; 2.2953739835595875E10 ; 0.0
123 ; 1.2553610959914528E7 ; 2.0222041282706863E8 ; 1.5440068253999393E9 ; 2.3155946623841846E10 ; 0.0
124 ; 1.2546844072648114E7 ; 2.0223401951851493E8 ; 1.5565604363598537E9 ; 2.3358167036668915E10 ; 0.0
125 ; 1.253288768895418E7 ; 2.0224760766990718E8 ; 1.5691072804325018E9 ; 2.356040105618743E10 ; 0.0
126 ; 1.2526430512861812E7 ; 2.0226117664256772E8 ; 1.581640168121456E9 ; 2.3762648663857338E10 ; 0.0
127 ; 1.2514962541655699E7 ; 2.0227472580915657E8 ; 1.5941665986343176E9 ; 2.3964909840499905E10 ; 0.0
128 ; 1.2507521710224649E7 ; 2.022882545533005E8 ; 1.6066815611759734E9 ; 2.4167184566309063E10 ; 0.0
129 ; 1.2495805977871044E7 ; 2.023017622692372E8 ; 1.619189082886198E9 ; 2.4369472820862362E10 ; 0.0
130 ; 1.2483147364355862E7 ; 2.0231524836147392E8 ; 1.631684888864069E9 ; 2.45717745831316E10 ; 0.0
131 ; 1.2468812330178551E7 ; 2.0232871224446014E8 ; 1.6441680362284248E9 ; 2.4774089831493073E10 ; 0.0
132 ; 1.2456268774594853E7 ; 2.0234215334227327E8 ; 1.6566368485586033E9 ; 2.4976418543737534E10 ; 0.0
133 ; 1.2444985296339132E7 ; 2.023555710883172E8 ; 1.669093117333198E9 ; 2.5178760697079807E10 ; 0.0
134 ; 1.243045387475598E7 ; 2.0236896492503276E8 ; 1.681538102629537E9 ; 2.5381116268168125E10 ; 0.0
135 ; 1.2415414535590036E7 ; 2.0238233430362016E8 ; 1.6939685565042932E9 ; 2.558348523309316E10 ; 0.0
136 ; 1.2403762264633236E7 ; 2.0239567868377182E8 ; 1.7063839710398831E9 ; 2.578586756739678E10 ; 0.0
137 ; 1.2387416795811055E7 ; 2.0240899753341642E8 ; 1.7187877333045163E9 ; 2.598826324608055E10 ; 0.0
138 ; 1.2374988492163207E7 ; 2.024222903284727E8 ; 1.7311751501003273E9 ; 2.6190672243613968E10 ; 0.0
139 ; 1.2356515597116526E7 ; 2.0243555655261317E8 ; 1.7435501385924904E9 ; 2.639309453394244E10 ; 0.0
140 ; 1.2343659831023317E7 ; 2.0244879569703674E8 ; 1.755906654189607E9 ; 2.6595530090495052E10 ; 0.0
141 ; 1.2328914315156436E7 ; 2.0246200726025078E8 ; 1.7682503140206301E9 ; 2.679797888619209E10 ; 0.0
142 ; 1.2315988964741105E7 ; 2.0247519074786097E8 ; 1.7805792283357866E9 ; 2.700044089345234E10 ; 0.0
143 ; 1.23009431517204E7 ; 2.0248834567236987E8 ; 1.7928952173005276E9 ; 2.72029160842002E10 ; 0.0
144 ; 1.2287967935714977E7 ; 2.025014715529829E8 ; 1.8051961604522479E9 ; 2.740540442987257E10 ; 0.0
145 ; 1.227728676709805E7 ; 2.02514567915422E8 ; 1.8174841283879628E9 ; 2.7607905901425552E10 ; 0.0
146 ; 1.2264474650063574E7 ; 2.0252763429174617E8 ; 1.8297614151550608E9 ; 2.7810420469340973E10 ; 0.0
147 ; 1.225230207995468E7 ; 2.0254067022017917E8 ; 1.8420258898051243E9 ; 2.801294810363272E10 ; 0.0
148 ; 1.2246362607767597E7 ; 2.025536752449434E8 ; 1.854278191885079E9 ; 2.82154887738529E10 ; 0.0
149 ; 1.2237163127949353E7 ; 2.0256664891610038E8 ; 1.8665245544928465E9 ; 2.8418042449097843E10 ; 0.0
150 ; 1.222134655589958E7 ; 2.02579590789397E8 ; 1.8787617176207957E9 ; 2.8620609098013943E10 ; 0.0
151 ; 1.2215100435202116E7 ; 2.0259250042611778E8 ; 1.8909830641766953E9 ; 2.882318868880334E10 ; 0.0
152 ; 1.2203898565903364E7 ; 2.0260537739294234E8 ; 1.9031981646118975E9 ; 2.9025781189229458E10 ; 0.0
153 ; 1.2189454019556247E7 ; 2.0261822126180848E8 ; 1.915402063177801E9 ; 2.92283865666224E10 ; 0.0
154 ; 1.2181959020327503E7 ; 2.0263103160978025E8 ; 1.9275915171973572E9 ; 2.943100478788421E10 ; 0.0
155 ; 1.2171272191745859E7 ; 2.0264380801892063E8 ; 1.9397734762176847E9 ; 2.9633635819493988E10 ; 0.0
156 ; 1.215765519317011E7 ; 2.0265655007616943E8 ; 1.9519447484094305E9 ; 2.983627962751291E10 ; 0.0
157 ; 1.2148314495709784E7 ; 2.0266925737322518E8 ; 1.9641024036026006E9 ; 3.0038936177589077E10 ; 0.0
158 ; 1.2136132504827505E7 ; 2.0268192950643155E8 ; 1.9762507180983105E9 ; 3.0241605434962303E10 ; 0.0
159 ; 1.212545079566571E7 ; 2.0269456607666793E8 ; 1.988386850603138E9 ; 3.0444287364468735E10 ; 0.0
160 ; 1.2114453292417316E7 ; 2.0270716668924394E8 ; 2.0005123013988037E9 ; 3.0646981930545403E10 ; 0.0
161 ; 1.2104839135306435E7 ; 2.0271973095379767E8 ; 2.012626754691221E9 ; 3.0849689097234646E10 ; 0.0
162 ; 1.2090156281627376E7 ; 2.0273225848419783E8 ; 2.0247315938265274E9 ; 3.1052408828188442E10 ; 0.0
163 ; 1.208441775925473E7 ; 2.027447488984491E8 ; 2.0368217501081548E9 ; 3.125514108667264E10 ; 0.0
164 ; 1.2068813982069371E7 ; 2.027572018186011E8 ; 2.0489061678674095E9 ; 3.145788583557109E10 ; 0.0
165 ; 1.2059392456920985E7 ; 2.0276961687066057E8 ; 2.0609749818494787E9 ; 3.166064303738969E10 ; 0.0
166 ; 1.2050993377017774E7 ; 2.0278199368450657E8 ; 2.0730343743063998E9 ; 3.186341265426035E10 ; 0.0
167 ; 1.203656446016148E7 ; 2.0279433189380875E8 ; 2.0850853676834176E9 ; 3.2066194647944855E10 ; 0.0
168 ; 1.2029930547123862E7 ; 2.0280663113594866E8 ; 2.097121932143579E9 ; 3.2268988979838665E10 ; 0.0
169 ; 1.201237153058496E7 ; 2.0281889105194345E8 ; 2.109151862690703E9 ; 3.2471795610974613E10 ; 0.0
170 ; 1.2002938090093968E7 ; 2.0283111128637278E8 ; 2.121164234221288E9 ; 3.2674614502026558E10 ; 0.0
171 ; 1.198838855804573E7 ; 2.0284329148730764E8 ; 2.1331671723113818E9 ; 3.287744561331293E10 ; 0.0
172 ; 1.1979221280812802E7 ; 2.0285543130624238E8 ; 2.1451555608694274E9 ; 3.308028890480024E10 ; 0.0
173 ; 1.1967285715219382E7 ; 2.0286753039802846E8 ; 2.1571347821502404E9 ; 3.3283144336106483E10 ; 0.0
174 ; 1.1961138390528403E7 ; 2.0287958842081094E8 ; 2.16910206786546E9 ; 3.3486011866504513E10 ; 0.0
175 ; 1.195105653989445E7 ; 2.0289160503596684E8 ; 2.181063206255988E9 ; 3.3688891454925323E10 ; 0.0
176 ; 1.1948987266601434E7 ; 2.0290357990804604E8 ; 2.1930142627958827E9 ; 3.389178305996129E10 ; 0.0
177 ; 1.1936945115417961E7 ; 2.0291551270471367E8 ; 2.2049632500624843E9 ; 3.4094686639869335E10 ; 0.0
178 ; 1.1932208393844446E7 ; 2.0292740309669504E8 ; 2.216900195177902E9 ; 3.4297602152574047E10 ; 0.0
179 ; 1.1928878337152028E7 ; 2.02939250757722E8 ; 2.228832403571747E9 ; 3.4500529555670746E10 ; 0.0
180 ; 1.1919498815776736E7 ; 2.0295105536448136E8 ; 2.240761281908899E9 ; 3.470346880642847E10 ; 0.0
181 ; 1.1912335883895952E7 ; 2.0296281659656507E8 ; 2.2526807807246757E9 ; 3.4906419861792946E10 ; 0.0
182 ; 1.1904095905354666E7 ; 2.0297453413642207E8 ; 2.2645931166085715E9 ; 3.510938267838951E10 ; 0.0
183 ; 1.189443034776311E7 ; 2.029862076693116E8 ; 2.276497212513926E9 ; 3.531235721252593E10 ; 0.0
184 ; 1.1888663100369908E7 ; 2.0299783688325843E8 ; 2.288391642861689E9 ; 3.5515343420195244E10 ; 0.0
185 ; 1.188136984484457E7 ; 2.0300942146900928E8 ; 2.300280305962059E9 ; 3.57183412570785E10 ; 0.0
186 ; 1.187503735215501E7 ; 2.030209611199908E8 ; 2.3121616758069034E9 ; 3.592135067854751E10 ; 0.0
187 ; 1.1866270768553061E7 ; 2.0303245553226915E8 ; 2.3240367131590586E9 ; 3.6124371639667496E10 ; 0.0
188 ; 1.1861394117125481E7 ; 2.0304390440451065E8 ; 2.335902983927612E9 ; 3.632740409519977E10 ; 0.0
189 ; 1.185881111046361E7 ; 2.030553074379439E8 ; 2.3477643780447373E9 ; 3.653044799960428E10 ; 0.0
190 ; 1.1850716220531596E7 ; 2.030666643363232E8 ; 2.359623189155201E9 ; 3.673350330704222E10 ; 0.0
191 ; 1.1838914911350558E7 ; 2.03077974805893E8 ; 2.3714739053757324E9 ; 3.693656997137855E10 ; 0.0
192 ; 1.1834364694262503E7 ; 2.0308923855535385E8 ; 2.383312820287083E9 ; 3.713964794618444E10 ; 0.0
193 ; 1.182468185800699E7 ; 2.0310045529582906E8 ; 2.3951471849813457E9 ; 3.734273718473979E10 ; 0.0
194 ; 1.1817682000390153E7 ; 2.0311162474083292E8 ; 2.4069718668393526E9 ; 3.754583764003562E10 ; 0.0
195 ; 1.1812701717899602E7 ; 2.0312274660623956E8 ; 2.4187895488397427E9 ; 3.774894926477645E10 ; 0.0
