CSV File for the City 2 on Day 224
1 - Minute m 
2 - Power Consumed at minute m 
3 - Power Produced at minute m 
4 - Energy Consumed since the beginning of the day 
5 - Energy Produced since the beginning of the day 
6 - Energy Lost since the beginning of the day on lines starting from the city
 
0 ; 131016.74335290396 ; 1.0518357660667315E8 ; 0.0 ; 0.0 ; 0.0
1 ; 133268.53475169142 ; 1.0533703360561812E8 ; 131016.74335290396 ; 1.0518357660667315E8 ; 0.0
2 ; 135978.5448576228 ; 1.0579919259655085E8 ; 264285.2781045954 ; 2.1052061021229127E8 ; 0.0
3 ; 137770.4883163375 ; 1.0657006094530058E8 ; 400263.8229622182 ; 3.163198028088421E8 ; 0.0
4 ; 141333.73162478124 ; 1.076496464803667E8 ; 538034.3112785557 ; 4.228898637541427E8 ; 0.0
5 ; 144745.0402124743 ; 1.0903795728337157E8 ; 679368.0429033369 ; 5.305395102345094E8 ; 0.0
6 ; 148473.7015498906 ; 1.1073500138094953E8 ; 824113.0831158112 ; 6.395774675178809E8 ; 0.0
7 ; 155807.96772373293 ; 1.127407863403449E8 ; 972586.7846657018 ; 7.503124688988304E8 ; 0.0
8 ; 165564.6562497119 ; 1.1505531879347873E8 ; 1128394.7523894347 ; 8.630532552391753E8 ; 0.0
9 ; 180400.54290467667 ; 1.1767860394101602E8 ; 1293959.4086391467 ; 9.78108574032654E8 ; 0.0
10 ; 200631.98585273462 ; 1.2061064511025733E8 ; 1474359.9515438234 ; 1.09578717797367E9 ; 0.0
11 ; 235054.48744643788 ; 1.2385144344718888E8 ; 1674991.937396558 ; 1.2163978230839274E9 ; 0.0
12 ; 289204.7272861608 ; 1.2740099780582443E8 ; 1910046.4248429958 ; 1.3402492665311162E9 ; 0.0
13 ; 342173.4157955559 ; 1.3125930485886341E8 ; 2199251.1521291565 ; 1.4676502643369408E9 ; 0.0
14 ; 348543.1770642799 ; 1.354263594056409E8 ; 2541424.5679247123 ; 1.598909569195804E9 ; 0.0
15 ; 350684.8428240763 ; 1.3990215481423575E8 ; 2889967.7449889923 ; 1.734335928601445E9 ; 0.0
16 ; 353360.61275207385 ; 1.4468668351740375E8 ; 3240652.5878130686 ; 1.8742380834156806E9 ; 0.0
17 ; 357447.00840199273 ; 1.4977993748851046E8 ; 3594013.2005651426 ; 2.0189247669330845E9 ; 0.0
18 ; 359311.8938494222 ; 1.5518190864593357E8 ; 3951460.2089671353 ; 2.168704704421595E9 ; 0.0
19 ; 362040.45398844575 ; 1.6089258916117367E8 ; 4310772.1028165575 ; 2.3238866130675287E9 ; 0.0
20 ; 365590.9492717615 ; 1.669119716684015E8 ; 4672812.556805003 ; 2.4847792022287025E9 ; 0.0
21 ; 368486.6397730319 ; 1.732400493875266E8 ; 5038403.506076765 ; 2.6516911738971043E9 ; 0.0
22 ; 370994.01309374213 ; 1.7987681617930245E8 ; 5406890.145849797 ; 2.824931223284631E9 ; 0.0
23 ; 373832.8704017581 ; 1.8682226655172276E8 ; 5777884.1589435395 ; 3.004808039463933E9 ; 0.0
24 ; 375568.29675426317 ; 1.9407639563452655E8 ; 6151717.029345297 ; 3.1916303060156555E9 ; 0.0
25 ; 379022.96370162064 ; 2.0032724003317592E8 ; 6527285.326099561 ; 3.3857067016501822E9 ; 0.0
26 ; 381133.7394684953 ; 2.0032834381235182E8 ; 6906308.289801181 ; 3.586033941683358E9 ; 0.0
27 ; 384381.11308561283 ; 2.0032947296467474E8 ; 7287442.029269677 ; 3.78636228549571E9 ; 0.0
28 ; 386978.401044349 ; 2.0033062460252884E8 ; 7671823.142355289 ; 3.986691758460385E9 ; 0.0
29 ; 390833.78682819824 ; 2.0033179619989824E8 ; 8058801.5433996385 ; 4.187022383062914E9 ; 0.0
30 ; 394191.2863119666 ; 2.0033298554564035E8 ; 8449635.330227837 ; 4.387354179262812E9 ; 0.0
31 ; 395706.8554248751 ; 2.0033419070183864E8 ; 8843826.616539804 ; 4.587687164808452E9 ; 0.0
32 ; 398347.656359039 ; 2.003354099671815E8 ; 9239533.47196468 ; 4.78802135551029E9 ; 0.0
33 ; 402090.473966409 ; 2.0033664184505966E8 ; 9637881.128323719 ; 4.988356765477471E9 ; 0.0
34 ; 403593.90628365043 ; 2.0033788501595116E8 ; 1.0039971602290127E7 ; 5.188693407322531E9 ; 0.0
35 ; 405834.14633042866 ; 2.0033913831361845E8 ; 1.0443565508573778E7 ; 5.389031292338482E9 ; 0.0
36 ; 407764.07059751864 ; 2.0034040070464522E8 ; 1.0849399654904207E7 ; 5.589370430652101E9 ; 0.0
37 ; 410182.60341581504 ; 2.003416712708693E8 ; 1.1257163725501725E7 ; 5.789710831356746E9 ; 0.0
38 ; 412128.69237886835 ; 2.0034294919430944E8 ; 1.166734632891754E7 ; 5.990052502627615E9 ; 0.0
39 ; 415098.8456831257 ; 2.003442337442296E8 ; 1.2079475021296408E7 ; 6.190395451821924E9 ; 0.0
40 ; 416884.02607366804 ; 2.0034552426602972E8 ; 1.2494573866979534E7 ; 6.390739685566154E9 ; 0.0
41 ; 420203.00937003054 ; 2.0034682017169443E8 ; 1.2911457893053202E7 ; 6.591085209832183E9 ; 0.0
42 ; 421730.36561916425 ; 2.0034812093156946E8 ; 1.3331660902423233E7 ; 6.791432030003878E9 ; 0.0
43 ; 422834.9218222789 ; 2.0034942606726953E8 ; 1.3753391268042397E7 ; 6.991780150935447E9 ; 0.0
44 ; 425277.8745700529 ; 2.0035073514555064E8 ; 1.4176226189864676E7 ; 7.192129577002716E9 ; 0.0
45 ; 426221.64041020855 ; 2.003520477730056E8 ; 1.460150406443473E7 ; 7.392480312148267E9 ; 0.0
46 ; 428660.75496613875 ; 2.0035336359146246E8 ; 1.5027725704844939E7 ; 7.592832359921272E9 ; 0.0
47 ; 430207.2139957498 ; 2.0035468227398458E8 ; 1.5456386459811077E7 ; 7.793185723512734E9 ; 0.0
48 ; 431875.13104361104 ; 2.00356003521386E8 ; 1.5886593673806826E7 ; 7.993540405786719E9 ; 0.0
49 ; 432539.1653485226 ; 2.0035732705918935E8 ; 1.6318468804850437E7 ; 8.193896409308105E9 ; 0.0
50 ; 433868.36255317274 ; 2.003586526349643E8 ; 1.675100797019896E7 ; 8.394253736367295E9 ; 0.0
51 ; 436567.6071676526 ; 2.0035998001599368E8 ; 1.718487633275213E7 ; 8.59461238900226E9 ; 0.0
52 ; 436056.43340852705 ; 2.0036130898722333E8 ; 1.7621443939919785E7 ; 8.794972369018253E9 ; 0.0
53 ; 436841.45281631814 ; 2.00362639349456E8 ; 1.8057500373328313E7 ; 8.995333678005476E9 ; 0.0
54 ; 438322.5171314121 ; 2.0036397091775876E8 ; 1.8494341826144632E7 ; 9.195696317354933E9 ; 0.0
55 ; 439984.79764485185 ; 2.0036530352005383E8 ; 1.8932664343276042E7 ; 9.396060288272692E9 ; 0.0
56 ; 441864.21480344556 ; 2.0036663699587098E8 ; 1.9372649140920896E7 ; 9.596425591792746E9 ; 0.0
57 ; 442918.3294155477 ; 2.003679711952395E8 ; 1.9814513355724342E7 ; 9.796792228788616E9 ; 0.0
58 ; 443041.80677552643 ; 2.00369305977703E8 ; 2.025743168513989E7 ; 9.997160199983856E9 ; 0.0
59 ; 443346.7197346608 ; 2.0037064121144125E8 ; 2.0700473491915416E7 ; 1.019752950596156E10 ; 0.0
60 ; 446367.5953249692 ; 2.0037197677248636E8 ; 2.1143820211650077E7 ; 1.0397900147173E10 ; 0.0
61 ; 446491.3998874296 ; 2.003733125440219E8 ; 2.1590187806975048E7 ; 1.0598272123945486E10 ; 0.0
62 ; 447706.6243052255 ; 2.0037464841575468E8 ; 2.203667920686248E7 ; 1.0798645436489508E10 ; 0.0
63 ; 448634.71644967876 ; 2.0037598428335106E8 ; 2.2484385831167705E7 ; 1.0999020084905262E10 ; 0.0
64 ; 450464.8474967674 ; 2.003773200479303E8 ; 2.2933020547617383E7 ; 1.1199396069188614E10 ; 0.0
65 ; 450691.9506983488 ; 2.0037865561560833E8 ; 2.338348539511415E7 ; 1.1399773389236544E10 ; 0.0
66 ; 452093.3430984676 ; 2.003799908970861E8 ; 2.38341773458125E7 ; 1.1600152044852152E10 ; 0.0
67 ; 453475.670780444 ; 2.00381325807278E8 ; 2.428627068891097E7 ; 1.1800532035749237E10 ; 0.0
68 ; 453222.8534437107 ; 2.0038266026497567E8 ; 2.473974635969141E7 ; 1.2000913361556515E10 ; 0.0
69 ; 454058.2536801268 ; 2.0038399419254312E8 ; 2.5192969213135123E7 ; 1.2201296021821491E10 ; 0.0
70 ; 456483.1582900521 ; 2.0038532751564068E8 ; 2.564702746681525E7 ; 1.2401680016014034E10 ; 0.0
71 ; 455765.1086103987 ; 2.003866601629737E8 ; 2.6103510625105303E7 ; 1.2602065343529675E10 ; 0.0
72 ; 457181.50968417653 ; 2.0038799206606418E8 ; 2.65592757337157E7 ; 1.2802452003692648E10 ; 0.0
73 ; 458271.7142492245 ; 2.0038932315904257E8 ; 2.7016457243399877E7 ; 1.3002839995758713E10 ; 0.0
74 ; 458224.7284813682 ; 2.0039065337845808E8 ; 2.74747289576491E7 ; 1.3203229318917755E10 ; 0.0
75 ; 460840.8749389881 ; 2.0039198266310528E8 ; 2.7932953686130468E7 ; 1.3403619972296213E10 ; 0.0
76 ; 460235.87382700446 ; 2.003933109538655E8 ; 2.8393794561069455E7 ; 1.3604011954959318E10 ; 0.0
77 ; 461330.3828682207 ; 2.0039463819356176E8 ; 2.8854030434896458E7 ; 1.3804405265913183E10 ; 0.0
78 ; 461417.3724039044 ; 2.0039596432682577E8 ; 2.9315360817764677E7 ; 1.4004799904106745E10 ; 0.0
79 ; 462750.74009921175 ; 2.0039728929997572E8 ; 2.9776778190168582E7 ; 1.420519586843357E10 ; 0.0
80 ; 461931.42067159375 ; 2.003986130609043E8 ; 3.0239528930267792E7 ; 1.4405593157733547E10 ; 0.0
81 ; 462255.44151818415 ; 2.0039993555897558E8 ; 3.0701460350939386E7 ; 1.460599177079445E10 ; 0.0
82 ; 462969.08930508955 ; 2.0040125674492988E8 ; 3.116371579245757E7 ; 1.4806391706353426E10 ; 0.0
83 ; 462236.96511563583 ; 2.0040257657079652E8 ; 3.1626684881762657E7 ; 1.5006792963098356E10 ; 0.0
84 ; 462644.19154981035 ; 2.0040389498981297E8 ; 3.2088921846878294E7 ; 1.5207195539669153E10 ; 0.0
85 ; 463858.6964459755 ; 2.0040521195635045E8 ; 3.2551566038428105E7 ; 1.5407599434658966E10 ; 0.0
86 ; 463498.9171854695 ; 2.0040652742584494E8 ; 3.301542473487408E7 ; 1.5608004646615316E10 ; 0.0
87 ; 461224.0466882778 ; 2.004078413547336E8 ; 3.347892365205955E7 ; 1.580841117404116E10 ; 0.0
88 ; 464060.3151771633 ; 2.0040915370039558E8 ; 3.394014769874783E7 ; 1.6008819015395895E10 ; 0.0
89 ; 462268.3658720204 ; 2.0041046442109773E8 ; 3.440420801392499E7 ; 1.620922816909629E10 ; 0.0
90 ; 461574.5437581756 ; 2.0041177347594345E8 ; 3.486647637979701E7 ; 1.6409638633517387E10 ; 0.0
91 ; 463357.6547228224 ; 2.00413080824826E8 ; 3.532805092355519E7 ; 1.661005040699333E10 ; 0.0
92 ; 463778.95679150877 ; 2.004143864283845E8 ; 3.579140857827801E7 ; 1.6810463487818155E10 ; 0.0
93 ; 464013.47181616514 ; 2.0041569024796355E8 ; 3.625518753506952E7 ; 1.701087787424654E10 ; 0.0
94 ; 462719.7751159784 ; 2.0041699224557513E8 ; 3.6719201006885685E7 ; 1.7211293564494503E10 ; 0.0
95 ; 463255.7901962014 ; 2.0041829238386354E8 ; 3.718192078200167E7 ; 1.7411710556740078E10 ; 0.0
96 ; 462641.7364396608 ; 2.004195906260726E8 ; 3.764517657219787E7 ; 1.7612128849123943E10 ; 0.0
97 ; 463760.23418161983 ; 2.0042088693601492E8 ; 3.810781830863753E7 ; 1.7812548439750015E10 ; 0.0
98 ; 462382.526919598 ; 2.0042218127804342E8 ; 3.857157854281915E7 ; 1.801296932668603E10 ; 0.0
99 ; 462140.66743922816 ; 2.0042347361702466E8 ; 3.9033961069738746E7 ; 1.8213391507964073E10 ; 0.0
100 ; 462463.8461617386 ; 2.0042476391831392E8 ; 3.9496101737177975E7 ; 1.8413814981581097E10 ; 0.0
101 ; 462228.9225623077 ; 2.0042605214773187E8 ; 3.995856558333971E7 ; 1.861423974549941E10 ; 0.0
102 ; 462207.60799530474 ; 2.004273382715428E8 ; 4.042079450590202E7 ; 1.881466579764714E10 ; 0.0
103 ; 462548.36076788645 ; 2.004286222564341E8 ; 4.088300211389732E7 ; 1.9015093135918682E10 ; 0.0
104 ; 461565.9317944276 ; 2.0042990406949738E8 ; 4.134555047466521E7 ; 1.9215521758175117E10 ; 0.0
105 ; 461457.7015332048 ; 2.0043118367821035E8 ; 4.180711640645964E7 ; 1.9415951662244614E10 ; 0.0
106 ; 460279.5187202143 ; 2.0043246105042005E8 ; 4.226857410799284E7 ; 1.9616382845922825E10 ; 0.0
107 ; 461327.09874558944 ; 2.0043373615432712E8 ; 4.272885362671306E7 ; 1.9816815306973244E10 ; 0.0
108 ; 460208.11867904646 ; 2.004350089584711E8 ; 4.319018072545865E7 ; 2.001724904312757E10 ; 0.0
109 ; 460417.40893131937 ; 2.0043627943171623E8 ; 4.36503888441377E7 ; 2.021768405208604E10 ; 0.0
110 ; 461371.8684235413 ; 2.0043754754323882E8 ; 4.411080625306902E7 ; 2.0418120331517757E10 ; 0.0
111 ; 461283.5148775447 ; 2.0043881326251453E8 ; 4.4572178121492565E7 ; 2.0618557879060997E10 ; 0.0
112 ; 459377.63274846395 ; 2.0044007655930716E8 ; 4.503346163637011E7 ; 2.0818996692323513E10 ; 0.0
113 ; 459906.3256373804 ; 2.0044133740365756E8 ; 4.549283926911857E7 ; 2.101943676888282E10 ; 0.0
114 ; 459528.96202529897 ; 2.0044259576587352E8 ; 4.595274559475595E7 ; 2.1219878106286476E10 ; 0.0
115 ; 459367.15481984825 ; 2.004438516165201E8 ; 4.641227455678125E7 ; 2.142032070205235E10 ; 0.0
116 ; 457875.92868517427 ; 2.0044510492641056E8 ; 4.687164171160109E7 ; 2.162076455366887E10 ; 0.0
117 ; 458829.27440674644 ; 2.0044635566659772E8 ; 4.732951764028627E7 ; 2.182120965859528E10 ; 0.0
118 ; 458076.00512139994 ; 2.0044760380836606E8 ; 4.778834691469301E7 ; 2.202165601426188E10 ; 0.0
119 ; 457376.4459451678 ; 2.004488493232239E8 ; 4.8246422919814415E7 ; 2.2222103618070244E10 ; 0.0
120 ; 457398.94535456743 ; 2.0045009218289638E8 ; 4.870379936575958E7 ; 2.2422552467393467E10 ; 0.0
121 ; 456456.6580413261 ; 2.004513323593186E8 ; 4.916119831111415E7 ; 2.2623002559576363E10 ; 0.0
122 ; 456196.81386254885 ; 2.004525698246293E8 ; 4.9617654969155475E7 ; 2.282345389193568E10 ; 0.0
123 ; 454990.5279197474 ; 2.0045380455116472E8 ; 5.007385178301802E7 ; 2.302390646176031E10 ; 0.0
124 ; 455246.4517642108 ; 2.0045503651145288E8 ; 5.052884231093777E7 ; 2.3224360266311478E10 ; 0.0
125 ; 454714.6853771806 ; 2.004562656782083E8 ; 5.098408876270198E7 ; 2.342481530282293E10 ; 0.0
126 ; 453808.1086723076 ; 2.0045749202432674E8 ; 5.143880344807916E7 ; 2.3625271568501137E10 ; 0.0
127 ; 452886.4492446996 ; 2.0045871552288058E8 ; 5.189261155675147E7 ; 2.3825729060525463E10 ; 0.0
128 ; 453875.68710258143 ; 2.0045993614711404E8 ; 5.234549800599617E7 ; 2.4026187776048344E10 ; 0.0
129 ; 453329.9058231168 ; 2.0046115387043902E8 ; 5.2799373693098746E7 ; 2.4226647712195457E10 ; 0.0
130 ; 452176.53042324213 ; 2.0046236866643092E8 ; 5.3252703598921865E7 ; 2.4427108866065895E10 ; 0.0
131 ; 450201.84403945657 ; 2.0046358050882483E8 ; 5.3704880129345104E7 ; 2.4627571234732327E10 ; 0.0
132 ; 449564.01725760975 ; 2.0046478937151185E8 ; 5.415508197338456E7 ; 2.482803481524115E10 ; 0.0
133 ; 448617.0473141415 ; 2.0046599522853568E8 ; 5.460464599064217E7 ; 2.5028499604612663E10 ; 0.0
134 ; 446476.83128084394 ; 2.004671980540893E8 ; 5.505326303795631E7 ; 2.5228965599841198E10 ; 0.0
135 ; 445659.3343402439 ; 2.0046839782251182E8 ; 5.5499739869237155E7 ; 2.5429432797895287E10 ; 0.0
136 ; 444903.3442771091 ; 2.0046959450828564E8 ; 5.59453992035774E7 ; 2.56299011957178E10 ; 0.0
137 ; 442974.0507806043 ; 2.0047078808603358E8 ; 5.6390302547854505E7 ; 2.5830370790226086E10 ; 0.0
138 ; 442750.6636026826 ; 2.0047197853051633E8 ; 5.683327659863511E7 ; 2.603084157831212E10 ; 0.0
139 ; 439986.9280862526 ; 2.004731658166299E8 ; 5.727602726223779E7 ; 2.6231313556842636E10 ; 0.0
140 ; 439438.8003238241 ; 2.0047434991940325E8 ; 5.771601419032404E7 ; 2.6431786722659267E10 ; 0.0
141 ; 438924.6028106939 ; 2.0047553081399608E8 ; 5.815545299064786E7 ; 2.663226107257867E10 ; 0.0
142 ; 437419.4622722867 ; 2.004767084756967E8 ; 5.8594377593458556E7 ; 2.6832736603392666E10 ; 0.0
143 ; 435211.96719708137 ; 2.0047788287992007E8 ; 5.903179705573084E7 ; 2.7033213311868362E10 ; 0.0
144 ; 434007.51637689216 ; 2.0047905400220576E8 ; 5.9467009022927925E7 ; 2.7233691194748283E10 ; 0.0
145 ; 433933.1757486017 ; 2.004802218182163E8 ; 5.9901016539304815E7 ; 2.743417024875049E10 ; 0.0
146 ; 433190.6786524525 ; 2.004813863037354E8 ; 6.033494971505342E7 ; 2.7634650470568703E10 ; 0.0
147 ; 433132.6666680467 ; 2.0048254743466637E8 ; 6.076814039370587E7 ; 2.7835131856872437E10 ; 0.0
148 ; 431994.519922409 ; 2.0048370518703055E8 ; 6.120127306037392E7 ; 2.8035614404307102E10 ; 0.0
149 ; 431350.50708035333 ; 2.004848595369659E8 ; 6.163326758029632E7 ; 2.8236098109494133E10 ; 0.0
150 ; 430957.4691004757 ; 2.0048601046072564E8 ; 6.206461808737668E7 ; 2.8436582969031097E10 ; 0.0
151 ; 430648.4391162569 ; 2.0048715793467692E8 ; 6.249557555647715E7 ; 2.863706897949182E10 ; 0.0
152 ; 430414.76039905765 ; 2.0048830193529958E8 ; 6.2926223995593406E7 ; 2.88375561374265E10 ; 0.0
153 ; 428192.4173493677 ; 2.0048944243918505E8 ; 6.3356638755992465E7 ; 2.9038044439361797E10 ; 0.0
154 ; 428923.8251450498 ; 2.0049057942303526E8 ; 6.378483117334183E7 ; 2.9238533881800983E10 ; 0.0
155 ; 427810.7804622844 ; 2.0049171286366156E8 ; 6.4213754998486884E7 ; 2.943902446122402E10 ; 0.0
156 ; 427338.4470641542 ; 2.0049284273798373E8 ; 6.464156577894917E7 ; 2.963951617408768E10 ; 0.0
157 ; 426199.41602837463 ; 2.0049396902302912E8 ; 6.5068904226013325E7 ; 2.9840009016825665E10 ; 0.0
158 ; 427019.59448986495 ; 2.004950916959318E8 ; 6.54951036420417E7 ; 3.0040502985848694E10 ; 0.0
159 ; 425346.6166896293 ; 2.0049621073393157E8 ; 6.592212323653156E7 ; 3.0240998077544624E10 ; 0.0
160 ; 424507.4835017488 ; 2.0049732611437342E8 ; 6.634746985322119E7 ; 3.0441494288278557E10 ; 0.0
161 ; 424080.0793493182 ; 2.0049843781470665E8 ; 6.677197733672294E7 ; 3.064199161439293E10 ; 0.0
162 ; 424489.5246781049 ; 2.0049954581248426E8 ; 6.719605741607226E7 ; 3.0842490052207634E10 ; 0.0
163 ; 422387.05832084396 ; 2.0050065008536223E8 ; 6.762054694075038E7 ; 3.104298959802012E10 ; 0.0
164 ; 423639.9241434176 ; 2.00501750611099E8 ; 6.804293399907123E7 ; 3.124349024810548E10 ; 0.0
165 ; 421908.8596430375 ; 2.0050284736755484E8 ; 6.846657392321464E7 ; 3.144399199871658E10 ; 0.0
166 ; 421446.6756407835 ; 2.0050394033269137E8 ; 6.888848278285769E7 ; 3.1644494846084133E10 ; 0.0
167 ; 421018.4132624269 ; 2.0050502948457104E8 ; 6.930992945849846E7 ; 3.1844998786416824E10 ; 0.0
168 ; 419900.83917108516 ; 2.005061148013566E8 ; 6.973094787176089E7 ; 3.2045503815901394E10 ; 0.0
169 ; 420170.5509041587 ; 2.0050719626131082E8 ; 7.015084871093197E7 ; 3.224600993070275E10 ; 0.0
170 ; 420911.7126108759 ; 2.005082738427959E8 ; 7.057101926183613E7 ; 3.244651712696406E10 ; 0.0
171 ; 417562.7968421315 ; 2.005093475242733E8 ; 7.0991930974447E7 ; 3.2647025400806858E10 ; 0.0
172 ; 418629.2382235173 ; 2.0051041728430313E8 ; 7.140949377128913E7 ; 3.284753474833113E10 ; 0.0
173 ; 417281.07245409786 ; 2.005114831015441E8 ; 7.182812300951265E7 ; 3.3048045165615433E10 ; 0.0
174 ; 416125.7793959757 ; 2.00512544954753E8 ; 7.224540408196674E7 ; 3.3248556648716976E10 ; 0.0
175 ; 417343.5508850328 ; 2.0051360282278457E8 ; 7.266152986136273E7 ; 3.344906919367173E10 ; 0.0
176 ; 415552.86167941283 ; 2.005146566845912E8 ; 7.307887341224776E7 ; 3.3649582796494514E10 ; 0.0
177 ; 416839.71121878177 ; 2.005157065192226E8 ; 7.349442627392718E7 ; 3.3850097453179104E10 ; 0.0
178 ; 415722.0349822109 ; 2.0051675230582577E8 ; 7.391126598514596E7 ; 3.4050613159698326E10 ; 0.0
179 ; 416095.9707750165 ; 2.005177940236447E8 ; 7.432698802012816E7 ; 3.425112991200415E10 ; 0.0
180 ; 414949.86052475777 ; 2.005188316520201E8 ; 7.474308399090318E7 ; 3.4451647706027794E10 ; 0.0
181 ; 414475.4543989755 ; 2.0051986517038953E8 ; 7.515803385142794E7 ; 3.465216653767982E10 ; 0.0
182 ; 414816.2651806508 ; 2.005208945582869E8 ; 7.557250930582692E7 ; 3.4852686402850204E10 ; 0.0
183 ; 414283.24042493897 ; 2.005219197953427E8 ; 7.598732557100756E7 ; 3.505320729740849E10 ; 0.0
184 ; 412741.34882678546 ; 2.005229408612836E8 ; 7.640160881143251E7 ; 3.5253729217203835E10 ; 0.0
185 ; 413103.39843782387 ; 2.0052395773593247E8 ; 7.681435016025929E7 ; 3.545425215806512E10 ; 0.0
186 ; 413259.87969125394 ; 2.005249703992084E8 ; 7.722745355869712E7 ; 3.565477611580105E10 ; 0.0
187 ; 412312.2079411111 ; 2.0052597883112648E8 ; 7.764071343838838E7 ; 3.585530108620026E10 ; 0.0
188 ; 411951.6353425566 ; 2.0052698301179785E8 ; 7.805302564632949E7 ; 3.605582706503138E10 ; 0.0
189 ; 411646.4257670287 ; 2.0052798292142954E8 ; 7.846497728167205E7 ; 3.6256354048043175E10 ; 0.0
190 ; 410902.26333615487 ; 2.0052897854032466E8 ; 7.887662370743908E7 ; 3.645688203096461E10 ; 0.0
191 ; 410246.33778832917 ; 2.0052996984888214E8 ; 7.928752597077523E7 ; 3.665741100950493E10 ; 0.0
192 ; 409957.6178164264 ; 2.0053095682759687E8 ; 7.969777230856356E7 ; 3.685794097935381E10 ; 0.0
193 ; 409790.0961460579 ; 2.0053193945705965E8 ; 8.010772992638E7 ; 3.705847193618141E10 ; 0.0
194 ; 409135.9696880253 ; 2.005329177179573E8 ; 8.051752002252606E7 ; 3.725900387563847E10 ; 0.0
195 ; 408598.57077320653 ; 2.005338915910725E8 ; 8.092665599221408E7 ; 3.745953679335643E10 ; 0.0
196 ; 409708.8480357439 ; 2.00534861057284E8 ; 8.133525456298728E7 ; 3.76600706849475E10 ; 0.0
197 ; 407899.81634691026 ; 2.0053582609756655E8 ; 8.174496341102302E7 ; 3.786060554600478E10 ; 0.0
198 ; 407934.1788022916 ; 2.0053678669299108E8 ; 8.215286322736993E7 ; 3.806114137210235E10 ; 0.0
199 ; 407807.81613763137 ; 2.0053774282472456E8 ; 8.256079740617223E7 ; 3.826167815879534E10 ; 0.0
200 ; 408402.38535481744 ; 2.0053869447403023E8 ; 8.296860522230986E7 ; 3.846221590162006E10 ; 0.0
201 ; 406496.1418760742 ; 2.0053964162226766E8 ; 8.337700760766467E7 ; 3.866275459609409E10 ; 0.0
