CSV File for the City 1 on Day 203
1 - Minute m 
2 - Power Consumed at minute m 
3 - Power Produced at minute m 
4 - Energy Consumed since the beginning of the day 
5 - Energy Produced since the beginning of the day 
6 - Energy Lost since the beginning of the day on lines starting from the city
 
0 ; 1270003.307040234 ; 1.0538405880356815E8 ; 0.0 ; 0.0 ; 0.0
1 ; 1291935.1753947237 ; 1.0553672108675009E8 ; 1270003.307040234 ; 1.0538405880356815E8 ; 0.0
2 ; 1307741.093224167 ; 1.0599818898148516E8 ; 2561938.4824349578 ; 2.1092077989031824E8 ; 0.0
3 ; 1328215.1609362825 ; 1.0676846596581656E8 ; 3869679.5756591246 ; 3.169189688718034E8 ; 0.0
4 ; 1357258.4231463694 ; 1.078475552086677E8 ; 5197894.736595407 ; 4.2368743483761996E8 ; 0.0
5 ; 1386540.167987776 ; 1.0923545953562027E8 ; 6555153.159741776 ; 5.3153499004628766E8 ; 0.0
6 ; 1429806.575267767 ; 1.1093218139716348E8 ; 7941693.327729552 ; 6.40770449581908E8 ; 0.0
7 ; 1482878.9412875113 ; 1.1293772284020513E8 ; 9371499.902997319 ; 7.517026309790715E8 ; 0.0
8 ; 1564384.411852606 ; 1.1525208548359084E8 ; 1.085437884428483E7 ; 8.646403538192766E8 ; 0.0
9 ; 1682061.1753798558 ; 1.1787527049829817E8 ; 1.2418763256137436E7 ; 9.798924393028674E8 ; 0.0
10 ; 1867690.3609611783 ; 1.2080727859286493E8 ; 1.4100824431517292E7 ; 1.0977677098011656E9 ; 0.0
11 ; 2158921.950381923 ; 1.2404811000447103E8 ; 1.596851479247847E7 ; 1.2185749883940306E9 ; 0.0
12 ; 2620845.2673841245 ; 1.2759776449593654E8 ; 1.812743674286039E7 ; 1.3426230983985016E9 ; 0.0
13 ; 3067221.7549891104 ; 1.3145624135872364E8 ; 2.0748282010244515E7 ; 1.4702208628944383E9 ; 0.0
14 ; 3124701.92908235 ; 1.3562353942185485E8 ; 2.3815503765233625E7 ; 1.601677104253162E9 ; 0.0
15 ; 3144483.5959910704 ; 1.4009965706648445E8 ; 2.6940205694315974E7 ; 1.7373006436750169E9 ; 0.0
16 ; 3165611.557547115 ; 1.4488459224570474E8 ; 3.0084689290307045E7 ; 1.8774003007415013E9 ; 0.0
17 ; 3191026.707759012 ; 1.4997834250902644E8 ; 3.325030084785416E7 ; 2.022284892987206E9 ; 0.0
18 ; 3217050.3428640487 ; 1.5538090503086787E8 ; 3.6441327555613175E7 ; 2.1722632354962325E9 ; 0.0
19 ; 3239800.4761111974 ; 1.6109227664230564E8 ; 3.965837789847723E7 ; 2.3276441405271006E9 ; 0.0
20 ; 3263952.9908766677 ; 1.671124538652965E8 ; 4.289817837458842E7 ; 2.4887364171694064E9 ; 0.0
21 ; 3284254.8212403026 ; 1.7344143294857052E8 ; 4.616213136546509E7 ; 2.655848871034703E9 ; 0.0
22 ; 3311187.1629480873 ; 1.8007920990441048E8 ; 4.9446386186705396E7 ; 2.8292903039832735E9 ; 0.0
23 ; 3336793.7464251867 ; 1.8702578054558426E8 ; 5.275757334965348E7 ; 3.009369513887684E9 ; 0.0
24 ; 3359676.5469645555 ; 1.9428114052175778E8 ; 5.609436709607867E7 ; 3.196395294433268E9 ; 0.0
25 ; 3381648.641236525 ; 2.0053332625298738E8 ; 5.945404364304323E7 ; 3.3906764349550257E9 ; 0.0
26 ; 3404557.7090681107 ; 2.005358810003257E8 ; 6.283569228427975E7 ; 3.591209761208013E9 ; 0.0
27 ; 3426169.935066494 ; 2.0053856942243966E8 ; 6.624024999334786E7 ; 3.7917456422083387E9 ; 0.0
28 ; 3451374.3425279297 ; 2.0054138685180166E8 ; 6.966641992841436E7 ; 3.9922842116307783E9 ; 0.0
29 ; 3480230.0525410175 ; 2.0054432861485034E8 ; 7.311779427094229E7 ; 4.19282559848258E9 ; 0.0
30 ; 3501023.46208265 ; 2.005473900562794E8 ; 7.65980243234833E7 ; 4.39336992709743E9 ; 0.0
31 ; 3520324.430163813 ; 2.0055056656065163E8 ; 8.009904778556596E7 ; 4.593917317153709E9 ; 0.0
32 ; 3543937.0726869474 ; 2.0055385357135576E8 ; 8.361937221572977E7 ; 4.794467883714361E9 ; 0.0
33 ; 3563936.8115197504 ; 2.0055724660697475E8 ; 8.716330928841671E7 ; 4.995021737285717E9 ; 0.0
34 ; 3581784.196811996 ; 2.005607412751791E8 ; 9.072724609993647E7 ; 5.195578983892692E9 ; 0.0
35 ; 3607434.9718204825 ; 2.0056433328428835E8 ; 9.430903029674846E7 ; 5.3961397251678705E9 ; 0.0
36 ; 3626543.919842096 ; 2.005680184526674E8 ; 9.791646526856895E7 ; 5.596704058452159E9 ; 0.0
37 ; 3643523.4859250607 ; 2.0057179271613783E8 ; 1.0154300918841104E8 ; 5.797272076904826E9 ; 0.0
38 ; 3665801.6844995623 ; 2.0057565213359168E8 ; 1.051865326743361E8 ; 5.997843869620964E9 ; 0.0
39 ; 3684494.671337725 ; 2.0057959289099532E8 ; 1.0885233435883567E8 ; 6.198419521754556E9 ; 0.0
40 ; 3697997.5316004306 ; 2.0058361130396864E8 ; 1.1253682903017339E8 ; 6.398999114645551E9 ; 0.0
41 ; 3718364.609580944 ; 2.0058770381911647E8 ; 1.1623482656177382E8 ; 6.599582725949519E9 ; 0.0
42 ; 3738607.023075505 ; 2.0059186701428014E8 ; 1.1995319117135477E8 ; 6.800170429768636E9 ; 0.0
43 ; 3748089.3958062897 ; 2.0059609759786502E8 ; 1.2369179819443028E8 ; 7.000762296782916E9 ; 0.0
44 ; 3765867.4404203547 ; 2.0060039240738812E8 ; 1.2743988759023656E8 ; 7.201358394380781E9 ; 0.0
45 ; 3778954.597567014 ; 2.006047484073756E8 ; 1.3120575503065692E8 ; 7.401958786788169E9 ; 0.0
46 ; 3796987.2466778704 ; 2.006091626867281E8 ; 1.3498470962822393E8 ; 7.602563535195544E9 ; 0.0
47 ; 3804534.855482842 ; 2.006136324556583E8 ; 1.387816968749018E8 ; 7.803172697882273E9 ; 0.0
48 ; 3816182.511743865 ; 2.006181550422931E8 ; 1.4258623173038465E8 ; 8.003786330337931E9 ; 0.0
49 ; 3827486.1116913613 ; 2.0062272788902152E8 ; 1.4640241424212852E8 ; 8.204404485380224E9 ; 0.0
50 ; 3835630.0946300803 ; 2.0062734854865792E8 ; 1.5022990035381988E8 ; 8.405027213269246E9 ; 0.0
51 ; 3847571.555405564 ; 2.0063201468048176E8 ; 1.5406553044844997E8 ; 8.605654561817904E9 ; 0.0
52 ; 3860309.818057024 ; 2.006367240462046E8 ; 1.5791310200385553E8 ; 8.806286576498384E9 ; 0.0
53 ; 3864344.94690279 ; 2.0064147450590828E8 ; 1.6177341182191256E8 ; 9.00692330054459E9 ; 0.0
54 ; 3875269.696423857 ; 2.0064626401399088E8 ; 1.6563775676881534E8 ; 9.207564775050499E9 ; 0.0
55 ; 3888514.975607484 ; 2.006510906151497E8 ; 1.695130264652392E8 ; 9.40821103906449E9 ; 0.0
56 ; 3897460.3047910323 ; 2.006559524404271E8 ; 1.7340154144084668E8 ; 9.60886212967964E9 ; 0.0
57 ; 3907755.8201211332 ; 2.0066084770333758E8 ; 1.772990017456377E8 ; 9.809518082120068E9 ; 0.0
58 ; 3911985.004712097 ; 2.006657746960931E8 ; 1.8120675756575885E8 ; 1.0010178929823404E10 ; 0.0
59 ; 3925055.0047593536 ; 2.006707317859374E8 ; 1.8511874257047096E8 ; 1.0210844704519497E10 ; 0.0
60 ; 3931449.507503999 ; 2.006757174115989E8 ; 1.890437975752303E8 ; 1.0411515436305435E10 ; 0.0
61 ; 3941401.2260725736 ; 2.006807300798688E8 ; 1.929752470827343E8 ; 1.0612191153717033E10 ; 0.0
62 ; 3948021.839336079 ; 2.0068576836230758E8 ; 1.9691664830880687E8 ; 1.0812871883796902E10 ; 0.0
63 ; 3959608.811232845 ; 2.0069083089208326E8 ; 2.0086467014814293E8 ; 1.101355765215921E10 ; 0.0
64 ; 3963212.3459739573 ; 2.0069591636094126E8 ; 2.0482427895937577E8 ; 1.1214248483051294E10 ; 0.0
65 ; 3970391.3297228585 ; 2.0070102351630622E8 ; 2.0878749130534974E8 ; 1.1414944399412235E10 ; 0.0
66 ; 3982748.6109367395 ; 2.0070615115851358E8 ; 2.127578826350726E8 ; 1.1615645422928541E10 ; 0.0
67 ; 3990981.6069628545 ; 2.007112981381692E8 ; 2.1674063124600932E8 ; 1.1816351574087055E10 ; 0.0
68 ; 3999038.6440736954 ; 2.007164633536336E8 ; 2.2073161285297218E8 ; 1.2017062872225224E10 ; 0.0
69 ; 4002554.283767141 ; 2.0072164574862784E8 ; 2.2473065149704587E8 ; 1.2217779335578857E10 ; 0.0
70 ; 4013758.2124243127 ; 2.0072684430995658E8 ; 2.28733205780813E8 ; 1.2418500981327486E10 ; 0.0
71 ; 4019549.850998355 ; 2.00732058065345E8 ; 2.3274696399323732E8 ; 1.2619227825637444E10 ; 0.0
72 ; 4024669.447207882 ; 2.007372860813847E8 ; 2.3676651384423566E8 ; 1.281995988370279E10 ; 0.0
73 ; 4036104.3131388705 ; 2.0074252746158463E8 ; 2.4079118329144353E8 ; 1.3020697169784174E10 ; 0.0
74 ; 4039150.125040005 ; 2.007477813445222E8 ; 2.448272876045824E8 ; 1.3221439697245758E10 ; 0.0
75 ; 4044449.3852842352 ; 2.0075304690209055E8 ; 2.488664377296224E8 ; 1.342218747859028E10 ; 0.0
76 ; 4054636.6974334186 ; 2.007583233378372E8 ; 2.5291088711490664E8 ; 1.362294052549237E10 ; 0.0
77 ; 4057029.602596144 ; 2.0076360988539028E8 ; 2.5696552381234005E8 ; 1.3823698848830208E10 ; 0.0
78 ; 4063772.8801894165 ; 2.0076890580696747E8 ; 2.6102255341493618E8 ; 1.40244624587156E10 ; 0.0
79 ; 4064447.0665257485 ; 2.007742103919641E8 ; 2.650863262951256E8 ; 1.4225231364522566E10 ; 0.0
80 ; 4065232.0698778257 ; 2.0077952295561606E8 ; 2.6915077336165136E8 ; 1.442600557491453E10 ; 0.0
81 ; 4063697.688610221 ; 2.007848428377338E8 ; 2.7321600543152916E8 ; 1.4626785097870146E10 ; 0.0
82 ; 4063507.572902956 ; 2.007901694015038E8 ; 2.7727970312013936E8 ; 1.482756994070788E10 ; 0.0
83 ; 4069069.742499451 ; 2.0079550203235385E8 ; 2.8134321069304234E8 ; 1.5028360110109385E10 ; 0.0
84 ; 4067130.5293772304 ; 2.0080084013687876E8 ; 2.854122804355418E8 ; 1.5229155612141739E10 ; 0.0
85 ; 4067686.8002927843 ; 2.0080618314182326E8 ; 2.8947941096491903E8 ; 1.5429956452278618E10 ; 0.0
86 ; 4066037.3114794404 ; 2.0081153049311897E8 ; 2.935470977652118E8 ; 1.563076263542044E10 ; 0.0
87 ; 4066011.669071362 ; 2.0081688165497267E8 ; 2.9761313507669127E8 ; 1.5831574165913559E10 ; 0.0
88 ; 4064839.363568312 ; 2.0082223610900277E8 ; 3.0167914674576265E8 ; 1.6032391047568531E10 ; 0.0
89 ; 4065794.414808327 ; 2.008275933534215E8 ; 3.0574398610933095E8 ; 1.6233213283677534E10 ; 0.0
90 ; 4065180.3605854083 ; 2.0083295290226045E8 ; 3.098097805241393E8 ; 1.6434040877030956E10 ; 0.0
91 ; 4068608.96641301 ; 2.0083831428463662E8 ; 3.138749608847247E8 ; 1.6634873829933216E10 ; 0.0
92 ; 4066491.590629555 ; 2.0084367704405722E8 ; 3.179435698511377E8 ; 1.6835712144217854E10 ; 0.0
93 ; 4069759.3471977687 ; 2.008490407377609E8 ; 3.220100614417673E8 ; 1.7036555821261911E10 ; 0.0
94 ; 4063254.9573479313 ; 2.0085440493609312E8 ; 3.2607982078896505E8 ; 1.7237404861999672E10 ; 0.0
95 ; 4062417.0264012692 ; 2.0085976922191423E8 ; 3.30143075746313E8 ; 1.7438259266935764E10 ; 0.0
96 ; 4064950.8225565436 ; 2.008651331900381E8 ; 3.3420549277271426E8 ; 1.7639119036157677E10 ; 0.0
97 ; 4058310.8570503043 ; 2.0087049644669968E8 ; 3.382704435952708E8 ; 1.7839984169347713E10 ; 0.0
98 ; 4058632.9592215745 ; 2.0087585860905012E8 ; 3.423287544523211E8 ; 1.8040854665794415E10 ; 0.0
99 ; 4059051.2007342605 ; 2.008812193046774E8 ; 3.463873874115427E8 ; 1.8241730524403465E10 ; 0.0
100 ; 4061494.3081567045 ; 2.008865781711518E8 ; 3.50446438612277E8 ; 1.844261174370814E10 ; 0.0
101 ; 4056543.768277809 ; 2.0089193485559398E8 ; 3.545079329204337E8 ; 1.864349832187929E10 ; 0.0
102 ; 4053147.6412497093 ; 2.0089728901426542E8 ; 3.585644766887115E8 ; 1.8844390256734886E10 ; 0.0
103 ; 4052704.672247692 ; 2.0090264031217876E8 ; 3.6261762432996124E8 ; 1.9045287545749153E10 ; 0.0
104 ; 4052360.049525118 ; 2.0090798842272833E8 ; 3.6667032900220895E8 ; 1.9246190186061333E10 ; 0.0
105 ; 4048598.490344465 ; 2.009133330273387E8 ; 3.707226890517341E8 ; 1.9447098174484062E10 ; 0.0
106 ; 4045299.749245991 ; 2.0091867381513068E8 ; 3.7477128754207855E8 ; 1.9648011507511402E10 ; 0.0
107 ; 4043906.3545085266 ; 2.0092401048260382E8 ; 3.7881658729132456E8 ; 1.9848930181326534E10 ; 0.0
108 ; 4040851.6937544816 ; 2.009293427333346E8 ; 3.828604936458331E8 ; 2.004985419180914E10 ; 0.0
109 ; 4038130.9808231858 ; 2.0093467027768922E8 ; 3.8690134533958757E8 ; 2.0250783534542473E10 ; 0.0
110 ; 4040067.628062122 ; 2.0093999283255047E8 ; 3.909394763204107E8 ; 2.0451718204820164E10 ; 0.0
111 ; 4035928.9561846345 ; 2.0094531012105757E8 ; 3.9497954394847286E8 ; 2.0652658197652714E10 ; 0.0
112 ; 4028493.7364818365 ; 2.009506218723589E8 ; 3.990154729046575E8 ; 2.0853603507773773E10 ; 0.0
113 ; 4028244.9903400545 ; 2.0095592782137626E8 ; 4.030439666411393E8 ; 2.1054554129646133E10 ; 0.0
114 ; 4023458.2910820493 ; 2.0096122770858037E8 ; 4.070722116314794E8 ; 2.125551005746751E10 ; 0.0
115 ; 4020458.794302548 ; 2.009665212797772E8 ; 4.110956699225614E8 ; 2.145647128517609E10 ; 0.0
116 ; 4016157.8418578464 ; 2.009718082859042E8 ; 4.1511612871686393E8 ; 2.1657437806455868E10 ; 0.0
117 ; 4013937.8642567694 ; 2.0097708848283607E8 ; 4.191322865587218E8 ; 2.185840961474177E10 ; 0.0
118 ; 4008736.781335177 ; 2.0098236163119975E8 ; 4.231462244229785E8 ; 2.205938670322461E10 ; 0.0
119 ; 4004662.4069351563 ; 2.009876274961978E8 ; 4.271549612043137E8 ; 2.226036906485581E10 ; 0.0
120 ; 4002151.5254788343 ; 2.0099288584744E8 ; 4.3115962361124885E8 ; 2.2461356692352005E10 ; 0.0
121 ; 4000595.145154444 ; 2.0099813645878282E8 ; 4.351617751367277E8 ; 2.2662349578199444E10 ; 0.0
122 ; 3995964.12975114 ; 2.010033791081759E8 ; 4.391623702818821E8 ; 2.2863347714658226E10 ; 0.0
123 ; 3993581.0051415926 ; 2.0100861357751587E8 ; 4.4315833441163325E8 ; 2.3064351093766403E10 ; 0.0
124 ; 3984575.6274535875 ; 2.0101383965250653E8 ; 4.4715191541677487E8 ; 2.3265359707343918E10 ; 0.0
125 ; 3981610.9171487372 ; 2.010190571225254E8 ; 4.5113649104422843E8 ; 2.3466373546996426E10 ; 0.0
126 ; 3977174.5007724282 ; 2.0102426578049615E8 ; 4.5511810196137714E8 ; 2.366739260411895E10 ; 0.0
127 ; 3976794.54875735 ; 2.0102946542276698E8 ; 4.5909527646214956E8 ; 2.3868416869899445E10 ; 0.0
128 ; 3966457.7488373443 ; 2.0103465584899396E8 ; 4.6307207101090693E8 ; 2.4069446335322212E10 ; 0.0
129 ; 3959886.0193124223 ; 2.010398368620299E8 ; 4.670385287597443E8 ; 2.4270480991171207E10 ; 0.0
130 ; 3957339.264892206 ; 2.0104500826781783E8 ; 4.709984147790567E8 ; 2.4471520828033237E10 ; 0.0
131 ; 3948478.188337475 ; 2.0105016987528932E8 ; 4.7495575404394895E8 ; 2.4672565836301056E10 ; 0.0
132 ; 3932972.1265067747 ; 2.0105532149626696E8 ; 4.7890423223228645E8 ; 2.4873616006176346E10 ; 0.0
133 ; 3920378.3709476423 ; 2.0106046294537133E8 ; 4.828372043587932E8 ; 2.507467132767261E10 ; 0.0
134 ; 3910260.956853897 ; 2.0106559403993186E8 ; 4.8675758272974086E8 ; 2.527573179061798E10 ; 0.0
135 ; 3899855.8904009163 ; 2.0107071459990126E8 ; 4.906678436865948E8 ; 2.5476797384657913E10 ; 0.0
136 ; 3888765.858361938 ; 2.010758244477741E8 ; 4.9456769957699573E8 ; 2.5677868099257816E10 ; 0.0
137 ; 3877517.552698076 ; 2.010809234085083E8 ; 4.984564654353577E8 ; 2.587894392370559E10 ; 0.0
138 ; 3861876.9441208807 ; 2.010860113094503E8 ; 5.0233398298805577E8 ; 2.6080024847114098E10 ; 0.0
139 ; 3854369.4514763965 ; 2.0109108798026314E8 ; 5.0619585993217665E8 ; 2.628111085842355E10 ; 0.0
140 ; 3839488.291695835 ; 2.0109615325285774E8 ; 5.1005022938365304E8 ; 2.6482201946403812E10 ; 0.0
141 ; 3833015.278178611 ; 2.0110120696132684E8 ; 5.138897176753489E8 ; 2.668329809965667E10 ; 0.0
142 ; 3819755.946704045 ; 2.0110624894188178E8 ; 5.177227329535275E8 ; 2.6884399306617996E10 ; 0.0
143 ; 3807129.1405733954 ; 2.0111127903279185E8 ; 5.2154248890023154E8 ; 2.708550555555988E10 ; 0.0
144 ; 3795667.938045239 ; 2.011162970743262E8 ; 5.253496180408049E8 ; 2.728661683459267E10 ; 0.0
145 ; 3790479.857774149 ; 2.011213029086979E8 ; 5.291452859788502E8 ; 2.7487733131666996E10 ; 0.0
146 ; 3784052.9568757927 ; 2.0112629638001055E8 ; 5.329357658366243E8 ; 2.7688854434575695E10 ; 0.0
147 ; 3780268.436600943 ; 2.011312773342069E8 ; 5.367198187935001E8 ; 2.7889980730955704E10 ; 0.0
148 ; 3775609.4329630784 ; 2.0113624561901945E8 ; 5.405000872301011E8 ; 2.809111200828991E10 ; 0.0
149 ; 3768987.3774711564 ; 2.0114120108392328E8 ; 5.442756966630642E8 ; 2.8292248253908928E10 ; 0.0
150 ; 3768083.3612061418 ; 2.0114614358009046E8 ; 5.480446840405354E8 ; 2.849338945499285E10 ; 0.0
151 ; 3758730.573102996 ; 2.0115107296034652E8 ; 5.518127674017416E8 ; 2.869453559857294E10 ; 0.0
152 ; 3754222.0128820552 ; 2.0115598907912853E8 ; 5.555714979748446E8 ; 2.8895686671533287E10 ; 0.0
153 ; 3747745.65957178 ; 2.0116089179244483E8 ; 5.593257199877267E8 ; 2.9096842660612415E10 ; 0.0
154 ; 3741721.2776156296 ; 2.0116578095783633E8 ; 5.630734656472985E8 ; 2.929800355240486E10 ; 0.0
155 ; 3733370.6510596317 ; 2.0117065643433934E8 ; 5.668151869249141E8 ; 2.9499169333362698E10 ; 0.0
156 ; 3727577.453965572 ; 2.0117551808244997E8 ; 5.705485575759737E8 ; 2.9700339989797035E10 ; 0.0
157 ; 3723679.745995077 ; 2.0118036576408958E8 ; 5.742761350299393E8 ; 2.9901515507879486E10 ; 0.0
158 ; 3721014.867258544 ; 2.0118519934257197E8 ; 5.779998147759343E8 ; 3.0102695873643578E10 ; 0.0
159 ; 3716925.1746973856 ; 2.0119001868257153E8 ; 5.817208296431929E8 ; 3.030388107298615E10 ; 0.0
160 ; 3707763.428989095 ; 2.0119482365009278E8 ; 5.854377548178903E8 ; 3.050507109166872E10 ; 0.0
161 ; 3702465.6945879543 ; 2.011996141124409E8 ; 5.891455182468793E8 ; 3.0706265915318813E10 ; 0.0
162 ; 3698289.648695249 ; 2.012043899381937E8 ; 5.928479839414673E8 ; 3.0907465529431255E10 ; 0.0
163 ; 3693455.492848239 ; 2.0120915099717417E8 ; 5.965462735901625E8 ; 3.110866991936945E10 ; 0.0
164 ; 3689475.911873949 ; 2.012138971604246E8 ; 6.002397290830108E8 ; 3.1309879070366623E10 ; 0.0
165 ; 3680740.319769424 ; 2.012186283001812E8 ; 6.039292049948847E8 ; 3.1511092967527046E10 ; 0.0
166 ; 3676340.76908981 ; 2.0122334428985012E8 ; 6.076099453146541E8 ; 3.171231159582723E10 ; 0.0
167 ; 3669798.1490532234 ; 2.0122804500398394E8 ; 6.112862860837439E8 ; 3.1913534940117077E10 ; 0.0
168 ; 3669445.08830297 ; 2.0123273031825927E8 ; 6.149560842327971E8 ; 3.211476298512106E10 ; 0.0
169 ; 3661364.6207019347 ; 2.012374001094553E8 ; 6.186255293211001E8 ; 3.231599571543932E10 ; 0.0
170 ; 3654968.703220549 ; 2.0124205425543275E8 ; 6.22286893941802E8 ; 3.2517233115548775E10 ; 0.0
171 ; 3646126.083650894 ; 2.0124669263511404E8 ; 6.259418626450226E8 ; 3.2718475169804207E10 ; 0.0
172 ; 3641173.211448701 ; 2.0125131512846395E8 ; 6.295879887286736E8 ; 3.291972186243932E10 ; 0.0
173 ; 3642901.8438412873 ; 2.012559216164709E8 ; 6.332291619401222E8 ; 3.3120973177567783E10 ; 0.0
174 ; 3634893.3843681044 ; 2.0126051198112926E8 ; 6.368720637839636E8 ; 3.3322229099184254E10 ; 0.0
175 ; 3630092.381482324 ; 2.0126508610542193E8 ; 6.405069571683316E8 ; 3.3523489611165382E10 ; 0.0
176 ; 3623380.4007539833 ; 2.012696438733038E8 ; 6.44137049549814E8 ; 3.3724754697270805E10 ; 0.0
177 ; 3622985.268563565 ; 2.012741851696857E8 ; 6.47760429950568E8 ; 3.3926024341144108E10 ; 0.0
178 ; 3617655.3745271233 ; 2.01278709880419E8 ; 6.513834152191315E8 ; 3.4127298526313793E10 ; 0.0
179 ; 3614014.917673737 ; 2.012832178922807E8 ; 6.550010705936586E8 ; 3.4328577236194214E10 ; 0.0
180 ; 3611363.801160445 ; 2.0128770909295914E8 ; 6.586150855113323E8 ; 3.4529860454086494E10 ; 0.0
181 ; 3609518.9683689335 ; 2.0129218337104008E8 ; 6.622264493124927E8 ; 3.473114816317945E10 ; 0.0
182 ; 3603121.1464206832 ; 2.0129664061599356E8 ; 6.658359682808616E8 ; 3.493244034655049E10 ; 0.0
183 ; 3601511.503825697 ; 2.013010807181608E8 ; 6.694390894272823E8 ; 3.513373698716649E10 ; 0.0
184 ; 3596296.0393921286 ; 2.013055035687421E8 ; 6.73040600931108E8 ; 3.533503806788465E10 ; 0.0
185 ; 3589422.918032648 ; 2.0130990905978465E8 ; 6.766368969705001E8 ; 3.553634357145339E10 ; 0.0
186 ; 3590249.6980292224 ; 2.0131429708417115E8 ; 6.802263198885328E8 ; 3.5737653480513176E10 ; 0.0
187 ; 3584066.915772833 ; 2.0131866753560877E8 ; 6.83816569586562E8 ; 3.593896777759734E10 ; 0.0
188 ; 3577906.903565818 ; 2.0132302030861822E8 ; 6.874006365023348E8 ; 3.614028644513295E10 ; 0.0
189 ; 3579566.0561949406 ; 2.0132735529852366E8 ; 6.909785434059006E8 ; 3.634160946544157E10 ; 0.0
190 ; 3572161.6058090194 ; 2.013316724014426E8 ; 6.945581094620955E8 ; 3.654293682074009E10 ; 0.0
191 ; 3570000.5866440106 ; 2.0133597151427636E8 ; 6.981302710679045E8 ; 3.674426849314153E10 ; 0.0
192 ; 3564450.3060793476 ; 2.0134025253470075E8 ; 7.017002716545485E8 ; 3.694560446465581E10 ; 0.0
193 ; 3563439.332186694 ; 2.0134451536115724E8 ; 7.052647219606279E8 ; 3.7146944717190506E10 ; 0.0
194 ; 3561610.79469528 ; 2.0134875989284417E8 ; 7.088281612928146E8 ; 3.734828923255167E10 ; 0.0
195 ; 3553349.86681537 ; 2.0135298602970865E8 ; 7.123897720875099E8 ; 3.754963799244451E10 ; 0.0
196 ; 3548195.9834464137 ; 2.013571936724383E8 ; 7.159431219543252E8 ; 3.775099097847422E10 ; 0.0
197 ; 3545155.9096399047 ; 2.0136138272245374E8 ; 7.194913179377716E8 ; 3.795234817214666E10 ; 0.0
198 ; 3543445.872058702 ; 2.0136555308190098E8 ; 7.230364738474115E8 ; 3.815370955486911E10 ; 0.0
199 ; 3535603.499441327 ; 2.0136970465364426E8 ; 7.265799197194703E8 ; 3.835507510795101E10 ; 0.0
200 ; 3534432.6196775734 ; 2.0137383734125915E8 ; 7.301155232189116E8 ; 3.855644481260465E10 ; 0.0
