CSV File for the City 3 on Day 195
1 - Minute m 
2 - Power Consumed at minute m 
3 - Power Produced at minute m 
4 - Energy Consumed since the beginning of the day 
5 - Energy Produced since the beginning of the day 
6 - Energy Lost since the beginning of the day on lines starting from the city
 
0 ; 274844.09466503747 ; 1.0542608795357266E8 ; 0.0 ; 0.0 ; 0.0
1 ; 278942.32622034213 ; 1.0557889069723356E8 ; 274844.09466503747 ; 1.0542608795357266E8 ; 0.0
2 ; 280570.830598333 ; 1.0604048745695385E8 ; 553786.4208853797 ; 2.1100497865080622E8 ; 0.0
3 ; 283455.7134197468 ; 1.0681088072831905E8 ; 834357.2514837126 ; 3.170454661077601E8 ; 0.0
4 ; 287596.5451761129 ; 1.0789007276810902E8 ; 1117812.9649034594 ; 4.238563468360791E8 ; 0.0
5 ; 291786.05479389423 ; 1.0927806557512963E8 ; 1405409.5100795724 ; 5.3174641960418814E8 ; 0.0
6 ; 298469.69516430015 ; 1.1097486087271538E8 ; 1697195.5648734667 ; 6.410244851793177E8 ; 0.0
7 ; 306596.58717390936 ; 1.1298046009324884E8 ; 1995665.2600377668 ; 7.519993460520331E8 ; 0.0
8 ; 314794.69759299874 ; 1.152948643650133E8 ; 2302261.847211676 ; 8.649798061452819E8 ; 0.0
9 ; 334636.183917762 ; 1.1791807450165725E8 ; 2617056.544804675 ; 9.802746705102952E8 ; 0.0
10 ; 360650.1810928445 ; 1.2085009099449718E8 ; 2951692.7287224373 ; 1.0981927450119524E9 ; 0.0
11 ; 402633.87777719815 ; 1.2409091400783011E8 ; 3312342.9098152816 ; 1.2190428360064497E9 ; 0.0
12 ; 467844.8665851422 ; 1.27640543377359E8 ; 3714976.78759248 ; 1.3431337500142798E9 ; 0.0
13 ; 532022.3267257104 ; 1.3149897861176735E8 ; 4182821.654177622 ; 1.4707742933916388E9 ; 0.0
14 ; 539053.0784775561 ; 1.3566621889740676E8 ; 4714843.980903332 ; 1.602273272003406E9 ; 0.0
15 ; 541914.1671197136 ; 1.401422631059938E8 ; 5253897.059380888 ; 1.7379394909008129E9 ; 0.0
16 ; 547213.8261417047 ; 1.4492710980514607E8 ; 5795811.2265006015 ; 1.8780817540068066E9 ; 0.0
17 ; 548974.8283694871 ; 1.5002075727152893E8 ; 6343025.052642306 ; 2.0230088638119526E9 ; 0.0
18 ; 553068.2256288484 ; 1.5542320350633657E8 ; 6891999.881011793 ; 2.1730296210834813E9 ; 0.0
19 ; 556115.7088560525 ; 1.611344462527891E8 ; 7445068.106640642 ; 2.328452824589818E9 ; 0.0
20 ; 560321.4378363312 ; 1.6715448301530102E8 ; 8001183.815496694 ; 2.489587270842607E9 ; 0.0
21 ; 564256.375137226 ; 1.7348331107996008E8 ; 8561505.253333025 ; 2.6567417538579082E9 ; 0.0
22 ; 566112.4531734129 ; 1.8012092753595E8 ; 9125761.628470251 ; 2.830225064937868E9 ; 0.0
23 ; 570879.0326283125 ; 1.8706732929755682E8 ; 9691874.081643663 ; 3.0103459924738183E9 ; 0.0
24 ; 572983.0870958737 ; 1.9432251312641287E8 ; 1.0262753114271976E7 ; 3.197413321771375E9 ; 0.0
25 ; 576589.4018473065 ; 2.0057451655184218E8 ; 1.083573620136785E7 ; 3.391735834897788E9 ; 0.0
26 ; 579338.1779763618 ; 2.005768839295425E8 ; 1.1412325603215156E7 ; 3.5923103514496303E9 ; 0.0
27 ; 584231.3464906522 ; 2.0057938098764297E8 ; 1.1991663781191519E7 ; 3.792887235379173E9 ; 0.0
28 ; 586514.9227871537 ; 2.0058200409377882E8 ; 1.257589512768217E7 ; 3.9934666163668156E9 ; 0.0
29 ; 589725.3443501904 ; 2.0058474956760588E8 ; 1.3162410050469324E7 ; 4.194048620460594E9 ; 0.0
30 ; 592893.4372851342 ; 2.005876136988941E8 ; 1.3752135394819515E7 ; 4.3946333700282E9 ; 0.0
31 ; 595676.8625306092 ; 2.0059059276433977E8 ; 1.434502883210465E7 ; 4.595220983727095E9 ; 0.0
32 ; 599696.676258496 ; 2.0059368304302564E8 ; 1.4940705694635259E7 ; 4.795811576491434E9 ; 0.0
33 ; 602308.3944813268 ; 2.005968808304901E8 ; 1.5540402370893754E7 ; 4.99640525953446E9 ; 0.0
34 ; 605782.1548718668 ; 2.0060018245139474E8 ; 1.6142710765375081E7 ; 5.19700214036495E9 ; 0.0
35 ; 607412.0407745676 ; 2.0060358427080297E8 ; 1.6748492920246948E7 ; 5.397602322816345E9 ; 0.0
36 ; 611967.9102792813 ; 2.0060708270410517E8 ; 1.7355904961021516E7 ; 5.598205907087149E9 ; 0.0
37 ; 612040.6254047882 ; 2.006106742256394E8 ; 1.7967872871300798E7 ; 5.798812989791254E9 ; 0.0
38 ; 616857.8768547648 ; 2.0061435537607238E8 ; 1.8579913496705584E7 ; 5.999423664016893E9 ; 0.0
39 ; 618415.3294811853 ; 2.0061812276861376E8 ; 1.919677137356035E7 ; 6.200038019392965E9 ; 0.0
40 ; 621179.4425859607 ; 2.006219730941435E8 ; 1.9815186703041535E7 ; 6.400656142161579E9 ; 0.0
41 ; 624131.4337986459 ; 2.0062590312533647E8 ; 2.0436366145627495E7 ; 6.601278115255723E9 ; 0.0
42 ; 626717.1413298642 ; 2.0062990971986997E8 ; 2.106049757942614E7 ; 6.80190401838106E9 ; 0.0
43 ; 626943.0789417588 ; 2.006339898228001E8 ; 2.1687214720756005E7 ; 7.002533928100929E9 ; 0.0
44 ; 629732.0259374355 ; 2.006381404681907E8 ; 2.2314157799697764E7 ; 7.203167917923729E9 ; 0.0
45 ; 633333.896785057 ; 2.0064235878007594E8 ; 2.29438898256352E7 ; 7.40380605839192E9 ; 0.0
46 ; 634710.6770924178 ; 2.0064664197283438E8 ; 2.3577223722420257E7 ; 7.604448417171996E9 ; 0.0
47 ; 636930.2201848401 ; 2.0065098735104713E8 ; 2.4211934399512675E7 ; 7.805095059144831E9 ; 0.0
48 ; 636016.5397022951 ; 2.0065539230890816E8 ; 2.4848864619697515E7 ; 8.005746046495878E9 ; 0.0
49 ; 639386.4476084944 ; 2.006598543292504E8 ; 2.548488115939981E7 ; 8.206401438804787E9 ; 0.0
50 ; 640509.4367785598 ; 2.0066437098224428E8 ; 2.6124267607008304E7 ; 8.407061293134037E9 ; 0.0
51 ; 640738.8000353714 ; 2.006689399238228E8 ; 2.6764777043786865E7 ; 8.607725664116282E9 ; 0.0
52 ; 642960.9411068272 ; 2.006735588938792E8 ; 2.7405515843822237E7 ; 8.808394604040104E9 ; 0.0
53 ; 644752.9813402134 ; 2.006782257142812E8 ; 2.8048476784929063E7 ; 9.009068162933983E9 ; 0.0
54 ; 645403.1465928555 ; 2.0068293828673905E8 ; 2.8693229766269278E7 ; 9.209746388648264E9 ; 0.0
55 ; 646396.5124323756 ; 2.0068769459056136E8 ; 2.9338632912862133E7 ; 9.410429326935003E9 ; 0.0
56 ; 648697.3788027803 ; 2.006924926803287E8 ; 2.9985029425294507E7 ; 9.611117021525564E9 ; 0.0
57 ; 648844.063581032 ; 2.0069733068351024E8 ; 3.0633726804097287E7 ; 9.811809514205893E9 ; 0.0
58 ; 651124.6121065202 ; 2.0070220679804698E8 ; 3.128257086767832E7 ; 1.0012506844889402E10 ; 0.0
59 ; 650788.252402769 ; 2.0070711928991976E8 ; 3.193369547978484E7 ; 1.0213209051687449E10 ; 0.0
60 ; 652579.3830795208 ; 2.0071206649071997E8 ; 3.2584483732187606E7 ; 1.0413916170977367E10 ; 0.0
61 ; 654143.3241329561 ; 2.007170467952361E8 ; 3.3237063115267128E7 ; 1.0614628237468088E10 ; 0.0
62 ; 655195.3560083188 ; 2.0072205865906852E8 ; 3.3891206439400084E7 ; 1.0815345284263325E10 ; 0.0
63 ; 655547.0911046169 ; 2.007271005962821E8 ; 3.4546401795408405E7 ; 1.1016067342922394E10 ; 0.0
64 ; 656099.4354492459 ; 2.0073217117710507E8 ; 3.5201948886513025E7 ; 1.1216794443518677E10 ; 0.0
65 ; 657720.6119471558 ; 2.0073726902568024E8 ; 3.585804832196227E7 ; 1.1417526614695782E10 ; 0.0
66 ; 659161.707317668 ; 2.0074239281787404E8 ; 3.651576893390942E7 ; 1.1618263883721462E10 ; 0.0
67 ; 661231.0381049807 ; 2.007475412791474E8 ; 3.717493064122709E7 ; 1.1819006276539337E10 ; 0.0
68 ; 660493.4178496756 ; 2.007527131824911E8 ; 3.783616167933207E7 ; 1.2019753817818485E10 ; 0.0
69 ; 662230.5739167674 ; 2.0075790734642825E8 ; 3.8496655097181745E7 ; 1.2220506531000977E10 ; 0.0
70 ; 661670.2028062304 ; 2.007631226330843E8 ; 3.9158885671098515E7 ; 1.2421264438347404E10 ; 0.0
71 ; 665088.9923952295 ; 2.0076835794632626E8 ; 3.982055587390474E7 ; 1.2622027560980488E10 ; 0.0
72 ; 667060.4904176665 ; 2.0077361222997048E8 ; 4.048564486629997E7 ; 1.2822795918926815E10 ; 0.0
73 ; 665452.8596416186 ; 2.0077888446605894E8 ; 4.115270535671764E7 ; 1.3023569531156786E10 ; 0.0
74 ; 667156.6445784814 ; 2.0078417367320338E8 ; 4.181815821635926E7 ; 1.3224348415622845E10 ; 0.0
75 ; 668660.1262788156 ; 2.0078947890499595E8 ; 4.248531486093774E7 ; 1.3425132589296047E10 ; 0.0
76 ; 668943.3083236387 ; 2.0079479924848536E8 ; 4.3153974987216555E7 ; 1.3625922068201044E10 ; 0.0
77 ; 669268.4792620785 ; 2.0080013382271686E8 ; 4.382291829554019E7 ; 1.382671686744953E10 ; 0.0
78 ; 670114.4626315953 ; 2.0080548177733433E8 ; 4.449218677480227E7 ; 1.4027517001272247E10 ; 0.0
79 ; 669817.5786842448 ; 2.008108422912429E8 ; 4.5162301237433866E7 ; 1.4228322483049582E10 ; 0.0
80 ; 670768.9410572685 ; 2.0081621457132983E8 ; 4.583211881611811E7 ; 1.4429133325340824E10 ; 0.0
81 ; 670305.6465123018 ; 2.008215978512422E8 ; 4.6502887757175386E7 ; 1.4629949539912153E10 ; 0.0
82 ; 671041.1314645519 ; 2.00826991390219E8 ; 4.7173193403687686E7 ; 1.4830771137763395E10 ; 0.0
83 ; 669353.7910530337 ; 2.0083239447197568E8 ; 4.7844234535152234E7 ; 1.5031598129153614E10 ; 0.0
84 ; 669920.0503112609 ; 2.0083780640363947E8 ; 4.851358832620527E7 ; 1.523243052362559E10 ; 0.0
85 ; 669012.7402167814 ; 2.008432265147329E8 ; 4.918350837651653E7 ; 1.5433268330029228E10 ; 0.0
86 ; 668285.1765363377 ; 2.0084865415620425E8 ; 4.985252111673331E7 ; 1.563411155654396E10 ; 0.0
87 ; 669735.4663807001 ; 2.0085408869950232E8 ; 5.052080629326965E7 ; 1.5834960210700165E10 ; 0.0
88 ; 669304.7633567335 ; 2.00859529535694E8 ; 5.119054175965035E7 ; 1.6035814299399668E10 ; 0.0
89 ; 669021.5090978652 ; 2.0086497607462272E8 ; 5.185984652300708E7 ; 1.6236673828935362E10 ; 0.0
90 ; 670208.7805426056 ; 2.0087042774410596E8 ; 5.252886803210495E7 ; 1.6437538805009985E10 ; 0.0
91 ; 667755.9670430191 ; 2.0087588398916996E8 ; 5.319907681264755E7 ; 1.6638409232754091E10 ; 0.0
92 ; 669053.2481648908 ; 2.008813442713202E8 ; 5.386683277969057E7 ; 1.6839285116743261E10 ; 0.0
93 ; 668137.3214751454 ; 2.0088680806784567E8 ; 5.453588602785546E7 ; 1.7040166461014582E10 ; 0.0
94 ; 666474.162813527 ; 2.008922748711557E8 ; 5.520402334933061E7 ; 1.7241053269082428E10 ; 0.0
95 ; 667235.9865726935 ; 2.0089774418814772E8 ; 5.587049751214414E7 ; 1.7441945543953583E10 ; 0.0
96 ; 668502.2509037039 ; 2.009032155396041E8 ; 5.653773349871683E7 ; 1.764284328814173E10 ; 0.0
97 ; 667624.1267620019 ; 2.0090868845961758E8 ; 5.7206235749620534E7 ; 1.7843746503681335E10 ; 0.0
98 ; 666087.7532182786 ; 2.0091416249504292E8 ; 5.787385987638254E7 ; 1.8044655192140953E10 ; 0.0
99 ; 666166.5408459825 ; 2.0091963720497435E8 ; 5.8539947629600815E7 ; 1.8245569354635998E10 ; 0.0
100 ; 665624.8012318789 ; 2.00925112160247E8 ; 5.92061141704468E7 ; 1.8446488991840973E10 ; 0.0
101 ; 665239.8495514849 ; 2.0093058694296142E8 ; 5.9871738971678674E7 ; 1.864741410400122E10 ; 0.0
102 ; 665058.720378918 ; 2.009360611460302E8 ; 6.053697882123016E7 ; 1.8848344690944183E10 ; 0.0
103 ; 666377.7201795912 ; 2.0094153437274522E8 ; 6.120203754160908E7 ; 1.9049280752090214E10 ; 0.0
104 ; 664788.9204763223 ; 2.0094700623636505E8 ; 6.1868415261788666E7 ; 1.925022228646296E10 ; 0.0
105 ; 662499.1752038354 ; 2.0095247635972095E8 ; 6.253320418226499E7 ; 1.9451169292699326E10 ; 0.0
106 ; 663121.6379153746 ; 2.0095794437484112E8 ; 6.319570335746883E7 ; 1.9652121769059048E10 ; 0.0
107 ; 663609.2282498985 ; 2.0096340992259192E8 ; 6.38588249953842E7 ; 1.9853079713433887E10 ; 0.0
108 ; 660038.4871756164 ; 2.0096887265233535E8 ; 6.45224342236341E7 ; 2.005404312335648E10 ; 0.0
109 ; 660976.1162366696 ; 2.0097433222160223E8 ; 6.5182472710809715E7 ; 2.0255011996008816E10 ; 0.0
110 ; 662290.98463127 ; 2.0097978829577988E8 ; 6.584344882704639E7 ; 2.045598632823042E10 ; 0.0
111 ; 660624.5043236075 ; 2.00985240547814E8 ; 6.650573981167766E7 ; 2.06569661165262E10 ; 0.0
112 ; 661213.419452717 ; 2.009906886579238E8 ; 6.716636431600127E7 ; 2.0857951357074013E10 ; 0.0
113 ; 659797.3611706792 ; 2.0099613231332988E8 ; 6.782757773545398E7 ; 2.1058942045731937E10 ; 0.0
114 ; 657492.7742584394 ; 2.0100157120799428E8 ; 6.848737509662466E7 ; 2.125993817804527E10 ; 0.0
115 ; 658930.1851612468 ; 2.0100700504237202E8 ; 6.914486787088309E7 ; 2.146093974925326E10 ; 0.0
116 ; 657887.0278658695 ; 2.010124335231733E8 ; 6.980379805604434E7 ; 2.1661946754295635E10 ; 0.0
117 ; 656847.2128249728 ; 2.010178563631368E8 ; 7.046168508391021E7 ; 2.186295918781881E10 ; 0.0
118 ; 656424.8974981302 ; 2.010232732808122E8 ; 7.111853229673518E7 ; 2.2063977044181946E10 ; 0.0
119 ; 656807.8095406743 ; 2.0102868400035268E8 ; 7.177495719423331E7 ; 2.2265000317462757E10 ; 0.0
120 ; 653923.7720774477 ; 2.0103408825131613E8 ; 7.243176500377399E7 ; 2.2466029001463108E10 ; 0.0
121 ; 653176.9115867557 ; 2.0103948576847517E8 ; 7.308568877585143E7 ; 2.2667063089714424E10 ; 0.0
122 ; 653229.7337616882 ; 2.0104487629163525E8 ; 7.373886568743819E7 ; 2.28681025754829E10 ; 0.0
123 ; 653184.0007213046 ; 2.010502595654605E8 ; 7.439209542119987E7 ; 2.3069147451774532E10 ; 0.0
124 ; 653644.724512449 ; 2.010556353393071E8 ; 7.504527942192118E7 ; 2.3270197711339993E10 ; 0.0
125 ; 651825.3174952848 ; 2.0106100336706373E8 ; 7.569892414643362E7 ; 2.34712533466793E10 ; 0.0
126 ; 649239.2516697374 ; 2.0106636340699875E8 ; 7.635074946392891E7 ; 2.3672314350046364E10 ; 0.0
127 ; 649625.8861853956 ; 2.0107171522161385E8 ; 7.699998871559864E7 ; 2.387338071345336E10 ; 0.0
128 ; 648118.7992753205 ; 2.0107705857750374E8 ; 7.764961460178404E7 ; 2.4074452428674976E10 ; 0.0
129 ; 648247.2904960399 ; 2.010823932452219E8 ; 7.829773340105936E7 ; 2.427552948725248E10 ; 0.0
130 ; 647161.4537070191 ; 2.010877189991518E8 ; 7.89459806915554E7 ; 2.44766118804977E10 ; 0.0
131 ; 645320.0780591761 ; 2.010930356173833E8 ; 7.959314214526242E7 ; 2.4677699599496853E10 ; 0.0
132 ; 643017.675549722 ; 2.010983428815946E8 ; 8.02384622233216E7 ; 2.4878792635114235E10 ; 0.0
133 ; 641538.6601648502 ; 2.0110364057693845E8 ; 8.088147989887132E7 ; 2.507989097799583E10 ; 0.0
134 ; 639430.3417728465 ; 2.0110892849193358E8 ; 8.152301855903617E7 ; 2.528099461857277E10 ; 0.0
135 ; 638766.7204876093 ; 2.0111420641836014E8 ; 8.2162448900809E7 ; 2.54821035470647E10 ; 0.0
136 ; 634266.7636755682 ; 2.0111947415115958E8 ; 8.280121562129661E7 ; 2.5683217753483063E10 ; 0.0
137 ; 635044.7030701593 ; 2.011247314883386E8 ; 8.343548238497218E7 ; 2.5884337227634224E10 ; 0.0
138 ; 632865.5924332468 ; 2.0112997823087665E8 ; 8.407052708804235E7 ; 2.6085461959122562E10 ; 0.0
139 ; 629718.4802878728 ; 2.0113521418263775E8 ; 8.47033926804756E7 ; 2.628659193735344E10 ; 0.0
140 ; 629190.6637486572 ; 2.0114043915028512E8 ; 8.533311116076347E7 ; 2.6487727151536076E10 ; 0.0
141 ; 627258.2590676863 ; 2.0114565294319972E8 ; 8.596230182451212E7 ; 2.668886759068636E10 ; 0.0
142 ; 625949.8265376054 ; 2.0115085537340176E8 ; 8.658956008357981E7 ; 2.689001324362956E10 ; 0.0
143 ; 625547.9139974999 ; 2.0115604625547534E8 ; 8.721550991011742E7 ; 2.709116409900296E10 ; 0.0
144 ; 620960.3597744674 ; 2.0116122540649614E8 ; 8.784105782411492E7 ; 2.7292320145258434E10 ; 0.0
145 ; 621589.47750961 ; 2.0116639264596173E8 ; 8.846201818388939E7 ; 2.7493481370664932E10 ; 0.0
146 ; 620053.1405257124 ; 2.0117154779572496E8 ; 8.908360766139899E7 ; 2.7694647763310894E10 ; 0.0
147 ; 620028.1946538028 ; 2.011766906799294E8 ; 8.97036608019247E7 ; 2.789581931110662E10 ; 0.0
148 ; 617625.5616238938 ; 2.011818211249478E8 ; 9.032368899657851E7 ; 2.809699600178655E10 ; 0.0
149 ; 617430.14875746 ; 2.0118693895932245E8 ; 9.094131455820242E7 ; 2.8298177822911495E10 ; 0.0
150 ; 617223.3655778728 ; 2.0119204401370838E8 ; 9.155874470695987E7 ; 2.849936476187082E10 ; 0.0
151 ; 615266.8703997843 ; 2.01197136120818E8 ; 9.217596807253775E7 ; 2.870055680588453E10 ; 0.0
152 ; 614816.2317904454 ; 2.012022151153685E8 ; 9.279123494293754E7 ; 2.890175394200535E10 ; 0.0
153 ; 613038.056645343 ; 2.012072808340309E8 ; 9.340605117472798E7 ; 2.9102956157120716E10 ; 0.0
154 ; 612200.2212627645 ; 2.012123331153811E8 ; 9.401908923137332E7 ; 2.9304163437954746E10 ; 0.0
155 ; 611335.597507151 ; 2.012173717998527E8 ; 9.46312894526361E7 ; 2.9505375771070126E10 ; 0.0
156 ; 612894.5323198597 ; 2.0122239672969174E8 ; 9.524262505014324E7 ; 2.970659314286998E10 ; 0.0
157 ; 609928.5207087488 ; 2.0122740774891293E8 ; 9.58555195824631E7 ; 2.990781553959967E10 ; 0.0
158 ; 608966.2470349922 ; 2.012324047032577E8 ; 9.646544810317186E7 ; 3.0109042947348583E10 ; 0.0
159 ; 608695.9471856657 ; 2.0123738744015363E8 ; 9.707441435020685E7 ; 3.031027535205184E10 ; 0.0
160 ; 609110.7634963356 ; 2.0124235580867547E8 ; 9.768311029739252E7 ; 3.0511512739491997E10 ; 0.0
161 ; 606387.7412125838 ; 2.0124730965950757E8 ; 9.829222106088886E7 ; 3.071275509530067E10 ; 0.0
162 ; 605718.2448596559 ; 2.012522488449077E8 ; 9.889860880210143E7 ; 3.091400240496018E10 ; 0.0
163 ; 604474.9385644639 ; 2.0125717321867213E8 ; 9.950432704696108E7 ; 3.1115254653805084E10 ; 0.0
164 ; 602683.1297220738 ; 2.0126208263610205E8 ; 1.0010880198552555E8 ; 3.1316511827023758E10 ; 0.0
165 ; 602153.7943928029 ; 2.012669769539712E8 ; 1.0071148511524762E8 ; 3.151777390965986E10 ; 0.0
166 ; 601705.5645573736 ; 2.012718560304946E8 ; 1.0131363890964043E8 ; 3.171904088661383E10 ; 0.0
167 ; 600850.3030782151 ; 2.0127671972529843E8 ; 1.019153444741978E8 ; 3.1920312742644325E10 ; 0.0
168 ; 599114.6752405489 ; 2.0128156789939106E8 ; 1.0251619477727602E8 ; 3.2121589462369625E10 ; 0.0
169 ; 599257.0535986975 ; 2.0128640041513506E8 ; 1.0311530945251657E8 ; 3.2322871030269016E10 ; 0.0
170 ; 598745.616566658 ; 2.012912171362202E8 ; 1.0371456650611527E8 ; 3.252415743068415E10 ; 0.0
171 ; 596435.368025464 ; 2.0129601792763734E8 ; 1.0431331212268193E8 ; 3.272544864782037E10 ; 0.0
172 ; 595814.1381113621 ; 2.0130080265565345E8 ; 1.049097474907074E8 ; 3.292674466574801E10 ; 0.0
173 ; 595048.4615021865 ; 2.0130557118778735E8 ; 1.0550556162881877E8 ; 3.3128045468403664E10 ; 0.0
174 ; 594092.8655020499 ; 2.0131032339278626E8 ; 1.0610061009032094E8 ; 3.332935103959145E10 ; 0.0
175 ; 591899.2895074525 ; 2.0131505914060336E8 ; 1.0669470295582299E8 ; 3.3530661362984238E10 ; 0.0
176 ; 593411.0502899773 ; 2.013197783023759E8 ; 1.0728660224533044E8 ; 3.373197642212484E10 ; 0.0
177 ; 593758.066408242 ; 2.013244807504044E8 ; 1.0788001329562041E8 ; 3.3933296200427216E10 ; 0.0
178 ; 593333.5474979304 ; 2.0132916635813212E8 ; 1.0847377136202866E8 ; 3.413462068117762E10 ; 0.0
179 ; 592567.7442535991 ; 2.0133383500012574E8 ; 1.0906710490952659E8 ; 3.433594984753575E10 ; 0.0
180 ; 591270.563124086 ; 2.0133848655205628E8 ; 1.0965967265378019E8 ; 3.453728368253587E10 ; 0.0
181 ; 589193.9319944863 ; 2.01343120890681E8 ; 1.1025094321690428E8 ; 3.473862216908793E10 ; 0.0
182 ; 589658.2336267479 ; 2.013477378938257E8 ; 1.1084013714889877E8 ; 3.493996528997861E10 ; 0.0
183 ; 588607.584449538 ; 2.013523374403678E8 ; 1.1142979538252552E8 ; 3.514131302787244E10 ; 0.0
184 ; 589139.7239147916 ; 2.0135691941021982E8 ; 1.1201840296697506E8 ; 3.5342665365312805E10 ; 0.0
185 ; 587351.2033682598 ; 2.0136148368431363E8 ; 1.1260754269088985E8 ; 3.554402228472302E10 ; 0.0
186 ; 585867.2835110534 ; 2.0136603014458504E8 ; 1.1319489389425811E8 ; 3.574538376840733E10 ; 0.0
187 ; 586039.5794333703 ; 2.0137055867395908E8 ; 1.1378076117776917E8 ; 3.594674979855192E10 ; 0.0
188 ; 586075.6909062439 ; 2.0137506915633568E8 ; 1.1436680075720254E8 ; 3.6148120357225876E10 ; 0.0
189 ; 584454.9035205995 ; 2.0137956147657588E8 ; 1.1495287644810878E8 ; 3.634949542638221E10 ; 0.0
190 ; 584770.1474747068 ; 2.0138403552048847E8 ; 1.1553733135162938E8 ; 3.655087498785879E10 ; 0.0
191 ; 583771.7025428741 ; 2.013884911748171E8 ; 1.1612210149910408E8 ; 3.675225902337927E10 ; 0.0
192 ; 583853.4347774137 ; 2.0139292832722786E8 ; 1.1670587320164695E8 ; 3.695364751455409E10 ; 0.0
193 ; 583938.3731949864 ; 2.0139734686629725E8 ; 1.1728972663642436E8 ; 3.715504044288132E10 ; 0.0
194 ; 580515.8730452392 ; 2.0140174668150052E8 ; 1.1787366500961936E8 ; 3.735643778974761E10 ; 0.0
195 ; 580963.3033663804 ; 2.014061276632005E8 ; 1.1845418088266459E8 ; 3.7557839536429115E10 ; 0.0
196 ; 580306.2551765925 ; 2.0141048970263663E8 ; 1.1903514418603097E8 ; 3.7759245664092316E10 ; 0.0
197 ; 580864.7403926551 ; 2.014148326919146E8 ; 1.1961545044120756E8 ; 3.796065615379495E10 ; 0.0
198 ; 579531.0218063229 ; 2.014191565239961E8 ; 1.2019631518160021E8 ; 3.816207098648687E10 ; 0.0
199 ; 579648.0848055357 ; 2.0142346109268916E8 ; 1.2077584620340654E8 ; 3.8363490143010864E10 ; 0.0
200 ; 577156.1139858713 ; 2.0142774629263842E8 ; 1.2135549428821208E8 ; 3.856491360410355E10 ; 0.0
201 ; 577112.3959900467 ; 1.9488653425964057E8 ; 1.2193265040219794E8 ; 3.8766341350396194E10 ; 0.0
