CSV File for the City 1 on Day 66
1 - Minute m 
2 - Power Consumed at minute m 
3 - Power Produced at minute m 
4 - Energy Consumed since the beginning of the day 
5 - Energy Produced since the beginning of the day 
6 - Energy Lost since the beginning of the day on lines starting from the city
 
0 ; 1.5999494854220739E7 ; 1.0546749093447122E8 ; 0.0 ; 0.0 ; 0.0
1 ; 1.6015256788115911E7 ; 1.0562037598013204E8 ; 1.5999494854220739E7 ; 1.0546749093447122E8 ; 0.0
2 ; 1.6035179997189324E7 ; 1.060820480970858E8 ; 3.201475164233665E7 ; 2.1108786691460326E8 ; 0.0
3 ; 1.6057413994088773E7 ; 1.0685250924307132E8 ; 4.804993163952598E7 ; 3.1716991501168907E8 ; 0.0
4 ; 1.6078678299323807E7 ; 1.0793176118047428E8 ; 6.410734563361475E7 ; 4.240224242547604E8 ; 0.0
5 ; 1.6103778155182116E7 ; 1.0931980546392989E8 ; 8.018602393293856E7 ; 5.3195418543523467E8 ; 0.0
6 ; 1.6145515536081152E7 ; 1.1101664342911586E8 ; 9.628980208812067E7 ; 6.412739908991646E8 ; 0.0
7 ; 1.619787675448164E7 ; 1.130222761829195E8 ; 1.1243531762420182E8 ; 7.522906343282804E8 ; 0.0
8 ; 1.6277966201207375E7 ; 1.1533670459514505E8 ; 1.2863319437868346E8 ; 8.653129105112E8 ; 0.0
9 ; 1.6393620625889357E7 ; 1.17959929291906E8 ; 1.4491116057989085E8 ; 9.806496151063449E8 ; 0.0
10 ; 1.657348154969171E7 ; 1.2089195065081787E8 ; 1.613047812057802E8 ; 1.098609544398251E9 ; 0.0
11 ; 1.685942493368394E7 ; 1.2413276879807886E8 ; 1.7787826275547192E8 ; 1.219501495049069E9 ; 0.0
12 ; 1.732776285605753E7 ; 1.2768238360749075E8 ; 1.9473768768915585E8 ; 1.3436342638471477E9 ; 0.0
13 ; 1.7769153791653268E7 ; 1.3154079470143801E8 ; 2.1206545054521337E8 ; 1.4713166474546385E9 ; 0.0
14 ; 1.7825095514091387E7 ; 1.3570800145380723E8 ; 2.2983460433686665E8 ; 1.6028574421560764E9 ; 0.0
15 ; 1.784111420523497E7 ; 1.4018400299479407E8 ; 2.4765969985095805E8 ; 1.7385654436098838E9 ; 0.0
16 ; 1.7859324674964983E7 ; 1.4496879821751133E8 ; 2.6550081405619302E8 ; 1.878749446604678E9 ; 0.0
17 ; 1.788306956957958E7 ; 1.500623857862812E8 ; 2.83360138731158E8 ; 2.0237182448221893E9 ; 0.0
18 ; 1.7904414149051715E7 ; 1.5546476414646852E8 ; 3.012432083007376E8 ; 2.1737806306084704E9 ; 0.0
19 ; 1.7927418974462323E7 ; 1.611759315356876E8 ; 3.1914762244978935E8 ; 2.329245394754939E9 ; 0.0
20 ; 1.7947183264627974E7 ; 1.6719588599619958E8 ; 3.370750414242517E8 ; 2.4904213262906265E9 ; 0.0
21 ; 1.7967893955669396E7 ; 1.7352462538830462E8 ; 3.5502222468887967E8 ; 2.657617212286826E9 ; 0.0
22 ; 1.7985646048540417E7 ; 1.801621474045239E8 ; 3.729901186445491E8 ; 2.831141837675131E9 ; 0.0
23 ; 1.8009210052953105E7 ; 1.8710844958436823E8 ; 3.909757646930895E8 ; 3.0113039850796547E9 ; 0.0
24 ; 1.802547486079407E7 ; 1.9436352932948995E8 ; 4.089849747460426E8 ; 3.198412434664023E9 ; 0.0
25 ; 1.8050907615480185E7 ; 2.006154248172076E8 ; 4.270104496068367E8 ; 3.392775963993513E9 ; 0.0
26 ; 1.8071012910107993E7 ; 2.0061768105274785E8 ; 4.4506135722231686E8 ; 3.593391388810721E9 ; 0.0
27 ; 1.8092282634785593E7 ; 2.00620064409331E8 ; 4.6313237013242483E8 ; 3.7940090698634686E9 ; 0.0
28 ; 1.81126257567405E7 ; 2.0062257188980862E8 ; 4.812246527672104E8 ; 3.9946291342727995E9 ; 0.0
29 ; 1.812878126133937E7 ; 2.0062520043432283E8 ; 4.9933727852395093E8 ; 4.195251706162608E9 ; 0.0
30 ; 1.8154430936851274E7 ; 2.0062794693415317E8 ; 5.174660597852903E8 ; 4.395876906596931E9 ; 0.0
31 ; 1.8169579045393005E7 ; 2.0063080824490136E8 ; 5.3562049072214156E8 ; 4.596504853531085E9 ; 0.0
32 ; 1.8189258163167473E7 ; 2.0063378119893706E8 ; 5.537900697675346E8 ; 4.797135661775987E9 ; 0.0
33 ; 1.820633374758091E7 ; 2.0063686261704665E8 ; 5.719793279307021E8 ; 4.997769442974924E9 ; 0.0
34 ; 1.822462718349106E7 ; 2.0064004931924528E8 ; 5.90185661678283E8 ; 5.19840630559197E9 ; 0.0
35 ; 1.8244894691451583E7 ; 2.0064333813472724E8 ; 6.084102888617741E8 ; 5.399046354911216E9 ; 0.0
36 ; 1.8254615659208726E7 ; 2.006467259109462E8 ; 6.266551835532256E8 ; 5.599689693045943E9 ; 0.0
37 ; 1.827590404009771E7 ; 2.0065020952182716E8 ; 6.449097992124344E8 ; 5.800336418956889E9 ; 0.0
38 ; 1.829182010884119E7 ; 2.006537858751258E8 ; 6.631857032525321E8 ; 6.000986628478716E9 ; 0.0
39 ; 1.830109250486647E7 ; 2.006574519189575E8 ; 6.814775233613733E8 ; 6.201640414353842E9 ; 0.0
40 ; 1.8317805334861193E7 ; 2.0066120464752862E8 ; 6.997786158662398E8 ; 6.4022978662727995E9 ; 0.0
41 ; 1.8330926381512266E7 ; 2.0066504110610586E8 ; 7.18096421201101E8 ; 6.602959070920328E9 ; 0.0
42 ; 1.8343826094742674E7 ; 2.0066895839526668E8 ; 7.364273475826132E8 ; 6.803624112026434E9 ; 0.0
43 ; 1.8353975013943322E7 ; 2.0067295367447475E8 ; 7.547711736773559E8 ; 7.0042930704217005E9 ; 0.0
44 ; 1.8366150002770007E7 ; 2.0067702416502818E8 ; 7.731251486912992E8 ; 7.204966024096175E9 ; 0.0
45 ; 1.8370174544119053E7 ; 2.006811671524277E8 ; 7.914912986940691E8 ; 7.405643048261204E9 ; 0.0
46 ; 1.8383089715564564E7 ; 2.0068537998821342E8 ; 8.098614732381881E8 ; 7.606324215413631E9 ; 0.0
47 ; 1.8394137349867117E7 ; 2.0068966009131712E8 ; 8.282445629537528E8 ; 7.807009595401845E9 ; 0.0
48 ; 1.839708867858326E7 ; 2.006940049489765E8 ; 8.466387003036199E8 ; 8.007699255493162E9 ; 0.0
49 ; 1.8409305302166015E7 ; 2.0069841211725566E8 ; 8.650357889822031E8 ; 8.208393260442139E9 ; 0.0
50 ; 1.8410260316623528E7 ; 2.007028792212146E8 ; 8.834450942843691E8 ; 8.409091672559394E9 ; 0.0
51 ; 1.8416679544541594E7 ; 2.007074039547671E8 ; 9.018553546009927E8 ; 8.60979455178061E9 ; 0.0
52 ; 1.842206465715568E7 ; 2.0071198408026552E8 ; 9.202720341455343E8 ; 8.810501955735376E9 ; 0.0
53 ; 1.8428851481200792E7 ; 2.0071661742784673E8 ; 9.386940988026899E8 ; 9.011213939815641E9 ; 0.0
54 ; 1.8431313812192515E7 ; 2.0072130189457235E8 ; 9.571229502838907E8 ; 9.211930557243488E9 ; 0.0
55 ; 1.843851776852992E7 ; 2.0072603544339234E8 ; 9.755542640960833E8 ; 9.412651859138062E9 ; 0.0
56 ; 1.844350978719277E7 ; 2.0073081610195985E8 ; 9.939927818646132E8 ; 9.613377894581453E9 ; 0.0
57 ; 1.844337336938243E7 ; 2.0073564196132162E8 ; 1.012436291651806E9 ; 9.814108710683413E9 ; 0.0
58 ; 1.845505550440524E7 ; 2.0074051117450657E8 ; 1.0308796650211884E9 ; 1.0014844352644733E10 ; 0.0
59 ; 1.8452626602475107E7 ; 2.0074542195503256E8 ; 1.0493347205255936E9 ; 1.021558486381924E10 ; 0.0
60 ; 1.8460128954457875E7 ; 2.0075037257534957E8 ; 1.0677873471280687E9 ; 1.0416330285774273E10 ; 0.0
61 ; 1.8463721347096562E7 ; 2.0075536136523485E8 ; 1.0862474760825264E9 ; 1.0617080658349623E10 ; 0.0
62 ; 1.846847478263904E7 ; 2.007603867101548E8 ; 1.1047111974296231E9 ; 1.0817836019714857E10 ; 0.0
63 ; 1.8466556038209613E7 ; 2.0076544704960555E8 ; 1.1231796722122622E9 ; 1.1018596406425013E10 ; 0.0
64 ; 1.8472014091640327E7 ; 2.0077054087544358E8 ; 1.1416462282504718E9 ; 1.1219361853474619E10 ; 0.0
65 ; 1.8476902427959472E7 ; 2.007756667302155E8 ; 1.160118242342112E9 ; 1.1420132394350063E10 ; 0.0
66 ; 1.8478548376982406E7 ; 2.007808232054955E8 ; 1.1785951447700715E9 ; 1.1620908061080278E10 ; 0.0
67 ; 1.8484147687614463E7 ; 2.0078600894023734E8 ; 1.197073693147054E9 ; 1.1821688884285774E10 ; 0.0
68 ; 1.8483240298913863E7 ; 2.007912226191469E8 ; 1.2155578408346684E9 ; 1.2022474893226011E10 ; 0.0
69 ; 1.848803100032199E7 ; 2.0079646297108033E8 ; 1.2340410811335824E9 ; 1.2223266115845158E10 ; 0.0
70 ; 1.8483148489219885E7 ; 2.00801728767472E8 ; 1.2525291121339045E9 ; 1.2424062578816238E10 ; 0.0
71 ; 1.84872844682585E7 ; 2.0080701882079574E8 ; 1.2710122606231244E9 ; 1.262486430758371E10 ; 0.0
72 ; 1.8490217961848978E7 ; 2.0081233198306197E8 ; 1.289499545091383E9 ; 1.2825671326404505E10 ; 0.0
73 ; 1.84931316426793E7 ; 2.0081766714435312E8 ; 1.307989763053232E9 ; 1.3026483658387568E10 ; 0.0
74 ; 1.8488723632203393E7 ; 2.00823023231399E8 ; 1.3264828946959112E9 ; 1.3227301325531921E10 ; 0.0
75 ; 1.849538447841385E7 ; 2.008283992061929E8 ; 1.3449716183281145E9 ; 1.342812434876332E10 ; 0.0
76 ; 1.8490329825371325E7 ; 2.0083379406465024E8 ; 1.3634670028065283E9 ; 1.3628952747969513E10 ; 0.0
77 ; 1.849710216272254E7 ; 2.0083920683530885E8 ; 1.3819573326318996E9 ; 1.3829786542034163E10 ; 0.0
78 ; 1.849031120916691E7 ; 2.0084463657807252E8 ; 1.4004544347946222E9 ; 1.403062574886947E10 ; 0.0
79 ; 1.848678153809184E7 ; 2.0085008238299662E8 ; 1.4189447460037892E9 ; 1.4231470385447542E10 ; 0.0
80 ; 1.8482151775468804E7 ; 2.008555433691162E8 ; 1.437431527541881E9 ; 1.443232046783054E10 ; 0.0
81 ; 1.8475415008213457E7 ; 2.0086101868331578E8 ; 1.45591367931735E9 ; 1.4633176011199656E10 ; 0.0
82 ; 1.8472690427923523E7 ; 2.0086650749924043E8 ; 1.4743890943255634E9 ; 1.483403702988297E10 ; 0.0
83 ; 1.8470395615605667E7 ; 2.0087200901624703E8 ; 1.4928617847534869E9 ; 1.5034903537382212E10 ; 0.0
84 ; 1.8459261528098933E7 ; 2.0087752245839554E8 ; 1.5113321803690925E9 ; 1.5235775546398458E10 ; 0.0
85 ; 1.8456772732806604E7 ; 2.0088304707347852E8 ; 1.5297914418971913E9 ; 1.5436653068856853E10 ; 0.0
86 ; 1.8446140227601826E7 ; 2.0088858213208866E8 ; 1.548248214629998E9 ; 1.5637536115930332E10 ; 0.0
87 ; 1.8442882660217255E7 ; 2.0089412692672282E8 ; 1.5666943548575997E9 ; 1.583842469806242E10 ; 0.0
88 ; 1.8432447361768674E7 ; 2.008996807709217E8 ; 1.585137237517817E9 ; 1.6039318824989143E10 ; 0.0
89 ; 1.843004559090825E7 ; 2.0090524299844393E8 ; 1.6035696848795857E9 ; 1.6240218505760065E10 ; 0.0
90 ; 1.8424338069405407E7 ; 2.009108129624735E8 ; 1.621999730470494E9 ; 1.6441123748758509E10 ; 0.0
91 ; 1.8415960448176183E7 ; 2.0091639003485975E8 ; 1.6404240685398993E9 ; 1.6642034561720982E10 ; 0.0
92 ; 1.840780999977594E7 ; 2.009219736053879E8 ; 1.6588400289880755E9 ; 1.6842950951755842E10 ; 0.0
93 ; 1.8402382003567863E7 ; 2.0092756308108023E8 ; 1.6772478389878514E9 ; 1.704387292536123E10 ; 0.0
94 ; 1.8394912118573993E7 ; 2.0093315788552573E8 ; 1.6956502209914193E9 ; 1.724480048844231E10 ; 0.0
95 ; 1.8388263542341072E7 ; 2.0093875745823777E8 ; 1.7140451331099932E9 ; 1.7445733646327835E10 ; 0.0
96 ; 1.8377225377393156E7 ; 2.0094436125403848E8 ; 1.7324333966523342E9 ; 1.764667240378607E10 ; 0.0
97 ; 1.8373922207397245E7 ; 2.009499687424688E8 ; 1.7508106220297275E9 ; 1.784761676504011E10 ; 0.0
98 ; 1.836266516973469E7 ; 2.009555794072235E8 ; 1.7691845442371247E9 ; 1.804856673378258E10 ; 0.0
99 ; 1.8351247367043152E7 ; 2.009611927456094E8 ; 1.7875472094068594E9 ; 1.8249522313189804E10 ; 0.0
100 ; 1.834443130777463E7 ; 2.0096680826802692E8 ; 1.8058984567739027E9 ; 1.8450483505935413E10 ; 0.0
101 ; 1.833946087764169E7 ; 2.00972425497473E8 ; 1.8242428880816772E9 ; 1.865145031420344E10 ; 0.0
102 ; 1.8335091659625933E7 ; 2.0097804396906522E8 ; 1.8425823489593189E9 ; 1.8852422739700916E10 ; 0.0
103 ; 1.8322243706390984E7 ; 2.009836632295857E8 ; 1.860917440618945E9 ; 1.9053400783669983E10 ; 0.0
104 ; 1.8307376003581345E7 ; 2.0098928283704454E8 ; 1.879239684325336E9 ; 1.925438444689957E10 ; 0.0
105 ; 1.8303007900496878E7 ; 2.0099490236026114E8 ; 1.8975470603289173E9 ; 1.9455373729736614E10 ; 0.0
106 ; 1.829054167669017E7 ; 2.0100052137846372E8 ; 1.9158500682294142E9 ; 1.9656368632096874E10 ; 0.0
107 ; 1.8280020500640087E7 ; 2.0100613948090518E8 ; 1.9341406099061043E9 ; 1.9857369153475338E10 ; 0.0
108 ; 1.8272015288297065E7 ; 2.010117562664953E8 ; 1.9524206304067445E9 ; 2.005837529295624E10 ; 0.0
109 ; 1.8262366475381237E7 ; 2.0101737134344834E8 ; 1.9706926456950417E9 ; 2.0259387049222736E10 ; 0.0
110 ; 1.8248235894164063E7 ; 2.0102298432894546E8 ; 1.9889550121704228E9 ; 2.0460404420566185E10 ; 0.0
111 ; 1.824371665260023E7 ; 2.0102859484881097E8 ; 2.0072032480645869E9 ; 2.066142740489513E10 ; 0.0
112 ; 1.8232229301763512E7 ; 2.0103420253720257E8 ; 2.0254469647171872E9 ; 2.0862455999743942E10 ; 0.0
113 ; 1.8219270637097966E7 ; 2.010398070363139E8 ; 2.0436791940189507E9 ; 2.1063490202281143E10 ; 0.0
114 ; 1.821032751725192E7 ; 2.0104540799608994E8 ; 2.0618984646560488E9 ; 2.1264530009317455E10 ; 0.0
115 ; 1.8199938791536335E7 ; 2.0105100507395405E8 ; 2.0801087921733007E9 ; 2.1465575417313545E10 ; 0.0
116 ; 1.8186461121836174E7 ; 2.0105659793454605E8 ; 2.098308730964837E9 ; 2.16666264223875E10 ; 0.0
117 ; 1.8175401107514556E7 ; 2.0106218624947158E8 ; 2.1164951920866733E9 ; 2.186768302032205E10 ; 0.0
118 ; 1.816232966663156E7 ; 2.010677696970612E8 ; 2.1346705931941879E9 ; 2.2068745206571518E10 ; 0.0
119 ; 1.815374659132238E7 ; 2.0107334796214002E8 ; 2.1528329228608193E9 ; 2.2269812976268578E10 ; 0.0
120 ; 1.81399740048132E7 ; 2.0107892073580614E8 ; 2.170986669452142E9 ; 2.2470886324230717E10 ; 0.0
121 ; 1.8129608109381773E7 ; 2.0108448771521848E8 ; 2.189126643456955E9 ; 2.2671965244966522E10 ; 0.0
122 ; 1.811509609501121E7 ; 2.0109004860339326E8 ; 2.2072562515663366E9 ; 2.287304973268174E10 ; 0.0
123 ; 1.8107441286566276E7 ; 2.010956031090084E8 ; 2.225371347661348E9 ; 2.3074139781285133E10 ; 0.0
124 ; 1.8089424882547565E7 ; 2.011011509462163E8 ; 2.243478788947914E9 ; 2.3275235384394142E10 ; 0.0
125 ; 1.807619740228521E7 ; 2.011066918344637E8 ; 2.2615682138304615E9 ; 2.347633653534036E10 ; 0.0
126 ; 1.8061609775606815E7 ; 2.0111222549831918E8 ; 2.2796444112327466E9 ; 2.3677443227174824E10 ; 0.0
127 ; 1.804873949335494E7 ; 2.0111775166730717E8 ; 2.297706021008353E9 ; 2.387855545267314E10 ; 0.0
128 ; 1.8037695343503337E7 ; 2.0112327007574895E8 ; 2.315754760501708E9 ; 2.407967320434045E10 ; 0.0
129 ; 1.8022458342068624E7 ; 2.0112878046260968E8 ; 2.3337924558452115E9 ; 2.42807964744162E10 ; 0.0
130 ; 1.8002043696323767E7 ; 2.0113428257135168E8 ; 2.35181491418728E9 ; 2.4481925254878807E10 ; 0.0
131 ; 1.798585130198426E7 ; 2.0113977614979336E8 ; 2.369816957883604E9 ; 2.4683059537450157E10 ; 0.0
132 ; 1.796636257065434E7 ; 2.0114526094997382E8 ; 2.3878028091855884E9 ; 2.488419931359995E10 ; 0.0
133 ; 1.7946944201793686E7 ; 2.011507367280227E8 ; 2.4057691717562428E9 ; 2.5085344574549923E10 ; 0.0
134 ; 1.792715713694039E7 ; 2.011562032440351E8 ; 2.4237161159580364E9 ; 2.5286495311277946E10 ; 0.0
135 ; 1.7904827881209344E7 ; 2.0116166026195136E8 ; 2.441643273094977E9 ; 2.548765151452198E10 ; 0.0
136 ; 1.7885466618027378E7 ; 2.0116710754944158E8 ; 2.4595481009761863E9 ; 2.568881317478393E10 ; 0.0
137 ; 1.786740834413869E7 ; 2.0117254487779456E8 ; 2.4774335675942135E9 ; 2.5889980282333374E10 ; 0.0
138 ; 1.7843768823371228E7 ; 2.011779720218109E8 ; 2.495300975938352E9 ; 2.609115282721117E10 ; 0.0
139 ; 1.782947751086648E7 ; 2.0118338875970036E8 ; 2.5131447447617235E9 ; 2.6292330799232983E10 ; 0.0
140 ; 1.7805385959678452E7 ; 2.0118879487298313E8 ; 2.53097422227259E9 ; 2.6493514187992683E10 ; 0.0
141 ; 1.778511309113933E7 ; 2.0119419014639476E8 ; 2.548779608232269E9 ; 2.6694702982865665E10 ; 0.0
142 ; 1.7761425604067586E7 ; 2.0119957436779475E8 ; 2.566564721323408E9 ; 2.6895897173012062E10 ; 0.0
143 ; 1.7742751039725263E7 ; 2.012049473280786E8 ; 2.584326146927476E9 ; 2.7097096747379856E10 ; 0.0
144 ; 1.7718153467415355E7 ; 2.0121030882109317E8 ; 2.602068897967201E9 ; 2.7298301694707935E10 ; 0.0
145 ; 1.7707638362289492E7 ; 2.0121565864355522E8 ; 2.6197870514346166E9 ; 2.749951200352903E10 ; 0.0
146 ; 1.7692409002068087E7 ; 2.0122099659497297E8 ; 2.637494689796906E9 ; 2.7700727662172585E10 ; 0.0
147 ; 1.767788688320141E7 ; 2.012263224775706E8 ; 2.655187098798974E9 ; 2.790194865876756E10 ; 0.0
148 ; 1.7661244952356987E7 ; 2.0123163609621552E8 ; 2.6728649856821756E9 ; 2.810317498124513E10 ; 0.0
149 ; 1.7647434408337705E7 ; 2.0123693725834846E8 ; 2.6905262306345325E9 ; 2.8304406617341343E10 ; 0.0
150 ; 1.763312183856028E7 ; 2.012422257739159E8 ; 2.70817366504287E9 ; 2.8505643554599693E10 ; 0.0
151 ; 1.7615708973165836E7 ; 2.0124750145530522E8 ; 2.72580678688143E9 ; 2.8706885780373608E10 ; 0.0
152 ; 1.7606334491240658E7 ; 2.0125276411728203E8 ; 2.743422495854596E9 ; 2.8908133281828915E10 ; 0.0
153 ; 1.7588586613315176E7 ; 2.0125801357692996E8 ; 2.7610288303458366E9 ; 2.9109386045946198E10 ; 0.0
154 ; 1.757340158516208E7 ; 2.0126324965359253E8 ; 2.7786174169591517E9 ; 2.931064405952313E10 ; 0.0
155 ; 1.755806305120806E7 ; 2.01268472168817E8 ; 2.796190818544314E9 ; 2.951190730917672E10 ; 0.0
156 ; 1.7538607498998366E7 ; 2.012736809463007E8 ; 2.813748881595522E9 ; 2.9713175781345535E10 ; 0.0
157 ; 1.752372568263776E7 ; 2.012788758118385E8 ; 2.83128748909452E9 ; 2.9914449462291836E10 ; 0.0
158 ; 1.751041248682838E7 ; 2.012840565932732E8 ; 2.848811214777158E9 ; 3.0115728338103676E10 ; 0.0
159 ; 1.7497896090162292E7 ; 2.0128922312044668E8 ; 2.866321627263986E9 ; 3.031701239469695E10 ; 0.0
160 ; 1.7475228346944474E7 ; 2.0129437522515342E8 ; 2.8838195233541484E9 ; 3.0518301617817394E10 ; 0.0
161 ; 1.7462280637191605E7 ; 2.0129951274109545E8 ; 2.9012947517010927E9 ; 3.071959599304255E10 ; 0.0
162 ; 1.7447271039937872E7 ; 2.0130463550383905E8 ; 2.9187570323382845E9 ; 3.0920895505783646E10 ; 0.0
163 ; 1.7433399280986454E7 ; 2.0130974335077256E8 ; 2.9362043033782225E9 ; 3.1122200141287483E10 ; 0.0
164 ; 1.7415883272193834E7 ; 2.0131483612106627E8 ; 2.953637702659209E9 ; 3.1323509884638256E10 ; 0.0
165 ; 1.7402222044972822E7 ; 2.0131991365563324E8 ; 2.9710535859314027E9 ; 3.1524824720759323E10 ; 0.0
166 ; 1.73799818911696E7 ; 2.0132497579709163E8 ; 2.9884558079763756E9 ; 3.1726144634414955E10 ; 0.0
167 ; 1.736711986282186E7 ; 2.0133002238972852E8 ; 3.005835789867545E9 ; 3.1927469610212048E10 ; 0.0
168 ; 1.7354747917475313E7 ; 2.013350532794646E8 ; 3.023202909730367E9 ; 3.2128799632601776E10 ; 0.0
169 ; 1.733434211988635E7 ; 2.013400683138205E8 ; 3.0405576576478424E9 ; 3.233013468588124E10 ; 0.0
170 ; 1.7316099298770048E7 ; 2.01345067341884E8 ; 3.057891999767729E9 ; 3.253147475419506E10 ; 0.0
171 ; 1.7304667821570925E7 ; 2.0135005021427843E8 ; 3.0752080990664988E9 ; 3.2732819821536945E10 ; 0.0
172 ; 1.7287237539945934E7 ; 2.013550167831322E8 ; 3.0925127668880696E9 ; 3.2934169871751225E10 ; 0.0
173 ; 1.7270855895141557E7 ; 2.013599669020494E8 ; 3.1098000044280157E9 ; 3.3135524888534355E10 ; 0.0
174 ; 1.7259526053185415E7 ; 2.0136490042608118E8 ; 3.1270708603231573E9 ; 3.3336884855436405E10 ; 0.0
175 ; 1.724658861339718E7 ; 2.0136981721169847E8 ; 3.144330386376343E9 ; 3.3538249755862488E10 ; 0.0
176 ; 1.723845714717658E7 ; 2.013747171167653E8 ; 3.16157697498974E9 ; 3.3739619573074184E10 ; 0.0
177 ; 1.722709465666117E7 ; 2.013796000005131E8 ; 3.1788154321369166E9 ; 3.394099429019095E10 ; 0.0
178 ; 1.7214883383232333E7 ; 2.0138446572351605E8 ; 3.1960425267935777E9 ; 3.4142373890191463E10 ; 0.0
179 ; 1.7208784447875485E7 ; 2.0138931414766693E8 ; 3.21325741017681E9 ; 3.4343758355914978E10 ; 0.0
180 ; 1.7193837526881553E7 ; 2.0139414513615412E8 ; 3.2304661946246853E9 ; 3.4545147670062645E10 ; 0.0
181 ; 1.7187596554503154E7 ; 2.013989585534391E8 ; 3.247660032151567E9 ; 3.47465418151988E10 ; 0.0
182 ; 1.717558304836922E7 ; 2.0140375426523492E8 ; 3.26484762870607E9 ; 3.4947940773752235E10 ; 0.0
183 ; 1.716763724500258E7 ; 2.014085321384851E8 ; 3.2820232117544394E9 ; 3.514934452801747E10 ; 0.0
184 ; 1.7160773115446072E7 ; 2.0141329204134363E8 ; 3.299190848999442E9 ; 3.535075306015596E10 ; 0.0
185 ; 1.7143520471088592E7 ; 2.0141803384315515E8 ; 3.316351622114888E9 ; 3.55521663521973E10 ; 0.0
186 ; 1.7138619981070302E7 ; 2.0142275741443625E8 ; 3.3334951425859766E9 ; 3.575358438604046E10 ; 0.0
187 ; 1.7122987775961634E7 ; 2.0142746262685713E8 ; 3.350633762567047E9 ; 3.5955007143454895E10 ; 0.0
188 ; 1.7119833958064515E7 ; 2.0143214935322377E8 ; 3.3677567503430085E9 ; 3.615643460608175E10 ; 0.0
189 ; 1.710464263558599E7 ; 2.0143681746746102E8 ; 3.384876584301073E9 ; 3.6357866755434975E10 ; 0.0
190 ; 1.710066838578538E7 ; 2.0144146684459588E8 ; 3.401981226936659E9 ; 3.6559303572902435E10 ; 0.0
191 ; 1.7085969559100736E7 ; 2.014460973607416E8 ; 3.4190818953224444E9 ; 3.676074503974703E10 ; 0.0
192 ; 1.70781495413298E7 ; 2.0145070889308214E8 ; 3.436167864881545E9 ; 3.696219113710777E10 ; 0.0
193 ; 1.706683470386105E7 ; 2.0145530131985718E8 ; 3.453246014422875E9 ; 3.7163641846000854E10 ; 0.0
194 ; 1.70542833868924E7 ; 2.0145987452034765E8 ; 3.470312849126736E9 ; 3.736509714732071E10 ; 0.0
195 ; 1.7043510909234315E7 ; 2.0146442837486172E8 ; 3.4873671325136285E9 ; 3.756655702184106E10 ; 0.0
