CSV File for the City 3 on Day 31
1 - Minute m 
2 - Power Consumed at minute m 
3 - Power Produced at minute m 
4 - Energy Consumed since the beginning of the day 
5 - Energy Produced since the beginning of the day 
6 - Energy Lost since the beginning of the day on lines starting from the city
 
0 ; 2372192.4112432194 ; 1.0527280445152596E8 ; 0.0 ; 0.0 ; 0.0
1 ; 2375806.0328527894 ; 1.054243214083212E8 ; 2372192.4112432194 ; 1.0527280445152596E8 ; 0.0
2 ; 2378154.6800408284 ; 1.0588471210229757E8 ; 4747998.444096008 ; 2.1069712585984716E8 ; 0.0
3 ; 2380095.4025548403 ; 1.0665399397360283E8 ; 7126153.124136837 ; 3.1658183796214473E8 ; 0.0
4 ; 2384591.6550009483 ; 1.077321842821703E8 ; 9506248.526691677 ; 4.2323583193574756E8 ; 0.0
5 ; 2387371.7632539663 ; 1.0911929964160073E8 ; 1.1890840181692626E7 ; 5.3096801621791786E8 ; 0.0
6 ; 2394039.6237461045 ; 1.1081535548855457E8 ; 1.4278211944946593E7 ; 6.400873158595185E8 ; 0.0
7 ; 2401673.5755119557 ; 1.1282036551504147E8 ; 1.6672251568692697E7 ; 7.509026713480731E8 ; 0.0
8 ; 2412529.737795328 ; 1.1513434110279572E8 ; 1.9073925144204654E7 ; 8.637230368631146E8 ; 0.0
9 ; 2430631.7489994196 ; 1.1775729080755359E8 ; 2.148645488199998E7 ; 9.788573779659103E8 ; 0.0
10 ; 2456721.9308641437 ; 1.2068921994363022E8 ; 2.39170866309994E7 ; 1.096614668773464E9 ; 0.0
11 ; 2498276.8182248413 ; 1.2393013031372645E8 ; 2.6373808561863545E7 ; 1.2173038887170942E9 ; 0.0
12 ; 2563262.8960471065 ; 1.2748002011514142E8 ; 2.8872085380088385E7 ; 1.3412340190308206E9 ; 0.0
13 ; 2625908.8804508517 ; 1.3133888403355998E8 ; 3.1435348276135493E7 ; 1.468714039145962E9 ; 0.0
14 ; 2634396.8836855562 ; 1.3550671351324594E8 ; 3.406125715658634E7 ; 1.600052923179522E9 ; 0.0
15 ; 2638074.1710346024 ; 1.399834971724649E8 ; 3.66956540402719E7 ; 1.735559636692768E9 ; 0.0
16 ; 2641673.5491887447 ; 1.4476922131920734E8 ; 3.9333728211306505E7 ; 1.875543133865233E9 ; 0.0
17 ; 2643682.4106406504 ; 1.498638705168127E8 ; 4.197540176049525E7 ; 2.0203123551844404E9 ; 0.0
18 ; 2644995.558287201 ; 1.552674281516803E8 ; 4.46190841711359E7 ; 2.170176225701253E9 ; 0.0
19 ; 2649120.199751804 ; 1.6097987696387675E8 ; 4.7264079729423106E7 ; 2.3254436538529334E9 ; 0.0
20 ; 2654267.708945641 ; 1.670011995132543E8 ; 4.991319992917491E7 ; 2.48642353081681E9 ; 0.0
21 ; 2656466.67048415 ; 1.73331378565926E8 ; 5.256746763812055E7 ; 2.6534247303300643E9 ; 0.0
22 ; 2659332.6985609373 ; 1.7997039739660293E8 ; 5.5223934308604695E7 ; 2.8267561088959904E9 ; 0.0
23 ; 2662404.522977214 ; 1.8691824001032084E8 ; 5.788326700716563E7 ; 3.0067265062925935E9 ; 0.0
24 ; 2665494.8719135365 ; 1.9417489129224586E8 ; 6.054567153014284E7 ; 3.193644746302914E9 ; 0.0
25 ; 2668905.3728638072 ; 2.0042837799506631E8 ; 6.321116640205638E7 ; 3.38781963759516E9 ; 0.0
26 ; 2671849.3223203076 ; 2.0043223481651607E8 ; 6.588007177492019E7 ; 3.588248015590226E9 ; 0.0
27 ; 2674522.755758518 ; 2.0043621892774224E8 ; 6.85519210972405E7 ; 3.788680250406742E9 ; 0.0
28 ; 2676218.9741298016 ; 2.0044031919646132E8 ; 7.122644385299902E7 ; 3.989116469334484E9 ; 0.0
29 ; 2681174.2356733247 ; 2.004445254379358E8 ; 7.390266282712881E7 ; 4.1895567885309453E9 ; 0.0
30 ; 2684181.7456775475 ; 2.0044882836079967E8 ; 7.658383706280214E7 ; 4.390001313968881E9 ; 0.0
31 ; 2687772.004860704 ; 2.004532195061717E8 ; 7.926801880847968E7 ; 4.59045014232968E9 ; 0.0
32 ; 2688691.118893877 ; 2.0045769118391475E8 ; 8.195579081334038E7 ; 4.790903361835852E9 ; 0.0
33 ; 2691526.495530278 ; 2.0046223640880203E8 ; 8.464448193223426E7 ; 4.991361053019767E9 ; 0.0
34 ; 2694558.77004335 ; 2.0046684883848122E8 ; 8.733600842776453E7 ; 5.191823289428569E9 ; 0.0
35 ; 2697133.2756679086 ; 2.004715227144621E8 ; 9.003056719780788E7 ; 5.39229013826705E9 ; 0.0
36 ; 2699429.7688436434 ; 2.0047625280685672E8 ; 9.272770047347578E7 ; 5.592761660981512E9 ; 0.0
37 ; 2700853.01607618 ; 2.0048103436324054E8 ; 9.542713024231943E7 ; 5.793237913788369E9 ; 0.0
38 ; 2704430.507022185 ; 2.004858630617501E8 ; 9.812798325839561E7 ; 5.993718948151609E9 ; 0.0
39 ; 2705242.6023673224 ; 2.004907349683606E8 ; 1.008324137654178E8 ; 6.19420481121336E9 ; 0.0
40 ; 2708405.215448051 ; 2.0049564649817392E8 ; 1.0353765636778513E8 ; 6.394695546181721E9 ; 0.0
41 ; 2709842.151639101 ; 2.005005943804814E8 ; 1.0624606158323318E8 ; 6.595191192679894E9 ; 0.0
42 ; 2711577.0195165025 ; 2.0050557562732667E8 ; 1.0895590373487228E8 ; 6.795691787060376E9 ; 0.0
43 ; 2713575.388951329 ; 2.0051058750528187E8 ; 1.1166748075438878E8 ; 6.996197362687703E9 ; 0.0
44 ; 2714462.4425950986 ; 2.005156275101473E8 ; 1.1438105614334011E8 ; 7.196707950192985E9 ; 0.0
45 ; 2716414.0552542773 ; 2.0052069334429738E8 ; 1.170955185859352E8 ; 7.397223577703132E9 ; 0.0
46 ; 2716997.546134178 ; 2.0052578289640757E8 ; 1.1981193264118949E8 ; 7.597744271047429E9 ; 0.0
47 ; 2718428.687585453 ; 2.0053089422331905E8 ; 1.2252893018732366E8 ; 7.798270053943836E9 ; 0.0
48 ; 2720749.3433655333 ; 2.0053602553381482E8 ; 1.2524735887490912E8 ; 7.998800948167155E9 ; 0.0
49 ; 2720256.2050656844 ; 2.005411751741032E8 ; 1.2796810821827465E8 ; 8.19933697370097E9 ; 0.0
50 ; 2720735.2558652405 ; 2.0054634161482403E8 ; 1.3068836442334034E8 ; 8.3998781488750725E9 ; 0.0
51 ; 2723035.523710177 ; 2.0055152343941072E8 ; 1.3340909967920558E8 ; 8.600424490489897E9 ; 0.0
52 ; 2724360.8859219938 ; 2.0055671933365998E8 ; 1.3613213520291576E8 ; 8.800976013929308E9 ; 0.0
53 ; 2723947.638003999 ; 2.0056192807637656E8 ; 1.3885649608883774E8 ; 9.001532733262968E9 ; 0.0
54 ; 2725033.661321649 ; 2.005671485309743E8 ; 1.4158044372684175E8 ; 9.202094661339344E9 ; 0.0
55 ; 2724472.1869204985 ; 2.005723796379293E8 ; 1.443054773881634E8 ; 9.402661809870317E9 ; 0.0
56 ; 2725535.9067695583 ; 2.0057762040799135E8 ; 1.4702994957508388E8 ; 9.603234189508247E9 ; 0.0
57 ; 2726041.593460849 ; 2.0058286991607168E8 ; 1.4975548548185343E8 ; 9.803811809916239E9 ; 0.0
58 ; 2728819.951905393 ; 2.0058812729573298E8 ; 1.5248152707531428E8 ; 1.000439467983231E10 ; 0.0
59 ; 2727823.75921499 ; 2.005933917342176E8 ; 1.5521034702721968E8 ; 1.0204982807128042E10 ; 0.0
60 ; 2729298.7739253333 ; 2.005986624679561E8 ; 1.5793817078643468E8 ; 1.0405576198862259E10 ; 0.0
61 ; 2728687.792751182 ; 2.0060393877850458E8 ; 1.6066746956036E8 ; 1.0606174861330215E10 ; 0.0
62 ; 2731083.4458078067 ; 2.006092199888669E8 ; 1.633961573531112E8 ; 1.080677880010872E10 ; 0.0
63 ; 2729684.976931814 ; 2.0061450546016017E8 ; 1.6612724079891902E8 ; 1.1007388020097588E10 ; 0.0
64 ; 2731125.181660377 ; 2.0061979458858898E8 ; 1.6885692577585083E8 ; 1.1208002525557747E10 ; 0.0
65 ; 2731641.964615357 ; 2.0062508680269647E8 ; 1.7158805095751122E8 ; 1.1408622320146336E10 ; 0.0
66 ; 2732081.080722401 ; 2.006303815608635E8 ; 1.7431969292212656E8 ; 1.1609247406949032E10 ; 0.0
67 ; 2731035.5949005913 ; 2.0063567834903196E8 ; 1.7705177400284895E8 ; 1.1809877788509895E10 ; 0.0
68 ; 2733543.2362210583 ; 2.0064097667862898E8 ; 1.7978280959774953E8 ; 1.2010513466858927E10 ; 0.0
69 ; 2731607.294508481 ; 2.006462760846728E8 ; 1.8251635283397058E8 ; 1.2211154443537556E10 ; 0.0
70 ; 2732134.7612590473 ; 2.0065157612404203E8 ; 1.8524796012847906E8 ; 1.2411800719622229E10 ; 0.0
71 ; 2733858.689771467 ; 2.006568763738931E8 ; 1.879800948897381E8 ; 1.2612452295746271E10 ; 0.0
72 ; 2733324.3439647662 ; 2.0066217643021107E8 ; 1.907139535795096E8 ; 1.2813109172120165E10 ; 0.0
73 ; 2733169.1295074592 ; 2.0066747590648156E8 ; 1.9344727792347434E8 ; 1.3013771348550377E10 ; 0.0
74 ; 2733244.5745471823 ; 2.0067277443247262E8 ; 1.961804470529818E8 ; 1.3214438824456858E10 ; 0.0
75 ; 2732780.7897057156 ; 2.0067807165311548E8 ; 1.9891369162752897E8 ; 1.341511159888933E10 ; 0.0
76 ; 2733308.480145568 ; 2.0068336722747624E8 ; 2.016464724172347E8 ; 1.3615789670542446E10 ; 0.0
77 ; 2733353.35659568 ; 2.006886608278093E8 ; 2.0437978089738026E8 ; 1.3816473037769922E10 ; 0.0
78 ; 2733378.5946753765 ; 2.0069395213868564E8 ; 2.0711313425397593E8 ; 1.401716169859773E10 ; 0.0
79 ; 2731179.846770301 ; 2.0069924085618916E8 ; 2.098465128486513E8 ; 1.4217855650736416E10 ; 0.0
80 ; 2730646.9006958646 ; 2.007045266871752E8 ; 2.1257769269542158E8 ; 1.4418554891592606E10 ; 0.0
81 ; 2730539.766424449 ; 2.0070980934858555E8 ; 2.1530833959611744E8 ; 1.4619259418279781E10 ; 0.0
82 ; 2728920.627224967 ; 2.0071508856681523E8 ; 2.1803887936254188E8 ; 1.4819969227628366E10 ; 0.0
83 ; 2730541.4587492547 ; 2.0072036407712677E8 ; 2.2076779998976684E8 ; 1.502068431619518E10 ; 0.0
84 ; 2727819.9098858233 ; 2.007256356231078E8 ; 2.234983414485161E8 ; 1.5221404680272308E10 ; 0.0
85 ; 2727288.976115432 ; 2.0073090295616812E8 ; 2.2622616135840192E8 ; 1.5422130315895416E10 ; 0.0
86 ; 2726040.8378485753 ; 2.0073616583507356E8 ; 2.2895345033451736E8 ; 1.5622861218851583E10 ; 0.0
87 ; 2724840.3470796575 ; 2.007414240255129E8 ; 2.3167949117236593E8 ; 1.5823597384686657E10 ; 0.0
88 ; 2724548.3306452082 ; 2.0074667729969588E8 ; 2.344043315194456E8 ; 1.602433880871217E10 ; 0.0
89 ; 2724101.548932247 ; 2.00751925435979E8 ; 2.371288798500908E8 ; 1.6225085486011866E10 ; 0.0
90 ; 2722000.5268826745 ; 2.007571682185179E8 ; 2.3985298139902306E8 ; 1.6425837411447845E10 ; 0.0
91 ; 2722161.5318695763 ; 2.0076240543694308E8 ; 2.4257498192590573E8 ; 1.6626594579666363E10 ; 0.0
92 ; 2720357.481066453 ; 2.0076763688605824E8 ; 2.4529714345777532E8 ; 1.6827356985103306E10 ; 0.0
93 ; 2718407.883005659 ; 2.0077286236555862E8 ; 2.480175009388418E8 ; 1.7028124621989365E10 ; 0.0
94 ; 2717289.1526765767 ; 2.0077808167976838E8 ; 2.5073590882184744E8 ; 1.7228897484354923E10 ; 0.0
95 ; 2716341.6120314947 ; 2.0078329463739517E8 ; 2.5345319797452402E8 ; 1.742967556603469E10 ; 0.0
96 ; 2714859.887654748 ; 2.0078850105130103E8 ; 2.561695395865555E8 ; 1.7630458860672085E10 ; 0.0
97 ; 2714653.374258648 ; 2.00793700738288E8 ; 2.5888439947421026E8 ; 1.7831247361723385E10 ; 0.0
98 ; 2712257.665627377 ; 2.0079889351889756E8 ; 2.615990528484689E8 ; 1.8032041062461674E10 ; 0.0
99 ; 2711134.773184045 ; 2.00804079217223E8 ; 2.643113105140963E8 ; 1.823283995598057E10 ; 0.0
100 ; 2709098.2536401763 ; 2.0080925766073334E8 ; 2.6702244528728032E8 ; 1.8433644035197796E10 ; 0.0
101 ; 2707165.0189238824 ; 2.0081442868010858E8 ; 2.697315435409205E8 ; 1.863445329285853E10 ; 0.0
102 ; 2708423.042850522 ; 2.008195921090851E8 ; 2.724387085598444E8 ; 1.8835267721538635E10 ; 0.0
103 ; 2704303.7971453825 ; 2.008247477843105E8 ; 2.7514713160269487E8 ; 1.903608731364772E10 ; 0.0
104 ; 2702166.279790338 ; 2.0082989554520723E8 ; 2.7785143539984024E8 ; 1.923691206143203E10 ; 0.0
105 ; 2702969.734632492 ; 2.008350352338447E8 ; 2.805536016796306E8 ; 1.9437741956977238E10 ; 0.0
106 ; 2702946.521761194 ; 2.008401666948189E8 ; 2.8325657141426307E8 ; 1.9638576992211082E10 ; 0.0
107 ; 2697650.2101464276 ; 2.0084528977513924E8 ; 2.8595951793602425E8 ; 1.9839417158905903E10 ; 0.0
108 ; 2697196.020675373 ; 2.0085040432412195E8 ; 2.886571681461707E8 ; 2.004026244868104E10 ; 0.0
109 ; 2697049.3815322295 ; 2.008555101932898E8 ; 2.9135436416684604E8 ; 2.0241112853005165E10 ; 0.0
110 ; 2694434.57081622 ; 2.0086060723627776E8 ; 2.940514135483783E8 ; 2.0441968363198456E10 ; 0.0
111 ; 2692790.147510474 ; 2.0086569530874392E8 ; 2.967458481191945E8 ; 2.0642828970434734E10 ; 0.0
112 ; 2690135.9735934855 ; 2.0087077426828548E8 ; 2.99438638266705E8 ; 2.0843694665743477E10 ; 0.0
113 ; 2688929.1820179564 ; 2.0087584397435972E8 ; 3.0212877424029845E8 ; 2.104456544001176E10 ; 0.0
114 ; 2686291.362605909 ; 2.0088090428820914E8 ; 3.0481770342231643E8 ; 2.1245441283986122E10 ; 0.0
115 ; 2685628.707672948 ; 2.0088595507279104E8 ; 3.0750399478492236E8 ; 2.144632218827433E10 ; 0.0
116 ; 2683856.724531143 ; 2.0089099619271088E8 ; 3.101896234925953E8 ; 2.1647208143347122E10 ; 0.0
117 ; 2682592.492610933 ; 2.0089602751415917E8 ; 3.128734802171264E8 ; 2.1848099139539833E10 ; 0.0
118 ; 2679855.9757633395 ; 2.009010489048522E8 ; 3.1555607270973736E8 ; 2.2048995167053993E10 ; 0.0
119 ; 2677816.140005191 ; 2.0090606023397556E8 ; 3.182359286855007E8 ; 2.2249896215958847E10 ; 0.0
120 ; 2676234.7077625124 ; 2.0091106137213093E8 ; 3.2091374482550585E8 ; 2.245080227619282E10 ; 0.0
121 ; 2675599.162234313 ; 2.0091605219128585E8 ; 3.235899795332684E8 ; 2.2651713337564953E10 ; 0.0
122 ; 2672831.8524534316 ; 2.0092103256472573E8 ; 3.262655786955027E8 ; 2.2852629389756237E10 ; 0.0
123 ; 2670619.3687120597 ; 2.009260023670089E8 ; 3.289384105479561E8 ; 2.305355042232096E10 ; 0.0
124 ; 2670252.4086636 ; 2.0093096147392368E8 ; 3.316090299166682E8 ; 2.325447642468797E10 ; 0.0
125 ; 2666873.7082937085 ; 2.009359097624479E8 ; 3.3427928232533175E8 ; 2.3455407386161892E10 ; 0.0
126 ; 2664477.431932019 ; 2.009408471107103E8 ; 3.369461560336255E8 ; 2.365634329592434E10 ; 0.0
127 ; 2663060.6874095583 ; 2.0094577339795414E8 ; 3.396106334655575E8 ; 2.385728414303505E10 ; 0.0
128 ; 2659507.7089983174 ; 2.0095068850450265E8 ; 3.422736941529671E8 ; 2.4058229916433002E10 ; 0.0
129 ; 2657887.8399114492 ; 2.00955592311726E8 ; 3.449332018619654E8 ; 2.4259180604937504E10 ; 0.0
130 ; 2656529.1244553966 ; 2.009604847020104E8 ; 3.475910897018769E8 ; 2.446013619724923E10 ; 0.0
131 ; 2651778.640396744 ; 2.0096536555872822E8 ; 3.502476188263323E8 ; 2.466109668195124E10 ; 0.0
132 ; 2648968.8768735 ; 2.0097023476621008E8 ; 3.5289939746672904E8 ; 2.4862062047509968E10 ; 0.0
133 ; 2647468.7919761045 ; 2.009750922097181E8 ; 3.5554836634360254E8 ; 2.5063032282276176E10 ; 0.0
134 ; 2644750.4044546043 ; 2.0097993777542046E8 ; 3.5819583513557863E8 ; 2.5264007374485893E10 ; 0.0
135 ; 2642446.2819913495 ; 2.009847713503674E8 ; 3.608405855400332E8 ; 2.5464987312261314E10 ; 0.0
136 ; 2637805.6565593258 ; 2.0098959282246816E8 ; 3.634830318220246E8 ; 2.5665972083611683E10 ; 0.0
137 ; 2634831.8764486704 ; 2.0099440208046934E8 ; 3.6612083747858393E8 ; 2.586696167643415E10 ; 0.0
138 ; 2631076.8938882085 ; 2.00999199013934E8 ; 3.687556693550326E8 ; 2.606795607851462E10 ; 0.0
139 ; 2627824.580832337 ; 2.0100398351322207E8 ; 3.7138674624892086E8 ; 2.6268955277528557E10 ; 0.0
140 ; 2624455.0827680533 ; 2.010087554694715E8 ; 3.740145708297532E8 ; 2.646995926104178E10 ; 0.0
141 ; 2622015.497449401 ; 2.010135147745805E8 ; 3.766390259125213E8 ; 2.667096801651125E10 ; 0.0
142 ; 2619059.9903593217 ; 2.0101826132119042E8 ; 3.792610414099707E8 ; 2.687198153128583E10 ; 0.0
143 ; 2615290.090017317 ; 2.0102299500266966E8 ; 3.8188010140033E8 ; 2.707299979260702E10 ; 0.0
144 ; 2611784.109345765 ; 2.0102771571309826E8 ; 3.844953914903473E8 ; 2.727402278760969E10 ; 0.0
145 ; 2611184.1426454466 ; 2.010324233472532E8 ; 3.871071755996931E8 ; 2.747505050332279E10 ; 0.0
146 ; 2607169.9484441606 ; 2.0103711780059442E8 ; 3.8971835974233854E8 ; 2.767608292667004E10 ; 0.0
147 ; 2605446.029310068 ; 2.0104179896925163E8 ; 3.923255296907827E8 ; 2.7877120044470634E10 ; 0.0
148 ; 2602828.244617479 ; 2.010464667500114E8 ; 3.949309757200928E8 ; 2.8078161843439888E10 ; 0.0
149 ; 2600977.9017951568 ; 2.0105112104030547E8 ; 3.9753380396471024E8 ; 2.82792083101899E10 ; 0.0
150 ; 2597403.4679009663 ; 2.0105576173819876E8 ; 4.001347818665054E8 ; 2.8480259431230206E10 ; 0.0
151 ; 2595050.1369431405 ; 2.010603887423789E8 ; 4.027321853344064E8 ; 2.8681315192968403E10 ; 0.0
152 ; 2593596.2719940497 ; 2.0106500195214537E8 ; 4.0532723547134954E8 ; 2.888237558171078E10 ; 0.0
153 ; 2590551.643894566 ; 2.0106960126739985E8 ; 4.079208317433436E8 ; 2.9083440583662926E10 ; 0.0
154 ; 2589005.589465366 ; 2.0107418658863664E8 ; 4.1051138338723814E8 ; 2.9284510184930325E10 ; 0.0
155 ; 2586377.9537437703 ; 2.0107875781693354E8 ; 4.131003889767035E8 ; 2.9485584371518963E10 ; 0.0
156 ; 2585400.7255595014 ; 2.0108331485394338E8 ; 4.156867669304473E8 ; 2.9686663129335896E10 ; 0.0
157 ; 2581068.798564951 ; 2.0108785760188568E8 ; 4.1827216765600675E8 ; 2.988774644418984E10 ; 0.0
158 ; 2579899.4435623637 ; 2.0109238596353891E8 ; 4.208532364545717E8 ; 3.0088834301791725E10 ; 0.0
159 ; 2575534.5434921193 ; 2.010968998422331E8 ; 4.234331358981341E8 ; 3.0289926687755264E10 ; 0.0
160 ; 2573274.060352041 ; 2.0110139914184257E8 ; 4.2600867044162625E8 ; 3.0491023587597496E10 ; 0.0
161 ; 2571645.2401044844 ; 2.0110588376677933E8 ; 4.285819445019783E8 ; 3.0692124986739338E10 ; 0.0
162 ; 2569081.0861006686 ; 2.011103536219865E8 ; 4.311535897420828E8 ; 3.089323087050612E10 ; 0.0
163 ; 2566973.5716680256 ; 2.011148086129323E8 ; 4.337226708281835E8 ; 3.1094341224128105E10 ; 0.0
164 ; 2563709.557463597 ; 2.01119248645604E8 ; 4.362896443998515E8 ; 3.129545603274104E10 ; 0.0
165 ; 2561616.5536168106 ; 2.0112367362650272E8 ; 4.388533539573151E8 ; 3.1496575281386642E10 ; 0.0
166 ; 2559733.325024779 ; 2.0112808346263763E8 ; 4.414149705109319E8 ; 3.1697698955013145E10 ; 0.0
167 ; 2558022.882634554 ; 2.0113247806152132E8 ; 4.439747038359567E8 ; 3.1898827038475784E10 ; 0.0
168 ; 2553211.489090084 ; 2.0113685733116478E8 ; 4.465327267185913E8 ; 3.2099959516537304E10 ; 0.0
169 ; 2551092.458705297 ; 2.011412211800728E8 ; 4.4908593820768136E8 ; 3.230109637386847E10 ; 0.0
170 ; 2548887.9811282875 ; 2.0114556951723984E8 ; 4.5163703066638666E8 ; 3.2502237595048542E10 ; 0.0
171 ; 2546442.954306452 ; 2.0114990225214556E8 ; 4.5418591864751494E8 ; 3.270338316456578E10 ; 0.0
172 ; 2543421.2451258386 ; 2.0115421929475114E8 ; 4.5673236160182136E8 ; 3.2904533066817924E10 ; 0.0
173 ; 2540336.6969691436 ; 2.0115852055549544E8 ; 4.592757828469472E8 ; 3.3105687286112675E10 ; 0.0
174 ; 2539992.1602798114 ; 2.0116280594529143E8 ; 4.6181611954391634E8 ; 3.330684580666817E10 ; 0.0
175 ; 2538128.2791816695 ; 2.011670753755228E8 ; 4.6435611170419616E8 ; 3.350800861261346E10 ; 0.0
176 ; 2536502.0221402156 ; 2.0117132875804076E8 ; 4.668942399833778E8 ; 3.3709175687988983E10 ; 0.0
177 ; 2534896.8140688115 ; 2.0117556600516105E8 ; 4.69430742005518E8 ; 3.3910347016747025E10 ; 0.0
178 ; 2532899.967041884 ; 2.011797870296609E8 ; 4.719656388195868E8 ; 3.4111522582752186E10 ; 0.0
179 ; 2531164.7877860162 ; 2.011839917447765E8 ; 4.744985387866287E8 ; 3.4312702369781845E10 ; 0.0
180 ; 2530245.512844304 ; 2.0118818006420013E8 ; 4.7702970357441473E8 ; 3.451388636152662E10 ; 0.0
181 ; 2529063.5110312575 ; 2.011923519020779E8 ; 4.7955994908725905E8 ; 3.471507454159082E10 ; 0.0
182 ; 2528263.0965436343 ; 2.0119650717300743E8 ; 4.820890125982903E8 ; 3.49162668934929E10 ; 0.0
183 ; 2526131.2279505483 ; 2.0120064579203537E8 ; 4.8461727569483393E8 ; 3.51174634006659E10 ; 0.0
184 ; 2524833.09172575 ; 2.012047676746557E8 ; 4.871434069227845E8 ; 3.531866404645794E10 ; 0.0
185 ; 2524158.659581491 ; 2.0120887273680744E8 ; 4.896682400145103E8 ; 3.551986881413259E10 ; 0.0
186 ; 2521067.329117535 ; 2.0121296089487293E8 ; 4.9219239867409176E8 ; 3.57210776868694E10 ; 0.0
187 ; 2520771.7770747216 ; 2.0121703206567615E8 ; 4.947134660032093E8 ; 3.5922290647764275E10 ; 0.0
188 ; 2517091.5665087095 ; 2.012210861664808E8 ; 4.97234237780284E8 ; 3.612350767982995E10 ; 0.0
189 ; 2516833.279277626 ; 2.012251231149891E8 ; 4.997513293467927E8 ; 3.632472876599643E10 ; 0.0
190 ; 2515169.743277909 ; 2.0122914282933998E8 ; 5.022681626260703E8 ; 3.652595388911142E10 ; 0.0
191 ; 2513594.5192544106 ; 2.0123314522810796E8 ; 5.047833323693482E8 ; 3.672718303194076E10 ; 0.0
192 ; 2512266.3335052 ; 2.012371302303018E8 ; 5.072969268886026E8 ; 3.692841617716887E10 ; 0.0
193 ; 2510356.8156445217 ; 2.0124109775536314E8 ; 5.098091932221078E8 ; 3.712965330739917E10 ; 0.0
194 ; 2509770.72187917 ; 2.0124504772316566E8 ; 5.1231955003775233E8 ; 3.733089440515453E10 ; 0.0
195 ; 2508257.5769026102 ; 2.0124898005401376E8 ; 5.148293207596315E8 ; 3.75321394528777E10 ; 0.0
196 ; 2506441.747862643 ; 2.0125289466864178E8 ; 5.1733757833653414E8 ; 3.773338843293172E10 ; 0.0
197 ; 2503759.880900786 ; 2.0125679148821294E8 ; 5.198440200843968E8 ; 3.793464132760036E10 ; 0.0
198 ; 2502874.7365338337 ; 2.012606704343187E8 ; 5.223477799652976E8 ; 3.813589811908857E10 ; 0.0
199 ; 2501746.747674319 ; 2.0126453142897767E8 ; 5.248506547018314E8 ; 3.833715878952289E10 ; 0.0
200 ; 2500587.414639246 ; 2.012683743946353E8 ; 5.2735240144950575E8 ; 3.8538423320951866E10 ; 0.0
