CSV File for the City 1 on Day 67
1 - Minute m 
2 - Power Consumed at minute m 
3 - Power Produced at minute m 
4 - Energy Consumed since the beginning of the day 
5 - Energy Produced since the beginning of the day 
6 - Energy Lost since the beginning of the day on lines starting from the city
 
0 ; 1.6005404005609928E7 ; 1.0547123681322715E8 ; 0.0 ; 0.0 ; 0.0
1 ; 1.6022555650450902E7 ; 1.0562412733766258E8 ; 1.6005404005609928E7 ; 1.0547123681322715E8 ; 0.0
2 ; 1.6035345623342423E7 ; 1.0608580447160926E8 ; 3.202795965606083E7 ; 2.1109536415088972E8 ; 0.0
3 ; 1.6057569530503113E7 ; 1.0685627013661242E8 ; 4.8063305279403254E7 ; 3.17181168622499E8 ; 0.0
4 ; 1.6083968349545171E7 ; 1.0793552606191874E8 ; 6.412087480990636E7 ; 4.240374387591114E8 ; 0.0
5 ; 1.6109845697846767E7 ; 1.0932357377249491E8 ; 8.020484315945153E7 ; 5.3197296482103014E8 ; 0.0
6 ; 1.6144516041633694E7 ; 1.1102041457820293E8 ; 9.63146888572983E7 ; 6.41296538593525E8 ; 0.0
7 ; 1.620230819608715E7 ; 1.1302604956430924E8 ; 1.12459204898932E8 ; 7.52316953171728E8 ; 0.0
8 ; 1.6279513860848706E7 ; 1.1534047958348393E8 ; 1.2866151309501915E8 ; 8.653430027360373E8 ; 0.0
9 ; 1.6394866957480548E7 ; 1.1796370524942845E8 ; 1.4494102695586786E8 ; 9.806834823195212E8 ; 0.0
10 ; 1.6573400573542507E7 ; 1.2089572693224072E8 ; 1.613358939133484E8 ; 1.0986471875689497E9 ; 0.0
11 ; 1.6868816536718633E7 ; 1.2413654475560132E8 ; 1.779092944868909E8 ; 1.2195429145011904E9 ; 0.0
12 ; 1.7328211864087716E7 ; 1.2768615859582964E8 ; 1.9477811102360955E8 ; 1.3436794592567918E9 ; 0.0
13 ; 1.777342034139207E7 ; 1.3154456808282775E8 ; 2.1210632288769728E8 ; 1.4713656178526216E9 ; 0.0
14 ; 1.7826446922432587E7 ; 1.357117726028943E8 ; 2.2987974322908935E8 ; 1.6029101859354494E9 ; 0.0
15 ; 1.7844900424539488E7 ; 1.401877713033591E8 ; 2.4770619015152192E8 ; 1.7386219585383437E9 ; 0.0
16 ; 1.7866375608020186E7 ; 1.4497256309895578E8 ; 2.655510905760614E8 ; 1.8788097298417027E9 ; 0.0
17 ; 1.7886742095847018E7 ; 1.500661466798223E8 ; 2.8341746618408155E8 ; 2.0237822929406586E9 ; 0.0
18 ; 1.790388607934493E7 ; 1.5546852052099198E8 ; 3.0130420827992857E8 ; 2.173848439620481E9 ; 0.0
19 ; 1.7924848002715774E7 ; 1.6117968289321813E8 ; 3.192080943592735E8 ; 2.329316960141473E9 ; 0.0
20 ; 1.794820473982503E7 ; 1.671996318749555E8 ; 3.3713294236198926E8 ; 2.490496643034691E9 ; 0.0
21 ; 1.7970920641536143E7 ; 1.735283653653138E8 ; 3.5508114710181427E8 ; 2.6576962749096465E9 ; 0.0
22 ; 1.799158484602309E7 ; 1.8016588109778732E8 ; 3.730520677433504E8 ; 2.8312246402749605E9 ; 0.0
23 ; 1.801073073465496E7 ; 1.8711217665456563E8 ; 3.9104365258937347E8 ; 3.011390521372748E9 ; 0.0
24 ; 1.803111522543485E7 ; 1.9436724948123187E8 ; 4.0905438332402843E8 ; 3.1985026980273137E9 ; 0.0
25 ; 1.805322929603931E7 ; 2.0061913779984444E8 ; 4.270854985494633E8 ; 3.3928699475085454E9 ; 0.0
26 ; 1.8074059904262163E7 ; 2.006213866607544E8 ; 4.4513872784550256E8 ; 3.5934890853083897E9 ; 0.0
27 ; 1.8097717010522723E7 ; 2.0062376248229071E8 ; 4.6321278774976474E8 ; 3.794110471969144E9 ; 0.0
28 ; 1.8111570916927986E7 ; 2.0062626231202593E8 ; 4.8131050476028746E8 ; 3.9947342344514346E9 ; 0.0
29 ; 1.8132609523336913E7 ; 2.0062888313409618E8 ; 4.9942207567721546E8 ; 4.1953604967634606E9 ; 0.0
30 ; 1.8153036702644702E7 ; 2.0063162188274392E8 ; 5.1755468520055234E8 ; 4.395989379897557E9 ; 0.0
31 ; 1.8175544874374237E7 ; 2.0063447545523474E8 ; 5.3570772190319705E8 ; 4.596621001780301E9 ; 0.0
32 ; 1.8188225672324583E7 ; 2.006374407240724E8 ; 5.538832667775713E8 ; 4.797255477235536E9 ; 0.0
33 ; 1.820707765579796E7 ; 2.0064051454845396E8 ; 5.720714924498959E8 ; 4.997892917959608E9 ; 0.0
34 ; 1.8229889325231425E7 ; 2.006436937849236E8 ; 5.902785701056938E8 ; 5.198533432508062E9 ; 0.0
35 ; 1.8244537442118384E7 ; 2.0064697529719996E8 ; 6.085084594309253E8 ; 5.399177126292986E9 ; 0.0
36 ; 1.8258461511405043E7 ; 2.006503559651645E8 ; 6.267529968730437E8 ; 5.599824101590186E9 ; 0.0
37 ; 1.8280432270248514E7 ; 2.006538326930126E8 ; 6.450114583844486E8 ; 5.80047445755535E9 ; 0.0
38 ; 1.829018537690386E7 ; 2.0065740241657853E8 ; 6.632918906546972E8 ; 6.001128290248363E9 ; 0.0
39 ; 1.8306653796936467E7 ; 2.0066106210985535E8 ; 6.815820760316011E8 ; 6.201785692664941E9 ; 0.0
40 ; 1.8321049052755415E7 ; 2.0066480879073796E8 ; 6.998887298285376E8 ; 6.4024467547747965E9 ; 0.0
41 ; 1.8330131857523993E7 ; 2.0066863952602386E8 ; 7.18209778881293E8 ; 6.603111563565535E9 ; 0.0
42 ; 1.834514694728523E7 ; 2.006725514357105E8 ; 7.365399107388171E8 ; 6.803780203091558E9 ; 0.0
43 ; 1.8356119204385135E7 ; 2.0067654169663164E8 ; 7.548850576861023E8 ; 7.004452754527269E9 ; 0.0
44 ; 1.837067792268111E7 ; 2.0068060754547715E8 ; 7.732411768904874E8 ; 7.205129296223901E9 ; 0.0
45 ; 1.8376341745247945E7 ; 2.006847462812419E8 ; 7.916118548131685E8 ; 7.405809903769378E9 ; 0.0
46 ; 1.8385200590327237E7 ; 2.006889552671496E8 ; 8.099881965584165E8 ; 7.606494650050619E9 ; 0.0
47 ; 1.839300270850004E7 ; 2.0069323193209732E8 ; 8.283733971487437E8 ; 7.807183605317769E9 ; 0.0
48 ; 1.8402281988710117E7 ; 2.006975737716649E8 ; 8.467663998572438E8 ; 8.0078768372498665E9 ; 0.0
49 ; 1.8406622860954095E7 ; 2.007019783487326E8 ; 8.65168681845954E8 ; 8.208574411021531E9 ; 0.0
50 ; 1.8412903146378044E7 ; 2.0070644329374775E8 ; 8.83575304706908E8 ; 8.409276389370264E9 ; 0.0
51 ; 1.8417322880508993E7 ; 2.007109663046799E8 ; 9.01988207853286E8 ; 8.609982832664011E9 ; 0.0
52 ; 1.842747811378896E7 ; 2.0071554514670065E8 ; 9.20405530733795E8 ; 8.81069379896869E9 ; 0.0
53 ; 1.8430708522212505E7 ; 2.007201776516231E8 ; 9.38833008847584E8 ; 9.01140934411539E9 ; 0.0
54 ; 1.8438674372193877E7 ; 2.0072486171713206E8 ; 9.572637173697965E8 ; 9.212129521767014E9 ; 0.0
55 ; 1.843986982470753E7 ; 2.0072959530583495E8 ; 9.757023917419904E8 ; 9.412854383484146E9 ; 0.0
56 ; 1.8444404824537538E7 ; 2.007343764441598E8 ; 9.94142261566698E8 ; 9.613583978789982E9 ; 0.0
57 ; 1.8445209681610893E7 ; 2.0073920322112533E8 ; 1.0125866663912355E9 ; 9.814318355234142E9 ; 0.0
58 ; 1.8453066084226046E7 ; 2.007440737870049E8 ; 1.0310318760728464E9 ; 1.0015057558455267E10 ; 0.0
59 ; 1.846059746828198E7 ; 2.0074898635190445E8 ; 1.0494849421570724E9 ; 1.0215801632242271E10 ; 0.0
60 ; 1.8464145658223886E7 ; 2.007539391842727E8 ; 1.0679455396253544E9 ; 1.0416550618594175E10 ; 0.0
61 ; 1.846674576985607E7 ; 2.0075893060935932E8 ; 1.0864096852835784E9 ; 1.0617304557778448E10 ; 0.0
62 ; 1.846981452442784E7 ; 2.0076395900763533E8 ; 1.1048764310534344E9 ; 1.0818063488387808E10 ; 0.0
63 ; 1.8474256811663557E7 ; 2.0076902281318864E8 ; 1.1233462455778623E9 ; 1.1018827447395443E10 ; 0.0
64 ; 1.8475395091579758E7 ; 2.0077412051210514E8 ; 1.141820502389526E9 ; 1.1219596470208632E10 ; 0.0
65 ; 1.8476790727575712E7 ; 2.0077925064084587E8 ; 1.1602958974811056E9 ; 1.1420370590720737E10 ; 0.0
66 ; 1.8481812572081927E7 ; 2.0078441178462762E8 ; 1.1787726882086813E9 ; 1.1621149841361584E10 ; 0.0
67 ; 1.8484393779311113E7 ; 2.0078960257581505E8 ; 1.1972545007807634E9 ; 1.1821934253146212E10 ; 0.0
68 ; 1.848786615911812E7 ; 2.0079482169232997E8 ; 1.2157388945600746E9 ; 1.2022723855722027E10 ; 0.0
69 ; 1.8487306371273406E7 ; 2.008000678560831E8 ; 1.2342267607191927E9 ; 1.2223518677414356E10 ; 0.0
70 ; 1.8488663566362012E7 ; 2.0080533983143276E8 ; 1.2527140670904663E9 ; 1.242431874527044E10 ; 0.0
71 ; 1.8491061493865E7 ; 2.0081063642367414E8 ; 1.2712027306568282E9 ; 1.2625124085101871E10 ; 0.0
72 ; 1.849573038657975E7 ; 2.008159564775619E8 ; 1.2896937921506932E9 ; 1.2825934721525545E10 ; 0.0
73 ; 1.8498760396293726E7 ; 2.008212988758687E8 ; 1.308189522537273E9 ; 1.3026750678003107E10 ; 0.0
74 ; 1.84967024509492E7 ; 2.0082666253798136E8 ; 1.3266882829335666E9 ; 1.3227571976878975E10 ; 0.0
75 ; 1.8496591531825636E7 ; 2.0083204641853595E8 ; 1.3451849853845158E9 ; 1.3428398639416956E10 ; 0.0
76 ; 1.8503958480335183E7 ; 2.0083744950609303E8 ; 1.3636815769163413E9 ; 1.3629230685835491E10 ; 0.0
77 ; 1.84962423810953E7 ; 2.0084287082185343E8 ; 1.3821855353966765E9 ; 1.3830068135341583E10 ; 0.0
78 ; 1.849567265783216E7 ; 2.0084830941841513E8 ; 1.400681777777772E9 ; 1.4030911006163437E10 ; 0.0
79 ; 1.84910668703018E7 ; 2.0085376437857094E8 ; 1.419177450435604E9 ; 1.4231759315581852E10 ; 0.0
80 ; 1.8485838525517024E7 ; 2.0085923481414726E8 ; 1.4376685173059058E9 ; 1.4432613079960423E10 ; 0.0
81 ; 1.848513277838254E7 ; 2.0086471986488327E8 ; 1.4561543558314228E9 ; 1.463347231477457E10 ; 0.0
82 ; 1.8477494665830366E7 ; 2.0087021869735023E8 ; 1.4746394886098053E9 ; 1.4834337034639454E10 ; 0.0
83 ; 1.8470520261873987E7 ; 2.0087573050390998E8 ; 1.4931169832756357E9 ; 1.5035207253336803E10 ; 0.0
84 ; 1.8465743849330146E7 ; 2.0088125450171226E8 ; 1.5115875035375097E9 ; 1.5236082983840714E10 ; 0.0
85 ; 1.8458378483084917E7 ; 2.0088678993172982E8 ; 1.5300532473868399E9 ; 1.5436964238342426E10 ; 0.0
86 ; 1.8451370278572384E7 ; 2.0089233605783036E8 ; 1.5485116258699248E9 ; 1.5637851028274157E10 ; 0.0
87 ; 1.844579520386043E7 ; 2.0089789216588435E8 ; 1.566962996148497E9 ; 1.5838743364331987E10 ; 0.0
88 ; 1.8444116771827366E7 ; 2.0090345756290787E8 ; 1.5854087913523576E9 ; 1.6039641256497871E10 ; 0.0
89 ; 1.8436856074703973E7 ; 2.0090903157623944E8 ; 1.603852908124185E9 ; 1.624054471406078E10 ; 0.0
90 ; 1.8422188936114803E7 ; 2.0091461355274928E8 ; 1.622289764198889E9 ; 1.6441453745637018E10 ; 0.0
91 ; 1.842298251159286E7 ; 2.009202028580809E8 ; 1.6407119531350038E9 ; 1.6642368359189768E10 ; 0.0
92 ; 1.841502918885424E7 ; 2.009257988759229E8 ; 1.6591349356465967E9 ; 1.684328856204785E10 ; 0.0
93 ; 1.8406537250762064E7 ; 2.0093140100731063E8 ; 1.677549964835451E9 ; 1.7044214360923773E10 ; 0.0
94 ; 1.8399458796362676E7 ; 2.0093700866995642E8 ; 1.6959565020862129E9 ; 1.7245145761931084E10 ; 0.0
95 ; 1.8395190740843255E7 ; 2.009426212976072E8 ; 1.7143559608825755E9 ; 1.744608277060104E10 ; 0.0
96 ; 1.838251130420638E7 ; 2.0094823833942875E8 ; 1.7327511516234188E9 ; 1.7647025391898647E10 ; 0.0
97 ; 1.837685128463884E7 ; 2.009538592594153E8 ; 1.7511336629276252E9 ; 1.7847973630238075E10 ; 0.0
98 ; 1.836521490146063E7 ; 2.0095948353582373E8 ; 1.769510514212264E9 ; 1.804892748949749E10 ; 0.0
99 ; 1.8360257362019498E7 ; 2.0096511066063118E8 ; 1.7878757291137247E9 ; 1.8249886973033314E10 ; 0.0
100 ; 1.8350553863907274E7 ; 2.0097074013901535E8 ; 1.8062359864757442E9 ; 1.8450852083693947E10 ; 0.0
101 ; 1.8341776574252658E7 ; 2.009763714888564E8 ; 1.8245865403396516E9 ; 1.8651822823832962E10 ; 0.0
102 ; 1.8329007482081283E7 ; 2.0098200424025965E8 ; 1.8429283169139042E9 ; 1.885279919532182E10 ; 0.0
103 ; 1.8325863640976723E7 ; 2.0098763793509814E8 ; 1.8612573243959854E9 ; 1.905378119956208E10 ; 0.0
104 ; 1.8315048933449488E7 ; 2.0099327212657452E8 ; 1.879583188036962E9 ; 1.9254768837497177E10 ; 0.0
105 ; 1.830397147946394E7 ; 2.0099890637880096E8 ; 1.8978982369704115E9 ; 1.9455762109623753E10 ; 0.0
106 ; 1.8295590772186216E7 ; 2.0100454026639667E8 ; 1.9162022084498756E9 ; 1.9656761016002552E10 ; 0.0
107 ; 1.8288291500829753E7 ; 2.0101017337410244E8 ; 1.9344977992220619E9 ; 1.9857765556268948E10 ; 0.0
108 ; 1.8274381891016725E7 ; 2.0101580529641086E8 ; 1.9527860907228916E9 ; 2.005877572964305E10 ; 0.0
109 ; 1.8265505401742477E7 ; 2.0102143563721228E8 ; 1.9710604726139083E9 ; 2.025979153493946E10 ; 0.0
110 ; 1.82576594690149E7 ; 2.0102706400945523E8 ; 1.9893259780156507E9 ; 2.046081297057667E10 ; 0.0
111 ; 1.8245979223934676E7 ; 2.0103269003482118E8 ; 2.0075836374846656E9 ; 2.066184003458613E10 ; 0.0
112 ; 1.8235595022119172E7 ; 2.0103831334341255E8 ; 2.0258296167086003E9 ; 2.086287272462095E10 ; 0.0
113 ; 1.8227379720258124E7 ; 2.0104393357345378E8 ; 2.0440652117307196E9 ; 2.1063911037964363E10 ; 0.0
114 ; 1.8213703893998656E7 ; 2.010495503710047E8 ; 2.0622925914509778E9 ; 2.1264954971537815E10 ; 0.0
115 ; 1.820360384200245E7 ; 2.010551633896857E8 ; 2.0805062953449764E9 ; 2.146600452190882E10 ; 0.0
116 ; 1.818686947875116E7 ; 2.010607722904142E8 ; 2.0987098991869788E9 ; 2.1667059685298508E10 ; 0.0
117 ; 1.8183313767232098E7 ; 2.01066376741152E8 ; 2.11689676866573E9 ; 2.186812045758892E10 ; 0.0
118 ; 1.8165400982399955E7 ; 2.0107197641666272E8 ; 2.1350800824329622E9 ; 2.2069186834330074E10 ; 0.0
119 ; 1.8155337456237387E7 ; 2.0107757099827954E8 ; 2.1532454834153624E9 ; 2.227025881074674E10 ; 0.0
120 ; 1.814628038821121E7 ; 2.0108316017368197E8 ; 2.1714008208715997E9 ; 2.2471336381745018E10 ; 0.0
121 ; 1.8133350499301277E7 ; 2.0108874363668203E8 ; 2.189547101259811E9 ; 2.26724195419187E10 ; 0.0
122 ; 1.8119192464147598E7 ; 2.010943210870188E8 ; 2.2076804517591124E9 ; 2.287350828555538E10 ; 0.0
123 ; 1.8105375532944623E7 ; 2.0109989223016143E8 ; 2.22579964422326E9 ; 2.30746026066424E10 ; 0.0
124 ; 1.80977825871637E7 ; 2.0110545677712002E8 ; 2.2439050197562046E9 ; 2.327570249887256E10 ; 0.0
125 ; 1.8082000895836525E7 ; 2.011110144442641E8 ; 2.2620028023433685E9 ; 2.3476807955649677E10 ; 0.0
126 ; 1.80692609833019E7 ; 2.0111656495314834E8 ; 2.280084803239205E9 ; 2.367791897009394E10 ; 0.0
127 ; 1.806059942776561E7 ; 2.011221080303451E8 ; 2.298154064222507E9 ; 2.387903553504709E10 ; 0.0
128 ; 1.8038020791563652E7 ; 2.0112764340728393E8 ; 2.316214663650273E9 ; 2.4080157643077435E10 ; 0.0
129 ; 1.8031354412418768E7 ; 2.011331708200971E8 ; 2.3342526844418364E9 ; 2.428128528648472E10 ; 0.0
130 ; 1.801309145055695E7 ; 2.011386900094713E8 ; 2.352284038854255E9 ; 2.4482418457304817E10 ; 0.0
131 ; 1.7992477005276315E7 ; 2.0114420072050542E8 ; 2.370297130304812E9 ; 2.468355714731429E10 ; 0.0
132 ; 1.7972800017132998E7 ; 2.0114970270257348E8 ; 2.388289607310088E9 ; 2.4884701348034794E10 ; 0.0
133 ; 1.7955957998532314E7 ; 2.0115519570919326E8 ; 2.406262407327221E9 ; 2.5085851050737366E10 ; 0.0
134 ; 1.7934793619430922E7 ; 2.0116067949789983E8 ; 2.424218365325753E9 ; 2.528700624644656E10 ; 0.0
135 ; 1.7914828241539296E7 ; 2.011661538301241E8 ; 2.442153158945184E9 ; 2.5488166925944458E10 ; 0.0
136 ; 1.7898295709473208E7 ; 2.0117161847107604E8 ; 2.4600679871867237E9 ; 2.5689333079774582E10 ; 0.0
137 ; 1.787284629399753E7 ; 2.0117707318963233E8 ; 2.477966282896197E9 ; 2.589050469824566E10 ; 0.0
138 ; 1.785490973709092E7 ; 2.0118251775822833E8 ; 2.4958391291901946E9 ; 2.609168177143529E10 ; 0.0
139 ; 1.7829882123569846E7 ; 2.0118795195275435E8 ; 2.5136940389272857E9 ; 2.629286428919352E10 ; 0.0
140 ; 1.781406636236423E7 ; 2.011933755524555E8 ; 2.5315239210508556E9 ; 2.6494052241146275E10 ; 0.0
141 ; 1.7792080622554258E7 ; 2.0119878833983585E8 ; 2.54933798741322E9 ; 2.669524561669873E10 ; 0.0
142 ; 1.777279513070146E7 ; 2.0120419010056564E8 ; 2.567130068035774E9 ; 2.6896444405038567E10 ; 0.0
143 ; 1.775024199458657E7 ; 2.0120958062339246E8 ; 2.584902863166476E9 ; 2.7097648595139133E10 ; 0.0
144 ; 1.7725175359869123E7 ; 2.0121495970005554E8 ; 2.6026531051610622E9 ; 2.7298858175762527E10 ; 0.0
145 ; 1.7714455378309075E7 ; 2.0122032712520322E8 ; 2.6203782805209312E9 ; 2.750007313546258E10 ; 0.0
146 ; 1.769575603941668E7 ; 2.0122568269631362E8 ; 2.6380927358992405E9 ; 2.7701293462587784E10 ; 0.0
147 ; 1.7683503354498684E7 ; 2.0123102621361816E8 ; 2.6557884919386573E9 ; 2.7902519145284096E10 ; 0.0
148 ; 1.7667538516327824E7 ; 2.0123635748002797E8 ; 2.673471995293156E9 ; 2.8103750171497715E10 ; 0.0
149 ; 1.765483640440673E7 ; 2.012416763010629E8 ; 2.691139533809484E9 ; 2.830498652897774E10 ; 0.0
150 ; 1.763645460105311E7 ; 2.012469824847833E8 ; 2.7087943702138906E9 ; 2.8506228205278805E10 ; 0.0
151 ; 1.762324417717613E7 ; 2.0125227584172416E8 ; 2.726430824814944E9 ; 2.8707475187763588E10 ; 0.0
152 ; 1.7609128622346926E7 ; 2.0125755618483174E8 ; 2.74405406899212E9 ; 2.8908727463605312E10 ; 0.0
153 ; 1.7591862360715345E7 ; 2.0126282332940245E8 ; 2.7616631976144667E9 ; 2.9109985019790146E10 ; 0.0
154 ; 1.757760511249874E7 ; 2.0126807709302393E8 ; 2.779255059975182E9 ; 2.931124784311955E10 ; 0.0
155 ; 1.7563071536640033E7 ; 2.0127331729551837E8 ; 2.796832665087681E9 ; 2.9512515920212574E10 ; 0.0
156 ; 1.7551185788716577E7 ; 2.0127854375888768E8 ; 2.814395736624321E9 ; 2.971378923750809E10 ; 0.0
157 ; 1.7531483172621973E7 ; 2.0128375630726078E8 ; 2.831946922413038E9 ; 2.991506778126698E10 ; 0.0
158 ; 1.7517351813482303E7 ; 2.012889547668427E8 ; 2.84947840558566E9 ; 3.011635153757424E10 ; 0.0
159 ; 1.7501598471750334E7 ; 2.0129413896586555E8 ; 2.8669957573991423E9 ; 3.0317640492341084E10 ; 0.0
160 ; 1.7487265982011225E7 ; 2.0129930873454115E8 ; 2.8844973558708925E9 ; 3.051893463130695E10 ; 0.0
161 ; 1.7469969501587458E7 ; 2.0130446390501535E8 ; 2.901984621852904E9 ; 3.0720233940041492E10 ; 0.0
162 ; 1.7456797741811708E7 ; 2.0130960431132412E8 ; 2.919454591354491E9 ; 3.0921538403946507E10 ; 0.0
163 ; 1.7441771427173123E7 ; 2.013147297893508E8 ; 2.936911389096303E9 ; 3.112284800825783E10 ; 0.0
164 ; 1.7419845824462686E7 ; 2.0131984017678538E8 ; 2.954353160523476E9 ; 3.1324162738047184E10 ; 0.0
165 ; 1.7407366945381176E7 ; 2.0132493531308466E8 ; 2.971773006347939E9 ; 3.152548257822397E10 ; 0.0
166 ; 1.738831443668019E7 ; 2.013300150394342E8 ; 2.98918037329332E9 ; 3.1726807513537052E10 ; 0.0
167 ; 1.737623619772809E7 ; 2.0133507919871137E8 ; 3.0065686877300005E9 ; 3.1928137528576485E10 ; 0.0
168 ; 1.735928409030591E7 ; 2.0134012763544977E8 ; 3.0239449239277287E9 ; 3.2129472607775196E10 ; 0.0
169 ; 1.7343556620679196E7 ; 2.013451601958049E8 ; 3.0413042080180345E9 ; 3.2330812735410645E10 ; 0.0
170 ; 1.7327541090718128E7 ; 2.013501767275208E8 ; 3.058647764638714E9 ; 3.253215789560645E10 ; 0.0
171 ; 1.730913579662751E7 ; 2.0135517707989815E8 ; 3.075975305729432E9 ; 3.273350807233397E10 ; 0.0
172 ; 1.7293949768971838E7 ; 2.0136016110376328E8 ; 3.0932844415260596E9 ; 3.2934863249413868E10 ; 0.0
173 ; 1.7278681409307066E7 ; 2.0136512865143818E8 ; 3.1105783912950315E9 ; 3.313622341051763E10 ; 0.0
174 ; 1.726355084774263E7 ; 2.013700795767116E8 ; 3.1278570727043386E9 ; 3.333758853916907E10 ; 0.0
175 ; 1.7255619040964384E7 ; 2.0137501373481122E8 ; 3.145120623552081E9 ; 3.353895861874578E10 ; 0.0
176 ; 1.7249854535296414E7 ; 2.0137993098237666E8 ; 3.1623762425930457E9 ; 3.374033363248059E10 ; 0.0
177 ; 1.7237086573990297E7 ; 2.0138483117743328E8 ; 3.179626097128342E9 ; 3.3941713563462967E10 ; 0.0
178 ; 1.722852147412115E7 ; 2.0138971417936718E8 ; 3.1968631837023325E9 ; 3.41430983946404E10 ; 0.0
179 ; 1.721783509354643E7 ; 2.013945798489007E8 ; 3.2140917051764536E9 ; 3.4344488108819767E10 ; 0.0
180 ; 1.7212291131498966E7 ; 2.0139942804806894E8 ; 3.23130954027E9 ; 3.454588268866867E10 ; 0.0
181 ; 1.7196929222732477E7 ; 2.0140425864019698E8 ; 3.248521831401499E9 ; 3.4747282116716736E10 ; 0.0
182 ; 1.7188966604106624E7 ; 2.0140907148987794E8 ; 3.2657187606242313E9 ; 3.494868637535693E10 ; 0.0
183 ; 1.717449821644399E7 ; 2.0141386646295166E8 ; 3.282907727228338E9 ; 3.515009544684681E10 ; 0.0
184 ; 1.7169020569636002E7 ; 2.014186434264841E8 ; 3.300082225444782E9 ; 3.535150931330976E10 ; 0.0
185 ; 1.7153347565894846E7 ; 2.014234022487476E8 ; 3.3172512460144176E9 ; 3.5552927956736244E10 ; 0.0
186 ; 1.714424906728824E7 ; 2.014281427992014E8 ; 3.3344045935803127E9 ; 3.575435135898499E10 ; 0.0
187 ; 1.7132672896136977E7 ; 2.014328649484734E8 ; 3.351548842647601E9 ; 3.5955779501784195E10 ; 0.0
188 ; 1.7127846818261534E7 ; 2.0143756856834173E8 ; 3.368681515543738E9 ; 3.6157212366732666E10 ; 0.0
189 ; 1.7117798482886374E7 ; 2.0144225353171775E8 ; 3.3858093623619995E9 ; 3.635864993530101E10 ; 0.0
190 ; 1.7109926407237105E7 ; 2.0144691971262893E8 ; 3.402927160844886E9 ; 3.6560092188832726E10 ; 0.0
191 ; 1.7096469998133436E7 ; 2.0145156698620272E8 ; 3.420037087252123E9 ; 3.676153910854536E10 ; 0.0
192 ; 1.7090175408025175E7 ; 2.014561952286507E8 ; 3.4371335572502565E9 ; 3.696299067553156E10 ; 0.0
193 ; 1.7075770664400328E7 ; 2.0146080431725338E8 ; 3.454223732658282E9 ; 3.7164446870760216E10 ; 0.0
194 ; 1.7065293226968367E7 ; 2.014653941303455E8 ; 3.471299503322682E9 ; 3.736590767507747E10 ; 0.0
195 ; 1.7057485697093025E7 ; 2.014699645473016E8 ; 3.48836479654965E9 ; 3.756737306920782E10 ; 0.0
