CSV File for the City 4 on Day 191
1 - Minute m 
2 - Power Consumed at minute m 
3 - Power Produced at minute m 
4 - Energy Consumed since the beginning of the day 
5 - Energy Produced since the beginning of the day 
6 - Energy Lost since the beginning of the day on lines starting from the city
 
0 ; 962435.9564133432 ; 1.0593993512005737E8 ; 0.0 ; 0.0 ; 0.0
1 ; 973043.4441265736 ; 1.060901962304703E8 ; 962435.9564133432 ; 1.0593993512005737E8 ; 0.0
2 ; 978933.4493404396 ; 1.0654950771154931E8 ; 1935479.400539917 ; 2.1203013135052767E8 ; 0.0
3 ; 985798.435944615 ; 1.0731787567110974E8 ; 2914412.8498803563 ; 3.18579639062077E8 ; 0.0
4 ; 997804.8510806804 ; 1.0839530562001014E8 ; 3900211.2858249713 ; 4.258975147331867E8 ; 0.0
5 ; 1010030.9010483623 ; 1.0978180242932361E8 ; 4898016.136905652 ; 5.3429282035319686E8 ; 0.0
6 ; 1027204.7825860518 ; 1.1147737029143307E8 ; 5908047.037954014 ; 6.440746227825205E8 ; 0.0
7 ; 1048859.0574927917 ; 1.1348201268575376E8 ; 6935251.820540066 ; 7.555519930739536E8 ; 0.0
8 ; 1081336.391543209 ; 1.1579573234972495E8 ; 7984110.878032858 ; 8.690340057597075E8 ; 0.0
9 ; 1133395.164290008 ; 1.1841853125562847E8 ; 9065447.269576067 ; 9.848297381094325E8 ; 0.0
10 ; 1209641.8534333557 ; 1.213504105936901E8 ; 1.0198842433866074E7 ; 1.1032482693650608E9 ; 0.0
11 ; 1337058.0848000958 ; 1.2459137076180133E8 ; 1.140848428729943E7 ; 1.224598679958751E9 ; 0.0
12 ; 1532670.3448886748 ; 1.2814141136207065E8 ; 1.2745542372099526E7 ; 1.3491900507205522E9 ; 0.0
13 ; 1722395.331213297 ; 1.3200053120427227E8 ; 1.42782127169882E7 ; 1.4773314620826228E9 ; 0.0
14 ; 1748657.0257212303 ; 1.3616872831612444E8 ; 1.6000608048201498E7 ; 1.609331993286895E9 ; 0.0
15 ; 1756020.9523256163 ; 1.406459999601878E8 ; 1.7749265073922727E7 ; 1.7455007216030195E9 ; 0.0
16 ; 1766218.8339375856 ; 1.4543234265704718E8 ; 1.9505286026248343E7 ; 1.8861467215632071E9 ; 0.0
17 ; 1777982.3957856363 ; 1.5052775221431962E8 ; 2.127150486018593E7 ; 2.0315790642202544E9 ; 0.0
18 ; 1785577.47232045 ; 1.5593222376093203E8 ; 2.3049487255971566E7 ; 2.182106816434574E9 ; 0.0
19 ; 1794295.4436115432 ; 1.6164575178602585E8 ; 2.4835064728292014E7 ; 2.338039040195506E9 ; 0.0
20 ; 1802383.322396041 ; 1.6766833018178573E8 ; 2.6629360171903558E7 ; 2.499684791981532E9 ; 0.0
21 ; 1813216.7666241128 ; 1.739999522894486E8 ; 2.8431743494299598E7 ; 2.6673531221633177E9 ; 0.0
22 ; 1823645.2960219097 ; 1.8064061094773066E8 ; 3.024496026092371E7 ; 2.8413530744527664E9 ; 0.0
23 ; 1829856.4438653823 ; 1.8759029854291332E8 ; 3.206860555694562E7 ; 3.021993685400497E9 ; 0.0
24 ; 1842739.7850510788 ; 1.948490070598485E8 ; 3.3898462000811E7 ; 3.2095839839434104E9 ; 0.0
25 ; 1850245.8546392706 ; 2.011047690313701E8 ; 3.574120178586208E7 ; 3.4044329910032587E9 ; 0.0
26 ; 1861444.4877394594 ; 2.011111236259904E8 ; 3.759144764050135E7 ; 3.605537760034629E9 ; 0.0
27 ; 1871140.1915864537 ; 2.0111783122259414E8 ; 3.945289212824081E7 ; 3.8066488836606193E9 ; 0.0
28 ; 1879721.9169974667 ; 2.0112488270547813E8 ; 4.1324032319827266E7 ; 4.0077667148832135E9 ; 0.0
29 ; 1888223.2254357848 ; 2.0113226880390143E8 ; 4.3203754236824736E7 ; 4.2088915975886917E9 ; 0.0
30 ; 1898945.3867212192 ; 2.011399801360669E8 ; 4.509197746226052E7 ; 4.410023866392593E9 ; 0.0
31 ; 1909880.8574681657 ; 2.0114800725049424E8 ; 4.699092284898174E7 ; 4.61116384652866E9 ; 0.0
32 ; 1916476.3430255677 ; 2.0115634066457185E8 ; 4.89008037064499E7 ; 4.812311853779154E9 ; 0.0
33 ; 1922762.3035784322 ; 2.0116497090014425E8 ; 5.081728004947547E7 ; 5.013468194443726E9 ; 0.0
34 ; 1933831.840761126 ; 2.0117388851605415E8 ; 5.27400423530539E7 ; 5.21463316534387E9 ; 0.0
35 ; 1941930.506597148 ; 2.011830841376142E8 ; 5.467387419381502E7 ; 5.415807053859924E9 ; 0.0
36 ; 1948773.041927048 ; 2.0119254848303223E8 ; 5.661580470041217E7 ; 5.616990137997539E9 ; 0.0
37 ; 1955444.0937268664 ; 2.0120227238685563E8 ; 5.8564577742339216E7 ; 5.818182686480571E9 ; 0.0
38 ; 1965374.6125175254 ; 2.012122468205343E8 ; 6.052002183606608E7 ; 6.019384958867427E9 ; 0.0
39 ; 1971897.9219438937 ; 2.0122246291022867E8 ; 6.248539644858361E7 ; 6.220597205687962E9 ; 0.0
40 ; 1978693.1009856611 ; 2.0123291195201126E8 ; 6.4457294370527506E7 ; 6.42181966859819E9 ; 0.0
41 ; 1982505.5119353202 ; 2.0124358542462355E8 ; 6.643598747151317E7 ; 6.623052580550201E9 ; 0.0
42 ; 1989913.5739414694 ; 2.0125447499996114E8 ; 6.841849298344849E7 ; 6.824296165974825E9 ; 0.0
43 ; 1999372.492608835 ; 2.0126557255146468E8 ; 7.040840655738996E7 ; 7.025550640974786E9 ; 0.0
44 ; 2003401.2474153251 ; 2.0127687016059563E8 ; 7.240777904999879E7 ; 7.226816213526251E9 ; 0.0
45 ; 2009120.1002732338 ; 2.012883601215739E8 ; 7.441118029741411E7 ; 7.428093083686847E9 ; 0.0
46 ; 2011408.3589812403 ; 2.0130003494455042E8 ; 7.642030039768735E7 ; 7.62938144380842E9 ; 0.0
47 ; 2020276.821069034 ; 2.0131188735738087E8 ; 7.843170875666858E7 ; 7.830681478752971E9 ; 0.0
48 ; 2024346.3705649541 ; 2.0132391030615866E8 ; 8.045198557773761E7 ; 8.031993366110352E9 ; 0.0
49 ; 2029998.970910693 ; 2.0133609695465708E8 ; 8.247633194830257E7 ; 8.233317276416511E9 ; 0.0
50 ; 2031036.5408726898 ; 2.0134844068281958E8 ; 8.450633091921327E7 ; 8.434653373371168E9 ; 0.0
51 ; 2035106.529898215 ; 2.0136093508442777E8 ; 8.653736746008596E7 ; 8.636001814053988E9 ; 0.0
52 ; 2038700.1960831452 ; 2.0137357396406612E8 ; 8.857247398998417E7 ; 8.837362749138414E9 ; 0.0
53 ; 2043047.88181368 ; 2.0138635133349192E8 ; 9.061117418606731E7 ; 9.03873632310248E9 ; 0.0
54 ; 2046160.6928566163 ; 2.013992614075095E8 ; 9.265422206788099E7 ; 9.240122674435972E9 ; 0.0
55 ; 2046941.4700337339 ; 2.0141229859943777E8 ; 9.47003827607376E7 ; 9.441521935843481E9 ; 0.0
56 ; 2051213.064557814 ; 2.0142545751625064E8 ; 9.674732423077133E7 ; 9.642934234442919E9 ; 0.0
57 ; 2054382.3555077526 ; 2.0143873295346203E8 ; 9.879853729532915E7 ; 9.84435969195917E9 ; 0.0
58 ; 2058666.546710097 ; 2.0145211988981834E8 ; 1.008529196508369E8 ; 1.0045798424912632E10 ; 0.0
59 ; 2061895.8006415956 ; 2.014656134818541E8 ; 1.02911586197547E8 ; 1.024725054480245E10 ; 0.0
60 ; 2064198.8850465408 ; 2.0147920905835968E8 ; 1.049734819981886E8 ; 1.0448716158284304E10 ; 0.0
61 ; 2065332.3166478267 ; 2.0149290211480317E8 ; 1.0703768088323514E8 ; 1.0650195367342663E10 ; 0.0
62 ; 2071476.2009784875 ; 2.0150668830774346E8 ; 1.0910301319988297E8 ; 1.0851688269457466E10 ; 0.0
63 ; 2071235.0767437324 ; 2.0152056344926572E8 ; 1.1117448940086146E8 ; 1.105319495776521E10 ; 0.0
64 ; 2076787.8514808929 ; 2.0153452350146633E8 ; 1.132457244776052E8 ; 1.1254715521214476E10 ; 0.0
65 ; 2081336.5632290451 ; 2.0154856457100946E8 ; 1.1532251232908608E8 ; 1.1456250044715942E10 ; 0.0
66 ; 2081335.6828087533 ; 2.0156268290377456E8 ; 1.1740384889231512E8 ; 1.1657798609286951E10 ; 0.0
67 ; 2084802.3465681265 ; 2.0157687487961003E8 ; 1.1948518457512388E8 ; 1.1859361292190725E10 ; 0.0
68 ; 2088009.6861821455 ; 2.0159113700720564E8 ; 1.21569986921692E8 ; 1.2060938167070335E10 ; 0.0
69 ; 2093485.3976307758 ; 2.0160546591909388E8 ; 1.2365799660787414E8 ; 1.2262529304077541E10 ; 0.0
70 ; 2089389.0917859918 ; 2.0161985836678773E8 ; 1.2575148200550492E8 ; 1.2464134769996635E10 ; 0.0
71 ; 2094869.3372823172 ; 2.0163431121606082E8 ; 1.2784087109729092E8 ; 1.2665754628363422E10 ; 0.0
72 ; 2099617.6739144353 ; 2.0164882144237393E8 ; 1.2993574043457323E8 ; 1.2867388939579483E10 ; 0.0
73 ; 2100939.066858046 ; 2.0166338612645036E8 ; 1.3203535810848767E8 ; 1.3069037761021856E10 ; 0.0
74 ; 2102392.262601589 ; 2.016780024500016E8 ; 1.3413629717534572E8 ; 1.3270701147148306E10 ; 0.0
75 ; 2102713.3208211055 ; 2.0169266769160333E8 ; 1.362386894379473E8 ; 1.3472379149598307E10 ; 0.0
76 ; 2106068.4449475445 ; 2.017073792227213E8 ; 1.383414027587684E8 ; 1.367407181728991E10 ; 0.0
77 ; 2111186.385019193 ; 2.0172213450388533E8 ; 1.4044747120371595E8 ; 1.387577919651263E10 ; 0.0
78 ; 2107602.978510382 ; 2.0173693108100975E8 ; 1.4255865758873513E8 ; 1.4077501331016516E10 ; 0.0
79 ; 2108047.5442932337 ; 2.0175176658185703E8 ; 1.446662605672455E8 ; 1.4279238262097525E10 ; 0.0
80 ; 2109920.8071568687 ; 2.0176663871264225E8 ; 1.4677430811153874E8 ; 1.4480990028679382E10 ; 0.0
81 ; 2106142.3088429654 ; 2.017815452547745E8 ; 1.488842289186956E8 ; 1.4682756667392025E10 ; 0.0
82 ; 2109566.549696631 ; 2.0179648406173173E8 ; 1.5099037122753856E8 ; 1.48845382126468E10 ; 0.0
83 ; 2107931.1382213687 ; 2.0181145305606508E8 ; 1.5309993777723518E8 ; 1.508633469670853E10 ; 0.0
84 ; 2106795.203536825 ; 2.0182645022652903E8 ; 1.5520786891545656E8 ; 1.5288146149764595E10 ; 0.0
85 ; 2106123.775801512 ; 2.0184147362533274E8 ; 1.573146641189934E8 ; 1.5489972599991123E10 ; 0.0
86 ; 2105728.350865412 ; 2.0185652136550876E8 ; 1.594207878947949E8 ; 1.5691814073616455E10 ; 0.0
87 ; 2104040.4517427566 ; 2.018715916183949E8 ; 1.6152651624566033E8 ; 1.5893670594981964E10 ; 0.0
88 ; 2105685.6579069165 ; 2.0188668261122507E8 ; 1.636305566974031E8 ; 1.6095542186600359E10 ; 0.0
89 ; 2104261.6387071367 ; 2.0190179262482458E8 ; 1.6573624235531002E8 ; 1.6297428869211584E10 ; 0.0
90 ; 2102647.693548444 ; 2.0191691999140668E8 ; 1.6784050399401715E8 ; 1.6499330661836409E10 ; 0.0
91 ; 2102708.788846548 ; 2.0193206309246522E8 ; 1.699431516875656E8 ; 1.6701247581827816E10 ; 0.0
92 ; 2100265.34843923 ; 2.0194722035676053E8 ; 1.7204586047641215E8 ; 1.690317964492028E10 ; 0.0
93 ; 2096969.0666554766 ; 2.019623902583937E8 ; 1.7414612582485136E8 ; 1.710512686527704E10 ; 0.0
94 ; 2101605.1917527 ; 2.0197757131496644E8 ; 1.7624309489150685E8 ; 1.7307089255535435E10 ; 0.0
95 ; 2099159.5581786623 ; 2.019927620858222E8 ; 1.7834470008325955E8 ; 1.7509066826850403E10 ; 0.0
96 ; 2096630.2332248897 ; 2.0200796117036542E8 ; 1.8044385964143822E8 ; 1.7711059588936226E10 ; 0.0
97 ; 2093333.311464763 ; 2.020231672064552E8 ; 1.825404898746631E8 ; 1.791306755010659E10 ; 0.0
98 ; 2094674.557553982 ; 2.0203837886887047E8 ; 1.8463382318612787E8 ; 1.8115090717313046E10 ; 0.0
99 ; 2093209.8727249186 ; 2.0205359486784315E8 ; 1.8672849774368185E8 ; 1.8317129096181915E10 ; 0.0
100 ; 2093061.4311902635 ; 2.020688139476565E8 ; 1.8882170761640677E8 ; 1.851918269104976E10 ; 0.0
101 ; 2089913.26939198 ; 2.020840348853056E8 ; 1.9091476904759702E8 ; 1.8721251504997414E10 ; 0.0
102 ; 2091005.5481626086 ; 2.0209925648921713E8 ; 1.93004682316989E8 ; 1.892333553988272E10 ; 0.0
103 ; 2092206.6737606039 ; 2.0211447759802583E8 ; 1.950956878651516E8 ; 1.9125434796371937E10 ; 0.0
104 ; 2088919.3443876933 ; 2.0212969707940507E8 ; 1.971878945389122E8 ; 1.9327549273969963E10 ; 0.0
105 ; 2085545.8013260278 ; 2.02144913828949E8 ; 1.992768138832999E8 ; 1.952967897104937E10 ; 0.0
106 ; 2084958.5645748666 ; 2.02160126769104E8 ; 2.0136235968462592E8 ; 1.973182388487832E10 ; 0.0
107 ; 2081856.4797506544 ; 2.0217533484814683E8 ; 2.034473182492008E8 ; 1.9933984011647423E10 ; 0.0
108 ; 2082326.7876183712 ; 2.0219053703920788E8 ; 2.0552917472895145E8 ; 2.013615934649557E10 ; 0.0
109 ; 2078472.3034775849 ; 2.02205732339337E8 ; 2.0761150151656982E8 ; 2.033834988353478E10 ; 0.0
110 ; 2080985.183093723 ; 2.0222091976861012E8 ; 2.096899738200474E8 ; 2.0540555615874115E10 ; 0.0
111 ; 2076711.8946144145 ; 2.0223609836927485E8 ; 2.1177095900314113E8 ; 2.0742776535642727E10 ; 0.0
112 ; 2074026.6733306653 ; 2.0225126720493296E8 ; 2.1384767089775556E8 ; 2.0945012634012E10 ; 0.0
113 ; 2073136.554027192 ; 2.0226642535975832E8 ; 2.1592169757108623E8 ; 2.1147263901216934E10 ; 0.0
114 ; 2069405.685685216 ; 2.0228157193774867E8 ; 2.1799483412511343E8 ; 2.134953032657669E10 ; 0.0
115 ; 2070635.0406193582 ; 2.0229670606200948E8 ; 2.2006423981079865E8 ; 2.155181189851444E10 ; 0.0
116 ; 2065542.0818160505 ; 2.0231182687406853E8 ; 2.22134874851418E8 ; 2.1754108604576447E10 ; 0.0
117 ; 2063506.390236703 ; 2.0232693353321972E8 ; 2.2420041693323404E8 ; 2.1956420431450516E10 ; 0.0
118 ; 2062219.4312908258 ; 2.0234202521589488E8 ; 2.2626392332347074E8 ; 2.2158747364983734E10 ; 0.0
119 ; 2058720.1114481918 ; 2.0235710111506224E8 ; 2.2832614275476158E8 ; 2.236108939019963E10 ; 0.0
120 ; 2055815.824977936 ; 2.0237216043965036E8 ; 2.3038486286620978E8 ; 2.2563446491314693E10 ; 0.0
121 ; 2056570.3042663918 ; 2.0238720241399613E8 ; 2.324406786911877E8 ; 2.2765818651754345E10 ; 0.0
122 ; 2051752.6957163704 ; 2.0240222627731633E8 ; 2.344972489954541E8 ; 2.2968205854168343E10 ; 0.0
123 ; 2050409.2735985587 ; 2.024172312832008E8 ; 2.3654900169117048E8 ; 2.317060808044566E10 ; 0.0
124 ; 2046918.8982085106 ; 2.0243221669912723E8 ; 2.3859941096476904E8 ; 2.337302531172886E10 ; 0.0
125 ; 2044354.5743246253 ; 2.0244718180599564E8 ; 2.4064632986297753E8 ; 2.3575457528427986E10 ; 0.0
126 ; 2043386.3864421619 ; 2.0246212589768246E8 ; 2.4269068443730217E8 ; 2.3777904710233982E10 ; 0.0
127 ; 2041559.175345976 ; 2.0247704828061274E8 ; 2.4473407082374433E8 ; 2.3980366836131664E10 ; 0.0
128 ; 2037364.4903256814 ; 2.0249194827335003E8 ; 2.467756299990903E8 ; 2.4182843884412277E10 ; 0.0
129 ; 2034670.0821463142 ; 2.025068252062031E8 ; 2.48812994489416E8 ; 2.4385335832685627E10 ; 0.0
130 ; 2031817.6789076028 ; 2.025216784208483E8 ; 2.5084766457156232E8 ; 2.458784265789183E10 ; 0.0
131 ; 2024758.9229354467 ; 2.0253650726996788E8 ; 2.5287948225046992E8 ; 2.479036433631268E10 ; 0.0
132 ; 2018730.7934763578 ; 2.025513111169021E8 ; 2.5490424117340538E8 ; 2.4992900843582645E10 ; 0.0
133 ; 2013311.496452868 ; 2.025660893353162E8 ; 2.5692297196688172E8 ; 2.5195452154699547E10 ; 0.0
134 ; 2008381.2568235565 ; 2.0258084130887994E8 ; 2.589362834633346E8 ; 2.5398018244034863E10 ; 0.0
135 ; 2005033.2763019882 ; 2.0259556643096054E8 ; 2.6094466472015816E8 ; 2.5600599085343742E10 ; 0.0
136 ; 1998522.989846019 ; 2.0261026410432732E8 ; 2.6294969799646014E8 ; 2.5803194651774704E10 ; 0.0
137 ; 1990648.8915138484 ; 2.0262493374086848E8 ; 2.6494822098630616E8 ; 2.6005804915879032E10 ; 0.0
138 ; 1989614.4808666261 ; 2.026395747613187E8 ; 2.6693886987782001E8 ; 2.62084298496199E10 ; 0.0
139 ; 1983611.7004490243 ; 2.026541865949977E8 ; 2.689284843586866E8 ; 2.6411069424381218E10 ; 0.0
140 ; 1976038.9329863286 ; 2.0266876867955878E8 ; 2.709120960591357E8 ; 2.6613723610976215E10 ; 0.0
141 ; 1967516.258537019 ; 2.026833204607474E8 ; 2.72888134992122E8 ; 2.6816392379655773E10 ; 0.0
142 ; 1965215.4442587208 ; 2.0269784139216888E8 ; 2.74855651250659E8 ; 2.701907570011652E10 ; 0.0
143 ; 1959216.800606763 ; 2.0271233093506536E8 ; 2.7682086669491774E8 ; 2.722177354150869E10 ; 0.0
144 ; 1954945.1772667333 ; 2.0272678855810112E8 ; 2.787800834955245E8 ; 2.7424485872443756E10 ; 0.0
145 ; 1949368.3409780667 ; 2.027412137371562E8 ; 2.8073502867279124E8 ; 2.7627212661001858E10 ; 0.0
146 ; 1945331.4119875543 ; 2.0275560595512798E8 ; 2.826843970137693E8 ; 2.7829953874739014E10 ; 0.0
147 ; 1944462.4856916054 ; 2.0276996470174018E8 ; 2.846297284257569E8 ; 2.803270948069414E10 ; 0.0
148 ; 1942942.8421357854 ; 2.027842894733592E8 ; 2.865741909114485E8 ; 2.823547944539588E10 ; 0.0
149 ; 1940037.110043982 ; 2.0279857977281734E8 ; 2.8851713375358427E8 ; 2.843826373486924E10 ; 0.0
150 ; 1934900.002368357 ; 2.0281283510924277E8 ; 2.9045717086362827E8 ; 2.8641062314642056E10 ; 0.0
151 ; 1932413.9760399312 ; 2.0282705499789563E8 ; 2.923920708659966E8 ; 2.8843875149751297E10 ; 0.0
152 ; 1926552.3889981934 ; 2.028412389600106E8 ; 2.9432448484203655E8 ; 2.904670220474919E10 ; 0.0
153 ; 1924374.9196613969 ; 2.02855386522645E8 ; 2.9625103723103476E8 ; 2.92495434437092E10 ; 0.0
154 ; 1925008.5504189904 ; 2.0286949721853268E8 ; 2.9817541215069616E8 ; 2.9452398830231846E10 ; 0.0
155 ; 1920293.4350731543 ; 2.0288357058594337E8 ; 3.0010042070111513E8 ; 2.965526832745038E10 ; 0.0
156 ; 1915620.8765497184 ; 2.0289760616854692E8 ; 3.0202071413618827E8 ; 2.9858151898036324E10 ; 0.0
157 ; 1912602.1598937388 ; 2.0291160351528287E8 ; 3.03936335012738E8 ; 3.0061049504204872E10 ; 0.0
158 ; 1909967.9265081685 ; 2.0292556218023458E8 ; 3.0584893717263174E8 ; 3.0263961107720154E10 ; 0.0
159 ; 1908195.6521582948 ; 2.0293948172250792E8 ; 3.077589050991399E8 ; 3.0466886669900387E10 ; 0.0
160 ; 1905132.3317703996 ; 2.0295336170611444E8 ; 3.0966710075129825E8 ; 3.0669826151622894E10 ; 0.0
161 ; 1900213.284392898 ; 2.0296720169985875E8 ; 3.1157223308306867E8 ; 3.087277951332901E10 ; 0.0
162 ; 1897281.3662118868 ; 2.0298100127722996E8 ; 3.1347244636746156E8 ; 3.107574671502887E10 ; 0.0
163 ; 1896003.9569614432 ; 2.0299476001629692E8 ; 3.1536972773367345E8 ; 3.12787277163061E10 ; 0.0
164 ; 1891034.479786947 ; 2.0300847749960735E8 ; 3.172657316906349E8 ; 3.1481722476322395E10 ; 0.0
165 ; 1888719.17811759 ; 2.0302215331409046E8 ; 3.1915676617042184E8 ; 3.1684730953822002E10 ; 0.0
166 ; 1885510.2111118275 ; 2.0303578705096304E8 ; 3.210454853485394E8 ; 3.1887753107136093E10 ; 0.0
167 ; 1883071.9051740533 ; 2.0304937830563897E8 ; 3.2293099555965126E8 ; 3.2090788894187057E10 ; 0.0
168 ; 1879596.229237173 ; 2.030629266776418E8 ; 3.2481406746482533E8 ; 3.2293838272492695E10 ; 0.0
169 ; 1876533.9229138875 ; 2.030764317705205E8 ; 3.2669366369406253E8 ; 3.2496901199170338E10 ; 0.0
170 ; 1870353.5654544625 ; 2.0308989319176808E8 ; 3.2857019761697644E8 ; 3.2699977630940857E10 ; 0.0
171 ; 1869790.4813252138 ; 2.0310331055274308E8 ; 3.304405511824309E8 ; 3.2903067524132626E10 ; 0.0
172 ; 1867545.681599084 ; 2.0311668346859387E8 ; 3.3231034166375613E8 ; 3.3106170834685368E10 ; 0.0
173 ; 1862689.2530879006 ; 2.0313001155818555E8 ; 3.341778873453552E8 ; 3.330928751815396E10 ; 0.0
174 ; 1861718.3575808534 ; 2.0314329444402927E8 ; 3.360405765984431E8 ; 3.3512417529712147E10 ; 0.0
175 ; 1858299.08037749 ; 2.0315653175221422E8 ; 3.3790229495602393E8 ; 3.3715560824156178E10 ; 0.0
176 ; 1853971.7854125923 ; 2.0316972311234164E8 ; 3.3976059403640145E8 ; 3.391871735590839E10 ; 0.0
177 ; 1853796.1762654653 ; 2.0318286815746143E8 ; 3.4161456582181406E8 ; 3.4121887079020733E10 ; 0.0
178 ; 1852822.9666288453 ; 2.031959665240108E8 ; 3.4346836199807954E8 ; 3.4325069947178196E10 ; 0.0
179 ; 1852764.0619665335 ; 2.0320901785175484E8 ; 3.453211849647084E8 ; 3.452826591370221E10 ; 0.0
180 ; 1845310.5026305045 ; 2.0322202178372952E8 ; 3.471739490266749E8 ; 3.473147493155396E10 ; 0.0
181 ; 1841435.908471263 ; 2.0323497796618617E8 ; 3.4901925952930546E8 ; 3.493469695333769E10 ; 0.0
182 ; 1842303.5293048709 ; 2.032478860485382E8 ; 3.5086069543777674E8 ; 3.513793193130388E10 ; 0.0
183 ; 1840841.817968931 ; 2.0326074568330944E8 ; 3.527029989670816E8 ; 3.534117981735242E10 ; 0.0
184 ; 1835909.6186313753 ; 2.0327355652608427E8 ; 3.545438407850505E8 ; 3.554444056303573E10 ; 0.0
185 ; 1836670.8625271067 ; 2.0328631823545942E8 ; 3.563797504036819E8 ; 3.574771411956181E10 ; 0.0
186 ; 1834519.9068942154 ; 2.0329903047299746E8 ; 3.58216421266209E8 ; 3.595100043779727E10 ; 0.0
187 ; 1829296.2364895307 ; 2.033116929031817E8 ; 3.600509411731032E8 ; 3.615429946827027E10 ; 0.0
188 ; 1829249.1419330677 ; 2.033243051933728E8 ; 3.6188023740959275E8 ; 3.6357611161173454E10 ; 0.0
189 ; 1826296.8079878897 ; 2.0333686701376653E8 ; 3.6370948655152583E8 ; 3.656093546636683E10 ; 0.0
190 ; 1823038.4921874749 ; 2.033493780373534E8 ; 3.655357833595137E8 ; 3.676427233338059E10 ; 0.0
191 ; 1823612.6664288833 ; 2.0336183793987915E8 ; 3.673588218517012E8 ; 3.6967621711417946E10 ; 0.0
192 ; 1819010.6861670758 ; 2.033742463998068E8 ; 3.6918243451813006E8 ; 3.717098354935783E10 ; 0.0
193 ; 1817294.4782574428 ; 2.0338660309827995E8 ; 3.710014452042971E8 ; 3.737435779575763E10 ; 0.0
194 ; 1812953.1406372513 ; 2.0339890771908733E8 ; 3.7281873968255454E8 ; 3.757774439885591E10 ; 0.0
195 ; 1811014.619920337 ; 2.0341115994862834E8 ; 3.746316928231918E8 ; 3.7781143306575E10 ; 0.0
196 ; 1809575.466899241 ; 2.0342335947587982E8 ; 3.7644270744311213E8 ; 3.798455446652363E10 ; 0.0
197 ; 1807629.6840692528 ; 2.0343550599236408E8 ; 3.7825228291001135E8 ; 3.818797782599951E10 ; 0.0
198 ; 1808995.9011784685 ; 2.0344759919211775E8 ; 3.800599125940806E8 ; 3.8391413331991875E10 ; 0.0
199 ; 1802411.0843667947 ; 2.0345963877166176E8 ; 3.818689084952591E8 ; 3.859486093118399E10 ; 0.0
