CSV File for the City 5 on Day 8
1 - Minute m 
2 - Power Consumed at minute m 
3 - Power Produced at minute m 
4 - Energy Consumed since the beginning of the day 
5 - Energy Produced since the beginning of the day 
6 - Energy Lost since the beginning of the day on lines starting from the city
 
0 ; 8487715.288682299 ; 1.011297254232582E7 ; 0.0 ; 0.0 ; 0.0
1 ; 8494570.929991469 ; 1.011297254232582E7 ; 8487715.288682299 ; 1.011297254232582E7 ; 0.0
2 ; 8505363.820902672 ; 1.011297254232582E7 ; 1.6982286218673766E7 ; 2.022594508465164E7 ; 0.0
3 ; 8515322.119882176 ; 1.011297254232582E7 ; 2.5487650039576437E7 ; 3.0338917626977462E7 ; 0.0
4 ; 8527675.687956503 ; 1.011297254232582E7 ; 3.4002972159458615E7 ; 4.045189016930328E7 ; 0.0
5 ; 8545651.496944314 ; 1.011297254232582E7 ; 4.253064784741512E7 ; 5.056486271162911E7 ; 0.0
6 ; 8562379.015199704 ; 1.011297254232582E7 ; 5.1076299344359435E7 ; 6.067783525395493E7 ; 0.0
7 ; 8593586.29506005 ; 1.011297254232582E7 ; 5.963867835955914E7 ; 7.079080779628076E7 ; 0.0
8 ; 8636071.863919433 ; 1.011297254232582E7 ; 6.823226465461919E7 ; 8.090378033860658E7 ; 0.0
9 ; 8697843.37842613 ; 1.011297254232582E7 ; 7.686833651853862E7 ; 9.10167528809324E7 ; 0.0
10 ; 8795295.423995987 ; 1.011297254232582E7 ; 8.556617989696476E7 ; 1.0112972542325823E8 ; 0.0
11 ; 8951503.142910307 ; 1.011297254232582E7 ; 9.436147532096075E7 ; 1.1124269796558405E8 ; 0.0
12 ; 9198270.953248324 ; 1.011297254232582E7 ; 1.0331297846387105E8 ; 1.2135567050790988E8 ; 0.0
13 ; 9437435.45650036 ; 1.011297254232582E7 ; 1.1251124941711937E8 ; 1.314686430502357E8 ; 0.0
14 ; 9467037.542952232 ; 1.011297254232582E7 ; 1.2194868487361974E8 ; 1.415816155925615E8 ; 0.0
15 ; 9474787.893403756 ; 1.011297254232582E7 ; 1.3141572241657197E8 ; 1.5169458813488734E8 ; 0.0
16 ; 9487343.091635529 ; 1.011297254232582E7 ; 1.4089051030997574E8 ; 1.6180756067721316E8 ; 0.0
17 ; 9497187.943074942 ; 1.011297254232582E7 ; 1.5037785340161127E8 ; 1.71920533219539E8 ; 0.0
18 ; 9510538.821697846 ; 1.011297254232582E7 ; 1.598750413446862E8 ; 1.820335057618648E8 ; 0.0
19 ; 9520979.25685046 ; 1.011297254232582E7 ; 1.6938558016638404E8 ; 1.9214647830419064E8 ; 0.0
20 ; 9533704.857542947 ; 1.011297254232582E7 ; 1.789065594232345E8 ; 2.0225945084651646E8 ; 0.0
21 ; 9545363.841658305 ; 1.011297254232582E7 ; 1.8844026428077745E8 ; 2.1237242338884228E8 ; 0.0
22 ; 9555570.963420896 ; 1.011297254232582E7 ; 1.9798562812243575E8 ; 2.224853959311681E8 ; 0.0
23 ; 9563331.443429189 ; 1.011297254232582E7 ; 2.0754119908585665E8 ; 2.3259836847349393E8 ; 0.0
24 ; 9577933.261897033 ; 1.011297254232582E7 ; 2.1710453052928585E8 ; 2.4271134101581976E8 ; 0.0
25 ; 9589571.866578752 ; 1.011297254232582E7 ; 2.2668246379118288E8 ; 2.5282431355814558E8 ; 0.0
26 ; 9600470.60793832 ; 1.011297254232582E7 ; 2.3627203565776163E8 ; 2.629372861004714E8 ; 0.0
27 ; 9609553.791738791 ; 1.011297254232582E7 ; 2.4587250626569995E8 ; 2.7305025864279723E8 ; 0.0
28 ; 9620473.440870438 ; 1.011297254232582E7 ; 2.5548206005743873E8 ; 2.83163231185123E8 ; 0.0
29 ; 9631136.769062327 ; 1.011297254232582E7 ; 2.6510253349830917E8 ; 2.932762037274488E8 ; 0.0
30 ; 9641051.35672775 ; 1.011297254232582E7 ; 2.747336702673715E8 ; 3.033891762697746E8 ; 0.0
31 ; 9649685.500883734 ; 1.011297254232582E7 ; 2.8437472162409925E8 ; 3.135021488121004E8 ; 0.0
32 ; 9664921.865847751 ; 1.011297254232582E7 ; 2.94024407124983E8 ; 3.236151213544262E8 ; 0.0
33 ; 9676802.189149184 ; 1.011297254232582E7 ; 3.036893289908308E8 ; 3.33728093896752E8 ; 0.0
34 ; 9681116.346344233 ; 1.011297254232582E7 ; 3.1336613117998E8 ; 3.438410664390778E8 ; 0.0
35 ; 9691838.72979156 ; 1.011297254232582E7 ; 3.230472475263242E8 ; 3.539540389814036E8 ; 0.0
36 ; 9697517.623292152 ; 1.011297254232582E7 ; 3.327390862561158E8 ; 3.640670115237294E8 ; 0.0
37 ; 9709289.348186813 ; 1.011297254232582E7 ; 3.4243660387940794E8 ; 3.741799840660552E8 ; 0.0
38 ; 9717985.395260736 ; 1.011297254232582E7 ; 3.5214589322759473E8 ; 3.84292956608381E8 ; 0.0
39 ; 9723941.213759601 ; 1.011297254232582E7 ; 3.618638786228555E8 ; 3.9440592915070677E8 ; 0.0
40 ; 9733602.193544535 ; 1.011297254232582E7 ; 3.715878198366151E8 ; 4.0451890169303256E8 ; 0.0
41 ; 9737846.274011157 ; 1.011297254232582E7 ; 3.813214220301596E8 ; 4.1463187423535836E8 ; 0.0
42 ; 9742576.649853837 ; 1.011297254232582E7 ; 3.910592683041707E8 ; 4.2474484677768415E8 ; 0.0
43 ; 9749798.313840594 ; 1.011297254232582E7 ; 4.0080184495402455E8 ; 4.3485781932000995E8 ; 0.0
44 ; 9757800.707738584 ; 1.011297254232582E7 ; 4.105516432678651E8 ; 4.4497079186233574E8 ; 0.0
45 ; 9763317.801472453 ; 1.011297254232582E7 ; 4.203094439756037E8 ; 4.5508376440466154E8 ; 0.0
46 ; 9768287.505066974 ; 1.011297254232582E7 ; 4.300727617770761E8 ; 4.6519673694698733E8 ; 0.0
47 ; 9772740.19921515 ; 1.011297254232582E7 ; 4.398410492821431E8 ; 4.753097094893131E8 ; 0.0
48 ; 9776110.918343224 ; 1.011297254232582E7 ; 4.496137894813583E8 ; 4.854226820316389E8 ; 0.0
49 ; 9781972.783236837 ; 1.011297254232582E7 ; 4.5938990039970154E8 ; 4.955356545739647E8 ; 0.0
50 ; 9782298.015356887 ; 1.011297254232582E7 ; 4.691718731829384E8 ; 5.056486271162905E8 ; 0.0
51 ; 9786538.171377363 ; 1.011297254232582E7 ; 4.789541711982953E8 ; 5.157615996586163E8 ; 0.0
52 ; 9792012.013915313 ; 1.011297254232582E7 ; 4.8874070936967266E8 ; 5.258745722009421E8 ; 0.0
53 ; 9791161.995253175 ; 1.011297254232582E7 ; 4.9853272138358796E8 ; 5.359875447432679E8 ; 0.0
54 ; 9793955.65834439 ; 1.011297254232582E7 ; 5.0832388337884116E8 ; 5.461005172855937E8 ; 0.0
55 ; 9796293.082101444 ; 1.011297254232582E7 ; 5.1811783903718555E8 ; 5.562134898279196E8 ; 0.0
56 ; 9799351.663486809 ; 1.011297254232582E7 ; 5.27914132119287E8 ; 5.663264623702455E8 ; 0.0
57 ; 9801303.288958786 ; 1.011297254232582E7 ; 5.377134837827739E8 ; 5.764394349125713E8 ; 0.0
58 ; 9801555.90415109 ; 1.011297254232582E7 ; 5.475147870717326E8 ; 5.865524074548972E8 ; 0.0
59 ; 9805014.96143588 ; 1.011297254232582E7 ; 5.573163429758837E8 ; 5.96665379997223E8 ; 0.0
60 ; 9806743.533097142 ; 1.011297254232582E7 ; 5.671213579373196E8 ; 6.067783525395489E8 ; 0.0
61 ; 9810997.598860975 ; 1.011297254232582E7 ; 5.769281014704168E8 ; 6.168913250818747E8 ; 0.0
62 ; 9809826.000636142 ; 1.011297254232582E7 ; 5.867390990692778E8 ; 6.270042976242006E8 ; 0.0
63 ; 9808790.106409645 ; 1.011297254232582E7 ; 5.965489250699139E8 ; 6.371172701665264E8 ; 0.0
64 ; 9813465.366169339 ; 1.011297254232582E7 ; 6.063577151763235E8 ; 6.472302427088523E8 ; 0.0
65 ; 9816174.672246793 ; 1.011297254232582E7 ; 6.161711805424929E8 ; 6.573432152511781E8 ; 0.0
66 ; 9819486.766394183 ; 1.011297254232582E7 ; 6.259873552147397E8 ; 6.67456187793504E8 ; 0.0
67 ; 9818004.509762933 ; 1.011297254232582E7 ; 6.358068419811338E8 ; 6.775691603358299E8 ; 0.0
68 ; 9821661.935304139 ; 1.011297254232582E7 ; 6.456248464908967E8 ; 6.876821328781557E8 ; 0.0
69 ; 9823035.784139324 ; 1.011297254232582E7 ; 6.554465084262009E8 ; 6.977951054204816E8 ; 0.0
70 ; 9822976.77593269 ; 1.011297254232582E7 ; 6.652695442103401E8 ; 7.079080779628074E8 ; 0.0
71 ; 9820239.42630298 ; 1.011297254232582E7 ; 6.750925209862728E8 ; 7.180210505051333E8 ; 0.0
72 ; 9823560.125962518 ; 1.011297254232582E7 ; 6.849127604125758E8 ; 7.281340230474591E8 ; 0.0
73 ; 9822561.808182502 ; 1.011297254232582E7 ; 6.947363205385383E8 ; 7.38246995589785E8 ; 0.0
74 ; 9828162.948003778 ; 1.011297254232582E7 ; 7.045588823467208E8 ; 7.483599681321108E8 ; 0.0
75 ; 9826380.747236555 ; 1.011297254232582E7 ; 7.143870452947246E8 ; 7.584729406744367E8 ; 0.0
76 ; 9825455.397347245 ; 1.011297254232582E7 ; 7.242134260419612E8 ; 7.685859132167625E8 ; 0.0
77 ; 9826248.922316233 ; 1.011297254232582E7 ; 7.340388814393084E8 ; 7.786988857590884E8 ; 0.0
78 ; 9825546.898455886 ; 1.011297254232582E7 ; 7.438651303616246E8 ; 7.888118583014143E8 ; 0.0
79 ; 9821332.486811537 ; 1.011297254232582E7 ; 7.536906772600805E8 ; 7.989248308437401E8 ; 0.0
80 ; 9815975.803320823 ; 1.011297254232582E7 ; 7.63512009746892E8 ; 8.09037803386066E8 ; 0.0
81 ; 9818082.83105115 ; 1.011297254232582E7 ; 7.733279855502127E8 ; 8.191507759283918E8 ; 0.0
82 ; 9813127.001203438 ; 1.011297254232582E7 ; 7.831460683812639E8 ; 8.292637484707177E8 ; 0.0
83 ; 9808765.887250844 ; 1.011297254232582E7 ; 7.929591953824673E8 ; 8.393767210130435E8 ; 0.0
84 ; 9805533.501242565 ; 1.011297254232582E7 ; 8.027679612697182E8 ; 8.494896935553694E8 ; 0.0
85 ; 9804821.73560741 ; 1.011297254232582E7 ; 8.125734947709607E8 ; 8.596026660976952E8 ; 0.0
86 ; 9801697.648306752 ; 1.011297254232582E7 ; 8.223783165065681E8 ; 8.697156386400211E8 ; 0.0
87 ; 9795964.596865725 ; 1.011297254232582E7 ; 8.321800141548748E8 ; 8.798286111823469E8 ; 0.0
88 ; 9796749.633879084 ; 1.011297254232582E7 ; 8.419759787517406E8 ; 8.899415837246728E8 ; 0.0
89 ; 9789479.437781164 ; 1.011297254232582E7 ; 8.517727283856196E8 ; 9.000545562669986E8 ; 0.0
90 ; 9788657.676136285 ; 1.011297254232582E7 ; 8.615622078234009E8 ; 9.101675288093245E8 ; 0.0
91 ; 9779191.190291772 ; 1.011297254232582E7 ; 8.713508654995371E8 ; 9.202805013516504E8 ; 0.0
92 ; 9779681.83163868 ; 1.011297254232582E7 ; 8.811300566898289E8 ; 9.303934738939762E8 ; 0.0
93 ; 9773076.226271298 ; 1.011297254232582E7 ; 8.909097385214676E8 ; 9.405064464363021E8 ; 0.0
94 ; 9772296.24140159 ; 1.011297254232582E7 ; 9.006828147477388E8 ; 9.506194189786279E8 ; 0.0
95 ; 9767143.422752863 ; 1.011297254232582E7 ; 9.104551109891404E8 ; 9.607323915209538E8 ; 0.0
96 ; 9760373.390176171 ; 1.011297254232582E7 ; 9.202222544118932E8 ; 9.708453640632796E8 ; 0.0
97 ; 9756824.165762477 ; 1.011297254232582E7 ; 9.299826278020694E8 ; 9.809583366056055E8 ; 0.0
98 ; 9754212.307984162 ; 1.011297254232582E7 ; 9.397394519678319E8 ; 9.910713091479313E8 ; 0.0
99 ; 9744719.46936743 ; 1.011297254232582E7 ; 9.49493664275816E8 ; 1.0011842816902572E9 ; 0.0
100 ; 9745297.856030283 ; 1.011297254232582E7 ; 9.592383837451833E8 ; 1.011297254232583E9 ; 0.0
101 ; 9740117.246061184 ; 1.011297254232582E7 ; 9.689836816012136E8 ; 1.0214102267749089E9 ; 0.0
102 ; 9731251.372875411 ; 1.011297254232582E7 ; 9.787237988472748E8 ; 1.0315231993172348E9 ; 0.0
103 ; 9726664.534681344 ; 1.011297254232582E7 ; 9.884550502201502E8 ; 1.0416361718595606E9 ; 0.0
104 ; 9719974.316206008 ; 1.011297254232582E7 ; 9.981817147548316E8 ; 1.0517491444018865E9 ; 0.0
105 ; 9719664.12828167 ; 1.011297254232582E7 ; 1.0079016890710375E9 ; 1.0618621169442123E9 ; 0.0
106 ; 9710911.61957648 ; 1.011297254232582E7 ; 1.0176213531993192E9 ; 1.0719750894865382E9 ; 0.0
107 ; 9708974.589745427 ; 1.011297254232582E7 ; 1.0273322648188957E9 ; 1.082088062028864E9 ; 0.0
108 ; 9702663.962750366 ; 1.011297254232582E7 ; 1.0370412394086411E9 ; 1.0922010345711896E9 ; 0.0
109 ; 9698618.06419415 ; 1.011297254232582E7 ; 1.0467439033713914E9 ; 1.1023140071135154E9 ; 0.0
110 ; 9687800.63255123 ; 1.011297254232582E7 ; 1.0564425214355856E9 ; 1.112426979655841E9 ; 0.0
111 ; 9687585.112195538 ; 1.011297254232582E7 ; 1.0661303220681368E9 ; 1.1225399521981668E9 ; 0.0
112 ; 9678266.28144571 ; 1.011297254232582E7 ; 1.0758179071803324E9 ; 1.1326529247404926E9 ; 0.0
113 ; 9672746.107217124 ; 1.011297254232582E7 ; 1.0854961734617782E9 ; 1.1427658972828183E9 ; 0.0
114 ; 9668815.80551806 ; 1.011297254232582E7 ; 1.0951689195689952E9 ; 1.152878869825144E9 ; 0.0
115 ; 9658244.754836952 ; 1.011297254232582E7 ; 1.1048377353745134E9 ; 1.1629918423674698E9 ; 0.0
116 ; 9654409.175329277 ; 1.011297254232582E7 ; 1.1144959801293504E9 ; 1.1731048149097955E9 ; 0.0
117 ; 9649185.005541865 ; 1.011297254232582E7 ; 1.1241503893046796E9 ; 1.1832177874521213E9 ; 0.0
118 ; 9642426.84798868 ; 1.011297254232582E7 ; 1.1337995743102214E9 ; 1.193330759994447E9 ; 0.0
119 ; 9634427.193469744 ; 1.011297254232582E7 ; 1.14344200115821E9 ; 1.2034437325367727E9 ; 0.0
120 ; 9627415.650579454 ; 1.011297254232582E7 ; 1.1530764283516798E9 ; 1.2135567050790985E9 ; 0.0
121 ; 9622191.19516947 ; 1.011297254232582E7 ; 1.1627038440022593E9 ; 1.2236696776214242E9 ; 0.0
122 ; 9618109.66142767 ; 1.011297254232582E7 ; 1.1723260351974287E9 ; 1.23378265016375E9 ; 0.0
123 ; 9607808.427212797 ; 1.011297254232582E7 ; 1.1819441448588564E9 ; 1.2438956227060757E9 ; 0.0
124 ; 9602076.565081393 ; 1.011297254232582E7 ; 1.1915519532860692E9 ; 1.2540085952484014E9 ; 0.0
125 ; 9594863.65358682 ; 1.011297254232582E7 ; 1.2011540298511505E9 ; 1.2641215677907271E9 ; 0.0
126 ; 9587934.160498813 ; 1.011297254232582E7 ; 1.2107488935047374E9 ; 1.2742345403330529E9 ; 0.0
127 ; 9580318.368940886 ; 1.011297254232582E7 ; 1.2203368276652362E9 ; 1.2843475128753786E9 ; 0.0
128 ; 9571800.19542785 ; 1.011297254232582E7 ; 1.229917146034177E9 ; 1.2944604854177043E9 ; 0.0
129 ; 9564762.50993519 ; 1.011297254232582E7 ; 1.239488946229605E9 ; 1.30457345796003E9 ; 0.0
130 ; 9556321.988596769 ; 1.011297254232582E7 ; 1.24905370873954E9 ; 1.3146864305023558E9 ; 0.0
131 ; 9547362.196563082 ; 1.011297254232582E7 ; 1.2586100307281368E9 ; 1.3247994030446815E9 ; 0.0
132 ; 9534056.558477458 ; 1.011297254232582E7 ; 1.2681573929246998E9 ; 1.3349123755870073E9 ; 0.0
133 ; 9523731.272851143 ; 1.011297254232582E7 ; 1.2776914494831772E9 ; 1.345025348129333E9 ; 0.0
134 ; 9513750.36132853 ; 1.011297254232582E7 ; 1.2872151807560284E9 ; 1.3551383206716588E9 ; 0.0
135 ; 9500349.611237355 ; 1.011297254232582E7 ; 1.296728931117357E9 ; 1.3652512932139845E9 ; 0.0
136 ; 9492346.247245796 ; 1.011297254232582E7 ; 1.3062292807285943E9 ; 1.3753642657563102E9 ; 0.0
137 ; 9480977.46699705 ; 1.011297254232582E7 ; 1.31572162697584E9 ; 1.385477238298636E9 ; 0.0
138 ; 9465988.879134247 ; 1.011297254232582E7 ; 1.3252026044428372E9 ; 1.3955902108409617E9 ; 0.0
139 ; 9456598.61456729 ; 1.011297254232582E7 ; 1.3346685933219714E9 ; 1.4057031833832874E9 ; 0.0
140 ; 9445198.611840997 ; 1.011297254232582E7 ; 1.3441251919365387E9 ; 1.4158161559256132E9 ; 0.0
141 ; 9432656.56530155 ; 1.011297254232582E7 ; 1.3535703905483797E9 ; 1.425929128467939E9 ; 0.0
142 ; 9418920.717904458 ; 1.011297254232582E7 ; 1.3630030471136813E9 ; 1.4360421010102646E9 ; 0.0
143 ; 9409416.864701806 ; 1.011297254232582E7 ; 1.372421967831586E9 ; 1.4461550735525904E9 ; 0.0
144 ; 9399420.848970268 ; 1.011297254232582E7 ; 1.3818313846962876E9 ; 1.456268046094916E9 ; 0.0
145 ; 9390689.843415735 ; 1.011297254232582E7 ; 1.3912308055452578E9 ; 1.4663810186372418E9 ; 0.0
146 ; 9382410.103507878 ; 1.011297254232582E7 ; 1.4006214953886735E9 ; 1.4764939911795676E9 ; 0.0
147 ; 9377184.036434289 ; 1.011297254232582E7 ; 1.4100039054921815E9 ; 1.4866069637218933E9 ; 0.0
148 ; 9364327.167108672 ; 1.011297254232582E7 ; 1.4193810895286157E9 ; 1.496719936264219E9 ; 0.0
149 ; 9358112.381919466 ; 1.011297254232582E7 ; 1.4287454166957245E9 ; 1.5068329088065448E9 ; 0.0
150 ; 9352896.99289631 ; 1.011297254232582E7 ; 1.4381035290776439E9 ; 1.5169458813488705E9 ; 0.0
151 ; 9341855.426935801 ; 1.011297254232582E7 ; 1.4474564260705402E9 ; 1.5270588538911963E9 ; 0.0
152 ; 9331389.219024394 ; 1.011297254232582E7 ; 1.456798281497476E9 ; 1.537171826433522E9 ; 0.0
153 ; 9326483.72265737 ; 1.011297254232582E7 ; 1.4661296707165005E9 ; 1.5472847989758477E9 ; 0.0
154 ; 9319199.202095108 ; 1.011297254232582E7 ; 1.475456154439158E9 ; 1.5573977715181735E9 ; 0.0
155 ; 9307722.21112665 ; 1.011297254232582E7 ; 1.484775353641253E9 ; 1.5675107440604992E9 ; 0.0
156 ; 9299739.79765237 ; 1.011297254232582E7 ; 1.4940830758523796E9 ; 1.577623716602825E9 ; 0.0
157 ; 9290133.634441858 ; 1.011297254232582E7 ; 1.503382815650032E9 ; 1.5877366891451507E9 ; 0.0
158 ; 9282420.33399081 ; 1.011297254232582E7 ; 1.512672949284474E9 ; 1.5978496616874764E9 ; 0.0
159 ; 9275136.027607976 ; 1.011297254232582E7 ; 1.5219553696184647E9 ; 1.6079626342298021E9 ; 0.0
160 ; 9263781.231798217 ; 1.011297254232582E7 ; 1.5312305056460726E9 ; 1.6180756067721279E9 ; 0.0
161 ; 9257347.173161514 ; 1.011297254232582E7 ; 1.5404942868778708E9 ; 1.6281885793144536E9 ; 0.0
162 ; 9247615.857923746 ; 1.011297254232582E7 ; 1.5497516340510323E9 ; 1.6383015518567793E9 ; 0.0
163 ; 9240262.84293783 ; 1.011297254232582E7 ; 1.558999249908956E9 ; 1.648414524399105E9 ; 0.0
164 ; 9230572.454627112 ; 1.011297254232582E7 ; 1.568239512751894E9 ; 1.6585274969414308E9 ; 0.0
165 ; 9222434.721085379 ; 1.011297254232582E7 ; 1.577470085206521E9 ; 1.6686404694837565E9 ; 0.0
166 ; 9212652.374776533 ; 1.011297254232582E7 ; 1.5866925199276063E9 ; 1.6787534420260823E9 ; 0.0
167 ; 9203263.100737233 ; 1.011297254232582E7 ; 1.595905172302383E9 ; 1.688866414568408E9 ; 0.0
168 ; 9196703.35486143 ; 1.011297254232582E7 ; 1.6051084354031203E9 ; 1.6989793871107337E9 ; 0.0
169 ; 9186848.761776488 ; 1.011297254232582E7 ; 1.6143051387579818E9 ; 1.7090923596530595E9 ; 0.0
170 ; 9177084.195260627 ; 1.011297254232582E7 ; 1.6234919875197582E9 ; 1.7192053321953852E9 ; 0.0
171 ; 9167311.889086694 ; 1.011297254232582E7 ; 1.6326690717150187E9 ; 1.729318304737711E9 ; 0.0
172 ; 9157001.97317743 ; 1.011297254232582E7 ; 1.6418363836041055E9 ; 1.7394312772800367E9 ; 0.0
173 ; 9150671.862681221 ; 1.011297254232582E7 ; 1.650993385577283E9 ; 1.7495442498223624E9 ; 0.0
174 ; 9145258.852697575 ; 1.011297254232582E7 ; 1.660144057439964E9 ; 1.7596572223646882E9 ; 0.0
175 ; 9141012.57689224 ; 1.011297254232582E7 ; 1.6692893162926617E9 ; 1.769770194907014E9 ; 0.0
176 ; 9137180.511783242 ; 1.011297254232582E7 ; 1.6784303288695538E9 ; 1.7798831674493396E9 ; 0.0
177 ; 9127322.17194174 ; 1.011297254232582E7 ; 1.6875675093813372E9 ; 1.7899961399916654E9 ; 0.0
178 ; 9123192.19224483 ; 1.011297254232582E7 ; 1.696694831553279E9 ; 1.800109112533991E9 ; 0.0
179 ; 9115885.79957364 ; 1.011297254232582E7 ; 1.7058180237455237E9 ; 1.8102220850763168E9 ; 0.0
180 ; 9111599.177339053 ; 1.011297254232582E7 ; 1.7149339095450974E9 ; 1.8203350576186426E9 ; 0.0
181 ; 9105677.06707354 ; 1.011297254232582E7 ; 1.7240455087224364E9 ; 1.8304480301609683E9 ; 0.0
182 ; 9100708.262499465 ; 1.011297254232582E7 ; 1.73315118578951E9 ; 1.840561002703294E9 ; 0.0
183 ; 9097657.85034112 ; 1.011297254232582E7 ; 1.7422518940520096E9 ; 1.8506739752456198E9 ; 0.0
184 ; 9086993.984029057 ; 1.011297254232582E7 ; 1.7513495519023507E9 ; 1.8607869477879455E9 ; 0.0
185 ; 9082702.106521912 ; 1.011297254232582E7 ; 1.7604365458863797E9 ; 1.8708999203302712E9 ; 0.0
186 ; 9080020.976923317 ; 1.011297254232582E7 ; 1.7695192479929016E9 ; 1.881012892872597E9 ; 0.0
187 ; 9069442.604153033 ; 1.011297254232582E7 ; 1.7785992689698248E9 ; 1.8911258654149227E9 ; 0.0
188 ; 9067712.151335223 ; 1.011297254232582E7 ; 1.7876687115739777E9 ; 1.9012388379572484E9 ; 0.0
189 ; 9060651.060132373 ; 1.011297254232582E7 ; 1.796736423725313E9 ; 1.9113518104995742E9 ; 0.0
190 ; 9056340.25589524 ; 1.011297254232582E7 ; 1.8057970747854452E9 ; 1.9214647830419E9 ; 0.0
191 ; 9055210.866812998 ; 1.011297254232582E7 ; 1.8148534150413404E9 ; 1.9315777555842257E9 ; 0.0
192 ; 9043828.408558056 ; 1.011297254232582E7 ; 1.8239086259081533E9 ; 1.9416907281265514E9 ; 0.0
193 ; 9039367.41492247 ; 1.011297254232582E7 ; 1.8329524543167114E9 ; 1.9518037006688771E9 ; 0.0
194 ; 9035291.305496844 ; 1.011297254232582E7 ; 1.841991821731634E9 ; 1.9619166732112029E9 ; 0.0
195 ; 9030571.959966417 ; 1.011297254232582E7 ; 1.8510271130371308E9 ; 1.9720296457535286E9 ; 0.0
196 ; 9022687.077733172 ; 1.011297254232582E7 ; 1.8600576849970973E9 ; 1.9821426182958543E9 ; 0.0
197 ; 9019666.054768642 ; 1.011297254232582E7 ; 1.8690803720748305E9 ; 1.99225559083818E9 ; 0.0
198 ; 9013945.146940159 ; 1.011297254232582E7 ; 1.878100038129599E9 ; 2.0023685633805058E9 ; 0.0
199 ; 9009068.760990866 ; 1.011297254232582E7 ; 1.8871139832765393E9 ; 2.0124815359228315E9 ; 0.0
200 ; 9001213.940843202 ; 1.011297254232582E7 ; 1.8961230520375302E9 ; 2.0225945084651573E9 ; 0.0
201 ; 8996554.176695855 ; 1.011297254232582E7 ; 1.9051242659783733E9 ; 2.032707481007483E9 ; 0.0
202 ; 8992456.96089346 ; 1.011297254232582E7 ; 1.914120820155069E9 ; 2.0428204535498087E9 ; 0.0
203 ; 8985144.26086046 ; 1.011297254232582E7 ; 1.9231132771159625E9 ; 2.0529334260921345E9 ; 0.0
204 ; 8978348.452026282 ; 1.011297254232582E7 ; 1.932098421376823E9 ; 2.0630463986344602E9 ; 0.0
