CSV File for the City 3 on Day 194
1 - Minute m 
2 - Power Consumed at minute m 
3 - Power Produced at minute m 
4 - Energy Consumed since the beginning of the day 
5 - Energy Produced since the beginning of the day 
6 - Energy Lost since the beginning of the day on lines starting from the city
 
0 ; 290424.9132712251 ; 1.054308455124189E8 ; 0.0 ; 0.0 ; 0.0
1 ; 291350.4776290724 ; 1.0558366004766774E8 ; 290424.9132712251 ; 1.054308455124189E8 ; 0.0
2 ; 294940.0560497595 ; 1.0604526760738698E8 ; 581775.3909002976 ; 2.1101450556008664E8 ; 0.0
3 ; 298222.81488848245 ; 1.0681567060942346E8 ; 876715.446950057 ; 3.170597731674736E8 ; 0.0
4 ; 302854.5019624499 ; 1.0789487123887652E8 ; 1174938.2618385395 ; 4.238754437768971E8 ; 0.0
5 ; 305020.49145735963 ; 1.0928287142997587E8 ; 1477792.7638009894 ; 5.317703150157736E8 ; 0.0
6 ; 312427.7760786517 ; 1.1097967284956202E8 ; 1782813.255258349 ; 6.410531864457495E8 ; 0.0
7 ; 319494.38097116194 ; 1.1298527688248718E8 ; 2095241.0313370007 ; 7.520328592953116E8 ; 0.0
8 ; 331456.3404424193 ; 1.152996846192298E8 ; 2414735.4123081625 ; 8.650181361777987E8 ; 0.0
9 ; 347712.14017532096 ; 1.1792289684597594E8 ; 2746191.752750582 ; 9.803178207970285E8 ; 0.0
10 ; 373685.7604194654 ; 1.2085491403737861E8 ; 3093903.892925903 ; 1.0982407176430044E9 ; 0.0
11 ; 416267.75748544006 ; 1.240957363521488E8 ; 3467589.653345369 ; 1.219095631680383E9 ; 0.0
12 ; 483557.25443505344 ; 1.276453636315755E8 ; 3883857.410830809 ; 1.3431913680325317E9 ; 0.0
13 ; 546898.158740017 ; 1.3150379540100569E8 ; 4367414.665265862 ; 1.4708367316641073E9 ; 0.0
14 ; 554125.8884062659 ; 1.356710308742534E8 ; 4914312.8240058785 ; 1.602340527065113E9 ; 0.0
15 ; 557858.4334114371 ; 1.4014706896084005E8 ; 5468438.712412144 ; 1.7380115579393663E9 ; 0.0
16 ; 561187.2926794627 ; 1.4493190827591357E8 ; 6026297.145823581 ; 1.8781586269002063E9 ; 0.0
17 ; 563365.0337276291 ; 1.5002554715263334E8 ; 6587484.438503044 ; 2.0230905351761198E9 ; 0.0
18 ; 567217.7550417286 ; 1.554279836567697E8 ; 7150849.472230673 ; 2.173116082328753E9 ; 0.0
19 ; 569382.0373879834 ; 1.611392156032233E8 ; 7718067.227272402 ; 2.3285440659855227E9 ; 0.0
20 ; 573153.3722937322 ; 1.6715924057414725E8 ; 8287449.2646603845 ; 2.489683281588746E9 ; 0.0
21 ; 577194.9280572839 ; 1.7348805593833843E8 ; 8860602.636954118 ; 2.6568425221628933E9 ; 0.0
22 ; 579015.1556693304 ; 1.8012565887155646E8 ; 9437797.5650114 ; 2.8303305781012316E9 ; 0.0
23 ; 582321.5893732713 ; 1.8707204637743688E8 ; 1.001681272068073E7 ; 3.010456236972788E9 ; 0.0
24 ; 586308.998223896 ; 1.9432721530867368E8 ; 1.0599134310054002E7 ; 3.1975282833502245E9 ; 0.0
25 ; 590431.4306848984 ; 2.0057920328635487E8 ; 1.1185443308277898E7 ; 3.3918554986588984E9 ; 0.0
26 ; 593700.1027496705 ; 2.0058155475770262E8 ; 1.1775874738962796E7 ; 3.5924347019452534E9 ; 0.0
27 ; 596724.9502373995 ; 2.0058403554126903E8 ; 1.2369574841712466E7 ; 3.793016256702956E9 ; 0.0
28 ; 599734.0803162254 ; 2.005866420932389E8 ; 1.2966299791949864E7 ; 3.993600292244225E9 ; 0.0
29 ; 603623.3083439006 ; 2.0058937081926683E8 ; 1.356603387226609E7 ; 4.194186934337464E9 ; 0.0
30 ; 607662.8311545084 ; 2.0059221809199142E8 ; 1.416965718060999E7 ; 4.394776305156731E9 ; 0.0
31 ; 609597.8201098436 ; 2.0059518026736528E8 ; 1.4777320011764498E7 ; 4.595368523248722E9 ; 0.0
32 ; 612363.7229302785 ; 2.005982536997278E8 ; 1.5386917831874343E7 ; 4.795963703516088E9 ; 0.0
33 ; 615994.6799507003 ; 2.0060143475557762E8 ; 1.5999281554804621E7 ; 4.996561957215816E9 ; 0.0
34 ; 618827.3264914805 ; 2.0060471982602698E8 ; 1.6615276234755322E7 ; 5.197163391971394E9 ; 0.0
35 ; 619344.9099405708 ; 2.0060810533794537E8 ; 1.72341035612468E7 ; 5.3977681117974205E9 ; 0.0
36 ; 623564.0077304684 ; 2.006115877638182E8 ; 1.785344847118737E7 ; 5.5983762171353655E9 ; 0.0
37 ; 625776.5276092631 ; 2.0061516363036296E8 ; 1.847701247891784E7 ; 5.798987804899183E9 ; 0.0
38 ; 629825.5351622564 ; 2.0061882952595854E8 ; 1.9102789006527103E7 ; 5.999602968529546E9 ; 0.0
39 ; 631299.661880761 ; 2.0062258210695285E8 ; 1.973261454168936E7 ; 6.200221798055504E9 ; 0.0
40 ; 634532.187168417 ; 2.006264181029212E8 ; 2.036391420357012E7 ; 6.4008443801624565E9 ; 0.0
41 ; 637536.0372110873 ; 2.0063033432095185E8 ; 2.0998446390738536E7 ; 6.601470798265378E9 ; 0.0
42 ; 638937.8422120379 ; 2.0063432764903852E8 ; 2.1635982427949622E7 ; 6.802101132586329E9 ; 0.0
43 ; 642427.4921235893 ; 2.0063839505865893E8 ; 2.227492027016166E7 ; 7.002735460235368E9 ; 0.0
44 ; 644883.5425436328 ; 2.0064253360661837E8 ; 2.2917347762285247E7 ; 7.203373855294026E9 ; 0.0
45 ; 646025.4145773407 ; 2.0064674043623492E8 ; 2.356223130482888E7 ; 7.404016388900644E9 ; 0.0
46 ; 647569.9353258326 ; 2.0065101277793944E8 ; 2.4208256719406217E7 ; 7.604663129336879E9 ; 0.0
47 ; 648745.9449347325 ; 2.0065534794936E8 ; 2.485582665473205E7 ; 7.805314142114819E9 ; 0.0
48 ; 649965.8322649082 ; 2.0065974335495627E8 ; 2.550457259966678E7 ; 8.005969490064178E9 ; 0.0
49 ; 651756.1263859661 ; 2.0066419648526415E8 ; 2.615453843193169E7 ; 8.206629233419135E9 ; 0.0
50 ; 652496.4801665993 ; 2.0066870491580716E8 ; 2.6806294558317654E7 ; 8.407293429904399E9 ; 0.0
51 ; 654302.1454775031 ; 2.0067326630572513E8 ; 2.7458791038484253E7 ; 8.607962134820206E9 ; 0.0
52 ; 654677.7523089193 ; 2.006778783961674E8 ; 2.8113093183961757E7 ; 8.80863540112593E9 ; 0.0
53 ; 656554.7258395234 ; 2.0068253900849193E8 ; 2.8767770936270677E7 ; 9.009313279522099E9 ; 0.0
54 ; 658233.2131967542 ; 2.006872460423082E8 ; 2.94243256621102E7 ; 9.20999581853059E9 ; 0.0
55 ; 659840.4890945632 ; 2.0069199747339737E8 ; 3.0082558875306953E7 ; 9.410683064572899E9 ; 0.0
56 ; 662131.4815215619 ; 2.0069679135153916E8 ; 3.0742399364401516E7 ; 9.611375062046297E9 ; 0.0
57 ; 662068.4814109575 ; 2.0070162579827175E8 ; 3.1404530845923077E7 ; 9.812071853397837E9 ; 0.0
58 ; 662548.1116626766 ; 2.0070649900460717E8 ; 3.2066599327334035E7 ; 1.0012773479196108E10 ; 0.0
59 ; 664261.8896644491 ; 2.0071140922872224E8 ; 3.272914743899671E7 ; 1.0213479978200714E10 ; 0.0
60 ; 666521.3994059725 ; 2.0071635479364184E8 ; 3.339340932866116E7 ; 1.0414191387429436E10 ; 0.0
61 ; 665923.9380376579 ; 2.0072133408492902E8 ; 3.405993072806713E7 ; 1.0614907742223078E10 ; 0.0
62 ; 667635.139428583 ; 2.0072634554839474E8 ; 3.4725854666104786E7 ; 1.0815629076308006E10 ; 0.0
63 ; 669641.7824112314 ; 2.0073138768783677E8 ; 3.539348980553337E7 ; 1.1016355421856401E10 ; 0.0
64 ; 669426.9497423656 ; 2.007364590628173E8 ; 3.6063131587944604E7 ; 1.1217086809544239E10 ; 0.0
65 ; 670331.5345771688 ; 2.0074155828648552E8 ; 3.6732558537686974E7 ; 1.1417823268607056E10 ; 0.0
66 ; 670737.109896838 ; 2.0074668402345115E8 ; 3.740289007226414E7 ; 1.1618564826893541E10 ; 0.0
67 ; 674151.5444029302 ; 2.0075183498771352E8 ; 3.807362718216098E7 ; 1.1819311510916992E10 ; 0.0
68 ; 673087.3233085466 ; 2.0075700994064948E8 ; 3.874777872656391E7 ; 1.2020063345904705E10 ; 0.0
69 ; 675493.9861230648 ; 2.0076220768906242E8 ; 3.942086604987246E7 ; 1.2220820355845354E10 ; 0.0
70 ; 676871.4484030869 ; 2.0076742708329463E8 ; 4.009636003599552E7 ; 1.2421582563534416E10 ; 0.0
71 ; 676984.5310931953 ; 2.0077266701540372E8 ; 4.077323148439861E7 ; 1.262234999061771E10 ; 0.0
72 ; 678164.1797394716 ; 2.0077792641740358E8 ; 4.1450216015491806E7 ; 1.2823122657633114E10 ; 0.0
73 ; 680234.1804058257 ; 2.0078320425957006E8 ; 4.212838019523128E7 ; 1.3023900584050518E10 ; 0.0
74 ; 678921.6200170746 ; 2.0078849954881102E8 ; 4.280861437563711E7 ; 1.3224683788310087E10 ; 0.0
75 ; 680955.2700628864 ; 2.0079381132709953E8 ; 4.348753599565418E7 ; 1.3425472287858898E10 ; 0.0
76 ; 682439.4912577383 ; 2.0079913866996992E8 ; 4.416849126571707E7 ; 1.3626266099185997E10 ; 0.0
77 ; 682218.1621498412 ; 2.0080448068507484E8 ; 4.48509307569748E7 ; 1.3827065237855967E10 ; 0.0
78 ; 681783.7934764492 ; 2.0080983651080218E8 ; 4.553314891912464E7 ; 1.4027869718541042E10 ; 0.0
79 ; 682521.4847670662 ; 2.0081520531495035E8 ; 4.621493271260109E7 ; 1.4228679555051844E10 ; 0.0
80 ; 682502.5435868994 ; 2.008205862934599E8 ; 4.689745419736815E7 ; 1.4429494760366795E10 ; 0.0
81 ; 682632.085099508 ; 2.008259786692001E8 ; 4.7579956740955055E7 ; 1.4630315346660255E10 ; 0.0
82 ; 682614.9126715242 ; 2.0083138169080842E8 ; 4.8262588826054566E7 ; 1.4831141325329456E10 ; 0.0
83 ; 682310.5784884341 ; 2.0083679463158134E8 ; 4.894520373872609E7 ; 1.5031972707020266E10 ; 0.0
84 ; 680598.8212839859 ; 2.0084221678841403E8 ; 4.962751431721452E7 ; 1.5232809501651848E10 ; 0.0
85 ; 682672.811084291 ; 2.0084764748078796E8 ; 5.030811313849851E7 ; 1.5433651718440262E10 ; 0.0
86 ; 681180.6318637258 ; 2.0085308604980367E8 ; 5.09907859495828E7 ; 1.563449936592105E10 ; 0.0
87 ; 680019.3574731972 ; 2.0085853185725743E8 ; 5.167196658144653E7 ; 1.5835352451970852E10 ; 0.0
88 ; 680329.8880161417 ; 2.008639842847597E8 ; 5.235198593891972E7 ; 1.603621098382811E10 ; 0.0
89 ; 680488.8275425355 ; 2.0086944273289406E8 ; 5.3032315826935865E7 ; 1.623707496811287E10 ; 0.0
90 ; 680480.5486063967 ; 2.0087490662041423E8 ; 5.37128046544784E7 ; 1.6437944410845764E10 ; 0.0
91 ; 680466.1028878174 ; 2.0088037538347805E8 ; 5.43932852030848E7 ; 1.6638819317466179E10 ; 0.0
92 ; 681675.4377897927 ; 2.008858484749165E8 ; 5.507375130597261E7 ; 1.6839699692849657E10 ; 0.0
93 ; 679671.3335628905 ; 2.008913253635364E8 ; 5.5755426743762404E7 ; 1.7040585541324574E10 ; 0.0
94 ; 680525.8275542055 ; 2.0089680553345513E8 ; 5.643509807732529E7 ; 1.724147686668811E10 ; 0.0
95 ; 678487.6263126028 ; 2.009022884834659E8 ; 5.7115623904879496E7 ; 1.7442373672221565E10 ; 0.0
96 ; 679863.4510281855 ; 2.0090777372643217E8 ; 5.77941115311921E7 ; 1.7643275960705032E10 ; 0.0
97 ; 679627.7061218445 ; 2.0091326078871003E8 ; 5.8473974982220285E7 ; 1.7844183734431465E10 ; 0.0
98 ; 679020.6600301493 ; 2.0091874920959702E8 ; 5.915360268834213E7 ; 1.8045096995220177E10 ; 0.0
99 ; 678030.6493517801 ; 2.0092423854080617E8 ; 5.983262334837228E7 ; 1.8246015744429775E10 ; 0.0
100 ; 677067.8324618979 ; 2.0092972834596434E8 ; 6.051065399772406E7 ; 1.844693998297058E10 ; 0.0
101 ; 676426.1156570029 ; 2.0093521820013332E8 ; 6.1187721830185965E7 ; 1.8647869711316544E10 ; 0.0
102 ; 676395.0398270874 ; 2.009407076893529E8 ; 6.186414794584297E7 ; 1.8848804929516678E10 ; 0.0
103 ; 677325.7471693684 ; 2.0094619641020462E8 ; 6.254054298567005E7 ; 1.904974563720603E10 ; 0.0
104 ; 676248.0377930637 ; 2.009516839693956E8 ; 6.321786873283942E7 ; 1.9250691833616238E10 ; 0.0
105 ; 675189.7968722444 ; 2.009571699833611E8 ; 6.389411677063248E7 ; 1.9451643517585632E10 ; 0.0
106 ; 675105.0613612388 ; 2.0096265407788497E8 ; 6.456930656750473E7 ; 1.9652600687568993E10 ; 0.0
107 ; 675904.1768996505 ; 2.0096813588773748E8 ; 6.5244411628865965E7 ; 1.9853563341646877E10 ; 0.0
108 ; 674183.0152337599 ; 2.0097361505632916E8 ; 6.5920315805765614E7 ; 2.0054531477534615E10 ; 0.0
109 ; 675686.4088294415 ; 2.0097909123538038E8 ; 6.659449882099938E7 ; 2.0255505092590942E10 ; 0.0
110 ; 674282.3581775883 ; 2.0098456408460566E8 ; 6.727018522982882E7 ; 2.0456484183826324E10 ; 0.0
111 ; 670928.1863264897 ; 2.0099003327141201E8 ; 6.79444675880064E7 ; 2.065746874791093E10 ; 0.0
112 ; 671691.2935803194 ; 2.0099549847061056E8 ; 6.86153957743329E7 ; 2.0858458781182343E10 ; 0.0
113 ; 671459.0365556825 ; 2.010009593641413E8 ; 6.928708706791322E7 ; 2.1059454279652954E10 ; 0.0
114 ; 670825.3987405148 ; 2.0100641564080957E8 ; 6.99585461044689E7 ; 2.1260455239017094E10 ; 0.0
115 ; 668225.8548675781 ; 2.0101186699603435E8 ; 7.062937150320941E7 ; 2.14614616546579E10 ; 0.0
116 ; 668317.2421416921 ; 2.0101731313160765E8 ; 7.129759735807699E7 ; 2.1662473521653934E10 ; 0.0
117 ; 668557.6840398933 ; 2.010227537554641E8 ; 7.196591460021868E7 ; 2.186349083478554E10 ; 0.0
118 ; 665756.1446324121 ; 2.010281885814608E8 ; 7.263447228425857E7 ; 2.2064513588541004E10 ; 0.0
119 ; 667317.1663680049 ; 2.0103361732916668E8 ; 7.330022842889099E7 ; 2.2265541777122463E10 ; 0.0
120 ; 666230.4079481853 ; 2.010390397236609E8 ; 7.3967545595259E7 ; 2.246657539445163E10 ; 0.0
121 ; 666523.60392445 ; 2.0104445549533975E8 ; 7.463377600320718E7 ; 2.266761443417529E10 ; 0.0
122 ; 664688.0500533584 ; 2.0104986437973222E8 ; 7.530029960713163E7 ; 2.2868658889670628E10 ; 0.0
123 ; 665296.8471346871 ; 2.0105526611732298E8 ; 7.596498765718499E7 ; 2.306970875405036E10 ; 0.0
124 ; 662776.4053340885 ; 2.010606604533831E8 ; 7.663028450431968E7 ; 2.3270764020167686E10 ; 0.0
125 ; 662286.4834431242 ; 2.01066047137808E8 ; 7.729306090965377E7 ; 2.347182468062107E10 ; 0.0
126 ; 661468.5442120295 ; 2.0107142592496192E8 ; 7.79553473930969E7 ; 2.367289072775888E10 ; 0.0
127 ; 661232.524668166 ; 2.0107679657352933E8 ; 7.861681593730892E7 ; 2.387396215368384E10 ; 0.0
128 ; 658822.0871439704 ; 2.010821588463721E8 ; 7.92780484619771E7 ; 2.407503895025737E10 ; 0.0
129 ; 659401.3724384748 ; 2.0108751251039293E8 ; 7.993687054912107E7 ; 2.427612110910374E10 ; 0.0
130 ; 656997.2723966549 ; 2.010928573364043E8 ; 8.059627192155954E7 ; 2.4477208621614132E10 ; 0.0
131 ; 655087.8268003198 ; 2.0109819309900275E8 ; 8.12532691939562E7 ; 2.4678301478950535E10 ; 0.0
132 ; 652468.1003830534 ; 2.0110351957644862E8 ; 8.190835702075651E7 ; 2.4879399672049538E10 ; 0.0
133 ; 652551.29285993 ; 2.0110883655055022E8 ; 8.256082512113957E7 ; 2.5080503191625988E10 ; 0.0
134 ; 650975.1966067867 ; 2.0111414380655318E8 ; 8.32133764139995E7 ; 2.5281612028176537E10 ; 0.0
135 ; 650439.725914784 ; 2.0111944113303402E8 ; 8.386435161060628E7 ; 2.548272617198309E10 ; 0.0
136 ; 648451.8447359113 ; 2.0112472832179806E8 ; 8.451479133652107E7 ; 2.5683845613116123E10 ; 0.0
137 ; 646853.99390999 ; 2.011300051677815E8 ; 8.516324318125698E7 ; 2.588497034143792E10 ; 0.0
138 ; 644064.1638921191 ; 2.0113527146895736E8 ; 8.581009717516696E7 ; 2.60861003466057E10 ; 0.0
139 ; 641911.3000274997 ; 2.0114052702624515E8 ; 8.645416133905908E7 ; 2.6287235618074657E10 ; 0.0
140 ; 640184.4564183449 ; 2.0114577164342412E8 ; 8.709607263908659E7 ; 2.6488376145100903E10 ; 0.0
141 ; 638351.0301965174 ; 2.011510051270501E8 ; 8.773625709550494E7 ; 2.6689521916744328E10 ; 0.0
142 ; 636922.7516150548 ; 2.0115622728637534E8 ; 8.837460812570146E7 ; 2.6890672921871376E10 ; 0.0
143 ; 634959.141296792 ; 2.0116143793327177E8 ; 8.90115308773165E7 ; 2.7091829149157753E10 ; 0.0
144 ; 632507.7320711307 ; 2.0116663688215697E8 ; 8.96464900186133E7 ; 2.7292990587091026E10 ; 0.0
145 ; 630213.7035840221 ; 2.0117182394992325E8 ; 9.027899775068443E7 ; 2.7494157223973183E10 ; 0.0
146 ; 630977.4759184851 ; 2.0117699895586938E8 ; 9.090921145426844E7 ; 2.7695329047923107E10 ; 0.0
147 ; 630580.6922885249 ; 2.0118216172163498E8 ; 9.154018893018693E7 ; 2.7896506046878975E10 ; 0.0
148 ; 629069.5775960339 ; 2.011873120711374E8 ; 9.217076962247545E7 ; 2.809768820860061E10 ; 0.0
149 ; 628612.867633152 ; 2.0119244983051094E8 ; 9.279983920007148E7 ; 2.8298875520671745E10 ; 0.0
150 ; 627320.7539645137 ; 2.0119757482804862E8 ; 9.342845206770463E7 ; 2.8500067970502254E10 ; 0.0
151 ; 626413.978958268 ; 2.012026868941459E8 ; 9.405577282166915E7 ; 2.8701265545330303E10 ; 0.0
152 ; 625240.6891492017 ; 2.0120778586124668E8 ; 9.468218680062741E7 ; 2.890246823222445E10 ; 0.0
153 ; 624225.5791285763 ; 2.012128715637913E8 ; 9.530742748977661E7 ; 2.9103676018085697E10 ; 0.0
154 ; 624236.2075017482 ; 2.0121794383816642E8 ; 9.593165306890519E7 ; 2.930488888964949E10 ; 0.0
155 ; 622465.9789412626 ; 2.012230025226569E8 ; 9.655588927640694E7 ; 2.9506106833487656E10 ; 0.0
156 ; 621228.8751319118 ; 2.0122804745739937E8 ; 9.71783552553482E7 ; 2.970732983601031E10 ; 0.0
157 ; 622053.8122250823 ; 2.0123307848433754E8 ; 9.779958413048011E7 ; 2.9908557883467712E10 ; 0.0
158 ; 620152.1119704378 ; 2.0123809544717923E8 ; 9.84216379427052E7 ; 3.010979096195205E10 ; 0.0
159 ; 618051.5233621459 ; 2.012430981913549E8 ; 9.904179005467564E7 ; 3.0311029057399227E10 ; 0.0
160 ; 617091.2619892743 ; 2.0124808656397772E8 ; 9.965984157803778E7 ; 3.0512272155590584E10 ; 0.0
161 ; 615640.3944821608 ; 2.0125306041380507E8 ; 1.0027693284002706E8 ; 3.071352024215456E10 ; 0.0
162 ; 614905.1483303148 ; 2.012580195912016E8 ; 1.0089257323450923E8 ; 3.0914773302568367E10 ; 0.0
163 ; 614772.6784924393 ; 2.012629639481034E8 ; 1.0150747838283955E8 ; 3.111603132215957E10 ; 0.0
164 ; 615740.3908521299 ; 2.0126789333798364E8 ; 1.0212225106133199E8 ; 3.1317294286107674E10 ; 0.0
165 ; 613851.0592410439 ; 2.0127280761581933E8 ; 1.0273799145218411E8 ; 3.1518562179445656E10 ; 0.0
166 ; 611766.7094776508 ; 2.0127770663805944E8 ; 1.0335184251142515E8 ; 3.1719834987061474E10 ; 0.0
167 ; 609596.4132224518 ; 2.0128259026259387E8 ; 1.039636092209028E8 ; 3.192111269369953E10 ; 0.0
168 ; 610751.2203455674 ; 2.0128745834872395E8 ; 1.0457320563412525E8 ; 3.2122395283962124E10 ; 0.0
169 ; 609991.938264885 ; 2.012923107571335E8 ; 1.0518395685447082E8 ; 3.232368274231085E10 ; 0.0
170 ; 608464.5684034805 ; 2.012971473498614E8 ; 1.0579394879273571E8 ; 3.252497505306798E10 ; 0.0
171 ; 607860.7326514296 ; 2.0130196799027476E8 ; 1.064024133611392E8 ; 3.2726272200417843E10 ; 0.0
172 ; 606873.954990742 ; 2.0130677254304314E8 ; 1.0701027409379062E8 ; 3.292757416840812E10 ; 0.0
173 ; 604144.9717053744 ; 2.0131156087411383E8 ; 1.0761714804878137E8 ; 3.3128880940951164E10 ; 0.0
174 ; 604700.1697161214 ; 2.0131633285068786E8 ; 1.0822129302048674E8 ; 3.333019250182528E10 ; 0.0
175 ; 603496.031225168 ; 2.0132108834119672E8 ; 1.0882599319020286E8 ; 3.353150883467597E10 ; 0.0
176 ; 604135.1162526208 ; 2.0132582721528026E8 ; 1.0942948922142804E8 ; 3.3732829923017166E10 ; 0.0
177 ; 601881.810469177 ; 2.013305493437649E8 ; 1.1003362433768065E8 ; 3.3934155750232445E10 ; 0.0
178 ; 601442.5853966228 ; 2.0133525459864303E8 ; 1.1063550614814983E8 ; 3.413548629957621E10 ; 0.0
179 ; 602293.8613433352 ; 2.0133994285305285E8 ; 1.1123694873354645E8 ; 3.4336821554174854E10 ; 0.0
180 ; 601503.3666549446 ; 2.013446139812589E8 ; 1.1183924259488979E8 ; 3.453816149702791E10 ; 0.0
181 ; 600657.1170015965 ; 2.0134926785863346E8 ; 1.1244074596154474E8 ; 3.473950611100917E10 ; 0.0
182 ; 599717.93592715 ; 2.013539043616384E8 ; 1.1304140307854633E8 ; 3.4940855378867805E10 ; 0.0
183 ; 599041.0536744945 ; 2.0135852336780772E8 ; 1.1364112101447348E8 ; 3.514220928322945E10 ; 0.0
184 ; 598133.8674543825 ; 2.013631247557307E8 ; 1.1424016206814797E8 ; 3.534356780659725E10 ; 0.0
185 ; 599016.3073131634 ; 2.013677084050356E8 ; 1.1483829593560235E8 ; 3.554493093135298E10 ; 0.0
186 ; 597294.2269914047 ; 2.013722741963739E8 ; 1.1543731224291551E8 ; 3.574629863975802E10 ; 0.0
187 ; 597091.7016127787 ; 2.0137682201140523E8 ; 1.1603460646990691E8 ; 3.594767091395439E10 ; 0.0
188 ; 595584.3669063165 ; 2.0138135173278245E8 ; 1.166316981715197E8 ; 3.61490477359658E10 ; 0.0
189 ; 593926.4676486341 ; 2.0138586324413764E8 ; 1.1722728253842601E8 ; 3.635042908769858E10 ; 0.0
190 ; 594262.4314516161 ; 2.0139035643006834E8 ; 1.1782120900607465E8 ; 3.655181495094272E10 ; 0.0
191 ; 592225.9258647541 ; 2.0139483117612424E8 ; 1.1841547143752627E8 ; 3.675320530737279E10 ; 0.0
192 ; 592355.481526218 ; 2.013992873687945E8 ; 1.1900769736339103E8 ; 3.695460013854891E10 ; 0.0
193 ; 592247.4280349639 ; 2.0140372489549524E8 ; 1.1960005284491724E8 ; 3.715599942591771E10 ; 0.0
194 ; 591262.8164214334 ; 2.0140814364455763E8 ; 1.201923002729522E8 ; 3.73574031508132E10 ; 0.0
195 ; 591269.6269408034 ; 2.014125435052164E8 ; 1.2078356308937363E8 ; 3.7558811294457756E10 ; 0.0
196 ; 590041.243295444 ; 2.0141692436759853E8 ; 1.2137483271631444E8 ; 3.7760223837962975E10 ; 0.0
197 ; 588340.7071908423 ; 2.0142128612271258E8 ; 1.2196487395960988E8 ; 3.7961640762330574E10 ; 0.0
198 ; 589657.7677523207 ; 2.0142562866243815E8 ; 1.2255321466680072E8 ; 3.8163062048453285E10 ; 0.0
199 ; 587445.96938931 ; 2.014299518795159E8 ; 1.2314287243455304E8 ; 3.836448767711572E10 ; 0.0
200 ; 589558.5735008075 ; 2.014342556675376E8 ; 1.2373031840394235E8 ; 3.856591762899524E10 ; 0.0
201 ; 585723.8521259858 ; 1.9454034489245668E8 ; 1.2431987697744316E8 ; 3.876735188466277E10 ; 0.0
