CSV File for the City 4 on Day 329
1 - Minute m 
2 - Power Consumed at minute m 
3 - Power Produced at minute m 
4 - Energy Consumed since the beginning of the day 
5 - Energy Produced since the beginning of the day 
6 - Energy Lost since the beginning of the day on lines starting from the city
 
0 ; 6866650.322053458 ; 1.0673334882347134E8 ; 0.0 ; 0.0 ; 0.0
1 ; 6875538.4992757905 ; 1.0688376290118176E8 ; 6866650.322053458 ; 1.0673334882347134E8 ; 0.0
2 ; 6883840.824229977 ; 1.073432211365737E8 ; 1.3742188821329247E7 ; 2.136171117246531E8 ; 0.0
3 ; 6891252.478595374 ; 1.081117265054344E8 ; 2.0626029645559225E7 ; 3.209603328612268E8 ; 0.0
4 ; 6900170.342297044 ; 1.09189281661336E8 ; 2.7517282124154598E7 ; 4.290720593666612E8 ; 0.0
5 ; 6917404.001938748 ; 1.1057588892548203E8 ; 3.4417452466451645E7 ; 5.382613410279973E8 ; 0.0
6 ; 6931963.250441617 ; 1.1227155027771088E8 ; 4.133485646839039E7 ; 6.488372299534793E8 ; 0.0
7 ; 6951485.561815587 ; 1.142762673487367E8 ; 4.826681971883201E7 ; 7.611087802311902E8 ; 0.0
8 ; 6988914.519128464 ; 1.1659004141369951E8 ; 5.52183052806476E7 ; 8.75385047579927E8 ; 0.0
9 ; 7038874.777135875 ; 1.1921287338708472E8 ; 6.220721979977606E7 ; 9.919750889936265E8 ; 0.0
10 ; 7116100.408792532 ; 1.2214476381905895E8 ; 6.924609457691194E7 ; 1.111187962380711E9 ; 0.0
11 ; 7238396.372282537 ; 1.2538571289325759E8 ; 7.636219498570447E7 ; 1.23333272619977E9 ; 0.0
12 ; 7438025.522528887 ; 1.2893572042604521E8 ; 8.3600591357987E7 ; 1.3587184390930276E9 ; 0.0
13 ; 7629729.413884835 ; 1.3279478586725521E8 ; 9.103861688051589E7 ; 1.4876541595190728E9 ; 0.0
14 ; 7651552.645573181 ; 1.3696290830240226E8 ; 9.866834629440072E7 ; 1.620448945386328E9 ; 0.0
15 ; 7659844.264282076 ; 1.414400864563462E8 ; 1.063198989399739E8 ; 1.7574118536887302E9 ; 0.0
16 ; 7670471.384969516 ; 1.4622631869837305E8 ; 1.1397974320425598E8 ; 1.8988519401450765E9 ; 0.0
17 ; 7680347.017355186 ; 1.5132160304864427E8 ; 1.216502145892255E8 ; 2.0450782588434496E9 ; 0.0
18 ; 7687472.589252017 ; 1.5672593718595642E8 ; 1.2933056160658069E8 ; 2.1963998618920937E9 ; 0.0
19 ; 7695968.733900743 ; 1.624393184567373E8 ; 1.370180341958327E8 ; 2.35312579907805E9 ; 0.0
20 ; 7706686.69025525 ; 1.684617438851997E8 ; 1.4471400292973346E8 ; 2.5155651175347877E9 ; 0.0
21 ; 7716017.427739311 ; 1.7479321018456087E8 ; 1.524206896199887E8 ; 2.684026861419987E9 ; 0.0
22 ; 7724477.672491859 ; 1.8143371376923108E8 ; 1.6013670704772803E8 ; 2.858820071604548E9 ; 0.0
23 ; 7736468.566023601 ; 1.8838325076786846E8 ; 1.6786118472021988E8 ; 3.0402537853737793E9 ; 0.0
24 ; 7741592.721595517 ; 1.956418170371902E8 ; 1.7559765328624347E8 ; 3.228637036141648E9 ; 0.0
25 ; 7752874.5979045 ; 2.0189744907461634E8 ; 1.83339246007839E8 ; 3.424278853178838E9 ; 0.0
26 ; 7761644.400761056 ; 2.0190369007015938E8 ; 1.910921206057435E8 ; 3.626176302253454E9 ; 0.0
27 ; 7770315.551141405 ; 2.01910304446746E8 ; 1.9885376500650457E8 ; 3.8280799923236136E9 ; 0.0
28 ; 7781873.425583163 ; 2.0191728712272018E8 ; 2.0662408055764598E8 ; 4.0299902967703595E9 ; 0.0
29 ; 7787194.810139723 ; 2.0192463282102466E8 ; 2.1440595398322913E8 ; 4.2319075838930798E9 ; 0.0
30 ; 7796366.27923528 ; 2.0193233608523834E8 ; 2.2219314879336885E8 ; 4.433832216714105E9 ; 0.0
31 ; 7805998.776936938 ; 2.0194039129561567E8 ; 2.2998951507260412E8 ; 4.635764552799343E9 ; 0.0
32 ; 7812114.174476476 ; 2.01948792685035E8 ; 2.3779551384954107E8 ; 4.837704944094959E9 ; 0.0
33 ; 7822690.116435709 ; 2.0195753435476813E8 ; 2.4560762802401754E8 ; 5.039653736779994E9 ; 0.0
34 ; 7830049.985729587 ; 2.0196661028999135E8 ; 2.5343031814045325E8 ; 5.241611271134762E9 ; 0.0
35 ; 7837726.724589883 ; 2.0197601437496498E8 ; 2.6126036812618282E8 ; 5.443577881424753E9 ; 0.0
36 ; 7841827.039192234 ; 2.0198574040781596E8 ; 2.690980948507727E8 ; 5.645553895799718E9 ; 0.0
37 ; 7851959.966981133 ; 2.0199578211486614E8 ; 2.7693992188996494E8 ; 5.847539636207534E9 ; 0.0
38 ; 7860741.83766732 ; 2.0200613316445637E8 ; 2.8479188185694605E8 ; 6.0495354183224E9 ; 0.0
39 ; 7865911.148594796 ; 2.020167871802239E8 ; 2.926526236946134E8 ; 6.251541551486856E9 ; 0.0
40 ; 7872046.189693999 ; 2.020277377537989E8 ; 3.005185348432082E8 ; 6.45355833866708E9 ; 0.0
41 ; 7879421.121399856 ; 2.020389784568915E8 ; 3.083905810329022E8 ; 6.655586076420878E9 ; 0.0
42 ; 7882396.592817104 ; 2.020505028527495E8 ; 3.1627000215430206E8 ; 6.857625054877769E9 ; 0.0
43 ; 7890897.443191687 ; 2.020623045069715E8 ; 3.241523987471192E8 ; 7.059675557730519E9 ; 0.0
44 ; 7896384.369947397 ; 2.020743769976671E8 ; 3.320432961903109E8 ; 7.261737862237491E9 ; 0.0
45 ; 7898895.114575137 ; 2.0208671392496127E8 ; 3.3993968056025827E8 ; 7.463812239235158E9 ; 0.0
46 ; 7903592.75630351 ; 2.0209930891984424E8 ; 3.478385756748334E8 ; 7.665898953160119E9 ; 0.0
47 ; 7907366.648660979 ; 2.0211215565237394E8 ; 3.557421684311369E8 ; 7.867998262079964E9 ; 0.0
48 ; 7913724.159092259 ; 2.0212524783924025E8 ; 3.6364953507979786E8 ; 8.070110417732338E9 ; 0.0
49 ; 7916462.623987061 ; 2.0213857925070578E8 ; 3.715632592388901E8 ; 8.272235665571578E9 ; 0.0
50 ; 7918481.958108753 ; 2.0215214371693876E8 ; 3.794797218628772E8 ; 8.474374244822284E9 ; 0.0
51 ; 7918538.080863274 ; 2.0216593513375828E8 ; 3.873982038209859E8 ; 8.676526388539223E9 ; 0.0
52 ; 7921436.682593408 ; 2.0217994746781218E8 ; 3.953167419018492E8 ; 8.878692323672981E9 ; 0.0
53 ; 7926039.141274879 ; 2.0219417476121095E8 ; 4.032381785844426E8 ; 9.080872271140793E9 ; 0.0
54 ; 7929975.2620052025 ; 2.022086111356416E8 ; 4.111642177257175E8 ; 9.283066445902004E9 ; 0.0
55 ; 7932027.282845246 ; 2.0222325079598695E8 ; 4.190941929877227E8 ; 9.485275057037645E9 ; 0.0
56 ; 7934407.224641497 ; 2.0223808803347546E8 ; 4.2702622027056795E8 ; 9.687498307833632E9 ; 0.0
57 ; 7937203.357173671 ; 2.0225311722838822E8 ; 4.3496062749520946E8 ; 9.889736395867107E9 ; 0.0
58 ; 7939821.117742799 ; 2.0226833285234895E8 ; 4.4289783085238314E8 ; 1.0091989513095495E10 ; 0.0
59 ; 7942341.269733072 ; 2.022837294702232E8 ; 4.508376519701259E8 ; 1.0294257845947844E10 ; 0.0
60 ; 7942368.311268155 ; 2.0229930174165225E8 ; 4.58779993239859E8 ; 1.0496541575418066E10 ; 0.0
61 ; 7947096.238757948 ; 2.023150444222471E8 ; 4.6672236155112714E8 ; 1.0698840877159718E10 ; 0.0
62 ; 7945299.411218847 ; 2.023309523644673E8 ; 4.746694577898851E8 ; 1.0901155921581964E10 ; 0.0
63 ; 7948603.704427811 ; 2.023470205182077E8 ; 4.826147572011039E8 ; 1.1103486873946432E10 ; 0.0
64 ; 7951757.355037879 ; 2.023632439311175E8 ; 4.9056336090553176E8 ; 1.130583389446464E10 ; 0.0
65 ; 7953757.61103013 ; 2.0237961774867237E8 ; 4.9851511826056963E8 ; 1.1508197138395758E10 ; 0.0
66 ; 7956083.4141816655 ; 2.0239613721402156E8 ; 5.0646887587159973E8 ; 1.171057675614443E10 ; 0.0
67 ; 7957734.503742055 ; 2.0241279766763023E8 ; 5.144249592857814E8 ; 1.1912972893358452E10 ; 0.0
68 ; 7958958.121876583 ; 2.024295945467356E8 ; 5.223826937895234E8 ; 1.2115385691026083E10 ; 0.0
69 ; 7961136.070987726 ; 2.024465233846358E8 ; 5.303416519114E8 ; 1.2317815285572819E10 ; 0.0
70 ; 7960990.363269879 ; 2.0246357980982766E8 ; 5.383027879823878E8 ; 1.2520261808957455E10 ; 0.0
71 ; 7965379.4556726655 ; 2.024807595450105E8 ; 5.462637783456577E8 ; 1.2722725388767282E10 ; 0.0
72 ; 7962134.78636953 ; 2.0249805840597022E8 ; 5.542291578013303E8 ; 1.2925206148312292E10 ; 0.0
73 ; 7967651.382504918 ; 2.0251547230035794E8 ; 5.621912925876999E8 ; 1.3127704206718262E10 ; 0.0
74 ; 7968533.104299167 ; 2.025329972263766E8 ; 5.701589439702048E8 ; 1.333021967901862E10 ; 0.0
75 ; 7972690.937904687 ; 2.0255062927138743E8 ; 5.78127477074504E8 ; 1.3532752676244997E10 ; 0.0
76 ; 7970327.032744886 ; 2.0256836461044773E8 ; 5.861001680124087E8 ; 1.3735303305516384E10 ; 0.0
77 ; 7970768.224646814 ; 2.0258619950479025E8 ; 5.940704950451536E8 ; 1.3937871670126831E10 ; 0.0
78 ; 7968851.335070996 ; 2.0260413030025393E8 ; 6.020412632698004E8 ; 1.414045786963162E10 ; 0.0
79 ; 7968880.12343501 ; 2.02622153425675E8 ; 6.100101146048714E8 ; 1.4343061999931875E10 ; 0.0
80 ; 7966472.001805498 ; 2.0264026539124602E8 ; 6.179789947283064E8 ; 1.454568415335755E10 ; 0.0
81 ; 7966276.566589067 ; 2.0265846278685087E8 ; 6.25945466730112E8 ; 1.4748324418748796E10 ; 0.0
82 ; 7965388.759034709 ; 2.026767422803822E8 ; 6.339117432967011E8 ; 1.4950982881535646E10 ; 0.0
83 ; 7965006.085421237 ; 2.0269510061604714E8 ; 6.418771320557358E8 ; 1.5153659623816029E10 ; 0.0
84 ; 7959951.159826863 ; 2.027135346126677E8 ; 6.49842138141157E8 ; 1.5356354724432076E10 ; 0.0
85 ; 7959013.474884777 ; 2.0273204116197976E8 ; 6.578020893009839E8 ; 1.5559068259044743E10 ; 0.0
86 ; 7954321.245346008 ; 2.0275061722693607E8 ; 6.657611027758687E8 ; 1.5761800300206722E10 ; 0.0
87 ; 7959082.250909845 ; 2.0276925984001702E8 ; 6.737154240212146E8 ; 1.5964550917433659E10 ; 0.0
88 ; 7955619.452952265 ; 2.027879661015525E8 ; 6.816745062721244E8 ; 1.6167320177273676E10 ; 0.0
89 ; 7950260.6908472935 ; 2.028067331780584E8 ; 6.896301257250767E8 ; 1.6370108143375229E10 ; 0.0
90 ; 7950473.871051414 ; 2.0282555830059063E8 ; 6.97580386415924E8 ; 1.6572914876553288E10 ; 0.0
91 ; 7947088.677993949 ; 2.0284443876311886E8 ; 7.055308602869754E8 ; 1.6775740434853878E10 ; 0.0
92 ; 7946636.385958964 ; 2.0286337192092225E8 ; 7.134779489649693E8 ; 1.6978584873616997E10 ; 0.0
93 ; 7943549.845373018 ; 2.0288235518900928E8 ; 7.214245853509282E8 ; 1.7181448245537918E10 ; 0.0
94 ; 7938249.502570053 ; 2.029013860405631E8 ; 7.293681351963012E8 ; 1.738433060072693E10 ; 0.0
95 ; 7937535.667506433 ; 2.029204620054136E8 ; 7.373063846988713E8 ; 1.758723198676749E10 ; 0.0
96 ; 7935688.949892588 ; 2.0293958066853788E8 ; 7.452439203663777E8 ; 1.7790152448772903E10 ; 0.0
97 ; 7933445.710595917 ; 2.0295873966858953E8 ; 7.531796093162704E8 ; 1.799309202944144E10 ; 0.0
98 ; 7933500.354826434 ; 2.029779366964578E8 ; 7.611130550268663E8 ; 1.819605076911003E10 ; 0.0
99 ; 7930258.247474002 ; 2.029971694938571E8 ; 7.690465553816928E8 ; 1.8399028705806488E10 ; 0.0
100 ; 7925596.60302434 ; 2.0301643585194752E8 ; 7.769768136291667E8 ; 1.8602025875300346E10 ; 0.0
101 ; 7923701.42046544 ; 2.0303573360998636E8 ; 7.849024102321911E8 ; 1.8805042311152294E10 ; 0.0
102 ; 7921498.7481786935 ; 2.030550606540111E8 ; 7.928261116526566E8 ; 1.900807804476228E10 ; 0.0
103 ; 7916936.102862062 ; 2.0307441491555384E8 ; 8.007476104008353E8 ; 1.921113310541629E10 ; 0.0
104 ; 7914389.787744687 ; 2.030937943703871E8 ; 8.086645465036974E8 ; 1.9414207520331844E10 ; 0.0
105 ; 7912401.119277723 ; 2.0311319703730115E8 ; 8.16578936291442E8 ; 1.9617301314702232E10 ; 0.0
106 ; 7907734.063775422 ; 2.0313262097691217E8 ; 8.244913374107198E8 ; 1.9820414511739532E10 ; 0.0
107 ; 7907074.552714004 ; 2.0315206429050174E8 ; 8.323990714744952E8 ; 2.0023547132716446E10 ; 0.0
108 ; 7902545.754310334 ; 2.0317152511888662E8 ; 8.403061460272092E8 ; 2.0226699197006947E10 ; 0.0
109 ; 7898521.034929377 ; 2.0319100164131883E8 ; 8.482086917815195E8 ; 2.042987072212583E10 ; 0.0
110 ; 7895824.679812753 ; 2.0321049207441577E8 ; 8.561072128164489E8 ; 2.063306172376715E10 ; 0.0
111 ; 7892792.2081615245 ; 2.0322999467111963E8 ; 8.640030374962617E8 ; 2.0836272215841568E10 ; 0.0
112 ; 7889594.734589986 ; 2.032495077196855E8 ; 8.718958297044232E8 ; 2.1039502210512688E10 ; 0.0
113 ; 7884922.49794491 ; 2.0326902954269832E8 ; 8.797854244390131E8 ; 2.1242751718232372E10 ; 0.0
114 ; 7878815.451237463 ; 2.0328855849611744E8 ; 8.876703469369581E8 ; 2.144602074777507E10 ; 0.0
115 ; 7878855.977185887 ; 2.0330809296834862E8 ; 8.955491623881955E8 ; 2.1649309306271187E10 ; 0.0
116 ; 7875401.799140088 ; 2.0332763137934268E8 ; 9.034280183653814E8 ; 2.1852617399239536E10 ; 0.0
117 ; 7870072.964642641 ; 2.0334717217972052E8 ; 9.113034201645215E8 ; 2.2055945030618877E10 ; 0.0
118 ; 7867392.079744275 ; 2.0336671384992373E8 ; 9.191734931291641E8 ; 2.22592922027986E10 ; 0.0
119 ; 7865551.111392243 ; 2.0338625489939007E8 ; 9.270408852089083E8 ; 2.246265891664852E10 ; 0.0
120 ; 7860677.005043739 ; 2.0340579386575344E8 ; 9.349064363203006E8 ; 2.2666045171547913E10 ; 0.0
121 ; 7851179.62924917 ; 2.034253293140678E8 ; 9.427671133253443E8 ; 2.2869450965413666E10 ; 0.0
122 ; 7851325.497474496 ; 2.0344485983605418E8 ; 9.506182929545935E8 ; 2.3072876294727734E10 ; 0.0
123 ; 7847930.022814451 ; 2.034643840493703E8 ; 9.584696184520681E8 ; 2.327632115456379E10 ; 0.0
124 ; 7842136.727362527 ; 2.034839005969022E8 ; 9.663175484748825E8 ; 2.347978553861316E10 ; 0.0
125 ; 7839041.744974871 ; 2.0350340814607763E8 ; 9.74159685202245E8 ; 2.368326943921006E10 ; 0.0
126 ; 7831854.173508405 ; 2.035229053881998E8 ; 9.819987269472198E8 ; 2.3886772847356136E10 ; 0.0
127 ; 7831759.630306527 ; 2.035423910378018E8 ; 9.898305811207283E8 ; 2.4090295752744335E10 ; 0.0
128 ; 7824193.346642331 ; 2.035618638320206E8 ; 9.976623407510347E8 ; 2.429383814378214E10 ; 0.0
129 ; 7820168.301313392 ; 2.035813225299902E8 ; 1.0054865340976771E9 ; 2.449740000761416E10 ; 0.0
130 ; 7813834.887593198 ; 2.0360076591225344E8 ; 1.0133067023989905E9 ; 2.470098133014415E10 ; 0.0
131 ; 7806359.595234136 ; 2.0362019278019184E8 ; 1.0211205372865837E9 ; 2.4904582096056404E10 ; 0.0
132 ; 7797399.033090428 ; 2.036396019554731E8 ; 1.0289268968818178E9 ; 2.5108202288836597E10 ; 0.0
133 ; 7793684.240874204 ; 2.0365899227951548E8 ; 1.0367242959149083E9 ; 2.5311841890792072E10 ; 0.0
134 ; 7785688.156917015 ; 2.036783626129687E8 ; 1.0445179801557825E9 ; 2.5515500883071587E10 ; 0.0
135 ; 7778411.6977048805 ; 2.036977118352112E8 ; 1.0523036683126994E9 ; 2.5719179245684555E10 ; 0.0
136 ; 7770544.503977235 ; 2.0371703884386224E8 ; 1.0600820800104043E9 ; 2.5922876957519768E10 ; 0.0
137 ; 7760648.782336119 ; 2.0373634255431E8 ; 1.0678526245143815E9 ; 2.612659399636363E10 ; 0.0
138 ; 7755655.1351700155 ; 2.0375562189925346E8 ; 1.0756132732967176E9 ; 2.633033033891794E10 ; 0.0
139 ; 7747415.491975967 ; 2.0377487582825902E8 ; 1.0833689284318876E9 ; 2.6534085960817192E10 ; 0.0
140 ; 7738741.772844491 ; 2.0379410330733043E8 ; 1.0911163439238636E9 ; 2.673786083664545E10 ; 0.0
141 ; 7731274.808254654 ; 2.0381330331849238E8 ; 1.0988550856967082E9 ; 2.694165493995278E10 ; 0.0
142 ; 7724823.447980589 ; 2.038324748593867E8 ; 1.106586360504963E9 ; 2.7145468243271275E10 ; 0.0
143 ; 7714898.265578054 ; 2.0385161694288126E8 ; 1.1143111839529436E9 ; 2.734930071813066E10 ; 0.0
144 ; 7707723.044373599 ; 2.0387072859669077E8 ; 1.1220260822185216E9 ; 2.7553152335073544E10 ; 0.0
145 ; 7702470.248692132 ; 2.038898088630094E8 ; 1.129733805262895E9 ; 2.7757023063670235E10 ; 0.0
146 ; 7697849.957551794 ; 2.039088567981549E8 ; 1.1374362755115871E9 ; 2.7960912872533245E10 ; 0.0
147 ; 7691799.150149545 ; 2.0392787147222325E8 ; 1.1451341254691389E9 ; 2.81648217293314E10 ; 0.0
148 ; 7687061.739279973 ; 2.0394685196875453E8 ; 1.1528259246192884E9 ; 2.8368749600803623E10 ; 0.0
149 ; 7683774.277320824 ; 2.039657973844087E8 ; 1.1605129863585684E9 ; 2.8572696452772377E10 ; 0.0
150 ; 7677606.316366244 ; 2.0398470682865146E8 ; 1.1681967606358893E9 ; 2.8776662250156784E10 ; 0.0
151 ; 7670497.997451663 ; 2.0400357942344972E8 ; 1.1758743669522555E9 ; 2.8980646956985435E10 ; 0.0
152 ; 7665444.230251308 ; 2.040224143029766E8 ; 1.183544864949707E9 ; 2.9184650536408886E10 ; 0.0
153 ; 7661402.857860093 ; 2.040412106133253E8 ; 1.1912103091799583E9 ; 2.938867295071186E10 ; 0.0
154 ; 7657799.250772067 ; 2.0405996751223183E8 ; 1.1988717120378184E9 ; 2.9592714161325188E10 ; 0.0
155 ; 7650800.301592521 ; 2.040786841688061E8 ; 1.2065295112885904E9 ; 2.9796774128837418E10 ; 0.0
156 ; 7645299.352474057 ; 2.040973597632715E8 ; 1.214180311590183E9 ; 3.0000852813006226E10 ; 0.0
157 ; 7640342.961890946 ; 2.0411599348671207E8 ; 1.221825610942657E9 ; 3.0204950172769497E10 ; 0.0
158 ; 7636930.345019891 ; 2.0413458454082766E8 ; 1.229465953904548E9 ; 3.040906616625621E10 ; 0.0
159 ; 7628529.094944113 ; 2.0415313213769642E8 ; 1.2371028842495677E9 ; 3.061320075079704E10 ; 0.0
160 ; 7623557.827201526 ; 2.0417163549954447E8 ; 1.2447314133445117E9 ; 3.0817353882934734E10 ; 0.0
161 ; 7618823.832080293 ; 2.041900938585227E8 ; 1.2523549711717134E9 ; 3.102152551843428E10 ; 0.0
162 ; 7614136.385357825 ; 2.042085064564902E8 ; 1.2599737950037937E9 ; 3.1225715612292805E10 ; 0.0
163 ; 7607011.495660566 ; 2.0422687254480422E8 ; 1.2675879313891516E9 ; 3.1429924118749294E10 ; 0.0
164 ; 7600990.340190398 ; 2.0424519138411662E8 ; 1.275194942884812E9 ; 3.1634150991294098E10 ; 0.0
165 ; 7596974.757335371 ; 2.0426346224417627E8 ; 1.2827959332250025E9 ; 3.1838396182678215E10 ; 0.0
166 ; 7587737.659789176 ; 2.0428168440363765E8 ; 1.290392907982338E9 ; 3.204265964492239E10 ; 0.0
167 ; 7583175.950453583 ; 2.0429985714987475E8 ; 1.297980645642127E9 ; 3.2246941329326027E10 ; 0.0
168 ; 7579812.173464987 ; 2.043179797788012E8 ; 1.3055638215925806E9 ; 3.2451241186475903E10 ; 0.0
169 ; 7573581.918552332 ; 2.0433605159469506E8 ; 1.3131436337660456E9 ; 3.2655559166254704E10 ; 0.0
170 ; 7566703.722664434 ; 2.0435407191002947E8 ; 1.320717215684598E9 ; 3.28598952178494E10 ; 0.0
171 ; 7563211.415113154 ; 2.0437204004530793E8 ; 1.3282839194072623E9 ; 3.306424928975943E10 ; 0.0
172 ; 7557335.657493664 ; 2.043899553289047E8 ; 1.3358471308223755E9 ; 3.3268621329804737E10 ; 0.0
173 ; 7554349.616274123 ; 2.0440781709690976E8 ; 1.3434044664798691E9 ; 3.347301128513364E10 ; 0.0
174 ; 7550777.459853248 ; 2.0442562469297874E8 ; 1.3509588160961432E9 ; 3.367741910223055E10 ; 0.0
175 ; 7542984.954517085 ; 2.044433774681867E8 ; 1.3585095935559964E9 ; 3.3881844726923527E10 ; 0.0
176 ; 7540114.190631814 ; 2.0446107478088683E8 ; 1.3660525785105135E9 ; 3.4086288104391712E10 ; 0.0
177 ; 7538668.28042994 ; 2.0447871599657288E8 ; 1.3735926927011454E9 ; 3.42907491791726E10 ; 0.0
178 ; 7532514.719244451 ; 2.044963004877459E8 ; 1.3811313609815753E9 ; 3.4495227895169174E10 ; 0.0
179 ; 7528991.604939038 ; 2.0451382763378477E8 ; 1.3886638757008197E9 ; 3.469972419565692E10 ; 0.0
180 ; 7525446.455348021 ; 2.045312968208206E8 ; 1.3961928673057587E9 ; 3.49042380232907E10 ; 0.0
181 ; 7523247.598335552 ; 2.0454870744161466E8 ; 1.4037183137611067E9 ; 3.510876932011153E10 ; 0.0
182 ; 7518762.973342242 ; 2.045660588954401E8 ; 1.4112415613594422E9 ; 3.531331802755314E10 ; 0.0
183 ; 7514216.035794698 ; 2.0458335058796695E8 ; 1.4187603243327844E9 ; 3.551788408644858E10 ; 0.0
184 ; 7511622.889012325 ; 2.046005819311505E8 ; 1.4262745403685791E9 ; 3.5722467437036545E10 ; 0.0
185 ; 7509134.593905572 ; 2.0461775234312296E8 ; 1.4337861632575915E9 ; 3.59270680189677E10 ; 0.0
186 ; 7505506.053287072 ; 2.0463486124808824E8 ; 1.4412952978514972E9 ; 3.613168577131082E10 ; 0.0
187 ; 7500773.145285512 ; 2.046519080762198E8 ; 1.4488008039047842E9 ; 3.633632063255891E10 ; 0.0
188 ; 7499656.0175135145 ; 2.0466889226356137E8 ; 1.4563015770500698E9 ; 3.6540972540635124E10 ; 0.0
189 ; 7493882.318950066 ; 2.0468581325193065E8 ; 1.4638012330675833E9 ; 3.674564143289869E10 ; 0.0
190 ; 7488927.062272414 ; 2.047E8 ; 1.4712951153865335E9 ; 3.695032724615062E10 ; 0.0
191 ; 7486961.090638543 ; 2.047E8 ; 1.4787840424488058E9 ; 3.715502724615062E10 ; 0.0
192 ; 7485806.994467774 ; 2.047E8 ; 1.4862710035394444E9 ; 3.735972724615062E10 ; 0.0
193 ; 7481209.070433677 ; 2.047E8 ; 1.4937568105339122E9 ; 3.756442724615062E10 ; 0.0
194 ; 7475912.195554377 ; 2.047E8 ; 1.5012380196043458E9 ; 3.776912724615062E10 ; 0.0
195 ; 7471198.000288343 ; 2.047E8 ; 1.5087139317999003E9 ; 3.797382724615062E10 ; 0.0
196 ; 7468386.322742632 ; 2.047E8 ; 1.5161851298001885E9 ; 3.817852724615062E10 ; 0.0
197 ; 7465554.2872450985 ; 2.047E8 ; 1.5236535161229312E9 ; 3.838322724615062E10 ; 0.0
198 ; 7459434.4064049125 ; 2.047E8 ; 1.5311190704101763E9 ; 3.858792724615062E10 ; 0.0
199 ; 7457022.216845528 ; 1.8581368382779488E8 ; 1.5385785048165812E9 ; 3.879262724615062E10 ; 0.0
200 ; 7455260.137028827 ; 1.5620807492166224E8 ; 1.5460355270334268E9 ; 3.897844092997842E10 ; 0.0
201 ; 7454551.336968676 ; 1.5586000678114402E8 ; 1.5534907871704557E9 ; 3.913464900490008E10 ; 0.0
202 ; 7448226.668287751 ; 1.555127382774142E8 ; 1.5609453385074244E9 ; 3.929050901168122E10 ; 0.0
