CSV File for the City 4 on Day 198
1 - Minute m 
2 - Power Consumed at minute m 
3 - Power Produced at minute m 
4 - Energy Consumed since the beginning of the day 
5 - Energy Produced since the beginning of the day 
6 - Energy Lost since the beginning of the day on lines starting from the city
 
0 ; 686308.8181373723 ; 1.0584832874810883E8 ; 0.0 ; 0.0 ; 0.0
1 ; 695147.71182382 ; 1.0599835949637032E8 ; 686308.8181373723 ; 1.0584832874810883E8 ; 0.0
2 ; 700839.6515927629 ; 1.0645745995592996E8 ; 1381456.5299611923 ; 2.1184668824447915E8 ; 0.0
3 ; 709094.3408083292 ; 1.0722563776169151E8 ; 2082296.1815539552 ; 3.183041482004091E8 ; 0.0
4 ; 720141.8733298228 ; 1.0830289983336443E8 ; 2791390.5223622844 ; 4.255297859621006E8 ; 0.0
5 ; 735169.3814234367 ; 1.0968925231185687E8 ; 3511532.3956921073 ; 5.3383268579546505E8 ; 0.0
6 ; 750499.3661642176 ; 1.1138470050093487E8 ; 4246701.777115544 ; 6.43521938107322E8 ; 0.0
7 ; 772844.7632014399 ; 1.1338924881539118E8 ; 4997201.143279762 ; 7.549066386082568E8 ; 0.0
8 ; 810425.3226560436 ; 1.1570290073687422E8 ; 5770045.906481202 ; 8.68295887423648E8 ; 0.0
9 ; 858682.9754206822 ; 1.1832565877839077E8 ; 6580471.229137246 ; 9.839987881605222E8 ; 0.0
10 ; 938078.2021959969 ; 1.212575244583199E8 ; 7439154.204557927 ; 1.1023244469389129E9 ; 0.0
11 ; 1062224.0484769768 ; 1.2449849828456363E8 ; 8377232.406753924 ; 1.2235819713972328E9 ; 0.0
12 ; 1261037.484313012 ; 1.2804857974921992E8 ; 9439456.455230901 ; 1.3480804696817963E9 ; 0.0
13 ; 1451490.6830161544 ; 1.3190776733390969E8 ; 1.0700493939543914E7 ; 1.4761290494310162E9 ; 0.0
14 ; 1476554.238060313 ; 1.3607605852562624E8 ; 1.2151984622560069E7 ; 1.608036816764926E9 ; 0.0
15 ; 1485870.7478237862 ; 1.4055344984272105E8 ; 1.3628538860620381E7 ; 1.7441128752905521E9 ; 0.0
16 ; 1497200.0484225592 ; 1.4533993687040147E8 ; 1.5114409608444167E7 ; 1.8846663251332731E9 ; 0.0
17 ; 1504700.6929648241 ; 1.504355143049014E8 ; 1.6611609656866726E7 ; 2.0300062620036745E9 ; 0.0
18 ; 1511634.8494041865 ; 1.5584017600531268E8 ; 1.811631034983155E7 ; 2.180441776308576E9 ; 0.0
19 ; 1523302.2084978668 ; 1.6155391505192587E8 ; 1.9627945199235737E7 ; 2.3362819523138885E9 ; 0.0
20 ; 1536111.5512845656 ; 1.675767238098372E8 ; 2.1151247407733604E7 ; 2.497835867365814E9 ; 0.0
21 ; 1542277.6767732156 ; 1.739085939965349E8 ; 2.268735895901817E7 ; 2.6654125911756516E9 ; 0.0
22 ; 1553883.7837966336 ; 1.8054951675217062E8 ; 2.4229636635791387E7 ; 2.8393211851721864E9 ; 0.0
23 ; 1560588.781974114 ; 1.874994827112615E8 ; 2.5783520419588022E7 ; 3.019870701924357E9 ; 0.0
24 ; 1574356.764059948 ; 1.947584820746383E8 ; 2.7344109201562136E7 ; 3.207370184635618E9 ; 0.0
25 ; 1581721.4844550015 ; 2.0101454557873872E8 ; 2.8918465965622086E7 ; 3.4021286667102566E9 ; 0.0
26 ; 1591569.9432358798 ; 2.0102121060181E8 ; 3.0500187450077087E7 ; 3.6031432122889953E9 ; 0.0
27 ; 1602339.686306918 ; 2.0102823575548738E8 ; 3.209175739331297E7 ; 3.8041644228908052E9 ; 0.0
28 ; 1613079.6458732185 ; 2.0103561019492206E8 ; 3.3694097079619884E7 ; 4.0051926586462927E9 ; 0.0
29 ; 1623226.0826192747 ; 2.0104332297151896E8 ; 3.53071767254931E7 ; 4.2062282688412147E9 ; 0.0
30 ; 1630907.9370699618 ; 2.01051363088161E8 ; 3.6930402808112375E7 ; 4.407271591812734E9 ; 0.0
31 ; 1639188.8747209853 ; 2.0105971954989135E8 ; 3.8561310745182335E7 ; 4.608322954900894E9 ; 0.0
32 ; 1647301.5557982065 ; 2.0106838140989912E8 ; 4.020049961990332E7 ; 4.809382674450786E9 ; 0.0
33 ; 1658006.114692573 ; 2.010773378107602E8 ; 4.184780117570153E7 ; 5.010451055860684E9 ; 0.0
34 ; 1666108.716293875 ; 2.010865780209766E8 ; 4.3505807290394105E7 ; 5.211528393671445E9 ; 0.0
35 ; 1676756.482049094 ; 2.010960914669332E8 ; 4.517191600668798E7 ; 5.412614971692422E9 ; 0.0
36 ; 1684502.1869752936 ; 2.0110586776045266E8 ; 4.684867248873707E7 ; 5.613711063159355E9 ; 0.0
37 ; 1691265.7970363183 ; 2.0111589672217762E8 ; 4.853317467571236E7 ; 5.814816930919807E9 ; 0.0
38 ; 1700173.0882955324 ; 2.0112616840104187E8 ; 5.022444047274868E7 ; 6.015932827641985E9 ; 0.0
39 ; 1705675.5784946429 ; 2.0113667309011772E8 ; 5.1924613561044216E7 ; 6.217058996043027E9 ; 0.0
40 ; 1716237.5888447415 ; 2.0114740133913836E8 ; 5.363028913953886E7 ; 6.418195669133144E9 ; 0.0
41 ; 1722582.9984088135 ; 2.0115834396399945E8 ; 5.53465267283836E7 ; 6.619343070472282E9 ; 0.0
42 ; 1728635.9011729523 ; 2.0116949205354172E8 ; 5.706910972679242E7 ; 6.820501414436282E9 ; 0.0
43 ; 1735725.683211472 ; 2.0118083697390953E8 ; 5.879774562796537E7 ; 7.021670906489824E9 ; 0.0
44 ; 1744278.9746506326 ; 2.0119237037076667E8 ; 6.053347131117684E7 ; 7.222851743463734E9 ; 0.0
45 ; 1745510.5192908202 ; 2.0120408416963798E8 ; 6.227775028582747E7 ; 7.4240441138345E9 ; 0.0
46 ; 1753299.8200662031 ; 2.0121597057462564E8 ; 6.402326080511829E7 ; 7.625248198004138E9 ; 0.0
47 ; 1757122.9413905174 ; 2.0122802206573254E8 ; 6.57765606251845E7 ; 7.826464168578764E9 ; 0.0
48 ; 1762567.776362441 ; 2.012402313950047E8 ; 6.753368356657502E7 ; 8.027692190644497E9 ; 0.0
49 ; 1769136.6741080924 ; 2.0125259158168593E8 ; 6.929625134293745E7 ; 8.228932422039501E9 ; 0.0
50 ; 1769325.0103852758 ; 2.0126509590655893E8 ; 7.106538801704554E7 ; 8.430185013621187E9 ; 0.0
51 ; 1778190.6977025531 ; 2.0127773790562862E8 ; 7.283471302743082E7 ; 8.631450109527746E9 ; 0.0
52 ; 1782304.3609690256 ; 2.0129051136328626E8 ; 7.461290372513337E7 ; 8.832727847433374E9 ; 0.0
53 ; 1784707.3242173684 ; 2.0130341030507678E8 ; 7.63952080861024E7 ; 9.034018358796661E9 ; 0.0
54 ; 1789858.337581446 ; 2.0131642899017605E8 ; 7.817991541031976E7 ; 9.235321769101738E9 ; 0.0
55 ; 1790385.9153505352 ; 2.0132956190367147E8 ; 7.99697737479012E7 ; 9.436638198091913E9 ; 0.0
56 ; 1794097.6074739548 ; 2.0134280374872616E8 ; 8.176015966325174E7 ; 9.637967759995584E9 ; 0.0
57 ; 1797681.5234803294 ; 2.013561494386956E8 ; 8.35542572707257E7 ; 9.83931056374431E9 ; 0.0
58 ; 1801406.5472013366 ; 2.0136959408925542E8 ; 8.535193879420602E7 ; 1.0040666713183006E10 ; 0.0
59 ; 1806971.162346662 ; 2.0138313301058927E8 ; 8.715334534140736E7 ; 1.0242036307272263E10 ; 0.0
60 ; 1808654.6675204318 ; 2.0139676169967803E8 ; 8.896031650375402E7 ; 1.0443419440282852E10 ; 0.0
61 ; 1810224.5044292596 ; 2.01410475832724E8 ; 9.076897117127445E7 ; 1.064481620198253E10 ; 0.0
62 ; 1814403.6278998442 ; 2.0142427125773725E8 ; 9.257919567570372E7 ; 1.0846226677815254E10 ; 0.0
63 ; 1819870.5511642117 ; 2.0143814398730624E8 ; 9.439359930360356E7 ; 1.1047650949072992E10 ; 0.0
64 ; 1822087.7468542482 ; 2.0145209019156912E8 ; 9.621346985476777E7 ; 1.1249089093060299E10 ; 0.0
65 ; 1825321.5673637118 ; 2.0146610619139907E8 ; 9.803555760162202E7 ; 1.1450541183251867E10 ; 0.0
66 ; 1826862.9105631544 ; 2.0148018845181194E8 ; 9.986087916898572E7 ; 1.1652007289443266E10 ; 0.0
67 ; 1832826.882991095 ; 2.01494333575603E8 ; 1.0168774207954888E8 ; 1.1853487477895079E10 ; 0.0
68 ; 1834222.9207835533 ; 2.0150853829721582E8 ; 1.0352056896253997E8 ; 1.2054981811470682E10 ; 0.0
69 ; 1838375.4501032177 ; 2.0152279947684428E8 ; 1.0535479188332352E8 ; 1.2256490349767899E10 ; 0.0
70 ; 1841110.382065138 ; 2.015371140947676E8 ; 1.0719316733342674E8 ; 1.2458013149244743E10 ; 0.0
71 ; 1843670.3262097533 ; 2.0155147924591592E8 ; 1.0903427771549188E8 ; 1.2659550263339512E10 ; 0.0
72 ; 1848570.4987456047 ; 2.0156589213466284E8 ; 1.1087794804170163E8 ; 1.2861101742585428E10 ; 0.0
73 ; 1850050.076978369 ; 2.0158035006984085E8 ; 1.1272651854044724E8 ; 1.306266763472009E10 ; 0.0
74 ; 1853195.4013049426 ; 2.0159485045997435E8 ; 1.145765686174256E8 ; 1.3264247984789932E10 ; 0.0
75 ; 1857736.4695983324 ; 2.0160939080872405E8 ; 1.1642976401873055E8 ; 1.3465842835249907E10 ; 0.0
76 ; 1858155.1460180113 ; 2.016239687105369E8 ; 1.1828750048832889E8 ; 1.366745222605863E10 ; 0.0
77 ; 1860576.3104794736 ; 2.0163858184649464E8 ; 1.201456556343469E8 ; 1.3869076194769167E10 ; 0.0
78 ; 1863249.0981441883 ; 2.0165322798035386E8 ; 1.2200623194482638E8 ; 1.4070714776615662E10 ; 0.0
79 ; 1862017.8860103725 ; 2.0166790495477104E8 ; 1.2386948104297057E8 ; 1.4272368004596016E10 ; 0.0
80 ; 1860939.3107963817 ; 2.0168261068770477E8 ; 1.2573149892898095E8 ; 1.4474035909550787E10 ; 0.0
81 ; 1858426.7262611282 ; 2.016973431689886E8 ; 1.2759243823977733E8 ; 1.4675718520238491E10 ; 0.0
82 ; 1859925.5206336908 ; 2.0171210045706713E8 ; 1.2945086496603845E8 ; 1.487741586340748E10 ; 0.0
83 ; 1862565.3689870653 ; 2.0172688067588848E8 ; 1.3131079048667215E8 ; 1.5079127963864548E10 ; 0.0
84 ; 1861156.7865030274 ; 2.0174168201194602E8 ; 1.3317335585565922E8 ; 1.5280854844540436E10 ; 0.0
85 ; 1863110.970711768 ; 2.0175650271146324E8 ; 1.3503451264216223E8 ; 1.5482596526552382E10 ; 0.0
86 ; 1861388.3736090483 ; 2.0177134107771462E8 ; 1.36897623612874E8 ; 1.5684353029263845E10 ; 0.0
87 ; 1859530.0414405505 ; 2.0178619546847644E8 ; 1.3875901198648304E8 ; 1.588612437034156E10 ; 0.0
88 ; 1859236.518170877 ; 2.018010642936016E8 ; 1.4061854202792358E8 ; 1.6087910565810038E10 ; 0.0
89 ; 1860839.7862103938 ; 2.0181594601271215E8 ; 1.4247777854609445E8 ; 1.628971163010364E10 ; 0.0
90 ; 1858775.975911188 ; 2.0183083913300422E8 ; 1.4433861833230484E8 ; 1.6491527576116352E10 ; 0.0
91 ; 1861048.5614018936 ; 2.018457422071597E8 ; 1.4619739430821604E8 ; 1.6693358415249357E10 ; 0.0
92 ; 1861467.0458162827 ; 2.0186065383135936E8 ; 1.4805844286961794E8 ; 1.6895204157456516E10 ; 0.0
93 ; 1857633.3222197008 ; 2.0187557264339274E8 ; 1.499199099154342E8 ; 1.7097064811287876E10 ; 0.0
94 ; 1857365.842228833 ; 2.0189049732085955E8 ; 1.517775432376539E8 ; 1.729894038393127E10 ; 0.0
95 ; 1858287.6852149405 ; 2.019054265794585E8 ; 1.5363490907988274E8 ; 1.750083088125213E10 ; 0.0
96 ; 1859519.2571717603 ; 2.019203591713587E8 ; 1.5549319676509768E8 ; 1.770273630783159E10 ; 0.0
97 ; 1855749.8822139397 ; 2.0193529388364995E8 ; 1.5735271602226943E8 ; 1.790465666700295E10 ; 0.0
98 ; 1856296.0792586638 ; 2.0195022953686744E8 ; 1.5920846590448338E8 ; 1.81065919608866E10 ; 0.0
99 ; 1856461.4778713519 ; 2.0196516498358774E8 ; 1.6106476198374203E8 ; 1.830854219042347E10 ; 0.0
100 ; 1854065.4038409174 ; 2.0198009910709175E8 ; 1.629212234616134E8 ; 1.851050735540706E10 ; 0.0
101 ; 1853248.786705131 ; 2.0199503082009178E8 ; 1.6477528886545432E8 ; 1.871248745451415E10 ; 0.0
102 ; 1853328.5651430467 ; 2.0200995906351936E8 ; 1.6662853765215945E8 ; 1.891448248533424E10 ; 0.0
103 ; 1853026.4911936535 ; 2.0202488280537045E8 ; 1.684818662173025E8 ; 1.911649244439776E10 ; 0.0
104 ; 1849608.6156272264 ; 2.020398010396056E8 ; 1.7033489270849615E8 ; 1.931851732720313E10 ; 0.0
105 ; 1850212.5646779647 ; 2.020547127851018E8 ; 1.7218450132412338E8 ; 1.9520557128242733E10 ; 0.0
106 ; 1849053.6633829996 ; 2.020696170846538E8 ; 1.7403471388880134E8 ; 1.9722611841027836E10 ; 0.0
107 ; 1846400.2633340957 ; 2.0208451300402215E8 ; 1.7588376755218434E8 ; 1.9924681458112488E10 ; 0.0
108 ; 1845591.4317304806 ; 2.020993996310257E8 ; 1.7773016781551844E8 ; 2.012676597111651E10 ; 0.0
109 ; 1846126.216006542 ; 2.0211427607467625E8 ; 1.7957575924724892E8 ; 2.0328865370747536E10 ; 0.0
110 ; 1843394.003175298 ; 2.021291414643535E8 ; 1.8142188546325547E8 ; 2.0530979646822212E10 ; 0.0
111 ; 1840068.5223601512 ; 2.0214399494901773E8 ; 1.8326527946643075E8 ; 2.0733108788286564E10 ; 0.0
112 ; 1841102.143498921 ; 2.0215883569645894E8 ; 1.851053479887909E8 ; 2.093525278323558E10 ; 0.0
113 ; 1838474.8197689687 ; 2.0217366289258018E8 ; 1.8694645013228983E8 ; 2.113741161893204E10 ; 0.0
114 ; 1836318.6404147127 ; 2.0218847574071366E8 ; 1.887849249520588E8 ; 2.1339585281824623E10 ; 0.0
115 ; 1839645.5099832679 ; 2.0220327346096775E8 ; 1.906212435924735E8 ; 2.154177375756534E10 ; 0.0
116 ; 1835024.030807859 ; 2.0221805528960356E8 ; 1.9246088910245678E8 ; 2.1743977031026306E10 ; 0.0
117 ; 1829527.2941329095 ; 2.0223282047843957E8 ; 1.9429591313326463E8 ; 2.194619508631591E10 ; 0.0
118 ; 1831532.6931676462 ; 2.022475682942828E8 ; 1.9612544042739755E8 ; 2.214842790679435E10 ; 0.0
119 ; 1827844.871087837 ; 2.0226229801838544E8 ; 1.979569731205652E8 ; 2.235067547508863E10 ; 0.0
120 ; 1827634.850754854 ; 2.022770089459257E8 ; 1.9978481799165305E8 ; 2.2552937773107018E10 ; 0.0
121 ; 1822048.6441821093 ; 2.0229170038551128E8 ; 2.016124528424079E8 ; 2.2755214782052944E10 ; 0.0
122 ; 1826235.3280400815 ; 2.0230637165870488E8 ; 2.0343450148659003E8 ; 2.2957506482438454E10 ; 0.0
123 ; 1820997.5866399596 ; 2.023210220995705E8 ; 2.0526073681463012E8 ; 2.315981285409716E10 ; 0.0
124 ; 1818539.2203348235 ; 2.0233565105423954E8 ; 2.070817344012701E8 ; 2.336213387619673E10 ; 0.0
125 ; 1818421.5666209455 ; 2.0235025788049546E8 ; 2.0890027362160492E8 ; 2.3564469527250973E10 ; 0.0
126 ; 1815546.7550239954 ; 2.023648419473766E8 ; 2.1071869518822587E8 ; 2.376681978513147E10 ; 0.0
127 ; 1813877.4589631052 ; 2.0237940263479617E8 ; 2.1253424194324985E8 ; 2.3969184627078846E10 ; 0.0
128 ; 1813471.8166723796 ; 2.0239393933317813E8 ; 2.1434811940221295E8 ; 2.4171564029713642E10 ; 0.0
129 ; 1809803.809822613 ; 2.0240845144310898E8 ; 2.1616159121888533E8 ; 2.437395796904682E10 ; 0.0
130 ; 1805315.5254533032 ; 2.0242293837500393E8 ; 2.1797139502870795E8 ; 2.457636642048993E10 ; 0.0
131 ; 1802666.2608061545 ; 2.0243739954878756E8 ; 2.1977671055416125E8 ; 2.4778789358864933E10 ; 0.0
132 ; 1793813.8843281397 ; 2.0245183439358753E8 ; 2.215793768149674E8 ; 2.498122675841372E10 ; 0.0
133 ; 1790392.2212586952 ; 2.0246624234744123E8 ; 2.2337319069929552E8 ; 2.518367859280731E10 ; 0.0
134 ; 1787824.067973162 ; 2.0248062285701478E8 ; 2.2516358292055422E8 ; 2.538614483515475E10 ; 0.0
135 ; 1780000.547542409 ; 2.0249497537733346E8 ; 2.269514069885274E8 ; 2.5588625458011765E10 ; 0.0
136 ; 1775879.6773948197 ; 2.0250929937152335E8 ; 2.287314075360698E8 ; 2.57911204333891E10 ; 0.0
137 ; 1773120.7997388446 ; 2.0252359431056353E8 ; 2.3050728721346462E8 ; 2.5993629732760624E10 ; 0.0
138 ; 1764740.0350944588 ; 2.025378596730486E8 ; 2.3228040801320347E8 ; 2.6196153327071186E10 ; 0.0
139 ; 1759668.0221920602 ; 2.0255209494496047E8 ; 2.3404514804829794E8 ; 2.6398691186744236E10 ; 0.0
140 ; 1756142.6035496541 ; 2.0256629961944994E8 ; 2.3580481607049E8 ; 2.6601243281689198E10 ; 0.0
141 ; 1751319.460825782 ; 2.0258047319662648E8 ; 2.3756095867403966E8 ; 2.6803809581308647E10 ; 0.0
142 ; 1745277.6696185002 ; 2.0259461518335697E8 ; 2.3931227813486543E8 ; 2.7006390054505272E10 ; 0.0
143 ; 1740999.2282204472 ; 2.0260872509307215E8 ; 2.4105755580448392E8 ; 2.720898466968863E10 ; 0.0
144 ; 1732736.9752857066 ; 2.0262280244558105E8 ; 2.4279855503270435E8 ; 2.74115933947817E10 ; 0.0
145 ; 1733268.1968579425 ; 2.0263684676689243E8 ; 2.4453129200799006E8 ; 2.761421619722728E10 ; 0.0
146 ; 1728641.9374519114 ; 2.026508575890436E8 ; 2.46264560204848E8 ; 2.781685304399417E10 ; 0.0
147 ; 1728115.1662867106 ; 2.026648344499358E8 ; 2.479932021422999E8 ; 2.8019503901583214E10 ; 0.0
148 ; 1724916.1022172465 ; 2.02678776893176E8 ; 2.497213173085866E8 ; 2.822216873603315E10 ; 0.0
149 ; 1723466.1970563456 ; 2.02692684467925E8 ; 2.5144623341080385E8 ; 2.8424847512926327E10 ; 0.0
150 ; 1719771.0351200083 ; 2.0270655672875133E8 ; 2.531696996078602E8 ; 2.8627540197394253E10 ; 0.0
151 ; 1715222.2009829846 ; 2.027203932354907E8 ; 2.5488947064298022E8 ; 2.8830246754123005E10 ; 0.0
152 ; 1715251.054687679 ; 2.0273419355311114E8 ; 2.566046928439632E8 ; 2.9032967147358494E10 ; 0.0
153 ; 1712670.217774437 ; 2.0274795725158304E8 ; 2.5831994389865088E8 ; 2.9235701340911606E10 ; 0.0
154 ; 1707687.9632589892 ; 2.0276168390575427E8 ; 2.6003261411642534E8 ; 2.943844929816319E10 ; 0.0
155 ; 1708642.2858367814 ; 2.0277537309523004E8 ; 2.6174030207968432E8 ; 2.9641210982068943E10 ; 0.0
156 ; 1705809.9133581277 ; 2.0278902440425742E8 ; 2.634489443655211E8 ; 2.9843986355164173E10 ; 0.0
157 ; 1702541.2708914701 ; 2.028026374216139E8 ; 2.6515475427887923E8 ; 3.004677537956843E10 ; 0.0
158 ; 1699015.6864135468 ; 2.0281621174050054E8 ; 2.6685729554977068E8 ; 3.0249578016990047E10 ; 0.0
159 ; 1697078.1867333653 ; 2.028297469584389E8 ; 2.6855631123618424E8 ; 3.045239422873055E10 ; 0.0
160 ; 1695350.3930196597 ; 2.0284324267717174E8 ; 2.702533894229176E8 ; 3.0655223975688988E10 ; 0.0
161 ; 1691624.7576387047 ; 2.0285669850256777E8 ; 2.719487398159373E8 ; 3.085806721836616E10 ; 0.0
162 ; 1688347.6884862361 ; 2.0287011404452938E8 ; 2.73640364573576E8 ; 3.106092391686873E10 ; 0.0
163 ; 1684879.1293155327 ; 2.028834889169044E8 ; 2.753287122620622E8 ; 3.1263794030913258E10 ; 0.0
164 ; 1684351.3317545117 ; 2.028968227374006E8 ; 2.7701359139137775E8 ; 3.1466677519830162E10 ; 0.0
165 ; 1676457.2615820684 ; 2.0291011512750354E8 ; 2.7869794272313225E8 ; 3.1669574342567562E10 ; 0.0
166 ; 1676842.0704862536 ; 2.0292336571239758E8 ; 2.803743999847143E8 ; 3.1872484457695065E10 ; 0.0
167 ; 1674824.6657569187 ; 2.029365741208894E8 ; 2.820512420552006E8 ; 3.2075407823407463E10 ; 0.0
168 ; 1674247.6945370373 ; 2.0294973998533452E8 ; 2.837260667209575E8 ; 3.227834439752835E10 ; 0.0
169 ; 1669819.3111893288 ; 2.029628629415666E8 ; 2.8540031441549456E8 ; 3.2481294137513687E10 ; 0.0
170 ; 1668333.4486212202 ; 2.0297594262882903E8 ; 2.870701337266839E8 ; 3.2684257000455254E10 ; 0.0
171 ; 1661279.7526128395 ; 2.0298897868970913E8 ; 2.887384671753051E8 ; 3.2887232943084084E10 ; 0.0
172 ; 1661123.1079294225 ; 2.0300197077007473E8 ; 2.9039974692791796E8 ; 3.3090221921773792E10 ; 0.0
173 ; 1660220.757277071 ; 2.0301491851901287E8 ; 2.9206087003584737E8 ; 3.3293223892543865E10 ; 0.0
174 ; 1658930.3319343056 ; 2.030278215887709E8 ; 2.9372109079312444E8 ; 3.3496238811062878E10 ; 0.0
175 ; 1656745.1849251932 ; 2.030406796346995E8 ; 2.9538002112505877E8 ; 3.369926663265165E10 ; 0.0
176 ; 1653176.4687161043 ; 2.030534923151978E8 ; 2.9703676630998397E8 ; 3.390230731228635E10 ; 0.0
177 ; 1650711.3121796725 ; 2.0306625929166046E8 ; 2.9868994277870005E8 ; 3.4105360804601547E10 ; 0.0
178 ; 1652771.58357567 ; 2.0307898022842652E8 ; 3.0034065409087974E8 ; 3.4308427063893208E10 ; 0.0
179 ; 1648348.8912010144 ; 2.0309165479273024E8 ; 3.019934256744554E8 ; 3.4511506044121635E10 ; 0.0
180 ; 1646188.3724648291 ; 2.031042826546534E8 ; 3.036417745656564E8 ; 3.471459769891437E10 ; 0.0
181 ; 1642453.565479735 ; 2.0311686348707947E8 ; 3.0528796293812126E8 ; 3.491770198156902E10 ; 0.0
182 ; 1641462.819507704 ; 2.0312939696564943E8 ; 3.06930416503601E8 ; 3.51208188450561E10 ; 0.0
183 ; 1639146.0951030387 ; 2.0314188276871884E8 ; 3.0857187932310873E8 ; 3.532394824202175E10 ; 0.0
184 ; 1639349.6355454596 ; 2.0315432057731673E8 ; 3.1021102541821176E8 ; 3.5527090124790474E10 ; 0.0
185 ; 1635639.4871742034 ; 2.0316671007510576E8 ; 3.118503750537572E8 ; 3.573024444536779E10 ; 0.0
186 ; 1634899.2316878773 ; 2.0317905094834375E8 ; 3.134860145409314E8 ; 3.5933411155442894E10 ; 0.0
187 ; 1633069.9669454175 ; 2.031913428858466E8 ; 3.151209137726193E8 ; 3.6136590206391235E10 ; 0.0
188 ; 1629943.8297193826 ; 2.032035855789525E8 ; 3.167539837395647E8 ; 3.6339781549277084E10 ; 0.0
189 ; 1630612.4379874233 ; 2.032157787214871E8 ; 3.183839275692841E8 ; 3.654298513485603E10 ; 0.0
190 ; 1624079.4898231498 ; 2.0322792200973058E8 ; 3.200145400072715E8 ; 3.674620091357752E10 ; 0.0
191 ; 1625002.6690513939 ; 2.0324001514238486E8 ; 3.216386194970947E8 ; 3.694942883558725E10 ; 0.0
192 ; 1622523.0961204174 ; 2.032520578205429E8 ; 3.232636221661461E8 ; 3.715266885072964E10 ; 0.0
193 ; 1622979.4450432614 ; 2.0326404974765834E8 ; 3.248861452622665E8 ; 3.735592090855018E10 ; 0.0
194 ; 1620009.4602266485 ; 2.0327599062951654E8 ; 3.265091247073098E8 ; 3.755918495829784E10 ; 0.0
195 ; 1617954.3556310842 ; 2.0328788017420653E8 ; 3.2812913416753644E8 ; 3.776246094892735E10 ; 0.0
196 ; 1616211.9646652895 ; 2.0329971809209394E8 ; 3.2974708852316755E8 ; 3.796574882910156E10 ; 0.0
197 ; 1615688.303565563 ; 2.033115040957947E8 ; 3.3136330048783284E8 ; 3.816904854719366E10 ; 0.0
198 ; 1610979.3571309315 ; 2.0332323790014997E8 ; 3.329789887913984E8 ; 3.837236005128945E10 ; 0.0
199 ; 1609741.22679247 ; 2.0333491922220144E8 ; 3.3458996814852935E8 ; 3.85756832891896E10 ; 0.0
