CSV File for the City 6 on Day 64
1 - Minute m 
2 - Power Consumed at minute m 
3 - Power Produced at minute m 
4 - Energy Consumed since the beginning of the day 
5 - Energy Produced since the beginning of the day 
6 - Energy Lost since the beginning of the day on lines starting from the city
 
0 ; 1.1131005210219584E7 ; 1.0590723149503013E8 ; 0.0 ; 0.0 ; 0.0
1 ; 1.114120581654103E7 ; 1.0605793181270415E8 ; 1.1131005210219584E7 ; 1.0590723149503013E8 ; 0.0
2 ; 1.1153774802809596E7 ; 1.0651763944717517E8 ; 2.2272211026760615E7 ; 2.1196516330773428E8 ; 0.0
3 ; 1.116705386462606E7 ; 1.0728635949475521E8 ; 3.342598582957021E7 ; 3.1848280275490946E8 ; 0.0
4 ; 1.1178875773089405E7 ; 1.083640965464781E8 ; 4.459303969419627E7 ; 4.2576916224966466E8 ; 0.0
5 ; 1.120205425767079E7 ; 1.0975085465474123E8 ; 5.577191546728568E7 ; 5.3413325879614276E8 ; 0.0
6 ; 1.1225307113438504E7 ; 1.1144663730310377E8 ; 6.697396972495647E7 ; 6.43884113450884E8 ; 0.0
7 ; 1.1266565841192624E7 ; 1.134514473797546E8 ; 7.819927683839497E7 ; 7.553307507539878E8 ; 0.0
8 ; 1.1319460197160093E7 ; 1.1576528715511185E8 ; 8.946584267958759E7 ; 8.687821981337423E8 ; 0.0
9 ; 1.1397556596999977E7 ; 1.1838815826395726E8 ; 1.0078530287674768E8 ; 9.845474852888541E8 ; 0.0
10 ; 1.1521737505151566E7 ; 1.2132006169243103E8 ; 1.1218285947374766E8 ; 1.1029356435528114E9 ; 0.0
11 ; 1.1719544509538617E7 ; 1.2456099777013013E8 ; 1.2370459697889923E8 ; 1.2242557052452424E9 ; 0.0
12 ; 1.2032377581116794E7 ; 1.2811096616745755E8 ; 1.3542414148843783E8 ; 1.3488167030153725E9 ; 0.0
13 ; 1.233522697154943E7 ; 1.3196996589827311E8 ; 1.4745651906955463E8 ; 1.47692766918283E9 ; 0.0
14 ; 1.2376681496923532E7 ; 1.3613799532779515E8 ; 1.5979174604110405E8 ; 1.6088976350811033E9 ; 0.0
15 ; 1.2391207634175561E7 ; 1.406150521856054E8 ; 1.7216842753802758E8 ; 1.7450356304088984E9 ; 0.0
16 ; 1.2406173292122342E7 ; 1.4540113358351514E8 ; 1.8455963517220315E8 ; 1.8856506825945039E9 ; 0.0
17 ; 1.2418372616459578E7 ; 1.504962360379651E8 ; 1.969658084643255E8 ; 2.031051816178019E9 ; 0.0
18 ; 1.2427824634091664E7 ; 1.559003554965579E8 ; 2.0938418108078507E8 ; 2.1815480522159843E9 ; 0.0
19 ; 1.2445785219008908E7 ; 1.616134873682597E8 ; 2.2181200571487674E8 ; 2.337448407712542E9 ; 0.0
20 ; 1.2460917967301471E7 ; 1.676356265567585E8 ; 2.3425779093388563E8 ; 2.499061895080802E9 ; 0.0
21 ; 1.2476168225091292E7 ; 1.7396676749643597E8 ; 2.467187089011871E8 ; 2.6666975216375604E9 ; 0.0
22 ; 1.2491626503190206E7 ; 1.8060690419039047E8 ; 2.5919487712627837E8 ; 2.8406642891339965E9 ; 0.0
23 ; 1.2503158283306714E7 ; 1.87556030249947E8 ; 2.7168650362946856E8 ; 3.021271193324387E9 ; 0.0
24 ; 1.2518656675691707E7 ; 1.948141389350996E8 ; 2.841896619127753E8 ; 3.208827223574334E9 ; 0.0
25 ; 1.253030284041372E7 ; 2.010692640935384E8 ; 2.96708318588467E8 ; 3.4036413625094337E9 ; 0.0
26 ; 1.254591954060825E7 ; 2.0107494623829296E8 ; 3.092386214288807E8 ; 3.604710626602972E9 ; 0.0
27 ; 1.255793664665395E7 ; 2.0108094711282974E8 ; 3.217845409694889E8 ; 3.805785572841265E9 ; 0.0
28 ; 1.2572736739770465E7 ; 2.0108725897705784E8 ; 3.3434247761614287E8 ; 4.006866519954095E9 ; 0.0
29 ; 1.258734649546885E7 ; 2.0109387393848985E8 ; 3.4691521435591334E8 ; 4.207953778931153E9 ; 0.0
30 ; 1.2598603141792992E7 ; 2.011007839885383E8 ; 3.595025608513822E8 ; 4.409047652869642E9 ; 0.0
31 ; 1.2613610305401826E7 ; 2.011079810369456E8 ; 3.721011639931752E8 ; 4.610148436858181E9 ; 0.0
32 ; 1.262320594485217E7 ; 2.0111545694415444E8 ; 3.84714774298577E8 ; 4.811256417895126E9 ; 0.0
33 ; 1.2635459935908651E7 ; 2.0112320355147606E8 ; 3.973379802434292E8 ; 5.012371874839281E9 ; 0.0
34 ; 1.2649063752151893E7 ; 2.0113121270896274E8 ; 4.0997344017933786E8 ; 5.213495078390758E9 ; 0.0
35 ; 1.2663587988267751E7 ; 2.0113947630093375E8 ; 4.2262250393148977E8 ; 5.41462629109972E9 ; 0.0
36 ; 1.2674686486148806E7 ; 2.0114798626914322E8 ; 4.3528609191975754E8 ; 5.615765767400654E9 ; 0.0
37 ; 1.2685576212245122E7 ; 2.0115673463361207E8 ; 4.479607784059064E8 ; 5.816913753669797E9 ; 0.0
38 ; 1.2691726812026456E7 ; 2.0116571351117557E8 ; 4.606463546181515E8 ; 6.018070488303409E9 ; 0.0
39 ; 1.2702543577603115E7 ; 2.011749151318219E8 ; 4.733380814301779E8 ; 6.219236201814584E9 ; 0.0
40 ; 1.27141508084741E7 ; 2.011843318529155E8 ; 4.86040625007781E8 ; 6.420411116946405E9 ; 0.0
41 ; 1.2726518581593256E7 ; 2.011939561714151E8 ; 4.9875477581625515E8 ; 6.621595448799321E9 ; 0.0
42 ; 1.2730021474444939E7 ; 2.012037807342063E8 ; 5.114812943978484E8 ; 6.8227894049707365E9 ; 0.0
43 ; 1.2739115710049918E7 ; 2.012137983466755E8 ; 5.2421131587229335E8 ; 7.023993185704943E9 ; 0.0
44 ; 1.2750082835111758E7 ; 2.0122400197965673E8 ; 5.369504315823432E8 ; 7.225206984051619E9 ; 0.0
45 ; 1.2758000613829732E7 ; 2.0123438477488396E8 ; 5.49700514417455E8 ; 7.426430986031276E9 ; 0.0
46 ; 1.2760500642527249E7 ; 2.012449400490799E8 ; 5.624585150312847E8 ; 7.62766537080616E9 ; 0.0
47 ; 1.2767562612102462E7 ; 2.0125566129681063E8 ; 5.752190156738119E8 ; 7.82891031085524E9 ; 0.0
48 ; 1.2770566226290781E7 ; 2.0126654219223028E8 ; 5.879865782859144E8 ; 8.03016597215205E9 ; 0.0
49 ; 1.2774054743711649E7 ; 2.012775765898348E8 ; 6.007571445122052E8 ; 8.23143251434428E9 ; 0.0
50 ; 1.2778944185037622E7 ; 2.012887585243377E8 ; 6.135311992559168E8 ; 8.432710090934115E9 ; 0.0
51 ; 1.2784630517386721E7 ; 2.013000822097736E8 ; 6.263101434409544E8 ; 8.633998849458452E9 ; 0.0
52 ; 1.2787870015417445E7 ; 2.0131154203792855E8 ; 6.390947739583411E8 ; 8.835298931668226E9 ; 0.0
53 ; 1.279041974034035E7 ; 2.013231325761886E8 ; 6.518826439737586E8 ; 9.036610473706154E9 ; 0.0
54 ; 1.2796507189892752E7 ; 2.013348485648905E8 ; 6.646730637140989E8 ; 9.237933606282343E9 ; 0.0
55 ; 1.2796721442762207E7 ; 2.0134668491425157E8 ; 6.774695709039917E8 ; 9.439268454847233E9 ; 0.0
56 ; 1.2804053035930393E7 ; 2.0135863670094863E8 ; 6.90266292346754E8 ; 9.640615139761484E9 ; 0.0
57 ; 1.2803623162205676E7 ; 2.0137069916440892E8 ; 7.030703453826844E8 ; 9.841973776462433E9 ; 0.0
58 ; 1.280410794538421E7 ; 2.0138286770286977E8 ; 7.1587396854489E8 ; 1.0043344475626842E10 ; 0.0
59 ; 1.281051925983827E7 ; 2.0139513786925793E8 ; 7.286780764902743E8 ; 1.0244727343329712E10 ; 0.0
60 ; 1.2811773471982136E7 ; 2.0140750536693305E8 ; 7.414885957501125E8 ; 1.044612248119897E10 ; 0.0
61 ; 1.2815282608584814E7 ; 2.014199660453357E8 ; 7.543003692220947E8 ; 1.0647529986565905E10 ; 0.0
62 ; 1.2817020403675321E7 ; 2.014325158955745E8 ; 7.671156518306794E8 ; 1.084894995261124E10 ; 0.0
63 ; 1.2818617143129142E7 ; 2.0144515104598314E8 ; 7.799326722343547E8 ; 1.1050382468506815E10 ; 0.0
64 ; 1.2820197796864642E7 ; 2.0145786775767368E8 ; 7.927512893774838E8 ; 1.1251827619552797E10 ; 0.0
65 ; 1.2819874950471904E7 ; 2.014706624201091E8 ; 8.055714871743485E8 ; 1.145328548731047E10 ; 0.0
66 ; 1.2826012565735938E7 ; 2.014835315467146E8 ; 8.183913621248204E8 ; 1.165475614973058E10 ; 0.0
67 ; 1.2822726444983063E7 ; 2.0149647177054435E8 ; 8.312173746905563E8 ; 1.1856239681277294E10 ; 0.0
68 ; 1.2826506509075474E7 ; 2.0150947984001735E8 ; 8.440401011355393E8 ; 1.2057736153047838E10 ; 0.0
69 ; 1.28294715538112E7 ; 2.015225526147344E8 ; 8.568666076446148E8 ; 1.2259245632887856E10 ; 0.0
70 ; 1.2830647047252337E7 ; 2.0153568706138512E8 ; 8.69696079198426E8 ; 1.246076818550259E10 ; 0.0
71 ; 1.2832346745898046E7 ; 2.015488802497531E8 ; 8.825267262456783E8 ; 1.2662303872563974E10 ; 0.0
72 ; 1.283796445894691E7 ; 2.015621293488247E8 ; 8.953590729915763E8 ; 1.2863852752813728E10 ; 0.0
73 ; 1.2837305610888459E7 ; 2.0157543162300637E8 ; 9.081970374505233E8 ; 1.3065414882162554E10 ; 0.0
74 ; 1.2836577927004574E7 ; 2.015887844284535E8 ; 9.210343430614117E8 ; 1.326699031378556E10 ; 0.0
75 ; 1.2837749536644828E7 ; 2.0160218520951304E8 ; 9.338709209884163E8 ; 1.3468579098214014E10 ; 0.0
76 ; 1.2834145562674567E7 ; 2.016156314952811E8 ; 9.467086705250611E8 ; 1.3670181283423527E10 ; 0.0
77 ; 1.2841454407132145E7 ; 2.0162912089627615E8 ; 9.595428160877357E8 ; 1.3871796914918808E10 ; 0.0
78 ; 1.2834729080170374E7 ; 2.0164265110122716E8 ; 9.723842704948678E8 ; 1.4073426035815084E10 ; 0.0
79 ; 1.2829155194007045E7 ; 2.0165621987397602E8 ; 9.852189995750382E8 ; 1.4275068686916311E10 ; 0.0
80 ; 1.2824847752893697E7 ; 2.0166982505049306E8 ; 9.980481547690452E8 ; 1.4476724906790287E10 ; 0.0
81 ; 1.2823065608874606E7 ; 2.0168346453600356E8 ; 1.0108730025219389E9 ; 1.467839473184078E10 ; 0.0
82 ; 1.2819588305020923E7 ; 2.0169713630222332E8 ; 1.0236960681308135E9 ; 1.4880078196376783E10 ; 0.0
83 ; 1.281733260382278E7 ; 2.0171083838470107E8 ; 1.0365156564358344E9 ; 1.5081775332679007E10 ; 0.0
84 ; 1.2813364558652822E7 ; 2.0172456888026473E8 ; 1.0493329890396572E9 ; 1.5283486171063707E10 ; 0.0
85 ; 1.2808431519801952E7 ; 2.0173832594456902E8 ; 1.0621463535983101E9 ; 1.5485210739943972E10 ; 0.0
86 ; 1.2801176596671904E7 ; 2.0175210778974178E8 ; 1.074954785118112E9 ; 1.568694906588854E10 ; 0.0
87 ; 1.2798241928659165E7 ; 2.0176591268212515E8 ; 1.087755961714784E9 ; 1.5888701173678282E10 ; 0.0
88 ; 1.2795608361076823E7 ; 2.0177973894010973E8 ; 1.100554203643443E9 ; 1.6090467086360407E10 ; 0.0
89 ; 1.2792511111442285E7 ; 2.0179358493205753E8 ; 1.11334981200452E9 ; 1.6292246825300516E10 ; 0.0
90 ; 1.2785675546920398E7 ; 2.0180744907431138E8 ; 1.1261423231159623E9 ; 1.6494040410232574E10 ; 0.0
91 ; 1.2779288353361135E7 ; 2.018213298292875E8 ; 1.1389279986628826E9 ; 1.6695847859306887E10 ; 0.0
92 ; 1.2775112939471595E7 ; 2.0183522570364794E8 ; 1.1517072870162437E9 ; 1.6897669189136173E10 ; 0.0
93 ; 1.2772931930723287E7 ; 2.0184913524655014E8 ; 1.1644823999557152E9 ; 1.709950441483982E10 ; 0.0
94 ; 1.2769471401706768E7 ; 2.0186305704797062E8 ; 1.1772553318864384E9 ; 1.7301353550086372E10 ; 0.0
95 ; 1.2761787229945648E7 ; 2.0187698973709974E8 ; 1.190024803288145E9 ; 1.7503216607134342E10 ; 0.0
96 ; 1.2755333610125521E7 ; 2.018909319808048E8 ; 1.2027865905180907E9 ; 1.770509359687144E10 ; 0.0
97 ; 1.2751620033400377E7 ; 2.0190488248215878E8 ; 1.2155419241282163E9 ; 1.7906984528852245E10 ; 0.0
98 ; 1.2746795915118113E7 ; 2.0191883997903168E8 ; 1.2282935441616166E9 ; 1.8108889411334404E10 ; 0.0
99 ; 1.2737381774105899E7 ; 2.0193280324274248E8 ; 1.2410403400767348E9 ; 1.8310808251313435E10 ; 0.0
100 ; 1.2734049938786907E7 ; 2.019467710767684E8 ; 1.2537777218508406E9 ; 1.8512741054556175E10 ; 0.0
101 ; 1.2727662859840514E7 ; 2.0196074231550977E8 ; 1.2665117717896276E9 ; 1.8714687825632942E10 ; 0.0
102 ; 1.2720597659055341E7 ; 2.0197471582310757E8 ; 1.2792394346494682E9 ; 1.8916648567948452E10 ; 0.0
103 ; 1.2716049808999304E7 ; 2.0198869049231163E8 ; 1.2919600323085234E9 ; 1.911862328377156E10 ; 0.0
104 ; 1.2710863263782952E7 ; 2.0200266524339744E8 ; 1.3046760821175227E9 ; 1.9320611974263874E10 ; 0.0
105 ; 1.2703251435245635E7 ; 2.020166390231291E8 ; 1.3173869453813057E9 ; 1.952261463950727E10 ; 0.0
106 ; 1.2694332335538045E7 ; 2.0203061080376652E8 ; 1.3300901968165514E9 ; 1.97246312785304E10 ; 0.0
107 ; 1.2687785134918703E7 ; 2.0204457958211523E8 ; 1.3427845291520896E9 ; 1.9926661889334167E10 ; 0.0
108 ; 1.2682318330400452E7 ; 2.0205854437861642E8 ; 1.3554723142870083E9 ; 2.0128706468916283E10 ; 0.0
109 ; 1.2674143134306872E7 ; 2.0207250423647583E8 ; 1.3681546326174088E9 ; 2.03307650132949E10 ; 0.0
110 ; 1.26680606265442E7 ; 2.0208645822082952E8 ; 1.3808287757517157E9 ; 2.0532837517531376E10 ; 0.0
111 ; 1.2663206470049316E7 ; 2.0210040541794506E8 ; 1.39349683637826E9 ; 2.0734923975752205E10 ; 0.0
112 ; 1.265307390908318E7 ; 2.0211434493445656E8 ; 1.4061600428483093E9 ; 2.093702438117015E10 ; 0.0
113 ; 1.264489332903413E7 ; 2.021282758966317E8 ; 1.4188131167573924E9 ; 2.1139138726104607E10 ; 0.0
114 ; 1.2637883510121118E7 ; 2.021421974496699E8 ; 1.4314580100864265E9 ; 2.134126700200124E10 ; 0.0
115 ; 1.2630421939072764E7 ; 2.021561087570298E8 ; 1.4440958935965476E9 ; 2.154340919945091E10 ; 0.0
116 ; 1.262423073900999E7 ; 2.021700089997849E8 ; 1.4567263155356205E9 ; 2.174556530820794E10 ; 0.0
117 ; 1.261485346668489E7 ; 2.02183897376006E8 ; 1.4693505462746305E9 ; 2.1947735317207726E10 ; 0.0
118 ; 1.260635077876075E7 ; 2.0219777310016966E8 ; 1.4819653997413154E9 ; 2.2149919214583733E10 ; 0.0
119 ; 1.2598917769667147E7 ; 2.022116354025908E8 ; 1.494571750520076E9 ; 2.2352116987683903E10 ; 0.0
120 ; 1.2592710519142056E7 ; 2.0222548352887905E8 ; 1.5071706682897432E9 ; 2.2554328623086494E10 ; 0.0
121 ; 1.2583396515438931E7 ; 2.022393167394173E8 ; 1.5197633788088853E9 ; 2.275655410661537E10 ; 0.0
122 ; 1.2570891695745131E7 ; 2.0225313430886203E8 ; 1.5323467753243244E9 ; 2.295879342335479E10 ; 0.0
123 ; 1.2565982197784299E7 ; 2.0226693552566364E8 ; 1.5449176670200696E9 ; 2.316104655766365E10 ; 0.0
124 ; 1.2554887958410248E7 ; 2.0228071969160685E8 ; 1.5574836492178538E9 ; 2.3363313493189316E10 ; 0.0
125 ; 1.2544448256335067E7 ; 2.0229448612136936E8 ; 1.570038537176264E9 ; 2.3565594212880924E10 ; 0.0
126 ; 1.2538845348857488E7 ; 2.023082341420987E8 ; 1.582582985432599E9 ; 2.3767888699002293E10 ; 0.0
127 ; 1.2525998580626233E7 ; 2.023219630930061E8 ; 1.5951218307814565E9 ; 2.397019693314439E10 ; 0.0
128 ; 1.2518444083726626E7 ; 2.0233567232497674E8 ; 1.6076478293620827E9 ; 2.4172518896237396E10 ; 0.0
129 ; 1.2511346603659296E7 ; 2.0234936120019546E8 ; 1.6201662734458094E9 ; 2.4374854568562374E10 ; 0.0
130 ; 1.2498512129308144E7 ; 2.0236302909178773E8 ; 1.6326776200494688E9 ; 2.457720392976257E10 ; 0.0
131 ; 1.2487060939514996E7 ; 2.0237667538347465E8 ; 1.645176132178777E9 ; 2.477956695885436E10 ; 0.0
132 ; 1.247539539460553E7 ; 2.0239029946924183E8 ; 1.657663193118292E9 ; 2.4981943634237835E10 ; 0.0
133 ; 1.2459089989138246E7 ; 2.0240390075302124E8 ; 1.6701385885128977E9 ; 2.5184333933707077E10 ; 0.0
134 ; 1.2444045055564366E7 ; 2.0241747864838567E8 ; 1.682597678502036E9 ; 2.53867378344601E10 ; 0.0
135 ; 1.243223532245457E7 ; 2.0243103257825515E8 ; 1.6950417235576005E9 ; 2.5589155313108482E10 ; 0.0
136 ; 1.241723931011095E7 ; 2.0244456197461477E8 ; 1.707473958880055E9 ; 2.5791586345686737E10 ; 0.0
137 ; 1.2403210716733774E7 ; 2.024580662782437E8 ; 1.719891198190166E9 ; 2.599403090766135E10 ; 0.0
138 ; 1.2387032346288411E7 ; 2.0247154493845448E8 ; 1.7322944089068997E9 ; 2.6196488973939594E10 ; 0.0
139 ; 1.2376893199147446E7 ; 2.0248499741284263E8 ; 1.7446814412531881E9 ; 2.6398960518878048E10 ; 0.0
140 ; 1.2361971125111269E7 ; 2.0249842316704565E8 ; 1.7570583344523356E9 ; 2.660144551629089E10 ; 0.0
141 ; 1.2344817221848924E7 ; 2.0251182167451143E8 ; 1.769420305577447E9 ; 2.6803943939457935E10 ; 0.0
142 ; 1.2329007745638167E7 ; 2.0252519241627556E8 ; 1.781765122799296E9 ; 2.7006455761132446E10 ; 0.0
143 ; 1.2318529580942975E7 ; 2.025385348807469E8 ; 1.794094130544934E9 ; 2.720898095354872E10 ; 0.0
144 ; 1.230239336740554E7 ; 2.025518485635015E8 ; 1.806412660125877E9 ; 2.741151948842947E10 ; 0.0
145 ; 1.2290848712052237E7 ; 2.025651329670843E8 ; 1.8187150534932826E9 ; 2.7614071336992973E10 ; 0.0
146 ; 1.2279421173842717E7 ; 2.0257838760081807E8 ; 1.831005902205335E9 ; 2.7816636469960056E10 ; 0.0
147 ; 1.227139730283856E7 ; 2.0259161198061976E8 ; 1.8432853233791776E9 ; 2.8019214857560875E10 ; 0.0
148 ; 1.225659351914562E7 ; 2.026048056288237E8 ; 1.8555567206820161E9 ; 2.8221806469541496E10 ; 0.0
149 ; 1.2250994312476946E7 ; 2.0261796807401112E8 ; 1.8678133142011619E9 ; 2.842441127517032E10 ; 0.0
150 ; 1.2239015421464592E7 ; 2.0263109885084638E8 ; 1.8800643085136387E9 ; 2.862702924324433E10 ; 0.0
151 ; 1.2229180988502631E7 ; 2.0264419749991897E8 ; 1.8923033239351034E9 ; 2.8829660342095177E10 ; 0.0
152 ; 1.222148402668686E7 ; 2.026572635675914E8 ; 1.9045325049236062E9 ; 2.9032304539595097E10 ; 0.0
153 ; 1.220777029735898E7 ; 2.026702966058527E8 ; 1.916753988950293E9 ; 2.923496180316269E10 ; 0.0
154 ; 1.2198714014955131E7 ; 2.0268329617217734E8 ; 1.928961759247652E9 ; 2.9437632099768543E10 ; 0.0
155 ; 1.2188365524645453E7 ; 2.026962618293891E8 ; 1.941160473262607E9 ; 2.964031539594072E10 ; 0.0
156 ; 1.2177807157539137E7 ; 2.0270919314553007E8 ; 1.9533488387872527E9 ; 2.9843011657770107E10 ; 0.0
157 ; 1.2165158515235575E7 ; 2.0272208969373435E8 ; 1.9655266459447918E9 ; 3.0045720850915638E10 ; 0.0
158 ; 1.2159171362855898E7 ; 2.0273495105210608E8 ; 1.9776918044600275E9 ; 3.024844294060937E10 ; 0.0
159 ; 1.2146154372944886E7 ; 2.027477768036023E8 ; 1.9898509758228834E9 ; 3.0451177891661476E10 ; 0.0
160 ; 1.2128864727276621E7 ; 2.027605665359196E8 ; 2.0019971301958282E9 ; 3.065392566846508E10 ; 0.0
161 ; 1.212344795100973E7 ; 2.027733198413849E8 ; 2.0141259949231048E9 ; 3.0856686235001E10 ; 0.0
162 ; 1.2113562556001756E7 ; 2.027860363168503E8 ; 2.0262494428741145E9 ; 3.1059459554842384E10 ; 0.0
163 ; 1.2097900301996434E7 ; 2.0279871556359145E8 ; 2.0383630054301162E9 ; 3.1262245591159233E10 ; 0.0
164 ; 1.2089030149294943E7 ; 2.0281135718720964E8 ; 2.0504609057321126E9 ; 3.1465044306722824E10 ; 0.0
165 ; 1.2080428284167364E7 ; 2.0282396079753718E8 ; 2.0625499358814075E9 ; 3.1667855663910034E10 ; 0.0
166 ; 1.2069893778874457E7 ; 2.0283652600854632E8 ; 2.0746303641655748E9 ; 3.1870679624707573E10 ; 0.0
167 ; 1.2055744048092974E7 ; 2.0284905243826115E8 ; 2.0867002579444492E9 ; 3.2073516150716118E10 ; 0.0
168 ; 1.2043172715474062E7 ; 2.0286153970867276E8 ; 2.0987560019925423E9 ; 3.227636520315438E10 ; 0.0
169 ; 1.2032076163261617E7 ; 2.0287398744565713E8 ; 2.1107991747080164E9 ; 3.2479226742863052E10 ; 0.0
170 ; 1.2021487244652066E7 ; 2.0288639527889603E8 ; 2.122831250871278E9 ; 3.268210073030871E10 ; 0.0
171 ; 1.2008577656329898E7 ; 2.0289876284180066E8 ; 2.13485273811593E9 ; 3.2884987125587605E10 ; 0.0
172 ; 1.1998845239045195E7 ; 2.0291108977143776E8 ; 2.14686131577226E9 ; 3.3087885888429405E10 ; 0.0
173 ; 1.198934014257442E7 ; 2.0292337570845854E8 ; 2.1588601610113053E9 ; 3.3290796978200844E10 ; 0.0
174 ; 1.1978802944280623E7 ; 2.0293562029702964E8 ; 2.1708495011538796E9 ; 3.34937203539093E10 ; 0.0
175 ; 1.197589188565789E7 ; 2.0294782318476686E8 ; 2.1828283040981603E9 ; 3.3696655974206333E10 ; 0.0
176 ; 1.196507566697463E7 ; 2.0295998402267084E8 ; 2.194804195983818E9 ; 3.38996037973911E10 ; 0.0
177 ; 1.195936401863969E7 ; 2.0297210246506518E8 ; 2.2067692716507926E9 ; 3.4102563781413773E10 ; 0.0
178 ; 1.1954624635826338E7 ; 2.0298417816953635E8 ; 2.218728635669432E9 ; 3.4305535883878838E10 ; 0.0
179 ; 1.194892445743159E7 ; 2.0299621079687598E8 ; 2.2306832603052583E9 ; 3.450852006204837E10 ; 0.0
180 ; 1.1940724361406375E7 ; 2.0300820001102477E8 ; 2.24263218476269E9 ; 3.4711516272845245E10 ; 0.0
181 ; 1.193154100842912E7 ; 2.0302014547901848E8 ; 2.2545729091240964E9 ; 3.491452447285627E10 ; 0.0
182 ; 1.1924511179775061E7 ; 2.0303204687093574E8 ; 2.2665044501325254E9 ; 3.511754461833529E10 ; 0.0
183 ; 1.1917307073072426E7 ; 2.0304390385984746E8 ; 2.2784289613123007E9 ; 3.532057666520622E10 ; 0.0
184 ; 1.1910227329346733E7 ; 2.03055716121768E8 ; 2.290346268385373E9 ; 3.552362056906607E10 ; 0.0
185 ; 1.1905298711490722E7 ; 2.030674833356081E8 ; 2.30225649571472E9 ; 3.5726676285187836E10 ; 0.0
186 ; 1.1899371847084215E7 ; 2.0307920518312913E8 ; 2.3141617944262104E9 ; 3.5929743768523445E10 ; 0.0
187 ; 1.1892074020109482E7 ; 2.0309088134889898E8 ; 2.3260611662732944E9 ; 3.613282297370657E10 ; 0.0
188 ; 1.1882367825980362E7 ; 2.031025115202495E8 ; 2.337953240293404E9 ; 3.633591385505547E10 ; 0.0
189 ; 1.1874786055290429E7 ; 2.031140953872351E8 ; 2.3498356081193843E9 ; 3.653901636657572E10 ; 0.0
190 ; 1.1868596809628695E7 ; 2.0312563264259306E8 ; 2.3617103941746745E9 ; 3.674213046196296E10 ; 0.0
191 ; 1.1862266368751543E7 ; 2.0313712298170468E8 ; 2.373578990984303E9 ; 3.694525609460555E10 ; 0.0
192 ; 1.1855453285346605E7 ; 2.0314856610255823E8 ; 2.3854412573530545E9 ; 3.714839321758726E10 ; 0.0
193 ; 1.1846481563285206E7 ; 2.0315996170571262E8 ; 2.397296710638401E9 ; 3.735154178368982E10 ; 0.0
194 ; 1.1843823657552127E7 ; 2.0317130949426267E8 ; 2.4091431922016864E9 ; 3.755470174539553E10 ; 0.0
195 ; 1.1835148024326002E7 ; 2.0318260917380527E8 ; 2.4209870158592386E9 ; 3.775787305488979E10 ; 0.0
