CSV File for the City 2 on Day 20
1 - Minute m 
2 - Power Consumed at minute m 
3 - Power Produced at minute m 
4 - Energy Consumed since the beginning of the day 
5 - Energy Produced since the beginning of the day 
6 - Energy Lost since the beginning of the day on lines starting from the city
 
0 ; 1.0283764709788661E7 ; 1.2205805725859318E7 ; 0.0 ; 0.0 ; 0.0
1 ; 1.0293598590809762E7 ; 1.2205805725859318E7 ; 1.0283764709788661E7 ; 1.2205805725859318E7 ; 0.0
2 ; 1.0306550871525671E7 ; 1.2205805725859318E7 ; 2.0577363300598424E7 ; 2.4411611451718636E7 ; 0.0
3 ; 1.0318900564387772E7 ; 1.2205805725859318E7 ; 3.0883914172124095E7 ; 3.661741717757796E7 ; 0.0
4 ; 1.0331920470854698E7 ; 1.2205805725859318E7 ; 4.120281473651187E7 ; 4.882322290343727E7 ; 0.0
5 ; 1.0349301015155058E7 ; 1.2205805725859318E7 ; 5.153473520736657E7 ; 6.1029028629296586E7 ; 0.0
6 ; 1.037559681249178E7 ; 1.2205805725859318E7 ; 6.188403622252163E7 ; 7.32348343551559E7 ; 0.0
7 ; 1.0409321577103637E7 ; 1.2205805725859318E7 ; 7.225963303501341E7 ; 8.544064008101521E7 ; 0.0
8 ; 1.0462443049639547E7 ; 1.2205805725859318E7 ; 8.266895461211705E7 ; 9.764644580687453E7 ; 0.0
9 ; 1.053655188867927E7 ; 1.2205805725859318E7 ; 9.31313976617566E7 ; 1.0985225153273384E8 ; 0.0
10 ; 1.06539176521682E7 ; 1.2205805725859318E7 ; 1.0366794955043587E8 ; 1.2205805725859316E8 ; 0.0
11 ; 1.084287549266103E7 ; 1.2205805725859318E7 ; 1.1432186720260407E8 ; 1.342638629844525E8 ; 0.0
12 ; 1.1142130926132156E7 ; 1.2205805725859318E7 ; 1.251647426952651E8 ; 1.464696687103118E8 ; 0.0
13 ; 1.1431072893872175E7 ; 1.2205805725859318E7 ; 1.3630687362139726E8 ; 1.586754744361711E8 ; 0.0
14 ; 1.1463978221166806E7 ; 1.2205805725859318E7 ; 1.4773794651526943E8 ; 1.7088128016203043E8 ; 0.0
15 ; 1.1476225586646412E7 ; 1.2205805725859318E7 ; 1.5920192473643625E8 ; 1.8308708588788974E8 ; 0.0
16 ; 1.1492388481531337E7 ; 1.2205805725859318E7 ; 1.7067815032308266E8 ; 1.9529289161374906E8 ; 0.0
17 ; 1.1503871622724054E7 ; 1.2205805725859318E7 ; 1.82170538804614E8 ; 2.0749869733960837E8 ; 0.0
18 ; 1.1516210027480435E7 ; 1.2205805725859318E7 ; 1.9367441042733806E8 ; 2.197045030654677E8 ; 0.0
19 ; 1.1532332287980206E7 ; 1.2205805725859318E7 ; 2.051906204548185E8 ; 2.31910308791327E8 ; 0.0
20 ; 1.154408648398284E7 ; 1.2205805725859318E7 ; 2.167229527427987E8 ; 2.441161145171863E8 ; 0.0
21 ; 1.155622399671443E7 ; 1.2205805725859318E7 ; 2.2826703922678152E8 ; 2.5632192024304563E8 ; 0.0
22 ; 1.156949360908768E7 ; 1.2205805725859318E7 ; 2.3982326322349596E8 ; 2.68527725968905E8 ; 0.0
23 ; 1.158416075737782E7 ; 1.2205805725859318E7 ; 2.5139275683258364E8 ; 2.807335316947643E8 ; 0.0
24 ; 1.1596559675681615E7 ; 1.2205805725859318E7 ; 2.6297691758996147E8 ; 2.9293933742062366E8 ; 0.0
25 ; 1.161329979948988E7 ; 1.2205805725859318E7 ; 2.7457347726564306E8 ; 3.05145143146483E8 ; 0.0
26 ; 1.1625781998221302E7 ; 1.2205805725859318E7 ; 2.861867770651329E8 ; 3.1735094887234235E8 ; 0.0
27 ; 1.1640353297514211E7 ; 1.2205805725859318E7 ; 2.978125590633542E8 ; 3.295567545982017E8 ; 0.0
28 ; 1.1649599763277128E7 ; 1.2205805725859318E7 ; 3.094529123608684E8 ; 3.4176256032406104E8 ; 0.0
29 ; 1.1665318572651528E7 ; 1.2205805725859318E7 ; 3.211025121241455E8 ; 3.539683660499204E8 ; 0.0
30 ; 1.167783948509425E7 ; 1.2205805725859318E7 ; 3.32767830696797E8 ; 3.661741717757797E8 ; 0.0
31 ; 1.1689373842844049E7 ; 1.2205805725859318E7 ; 3.4444567018189126E8 ; 3.7837997750163907E8 ; 0.0
32 ; 1.169869473121083E7 ; 1.2205805725859318E7 ; 3.5613504402473533E8 ; 3.905857832274984E8 ; 0.0
33 ; 1.1715181146140626E7 ; 1.2205805725859318E7 ; 3.6783373875594616E8 ; 4.0279158895335776E8 ; 0.0
34 ; 1.1724649580689635E7 ; 1.2205805725859318E7 ; 3.795489199020868E8 ; 4.149973946792171E8 ; 0.0
35 ; 1.173283573670757E7 ; 1.2205805725859318E7 ; 3.912735694827764E8 ; 4.2720320040507644E8 ; 0.0
36 ; 1.1742957247626273E7 ; 1.2205805725859318E7 ; 4.03006405219484E8 ; 4.394090061309358E8 ; 0.0
37 ; 1.1754357984380692E7 ; 1.2205805725859318E7 ; 4.147493624671102E8 ; 4.5161481185679513E8 ; 0.0
38 ; 1.1765687876895417E7 ; 1.2205805725859318E7 ; 4.265037204514909E8 ; 4.638206175826545E8 ; 0.0
39 ; 1.1773412012729984E7 ; 1.2205805725859318E7 ; 4.382694083283863E8 ; 4.760264233085138E8 ; 0.0
40 ; 1.1782837438706387E7 ; 1.2205805725859318E7 ; 4.500428203411163E8 ; 4.8823222903437316E8 ; 0.0
41 ; 1.1789661233870363E7 ; 1.2205805725859318E7 ; 4.618256577798227E8 ; 5.004380347602325E8 ; 0.0
42 ; 1.1797455233669378E7 ; 1.2205805725859318E7 ; 4.736153190136931E8 ; 5.1264384048609185E8 ; 0.0
43 ; 1.1806638577725092E7 ; 1.2205805725859318E7 ; 4.854127742473625E8 ; 5.248496462119512E8 ; 0.0
44 ; 1.1811428443846889E7 ; 1.2205805725859318E7 ; 4.972194128250876E8 ; 5.370554519378105E8 ; 0.0
45 ; 1.181957515042303E7 ; 1.2205805725859318E7 ; 5.090308412689345E8 ; 5.492612576636698E8 ; 0.0
46 ; 1.182479428640761E7 ; 1.2205805725859318E7 ; 5.2085041641935754E8 ; 5.614670633895291E8 ; 0.0
47 ; 1.1831087150735503E7 ; 1.2205805725859318E7 ; 5.326752107057651E8 ; 5.736728691153884E8 ; 0.0
48 ; 1.1833954024539743E7 ; 1.2205805725859318E7 ; 5.445062978565006E8 ; 5.858786748412477E8 ; 0.0
49 ; 1.1840439673418064E7 ; 1.2205805725859318E7 ; 5.563402518810403E8 ; 5.98084480567107E8 ; 0.0
50 ; 1.184182466586297E7 ; 1.2205805725859318E7 ; 5.681806915544584E8 ; 6.102902862929662E8 ; 0.0
51 ; 1.184540642486329E7 ; 1.2205805725859318E7 ; 5.800225162203213E8 ; 6.224960920188255E8 ; 0.0
52 ; 1.185066312276853E7 ; 1.2205805725859318E7 ; 5.918679226451846E8 ; 6.347018977446848E8 ; 0.0
53 ; 1.185299475571834E7 ; 1.2205805725859318E7 ; 6.037185857679532E8 ; 6.469077034705441E8 ; 0.0
54 ; 1.1856763737213843E7 ; 1.2205805725859318E7 ; 6.155715805236715E8 ; 6.591135091964034E8 ; 0.0
55 ; 1.1858748767963333E7 ; 1.2205805725859318E7 ; 6.274283442608854E8 ; 6.713193149222627E8 ; 0.0
56 ; 1.1859190328371394E7 ; 1.2205805725859318E7 ; 6.392870930288486E8 ; 6.83525120648122E8 ; 0.0
57 ; 1.1863098879767662E7 ; 1.2205805725859318E7 ; 6.5114628335722E8 ; 6.957309263739812E8 ; 0.0
58 ; 1.1866033816970158E7 ; 1.2205805725859318E7 ; 6.630093822369877E8 ; 7.079367320998405E8 ; 0.0
59 ; 1.1865053940713659E7 ; 1.2205805725859318E7 ; 6.748754160539578E8 ; 7.201425378256998E8 ; 0.0
60 ; 1.1867707660836037E7 ; 1.2205805725859318E7 ; 6.867404699946715E8 ; 7.323483435515591E8 ; 0.0
61 ; 1.187478168134562E7 ; 1.2205805725859318E7 ; 6.986081776555074E8 ; 7.445541492774184E8 ; 0.0
62 ; 1.1872773526193561E7 ; 1.2205805725859318E7 ; 7.10482959336853E8 ; 7.567599550032777E8 ; 0.0
63 ; 1.187642728166729E7 ; 1.2205805725859318E7 ; 7.223557328630466E8 ; 7.68965760729137E8 ; 0.0
64 ; 1.1877885364333171E7 ; 1.2205805725859318E7 ; 7.342321601447139E8 ; 7.811715664549962E8 ; 0.0
65 ; 1.188073747158032E7 ; 1.2205805725859318E7 ; 7.46110045509047E8 ; 7.933773721808555E8 ; 0.0
66 ; 1.1881059717742663E7 ; 1.2205805725859318E7 ; 7.579907829806273E8 ; 8.055831779067148E8 ; 0.0
67 ; 1.188167384667004E7 ; 1.2205805725859318E7 ; 7.6987184269837E8 ; 8.177889836325741E8 ; 0.0
68 ; 1.1882886386991786E7 ; 1.2205805725859318E7 ; 7.8175351654504E8 ; 8.299947893584334E8 ; 0.0
69 ; 1.1885092377754252E7 ; 1.2205805725859318E7 ; 7.936364029320318E8 ; 8.422005950842927E8 ; 0.0
70 ; 1.1888125434718428E7 ; 1.2205805725859318E7 ; 8.05521495309786E8 ; 8.544064008101519E8 ; 0.0
71 ; 1.189027980829818E7 ; 1.2205805725859318E7 ; 8.174096207445043E8 ; 8.666122065360112E8 ; 0.0
72 ; 1.1888339453179395E7 ; 1.2205805725859318E7 ; 8.292999005528026E8 ; 8.788180122618705E8 ; 0.0
73 ; 1.1888167832084721E7 ; 1.2205805725859318E7 ; 8.411882400059819E8 ; 8.910238179877298E8 ; 0.0
74 ; 1.1890852479898214E7 ; 1.2205805725859318E7 ; 8.530764078380667E8 ; 9.032296237135891E8 ; 0.0
75 ; 1.1891067989249505E7 ; 1.2205805725859318E7 ; 8.649672603179649E8 ; 9.154354294394484E8 ; 0.0
76 ; 1.1888968142189458E7 ; 1.2205805725859318E7 ; 8.768583283072144E8 ; 9.276412351653076E8 ; 0.0
77 ; 1.1891153899815401E7 ; 1.2205805725859318E7 ; 8.887472964494039E8 ; 9.398470408911669E8 ; 0.0
78 ; 1.1891111606782837E7 ; 1.2205805725859318E7 ; 9.006384503492193E8 ; 9.520528466170262E8 ; 0.0
79 ; 1.1886101771941876E7 ; 1.2205805725859318E7 ; 9.125295619560021E8 ; 9.642586523428855E8 ; 0.0
80 ; 1.1880943038111497E7 ; 1.2205805725859318E7 ; 9.24415663727944E8 ; 9.764644580687448E8 ; 0.0
81 ; 1.1878119181871718E7 ; 1.2205805725859318E7 ; 9.362966067660555E8 ; 9.886702637946041E8 ; 0.0
82 ; 1.1874608127747266E7 ; 1.2205805725859318E7 ; 9.481747259479272E8 ; 1.0008760695204633E9 ; 0.0
83 ; 1.1870995136903564E7 ; 1.2205805725859318E7 ; 9.600493340756745E8 ; 1.0130818752463226E9 ; 0.0
84 ; 1.186668970248048E7 ; 1.2205805725859318E7 ; 9.71920329212578E8 ; 1.0252876809721819E9 ; 0.0
85 ; 1.1862103837925581E7 ; 1.2205805725859318E7 ; 9.837870189150585E8 ; 1.0374934866980412E9 ; 0.0
86 ; 1.1856179264267394E7 ; 1.2205805725859318E7 ; 9.95649122752984E8 ; 1.0496992924239005E9 ; 0.0
87 ; 1.1852469269793568E7 ; 1.2205805725859318E7 ; 1.0075053020172515E9 ; 1.0619050981497598E9 ; 0.0
88 ; 1.1848751620858375E7 ; 1.2205805725859318E7 ; 1.019357771287045E9 ; 1.0741109038756192E9 ; 0.0
89 ; 1.1842007284853147E7 ; 1.2205805725859318E7 ; 1.0312065229079034E9 ; 1.0863167096014786E9 ; 0.0
90 ; 1.1842463121967552E7 ; 1.2205805725859318E7 ; 1.0430485301927565E9 ; 1.098522515327338E9 ; 0.0
91 ; 1.1835316169167297E7 ; 1.2205805725859318E7 ; 1.0548909933147241E9 ; 1.1107283210531974E9 ; 0.0
92 ; 1.1833062682761783E7 ; 1.2205805725859318E7 ; 1.0667263094838914E9 ; 1.1229341267790568E9 ; 0.0
93 ; 1.1829812824068049E7 ; 1.2205805725859318E7 ; 1.0785593721666532E9 ; 1.1351399325049162E9 ; 0.0
94 ; 1.1820556980684748E7 ; 1.2205805725859318E7 ; 1.0903891849907212E9 ; 1.1473457382307756E9 ; 0.0
95 ; 1.1816481405534618E7 ; 1.2205805725859318E7 ; 1.102209741971406E9 ; 1.159551543956635E9 ; 0.0
96 ; 1.1808904011752248E7 ; 1.2205805725859318E7 ; 1.1140262233769405E9 ; 1.1717573496824944E9 ; 0.0
97 ; 1.1806751945195572E7 ; 1.2205805725859318E7 ; 1.1258351273886929E9 ; 1.1839631554083538E9 ; 0.0
98 ; 1.1800289145523703E7 ; 1.2205805725859318E7 ; 1.1376418793338885E9 ; 1.1961689611342132E9 ; 0.0
99 ; 1.179395339897168E7 ; 1.2205805725859318E7 ; 1.1494421684794123E9 ; 1.2083747668600726E9 ; 0.0
100 ; 1.1786605455136983E7 ; 1.2205805725859318E7 ; 1.161236121878384E9 ; 1.220580572585932E9 ; 0.0
101 ; 1.177943766361328E7 ; 1.2205805725859318E7 ; 1.1730227273335211E9 ; 1.2327863783117914E9 ; 0.0
102 ; 1.1776552765247477E7 ; 1.2205805725859318E7 ; 1.1848021649971344E9 ; 1.2449921840376508E9 ; 0.0
103 ; 1.1763527004852328E7 ; 1.2205805725859318E7 ; 1.196578717762382E9 ; 1.2571979897635102E9 ; 0.0
104 ; 1.1764285662353227E7 ; 1.2205805725859318E7 ; 1.2083422447672343E9 ; 1.2694037954893696E9 ; 0.0
105 ; 1.1751076191912517E7 ; 1.2205805725859318E7 ; 1.2201065304295876E9 ; 1.281609601215229E9 ; 0.0
106 ; 1.1748895560411373E7 ; 1.2205805725859318E7 ; 1.2318576066215E9 ; 1.2938154069410884E9 ; 0.0
107 ; 1.1743289484506983E7 ; 1.2205805725859318E7 ; 1.2436065021819115E9 ; 1.3060212126669478E9 ; 0.0
108 ; 1.1736282248132521E7 ; 1.2205805725859318E7 ; 1.2553497916664186E9 ; 1.3182270183928072E9 ; 0.0
109 ; 1.1728507674864408E7 ; 1.2205805725859318E7 ; 1.267086073914551E9 ; 1.3304328241186666E9 ; 0.0
110 ; 1.1721577835656894E7 ; 1.2205805725859318E7 ; 1.2788145815894153E9 ; 1.342638629844526E9 ; 0.0
111 ; 1.1712312617021544E7 ; 1.2205805725859318E7 ; 1.2905361594250722E9 ; 1.3548444355703855E9 ; 0.0
112 ; 1.1710909705117306E7 ; 1.2205805725859318E7 ; 1.3022484720420938E9 ; 1.3670502412962449E9 ; 0.0
113 ; 1.170206802208822E7 ; 1.2205805725859318E7 ; 1.313959381747211E9 ; 1.3792560470221043E9 ; 0.0
114 ; 1.1697223376261609E7 ; 1.2205805725859318E7 ; 1.3256614497692993E9 ; 1.3914618527479637E9 ; 0.0
115 ; 1.1686769910596767E7 ; 1.2205805725859318E7 ; 1.337358673145561E9 ; 1.403667658473823E9 ; 0.0
116 ; 1.1679654703629658E7 ; 1.2205805725859318E7 ; 1.3490454430561578E9 ; 1.4158734641996825E9 ; 0.0
117 ; 1.1671176176131453E7 ; 1.2205805725859318E7 ; 1.3607250977597876E9 ; 1.4280792699255419E9 ; 0.0
118 ; 1.1664583898463825E7 ; 1.2205805725859318E7 ; 1.372396273935919E9 ; 1.4402850756514013E9 ; 0.0
119 ; 1.1654159772762638E7 ; 1.2205805725859318E7 ; 1.3840608578343828E9 ; 1.4524908813772607E9 ; 0.0
120 ; 1.1645772187090369E7 ; 1.2205805725859318E7 ; 1.3957150176071453E9 ; 1.46469668710312E9 ; 0.0
121 ; 1.1640111273520561E7 ; 1.2205805725859318E7 ; 1.4073607897942357E9 ; 1.4769024928289795E9 ; 0.0
122 ; 1.16290776628619E7 ; 1.2205805725859318E7 ; 1.4190009010677562E9 ; 1.489108298554839E9 ; 0.0
123 ; 1.162279268834912E7 ; 1.2205805725859318E7 ; 1.430629978730618E9 ; 1.5013141042806983E9 ; 0.0
124 ; 1.1613722523792049E7 ; 1.2205805725859318E7 ; 1.442252771418967E9 ; 1.5135199100065577E9 ; 0.0
125 ; 1.1603385967896517E7 ; 1.2205805725859318E7 ; 1.453866493942759E9 ; 1.525725715732417E9 ; 0.0
126 ; 1.159594032454642E7 ; 1.2205805725859318E7 ; 1.4654698799106555E9 ; 1.5379315214582765E9 ; 0.0
127 ; 1.1583974779125495E7 ; 1.2205805725859318E7 ; 1.4770658202352018E9 ; 1.550137327184136E9 ; 0.0
128 ; 1.1579226818334354E7 ; 1.2205805725859318E7 ; 1.4886497950143273E9 ; 1.5623431329099953E9 ; 0.0
129 ; 1.1565691486605633E7 ; 1.2205805725859318E7 ; 1.5002290218326616E9 ; 1.5745489386358547E9 ; 0.0
130 ; 1.1557409307187015E7 ; 1.2205805725859318E7 ; 1.5117947133192673E9 ; 1.5867547443617141E9 ; 0.0
131 ; 1.1545810043054545E7 ; 1.2205805725859318E7 ; 1.5233521226264544E9 ; 1.5989605500875735E9 ; 0.0
132 ; 1.1528253804905314E7 ; 1.2205805725859318E7 ; 1.534897932669509E9 ; 1.611166355813433E9 ; 0.0
133 ; 1.1517528827760752E7 ; 1.2205805725859318E7 ; 1.5464261864744143E9 ; 1.6233721615392923E9 ; 0.0
134 ; 1.1504700269841425E7 ; 1.2205805725859318E7 ; 1.557943715302175E9 ; 1.6355779672651517E9 ; 0.0
135 ; 1.149241323148817E7 ; 1.2205805725859318E7 ; 1.5694484155720165E9 ; 1.6477837729910111E9 ; 0.0
136 ; 1.147827818413024E7 ; 1.2205805725859318E7 ; 1.5809408288035047E9 ; 1.6599895787168705E9 ; 0.0
137 ; 1.1465680244275682E7 ; 1.2205805725859318E7 ; 1.592419106987635E9 ; 1.67219538444273E9 ; 0.0
138 ; 1.1452310096746424E7 ; 1.2205805725859318E7 ; 1.6038847872319105E9 ; 1.6844011901685894E9 ; 0.0
139 ; 1.143819036252401E7 ; 1.2205805725859318E7 ; 1.615337097328657E9 ; 1.6966069958944488E9 ; 0.0
140 ; 1.1422335438045094E7 ; 1.2205805725859318E7 ; 1.626775287691181E9 ; 1.7088128016203082E9 ; 0.0
141 ; 1.1409837643535297E7 ; 1.2205805725859318E7 ; 1.638197623129226E9 ; 1.7210186073461676E9 ; 0.0
142 ; 1.1393513408108573E7 ; 1.2205805725859318E7 ; 1.6496074607727613E9 ; 1.733224413072027E9 ; 0.0
143 ; 1.1379600807781022E7 ; 1.2205805725859318E7 ; 1.6610009741808698E9 ; 1.7454302187978864E9 ; 0.0
144 ; 1.1363701615128333E7 ; 1.2205805725859318E7 ; 1.6723805749886508E9 ; 1.7576360245237458E9 ; 0.0
145 ; 1.1355237250940138E7 ; 1.2205805725859318E7 ; 1.683744276603779E9 ; 1.7698418302496052E9 ; 0.0
146 ; 1.1346136874787098E7 ; 1.2205805725859318E7 ; 1.6950995138547192E9 ; 1.7820476359754646E9 ; 0.0
147 ; 1.13357119759323E7 ; 1.2205805725859318E7 ; 1.7064456507295063E9 ; 1.794253441701324E9 ; 0.0
148 ; 1.132360613880325E7 ; 1.2205805725859318E7 ; 1.7177813627054386E9 ; 1.8064592474271834E9 ; 0.0
149 ; 1.1313385913051112E7 ; 1.2205805725859318E7 ; 1.7291049688442419E9 ; 1.8186650531530428E9 ; 0.0
150 ; 1.1302111777370788E7 ; 1.2205805725859318E7 ; 1.740418354757293E9 ; 1.8308708588789022E9 ; 0.0
151 ; 1.1296159574448768E7 ; 1.2205805725859318E7 ; 1.7517204665346637E9 ; 1.8430766646047616E9 ; 0.0
152 ; 1.128368663618666E7 ; 1.2205805725859318E7 ; 1.7630166261091125E9 ; 1.855282470330621E9 ; 0.0
153 ; 1.1271697778689934E7 ; 1.2205805725859318E7 ; 1.774300312745299E9 ; 1.8674882760564804E9 ; 0.0
154 ; 1.1263267013476687E7 ; 1.2205805725859318E7 ; 1.785572010523989E9 ; 1.8796940817823398E9 ; 0.0
155 ; 1.1254693634943392E7 ; 1.2205805725859318E7 ; 1.7968352775374656E9 ; 1.8918998875081992E9 ; 0.0
156 ; 1.1247983007257605E7 ; 1.2205805725859318E7 ; 1.808089971172409E9 ; 1.9041056932340586E9 ; 0.0
157 ; 1.1232252254098654E7 ; 1.2205805725859318E7 ; 1.8193379541796668E9 ; 1.916311498959918E9 ; 0.0
158 ; 1.122317209814934E7 ; 1.2205805725859318E7 ; 1.8305702064337654E9 ; 1.9285173046857774E9 ; 0.0
159 ; 1.1208651044877416E7 ; 1.2205805725859318E7 ; 1.8417933785319147E9 ; 1.9407231104116368E9 ; 0.0
160 ; 1.1200949263023058E7 ; 1.2205805725859318E7 ; 1.8530020295767922E9 ; 1.9529289161374962E9 ; 0.0
161 ; 1.119020750895052E7 ; 1.2205805725859318E7 ; 1.8642029788398154E9 ; 1.9651347218633556E9 ; 0.0
162 ; 1.117921999783759E7 ; 1.2205805725859318E7 ; 1.8753931863487659E9 ; 1.977340527589215E9 ; 0.0
163 ; 1.1169127789757365E7 ; 1.2205805725859318E7 ; 1.8865724063466034E9 ; 1.9895463333150744E9 ; 0.0
164 ; 1.115827430385004E7 ; 1.2205805725859318E7 ; 1.8977415341363606E9 ; 2.0017521390409338E9 ; 0.0
165 ; 1.114488570360578E7 ; 1.2205805725859318E7 ; 1.9088998084402106E9 ; 2.0139579447667933E9 ; 0.0
166 ; 1.1136967720437665E7 ; 1.2205805725859318E7 ; 1.9200446941438165E9 ; 2.0261637504926527E9 ; 0.0
167 ; 1.1125215347774884E7 ; 1.2205805725859318E7 ; 1.9311816618642542E9 ; 2.038369556218512E9 ; 0.0
168 ; 1.1113413922284434E7 ; 1.2205805725859318E7 ; 1.9423068772120292E9 ; 2.0505753619443715E9 ; 0.0
169 ; 1.1099535791060757E7 ; 1.2205805725859318E7 ; 1.9534202911343136E9 ; 2.0627811676702309E9 ; 0.0
170 ; 1.108647126565912E7 ; 1.2205805725859318E7 ; 1.9645198269253743E9 ; 2.0749869733960903E9 ; 0.0
171 ; 1.1080769466197126E7 ; 1.2205805725859318E7 ; 1.9756062981910334E9 ; 2.0871927791219497E9 ; 0.0
172 ; 1.1066549965350604E7 ; 1.2205805725859318E7 ; 1.9866870676572304E9 ; 2.099398584847809E9 ; 0.0
173 ; 1.1056414689326404E7 ; 1.2205805725859318E7 ; 1.997753617622581E9 ; 2.1116043905736685E9 ; 0.0
174 ; 1.105099906240908E7 ; 1.2205805725859318E7 ; 2.0088100323119073E9 ; 2.123810196299528E9 ; 0.0
175 ; 1.1045542482815605E7 ; 1.2205805725859318E7 ; 2.0198610313743165E9 ; 2.1360160020253873E9 ; 0.0
176 ; 1.1032298324531458E7 ; 1.2205805725859318E7 ; 2.030906573857132E9 ; 2.1482218077512465E9 ; 0.0
177 ; 1.1029628682688762E7 ; 1.2205805725859318E7 ; 2.0419388721816635E9 ; 2.1604276134771056E9 ; 0.0
178 ; 1.102333707326716E7 ; 1.2205805725859318E7 ; 2.0529685008643522E9 ; 2.172633419202965E9 ; 0.0
179 ; 1.1012999434598727E7 ; 1.2205805725859318E7 ; 2.0639918379376194E9 ; 2.184839224928824E9 ; 0.0
180 ; 1.100980336412559E7 ; 1.2205805725859318E7 ; 2.0750048373722181E9 ; 2.197045030654683E9 ; 0.0
181 ; 1.0999159935192963E7 ; 1.2205805725859318E7 ; 2.0860146407363436E9 ; 2.2092508363805423E9 ; 0.0
182 ; 1.0995310643339192E7 ; 1.2205805725859318E7 ; 2.0970138006715367E9 ; 2.2214566421064014E9 ; 0.0
183 ; 1.0989860959068667E7 ; 1.2205805725859318E7 ; 2.1080091113148758E9 ; 2.2336624478322606E9 ; 0.0
184 ; 1.0980978789450925E7 ; 1.2205805725859318E7 ; 2.1189989722739446E9 ; 2.24586825355812E9 ; 0.0
185 ; 1.0971396350283002E7 ; 1.2205805725859318E7 ; 2.1299799510633955E9 ; 2.258074059283979E9 ; 0.0
186 ; 1.0967046054719437E7 ; 1.2205805725859318E7 ; 2.1409513474136784E9 ; 2.270279865009838E9 ; 0.0
187 ; 1.096109771345862E7 ; 1.2205805725859318E7 ; 2.1519183934683976E9 ; 2.2824856707356973E9 ; 0.0
188 ; 1.095402260271561E7 ; 1.2205805725859318E7 ; 2.162879491181856E9 ; 2.2946914764615564E9 ; 0.0
189 ; 1.0946085372324526E7 ; 1.2205805725859318E7 ; 2.1738335137845716E9 ; 2.3068972821874156E9 ; 0.0
190 ; 1.0937514362894258E7 ; 1.2205805725859318E7 ; 2.184779599156896E9 ; 2.319103087913275E9 ; 0.0
191 ; 1.0929871632073628E7 ; 1.2205805725859318E7 ; 2.19571711351979E9 ; 2.331308893639134E9 ; 0.0
192 ; 1.092770739198967E7 ; 1.2205805725859318E7 ; 2.2066469851518636E9 ; 2.343514699364993E9 ; 0.0
193 ; 1.0915499875385478E7 ; 1.2205805725859318E7 ; 2.2175746925438533E9 ; 2.3557205050908523E9 ; 0.0
194 ; 1.0912176628258184E7 ; 1.2205805725859318E7 ; 2.2284901924192386E9 ; 2.3679263108167114E9 ; 0.0
195 ; 1.090680969764701E7 ; 1.2205805725859318E7 ; 2.239402369047497E9 ; 2.3801321165425706E9 ; 0.0
196 ; 1.0896833754734056E7 ; 1.2205805725859318E7 ; 2.250309178745144E9 ; 2.3923379222684298E9 ; 0.0
