CSV File for the City 1 on Day 104
1 - Minute m 
2 - Power Consumed at minute m 
3 - Power Produced at minute m 
4 - Energy Consumed since the beginning of the day 
5 - Energy Produced since the beginning of the day 
6 - Energy Lost since the beginning of the day on lines starting from the city
 
0 ; 1.6141997505735347E7 ; 1.0555233520976612E8 ; 0.0 ; 0.0 ; 0.0
1 ; 1.616273726977369E7 ; 1.057052902751174E8 ; 1.6141997505735347E7 ; 1.0555233520976612E8 ; 0.0
2 ; 1.6179317668419318E7 ; 1.0616702674456713E8 ; 3.2304734775509037E7 ; 2.1125762548488352E8 ; 0.0
3 ; 1.6197871059153529E7 ; 1.0693754603649795E8 ; 4.848405244392835E7 ; 3.1742465222945064E8 ; 0.0
4 ; 1.622221013583714E7 ; 1.0801684942118382E8 ; 6.468192350308188E7 ; 4.243621982659486E8 ; 0.0
5 ; 1.6252944790194247E7 ; 1.0940493801404029E8 ; 8.090413363891903E7 ; 5.323790476871324E8 ; 0.0
6 ; 1.6290592305148318E7 ; 1.1110181276958814E8 ; 9.715707842911327E7 ; 6.417839857011727E8 ; 0.0
7 ; 1.634467542983687E7 ; 1.1310747447620809E8 ; 1.1344767073426159E8 ; 7.528857984707608E8 ; 0.0
8 ; 1.6423800764510583E7 ; 1.1542192375175083E8 ; 1.2979234616409846E8 ; 8.659932729469689E8 ; 0.0
9 ; 1.6545473814539585E7 ; 1.180451610400616E8 ; 1.4621614692860904E8 ; 9.814151966987197E8 ; 0.0
10 ; 1.672212697197268E7 ; 1.2097718660846353E8 ; 1.6276162074314862E8 ; 1.0994603577387815E9 ; 0.0
11 ; 1.700995579220005E7 ; 1.2421800054623446E8 ; 1.794837477151213E8 ; 1.220437544347245E9 ; 0.0
12 ; 1.7474622006406885E7 ; 1.2776760276409653E8 ; 1.9649370350732136E8 ; 1.3446555448934793E9 ; 0.0
13 ; 1.7921027241115082E7 ; 1.316259929947266E8 ; 2.1396832551372823E8 ; 1.4724231476575758E9 ; 0.0
14 ; 1.7976161847934484E7 ; 1.3579317079427952E8 ; 2.3188935275484332E8 ; 1.6040491406523025E9 ; 0.0
15 ; 1.7994065308244284E7 ; 1.4026913554490447E8 ; 2.498655146027778E8 ; 1.739842311446582E9 ; 0.0
16 ; 1.8013204634498976E7 ; 1.4505388645822087E8 ; 2.678595799110221E8 ; 1.8801114469914865E9 ; 0.0
17 ; 1.8039909115576155E7 ; 1.5014742257970783E8 ; 2.858727845455211E8 ; 2.0251653334497075E9 ; 0.0
18 ; 1.806299935673709E7 ; 1.5554974279394984E8 ; 3.039126936610972E8 ; 2.175312756029415E9 ; 0.0
19 ; 1.8082536173702214E7 ; 1.6126084583067295E8 ; 3.219756930178343E8 ; 2.330862498823365E9 ; 0.0
20 ; 1.810471225462347E7 ; 1.6728073027149448E8 ; 3.4005822919153655E8 ; 2.492123344654038E9 ; 0.0
21 ; 1.8128819990933914E7 ; 1.7360939455730602E8 ; 3.5816294144616E8 ; 2.6594040749255323E9 ; 0.0
22 ; 1.815096592145037E7 ; 1.8024683699620152E8 ; 3.762917614370939E8 ; 2.833013469482838E9 ; 0.0
23 ; 1.817119622744361E7 ; 1.8719305577186072E8 ; 3.944427273585443E8 ; 3.0132603064790397E9 ; 0.0
24 ; 1.8190476016212445E7 ; 1.944480489522962E8 ; 4.126139235859879E8 ; 3.2004533622509003E9 ; 0.0
25 ; 1.8214923690709326E7 ; 2.0069985539705572E8 ; 4.308043996022004E8 ; 3.3949014112031965E9 ; 0.0
26 ; 1.8231580537170384E7 ; 2.0070202080331928E8 ; 4.4901932329290974E8 ; 3.595601266600252E9 ; 0.0
27 ; 1.8250949679291077E7 ; 2.007043122400987E8 ; 4.6725090383008015E8 ; 3.7963032874035716E9 ; 0.0
28 ; 1.8272653941905838E7 ; 2.0070672740431958E8 ; 4.855018535093712E8 ; 3.99700759964367E9 ; 0.0
29 ; 1.82971906207416E7 ; 2.0070926392331162E8 ; 5.037745074512771E8 ; 4.19771432704799E9 ; 0.0
30 ; 1.8317931560201928E7 ; 2.0071191936391935E8 ; 5.220716980720187E8 ; 4.398423590971301E9 ; 0.0
31 ; 1.8340255631767508E7 ; 2.0071469124141344E8 ; 5.403896296322206E8 ; 4.59913551033522E9 ; 0.0
32 ; 1.835939312610655E7 ; 2.0071757702814665E8 ; 5.587298852639881E8 ; 4.799850201576633E9 ; 0.0
33 ; 1.8374823429550383E7 ; 2.0072057416190434E8 ; 5.770892783900946E8 ; 5.00056777860478E9 ; 0.0
34 ; 1.839386417795788E7 ; 2.0072368005390838E8 ; 5.95464101819645E8 ; 5.201288352766685E9 ; 0.0
35 ; 1.841710131840815E7 ; 2.007268920964399E8 ; 6.138579659976029E8 ; 5.402012032820593E9 ; 0.0
36 ; 1.8429720266327895E7 ; 2.0073020767005318E8 ; 6.322750673160111E8 ; 5.602738924917033E9 ; 0.0
37 ; 1.845024569307585E7 ; 2.0073362415036148E8 ; 6.507047875823389E8 ; 5.803469132587087E9 ; 0.0
38 ; 1.846092982957618E7 ; 2.0073713891437966E8 ; 6.691550332754148E8 ; 6.004202756737448E9 ; 0.0
39 ; 1.847851642172269E7 ; 2.0074074934641644E8 ; 6.87615963104991E8 ; 6.204939895651828E9 ; 0.0
40 ; 1.8492114648842696E7 ; 2.0074445284351355E8 ; 7.060944795267136E8 ; 6.405680644998244E9 ; 0.0
41 ; 1.8507100441211633E7 ; 2.007482468204335E8 ; 7.245865941755563E8 ; 6.606425097841758E9 ; 0.0
42 ; 1.852474758098335E7 ; 2.0075212871420282E8 ; 7.430936946167679E8 ; 6.807173344662191E9 ; 0.0
43 ; 1.8534778087486196E7 ; 2.0075609598822075E8 ; 7.616184421977513E8 ; 7.007925473376394E9 ; 0.0
44 ; 1.85428418470596E7 ; 2.0076014613594595E8 ; 7.801532202852374E8 ; 7.208681569364615E9 ; 0.0
45 ; 1.8559470862528224E7 ; 2.007642766841775E8 ; 7.98696062132297E8 ; 7.409441715500562E9 ; 0.0
46 ; 1.856727129925109E7 ; 2.0076848519594726E8 ; 8.172555329948252E8 ; 7.610205992184739E9 ; 0.0
47 ; 1.857643806974971E7 ; 2.007727692730431E8 ; 8.358228042940763E8 ; 7.810974477380687E9 ; 0.0
48 ; 1.859090350222898E7 ; 2.0077712655818275E8 ; 8.54399242363826E8 ; 8.011747246653729E9 ; 0.0
49 ; 1.8594244716025256E7 ; 2.007815547368599E8 ; 8.72990145866055E8 ; 8.212524373211912E9 ; 0.0
50 ; 1.8604117069626372E7 ; 2.007860515388835E8 ; 8.915843905820802E8 ; 8.413305927948772E9 ; 0.0
51 ; 1.860580744508103E7 ; 2.0079061473963198E8 ; 9.101885076517066E8 ; 8.614091979487656E9 ; 0.0
52 ; 1.861514233763082E7 ; 2.0079524216104317E8 ; 9.287943150967876E8 ; 8.814882594227287E9 ; 0.0
53 ; 1.8628096417824503E7 ; 2.00799931672362E8 ; 9.474094574344184E8 ; 9.01567783638833E9 ; 0.0
54 ; 1.8630351103600543E7 ; 2.0080468119066504E8 ; 9.66037553852243E8 ; 9.216477768060692E9 ; 0.0
55 ; 1.863601987740123E7 ; 2.008094886811827E8 ; 9.846679049558434E8 ; 9.417282449251356E9 ; 0.0
56 ; 1.8639858913441923E7 ; 2.008143521574375E8 ; 1.0033039248332447E9 ; 9.618091937932539E9 ; 0.0
57 ; 1.8645066133151725E7 ; 2.008192696812163E8 ; 1.0219437837466866E9 ; 9.818906290089977E9 ; 0.0
58 ; 1.8651089752879236E7 ; 2.0082423936239412E8 ; 1.0405888498798383E9 ; 1.0019725559771194E10 ; 0.0
59 ; 1.8656859695534285E7 ; 2.0082925935862535E8 ; 1.0592399396327176E9 ; 1.0220549799133589E10 ; 0.0
60 ; 1.8661703683427367E7 ; 2.0083432787491715E8 ; 1.0778967993282518E9 ; 1.0421379058492214E10 ; 0.0
61 ; 1.8668111647369277E7 ; 2.008394431631E8 ; 1.0965585030116792E9 ; 1.0622213386367132E10 ; 0.0
62 ; 1.8674907044638943E7 ; 2.0084460352120754E8 ; 1.1152266146590486E9 ; 1.0823052829530231E10 ; 0.0
63 ; 1.8679093228418756E7 ; 2.0084980729277846E8 ; 1.1339015217036874E9 ; 1.102389743305144E10 ; 0.0
64 ; 1.868263062417656E7 ; 2.008550528660915E8 ; 1.1525806149321063E9 ; 1.1224747240344217E10 ; 0.0
65 ; 1.8685012820957262E7 ; 2.008603386733435E8 ; 1.1712632455562828E9 ; 1.1425602293210308E10 ; 0.0
66 ; 1.8687537284706343E7 ; 2.008656631897804E8 ; 1.18994825837724E9 ; 1.1626462631883652E10 ; 0.0
67 ; 1.86941558737635E7 ; 2.0087102493278912E8 ; 1.2086357956619463E9 ; 1.1827328295073433E10 ; 0.0
68 ; 1.869675448689811E7 ; 2.008764224609586E8 ; 1.2273299515357099E9 ; 1.2028199320006222E10 ; 0.0
69 ; 1.8703516782731783E7 ; 2.008818543731166E8 ; 1.246026706022608E9 ; 1.222907574246718E10 ; 0.0
70 ; 1.8706748649037883E7 ; 2.008873193073489E8 ; 1.2647302228053398E9 ; 1.2429957596840298E10 ; 0.0
71 ; 1.8706589376399055E7 ; 2.0089281594000608E8 ; 1.2834369714543777E9 ; 1.2630844916147646E10 ; 0.0
72 ; 1.8710836985919792E7 ; 2.0089834298470336E8 ; 1.3021435608307767E9 ; 1.2831737732087652E10 ; 0.0
73 ; 1.87145955425336E7 ; 2.0090389919131783E8 ; 1.3208543978166964E9 ; 1.3032636075072355E10 ; 0.0
74 ; 1.8718504244006004E7 ; 2.0090948334498692E8 ; 1.33956899335923E9 ; 1.3233539974263674E10 ; 0.0
75 ; 1.872120208255967E7 ; 2.009150942651116E8 ; 1.358287497603236E9 ; 1.3434449457608662E10 ; 0.0
76 ; 1.8723536891361494E7 ; 2.0092073080436745E8 ; 1.3770086996857955E9 ; 1.3635364551873774E10 ; 0.0
77 ; 1.8729796131768264E7 ; 2.0092639184772643E8 ; 1.395732236577157E9 ; 1.383628528267814E10 ; 0.0
78 ; 1.8725491421487566E7 ; 2.0093207631149095E8 ; 1.4144620327089252E9 ; 1.4037211674525867E10 ; 0.0
79 ; 1.8726483375630926E7 ; 2.0093778314234316E8 ; 1.4331875241304128E9 ; 1.4238143750837358E10 ; 0.0
80 ; 1.871801645111431E7 ; 2.0094351131641024E8 ; 1.4519140075060437E9 ; 1.4439081533979702E10 ; 0.0
81 ; 1.871179862114557E7 ; 2.0094925983834752E8 ; 1.470632023957158E9 ; 1.4640025045296112E10 ; 0.0
82 ; 1.8707716838771023E7 ; 2.009550277404408E8 ; 1.4893438225783036E9 ; 1.484097430513446E10 ; 0.0
83 ; 1.8705656271173198E7 ; 2.009608140817279E8 ; 1.5080515394170747E9 ; 1.50419293328749E10 ; 0.0
84 ; 1.8700947732883725E7 ; 2.009666179471415E8 ; 1.526757195688248E9 ; 1.5242890146956629E10 ; 0.0
85 ; 1.8697774725827985E7 ; 2.009724384466725E8 ; 1.5454581434211316E9 ; 1.544385676490377E10 ; 0.0
86 ; 1.8694157612975802E7 ; 2.0097827471455508E8 ; 1.5641559181469595E9 ; 1.5644829203350443E10 ; 0.0
87 ; 1.8692773332152344E7 ; 2.0098412590847388E8 ; 1.5828500757599354E9 ; 1.5845807478064999E10 ; 0.0
88 ; 1.868563628796402E7 ; 2.0098999120879257E8 ; 1.6015428490920877E9 ; 1.6046791603973473E10 ; 0.0
89 ; 1.8680742962351784E7 ; 2.0099586981780484E8 ; 1.6202284853800519E9 ; 1.6247781595182264E10 ; 0.0
90 ; 1.8674257938058127E7 ; 2.0100176095900723E8 ; 1.6389092283424037E9 ; 1.6448777465000069E10 ; 0.0
91 ; 1.8669388652925007E7 ; 2.010076638763936E8 ; 1.6575834862804618E9 ; 1.6649779225959076E10 ; 0.0
92 ; 1.866277100887228E7 ; 2.0101357783377147E8 ; 1.6762528749333868E9 ; 1.685078688983547E10 ; 0.0
93 ; 1.8657374488903258E7 ; 2.010195021140996E8 ; 1.694915645942259E9 ; 1.705180046766924E10 ; 0.0
94 ; 1.8652891705946315E7 ; 2.010254360188465E8 ; 1.7135730204311624E9 ; 1.725281996978334E10 ; 0.0
95 ; 1.8646609653309632E7 ; 2.0103137886737007E8 ; 1.7322259121371086E9 ; 1.7453845405802185E10 ; 0.0
96 ; 1.864212617919326E7 ; 2.0103732999631685E8 ; 1.7508725217904181E9 ; 1.7654876784669556E10 ; 0.0
97 ; 1.8637354832494024E7 ; 2.0104328875904188E8 ; 1.7695146479696114E9 ; 1.785591411466587E10 ; 0.0
98 ; 1.8634287001251973E7 ; 2.010492545250477E8 ; 1.7881520028021054E9 ; 1.805695740342491E10 ; 0.0
99 ; 1.8624514823412668E7 ; 2.0105522667944217E8 ; 1.8067862898033574E9 ; 1.825800665794996E10 ; 0.0
100 ; 1.8619941498835914E7 ; 2.0106120462241527E8 ; 1.82541080462677E9 ; 1.8459061884629402E10 ; 0.0
101 ; 1.861031068456623E7 ; 2.0106718776873353E8 ; 1.8440307461256058E9 ; 1.8660123089251816E10 ; 0.0
102 ; 1.860159882812469E7 ; 2.010731755472522E8 ; 1.862641056810172E9 ; 1.886119027702055E10 ; 0.0
103 ; 1.8597915369053766E7 ; 2.0107916740044457E8 ; 1.8812426556382968E9 ; 1.9062263452567802E10 ; 0.0
104 ; 1.8590278303153522E7 ; 2.010851627839475E8 ; 1.8998405710073507E9 ; 1.9263342619968246E10 ; 0.0
105 ; 1.858172383073584E7 ; 2.010911611661235E8 ; 1.9184308493105042E9 ; 1.9464427782752193E10 ; 0.0
106 ; 1.857713149484849E7 ; 2.0109716202763793E8 ; 1.9370125731412401E9 ; 1.9665518943918316E10 ; 0.0
107 ; 1.8569863773702707E7 ; 2.011031648610516E8 ; 1.9555897046360886E9 ; 1.9866616105945953E10 ; 0.0
108 ; 1.8560560580617342E7 ; 2.0110916917042765E8 ; 1.9741595684097912E9 ; 2.0067719270807007E10 ; 0.0
109 ; 1.855382878586816E7 ; 2.0111517447095302E8 ; 1.9927201289904087E9 ; 2.0268828439977436E10 ; 0.0
110 ; 1.854182959726072E7 ; 2.0112118028857306E8 ; 2.0112739577762768E9 ; 2.046994361444839E10 ; 0.0
111 ; 1.8535900627646826E7 ; 2.0112718615963954E8 ; 2.0298157873735375E9 ; 2.0671064794736965E10 ; 0.0
112 ; 1.8529291853329606E7 ; 2.0113319163057157E8 ; 2.0483516880011845E9 ; 2.0872191980896606E10 ; 0.0
113 ; 1.8521288114947617E7 ; 2.011391962575285E8 ; 2.0668809798545141E9 ; 2.107332517252718E10 ; 0.0
114 ; 1.8511785210169863E7 ; 2.01145199606095E8 ; 2.0854022679694617E9 ; 2.127446436878471E10 ; 0.0
115 ; 1.849792281479088E7 ; 2.011512012509772E8 ; 2.1039140531796315E9 ; 2.1475609568390804E10 ; 0.0
116 ; 1.849020911263255E7 ; 2.0115720077571037E8 ; 2.1224119759944224E9 ; 2.167676076964178E10 ; 0.0
117 ; 1.8482009741270337E7 ; 2.0116319777237687E8 ; 2.140902185107055E9 ; 2.1877917970417492E10 ; 0.0
118 ; 1.8474878719743352E7 ; 2.011691918413344E8 ; 2.1593841948483253E9 ; 2.207908116818987E10 ; 0.0
119 ; 1.846098329184428E7 ; 2.011751825909544E8 ; 2.1778590735680685E9 ; 2.2280250360031204E10 ; 0.0
120 ; 1.8453532775888644E7 ; 2.0118116963736954E8 ; 2.196320056859913E9 ; 2.2481425542622158E10 ; 0.0
121 ; 1.8447808762261987E7 ; 2.0118715260423097E8 ; 2.2147735896358013E9 ; 2.268260671225953E10 ; 0.0
122 ; 1.843528571448015E7 ; 2.0119313112247384E8 ; 2.233221398398063E9 ; 2.288379386486376E10 ; 0.0
123 ; 1.8423663247225393E7 ; 2.0119910483009163E8 ; 2.251656684112543E9 ; 2.3084986995986237E10 ; 0.0
124 ; 1.841286106854992E7 ; 2.0120507337191868E8 ; 2.2700803473597684E9 ; 2.328618610081633E10 ; 0.0
125 ; 1.8402900427168835E7 ; 2.012110363994205E8 ; 2.2884932084283185E9 ; 2.3487391174188248E10 ; 0.0
126 ; 1.8394184486425303E7 ; 2.0121699357049182E8 ; 2.3068961088554873E9 ; 2.368860221058767E10 ; 0.0
127 ; 1.838180338388301E7 ; 2.0122294454926172E8 ; 2.3252902933419127E9 ; 2.388981920415816E10 ; 0.0
128 ; 1.837249232352988E7 ; 2.0122888900590605E8 ; 2.3436720967257957E9 ; 2.4091042148707424E10 ; 0.0
129 ; 1.835846196603525E7 ; 2.012348266164665E8 ; 2.3620445890493255E9 ; 2.429227103771333E10 ; 0.0
130 ; 1.834474499117198E7 ; 2.012407570626761E8 ; 2.380403051015361E9 ; 2.4493505864329796E10 ; 0.0
131 ; 1.8332561436830427E7 ; 2.0124668003179127E8 ; 2.3987477960065327E9 ; 2.469474662139247E10 ; 0.0
132 ; 1.8311164438140534E7 ; 2.0125259521642953E8 ; 2.417080357443363E9 ; 2.4895993301424263E10 ; 0.0
133 ; 1.8298805899479553E7 ; 2.012585023144134E8 ; 2.4353915218815036E9 ; 2.5097245896640694E10 ; 0.0
134 ; 1.8273726562969588E7 ; 2.0126440102861953E8 ; 2.453690327780983E9 ; 2.529850439895511E10 ; 0.0
135 ; 1.8260154803399395E7 ; 2.0127029106683347E8 ; 2.4719640543439527E9 ; 2.5499768799983727E10 ; 0.0
136 ; 1.823542913413674E7 ; 2.0127617214160952E8 ; 2.490224209147352E9 ; 2.570103909105056E10 ; 0.0
137 ; 1.822533730990098E7 ; 2.0128204397013554E8 ; 2.508459638281489E9 ; 2.590231526319217E10 ; 0.0
138 ; 1.820689628990689E7 ; 2.0128790627410257E8 ; 2.5266849755913897E9 ; 2.6103597307162304E10 ; 0.0
139 ; 1.818840434446742E7 ; 2.0129375877957907E8 ; 2.5448918718812966E9 ; 2.6304885213436405E10 ; 0.0
140 ; 1.8167460722281415E7 ; 2.0129960121688962E8 ; 2.5630802762257643E9 ; 2.6506178972215984E10 ; 0.0
141 ; 1.815199431025517E7 ; 2.013054333204978E8 ; 2.5812477369480457E9 ; 2.6707478573432873E10 ; 0.0
142 ; 1.8131246715786885E7 ; 2.0131125482889333E8 ; 2.599399731258301E9 ; 2.6908784006753372E10 ; 0.0
143 ; 1.8114953994972493E7 ; 2.013170654844829E8 ; 2.6175309779740877E9 ; 2.7110095261582264E10 ; 0.0
144 ; 1.809636579081322E7 ; 2.0132286503348523E8 ; 2.6356459319690604E9 ; 2.7311412327066746E10 ; 0.0
145 ; 1.8081021673247073E7 ; 2.013286532258293E8 ; 2.653742297759874E9 ; 2.751273519210023E10 ; 0.0
146 ; 1.8075122731337726E7 ; 2.0133442981505656E8 ; 2.6718233194331207E9 ; 2.771406384532606E10 ; 0.0
147 ; 1.805957343811635E7 ; 2.013401945582262E8 ; 2.6898984421644583E9 ; 2.7915398275141117E10 ; 0.0
148 ; 1.8046666720658664E7 ; 2.0134594721582383E8 ; 2.707958015602575E9 ; 2.8116738469699345E10 ; 0.0
149 ; 1.8033837336268257E7 ; 2.013516875516734E8 ; 2.7260046823232336E9 ; 2.831808441691517E10 ; 0.0
150 ; 1.8020922871184055E7 ; 2.0135741533285195E8 ; 2.744038519659502E9 ; 2.8519436104466843E10 ; 0.0
151 ; 1.8009320894650344E7 ; 2.0136313032960737E8 ; 2.762059442530686E9 ; 2.8720793519799694E10 ; 0.0
152 ; 1.8002446514109354E7 ; 2.0136883231527907E8 ; 2.7800687634253364E9 ; 2.8922156650129303E10 ; 0.0
153 ; 1.7984453648614734E7 ; 2.0137452106622118E8 ; 2.7980712099394455E9 ; 2.9123525482444584E10 ; 0.0
154 ; 1.7976563188511875E7 ; 2.0138019636172855E8 ; 2.8160556635880604E9 ; 2.9324900003510803E10 ; 0.0
155 ; 1.796181956370426E7 ; 2.01385857983965E8 ; 2.834032226776572E9 ; 2.952628019987253E10 ; 0.0
156 ; 1.794987666064682E7 ; 2.0139150571789432E8 ; 2.8519940463402767E9 ; 2.97276660578565E10 ; 0.0
157 ; 1.793429906683833E7 ; 2.013971393512133E8 ; 2.8699439230009236E9 ; 2.9929057563574394E10 ; 0.0
158 ; 1.792434676101985E7 ; 2.014027586742873E8 ; 2.887878222067762E9 ; 3.0130454702925606E10 ; 0.0
159 ; 1.7908383134427745E7 ; 2.0140836348008755E8 ; 2.9058025688287816E9 ; 3.033185746159989E10 ; 0.0
160 ; 1.7896697111013267E7 ; 2.0141395356413117E8 ; 2.923710951963209E9 ; 3.053326582507998E10 ; 0.0
161 ; 1.7884384609553915E7 ; 2.014195287244225E8 ; 2.9416076490742226E9 ; 3.073467977864411E10 ; 0.0
162 ; 1.7870974935415644E7 ; 2.01425088761397E8 ; 2.9594920336837764E9 ; 3.0936099307368534E10 ; 0.0
163 ; 1.7857271952148348E7 ; 2.0143063347786656E8 ; 2.977363008619192E9 ; 3.1137524396129932E10 ; 0.0
164 ; 1.784778386439847E7 ; 2.014361626789668E8 ; 2.9952202805713406E9 ; 3.13389550296078E10 ; 0.0
165 ; 1.7831795894859053E7 ; 2.0144167617210612E8 ; 3.013068064435739E9 ; 3.1540391192286766E10 ; 0.0
166 ; 1.782430238408775E7 ; 2.014471737669165E8 ; 3.030899860330598E9 ; 3.1741832868458874E10 ; 0.0
167 ; 1.7807770752710544E7 ; 2.014526552752057E8 ; 3.0487241627146854E9 ; 3.1943280042225792E10 ; 0.0
168 ; 1.7794712776685793E7 ; 2.0145812051091108E8 ; 3.066531933467396E9 ; 3.2144732697501E10 ; 0.0
169 ; 1.7781519279445846E7 ; 2.0146356929005513E8 ; 3.0843266462440815E9 ; 3.234619081801191E10 ; 0.0
170 ; 1.7765350637734383E7 ; 2.0146900143070224E8 ; 3.102108165523527E9 ; 3.2547654387301964E10 ; 0.0
171 ; 1.7758389134801377E7 ; 2.0147441675291696E8 ; 3.1198735161612616E9 ; 3.2749123388732666E10 ; 0.0
172 ; 1.773873539610345E7 ; 2.014798150787235E8 ; 3.137631905296063E9 ; 3.2950597805485584E10 ; 0.0
173 ; 1.772837922140918E7 ; 2.0148519623206666E8 ; 3.1553706406921663E9 ; 3.315207762056431E10 ; 0.0
174 ; 1.771926332065638E7 ; 2.0149056003877413E8 ; 3.1730990199135756E9 ; 3.3353562816796375E10 ; 0.0
175 ; 1.7708227968852926E7 ; 2.0149590632651958E8 ; 3.190818283234232E9 ; 3.3555053376835148E10 ; 0.0
176 ; 1.770028912486487E7 ; 2.0150123492478743E8 ; 3.208526511203085E9 ; 3.3756549283161667E10 ; 0.0
177 ; 1.7690504721246623E7 ; 2.0150654566483834E8 ; 3.22622680032795E9 ; 3.3958050518086452E10 ; 0.0
178 ; 1.768657130367744E7 ; 2.0151183837967613E8 ; 3.2439173050491967E9 ; 3.415955706375129E10 ; 0.0
179 ; 1.7678281236883003E7 ; 2.015171129040155E8 ; 3.2616038763528743E9 ; 3.436106890213097E10 ; 0.0
180 ; 1.766934516809339E7 ; 2.015223690742509E8 ; 3.2792821575897574E9 ; 3.456258601503498E10 ; 0.0
181 ; 1.765784204635694E7 ; 2.0152760672842643E8 ; 3.2969515027578506E9 ; 3.476410838410923E10 ; 0.0
182 ; 1.765114799930111E7 ; 2.0153282570620638E8 ; 3.314609344804208E9 ; 3.4965635990837654E10 ; 0.0
183 ; 1.764357654659423E7 ; 2.015380258488472E8 ; 3.3322604928035088E9 ; 3.516716881654386E10 ; 0.0
184 ; 1.7634843796915263E7 ; 2.0154320699917E8 ; 3.349904069350103E9 ; 3.536870684239271E10 ; 0.0
185 ; 1.762646186170037E7 ; 2.0154836900153393E8 ; 3.367538913147018E9 ; 3.557025004939188E10 ; 0.0
186 ; 1.7615286558006022E7 ; 2.0155351170181042E8 ; 3.3851653750087185E9 ; 3.577179841839341E10 ; 0.0
187 ; 1.7614232748113703E7 ; 2.015586349473585E8 ; 3.4027806615667243E9 ; 3.597335193009522E10 ; 0.0
188 ; 1.7603227820363782E7 ; 2.0156373858700028E8 ; 3.420394894314838E9 ; 3.617491056504258E10 ; 0.0
189 ; 1.759055316797415E7 ; 2.015688224709979E8 ; 3.437998122135202E9 ; 3.637647430362958E10 ; 0.0
190 ; 1.7586448704828836E7 ; 2.015738864510307E8 ; 3.455588675303176E9 ; 3.657804312610058E10 ; 0.0
191 ; 1.7572603355340365E7 ; 2.015789303801732E8 ; 3.4731751240080047E9 ; 3.6779617012551605E10 ; 0.0
192 ; 1.7565587827523813E7 ; 2.0158395411287388E8 ; 3.490747727363345E9 ; 3.698119594293178E10 ; 0.0
193 ; 1.755873953247857E7 ; 2.0158895750493455E8 ; 3.508313315190869E9 ; 3.7182779897044655E10 ; 0.0
194 ; 1.7553478750171024E7 ; 2.0159394041349033E8 ; 3.5258720547233477E9 ; 3.738436885454959E10 ; 0.0
195 ; 1.7545986527398966E7 ; 2.015989026969902E8 ; 3.543425533473519E9 ; 3.758596279496308E10 ; 0.0
