CSV File for the City 1 on Day 318
1 - Minute m 
2 - Power Consumed at minute m 
3 - Power Produced at minute m 
4 - Energy Consumed since the beginning of the day 
5 - Energy Produced since the beginning of the day 
6 - Energy Lost since the beginning of the day on lines starting from the city
 
0 ; 1.6203821875320287E7 ; 1.0578488755467895E8 ; 0.0 ; 0.0 ; 0.0
1 ; 1.6219246228672527E7 ; 1.0593774697380584E8 ; 1.6203821875320287E7 ; 1.0578488755467895E8 ; 0.0
2 ; 1.6235731196677454E7 ; 1.0639939900077519E8 ; 3.2423068103992812E7 ; 2.117226345284848E8 ; 0.0
3 ; 1.6258657404919438E7 ; 1.071698446918065E8 ; 4.8658799300670266E7 ; 3.1812203352926E8 ; 0.0
4 ; 1.6283793473795563E7 ; 1.0824908498818535E8 ; 6.4917456705589704E7 ; 4.252918782210665E8 ; 0.0
5 ; 1.6309650478190308E7 ; 1.0963712071286052E8 ; 8.120125017938527E7 ; 5.335409632092518E8 ; 0.0
6 ; 1.6352353780026644E7 ; 1.1133395256743261E8 ; 9.751090065757558E7 ; 6.431780839221123E8 ; 0.0
7 ; 1.6405858894654362E7 ; 1.1333958112956E8 ; 1.1386325443760222E8 ; 7.54512036489545E8 ; 0.0
8 ; 1.648787092411073E7 ; 1.1565400685080403E8 ; 1.3026911333225659E8 ; 8.67851617619105E8 ; 0.0
9 ; 1.6601624900631493E7 ; 1.1827723005493319E8 ; 1.4675698425636733E8 ; 9.83505624469909E8 ; 0.0
10 ; 1.678584634465324E7 ; 1.2120925093670052E8 ; 1.633586091569988E8 ; 1.1017828545248423E9 ; 0.0
11 ; 1.707739312066556E7 ; 1.2445006956110606E8 ; 1.8014445550165206E8 ; 1.2229921054615428E9 ; 0.0
12 ; 1.7538336317684297E7 ; 1.2799968586314973E8 ; 1.972218486223176E8 ; 1.3474421750226488E9 ; 0.0
13 ; 1.7990173460264016E7 ; 1.318580996480785E8 ; 2.147601849400019E8 ; 1.4754418608857985E9 ; 0.0
14 ; 1.803844669699438E7 ; 1.36025310592124E8 ; 2.3275035840026593E8 ; 1.607299960533877E9 ; 0.0
15 ; 1.80607698045363E7 ; 1.405013182437247E8 ; 2.507888050972603E8 ; 1.743325271126001E9 ; 0.0
16 ; 1.808147514062214E7 ; 1.452861220252224E8 ; 2.688495749017966E8 ; 1.8838265893697257E9 ; 0.0
17 ; 1.8103161428880163E7 ; 1.5037972123501638E8 ; 2.869310500424187E8 ; 2.029112711394948E9 ; 0.0
18 ; 1.8129947262458615E7 ; 1.557821150501579E8 ; 3.050342114712989E8 ; 2.1794924326299644E9 ; 0.0
19 ; 1.814859353299849E7 ; 1.614933025293614E8 ; 3.231641587337575E8 ; 2.3352745476801224E9 ; 0.0
20 ; 1.8170398781187154E7 ; 1.675132826164073E8 ; 3.41312752266756E8 ; 2.4967678502094836E9 ; 0.0
21 ; 1.8195703476219386E7 ; 1.7384205414390782E8 ; 3.594831510479432E8 ; 2.664281132825891E9 ; 0.0
22 ; 1.8216616742951866E7 ; 1.8047961583740366E8 ; 3.7767885452416253E8 ; 2.838123186969799E9 ; 0.0
23 ; 1.8238465589674298E7 ; 1.8742596631976098E8 ; 3.958954712671144E8 ; 3.018602802807203E9 ; 0.0
24 ; 1.8258138025639843E7 ; 1.9468110411583096E8 ; 4.141339368567887E8 ; 3.2060287691269636E9 ; 0.0
25 ; 1.8279462566582356E7 ; 2.00933068555523E8 ; 4.323920748824285E8 ; 3.4007098732427945E9 ; 0.0
26 ; 1.8302731620994043E7 ; 2.0093540581578204E8 ; 4.506715374490109E8 ; 3.6016429417983174E9 ; 0.0
27 ; 1.832658009293522E7 ; 2.0093788345072964E8 ; 4.6897426907000494E8 ; 3.8025783476140995E9 ; 0.0
28 ; 1.8345741320159223E7 ; 2.0094049964379472E8 ; 4.8730084916294014E8 ; 4.0035162310648293E9 ; 0.0
29 ; 1.8369725060111485E7 ; 2.0094325250640202E8 ; 5.0564659048309934E8 ; 4.204456730708624E9 ; 0.0
30 ; 1.839009839428382E7 ; 2.0094614008346602E8 ; 5.240163155432108E8 ; 4.405399983215026E9 ; 0.0
31 ; 1.8409468895346344E7 ; 2.009491603589025E8 ; 5.424064139374946E8 ; 4.6063461232984915E9 ; 0.0
32 ; 1.8431373590123348E7 ; 2.009523112611269E8 ; 5.608158828328409E8 ; 4.807295283657394E9 ; 0.0
33 ; 1.844748765379266E7 ; 2.0095559066850933E8 ; 5.792472564229642E8 ; 5.008247594918521E9 ; 0.0
34 ; 1.8472018064374708E7 ; 2.0095899641475976E8 ; 5.976947440767568E8 ; 5.20920318558703E9 ; 0.0
35 ; 1.8485784382255178E7 ; 2.009625262942176E8 ; 6.161667621411315E8 ; 5.41016218200179E9 ; 0.0
36 ; 1.85081129711274E7 ; 2.0096617806702358E8 ; 6.346525465233867E8 ; 5.611124708296007E9 ; 0.0
37 ; 1.852306234959804E7 ; 2.0096994946415284E8 ; 6.531606594945141E8 ; 5.81209088636303E9 ; 0.0
38 ; 1.853627628549504E7 ; 2.0097383819229203E8 ; 6.716837218441122E8 ; 6.013060835827184E9 ; 0.0
39 ; 1.8556968300915413E7 ; 2.0097784193854457E8 ; 6.902199981296072E8 ; 6.214034674019476E9 ; 0.0
40 ; 1.8571806962639894E7 ; 2.0098195837495098E8 ; 7.087769664305226E8 ; 6.41501251595802E9 ; 0.0
41 ; 1.859004628492231E7 ; 2.0098618516281354E8 ; 7.273487733931625E8 ; 6.615994474332972E9 ; 0.0
42 ; 1.8601902820892744E7 ; 2.009905199568168E8 ; 7.459388196780849E8 ; 6.816980659495785E9 ; 0.0
43 ; 1.8617003501044367E7 ; 2.0099496040893725E8 ; 7.645407224989775E8 ; 7.017971179452601E9 ; 0.0
44 ; 1.862805415531483E7 ; 2.009995041721381E8 ; 7.831577260000219E8 ; 7.218966139861539E9 ; 0.0
45 ; 1.864332427690205E7 ; 2.0100414890384603E8 ; 8.017857801553367E8 ; 7.419965644033677E9 ; 0.0
46 ; 1.8650328290251974E7 ; 2.0100889226920944E8 ; 8.204291044322388E8 ; 7.620969792937523E9 ; 0.0
47 ; 1.8661488785852052E7 ; 2.0101373194413868E8 ; 8.390794327224908E8 ; 7.821978685206733E9 ; 0.0
48 ; 1.8675148291171536E7 ; 2.0101866561813018E8 ; 8.577409215083429E8 ; 8.022992417150871E9 ; 0.0
49 ; 1.867785262562444E7 ; 2.010236909968779E8 ; 8.764160697995144E8 ; 8.224011082769001E9 ; 0.0
50 ; 1.8682501294167113E7 ; 2.0102880580467656E8 ; 8.950939224251388E8 ; 8.425034773765879E9 ; 0.0
51 ; 1.8690109581848398E7 ; 2.0103400778662172E8 ; 9.13776423719306E8 ; 8.626063579570555E9 ; 0.0
52 ; 1.8703984696346052E7 ; 2.0103929471061283E8 ; 9.324665333011544E8 ; 8.827097587357176E9 ; 0.0
53 ; 1.8709851657854557E7 ; 2.010446643691664E8 ; 9.511705179975004E8 ; 9.02813688206779E9 ; 0.0
54 ; 1.871220130305066E7 ; 2.010501145810461E8 ; 9.69880369655355E8 ; 9.229181546436956E9 ; 0.0
55 ; 1.872084416746657E7 ; 2.0105564319271797E8 ; 9.885925709584056E8 ; 9.430231661018002E9 ; 0.0
56 ; 1.872926598902287E7 ; 2.0106124807963836E8 ; 1.0073134151258721E9 ; 9.63128730421072E9 ; 0.0
57 ; 1.8732657359840572E7 ; 2.0106692714738348E8 ; 1.026042681114895E9 ; 9.832348552290358E9 ; 0.0
58 ; 1.8741532566300776E7 ; 2.0107267833262825E8 ; 1.0447753384747355E9 ; 1.003341547943774E10 ; 0.0
59 ; 1.8750035995667066E7 ; 2.0107849960398358E8 ; 1.0635168710410362E9 ; 1.0234488157770369E10 ; 0.0
60 ; 1.8754747509869043E7 ; 2.0108438896270007E8 ; 1.0822669070367033E9 ; 1.0435566657374352E10 ; 0.0
61 ; 1.8758255386465777E7 ; 2.0109034444324666E8 ; 1.1010216545465724E9 ; 1.0636651046337051E10 ; 0.0
62 ; 1.876061759796451E7 ; 2.010963641137726E8 ; 1.1197799099330382E9 ; 1.0837741390780298E10 ; 0.0
63 ; 1.876716431537559E7 ; 2.011024460764603E8 ; 1.1385405275310028E9 ; 1.1038837754894072E10 ; 0.0
64 ; 1.8775495138496693E7 ; 2.0110858846777776E8 ; 1.1573076918463783E9 ; 1.1239940200970531E10 ; 0.0
65 ; 1.8775646268647574E7 ; 2.011147894586371E8 ; 1.176083186984875E9 ; 1.1441048789438309E10 ; 0.0
66 ; 1.8783181426908102E7 ; 2.011210472544674E8 ; 1.1948588332535226E9 ; 1.1642163578896946E10 ; 0.0
67 ; 1.8786087837099113E7 ; 2.0112736009520853E8 ; 1.2136420146804307E9 ; 1.1843284626151413E10 ; 0.0
68 ; 1.8792541435501073E7 ; 2.0113372625523233E8 ; 1.2324281025175297E9 ; 1.2044411986246622E10 ; 0.0
69 ; 1.879851648791849E7 ; 2.011401440431984E8 ; 1.2512206439530308E9 ; 1.2245545712501854E10 ; 0.0
70 ; 1.880243067074876E7 ; 2.0114661180184975E8 ; 1.2700191604409492E9 ; 1.2446685856545052E10 ; 0.0
71 ; 1.8805584681432538E7 ; 2.0115312790775433E8 ; 1.288821591111698E9 ; 1.26478324683469E10 ; 0.0
72 ; 1.8812325817332625E7 ; 2.0115969077099824E8 ; 1.3076271757931304E9 ; 1.2848985596254656E10 ; 0.0
73 ; 1.8813557116267566E7 ; 2.0116629883483523E8 ; 1.3264395016104631E9 ; 1.3050145287025654E10 ; 0.0
74 ; 1.882083455549823E7 ; 2.011729505752974E8 ; 1.3452530587267308E9 ; 1.3251311585860489E10 ; 0.0
75 ; 1.8821464645583138E7 ; 2.0117964450077188E8 ; 1.364073893282229E9 ; 1.3452484536435787E10 ; 0.0
76 ; 1.8828454617102165E7 ; 2.0118637915154743E8 ; 1.382895357927812E9 ; 1.365366418093656E10 ; 0.0
77 ; 1.8828578643159527E7 ; 2.011931530993347E8 ; 1.4017238125449142E9 ; 1.3854850560088108E10 ; 0.0
78 ; 1.8820320809075862E7 ; 2.011999649467641E8 ; 1.4205523911880739E9 ; 1.4056043713187443E10 ; 0.0
79 ; 1.882278375538132E7 ; 2.0120681332686472E8 ; 1.4393727119971497E9 ; 1.4257243678134207E10 ; 0.0
80 ; 1.8827264852912705E7 ; 2.012136969025267E8 ; 1.458195495752531E9 ; 1.4458450491461071E10 ; 0.0
81 ; 1.8820655357516058E7 ; 2.0122061436595085E8 ; 1.4770227606054437E9 ; 1.4659664188363598E10 ; 0.0
82 ; 1.8816196556490578E7 ; 2.012275644380873E8 ; 1.4958434159629598E9 ; 1.486088480272955E10 ; 0.0
83 ; 1.881458134918443E7 ; 2.012345458680662E8 ; 1.5146596125194504E9 ; 1.5062112367167637E10 ; 0.0
84 ; 1.8803660181420155E7 ; 2.0124155743262228E8 ; 1.533474193868635E9 ; 1.5263346913035704E10 ; 0.0
85 ; 1.8802671508025352E7 ; 2.0124859793551546E8 ; 1.552277854050055E9 ; 1.5464588470468327E10 ; 0.0
86 ; 1.8802717709105317E7 ; 2.012556662069493E8 ; 1.5710805255580804E9 ; 1.5665837068403843E10 ; 0.0
87 ; 1.8800002619842917E7 ; 2.0126276110298866E8 ; 1.5898832432671857E9 ; 1.5867092734610792E10 ; 0.0
88 ; 1.8792702829576697E7 ; 2.0126988150497887E8 ; 1.6086832458870287E9 ; 1.6068355495713781E10 ; 0.0
89 ; 1.8788910223101407E7 ; 2.0127702631896642E8 ; 1.6274759487166054E9 ; 1.626962537721876E10 ; 0.0
90 ; 1.8788666856037904E7 ; 2.0128419447512376E8 ; 1.6462648589397068E9 ; 1.6470902403537725E10 ; 0.0
91 ; 1.8780967626787808E7 ; 2.0129138492717844E8 ; 1.6650535257957447E9 ; 1.667218659801285E10 ; 0.0
92 ; 1.877924826739215E7 ; 2.0129859665184754E8 ; 1.6838344934225326E9 ; 1.687347798294003E10 ; 0.0
93 ; 1.877197983669313E7 ; 2.0130582864827877E8 ; 1.7026137416899247E9 ; 1.7074776579591877E10 ; 0.0
94 ; 1.8766300339714568E7 ; 2.0131307993749845E8 ; 1.7213857215266178E9 ; 1.7276082408240154E10 ; 0.0
95 ; 1.876463428761156E7 ; 2.013203495618673E8 ; 1.7401520218663323E9 ; 1.7477395488177654E10 ; 0.0
96 ; 1.8759451012326498E7 ; 2.013276365845444E8 ; 1.7589166561539438E9 ; 1.767871583773952E10 ; 0.0
97 ; 1.8751868841482494E7 ; 2.0133494008896E8 ; 1.7776761071662703E9 ; 1.7880043474324066E10 ; 0.0
98 ; 1.8747864026024614E7 ; 2.0134225917829746E8 ; 1.7964279760077527E9 ; 1.8081378414413025E10 ; 0.0
99 ; 1.8737551754170846E7 ; 2.013495929749848E8 ; 1.8151758400337772E9 ; 1.8282720673591324E10 ; 0.0
100 ; 1.873704223561103E7 ; 2.013569406201957E8 ; 1.8339133917879481E9 ; 1.8484070266566307E10 ; 0.0
101 ; 1.8729837162544735E7 ; 2.013643012733609E8 ; 1.852650434023559E9 ; 1.8685427207186504E10 ; 0.0
102 ; 1.8721785267492034E7 ; 2.0137167411168966E8 ; 1.8713802711861038E9 ; 1.8886791508459866E10 ; 0.0
103 ; 1.871819188964467E7 ; 2.0137905832970124E8 ; 1.8901020564535959E9 ; 1.9088163182571556E10 ; 0.0
104 ; 1.8713038784122862E7 ; 2.0138645313876718E8 ; 1.9088202483432405E9 ; 1.9289542240901257E10 ; 0.0
105 ; 1.8706813837394103E7 ; 2.0139385776666385E8 ; 1.9275332871273634E9 ; 1.9490928694040024E10 ; 0.0
106 ; 1.8699061127237126E7 ; 2.0140127145713535E8 ; 1.9462401009647574E9 ; 1.9692322551806686E10 ; 0.0
107 ; 1.8692069125647925E7 ; 2.0140869346946704E8 ; 1.9649391620919945E9 ; 1.989372382326382E10 ; 0.0
108 ; 1.8687215107677896E7 ; 2.014161230780694E8 ; 1.9836312312176425E9 ; 2.0095132516733288E10 ; 0.0
109 ; 1.8677297185068548E7 ; 2.014235595720722E8 ; 2.0023184463253205E9 ; 2.0296548639811356E10 ; 0.0
110 ; 1.8667790943266597E7 ; 2.0143100225492907E8 ; 2.020995743510389E9 ; 2.0497972199383427E10 ; 0.0
111 ; 1.8665324820112955E7 ; 2.0143845044403198E8 ; 2.0396635344536557E9 ; 2.0699403201638355E10 ; 0.0
112 ; 1.8657564552667897E7 ; 2.014459034703361E8 ; 2.0583288592737687E9 ; 2.0900841652082386E10 ; 0.0
113 ; 1.8648242464120973E7 ; 2.014533606779943E8 ; 2.0769864238264365E9 ; 2.1102287555552723E10 ; 0.0
114 ; 1.8640149484593824E7 ; 2.0146082142400154E8 ; 2.0956346662905574E9 ; 2.1303740916230717E10 ; 0.0
115 ; 1.8636714467178416E7 ; 2.014682850778488E8 ; 2.1142748157751513E9 ; 2.1505201737654716E10 ; 0.0
116 ; 1.8624760099590704E7 ; 2.0147575102118656E8 ; 2.1329115302423296E9 ; 2.1706670022732567E10 ; 0.0
117 ; 1.8614372832787786E7 ; 2.014832186474975E8 ; 2.1515362903419204E9 ; 2.1908145773753754E10 ; 0.0
118 ; 1.8605514273007784E7 ; 2.0149068736177838E8 ; 2.1701506631747084E9 ; 2.2109628992401253E10 ; 0.0
119 ; 1.859837776294817E7 ; 2.0149815658023056E8 ; 2.188756177447716E9 ; 2.231111967976303E10 ; 0.0
120 ; 1.8590483905641016E7 ; 2.0150562572995973E8 ; 2.2073545552106643E9 ; 2.251261783634326E10 ; 0.0
121 ; 1.857544515142635E7 ; 2.0151309424868372E8 ; 2.2259450391163054E9 ; 2.2714123462073223E10 ; 0.0
122 ; 1.8573758126585536E7 ; 2.0152056158444896E8 ; 2.2445204842677317E9 ; 2.2915636556321907E10 ; 0.0
123 ; 1.8560715577815104E7 ; 2.0152802719535503E8 ; 2.263094242394317E9 ; 2.3117157117906357E10 ; 0.0
124 ; 1.855335294230218E7 ; 2.01535490549287E8 ; 2.281654957972132E9 ; 2.331868514510171E10 ; 0.0
125 ; 1.8541993793715023E7 ; 2.0154295112365586E8 ; 2.3002083109144344E9 ; 2.3520220635650997E10 ; 0.0
126 ; 1.8530531619519163E7 ; 2.015504084051463E8 ; 2.3187503047081494E9 ; 2.3721763586774654E10 ; 0.0
127 ; 1.8525359347581588E7 ; 2.0155786188947195E8 ; 2.3372808363276687E9 ; 2.3923313995179802E10 ; 0.0
128 ; 1.851499761545242E7 ; 2.015653110811378E8 ; 2.35580619567525E9 ; 2.4124871857069275E10 ; 0.0
129 ; 1.849956117298778E7 ; 2.015727554932097E8 ; 2.3743211932907023E9 ; 2.4326437168150414E10 ; 0.0
130 ; 1.847035017600796E7 ; 2.0158019464709044E8 ; 2.3928207544636903E9 ; 2.4528009923643623E10 ; 0.0
131 ; 1.843069243541099E7 ; 2.01587628072303E8 ; 2.411291104639698E9 ; 2.4729590118290714E10 ; 0.0
132 ; 1.8388432623769946E7 ; 2.015950553062796E8 ; 2.429721797075109E9 ; 2.4931177746363018E10 ; 0.0
133 ; 1.834999020492577E7 ; 2.0160247589415747E8 ; 2.448110229698879E9 ; 2.5132772801669296E10 ; 0.0
134 ; 1.8309352652670156E7 ; 2.016098893885806E8 ; 2.4664602199038043E9 ; 2.5334375277563454E10 ; 0.0
135 ; 1.8271923834672857E7 ; 2.0161729534950736E8 ; 2.4847695725564747E9 ; 2.5535985166952034E10 ; 0.0
136 ; 1.8226959121236466E7 ; 2.0162469334402403E8 ; 2.5030414963911476E9 ; 2.573760246230154E10 ; 0.0
137 ; 1.8187293541674323E7 ; 2.0163208294616383E8 ; 2.521268455512384E9 ; 2.5939227155645565E10 ; 0.0
138 ; 1.8147176422862574E7 ; 2.0163946373673123E8 ; 2.539455749054058E9 ; 2.614085923859173E10 ; 0.0
139 ; 1.8112503236608684E7 ; 2.016468353031319E8 ; 2.5576029254769206E9 ; 2.634249870232846E10 ; 0.0
140 ; 1.807274071316522E7 ; 2.0165419723920748E8 ; 2.575715428713529E9 ; 2.654414553763159E10 ; 0.0
141 ; 1.802746949411232E7 ; 2.0166154914507535E8 ; 2.5937881694266944E9 ; 2.67457997348708E10 ; 0.0
142 ; 1.798703013220044E7 ; 2.0166889062697348E8 ; 2.611815638920807E9 ; 2.6947461284015877E10 ; 0.0
143 ; 1.7945982250947546E7 ; 2.0167622129710957E8 ; 2.629802669053007E9 ; 2.714913017464285E10 ; 0.0
144 ; 1.7902948499528356E7 ; 2.01683540773515E8 ; 2.6477486513039546E9 ; 2.7350806395939957E10 ; 0.0
145 ; 1.7869157050975177E7 ; 2.016908486799031E8 ; 2.665651599803483E9 ; 2.755248993671347E10 ; 0.0
146 ; 1.7839480116856895E7 ; 2.016981446455317E8 ; 2.6835207568544583E9 ; 2.7754180785393375E10 ; 0.0
147 ; 1.7800898021598745E7 ; 2.0170542830506986E8 ; 2.7013602369713154E9 ; 2.7955878930038906E10 ; 0.0
148 ; 1.776375491656244E7 ; 2.017126992984684E8 ; 2.719161134992914E9 ; 2.8157584358343975E10 ; 0.0
149 ; 1.7734022416133624E7 ; 2.0171995727083465E8 ; 2.7369248899094768E9 ; 2.8359297057642445E10 ; 0.0
150 ; 1.769980844393539E7 ; 2.0172720187231073E8 ; 2.75465891232561E9 ; 2.856101701491328E10 ; 0.0
151 ; 1.7660749963322982E7 ; 2.0173443275795546E8 ; 2.7723587207695456E9 ; 2.876274421678559E10 ; 0.0
152 ; 1.7629986465699762E7 ; 2.0174164958763015E8 ; 2.7900194707328687E9 ; 2.8964478649543545E10 ; 0.0
153 ; 1.7595926462902967E7 ; 2.017488520258874E8 ; 2.8076494571985683E9 ; 2.9166220299131176E10 ; 0.0
154 ; 1.7559486817152582E7 ; 2.0175603974186337E8 ; 2.8252453836614714E9 ; 2.9367969151157063E10 ; 0.0
155 ; 1.752538779995461E7 ; 2.0176321240917346E8 ; 2.842804870478624E9 ; 2.9569725190898926E10 ; 0.0
156 ; 1.7490573279075105E7 ; 2.0177036970581093E8 ; 2.8603302582785783E9 ; 2.9771488403308098E10 ; 0.0
157 ; 1.7454514612307377E7 ; 2.0177751131404853E8 ; 2.8778208315576534E9 ; 2.997325877301391E10 ; 0.0
158 ; 1.7420296546494126E7 ; 2.0178463692034313E8 ; 2.895275346169961E9 ; 3.0175036284327957E10 ; 0.0
159 ; 1.7388963096110422E7 ; 2.0179174621524325E8 ; 2.912695642716455E9 ; 3.03768209212483E10 ; 0.0
160 ; 1.735087197864106E7 ; 2.0179883889329925E8 ; 2.9300846058125653E9 ; 3.0578612667463543E10 ; 0.0
161 ; 1.731347845655094E7 ; 2.0180591465297619E8 ; 2.9474354777912064E9 ; 3.0780411506356842E10 ; 0.0
162 ; 1.728235832430625E7 ; 2.0181297319656935E8 ; 2.9647489562477574E9 ; 3.098221742100982E10 ; 0.0
163 ; 1.7244143122237884E7 ; 2.018200142301222E8 ; 2.9820313145720634E9 ; 3.1184030394206387E10 ; 0.0
164 ; 1.7211097229026977E7 ; 2.0182703746334687E8 ; 2.999275457694301E9 ; 3.138585040843651E10 ; 0.0
165 ; 1.7173015472023252E7 ; 2.0183404260954678E8 ; 3.016486554923328E9 ; 3.1587677445899857E10 ; 0.0
166 ; 1.7138986027870994E7 ; 2.018410293855418E8 ; 3.0336595703953514E9 ; 3.1789511488509403E10 ; 0.0
167 ; 1.7102626742609557E7 ; 2.0184799751159555E8 ; 3.0507985564232225E9 ; 3.1991352517894943E10 ; 0.0
168 ; 1.706573398013246E7 ; 2.018549467113447E8 ; 3.067901183165832E9 ; 3.219320051540654E10 ; 0.0
169 ; 1.703282035245983E7 ; 2.0186187671173042E8 ; 3.0849669171459646E9 ; 3.2395055462117886E10 ; 0.0
170 ; 1.699583684769972E7 ; 2.0186878724293208E8 ; 3.1019997374984245E9 ; 3.2596917338829617E10 ; 0.0
171 ; 1.6960443753200985E7 ; 2.0187567803830245E8 ; 3.118995574346124E9 ; 3.2798786126072548E10 ; 0.0
172 ; 1.692306509607502E7 ; 2.0188254883430508E8 ; 3.135956018099325E9 ; 3.300066180411085E10 ; 0.0
173 ; 1.6887899983496964E7 ; 2.0188939937045363E8 ; 3.1528790831954E9 ; 3.3202544352945156E10 ; 0.0
174 ; 1.686021519193442E7 ; 2.0189622938925254E8 ; 3.1697669831788974E9 ; 3.340443375231561E10 ; 0.0
175 ; 1.683162473947038E7 ; 2.019E8 ; 3.186627198370832E9 ; 3.360632998170486E10 ; 0.0
176 ; 1.680005150756057E7 ; 2.019E8 ; 3.2034588231103024E9 ; 3.380822998170486E10 ; 0.0
177 ; 1.6769052371597879E7 ; 2.019E8 ; 3.220258874617863E9 ; 3.401012998170486E10 ; 0.0
178 ; 1.673516976421802E7 ; 2.019E8 ; 3.237027926989461E9 ; 3.421202998170486E10 ; 0.0
179 ; 1.670532991798059E7 ; 2.019E8 ; 3.253763096753679E9 ; 3.4413929981704865E10 ; 0.0
180 ; 1.6671404167466374E7 ; 2.019E8 ; 3.2704684266716595E9 ; 3.4615829981704865E10 ; 0.0
181 ; 1.6646389471732475E7 ; 2.019E8 ; 3.2871398308391256E9 ; 3.4817729981704865E10 ; 0.0
182 ; 1.6612372431990782E7 ; 2.019E8 ; 3.3037862203108582E9 ; 3.5019629981704865E10 ; 0.0
183 ; 1.6579350090359082E7 ; 2.019E8 ; 3.320398592742849E9 ; 3.5221529981704865E10 ; 0.0
184 ; 1.6551138557308944E7 ; 2.019E8 ; 3.336977942833208E9 ; 3.5423429981704865E10 ; 0.0
185 ; 1.6523026095715499E7 ; 2.019E8 ; 3.353529081390517E9 ; 3.5625329981704865E10 ; 0.0
186 ; 1.648731525508968E7 ; 2.019E8 ; 3.3700521074862328E9 ; 3.5827229981704865E10 ; 0.0
187 ; 1.6463316850841302E7 ; 2.019E8 ; 3.3865394227413225E9 ; 3.6029129981704865E10 ; 0.0
188 ; 1.642922700212591E7 ; 2.019E8 ; 3.403002739592164E9 ; 3.6231029981704865E10 ; 0.0
189 ; 1.6395999189426586E7 ; 2.019E8 ; 3.41943196659429E9 ; 3.6432929981704865E10 ; 0.0
190 ; 1.63671025082223E7 ; 2.019E8 ; 3.435827965783716E9 ; 3.6634829981704865E10 ; 0.0
191 ; 1.6337990887728544E7 ; 2.019E8 ; 3.4521950682919383E9 ; 3.6836729981704865E10 ; 0.0
192 ; 1.6304468369475048E7 ; 2.019E8 ; 3.468533059179667E9 ; 3.7038629981704865E10 ; 0.0
193 ; 1.6272506707475975E7 ; 2.019E8 ; 3.484837527549142E9 ; 3.7240529981704865E10 ; 0.0
194 ; 1.6238992854273196E7 ; 2.019E8 ; 3.501110034256618E9 ; 3.7442429981704865E10 ; 0.0
195 ; 1.6211298700361302E7 ; 2.019E8 ; 3.5173490271108913E9 ; 3.7644329981704865E10 ; 0.0
196 ; 1.6175851640574643E7 ; 2.019E8 ; 3.5335603258112526E9 ; 3.7846229981704865E10 ; 0.0
197 ; 1.6146529363664554E7 ; 2.019E8 ; 3.549736177451827E9 ; 3.8048129981704865E10 ; 0.0
198 ; 1.611961609806353E7 ; 2.019E8 ; 3.5658827068154917E9 ; 3.8250029981704865E10 ; 0.0
