CSV File for the City 1 on Day 15
1 - Minute m 
2 - Power Consumed at minute m 
3 - Power Produced at minute m 
4 - Energy Consumed since the beginning of the day 
5 - Energy Produced since the beginning of the day 
6 - Energy Lost since the beginning of the day on lines starting from the city
 
0 ; 1.1845401065474236E7 ; 1.4071358547754977E7 ; 0.0 ; 0.0 ; 0.0
1 ; 1.1859370145796863E7 ; 1.4071358547754977E7 ; 1.1845401065474236E7 ; 1.4071358547754977E7 ; 0.0
2 ; 1.1872037503368821E7 ; 1.4071358547754977E7 ; 2.37047712112711E7 ; 2.8142717095509954E7 ; 0.0
3 ; 1.1887866254331816E7 ; 1.4071358547754977E7 ; 3.557680871463992E7 ; 4.2214075643264934E7 ; 0.0
4 ; 1.1903644074325087E7 ; 1.4071358547754977E7 ; 4.746467496897173E7 ; 5.628543419101991E7 ; 0.0
5 ; 1.1924765942380402E7 ; 1.4071358547754977E7 ; 5.9368319043296814E7 ; 7.035679273877488E7 ; 0.0
6 ; 1.1957196845539086E7 ; 1.4071358547754977E7 ; 7.129308498567721E7 ; 8.442815128652985E7 ; 0.0
7 ; 1.1994839510438843E7 ; 1.4071358547754977E7 ; 8.32502818312163E7 ; 9.849950983428483E7 ; 0.0
8 ; 1.2054901951875918E7 ; 1.4071358547754977E7 ; 9.524512134165515E7 ; 1.125708683820398E8 ; 0.0
9 ; 1.2138964778353365E7 ; 1.4071358547754977E7 ; 1.0730002329353106E8 ; 1.2664222692979477E8 ; 0.0
10 ; 1.2274112537008667E7 ; 1.4071358547754977E7 ; 1.1943898807188442E8 ; 1.4071358547754976E8 ; 0.0
11 ; 1.2492274143365275E7 ; 1.4071358547754977E7 ; 1.317131006088931E8 ; 1.5478494402530473E8 ; 0.0
12 ; 1.2832139241233978E7 ; 1.4071358547754977E7 ; 1.4420537475225836E8 ; 1.688563025730597E8 ; 0.0
13 ; 1.3168335097417219E7 ; 1.4071358547754977E7 ; 1.5703751399349234E8 ; 1.8292766112081468E8 ; 0.0
14 ; 1.3210612478873266E7 ; 1.4071358547754977E7 ; 1.7020584909090954E8 ; 1.9699901966856965E8 ; 0.0
15 ; 1.3223139431523584E7 ; 1.4071358547754977E7 ; 1.834164615697828E8 ; 2.1107037821632463E8 ; 0.0
16 ; 1.324216903827305E7 ; 1.4071358547754977E7 ; 1.9663960100130638E8 ; 2.251417367640796E8 ; 0.0
17 ; 1.3251697455725582E7 ; 1.4071358547754977E7 ; 2.0988177003957942E8 ; 2.3921309531183457E8 ; 0.0
18 ; 1.326853973486158E7 ; 1.4071358547754977E7 ; 2.23133467495305E8 ; 2.5328445385958955E8 ; 0.0
19 ; 1.32854274072491E7 ; 1.4071358547754977E7 ; 2.3640200723016658E8 ; 2.6735581240734452E8 ; 0.0
20 ; 1.3301493896546224E7 ; 1.4071358547754977E7 ; 2.4968743463741568E8 ; 2.814271709550995E8 ; 0.0
21 ; 1.3318674844545413E7 ; 1.4071358547754977E7 ; 2.629889285339619E8 ; 2.954985295028545E8 ; 0.0
22 ; 1.3333988076895067E7 ; 1.4071358547754977E7 ; 2.763076033785073E8 ; 3.095698880506095E8 ; 0.0
23 ; 1.334741463497237E7 ; 1.4071358547754977E7 ; 2.896415914554024E8 ; 3.2364124659836453E8 ; 0.0
24 ; 1.336505564824102E7 ; 1.4071358547754977E7 ; 3.0298900609037477E8 ; 3.3771260514611953E8 ; 0.0
25 ; 1.3380111127167938E7 ; 1.4071358547754977E7 ; 3.163540617386158E8 ; 3.5178396369387454E8 ; 0.0
26 ; 1.3394844485173885E7 ; 1.4071358547754977E7 ; 3.2973417286578375E8 ; 3.6585532224162954E8 ; 0.0
27 ; 1.3405871971425964E7 ; 1.4071358547754977E7 ; 3.4312901735095763E8 ; 3.7992668078938454E8 ; 0.0
28 ; 1.3426682419385834E7 ; 1.4071358547754977E7 ; 3.565348893223836E8 ; 3.9399803933713955E8 ; 0.0
29 ; 1.343889827244676E7 ; 1.4071358547754977E7 ; 3.6996157174176943E8 ; 4.0806939788489455E8 ; 0.0
30 ; 1.3459376212000648E7 ; 1.4071358547754977E7 ; 3.834004700142162E8 ; 4.2214075643264955E8 ; 0.0
31 ; 1.3468973450501699E7 ; 1.4071358547754977E7 ; 3.9685984622621685E8 ; 4.3621211498040456E8 ; 0.0
32 ; 1.3482740653954418E7 ; 1.4071358547754977E7 ; 4.1032881967671853E8 ; 4.5028347352815956E8 ; 0.0
33 ; 1.3498018091527984E7 ; 1.4071358547754977E7 ; 4.23811560330673E8 ; 4.6435483207591456E8 ; 0.0
34 ; 1.3507204807763161E7 ; 1.4071358547754977E7 ; 4.37309578422201E8 ; 4.7842619062366956E8 ; 0.0
35 ; 1.3519202242338993E7 ; 1.4071358547754977E7 ; 4.5081678322996414E8 ; 4.9249754917142457E8 ; 0.0
36 ; 1.3533098621216701E7 ; 1.4071358547754977E7 ; 4.6433598547230315E8 ; 5.065689077191796E8 ; 0.0
37 ; 1.3545045509337138E7 ; 1.4071358547754977E7 ; 4.7786908409351987E8 ; 5.206402662669346E8 ; 0.0
38 ; 1.3557184857145945E7 ; 1.4071358547754977E7 ; 4.91414129602857E8 ; 5.347116248146896E8 ; 0.0
39 ; 1.3570337860430956E7 ; 1.4071358547754977E7 ; 5.0497131446000296E8 ; 5.487829833624445E8 ; 0.0
40 ; 1.3577191835249824E7 ; 1.4071358547754977E7 ; 5.185416523204339E8 ; 5.628543419101995E8 ; 0.0
41 ; 1.358701567613595E7 ; 1.4071358547754977E7 ; 5.3211884415568376E8 ; 5.769257004579545E8 ; 0.0
42 ; 1.3593889783731451E7 ; 1.4071358547754977E7 ; 5.457058598318197E8 ; 5.909970590057095E8 ; 0.0
43 ; 1.3605562343343062E7 ; 1.4071358547754977E7 ; 5.592997496155511E8 ; 6.050684175534645E8 ; 0.0
44 ; 1.3613823669799434E7 ; 1.4071358547754977E7 ; 5.729053119588941E8 ; 6.191397761012195E8 ; 0.0
45 ; 1.3620446019875592E7 ; 1.4071358547754977E7 ; 5.865191356286936E8 ; 6.332111346489745E8 ; 0.0
46 ; 1.3629222286833396E7 ; 1.4071358547754977E7 ; 6.001395816485692E8 ; 6.472824931967295E8 ; 0.0
47 ; 1.3632774543311907E7 ; 1.4071358547754977E7 ; 6.137688039354026E8 ; 6.613538517444845E8 ; 0.0
48 ; 1.3638845224591983E7 ; 1.4071358547754977E7 ; 6.274015784787146E8 ; 6.754252102922395E8 ; 0.0
49 ; 1.3641171455028996E7 ; 1.4071358547754977E7 ; 6.410404237033066E8 ; 6.894965688399945E8 ; 0.0
50 ; 1.3647960311465817E7 ; 1.4071358547754977E7 ; 6.546815951583356E8 ; 7.035679273877496E8 ; 0.0
51 ; 1.3654532784973383E7 ; 1.4071358547754977E7 ; 6.683295554698014E8 ; 7.176392859355046E8 ; 0.0
52 ; 1.3657429529049018E7 ; 1.4071358547754977E7 ; 6.819840882547748E8 ; 7.317106444832596E8 ; 0.0
53 ; 1.3661420407920081E7 ; 1.4071358547754977E7 ; 6.956415177838238E8 ; 7.457820030310146E8 ; 0.0
54 ; 1.3664766160761902E7 ; 1.4071358547754977E7 ; 7.09302938191744E8 ; 7.598533615787696E8 ; 0.0
55 ; 1.3668540193812583E7 ; 1.4071358547754977E7 ; 7.229677043525059E8 ; 7.739247201265246E8 ; 0.0
56 ; 1.367104872015936E7 ; 1.4071358547754977E7 ; 7.366362445463185E8 ; 7.879960786742796E8 ; 0.0
57 ; 1.3673636769392107E7 ; 1.4071358547754977E7 ; 7.50307293266478E8 ; 8.020674372220346E8 ; 0.0
58 ; 1.3678381156854834E7 ; 1.4071358547754977E7 ; 7.639809300358701E8 ; 8.161387957697896E8 ; 0.0
59 ; 1.368164015530357E7 ; 1.4071358547754977E7 ; 7.77659311192725E8 ; 8.302101543175446E8 ; 0.0
60 ; 1.368193736115435E7 ; 1.4071358547754977E7 ; 7.913409513480285E8 ; 8.442815128652996E8 ; 0.0
61 ; 1.3687459061333599E7 ; 1.4071358547754977E7 ; 8.050228887091829E8 ; 8.583528714130546E8 ; 0.0
62 ; 1.3687613538347315E7 ; 1.4071358547754977E7 ; 8.187103477705165E8 ; 8.724242299608096E8 ; 0.0
63 ; 1.3690686120419178E7 ; 1.4071358547754977E7 ; 8.323979613088639E8 ; 8.864955885085646E8 ; 0.0
64 ; 1.3692268306200644E7 ; 1.4071358547754977E7 ; 8.46088647429283E8 ; 9.005669470563196E8 ; 0.0
65 ; 1.369278699023408E7 ; 1.4071358547754977E7 ; 8.597809157354836E8 ; 9.146383056040746E8 ; 0.0
66 ; 1.369661328721639E7 ; 1.4071358547754977E7 ; 8.734737027257178E8 ; 9.287096641518296E8 ; 0.0
67 ; 1.3698135262897355E7 ; 1.4071358547754977E7 ; 8.871703160129342E8 ; 9.427810226995846E8 ; 0.0
68 ; 1.3698622420754213E7 ; 1.4071358547754977E7 ; 9.008684512758316E8 ; 9.568523812473396E8 ; 0.0
69 ; 1.3699438446290232E7 ; 1.4071358547754977E7 ; 9.145670736965858E8 ; 9.709237397950946E8 ; 0.0
70 ; 1.3698842636506056E7 ; 1.4071358547754977E7 ; 9.28266512142876E8 ; 9.849950983428496E8 ; 0.0
71 ; 1.370380886123282E7 ; 1.4071358547754977E7 ; 9.419653547793821E8 ; 9.990664568906046E8 ; 0.0
72 ; 1.3703087575391922E7 ; 1.4071358547754977E7 ; 9.55669163640615E8 ; 1.0131378154383596E9 ; 0.0
73 ; 1.3708224892732792E7 ; 1.4071358547754977E7 ; 9.693722512160069E8 ; 1.0272091739861146E9 ; 0.0
74 ; 1.370416425468715E7 ; 1.4071358547754977E7 ; 9.830804761087396E8 ; 1.0412805325338696E9 ; 0.0
75 ; 1.3705724974834714E7 ; 1.4071358547754977E7 ; 9.967846403634268E8 ; 1.0553518910816246E9 ; 0.0
76 ; 1.3707117389218977E7 ; 1.4071358547754977E7 ; 1.0104903653382615E9 ; 1.0694232496293796E9 ; 0.0
77 ; 1.370631626735878E7 ; 1.4071358547754977E7 ; 1.0241974827274804E9 ; 1.0834946081771345E9 ; 0.0
78 ; 1.370578830432946E7 ; 1.4071358547754977E7 ; 1.0379037989948392E9 ; 1.0975659667248895E9 ; 0.0
79 ; 1.3698728712131245E7 ; 1.4071358547754977E7 ; 1.0516095872991687E9 ; 1.1116373252726445E9 ; 0.0
80 ; 1.3696584500668228E7 ; 1.4071358547754977E7 ; 1.0653083160113E9 ; 1.1257086838203995E9 ; 0.0
81 ; 1.369146617776509E7 ; 1.4071358547754977E7 ; 1.0790049005119681E9 ; 1.1397800423681545E9 ; 0.0
82 ; 1.3687280783016594E7 ; 1.4071358547754977E7 ; 1.0926963666897333E9 ; 1.1538514009159095E9 ; 0.0
83 ; 1.3683067254323194E7 ; 1.4071358547754977E7 ; 1.10638364747275E9 ; 1.1679227594636645E9 ; 0.0
84 ; 1.3678887958902583E7 ; 1.4071358547754977E7 ; 1.1200667147270732E9 ; 1.1819941180114195E9 ; 0.0
85 ; 1.3675943440099042E7 ; 1.4071358547754977E7 ; 1.1337456026859758E9 ; 1.1960654765591745E9 ; 0.0
86 ; 1.3668677852430606E7 ; 1.4071358547754977E7 ; 1.1474215461260748E9 ; 1.2101368351069295E9 ; 0.0
87 ; 1.3663654737108624E7 ; 1.4071358547754977E7 ; 1.1610902239785054E9 ; 1.2242081936546845E9 ; 0.0
88 ; 1.3659374295981662E7 ; 1.4071358547754977E7 ; 1.174753878715614E9 ; 1.2382795522024395E9 ; 0.0
89 ; 1.3656922371757727E7 ; 1.4071358547754977E7 ; 1.1884132530115957E9 ; 1.2523509107501945E9 ; 0.0
90 ; 1.3643171846884908E7 ; 1.4071358547754977E7 ; 1.2020701753833535E9 ; 1.2664222692979496E9 ; 0.0
91 ; 1.3641249210280854E7 ; 1.4071358547754977E7 ; 1.2157133472302384E9 ; 1.2804936278457046E9 ; 0.0
92 ; 1.363581871899505E7 ; 1.4071358547754977E7 ; 1.2293545964405193E9 ; 1.2945649863934596E9 ; 0.0
93 ; 1.3631200989774808E7 ; 1.4071358547754977E7 ; 1.2429904151595144E9 ; 1.3086363449412146E9 ; 0.0
94 ; 1.3626084305818023E7 ; 1.4071358547754977E7 ; 1.2566216161492891E9 ; 1.3227077034889696E9 ; 0.0
95 ; 1.3618373574280314E7 ; 1.4071358547754977E7 ; 1.2702477004551072E9 ; 1.3367790620367246E9 ; 0.0
96 ; 1.3617111588414988E7 ; 1.4071358547754977E7 ; 1.2838660740293875E9 ; 1.3508504205844796E9 ; 0.0
97 ; 1.3606572245637834E7 ; 1.4071358547754977E7 ; 1.2974831856178024E9 ; 1.3649217791322346E9 ; 0.0
98 ; 1.3601656847269768E7 ; 1.4071358547754977E7 ; 1.3110897578634403E9 ; 1.3789931376799896E9 ; 0.0
99 ; 1.3594384772034759E7 ; 1.4071358547754977E7 ; 1.32469141471071E9 ; 1.3930644962277446E9 ; 0.0
100 ; 1.3588994387059206E7 ; 1.4071358547754977E7 ; 1.3382857994827447E9 ; 1.4071358547754996E9 ; 0.0
101 ; 1.358067489402372E7 ; 1.4071358547754977E7 ; 1.351874793869804E9 ; 1.4212072133232546E9 ; 0.0
102 ; 1.3573769171113444E7 ; 1.4071358547754977E7 ; 1.3654554687638276E9 ; 1.4352785718710096E9 ; 0.0
103 ; 1.3570174970015248E7 ; 1.4071358547754977E7 ; 1.379029237934941E9 ; 1.4493499304187646E9 ; 0.0
104 ; 1.356011999624788E7 ; 1.4071358547754977E7 ; 1.3925994129049563E9 ; 1.4634212889665196E9 ; 0.0
105 ; 1.35485584910174E7 ; 1.4071358547754977E7 ; 1.406159532901204E9 ; 1.4774926475142746E9 ; 0.0
106 ; 1.3545281856021367E7 ; 1.4071358547754977E7 ; 1.4197080913922215E9 ; 1.4915640060620296E9 ; 0.0
107 ; 1.3536314794190971E7 ; 1.4071358547754977E7 ; 1.4332533732482429E9 ; 1.5056353646097846E9 ; 0.0
108 ; 1.3528438014705997E7 ; 1.4071358547754977E7 ; 1.4467896880424337E9 ; 1.5197067231575396E9 ; 0.0
109 ; 1.3523774649622004E7 ; 1.4071358547754977E7 ; 1.4603181260571396E9 ; 1.5337780817052946E9 ; 0.0
110 ; 1.3513319445367392E7 ; 1.4071358547754977E7 ; 1.4738419007067616E9 ; 1.5478494402530496E9 ; 0.0
111 ; 1.3505437897212755E7 ; 1.4071358547754977E7 ; 1.487355220152129E9 ; 1.5619207988008046E9 ; 0.0
112 ; 1.3494682594299162E7 ; 1.4071358547754977E7 ; 1.5008606580493417E9 ; 1.5759921573485596E9 ; 0.0
113 ; 1.348828384140932E7 ; 1.4071358547754977E7 ; 1.5143553406436408E9 ; 1.5900635158963146E9 ; 0.0
114 ; 1.3479331839765495E7 ; 1.4071358547754977E7 ; 1.52784362448505E9 ; 1.6041348744440696E9 ; 0.0
115 ; 1.3469278246742047E7 ; 1.4071358547754977E7 ; 1.5413229563248155E9 ; 1.6182062329918246E9 ; 0.0
116 ; 1.346006204681202E7 ; 1.4071358547754977E7 ; 1.5547922345715575E9 ; 1.6322775915395796E9 ; 0.0
117 ; 1.3453601468113815E7 ; 1.4071358547754977E7 ; 1.5682522966183696E9 ; 1.6463489500873346E9 ; 0.0
118 ; 1.3441045121005824E7 ; 1.4071358547754977E7 ; 1.5817058980864835E9 ; 1.6604203086350896E9 ; 0.0
119 ; 1.3434737787147406E7 ; 1.4071358547754977E7 ; 1.5951469432074893E9 ; 1.6744916671828446E9 ; 0.0
120 ; 1.3423971773114681E7 ; 1.4071358547754977E7 ; 1.6085816809946368E9 ; 1.6885630257305996E9 ; 0.0
121 ; 1.3413302422259932E7 ; 1.4071358547754977E7 ; 1.6220056527677515E9 ; 1.7026343842783546E9 ; 0.0
122 ; 1.3408134598025994E7 ; 1.4071358547754977E7 ; 1.6354189551900115E9 ; 1.7167057428261096E9 ; 0.0
123 ; 1.3397898271708598E7 ; 1.4071358547754977E7 ; 1.6488270897880375E9 ; 1.7307771013738647E9 ; 0.0
124 ; 1.338564831967464E7 ; 1.4071358547754977E7 ; 1.662224988059746E9 ; 1.7448484599216197E9 ; 0.0
125 ; 1.3375516151779389E7 ; 1.4071358547754977E7 ; 1.6756106363794208E9 ; 1.7589198184693747E9 ; 0.0
126 ; 1.3361503638926296E7 ; 1.4071358547754977E7 ; 1.6889861525312002E9 ; 1.7729911770171297E9 ; 0.0
127 ; 1.335468358302982E7 ; 1.4071358547754977E7 ; 1.7023476561701264E9 ; 1.7870625355648847E9 ; 0.0
128 ; 1.3343474434477665E7 ; 1.4071358547754977E7 ; 1.7157023397531562E9 ; 1.8011338941126397E9 ; 0.0
129 ; 1.3332139005260423E7 ; 1.4071358547754977E7 ; 1.7290458141876338E9 ; 1.8152052526603947E9 ; 0.0
130 ; 1.3320243058371983E7 ; 1.4071358547754977E7 ; 1.7423779531928942E9 ; 1.8292766112081497E9 ; 0.0
131 ; 1.3304601276390985E7 ; 1.4071358547754977E7 ; 1.7556981962512662E9 ; 1.8433479697559047E9 ; 0.0
132 ; 1.3290524650178894E7 ; 1.4071358547754977E7 ; 1.7690027975276573E9 ; 1.8574193283036597E9 ; 0.0
133 ; 1.3275188920039313E7 ; 1.4071358547754977E7 ; 1.7822933221778362E9 ; 1.8714906868514147E9 ; 0.0
134 ; 1.326272924531656E7 ; 1.4071358547754977E7 ; 1.7955685110978756E9 ; 1.8855620453991697E9 ; 0.0
135 ; 1.3243050959182631E7 ; 1.4071358547754977E7 ; 1.808831240343192E9 ; 1.8996334039469247E9 ; 0.0
136 ; 1.3228449950816292E7 ; 1.4071358547754977E7 ; 1.8220742913023748E9 ; 1.9137047624946797E9 ; 0.0
137 ; 1.321175682619741E7 ; 1.4071358547754977E7 ; 1.8353027412531912E9 ; 1.9277761210424347E9 ; 0.0
138 ; 1.3195952434562834E7 ; 1.4071358547754977E7 ; 1.8485144980793886E9 ; 1.9418474795901897E9 ; 0.0
139 ; 1.3178714668398498E7 ; 1.4071358547754977E7 ; 1.8617104505139515E9 ; 1.9559188381379447E9 ; 0.0
140 ; 1.3167177456634574E7 ; 1.4071358547754977E7 ; 1.87488916518235E9 ; 1.9699901966856997E9 ; 0.0
141 ; 1.3148184659473106E7 ; 1.4071358547754977E7 ; 1.8880563426389844E9 ; 1.9840615552334547E9 ; 0.0
142 ; 1.3131464173750704E7 ; 1.4071358547754977E7 ; 1.9012045272984576E9 ; 1.9981329137812097E9 ; 0.0
143 ; 1.3114099302958012E7 ; 1.4071358547754977E7 ; 1.9143359914722083E9 ; 2.0122042723289647E9 ; 0.0
144 ; 1.3095920139446182E7 ; 1.4071358547754977E7 ; 1.9274500907751663E9 ; 2.0262756308767197E9 ; 0.0
145 ; 1.3085930394698894E7 ; 1.4071358547754977E7 ; 1.9405460109146125E9 ; 2.0403469894244747E9 ; 0.0
146 ; 1.307022113015122E7 ; 1.4071358547754977E7 ; 1.9536319413093114E9 ; 2.0544183479722297E9 ; 0.0
147 ; 1.3063603000495853E7 ; 1.4071358547754977E7 ; 1.9667021624394627E9 ; 2.0684897065199847E9 ; 0.0
148 ; 1.3049029938853152E7 ; 1.4071358547754977E7 ; 1.9797657654399586E9 ; 2.0825610650677397E9 ; 0.0
149 ; 1.3040002874850832E7 ; 1.4071358547754977E7 ; 1.9928147953788118E9 ; 2.0966324236154947E9 ; 0.0
150 ; 1.3025308785336662E7 ; 1.4071358547754977E7 ; 2.0058547982536626E9 ; 2.1107037821632497E9 ; 0.0
151 ; 1.3016434816203048E7 ; 1.4071358547754977E7 ; 2.0188801070389993E9 ; 2.1247751407110047E9 ; 0.0
152 ; 1.3006609773535227E7 ; 1.4071358547754977E7 ; 2.0318965418552024E9 ; 2.1388464992587597E9 ; 0.0
153 ; 1.2990833069444397E7 ; 1.4071358547754977E7 ; 2.0449031516287377E9 ; 2.1529178578065147E9 ; 0.0
154 ; 1.2980557136109281E7 ; 1.4071358547754977E7 ; 2.057893984698182E9 ; 2.1669892163542695E9 ; 0.0
155 ; 1.2967879167099874E7 ; 1.4071358547754977E7 ; 2.0708745418342915E9 ; 2.1810605749020243E9 ; 0.0
156 ; 1.2958083965596309E7 ; 1.4071358547754977E7 ; 2.0838424210013914E9 ; 2.195131933449779E9 ; 0.0
157 ; 1.2943448462019395E7 ; 1.4071358547754977E7 ; 2.0968005049669876E9 ; 2.209203291997534E9 ; 0.0
158 ; 1.293257130671725E7 ; 1.4071358547754977E7 ; 2.109743953429007E9 ; 2.2232746505452886E9 ; 0.0
159 ; 1.292157894613877E7 ; 1.4071358547754977E7 ; 2.1226765247357242E9 ; 2.2373460090930433E9 ; 0.0
160 ; 1.290920685274243E7 ; 1.4071358547754977E7 ; 2.135598103681863E9 ; 2.251417367640798E9 ; 0.0
161 ; 1.2896161364432821E7 ; 1.4071358547754977E7 ; 2.1485073105346055E9 ; 2.265488726188553E9 ; 0.0
162 ; 1.2881821069741314E7 ; 1.4071358547754977E7 ; 2.1614034718990383E9 ; 2.2795600847363076E9 ; 0.0
163 ; 1.2870146402801951E7 ; 1.4071358547754977E7 ; 2.1742852929687796E9 ; 2.2936314432840624E9 ; 0.0
164 ; 1.2857854350179007E7 ; 1.4071358547754977E7 ; 2.1871554393715816E9 ; 2.307702801831817E9 ; 0.0
165 ; 1.2844656169207066E7 ; 1.4071358547754977E7 ; 2.2000132937217607E9 ; 2.321774160379572E9 ; 0.0
166 ; 1.2832963182741445E7 ; 1.4071358547754977E7 ; 2.212857949890968E9 ; 2.3358455189273267E9 ; 0.0
167 ; 1.281719605640956E7 ; 1.4071358547754977E7 ; 2.2256909130737095E9 ; 2.3499168774750814E9 ; 0.0
168 ; 1.2807423758082615E7 ; 1.4071358547754977E7 ; 2.238508109130119E9 ; 2.363988236022836E9 ; 0.0
169 ; 1.2795034718903998E7 ; 1.4071358547754977E7 ; 2.251315532888201E9 ; 2.378059594570591E9 ; 0.0
170 ; 1.2780515383781258E7 ; 1.4071358547754977E7 ; 2.2641105676071053E9 ; 2.3921309531183457E9 ; 0.0
171 ; 1.2768080837280773E7 ; 1.4071358547754977E7 ; 2.2768910829908867E9 ; 2.4062023116661005E9 ; 0.0
172 ; 1.2755227502520204E7 ; 1.4071358547754977E7 ; 2.2896591638281674E9 ; 2.4202736702138553E9 ; 0.0
173 ; 1.2746440697532356E7 ; 1.4071358547754977E7 ; 2.3024143913306875E9 ; 2.43434502876161E9 ; 0.0
174 ; 1.2735224796727477E7 ; 1.4071358547754977E7 ; 2.3151608320282197E9 ; 2.448416387309365E9 ; 0.0
175 ; 1.2729018786935888E7 ; 1.4071358547754977E7 ; 2.3278960568249474E9 ; 2.4624877458571196E9 ; 0.0
176 ; 1.2721290339009598E7 ; 1.4071358547754977E7 ; 2.340625075611883E9 ; 2.4765591044048743E9 ; 0.0
177 ; 1.271167926013643E7 ; 1.4071358547754977E7 ; 2.353346365950893E9 ; 2.490630462952629E9 ; 0.0
178 ; 1.2703768485200867E7 ; 1.4071358547754977E7 ; 2.3660580452110295E9 ; 2.504701821500384E9 ; 0.0
179 ; 1.2697443522358114E7 ; 1.4071358547754977E7 ; 2.3787618136962304E9 ; 2.5187731800481386E9 ; 0.0
180 ; 1.2692041599319372E7 ; 1.4071358547754977E7 ; 2.3914592572185884E9 ; 2.5328445385958934E9 ; 0.0
181 ; 1.268146610586126E7 ; 1.4071358547754977E7 ; 2.404151298817908E9 ; 2.546915897143648E9 ; 0.0
182 ; 1.2672862639812034E7 ; 1.4071358547754977E7 ; 2.416832764923769E9 ; 2.560987255691403E9 ; 0.0
183 ; 1.2664092767174322E7 ; 1.4071358547754977E7 ; 2.429505627563581E9 ; 2.5750586142391577E9 ; 0.0
184 ; 1.2657663405789563E7 ; 1.4071358547754977E7 ; 2.442169720330755E9 ; 2.5891299727869124E9 ; 0.0
185 ; 1.264958703870261E7 ; 1.4071358547754977E7 ; 2.4548273837365446E9 ; 2.603201331334667E9 ; 0.0
186 ; 1.2640643012358606E7 ; 1.4071358547754977E7 ; 2.467476970775247E9 ; 2.617272689882422E9 ; 0.0
187 ; 1.2634465277268155E7 ; 1.4071358547754977E7 ; 2.480117613787606E9 ; 2.6313440484301767E9 ; 0.0
188 ; 1.262744770596397E7 ; 1.4071358547754977E7 ; 2.4927520790648737E9 ; 2.6454154069779315E9 ; 0.0
189 ; 1.2619312414535772E7 ; 1.4071358547754977E7 ; 2.505379526770838E9 ; 2.6594867655256863E9 ; 0.0
190 ; 1.2610015044692045E7 ; 1.4071358547754977E7 ; 2.517998839185374E9 ; 2.673558124073441E9 ; 0.0
191 ; 1.2604731394101672E7 ; 1.4071358547754977E7 ; 2.530608854230066E9 ; 2.687629482621196E9 ; 0.0
192 ; 1.2594559353128957E7 ; 1.4071358547754977E7 ; 2.5432135856241674E9 ; 2.7017008411689506E9 ; 0.0
193 ; 1.2585611281624796E7 ; 1.4071358547754977E7 ; 2.5558081449772964E9 ; 2.7157721997167053E9 ; 0.0
194 ; 1.2579562524100697E7 ; 1.4071358547754977E7 ; 2.568393756258921E9 ; 2.72984355826446E9 ; 0.0
195 ; 1.256881065285316E7 ; 1.4071358547754977E7 ; 2.580973318783022E9 ; 2.743914916812215E9 ; 0.0
