CSV File for the City 6 on Day 113
1 - Minute m 
2 - Power Consumed at minute m 
3 - Power Produced at minute m 
4 - Energy Consumed since the beginning of the day 
5 - Energy Produced since the beginning of the day 
6 - Energy Lost since the beginning of the day on lines starting from the city
 
0 ; 1.1262327104274506E7 ; 1.061560474250277E8 ; 0.0 ; 0.0 ; 0.0
1 ; 1.127119220330868E7 ; 1.0630695816135359E8 ; 1.1262327104274506E7 ; 1.061560474250277E8 ; 0.0
2 ; 1.1283805134497449E7 ; 1.0676685917069915E8 ; 2.2533519307583183E7 ; 2.124630055863813E8 ; 0.0
3 ; 1.1300400609500041E7 ; 1.0753575393366557E8 ; 3.381732444208063E7 ; 3.1922986475708044E8 ; 0.0
4 ; 1.1315997486618964E7 ; 1.0861364556653589E8 ; 4.5117725051580675E7 ; 4.26765618690746E8 ; 0.0
5 ; 1.1339942569019508E7 ; 1.1000053680501145E8 ; 5.643372253819964E7 ; 5.353792642572819E8 ; 0.0
6 ; 1.136405329288122E7 ; 1.1169642998967782E8 ; 6.777366510721914E7 ; 6.453798010622933E8 ; 0.0
7 ; 1.1401647824820817E7 ; 1.13701327053379E8 ; 7.913771840010037E7 ; 7.570762310519711E8 ; 0.0
8 ; 1.1455689664875485E7 ; 1.1601522951065761E8 ; 9.053936622492118E7 ; 8.7077755810535E8 ; 0.0
9 ; 1.1536813100722741E7 ; 1.1863813844939625E8 ; 1.0199505588979667E8 ; 9.867927876160076E8 ; 0.0
10 ; 1.1659980769325338E7 ; 1.2157005452476698E8 ; 1.1353186899051942E8 ; 1.105430926065404E9 ; 0.0
11 ; 1.185671895376995E7 ; 1.2481097795556912E8 ; 1.2519184975984475E8 ; 1.2270009805901709E9 ; 0.0
12 ; 1.217940989110716E7 ; 1.2836090852300331E8 ; 1.370485687136147E8 ; 1.35181195854574E9 ; 0.0
13 ; 1.2478222336642385E7 ; 1.322198455718975E8 ; 1.4922797860472187E8 ; 1.4801728670687432E9 ; 0.0
14 ; 1.2520692771552801E7 ; 1.363877880143692E8 ; 1.6170620094136426E8 ; 1.6123927126406407E9 ; 0.0
15 ; 1.2530162089236962E7 ; 1.4086473433587563E8 ; 1.7422689371291706E8 ; 1.74878050065501E9 ; 0.0
16 ; 1.254731112635367E7 ; 1.4565068260357293E8 ; 1.8675705580215403E8 ; 1.8896452349908857E9 ; 0.0
17 ; 1.2561110882122772E7 ; 1.5074563047687545E8 ; 1.9930436692850772E8 ; 2.0352959175944586E9 ; 0.0
18 ; 1.2577966850522907E7 ; 1.5614957522008187E8 ; 2.118654778106305E8 ; 2.186041548071334E9 ; 0.0
19 ; 1.2594948546077143E7 ; 1.6186251371690908E8 ; 2.244434446611534E8 ; 2.3421911232914157E9 ; 0.0
20 ; 1.2605050868390411E7 ; 1.6788444248675606E8 ; 2.3703839320723054E8 ; 2.5040536370083246E9 ; 0.0
21 ; 1.2621628580903659E7 ; 1.7421535770250323E8 ; 2.4964344407562095E8 ; 2.6719380794950805E9 ; 0.0
22 ; 1.2640216483424718E7 ; 1.8085525520964223E8 ; 2.622650726565246E8 ; 2.8461534371975837E9 ; 0.0
23 ; 1.2653997885551777E7 ; 1.8780413054652005E8 ; 2.749052891399493E8 ; 3.027008692407226E9 ; 0.0
24 ; 1.2669269642316263E7 ; 1.950619789654805E8 ; 2.875592870255011E8 ; 3.2148128229537463E9 ; 0.0
25 ; 1.2685131585987797E7 ; 2.0131683635286862E8 ; 3.0022855666781735E8 ; 3.4098748019192266E9 ; 0.0
26 ; 1.2699737208627962E7 ; 2.0132224528821045E8 ; 3.1291368825380516E8 ; 3.611191638272095E9 ; 0.0
27 ; 1.2714269127418596E7 ; 2.0132796959165806E8 ; 3.256134254624331E8 ; 3.8125138835603056E9 ; 0.0
28 ; 1.27275908355146E7 ; 2.0133400359336165E8 ; 3.383276945898517E8 ; 4.0138418531519637E9 ; 0.0
29 ; 1.2742893905747274E7 ; 2.0134034144918835E8 ; 3.510552854253663E8 ; 4.2151758567453256E9 ; 0.0
30 ; 1.2759327037827816E7 ; 2.0134697716289797E8 ; 3.637981793311136E8 ; 4.416516198194514E9 ; 0.0
31 ; 1.2771704960520906E7 ; 2.013539046078658E8 ; 3.7655750636894137E8 ; 4.617863175357412E9 ; 0.0
32 ; 1.2783050928535054E7 ; 2.013611175482142E8 ; 3.893292113294623E8 ; 4.819217079965279E9 ; 0.0
33 ; 1.2796607165583704E7 ; 2.0136860965923214E8 ; 4.0211226225799733E8 ; 5.020578197513493E9 ; 0.0
34 ; 1.2813533594016086E7 ; 2.0137637454698002E8 ; 4.1490886942358106E8 ; 5.221946807172725E9 ; 0.0
35 ; 1.2823748332585989E7 ; 2.013844057669937E8 ; 4.2772240301759714E8 ; 5.423323181719705E9 ; 0.0
36 ; 1.2837509072700849E7 ; 2.013926968420202E8 ; 4.405461513501831E8 ; 5.624707587486698E9 ; 0.0
37 ; 1.2849123299682677E7 ; 2.0140124127873257E8 ; 4.53383660422884E8 ; 5.826100284328718E9 ; 0.0
38 ; 1.285990255921193E7 ; 2.014100325833876E8 ; 4.6623278372256666E8 ; 6.0275015256074505E9 ; 0.0
39 ; 1.2866812459905086E7 ; 2.0141906427640414E8 ; 4.790926862817786E8 ; 6.228911558190838E9 ; 0.0
40 ; 1.2882144523623783E7 ; 2.014283299058523E8 ; 4.9195949874168366E8 ; 6.430330622467242E9 ; 0.0
41 ; 1.2893556071252294E7 ; 2.0143782305985615E8 ; 5.048416432653074E8 ; 6.631758952373095E9 ; 0.0
42 ; 1.2900504511265691E7 ; 2.0144753737792268E8 ; 5.177351993365597E8 ; 6.833196775432951E9 ; 0.0
43 ; 1.2912047779836794E7 ; 2.0145746656121796E8 ; 5.306357038478254E8 ; 7.034644312810874E9 ; 0.0
44 ; 1.2921304119386552E7 ; 2.0146760438182023E8 ; 5.435477516276622E8 ; 7.236101779372092E9 ; 0.0
45 ; 1.2926712018049002E7 ; 2.014779446909848E8 ; 5.564690557470487E8 ; 7.437569383753913E9 ; 0.0
46 ; 1.293591303047236E7 ; 2.0148848142646185E8 ; 5.693957677650977E8 ; 7.639047328444898E9 ; 0.0
47 ; 1.29431386596306E7 ; 2.0149920861891115E8 ; 5.823316807955701E8 ; 7.84053580987136E9 ; 0.0
48 ; 1.294593558505406E7 ; 2.0151012039746144E8 ; 5.952748194552008E8 ; 8.042035018490271E9 ; 0.0
49 ; 1.2953899624254523E7 ; 2.015212109944636E8 ; 6.082207550402548E8 ; 8.2435451388877325E9 ; 0.0
50 ; 1.2956748586338235E7 ; 2.0153247474948886E8 ; 6.211746546645093E8 ; 8.445066349882196E9 ; 0.0
51 ; 1.2961491417135218E7 ; 2.0154390611262262E8 ; 6.341314032508476E8 ; 8.646598824631685E9 ; 0.0
52 ; 1.2971239967729572E7 ; 2.0155549964710492E8 ; 6.470928946679828E8 ; 8.848142730744308E9 ; 0.0
53 ; 1.2974786246981919E7 ; 2.015672500313683E8 ; 6.600641346357124E8 ; 9.049698230391413E9 ; 0.0
54 ; 1.2976962031905938E7 ; 2.0157915206052154E8 ; 6.730389208826942E8 ; 9.251265480422781E9 ; 0.0
55 ; 1.2985655575684492E7 ; 2.0159120064732763E8 ; 6.860158829146001E8 ; 9.452844632483303E9 ; 0.0
56 ; 1.2982154979381045E7 ; 2.016033908227209E8 ; 6.990015384902847E8 ; 9.65443583313063E9 ; 0.0
57 ; 1.299224851608096E7 ; 2.0161571773590803E8 ; 7.119836934696658E8 ; 9.856039223953352E9 ; 0.0
58 ; 1.2995817369076448E7 ; 2.0162817665409443E8 ; 7.249759419857467E8 ; 1.005765494168926E10 ; 0.0
59 ; 1.3001801529133093E7 ; 2.016407629618748E8 ; 7.379717593548232E8 ; 1.0259283118343355E10 ; 0.0
60 ; 1.300182929948078E7 ; 2.016534721603255E8 ; 7.509735608839563E8 ; 1.046092388130523E10 ; 0.0
61 ; 1.3010390146047132E7 ; 2.016662998658333E8 ; 7.639753901834371E8 ; 1.0662577353465555E10 ; 0.0
62 ; 1.3011233264633728E7 ; 2.0167924180869266E8 ; 7.769857803294842E8 ; 1.0864243653331388E10 ; 0.0
63 ; 1.3015936535275456E7 ; 2.0169229383150136E8 ; 7.89997013594118E8 ; 1.1065922895140081E10 ; 0.0
64 ; 1.3017004641398355E7 ; 2.0170545188738275E8 ; 8.030129501293935E8 ; 1.1267615188971582E10 ; 0.0
65 ; 1.3020404845236797E7 ; 2.0171871203805926E8 ; 8.160299547707918E8 ; 1.1469320640858965E10 ; 0.0
66 ; 1.3023427987632932E7 ; 2.017320704518013E8 ; 8.290503596160285E8 ; 1.1671039352897024E10 ; 0.0
67 ; 1.3026553893023307E7 ; 2.0174552340127212E8 ; 8.420737876036615E8 ; 1.1872771423348825E10 ; 0.0
68 ; 1.303024523913646E7 ; 2.0175906726128888E8 ; 8.551003414966848E8 ; 1.2074516946750097E10 ; 0.0
69 ; 1.3034617412144758E7 ; 2.0177269850651658E8 ; 8.681305867358212E8 ; 1.2276276014011387E10 ; 0.0
70 ; 1.3037619920986429E7 ; 2.0178641370911148E8 ; 8.81165204147966E8 ; 1.2478048712517904E10 ; 0.0
71 ; 1.3040937022733359E7 ; 2.0180020953632775E8 ; 8.942028240689524E8 ; 1.2679835126227016E10 ; 0.0
72 ; 1.3043168626129165E7 ; 2.0181408274810043E8 ; 9.072437610916858E8 ; 1.2881635335763344E10 ; 0.0
73 ; 1.304366736232358E7 ; 2.0182803019461605E8 ; 9.202869297178149E8 ; 1.3083449418511444E10 ; 0.0
74 ; 1.3048054119180204E7 ; 2.0184204881388083E8 ; 9.333305970801384E8 ; 1.328527744870606E10 ; 0.0
75 ; 1.3048024381050289E7 ; 2.018561356292956E8 ; 9.463786511993186E8 ; 1.3487119497519941E10 ; 0.0
76 ; 1.3050931374874575E7 ; 2.0187028774724528E8 ; 9.59426675580369E8 ; 1.3688975633149237E10 ; 0.0
77 ; 1.3058799822771102E7 ; 2.018845023547097E8 ; 9.724776069552436E8 ; 1.3890845920896482E10 ; 0.0
78 ; 1.3052922071864748E7 ; 2.0189877671690172E8 ; 9.855364067780147E8 ; 1.4092730423251192E10 ; 0.0
79 ; 1.3049689303977216E7 ; 2.0191310817493773E8 ; 9.985893288498794E8 ; 1.4294629199968094E10 ; 0.0
80 ; 1.3049979329017155E7 ; 2.0192749414354518E8 ; 1.0116390181538566E9 ; 1.4496542308143032E10 ; 0.0
81 ; 1.3047289193061752E7 ; 2.0194193210881054E8 ; 1.0246889974828738E9 ; 1.4698469802286577E10 ; 0.0
82 ; 1.3042389304181986E7 ; 2.0195641962597093E8 ; 1.0377362866759355E9 ; 1.4900411734395388E10 ; 0.0
83 ; 1.304288796827164E7 ; 2.019709543172518E8 ; 1.0507786759801174E9 ; 1.5102368154021358E10 ; 0.0
84 ; 1.3041436404430581E7 ; 2.019855338697531E8 ; 1.063821563948389E9 ; 1.530433910833861E10 ; 0.0
85 ; 1.303771037225965E7 ; 2.0200015603338513E8 ; 1.0768630003528197E9 ; 1.5506324642208363E10 ; 0.0
86 ; 1.3035261314438049E7 ; 2.0201481861885548E8 ; 1.0899007107250793E9 ; 1.5708324798241747E10 ; 0.0
87 ; 1.303357042236248E7 ; 2.020295194957078E8 ; 1.1029359720395174E9 ; 1.5910339616860603E10 ; 0.0
88 ; 1.3028420491000762E7 ; 2.0204425659041345E8 ; 1.11596954246188E9 ; 1.6112369136356312E10 ; 0.0
89 ; 1.30242468121287E7 ; 2.0205902788451526E8 ; 1.1289979629528806E9 ; 1.6314413392946726E10 ; 0.0
90 ; 1.302754863448527E7 ; 2.0207383141282472E8 ; 1.1420222097650094E9 ; 1.6516472420831242E10 ; 0.0
91 ; 1.302218204380048E7 ; 2.0208866526167157E8 ; 1.1550497583994946E9 ; 1.6718546252244066E10 ; 0.0
92 ; 1.3019249337048303E7 ; 2.0210352756720564E8 ; 1.1680719404432952E9 ; 1.6920634917505737E10 ; 0.0
93 ; 1.3015719272748956E7 ; 2.021184165137505E8 ; 1.1810911897803435E9 ; 1.7122738445072943E10 ; 0.0
94 ; 1.3011987475581609E7 ; 2.0213333033220842E8 ; 1.1941069090530925E9 ; 1.7324856861586693E10 ; 0.0
95 ; 1.3009255856159287E7 ; 2.0214826729851568E8 ; 1.2071188965286741E9 ; 1.75269901919189E10 ; 0.0
96 ; 1.3005581572134955E7 ; 2.0216322573214713E8 ; 1.2201281523848333E9 ; 1.7729138459217415E10 ; 0.0
97 ; 1.3002718925595341E7 ; 2.0217820399466985E8 ; 1.2331337339569683E9 ; 1.7931301684949562E10 ; 0.0
98 ; 1.2995099523014672E7 ; 2.0219320048834413E8 ; 1.2461364528825636E9 ; 1.8133479888944233E10 ; 0.0
99 ; 1.2994290855441576E7 ; 2.0220821365477097E8 ; 1.2591315524055784E9 ; 1.8335673089432575E10 ; 0.0
100 ; 1.2989404183172548E7 ; 2.0222324197358522E8 ; 1.27212584326102E9 ; 1.8537881303087345E10 ; 0.0
101 ; 1.2987589380473506E7 ; 2.0223828396119288E8 ; 1.2851152474441924E9 ; 1.8740104545060932E10 ; 0.0
102 ; 1.2981747935493538E7 ; 2.022533381695517E8 ; 1.298102836824666E9 ; 1.8942342829022125E10 ; 0.0
103 ; 1.297728688311728E7 ; 2.0226840318499374E8 ; 1.3110845847601595E9 ; 1.9144596167191677E10 ; 0.0
104 ; 1.2969645844502414E7 ; 2.0228347762708864E8 ; 1.3240618716432767E9 ; 1.934686457037667E10 ; 0.0
105 ; 1.2970401293841526E7 ; 2.0229856014754668E8 ; 1.3370315174877791E9 ; 1.954914804800376E10 ; 0.0
106 ; 1.2961718369189125E7 ; 2.0231364942916024E8 ; 1.3500019187816207E9 ; 1.9751446608151306E10 ; 0.0
107 ; 1.2959594331353758E7 ; 2.023287441847825E8 ; 1.3629636371508098E9 ; 1.9953760257580467E10 ; 0.0
108 ; 1.295443805010401E7 ; 2.0234384315634233E8 ; 1.3759232314821634E9 ; 2.015608900176525E10 ; 0.0
109 ; 1.294879188771887E7 ; 2.023589451138941E8 ; 1.3888776695322673E9 ; 2.0358432844921593E10 ; 0.0
110 ; 1.2943195583782135E7 ; 2.0237404885470128E8 ; 1.4018264614199862E9 ; 2.056079179003549E10 ; 0.0
111 ; 1.2938697088771224E7 ; 2.0238915320235282E8 ; 1.4147696570037684E9 ; 2.076316583889019E10 ; 0.0
112 ; 1.2930939317194536E7 ; 2.024042570059112E8 ; 1.4277083540925398E9 ; 2.0965554992092545E10 ; 0.0
113 ; 1.2926619530481575E7 ; 2.0241935913909096E8 ; 1.4406392934097342E9 ; 2.1167959249098457E10 ; 0.0
114 ; 1.2921550336164499E7 ; 2.0243445849946666E8 ; 1.4535659129402158E9 ; 2.137037860823755E10 ; 0.0
115 ; 1.2914149913010532E7 ; 2.0244955400770956E8 ; 1.4664874632763803E9 ; 2.1572813066737015E10 ; 0.0
116 ; 1.2912206951947302E7 ; 2.0246464460685158E8 ; 1.479401613189391E9 ; 2.1775262620744724E10 ; 0.0
117 ; 1.2904938515777279E7 ; 2.0247972926157582E8 ; 1.492313820141338E9 ; 2.1977727265351578E10 ; 0.0
118 ; 1.2897099816587057E7 ; 2.0249480695753282E8 ; 1.5052187586571155E9 ; 2.2180206994613155E10 ; 0.0
119 ; 1.2892455852768721E7 ; 2.0250987670068127E8 ; 1.5181158584737024E9 ; 2.2382701801570686E10 ; 0.0
120 ; 1.2885358000038875E7 ; 2.0252493751665264E8 ; 1.531008314326471E9 ; 2.2585211678271366E10 ; 0.0
121 ; 1.2877835309572807E7 ; 2.025399884501386E8 ; 1.54389367232651E9 ; 2.2787736615788017E10 ; 0.0
122 ; 1.287287784085283E7 ; 2.0255502856430078E8 ; 1.5567715076360826E9 ; 2.2990276604238155E10 ; 0.0
123 ; 1.2868314428955464E7 ; 2.0257005694020143E8 ; 1.5696443854769354E9 ; 2.3192831632802456E10 ; 0.0
124 ; 1.2858830037686074E7 ; 2.0258507267625502E8 ; 1.582512699905891E9 ; 2.3395401689742657E10 ; 0.0
125 ; 1.2854447833979929E7 ; 2.0260007488769904E8 ; 1.595371529943577E9 ; 2.359798676241891E10 ; 0.0
126 ; 1.284667737709057E7 ; 2.026150627060845E8 ; 1.608225977777557E9 ; 2.380058683730661E10 ; 0.0
127 ; 1.2841932037053779E7 ; 2.0263003527878398E8 ; 1.6210726551546474E9 ; 2.4003201900012695E10 ; 0.0
128 ; 1.283210040560185E7 ; 2.02644991768518E8 ; 1.6339145871917012E9 ; 2.420583193529148E10 ; 0.0
129 ; 1.2826958801617835E7 ; 2.0265993135289785E8 ; 1.646746687597303E9 ; 2.4408476927059998E10 ; 0.0
130 ; 1.2806027002044706E7 ; 2.026748532239851E8 ; 1.6595736463989208E9 ; 2.4611136858412895E10 ; 0.0
131 ; 1.2779385973847942E7 ; 2.026897565878667E8 ; 1.6723796734009655E9 ; 2.481381171163688E10 ; 0.0
132 ; 1.2747718173110241E7 ; 2.027046406642451E8 ; 1.6851590593748133E9 ; 2.5016501468224747E10 ; 0.0
133 ; 1.2724152863594508E7 ; 2.027195046860433E8 ; 1.6979067775479236E9 ; 2.5219206108888992E10 ; 0.0
134 ; 1.2692205522643676E7 ; 2.0273434789902353E8 ; 1.710630930411518E9 ; 2.5421925613575035E10 ; 0.0
135 ; 1.26649989402777E7 ; 2.0274916956141984E8 ; 1.7233231359341617E9 ; 2.562465996147406E10 ; 0.0
136 ; 1.2637733181364497E7 ; 2.027639689435833E8 ; 1.7359881348744395E9 ; 2.582740913103548E10 ; 0.0
137 ; 1.2611831313644761E7 ; 2.0277874532764006E8 ; 1.748625868055804E9 ; 2.6030173099979065E10 ; 0.0
138 ; 1.2581464621549996E7 ; 2.027934980071611E8 ; 1.7612376993694487E9 ; 2.6232951845306705E10 ; 0.0
139 ; 1.255332386589333E7 ; 2.0280822628684413E8 ; 1.7738191639909987E9 ; 2.6435745343313866E10 ; 0.0
140 ; 1.2523962697193101E7 ; 2.02822929482206E8 ; 1.786372487856892E9 ; 2.6638553569600708E10 ; 0.0
141 ; 1.2498854784216465E7 ; 2.0283760691928628E8 ; 1.7988964505540853E9 ; 2.6841376499082912E10 ; 0.0
142 ; 1.2471842587767962E7 ; 2.0285225793436125E8 ; 1.8113953053383017E9 ; 2.7044214106002197E10 ; 0.0
143 ; 1.2442713083237415E7 ; 2.0286688187366742E8 ; 1.8238671479260697E9 ; 2.7247066363936558E10 ; 0.0
144 ; 1.2409201183830319E7 ; 2.028814780931351E8 ; 1.8363098610093071E9 ; 2.7449933245810226E10 ; 0.0
145 ; 1.2389192801867915E7 ; 2.0289604595813102E8 ; 1.8487190621931374E9 ; 2.7652814723903362E10 ; 0.0
146 ; 1.2364745997446174E7 ; 2.0291058484320974E8 ; 1.8611082549950054E9 ; 2.7855710769861492E10 ; 0.0
147 ; 1.2337428765580645E7 ; 2.029250941318739E8 ; 1.8734730009924514E9 ; 2.80586213547047E10 ; 0.0
148 ; 1.2316495308696385E7 ; 2.0293957321634236E8 ; 1.885810429758032E9 ; 2.8261546448836575E10 ; 0.0
149 ; 1.2293302661966601E7 ; 2.029540214973266E8 ; 1.8981269250667284E9 ; 2.8464486022052917E10 ; 0.0
150 ; 1.2267334910596088E7 ; 2.0296843838381472E8 ; 1.910420227728695E9 ; 2.8667440043550243E10 ; 0.0
151 ; 1.2243942935473246E7 ; 2.0298282329286256E8 ; 1.922687562639291E9 ; 2.887040848193406E10 ; 0.0
152 ; 1.222050733866966E7 ; 2.029971756493922E8 ; 1.9349315055747643E9 ; 2.907339130522692E10 ; 0.0
153 ; 1.2190504376312902E7 ; 2.030114948859972E8 ; 1.947152012913434E9 ; 2.9276388480876312E10 ; 0.0
154 ; 1.217138904335195E7 ; 2.0302578044275445E8 ; 1.959342517289747E9 ; 2.947939997576231E10 ; 0.0
155 ; 1.2150100221482096E7 ; 2.030400317670423E8 ; 1.971513906333099E9 ; 2.9682425756205063E10 ; 0.0
156 ; 1.2121045355458798E7 ; 2.030542483133649E8 ; 1.983664006554581E9 ; 2.9885465787972107E10 ; 0.0
157 ; 1.2099633687771777E7 ; 2.0306842954318228E8 ; 1.9957850519100397E9 ; 3.0088520036285473E10 ; 0.0
158 ; 1.2073309046760384E7 ; 2.030825749247465E8 ; 2.0078846855978115E9 ; 3.0291588465828655E10 ; 0.0
159 ; 1.2050010151723709E7 ; 2.0309668393294272E8 ; 2.0199579946445718E9 ; 3.0494671040753403E10 ; 0.0
160 ; 1.2028236708686009E7 ; 2.0311075604913592E8 ; 2.0320080047962954E9 ; 3.0697767724686344E10 ; 0.0
161 ; 1.200161993480256E7 ; 2.0312479076102275E8 ; 2.0440362415049815E9 ; 3.090087848073548E10 ; 0.0
162 ; 1.1976184041200925E7 ; 2.0313878756248802E8 ; 2.056037861439784E9 ; 3.1104003271496506E10 ; 0.0
163 ; 1.1947697779989552E7 ; 2.0315274595346615E8 ; 2.068014045480985E9 ; 3.1307142059058994E10 ; 0.0
164 ; 1.1927735312141947E7 ; 2.0316666543980706E8 ; 2.0799617432609744E9 ; 3.151029480501246E10 ; 0.0
165 ; 1.1906236208924802E7 ; 2.031805455331465E8 ; 2.0918894785731163E9 ; 3.1713461470452267E10 ; 0.0
166 ; 1.188095988501209E7 ; 2.0319438575078076E8 ; 2.103795714782041E9 ; 3.1916642015985413E10 ; 0.0
167 ; 1.1852498110388285E7 ; 2.0320818561554518E8 ; 2.1156766746670532E9 ; 3.2119836401736195E10 ; 0.0
168 ; 1.1830166586638762E7 ; 2.032219446556968E8 ; 2.1275291727774415E9 ; 3.2323044587351738E10 ; 0.0
169 ; 1.1803857862643925E7 ; 2.0323566240480095E8 ; 2.1393593393640802E9 ; 3.2526266532007435E10 ; 0.0
170 ; 1.1779217363258991E7 ; 2.032493384016212E8 ; 2.151163197226724E9 ; 3.2729502194412235E10 ; 0.0
171 ; 1.1752328787125763E7 ; 2.0326297219001314E8 ; 2.162942414589983E9 ; 3.2932751532813858E10 ; 0.0
172 ; 1.173311183026662E7 ; 2.0327656331882143E8 ; 2.1746947433771086E9 ; 3.3136014505003872E10 ; 0.0
173 ; 1.1709314784266569E7 ; 2.0329011134178028E8 ; 2.186427855207375E9 ; 3.3339291068322693E10 ; 0.0
174 ; 1.168281693188132E7 ; 2.0330361581741685E8 ; 2.1981371699916415E9 ; 3.3542581179664474E10 ; 0.0
175 ; 1.1658409811384842E7 ; 2.0331707630895823E8 ; 2.209819986923523E9 ; 3.374588479548189E10 ; 0.0
176 ; 1.163798821518046E7 ; 2.0333049238424084E8 ; 2.2214783967349076E9 ; 3.394920187179085E10 ; 0.0
177 ; 1.1621267447264109E7 ; 2.033438636156231E8 ; 2.233116384950088E9 ; 3.415253236417509E10 ; 0.0
178 ; 1.1601439728264352E7 ; 2.0335718957990068E8 ; 2.244737652397352E9 ; 3.4355876227790714E10 ; 0.0
179 ; 1.1577418858944034E7 ; 2.033704698582246E8 ; 2.2563390921256166E9 ; 3.455923341737061E10 ; 0.0
180 ; 1.1556423884969566E7 ; 2.033837040360216E8 ; 2.2679165109845605E9 ; 3.4762603887228836E10 ; 0.0
181 ; 1.153125952362992E7 ; 2.0339689170291743E8 ; 2.27947293486953E9 ; 3.4965987591264854E10 ; 0.0
182 ; 1.1513596838472743E7 ; 2.0341003245266223E8 ; 2.2910041943931603E9 ; 3.516938448296777E10 ; 0.0
183 ; 1.1488767080822123E7 ; 2.0342312588305846E8 ; 2.302517791231633E9 ; 3.537279451542043E10 ; 0.0
184 ; 1.1469009016510144E7 ; 2.0343617159589085E8 ; 2.314006558312455E9 ; 3.557621764130349E10 ; 0.0
185 ; 1.1444907243355894E7 ; 2.0344916919685885E8 ; 2.325475567328965E9 ; 3.577965381289938E10 ; 0.0
186 ; 1.1429730760267083E7 ; 2.034621182955109E8 ; 2.336920474572321E9 ; 3.5983102982096245E10 ; 0.0
187 ; 1.1403877702540983E7 ; 2.0347501850518078E8 ; 2.348350205332588E9 ; 3.6186565100391754E10 ; 0.0
188 ; 1.1383685048473012E7 ; 2.034878694429263E8 ; 2.359754083035129E9 ; 3.6390040118896935E10 ; 0.0
189 ; 1.1363256382672423E7 ; 2.035006707294692E8 ; 2.371137768083602E9 ; 3.659352798833986E10 ; 0.0
190 ; 1.1340096091912428E7 ; 2.0351342198913768E8 ; 2.3825010244662743E9 ; 3.679702865906933E10 ; 0.0
191 ; 1.1319466926474916E7 ; 2.0352612284980997E8 ; 2.3938411205581865E9 ; 3.7000542081058464E10 ; 0.0
192 ; 1.1301789765238134E7 ; 2.0353877294286028E8 ; 2.4051605874846616E9 ; 3.720406820390827E10 ; 0.0
193 ; 1.1273954621148126E7 ; 2.035513719031059E8 ; 2.4164623772499E9 ; 3.7407606976851135E10 ; 0.0
194 ; 1.1254109430453587E7 ; 2.035639193687563E8 ; 2.427736331871048E9 ; 3.761115834875424E10 ; 0.0
195 ; 1.1235001757488007E7 ; 2.035764149813634E8 ; 2.4389904413015018E9 ; 3.7814722268123E10 ; 0.0
