CSV File for the City 4 on Day 172
1 - Minute m 
2 - Power Consumed at minute m 
3 - Power Produced at minute m 
4 - Energy Consumed since the beginning of the day 
5 - Energy Produced since the beginning of the day 
6 - Energy Lost since the beginning of the day on lines starting from the city
 
0 ; 2136863.2484891987 ; 1.0611969087776735E8 ; 0.0 ; 0.0 ; 0.0
1 ; 2143662.0049136993 ; 1.0627019368336606E8 ; 2136863.2484891987 ; 1.0611969087776735E8 ; 0.0
2 ; 2146978.20065138 ; 1.0672972660024217E8 ; 4280525.253402898 ; 2.123898845611334E8 ; 0.0
3 ; 2153789.699366208 ; 1.0749829410369676E8 ; 6427503.454054277 ; 3.191196111613756E8 ; 0.0
4 ; 2160675.053276182 ; 1.085759002101894E8 ; 8581293.153420486 ; 4.2661790526507235E8 ; 0.0
5 ; 2173034.5544354524 ; 1.0996254845313752E8 ; 1.0741968206696667E7 ; 5.3519380547526175E8 ; 0.0
6 ; 2187883.9919378534 ; 1.1165824186118034E8 ; 1.291500276113212E7 ; 6.451563539283993E8 ; 0.0
7 ; 2211875.4938140763 ; 1.1366298293921435E8 ; 1.5102886753069973E7 ; 7.568145957895796E8 ; 0.0
8 ; 2243895.1104883295 ; 1.1597677365247452E8 ; 1.7314762246884048E7 ; 8.70477578728794E8 ; 0.0
9 ; 2292035.5700481227 ; 1.1859961541389579E8 ; 1.9558657357372377E7 ; 9.864543523812685E8 ; 0.0
10 ; 2370768.4587191925 ; 1.215315090749461E8 ; 2.18506929274205E7 ; 1.1050539677951643E9 ; 0.0
11 ; 2489175.87024778 ; 1.2477245492006865E8 ; 2.4221461386139695E7 ; 1.2265854768701105E9 ; 0.0
12 ; 2686056.333408332 ; 1.2832245266482022E8 ; 2.6710637256387476E7 ; 1.3513579317901793E9 ; 0.0
13 ; 2874313.563010344 ; 1.3218150145773286E8 ; 2.939669358979581E7 ; 1.4796803844549994E9 ; 0.0
14 ; 2899867.7916979445 ; 1.363495998858717E8 ; 3.227100715280615E7 ; 1.6118618859127324E9 ; 0.0
15 ; 2904154.331181405 ; 1.408267459840017E8 ; 3.51708749445041E7 ; 1.748211485798604E9 ; 0.0
16 ; 2914965.246510545 ; 1.4561293724722645E8 ; 3.8075029275685504E7 ; 1.8890382317826056E9 ; 0.0
17 ; 2921314.7980500176 ; 1.5070817064690664E8 ; 4.098999452219605E7 ; 2.0346511690298321E9 ; 0.0
18 ; 2928258.0884359004 ; 1.5611244264962488E8 ; 4.391130932024606E7 ; 2.1853593396767387E9 ; 0.0
19 ; 2936717.5901358193 ; 1.618257492389216E8 ; 4.683956740868197E7 ; 2.3414717823263636E9 ; 0.0
20 ; 2944778.64239358 ; 1.678480859394957E8 ; 4.977628499881779E7 ; 2.503297531565285E9 ; 0.0
21 ; 2953300.048398348 ; 1.741794478435395E8 ; 5.272106364121137E7 ; 2.671145617504781E9 ; 0.0
22 ; 2961475.112316023 ; 1.8081982963885856E8 ; 5.5674363689609714E7 ; 2.8453250653483205E9 ; 0.0
23 ; 2968610.814857229 ; 1.8776922563842148E8 ; 5.863583880192573E7 ; 3.026144894987179E9 ; 0.0
24 ; 2975738.167271593 ; 1.9502762981097937E8 ; 6.160444961678296E7 ; 3.2139141206256003E9 ; 0.0
25 ; 2985891.177571328 ; 2.0128307671058813E8 ; 6.4580187784054555E7 ; 3.4089417504365797E9 ; 0.0
26 ; 2993607.780373509 ; 2.0128910754521888E8 ; 6.756607896162589E7 ; 3.6102248271471677E9 ; 0.0
27 ; 3002296.9894661857 ; 2.012954847334318E8 ; 7.05596867419994E7 ; 3.8115139346923866E9 ; 0.0
28 ; 3008036.80382155 ; 2.0130220118267182E8 ; 7.35619837314656E7 ; 4.0128094194258184E9 ; 0.0
29 ; 3014498.954942324 ; 2.0130924961351708E8 ; 7.657002053528714E7 ; 4.2141116206084905E9 ; 0.0
30 ; 3022008.0970141264 ; 2.01316622589915E8 ; 7.958451949022947E7 ; 4.415420870222008E9 ; 0.0
31 ; 3030916.075141523 ; 2.0132431254843634E8 ; 8.26065275872436E7 ; 4.616737492811923E9 ; 0.0
32 ; 3036778.94105875 ; 2.0133231182636234E8 ; 8.563744366238512E7 ; 4.818061805360359E9 ; 0.0
33 ; 3043439.946409437 ; 2.013406126884531E8 ; 8.867422260344388E7 ; 5.019394117186722E9 ; 0.0
34 ; 3050458.7480628183 ; 2.0134920735227406E8 ; 9.171766254985331E7 ; 5.2207347298751745E9 ; 0.0
35 ; 3056510.4509553625 ; 2.013580880119886E8 ; 9.476812129791613E7 ; 5.422083937227448E9 ; 0.0
36 ; 3061977.9945517546 ; 2.0136724686055154E8 ; 9.782463174887149E7 ; 5.623442025239437E9 ; 0.0
37 ; 3070137.694692091 ; 2.0137667611026385E8 ; 1.0088660974342324E8 ; 5.824809272099989E9 ; 0.0
38 ; 3075114.6530146627 ; 2.0138636801167294E8 ; 1.0395674743811533E8 ; 6.026185948210253E9 ; 0.0
39 ; 3082462.8653195626 ; 2.0139631487082252E8 ; 1.0703186209112999E8 ; 6.227572316221926E9 ; 0.0
40 ; 3086683.443068895 ; 2.0140650906487456E8 ; 1.1011432495644955E8 ; 6.428968631092749E9 ; 0.0
41 ; 3089085.534963691 ; 2.014169430561415E8 ; 1.1320100839951845E8 ; 6.630375140157623E9 ; 0.0
42 ; 3096902.7649405487 ; 2.0142760940457928E8 ; 1.1629009393448214E8 ; 6.831792083213765E9 ; 0.0
43 ; 3099630.8504601195 ; 2.0143850077880302E8 ; 1.1938699669942269E8 ; 7.033219692618344E9 ; 0.0
44 ; 3103070.4774555 ; 2.0144960996569407E8 ; 1.224866275498828E8 ; 7.234658193397147E9 ; 0.0
45 ; 3109916.564409524 ; 2.0146092987867516E8 ; 1.255896980273383E8 ; 7.436107803362842E9 ; 0.0
46 ; 3113117.541059051 ; 2.0147245356473297E8 ; 1.2869961459174782E8 ; 7.637568733241517E9 ; 0.0
47 ; 3113799.0036462815 ; 2.01484174210271E8 ; 1.3181273213280687E8 ; 7.83904118680625E9 ; 0.0
48 ; 3118869.227344392 ; 2.0149608514587688E8 ; 1.3492653113645315E8 ; 8.0405253610165205E9 ; 0.0
49 ; 3122376.3673926983 ; 2.0150817985008726E8 ; 1.3804540036379755E8 ; 8.242021446162397E9 ; 0.0
50 ; 3124193.897262353 ; 2.0152045195223355E8 ; 1.4116777673119023E8 ; 8.443529626012485E9 ; 0.0
51 ; 3126046.367533405 ; 2.0153289523444903E8 ; 1.442919706284526E8 ; 8.645050077964718E9 ; 0.0
52 ; 3123487.474476281 ; 2.015455036329149E8 ; 1.47418016995986E8 ; 8.846582973199167E9 ; 0.0
53 ; 3128064.1450771578 ; 2.0155827123842078E8 ; 1.505415044704623E8 ; 9.048128476832083E9 ; 0.0
54 ; 3130536.758899654 ; 2.0157119229631028E8 ; 1.5366956861553946E8 ; 9.249686748070503E9 ; 0.0
55 ; 3130451.8598777154 ; 2.0158426120587906E8 ; 1.5680010537443912E8 ; 9.451257940366814E9 ; 0.0
56 ; 3133629.55773969 ; 2.0159747251928848E8 ; 1.5993055723431683E8 ; 9.652842201572693E9 ; 0.0
57 ; 3135892.9095594594 ; 2.0161082094005388E8 ; 1.630641867920565E8 ; 9.854439674091982E9 ; 0.0
58 ; 3137573.168142993 ; 2.0162430132116225E8 ; 1.6620007970161596E8 ; 1.0056050495032036E10 ; 0.0
59 ; 3137611.972662763 ; 2.016379086628696E8 ; 1.6933765286975896E8 ; 1.0257674796353199E10 ; 0.0
60 ; 3141929.2877633893 ; 2.016516381102249E8 ; 1.7247526484242174E8 ; 1.045931270501607E10 ; 0.0
61 ; 3142846.973326221 ; 2.0166548495036277E8 ; 1.7561719413018513E8 ; 1.0660964343126295E10 ; 0.0
62 ; 3139854.6540223905 ; 2.0167944460960415E8 ; 1.7876004110351133E8 ; 1.0862629828076658E10 ; 0.0
63 ; 3143565.6286027585 ; 2.016935126503993E8 ; 1.8189989575753373E8 ; 1.1064309272686262E10 ; 0.0
64 ; 3142358.2111667558 ; 2.0170768476814583E8 ; 1.850434613861365E8 ; 1.1266002785336662E10 ; 0.0
65 ; 3143237.7932607443 ; 2.0172195678790942E8 ; 1.8818581959730327E8 ; 1.1467710470104809E10 ; 0.0
66 ; 3144691.9155290187 ; 2.0173632466107333E8 ; 1.9132905739056402E8 ; 1.1669432426892717E10 ; 0.0
67 ; 3148613.9451303394 ; 2.0175078446193895E8 ; 1.9447374930609304E8 ; 1.1871168751553791E10 ; 0.0
68 ; 3147147.737976909 ; 2.0176533238429797E8 ; 1.976223632512234E8 ; 1.207291953601573E10 ; 0.0
69 ; 3149294.2491515176 ; 2.0177996473799375E8 ; 2.007695109892003E8 ; 1.2274684868400028E10 ; 0.0
70 ; 3148125.798398259 ; 2.017946779454872E8 ; 2.0391880523835182E8 ; 1.2476464833138021E10 ; 0.0
71 ; 3152133.734974745 ; 2.018094685384413E8 ; 2.0706693103675008E8 ; 1.267825951108351E10 ; 0.0
72 ; 3152773.1442356003 ; 2.0182433315433553E8 ; 2.1021906477172482E8 ; 1.288006897962195E10 ; 0.0
73 ; 3153755.7552402862 ; 2.0183926853312066E8 ; 2.1337183791596043E8 ; 1.3081893312776285E10 ; 0.0
74 ; 3154192.251632554 ; 2.0185427151392233E8 ; 2.1652559367120072E8 ; 1.3283732581309406E10 ; 0.0
75 ; 3155960.0863775616 ; 2.0186933903180078E8 ; 2.1967978592283326E8 ; 1.3485586852823328E10 ; 0.0
76 ; 3154243.1616684226 ; 2.0188446811457285E8 ; 2.2283574600921082E8 ; 1.368745619185513E10 ; 0.0
77 ; 3153120.3254943783 ; 2.018996558797012E8 ; 2.2598998917087924E8 ; 1.3889340659969702E10 ; 0.0
78 ; 3153785.045073186 ; 2.0191489953125468E8 ; 2.2914310949637362E8 ; 1.4091240315849403E10 ; 0.0
79 ; 3152018.654311273 ; 2.0193019635694334E8 ; 2.322968945414468E8 ; 1.4293155215380657E10 ; 0.0
80 ; 3146895.200144973 ; 2.0194554372523004E8 ; 2.3544891319575807E8 ; 1.44950854117376E10 ; 0.0
81 ; 3147864.1178351645 ; 2.0196093908252096E8 ; 2.3859580839590305E8 ; 1.469703095546283E10 ; 0.0
82 ; 3142377.8142534457 ; 2.0197637995043567E8 ; 2.4174367251373821E8 ; 1.4898991894545351E10 ; 0.0
83 ; 3144544.330827917 ; 2.019918639231576E8 ; 2.4488605032799166E8 ; 1.5100968274495787E10 ; 0.0
84 ; 3141427.5332885566 ; 2.020073886648654E8 ; 2.480305946588196E8 ; 1.5302960138418943E10 ; 0.0
85 ; 3139285.5125889094 ; 2.0202295190724432E8 ; 2.5117202219210815E8 ; 1.5504967527083809E10 ; 0.0
86 ; 3136662.7734627635 ; 2.0203855144707787E8 ; 2.5431130770469707E8 ; 1.5706990478991053E10 ; 0.0
87 ; 3132594.9874897036 ; 2.020541851439184E8 ; 2.5744797047815984E8 ; 1.5909029030438131E10 ; 0.0
88 ; 3130461.056432792 ; 2.0206985091783568E8 ; 2.6058056546564955E8 ; 1.611108321558205E10 ; 0.0
89 ; 3128696.3115878087 ; 2.0208554674724242E8 ; 2.6371102652208233E8 ; 1.6313153066499886E10 ; 0.0
90 ; 3124446.226343784 ; 2.0210127066679507E8 ; 2.6683972283367014E8 ; 1.6515238613247128E10 ; 0.0
91 ; 3121019.020674429 ; 2.021170207653683E8 ; 2.6996416906001395E8 ; 1.6717339883913923E10 ; 0.0
92 ; 3121730.5104683777 ; 2.0213279518410188E8 ; 2.7308518808068836E8 ; 1.691945690467929E10 ; 0.0
93 ; 3114050.1774649406 ; 2.0214859211451754E8 ; 2.762069185911567E8 ; 1.7121589699863392E10 ; 0.0
94 ; 3113709.7792544924 ; 2.021644097967047E8 ; 2.793209687686217E8 ; 1.732373829197791E10 ; 0.0
95 ; 3111138.455507638 ; 2.0218024651757255E8 ; 2.824346785478762E8 ; 1.7525902701774612E10 ; 0.0
96 ; 3108528.341443309 ; 2.0219610060916692E8 ; 2.855458170033838E8 ; 1.7728082948292187E10 ; 0.0
97 ; 3106633.9604752962 ; 2.0221197044705E8 ; 2.886543453448271E8 ; 1.7930279048901352E10 ; 0.0
98 ; 3103085.946858484 ; 2.0222785444874063E8 ; 2.9176097930530244E8 ; 1.81324910193484E10 ; 0.0
99 ; 3102201.401250307 ; 2.0224375107221374E8 ; 2.948640652521609E8 ; 1.8334718873797142E10 ; 0.0
100 ; 3097930.653449411 ; 2.0225965881445646E8 ; 2.979662666534112E8 ; 1.8536962624869354E10 ; 0.0
101 ; 3093391.095549899 ; 2.022755762100794E8 ; 3.010641973068606E8 ; 1.873922228368381E10 ; 0.0
102 ; 3094080.618970668 ; 2.0229150182998097E8 ; 3.041575884024105E8 ; 1.894149785989389E10 ; 0.0
103 ; 3088331.677086748 ; 2.0230743428006285E8 ; 3.072516690213812E8 ; 1.9143789361723873E10 ; 0.0
104 ; 3085591.9874499897 ; 2.0232337219999522E8 ; 3.1034000069846797E8 ; 1.9346096796003937E10 ; 0.0
105 ; 3078339.780652976 ; 2.023393142620291E8 ; 3.13425592685918E8 ; 1.9548420168203934E10 ; 0.0
106 ; 3075641.6403818424 ; 2.0235525916985515E8 ; 3.16503932466571E8 ; 1.975075948246596E10 ; 0.0
107 ; 3076042.4622487347 ; 2.0237120565750608E8 ; 3.195795741069528E8 ; 1.995311474163582E10 ; 0.0
108 ; 3071179.94346953 ; 2.0238715248830208E8 ; 3.226556165692015E8 ; 2.0155485947293324E10 ; 0.0
109 ; 3068803.1785557806 ; 2.024030984538369E8 ; 3.2572679651267105E8 ; 2.0357873099781624E10 ; 0.0
110 ; 3063638.534976883 ; 2.024190423730032E8 ; 3.2879559969122684E8 ; 2.0560276198235462E10 ; 0.0
111 ; 3060423.8542798245 ; 2.0243498309105605E8 ; 3.3185923822620374E8 ; 2.0762695240608467E10 ; 0.0
112 ; 3056652.9452558802 ; 2.024509194787124E8 ; 3.3491966208048356E8 ; 2.0965130223699524E10 ; 0.0
113 ; 3052632.4192554895 ; 2.0246685043128595E8 ; 3.3797631502573943E8 ; 2.1167581143178238E10 ; 0.0
114 ; 3050302.1888719588 ; 2.0248277486785498E8 ; 3.410289474449949E8 ; 2.1370047993609524E10 ; 0.0
115 ; 3043295.2492440427 ; 2.0249869173046318E8 ; 3.440792496338669E8 ; 2.157253076847738E10 ; 0.0
116 ; 3041630.7239432815 ; 2.0251459998335078E8 ; 3.4712254488311094E8 ; 2.1775029460207844E10 ; 0.0
117 ; 3038062.705047571 ; 2.0253049861221588E8 ; 3.5016417560705423E8 ; 2.1977544060191196E10 ; 0.0
118 ; 3032460.0854784236 ; 2.0254638662350404E8 ; 3.532022383121018E8 ; 2.2180074558803413E10 ; 0.0
119 ; 3028874.491876971 ; 2.0256226304372555E8 ; 3.562346983975802E8 ; 2.2382620945426918E10 ; 0.0
120 ; 3026651.3843968394 ; 2.0257812691879877E8 ; 3.5926357288945717E8 ; 2.2585183208470642E10 ; 0.0
121 ; 3019878.3579840334 ; 2.0259397731341898E8 ; 3.62290224273854E8 ; 2.2787761335389442E10 ; 0.0
122 ; 3016158.470809808 ; 2.0260981331045118E8 ; 3.65310102631838E8 ; 2.299035531270286E10 ; 0.0
123 ; 3011037.7714804597 ; 2.0262563401034647E8 ; 3.6832626110264784E8 ; 2.3192965126013313E10 ; 0.0
124 ; 3006402.191979721 ; 2.026414385305806E8 ; 3.713372988741283E8 ; 2.339559076002366E10 ; 0.0
125 ; 3000999.1772609404 ; 2.026572260051139E8 ; 3.74343701066108E8 ; 2.359823219855424E10 ; 0.0
126 ; 3000672.6040522163 ; 2.0267299558387202E8 ; 3.773447002433689E8 ; 2.3800889424559357E10 ; 0.0
127 ; 2991231.274324565 ; 2.0268874643224606E8 ; 3.8034537284742117E8 ; 2.400356242014323E10 ; 0.0
128 ; 2990773.5060356106 ; 2.0270447773061195E8 ; 3.833366041217457E8 ; 2.4206251166575478E10 ; 0.0
129 ; 2983990.004727207 ; 2.02720188673868E8 ; 3.8632737762778133E8 ; 2.440895564430609E10 ; 0.0
130 ; 2978022.8903610003 ; 2.0273587847098956E8 ; 3.893113676325085E8 ; 2.4611675832979958E10 ; 0.0
131 ; 2971893.2014042446 ; 2.0275154634460086E8 ; 3.922893905228695E8 ; 2.4814411711450947E10 ; 0.0
132 ; 2964431.848096165 ; 2.027671915305627E8 ; 3.952612837242738E8 ; 2.5017163257795547E10 ; 0.0
133 ; 2957941.9307402233 ; 2.0278281327757555E8 ; 3.9822571557237E8 ; 2.521993044932611E10 ; 0.0
134 ; 2950108.329489726 ; 2.027984108467976E8 ; 4.0118365750311023E8 ; 2.5422713262603687E10 ; 0.0
135 ; 2941139.6547418237 ; 2.028139835114768E8 ; 4.0413376583259994E8 ; 2.5625511673450485E10 ; 0.0
136 ; 2936252.2332358696 ; 2.028295305565969E8 ; 4.0707490548734176E8 ; 2.5828325656961964E10 ; 0.0
137 ; 2926223.958548502 ; 2.0284505127853623E8 ; 4.1001115772057766E8 ; 2.6031155187518562E10 ; 0.0
138 ; 2919240.3525584955 ; 2.028605449847392E8 ; 4.1293738167912614E8 ; 2.62340002387971E10 ; 0.0
139 ; 2908599.776976081 ; 2.0287601099340007E8 ; 4.1585662203168464E8 ; 2.6436860783781837E10 ; 0.0
140 ; 2902781.0314917923 ; 2.0289144863315797E8 ; 4.1876522180866075E8 ; 2.6639736794775238E10 ; 0.0
141 ; 2897023.33460611 ; 2.029068572428033E8 ; 4.2166800284015256E8 ; 2.6842628243408398E10 ; 0.0
142 ; 2888411.757951119 ; 2.0292223617099488E8 ; 4.245650261747587E8 ; 2.70455351006512E10 ; 0.0
143 ; 2882634.423762745 ; 2.0293758477598712E8 ; 4.274534379327098E8 ; 2.7248457336822193E10 ; 0.0
144 ; 2873137.7642253656 ; 2.029529024253673E8 ; 4.3033607235647255E8 ; 2.745139492159818E10 ; 0.0
145 ; 2869611.726261181 ; 2.0296818849580225E8 ; 4.332092101206979E8 ; 2.7654347824023544E10 ; 0.0
146 ; 2865943.990388427 ; 2.0298344237279424E8 ; 4.360788218469591E8 ; 2.785731601251935E10 ; 0.0
147 ; 2857837.4627897115 ; 2.0299866345044535E8 ; 4.3894476583734757E8 ; 2.8060299454892143E10 ; 0.0
148 ; 2854615.069961806 ; 2.030138511312307E8 ; 4.418026033001373E8 ; 2.826329811834259E10 ; 0.0
149 ; 2847926.313846563 ; 2.0302900482577938E8 ; 4.4465721837009907E8 ; 2.846631196947382E10 ; 0.0
150 ; 2843961.8747016205 ; 2.030441239526633E8 ; 4.4750514468394566E8 ; 2.86693409742996E10 ; 0.0
151 ; 2839146.5653362754 ; 2.0305920793819368E8 ; 4.503491065586473E8 ; 2.8872385098252262E10 ; 0.0
152 ; 2835285.6699777064 ; 2.0307425621622443E8 ; 4.5318825312398356E8 ; 2.9075444306190456E10 ; 0.0
153 ; 2831108.584337619 ; 2.0308926822796273E8 ; 4.560235387939613E8 ; 2.927851856240668E10 ; 0.0
154 ; 2824342.991061076 ; 2.0310424342178604E8 ; 4.588546473782989E8 ; 2.9481607830634644E10 ; 0.0
155 ; 2817866.0202418673 ; 2.0311918125306562E8 ; 4.6167899036935997E8 ; 2.968471207405643E10 ; 0.0
156 ; 2812606.647655584 ; 2.0313408118399626E8 ; 4.644968563896018E8 ; 2.9887831255309498E10 ; 0.0
157 ; 2808539.397893614 ; 2.0314894268343177E8 ; 4.6730946303725743E8 ; 3.0090965336493496E10 ; 0.0
158 ; 2803458.717353789 ; 2.031637652267263E8 ; 4.7011800243515104E8 ; 3.029411427917693E10 ; 0.0
159 ; 2797961.7480174615 ; 2.031785482955811E8 ; 4.729214611525048E8 ; 3.0497278044403656E10 ; 0.0
160 ; 2792559.4298843383 ; 2.0319329137789658E8 ; 4.757194229005223E8 ; 3.0700456592699238E10 ; 0.0
161 ; 2789311.9518140047 ; 2.0320799396762934E8 ; 4.785119823304066E8 ; 3.0903649884077133E10 ; 0.0
162 ; 2783111.243547248 ; 2.0322265556465426E8 ; 4.813012942822206E8 ; 3.110685787804476E10 ; 0.0
163 ; 2777176.443639601 ; 2.0323727567463124E8 ; 4.8408440552576786E8 ; 3.1310080533609417E10 ; 0.0
164 ; 2771841.4623533087 ; 2.0325185380887637E8 ; 4.8686158196940744E8 ; 3.151331780928405E10 ; 0.0
165 ; 2767150.3574870327 ; 2.0326638948423752E8 ; 4.896334234317607E8 ; 3.1716569663092926E10 ; 0.0
166 ; 2760962.2068758095 ; 2.0328088222297436E8 ; 4.9240057378924775E8 ; 3.1919836052577164E10 ; 0.0
167 ; 2758136.1408070996 ; 2.0329533155264196E8 ; 4.9516153599612355E8 ; 3.2123116934800137E10 ; 0.0
168 ; 2750098.7274608593 ; 2.033097370059788E8 ; 4.9791967213693064E8 ; 3.232641226635278E10 ; 0.0
169 ; 2745451.6394693903 ; 2.033240981207982E8 ; 5.006697708643915E8 ; 3.2529722003358757E10 ; 0.0
170 ; 2740611.7062315545 ; 2.0333841443988347E8 ; 5.034152225038609E8 ; 3.2733046101479557E10 ; 0.0
171 ; 2734919.690476568 ; 2.033526855108866E8 ; 5.061558342100924E8 ; 3.293638451591944E10 ; 0.0
172 ; 2730139.6214011614 ; 2.0336691088623038E8 ; 5.08890753900569E8 ; 3.313973720143033E10 ; 0.0
173 ; 2726728.1968561113 ; 2.0338109012301344E8 ; 5.116208935219702E8 ; 3.334310411231656E10 ; 0.0
174 ; 2721044.79514861 ; 2.0339522278291887E8 ; 5.143476217188263E8 ; 3.354648520243957E10 ; 0.0
175 ; 2717146.021665037 ; 2.0340930843212557E8 ; 5.170686665139749E8 ; 3.374988042522249E10 ; 0.0
176 ; 2710665.0267875027 ; 2.034233466412225E8 ; 5.1978581253563994E8 ; 3.3953289733654613E10 ; 0.0
177 ; 2708170.1548187747 ; 2.03437336985126E8 ; 5.2249647756242746E8 ; 3.4156713080295837E10 ; 0.0
178 ; 2704604.8556097234 ; 2.0345127904299942E8 ; 5.2520464771724623E8 ; 3.436015041728096E10 ; 0.0
179 ; 2699608.7675766516 ; 2.034651723981758E8 ; 5.2790925257285595E8 ; 3.456360169632396E10 ; 0.0
180 ; 2695431.0631316802 ; 2.0347901663808265E8 ; 5.306088613404326E8 ; 3.476706686872214E10 ; 0.0
181 ; 2691176.4471316957 ; 2.0349281135416955E8 ; 5.333042924035643E8 ; 3.497054588536022E10 ; 0.0
182 ; 2687905.2341847285 ; 2.0350655614183775E8 ; 5.3599546885069597E8 ; 3.517403869671439E10 ; 0.0
183 ; 2685619.8710305323 ; 2.035202506003723E8 ; 5.386833740848807E8 ; 3.537754525285623E10 ; 0.0
184 ; 2680929.542767946 ; 2.0353389433287632E8 ; 5.413689939559113E8 ; 3.5581065503456604E10 ; 0.0
185 ; 2675930.344235904 ; 2.0354748694620723E8 ; 5.440499234986793E8 ; 3.578459939778948E10 ; 0.0
186 ; 2670519.6094016614 ; 2.0356102805091506E8 ; 5.467258538429152E8 ; 3.598814688473569E10 ; 0.0
187 ; 2668841.6203354276 ; 2.0357451726118308E8 ; 5.493963734523169E8 ; 3.6191707912786606E10 ; 0.0
188 ; 2662208.3005664838 ; 2.0358795419476974E8 ; 5.520652150726523E8 ; 3.639528243004779E10 ; 0.0
189 ; 2658141.9574705553 ; 2.0360133847295287E8 ; 5.547274233732188E8 ; 3.659887038424256E10 ; 0.0
190 ; 2654612.8343265057 ; 2.036146697204756E8 ; 5.573855653306893E8 ; 3.6802471722715515E10 ; 0.0
191 ; 2650349.7601301544 ; 2.0362794756549397E8 ; 5.600401781650158E8 ; 3.700608639243599E10 ; 0.0
192 ; 2648602.125870063 ; 2.036411716395259E8 ; 5.62690527925146E8 ; 3.720971434000148E10 ; 0.0
193 ; 2643285.96885886 ; 2.0365434157740232E8 ; 5.653391300510161E8 ; 3.741335551164101E10 ; 0.0
194 ; 2640575.739830532 ; 2.036674570172195E8 ; 5.679824160198749E8 ; 3.761700985321841E10 ; 0.0
195 ; 2633993.610644155 ; 2.0368051760029283E8 ; 5.706229917597054E8 ; 3.782067731023563E10 ; 0.0
196 ; 2632914.3930965946 ; 2.0369352297111222E8 ; 5.732569853703495E8 ; 3.802435782783592E10 ; 0.0
197 ; 2624743.142479099 ; 2.0370647277729878E8 ; 5.758898997634461E8 ; 3.822805135080704E10 ; 0.0
198 ; 2621051.44802377 ; 2.0371936666956306E8 ; 5.785146429059252E8 ; 3.8431757823584335E10 ; 0.0
199 ; 2618189.44487437 ; 2.0373220430166417E8 ; 5.81135694353949E8 ; 3.86354771902539E10 ; 0.0
200 ; 2616692.543021658 ; 1.8354328467940864E8 ; 5.837538837988234E8 ; 3.8839209394555565E10 ; 0.0
