CSV File for the City 6 on Day 346
1 - Minute m 
2 - Power Consumed at minute m 
3 - Power Produced at minute m 
4 - Energy Consumed since the beginning of the day 
5 - Energy Produced since the beginning of the day 
6 - Energy Lost since the beginning of the day on lines starting from the city
 
0 ; 1.1179789568129385E7 ; 1.062441697711815E8 ; 0.0 ; 0.0 ; 0.0
1 ; 1.1188022960494189E7 ; 1.0639508778934097E8 ; 1.1179789568129385E7 ; 1.062441697711815E8 ; 0.0
2 ; 1.1203705719443252E7 ; 1.0685499617166272E8 ; 2.2367812528623573E7 ; 2.1263925756052247E8 ; 0.0
3 ; 1.1217811749788165E7 ; 1.0762389812518197E8 ; 3.357151824806683E7 ; 3.194942537321852E8 ; 0.0
4 ; 1.1232352639304454E7 ; 1.087017965177319E8 ; 4.478932999785499E7 ; 4.2711815185736716E8 ; 0.0
5 ; 1.1255246856774358E7 ; 1.1008869386417764E8 ; 5.6021682637159444E7 ; 5.3581994837509906E8 ; 0.0
6 ; 1.1280612319622707E7 ; 1.1178459231414577E8 ; 6.72769294939338E7 ; 6.459086422392766E8 ; 0.0
7 ; 1.1320376500669852E7 ; 1.1378949364138877E8 ; 7.85575418135565E7 ; 7.576932345534225E8 ; 0.0
8 ; 1.137307412510093E7 ; 1.1610339923490614E8 ; 8.987791831422636E7 ; 8.714827281948112E8 ; 0.0
9 ; 1.1452727758436622E7 ; 1.1872631009192663E8 ; 1.0125099243932728E8 ; 9.875861274297173E8 ; 0.0
10 ; 1.157653715930459E7 ; 1.2165822681283432E8 ; 1.127037201977639E8 ; 1.1063124375216439E9 ; 0.0
11 ; 1.1771342578611163E7 ; 1.248991495980995E8 ; 1.242802573570685E8 ; 1.2279706643344781E9 ; 0.0
12 ; 1.2093094142356066E7 ; 1.2844907824725184E8 ; 1.3605159993567964E8 ; 1.3528698139325776E9 ; 0.0
13 ; 1.2396640917940227E7 ; 1.3230801215990728E8 ; 1.481446940780357E8 ; 1.4813188921798294E9 ; 0.0
14 ; 1.243243969976984E7 ; 1.3647595033883715E8 ; 1.6054133499597594E8 ; 1.6136269043397367E9 ; 0.0
15 ; 1.244710577079801E7 ; 1.4095289139504182E8 ; 1.7297377469574577E8 ; 1.7501028546785738E9 ; 0.0
16 ; 1.2461073517318344E7 ; 1.4573883355476895E8 ; 1.8542088046654376E8 ; 1.8910557460736156E9 ; 0.0
17 ; 1.2477960539974233E7 ; 1.5083377466839185E8 ; 1.978819539838621E8 ; 2.0367945796283846E9 ; 0.0
18 ; 1.2488762421511961E7 ; 1.5623771222104543E8 ; 2.1035991452383634E8 ; 2.1876283542967763E9 ; 0.0
19 ; 1.2504226530094562E7 ; 1.6195064334489653E8 ; 2.228486769453483E8 ; 2.343866066517822E9 ; 0.0
20 ; 1.251448023426387E7 ; 1.6797256483290985E8 ; 2.3535290347544286E8 ; 2.505816709862718E9 ; 0.0
21 ; 1.253418308913533E7 ; 1.7430347315395865E8 ; 2.4786738370970672E8 ; 2.673789274695628E9 ; 0.0
22 ; 1.2546127247650517E7 ; 1.8094336446911705E8 ; 2.6040156679884204E8 ; 2.848092747849587E9 ; 0.0
23 ; 1.256161030098317E7 ; 1.8789223464896542E8 ; 2.729476940464926E8 ; 3.029036112318704E9 ; 0.0
24 ; 1.257699675779907E7 ; 1.9515007929173404E8 ; 2.8550930434747577E8 ; 3.2169283469676695E9 ; 0.0
25 ; 1.2591390053712115E7 ; 2.0140493464029422E8 ; 2.9808630110527486E8 ; 3.4120784262594037E9 ; 0.0
26 ; 1.260685160336415E7 ; 2.0141034363835117E8 ; 3.10677691158987E8 ; 3.613483360899698E9 ; 0.0
27 ; 1.2622636361523926E7 ; 2.0141607047496402E8 ; 3.2328454276235116E8 ; 3.8148937045380487E9 ; 0.0
28 ; 1.2634209537310742E7 ; 2.014221098510908E8 ; 3.359071791238751E8 ; 4.016309775013013E9 ; 0.0
29 ; 1.2647802104459032E7 ; 2.0142845629260716E8 ; 3.485413886611858E8 ; 4.217731884864104E9 ; 0.0
30 ; 1.2660622933542741E7 ; 2.014351041699347E8 ; 3.6118919076564485E8 ; 4.419160341156711E9 ; 0.0
31 ; 1.2676726959029825E7 ; 2.014420477173904E8 ; 3.738498136991876E8 ; 4.620595445326645E9 ; 0.0
32 ; 1.2691401926921908E7 ; 2.0144928105213526E8 ; 3.8652654065821743E8 ; 4.822037493044035E9 ; 0.0
33 ; 1.270193447363832E7 ; 2.014567981926138E8 ; 3.9921794258513933E8 ; 5.02348677409617E9 ; 0.0
34 ; 1.2717497105210748E7 ; 2.0146459307638857E8 ; 4.1191987705877763E8 ; 5.224943572288784E9 ; 0.0
35 ; 1.2728120182280593E7 ; 2.0147265957728896E8 ; 4.2463737416398835E8 ; 5.426408165365172E9 ; 0.0
36 ; 1.273615693434453E7 ; 2.014809915218059E8 ; 4.3736549434626895E8 ; 5.627880824942461E9 ; 0.0
37 ; 1.2752215663007103E7 ; 2.014895827046772E8 ; 4.501016512806135E8 ; 5.829361816464267E9 ; 0.0
38 ; 1.2760065110416783E7 ; 2.0149842690362158E8 ; 4.6285386694362056E8 ; 6.030851399168944E9 ; 0.0
39 ; 1.277114438530466E7 ; 2.0150751789319077E8 ; 4.7561393205403733E8 ; 6.232349826072566E9 ; 0.0
40 ; 1.2783995516685087E7 ; 2.0151684945771998E8 ; 4.88385076439342E8 ; 6.433857343965756E9 ; 0.0
41 ; 1.2791750531516777E7 ; 2.0152641540336737E8 ; 5.011690719560271E8 ; 6.635374193423476E9 ; 0.0
42 ; 1.2800114737929944E7 ; 2.015362095692427E8 ; 5.139608224875439E8 ; 6.836900608826843E9 ; 0.0
43 ; 1.2807429209303863E7 ; 2.0154622583763224E8 ; 5.267609372254738E8 ; 7.038436818396086E9 ; 0.0
44 ; 1.2816559574988825E7 ; 2.0155645814333606E8 ; 5.395683664347777E8 ; 7.239983044233718E9 ; 0.0
45 ; 1.2825245255895518E7 ; 2.0156690048213804E8 ; 5.523849260097666E8 ; 7.441539502377054E9 ; 0.0
46 ; 1.2831676430260427E7 ; 2.0157754691843536E8 ; 5.652101712656621E8 ; 7.643106402859192E9 ; 0.0
47 ; 1.2836146288651966E7 ; 2.015883915920585E8 ; 5.780418476959225E8 ; 7.844683949777627E9 ; 0.0
48 ; 1.2841100138711035E7 ; 2.015994287243153E8 ; 5.908779939845744E8 ; 8.046272341369685E9 ; 0.0
49 ; 1.2849366613211147E7 ; 2.0161065262329644E8 ; 6.037190941232855E8 ; 8.247871770094001E9 ; 0.0
50 ; 1.2854038919992812E7 ; 2.0162205768848106E8 ; 6.165684607364967E8 ; 8.449482422717298E9 ; 0.0
51 ; 1.285802022203302E7 ; 2.0163363841468218E8 ; 6.294224996564895E8 ; 8.651104480405779E9 ; 0.0
52 ; 1.2861594505478153E7 ; 2.0164538939537302E8 ; 6.422805198785225E8 ; 8.852738118820461E9 ; 0.0
53 ; 1.286485651473825E7 ; 2.0165730532543525E8 ; 6.551421143840007E8 ; 9.054383508215834E9 ; 0.0
54 ; 1.2865856312268337E7 ; 2.016693810033696E8 ; 6.680069708987389E8 ; 9.25604081354127E9 ; 0.0
55 ; 1.2870589501889339E7 ; 2.0168161133300903E8 ; 6.808728272110072E8 ; 9.45771019454464E9 ; 0.0
56 ; 1.2872215325123016E7 ; 2.0169399132477394E8 ; 6.937434167128966E8 ; 9.65939180587765E9 ; 0.0
57 ; 1.28772676540205E7 ; 2.0170651609650686E8 ; 7.066156320380197E8 ; 9.861085797202423E9 ; 0.0
58 ; 1.288173885855568E7 ; 2.0171918087392378E8 ; 7.194928996920402E8 ; 1.006279231329893E10 ; 0.0
59 ; 1.2885371102952022E7 ; 2.0173198099071684E8 ; 7.323746385505959E8 ; 1.0264511494172853E10 ; 0.0
60 ; 1.2888412639146399E7 ; 2.0174491188834187E8 ; 7.452600096535479E8 ; 1.046624347516357E10 ; 0.0
61 ; 1.2892929110944722E7 ; 2.0175796911552253E8 ; 7.581484222926943E8 ; 1.0667988387051912E10 ; 0.0
62 ; 1.2894801242364723E7 ; 2.0177114832750058E8 ; 7.710413514036391E8 ; 1.0869746356167435E10 ; 0.0
63 ; 1.290011092176626E7 ; 2.0178444528506085E8 ; 7.839361526460038E8 ; 1.1071517504494936E10 ; 0.0
64 ; 1.290102939343759E7 ; 2.0179785585335663E8 ; 7.968362635677701E8 ; 1.1273301949779997E10 ; 0.0
65 ; 1.2904213242134204E7 ; 2.0181137600056002E8 ; 8.097372929612077E8 ; 1.1475099805633354E10 ; 0.0
66 ; 1.2905154128007943E7 ; 2.018250017963602E8 ; 8.22641506203342E8 ; 1.1676911181633915E10 ; 0.0
67 ; 1.2910632945688698E7 ; 2.018387294103301E8 ; 8.355466603313498E8 ; 1.1878736183430275E10 ; 0.0
68 ; 1.2910214538557224E7 ; 2.018525551101811E8 ; 8.484572932770386E8 ; 1.2080574912840605E10 ; 0.0
69 ; 1.2913641347364983E7 ; 2.0186647525992352E8 ; 8.613675078155957E8 ; 1.2282427467950787E10 ; 0.0
70 ; 1.2917553966464592E7 ; 2.018804863179487E8 ; 8.742811491629608E8 ; 1.248429394321071E10 ; 0.0
71 ; 1.2914605643722689E7 ; 2.018945848350479E8 ; 8.871987031294254E8 ; 1.268617442952866E10 ; 0.0
72 ; 1.291694080249379E7 ; 2.0190876745238125E8 ; 9.001133087731481E8 ; 1.2888069014363708E10 ; 0.0
73 ; 1.2921135603193903E7 ; 2.019230308994089E8 ; 9.130302495756419E8 ; 1.308997778181609E10 ; 0.0
74 ; 1.2924261112095982E7 ; 2.0193737199179533E8 ; 9.259513851788357E8 ; 1.3291900812715498E10 ; 0.0
75 ; 1.2921211034714248E7 ; 2.0195178762929666E8 ; 9.388756462909317E8 ; 1.3493838184707293E10 ; 0.0
76 ; 1.2920638764606873E7 ; 2.0196627479364E8 ; 9.517968573256459E8 ; 1.369578997233659E10 ; 0.0
77 ; 1.2923011900918046E7 ; 2.0198083054640225E8 ; 9.647174960902528E8 ; 1.389775624713023E10 ; 0.0
78 ; 1.292259174820819E7 ; 2.019954520268958E8 ; 9.776405079911708E8 ; 1.4099737077676632E10 ; 0.0
79 ; 1.2918716799116155E7 ; 2.0201013645006692E8 ; 9.905630997393789E8 ; 1.4301732529703527E10 ; 0.0
80 ; 1.2913914473090768E7 ; 2.0202488110441253E8 ; 1.0034818165384951E9 ; 1.4503742666153595E10 ; 0.0
81 ; 1.2912916733672585E7 ; 2.0203968334991986E8 ; 1.0163957310115858E9 ; 1.4705767547258007E10 ; 0.0
82 ; 1.2909483336878043E7 ; 2.0205454061603317E8 ; 1.0293086477452585E9 ; 1.4907807230607927E10 ; 0.0
83 ; 1.290959064967942E7 ; 2.0206945039965105E8 ; 1.0422181310821365E9 ; 1.510986177122396E10 ; 0.0
84 ; 1.2903036145295294E7 ; 2.0208441026315752E8 ; 1.0551277217318159E9 ; 1.5311931221623611E10 ; 0.0
85 ; 1.2900554332023535E7 ; 2.0209941783248875E8 ; 1.0680307578771112E9 ; 1.5514015631886768E10 ; 0.0
86 ; 1.2896318932144364E7 ; 2.0211447079523855E8 ; 1.0809313122091348E9 ; 1.5716115049719257E10 ; 0.0
87 ; 1.2891122683240822E7 ; 2.0212956689880338E8 ; 1.0938276311412792E9 ; 1.5918229520514496E10 ; 0.0
88 ; 1.2889845689961994E7 ; 2.021447039485689E8 ; 1.10671875382452E9 ; 1.61203590874133E10 ; 0.0
89 ; 1.2886669457830317E7 ; 2.0215987980613866E8 ; 1.119608599514482E9 ; 1.6322503791361868E10 ; 0.0
90 ; 1.2880587723470055E7 ; 2.0217509238760614E8 ; 1.1324952689723125E9 ; 1.6524663671168007E10 ; 0.0
91 ; 1.2884803596555537E7 ; 2.0219033966187036E8 ; 1.1453758566957824E9 ; 1.6726838763555613E10 ; 0.0
92 ; 1.2873479898855839E7 ; 2.0220561964899537E8 ; 1.158260660292338E9 ; 1.6929029103217484E10 ; 0.0
93 ; 1.287012062802925E7 ; 2.0222093041861418E8 ; 1.1711341401911938E9 ; 1.7131234722866478E10 ; 0.0
94 ; 1.2865472612482574E7 ; 2.0223627008837625E8 ; 1.1840042608192232E9 ; 1.733345565328509E10 ; 0.0
95 ; 1.2859912469703482E7 ; 2.0225163682243937E8 ; 1.1968697334317057E9 ; 1.7535691923373466E10 ; 0.0
96 ; 1.2854950169669628E7 ; 2.022670288300046E8 ; 1.2097296459014091E9 ; 1.7737943560195908E10 ; 0.0
97 ; 1.285205906493857E7 ; 2.0228244436389473E8 ; 1.2225845960710788E9 ; 1.7940210589025913E10 ; 0.0
98 ; 1.28494704700823E7 ; 2.0229788171917483E8 ; 1.2354366551360173E9 ; 1.814249303338981E10 ; 0.0
99 ; 1.2843396293723028E7 ; 2.0231333923181507E8 ; 1.2482861256060996E9 ; 1.8344790915108982E10 ; 0.0
100 ; 1.2835060540627172E7 ; 2.023288152773946E8 ; 1.2611295218998227E9 ; 1.8547104254340797E10 ; 0.0
101 ; 1.2828163345451068E7 ; 2.0234430826984584E8 ; 1.27396458244045E9 ; 1.874943306961819E10 ; 0.0
102 ; 1.2827894966010189E7 ; 2.0235981666023862E8 ; 1.286792745785901E9 ; 1.8951777377888035E10 ; 0.0
103 ; 1.2820703550777055E7 ; 2.023753389356029E8 ; 1.2996206407519112E9 ; 1.9154137194548275E10 ; 0.0
104 ; 1.2815460644357363E7 ; 2.0239087361778942E8 ; 1.3124413443026881E9 ; 1.935651253348388E10 ; 0.0
105 ; 1.2810682557861725E7 ; 2.024064192623677E8 ; 1.3252568049470456E9 ; 1.955890340710167E10 ; 0.0
106 ; 1.280390037664254E7 ; 2.0242197445755956E8 ; 1.3380674875049074E9 ; 1.9761309826364037E10 ; 0.0
107 ; 1.2797854656633276E7 ; 2.0243753782320842E8 ; 1.3508713878815498E9 ; 1.9963731800821594E10 ; 0.0
108 ; 1.2791549493198209E7 ; 2.0245310800978237E8 ; 1.3636692425381832E9 ; 2.0166169338644802E10 ; 0.0
109 ; 1.2785791189792268E7 ; 2.0246868369741073E8 ; 1.3764607920313814E9 ; 2.0368622446654583E10 ; 0.0
110 ; 1.2780195265849665E7 ; 2.024842635949528E8 ; 1.3892465832211735E9 ; 2.0571091130351994E10 ; 0.0
111 ; 1.2770104946504882E7 ; 2.0249984643909815E8 ; 1.402026778487023E9 ; 2.0773575393946945E10 ; 0.0
112 ; 1.2764588074351557E7 ; 2.0251543099349734E8 ; 1.414796883433528E9 ; 2.0976075240386044E10 ; 0.0
113 ; 1.275948455172191E7 ; 2.0253101604792202E8 ; 1.4275614715078795E9 ; 2.117859067137954E10 ; 0.0
114 ; 1.2755143827354793E7 ; 2.025466004174538E8 ; 1.4403209560596013E9 ; 2.138112168742746E10 ; 0.0
115 ; 1.2744618415983511E7 ; 2.0256218294170085E8 ; 1.4530760998869562E9 ; 2.1583668287844913E10 ; 0.0
116 ; 1.2741550707709538E7 ; 2.0257776248404127E8 ; 1.4658207183029397E9 ; 2.1786230470786613E10 ; 0.0
117 ; 1.2734409267264007E7 ; 2.0259333793089244E8 ; 1.4785622690106492E9 ; 2.1988808233270657E10 ; 0.0
118 ; 1.2726046983032042E7 ; 2.0260890819100568E8 ; 1.491296678277913E9 ; 2.219140157120155E10 ; 0.0
119 ; 1.2716625610530188E7 ; 2.0262447219478482E8 ; 1.504022725260945E9 ; 2.2394010479392555E10 ; 0.0
120 ; 1.2709386997761268E7 ; 2.0264002889362884E8 ; 1.5167393508714752E9 ; 2.259663495158734E10 ; 0.0
121 ; 1.270355125018871E7 ; 2.026555772592966E8 ; 1.5294487378692365E9 ; 2.279927498048097E10 ; 0.0
122 ; 1.2696079033565715E7 ; 2.0267111628329405E8 ; 1.5421522891194253E9 ; 2.3001930557740265E10 ; 0.0
123 ; 1.2686851898470841E7 ; 2.0268664497628227E8 ; 1.554848368152991E9 ; 2.320460167402356E10 ; 0.0
124 ; 1.267784200018214E7 ; 2.0270216236750615E8 ; 1.567535220051462E9 ; 2.3407288318999844E10 ; 0.0
125 ; 1.2671986635185746E7 ; 2.0271766750424275E8 ; 1.580213062051644E9 ; 2.360999048136735E10 ; 0.0
126 ; 1.2667936777900333E7 ; 2.0273315945126885E8 ; 1.5928850486868298E9 ; 2.3812708148871593E10 ; 0.0
127 ; 1.2651855862109903E7 ; 2.027486372903468E8 ; 1.60555298546473E9 ; 2.401544130832286E10 ; 0.0
128 ; 1.265039891223007E7 ; 2.0276410011972815E8 ; 1.61820484132684E9 ; 2.421818994561321E10 ; 0.0
129 ; 1.2636306324256383E7 ; 2.0277954705367452E8 ; 1.63085524023907E9 ; 2.4420954045732937E10 ; 0.0
130 ; 1.2625509392208545E7 ; 2.0279497722199482E8 ; 1.6434915465633264E9 ; 2.462373359278661E10 ; 0.0
131 ; 1.2615942262272177E7 ; 2.028103897695987E8 ; 1.656117055955535E9 ; 2.4826528570008606E10 ; 0.0
132 ; 1.2604554482835928E7 ; 2.0282578385606512E8 ; 1.668732998217807E9 ; 2.5029338959778206E10 ; 0.0
133 ; 1.2590998171140792E7 ; 2.0284115865522593E8 ; 1.681337552700643E9 ; 2.523216474363427E10 ; 0.0
134 ; 1.2580202144103698E7 ; 2.0285651335476372E8 ; 1.693928550871784E9 ; 2.5435005902289497E10 ; 0.0
135 ; 1.2564525701079294E7 ; 2.028718471558234E8 ; 1.7065087530158877E9 ; 2.563786241564426E10 ; 0.0
136 ; 1.2553729699866228E7 ; 2.0288715927263725E8 ; 1.719073278716967E9 ; 2.5840734262800083E10 ; 0.0
137 ; 1.2541698195360538E7 ; 2.0290244893216264E8 ; 1.7316270084168334E9 ; 2.604362142207272E10 ; 0.0
138 ; 1.2529435206843304E7 ; 2.029177153737323E8 ; 1.7441687066121938E9 ; 2.6246523871004883E10 ; 0.0
139 ; 1.2513807430705225E7 ; 2.0293295784871632E8 ; 1.7566981418190372E9 ; 2.6449441586378616E10 ; 0.0
140 ; 1.250151257985301E7 ; 2.0294817562019584E8 ; 1.7692119492497425E9 ; 2.6652374544227333E10 ; 0.0
141 ; 1.2488039742494997E7 ; 2.0296336796264768E8 ; 1.7817134618295956E9 ; 2.685532271984753E10 ; 0.0
142 ; 1.2471771437570209E7 ; 2.0297853416163984E8 ; 1.7942015015720906E9 ; 2.7058286087810177E10 ; 0.0
143 ; 1.2462427732501037E7 ; 2.0299367351353717E8 ; 1.8066732730096607E9 ; 2.7261264621971817E10 ; 0.0
144 ; 1.244502506108858E7 ; 2.0300878532521698E8 ; 1.8191357007421618E9 ; 2.7464258295485355E10 ; 0.0
145 ; 1.2436821552488996E7 ; 2.0302386891379443E8 ; 1.8315807258032503E9 ; 2.7667267080810574E10 ; 0.0
146 ; 1.2427389549780184E7 ; 2.0303892360635692E8 ; 1.8440175473557394E9 ; 2.787029094972437E10 ; 0.0
147 ; 1.2420269541298399E7 ; 2.0305394873970753E8 ; 1.8564449369055195E9 ; 2.8073329873330727E10 ; 0.0
148 ; 1.2407723573036723E7 ; 2.0306894366011703E8 ; 1.8688652064468179E9 ; 2.8276383822070435E10 ; 0.0
149 ; 1.2401131844484892E7 ; 2.0308390772308418E8 ; 1.8812729300198545E9 ; 2.8479452765730553E10 ; 0.0
150 ; 1.2387766758854263E7 ; 2.0309884029310408E8 ; 1.8936740618643394E9 ; 2.8682536673453636E10 ; 0.0
151 ; 1.2383227568541506E7 ; 2.0311374074344411E8 ; 1.9060618286231935E9 ; 2.888563551374674E10 ; 0.0
152 ; 1.2370597315381048E7 ; 2.031286084559274E8 ; 1.918445056191735E9 ; 2.908874925449018E10 ; 0.0
153 ; 1.2360023483120514E7 ; 2.0314344282072347E8 ; 1.930815653507116E9 ; 2.929187786294611E10 ; 0.0
154 ; 1.2350524887211505E7 ; 2.0315824323614573E8 ; 1.9431756769902365E9 ; 2.9495021305766834E10 ; 0.0
155 ; 1.2338557983971037E7 ; 2.0317300910845578E8 ; 1.955526201877448E9 ; 2.969817954900298E10 ; 0.0
156 ; 1.2330459415565E7 ; 2.0318773985167387E8 ; 1.9678647598614192E9 ; 2.9901352558111435E10 ; 0.0
157 ; 1.2326142318480713E7 ; 2.0320243488739604E8 ; 1.9801952192769842E9 ; 3.0104540297963108E10 ; 0.0
158 ; 1.2313054398831027E7 ; 2.0321709364461672E8 ; 1.992521361595465E9 ; 3.0307742732850506E10 ; 0.0
159 ; 1.2303174720410079E7 ; 2.0323171555955753E8 ; 2.004834415994296E9 ; 3.051095982649512E10 ; 0.0
160 ; 1.229328109545598E7 ; 2.032463000755014E8 ; 2.0171375907147062E9 ; 3.071419154205468E10 ; 0.0
161 ; 1.2284615127145637E7 ; 2.032608466426323E8 ; 2.029430871810162E9 ; 3.091743784213018E10 ; 0.0
162 ; 1.2271870593959376E7 ; 2.032753547178799E8 ; 2.0417154869373076E9 ; 3.112069868877281E10 ; 0.0
163 ; 1.2262900218025954E7 ; 2.0328982376476943E8 ; 2.053987357531267E9 ; 3.1323974043490692E10 ; 0.0
164 ; 1.2254333911347799E7 ; 2.0330425325327644E8 ; 2.0662502577492929E9 ; 3.1527263867255463E10 ; 0.0
165 ; 1.2244740998889266E7 ; 2.0331864265968603E8 ; 2.0785045916606407E9 ; 3.173056812050874E10 ; 0.0
166 ; 1.223629828293085E7 ; 2.0333299146645668E8 ; 2.09074933265953E9 ; 3.1933886763168427E10 ; 0.0
167 ; 1.2224132848922776E7 ; 2.0334729916208857E8 ; 2.1029856309424608E9 ; 3.2137219754634884E10 ; 0.0
168 ; 1.2217510083287176E7 ; 2.0336156524099588E8 ; 2.1152097637913835E9 ; 3.2340567053796974E10 ; 0.0
169 ; 1.2202580371312749E7 ; 2.0337578920338336E8 ; 2.1274272738746707E9 ; 3.254392861903797E10 ; 0.0
170 ; 1.2192373708471296E7 ; 2.0338997055512658E8 ; 2.1396298542459836E9 ; 3.2747304408241356E10 ; 0.0
171 ; 1.2183343012531497E7 ; 2.0340410880765632E8 ; 2.151822227954455E9 ; 3.2950694378796482E10 ; 0.0
172 ; 1.2174451654379975E7 ; 2.0341820347784624E8 ; 2.164005570966986E9 ; 3.3154098487604137E10 ; 0.0
173 ; 1.2165086457704986E7 ; 2.034322540879044E8 ; 2.176180022621366E9 ; 3.3357516691081985E10 ; 0.0
174 ; 1.2159515733076448E7 ; 2.0344626016526794E8 ; 2.188345109079071E9 ; 3.356094894516989E10 ; 0.0
175 ; 1.215262608236486E7 ; 2.034602212425013E8 ; 2.2005046248121476E9 ; 3.376439520533516E10 ; 0.0
176 ; 1.2141126120077306E7 ; 2.034741368571974E8 ; 2.2126572508945127E9 ; 3.396785542657766E10 ; 0.0
177 ; 1.2138746529168092E7 ; 2.0348800655188215E8 ; 2.22479837701459E9 ; 3.4171329563434856E10 ; 0.0
178 ; 1.2133441107058099E7 ; 2.0350182987392163E8 ; 2.236937123543758E9 ; 3.437481756998674E10 ; 0.0
179 ; 1.2130320139169028E7 ; 2.0351560637543246E8 ; 2.249070564650816E9 ; 3.4578319399860664E10 ; 0.0
180 ; 1.2123285230532547E7 ; 2.035293356131948E8 ; 2.261200884789985E9 ; 3.47818350062361E10 ; 0.0
181 ; 1.2113183505468993E7 ; 2.0354301714856797E8 ; 2.273324170020518E9 ; 3.49853643418493E10 ; 0.0
182 ; 1.2106348573418407E7 ; 2.0355665054740888E8 ; 2.2854373535259867E9 ; 3.518890735899786E10 ; 0.0
183 ; 1.2103240964394035E7 ; 2.0357023537999275E8 ; 2.2975437020994053E9 ; 3.539246400954527E10 ; 0.0
184 ; 1.209539896548768E7 ; 2.0358377122093648E8 ; 2.3096469430637994E9 ; 3.559603424492526E10 ; 0.0
185 ; 1.2090828517037954E7 ; 2.035972576491241E8 ; 2.321742342029287E9 ; 3.57996180161462E10 ; 0.0
186 ; 1.2081800527633859E7 ; 2.0361069424763477E8 ; 2.3338331705463247E9 ; 3.600321527379533E10 ; 0.0
187 ; 1.2076493559587166E7 ; 2.0362408060367292E8 ; 2.3459149710739584E9 ; 3.620682596804296E10 ; 0.0
188 ; 1.2066632881414507E7 ; 2.0363741630850035E8 ; 2.3579914646335454E9 ; 3.641045004864664E10 ; 0.0
189 ; 1.2064884155449828E7 ; 2.036507009573705E8 ; 2.37005809751496E9 ; 3.661408746495514E10 ; 0.0
190 ; 1.2059014578446485E7 ; 2.0366393414946488E8 ; 2.3821229816704097E9 ; 3.6817738165912506E10 ; 0.0
191 ; 1.205237421144081E7 ; 2.0367711548783103E8 ; 2.394181996248856E9 ; 3.702140210006197E10 ; 0.0
192 ; 1.2043355952616379E7 ; 2.0369024457932281E8 ; 2.406234370460297E9 ; 3.7225079215549805E10 ; 0.0
193 ; 1.2039740274135288E7 ; 2.0370332103454217E8 ; 2.4182777264129133E9 ; 3.742876946012913E10 ; 0.0
194 ; 1.2035002457695559E7 ; 2.0371634446778277E8 ; 2.4303174666870484E9 ; 3.763247278116367E10 ; 0.0
195 ; 1.2026237146079153E7 ; 2.0372931449697524E8 ; 2.442352469144744E9 ; 3.7836189125631454E10 ; 0.0
