CSV File for the City 4 on Day 21
1 - Minute m 
2 - Power Consumed at minute m 
3 - Power Produced at minute m 
4 - Energy Consumed since the beginning of the day 
5 - Energy Produced since the beginning of the day 
6 - Energy Lost since the beginning of the day on lines starting from the city
 
0 ; 6794852.167116494 ; 1.0534811496813235E8 ; 0.0 ; 0.0 ; 0.0
1 ; 6803811.224962363 ; 1.0549003393641734E8 ; 6794852.167116494 ; 1.0534811496813235E8 ; 0.0
2 ; 6810098.914285073 ; 1.0594109706433019E8 ; 1.3598663392078858E7 ; 2.108381489045497E8 ; 0.0
3 ; 6819944.780120016 ; 1.0670142398360556E8 ; 2.0408762306363933E7 ; 3.167792459688799E8 ; 0.0
4 ; 6829649.734919711 ; 1.0777116527316141E8 ; 2.7228707086483948E7 ; 4.2348066995248544E8 ; 0.0
5 ; 6843513.580768027 ; 1.0915050758429414E8 ; 3.405835682140366E7 ; 5.3125183522564685E8 ; 0.0
6 ; 6858883.599876676 ; 1.1083967563829377E8 ; 4.090187040217169E7 ; 6.40402342809941E8 ; 0.0
7 ; 6881612.662393264 ; 1.1283892676057363E8 ; 4.776075400204836E7 ; 7.512420184482348E8 ; 0.0
8 ; 6910813.537377785 ; 1.1514853230191064E8 ; 5.464236666444162E7 ; 8.640809452088084E8 ; 0.0
9 ; 6962743.249488863 ; 1.1776874214899099E8 ; 6.1553180201819405E7 ; 9.792294775107191E8 ; 0.0
10 ; 7040892.099503993 ; 1.2069973653375363E8 ; 6.851592345130827E7 ; 1.09699821965971E9 ; 0.0
11 ; 7165232.536624079 ; 1.2394158165516385E8 ; 7.555681555081226E7 ; 1.2176979561934636E9 ; 0.0
12 ; 7362268.314851936 ; 1.2749421131425634E8 ; 8.272204808743633E7 ; 1.3416395378486273E9 ; 0.0
13 ; 7552661.515054863 ; 1.3135744527909213E8 ; 9.008431640228827E7 ; 1.4691337491628838E9 ; 0.0
14 ; 7572917.334726105 ; 1.3553103366298515E8 ; 9.763697791734314E7 ; 1.6004911944419758E9 ; 0.0
15 ; 7583851.742528014 ; 1.4001470511515832E8 ; 1.0520989525206925E8 ; 1.736022228104961E9 ; 0.0
16 ; 7594340.684407344 ; 1.4480820231019846E8 ; 1.1279374699459726E8 ; 1.8760369332201192E9 ; 0.0
17 ; 7601265.376993645 ; 1.4991130052681544E8 ; 1.203880876790046E8 ; 2.0208451355303178E9 ; 0.0
18 ; 7612634.22251373 ; 1.553238131137129E8 ; 1.2798935305599824E8 ; 2.170756436057133E9 ; 0.0
19 ; 7617414.124508236 ; 1.610455894919729E8 ; 1.3560198727851197E8 ; 2.326080249170846E9 ; 0.0
20 ; 7627455.845411599 ; 1.670765100298607E8 ; 1.432194014030202E8 ; 2.487125838662819E9 ; 0.0
21 ; 7638489.640889783 ; 1.734164802784948E8 ; 1.508468572484318E8 ; 2.6542023486926794E9 ; 0.0
22 ; 7645310.718331443 ; 1.800654257070083E8 ; 1.584853468893216E8 ; 2.8276188289711742E9 ; 0.0
23 ; 7656583.409300972 ; 1.8702328731522202E8 ; 1.6613065760765305E8 ; 3.0076842546781826E9 ; 0.0
24 ; 7663825.93954575 ; 1.9429001814386004E8 ; 1.7378724101695403E8 ; 3.1947075419934044E9 ; 0.0
25 ; 7674782.629671836 ; 2.0055362146323308E8 ; 1.814510669564998E8 ; 3.3889975601372643E9 ; 0.0
26 ; 7681116.9290958075 ; 2.0056761473101482E8 ; 1.8912584958617163E8 ; 3.5895511816004972E9 ; 0.0
27 ; 7689719.127135213 ; 2.0058174252869156E8 ; 1.9680696651526743E8 ; 3.790118796331512E9 ; 0.0
28 ; 7696194.2952973 ; 2.0059598459456286E8 ; 2.0449668564240265E8 ; 3.9907005388602037E9 ; 0.0
29 ; 7706782.320636917 ; 2.00610324186771E8 ; 2.1219287993769994E8 ; 4.1912965234547668E9 ; 0.0
30 ; 7713158.794750242 ; 2.006247473670479E8 ; 2.1989966225833687E8 ; 4.391906847641538E9 ; 0.0
31 ; 7720861.236338374 ; 2.0063924244604176E8 ; 2.2761282105308712E8 ; 4.592531595008586E9 ; 0.0
32 ; 7731597.517341386 ; 2.0065379955104727E8 ; 2.353336822894255E8 ; 4.793170837454628E9 ; 0.0
33 ; 7736212.787752188 ; 2.006684102868904E8 ; 2.4306527980676687E8 ; 4.993824637005675E9 ; 0.0
34 ; 7746772.832201496 ; 2.0068306746809888E8 ; 2.5080149259451905E8 ; 5.194493047292565E9 ; 0.0
35 ; 7754472.260903902 ; 2.0069776490595326E8 ; 2.5854826542672056E8 ; 5.395176114760664E9 ; 0.0
36 ; 7760385.630949888 ; 2.0071249723805606E8 ; 2.6630273768762445E8 ; 5.595873879666617E9 ; 0.0
37 ; 7767669.075165413 ; 2.0072725979105303E8 ; 2.7406312331857437E8 ; 5.796586376904674E9 ; 0.0
38 ; 7773417.4989577215 ; 2.0074204846936965E8 ; 2.8183079239373976E8 ; 5.997313636695726E9 ; 0.0
39 ; 7779366.356157562 ; 2.007568596644922E8 ; 2.8960420989269745E8 ; 6.198055685165096E9 ; 0.0
40 ; 7786681.036972028 ; 2.0077169018057296E8 ; 2.97383576248855E8 ; 6.398812544829589E9 ; 0.0
41 ; 7791958.973612736 ; 2.007865371730853E8 ; 3.0517025728582704E8 ; 6.599584235010161E9 ; 0.0
42 ; 7796013.948694838 ; 2.0080139809797114E8 ; 3.1296221625943977E8 ; 6.800370772183247E9 ; 0.0
43 ; 7798855.578078275 ; 2.0081627066927302E8 ; 3.207582302081346E8 ; 7.001172170281218E9 ; 0.0
44 ; 7809086.267603049 ; 2.0083115282366356E8 ; 3.2855708578621286E8 ; 7.201988440950491E9 ; 0.0
45 ; 7808710.036851795 ; 2.008460426906125E8 ; 3.363661720538159E8 ; 7.402819593774155E9 ; 0.0
46 ; 7813070.160815248 ; 2.0086093856718323E8 ; 3.441748820906677E8 ; 7.603665636464767E9 ; 0.0
47 ; 7815720.587321192 ; 2.008758388966513E8 ; 3.5198795225148296E8 ; 7.804526575031951E9 ; 0.0
48 ; 7818678.137775637 ; 2.0089074225029096E8 ; 3.598036728388041E8 ; 8.005402413928602E9 ; 0.0
49 ; 7823139.127693467 ; 2.009056473118005E8 ; 3.676223509765798E8 ; 8.206293156178893E9 ; 0.0
50 ; 7824675.747231665 ; 2.009205528639351E8 ; 3.7544549010427326E8 ; 8.407198803490694E9 ; 0.0
51 ; 7826397.304643719 ; 2.009354577769928E8 ; 3.832701658515049E8 ; 8.60811935635463E9 ; 0.0
52 ; 7828228.956551821 ; 2.009503609988636E8 ; 3.910965631561486E8 ; 8.809054814131622E9 ; 0.0
53 ; 7828740.5494491905 ; 2.009652615464012E8 ; 3.9892479211270046E8 ; 9.010005175130486E9 ; 0.0
54 ; 7833468.859866745 ; 2.009801584979181E8 ; 4.0675353266214967E8 ; 9.210970436676888E9 ; 0.0
55 ; 7834333.735252772 ; 2.0099505098663858E8 ; 4.145870015220164E8 ; 9.411950595174805E9 ; 0.0
56 ; 7839758.38735814 ; 2.010099381949703E8 ; 4.224213352572692E8 ; 9.612945646161444E9 ; 0.0
57 ; 7835496.742282673 ; 2.0102481934947908E8 ; 4.3026109364462733E8 ; 9.813955584356415E9 ; 0.0
58 ; 7838336.553614181 ; 2.0103969371646798E8 ; 4.3809659038691E8 ; 1.0014980403705894E10 ; 0.0
59 ; 7842908.585968219 ; 2.0105456059807876E8 ; 4.459349269405242E8 ; 1.0216020097422363E10 ; 0.0
60 ; 7843827.560794339 ; 2.0106941932884532E8 ; 4.537778355264924E8 ; 1.0417074658020443E10 ; 0.0
61 ; 7843905.064278292 ; 2.0108426927263945E8 ; 4.616216630872868E8 ; 1.0618144077349289E10 ; 0.0
62 ; 7844870.611950262 ; 2.0109910981995803E8 ; 4.694655681515651E8 ; 1.081922834662193E10 ; 0.0
63 ; 7846147.764580298 ; 2.0111394038550848E8 ; 4.7731043876351535E8 ; 1.1020327456441887E10 ; 0.0
64 ; 7850353.177079862 ; 2.011287604060551E8 ; 4.8515658652809566E8 ; 1.1221441396827394E10 ; 0.0
65 ; 7848920.463310209 ; 2.0114356933849367E8 ; 4.930069397051755E8 ; 1.142257015723345E10 ; 0.0
66 ; 7851773.18142158 ; 2.011583666581278E8 ; 5.008558601684857E8 ; 1.1623713726571943E10 ; 0.0
67 ; 7852243.990372841 ; 2.0117315185712165E8 ; 5.087076333499073E8 ; 1.1824872093230072E10 ; 0.0
68 ; 7852462.235787626 ; 2.011879244431097E8 ; 5.165598773402801E8 ; 1.2026045245087194E10 ; 0.0
69 ; 7854043.925048216 ; 2.0120268393794447E8 ; 5.2441233957606775E8 ; 1.2227233169530304E10 ; 0.0
70 ; 7854913.811421364 ; 2.0121742987656724E8 ; 5.32266383501116E8 ; 1.2428435853468248E10 ; 0.0
71 ; 7854250.455929624 ; 2.0123216180598742E8 ; 5.401212973125373E8 ; 1.2629653283344816E10 ; 0.0
72 ; 7856334.324177877 ; 2.0124687928435928E8 ; 5.47975547768467E8 ; 1.2830885445150805E10 ; 0.0
73 ; 7856830.701177323 ; 2.0126158188014504E8 ; 5.558318820926448E8 ; 1.3032132324435163E10 ; 0.0
74 ; 7855979.505583734 ; 2.0127626917135513E8 ; 5.636887127938222E8 ; 1.3233393906315308E10 ; 0.0
75 ; 7853500.306558805 ; 2.012909407448578E8 ; 5.715446922994059E8 ; 1.3434670175486662E10 ; 0.0
76 ; 7854595.335461249 ; 2.0130559619575047E8 ; 5.793981926059648E8 ; 1.363596111623152E10 ; 0.0
77 ; 7857103.85784624 ; 2.013202351267872E8 ; 5.87252787941426E8 ; 1.383726671242727E10 ; 0.0
78 ; 7856803.225846999 ; 2.0133485714785546E8 ; 5.951098917992723E8 ; 1.4038586947554058E10 ; 0.0
79 ; 7852507.021750589 ; 2.013494618754988E8 ; 6.029666950251193E8 ; 1.4239921804701914E10 ; 0.0
80 ; 7849816.415968807 ; 2.0136404893247965E8 ; 6.108192020468699E8 ; 1.4441271266577414E10 ; 0.0
81 ; 7845427.356668364 ; 2.0137861794737887E8 ; 6.186690184628386E8 ; 1.4642635315509893E10 ; 0.0
82 ; 7843832.661321118 ; 2.013931685542289E8 ; 6.26514445819507E8 ; 1.4844013933457272E10 ; 0.0
83 ; 7845250.253965097 ; 2.014077003921766E8 ; 6.343582784808282E8 ; 1.5045407102011501E10 ; 0.0
84 ; 7839011.032823638 ; 2.0142221310517365E8 ; 6.422035287347933E8 ; 1.5246814802403677E10 ; 0.0
85 ; 7837534.653015365 ; 2.014367063416916E8 ; 6.50042539767617E8 ; 1.544823701550885E10 ; 0.0
86 ; 7833654.3871862 ; 2.014511797544597E8 ; 6.578800744206324E8 ; 1.5649673721850542E10 ; 0.0
87 ; 7832463.4895514725 ; 2.014656330002229E8 ; 6.657137288078185E8 ; 1.5851124901605001E10 ; 0.0
88 ; 7827801.307702743 ; 2.0148006573951894E8 ; 6.7354619229737E8 ; 1.6052590534605225E10 ; 0.0
89 ; 7826662.871527073 ; 2.0149447763647234E8 ; 6.813739936050727E8 ; 1.6254070600344744E10 ; 0.0
90 ; 7823302.774012653 ; 2.0150886835860413E8 ; 6.892006564765998E8 ; 1.6455565077981216E10 ; 0.0
91 ; 7816894.400363942 ; 2.0152323757665563E8 ; 6.970239592506125E8 ; 1.665707394633982E10 ; 0.0
92 ; 7814972.119618225 ; 2.0153758496442568E8 ; 7.048408536509764E8 ; 1.6858597183916477E10 ; 0.0
93 ; 7814470.390948638 ; 2.015519101986195E8 ; 7.126558257705946E8 ; 1.7060134768880903E10 ; 0.0
94 ; 7810604.552185038 ; 2.015662129587089E8 ; 7.204702961615433E8 ; 1.726168667907952E10 ; 0.0
95 ; 7806215.816197396 ; 2.0158049292680222E8 ; 7.282809007137283E8 ; 1.746325289203823E10 ; 0.0
96 ; 7800256.194026308 ; 2.01594749787524E8 ; 7.360871165299257E8 ; 1.7664833384965034E10 ; 0.0
97 ; 7798441.800961059 ; 2.0160898322790292E8 ; 7.43887372723952E8 ; 1.786642813475256E10 ; 0.0
98 ; 7796488.777369533 ; 2.0162319293726772E8 ; 7.516858145249131E8 ; 1.806803711798046E10 ; 0.0
99 ; 7792960.433694289 ; 2.0163737860715038E8 ; 7.594823033022826E8 ; 1.826966031091773E10 ; 0.0
100 ; 7787693.056431936 ; 2.0165153993119603E8 ; 7.672752637359768E8 ; 1.847129768952488E10 ; 0.0
101 ; 7783669.54558679 ; 2.0166567660507917E8 ; 7.750629567924087E8 ; 1.8672949229456074E10 ; 0.0
102 ; 7780436.676923565 ; 2.0167978832642537E8 ; 7.828466263379955E8 ; 1.8874614906061153E10 ; 0.0
103 ; 7775897.864913573 ; 2.016938747947386E8 ; 7.90627063014919E8 ; 1.9076294694387577E10 ; 0.0
104 ; 7772218.769475534 ; 2.0170793571133307E8 ; 7.984029608798326E8 ; 1.9277988569182316E10 ; 0.0
105 ; 7767147.356579015 ; 2.017219707792702E8 ; 8.061751796493082E8 ; 1.947969650489365E10 ; 0.0
106 ; 7763813.694589817 ; 2.0173597970329925E8 ; 8.139423270058873E8 ; 1.968141847567292E10 ; 0.0
107 ; 7759148.992318187 ; 2.017499621898023E8 ; 8.217061407004771E8 ; 1.988315445537622E10 ; 0.0
108 ; 7756282.5753621245 ; 2.0176391794674242E8 ; 8.294652896927953E8 ; 2.0084904417566025E10 ; 0.0
109 ; 7750396.472788428 ; 2.0177784668361592E8 ; 8.372215722681574E8 ; 2.0286668335512768E10 ; 0.0
110 ; 7745101.272498403 ; 2.0179174811140704E8 ; 8.449719687409458E8 ; 2.0488446182196384E10 ; 0.0
111 ; 7741879.281380299 ; 2.0180562194254598E8 ; 8.527170700134442E8 ; 2.0690237930307793E10 ; 0.0
112 ; 7737143.08364141 ; 2.0181946789086962E8 ; 8.604589492948245E8 ; 2.089204355225034E10 ; 0.0
113 ; 7731280.424561319 ; 2.0183328567158473E8 ; 8.681960923784659E8 ; 2.109386302014121E10 ; 0.0
114 ; 7725756.953127771 ; 2.0184707500123352E8 ; 8.759273728030272E8 ; 2.1295696305812794E10 ; 0.0
115 ; 7720700.664912845 ; 2.018608355976616E8 ; 8.836531297561549E8 ; 2.1497543380814026E10 ; 0.0
116 ; 7715978.989925207 ; 2.018745671799879E8 ; 8.913738304210677E8 ; 2.1699404216411686E10 ; 0.0
117 ; 7712749.304839702 ; 2.0188826946857634E8 ; 8.99089809410993E8 ; 2.1901278783591675E10 ; 0.0
118 ; 7706208.203883634 ; 2.019019421850097E8 ; 9.068025587158327E8 ; 2.210316705306025E10 ; 0.0
119 ; 7703300.327682269 ; 2.0191558505206496E8 ; 9.145087669197164E8 ; 2.230506899524526E10 ; 0.0
120 ; 7695534.033123332 ; 2.0192919779369023E8 ; 9.222120672473986E8 ; 2.2506984580297325E10 ; 0.0
121 ; 7691283.7049089875 ; 2.0194278013498324E8 ; 9.29907601280522E8 ; 2.2708913778091015E10 ; 0.0
122 ; 7685707.6603649 ; 2.0195633180217117E8 ; 9.37598884985431E8 ; 2.2910856558225998E10 ; 0.0
123 ; 7679432.519380352 ; 2.0196985252259186E8 ; 9.452845926457958E8 ; 2.3112812890028168E10 ; 0.0
124 ; 7672405.9874251345 ; 2.019833420246762E8 ; 9.529640251651762E8 ; 2.331478274255076E10 ; 0.0
125 ; 7667288.571299215 ; 2.0199680003793165E8 ; 9.606364311526012E8 ; 2.3516766084575436E10 ; 0.0
126 ; 7664441.097414063 ; 2.02010226292927E8 ; 9.683037197239004E8 ; 2.371876288461337E10 ; 0.0
127 ; 7654237.901531005 ; 2.020236205212779E8 ; 9.759681608213145E8 ; 2.3920773110906296E10 ; 0.0
128 ; 7650926.471853208 ; 2.0203698245563352E8 ; 9.836223987228454E8 ; 2.4122796731427574E10 ; 0.0
129 ; 7645157.822392837 ; 2.0205031182966417E8 ; 9.912733251946987E8 ; 2.432483371388321E10 ; 0.0
130 ; 7636018.121113044 ; 2.0206360837804958E8 ; 9.989184830170915E8 ; 2.452688402571287E10 ; 0.0
131 ; 7627058.661175289 ; 2.020768718364681E8 ; 1.0065545011382046E9 ; 2.472894763409092E10 ; 0.0
132 ; 7621060.261921151 ; 2.0209010194158664E8 ; 1.0141815597993798E9 ; 2.4931024505927387E10 ; 0.0
133 ; 7607983.7932469295 ; 2.0210329843105134E8 ; 1.021802620061301E9 ; 2.5133114607868973E10 ; 0.0
134 ; 7602749.833665018 ; 2.0211646104347885E8 ; 1.029410603854548E9 ; 2.5335217906300026E10 ; 0.0
135 ; 7593787.976295105 ; 2.0212958951844826E8 ; 1.037013353688213E9 ; 2.5537334367343506E10 ; 0.0
136 ; 7585429.896929068 ; 2.021426835964937E8 ; 1.0446071416645081E9 ; 2.5739463956861954E10 ; 0.0
137 ; 7574624.445958339 ; 2.0215574301909736E8 ; 1.0521925715614371E9 ; 2.5941606640458447E10 ; 0.0
138 ; 7564348.800815318 ; 2.021687675286832E8 ; 1.0597671960073955E9 ; 2.6143762383477543E10 ; 0.0
139 ; 7555207.970824028 ; 2.0218175686861104E8 ; 1.0673315448082108E9 ; 2.6345931151006226E10 ; 0.0
140 ; 7549781.4147444675 ; 2.0219471078317124E8 ; 1.0748867527790349E9 ; 2.6548112907874836E10 ; 0.0
141 ; 7540733.737481315 ; 2.0220762901757964E8 ; 1.0824365341937792E9 ; 2.675030761865801E10 ; 0.0
142 ; 7528663.82152125 ; 2.0222051131797314E8 ; 1.0899772679312606E9 ; 2.6952515247675587E10 ; 0.0
143 ; 7521948.357230594 ; 2.022333574314055E8 ; 1.0975059317527819E9 ; 2.715473575899356E10 ; 0.0
144 ; 7510937.501655022 ; 2.022461671058438E8 ; 1.1050278801100125E9 ; 2.7356969116424965E10 ; 0.0
145 ; 7505914.798160441 ; 2.0225894009016478E8 ; 1.1125388176116676E9 ; 2.7559215283530807E10 ; 0.0
146 ; 7499522.8769158255 ; 2.02271676134152E8 ; 1.1200447324098282E9 ; 2.776147422362097E10 ; 0.0
147 ; 7490759.917058337 ; 2.02284374988493E8 ; 1.127544255286744E9 ; 2.7963745899755123E10 ; 0.0
148 ; 7486603.375843635 ; 2.0229703640477705E8 ; 1.1350350152038023E9 ; 2.8166030274743618E10 ; 0.0
149 ; 7477255.479890466 ; 2.0230966013549286E8 ; 1.1425216185796459E9 ; 2.8368327311148396E10 ; 0.0
150 ; 7470389.260194564 ; 2.0232224593402684E8 ; 1.1499988740595365E9 ; 2.857063697128389E10 ; 0.0
151 ; 7462200.898402112 ; 2.0233479355466145E8 ; 1.157469263319731E9 ; 2.877295921721792E10 ; 0.0
152 ; 7455370.402983208 ; 2.023473027525739E8 ; 1.1649314642181332E9 ; 2.897529401077258E10 ; 0.0
153 ; 7448882.026115164 ; 2.0235977328383502E8 ; 1.1723868346211164E9 ; 2.9177641313525154E10 ; 0.0
154 ; 7442476.630726345 ; 2.0237220490540832E8 ; 1.1798357166472316E9 ; 2.938000108680899E10 ; 0.0
155 ; 7437217.573468109 ; 2.023845973751494E8 ; 1.187278193277958E9 ; 2.9582373291714397E10 ; 0.0
156 ; 7428482.34234645 ; 2.0239695045180544E8 ; 1.1947154108514261E9 ; 2.9784757889089546E10 ; 0.0
157 ; 7420293.870601386 ; 2.0240926389501485E8 ; 1.2021438931937726E9 ; 2.998715483954135E10 ; 0.0
158 ; 7416479.576397442 ; 2.0242153746530727E8 ; 1.209564187064374E9 ; 3.0189564103436367E10 ; 0.0
159 ; 7409064.900948595 ; 2.0243377092410347E8 ; 1.2169806666407714E9 ; 3.0391985640901676E10 ; 0.0
160 ; 7400515.066599922 ; 2.0244596403371575E8 ; 1.22438973154172E9 ; 3.059441941182578E10 ; 0.0
161 ; 7394101.785951333 ; 2.024581165573482E8 ; 1.2317902466083198E9 ; 3.0796865375859493E10 ; 0.0
162 ; 7384893.49114637 ; 2.024702282590972E8 ; 1.2391843483942711E9 ; 3.099932349241684E10 ; 0.0
163 ; 7377591.322499274 ; 2.024822989039521E8 ; 1.2465692418854175E9 ; 3.1201793720675938E10 ; 0.0
164 ; 7371656.093459257 ; 2.0249432825779608E8 ; 1.2539468332079167E9 ; 3.140427601957989E10 ; 0.0
165 ; 7366421.953903139 ; 2.02506316087407E8 ; 1.261318489301376E9 ; 3.160677034783769E10 ; 0.0
166 ; 7357161.583127424 ; 2.0251826216045833E8 ; 1.2686849112552793E9 ; 3.1809276663925095E10 ; 0.0
167 ; 7351341.875991552 ; 2.025301662455205E8 ; 1.2760420728384068E9 ; 3.2011794926085552E10 ; 0.0
168 ; 7340611.213128169 ; 2.02542028112062E8 ; 1.2833934147143984E9 ; 3.2214325092331074E10 ; 0.0
169 ; 7332449.652803185 ; 2.0255384753045073E8 ; 1.2907340259275265E9 ; 3.2416867120443134E10 ; 0.0
170 ; 7325389.970048523 ; 2.025656242719555E8 ; 1.2980664755803297E9 ; 3.2619420967973583E10 ; 0.0
171 ; 7319214.559533325 ; 2.0257735810874754E8 ; 1.305391865550378E9 ; 3.2821986592245537E10 ; 0.0
172 ; 7311127.132204305 ; 2.0258904881390208E8 ; 1.3127110801099114E9 ; 3.3024563950354286E10 ; 0.0
173 ; 7305100.28446596 ; 2.0260069616140017E8 ; 1.3200222072421157E9 ; 3.322715299916819E10 ; 0.0
174 ; 7300786.185411508 ; 2.0261229992613032E8 ; 1.3273273075265818E9 ; 3.342975369532959E10 ; 0.0
175 ; 7295587.4727058895 ; 2.0262385988389045E8 ; 1.3346280937119932E9 ; 3.3632365995255722E10 ; 0.0
176 ; 7291172.065894391 ; 2.0263537581138974E8 ; 1.341923681184699E9 ; 3.3834989855139614E10 ; 0.0
177 ; 7286310.759092095 ; 2.026468474862507E8 ; 1.3492148532505934E9 ; 3.4037625230951004E10 ; 0.0
178 ; 7282177.216346515 ; 2.0265827468701112E8 ; 1.3565011640096855E9 ; 3.4240272078437256E10 ; 0.0
179 ; 7277305.768347177 ; 2.026696571931263E8 ; 1.363783341226032E9 ; 3.444293035312427E10 ; 0.0
180 ; 7272509.035358125 ; 2.0268099478497115E8 ; 1.3710606469943793E9 ; 3.464560001031739E10 ; 0.0
181 ; 7269314.825970203 ; 2.026922872438424E8 ; 1.3783331560297375E9 ; 3.484828100510236E10 ; 0.0
182 ; 7263748.450802298 ; 2.0270353435196084E8 ; 1.3856024708557076E9 ; 3.505097329234621E10 ; 0.0
183 ; 7259622.178440633 ; 2.0271473589247382E8 ; 1.39286621930651E9 ; 3.5253676826698166E10 ; 0.0
184 ; 7255653.467865817 ; 2.0272589164945734E8 ; 1.4001258414849505E9 ; 3.545639156259064E10 ; 0.0
185 ; 7250480.558531722 ; 2.0273700140791863E8 ; 1.4073814949528162E9 ; 3.56591174542401E10 ; 0.0
186 ; 7246139.827048107 ; 2.0274806495379862E8 ; 1.414631975511348E9 ; 3.586185445564802E10 ; 0.0
187 ; 7243036.997033164 ; 2.027590820739743E8 ; 1.421878115338396E9 ; 3.6064602520601814E10 ; 0.0
188 ; 7236213.539072224 ; 2.027700525562613E8 ; 1.4291211523354292E9 ; 3.626736160267579E10 ; 0.0
189 ; 7232416.479295616 ; 2.0278097618941644E8 ; 1.4363573658745015E9 ; 3.647013165523205E10 ; 0.0
190 ; 7228478.866311789 ; 2.0279185276314032E8 ; 1.4435897823537972E9 ; 3.667291263142146E10 ; 0.0
191 ; 7225191.854838016 ; 2.0280268206807992E8 ; 1.450818261220109E9 ; 3.68757044841846E10 ; 0.0
192 ; 7219558.0483488925 ; 2.0281346389583123E8 ; 1.458043453074947E9 ; 3.707850716625268E10 ; 0.0
193 ; 7214119.613627671 ; 2.0282419803894195E8 ; 1.465263011123296E9 ; 3.7281320630148506E10 ; 0.0
194 ; 7211686.116643692 ; 2.028348842909141E8 ; 1.4724771307369237E9 ; 3.748414482818745E10 ; 0.0
195 ; 7206240.5861327015 ; 2.028455224462068E8 ; 1.4796888168535674E9 ; 3.768697971247836E10 ; 0.0
196 ; 7199695.894393512 ; 2.0285611230023903E8 ; 1.4868950574397001E9 ; 3.788982523492457E10 ; 0.0
197 ; 7196952.000491712 ; 2.028666536493923E8 ; 1.4940947533340936E9 ; 3.809268134722481E10 ; 0.0
198 ; 7191185.290521018 ; 2.0287714629101342E8 ; 1.5012917053345852E9 ; 3.82955480008742E10 ; 0.0
199 ; 7188132.967478669 ; 2.0288759002341738E8 ; 1.508482890625106E9 ; 3.8498425147165215E10 ; 0.0
200 ; 7186271.931684863 ; 2.0289798464589003E8 ; 1.5156710235925848E9 ; 3.870131273718863E10 ; 0.0
201 ; 7178032.9547546655 ; 1.8556609846800104E8 ; 1.5228572955242698E9 ; 3.890421072183452E10 ; 0.0
