CSV File for the City 1 on Day 19
1 - Minute m 
2 - Power Consumed at minute m 
3 - Power Produced at minute m 
4 - Energy Consumed since the beginning of the day 
5 - Energy Produced since the beginning of the day 
6 - Energy Lost since the beginning of the day on lines starting from the city
 
0 ; 1.1847591683478981E7 ; 1.405973520727974E7 ; 0.0 ; 0.0 ; 0.0
1 ; 1.1857954985531373E7 ; 1.405973520727974E7 ; 1.1847591683478981E7 ; 1.405973520727974E7 ; 0.0
2 ; 1.187053617937893E7 ; 1.405973520727974E7 ; 2.3705546669010356E7 ; 2.811947041455948E7 ; 0.0
3 ; 1.1884604969452113E7 ; 1.405973520727974E7 ; 3.557608284838928E7 ; 4.217920562183922E7 ; 0.0
4 ; 1.1904761663630743E7 ; 1.405973520727974E7 ; 4.7460687817841396E7 ; 5.623894082911896E7 ; 0.0
5 ; 1.1922489319397267E7 ; 1.405973520727974E7 ; 5.9365449481472135E7 ; 7.02986760363987E7 ; 0.0
6 ; 1.1951613105052108E7 ; 1.405973520727974E7 ; 7.12879388008694E7 ; 8.435841124367844E7 ; 0.0
7 ; 1.1993516652012713E7 ; 1.405973520727974E7 ; 8.323955190592152E7 ; 9.841814645095818E7 ; 0.0
8 ; 1.2052277253806565E7 ; 1.405973520727974E7 ; 9.523306855793422E7 ; 1.1247788165823792E8 ; 0.0
9 ; 1.2139702027982254E7 ; 1.405973520727974E7 ; 1.0728534581174079E8 ; 1.2653761686551766E8 ; 0.0
10 ; 1.2274829805448225E7 ; 1.405973520727974E7 ; 1.1942504783972304E8 ; 1.405973520727974E8 ; 0.0
11 ; 1.249013885050568E7 ; 1.405973520727974E7 ; 1.3169987764517125E8 ; 1.5465708728007713E8 ; 0.0
12 ; 1.2834579651227485E7 ; 1.405973520727974E7 ; 1.4419001649567693E8 ; 1.6871682248735687E8 ; 0.0
13 ; 1.3170296774143469E7 ; 1.405973520727974E7 ; 1.570245961469044E8 ; 1.827765576946366E8 ; 0.0
14 ; 1.3206859314944547E7 ; 1.405973520727974E7 ; 1.7019489292104787E8 ; 1.9683629290191635E8 ; 0.0
15 ; 1.32230202041824E7 ; 1.405973520727974E7 ; 1.834017522359924E8 ; 2.108960281091961E8 ; 0.0
16 ; 1.3237556731220942E7 ; 1.405973520727974E7 ; 1.966247724401748E8 ; 2.2495576331647584E8 ; 0.0
17 ; 1.3253113560442606E7 ; 1.405973520727974E7 ; 2.0986232917139572E8 ; 2.3901549852375558E8 ; 0.0
18 ; 1.3272133410817008E7 ; 1.405973520727974E7 ; 2.2311544273183832E8 ; 2.5307523373103532E8 ; 0.0
19 ; 1.3284515726441626E7 ; 1.405973520727974E7 ; 2.363875761426553E8 ; 2.6713496893831506E8 ; 0.0
20 ; 1.3301807580329245E7 ; 1.405973520727974E7 ; 2.4967209186909693E8 ; 2.811947041455948E8 ; 0.0
21 ; 1.33124918851119E7 ; 1.405973520727974E7 ; 2.6297389944942617E8 ; 2.952544393528745E8 ; 0.0
22 ; 1.3333622241168257E7 ; 1.405973520727974E7 ; 2.762863913345381E8 ; 3.0931417456015426E8 ; 0.0
23 ; 1.3345681352940163E7 ; 1.405973520727974E7 ; 2.8962001357570636E8 ; 3.23373909767434E8 ; 0.0
24 ; 1.3362591064232742E7 ; 1.405973520727974E7 ; 3.029656949286465E8 ; 3.3743364497471374E8 ; 0.0
25 ; 1.337664369018141E7 ; 1.405973520727974E7 ; 3.163282859928793E8 ; 3.514933801819935E8 ; 0.0
26 ; 1.3395348218802935E7 ; 1.405973520727974E7 ; 3.297049296830607E8 ; 3.655531153892732E8 ; 0.0
27 ; 1.3409366142019246E7 ; 1.405973520727974E7 ; 3.4310027790186363E8 ; 3.7961285059655297E8 ; 0.0
28 ; 1.3423173608086444E7 ; 1.405973520727974E7 ; 3.565096440438829E8 ; 3.936725858038327E8 ; 0.0
29 ; 1.3439643516505312E7 ; 1.405973520727974E7 ; 3.699328176519694E8 ; 4.0773232101111245E8 ; 0.0
30 ; 1.3451389884846821E7 ; 1.405973520727974E7 ; 3.833724611684747E8 ; 4.217920562183922E8 ; 0.0
31 ; 1.3466661650894087E7 ; 1.405973520727974E7 ; 3.968238510533215E8 ; 4.3585179142567194E8 ; 0.0
32 ; 1.3482918667016001E7 ; 1.405973520727974E7 ; 4.102905127042156E8 ; 4.499115266329517E8 ; 0.0
33 ; 1.3494176938470384E7 ; 1.405973520727974E7 ; 4.237734313712316E8 ; 4.639712618402314E8 ; 0.0
34 ; 1.350828780025844E7 ; 1.405973520727974E7 ; 4.37267608309702E8 ; 4.7803099704751116E8 ; 0.0
35 ; 1.3519560618276825E7 ; 1.405973520727974E7 ; 4.5077589610996044E8 ; 4.920907322547909E8 ; 0.0
36 ; 1.3529483546924664E7 ; 1.405973520727974E7 ; 4.642954567282373E8 ; 5.0615046746207064E8 ; 0.0
37 ; 1.354496274282253E7 ; 1.405973520727974E7 ; 4.778249402751619E8 ; 5.202102026693504E8 ; 0.0
38 ; 1.355642317391407E7 ; 1.405973520727974E7 ; 4.9136990301798445E8 ; 5.342699378766301E8 ; 0.0
39 ; 1.3567229492916636E7 ; 1.405973520727974E7 ; 5.049263261918985E8 ; 5.483296730839099E8 ; 0.0
40 ; 1.357584406120001E7 ; 1.405973520727974E7 ; 5.1849355568481517E8 ; 5.623894082911896E8 ; 0.0
41 ; 1.3586824998038389E7 ; 1.405973520727974E7 ; 5.320693997460152E8 ; 5.764491434984692E8 ; 0.0
42 ; 1.3595680197540589E7 ; 1.405973520727974E7 ; 5.456562247440536E8 ; 5.905088787057489E8 ; 0.0
43 ; 1.3604386558540277E7 ; 1.405973520727974E7 ; 5.592519049415942E8 ; 6.045686139130286E8 ; 0.0
44 ; 1.3611849588260537E7 ; 1.405973520727974E7 ; 5.728562915001345E8 ; 6.186283491203083E8 ; 0.0
45 ; 1.3620833297740685E7 ; 1.405973520727974E7 ; 5.86468141088395E8 ; 6.32688084327588E8 ; 0.0
46 ; 1.3627792572999826E7 ; 1.405973520727974E7 ; 6.000889743861357E8 ; 6.467478195348676E8 ; 0.0
47 ; 1.363345311644714E7 ; 1.405973520727974E7 ; 6.137167669591355E8 ; 6.608075547421473E8 ; 0.0
48 ; 1.363993526268553E7 ; 1.405973520727974E7 ; 6.273502200755826E8 ; 6.74867289949427E8 ; 0.0
49 ; 1.3644050215969004E7 ; 1.405973520727974E7 ; 6.409901553382682E8 ; 6.889270251567067E8 ; 0.0
50 ; 1.364762413280112E7 ; 1.405973520727974E7 ; 6.546342055542371E8 ; 7.029867603639864E8 ; 0.0
51 ; 1.365108942429241E7 ; 1.405973520727974E7 ; 6.682818296870383E8 ; 7.17046495571266E8 ; 0.0
52 ; 1.3653516141340116E7 ; 1.405973520727974E7 ; 6.819329191113307E8 ; 7.311062307785457E8 ; 0.0
53 ; 1.3661509810420025E7 ; 1.405973520727974E7 ; 6.955864352526709E8 ; 7.451659659858254E8 ; 0.0
54 ; 1.3661500559879944E7 ; 1.405973520727974E7 ; 7.092479450630909E8 ; 7.592257011931051E8 ; 0.0
55 ; 1.366630001458552E7 ; 1.405973520727974E7 ; 7.229094456229708E8 ; 7.732854364003848E8 ; 0.0
56 ; 1.3669275004676037E7 ; 1.405973520727974E7 ; 7.365757456375563E8 ; 7.873451716076645E8 ; 0.0
57 ; 1.3670942481943723E7 ; 1.405973520727974E7 ; 7.502450206422323E8 ; 8.014049068149441E8 ; 0.0
58 ; 1.3676042458380664E7 ; 1.405973520727974E7 ; 7.63915963124176E8 ; 8.154646420222238E8 ; 0.0
59 ; 1.3678464942926824E7 ; 1.405973520727974E7 ; 7.775920055825567E8 ; 8.295243772295035E8 ; 0.0
60 ; 1.368300120178055E7 ; 1.405973520727974E7 ; 7.912704705254836E8 ; 8.435841124367832E8 ; 0.0
61 ; 1.3683728755119935E7 ; 1.405973520727974E7 ; 8.049534717272642E8 ; 8.576438476440629E8 ; 0.0
62 ; 1.3686571004802097E7 ; 1.405973520727974E7 ; 8.186372004823841E8 ; 8.717035828513426E8 ; 0.0
63 ; 1.3686745964103896E7 ; 1.405973520727974E7 ; 8.323237714871862E8 ; 8.857633180586222E8 ; 0.0
64 ; 1.368800417917041E7 ; 1.405973520727974E7 ; 8.460105174512901E8 ; 8.998230532659019E8 ; 0.0
65 ; 1.3694647308250476E7 ; 1.405973520727974E7 ; 8.596985216304605E8 ; 9.138827884731816E8 ; 0.0
66 ; 1.3692032891109267E7 ; 1.405973520727974E7 ; 8.733931689387109E8 ; 9.279425236804613E8 ; 0.0
67 ; 1.3699750695869172E7 ; 1.405973520727974E7 ; 8.870852018298202E8 ; 9.42002258887741E8 ; 0.0
68 ; 1.369642606502518E7 ; 1.405973520727974E7 ; 9.007849525256894E8 ; 9.560619940950207E8 ; 0.0
69 ; 1.3698179894669073E7 ; 1.405973520727974E7 ; 9.144813785907146E8 ; 9.701217293023003E8 ; 0.0
70 ; 1.3702259925395336E7 ; 1.405973520727974E7 ; 9.281795584853836E8 ; 9.8418146450958E8 ; 0.0
71 ; 1.3699804975384878E7 ; 1.405973520727974E7 ; 9.41881818410779E8 ; 9.982411997168597E8 ; 0.0
72 ; 1.3702103547865588E7 ; 1.405973520727974E7 ; 9.555816233861638E8 ; 1.0123009349241394E9 ; 0.0
73 ; 1.3706026887813311E7 ; 1.405973520727974E7 ; 9.692837269340295E8 ; 1.0263606701314191E9 ; 0.0
74 ; 1.3704165437507693E7 ; 1.405973520727974E7 ; 9.829897538218428E8 ; 1.0404204053386987E9 ; 0.0
75 ; 1.3702217142144114E7 ; 1.405973520727974E7 ; 9.966939192593505E8 ; 1.0544801405459784E9 ; 0.0
76 ; 1.370573695355378E7 ; 1.405973520727974E7 ; 1.0103961364014946E9 ; 1.0685398757532581E9 ; 0.0
77 ; 1.3702845452927688E7 ; 1.405973520727974E7 ; 1.0241018733550484E9 ; 1.082599610960538E9 ; 0.0
78 ; 1.370364477820551E7 ; 1.405973520727974E7 ; 1.0378047188079761E9 ; 1.0966593461678176E9 ; 0.0
79 ; 1.3695142069321133E7 ; 1.405973520727974E7 ; 1.0515083635861816E9 ; 1.1107190813750973E9 ; 0.0
80 ; 1.3695872597638667E7 ; 1.405973520727974E7 ; 1.0652035056555028E9 ; 1.124778816582377E9 ; 0.0
81 ; 1.3688106556712084E7 ; 1.405973520727974E7 ; 1.0788993782531414E9 ; 1.1388385517896566E9 ; 0.0
82 ; 1.3685249637584833E7 ; 1.405973520727974E7 ; 1.0925874848098536E9 ; 1.1528982869969363E9 ; 0.0
83 ; 1.367646306493732E7 ; 1.405973520727974E7 ; 1.1062727344474385E9 ; 1.166958022204216E9 ; 0.0
84 ; 1.368020936209684E7 ; 1.405973520727974E7 ; 1.1199491975123758E9 ; 1.1810177574114957E9 ; 0.0
85 ; 1.3671342058392152E7 ; 1.405973520727974E7 ; 1.1336294068744726E9 ; 1.1950774926187754E9 ; 0.0
86 ; 1.3665711477765197E7 ; 1.405973520727974E7 ; 1.1473007489328647E9 ; 1.209137227826055E9 ; 0.0
87 ; 1.3662375219141515E7 ; 1.405973520727974E7 ; 1.1609664604106297E9 ; 1.2231969630333347E9 ; 0.0
88 ; 1.3650089402136853E7 ; 1.405973520727974E7 ; 1.1746288356297712E9 ; 1.2372566982406144E9 ; 0.0
89 ; 1.3649580904401388E7 ; 1.405973520727974E7 ; 1.188278925031908E9 ; 1.251316433447894E9 ; 0.0
90 ; 1.3644690770334566E7 ; 1.405973520727974E7 ; 1.2019285059363093E9 ; 1.2653761686551738E9 ; 0.0
91 ; 1.3639265621125644E7 ; 1.405973520727974E7 ; 1.2155731967066438E9 ; 1.2794359038624535E9 ; 0.0
92 ; 1.363700352983966E7 ; 1.405973520727974E7 ; 1.2292124623277695E9 ; 1.2934956390697331E9 ; 0.0
93 ; 1.3627931624835117E7 ; 1.405973520727974E7 ; 1.2428494658576093E9 ; 1.3075553742770128E9 ; 0.0
94 ; 1.362330719034292E7 ; 1.405973520727974E7 ; 1.2564773974824443E9 ; 1.3216151094842925E9 ; 0.0
95 ; 1.3615668787578404E7 ; 1.405973520727974E7 ; 1.2701007046727872E9 ; 1.3356748446915722E9 ; 0.0
96 ; 1.36111829639453E7 ; 1.405973520727974E7 ; 1.2837163734603655E9 ; 1.3497345798988519E9 ; 0.0
97 ; 1.3605630656999592E7 ; 1.405973520727974E7 ; 1.297327556424311E9 ; 1.3637943151061316E9 ; 0.0
98 ; 1.3597023909866888E7 ; 1.405973520727974E7 ; 1.3109331870813105E9 ; 1.3778540503134112E9 ; 0.0
99 ; 1.3591547949423462E7 ; 1.405973520727974E7 ; 1.3245302109911773E9 ; 1.391913785520691E9 ; 0.0
100 ; 1.3584391820296666E7 ; 1.405973520727974E7 ; 1.3381217589406009E9 ; 1.4059735207279706E9 ; 0.0
101 ; 1.35788538034694E7 ; 1.405973520727974E7 ; 1.3517061507608976E9 ; 1.4200332559352503E9 ; 0.0
102 ; 1.357505813175105E7 ; 1.405973520727974E7 ; 1.365285004564367E9 ; 1.43409299114253E9 ; 0.0
103 ; 1.3562700190098146E7 ; 1.405973520727974E7 ; 1.378860062696118E9 ; 1.4481527263498096E9 ; 0.0
104 ; 1.3554402517976493E7 ; 1.405973520727974E7 ; 1.3924227628862162E9 ; 1.4622124615570893E9 ; 0.0
105 ; 1.3550619555754049E7 ; 1.405973520727974E7 ; 1.4059771654041927E9 ; 1.476272196764369E9 ; 0.0
106 ; 1.3541424215997174E7 ; 1.405973520727974E7 ; 1.4195277849599466E9 ; 1.4903319319716487E9 ; 0.0
107 ; 1.3536505163344884E7 ; 1.405973520727974E7 ; 1.4330692091759439E9 ; 1.5043916671789284E9 ; 0.0
108 ; 1.3526591298813533E7 ; 1.405973520727974E7 ; 1.4466057143392887E9 ; 1.518451402386208E9 ; 0.0
109 ; 1.3517884896056088E7 ; 1.405973520727974E7 ; 1.4601323056381023E9 ; 1.5325111375934877E9 ; 0.0
110 ; 1.3507737667607738E7 ; 1.405973520727974E7 ; 1.4736501905341585E9 ; 1.5465708728007674E9 ; 0.0
111 ; 1.3499125176673867E7 ; 1.405973520727974E7 ; 1.4871579282017663E9 ; 1.560630608008047E9 ; 0.0
112 ; 1.3492759041296953E7 ; 1.405973520727974E7 ; 1.5006570533784401E9 ; 1.5746903432153268E9 ; 0.0
113 ; 1.3487176070580002E7 ; 1.405973520727974E7 ; 1.514149812419737E9 ; 1.5887500784226065E9 ; 0.0
114 ; 1.3473422828109989E7 ; 1.405973520727974E7 ; 1.527636988490317E9 ; 1.6028098136298862E9 ; 0.0
115 ; 1.3466291299620535E7 ; 1.405973520727974E7 ; 1.541110411318427E9 ; 1.6168695488371658E9 ; 0.0
116 ; 1.3457407361761374E7 ; 1.405973520727974E7 ; 1.5545767026180477E9 ; 1.6309292840444455E9 ; 0.0
117 ; 1.3449419147513678E7 ; 1.405973520727974E7 ; 1.568034109979809E9 ; 1.6449890192517252E9 ; 0.0
118 ; 1.3435850244769786E7 ; 1.405973520727974E7 ; 1.5814835291273227E9 ; 1.6590487544590049E9 ; 0.0
119 ; 1.3427944382506177E7 ; 1.405973520727974E7 ; 1.5949193793720925E9 ; 1.6731084896662846E9 ; 0.0
120 ; 1.3418199093192449E7 ; 1.405973520727974E7 ; 1.6083473237545986E9 ; 1.6871682248735642E9 ; 0.0
121 ; 1.3408077303701274E7 ; 1.405973520727974E7 ; 1.621765522847791E9 ; 1.701227960080844E9 ; 0.0
122 ; 1.3397946885000754E7 ; 1.405973520727974E7 ; 1.635173600151492E9 ; 1.7152876952881236E9 ; 0.0
123 ; 1.3387531980884623E7 ; 1.405973520727974E7 ; 1.6485715470364928E9 ; 1.7293474304954033E9 ; 0.0
124 ; 1.3381274171847457E7 ; 1.405973520727974E7 ; 1.6619590790173774E9 ; 1.743407165702683E9 ; 0.0
125 ; 1.3371248703811137E7 ; 1.405973520727974E7 ; 1.6753403531892247E9 ; 1.7574669009099627E9 ; 0.0
126 ; 1.3357660139227536E7 ; 1.405973520727974E7 ; 1.688711601893036E9 ; 1.7715266361172423E9 ; 0.0
127 ; 1.334643688085859E7 ; 1.405973520727974E7 ; 1.7020692620322635E9 ; 1.785586371324522E9 ; 0.0
128 ; 1.3341560661100801E7 ; 1.405973520727974E7 ; 1.7154156989131222E9 ; 1.7996461065318017E9 ; 0.0
129 ; 1.332568953870288E7 ; 1.405973520727974E7 ; 1.728757259574223E9 ; 1.8137058417390814E9 ; 0.0
130 ; 1.3314870599490581E7 ; 1.405973520727974E7 ; 1.742082949112926E9 ; 1.827765576946361E9 ; 0.0
131 ; 1.3296515072114602E7 ; 1.405973520727974E7 ; 1.7553978197124166E9 ; 1.8418253121536407E9 ; 0.0
132 ; 1.3285855402540272E7 ; 1.405973520727974E7 ; 1.7686943347845314E9 ; 1.8558850473609204E9 ; 0.0
133 ; 1.3268636425295498E7 ; 1.405973520727974E7 ; 1.7819801901870716E9 ; 1.8699447825682E9 ; 0.0
134 ; 1.3254377845870499E7 ; 1.405973520727974E7 ; 1.7952488266123672E9 ; 1.8840045177754798E9 ; 0.0
135 ; 1.3237393160574373E7 ; 1.405973520727974E7 ; 1.8085032044582376E9 ; 1.8980642529827595E9 ; 0.0
136 ; 1.322251117352671E7 ; 1.405973520727974E7 ; 1.821740597618812E9 ; 1.9121239881900392E9 ; 0.0
137 ; 1.320779075268534E7 ; 1.405973520727974E7 ; 1.8349631087923388E9 ; 1.9261837233973188E9 ; 0.0
138 ; 1.3188149971426334E7 ; 1.405973520727974E7 ; 1.8481708995450242E9 ; 1.9402434586045985E9 ; 0.0
139 ; 1.317160142036081E7 ; 1.405973520727974E7 ; 1.8613590495164504E9 ; 1.9543031938118782E9 ; 0.0
140 ; 1.315690484473703E7 ; 1.405973520727974E7 ; 1.8745306509368112E9 ; 1.968362929019158E9 ; 0.0
141 ; 1.3138435052907567E7 ; 1.405973520727974E7 ; 1.8876875557815483E9 ; 1.9824226642264376E9 ; 0.0
142 ; 1.3125377092249319E7 ; 1.405973520727974E7 ; 1.9008259908344557E9 ; 1.9964823994337173E9 ; 0.0
143 ; 1.3106112945748877E7 ; 1.405973520727974E7 ; 1.9139513679267051E9 ; 2.010542134640997E9 ; 0.0
144 ; 1.3087321748391196E7 ; 1.405973520727974E7 ; 1.927057480872454E9 ; 2.0246018698482766E9 ; 0.0
145 ; 1.3080231875912296E7 ; 1.405973520727974E7 ; 1.940144802620845E9 ; 2.0386616050555563E9 ; 0.0
146 ; 1.306611656789219E7 ; 1.405973520727974E7 ; 1.9532250344967573E9 ; 2.052721340262836E9 ; 0.0
147 ; 1.3051990923956344E7 ; 1.405973520727974E7 ; 1.9662911510646493E9 ; 2.0667810754701157E9 ; 0.0
148 ; 1.304415001556782E7 ; 1.405973520727974E7 ; 1.9793431419886057E9 ; 2.0808408106773953E9 ; 0.0
149 ; 1.3034660183785489E7 ; 1.405973520727974E7 ; 1.9923872920041735E9 ; 2.094900545884675E9 ; 0.0
150 ; 1.3022890120392995E7 ; 1.405973520727974E7 ; 2.005421952187959E9 ; 2.1089602810919547E9 ; 0.0
151 ; 1.300779013950265E7 ; 1.405973520727974E7 ; 2.018444842308352E9 ; 2.1230200162992344E9 ; 0.0
152 ; 1.29968784894569E7 ; 1.405973520727974E7 ; 2.0314526324478548E9 ; 2.137079751506514E9 ; 0.0
153 ; 1.2985223911315097E7 ; 1.405973520727974E7 ; 2.0444495109373116E9 ; 2.1511394867137938E9 ; 0.0
154 ; 1.2971911271991944E7 ; 1.405973520727974E7 ; 2.0574347348486269E9 ; 2.1651992219210734E9 ; 0.0
155 ; 1.2959191538996903E7 ; 1.405973520727974E7 ; 2.0704066461206188E9 ; 2.179258957128353E9 ; 0.0
156 ; 1.2947422380244046E7 ; 1.405973520727974E7 ; 2.0833658376596158E9 ; 2.193318692335633E9 ; 0.0
157 ; 1.293519978386843E7 ; 1.405973520727974E7 ; 2.0963132600398598E9 ; 2.2073784275429125E9 ; 0.0
158 ; 1.292296920558871E7 ; 1.405973520727974E7 ; 2.109248459823728E9 ; 2.221438162750192E9 ; 0.0
159 ; 1.291053903804178E7 ; 1.405973520727974E7 ; 2.122171429029317E9 ; 2.235497897957472E9 ; 0.0
160 ; 1.2895926642943759E7 ; 1.405973520727974E7 ; 2.1350819680673587E9 ; 2.2495576331647515E9 ; 0.0
161 ; 1.288368983767726E7 ; 1.405973520727974E7 ; 2.1479778947103024E9 ; 2.263617368372031E9 ; 0.0
162 ; 1.2875581083613325E7 ; 1.405973520727974E7 ; 2.16086158454798E9 ; 2.277677103579311E9 ; 0.0
163 ; 1.2860453099628605E7 ; 1.405973520727974E7 ; 2.173737165631593E9 ; 2.2917368387865906E9 ; 0.0
164 ; 1.2848064266036475E7 ; 1.405973520727974E7 ; 2.1865976187312217E9 ; 2.3057965739938703E9 ; 0.0
165 ; 1.283368435468905E7 ; 1.405973520727974E7 ; 2.199445682997258E9 ; 2.31985630920115E9 ; 0.0
166 ; 1.2825376046819316E7 ; 1.405973520727974E7 ; 2.2122793673519473E9 ; 2.3339160444084296E9 ; 0.0
167 ; 1.2808713410710948E7 ; 1.405973520727974E7 ; 2.2251047433987665E9 ; 2.3479757796157093E9 ; 0.0
168 ; 1.2796575749503812E7 ; 1.405973520727974E7 ; 2.2379134568094773E9 ; 2.362035514822989E9 ; 0.0
169 ; 1.2784624091574332E7 ; 1.405973520727974E7 ; 2.250710032558981E9 ; 2.3760952500302687E9 ; 0.0
170 ; 1.2770752296638744E7 ; 1.405973520727974E7 ; 2.263494656650555E9 ; 2.3901549852375484E9 ; 0.0
171 ; 1.2759482967462845E7 ; 1.405973520727974E7 ; 2.276265408947194E9 ; 2.404214720444828E9 ; 0.0
172 ; 1.2745041686715739E7 ; 1.405973520727974E7 ; 2.289024891914657E9 ; 2.4182744556521077E9 ; 0.0
173 ; 1.2734136219449664E7 ; 1.405973520727974E7 ; 2.3017699336013727E9 ; 2.4323341908593874E9 ; 0.0
174 ; 1.2727492108893292E7 ; 1.405973520727974E7 ; 2.3145040698208222E9 ; 2.446393926066667E9 ; 0.0
175 ; 1.2719136976901378E7 ; 1.405973520727974E7 ; 2.3272315619297156E9 ; 2.460453661273947E9 ; 0.0
176 ; 1.2708764340894463E7 ; 1.405973520727974E7 ; 2.339950698906617E9 ; 2.4745133964812264E9 ; 0.0
177 ; 1.27000645351031E7 ; 1.405973520727974E7 ; 2.352659463247512E9 ; 2.488573131688506E9 ; 0.0
178 ; 1.2694945523539288E7 ; 1.405973520727974E7 ; 2.365359527782615E9 ; 2.502632866895786E9 ; 0.0
179 ; 1.2686286926358677E7 ; 1.405973520727974E7 ; 2.3780544733061543E9 ; 2.5166926021030655E9 ; 0.0
180 ; 1.2677389297148062E7 ; 1.405973520727974E7 ; 2.390740760232513E9 ; 2.530752337310345E9 ; 0.0
181 ; 1.2669734165254783E7 ; 1.405973520727974E7 ; 2.403418149529661E9 ; 2.544812072517625E9 ; 0.0
182 ; 1.2665307623956151E7 ; 1.405973520727974E7 ; 2.416087883694916E9 ; 2.5588718077249045E9 ; 0.0
183 ; 1.265485684754017E7 ; 1.405973520727974E7 ; 2.428753191318872E9 ; 2.572931542932184E9 ; 0.0
184 ; 1.2646236924065623E7 ; 1.405973520727974E7 ; 2.4414080481664124E9 ; 2.586991278139464E9 ; 0.0
185 ; 1.2637351115786405E7 ; 1.405973520727974E7 ; 2.454054285090478E9 ; 2.6010510133467436E9 ; 0.0
186 ; 1.2628691492299046E7 ; 1.405973520727974E7 ; 2.4666916362062645E9 ; 2.6151107485540233E9 ; 0.0
187 ; 1.2618227944576869E7 ; 1.405973520727974E7 ; 2.4793203276985636E9 ; 2.629170483761303E9 ; 0.0
188 ; 1.2613816094573382E7 ; 1.405973520727974E7 ; 2.4919385556431403E9 ; 2.6432302189685826E9 ; 0.0
189 ; 1.2604415200389324E7 ; 1.405973520727974E7 ; 2.504552371737714E9 ; 2.6572899541758623E9 ; 0.0
190 ; 1.2595356195366569E7 ; 1.405973520727974E7 ; 2.517156786938103E9 ; 2.671349689383142E9 ; 0.0
191 ; 1.2589036118137648E7 ; 1.405973520727974E7 ; 2.5297521431334696E9 ; 2.6854094245904217E9 ; 0.0
192 ; 1.2581128490966393E7 ; 1.405973520727974E7 ; 2.5423411792516074E9 ; 2.6994691597977014E9 ; 0.0
193 ; 1.2575181633282414E7 ; 1.405973520727974E7 ; 2.5549223077425737E9 ; 2.713528895004981E9 ; 0.0
194 ; 1.2567164181948943E7 ; 1.405973520727974E7 ; 2.567497489375856E9 ; 2.7275886302122607E9 ; 0.0
195 ; 1.2556776310603144E7 ; 1.405973520727974E7 ; 2.580064653557805E9 ; 2.7416483654195404E9 ; 0.0
196 ; 1.2553267845864583E7 ; 1.405973520727974E7 ; 2.592621429868408E9 ; 2.75570810062682E9 ; 0.0
197 ; 1.2543296419774255E7 ; 1.405973520727974E7 ; 2.605174697714273E9 ; 2.7697678358341E9 ; 0.0
198 ; 1.2533621481215239E7 ; 1.405973520727974E7 ; 2.617717994134047E9 ; 2.7838275710413795E9 ; 0.0
