CSV File for the City 3 on Day 20
1 - Minute m 
2 - Power Consumed at minute m 
3 - Power Produced at minute m 
4 - Energy Consumed since the beginning of the day 
5 - Energy Produced since the beginning of the day 
6 - Energy Lost since the beginning of the day on lines starting from the city
 
0 ; 5946267.028359383 ; 7033347.502327564 ; 0.0 ; 0.0 ; 0.0
1 ; 5952920.581974833 ; 7033347.502327564 ; 5946267.028359383 ; 7033347.502327564 ; 0.0
2 ; 5960410.792152944 ; 7033347.502327564 ; 1.1899187610334218E7 ; 1.4066695004655128E7 ; 0.0
3 ; 5966781.723060492 ; 7033347.502327564 ; 1.7859598402487163E7 ; 2.110004250698269E7 ; 0.0
4 ; 5975647.4188023945 ; 7033347.502327564 ; 2.3826380125547655E7 ; 2.8133390009310257E7 ; 0.0
5 ; 5986808.603531276 ; 7033347.502327564 ; 2.980202754435005E7 ; 3.516673751163782E7 ; 0.0
6 ; 6001449.725105767 ; 7033347.502327564 ; 3.578883614788133E7 ; 4.220008501396538E7 ; 0.0
7 ; 6021501.51281271 ; 7033347.502327564 ; 4.17902858729871E7 ; 4.9233432516292945E7 ; 0.0
8 ; 6050147.8008384 ; 7033347.502327564 ; 4.781178738579981E7 ; 5.6266780018620506E7 ; 0.0
9 ; 6091703.169551143 ; 7033347.502327564 ; 5.3861935186638206E7 ; 6.330012752094807E7 ; 0.0
10 ; 6156870.39497044 ; 7033347.502327564 ; 5.995363835618935E7 ; 7.033347502327563E7 ; 0.0
11 ; 6260083.0511569865 ; 7033347.502327564 ; 6.611050875115979E7 ; 7.736682252560319E7 ; 0.0
12 ; 6424990.632742265 ; 7033347.502327564 ; 7.237059180231677E7 ; 8.440017002793075E7 ; 0.0
13 ; 6579828.530695984 ; 7033347.502327564 ; 7.879558243505904E7 ; 9.143351753025831E7 ; 0.0
14 ; 6599292.418471196 ; 7033347.502327564 ; 8.537541096575503E7 ; 9.846686503258587E7 ; 0.0
15 ; 6603066.245917128 ; 7033347.502327564 ; 9.197470338422623E7 ; 1.0550021253491344E8 ; 0.0
16 ; 6615311.176754094 ; 7033347.502327564 ; 9.857776963014336E7 ; 1.12533560037241E8 ; 0.0
17 ; 6621946.186664128 ; 7033347.502327564 ; 1.0519308080689745E8 ; 1.1956690753956856E8 ; 0.0
18 ; 6627739.997456491 ; 7033347.502327564 ; 1.1181502699356158E8 ; 1.2660025504189612E8 ; 0.0
19 ; 6636753.889909425 ; 7033347.502327564 ; 1.1844276699101807E8 ; 1.3363360254422368E8 ; 0.0
20 ; 6646550.8739428865 ; 7033347.502327564 ; 1.250795208809275E8 ; 1.4066695004655126E8 ; 0.0
21 ; 6654781.123679531 ; 7033347.502327564 ; 1.3172607175487038E8 ; 1.4770029754887882E8 ; 0.0
22 ; 6662643.619471488 ; 7033347.502327564 ; 1.383808528785499E8 ; 1.5473364505120638E8 ; 0.0
23 ; 6670511.718597751 ; 7033347.502327564 ; 1.450434964980214E8 ; 1.6176699255353394E8 ; 0.0
24 ; 6679793.878727006 ; 7033347.502327564 ; 1.5171400821661913E8 ; 1.688003400558615E8 ; 0.0
25 ; 6686148.080116464 ; 7033347.502327564 ; 1.5839380209534615E8 ; 1.7583368755818906E8 ; 0.0
26 ; 6694107.912085266 ; 7033347.502327564 ; 1.650799501754626E8 ; 1.8286703506051663E8 ; 0.0
27 ; 6701754.606210034 ; 7033347.502327564 ; 1.7177405808754787E8 ; 1.899003825628442E8 ; 0.0
28 ; 6708713.17619726 ; 7033347.502327564 ; 1.784758126937579E8 ; 1.9693373006517175E8 ; 0.0
29 ; 6718094.023356988 ; 7033347.502327564 ; 1.8518452586995515E8 ; 2.039670775674993E8 ; 0.0
30 ; 6722840.679903596 ; 7033347.502327564 ; 1.9190261989331213E8 ; 2.1100042506982687E8 ; 0.0
31 ; 6730401.108372666 ; 7033347.502327564 ; 1.9862546057321572E8 ; 2.1803377257215443E8 ; 0.0
32 ; 6738246.169256836 ; 7033347.502327564 ; 2.0535586168158838E8 ; 2.25067120074482E8 ; 0.0
33 ; 6745896.921528298 ; 7033347.502327564 ; 2.1209410785084522E8 ; 2.3210046757680956E8 ; 0.0
34 ; 6751450.034112546 ; 7033347.502327564 ; 2.1884000477237353E8 ; 2.3913381507913712E8 ; 0.0
35 ; 6761326.904505181 ; 7033347.502327564 ; 2.2559145480648607E8 ; 2.4616716258146468E8 ; 0.0
36 ; 6763859.8009274835 ; 7033347.502327564 ; 2.3235278171099126E8 ; 2.5320051008379224E8 ; 0.0
37 ; 6770444.34521317 ; 7033347.502327564 ; 2.3911664151191875E8 ; 2.602338575861198E8 ; 0.0
38 ; 6776299.148878164 ; 7033347.502327564 ; 2.4588708585713193E8 ; 2.6726720508844736E8 ; 0.0
39 ; 6784179.006590594 ; 7033347.502327564 ; 2.526633850060101E8 ; 2.7430055259077495E8 ; 0.0
40 ; 6788569.9442463815 ; 7033347.502327564 ; 2.594475640126007E8 ; 2.813339000931025E8 ; 0.0
41 ; 6792361.982454615 ; 7033347.502327564 ; 2.6623613395684707E8 ; 2.883672475954301E8 ; 0.0
42 ; 6799010.968990611 ; 7033347.502327564 ; 2.7302849593930167E8 ; 2.9540059509775764E8 ; 0.0
43 ; 6798371.258906326 ; 7033347.502327564 ; 2.798275069082923E8 ; 3.024339426000852E8 ; 0.0
44 ; 6806909.197760934 ; 7033347.502327564 ; 2.866258781671986E8 ; 3.0946729010241276E8 ; 0.0
45 ; 6807939.4608864905 ; 7033347.502327564 ; 2.9343278736495954E8 ; 3.165006376047403E8 ; 0.0
46 ; 6812908.915915773 ; 7033347.502327564 ; 3.00240726825846E8 ; 3.235339851070679E8 ; 0.0
47 ; 6816056.154070308 ; 7033347.502327564 ; 3.070536357417618E8 ; 3.3056733260939544E8 ; 0.0
48 ; 6818572.191668499 ; 7033347.502327564 ; 3.138696918958321E8 ; 3.37600680111723E8 ; 0.0
49 ; 6820641.844497358 ; 7033347.502327564 ; 3.2068826408750063E8 ; 3.4463402761405057E8 ; 0.0
50 ; 6821759.165617076 ; 7033347.502327564 ; 3.27508905931998E8 ; 3.516673751163781E8 ; 0.0
51 ; 6828893.69068072 ; 7033347.502327564 ; 3.3433066509761506E8 ; 3.587007226187057E8 ; 0.0
52 ; 6826511.065122762 ; 7033347.502327564 ; 3.411595587882958E8 ; 3.6573407012103325E8 ; 0.0
53 ; 6827194.281228847 ; 7033347.502327564 ; 3.479860698534186E8 ; 3.727674176233608E8 ; 0.0
54 ; 6828102.998228275 ; 7033347.502327564 ; 3.548132641346474E8 ; 3.798007651256884E8 ; 0.0
55 ; 6831816.4100135425 ; 7033347.502327564 ; 3.616413671328757E8 ; 3.8683411262801594E8 ; 0.0
56 ; 6834753.548774248 ; 7033347.502327564 ; 3.6847318354288924E8 ; 3.938674601303435E8 ; 0.0
57 ; 6833862.865208798 ; 7033347.502327564 ; 3.753079370916635E8 ; 4.0090080763267106E8 ; 0.0
58 ; 6838164.640227166 ; 7033347.502327564 ; 3.821417999568723E8 ; 4.079341551349986E8 ; 0.0
59 ; 6839812.639059812 ; 7033347.502327564 ; 3.889799645970994E8 ; 4.149675026373262E8 ; 0.0
60 ; 6840269.03469204 ; 7033347.502327564 ; 3.958197772361592E8 ; 4.2200085013965374E8 ; 0.0
61 ; 6841048.213668425 ; 7033347.502327564 ; 4.0266004627085125E8 ; 4.290341976419813E8 ; 0.0
62 ; 6841759.878997118 ; 7033347.502327564 ; 4.0950109448451966E8 ; 4.3606754514430887E8 ; 0.0
63 ; 6846304.584854751 ; 7033347.502327564 ; 4.163428543635168E8 ; 4.431008926466364E8 ; 0.0
64 ; 6844319.178272592 ; 7033347.502327564 ; 4.231891589483715E8 ; 4.50134240148964E8 ; 0.0
65 ; 6845658.1726505775 ; 7033347.502327564 ; 4.3003347812664413E8 ; 4.5716758765129155E8 ; 0.0
66 ; 6846683.378298967 ; 7033347.502327564 ; 4.368791362992947E8 ; 4.642009351536191E8 ; 0.0
67 ; 6846908.57798845 ; 7033347.502327564 ; 4.4372581967759365E8 ; 4.712342826559467E8 ; 0.0
68 ; 6848543.452586859 ; 7033347.502327564 ; 4.505727282555821E8 ; 4.7826763015827423E8 ; 0.0
69 ; 6849210.966576071 ; 7033347.502327564 ; 4.57421271708169E8 ; 4.853009776606018E8 ; 0.0
70 ; 6850277.843455598 ; 7033347.502327564 ; 4.642704826747451E8 ; 4.9233432516292936E8 ; 0.0
71 ; 6850603.847010358 ; 7033347.502327564 ; 4.711207605182007E8 ; 4.993676726652569E8 ; 0.0
72 ; 6853866.21011506 ; 7033347.502327564 ; 4.7797136436521107E8 ; 5.064010201675845E8 ; 0.0
73 ; 6851852.147373271 ; 7033347.502327564 ; 4.8482523057532614E8 ; 5.1343436766991204E8 ; 0.0
74 ; 6851507.2535279365 ; 7033347.502327564 ; 4.916770827226994E8 ; 5.204677151722396E8 ; 0.0
75 ; 6851809.409629492 ; 7033347.502327564 ; 4.9852858997622734E8 ; 5.2750106267456716E8 ; 0.0
76 ; 6852455.098204413 ; 7033347.502327564 ; 5.053803993858568E8 ; 5.345344101768947E8 ; 0.0
77 ; 6852883.573485473 ; 7033347.502327564 ; 5.1223285448406124E8 ; 5.415677576792223E8 ; 0.0
78 ; 6852105.747735435 ; 7033347.502327564 ; 5.1908573805754673E8 ; 5.486011051815499E8 ; 0.0
79 ; 6848777.033334979 ; 7033347.502327564 ; 5.259378438052822E8 ; 5.556344526838775E8 ; 0.0
80 ; 6848369.64962208 ; 7033347.502327564 ; 5.3278662083861715E8 ; 5.62667800186205E8 ; 0.0
81 ; 6845479.630965516 ; 7033347.502327564 ; 5.396349904882392E8 ; 5.697011476885326E8 ; 0.0
82 ; 6840555.229968399 ; 7033347.502327564 ; 5.464804701192046E8 ; 5.767344951908602E8 ; 0.0
83 ; 6841761.664918156 ; 7033347.502327564 ; 5.533210253491731E8 ; 5.837678426931877E8 ; 0.0
84 ; 6839842.851623039 ; 7033347.502327564 ; 5.601627870140913E8 ; 5.908011901955153E8 ; 0.0
85 ; 6836777.131719978 ; 7033347.502327564 ; 5.670026298657143E8 ; 5.978345376978428E8 ; 0.0
86 ; 6835397.807089485 ; 7033347.502327564 ; 5.738394069974343E8 ; 6.048678852001704E8 ; 0.0
87 ; 6832388.23999839 ; 7033347.502327564 ; 5.806748048045237E8 ; 6.11901232702498E8 ; 0.0
88 ; 6826886.388829108 ; 7033347.502327564 ; 5.87507193044522E8 ; 6.189345802048255E8 ; 0.0
89 ; 6825671.810973999 ; 7033347.502327564 ; 5.943340794333512E8 ; 6.259679277071531E8 ; 0.0
90 ; 6822394.21608821 ; 7033347.502327564 ; 6.011597512443252E8 ; 6.330012752094806E8 ; 0.0
91 ; 6819551.208752563 ; 7033347.502327564 ; 6.079821454604133E8 ; 6.400346227118082E8 ; 0.0
92 ; 6816438.426316069 ; 7033347.502327564 ; 6.148016966691658E8 ; 6.470679702141358E8 ; 0.0
93 ; 6815157.290651826 ; 7033347.502327564 ; 6.216181350954819E8 ; 6.541013177164633E8 ; 0.0
94 ; 6809866.791287512 ; 7033347.502327564 ; 6.284332923861337E8 ; 6.611346652187909E8 ; 0.0
95 ; 6806974.699366165 ; 7033347.502327564 ; 6.352431591774212E8 ; 6.681680127211185E8 ; 0.0
96 ; 6805882.046123959 ; 7033347.502327564 ; 6.420501338767874E8 ; 6.75201360223446E8 ; 0.0
97 ; 6800627.282569723 ; 7033347.502327564 ; 6.488560159229114E8 ; 6.822347077257736E8 ; 0.0
98 ; 6800791.567020069 ; 7033347.502327564 ; 6.556566432054812E8 ; 6.892680552281011E8 ; 0.0
99 ; 6794219.308914957 ; 7033347.502327564 ; 6.624574347725012E8 ; 6.963014027304287E8 ; 0.0
100 ; 6793386.260820757 ; 7033347.502327564 ; 6.692516540814161E8 ; 7.033347502327563E8 ; 0.0
101 ; 6789135.9708024515 ; 7033347.502327564 ; 6.760450403422369E8 ; 7.103680977350838E8 ; 0.0
102 ; 6784577.696743646 ; 7033347.502327564 ; 6.828341763130393E8 ; 7.174014452374114E8 ; 0.0
103 ; 6780069.108349423 ; 7033347.502327564 ; 6.896187540097829E8 ; 7.24434792739739E8 ; 0.0
104 ; 6779986.8577169245 ; 7033347.502327564 ; 6.963988231181324E8 ; 7.314681402420665E8 ; 0.0
105 ; 6773590.878642513 ; 7033347.502327564 ; 7.031788099758493E8 ; 7.385014877443941E8 ; 0.0
106 ; 6771746.813091789 ; 7033347.502327564 ; 7.099524008544918E8 ; 7.455348352467216E8 ; 0.0
107 ; 6767231.890571728 ; 7033347.502327564 ; 7.167241476675836E8 ; 7.525681827490492E8 ; 0.0
108 ; 6763112.267114919 ; 7033347.502327564 ; 7.234913795581553E8 ; 7.596015302513767E8 ; 0.0
109 ; 6758427.820987199 ; 7033347.502327564 ; 7.302544918252702E8 ; 7.666348777537043E8 ; 0.0
110 ; 6752428.7959726285 ; 7033347.502327564 ; 7.370129196462574E8 ; 7.736682252560319E8 ; 0.0
111 ; 6747331.285919596 ; 7033347.502327564 ; 7.4376534844223E8 ; 7.807015727583594E8 ; 0.0
112 ; 6744120.202475791 ; 7033347.502327564 ; 7.505126797281495E8 ; 7.87734920260687E8 ; 0.0
113 ; 6740809.858585384 ; 7033347.502327564 ; 7.572567999306253E8 ; 7.947682677630146E8 ; 0.0
114 ; 6737414.639877654 ; 7033347.502327564 ; 7.639976097892107E8 ; 8.018016152653421E8 ; 0.0
115 ; 6732612.493688437 ; 7033347.502327564 ; 7.707350244290884E8 ; 8.088349627676697E8 ; 0.0
116 ; 6725744.878268123 ; 7033347.502327564 ; 7.774676369227768E8 ; 8.158683102699972E8 ; 0.0
117 ; 6721321.361691484 ; 7033347.502327564 ; 7.84193381801045E8 ; 8.229016577723248E8 ; 0.0
118 ; 6718899.174585483 ; 7033347.502327564 ; 7.909147031627364E8 ; 8.299350052746524E8 ; 0.0
119 ; 6716227.49647559 ; 7033347.502327564 ; 7.976336023373219E8 ; 8.369683527769799E8 ; 0.0
120 ; 6710965.229514331 ; 7033347.502327564 ; 8.043498298337975E8 ; 8.440017002793075E8 ; 0.0
121 ; 6703402.653437708 ; 7033347.502327564 ; 8.110607950633118E8 ; 8.51035047781635E8 ; 0.0
122 ; 6699923.492265075 ; 7033347.502327564 ; 8.177641977167495E8 ; 8.580683952839626E8 ; 0.0
123 ; 6695713.787888907 ; 7033347.502327564 ; 8.244641212090147E8 ; 8.651017427862902E8 ; 0.0
124 ; 6689971.968088502 ; 7033347.502327564 ; 8.311598349969035E8 ; 8.721350902886177E8 ; 0.0
125 ; 6683774.439411701 ; 7033347.502327564 ; 8.37849806964992E8 ; 8.791684377909453E8 ; 0.0
126 ; 6679818.90220928 ; 7033347.502327564 ; 8.445335814044038E8 ; 8.862017852932729E8 ; 0.0
127 ; 6676105.466980454 ; 7033347.502327564 ; 8.512134003066131E8 ; 8.932351327956004E8 ; 0.0
128 ; 6667676.910817472 ; 7033347.502327564 ; 8.578895057735935E8 ; 9.00268480297928E8 ; 0.0
129 ; 6662010.611570929 ; 7033347.502327564 ; 8.64557182684411E8 ; 9.073018278002555E8 ; 0.0
130 ; 6656071.628849528 ; 7033347.502327564 ; 8.71219193295982E8 ; 9.143351753025831E8 ; 0.0
131 ; 6647333.549929233 ; 7033347.502327564 ; 8.778752649248315E8 ; 9.213685228049107E8 ; 0.0
132 ; 6642658.199657946 ; 7033347.502327564 ; 8.845225984747608E8 ; 9.284018703072382E8 ; 0.0
133 ; 6634066.116398059 ; 7033347.502327564 ; 8.911652566744187E8 ; 9.354352178095658E8 ; 0.0
134 ; 6625916.334945954 ; 7033347.502327564 ; 8.977993227908168E8 ; 9.424685653118933E8 ; 0.0
135 ; 6619370.439409317 ; 7033347.502327564 ; 9.044252391257627E8 ; 9.495019128142209E8 ; 0.0
136 ; 6611408.086049076 ; 7033347.502327564 ; 9.110446095651721E8 ; 9.565352603165485E8 ; 0.0
137 ; 6605733.863605171 ; 7033347.502327564 ; 9.176560176512212E8 ; 9.63568607818876E8 ; 0.0
138 ; 6595349.066023643 ; 7033347.502327564 ; 9.242617515148263E8 ; 9.706019553212036E8 ; 0.0
139 ; 6586484.971435896 ; 7033347.502327564 ; 9.308571005808499E8 ; 9.776353028235312E8 ; 0.0
140 ; 6579505.978215822 ; 7033347.502327564 ; 9.374435855522858E8 ; 9.846686503258587E8 ; 0.0
141 ; 6571471.455119608 ; 7033347.502327564 ; 9.440230915305016E8 ; 9.917019978281863E8 ; 0.0
142 ; 6566675.757011985 ; 7033347.502327564 ; 9.505945629856212E8 ; 9.987353453305138E8 ; 0.0
143 ; 6554393.951091915 ; 7033347.502327564 ; 9.571612387426332E8 ; 1.0057686928328414E9 ; 0.0
144 ; 6547168.356047135 ; 7033347.502327564 ; 9.637156326937251E8 ; 1.012802040335169E9 ; 0.0
145 ; 6542028.700414852 ; 7033347.502327564 ; 9.702628010497723E8 ; 1.0198353878374965E9 ; 0.0
146 ; 6536688.003077579 ; 7033347.502327564 ; 9.768048297501872E8 ; 1.0268687353398241E9 ; 0.0
147 ; 6532373.7250579 ; 7033347.502327564 ; 9.833415177532648E8 ; 1.0339020828421516E9 ; 0.0
148 ; 6525828.459479243 ; 7033347.502327564 ; 9.898738914783227E8 ; 1.0409354303444792E9 ; 0.0
149 ; 6520589.580853803 ; 7033347.502327564 ; 9.96399719937802E8 ; 1.0479687778468068E9 ; 0.0
150 ; 6512909.319617052 ; 7033347.502327564 ; 1.0029203095186558E9 ; 1.0550021253491343E9 ; 0.0
151 ; 6506974.231965002 ; 7033347.502327564 ; 1.0094332188382728E9 ; 1.0620354728514619E9 ; 0.0
152 ; 6501187.255040311 ; 7033347.502327564 ; 1.0159401930702378E9 ; 1.0690688203537894E9 ; 0.0
153 ; 6495626.492874753 ; 7033347.502327564 ; 1.022441380325278E9 ; 1.076102167856117E9 ; 0.0
154 ; 6490070.617479599 ; 7033347.502327564 ; 1.0289370068181528E9 ; 1.0831355153584447E9 ; 0.0
155 ; 6482153.423552179 ; 7033347.502327564 ; 1.0354270774356323E9 ; 1.0901688628607724E9 ; 0.0
156 ; 6480142.102715517 ; 7033347.502327564 ; 1.0419092308591845E9 ; 1.0972022103631E9 ; 0.0
157 ; 6473125.712783531 ; 7033347.502327564 ; 1.0483893729619E9 ; 1.1042355578654277E9 ; 0.0
158 ; 6467315.5792949 ; 7033347.502327564 ; 1.0548624986746836E9 ; 1.1112689053677554E9 ; 0.0
159 ; 6464195.552913594 ; 7033347.502327564 ; 1.0613298142539785E9 ; 1.118302252870083E9 ; 0.0
160 ; 6453904.517706619 ; 7033347.502327564 ; 1.067794009806892E9 ; 1.1253356003724108E9 ; 0.0
161 ; 6447690.512545504 ; 7033347.502327564 ; 1.0742479143245986E9 ; 1.1323689478747385E9 ; 0.0
162 ; 6443335.045711115 ; 7033347.502327564 ; 1.0806956048371441E9 ; 1.1394022953770661E9 ; 0.0
163 ; 6435960.932613477 ; 7033347.502327564 ; 1.0871389398828552E9 ; 1.1464356428793938E9 ; 0.0
164 ; 6429499.650311923 ; 7033347.502327564 ; 1.0935749008154685E9 ; 1.1534689903817215E9 ; 0.0
165 ; 6422245.726834917 ; 7033347.502327564 ; 1.1000044004657805E9 ; 1.1605023378840492E9 ; 0.0
166 ; 6418141.512647593 ; 7033347.502327564 ; 1.1064266461926155E9 ; 1.1675356853863769E9 ; 0.0
167 ; 6411673.677733721 ; 7033347.502327564 ; 1.1128447877052631E9 ; 1.1745690328887045E9 ; 0.0
168 ; 6404224.9389683325 ; 7033347.502327564 ; 1.1192564613829968E9 ; 1.1816023803910322E9 ; 0.0
169 ; 6397507.828442749 ; 7033347.502327564 ; 1.1256606863219652E9 ; 1.18863572789336E9 ; 0.0
170 ; 6391389.889245379 ; 7033347.502327564 ; 1.132058194150408E9 ; 1.1956690753956876E9 ; 0.0
171 ; 6385318.283224719 ; 7033347.502327564 ; 1.1384495840396533E9 ; 1.2027024228980153E9 ; 0.0
172 ; 6380324.241060238 ; 7033347.502327564 ; 1.1448349023228781E9 ; 1.209735770400343E9 ; 0.0
173 ; 6373532.764260514 ; 7033347.502327564 ; 1.1512152265639384E9 ; 1.2167691179026706E9 ; 0.0
174 ; 6368238.096186627 ; 7033347.502327564 ; 1.157588759328199E9 ; 1.2238024654049983E9 ; 0.0
175 ; 6364218.327707349 ; 7033347.502327564 ; 1.1639569974243855E9 ; 1.230835812907326E9 ; 0.0
176 ; 6363940.611243607 ; 7033347.502327564 ; 1.1703212157520928E9 ; 1.2378691604096537E9 ; 0.0
177 ; 6358562.689796183 ; 7033347.502327564 ; 1.1766851563633366E9 ; 1.2449025079119813E9 ; 0.0
178 ; 6353627.813093465 ; 7033347.502327564 ; 1.1830437190531328E9 ; 1.251935855414309E9 ; 0.0
179 ; 6349433.88786088 ; 7033347.502327564 ; 1.1893973468662262E9 ; 1.2589692029166367E9 ; 0.0
180 ; 6348200.046807947 ; 7033347.502327564 ; 1.195746780754087E9 ; 1.2660025504189644E9 ; 0.0
181 ; 6344208.100294433 ; 7033347.502327564 ; 1.202094980800895E9 ; 1.273035897921292E9 ; 0.0
182 ; 6341670.620982568 ; 7033347.502327564 ; 1.2084391889011893E9 ; 1.2800692454236197E9 ; 0.0
183 ; 6336736.286336822 ; 7033347.502327564 ; 1.214780859522172E9 ; 1.2871025929259474E9 ; 0.0
184 ; 6332561.153134324 ; 7033347.502327564 ; 1.2211175958085089E9 ; 1.294135940428275E9 ; 0.0
185 ; 6327760.132566088 ; 7033347.502327564 ; 1.2274501569616432E9 ; 1.3011692879306028E9 ; 0.0
186 ; 6326139.352507966 ; 7033347.502327564 ; 1.2337779170942092E9 ; 1.3082026354329305E9 ; 0.0
187 ; 6324920.673574976 ; 7033347.502327564 ; 1.2401040564467173E9 ; 1.3152359829352582E9 ; 0.0
188 ; 6317745.428301501 ; 7033347.502327564 ; 1.2464289771202922E9 ; 1.3222693304375858E9 ; 0.0
189 ; 6315725.743389822 ; 7033347.502327564 ; 1.2527467225485938E9 ; 1.3293026779399135E9 ; 0.0
190 ; 6310514.736266155 ; 7033347.502327564 ; 1.2590624482919836E9 ; 1.3363360254422412E9 ; 0.0
191 ; 6307533.183356276 ; 7033347.502327564 ; 1.2653729630282497E9 ; 1.3433693729445689E9 ; 0.0
192 ; 6301756.748730961 ; 7033347.502327564 ; 1.271680496211606E9 ; 1.3504027204468966E9 ; 0.0
193 ; 6298841.843191374 ; 7033347.502327564 ; 1.277982252960337E9 ; 1.3574360679492242E9 ; 0.0
194 ; 6295399.663141733 ; 7033347.502327564 ; 1.2842810948035283E9 ; 1.364469415451552E9 ; 0.0
195 ; 6291602.863781451 ; 7033347.502327564 ; 1.29057649446667E9 ; 1.3715027629538796E9 ; 0.0
196 ; 6285794.089177137 ; 7033347.502327564 ; 1.2968680973304515E9 ; 1.3785361104562073E9 ; 0.0
197 ; 6286908.465474225 ; 7033347.502327564 ; 1.3031538914196286E9 ; 1.385569457958535E9 ; 0.0
198 ; 6279763.658482323 ; 7033347.502327564 ; 1.3094407998851027E9 ; 1.3926028054608626E9 ; 0.0
199 ; 6278098.291234931 ; 7033347.502327564 ; 1.315720563543585E9 ; 1.3996361529631903E9 ; 0.0
200 ; 6273757.198587712 ; 7033347.502327564 ; 1.32199866183482E9 ; 1.406669500465518E9 ; 0.0
201 ; 6268341.258237825 ; 7033347.502327564 ; 1.3282724190334077E9 ; 1.4137028479678457E9 ; 0.0
202 ; 6265804.856167323 ; 7033347.502327564 ; 1.3345407602916455E9 ; 1.4207361954701734E9 ; 0.0
203 ; 6264651.475223225 ; 7033347.502327564 ; 1.3408065651478128E9 ; 1.427769542972501E9 ; 0.0
204 ; 6257706.134566281 ; 7033347.502327564 ; 1.3470712166230361E9 ; 1.4348028904748287E9 ; 0.0
205 ; 6253742.36283326 ; 7033347.502327564 ; 1.3533289227576025E9 ; 1.4418362379771564E9 ; 0.0
206 ; 6251123.862623798 ; 7033347.502327564 ; 1.3595826651204357E9 ; 1.448869585479484E9 ; 0.0
207 ; 6247430.8292132 ; 7033347.502327564 ; 1.3658337889830594E9 ; 1.4559029329818118E9 ; 0.0
208 ; 6241406.803967833 ; 7033347.502327564 ; 1.3720812198122725E9 ; 1.4629362804841394E9 ; 0.0
