CSV File for the City 6 on Day 79
1 - Minute m 
2 - Power Consumed at minute m 
3 - Power Produced at minute m 
4 - Energy Consumed since the beginning of the day 
5 - Energy Produced since the beginning of the day 
6 - Energy Lost since the beginning of the day on lines starting from the city
 
0 ; 1.1157295880413989E7 ; 1.060302108563309E8 ; 0.0 ; 0.0 ; 0.0
1 ; 1.1170353665115673E7 ; 1.0618105889134252E8 ; 1.1157295880413989E7 ; 1.060302108563309E8 ; 0.0
2 ; 1.1179957138787879E7 ; 1.0664090190467319E8 ; 2.2327649545529664E7 ; 2.1221126974767342E8 ; 0.0
3 ; 1.1193249157302571E7 ; 1.0740974397922361E8 ; 3.3507606684317544E7 ; 3.188521716523466E8 ; 0.0
4 ; 1.1213141100073649E7 ; 1.0848758877948987E8 ; 4.470085584162012E7 ; 4.262619156315702E8 ; 0.0
5 ; 1.123438840757903E7 ; 1.0987443952941477E8 ; 5.591399694169377E7 ; 5.347495044110601E8 ; 0.0
6 ; 1.1259023993024204E7 ; 1.1157029899249282E8 ; 6.71483853492728E7 ; 6.446239439404749E8 ; 0.0
7 ; 1.129414747977935E7 ; 1.135751694544099E8 ; 7.8407409342297E7 ; 7.561942429329677E8 ; 0.0
8 ; 1.134370494716563E7 ; 1.1588905270846969E8 ; 8.970155682207635E7 ; 8.697694123873775E8 ; 0.0
9 ; 1.142795649231979E7 ; 1.1851195004402345E8 ; 1.0104526176924199E8 ; 9.856584650958471E8 ; 0.0
10 ; 1.1548543552355211E7 ; 1.2144386223807567E8 ; 1.1247321826156178E8 ; 1.1041704151398706E9 ; 0.0
11 ; 1.1748601224371618E7 ; 1.2468478955019632E8 ; 1.24021761813917E8 ; 1.2256142773779464E9 ; 0.0
12 ; 1.2063176037089016E7 ; 1.2823473172081539E8 ; 1.3577036303828862E8 ; 1.3502990669281428E9 ; 0.0
13 ; 1.2371421782190073E7 ; 1.320936879729284E8 ; 1.4783353907537764E8 ; 1.4785337986489582E9 ; 0.0
14 ; 1.2402686612115525E7 ; 1.362616570171842E8 ; 1.6020496085756773E8 ; 1.6106274866218867E9 ; 0.0
15 ; 1.2419160571761308E7 ; 1.4073863706027895E8 ; 1.7260764746968326E8 ; 1.746889143639071E9 ; 0.0
16 ; 1.243531746456293E7 ; 1.4552462581652692E8 ; 1.8502680804144457E8 ; 1.8876277806993499E9 ; 0.0
17 ; 1.2448354763536563E7 ; 1.506196205224335E8 ; 1.974621255060075E8 ; 2.0331524065158768E9 ; 0.0
18 ; 1.2461132895699657E7 ; 1.560236179540559E8 ; 2.0991048026954406E8 ; 2.18377202703831E9 ; 0.0
19 ; 1.2477025584814122E7 ; 1.6173661444689807E8 ; 2.2237161316524372E8 ; 2.339795644992366E9 ; 0.0
20 ; 1.2491012938170154E7 ; 1.6775860591805926E8 ; 2.3484863875005785E8 ; 2.501532259439264E9 ; 0.0
21 ; 1.2509503763528563E7 ; 1.740895878903322E8 ; 2.47339651688228E8 ; 2.669290865357323E9 ; 0.0
22 ; 1.252193496095759E7 ; 1.807295555179314E8 ; 2.5984915545175657E8 ; 2.8433804532476554E9 ; 0.0
23 ; 1.2535366492814695E7 ; 1.876785036135248E8 ; 2.723710904127142E8 ; 3.024110008765587E9 ; 0.0
24 ; 1.2549860158096412E7 ; 1.9493642667623895E8 ; 2.849064569055289E8 ; 3.211788512379112E9 ; 0.0
25 ; 1.2565158456359709E7 ; 2.011913598184999E8 ; 2.9745631706362534E8 ; 3.406724939055351E9 ; 0.0
26 ; 1.257438696604841E7 ; 2.0119684483192426E8 ; 3.10021475519985E8 ; 3.607916298873851E9 ; 0.0
27 ; 1.2595843994528906E7 ; 2.0120264474126154E8 ; 3.2259586248603344E8 ; 3.8091131437057753E9 ; 0.0
28 ; 1.2604031595363304E7 ; 2.0120875307997346E8 ; 3.351917064805623E8 ; 4.0103157884470367E9 ; 0.0
29 ; 1.2623425243384965E7 ; 2.0121516321180272E8 ; 3.4779573807592565E8 ; 4.21152454152701E9 ; 0.0
30 ; 1.2632715154888233E7 ; 2.012218683583887E8 ; 3.604191633193106E8 ; 4.412739704738812E9 ; 0.0
31 ; 1.2650266886625819E7 ; 2.0122886162597802E8 ; 3.730518784741988E8 ; 4.613961573097201E9 ; 0.0
32 ; 1.2663732162679965E7 ; 2.0123613603106225E8 ; 3.8570214536082464E8 ; 4.81519043472318E9 ; 0.0
33 ; 1.2673927036554703E7 ; 2.0124368452480325E8 ; 3.983658775235046E8 ; 5.016426570754242E9 ; 0.0
34 ; 1.268694985223116E7 ; 2.0125150001613542E8 ; 4.110398045600593E8 ; 5.217670255279045E9 ; 0.0
35 ; 1.2698540608416919E7 ; 2.0125957539346057E8 ; 4.2372675441229045E8 ; 5.41892175529518E9 ; 0.0
36 ; 1.2706578928438982E7 ; 2.0126790354487655E8 ; 4.3642529502070737E8 ; 5.620181330688641E9 ; 0.0
37 ; 1.2718346483628234E7 ; 2.012764773769048E8 ; 4.4913187394914633E8 ; 5.821449234233517E9 ; 0.0
38 ; 1.2729702004362114E7 ; 2.0128528983170238E8 ; 4.6185022043277454E8 ; 6.022725711610421E9 ; 0.0
39 ; 1.2739490323234582E7 ; 2.012943339027638E8 ; 4.7457992243713665E8 ; 6.224011001442123E9 ; 0.0
40 ; 1.2748996088917455E7 ; 2.013036026491331E8 ; 4.873194127603712E8 ; 6.425305335344887E9 ; 0.0
41 ; 1.2760741366517305E7 ; 2.0131308920816234E8 ; 5.0006840884928864E8 ; 6.6266089379940195E9 ; 0.0
42 ; 1.2767903299363103E7 ; 2.013227868068637E8 ; 5.1282915021580595E8 ; 6.827922027202182E9 ; 0.0
43 ; 1.2778312135456054E7 ; 2.0133268877191105E8 ; 5.25597053515169E8 ; 7.029244814009046E9 ; 0.0
44 ; 1.2783725588296056E7 ; 2.0134278853835595E8 ; 5.383753656506251E8 ; 7.230577502780956E9 ; 0.0
45 ; 1.278954909330967E7 ; 2.0135307965712744E8 ; 5.511590912389212E8 ; 7.431920291319312E9 ; 0.0
46 ; 1.2797089200472148E7 ; 2.0136355580138922E8 ; 5.639486403322308E8 ; 7.633273370976439E9 ; 0.0
47 ; 1.2804153836281184E7 ; 2.0137421077183017E8 ; 5.767457295327029E8 ; 7.834636926777828E9 ; 0.0
48 ; 1.2808659872185776E7 ; 2.013850385009653E8 ; 5.895498833689841E8 ; 8.036011137549659E9 ; 0.0
49 ; 1.2815937916702056E7 ; 2.0139603305652338E8 ; 6.023585432411699E8 ; 8.237396176050624E9 ; 0.0
50 ; 1.2815659354858065E7 ; 2.0140718864399785E8 ; 6.15174481157872E8 ; 8.438792209107147E9 ; 0.0
51 ; 1.2821633811823409E7 ; 2.014184996084339E8 ; 6.2799014051273E8 ; 8.640199397751144E9 ; 0.0
52 ; 1.2823578282680873E7 ; 2.0142996043552405E8 ; 6.408117743245534E8 ; 8.84161789735958E9 ; 0.0
53 ; 1.2833202733133888E7 ; 2.014415657520796E8 ; 6.536353526072342E8 ; 9.043047857795103E9 ; 0.0
54 ; 1.2832174661128843E7 ; 2.014533103259442E8 ; 6.664685553403682E8 ; 9.244489423547182E9 ; 0.0
55 ; 1.283810561322529E7 ; 2.014651890654094E8 ; 6.79300730001497E8 ; 9.445942733873127E9 ; 0.0
56 ; 1.2841284572903883E7 ; 2.014771970181916E8 ; 6.921388356147224E8 ; 9.647407922938536E9 ; 0.0
57 ; 1.28468510098317E7 ; 2.0148932937002257E8 ; 7.049801201876262E8 ; 9.848885119956728E9 ; 0.0
58 ; 1.2848125607553713E7 ; 2.0150158144290462E8 ; 7.178269711974579E8 ; 1.005037444932675E10 ; 0.0
59 ; 1.2851690442693394E7 ; 2.0151394869307578E8 ; 7.306750968050116E8 ; 1.0251876030769655E10 ; 0.0
60 ; 1.2855176800109137E7 ; 2.0152642670872793E8 ; 7.43526787247705E8 ; 1.045338997946273E10 ; 0.0
61 ; 1.2856921106911778E7 ; 2.0153901120751604E8 ; 7.563819640478141E8 ; 1.065491640617146E10 ; 0.0
62 ; 1.2857865819447735E7 ; 2.015516980338944E8 ; 7.692388851547259E8 ; 1.0856455417378975E10 ; 0.0
63 ; 1.2861205053792965E7 ; 2.0156448315631098E8 ; 7.820967509741737E8 ; 1.1058007115412868E10 ; 0.0
64 ; 1.28650371004374E7 ; 2.0157736266428983E8 ; 7.949579560279666E8 ; 1.125957159856918E10 ; 0.0
65 ; 1.2865126508425126E7 ; 2.0159033276542646E8 ; 8.07822993128404E8 ; 1.1461148961233469E10 ; 0.0
66 ; 1.2868005434156543E7 ; 2.0160338978231975E8 ; 8.206881196368291E8 ; 1.1662739293998896E10 ; 0.0
67 ; 1.2872462996984163E7 ; 2.016165301494614E8 ; 8.335561250709857E8 ; 1.1864342683781216E10 ; 0.0
68 ; 1.2871859207201201E7 ; 2.0162975041010022E8 ; 8.464285880679698E8 ; 1.2065959213930677E10 ; 0.0
69 ; 1.2875362378793063E7 ; 2.0164304721309847E8 ; 8.59300447275171E8 ; 1.2267588964340778E10 ; 0.0
70 ; 1.2874981913989874E7 ; 2.016564173097935E8 ; 8.721758096539642E8 ; 1.2469232011553877E10 ; 0.0
71 ; 1.287852950893966E7 ; 2.0166985755087748E8 ; 8.850507915679541E8 ; 1.267088842886367E10 ; 0.0
72 ; 1.2878561287862768E7 ; 2.016833648833056E8 ; 8.979293210768937E8 ; 1.2872558286414547E10 ; 0.0
73 ; 1.2883300617503496E7 ; 2.0169693634724206E8 ; 9.108078823647565E8 ; 1.3074241651297853E10 ; 0.0
74 ; 1.2881083718653677E7 ; 2.0171056907305133E8 ; 9.2369118298226E8 ; 1.3275938587645096E10 ; 0.0
75 ; 1.2880649056456026E7 ; 2.0172426027834183E8 ; 9.365722667009137E8 ; 1.3477649156718147E10 ; 0.0
76 ; 1.2881921969575519E7 ; 2.017380072650667E8 ; 9.494529157573696E8 ; 1.3679373416996489E10 ; 0.0
77 ; 1.2883055477016468E7 ; 2.0175180741668692E8 ; 9.623348377269452E8 ; 1.3881111424261555E10 ; 0.0
78 ; 1.2882126452943116E7 ; 2.0176565819539985E8 ; 9.752178932039616E8 ; 1.4082863231678242E10 ; 0.0
79 ; 1.2878516204113891E7 ; 2.0177955713943616E8 ; 9.881000196569047E8 ; 1.4284628889873642E10 ; 0.0
80 ; 1.2876599790417485E7 ; 2.0179350186042756E8 ; 1.0009785358610185E9 ; 1.4486408447013079E10 ; 0.0
81 ; 1.287540207048304E7 ; 2.0180749004084644E8 ; 1.013855135651436E9 ; 1.4688201948873507E10 ; 0.0
82 ; 1.2870803071082136E7 ; 2.018215194315189E8 ; 1.0267305377219191E9 ; 1.4890009438914352E10 ; 0.0
83 ; 1.286518907621815E7 ; 2.018355878492112E8 ; 1.0396013407930012E9 ; 1.5091830958345871E10 ; 0.0
84 ; 1.2858355354199976E7 ; 2.018496931742901E8 ; 1.0524665298692193E9 ; 1.5293666546195082E10 ; 0.0
85 ; 1.2855699896652445E7 ; 2.01863833348457E8 ; 1.0653248852234193E9 ; 1.5495516239369371E10 ; 0.0
86 ; 1.2855858094351215E7 ; 2.0187800637255502E8 ; 1.0781805851200716E9 ; 1.5697380072717829E10 ; 0.0
87 ; 1.2848055941035327E7 ; 2.0189221030444834E8 ; 1.091036443214423E9 ; 1.5899258079090384E10 ; 0.0
88 ; 1.2845694424604163E7 ; 2.019064432569729E8 ; 1.1038844991554582E9 ; 1.6101150289394833E10 ; 0.0
89 ; 1.2841653472392745E7 ; 2.019207033959576E8 ; 1.1167301935800624E9 ; 1.6303056732651806E10 ; 0.0
90 ; 1.2840033577064512E7 ; 2.0193498893831363E8 ; 1.1295718470524552E9 ; 1.6504977436047764E10 ; 0.0
91 ; 1.2833934353819702E7 ; 2.019492981501919E8 ; 1.1424118806295197E9 ; 1.6706912424986078E10 ; 0.0
92 ; 1.2827584043649029E7 ; 2.0196362934520593E8 ; 1.1552458149833393E9 ; 1.690886172313627E10 ; 0.0
93 ; 1.2823710273103243E7 ; 2.0197798088271886E8 ; 1.1680733990269883E9 ; 1.7110825352481476E10 ; 0.0
94 ; 1.2820210739635255E7 ; 2.019923511661932E8 ; 1.1808971093000915E9 ; 1.7312803333364193E10 ; 0.0
95 ; 1.2814582867200797E7 ; 2.0200673864160126E8 ; 1.1937173200397267E9 ; 1.7514795684530388E10 ; 0.0
96 ; 1.2811308532683656E7 ; 2.0202114179589444E8 ; 1.2065319029069276E9 ; 1.771680242317199E10 ; 0.0
97 ; 1.2804980459049799E7 ; 2.0203555915553004E8 ; 1.2193432114396112E9 ; 1.7918823564967884E10 ; 0.0
98 ; 1.2801413784413539E7 ; 2.0204998928505298E8 ; 1.232148191898661E9 ; 1.8120859124123413E10 ; 0.0
99 ; 1.2795335540062584E7 ; 2.020644307857319E8 ; 1.2449496056830745E9 ; 1.8322909113408466E10 ; 0.0
100 ; 1.2786236894980803E7 ; 2.020788822942464E8 ; 1.2577449412231371E9 ; 1.85249735441942E10 ; 0.0
101 ; 1.2784028287765933E7 ; 2.020933424814248E8 ; 1.270531178118118E9 ; 1.8727052426488445E10 ; 0.0
102 ; 1.2776926401791884E7 ; 2.0210781005103022E8 ; 1.283315206405884E9 ; 1.892914576896987E10 ; 0.0
103 ; 1.277290835806328E7 ; 2.0212228373859325E8 ; 1.2960921328076758E9 ; 1.91312535790209E10 ; 0.0
104 ; 1.2765107722638978E7 ; 2.021367623102897E8 ; 1.308865041165739E9 ; 1.9333375862759495E10 ; 0.0
105 ; 1.2762766701535663E7 ; 2.021512445618617E8 ; 1.3216301488883781E9 ; 1.9535512625069786E10 ; 0.0
106 ; 1.2754677742286963E7 ; 2.0216572931758043E8 ; 1.3343929155899138E9 ; 1.973766386963165E10 ; 0.0
107 ; 1.274675193076758E7 ; 2.0218021542924944E8 ; 1.3471475933322008E9 ; 1.993982959894923E10 ; 0.0
108 ; 1.2742321760247672E7 ; 2.0219470177524617E8 ; 1.3598943452629683E9 ; 2.014200981437848E10 ; 0.0
109 ; 1.273317674499601E7 ; 2.0220918725960112E8 ; 1.372636667023216E9 ; 2.0344204516153725E10 ; 0.0
110 ; 1.2729672863066215E7 ; 2.0222367081111258E8 ; 1.385369843768212E9 ; 2.0546413703413326E10 ; 0.0
111 ; 1.2722033450043224E7 ; 2.022381513824959E8 ; 1.3980995166312783E9 ; 2.0748637374224438E10 ; 0.0
112 ; 1.2717389096294247E7 ; 2.022526279495658E8 ; 1.4108215500813215E9 ; 2.0950875525606934E10 ; 0.0
113 ; 1.2707847793619862E7 ; 2.022670995104504E8 ; 1.4235389391776156E9 ; 2.11531281535565E10 ; 0.0
114 ; 1.2702095308237143E7 ; 2.0228156508483592E8 ; 1.4362467869712355E9 ; 2.135539525306695E10 ; 0.0
115 ; 1.2695036177563416E7 ; 2.022960237132406E8 ; 1.4489488822794726E9 ; 2.1557676818151787E10 ; 0.0
116 ; 1.2684373677909052E7 ; 2.023104744563169E8 ; 1.461643918457036E9 ; 2.175997284186503E10 ; 0.0
117 ; 1.267596605660188E7 ; 2.023249163941806E8 ; 1.4743282921349452E9 ; 2.1962283316321346E10 ; 0.0
118 ; 1.2668374530960303E7 ; 2.0233934862576595E8 ; 1.487004258191547E9 ; 2.2164608232715527E10 ; 0.0
119 ; 1.2665017657128654E7 ; 2.0235377026820582E8 ; 1.4996726327225072E9 ; 2.2366947581341293E10 ; 0.0
120 ; 1.2659716472642206E7 ; 2.0236818045623553E8 ; 1.5123376503796358E9 ; 2.25693013516095E10 ; 0.0
121 ; 1.2650710453281311E7 ; 2.0238257834162E8 ; 1.524997366852278E9 ; 2.2771669532065735E10 ; 0.0
122 ; 1.2638422324226694E7 ; 2.0239696309260258E8 ; 1.5376480773055594E9 ; 2.2974052110407356E10 ; 0.0
123 ; 1.2634368445470346E7 ; 2.024113338933753E8 ; 1.550286499629786E9 ; 2.3176449073499958E10 ; 0.0
124 ; 1.2624959138492016E7 ; 2.024256899435692E8 ; 1.5629208680752563E9 ; 2.3378860407393333E10 ; 0.0
125 ; 1.2617564758647054E7 ; 2.0244003045776442E8 ; 1.5755458272137485E9 ; 2.3581286097336903E10 ; 0.0
126 ; 1.2604946291653682E7 ; 2.0245435466501865E8 ; 1.5881633919723954E9 ; 2.3783726127794666E10 ; 0.0
127 ; 1.2600449395985488E7 ; 2.024686618084137E8 ; 1.600768338264049E9 ; 2.3986180482459686E10 ; 0.0
128 ; 1.2589998505348556E7 ; 2.0248295114461938E8 ; 1.6133687876600347E9 ; 2.41886491442681E10 ; 0.0
129 ; 1.2578085860397162E7 ; 2.0249722194347358E8 ; 1.625958786165383E9 ; 2.439113209541272E10 ; 0.0
130 ; 1.2571189517461775E7 ; 2.025114734875786E8 ; 1.6385368720257802E9 ; 2.4593629317356194E10 ; 0.0
131 ; 1.2557729009401433E7 ; 2.0252570507191238E8 ; 1.651108061543242E9 ; 2.4796140790843773E10 ; 0.0
132 ; 1.2545500805075439E7 ; 2.025399160034544E8 ; 1.6636657905526433E9 ; 2.4998666495915684E10 ; 0.0
133 ; 1.2532287081055952E7 ; 2.0255410560082573E8 ; 1.6762112913577187E9 ; 2.520120641191914E10 ; 0.0
134 ; 1.2519735127320467E7 ; 2.0256827319394237E8 ; 1.6887435784387746E9 ; 2.5403760517519966E10 ; 0.0
135 ; 1.2507311779108781E7 ; 2.025824181236816E8 ; 1.701263313566095E9 ; 2.560632879071391E10 ; 0.0
136 ; 1.2491225699923908E7 ; 2.0259653974156076E8 ; 1.7137706253452039E9 ; 2.580891120883759E10 ; 0.0
137 ; 1.248206063269295E7 ; 2.0261063740942758E8 ; 1.7262618510451279E9 ; 2.601150774857915E10 ; 0.0
138 ; 1.2467041373990458E7 ; 2.0262471049916258E8 ; 1.738743911677821E9 ; 2.621411838598858E10 ; 0.0
139 ; 1.2449526533085832E7 ; 2.0263875839239183E8 ; 1.7512109530518115E9 ; 2.641674309648774E10 ; 0.0
140 ; 1.2438268176897442E7 ; 2.0265278048021057E8 ; 1.7636604795848973E9 ; 2.661938185488013E10 ; 0.0
141 ; 1.242322055361252E7 ; 2.026667761629168E8 ; 1.7760987477617948E9 ; 2.682203463536034E10 ; 0.0
142 ; 1.2409848226140436E7 ; 2.0268074484975475E8 ; 1.7885219683154073E9 ; 2.702470141152326E10 ; 0.0
143 ; 1.2396295502833389E7 ; 2.026946859586675E8 ; 1.8009318165415478E9 ; 2.7227382156373013E10 ; 0.0
144 ; 1.2381241300929537E7 ; 2.027085989160586E8 ; 1.8133281120443811E9 ; 2.743007684233168E10 ; 0.0
145 ; 1.2370857269622428E7 ; 2.0272248315656248E8 ; 1.8257093533453107E9 ; 2.7632785441247738E10 ; 0.0
146 ; 1.2361980761785064E7 ; 2.0273633812282285E8 ; 1.838080210614933E9 ; 2.78355079244043E10 ; 0.0
147 ; 1.2354750848267728E7 ; 2.0275016326527935E8 ; 1.850442191376718E9 ; 2.8038244262527122E10 ; 0.0
148 ; 1.234513414270401E7 ; 2.0276395804196158E8 ; 1.8627969422249858E9 ; 2.82409944257924E10 ; 0.0
149 ; 1.2335636812416637E7 ; 2.027777219182906E8 ; 1.8751420763676898E9 ; 2.8443758383834362E10 ; 0.0
150 ; 1.232151605671013E7 ; 2.0279145436688757E8 ; 1.8874777131801064E9 ; 2.864653610575265E10 ; 0.0
151 ; 1.2312565695864536E7 ; 2.02805154867389E8 ; 1.8997992292368166E9 ; 2.8849327560119537E10 ; 0.0
152 ; 1.2308930405011786E7 ; 2.028188229062686E8 ; 1.912111794932681E9 ; 2.9052132714986927E10 ; 0.0
153 ; 1.2294005446646152E7 ; 2.0283245797666553E8 ; 1.924420725337693E9 ; 2.9254951537893196E10 ; 0.0
154 ; 1.2284071927750342E7 ; 2.0284605957821846E8 ; 1.9367147307843392E9 ; 2.945778399586986E10 ; 0.0
155 ; 1.227604230681838E7 ; 2.0285962721690562E8 ; 1.9489988027120895E9 ; 2.9660630055448082E10 ; 0.0
156 ; 1.2266106161397818E7 ; 2.028731604048903E8 ; 1.961274845018908E9 ; 2.986348968266499E10 ; 0.0
157 ; 1.225306622266615E7 ; 2.0288665866037187E8 ; 1.973540951180306E9 ; 3.006636284306988E10 ; 0.0
158 ; 1.2245311113059992E7 ; 2.0290012150744185E8 ; 1.9857940174029722E9 ; 3.0269249501730255E10 ; 0.0
159 ; 1.2235953742232412E7 ; 2.0291354847594494E8 ; 1.9980393285160322E9 ; 3.0472149623237698E10 ; 0.0
160 ; 1.222379982657015E7 ; 2.0292693910134494E8 ; 2.0102752822582645E9 ; 3.0675063171713642E10 ; 0.0
161 ; 1.2212082064272217E7 ; 2.0294029292459527E8 ; 2.0224990820848346E9 ; 3.0877990110814987E10 ; 0.0
162 ; 1.2203429990957875E7 ; 2.0295360949201378E8 ; 2.0347111641491067E9 ; 3.1080930403739582E10 ; 0.0
163 ; 1.2193735896700637E7 ; 2.0296688835516196E8 ; 2.0469145941400647E9 ; 3.1283884013231594E10 ; 0.0
164 ; 1.2184809167836262E7 ; 2.0298012907072836E8 ; 2.0591083300367653E9 ; 3.1486850901586758E10 ; 0.0
165 ; 1.2175805164608553E7 ; 2.029933312004156E8 ; 2.0712931392046015E9 ; 3.1689831030657486E10 ; 0.0
166 ; 1.2162584769804377E7 ; 2.0300649431083176E8 ; 2.08346894436921E9 ; 3.1892824361857903E10 ; 0.0
167 ; 1.2150780948147917E7 ; 2.0301961797338477E8 ; 2.0956315291390145E9 ; 3.2095830856168736E10 ; 0.0
168 ; 1.2139512864571258E7 ; 2.0303270176418105E8 ; 2.1077823100871625E9 ; 3.229885047414212E10 ; 0.0
169 ; 1.213111157361269E7 ; 2.030457452639269E8 ; 2.1199218229517338E9 ; 3.25018831759063E10 ; 0.0
170 ; 1.2118611289223451E7 ; 2.0305874805783373E8 ; 2.1320529345253465E9 ; 3.2704928921170227E10 ; 0.0
171 ; 1.2110307765013281E7 ; 2.0307170973552603E8 ; 2.14417154581457E9 ; 3.290798766922806E10 ; 0.0
172 ; 1.2097686597785383E7 ; 2.030846298909527E8 ; 2.156281853579583E9 ; 3.311105937896359E10 ; 0.0
173 ; 1.2088782741562156E7 ; 2.030975081223012E8 ; 2.1683795401773686E9 ; 3.331414400885454E10 ; 0.0
174 ; 1.208051017398159E7 ; 2.0311034403191435E8 ; 2.180468322918931E9 ; 3.3517241516976845E10 ; 0.0
175 ; 1.2073187158211594E7 ; 2.031231372262104E8 ; 2.1925488330929127E9 ; 3.372035186100876E10 ; 0.0
176 ; 1.2070752257546792E7 ; 2.03135887315605E8 ; 2.2046220202511244E9 ; 3.392347499823497E10 ; 0.0
177 ; 1.2060529798629435E7 ; 2.0314859391443652E8 ; 2.2166927725086713E9 ; 3.4126610885550575E10 ; 0.0
178 ; 1.2051623120984638E7 ; 2.0316125664089304E8 ; 2.2287533023073006E9 ; 3.432975947946501E10 ; 0.0
179 ; 1.2049461408905316E7 ; 2.0317387511694238E8 ; 2.240804925428285E9 ; 3.45329207361059E10 ; 0.0
180 ; 1.2040889894887391E7 ; 2.0318644896826395E8 ; 2.2528543868371906E9 ; 3.473609461122285E10 ; 0.0
181 ; 1.203570968750891E7 ; 2.0319897782418308E8 ; 2.264895276732078E9 ; 3.493928106019111E10 ; 0.0
182 ; 1.2027591347817495E7 ; 2.032114613176073E8 ; 2.276930986419587E9 ; 3.514248003801529E10 ; 0.0
183 ; 1.202242245299441E7 ; 2.0322389908496487E8 ; 2.2889585777674046E9 ; 3.534569149933289E10 ; 0.0
184 ; 1.2016987981231853E7 ; 2.0323629076614502E8 ; 2.300981000220399E9 ; 3.554891539841786E10 ; 0.0
185 ; 1.2010006352066409E7 ; 2.032486360044404E8 ; 2.3129979882016306E9 ; 3.5752151689184006E10 ; 0.0
186 ; 1.1996327495238967E7 ; 2.0326093444649118E8 ; 2.325007994553697E9 ; 3.5955400325188446E10 ; 0.0
187 ; 1.1998316735387076E7 ; 2.032731857422311E8 ; 2.337004322048936E9 ; 3.615866125963493E10 ; 0.0
188 ; 1.1991854229224293E7 ; 2.0328538954483497E8 ; 2.3490026387843227E9 ; 3.636193444537717E10 ; 0.0
189 ; 1.1984776897619054E7 ; 2.032975455106682E8 ; 2.360994493013547E9 ; 3.6565219834922005E10 ; 0.0
190 ; 1.1975477775377044E7 ; 2.0330965329923755E8 ; 2.372979269911166E9 ; 3.676851738043267E10 ; 0.0
191 ; 1.196698146103503E7 ; 2.033217125731439E8 ; 2.3849547476865435E9 ; 3.697182703373191E10 ; 0.0
192 ; 1.19616990924379E7 ; 2.0333372299803606E8 ; 2.3969217291475787E9 ; 3.717514874630505E10 ; 0.0
193 ; 1.1955466473356012E7 ; 2.033456842425663E8 ; 2.4088834282400165E9 ; 3.737848246930309E10 ; 0.0
194 ; 1.195298763588912E7 ; 2.0335759597834718E8 ; 2.4208388947133727E9 ; 3.758182815354566E10 ; 0.0
195 ; 1.1946223942753319E7 ; 2.0336945787990984E8 ; 2.4327918823492618E9 ; 3.778518574952401E10 ; 0.0
