CSV File for the City 3 on Day 94
1 - Minute m 
2 - Power Consumed at minute m 
3 - Power Produced at minute m 
4 - Energy Consumed since the beginning of the day 
5 - Energy Produced since the beginning of the day 
6 - Energy Lost since the beginning of the day on lines starting from the city
 
0 ; 2392460.989545516 ; 1.055397360795215E8 ; 0.0 ; 0.0 ; 0.0
1 ; 2392921.057386917 ; 1.0569268659972537E8 ; 2392460.989545516 ; 1.055397360795215E8 ; 0.0
2 ; 2396383.107206989 ; 1.0615441883681872E8 ; 4785382.046932433 ; 2.1123242267924687E8 ; 0.0
3 ; 2398228.0907811234 ; 1.0692493426191264E8 ; 7181765.154139422 ; 3.173868415160656E8 ; 0.0
4 ; 2402241.6254598848 ; 1.0800423419323063E8 ; 9579993.244920544 ; 4.2431177577797824E8 ; 0.0
5 ; 2407000.5694189216 ; 1.0939231978885758E8 ; 1.198223487038043E7 ; 5.323160099712089E8 ; 0.0
6 ; 2411940.4328460805 ; 1.1108919204024807E8 ; 1.4389235439799352E7 ; 6.417083297600665E8 ; 0.0
7 ; 2418672.5616569854 ; 1.1309485176657891E8 ; 1.680117587264543E7 ; 7.527975218003145E8 ; 0.0
8 ; 2430744.62080061 ; 1.1540929961001974E8 ; 1.9219848434302416E7 ; 8.658923735668935E8 ; 0.0
9 ; 2447343.3129730737 ; 1.1803253603198522E8 ; 2.1650593055103026E7 ; 9.813016731769133E8 ; 0.0
10 ; 2475156.1066294513 ; 1.2096456131042069E8 ; 2.40979363680761E7 ; 1.0993342092088985E9 ; 0.0
11 ; 2516001.3059656005 ; 1.2420537553815809E8 ; 2.657309247470555E7 ; 1.2202987705193193E9 ; 0.0
12 ; 2582250.8691009283 ; 1.2775497862236544E8 ; 2.908909378067115E7 ; 1.3445041460574775E9 ; 0.0
13 ; 2644431.389567829 ; 1.3161337028509742E8 ; 3.1671344649772078E7 ; 1.472259124679843E9 ; 0.0
14 ; 2652166.2235009437 ; 1.3578055006493944E8 ; 3.431577603933991E7 ; 1.6038724949649403E9 ; 0.0
15 ; 2655516.7599712485 ; 1.4025651731972176E8 ; 3.696794226284085E7 ; 1.7396530450298798E9 ; 0.0
16 ; 2658236.700819288 ; 1.4504127123026767E8 ; 3.96234590228121E7 ; 1.8799095623496015E9 ; 0.0
17 ; 2663159.1995480997 ; 1.5013481080512252E8 ; 4.228169572363139E7 ; 2.0249508335798693E9 ; 0.0
18 ; 2664936.8225412285 ; 1.5553713488620144E8 ; 4.494485492317949E7 ; 2.1750856443849916E9 ; 0.0
19 ; 2667485.991811804 ; 1.6124824215528092E8 ; 4.760979174572072E7 ; 2.330622779271193E9 ; 0.0
20 ; 2671664.4374672095 ; 1.6726813114124987E8 ; 5.0277277737532526E7 ; 2.491871021426474E9 ; 0.0
21 ; 2673245.459737865 ; 1.7359680022803017E8 ; 5.2948942174999736E7 ; 2.6591391525677238E9 ; 0.0
22 ; 2677354.633379933 ; 1.802342476630696E8 ; 5.56221876347376E7 ; 2.832735952795754E9 ; 0.0
23 ; 2680599.6230102745 ; 1.8718047156630778E8 ; 5.829954226811754E7 ; 3.0129702004588237E9 ; 0.0
24 ; 2683718.7044402617 ; 1.9443546993951398E8 ; 6.098014189112782E7 ; 3.200150672025131E9 ; 0.0
25 ; 2686217.087100615 ; 2.0068728157408082E8 ; 6.3663860595568076E7 ; 3.3945861419646454E9 ; 0.0
26 ; 2689285.1872524903 ; 2.0068945209770298E8 ; 6.635007768266869E7 ; 3.5952734235387263E9 ; 0.0
27 ; 2693088.442061651 ; 2.006917485091431E8 ; 6.903936286992118E7 ; 3.7959628756364293E9 ; 0.0
28 ; 2697147.795480062 ; 2.0069416843485677E8 ; 7.173245131198283E7 ; 3.9966546241455727E9 ; 0.0
29 ; 2699723.860671176 ; 2.0069670943199775E8 ; 7.442959910746288E7 ; 4.1973487925804296E9 ; 0.0
30 ; 2702094.5758096892 ; 2.0069936899800965E8 ; 7.712932296813406E7 ; 4.398045502012427E9 ; 0.0
31 ; 2706025.4486004417 ; 2.0070214457998148E8 ; 7.983141754394375E7 ; 4.598744871010437E9 ; 0.0
32 ; 2705134.9679780994 ; 2.0070503358370724E8 ; 8.253744299254419E7 ; 4.799447015590419E9 ; 0.0
33 ; 2710234.199048215 ; 2.0070803338239864E8 ; 8.52425779605223E7 ; 5.000152049174126E9 ; 0.0
34 ; 2715013.535048963 ; 2.0071114132500783E8 ; 8.795281215957052E7 ; 5.200860082556524E9 ; 0.0
35 ; 2716226.3574788524 ; 2.0071435474412572E8 ; 9.066782569461948E7 ; 5.401571223881532E9 ; 0.0
36 ; 2718237.8786841203 ; 2.0071767096342918E8 ; 9.338405205209833E7 ; 5.602285578625657E9 ; 0.0
37 ; 2720612.655441224 ; 2.0072108730465794E8 ; 9.610228993078245E7 ; 5.803003249589087E9 ; 0.0
38 ; 2722815.2015909795 ; 2.0072460109410885E8 ; 9.882290258622368E7 ; 6.003724336893744E9 ; 0.0
39 ; 2724660.626577432 ; 2.0072820966864175E8 ; 1.0154571778781466E8 ; 6.204448937987853E9 ; 0.0
40 ; 2726637.7635136577 ; 2.0073191038119647E8 ; 1.042703784143921E8 ; 6.405177147656495E9 ; 0.0
41 ; 2729827.3107710816 ; 2.0073570060582626E8 ; 1.0699701617790575E8 ; 6.605909058037691E9 ; 0.0
42 ; 2731006.31429374 ; 2.007395777422562E8 ; 1.0972684348867683E8 ; 6.8066447586435175E9 ; 0.0
43 ; 2733295.6689509884 ; 2.007435392199801E8 ; 1.1245784980297057E8 ; 7.007384336385774E9 ; 0.0
44 ; 2734039.803427668 ; 2.0074758250191164E8 ; 1.1519114547192156E8 ; 7.208127875605754E9 ; 0.0
45 ; 2735960.398064262 ; 2.0075170508760828E8 ; 1.1792518527534923E8 ; 7.408875458107666E9 ; 0.0
46 ; 2738300.167166859 ; 2.0075590451608813E8 ; 1.2066114567341349E8 ; 7.609627163195274E9 ; 0.0
47 ; 2739529.3260041475 ; 2.0076017836826223E8 ; 1.2339944584058034E8 ; 7.810383067711363E9 ; 0.0
48 ; 2738829.7901178687 ; 2.0076452426900455E8 ; 1.2613897516658449E8 ; 8.011143246079625E9 ; 0.0
49 ; 2742638.7950514946 ; 2.007689398888831E8 ; 1.2887780495670237E8 ; 8.21190777034863E9 ; 0.0
50 ; 2741803.9270600933 ; 2.0077342294557637E8 ; 1.3162044375175387E8 ; 8.412676710237513E9 ; 0.0
51 ; 2744018.676562653 ; 2.0077797120499784E8 ; 1.3436224767881396E8 ; 8.613450133183088E9 ; 0.0
52 ; 2745159.6993978876 ; 2.0078258248215222E8 ; 1.3710626635537663E8 ; 8.814228104388086E9 ; 0.0
53 ; 2746172.232259382 ; 2.0078725464174622E8 ; 1.3985142605477452E8 ; 9.01501068687024E9 ; 0.0
54 ; 2745739.107434086 ; 2.0079198559857494E8 ; 1.4259759828703392E8 ; 9.215797941511986E9 ; 0.0
55 ; 2745548.8064884734 ; 2.0079677331770596E8 ; 1.45343337394468E8 ; 9.416589927110561E9 ; 0.0
56 ; 2747681.43434492 ; 2.0080161581448036E8 ; 1.480888862009565E8 ; 9.617386700428267E9 ; 0.0
57 ; 2749707.122670125 ; 2.0080651115434995E8 ; 1.508365676353014E8 ; 9.818188316242746E9 ; 0.0
58 ; 2750435.0492124185 ; 2.0081145745256874E8 ; 1.5358627475797153E8 ; 1.0018994827397097E10 ; 0.0
59 ; 2750348.5504005 ; 2.0081645287375543E8 ; 1.5633670980718395E8 ; 1.0219806284849665E10 ; 0.0
60 ; 2750082.0118346075 ; 2.0082149563134217E8 ; 1.5908705835758445E8 ; 1.042062273772342E10 ; 0.0
61 ; 2751749.8298070137 ; 2.008265839869248E8 ; 1.6183714036941907E8 ; 1.0621444233354761E10 ; 0.0
62 ; 2751409.0908655887 ; 2.008317162495273E8 ; 1.6458889019922608E8 ; 1.0822270817341686E10 ; 0.0
63 ; 2752310.086457788 ; 2.0083689077479362E8 ; 1.6734029929009166E8 ; 1.1023102533591213E10 ; 0.0
64 ; 2754176.354216889 ; 2.008421059641173E8 ; 1.7009260937654945E8 ; 1.1223939424366007E10 ; 0.0
65 ; 2756191.1848979034 ; 2.008473602637199E8 ; 1.7284678573076636E8 ; 1.1424781530330124E10 ; 0.0
66 ; 2753957.1595487115 ; 2.008526521636876E8 ; 1.7560297691566426E8 ; 1.1625628890593843E10 ; 0.0
67 ; 2754153.737039966 ; 2.0085798019697404E8 ; 1.7835693407521296E8 ; 1.182648154275753E10 ; 0.0
68 ; 2754607.546365228 ; 2.0086334293837756E8 ; 1.811110878122529E8 ; 1.2027339522954504E10 ; 0.0
69 ; 2756544.650595456 ; 2.0086873900349942E8 ; 1.8386569535861814E8 ; 1.2228202865892881E10 ; 0.0
70 ; 2757123.7511136835 ; 2.0087416704768932E8 ; 1.866222400092136E8 ; 1.2429071604896381E10 ; 0.0
71 ; 2756812.8588928 ; 2.0087962576498374E8 ; 1.8937936376032728E8 ; 1.262994577194407E10 ; 0.0
72 ; 2758639.965713842 ; 2.008851138870418E8 ; 1.9213617661922008E8 ; 1.2830825397709055E10 ; 0.0
73 ; 2758693.5662595243 ; 2.0089063018208304E8 ; 1.948948165849339E8 ; 1.3031710511596096E10 ; 0.0
74 ; 2758725.2535256934 ; 2.0089617345383102E8 ; 1.9765351015119344E8 ; 1.323260114177818E10 ; 0.0
75 ; 2757814.0534101236 ; 2.0090174254046562E8 ; 2.0041223540471914E8 ; 1.343349731523201E10 ; 0.0
76 ; 2758789.556351745 ; 2.009073363135874E8 ; 2.0317004945812926E8 ; 1.3634399057772476E10 ; 0.0
77 ; 2758984.7377951434 ; 2.00912953677196E8 ; 2.05928839014481E8 ; 1.3835306394086063E10 ; 0.0
78 ; 2757355.372215457 ; 2.0091859356668493E8 ; 2.0868782375227615E8 ; 1.403621934776326E10 ; 0.0
79 ; 2757458.056344093 ; 2.009242549478545E8 ; 2.114451791244916E8 ; 1.4237137941329945E10 ; 0.0
80 ; 2757711.4682103335 ; 2.00929936815944E8 ; 2.142026371808357E8 ; 1.44380621962778E10 ; 0.0
81 ; 2756094.937977822 ; 2.0093563819468504E8 ; 2.1696034864904603E8 ; 1.4638992133093744E10 ; 0.0
82 ; 2755567.014670304 ; 2.0094135813537621E8 ; 2.1971644358702385E8 ; 1.483992777128843E10 ; 0.0
83 ; 2755133.6247363086 ; 2.009470957159803E8 ; 2.2247201060169417E8 ; 1.5040869129423805E10 ; 0.0
84 ; 2756905.978314191 ; 2.009528500402444E8 ; 2.2522714422643048E8 ; 1.5241816225139786E10 ; 0.0
85 ; 2753204.6850516303 ; 2.0095862023684362E8 ; 2.2798405020474467E8 ; 1.544276907518003E10 ; 0.0
86 ; 2754328.279918289 ; 2.009644054585481E8 ; 2.307372548897963E8 ; 1.5643727695416874E10 ; 0.0
87 ; 2752055.887604443 ; 2.009702048814142E8 ; 2.3349158316971457E8 ; 1.5844692100875422E10 ; 0.0
88 ; 2750889.9898723615 ; 2.009760177039989E8 ; 2.3624363905731902E8 ; 1.6045662305756836E10 ; 0.0
89 ; 2751178.658003903 ; 2.0098184314659837E8 ; 2.3899452904719138E8 ; 1.6246638323460835E10 ; 0.0
90 ; 2750526.1728972085 ; 2.009876804505097E8 ; 2.4174570770519528E8 ; 1.6447620166607433E10 ; 0.0
91 ; 2750160.957750049 ; 2.0099352887731612E8 ; 2.444962338780925E8 ; 1.6648607847057943E10 ; 0.0
92 ; 2749178.4746018504 ; 2.0099938770819485E8 ; 2.4724639483584255E8 ; 1.6849601375935259E10 ; 0.0
93 ; 2745282.2859460036 ; 2.010052562432478E8 ; 2.499955733104444E8 ; 1.7050600763643454E10 ; 0.0
94 ; 2746800.3252250287 ; 2.0101113380085427E8 ; 2.5274085559639043E8 ; 1.72516060198867E10 ; 0.0
95 ; 2746554.126297532 ; 2.0101701971704546E8 ; 2.5548765592161545E8 ; 1.7452617153687553E10 ; 0.0
96 ; 2744164.9785110606 ; 2.0102291334490013E8 ; 2.5823421004791299E8 ; 1.76536341734046E10 ; 0.0
97 ; 2743193.411719539 ; 2.010288140539611E8 ; 2.6097837502642405E8 ; 1.7854657086749496E10 ; 0.0
98 ; 2742532.354188936 ; 2.010347212296719E8 ; 2.6372156843814358E8 ; 1.805568590080346E10 ; 0.0
99 ; 2741693.6693742992 ; 2.010406342728332E8 ; 2.6646410079233253E8 ; 1.825672062203313E10 ; 0.0
100 ; 2740616.756169157 ; 2.010465525990784E8 ; 2.692057944617068E8 ; 1.8457761256305965E10 ; 0.0
101 ; 2740557.4849843537 ; 2.0105247563836774E8 ; 2.7194641121787596E8 ; 1.8658807808905045E10 ; 0.0
102 ; 2738959.5286871986 ; 2.010584028345007E8 ; 2.746869687028603E8 ; 1.885986028454341E10 ; 0.0
103 ; 2738698.191897207 ; 2.0106433364464557E8 ; 2.774259282315475E8 ; 1.906091868737791E10 ; 0.0
104 ; 2736911.227390536 ; 2.0107026753888643E8 ; 2.801646264234447E8 ; 1.9261983021022556E10 ; 0.0
105 ; 2736267.479279163 ; 2.010762039997863E8 ; 2.829015376508352E8 ; 1.9463053288561443E10 ; 0.0
106 ; 2734419.1346169184 ; 2.0108214252196616E8 ; 2.856378051301144E8 ; 1.966412949256123E10 ; 0.0
107 ; 2731500.519928329 ; 2.0108808261169964E8 ; 2.883722242647313E8 ; 1.9865211635083195E10 ; 0.0
108 ; 2732929.270916904 ; 2.0109402378652224E8 ; 2.911037247846596E8 ; 2.0066299717694893E10 ; 0.0
109 ; 2730128.654234105 ; 2.010999655748551E8 ; 2.938366540555765E8 ; 2.0267393741481415E10 ; 0.0
110 ; 2729512.3464757833 ; 2.0110590751564258E8 ; 2.965667827098106E8 ; 2.046849370705627E10 ; 0.0
111 ; 2727446.421583469 ; 2.0111184915800318E8 ; 2.992962950562864E8 ; 2.0669599614571915E10 ; 0.0
112 ; 2725763.3727063877 ; 2.0111779006089342E8 ; 3.0202374147786987E8 ; 2.087071146372992E10 ; 0.0
113 ; 2725589.4024226516 ; 2.0112372979278407E8 ; 3.047495048505763E8 ; 2.1071829253790813E10 ; 0.0
114 ; 2724219.5082659675 ; 2.0112966793134844E8 ; 3.0747509425299895E8 ; 2.12729529835836E10 ; 0.0
115 ; 2722237.898181162 ; 2.0113560406316215E8 ; 3.101993137612649E8 ; 2.1474082651514946E10 ; 0.0
116 ; 2721242.84350425 ; 2.011415377834141E8 ; 3.1292155165944606E8 ; 2.167521825557811E10 ; 0.0
117 ; 2719538.718779887 ; 2.0114746869562805E8 ; 3.156427945029503E8 ; 2.1876359793361523E10 ; 0.0
118 ; 2718079.518044668 ; 2.0115339641139454E8 ; 3.183623332217302E8 ; 2.207750726205715E10 ; 0.0
119 ; 2717170.431392538 ; 2.0115932055011287E8 ; 3.210804127397748E8 ; 2.2278660658468548E10 ; 0.0
120 ; 2715142.1971011856 ; 2.0116524073874244E8 ; 3.237975831711674E8 ; 2.247981997901866E10 ; 0.0
121 ; 2712863.324858758 ; 2.0117115661156335E8 ; 3.2651272536826855E8 ; 2.2680985219757404E10 ; 0.0
122 ; 2712487.48055473 ; 2.0117706780994597E8 ; 3.2922558869312733E8 ; 2.288215637636897E10 ; 0.0
123 ; 2710561.4081187653 ; 2.0118297398212874E8 ; 3.319380761736821E8 ; 2.3083333444178913E10 ; 0.0
124 ; 2709873.352612317 ; 2.0118887478300455E8 ; 3.346486375818009E8 ; 2.328451641816104E10 ; 0.0
125 ; 2706648.155107382 ; 2.0119476987391454E8 ; 3.373585109344132E8 ; 2.3485705292944046E10 ; 0.0
126 ; 2707160.9582296335 ; 2.0120065892244983E8 ; 3.400651590895206E8 ; 2.368690006281796E10 ; 0.0
127 ; 2702952.964980782 ; 2.0120654160226044E8 ; 3.4277232004775023E8 ; 2.388810072174041E10 ; 0.0
128 ; 2702039.5771821984 ; 2.012124175928711E8 ; 3.45475273012731E8 ; 2.408930726334267E10 ; 0.0
129 ; 2699270.778923899 ; 2.012182865795039E8 ; 3.481773125899132E8 ; 2.4290519680935543E10 ; 0.0
130 ; 2698397.284130459 ; 2.012241482529073E8 ; 3.508765833688371E8 ; 2.4491737967515045E10 ; 0.0
131 ; 2697259.5614178274 ; 2.0123000230919173E8 ; 3.535749806529676E8 ; 2.4692962115767952E10 ; 0.0
132 ; 2693624.4601454274 ; 2.0123584844967052E8 ; 3.562722402143854E8 ; 2.4894192118077145E10 ; 0.0
133 ; 2691737.3847996327 ; 2.0124168638070732E8 ; 3.589658646745308E8 ; 2.5095427966526814E10 ; 0.0
134 ; 2687648.2239507665 ; 2.0124751581356844E8 ; 3.6165760205933046E8 ; 2.529666965290752E10 ; 0.0
135 ; 2683832.271271258 ; 2.0125333646428093E8 ; 3.643452502832812E8 ; 2.549791716872109E10 ; 0.0
136 ; 2683436.123289488 ; 2.0125914805349568E8 ; 3.6702908255455244E8 ; 2.5699170505185368E10 ; 0.0
137 ; 2680246.478319619 ; 2.0126495030635512E8 ; 3.697125186778419E8 ; 2.5900429653238865E10 ; 0.0
138 ; 2676478.784014935 ; 2.0127074295236632E8 ; 3.7239276515616155E8 ; 2.610169460354522E10 ; 0.0
139 ; 2675099.6542861047 ; 2.012765257252779E8 ; 3.750692439401765E8 ; 2.6302965346497585E10 ; 0.0
140 ; 2671790.4786412283 ; 2.0128229836296186E8 ; 3.777443435944626E8 ; 2.6504241872222862E10 ; 0.0
141 ; 2669691.1595458663 ; 2.012880606072994E8 ; 3.804161340731038E8 ; 2.6705524170585823E10 ; 0.0
142 ; 2665771.161019748 ; 2.0129381220407072E8 ; 3.830858252326496E8 ; 2.6906812231193123E10 ; 0.0
143 ; 2663255.124038555 ; 2.0129955290284902E8 ; 3.8575159639366937E8 ; 2.7108106043397194E10 ; 0.0
144 ; 2659258.6348518673 ; 2.0130528245689785E8 ; 3.8841485151770794E8 ; 2.730940559630004E10 ; 0.0
145 ; 2659134.207004999 ; 2.0131100062307233E8 ; 3.910741101525598E8 ; 2.751071087875694E10 ; 0.0
146 ; 2657574.108134278 ; 2.0131670716172382E8 ; 3.9373324435956484E8 ; 2.7712021879380013E10 ; 0.0
147 ; 2655449.781163295 ; 2.0132240183660778E8 ; 3.963908184676991E8 ; 2.7913338586541737E10 ; 0.0
148 ; 2653975.224960744 ; 2.013280844147951E8 ; 3.990462682488624E8 ; 2.8114660988378345E10 ; 0.0
149 ; 2652428.6550315795 ; 2.013337546665862E8 ; 4.0170024347382313E8 ; 2.831598907279314E10 ; 0.0
150 ; 2650682.2948075924 ; 2.013394123654283E8 ; 4.043526721288547E8 ; 2.851732282745973E10 ; 0.0
151 ; 2647923.8674870115 ; 2.0134505728783566E8 ; 4.070033544236623E8 ; 2.8718662239825157E10 ; 0.0
152 ; 2647646.5506544146 ; 2.013506892133123E8 ; 4.096512782911493E8 ; 2.892000729711299E10 ; 0.0
153 ; 2644276.537184306 ; 2.0135630792427757E8 ; 4.122989248418037E8 ; 2.9121357986326305E10 ; 0.0
154 ; 2643113.435346646 ; 2.013619132059942E8 ; 4.14943201378988E8 ; 2.9322714294250584E10 ; 0.0
155 ; 2640287.7680220925 ; 2.0136750484649885E8 ; 4.175863148143347E8 ; 2.9524076207456577E10 ; 0.0
156 ; 2638184.1389742787 ; 2.0137308263653502E8 ; 4.202266025823568E8 ; 2.9725443712303078E10 ; 0.0
157 ; 2635370.697605726 ; 2.0137864636948824E8 ; 4.2286478672133106E8 ; 2.9926816794939613E10 ; 0.0
158 ; 2632862.17937415 ; 2.013841958413234E8 ; 4.255001574189368E8 ; 3.01281954413091E10 ; 0.0
159 ; 2632162.145674215 ; 2.0138973085052437E8 ; 4.2813301959831095E8 ; 3.0329579637150425E10 ; 0.0
160 ; 2631772.141151165 ; 2.0139525119803533E8 ; 4.307651817439852E8 ; 3.053096936800095E10 ; 0.0
161 ; 2628739.5174130057 ; 2.014007566872045E8 ; 4.3339695388513637E8 ; 3.0732364619198986E10 ; 0.0
162 ; 2628265.106328227 ; 2.0140624712372947E8 ; 4.360256934025494E8 ; 3.0933765375886192E10 ; 0.0
163 ; 2624621.8434190685 ; 2.014117223156043E8 ; 4.3865395850887764E8 ; 3.1135171623009922E10 ; 0.0
164 ; 2622526.769768301 ; 2.0141718207306868E8 ; 4.412785803522967E8 ; 3.1336583345325527E10 ; 0.0
165 ; 2619639.139375358 ; 2.014226262085585E8 ; 4.43901107122065E8 ; 3.1538000527398598E10 ; 0.0
166 ; 2620028.2658571335 ; 2.014280545366583E8 ; 4.4652074626144034E8 ; 3.1739423153607155E10 ; 0.0
167 ; 2615402.046199103 ; 2.0143346687405488E8 ; 4.491407745272975E8 ; 3.1940851208143814E10 ; 0.0
168 ; 2614778.9753628117 ; 2.0143886303949305E8 ; 4.517561765734966E8 ; 3.2142284675017868E10 ; 0.0
169 ; 2613147.1996664885 ; 2.0144424285373235E8 ; 4.543709555488594E8 ; 3.234372353805736E10 ; 0.0
170 ; 2610985.257056796 ; 2.0144960613950527E8 ; 4.569841027485259E8 ; 3.2545167780911095E10 ; 0.0
171 ; 2606976.5715467907 ; 2.01454952721477E8 ; 4.595950880055827E8 ; 3.27466173870506E10 ; 0.0
172 ; 2605525.4702913086 ; 2.0146028242620644E8 ; 4.622020645771295E8 ; 3.2948072339772076E10 ; 0.0
173 ; 2602972.0916465074 ; 2.014655950821083E8 ; 4.648075900474208E8 ; 3.314953262219828E10 ; 0.0
174 ; 2603149.9386102324 ; 2.0147089051941666E8 ; 4.674105621390673E8 ; 3.3350998217280388E10 ; 0.0
175 ; 2602277.9859659043 ; 2.0147616857014966E8 ; 4.7001371207767755E8 ; 3.3552469107799805E10 ; 0.0
176 ; 2599931.4053613767 ; 2.0148142906807515E8 ; 4.7261599006364346E8 ; 3.3753945276369953E10 ; 0.0
177 ; 2600009.995436677 ; 2.0148667184867766E8 ; 4.752159214690048E8 ; 3.3955426705438026E10 ; 0.0
178 ; 2598047.583699558 ; 2.014918967491264E8 ; 4.778159314644415E8 ; 3.4156913377286705E10 ; 0.0
179 ; 2596722.648220822 ; 2.014971036082441E8 ; 4.8041397904814106E8 ; 3.435840527403583E10 ; 0.0
180 ; 2594342.267560071 ; 2.0150229226647708E8 ; 4.830107016963619E8 ; 3.455990237764407E10 ; 0.0
181 ; 2595042.817674227 ; 2.0150746256586614E8 ; 4.8560504396392196E8 ; 3.476140466991055E10 ; 0.0
182 ; 2593493.187789499 ; 2.0151261435001844E8 ; 4.882000867815962E8 ; 3.496291213247642E10 ; 0.0
183 ; 2591847.6436518757 ; 2.0151774746408015E8 ; 4.907935799693857E8 ; 3.516442474682644E10 ; 0.0
184 ; 2590134.377162485 ; 2.0152286175471017E8 ; 4.933854276130376E8 ; 3.536594249429052E10 ; 0.0
185 ; 2589256.6895665023 ; 2.0152795707005444E8 ; 4.9597556199020004E8 ; 3.556746535604523E10 ; 0.0
186 ; 2588830.491046403 ; 2.0153303325972134E8 ; 4.9856481867976654E8 ; 3.576899331311528E10 ; 0.0
187 ; 2585998.137807176 ; 2.0153809017475745E8 ; 5.0115364917081296E8 ; 3.5970526346375E10 ; 0.0
188 ; 2586883.0011990573 ; 2.0154312766762465E8 ; 5.0373964730862015E8 ; 3.617206443654976E10 ; 0.0
189 ; 2584312.7952677286 ; 2.0154814559217736E8 ; 5.063265303098192E8 ; 3.6373607564217384E10 ; 0.0
190 ; 2584682.6549922605 ; 2.0155314380364075E8 ; 5.089108431050869E8 ; 3.657515570980956E10 ; 0.0
191 ; 2581769.698899852 ; 2.015581221585898E8 ; 5.114955257600792E8 ; 3.6776708853613205E10 ; 0.0
192 ; 2581012.1533516315 ; 2.015630805149287E8 ; 5.1407729545897907E8 ; 3.69782669757718E10 ; 0.0
193 ; 2580496.5331781106 ; 2.0156801873187092E8 ; 5.166583076123307E8 ; 3.717983005628673E10 ; 0.0
194 ; 2576671.0055139638 ; 2.0157293666992018E8 ; 5.1923880414550877E8 ; 3.73813980750186E10 ; 0.0
195 ; 2577406.617008247 ; 2.0157783419085175E8 ; 5.2181547515102273E8 ; 3.758297101168852E10 ; 0.0
196 ; 2575681.402921309 ; 2.0158271115769437E8 ; 5.24392881768031E8 ; 3.778454884587937E10 ; 0.0
197 ; 2573747.4295218997 ; 2.0158756743471277E8 ; 5.269685631709523E8 ; 3.798613155703706E10 ; 0.0
198 ; 2572996.7623060276 ; 2.015924028873907E8 ; 5.2954231060047424E8 ; 3.818771912447178E10 ; 0.0
199 ; 2571354.43020564 ; 2.0159721738241452E8 ; 5.321153073627803E8 ; 3.838931152735917E10 ; 0.0
200 ; 2570084.444546111 ; 2.0160201078765726E8 ; 5.346866617929859E8 ; 3.8590908744741585E10 ; 0.0
