CSV File for the City 1 on Day 231
1 - Minute m 
2 - Power Consumed at minute m 
3 - Power Produced at minute m 
4 - Energy Consumed since the beginning of the day 
5 - Energy Produced since the beginning of the day 
6 - Energy Lost since the beginning of the day on lines starting from the city
 
0 ; 1465839.8088687311 ; 1.0522958812288114E8 ; 0.0 ; 0.0 ; 0.0
1 ; 1475560.6732720574 ; 1.0537942142332506E8 ; 1465839.8088687311 ; 1.0522958812288114E8 ; 0.0
2 ; 1498940.6457607711 ; 1.0583808164237824E8 ; 2941400.482140789 ; 2.106090095462062E8 ; 0.0
3 ; 1521096.9544265224 ; 1.0660561226786238E8 ; 4440341.12790156 ; 3.1644709118858445E8 ; 0.0
4 ; 1543699.879151618 ; 1.0768206779464954E8 ; 5961438.082328082 ; 4.230527034564468E8 ; 0.0
5 ; 1573684.429898075 ; 1.0906751542563653E8 ; 7505137.9614797 ; 5.3073477125109637E8 ; 0.0
6 ; 1618515.8180355877 ; 1.107620356016384E8 ; 9078822.391377775 ; 6.398022866767329E8 ; 0.0
7 ; 1675414.137064108 ; 1.1276571985488212E8 ; 1.0697338209413363E7 ; 7.505643222783713E8 ; 0.0
8 ; 1758179.1365522286 ; 1.1507866408763474E8 ; 1.2372752346477471E7 ; 8.633300421332535E8 ; 0.0
9 ; 1870714.058715863 ; 1.1770095609347105E8 ; 1.41309314830297E7 ; 9.784087062208881E8 ; 0.0
10 ; 2058266.8225884459 ; 1.2063265890054941E8 ; 1.6001645541745564E7 ; 1.0961096623143592E9 ; 0.0
11 ; 2344895.241718684 ; 1.2387379559964392E8 ; 1.805991236433401E7 ; 1.2167423212149086E9 ; 0.0
12 ; 2813873.46627468 ; 1.2742434309998044E8 ; 2.0404807606052693E7 ; 1.3406161168145525E9 ; 0.0
13 ; 3260752.265415719 ; 1.3128423837340063E8 ; 2.321868107232737E7 ; 1.468040459914533E9 ; 0.0
14 ; 3313277.464146492 ; 1.3545339362632978E8 ; 2.647943333774309E7 ; 1.5993246982879336E9 ; 0.0
15 ; 3335249.7961366912 ; 1.399317129565007E8 ; 2.979271080188958E7 ; 1.7347780919142632E9 ; 0.0
16 ; 3359010.625372873 ; 1.447191048316866E8 ; 3.3127960598026272E7 ; 1.874709804870764E9 ; 0.0
17 ; 3382612.357753973 ; 1.4981548881107226E8 ; 3.648697122339915E7 ; 2.0194289097024505E9 ; 0.0
18 ; 3404049.2720507854 ; 1.5522079769176096E8 ; 3.986958358115312E7 ; 2.1692443985135226E9 ; 0.0
19 ; 3430352.8545525735 ; 1.609349769788806E8 ; 4.32736328532039E7 ; 2.3244651962052836E9 ; 0.0
20 ; 3446749.1901107132 ; 1.669579831846095E8 ; 4.6703985707756475E7 ; 2.485400173184164E9 ; 0.0
21 ; 3476390.8031397536 ; 1.732897818452851E8 ; 5.015073489786719E7 ; 2.6523581563687735E9 ; 0.0
22 ; 3498208.4828056614 ; 1.7993034567803353E8 ; 5.362712570100694E7 ; 2.8256479382140584E9 ; 0.0
23 ; 3527300.467963769 ; 1.8687965302684432E8 ; 5.71253341838126E7 ; 3.0055782838920918E9 ; 0.0
24 ; 3546595.638376124 ; 1.9413768661610204E8 ; 6.065263465177637E7 ; 3.1924579369189363E9 ; 0.0
25 ; 3567401.962802123 ; 2.0039247347469035E8 ; 6.41992302901525E7 ; 3.3865956235350385E9 ; 0.0
26 ; 3594108.9774536723 ; 2.0039755022154158E8 ; 6.776663225295462E7 ; 3.586988097009729E9 ; 0.0
27 ; 3614674.107917027 ; 2.0040267701407054E8 ; 7.13607412304083E7 ; 3.7873856472312703E9 ; 0.0
28 ; 3638552.500140091 ; 2.0040784635290298E8 ; 7.497541533832532E7 ; 3.987788324245341E9 ; 0.0
29 ; 3660965.5901383646 ; 2.0041305203534293E8 ; 7.861396783846541E7 ; 4.1881961705982437E9 ; 0.0
30 ; 3685771.768040347 ; 2.0041828889309308E8 ; 8.227493342860377E7 ; 4.388609222633587E9 ; 0.0
31 ; 3708456.080401447 ; 2.0042355258870658E8 ; 8.596070519664411E7 ; 4.58902751152668E9 ; 0.0
32 ; 3728907.5171367917 ; 2.004288394566644E8 ; 8.966916127704556E7 ; 4.789451064115387E9 ; 0.0
33 ; 3748267.4912076457 ; 2.0043414637850007E8 ; 9.339806879418236E7 ; 4.989879903572051E9 ; 0.0
34 ; 3771066.7329718154 ; 2.0043947068403655E8 ; 9.714633628539E7 ; 5.190314049950551E9 ; 0.0
35 ; 3788350.178520699 ; 2.0044481007276377E8 ; 1.0091740301836182E8 ; 5.390753520634587E9 ; 0.0
36 ; 3809767.9399507083 ; 2.0045016255084574E8 ; 1.0470575319688252E8 ; 5.591198330707351E9 ; 0.0
37 ; 3829724.749685359 ; 2.0045552638033217E8 ; 1.0851552113683322E8 ; 5.791648493258197E9 ; 0.0
38 ; 3851374.1562782773 ; 2.004609000379593E8 ; 1.1234524588651858E8 ; 5.992104019638529E9 ; 0.0
39 ; 3868940.2860806836 ; 2.004662821815325E8 ; 1.1619662004279687E8 ; 6.192564919676488E9 ; 0.0
40 ; 3887568.9949359633 ; 2.0047167162233868E8 ; 1.2006556032887755E8 ; 6.393031201858021E9 ; 0.0
41 ; 3899239.311101772 ; 2.0047706730238408E8 ; 1.2395312932381351E8 ; 6.593502873480359E9 ; 0.0
42 ; 3917276.615373909 ; 2.0048246827551454E8 ; 1.2785236863491529E8 ; 6.793979940782743E9 ; 0.0
43 ; 3932032.1525764647 ; 2.0048787369167778E8 ; 1.317696452502892E8 ; 6.994462409058258E9 ; 0.0
44 ; 3944410.948955199 ; 2.0049328278374165E8 ; 1.3570167740286568E8 ; 7.194950282749936E9 ; 0.0
45 ; 3963767.487592236 ; 2.0049869485640264E8 ; 1.396460883518209E8 ; 7.395443565533678E9 ; 0.0
46 ; 3974369.8516428163 ; 2.0050410927681214E8 ; 1.4360985583941314E8 ; 7.59594226039008E9 ; 0.0
47 ; 3985958.6223995886 ; 2.0050952546662113E8 ; 1.4758422569105595E8 ; 7.796446369666893E9 ; 0.0
48 ; 4003414.551162461 ; 2.005149428952014E8 ; 1.5157018431345555E8 ; 7.996955895133514E9 ; 0.0
49 ; 4012053.39055155 ; 2.005203610738474E8 ; 1.55573598864618E8 ; 8.197470838028716E9 ; 0.0
50 ; 4018846.1040790756 ; 2.005257795507981E8 ; 1.5958565225516954E8 ; 8.397991199102564E9 ; 0.0
51 ; 4031216.8630567105 ; 2.0053119790694815E8 ; 1.636044983592486E8 ; 8.598516978653362E9 ; 0.0
52 ; 4031930.667897822 ; 2.005366157521404E8 ; 1.6763571522230533E8 ; 8.79904817656031E9 ; 0.0
53 ; 4047456.984637119 ; 2.0054203272195038E8 ; 1.7166764589020315E8 ; 8.99958479231245E9 ; 0.0
54 ; 4054890.447479424 ; 2.005474484748888E8 ; 1.7571510287484026E8 ; 9.2001268250344E9 ; 0.0
55 ; 4068069.919843661 ; 2.0055286268996084E8 ; 1.797699933223197E8 ; 9.400674273509289E9 ; 0.0
56 ; 4073777.5336998226 ; 2.0055827506453007E8 ; 1.8383806324216336E8 ; 9.60122713619925E9 ; 0.0
57 ; 4084955.0695465826 ; 2.005636853124442E8 ; 1.8791184077586317E8 ; 9.801785411263779E9 ; 0.0
58 ; 4096143.283698765 ; 2.0056909316238624E8 ; 1.9199679584540975E8 ; 1.0002349096576223E10 ; 0.0
59 ; 4104137.465048812 ; 2.0057449835641983E8 ; 1.9609293912910852E8 ; 1.020291818973861E10 ; 0.0
60 ; 4112075.3417426273 ; 2.0057990064870355E8 ; 2.0019707659415734E8 ; 1.040349268809503E10 ; 0.0
61 ; 4120625.1914081466 ; 2.005852998043509E8 ; 2.0430915193589997E8 ; 1.0604072588743732E10 ; 0.0
62 ; 4130297.195308032 ; 2.0059069559841806E8 ; 2.0842977712730813E8 ; 1.0804657888548084E10 ; 0.0
63 ; 4136162.035645191 ; 2.0059608781500247E8 ; 2.1256007432261616E8 ; 1.1005248584146502E10 ; 0.0
64 ; 4143565.8597722566 ; 2.0060147624643895E8 ; 2.1669623635826135E8 ; 1.1205844671961504E10 ; 0.0
65 ; 4153119.7635581866 ; 2.006068606925809E8 ; 2.208398022180336E8 ; 1.1406446148207943E10 ; 0.0
66 ; 4159859.7451232104 ; 2.0061224096015653E8 ; 2.249929219815918E8 ; 1.1607053008900524E10 ; 0.0
67 ; 4165104.3384021423 ; 2.0061761686219126E8 ; 2.29152781726715E8 ; 1.1807665249860682E10 ; 0.0
68 ; 4176166.7842554227 ; 2.006229882174885E8 ; 2.3331788606511715E8 ; 1.2008282866722874E10 ; 0.0
69 ; 4180736.2785379 ; 2.006283548501618E8 ; 2.3749405284937257E8 ; 1.2208905854940363E10 ; 0.0
70 ; 4185562.4299262534 ; 2.0063371658921316E8 ; 2.4167478912791047E8 ; 1.2409534209790525E10 ; 0.0
71 ; 4199786.448548713 ; 2.0063907326815176E8 ; 2.458603515578367E8 ; 1.2610167926379738E10 ; 0.0
72 ; 4199768.062584014 ; 2.0064442472464898E8 ; 2.5006013800638542E8 ; 1.281080699964789E10 ; 0.0
73 ; 4209791.2698434405 ; 2.0064977080022573E8 ; 2.5425990606896943E8 ; 1.301145142437254E10 ; 0.0
74 ; 4216318.811022286 ; 2.0065511133996856E8 ; 2.5846969733881286E8 ; 1.3212101195172766E10 ; 0.0
75 ; 4219299.272072559 ; 2.0066044619227165E8 ; 2.6268601614983514E8 ; 1.3412756306512733E10 ; 0.0
76 ; 4231199.313613909 ; 2.0066577520860204E8 ; 2.669053154219077E8 ; 1.3613416752705006E10 ; 0.0
77 ; 4234470.35575244 ; 2.006710982432854E8 ; 2.711365147355216E8 ; 1.3814082527913609E10 ; 0.0
78 ; 4236518.393921583 ; 2.006764151533106E8 ; 2.753709850912741E8 ; 1.4014753626156895E10 ; 0.0
79 ; 4239755.32610527 ; 2.0068172579815134E8 ; 2.7960750348519564E8 ; 1.4215430041310205E10 ; 0.0
80 ; 4239741.185883954 ; 2.0068703003960258E8 ; 2.8384725881130093E8 ; 1.4416111767108356E10 ; 0.0
81 ; 4236807.193404012 ; 2.006923277416309E8 ; 2.880869999971849E8 ; 1.4616798797147959E10 ; 0.0
82 ; 4241653.787705562 ; 2.0069761877023742E8 ; 2.923238071905889E8 ; 1.481749112488959E10 ; 0.0
83 ; 4241097.918487712 ; 2.0070290299333152E8 ; 2.9656546097829443E8 ; 1.5018188743659826E10 ; 0.0
84 ; 4239273.909283786 ; 2.0070818028061524E8 ; 3.0080655889678216E8 ; 1.5218891646653158E10 ; 0.0
85 ; 4238127.780889786 ; 2.007134505034767E8 ; 3.050458328060659E8 ; 1.5419599826933773E10 ; 0.0
86 ; 4241661.78154014 ; 2.0071871353489202E8 ; 3.092839605869557E8 ; 1.562031327743725E10 ; 0.0
87 ; 4241540.239494462 ; 2.0072396924933472E8 ; 3.135256223684959E8 ; 1.5821031990972141E10 ; 0.0
88 ; 4239937.354986456 ; 2.0072921752269256E8 ; 3.177671626079903E8 ; 1.6021755960221476E10 ; 0.0
89 ; 4236047.044408413 ; 2.007344582321902E8 ; 3.2200709996297675E8 ; 1.6222485177744167E10 ; 0.0
90 ; 4236983.248233797 ; 2.007396912563182E8 ; 3.262431470073852E8 ; 1.6423219635976358E10 ; 0.0
91 ; 4236677.713555365 ; 2.007449164747671E8 ; 3.30480130255619E8 ; 1.6623959327232677E10 ; 0.0
92 ; 4234383.639276394 ; 2.0075013376836628E8 ; 3.347168079691743E8 ; 1.6824704243707445E10 ; 0.0
93 ; 4239361.072399981 ; 2.0075534301902774E8 ; 3.389511916084507E8 ; 1.7025454377475811E10 ; 0.0
94 ; 4229768.200767264 ; 2.0076054410969347E8 ; 3.431905526808507E8 ; 1.722620972049484E10 ; 0.0
95 ; 4232011.20582223 ; 2.0076573692428696E8 ; 3.4742032088161796E8 ; 1.742697026460453E10 ; 0.0
96 ; 4233409.685975765 ; 2.0077092134766814E8 ; 3.516523320874402E8 ; 1.7627736001528816E10 ; 0.0
97 ; 4230086.674333398 ; 2.0077609726559126E8 ; 3.55885741773416E8 ; 1.7828506922876484E10 ; 0.0
98 ; 4231303.916091786 ; 2.0078126456466615E8 ; 3.601158284477494E8 ; 1.8029283020142075E10 ; 0.0
99 ; 4226873.326032844 ; 2.0078642313232175E8 ; 3.643471323638412E8 ; 1.823006428470674E10 ; 0.0
100 ; 4230422.191723717 ; 2.007915728567726E8 ; 3.68574005689874E8 ; 1.843085070783906E10 ; 0.0
101 ; 4219728.174356027 ; 2.007967136269872E8 ; 3.728044278815977E8 ; 1.8631642280695835E10 ; 0.0
102 ; 4221952.768247714 ; 2.0080184533265883E8 ; 3.7702415605595374E8 ; 1.8832438994322823E10 ; 0.0
103 ; 4219636.129304575 ; 2.008069678641783E8 ; 3.8124610882420146E8 ; 1.9033240839655483E10 ; 0.0
104 ; 4219257.129440844 ; 2.008120811126085E8 ; 3.8546574495350605E8 ; 1.923404780751966E10 ; 0.0
105 ; 4215751.480212666 ; 2.0081718496966046E8 ; 3.896850020829469E8 ; 1.943485988863227E10 ; 0.0
106 ; 4217016.739854009 ; 2.0082227932767153E8 ; 3.939007535631596E8 ; 1.9635677073601933E10 ; 0.0
107 ; 4212629.83160574 ; 2.0082736407958436E8 ; 3.981177703030136E8 ; 1.9836499352929604E10 ; 0.0
108 ; 4205218.556133871 ; 2.0083243911892775E8 ; 4.0233040013461936E8 ; 2.003732671700919E10 ; 0.0
109 ; 4202135.22511824 ; 2.008375043397985E8 ; 4.065356186907532E8 ; 2.0238159156128117E10 ; 0.0
110 ; 4201702.33880844 ; 2.0084255963684466E8 ; 4.1073775391587144E8 ; 2.0438996660467915E10 ; 0.0
111 ; 4199284.745374455 ; 2.0084760490524957E8 ; 4.1493945625467986E8 ; 2.063983922010476E10 ; 0.0
112 ; 4194633.205968477 ; 2.0085264004071718E8 ; 4.191387410000543E8 ; 2.084068682501001E10 ; 0.0
113 ; 4190645.4426595406 ; 2.0085766493945834E8 ; 4.233333742060228E8 ; 2.1041539465050728E10 ; 0.0
114 ; 4188792.570869997 ; 2.0086267949817765E8 ; 4.2752401964868236E8 ; 2.1242397129990185E10 ; 0.0
115 ; 4185045.622639915 ; 2.0086768361406168E8 ; 4.3171281221955234E8 ; 2.144325980948836E10 ; 0.0
116 ; 4182771.722771518 ; 2.0087267718476745E8 ; 4.3589785784219223E8 ; 2.1644127493102425E10 ; 0.0
117 ; 4176304.798291441 ; 2.0087766010841188E8 ; 4.4008062956496376E8 ; 2.1845000170287193E10 ; 0.0
118 ; 4172049.6897318317 ; 2.00882632283562E8 ; 4.442569343632552E8 ; 2.2045877830395607E10 ; 0.0
119 ; 4166849.9943001955 ; 2.0088759360922557E8 ; 4.4842898405298704E8 ; 2.224676046267917E10 ; 0.0
120 ; 4166880.4131489126 ; 2.0089254398484245E8 ; 4.525958340472872E8 ; 2.2447648056288395E10 ; 0.0
121 ; 4160681.876873204 ; 2.0089748331027654E8 ; 4.5676271446043617E8 ; 2.264854060027324E10 ; 0.0
122 ; 4156680.678453354 ; 2.0090241148580816E8 ; 4.6092339633730936E8 ; 2.2849438083583515E10 ; 0.0
123 ; 4151674.8954847753 ; 2.0090732841212693E8 ; 4.650800770157627E8 ; 2.3050340495069324E10 ; 0.0
124 ; 4147481.0887598386 ; 2.0091223399032512E8 ; 4.692317519112475E8 ; 2.3251247823481453E10 ; 0.0
125 ; 4139688.4091453 ; 2.009171281218916E8 ; 4.7337923300000733E8 ; 2.345216005747178E10 ; 0.0
126 ; 4135911.8085728055 ; 2.009220107087058E8 ; 4.775189214091526E8 ; 2.365307718559367E10 ; 0.0
127 ; 4132189.5698620216 ; 2.009268816530326E8 ; 4.8165483321772546E8 ; 2.3853999196302376E10 ; 0.0
128 ; 4129105.9015638903 ; 2.0093174085751688E8 ; 4.8578702278758746E8 ; 2.405492607795541E10 ; 0.0
129 ; 4122010.5969887534 ; 2.0093658822517923E8 ; 4.8991612868915135E8 ; 2.4255857818812927E10 ; 0.0
130 ; 4112335.157156966 ; 2.0094142365941125E8 ; 4.940381392861401E8 ; 2.4456794407038105E10 ; 0.0
131 ; 4097690.3685889207 ; 2.0094624706397158E8 ; 4.98150474443297E8 ; 2.4657735830697517E10 ; 0.0
132 ; 4091316.081468009 ; 2.0095105834298205E8 ; 5.0224816481188595E8 ; 2.485868207776149E10 ; 0.0
133 ; 4077850.8998167184 ; 2.0095585740092415E8 ; 5.0633948089335394E8 ; 2.5059633136104473E10 ; 0.0
134 ; 4070438.6754217395 ; 2.009606441426357E8 ; 5.1041733179317063E8 ; 2.5260588993505398E10 ; 0.0
135 ; 4059457.0706337574 ; 2.009654184733078E8 ; 5.1448777046859235E8 ; 2.5461549637648033E10 ; 0.0
136 ; 4048022.128780804 ; 2.0097018029848197E8 ; 5.185472275392261E8 ; 2.566251505612134E10 ; 0.0
137 ; 4033414.7362951264 ; 2.009749295240476E8 ; 5.225952496680069E8 ; 2.5863485236419823E10 ; 0.0
138 ; 4023664.2457980243 ; 2.009796660562394E8 ; 5.26628664404302E8 ; 2.606446016594387E10 ; 0.0
139 ; 4010644.285392458 ; 2.0098438980163527E8 ; 5.3065232865010005E8 ; 2.626543983200011E10 ; 0.0
140 ; 3998208.3328705803 ; 2.0098910066715413E8 ; 5.346629729354925E8 ; 2.6466424221801746E10 ; 0.0
141 ; 3982525.5638724086 ; 2.009937985600541E8 ; 5.386611812683631E8 ; 2.66674133224689E10 ; 0.0
142 ; 3973865.186905169 ; 2.009984833879307E8 ; 5.426437068322356E8 ; 2.6868407121028954E10 ; 0.0
143 ; 3965205.428721482 ; 2.0100315505871534E8 ; 5.466175720191407E8 ; 2.7069405604416885E10 ; 0.0
144 ; 3948666.448193344 ; 2.0100781348067382E8 ; 5.505827774478621E8 ; 2.72704087594756E10 ; 0.0
145 ; 3942211.7772070523 ; 2.01012458562405E8 ; 5.545314438960555E8 ; 2.7471416572956276E10 ; 0.0
146 ; 3936742.1068471093 ; 2.010170902128396E8 ; 5.584736556732625E8 ; 2.767242903151868E10 ; 0.0
147 ; 3931185.6253449274 ; 2.010217083412393E8 ; 5.624103977801096E8 ; 2.787344612173152E10 ; 0.0
148 ; 3925934.094631459 ; 2.0102631285719556E8 ; 5.663415834054545E8 ; 2.807446783007276E10 ; 0.0
149 ; 3920354.864943266 ; 2.010309036706289E8 ; 5.70267517500086E8 ; 2.827549414292996E10 ; 0.0
150 ; 3916710.6130680484 ; 2.0103548069178814E8 ; 5.741878723650292E8 ; 2.8476525046600586E10 ; 0.0
151 ; 3914216.9448697777 ; 2.0104004383124977E8 ; 5.781045829780973E8 ; 2.8677560527292374E10 ; 0.0
152 ; 3901958.2826890284 ; 2.0104459299991742E8 ; 5.820187999229671E8 ; 2.8878600571123623E10 ; 0.0
153 ; 3899626.6710387524 ; 2.010491281090213E8 ; 5.85920758205656E8 ; 2.907964516412354E10 ; 0.0
154 ; 3890455.583019474 ; 2.0105364907011792E8 ; 5.898203848766948E8 ; 2.928069429223256E10 ; 0.0
155 ; 3890479.103764026 ; 2.0105815579508975E8 ; 5.937108404597143E8 ; 2.9481747941302677E10 ; 0.0
156 ; 3880048.9522985187 ; 2.0106264819614497E8 ; 5.976013195634784E8 ; 2.9682806097097767E10 ; 0.0
157 ; 3876528.6900612535 ; 2.010671261858174E8 ; 6.014813685157769E8 ; 2.988386874529391E10 ; 0.0
158 ; 3868619.8476142776 ; 2.0107158967696625E8 ; 6.053578972058381E8 ; 3.008493587147973E10 ; 0.0
159 ; 3860402.9107296406 ; 2.010760385827763E8 ; 6.092265170534524E8 ; 3.0286007461156696E10 ; 0.0
160 ; 3856996.008925398 ; 2.0108047281675777E8 ; 6.13086919964182E8 ; 3.048708349973947E10 ; 0.0
161 ; 3854057.186242159 ; 2.010848922927465E8 ; 6.169439159731075E8 ; 3.068816397255623E10 ; 0.0
162 ; 3841583.425053179 ; 2.0108929692490405E8 ; 6.207979731593496E8 ; 3.0889248864848976E10 ; 0.0
163 ; 3841178.134562554 ; 2.0109368662771788E8 ; 6.246395565844027E8 ; 3.109033816177388E10 ; 0.0
164 ; 3833418.027790948 ; 2.0109806131600168E8 ; 6.284807347189653E8 ; 3.1291431848401596E10 ; 0.0
165 ; 3826028.685913022 ; 2.0110242090489566E8 ; 6.323141527467562E8 ; 3.1492529909717598E10 ; 0.0
166 ; 3822534.674294329 ; 2.011067653098668E8 ; 6.361401814326692E8 ; 3.1693632330622494E10 ; 0.0
167 ; 3815188.0643979325 ; 2.0111109444670922E8 ; 6.399627161069635E8 ; 3.189473909593236E10 ; 0.0
168 ; 3812401.1461726422 ; 2.0111540823154476E8 ; 6.437779041713614E8 ; 3.209585019037907E10 ; 0.0
169 ; 3800638.336378958 ; 2.011197065808233E8 ; 6.475903053175341E8 ; 3.2296965598610615E10 ; 0.0
170 ; 3797859.565903537 ; 2.011239894113233E8 ; 6.51390943653913E8 ; 3.2498085305191437E10 ; 0.0
171 ; 3789849.5304894494 ; 2.011282566401523E8 ; 6.551888032198166E8 ; 3.269920929460276E10 ; 0.0
172 ; 3786180.1161222174 ; 2.0113250818474755E8 ; 6.58978652750306E8 ; 3.2900337551242912E10 ; 0.0
173 ; 3780266.250709752 ; 2.011367439628765E8 ; 6.627648328664283E8 ; 3.3101470059427658E10 ; 0.0
174 ; 3778031.2699238677 ; 2.0114096389263752E8 ; 6.66545099117138E8 ; 3.3302606803390533E10 ; 0.0
175 ; 3773906.6767656654 ; 2.011451678924605E8 ; 6.70323130387062E8 ; 3.3503747767283173E10 ; 0.0
176 ; 3771439.1719028563 ; 2.011493558811075E8 ; 6.740970370638276E8 ; 3.3704892935175632E10 ; 0.0
177 ; 3765112.098973178 ; 2.0115352777767354E8 ; 6.778684762357305E8 ; 3.390604229105674E10 ; 0.0
178 ; 3758729.3449013727 ; 2.011576835015872E8 ; 6.816335883347037E8 ; 3.410719581883441E10 ; 0.0
179 ; 3758416.338646117 ; 2.0116182297261155E8 ; 6.85392317679605E8 ; 3.4308353502336E10 ; 0.0
180 ; 3751181.4511280474 ; 2.011659461108446E8 ; 6.891507340182512E8 ; 3.450951532530861E10 ; 0.0
181 ; 3749407.0479195244 ; 2.011700528367205E8 ; 6.929019154693792E8 ; 3.471068127141946E10 ; 0.0
182 ; 3745048.51174639 ; 2.0117414307101E8 ; 6.966513225172987E8 ; 3.491185132425618E10 ; 0.0
183 ; 3739537.0716544148 ; 2.0117821673482144E8 ; 7.003963710290451E8 ; 3.511302546732719E10 ; 0.0
184 ; 3737691.5234281234 ; 2.011822737496016E8 ; 7.041359081006995E8 ; 3.531420368406201E10 ; 0.0
185 ; 3725552.817020518 ; 2.0118631403713644E8 ; 7.078735996241276E8 ; 3.5515385957811615E10 ; 0.0
186 ; 3727808.514072098 ; 2.011903375195521E8 ; 7.115991524411482E8 ; 3.5716572271848755E10 ; 0.0
187 ; 3723374.6944357543 ; 2.0119434411931577E8 ; 7.153269609552202E8 ; 3.591776260936831E10 ; 0.0
188 ; 3718023.6398544675 ; 2.0119833375923643E8 ; 7.190503356496559E8 ; 3.6118956953487625E10 ; 0.0
189 ; 3715415.633354393 ; 2.01202306362466E8 ; 7.227683592895104E8 ; 3.6320155287246864E10 ; 0.0
190 ; 3710156.1450460325 ; 2.0120626185250014E8 ; 7.264837749228648E8 ; 3.652135759360933E10 ; 0.0
191 ; 3710706.5267044953 ; 2.0121020015317917E8 ; 7.301939310679108E8 ; 3.672256385546183E10 ; 0.0
192 ; 3704113.060157519 ; 2.01214121188689E8 ; 7.339046375946153E8 ; 3.6923774055615005E10 ; 0.0
193 ; 3699498.793336112 ; 2.0121802488356218E8 ; 7.376087506547729E8 ; 3.7124988176803696E10 ; 0.0
194 ; 3691916.1814885796 ; 2.012219111626788E8 ; 7.41308249448109E8 ; 3.7326206201687256E10 ; 0.0
195 ; 3691980.8945797905 ; 2.0122577995126754E8 ; 7.450001656295977E8 ; 3.752742811284994E10 ; 0.0
196 ; 3689494.4218424363 ; 2.0122963117490646E8 ; 7.486921465241774E8 ; 3.772865389280121E10 ; 0.0
197 ; 3681821.0734092374 ; 2.012334647595242E8 ; 7.523816409460199E8 ; 3.792988352397611E10 ; 0.0
198 ; 3679534.977408563 ; 2.0123728063140088E8 ; 7.560634620194291E8 ; 3.8131116988735634E10 ; 0.0
199 ; 3673755.0501611056 ; 2.0124107871716908E8 ; 7.597429969968376E8 ; 3.8332354269367035E10 ; 0.0
200 ; 3668791.8427966116 ; 2.0124485894381496E8 ; 7.634167520469987E8 ; 3.8533595348084206E10 ; 0.0
