CSV File for the City 4 on Day 4
1 - Minute m 
2 - Power Consumed at minute m 
3 - Power Produced at minute m 
4 - Energy Consumed since the beginning of the day 
5 - Energy Produced since the beginning of the day 
6 - Energy Lost since the beginning of the day on lines starting from the city
 
0 ; 6805537.77343784 ; 1.05678400855486E8 ; 0.0 ; 0.0 ; 0.0
1 ; 6813729.75050407 ; 1.0582764709273112E8 ; 6805537.77343784 ; 1.05678400855486E8 ; 0.0
2 ; 6819020.646714827 ; 1.0628602541670439E8 ; 1.361926752394191E7 ; 2.1150604794821712E8 ; 0.0
3 ; 6827051.252099166 ; 1.0705354957415676E8 ; 2.0438288170656737E7 ; 3.177920733649215E8 ; 0.0
4 ; 6839136.8209099425 ; 1.0813023222236729E8 ; 2.7265339422755904E7 ; 4.248456229390783E8 ; 0.0
5 ; 6850674.446154505 ; 1.0951608475450063E8 ; 3.4104476243665844E7 ; 5.3297585516144556E8 ; 0.0
6 ; 6866492.36925697 ; 1.1121111713376352E8 ; 4.095515068982035E7 ; 6.424919399159462E8 ; 0.0
7 ; 6889384.326565369 ; 1.1321533774157727E8 ; 4.782164305907732E7 ; 7.537030570497098E8 ; 0.0
8 ; 6922326.956065208 ; 1.1552875324488705E8 ; 5.471102738564269E7 ; 8.669183947912871E8 ; 0.0
9 ; 6971652.669563038 ; 1.1815136848734218E8 ; 6.16333543417079E7 ; 9.82447148036174E8 ; 0.0
10 ; 7049810.706306804 ; 1.2108318640840685E8 ; 6.860500701127094E7 ; 1.1005985165235162E9 ; 0.0
11 ; 7170675.498888079 ; 1.2432420799351504E8 ; 7.565481771757774E7 ; 1.221681702931923E9 ; 0.0
12 ; 7370986.858822034 ; 1.2787443225723276E8 ; 8.282549321646582E7 ; 1.346005910925438E9 ; 0.0
13 ; 7559334.797713328 ; 1.3173385626009578E8 ; 9.019648007528785E7 ; 1.4738803431826706E9 ; 0.0
14 ; 7584318.295051777 ; 1.359024751584549E8 ; 9.775581487300117E7 ; 1.6056141994427664E9 ; 0.0
15 ; 7594500.588240653 ; 1.403802822853648E8 ; 1.0534013316805296E8 ; 1.7415166746012213E9 ; 0.0
16 ; 7601408.117831748 ; 1.4516726925940433E8 ; 1.1293463375629361E8 ; 1.8818969568865862E9 ; 0.0
17 ; 7609963.201645951 ; 1.5026342611736664E8 ; 1.2053604187412536E8 ; 2.0270642261459906E9 ; 0.0
18 ; 7616920.697809565 ; 1.556687414660871E8 ; 1.2814600507577132E8 ; 2.177327652263357E9 ; 0.0
19 ; 7626344.859778412 ; 1.613832026482866E8 ; 1.3576292577358088E8 ; 2.3329963937294445E9 ; 0.0
20 ; 7635146.800981278 ; 1.6740679591721436E8 ; 1.4338927063335928E8 ; 2.4943795963777313E9 ; 0.0
21 ; 7643302.874047167 ; 1.7373950661504492E8 ; 1.5102441743434057E8 ; 2.6617863922949457E9 ; 0.0
22 ; 7652099.100799378 ; 1.8038131935038096E8 ; 1.5866772030838773E8 ; 2.835525898909991E9 ; 0.0
23 ; 7661752.478841979 ; 1.8733221817077518E8 ; 1.663198194091871E8 ; 3.0159072182603717E9 ; 0.0
24 ; 7669685.430585266 ; 1.9459218672686297E8 ; 1.739815718880291E8 ; 3.2032394364311466E9 ; 0.0
25 ; 7678885.718172765 ; 2.008492493236084E8 ; 1.8165125731861436E8 ; 3.3978316231580095E9 ; 0.0
26 ; 7690875.671618588 ; 2.0085693709724236E8 ; 1.8933014303678712E8 ; 3.598680872481618E9 ; 0.0
27 ; 7699442.2201285465 ; 2.008650026659335E8 ; 1.970210187084057E8 ; 3.7995378095788603E9 ; 0.0
28 ; 7704951.104888632 ; 2.0087342948742044E8 ; 2.0472046092853424E8 ; 4.000402812244794E9 ; 0.0
29 ; 7714460.387881583 ; 2.0088220124811512E8 ; 2.1242541203342286E8 ; 4.2012762417322145E9 ; 0.0
30 ; 7723711.343583352 ; 2.0089130194430357E8 ; 2.2013987242130443E8 ; 4.4021584429803295E9 ; 0.0
31 ; 7731546.815246667 ; 2.0090071594937557E8 ; 2.2786358376488778E8 ; 4.603049744924633E9 ; 0.0
32 ; 7736868.164413057 ; 2.0091042806801847E8 ; 2.3559513058013445E8 ; 4.803950460874008E9 ; 0.0
33 ; 7746349.20729672 ; 2.009204235784753E8 ; 2.4333199874454752E8 ; 5.004860888942027E9 ; 0.0
34 ; 7753542.96265889 ; 2.0093068826406065E8 ; 2.5107834795184425E8 ; 5.205781312520502E9 ; 0.0
35 ; 7763918.656675337 ; 2.0094120843516243E8 ; 2.5883189091450313E8 ; 5.406712000784563E9 ; 0.0
36 ; 7768865.704384332 ; 2.00951970942945E8 ; 2.6659580957117847E8 ; 5.607653209219726E9 ; 0.0
37 ; 7774983.699403512 ; 2.009629631859228E8 ; 2.743646752755628E8 ; 5.80860518016267E9 ; 0.0
38 ; 7781313.209542289 ; 2.0097417311050102E8 ; 2.8213965897496635E8 ; 6.009568143348593E9 ; 0.0
39 ; 7785273.144096877 ; 2.0098558920649344E8 ; 2.899209721845086E8 ; 6.210542316459094E9 ; 0.0
40 ; 7793007.471200486 ; 2.00997200498531E8 ; 2.977062453286055E8 ; 6.411527905665587E9 ; 0.0
41 ; 7799622.256261439 ; 2.0100899653417543E8 ; 3.0549925279980594E8 ; 6.612525106164119E9 ; 0.0
42 ; 7804530.970612878 ; 2.0102096736945352E8 ; 3.132988750560674E8 ; 6.813534102698295E9 ; 0.0
43 ; 7808215.878910819 ; 2.0103310355243465E8 ; 3.211034060266803E8 ; 7.014555070067748E9 ; 0.0
44 ; 7814238.698336916 ; 2.010453961053842E8 ; 3.2891162190559113E8 ; 7.215588173620183E9 ; 0.0
45 ; 7817589.746956834 ; 2.0105783650594598E8 ; 3.36725860603928E8 ; 7.416633569725567E9 ; 0.0
46 ; 7822865.465268845 ; 2.010704166677326E8 ; 3.4454345035088485E8 ; 7.617691406231513E9 ; 0.0
47 ; 7826088.9986183215 ; 2.0108312892063817E8 ; 3.523663158161537E8 ; 7.818761822899245E9 ; 0.0
48 ; 7831056.667003718 ; 2.0109596599113017E8 ; 3.60192404814772E8 ; 8.019844951819883E9 ; 0.0
49 ; 7831349.895108079 ; 2.011089209827273E8 ; 3.680234614817757E8 ; 8.220940917811013E9 ; 0.0
50 ; 7833210.358604059 ; 2.0112198735682735E8 ; 3.758548113768838E8 ; 8.42204983879374E9 ; 0.0
51 ; 7832915.654179206 ; 2.0113515891401276E8 ; 3.836880217354879E8 ; 8.623171826150568E9 ; 0.0
52 ; 7837686.729727962 ; 2.0114842977592954E8 ; 3.915209373896671E8 ; 8.82430698506458E9 ; 0.0
53 ; 7841685.536779899 ; 2.011617943678103E8 ; 3.993586241193951E8 ; 9.025455414840511E9 ; 0.0
54 ; 7842062.808630836 ; 2.0117524740169004E8 ; 4.0720030965617496E8 ; 9.226617209208323E9 ; 0.0
55 ; 7845026.733978464 ; 2.0118878386034524E8 ; 4.150423724648058E8 ; 9.427792456610012E9 ; 0.0
56 ; 7841829.490412001 ; 2.0120239898197338E8 ; 4.2288739919878423E8 ; 9.628981240470358E9 ; 0.0
57 ; 7848089.932520466 ; 2.0121608824561647E8 ; 4.307292286891962E8 ; 9.830183639452332E9 ; 0.0
58 ; 7848304.946675474 ; 2.0122984735732532E8 ; 4.385773186217167E8 ; 1.0031399727697948E10 ; 0.0
59 ; 7851891.266722845 ; 2.012436722370517E8 ; 4.4642562356839216E8 ; 1.0232629575055273E10 ; 0.0
60 ; 7852790.887920207 ; 2.012575590062514E8 ; 4.54277514835115E8 ; 1.0433873247292324E10 ; 0.0
61 ; 7853433.99623519 ; 2.0127150397617632E8 ; 4.621303057230352E8 ; 1.0635130806298576E10 ; 0.0
62 ; 7855002.822773132 ; 2.0128550363683122E8 ; 4.699837397192704E8 ; 1.0836402310274754E10 ; 0.0
63 ; 7854118.568331033 ; 2.0129955464656782E8 ; 4.7783874254204357E8 ; 1.1037687813911585E10 ; 0.0
64 ; 7856941.1808662675 ; 2.0131365382228857E8 ; 4.8569286111037457E8 ; 1.1238987368558153E10 ; 0.0
65 ; 7859223.886399877 ; 2.0132779813023117E8 ; 4.935498022912408E8 ; 1.1440301022380442E10 ; 0.0
66 ; 7861325.496302268 ; 2.013419846773045E8 ; 5.014090261776407E8 ; 1.1641628820510674E10 ; 0.0
67 ; 7863372.857463168 ; 2.0135621070294744E8 ; 5.092703516739429E8 ; 1.1842970805187979E10 ; 0.0
68 ; 7862435.2990388535 ; 2.013704735714819E8 ; 5.171337245314061E8 ; 1.2044327015890926E10 ; 0.0
69 ; 7865062.318289022 ; 2.0138477076493266E8 ; 5.2499615983044493E8 ; 1.2245697489462408E10 ; 0.0
70 ; 7864057.156360127 ; 2.0139909987628675E8 ; 5.32861222148734E8 ; 1.244708226022734E10 ; 0.0
71 ; 7866628.99528865 ; 2.0141345860316703E8 ; 5.407252793050941E8 ; 1.2648481360103628E10 ; 0.0
72 ; 7862813.522290945 ; 2.014278447418948E8 ; 5.485919083003827E8 ; 1.2849894818706795E10 ; 0.0
73 ; 7863780.443576437 ; 2.0144225618191817E8 ; 5.564547218226737E8 ; 1.305132266344869E10 ; 0.0
74 ; 7867692.094314467 ; 2.0145669090058318E8 ; 5.643185022662501E8 ; 1.325276491963061E10 ; 0.0
75 ; 7871089.564200073 ; 2.0147114695822725E8 ; 5.721861943605646E8 ; 1.3454221610531193E10 ; 0.0
76 ; 7870795.240521594 ; 2.0148562249357373E8 ; 5.800572839247646E8 ; 1.365569275748942E10 ; 0.0
77 ; 7867317.662581742 ; 2.0150011571940947E8 ; 5.879280791652862E8 ; 1.3857178379982994E10 ; 0.0
78 ; 7866743.014366976 ; 2.015146249185269E8 ; 5.95795396827868E8 ; 1.4058678495702404E10 ; 0.0
79 ; 7864983.093455024 ; 2.0152914843991393E8 ; 6.03662139842235E8 ; 1.4260193120620932E10 ; 0.0
80 ; 7861772.456249434 ; 2.015436846951759E8 ; 6.1152712293569E8 ; 1.4461722269060846E10 ; 0.0
81 ; 7858246.441273279 ; 2.015582321551746E8 ; 6.193888953919395E8 ; 1.4663265953756021E10 ; 0.0
82 ; 7856270.312151069 ; 2.0157278934687078E8 ; 6.272471418332129E8 ; 1.4864824185911196E10 ; 0.0
83 ; 7853334.2274576025 ; 2.0158735485035613E8 ; 6.351034121453639E8 ; 1.5066396975258066E10 ; 0.0
84 ; 7851839.415923137 ; 2.0160192729606408E8 ; 6.429567463728216E8 ; 1.5267984330108423E10 ; 0.0
85 ; 7849869.3715618625 ; 2.016165053621465E8 ; 6.508085857887447E8 ; 1.5469586257404488E10 ; 0.0
86 ; 7849531.124555865 ; 2.0163108777200648E8 ; 6.586584551603066E8 ; 1.5671202762766634E10 ; 0.0
87 ; 7845236.124242756 ; 2.01645673291977E8 ; 6.665079862848624E8 ; 1.5872833850538641E10 ; 0.0
88 ; 7841307.787895336 ; 2.0166026072913602E8 ; 6.743532224091052E8 ; 1.6074479523830618E10 ; 0.0
89 ; 7840813.458453809 ; 2.016748489292497E8 ; 6.821945301970005E8 ; 1.6276139784559753E10 ; 0.0
90 ; 7836234.068036431 ; 2.0168943677483505E8 ; 6.900353436554543E8 ; 1.6477814633489002E10 ; 0.0
91 ; 7834739.993841628 ; 2.0170402318333486E8 ; 6.978715777234907E8 ; 1.6679504070263838E10 ; 0.0
92 ; 7827458.2697271975 ; 2.0171860710539767E8 ; 7.057063177173324E8 ; 1.6881208093447172E10 ; 0.0
93 ; 7828126.959485197 ; 2.017331875232563E8 ; 7.135337759870596E8 ; 1.708292670055257E10 ; 0.0
94 ; 7826735.493383711 ; 2.017477634491984E8 ; 7.213619029465448E8 ; 1.728465988807583E10 ; 0.0
95 ; 7822683.509752398 ; 2.0176233392412367E8 ; 7.291886384399285E8 ; 1.748640765152503E10 ; 0.0
96 ; 7818850.6466824645 ; 2.0177689801618242E8 ; 7.370113219496809E8 ; 1.768816998544915E10 ; 0.0
97 ; 7815823.424713097 ; 2.0179145481948975E8 ; 7.448301725963634E8 ; 1.7889946883465332E10 ; 0.0
98 ; 7812899.9445098825 ; 2.0180600345291165E8 ; 7.526459960210766E8 ; 1.809173833828482E10 ; 0.0
99 ; 7807687.882628355 ; 2.018205430589178E8 ; 7.604588959655864E8 ; 1.8293544341737732E10 ; 0.0
100 ; 7806228.7526999 ; 2.0183507280249757E8 ; 7.682665838482147E8 ; 1.849536488479665E10 ; 0.0
101 ; 7798188.119371867 ; 2.018495918701349E8 ; 7.760728126009146E8 ; 1.8697199957599148E10 ; 0.0
102 ; 7796317.29160121 ; 2.0186409946883905E8 ; 7.838710007202865E8 ; 1.8899049549469284E10 ; 0.0
103 ; 7792781.4184151925 ; 2.0187859482522723E8 ; 7.916673180118877E8 ; 1.910091364893812E10 ; 0.0
104 ; 7785295.072481006 ; 2.018930771846566E8 ; 7.994600994303029E8 ; 1.9302792243763348E10 ; 0.0
105 ; 7785920.539011085 ; 2.019075458104023E8 ; 8.072453945027839E8 ; 1.9504685320948006E10 ; 0.0
106 ; 7779453.78905839 ; 2.0192199998287907E8 ; 8.15031315041795E8 ; 1.9706592866758408E10 ; 0.0
107 ; 7774505.412269221 ; 2.0193643899890354E8 ; 8.228107688308535E8 ; 1.9908514866741287E10 ; 0.0
108 ; 7773228.998543046 ; 2.0195086217099518E8 ; 8.305852742431227E8 ; 2.0110451305740192E10 ; 0.0
109 ; 7771712.263412452 ; 2.0196526882671362E8 ; 8.383585032416657E8 ; 2.0312402167911186E10 ; 0.0
110 ; 7761725.091350159 ; 2.019796583080299E8 ; 8.461302155050782E8 ; 2.05143674367379E10 ; 0.0
111 ; 7757832.263280511 ; 2.0199402997073E8 ; 8.538919405964284E8 ; 2.071634709504593E10 ; 0.0
112 ; 7755934.042372964 ; 2.0200838318384898E8 ; 8.616497728597089E8 ; 2.091834112501666E10 ; 0.0
113 ; 7748993.920390445 ; 2.020227173291333E8 ; 8.694057069020818E8 ; 2.112034950820051E10 ; 0.0
114 ; 7746854.038665812 ; 2.0203703180053055E8 ; 8.771547008224723E8 ; 2.132237222552964E10 ; 0.0
115 ; 7740658.724440719 ; 2.0205132600370458E8 ; 8.849015548611381E8 ; 2.152440925733017E10 ; 0.0
116 ; 7737167.57894293 ; 2.0206559935557464E8 ; 8.926422135855788E8 ; 2.1726460583333874E10 ; 0.0
117 ; 7731206.566622829 ; 2.0207985128387728E8 ; 9.003793811645217E8 ; 2.192852618268945E10 ; 0.0
118 ; 7725817.809023791 ; 2.0209408122674987E8 ; 9.081105877311445E8 ; 2.2130606033973328E10 ; 0.0
119 ; 7720220.233558591 ; 2.0210828863233423E8 ; 9.158364055401683E8 ; 2.2332700115200077E10 ; 0.0
120 ; 7716725.984008477 ; 2.0212247295839965E8 ; 9.235566257737268E8 ; 2.2534808403832413E10 ; 0.0
121 ; 7711378.323903369 ; 2.0213663367198405E8 ; 9.312733517577353E8 ; 2.2736930876790813E10 ; 0.0
122 ; 7703465.81135764 ; 2.0215077024905205E8 ; 9.389847300816386E8 ; 2.29390675104628E10 ; 0.0
123 ; 7699422.304469115 ; 2.0216488217416987E8 ; 9.466881958929962E8 ; 2.3141218280711853E10 ; 0.0
124 ; 7696307.306865574 ; 2.0217896894019502E8 ; 9.543876181974653E8 ; 2.3343383162886024E10 ; 0.0
125 ; 7687229.635491992 ; 2.0219303004798105E8 ; 9.620839255043309E8 ; 2.3545562131826218E10 ; 0.0
126 ; 7685437.47734959 ; 2.0220706500609583E8 ; 9.697711551398228E8 ; 2.37477551618742E10 ; 0.0
127 ; 7679115.984435224 ; 2.0222107333055297E8 ; 9.774565926171725E8 ; 2.3949962226880295E10 ; 0.0
128 ; 7674569.900198206 ; 2.022350545445559E8 ; 9.851357086016077E8 ; 2.4152183300210846E10 ; 0.0
129 ; 7666489.045605664 ; 2.0224900817825344E8 ; 9.928102785018059E8 ; 2.43544183547554E10 ; 0.0
130 ; 7661436.747924142 ; 2.0226293376850662E8 ; 1.0004767675474116E9 ; 2.4556667362933655E10 ; 0.0
131 ; 7651064.993049422 ; 2.0227683085866618E8 ; 1.0081382042953357E9 ; 2.475893029670216E10 ; 0.0
132 ; 7644046.998746121 ; 2.022906989983601E8 ; 1.015789269288385E9 ; 2.4961207127560825E10 ; 0.0
133 ; 7635234.93021885 ; 2.0230453774329063E8 ; 1.0234333162871312E9 ; 2.5163497826559185E10 ; 0.0
134 ; 7627233.687456464 ; 2.0231834665504044E8 ; 1.03106855121735E9 ; 2.5365802364302475E10 ; 0.0
135 ; 7620329.038287895 ; 2.0233212530088753E8 ; 1.0386957849048065E9 ; 2.5568120710957516E10 ; 0.0
136 ; 7611283.372324379 ; 2.0234587325362802E8 ; 1.0463161139430944E9 ; 2.5770452836258404E10 ; 0.0
137 ; 7603927.9990927195 ; 2.02359590091407E8 ; 1.0539273973154187E9 ; 2.597279870951203E10 ; 0.0
138 ; 7592872.299603716 ; 2.0237327539755684E8 ; 1.0615313253145114E9 ; 2.617515829960344E10 ; 0.0
139 ; 7584137.7015868 ; 2.0238692876044223E8 ; 1.0691241976141151E9 ; 2.6377531575000996E10 ; 0.0
140 ; 7576729.322460437 ; 2.0240054977331227E8 ; 1.076708335315702E9 ; 2.6579918503761436E10 ; 0.0
141 ; 7566117.777374313 ; 2.024141380341588E8 ; 1.0842850646381624E9 ; 2.6782319053534748E10 ; 0.0
142 ; 7558149.253678795 ; 2.024276931455807E8 ; 1.0918511824155366E9 ; 2.698473319156891E10 ; 0.0
143 ; 7548582.16617248 ; 2.024412147146544E8 ; 1.0994093316692154E9 ; 2.718716088471449E10 ; 0.0
144 ; 7537673.4257965125 ; 2.0245470235280922E8 ; 1.106957913835388E9 ; 2.7389602099429142E10 ; 0.0
145 ; 7533098.245184892 ; 2.0246815567570877E8 ; 1.1144955872611845E9 ; 2.759205680178195E10 ; 0.0
146 ; 7527217.767791894 ; 2.0248157430313662E8 ; 1.1220286855063694E9 ; 2.779452495745766E10 ; 0.0
147 ; 7520484.885388136 ; 2.0249495785888737E8 ; 1.1295559032741613E9 ; 2.7997006531760796E10 ; 0.0
148 ; 7514662.259796356 ; 2.0250830597066188E8 ; 1.1370763881595495E9 ; 2.8199501489619682E10 ; 0.0
149 ; 7506880.705522652 ; 2.0252161826996696E8 ; 1.1445910504193459E9 ; 2.8402009795590343E10 ; 0.0
150 ; 7505446.757859606 ; 2.0253489439201924E8 ; 1.1520979311248684E9 ; 2.860453141386031E10 ; 0.0
151 ; 7496859.056086518 ; 2.0254813397565308E8 ; 1.159603377882728E9 ; 2.8807066308252327E10 ; 0.0
152 ; 7488296.940368029 ; 2.0256133666323206E8 ; 1.1671002369388146E9 ; 2.900961444222798E10 ; 0.0
153 ; 7482257.665918415 ; 2.025745021005643E8 ; 1.1745885338791826E9 ; 2.9212175778891212E10 ; 0.0
154 ; 7476029.442416785 ; 2.0258762993682104E8 ; 1.182070791545101E9 ; 2.9414750280991776E10 ; 0.0
155 ; 7467694.426316121 ; 2.0260071982445866E8 ; 1.1895468209875176E9 ; 2.9617337910928596E10 ; 0.0
156 ; 7460674.786472482 ; 2.0261377141914386E8 ; 1.1970145154138336E9 ; 2.9819938630753056E10 ; 0.0
157 ; 7455662.305098889 ; 2.0262678437968165E8 ; 1.2044751902003062E9 ; 3.00225524021722E10 ; 0.0
158 ; 7446656.424980508 ; 2.026397583679465E8 ; 1.211930852505405E9 ; 3.022517918655188E10 ; 0.0
159 ; 7442597.6166610215 ; 2.0265269304881614E8 ; 1.2193775089303854E9 ; 3.0427818944919827E10 ; 0.0
160 ; 7432934.498043959 ; 2.026655880901078E8 ; 1.2268201065470464E9 ; 3.0630471637968643E10 ; 0.0
161 ; 7426275.15024577 ; 2.026784431625173E8 ; 1.2342530410450904E9 ; 3.083313722605875E10 ; 0.0
162 ; 7421635.562474787 ; 2.0269125793956038E8 ; 1.241679316195336E9 ; 3.1035815669221268E10 ; 0.0
163 ; 7414115.88167369 ; 2.0270403209751633E8 ; 1.2491009517578108E9 ; 3.1238506927160828E10 ; 0.0
164 ; 7405776.841904182 ; 2.0271676531537384E8 ; 1.2565150676394844E9 ; 3.1441210959258343E10 ; 0.0
165 ; 7399310.678870415 ; 2.027294572747791E8 ; 1.2639208444813886E9 ; 3.1643927724573715E10 ; 0.0
166 ; 7394444.266475209 ; 2.0274210765998575E8 ; 1.271320155160259E9 ; 3.1846657181848495E10 ; 0.0
167 ; 7387199.605982866 ; 2.0275471615780684E8 ; 1.2787145994267342E9 ; 3.204939928950848E10 ; 0.0
168 ; 7379706.991412544 ; 2.027672824575688E8 ; 1.286101799032717E9 ; 3.2252154005666286E10 ; 0.0
169 ; 7371440.65578869 ; 2.027798062510669E8 ; 1.2934815060241296E9 ; 3.2454921288123856E10 ; 0.0
170 ; 7364980.9958036 ; 2.027922872325227E8 ; 1.3008529466799183E9 ; 3.2657701094374924E10 ; 0.0
171 ; 7357302.0267699985 ; 2.0280472509854308E8 ; 1.308217927675722E9 ; 3.2860493381607445E10 ; 0.0
172 ; 7350704.038083355 ; 2.0281711954808068E8 ; 1.315575229702492E9 ; 3.3063298106705986E10 ; 0.0
173 ; 7342590.291758949 ; 2.028294702823961E8 ; 1.3229259337405753E9 ; 3.3266115226254066E10 ; 0.0
174 ; 7340122.210223513 ; 2.0284177700502142E8 ; 1.3302685240323343E9 ; 3.346894469653646E10 ; 0.0
175 ; 7335477.497074485 ; 2.02854039421725E8 ; 1.3376086462425578E9 ; 3.367178647354148E10 ; 0.0
176 ; 7331213.386839882 ; 2.0286625724047795E8 ; 1.3449441237396321E9 ; 3.3874640512963207E10 ; 0.0
177 ; 7326667.782285416 ; 2.0287843017142153E8 ; 1.352275337126472E9 ; 3.4077506770203686E10 ; 0.0
178 ; 7323486.191983779 ; 2.0289055792683598E8 ; 1.3596020049087574E9 ; 3.4280385200375107E10 ; 0.0
179 ; 7317060.832916408 ; 2.0290264022111055E8 ; 1.3669254911007411E9 ; 3.448327575830194E10 ; 0.0
180 ; 7315485.513161285 ; 2.0291467677071452E8 ; 1.3742425519336576E9 ; 3.468617839852305E10 ; 0.0
181 ; 7309262.160521884 ; 2.0292666729416943E8 ; 1.3815580374468188E9 ; 3.488909307529376E10 ; 0.0
182 ; 7305823.99571059 ; 2.0293861151202235E8 ; 1.3888672996073408E9 ; 3.509201974258793E10 ; 0.0
183 ; 7302312.318601318 ; 2.0295050914682016E8 ; 1.3961731236030514E9 ; 3.529495835409995E10 ; 0.0
184 ; 7295872.448868854 ; 2.0296235992308477E8 ; 1.4034754359216528E9 ; 3.549790886324677E10 ; 0.0
185 ; 7291255.563676823 ; 2.0297416356728932E8 ; 1.4107713083705215E9 ; 3.570087122316986E10 ; 0.0
186 ; 7288273.038202136 ; 2.0298591980783513E8 ; 1.4180625639341984E9 ; 3.590384538673715E10 ; 0.0
187 ; 7284909.462056669 ; 2.0299762837502983E8 ; 1.4253508369724004E9 ; 3.610683130654499E10 ; 0.0
188 ; 7278557.340750594 ; 2.03009289001066E8 ; 1.432635746434457E9 ; 3.630982893492002E10 ; 0.0
189 ; 7271803.720795568 ; 2.0302090142000067E8 ; 1.4399143037752078E9 ; 3.651283822392109E10 ; 0.0
190 ; 7272910.076501753 ; 2.0303246536773583E8 ; 1.4471861074960034E9 ; 3.671585912534109E10 ; 0.0
191 ; 7267464.171243879 ; 2.030439805819994E8 ; 1.4544590175725052E9 ; 3.6918891590708824E10 ; 0.0
192 ; 7261143.156413096 ; 2.0305544680232704E8 ; 1.4617264817437491E9 ; 3.7121935571290825E10 ; 0.0
193 ; 7257827.896350483 ; 2.0306686377004457E8 ; 1.4689876249001622E9 ; 3.7324991018093155E10 ; 0.0
194 ; 7252945.364825993 ; 2.0307823122825122E8 ; 1.4762454527965126E9 ; 3.75280578818632E10 ; 0.0
195 ; 7248043.992503155 ; 2.030895489218033E8 ; 1.4834983981613386E9 ; 3.7731136113091446E10 ; 0.0
196 ; 7245430.824075485 ; 2.0310081659729862E8 ; 1.4907464421538417E9 ; 3.793422566201325E10 ; 0.0
197 ; 7238846.925937356 ; 2.031120340030615E8 ; 1.4979918729779172E9 ; 3.813732647861055E10 ; 0.0
198 ; 7236340.133877954 ; 2.0312320088912827E8 ; 1.5052307199038546E9 ; 3.834043851261361E10 ; 0.0
199 ; 7231754.9192790985 ; 2.0313431700723332E8 ; 1.5124670600377326E9 ; 3.854356171350274E10 ; 0.0
200 ; 7228628.036255808 ; 2.031453821107959E8 ; 1.5196988149570117E9 ; 3.874669603050997E10 ; 0.0
201 ; 7221355.807491877 ; 1.6590249690849608E8 ; 1.5269274429932675E9 ; 3.8949841412620766E10 ; 0.0
