CSV File for the City 6 on Day 52
1 - Minute m 
2 - Power Consumed at minute m 
3 - Power Produced at minute m 
4 - Energy Consumed since the beginning of the day 
5 - Energy Produced since the beginning of the day 
6 - Energy Lost since the beginning of the day on lines starting from the city
 
0 ; 1.1116249795761406E7 ; 1.0576809549635437E8 ; 0.0 ; 0.0 ; 0.0
1 ; 1.112837848954166E7 ; 1.0591845928532475E8 ; 1.1116249795761406E7 ; 1.0576809549635437E8 ; 0.0
2 ; 1.1140677900292382E7 ; 1.063778586294041E8 ; 2.2244628285303064E7 ; 2.1168655478167912E8 ; 0.0
3 ; 1.1153150908986304E7 ; 1.0714630086134917E8 ; 3.3385306185595445E7 ; 3.180644134110832E8 ; 0.0
4 ; 1.1167446967386499E7 ; 1.0822379263508558E8 ; 4.453845709458175E7 ; 4.252107142724324E8 ; 0.0
5 ; 1.119190480753549E7 ; 1.0961033986204839E8 ; 5.570590406196825E7 ; 5.3343450690751797E8 ; 0.0
6 ; 1.1217138018791283E7 ; 1.1130594765264109E8 ; 6.6897808869503744E7 ; 6.430448467695663E8 ; 0.0
7 ; 1.1256369899207205E7 ; 1.133106202641086E8 ; 7.811494688829502E7 ; 7.543507944222074E8 ; 0.0
8 ; 1.1306853610918038E7 ; 1.1562436105602932E8 ; 8.937131678750223E7 ; 8.67661414686316E8 ; 0.0
9 ; 1.1383955891763637E7 ; 1.1824717245449275E8 ; 1.0067817039842027E8 ; 9.832857757423453E8 ; 0.0
10 ; 1.1512683378727417E7 ; 1.2117905592584544E8 ; 1.1206212629018392E8 ; 1.1015329481968381E9 ; 0.0
11 ; 1.1707955165034758E7 ; 1.2442001196066561E8 ; 1.2357480966891134E8 ; 1.2227120041226835E9 ; 0.0
12 ; 1.2025206133034285E7 ; 1.2797004006837502E8 ; 1.352827648339461E8 ; 1.3471320160833492E9 ; 0.0
13 ; 1.2327654279884145E7 ; 1.318291387826271E8 ; 1.473079709669804E8 ; 1.4751020561517243E9 ; 0.0
14 ; 1.2365346539126236E7 ; 1.3599730567733246E8 ; 1.5963562524686456E8 ; 1.6069311949343514E9 ; 0.0
15 ; 1.2378565174750317E7 ; 1.4047453739291257E8 ; 1.720009717859908E8 ; 1.7429285006116838E9 ; 0.0
16 ; 1.2391515363613186E7 ; 1.4526082967212263E8 ; 1.8437953696074113E8 ; 1.8834030380045965E9 ; 0.0
17 ; 1.240560972750858E7 ; 1.5035617740455905E8 ; 1.9677105232435432E8 ; 2.0286638676767192E9 ; 0.0
18 ; 1.2421136232102374E7 ; 1.557605746787868E8 ; 2.091766620518629E8 ; 2.1790200450812783E9 ; 0.0
19 ; 1.2433750454362284E7 ; 1.614740148408803E8 ; 2.2159779828396526E8 ; 2.334780619760065E9 ; 0.0
20 ; 1.2450067993148105E7 ; 1.6749649055808273E8 ; 2.3403154873832753E8 ; 2.4962546346009455E9 ; 0.0
21 ; 1.2467688621938616E7 ; 1.7382799388624558E8 ; 2.4648161673147565E8 ; 2.663751125159028E9 ; 0.0
22 ; 1.2479415992982816E7 ; 1.8046851633971578E8 ; 2.5894930535341427E8 ; 2.837579119045274E9 ; 0.0
23 ; 1.2492711925643904E7 ; 1.874180489623841E8 ; 2.714287213463971E8 ; 3.0180476353849897E9 ; 0.0
24 ; 1.2508168708171487E7 ; 1.9467658239869225E8 ; 2.83921433272041E8 ; 3.205465684347374E9 ; 0.0
25 ; 1.2520908547917409E7 ; 2.009321478616906E8 ; 2.964296019802125E8 ; 3.400142266746066E9 ; 0.0
26 ; 1.253621164596477E7 ; 2.009382832377169E8 ; 3.0895051052812994E8 ; 3.6010744146077566E9 ; 0.0
27 ; 1.2550200775209803E7 ; 2.0094474767617816E8 ; 3.214867221740947E8 ; 3.8020126978454733E9 ; 0.0
28 ; 1.2561977492976116E7 ; 2.0095153089763603E8 ; 3.3403692294930446E8 ; 4.0029574455216513E9 ; 0.0
29 ; 1.2576472480984855E7 ; 2.0095862254428878E8 ; 3.465989004422806E8 ; 4.203908976419287E9 ; 0.0
30 ; 1.2591265001413763E7 ; 2.0096601223276564E8 ; 3.5917537292326546E8 ; 4.404867598963576E9 ; 0.0
31 ; 1.2603022366568765E7 ; 2.009736896022471E8 ; 3.717666379246792E8 ; 4.6058336111963415E9 ; 0.0
32 ; 1.2615865327035975E7 ; 2.0098164435780004E8 ; 3.8436966029124796E8 ; 4.806807300798589E9 ; 0.0
33 ; 1.263045162789285E7 ; 2.0098986630892238E8 ; 3.969855256182839E8 ; 5.007788945156389E9 ; 0.0
34 ; 1.2639931789902555E7 ; 2.0099834540338138E8 ; 4.096159772461768E8 ; 5.208778811465312E9 ; 0.0
35 ; 1.2653411019523839E7 ; 2.0100707175650245E8 ; 4.2225590903607935E8 ; 5.409777156868693E9 ; 0.0
36 ; 1.265849938868032E7 ; 2.0101603567612308E8 ; 4.349093200556032E8 ; 5.6107842286251955E9 ; 0.0
37 ; 1.2673564673715984E7 ; 2.010252276834696E8 ; 4.4756781944428355E8 ; 5.811800264301318E9 ; 0.0
38 ; 1.2684093470558735E7 ; 2.0103463853024322E8 ; 4.6024138411799955E8 ; 6.012825491984788E9 ; 0.0
39 ; 1.269297563958861E7 ; 2.0104425921222177E8 ; 4.729254775885583E8 ; 6.213860130515031E9 ; 0.0
40 ; 1.2702088552572163E7 ; 2.0105408097968996E8 ; 4.856184532281469E8 ; 6.414904389727253E9 ; 0.0
41 ; 1.2711969751478085E7 ; 2.0106409534501302E8 ; 4.983205417807191E8 ; 6.615958470706943E9 ; 0.0
42 ; 1.2720558348329015E7 ; 2.010742940876613E8 ; 5.110325115321972E8 ; 6.817022566051955E9 ; 0.0
43 ; 1.2730010363676658E7 ; 2.0108466925698256E8 ; 5.237530698805262E8 ; 7.018096860139617E9 ; 0.0
44 ; 1.2738971947601983E7 ; 2.0109521317300335E8 ; 5.3648308024420285E8 ; 7.2191815293966E9 ; 0.0
45 ; 1.2741729680469641E7 ; 2.0110591842552346E8 ; 5.492220521918049E8 ; 7.420276742569603E9 ; 0.0
46 ; 1.2750662505561763E7 ; 2.011167778717481E8 ; 5.619637818722745E8 ; 7.621382660995127E9 ; 0.0
47 ; 1.2757175694909163E7 ; 2.0112778463268146E8 ; 5.747144443778362E8 ; 7.822499438866875E9 ; 0.0
48 ; 1.2760108866258854E7 ; 2.0113893208848655E8 ; 5.874716200727454E8 ; 8.023627223499557E9 ; 0.0
49 ; 1.2764233723332418E7 ; 2.0115021387299398E8 ; 6.002317289390043E8 ; 8.224766155588043E9 ; 0.0
50 ; 1.2766615665970838E7 ; 2.011616238675247E8 ; 6.129959626623367E8 ; 8.425916369461038E9 ; 0.0
51 ; 1.2773365341980627E7 ; 2.0117315619417202E8 ; 6.257625783283075E8 ; 8.627077993328562E9 ; 0.0
52 ; 1.2775522340287816E7 ; 2.0118480520867103E8 ; 6.385359436702881E8 ; 8.828251149522734E9 ; 0.0
53 ; 1.2779255761542907E7 ; 2.0119656549296805E8 ; 6.513114660105759E8 ; 9.029435954731405E9 ; 0.0
54 ; 1.2785451007426146E7 ; 2.0120843184758687E8 ; 6.640907217721188E8 ; 9.230632520224373E9 ; 0.0
55 ; 1.2786114608076917E7 ; 2.0122039928387555E8 ; 6.76876172779545E8 ; 9.43184095207196E9 ; 0.0
56 ; 1.2786626773570234E7 ; 2.012324630162055E8 ; 6.896622873876219E8 ; 9.633061351355837E9 ; 0.0
57 ; 1.2791929488296917E7 ; 2.0124461845418292E8 ; 7.02448914161192E8 ; 9.834293814372042E9 ; 0.0
58 ; 1.2793322813867461E7 ; 2.0125686119492358E8 ; 7.152408436494889E8 ; 1.0035538432826225E10 ; 0.0
59 ; 1.2797258274928909E7 ; 2.0126918701543275E8 ; 7.280341664633564E8 ; 1.0236795294021149E10 ; 0.0
60 ; 1.2802155661925465E7 ; 2.0128159186512482E8 ; 7.408314247382853E8 ; 1.0438064481036581E10 ; 0.0
61 ; 1.280019040371289E7 ; 2.0129407185850984E8 ; 7.536335804002107E8 ; 1.0639346072901707E10 ; 0.0
62 ; 1.2806333266180465E7 ; 2.0130662326806957E8 ; 7.664337708039236E8 ; 1.0840640144760216E10 ; 0.0
63 ; 1.280626368111704E7 ; 2.0131924251733896E8 ; 7.792401040701041E8 ; 1.1041946768028286E10 ; 0.0
64 ; 1.2805856334502326E7 ; 2.013319261742062E8 ; 7.920463677512212E8 ; 1.1243266010545626E10 ; 0.0
65 ; 1.2809980107522909E7 ; 2.0134467094443983E8 ; 8.048522240857235E8 ; 1.1444597936719831E10 ; 0.0
66 ; 1.2807819399905622E7 ; 2.013574736654483E8 ; 8.176622041932465E8 ; 1.164594260766427E10 ; 0.0
67 ; 1.2815953754216336E7 ; 2.0137033130027547E8 ; 8.30470023593152E8 ; 1.184730008132972E10 ; 0.0
68 ; 1.2813492325023115E7 ; 2.01383240931832E8 ; 8.432859773473684E8 ; 1.2048670412629995E10 ; 0.0
69 ; 1.2813880735734891E7 ; 2.0139619975736204E8 ; 8.560994696723914E8 ; 1.2250053653561827E10 ; 0.0
70 ; 1.2817003147380918E7 ; 2.014092050831426E8 ; 8.689133504081264E8 ; 1.245144985331919E10 ; 0.0
71 ; 1.281948848852665E7 ; 2.0142225431941098E8 ; 8.817303535555073E8 ; 1.2652859058402332E10 ; 0.0
72 ; 1.2817446471905794E7 ; 2.0143534497551617E8 ; 8.94549842044034E8 ; 1.2854281312721743E10 ; 0.0
73 ; 1.2820409182489527E7 ; 2.0144847465528798E8 ; 9.073672885159398E8 ; 1.3055716657697258E10 ; 0.0
74 ; 1.2821297778076261E7 ; 2.0146164105261797E8 ; 9.201876976984293E8 ; 1.3257165132352547E10 ; 0.0
75 ; 1.2819986437859619E7 ; 2.0147484194724515E8 ; 9.330089954765056E8 ; 1.3458626773405165E10 ; 0.0
76 ; 1.2821801441244805E7 ; 2.0148807520073965E8 ; 9.458289819143653E8 ; 1.366010161535241E10 ; 0.0
77 ; 1.2821137304733368E7 ; 2.0150133875267678E8 ; 9.586507833556101E8 ; 1.3861589690553148E10 ; 0.0
78 ; 1.2819685274761762E7 ; 2.0151463061699465E8 ; 9.714719206603435E8 ; 1.4063091029305824E10 ; 0.0
79 ; 1.2814823812871143E7 ; 2.015279488785274E8 ; 9.842916059351053E8 ; 1.426460565992282E10 ; 0.0
80 ; 1.2810586133767243E7 ; 2.01541291689707E8 ; 9.971064297479764E8 ; 1.4466133608801346E10 ; 0.0
81 ; 1.280533533697428E7 ; 2.0155465726742643E8 ; 1.0099170158817437E9 ; 1.4667674900491053E10 ; 0.0
82 ; 1.2805733405875927E7 ; 2.0156804389005643E8 ; 1.0227223512187179E9 ; 1.4869229557758478E10 ; 0.0
83 ; 1.2799016949554311E7 ; 2.0158144989460996E8 ; 1.0355280846245939E9 ; 1.5070797601648535E10 ; 0.0
84 ; 1.2793224363085285E7 ; 2.015948736740463E8 ; 1.0483271015741482E9 ; 1.5272379051543144E10 ; 0.0
85 ; 1.2793111688354438E7 ; 2.016083136747091E8 ; 1.0611203259372334E9 ; 1.547397392521719E10 ; 0.0
86 ; 1.2784066383152263E7 ; 2.0162176839389154E8 ; 1.073913437625588E9 ; 1.56755822388919E10 ; 0.0
87 ; 1.27803639741942E7 ; 2.0163523637752247E8 ; 1.0866975040087402E9 ; 1.5877204007285791E10 ; 0.0
88 ; 1.277579448428339E7 ; 2.016487162179676E8 ; 1.0994778679829345E9 ; 1.6078839243663315E10 ; 0.0
89 ; 1.2775967668854097E7 ; 2.0166220655194032E8 ; 1.112253662467218E9 ; 1.6280487959881283E10 ; 0.0
90 ; 1.2769991435414547E7 ; 2.01675706058516E8 ; 1.125029630136072E9 ; 1.6482150166433224E10 ; 0.0
91 ; 1.2762660571882486E7 ; 2.016892134572453E8 ; 1.1377996215714865E9 ; 1.668382587249174E10 ; 0.0
92 ; 1.2756476552301452E7 ; 2.01702727506361E8 ; 1.150562282143369E9 ; 1.6885515085948984E10 ; 0.0
93 ; 1.2752331579811558E7 ; 2.017162470010738E8 ; 1.1633187586956704E9 ; 1.7087217813455345E10 ; 0.0
94 ; 1.2749340254884353E7 ; 2.0172977077195233E8 ; 1.176071090275482E9 ; 1.7288934060456417E10 ; 0.0
95 ; 1.2744624682807634E7 ; 2.0174329768338323E8 ; 1.1888204305303662E9 ; 1.749066383122837E10 ; 0.0
96 ; 1.2733103316311078E7 ; 2.017568266321072E8 ; 1.2015650552131739E9 ; 1.7692407128911755E10 ; 0.0
97 ; 1.2727732135674728E7 ; 2.0177035654582688E8 ; 1.214298158529485E9 ; 1.789416395554386E10 ; 0.0
98 ; 1.2723212612311471E7 ; 2.0178388638188314E8 ; 1.2270258906651597E9 ; 1.8095934312089687E10 ; 0.0
99 ; 1.2716850399206545E7 ; 2.0179741512599584E8 ; 1.239749103277471E9 ; 1.829771819847157E10 ; 0.0
100 ; 1.2708113283456687E7 ; 2.0181094179106623E8 ; 1.2524659536766777E9 ; 1.8499515613597565E10 ; 0.0
101 ; 1.2704731947808363E7 ; 2.018244654160373E8 ; 1.2651740669601345E9 ; 1.870132655538863E10 ; 0.0
102 ; 1.2701275714222915E7 ; 2.018379850648094E8 ; 1.2778787989079428E9 ; 1.890315102080467E10 ; 0.0
103 ; 1.2694498572444707E7 ; 2.0185149982520837E8 ; 1.2905800746221657E9 ; 1.9104989005869476E10 ; 0.0
104 ; 1.2684065692638436E7 ; 2.018650088080027E8 ; 1.3032745731946104E9 ; 1.9306840505694683E10 ; 0.0
105 ; 1.2680599323083265E7 ; 2.0187851114596844E8 ; 1.3159586388872488E9 ; 1.9508705514502686E10 ; 0.0
106 ; 1.2672196549995806E7 ; 2.018920059929982E8 ; 1.328639238210332E9 ; 1.9710584025648655E10 ; 0.0
107 ; 1.2664795471150981E7 ; 2.019054925232527E8 ; 1.3413114347603278E9 ; 1.9912476031641655E10 ; 0.0
108 ; 1.2658211778274778E7 ; 2.0191896993035245E8 ; 1.3539762302314787E9 ; 2.011438152416491E10 ; 0.0
109 ; 1.265199803444983E7 ; 2.0193243742660743E8 ; 1.3666344420097535E9 ; 2.031630049409526E10 ; 0.0
110 ; 1.2643744690360164E7 ; 2.0194589424228302E8 ; 1.3792864400442033E9 ; 2.051823293152187E10 ; 0.0
111 ; 1.2635990972305842E7 ; 2.0195933962490007E8 ; 1.3919301847345634E9 ; 2.0720178825764153E10 ; 0.0
112 ; 1.2632079192894401E7 ; 2.0197277283856767E8 ; 1.4045661757068691E9 ; 2.0922138165389053E10 ; 0.0
113 ; 1.262084980647038E7 ; 2.0198619316334674E8 ; 1.4171982548997636E9 ; 2.112411093822762E10 ; 0.0
114 ; 1.2613269661912946E7 ; 2.0199959989464295E8 ; 1.429819104706234E9 ; 2.1326097131390965E10 ; 0.0
115 ; 1.2605835458449235E7 ; 2.0201299234262756E8 ; 1.442432374368147E9 ; 2.1528096731285606E10 ; 0.0
116 ; 1.2599988915453421E7 ; 2.020263698316845E8 ; 1.455038209826596E9 ; 2.1730109723628235E10 ; 0.0
117 ; 1.2588750117749074E7 ; 2.0203973169988298E8 ; 1.4676381987420495E9 ; 2.193213609345992E10 ; 0.0
118 ; 1.2583124607443282E7 ; 2.0205307729847357E8 ; 1.4802269488597984E9 ; 2.21341758251598E10 ; 0.0
119 ; 1.2568279361814074E7 ; 2.0206640599140716E8 ; 1.4928100734672418E9 ; 2.2336228902458275E10 ; 0.0
120 ; 1.2563266616399627E7 ; 2.0207971715487555E8 ; 1.5053783528290558E9 ; 2.253829530844968E10 ; 0.0
121 ; 1.255101344427257E7 ; 2.0209301017687237E8 ; 1.5179416194454553E9 ; 2.2740375025604557E10 ; 0.0
122 ; 1.2544371666569602E7 ; 2.0210628445677364E8 ; 1.5304926328897278E9 ; 2.294246803578143E10 ; 0.0
123 ; 1.2538366669536721E7 ; 2.021195394049368E8 ; 1.5430370045562975E9 ; 2.31445743202382E10 ; 0.0
124 ; 1.2524728025608802E7 ; 2.0213277444231734E8 ; 1.5555753712258344E9 ; 2.334669385964314E10 ; 0.0
125 ; 1.2515992038164664E7 ; 2.021459890001024E8 ; 1.5681000992514431E9 ; 2.3548826634085457E10 ; 0.0
126 ; 1.2509146451658374E7 ; 2.0215918251936013E8 ; 1.5806160912896078E9 ; 2.375097262308556E10 ; 0.0
127 ; 1.2499981915694186E7 ; 2.0217235445070428E8 ; 1.5931252377412663E9 ; 2.395313180560492E10 ; 0.0
128 ; 1.2491170468722505E7 ; 2.0218550425397345E8 ; 1.6056252196569605E9 ; 2.4155304160055622E10 ; 0.0
129 ; 1.2479381685753312E7 ; 2.0219863139792386E8 ; 1.618116390125683E9 ; 2.4357489664309597E10 ; 0.0
130 ; 1.2467932370953435E7 ; 2.0221173535993552E8 ; 1.6305957718114364E9 ; 2.455968829570752E10 ; 0.0
131 ; 1.2454365400727103E7 ; 2.0222481562573063E8 ; 1.6430637041823897E9 ; 2.4761900031067455E10 ; 0.0
132 ; 1.244043606592437E7 ; 2.0223787168910426E8 ; 1.6555180695831168E9 ; 2.4964124846693188E10 ; 0.0
133 ; 1.2426552309305634E7 ; 2.0225090305166587E8 ; 1.6679585056490412E9 ; 2.5166362718382294E10 ; 0.0
134 ; 1.2409144498606976E7 ; 2.0226390922259226E8 ; 1.6803850579583468E9 ; 2.536861362143396E10 ; 0.0
135 ; 1.2400896843447704E7 ; 2.022768897183905E8 ; 1.6927942024569538E9 ; 2.557087753065655E10 ; 0.0
136 ; 1.2381384704524599E7 ; 2.022898440626706E8 ; 1.7051950993004014E9 ; 2.5773154420374943E10 ; 0.0
137 ; 1.2370551942990208E7 ; 2.0230277178592795E8 ; 1.717576484004926E9 ; 2.5975444264437614E10 ; 0.0
138 ; 1.2356089933800654E7 ; 2.023156724253345E8 ; 1.7299470359479163E9 ; 2.617774703622354E10 ; 0.0
139 ; 1.2338664431423787E7 ; 2.0232854552453855E8 ; 1.742303125881717E9 ; 2.6380062708648876E10 ; 0.0
140 ; 1.2328753679653142E7 ; 2.0234139063347256E8 ; 1.7546417903131409E9 ; 2.6582391254173416E10 ; 0.0
141 ; 1.2311156681478316E7 ; 2.0235420730816907E8 ; 1.766970543992794E9 ; 2.678473264480689E10 ; 0.0
142 ; 1.229461067710876E7 ; 2.023669951105839E8 ; 1.7792817006742723E9 ; 2.698708685211506E10 ; 0.0
143 ; 1.2277563008577485E7 ; 2.0237975360842636E8 ; 1.791576311351381E9 ; 2.7189453847225643E10 ; 0.0
144 ; 1.2266860170438293E7 ; 2.023924823749965E8 ; 1.8038538743599586E9 ; 2.739183360083407E10 ; 0.0
145 ; 1.225341868539574E7 ; 2.0240518098902872E8 ; 1.816120734530397E9 ; 2.7594226083209064E10 ; 0.0
146 ; 1.224481037641946E7 ; 2.0241784903454155E8 ; 1.8283741532157927E9 ; 2.7796631264198093E10 ; 0.0
147 ; 1.2234588216855073E7 ; 2.0243048610069355E8 ; 1.8406189635922122E9 ; 2.7999049113232635E10 ; 0.0
148 ; 1.2222142025585473E7 ; 2.0244309178164473E8 ; 1.8528535518090672E9 ; 2.820147959933333E10 ; 0.0
149 ; 1.2211782740728691E7 ; 2.0245566567642352E8 ; 1.8650756938346527E9 ; 2.840392269111497E10 ; 0.0
150 ; 1.2203358385818642E7 ; 2.0246820738879877E8 ; 1.8772874765753813E9 ; 2.8606378356791393E10 ; 0.0
151 ; 1.2186797286561497E7 ; 2.02480716527157E8 ; 1.8894908349612E9 ; 2.880884656418019E10 ; 0.0
152 ; 1.2176604879024077E7 ; 2.0249319270438412E8 ; 1.9016776322477615E9 ; 2.9011327280707348E10 ; 0.0
153 ; 1.2167875292999625E7 ; 2.0250563553775197E8 ; 1.9138542371267855E9 ; 2.921382047341173E10 ; 0.0
154 ; 1.21588438385212E7 ; 2.0251804464880902E8 ; 1.926022112419785E9 ; 2.9416326108949482E10 ; 0.0
155 ; 1.214255594175433E7 ; 2.0253041966327536E8 ; 1.9381809562583063E9 ; 2.961884415359829E10 ; 0.0
156 ; 1.2133814334889464E7 ; 2.0254276021094176E8 ; 1.9503235122000606E9 ; 2.9821374573261566E10 ; 0.0
157 ; 1.2124304537969116E7 ; 2.0255506592557237E8 ; 1.96245732653495E9 ; 3.0023917333472507E10 ; 0.0
158 ; 1.2110149122589573E7 ; 2.025673364448113E8 ; 1.9745816310729191E9 ; 3.022647239939808E10 ; 0.0
159 ; 1.2099882045963846E7 ; 2.0257957141009265E8 ; 1.9866917801955087E9 ; 3.042903973584289E10 ; 0.0
160 ; 1.2090581837224875E7 ; 2.025917704665538E8 ; 1.9987916622414725E9 ; 3.0631619307252983E10 ; 0.0
161 ; 1.207802244039749E7 ; 2.0260393326295227E8 ; 2.0108822440786974E9 ; 3.0834211077719536E10 ; 0.0
162 ; 1.2068254741900824E7 ; 2.026160594515853E8 ; 2.022960266519095E9 ; 3.1036815010982487E10 ; 0.0
163 ; 1.2056165807381114E7 ; 2.026281486882126E8 ; 2.0350285212609959E9 ; 3.123943107043407E10 ; 0.0
164 ; 1.2044029912738653E7 ; 2.0264020063198218E8 ; 2.047084687068377E9 ; 3.1442059219122284E10 ; 0.0
165 ; 1.2033054982810706E7 ; 2.026522149453584E8 ; 2.0591287169811156E9 ; 3.1644699419754265E10 ; 0.0
166 ; 1.2021187509602632E7 ; 2.0266419129405317E8 ; 2.0711617719639263E9 ; 3.1847351634699623E10 ; 0.0
167 ; 1.2007555659230838E7 ; 2.0267612934695938E8 ; 2.0831829594735289E9 ; 3.2050015825993675E10 ; 0.0
168 ; 1.199775378698429E7 ; 2.0268802877608693E8 ; 2.0951905151327598E9 ; 3.2252691955340633E10 ; 0.0
169 ; 1.1985365544749621E7 ; 2.0269988925650093E8 ; 2.107188268919744E9 ; 3.2455379984116722E10 ; 0.0
170 ; 1.1970115900135202E7 ; 2.027117104662623E8 ; 2.1191736344644938E9 ; 3.2658079873373222E10 ; 0.0
171 ; 1.1964272000061542E7 ; 2.027234920863705E8 ; 2.131143750364629E9 ; 3.2860791583839485E10 ; 0.0
172 ; 1.1948524101945786E7 ; 2.0273523380070806E8 ; 2.1431080223646905E9 ; 3.3063515075925858E10 ; 0.0
173 ; 1.193685643839666E7 ; 2.0274693529598767E8 ; 2.155056546466636E9 ; 3.3266250309726566E10 ; 0.0
174 ; 1.193149029036155E7 ; 2.0275859626170057E8 ; 2.1669934029050326E9 ; 3.3468997245022552E10 ; 0.0
175 ; 1.1924856316090599E7 ; 2.0277021639006713E8 ; 2.178924893195394E9 ; 3.3671755841284252E10 ; 0.0
176 ; 1.1915556062629564E7 ; 2.0278179537598923E8 ; 2.1908497495114846E9 ; 3.387452605767432E10 ; 0.0
177 ; 1.191174129887938E7 ; 2.02793332917004E8 ; 2.2027653055741143E9 ; 3.407730785305031E10 ; 0.0
178 ; 1.1901762692415299E7 ; 2.028048287132396E8 ; 2.2146770468729935E9 ; 3.428010118596731E10 ; 0.0
179 ; 1.1893814597845841E7 ; 2.0281628246737245E8 ; 2.2265788095654087E9 ; 3.448290601468055E10 ; 0.0
180 ; 1.1887265201870058E7 ; 2.028276938845857E8 ; 2.2384726241632547E9 ; 3.468572229714792E10 ; 0.0
181 ; 1.1880396353228709E7 ; 2.0283906267252958E8 ; 2.2503598893651247E9 ; 3.48885499910325E10 ; 0.0
182 ; 1.1873032565750506E7 ; 2.0285038854128283E8 ; 2.2622402857183533E9 ; 3.509138905370503E10 ; 0.0
183 ; 1.1865388341277178E7 ; 2.028616712033157E8 ; 2.274113318284104E9 ; 3.5294239442246315E10 ; 0.0
184 ; 1.1858404843960049E7 ; 2.0287291037345412E8 ; 2.285978706625381E9 ; 3.549710111344963E10 ; 0.0
185 ; 1.1851368616499273E7 ; 2.028841057688451E8 ; 2.2978371114693413E9 ; 3.569997402382308E10 ; 0.0
186 ; 1.1841648263824137E7 ; 2.028952571089235E8 ; 2.3096884800858407E9 ; 3.590285812959193E10 ; 0.0
187 ; 1.1835188930096874E7 ; 2.0290636411537972E8 ; 2.3215301283496647E9 ; 3.610575338670085E10 ; 0.0
188 ; 1.182851257596471E7 ; 2.0291742651212883E8 ; 2.333365317279762E9 ; 3.630865975081623E10 ; 0.0
189 ; 1.1821884579885846E7 ; 2.0292844402528045E8 ; 2.3451938298557267E9 ; 3.651157717732836E10 ; 0.0
190 ; 1.1815741505784957E7 ; 2.0293941638310984E8 ; 2.3570157144356127E9 ; 3.6714505621353645E10 ; 0.0
191 ; 1.1805487992480485E7 ; 2.0295034331602994E8 ; 2.3688314559413977E9 ; 3.6917445037736755E10 ; 0.0
192 ; 1.179737371182087E7 ; 2.0296122455656454E8 ; 2.380636943933878E9 ; 3.712039538105279E10 ; 0.0
193 ; 1.1792862444973407E7 ; 2.029720598393221E8 ; 2.392434317645699E9 ; 3.732335660560935E10 ; 0.0
194 ; 1.1785574482896358E7 ; 2.029828489009706E8 ; 2.4042271800906725E9 ; 3.752632866544868E10 ; 0.0
195 ; 1.1779488325225001E7 ; 2.0299359148021346E8 ; 2.416012754573569E9 ; 3.772931151434965E10 ; 0.0
