CSV File for the City 6 on Day 4
1 - Minute m 
2 - Power Consumed at minute m 
3 - Power Produced at minute m 
4 - Energy Consumed since the beginning of the day 
5 - Energy Produced since the beginning of the day 
6 - Energy Lost since the beginning of the day on lines starting from the city
 
0 ; 1.1129822437826013E7 ; 1.0563139548842964E8 ; 0.0 ; 0.0 ; 0.0
1 ; 1.11423839206503E7 ; 1.05781103066621E8 ; 1.1129822437826013E7 ; 1.0563139548842964E8 ; 0.0
2 ; 1.1153409356448807E7 ; 1.06239898175957E8 ; 2.227220635847631E7 ; 2.1141249855505064E8 ; 0.0
3 ; 1.1167533618499707E7 ; 1.0700779331348383E8 ; 3.3425615714925118E7 ; 3.1765239673100764E8 ; 0.0
4 ; 1.118436767365546E7 ; 1.0808479998581892E8 ; 4.459314933342482E7 ; 4.2466019004449147E8 ; 0.0
5 ; 1.1200464458984101E7 ; 1.0947092855038458E8 ; 5.577751700708028E7 ; 5.327449900303104E8 ; 0.0
6 ; 1.1227334787559748E7 ; 1.111661880646415E8 ; 6.697798146606438E7 ; 6.422159185806949E8 ; 0.0
7 ; 1.1268896120796187E7 ; 1.1317058614806366E8 ; 7.820531625362413E7 ; 7.533821066453364E8 ; 0.0
8 ; 1.1323351161937723E7 ; 1.1548412886151022E8 ; 8.947421237442032E7 ; 8.665526927934E8 ; 0.0
9 ; 1.1397866118176257E7 ; 1.181068206082989E8 ; 1.0079756353635804E8 ; 9.820368216549103E8 ; 0.0
10 ; 1.1525895771602577E7 ; 1.2103866406066972E8 ; 1.121954296545343E8 ; 1.1001436422632093E9 ; 0.0
11 ; 1.172104919072655E7 ; 1.2427966011447176E8 ; 1.2372132542613687E8 ; 1.221182306323879E9 ; 0.0
12 ; 1.2041186314438658E7 ; 1.2782980787385592E8 ; 1.3544237461686343E8 ; 1.3454619664383507E9 ; 0.0
13 ; 1.2341648827948844E7 ; 1.3168910466658217E8 ; 1.474835609313021E8 ; 1.4732917743122065E9 ; 0.0
14 ; 1.2377422289231328E7 ; 1.3585754608933288E8 ; 1.5982520975925094E8 ; 1.6049808789787886E9 ; 0.0
15 ; 1.2392865241106488E7 ; 1.4033512608124876E8 ; 1.7220263204848227E8 ; 1.7408384250681214E9 ; 0.0
16 ; 1.2405596849425685E7 ; 1.4512183702285597E8 ; 1.8459549728958875E8 ; 1.8811735511493702E9 ; 0.0
17 ; 1.2418733995938249E7 ; 1.502176698566937E8 ; 1.9700109413901442E8 ; 2.0262953881722262E9 ; 0.0
18 ; 1.2432781340159751E7 ; 1.556226142253397E8 ; 2.0941982813495266E8 ; 2.1765130580289197E9 ; 0.0
19 ; 1.244789545467969E7 ; 1.6133665862217656E8 ; 2.218526094751124E8 ; 2.3321356722542596E9 ; 0.0
20 ; 1.2465782634534528E7 ; 1.67359790550158E8 ; 2.343005049297921E8 ; 2.493472330876436E9 ; 0.0
21 ; 1.2476553232789831E7 ; 1.7369199668398824E8 ; 2.4676628756432664E8 ; 2.6608321214265943E9 ; 0.0
22 ; 1.249029776361328E7 ; 1.8033326303148788E8 ; 2.592428407971165E8 ; 2.8345241181105824E9 ; 0.0
23 ; 1.2506126101033838E7 ; 1.8728357509043217E8 ; 2.7173313856072974E8 ; 3.0148573811420703E9 ; 0.0
24 ; 1.2519628783022849E7 ; 1.9454291799776226E8 ; 2.842392646617636E8 ; 3.2021409562325025E9 ; 0.0
25 ; 1.2535181692992752E7 ; 2.007993175669167E8 ; 2.967588934447864E8 ; 3.3966838742302647E9 ; 0.0
26 ; 1.254808360898611E7 ; 2.008063064520385E8 ; 3.092940751377792E8 ; 3.597483191797181E9 ; 0.0
27 ; 1.2564845271284606E7 ; 2.0081363878721225E8 ; 3.2184215874676526E8 ; 3.7982894982492194E9 ; 0.0
28 ; 1.2575731655784814E7 ; 2.0082129953401858E8 ; 3.3440700401804984E8 ; 3.999103137036432E9 ; 0.0
29 ; 1.2589284436434904E7 ; 2.0082927386192283E8 ; 3.469827356738346E8 ; 4.1999244365704503E9 ; 0.0
30 ; 1.2601359212914374E7 ; 2.0083754722209415E8 ; 3.5957202011026955E8 ; 4.400753710432373E9 ; 0.0
31 ; 1.2616584657077877E7 ; 2.0084610540852323E8 ; 3.721733793231839E8 ; 4.601591257654468E9 ; 0.0
32 ; 1.2632132014223298E7 ; 2.0085493460728952E8 ; 3.8478996398026174E8 ; 4.802437363062991E9 ; 0.0
33 ; 1.264484207820106E7 ; 2.0086402143497753E8 ; 3.97422095994485E8 ; 5.00329229767028E9 ; 0.0
34 ; 1.265450540324022E7 ; 2.0087335296732786E8 ; 4.100669380726861E8 ; 5.204156319105258E9 ; 0.0
35 ; 1.2664451136771314E7 ; 2.0088291675923857E8 ; 4.227214434759263E8 ; 5.405029672072586E9 ; 0.0
36 ; 1.2679721911338428E7 ; 2.0089270085722274E8 ; 4.353858946126976E8 ; 5.605912588831824E9 ; 0.0
37 ; 1.2686842195418602E7 ; 2.0090269380538437E8 ; 4.4806561652403605E8 ; 5.806805289689047E9 ; 0.0
38 ; 1.2699174430454794E7 ; 2.0091288464591002E8 ; 4.6075245871945465E8 ; 6.0077079834944315E9 ; 0.0
39 ; 1.2709210016037034E7 ; 2.0092326291499403E8 ; 4.7345163314990944E8 ; 6.208620868140342E9 ; 0.0
40 ; 1.271681347063317E7 ; 2.0093381863502818E8 ; 4.861608431659465E8 ; 6.409544131055336E9 ; 0.0
41 ; 1.2728998083852094E7 ; 2.0094454230379584E8 ; 4.9887765663657963E8 ; 6.610477949690364E9 ; 0.0
42 ; 1.2734575619517567E7 ; 2.009554248813214E8 ; 5.1160665472043175E8 ; 6.81142249199416E9 ; 0.0
43 ; 1.2741785450952873E7 ; 2.009664577749406E8 ; 5.243412303399493E8 ; 7.012377916875481E9 ; 0.0
44 ; 1.2751381191590533E7 ; 2.0097763282307655E8 ; 5.370830157909021E8 ; 7.213344374650421E9 ; 0.0
45 ; 1.276181483789242E7 ; 2.009889422781327E8 ; 5.498343969824927E8 ; 7.414322007473497E9 ; 0.0
46 ; 1.2765137760903798E7 ; 2.010003787888478E8 ; 5.625962118203851E8 ; 7.61531094975163E9 ; 0.0
47 ; 1.2770489082497189E7 ; 2.0101193538239834E8 ; 5.753613495812889E8 ; 7.816311328540478E9 ; 0.0
48 ; 1.277401632121234E7 ; 2.0102360544648197E8 ; 5.881318386637862E8 ; 8.017323263922876E9 ; 0.0
49 ; 1.2781667997442653E7 ; 2.0103538271157026E8 ; 6.009058549849985E8 ; 8.218346869369358E9 ; 0.0
50 ; 1.2784303734633645E7 ; 2.010472612334794E8 ; 6.136875229824411E8 ; 8.419382252080929E9 ; 0.0
51 ; 1.2790162992083035E7 ; 2.0105923537637523E8 ; 6.264718267170748E8 ; 8.620429513314407E9 ; 0.0
52 ; 1.2790530575334784E7 ; 2.0107129979629958E8 ; 6.392619897091578E8 ; 8.821488748690783E9 ; 0.0
53 ; 1.2795398608461967E7 ; 2.010834494252821E8 ; 6.520525202844926E8 ; 9.022560048487082E9 ; 0.0
54 ; 1.2799349680495337E7 ; 2.0109567945608184E8 ; 6.648479188929546E8 ; 9.223643497912363E9 ; 0.0
55 ; 1.280091985087363E7 ; 2.011079853275866E8 ; 6.7764726857345E8 ; 9.424739177368444E9 ; 0.0
56 ; 1.2806131495234571E7 ; 2.0112036271088487E8 ; 6.904481884243236E8 ; 9.625847162696032E9 ; 0.0
57 ; 1.2809568398422962E7 ; 2.0113280749601495E8 ; 7.032543199195582E8 ; 9.826967525406916E9 ; 0.0
58 ; 1.281349418871251E7 ; 2.0114531577938664E8 ; 7.160638883179811E8 ; 1.0028100332902931E10 ; 0.0
59 ; 1.281204434646054E7 ; 2.0115788385186517E8 ; 7.288773825066936E8 ; 1.0229245648682318E10 ; 0.0
60 ; 1.2814786924040163E7 ; 2.0117050818750125E8 ; 7.416894268531542E8 ; 1.0430403532534184E10 ; 0.0
61 ; 1.2820510720256126E7 ; 2.0118318543288755E8 ; 7.545042137771944E8 ; 1.0631574040721685E10 ; 0.0
62 ; 1.281990683861939E7 ; 2.0119591239711928E8 ; 7.673247244974505E8 ; 1.0832757226154573E10 ; 0.0
63 ; 1.2823156759888465E7 ; 2.0120868604233438E8 ; 7.801446313360698E8 ; 1.1033953138551693E10 ; 0.0
64 ; 1.2825105155766904E7 ; 2.012215034748078E8 ; 7.929677880959582E8 ; 1.1235161824594027E10 ; 0.0
65 ; 1.282869332577299E7 ; 2.012343619365738E8 ; 8.057928932517252E8 ; 1.1436383328068834E10 ; 0.0
66 ; 1.2830426626577457E7 ; 2.0124725879754958E8 ; 8.186215865774982E8 ; 1.1637617690005407E10 ; 0.0
67 ; 1.2829185070178492E7 ; 2.0126019154813403E8 ; 8.314520132040757E8 ; 1.1838864948802958E10 ; 0.0
68 ; 1.2836960358040323E7 ; 2.0127315779225627E8 ; 8.442811982742542E8 ; 1.2040125140351091E10 ; 0.0
69 ; 1.283432260776964E7 ; 2.0128615524084786E8 ; 8.571181586322945E8 ; 1.2241398298143347E10 ; 0.0
70 ; 1.2835384244470693E7 ; 2.012991817057152E8 ; 8.699524812400641E8 ; 1.2442684453384195E10 ; 0.0
71 ; 1.2835847895927886E7 ; 2.013122350937882E8 ; 8.827878654845349E8 ; 1.264398363508991E10 ; 0.0
72 ; 1.2836834023176253E7 ; 2.0132531340172255E8 ; 8.956237133804628E8 ; 1.2845295870183699E10 ; 0.0
73 ; 1.2838113877954336E7 ; 2.0133841471083468E8 ; 9.084605474036391E8 ; 1.304662118358542E10 ; 0.0
74 ; 1.2837982433393564E7 ; 2.0135153718234834E8 ; 9.212986612815934E8 ; 1.3247959598296255E10 ; 0.0
75 ; 1.2842669967983764E7 ; 2.0136467905293384E8 ; 9.34136643714987E8 ; 1.3449311135478603E10 ; 0.0
76 ; 1.284026857146772E7 ; 2.0137783863052157E8 ; 9.469793136829708E8 ; 1.3650675814531538E10 ; 0.0
77 ; 1.2844835328999484E7 ; 2.0139101429037225E8 ; 9.598195822544385E8 ; 1.385205365316206E10 ; 0.0
78 ; 1.284050557393522E7 ; 2.014042044713881E8 ; 9.72664417583438E8 ; 1.4053444667452433E10 ; 0.0
79 ; 1.2836483905343758E7 ; 2.0141740767264903E8 ; 9.855049231573733E8 ; 1.425484887192382E10 ; 0.0
80 ; 1.2833918956833487E7 ; 2.014306224501599E8 ; 9.983414070627171E8 ; 1.445626627959647E10 ; 0.0
81 ; 1.2831078930073796E7 ; 2.014438474137951E8 ; 1.0111753260195506E9 ; 1.4657696902046629E10 ; 0.0
82 ; 1.2825722729864983E7 ; 2.0145708122442797E8 ; 1.0240064049496243E9 ; 1.4859140749460424E10 ; 0.0
83 ; 1.2818181837734949E7 ; 2.0147032259123284E8 ; 1.0368321276794893E9 ; 1.5060597830684853E10 ; 0.0
84 ; 1.2817185743663307E7 ; 2.0148357026914915E8 ; 1.0496503095172242E9 ; 1.5262068153276085E10 ; 0.0
85 ; 1.2812944517648274E7 ; 2.0149682305649683E8 ; 1.0624674952608875E9 ; 1.5463551723545235E10 ; 0.0
86 ; 1.2814201351321612E7 ; 2.0151007979273316E8 ; 1.0752804397785358E9 ; 1.5665048546601732E10 ; 0.0
87 ; 1.2810403595988426E7 ; 2.015233393563427E8 ; 1.0880946411298575E9 ; 1.5866558626394464E10 ; 0.0
88 ; 1.2801608324601788E7 ; 2.0153660066285092E8 ; 1.100905044725846E9 ; 1.6068081965750807E10 ; 0.0
89 ; 1.27978218071524E7 ; 2.0154986266295427E8 ; 1.113706653050448E9 ; 1.6269618566413658E10 ; 0.0
90 ; 1.2791828770006107E7 ; 2.0156312434075913E8 ; 1.1265044748576005E9 ; 1.6471168429076612E10 ; 0.0
91 ; 1.2788290362440022E7 ; 2.015763847121226E8 ; 1.1392963036276066E9 ; 1.6672731553417372E10 ; 0.0
92 ; 1.2783258176538326E7 ; 2.015896428230888E8 ; 1.1520845939900467E9 ; 1.6874307938129494E10 ; 0.0
93 ; 1.2777708295317274E7 ; 2.016028977484148E8 ; 1.164867852166585E9 ; 1.7075897580952583E10 ; 0.0
94 ; 1.277473582638259E7 ; 2.0161614859018034E8 ; 1.1776455604619021E9 ; 1.7277500478700996E10 ; 0.0
95 ; 1.2764916841956714E7 ; 2.0162939447647607E8 ; 1.1904202962882848E9 ; 1.7479116627291176E10 ; 0.0
96 ; 1.276181642598513E7 ; 2.0164263456016582E8 ; 1.2031852131302414E9 ; 1.768074602176765E10 ; 0.0
97 ; 1.2759573209772982E7 ; 2.0165586801771796E8 ; 1.2159470295562265E9 ; 1.7882388656327816E10 ; 0.0
98 ; 1.2750171506470095E7 ; 2.0166909404810148E8 ; 1.2287066027659996E9 ; 1.8084044524345535E10 ; 0.0
99 ; 1.274633673911456E7 ; 2.0168231187174347E8 ; 1.2414567742724698E9 ; 1.828571361839364E10 ; 0.0
100 ; 1.273872048652272E7 ; 2.0169552072954324E8 ; 1.2542031110115843E9 ; 1.848739593026538E10 ; 0.0
101 ; 1.2732556835960625E7 ; 2.017087198819408E8 ; 1.266941831498107E9 ; 1.8689091450994923E10 ; 0.0
102 ; 1.2727947219022604E7 ; 2.017219086080355E8 ; 1.2796743883340676E9 ; 1.889080017087686E10 ; 0.0
103 ; 1.272025195951026E7 ; 2.0173508620475203E8 ; 1.29240233555309E9 ; 1.9092522079484898E10 ; 0.0
104 ; 1.2714322862025108E7 ; 2.0174825198605144E8 ; 1.3051225875126004E9 ; 1.929425716568965E10 ; 0.0
105 ; 1.2710342889613308E7 ; 2.0176140528218392E8 ; 1.3178369103746254E9 ; 1.94960054176757E10 ; 0.0
106 ; 1.2702683349767515E7 ; 2.01774545438981E8 ; 1.3305472532642388E9 ; 1.9697766822957886E10 ; 0.0
107 ; 1.2693170953543367E7 ; 2.01787671817185E8 ; 1.3432499366140063E9 ; 1.9899541368396866E10 ; 0.0
108 ; 1.268987401076728E7 ; 2.018007837918138E8 ; 1.3559431075675497E9 ; 2.010132904021405E10 ; 0.0
109 ; 1.2682120520082533E7 ; 2.0181388075155783E8 ; 1.368632981578317E9 ; 2.0303129824005863E10 ; 0.0
110 ; 1.2678045724159673E7 ; 2.01826962098209E8 ; 1.3813151020983994E9 ; 2.050494370475742E10 ; 0.0
111 ; 1.2669760994717093E7 ; 2.018400272461182E8 ; 1.393993147822559E9 ; 2.070677066685563E10 ; 0.0
112 ; 1.2658175733060125E7 ; 2.018530756216809E8 ; 1.4066629088172762E9 ; 2.0908610694101746E10 ; 0.0
113 ; 1.265202760486965E7 ; 2.0186610666284844E8 ; 1.4193210845503364E9 ; 2.1110463769723427E10 ; 0.0
114 ; 1.2644338001117753E7 ; 2.0187911981866413E8 ; 1.431973112155206E9 ; 2.1312329876386276E10 ; 0.0
115 ; 1.2639947211617306E7 ; 2.0189211454882234E8 ; 1.4446174501563237E9 ; 2.151420899620494E10 ; 0.0
116 ; 1.2634416021884536E7 ; 2.0190509032324967E8 ; 1.457257397367941E9 ; 2.171610111075376E10 ; 0.0
117 ; 1.2617643228469446E7 ; 2.0191804662170663E8 ; 1.4698918133898253E9 ; 2.191800620107701E10 ; 0.0
118 ; 1.2615541824238302E7 ; 2.0193098293340898E8 ; 1.4825094566182947E9 ; 2.211992424769872E10 ; 0.0
119 ; 1.260534187718698E7 ; 2.019438987566675E8 ; 1.495124998442533E9 ; 2.232185523063213E10 ; 0.0
120 ; 1.2597486689360863E7 ; 2.0195679359854516E8 ; 1.50773034031972E9 ; 2.2523799129388798E10 ; 0.0
121 ; 1.2586954624270251E7 ; 2.0196966697453094E8 ; 1.520327827009081E9 ; 2.2725755922987343E10 ; 0.0
122 ; 1.2579255765683094E7 ; 2.0198251840822914E8 ; 1.532914781633351E9 ; 2.2927725589961872E10 ; 0.0
123 ; 1.2571266801137475E7 ; 2.019953474310635E8 ; 1.5454940373990343E9 ; 2.3129708108370102E10 ; 0.0
124 ; 1.256153637610156E7 ; 2.020081535819955E8 ; 1.5580653042001717E9 ; 2.3331703455801167E10 ; 0.0
125 ; 1.2553923404623412E7 ; 2.0202093640725553E8 ; 1.5706268405762732E9 ; 2.3533711609383163E10 ; 0.0
126 ; 1.254802170907193E7 ; 2.0203369546008712E8 ; 1.5831807639808967E9 ; 2.373573254579042E10 ; 0.0
127 ; 1.253502166670242E7 ; 2.020464303005027E8 ; 1.5957287856899686E9 ; 2.3937766241250507E10 ; 0.0
128 ; 1.2525574735560177E7 ; 2.0205914049505082E8 ; 1.608263807356671E9 ; 2.413981267155101E10 ; 0.0
129 ; 1.2519786601806935E7 ; 2.0207182561659405E8 ; 1.6207893820922313E9 ; 2.4341871812046062E10 ; 0.0
130 ; 1.2504012199346736E7 ; 2.0208448524409693E8 ; 1.6333091686940382E9 ; 2.4543943637662655E10 ; 0.0
131 ; 1.249217337822733E7 ; 2.020971189624238E8 ; 1.645813180893385E9 ; 2.4746028122906754E10 ; 0.0
132 ; 1.2479322975318624E7 ; 2.0210972636214554E8 ; 1.6583053542716122E9 ; 2.494812524186918E10 ; 0.0
133 ; 1.2463401902530901E7 ; 2.021223070393551E8 ; 1.6707846772469308E9 ; 2.5150234968231323E10 ; 0.0
134 ; 1.2453885568313304E7 ; 2.0213486059549132E8 ; 1.6832480791494617E9 ; 2.535235727527068E10 ; 0.0
135 ; 1.2436303653925575E7 ; 2.021473866371705E8 ; 1.695701964717775E9 ; 2.555449213586617E10 ; 0.0
136 ; 1.24211767949738E7 ; 2.0215988477602547E8 ; 1.7081382683717008E9 ; 2.5756639522503338E10 ; 0.0
137 ; 1.2409439323472168E7 ; 2.0217235462855184E8 ; 1.7205594451666746E9 ; 2.595879940727936E10 ; 0.0
138 ; 1.2396948336579854E7 ; 2.0218479581596076E8 ; 1.7329688844901469E9 ; 2.6160971761907913E10 ; 0.0
139 ; 1.2381571919438671E7 ; 2.021972079640384E8 ; 1.7453658328267267E9 ; 2.6363156557723873E10 ; 0.0
140 ; 1.2365226532602234E7 ; 2.0220959070301116E8 ; 1.7577474047461653E9 ; 2.6565353765687912E10 ; 0.0
141 ; 1.2353819606762867E7 ; 2.0222194366741708E8 ; 1.7701126312787676E9 ; 2.6767563356390923E10 ; 0.0
142 ; 1.2338411487198947E7 ; 2.0223426649598247E8 ; 1.7824664508855305E9 ; 2.696978530005834E10 ; 0.0
143 ; 1.2322963037806397E7 ; 2.02246558831504E8 ; 1.7948048623727293E9 ; 2.717201956655432E10 ; 0.0
144 ; 1.2307612002880601E7 ; 2.0225882032073566E8 ; 1.8071278254105358E9 ; 2.7374266125385826E10 ; 0.0
145 ; 1.2298791157424316E7 ; 2.022710506142807E8 ; 1.8194354374134164E9 ; 2.7576524945706562E10 ; 0.0
146 ; 1.2285138279731805E7 ; 2.0228324936648783E8 ; 1.8317342285708406E9 ; 2.7778795996320843E10 ; 0.0
147 ; 1.2279516158842785E7 ; 2.0229541623535216E8 ; 1.8440193668505723E9 ; 2.7981079245687332E10 ; 0.0
148 ; 1.2266879586009892E7 ; 2.023075508824199E8 ; 1.8562988830094151E9 ; 2.8183374661922684E10 ; 0.0
149 ; 1.2254772986261193E7 ; 2.0231965297269723E8 ; 1.8685657625954251E9 ; 2.8385682212805103E10 ; 0.0
150 ; 1.2245121414004134E7 ; 2.0233172217456296E8 ; 1.8808205355816863E9 ; 2.85880018657778E10 ; 0.0
151 ; 1.2237083050294636E7 ; 2.0234375815968463E8 ; 1.8930656569956903E9 ; 2.8790333587952366E10 ; 0.0
152 ; 1.2226340084234893E7 ; 2.0235576060293823E8 ; 1.905302740045985E9 ; 2.899267734611205E10 ; 0.0
153 ; 1.2214333587537358E7 ; 2.0236772918233117E8 ; 1.91752908013022E9 ; 2.919503310671499E10 ; 0.0
154 ; 1.2201730768134391E7 ; 2.023796635789282E8 ; 1.9297434137177572E9 ; 2.939740083589732E10 ; 0.0
155 ; 1.2193786582775215E7 ; 2.023915634767806E8 ; 1.9419451444858916E9 ; 2.959978049947625E10 ; 0.0
156 ; 1.218379549915322E7 ; 2.0240342856285805E8 ; 1.9541389310686667E9 ; 2.980217206295303E10 ; 0.0
157 ; 1.2170191199778631E7 ; 2.0241525852698332E8 ; 1.9663227265678198E9 ; 3.000457549151589E10 ; 0.0
158 ; 1.216236791043517E7 ; 2.0242705306176957E8 ; 1.9784929177675984E9 ; 3.0206990750042873E10 ; 0.0
159 ; 1.2149907538498046E7 ; 2.0243881186256012E8 ; 1.9906552856780336E9 ; 3.0409417803104645E10 ; 0.0
160 ; 1.2137389345024211E7 ; 2.0245053462737074E8 ; 2.0028051932165318E9 ; 3.0611856614967205E10 ; 0.0
161 ; 1.212844673755194E7 ; 2.0246222105683392E8 ; 2.0149425825615559E9 ; 3.0814307149594574E10 ; 0.0
162 ; 1.211795485640696E7 ; 2.0247387085414582E8 ; 2.0270710292991078E9 ; 3.101676937065141E10 ; 0.0
163 ; 1.210716817237529E7 ; 2.0248548372501484E8 ; 2.0391889841555147E9 ; 3.1219243241505554E10 ; 0.0
164 ; 1.2095273546700248E7 ; 2.024970593776126E8 ; 2.05129615232789E9 ; 3.1421728725230568E10 ; 0.0
165 ; 1.208213459788134E7 ; 2.0250859752252647E8 ; 2.0633914258745902E9 ; 3.162422578460818E10 ; 0.0
166 ; 1.2073015117786206E7 ; 2.025200978727143E8 ; 2.0754735604724715E9 ; 3.1826734382130707E10 ; 0.0
167 ; 1.2061361875276182E7 ; 2.0253156014346078E8 ; 2.0875465755902576E9 ; 3.202925448000342E10 ; 0.0
168 ; 1.2053191422524288E7 ; 2.0254298405233526E8 ; 2.0996079374655337E9 ; 3.223178604014688E10 ; 0.0
169 ; 1.2037805404409084E7 ; 2.0255436931915173E8 ; 2.111661128888058E9 ; 3.2434329024199215E10 ; 0.0
170 ; 1.2026420052413203E7 ; 2.0256571566592973E8 ; 2.123698934292467E9 ; 3.2636883393518368E10 ; 0.0
171 ; 1.2020516537715126E7 ; 2.0257702281685734E8 ; 2.1357253543448803E9 ; 3.2839449109184296E10 ; 0.0
172 ; 1.20042094777262E7 ; 2.0258829049825516E8 ; 2.1477458708825955E9 ; 3.3042026132001152E10 ; 0.0
173 ; 1.1994080744394938E7 ; 2.0259951843854192E8 ; 2.1597500803603215E9 ; 3.324461442249941E10 ; 0.0
174 ; 1.1989668901811786E7 ; 2.026107063682013E8 ; 2.1717441611047163E9 ; 3.344721394093795E10 ; 0.0
175 ; 1.1980470760624278E7 ; 2.0262185401975E8 ; 2.183733830006528E9 ; 3.3649824647306152E10 ; 0.0
176 ; 1.197178872955196E7 ; 2.0263296112770724E8 ; 2.1957143007671523E9 ; 3.38524465013259E10 ; 0.0
177 ; 1.1965812419588985E7 ; 2.0264402742856503E8 ; 2.207686089496704E9 ; 3.405507946245361E10 ; 0.0
178 ; 1.1962468767031446E7 ; 2.0265505266076E8 ; 2.219651901916293E9 ; 3.4257723489882175E10 ; 0.0
179 ; 1.1949232479768503E7 ; 2.0266603656464598E8 ; 2.231614370683325E9 ; 3.446037854254294E10 ; 0.0
180 ; 1.1946997929017909E7 ; 2.0267697888246775E8 ; 2.243563603163093E9 ; 3.466304457910758E10 ; 0.0
181 ; 1.1941121198788205E7 ; 2.0268787935833582E8 ; 2.255510601092111E9 ; 3.486572155799005E10 ; 0.0
182 ; 1.1931256895345313E7 ; 2.0269873773820212E8 ; 2.2674517222908993E9 ; 3.506840943734839E10 ; 0.0
183 ; 1.1924485116022492E7 ; 2.0270955376983652E8 ; 2.2793829791862445E9 ; 3.527110817508659E10 ; 0.0
184 ; 1.1917367270775642E7 ; 2.0272032720280433E8 ; 2.291307464302267E9 ; 3.547381772885643E10 ; 0.0
185 ; 1.1911068846575651E7 ; 2.0273105778844482E8 ; 2.303224831573043E9 ; 3.5676538056059235E10 ; 0.0
186 ; 1.1905136926417891E7 ; 2.0274174527985013E8 ; 2.3151359004196186E9 ; 3.587926911384768E10 ; 0.0
187 ; 1.1895566684534742E7 ; 2.027523894318453E8 ; 2.3270410373460364E9 ; 3.608201085912753E10 ; 0.0
188 ; 1.1893868614328276E7 ; 2.0276299000096908E8 ; 2.338936604030571E9 ; 3.628476324855938E10 ; 0.0
189 ; 1.1882228416723672E7 ; 2.0277354674545515E8 ; 2.3508304726448994E9 ; 3.648752623856035E10 ; 0.0
190 ; 1.1878072218142385E7 ; 2.0278405942521438E8 ; 2.362712701061623E9 ; 3.66902997853058E10 ; 0.0
191 ; 1.187230109268452E7 ; 2.0279452780181763E8 ; 2.3745907732797656E9 ; 3.689308384473102E10 ; 0.0
192 ; 1.1863025920646006E7 ; 2.028049516384791E8 ; 2.3864630743724504E9 ; 3.709587837253284E10 ; 0.0
193 ; 1.1853126539514076E7 ; 2.0281533070004052E8 ; 2.3983261002930965E9 ; 3.729868332417132E10 ; 0.0
194 ; 1.185191840624522E7 ; 2.0282566475295565E8 ; 2.4101792268326106E9 ; 3.750149865487136E10 ; 0.0
195 ; 1.1845434043585736E7 ; 2.0283595356527573E8 ; 2.422031145238856E9 ; 3.770432431962431E10 ; 0.0
