CSV File for the City 4 on Day 24
1 - Minute m 
2 - Power Consumed at minute m 
3 - Power Produced at minute m 
4 - Energy Consumed since the beginning of the day 
5 - Energy Produced since the beginning of the day 
6 - Energy Lost since the beginning of the day on lines starting from the city
 
0 ; 6795485.196998386 ; 1.0536266530738363E8 ; 0.0 ; 0.0 ; 0.0
1 ; 6802012.025484353 ; 1.0550548950322288E8 ; 6795485.196998386 ; 1.0536266530738363E8 ; 0.0
2 ; 6809072.549299089 ; 1.0595753817348054E8 ; 1.3597497222482739E7 ; 2.108681548106065E8 ; 0.0
3 ; 6818628.480087104 ; 1.0671892532557416E8 ; 2.040656977178183E7 ; 3.1682569298408705E8 ; 0.0
4 ; 6825594.942183262 ; 1.0778978588412595E8 ; 2.7225198251868933E7 ; 4.235446183096612E8 ; 0.0
5 ; 6842087.25288611 ; 1.0917027584823638E8 ; 3.40507931940522E7 ; 5.3133440419378716E8 ; 0.0
6 ; 6856784.096308231 ; 1.1086056918660817E8 ; 4.0892880446938306E7 ; 6.405046800420235E8 ; 0.0
7 ; 6879978.018543889 ; 1.1286084963513815E8 ; 4.774966454324654E7 ; 7.513652492286317E8 ; 0.0
8 ; 6911712.643108888 ; 1.1517129601955813E8 ; 5.462964256179043E7 ; 8.642260988637699E8 ; 0.0
9 ; 6964302.994386451 ; 1.1779206155922043E8 ; 6.154135520489932E7 ; 9.79397394883328E8 ; 0.0
10 ; 7043443.44303894 ; 1.20723250819588E8 ; 6.850565819928578E7 ; 1.0971894564425483E9 ; 0.0
11 ; 7162174.945621893 ; 1.239649010653933E8 ; 7.554910164232472E7 ; 1.2179127072621362E9 ; 0.0
12 ; 7363043.42572608 ; 1.2751697503190383E8 ; 8.271127658794661E7 ; 1.3418776083275294E9 ; 0.0
13 ; 7552665.525782096 ; 1.3137936815365666E8 ; 9.00743200136727E7 ; 1.4693945833594332E9 ; 0.0
14 ; 7577386.664249158 ; 1.3555192721129954E8 ; 9.762698553945479E7 ; 1.60077395151309E9 ; 0.0
15 ; 7584971.053618257 ; 1.4003447337910056E8 ; 1.0520437220370394E8 ; 1.7363258787243896E9 ; 0.0
16 ; 7593317.873364326 ; 1.44826822921163E8 ; 1.1278934325732219E8 ; 1.87636035210349E9 ; 0.0
17 ; 7600630.058463752 ; 1.4992880186878404E8 ; 1.2038266113068652E8 ; 2.0211871750246532E9 ; 0.0
18 ; 7612538.521895238 ; 1.5534025422286326E8 ; 1.2798329118915027E8 ; 2.1711159768934374E9 ; 0.0
19 ; 7619519.820598999 ; 1.6106104505877843E8 ; 1.355958297110455E8 ; 2.3264562311163006E9 ; 0.0
20 ; 7627575.458397676 ; 1.6709106036911198E8 ; 1.432153495316445E8 ; 2.487517276175079E9 ; 0.0
21 ; 7636807.407395656 ; 1.734302051862478E8 ; 1.5084292499004218E8 ; 2.654608336544191E9 ; 0.0
22 ; 7645333.753616807 ; 1.8007840102441043E8 ; 1.5847973239743784E8 ; 2.8280385417304387E9 ; 0.0
23 ; 7654489.79033693 ; 1.870355832404573E8 ; 1.6612506615105465E8 ; 3.008116942754849E9 ; 0.0
24 ; 7663681.727221324 ; 1.9430169860905617E8 ; 1.737795559413916E8 ; 3.195152525995306E9 ; 0.0
25 ; 7671503.6688445 ; 2.0056474412456283E8 ; 1.814432376686129E8 ; 3.389454224604362E9 ; 0.0
26 ; 7681895.153305149 ; 2.005782312876443E8 ; 1.891147413374574E8 ; 3.5900189687289248E9 ; 0.0
27 ; 7689148.684247798 ; 2.005918991983528E8 ; 1.9679663649076253E8 ; 3.790597200016569E9 ; 0.0
28 ; 7697916.120135846 ; 2.0060572264519736E8 ; 2.0448578517501032E8 ; 3.991189099214922E9 ; 0.0
29 ; 7705510.903376401 ; 2.006196804680688E8 ; 2.1218370129514617E8 ; 4.1917948218601193E9 ; 0.0
30 ; 7716391.468604994 ; 2.0063375481249905E8 ; 2.1988921219852257E8 ; 4.392414502328188E9 ; 0.0
31 ; 7724604.058009477 ; 2.0064793053190106E8 ; 2.2760560366712755E8 ; 4.593048257140687E9 ; 0.0
32 ; 7730135.556501611 ; 2.0066219470764896E8 ; 2.3533020772513703E8 ; 4.793696187672588E9 ; 0.0
33 ; 7739562.571620162 ; 2.006765362627116E8 ; 2.4306034328163862E8 ; 4.994358382380238E9 ; 0.0
34 ; 7744534.778947682 ; 2.006909456495175E8 ; 2.507999058532588E8 ; 5.195034918642949E9 ; 0.0
35 ; 7755311.198262228 ; 2.007054145967858E8 ; 2.5854444063220647E8 ; 5.395725864292466E9 ; 0.0
36 ; 7761171.377369548 ; 2.0071993590330586E8 ; 2.6629975183046868E8 ; 5.596431278889252E9 ; 0.0
37 ; 7766604.582145017 ; 2.0073450326921055E8 ; 2.7406092320783824E8 ; 5.797151214792558E9 ; 0.0
38 ; 7772839.7690225905 ; 2.0074911115730214E8 ; 2.818275277899833E8 ; 5.997885718061769E9 ; 0.0
39 ; 7778636.703342695 ; 2.007637546785605E8 ; 2.8960036755900586E8 ; 6.19863482921907E9 ; 0.0
40 ; 7786011.511667878 ; 2.0077842949719146E8 ; 2.9737900426234853E8 ; 6.399398583897631E9 ; 0.0
41 ; 7789237.282218402 ; 2.0079313175153205E8 ; 3.0516501577401644E8 ; 6.600177013394822E9 ; 0.0
42 ; 7794315.509969043 ; 2.0080785798787928E8 ; 3.1295425305623484E8 ; 6.800970145146354E9 ; 0.0
43 ; 7799544.402162623 ; 2.0082260510489675E8 ; 3.207485685662039E8 ; 7.001778003134233E9 ; 0.0
44 ; 7807561.7354917 ; 2.0083737030671734E8 ; 3.285481129683665E8 ; 7.20260060823913E9 ; 0.0
45 ; 7809691.144095419 ; 2.0085215106322417E8 ; 3.363556747038582E8 ; 7.403437978545847E9 ; 0.0
46 ; 7813269.206497384 ; 2.0086694507628185E8 ; 3.441653658479536E8 ; 7.604290129609071E9 ; 0.0
47 ; 7817238.976623492 ; 2.0088175025092033E8 ; 3.51978635054451E8 ; 7.805157074685352E9 ; 0.0
48 ; 7819826.5074216155 ; 2.0089656467065635E8 ; 3.5979587403107446E8 ; 8.006038824936273E9 ; 0.0
49 ; 7821299.225466034 ; 2.0091138657628602E8 ; 3.676157005384961E8 ; 8.206935389606929E9 ; 0.0
50 ; 7826445.791406766 ; 2.0092621434759876E8 ; 3.754369997639621E8 ; 8.407846776183215E9 ; 0.0
51 ; 7825846.7026222795 ; 2.0094104648756033E8 ; 3.8326344555536884E8 ; 8.608772990530813E9 ; 0.0
52 ; 7827789.08822116 ; 2.009558816085886E8 ; 3.9108929225799114E8 ; 8.809714037018373E9 ; 0.0
53 ; 7828274.319415109 ; 2.0097071842060998E8 ; 3.9891708134621227E8 ; 9.010669918626963E9 ; 0.0
54 ; 7833828.533594481 ; 2.009855557206355E8 ; 4.0674535566562736E8 ; 9.211640637047573E9 ; 0.0
55 ; 7836519.181146618 ; 2.010003923836379E8 ; 4.1457918419922185E8 ; 9.41262619276821E9 ; 0.0
56 ; 7837993.5592381125 ; 2.0101522735454607E8 ; 4.224157033803685E8 ; 9.613626585151848E9 ; 0.0
57 ; 7838359.365981599 ; 2.0103005964120215E8 ; 4.302536969396066E8 ; 9.814641812506393E9 ; 0.0
58 ; 7839517.623410942 ; 2.0104488830814952E8 ; 4.380920563055882E8 ; 1.0015671872147596E10 ; 0.0
59 ; 7840894.027899978 ; 2.010597124711413E8 ; 4.459315739289991E8 ; 1.0216716760455746E10 ; 0.0
60 ; 7843730.0836719405 ; 2.010745312922739E8 ; 4.537724679568991E8 ; 1.0417776472926888E10 ; 0.0
61 ; 7842000.045711411 ; 2.0108934397566533E8 ; 4.6161619804057103E8 ; 1.0618851004219162E10 ; 0.0
62 ; 7848083.913374316 ; 2.0110414976360857E8 ; 4.6945819808628243E8 ; 1.0819940348194828E10 ; 0.0
63 ; 7845321.639675166 ; 2.0111894793314117E8 ; 4.7730628199965674E8 ; 1.1021044497958437E10 ; 0.0
64 ; 7846394.98670088 ; 2.0113373779297948E8 ; 4.851516036393319E8 ; 1.1222163445891579E10 ; 0.0
65 ; 7847833.3573981095 ; 2.0114851868077353E8 ; 4.9299799862603277E8 ; 1.1423297183684559E10 ; 0.0
66 ; 7849412.002352412 ; 2.0116328996064454E8 ; 5.0084583198343086E8 ; 1.1624445702365332E10 ; 0.0
67 ; 7852093.537018637 ; 2.011780510209718E8 ; 5.086952439857833E8 ; 1.1825608992325975E10 ; 0.0
68 ; 7853013.67226711 ; 2.0119280127240023E8 ; 5.1654733752280194E8 ; 1.2026787043346947E10 ; 0.0
69 ; 7855547.092433971 ; 2.0120754014604354E8 ; 5.244003511950691E8 ; 1.2227979844619347E10 ; 0.0
70 ; 7853232.248216254 ; 2.0122226709186113E8 ; 5.3225589828750306E8 ; 1.242918738476539E10 ; 0.0
71 ; 7855554.224637874 ; 2.0123698157718977E8 ; 5.401091305357193E8 ; 1.2630409651857252E10 ; 0.0
72 ; 7854769.106495443 ; 2.0125168308541274E8 ; 5.479646847603571E8 ; 1.2831646633434443E10 ; 0.0
73 ; 7856000.579513828 ; 2.0126637111475253E8 ; 5.558194538668526E8 ; 1.3032898316519855E10 ; 0.0
74 ; 7855584.041636493 ; 2.0128104517717323E8 ; 5.636754544463664E8 ; 1.3234164687634607E10 ; 0.0
75 ; 7857322.947403147 ; 2.0129570479738194E8 ; 5.715310384880029E8 ; 1.343544573281178E10 ; 0.0
76 ; 7856330.451454598 ; 2.0131034951191857E8 ; 5.793883614354061E8 ; 1.3636741437609163E10 ; 0.0
77 ; 7856074.242694755 ; 2.013249788683253E8 ; 5.872446918868607E8 ; 1.3838051787121082E10 ; 0.0
78 ; 7854918.348633212 ; 2.0133959242438772E8 ; 5.951007661295555E8 ; 1.4039376765989408E10 ; 0.0
79 ; 7852752.892189124 ; 2.0135418974744073E8 ; 6.029556844781886E8 ; 1.4240716358413795E10 ; 0.0
80 ; 7848683.837733375 ; 2.0136877041373262E8 ; 6.108084373703778E8 ; 1.4442070548161236E10 ; 0.0
81 ; 7849185.007764248 ; 2.0138333400784215E8 ; 6.186571212081112E8 ; 1.4643439318574968E10 ; 0.0
82 ; 7844499.4622162795 ; 2.013978801221433E8 ; 6.265063062158754E8 ; 1.4844822652582811E10 ; 0.0
83 ; 7842913.860104988 ; 2.0141240835631335E8 ; 6.343508056780916E8 ; 1.5046220532704954E10 ; 0.0
84 ; 7841425.655933203 ; 2.014269183168805E8 ; 6.421937195381967E8 ; 1.5247632941061268E10 ; 0.0
85 ; 7837643.673281259 ; 2.0144140961680695E8 ; 6.5003514519413E8 ; 1.5449059859378149E10 ; 0.0
86 ; 7836025.601079458 ; 2.0145588187510502E8 ; 6.578727888674113E8 ; 1.5650501268994955E10 ; 0.0
87 ; 7834932.35681997 ; 2.0147033471648243E8 ; 6.657088144684907E8 ; 1.585195715087006E10 ; 0.0
88 ; 7827183.152447192 ; 2.0148476777101502E8 ; 6.735437468253107E8 ; 1.6053427485586542E10 ; 0.0
89 ; 7828522.130126885 ; 2.0149918067384404E8 ; 6.813709299777579E8 ; 1.6254912253357557E10 ; 0.0
90 ; 7820083.70942908 ; 2.0151357306489626E8 ; 6.891994521078848E8 ; 1.64564114340314E10 ; 0.0
91 ; 7818895.090899257 ; 2.0152794458862445E8 ; 6.970195358173138E8 ; 1.6657925007096296E10 ; 0.0
92 ; 7815869.1567354165 ; 2.0154229489376724E8 ; 7.04838430908213E8 ; 1.6859452951684921E10 ; 0.0
93 ; 7812648.975443807 ; 2.0155662363312605E8 ; 7.126543000649484E8 ; 1.7060995246578688E10 ; 0.0
94 ; 7809295.603205645 ; 2.0157093046335822E8 ; 7.204669490403923E8 ; 1.7262551870211815E10 ; 0.0
95 ; 7806975.423631365 ; 2.015852150447848E8 ; 7.28276244643598E8 ; 1.7464122800675175E10 ; 0.0
96 ; 7799653.280374442 ; 2.015994770412119E8 ; 7.360832200672293E8 ; 1.766570801571996E10 ; 0.0
97 ; 7801300.09115468 ; 2.0161371611976424E8 ; 7.438828733476037E8 ; 1.786730749276117E10 ; 0.0
98 ; 7796816.297106006 ; 2.016279319507307E8 ; 7.516841734387584E8 ; 1.806892120888093E10 ; 0.0
99 ; 7790994.954536558 ; 2.0164212420741993E8 ; 7.594809897358644E8 ; 1.827054914083166E10 ; 0.0
100 ; 7787384.123795158 ; 2.0165629256602612E8 ; 7.67271984690401E8 ; 1.847219126503908E10 ; 0.0
101 ; 7785750.4302346585 ; 2.016704367055036E8 ; 7.750593688141961E8 ; 1.8673847557605106E10 ; 0.0
102 ; 7778603.415750902 ; 2.0168455630745003E8 ; 7.828451192444308E8 ; 1.887551799431061E10 ; 0.0
103 ; 7775297.99249157 ; 2.0169865105599704E8 ; 7.906237226601816E8 ; 1.907720255061806E10 ; 0.0
104 ; 7771449.0402827775 ; 2.0171272063770837E8 ; 7.983990206526732E8 ; 1.9278901201674057E10 ; 0.0
105 ; 7767898.690393436 ; 2.0172676474148446E8 ; 8.06170469692956E8 ; 1.9480613922311764E10 ; 0.0
106 ; 7764807.586364936 ; 2.0174078305847332E8 ; 8.139383683833494E8 ; 1.968234068705325E10 ; 0.0
107 ; 7758780.328680279 ; 2.0175477528198704E8 ; 8.217031759697144E8 ; 1.988408147011172E10 ; 0.0
108 ; 7753504.751338444 ; 2.0176874110742384E8 ; 8.294619562983947E8 ; 2.0085836245393707E10 ; 0.0
109 ; 7750145.917472641 ; 2.0178268023219484E8 ; 8.372154610497332E8 ; 2.0287604986501133E10 ; 0.0
110 ; 7745908.1298214905 ; 2.0179659235565564E8 ; 8.449656069672058E8 ; 2.0489387666733326E10 ; 0.0
111 ; 7739837.02035632 ; 2.0181047717904207E8 ; 8.527115150970273E8 ; 2.069118425908898E10 ; 0.0
112 ; 7734646.197000646 ; 2.018243344054101E8 ; 8.604513521173836E8 ; 2.0892994736268024E10 ; 0.0
113 ; 7729526.3230096 ; 2.018381637395794E8 ; 8.681859983143842E8 ; 2.1094819070673435E10 ; 0.0
114 ; 7730165.929199737 ; 2.0185196488808036E8 ; 8.759155246373938E8 ; 2.1296657234413013E10 ; 0.0
115 ; 7721921.998231844 ; 2.0186573755910435E8 ; 8.836456905665935E8 ; 2.1498509199301094E10 ; 0.0
116 ; 7717434.35990925 ; 2.018794814624574E8 ; 8.913676125648254E8 ; 2.17003749368602E10 ; 0.0
117 ; 7711283.003830034 ; 2.01893196309516E8 ; 8.990850469247347E8 ; 2.1902254418322655E10 ; 0.0
118 ; 7707312.633084146 ; 2.0190688181318647E8 ; 9.067963299285648E8 ; 2.210414761463217E10 ; 0.0
119 ; 7699077.063738291 ; 2.0192053768786597E8 ; 9.14503642561649E8 ; 2.230605449644536E10 ; 0.0
120 ; 7695577.3960803095 ; 2.019341636494065E8 ; 9.222027196253873E8 ; 2.2507975034133224E10 ; 0.0
121 ; 7691196.127831743 ; 2.019477594150807E8 ; 9.298982970214676E8 ; 2.270990919778263E10 ; 0.0
122 ; 7685578.9535111515 ; 2.019613247035499E8 ; 9.375894931492993E8 ; 2.2911856957197712E10 ; 0.0
123 ; 7679995.080673772 ; 2.019748592348341E8 ; 9.452750721028104E8 ; 2.311381828190126E10 ; 0.0
124 ; 7670339.0762119945 ; 2.0198836273028362E8 ; 9.529550671834842E8 ; 2.3315793141136093E10 ; 0.0
125 ; 7666960.021857867 ; 2.020018349125526E8 ; 9.606254062596962E8 ; 2.3517781503866375E10 ; 0.0
126 ; 7659296.817611889 ; 2.0201527550557405E8 ; 9.682923662815541E8 ; 2.3719783338778927E10 ; 0.0
127 ; 7654752.786201657 ; 2.020286842345364E8 ; 9.75951663099166E8 ; 2.39217986142845E10 ; 0.0
128 ; 7651275.764971199 ; 2.0204206082586142E8 ; 9.836064158853678E8 ; 2.4123827298519035E10 ; 0.0
129 ; 7645866.212817905 ; 2.0205540500718364E8 ; 9.91257691650339E8 ; 2.43258693593449E10 ; 0.0
130 ; 7634871.4022708405 ; 2.020687165073308E8 ; 9.989035578631569E8 ; 2.452792476435208E10 ; 0.0
131 ; 7626242.089940044 ; 2.0208199505630562E8 ; 1.0065384292654277E9 ; 2.4729993480859413E10 ; 0.0
132 ; 7619849.222013229 ; 2.0209524038526866E8 ; 1.0141646713553678E9 ; 2.4932075475915718E10 ; 0.0
133 ; 7610377.330031274 ; 2.0210845222652224E8 ; 1.021784520577381E9 ; 2.5134170716300987E10 ; 0.0
134 ; 7598134.449475444 ; 2.021216303134954E8 ; 1.0293948979074123E9 ; 2.5336279168527508E10 ; 0.0
135 ; 7592518.6116017075 ; 2.0213477438072956E8 ; 1.0369930323568877E9 ; 2.5538400798841003E10 ; 0.0
136 ; 7581641.639088753 ; 2.0214788416386542E8 ; 1.0445855509684894E9 ; 2.5740535573221733E10 ; 0.0
137 ; 7574862.254704963 ; 2.0216095939963043E8 ; 1.0521671926075782E9 ; 2.5942683457385597E10 ; 0.0
138 ; 7565224.16898623 ; 2.0217399982582712E8 ; 1.0597420548622831E9 ; 2.614484441678523E10 ; 0.0
139 ; 7556182.211747079 ; 2.0218700518132222E8 ; 1.0673072790312693E9 ; 2.6347018416611057E10 ; 0.0
140 ; 7547033.076270255 ; 2.0219997520603645E8 ; 1.0748634612430165E9 ; 2.654920542179238E10 ; 0.0
141 ; 7539054.9645235315 ; 2.02212909640935E8 ; 1.0824104943192868E9 ; 2.6751405396998417E10 ; 0.0
142 ; 7527949.302633782 ; 2.022258082280185E8 ; 1.0899495492838104E9 ; 2.695361830663935E10 ; 0.0
143 ; 7519361.418666896 ; 2.022386707103149E8 ; 1.0974774985864441E9 ; 2.715584411486737E10 ; 0.0
144 ; 7510738.196396614 ; 2.0225149683187154E8 ; 1.104996860005111E9 ; 2.7358082785577686E10 ; 0.0
145 ; 7501916.6026163045 ; 2.0226428633774808E8 ; 1.1125075982015076E9 ; 2.7560334282409557E10 ; 0.0
146 ; 7496432.1594097 ; 2.022770389740097E8 ; 1.1200095148041239E9 ; 2.7762598568747307E10 ; 0.0
147 ; 7490653.511609574 ; 2.0228975448772088E8 ; 1.1275059469635336E9 ; 2.7964875607721317E10 ; 0.0
148 ; 7483668.911690645 ; 2.023024326269397E8 ; 1.1349966004751432E9 ; 2.8167165362209038E10 ; 0.0
149 ; 7476077.791038651 ; 2.0231507314071253E8 ; 1.142480269386834E9 ; 2.8369467794835976E10 ; 0.0
150 ; 7468613.633560984 ; 2.023276757790689E8 ; 1.1499563471778727E9 ; 2.857178286797669E10 ; 0.0
151 ; 7461535.346798566 ; 2.0234024029301718E8 ; 1.1574249608114336E9 ; 2.8774110543755756E10 ; 0.0
152 ; 7457021.270977378 ; 2.0235276643454036E8 ; 1.1648864961582322E9 ; 2.8976450784048775E10 ; 0.0
153 ; 7448730.982971052 ; 2.0236525395659217E8 ; 1.1723435174292097E9 ; 2.9178803550483315E10 ; 0.0
154 ; 7438757.906853496 ; 2.0237770261309364E8 ; 1.1797922484121807E9 ; 2.9381168804439907E10 ; 0.0
155 ; 7432928.593017885 ; 2.0239011215893E8 ; 1.187231006319034E9 ; 2.9583546507053E10 ; 0.0
156 ; 7427487.632559693 ; 2.0240248234994766E8 ; 1.194663934912052E9 ; 2.9785936619211933E10 ; 0.0
157 ; 7419870.715288855 ; 2.0241481294295177E8 ; 1.2020914225446117E9 ; 2.9988339101561882E10 ; 0.0
158 ; 7413376.121740882 ; 2.0242710369570383E8 ; 1.2095112932599006E9 ; 3.0190753914504833E10 ; 0.0
159 ; 7404056.430069147 ; 2.0243935436691973E8 ; 1.2169246693816414E9 ; 3.039318101820054E10 ; 0.0
160 ; 7399648.895577704 ; 2.024515647162678E8 ; 1.2243287258117106E9 ; 3.059562037256746E10 ; 0.0
161 ; 7392047.409307832 ; 2.0246373450436735E8 ; 1.2317283747072883E9 ; 3.0798071937283726E10 ; 0.0
162 ; 7383506.482870586 ; 2.0247586349278733E8 ; 1.239120422116596E9 ; 3.1000535671788094E10 ; 0.0
163 ; 7377952.570546913 ; 2.024879514440451E8 ; 1.2465039285994666E9 ; 3.120301153528088E10 ; 0.0
164 ; 7372058.354049376 ; 2.0249999812160555E8 ; 1.2538818811700134E9 ; 3.1405499486724926E10 ; 0.0
165 ; 7360474.847716294 ; 2.0251200328988037E8 ; 1.2612539395240629E9 ; 3.160799948484653E10 ; 0.0
166 ; 7355845.55183126 ; 2.0252396671422744E8 ; 1.2686144143717792E9 ; 3.181051148813641E10 ; 0.0
167 ; 7348254.898386702 ; 2.0253588816095042E8 ; 1.2759702599236104E9 ; 3.2013035454850636E10 ; 0.0
168 ; 7336526.104771603 ; 2.0254776739729857E8 ; 1.2833185148219972E9 ; 3.2215571343011585E10 ; 0.0
169 ; 7331880.687174257 ; 2.0255960419146672E8 ; 1.2906550409267688E9 ; 3.2418119110408882E10 ; 0.0
170 ; 7325518.429306116 ; 2.0257139831259516E8 ; 1.297986921613943E9 ; 3.262067871460035E10 ; 0.0
171 ; 7317461.179325952 ; 2.025831495307701E8 ; 1.3053124400432491E9 ; 3.2823250112912945E10 ; 0.0
172 ; 7310710.355861284 ; 2.025948576170238E8 ; 1.3126299012225752E9 ; 3.3025833262443714E10 ; 0.0
173 ; 7303641.772400983 ; 2.0260652234333527E8 ; 1.3199406115784364E9 ; 3.3228428120060738E10 ; 0.0
174 ; 7298675.619961772 ; 2.0261814348263067E8 ; 1.3272442533508375E9 ; 3.343103464240407E10 ; 0.0
175 ; 7292994.352714371 ; 2.0262972080878416E8 ; 1.3345429289707992E9 ; 3.3633652785886703E10 ; 0.0
176 ; 7292334.24487449 ; 2.0264125409661862E8 ; 1.3418359233235135E9 ; 3.3836282506695488E10 ; 0.0
177 ; 7283322.637334697 ; 2.026527431219068E8 ; 1.349128257568388E9 ; 3.4038923760792107E10 ; 0.0
178 ; 7281714.1254560165 ; 2.0266418766137204E8 ; 1.3564115802057226E9 ; 3.4241576503914013E10 ; 0.0
179 ; 7275117.187275321 ; 2.0267558749268967E8 ; 1.3636932943311787E9 ; 3.4444240691575386E10 ; 0.0
180 ; 7268987.290700591 ; 2.026869423944881E8 ; 1.370968411518454E9 ; 3.464691627906808E10 ; 0.0
181 ; 7265897.4626506455 ; 2.026982521463502E8 ; 1.3782373988091547E9 ; 3.484960322146256E10 ; 0.0
182 ; 7261639.3888377445 ; 2.0270951652881458E8 ; 1.3855032962718053E9 ; 3.505230147360891E10 ; 0.0
183 ; 7257240.073631095 ; 2.027207353233772E8 ; 1.392764935660643E9 ; 3.5255010990137726E10 ; 0.0
184 ; 7252386.790782161 ; 2.027319083124928E8 ; 1.4000221757342741E9 ; 3.5457731725461105E10 ; 0.0
185 ; 7247422.37303214 ; 2.027430352795765E8 ; 1.4072745625250564E9 ; 3.56604636337736E10 ; 0.0
186 ; 7242856.135308976 ; 2.0275411600900573E8 ; 1.4145219848980885E9 ; 3.586320666905318E10 ; 0.0
187 ; 7240256.5926318625 ; 2.027651502861215E8 ; 1.4217648410333974E9 ; 3.606596078506218E10 ; 0.0
188 ; 7233944.301123728 ; 2.0277613789723068E8 ; 1.4290050976260293E9 ; 3.6268725935348305E10 ; 0.0
189 ; 7225715.934588998 ; 2.0278707862960765E8 ; 1.4362390419271529E9 ; 3.647150207324554E10 ; 0.0
190 ; 7225766.481617735 ; 2.027979722714961E8 ; 1.4434647578617418E9 ; 3.6674289151875145E10 ; 0.0
191 ; 7220171.180701762 ; 2.028088186121112E8 ; 1.4506905243433595E9 ; 3.6877087124146645E10 ; 0.0
192 ; 7216235.998482658 ; 2.028196174416416E8 ; 1.4579106955240612E9 ; 3.707989594275876E10 ; 0.0
193 ; 7210410.257684982 ; 2.0283036855125132E8 ; 1.465126931522544E9 ; 3.72827155602004E10 ; 0.0
194 ; 7205007.175665902 ; 2.0284107173308203E8 ; 1.4723373417802289E9 ; 3.7485545928751656E10 ; 0.0
195 ; 7200305.759139701 ; 2.028517267802551E8 ; 1.4795423489558947E9 ; 3.768838700048474E10 ; 0.0
196 ; 7198564.533566884 ; 2.0286233348687387E8 ; 1.4867426547150345E9 ; 3.7891238727265E10 ; 0.0
197 ; 7193962.031399832 ; 2.0287289164802572E8 ; 1.4939412192486014E9 ; 3.809410106075188E10 ; 0.0
198 ; 7188123.530291743 ; 2.0288340105978453E8 ; 1.5011351812800012E9 ; 3.82969739523999E10 ; 0.0
199 ; 7181026.316309958 ; 2.0289386151921287E8 ; 1.508323304810293E9 ; 3.849985735345969E10 ; 0.0
200 ; 7178011.574151738 ; 2.0290427282436422E8 ; 1.515504331126603E9 ; 3.87027512149789E10 ; 0.0
201 ; 7175502.4862134345 ; 1.8478732858978224E8 ; 1.5226823427007546E9 ; 3.890565548780326E10 ; 0.0
