CSV File for the City 1 on Day 355
1 - Minute m 
2 - Power Consumed at minute m 
3 - Power Produced at minute m 
4 - Energy Consumed since the beginning of the day 
5 - Energy Produced since the beginning of the day 
6 - Energy Lost since the beginning of the day on lines starting from the city
 
0 ; 1.6038879874787983E7 ; 1.0550336631804958E8 ; 0.0 ; 0.0 ; 0.0
1 ; 1.6054126861567512E7 ; 1.0565629347340667E8 ; 1.6038879874787983E7 ; 1.0550336631804958E8 ; 0.0
2 ; 1.607585549007908E7 ; 1.0611800418425575E8 ; 3.2093006736355495E7 ; 2.1115965979145625E8 ; 0.0
3 ; 1.6090947380632695E7 ; 1.0688850011881667E8 ; 4.816886222643457E7 ; 3.17277663975712E8 ; 0.0
4 ; 1.6119055039385717E7 ; 1.0796778277485937E8 ; 6.425980960706727E7 ; 4.241661640945287E8 ; 0.0
5 ; 1.6143152008573875E7 ; 1.0935585347048247E8 ; 8.0378864646453E7 ; 5.3213394686938804E8 ; 0.0
6 ; 1.618390249437407E7 ; 1.1105271333582452E8 ; 9.652201665502687E7 ; 6.414898003398705E8 ; 0.0
7 ; 1.6240586746054744E7 ; 1.1305836330582678E8 ; 1.1270591914940093E8 ; 7.52542513675695E8 ; 0.0
8 ; 1.6312058632763129E7 ; 1.1537280411415458E8 ; 1.2894650589545567E8 ; 8.656008769815217E8 ; 0.0
9 ; 1.6431460926995786E7 ; 1.1799603628836924E8 ; 1.452585645282188E8 ; 9.809736810956763E8 ; 0.0
10 ; 1.6609345281275058E7 ; 1.2092806014642447E8 ; 1.616900254552146E8 ; 1.0989697173840456E9 ; 0.0
11 ; 1.689816896061094E7 ; 1.241688757945421E8 ; 1.7829937073648965E8 ; 1.2198977775304701E9 ; 0.0
12 ; 1.736396306328086E7 ; 1.2771848312650028E8 ; 1.9519753969710058E8 ; 1.3440666533250122E9 ; 0.0
13 ; 1.7809797757359687E7 ; 1.3157688182434529E8 ; 2.1256150276038143E8 ; 1.4717851364515126E9 ; 0.0
14 ; 1.7862968277665492E7 ; 1.357440713605159E8 ; 2.303713005177411E8 ; 1.603362018275858E9 ; 0.0
15 ; 1.7884200759266365E7 ; 1.4022005100134665E8 ; 2.482342687954066E8 ; 1.7391060896363738E9 ; 0.0
16 ; 1.790363785924072E7 ; 1.450048198118964E8 ; 2.66118469554673E8 ; 1.8793261406377203E9 ; 0.0
17 ; 1.7926120659450676E7 ; 1.5009837666202655E8 ; 2.840221074139137E8 ; 2.0243309604496167E9 ; 0.0
18 ; 1.7945458692192998E7 ; 1.5550072023363847E8 ; 3.019482280733644E8 ; 2.1744293371116433E9 ; 0.0
19 ; 1.7966542085987255E7 ; 1.6121184902896222E8 ; 3.1989368676555735E8 ; 2.3299300573452816E9 ; 0.0
20 ; 1.7988981787171733E7 ; 1.6723176137977794E8 ; 3.378602288515446E8 ; 2.4911419063742437E9 ; 0.0
21 ; 1.8009704655195076E7 ; 1.7356045545744023E8 ; 3.5584921063871634E8 ; 2.6583736677540216E9 ; 0.0
22 ; 1.803164303824688E7 ; 1.801979292835716E8 ; 3.738589152939114E8 ; 2.831934123211462E9 ; 0.0
23 ; 1.8052430366174378E7 ; 1.8714418074128574E8 ; 3.9189055833215827E8 ; 3.0121320524950337E9 ; 0.0
24 ; 1.807384033499861E7 ; 1.9439920758680284E8 ; 4.0994298869833267E8 ; 3.1992762332363195E9 ; 0.0
25 ; 1.8098678257490266E7 ; 2.0065104835950428E8 ; 4.280168290333313E8 ; 3.3936754408231225E9 ; 0.0
26 ; 1.811779427169665E7 ; 2.0065324843082452E8 ; 4.4611550729082155E8 ; 3.5943264891826267E9 ; 0.0
27 ; 1.8137003362365272E7 ; 2.006555745411519E8 ; 4.642333015625182E8 ; 3.794979737613451E9 ; 0.0
28 ; 1.8159337978494603E7 ; 2.0065802405848542E8 ; 4.823703049248834E8 ; 3.995635312154603E9 ; 0.0
29 ; 1.8177660473760154E7 ; 2.006605942833463E8 ; 5.00529642903378E8 ; 4.1962933362130885E9 ; 0.0
30 ; 1.8193235450027097E7 ; 2.006632824601345E8 ; 5.1870730337713814E8 ; 4.396953930496435E9 ; 0.0
31 ; 1.8217195344357632E7 ; 2.0066608578809333E8 ; 5.369005388271652E8 ; 4.59761721295657E9 ; 0.0
32 ; 1.8231285859470177E7 ; 2.006690014318143E8 ; 5.551177341715229E8 ; 4.798283298744663E9 ; 0.0
33 ; 1.824802882217685E7 ; 2.006720265312255E8 ; 5.73349020030993E8 ; 4.998952300176477E9 ; 0.0
34 ; 1.8272429246463507E7 ; 2.0067515821101913E8 ; 5.915970488531698E8 ; 5.199624326707703E9 ; 0.0
35 ; 1.8284974672641948E7 ; 2.006783935894851E8 ; 6.098694780996333E8 ; 5.400299484918722E9 ; 0.0
36 ; 1.8304458660612267E7 ; 2.0068172978672838E8 ; 6.281544527722753E8 ; 5.600977878508207E9 ; 0.0
37 ; 1.832255866590225E7 ; 2.0068516393225697E8 ; 6.464589114328876E8 ; 5.801659608294935E9 ; 0.0
38 ; 1.8338419031306595E7 ; 2.006886931719371E8 ; 6.647814700987898E8 ; 6.002344772227192E9 ; 0.0
39 ; 1.8349883916532807E7 ; 2.0069231467431957E8 ; 6.831198891300964E8 ; 6.203033465399129E9 ; 0.0
40 ; 1.8369026367223073E7 ; 2.0069602563634717E8 ; 7.014697730466292E8 ; 6.403725780073448E9 ; 0.0
41 ; 1.8382101568274423E7 ; 2.006998232884606E8 ; 7.198387994138522E8 ; 6.604421805709795E9 ; 0.0
42 ; 1.8392292220195603E7 ; 2.007037048991232E8 ; 7.382209009821266E8 ; 6.805121628998256E9 ; 0.0
43 ; 1.8401417133324385E7 ; 2.007076677787897E8 ; 7.566131932023222E8 ; 7.005825333897379E9 ; 0.0
44 ; 1.841705799830165E7 ; 2.0071170928334713E8 ; 7.750146103356466E8 ; 7.206533001676168E9 ; 0.0
45 ; 1.842309913561797E7 ; 2.007158268170572E8 ; 7.934316683339483E8 ; 7.407244710959516E9 ; 0.0
46 ; 1.843543067993902E7 ; 2.0072001783503225E8 ; 8.118547674695662E8 ; 7.607960537776573E9 ; 0.0
47 ; 1.8445503996735953E7 ; 2.007242798452766E8 ; 8.302901981495053E8 ; 7.808680555611606E9 ; 0.0
48 ; 1.845420274174244E7 ; 2.0072861041032583E8 ; 8.487357021462412E8 ; 8.009404835456882E9 ; 0.0
49 ; 1.8458865262634706E7 ; 2.0073300714851642E8 ; 8.671899048879837E8 ; 8.2101334458672085E9 ; 0.0
50 ; 1.8466290830230556E7 ; 2.0073746773491728E8 ; 8.856487701506184E8 ; 8.410866453015725E9 ; 0.0
51 ; 1.8467488726220325E7 ; 2.0074198990195394E8 ; 9.04115060980849E8 ; 8.611603920750643E9 ; 0.0
52 ; 1.847426596899398E7 ; 2.007465714397552E8 ; 9.225825497070694E8 ; 8.812345910652597E9 ; 0.0
53 ; 1.848118237713824E7 ; 2.0075121019625035E8 ; 9.410568156760634E8 ; 9.013092482092352E9 ; 0.0
54 ; 1.8491305136085007E7 ; 2.00755904077044E8 ; 9.595379980532017E8 ; 9.213843692288603E9 ; 0.0
55 ; 1.8492172550272975E7 ; 2.0076065104509345E8 ; 9.780293031892867E8 ; 9.414599596365646E9 ; 0.0
56 ; 1.8494584206123598E7 ; 2.0076544912021255E8 ; 9.965214757395597E8 ; 9.61536024741074E9 ; 0.0
57 ; 1.8501944900668427E7 ; 2.007702963784239E8 ; 1.0150160599456832E9 ; 9.816125696530952E9 ; 0.0
58 ; 1.850503529841821E7 ; 2.007751909511795E8 ; 1.0335180048463516E9 ; 1.0016895992909376E10 ; 0.0
59 ; 1.851124297963992E7 ; 2.0078013102446923E8 ; 1.0520230401447698E9 ; 1.0217671183860556E10 ; 0.0
60 ; 1.851443244112229E7 ; 2.0078511483783323E8 ; 1.0705342831244097E9 ; 1.0418451314885025E10 ; 0.0
61 ; 1.851646182979929E7 ; 2.007901406832951E8 ; 1.089048715565532E9 ; 1.0619236429722858E10 ; 0.0
62 ; 1.85258335065496E7 ; 2.007952069042289E8 ; 1.1075651773953311E9 ; 1.0820026570406153E10 ; 0.0
63 ; 1.852356758879625E7 ; 2.0080031189417368E8 ; 1.1260910109018807E9 ; 1.102082177731038E10 ; 0.0
64 ; 1.8531908109429237E7 ; 2.0080545409560657E8 ; 1.1446145784906769E9 ; 1.1221622089204556E10 ; 0.0
65 ; 1.8533558625598174E7 ; 2.008106319986848E8 ; 1.163146486600106E9 ; 1.1422427543300161E10 ; 0.0
66 ; 1.853487049346528E7 ; 2.0081584413996616E8 ; 1.1816800452257042E9 ; 1.1623238175298845E10 ; 0.0
67 ; 1.853811629074871E7 ; 2.0082108910111558E8 ; 1.2002149157191694E9 ; 1.1824054019438812E10 ; 0.0
68 ; 1.8539969128716614E7 ; 2.0082636550760546E8 ; 1.218753032009918E9 ; 1.2024875108539928E10 ; 0.0
69 ; 1.8542255200000837E7 ; 2.008316720274158E8 ; 1.2372930011386347E9 ; 1.2225701474047533E10 ; 0.0
70 ; 1.854656175743636E7 ; 2.0083700736973974E8 ; 1.2558352563386354E9 ; 1.242653314607495E10 ; 0.0
71 ; 1.854938834074219E7 ; 2.0084237028369918E8 ; 1.2743818180960717E9 ; 1.2627370153444689E10 ; 0.0
72 ; 1.855171786649125E7 ; 2.0084775955707484E8 ; 1.2929312064368138E9 ; 1.2828212523728388E10 ; 0.0
73 ; 1.8554169562368844E7 ; 2.0085317401505396E8 ; 1.3114829243033051E9 ; 1.3029060283285463E10 ; 0.0
74 ; 1.8554649130219616E7 ; 2.008586125189987E8 ; 1.330037093865674E9 ; 1.3229913457300518E10 ; 0.0
75 ; 1.85569228405135E7 ; 2.0086407396523803E8 ; 1.3485917429958937E9 ; 1.3430772069819517E10 ; 0.0
76 ; 1.8559089828404214E7 ; 2.0086955728388453E8 ; 1.3671486658364072E9 ; 1.3631636143784756E10 ; 0.0
77 ; 1.8563140365133308E7 ; 2.0087506143767825E8 ; 1.3857077556648114E9 ; 1.383250570106864E10 ; 0.0
78 ; 1.8556411418518122E7 ; 2.0088058542085895E8 ; 1.4042708960299447E9 ; 1.4033380762506317E10 ; 0.0
79 ; 1.85498622068721E7 ; 2.008861282580673E8 ; 1.4228273074484627E9 ; 1.4234261347927176E10 ; 0.0
80 ; 1.8544817562145658E7 ; 2.0089168900327614E8 ; 1.4413771696553347E9 ; 1.4435147476185244E10 ; 0.0
81 ; 1.8542306085010327E7 ; 2.0089726673875225E8 ; 1.4599219872174804E9 ; 1.463603916518852E10 ; 0.0
82 ; 1.8536192807461616E7 ; 2.009028605740487E8 ; 1.4784642933024907E9 ; 1.4836936431927273E10 ; 0.0
83 ; 1.8532978092382755E7 ; 2.0090846964502823E8 ; 1.4970004861099522E9 ; 1.5037839292501322E10 ; 0.0
84 ; 1.852730069083245E7 ; 2.0091409311291724E8 ; 1.515533464202335E9 ; 1.523874776214635E10 ; 0.0
85 ; 1.8522393179738265E7 ; 2.0091973016339055E8 ; 1.5340607648931673E9 ; 1.5439661855259268E10 ; 0.0
86 ; 1.8515453818799447E7 ; 2.009253800056863E8 ; 1.5525831580729055E9 ; 1.5640581585422659E10 ; 0.0
87 ; 1.851283467417126E7 ; 2.0093104187175098E8 ; 1.571098611891705E9 ; 1.5841506965428345E10 ; 0.0
88 ; 1.850880904237848E7 ; 2.0093671501541358E8 ; 1.5896114465658762E9 ; 1.6042438007300097E10 ; 0.0
89 ; 1.8500497067864083E7 ; 2.009423987115891E8 ; 1.6081202556082547E9 ; 1.624337472231551E10 ; 0.0
90 ; 1.849412588946769E7 ; 2.0094809225550982E8 ; 1.6266207526761189E9 ; 1.64443171210271E10 ; 0.0
91 ; 1.8489149068897802E7 ; 2.0095379496198463E8 ; 1.6451148785655866E9 ; 1.664526521328261E10 ; 0.0
92 ; 1.848005157431865E7 ; 2.0095950616468507E8 ; 1.6636040276344843E9 ; 1.6846219008244595E10 ; 0.0
93 ; 1.8469731196969066E7 ; 2.0096522521545783E8 ; 1.682084079208803E9 ; 1.7047178514409279E10 ; 0.0
94 ; 1.8468134054299213E7 ; 2.0097095148366255E8 ; 1.700553810405772E9 ; 1.7248143739624737E10 ; 0.0
95 ; 1.8459001871809367E7 ; 2.0097668435553452E8 ; 1.719021944460071E9 ; 1.74491146911084E10 ; 0.0
96 ; 1.8454176155975055E7 ; 2.0098242323357147E8 ; 1.7374809463318806E9 ; 1.7650091375463932E10 ; 0.0
97 ; 1.8442288785939842E7 ; 2.0098816753594348E8 ; 1.7559351224878557E9 ; 1.7851073798697502E10 ; 0.0
98 ; 1.8437906801331993E7 ; 2.0099391669592553E8 ; 1.7743774112737956E9 ; 1.8052061966233444E10 ; 0.0
99 ; 1.8428712470075097E7 ; 2.0099967016135174E8 ; 1.7928153180751276E9 ; 1.825305588292937E10 ; 0.0
100 ; 1.8419656316206306E7 ; 2.010054273940907E8 ; 1.8112440305452027E9 ; 1.845405555309072E10 ; 0.0
101 ; 1.8413865056266002E7 ; 2.0101118786954105E8 ; 1.829663686861409E9 ; 1.8655060980484814E10 ; 0.0
102 ; 1.840001790033082E7 ; 2.0101695107614666E8 ; 1.848077551917675E9 ; 1.8856072168354355E10 ; 0.0
103 ; 1.83972488367769E7 ; 2.0102271651493067E8 ; 1.8664775698180058E9 ; 1.90570891194305E10 ; 0.0
104 ; 1.8389174743955355E7 ; 2.010284836990477E8 ; 1.8848748186547828E9 ; 1.925811183594543E10 ; 0.0
105 ; 1.8380323899473675E7 ; 2.010342521533536E8 ; 1.9032639933987381E9 ; 1.9459140319644478E10 ; 0.0
106 ; 1.8373683326995164E7 ; 2.0104002141399193E8 ; 1.9216443172982118E9 ; 1.9660174571797832E10 ; 0.0
107 ; 1.8358026828087527E7 ; 2.010457910279968E8 ; 1.940018000625207E9 ; 1.9861214593211823E10 ; 0.0
108 ; 1.8350677965389106E7 ; 2.010515605529112E8 ; 1.9583760274532945E9 ; 2.006226038423982E10 ; 0.0
109 ; 1.8342437686434463E7 ; 2.0105732955642024E8 ; 1.9767267054186835E9 ; 2.026331194479273E10 ; 0.0
110 ; 1.8333142169944294E7 ; 2.0106309761599904E8 ; 1.995069143105118E9 ; 2.0464369274349148E10 ; 0.0
111 ; 1.8321232596387476E7 ; 2.0106886431857413E8 ; 2.0134022852750623E9 ; 2.0665432371965145E10 ; 0.0
112 ; 1.831267233395908E7 ; 2.0107462926019835E8 ; 2.0317235178714497E9 ; 2.086650123628372E10 ; 0.0
113 ; 1.8303235581291966E7 ; 2.0108039204573837E8 ; 2.0500361902054088E9 ; 2.1067575865543915E10 ; 0.0
114 ; 1.8291170322813366E7 ; 2.010861522885746E8 ; 2.0683394257867007E9 ; 2.1268656257589653E10 ; 0.0
115 ; 1.827708971221655E7 ; 2.0109190961031276E8 ; 2.086630596109514E9 ; 2.1469742409878227E10 ; 0.0
116 ; 1.8271480845957637E7 ; 2.0109766364050668E8 ; 2.1049076858217306E9 ; 2.167083431948854E10 ; 0.0
117 ; 1.8258427293532297E7 ; 2.011034140163922E8 ; 2.1231791666676884E9 ; 2.1871931983129047E10 ; 0.0
118 ; 1.8249457842091568E7 ; 2.0110916038263094E8 ; 2.1414375939612207E9 ; 2.207303539714544E10 ; 0.0
119 ; 1.823410499156736E7 ; 2.0111490239106467E8 ; 2.1596870518033123E9 ; 2.227414455752807E10 ; 0.0
120 ; 1.822370431631218E7 ; 2.0112063970047882E8 ; 2.1779211567948794E9 ; 2.2475259459919132E10 ; 0.0
121 ; 1.8215568671558216E7 ; 2.0112637197637516E8 ; 2.1961448611111917E9 ; 2.267638009961961E10 ; 0.0
122 ; 1.820321908173017E7 ; 2.0113209889075357E8 ; 2.21436042978275E9 ; 2.2877506471595985E10 ; 0.0
123 ; 1.818819982165379E7 ; 2.011378201219021E8 ; 2.2325636488644805E9 ; 2.307863857048674E10 ; 0.0
124 ; 1.8177613140455626E7 ; 2.011435353541949E8 ; 2.2507518486861343E9 ; 2.3279776390608643E10 ; 0.0
125 ; 1.817061892736182E7 ; 2.011492442778984E8 ; 2.26892946182659E9 ; 2.3480919925962837E10 ; 0.0
126 ; 1.8155204102995522E7 ; 2.0115494658898452E8 ; 2.287100080753952E9 ; 2.3682069170240734E10 ; 0.0
127 ; 1.814236598839054E7 ; 2.0116064198895112E8 ; 2.3052552848569474E9 ; 2.388322411682972E10 ; 0.0
128 ; 1.812715420417769E7 ; 2.0116633018464965E8 ; 2.323397650845338E9 ; 2.4084384758818672E10 ; 0.0
129 ; 1.8114847558480605E7 ; 2.0117201088811874E8 ; 2.3415248050495157E9 ; 2.4285551089003323E10 ; 0.0
130 ; 1.810459040166425E7 ; 2.0117768381642473E8 ; 2.3596396526079965E9 ; 2.448672309989144E10 ; 0.0
131 ; 1.8087092623178054E7 ; 2.011833486915079E8 ; 2.3777442430096607E9 ; 2.4687900783707867E10 ; 0.0
132 ; 1.806721450260311E7 ; 2.0118900524003458E8 ; 2.3958313356328387E9 ; 2.4889084132399376E10 ; 0.0
133 ; 1.8048204237594273E7 ; 2.011946531932548E8 ; 2.413898550135442E9 ; 2.5090273137639412E10 ; 0.0
134 ; 1.8028395696628362E7 ; 2.0120029228686538E8 ; 2.431946754373036E9 ; 2.529146779083267E10 ; 0.0
135 ; 1.800280090482997E7 ; 2.012059222608782E8 ; 2.4499751500696645E9 ; 2.5492668083119534E10 ; 0.0
136 ; 1.79856116827245E7 ; 2.0121154285949308E8 ; 2.4679779509744945E9 ; 2.5693874005380413E10 ; 0.0
137 ; 1.7967032025928803E7 ; 2.0121715383097577E8 ; 2.485963562657219E9 ; 2.5895085548239906E10 ; 0.0
138 ; 1.7948698377934396E7 ; 2.0122275492754024E8 ; 2.503930594683148E9 ; 2.609630270207088E10 ; 0.0
139 ; 1.792527658453761E7 ; 2.0122834590523547E8 ; 2.5218792930610824E9 ; 2.629752545699842E10 ; 0.0
140 ; 1.7902311032344673E7 ; 2.0123392652383623E8 ; 2.53980456964562E9 ; 2.6498753802903656E10 ; 0.0
141 ; 1.7884537284457497E7 ; 2.0123949654673797E8 ; 2.5577068806779647E9 ; 2.6699987729427494E10 ; 0.0
142 ; 1.786744122743862E7 ; 2.0124505574085578E8 ; 2.5755914179624224E9 ; 2.690122722597423E10 ; 0.0
143 ; 1.7844483226661567E7 ; 2.0125060387652662E8 ; 2.593458859189861E9 ; 2.7102472281715088E10 ; 0.0
144 ; 1.782575240562515E7 ; 2.0125614072741544E8 ; 2.6113033424165225E9 ; 2.7303722885591614E10 ; 0.0
145 ; 1.781295662519216E7 ; 2.0126166607042456E8 ; 2.629129094822148E9 ; 2.750497902631903E10 ; 0.0
146 ; 1.7796170468910955E7 ; 2.0126717968560645E8 ; 2.64694205144734E9 ; 2.7706240692389454E10 ; 0.0
147 ; 1.778295793089562E7 ; 2.0127268135607946E8 ; 2.664738221916251E9 ; 2.790750787207506E10 ; 0.0
148 ; 1.776852230663831E7 ; 2.012781708679468E8 ; 2.682521179847147E9 ; 2.810878055343114E10 ; 0.0
149 ; 1.775309325308737E7 ; 2.012836480102183E8 ; 2.700289702153785E9 ; 2.8310058724299088E10 ; 0.0
150 ; 1.774104981176356E7 ; 2.0128911257473496E8 ; 2.7180427954068727E9 ; 2.8511342372309307E10 ; 0.0
151 ; 1.7723992343314774E7 ; 2.0129456435609624E8 ; 2.7357838452186365E9 ; 2.871263148488404E10 ; 0.0
152 ; 1.7714112189617127E7 ; 2.013000031515899E8 ; 2.753507837561951E9 ; 2.8913926049240135E10 ; 0.0
153 ; 1.7697284446916763E7 ; 2.0130542876112434E8 ; 2.7712219497515683E9 ; 2.9115226052391724E10 ; 0.0
154 ; 1.7684036351341505E7 ; 2.013108409871633E8 ; 2.788919234198485E9 ; 2.9316531481152847E10 ; 0.0
155 ; 1.7667155499759566E7 ; 2.0131623963466296E8 ; 2.8066032705498266E9 ; 2.951784232214001E10 ; 0.0
156 ; 1.765291451925766E7 ; 2.0132162451101094E8 ; 2.8242704260495863E9 ; 2.9719158561774673E10 ; 0.0
157 ; 1.7642837017268136E7 ; 2.013269954259679E8 ; 2.841923340568844E9 ; 2.9920480186285683E10 ; 0.0
158 ; 1.7623631330685124E7 ; 2.0133235219161075E8 ; 2.859566177586112E9 ; 3.012180718171165E10 ; 0.0
159 ; 1.7609394182118952E7 ; 2.0133769462227815E8 ; 2.877189808916797E9 ; 3.0323139533903263E10 ; 0.0
160 ; 1.7591148731704682E7 ; 2.0134302253451756E8 ; 2.894799203098916E9 ; 3.052447722852554E10 ; 0.0
161 ; 1.7580929436479177E7 ; 2.013483357470345E8 ; 2.912390351830621E9 ; 3.072582025106006E10 ; 0.0
162 ; 1.756533705934332E7 ; 2.0135363408064315E8 ; 2.9299712812671E9 ; 3.0927168586807095E10 ; 0.0
163 ; 1.75462848735342E7 ; 2.0135891735821906E8 ; 2.947536618326443E9 ; 3.1128522220887737E10 ; 0.0
164 ; 1.7534670923238397E7 ; 2.0136418540465322E8 ; 2.9650829031999774E9 ; 3.1329881138245956E10 ; 0.0
165 ; 1.7520815097305745E7 ; 2.013694380468076E8 ; 2.9826175741232157E9 ; 3.1531245323650608E10 ; 0.0
166 ; 1.7503717515053853E7 ; 2.013746751134725E8 ; 3.0001383892205215E9 ; 3.1732614761697414E10 ; 0.0
167 ; 1.7488572989840213E7 ; 2.0137989643532512E8 ; 3.017642106735575E9 ; 3.1933989436810886E10 ; 0.0
168 ; 1.7472325443575013E7 ; 2.0138510184488964E8 ; 3.035130679725415E9 ; 3.2135369333246212E10 ; 0.0
169 ; 1.7461439099158157E7 ; 2.0139029117649862E8 ; 3.05260300516899E9 ; 3.2336754435091103E10 ; 0.0
170 ; 1.7437252981613137E7 ; 2.013954642662555E8 ; 3.0700644442681484E9 ; 3.25381447262676E10 ; 0.0
171 ; 1.7426444560448788E7 ; 2.014006209519988E8 ; 3.0875016972497616E9 ; 3.2739540190533855E10 ; 0.0
172 ; 1.7411269019525036E7 ; 2.0140576107326707E8 ; 3.10492814181021E9 ; 3.2940940811485855E10 ; 0.0
173 ; 1.7399087981712382E7 ; 2.014108844712652E8 ; 3.1223394108297353E9 ; 3.3142346572559124E10 ; 0.0
174 ; 1.738600924690953E7 ; 2.014159909888319E8 ; 3.1397384988114476E9 ; 3.3343757457030388E10 ; 0.0
175 ; 1.7376962998485312E7 ; 2.014210804704081E8 ; 3.1571245080583572E9 ; 3.354517344801922E10 ; 0.0
176 ; 1.736777043994789E7 ; 2.014261527620066E8 ; 3.1745014710568423E9 ; 3.3746594528489628E10 ; 0.0
177 ; 1.735800629891427E7 ; 2.0143120771118248E8 ; 3.1918692414967904E9 ; 3.3948020681251633E10 ; 0.0
178 ; 1.7346137883380413E7 ; 2.0143624516700464E8 ; 3.209227247795705E9 ; 3.4149451888962814E10 ; 0.0
179 ; 1.7337878658258E7 ; 2.014412649800283E8 ; 3.2265733856790853E9 ; 3.4350888134129818E10 ; 0.0
180 ; 1.7333828990750406E7 ; 2.014462670022682E8 ; 3.243911264337343E9 ; 3.455232939910985E10 ; 0.0
181 ; 1.7319232490243483E7 ; 2.0145125108717293E8 ; 3.2612450933280935E9 ; 3.4753775666112114E10 ; 0.0
182 ; 1.730449281378321E7 ; 2.014562170895999E8 ; 3.278564325818337E9 ; 3.495522691719929E10 ; 0.0
183 ; 1.73016323044201E7 ; 2.0146116486579123E8 ; 3.29586881863212E9 ; 3.515668313428889E10 ; 0.0
184 ; 1.7288743125747696E7 ; 2.0146609427335033E8 ; 3.31317045093654E9 ; 3.535814429915468E10 ; 0.0
185 ; 1.7280179781930808E7 ; 2.014710051712193E8 ; 3.330459194062288E9 ; 3.555961039342803E10 ; 0.0
186 ; 1.7271489387530256E7 ; 2.0147589741965708E8 ; 3.3477393738442187E9 ; 3.576108139859925E10 ; 0.0
187 ; 1.7258314848394E7 ; 2.0148077088021827E8 ; 3.365010863231749E9 ; 3.5962557296018906E10 ; 0.0
188 ; 1.7249876258815564E7 ; 2.0148562541573247E8 ; 3.382269178080143E9 ; 3.6164038066899124E10 ; 0.0
189 ; 1.724095976462022E7 ; 2.0149046089028466E8 ; 3.3995190543389587E9 ; 3.636552369231486E10 ; 0.0
190 ; 1.7233207785322454E7 ; 2.0149527716919586E8 ; 3.416760014103579E9 ; 3.656701415320514E10 ; 0.0
191 ; 1.7224939133316148E7 ; 2.015000741190045E8 ; 3.4339932218889017E9 ; 3.676850943037434E10 ; 0.0
192 ; 1.7213031487435378E7 ; 2.015048516074484E8 ; 3.4512181610222178E9 ; 3.697000950449334E10 ; 0.0
193 ; 1.7203736380402304E7 ; 2.0150960950344744E8 ; 3.468431192509653E9 ; 3.7171514356100784E10 ; 0.0
194 ; 1.719511911455692E7 ; 2.0151434767708656E8 ; 3.485634928890055E9 ; 3.737302396560423E10 ; 0.0
195 ; 1.7182145565570015E7 ; 2.0151906599959946E8 ; 3.502830048004612E9 ; 3.757453831328132E10 ; 0.0
