CSV File for the City 6 on Day 30
1 - Minute m 
2 - Power Consumed at minute m 
3 - Power Produced at minute m 
4 - Energy Consumed since the beginning of the day 
5 - Energy Produced since the beginning of the day 
6 - Energy Lost since the beginning of the day on lines starting from the city
 
0 ; 1.111048612393275E7 ; 1.0542376937200096E8 ; 0.0 ; 0.0 ; 0.0
1 ; 1.1123545525544882E7 ; 1.0557068952718806E8 ; 1.111048612393275E7 ; 1.0542376937200096E8 ; 0.0
2 ; 1.1136705432266787E7 ; 1.0602684214206442E8 ; 2.223403164947763E7 ; 2.1099445889918903E8 ; 0.0
3 ; 1.114868497109687E7 ; 1.067922776034835E8 ; 3.3370737081744418E7 ; 3.1702130104125345E8 ; 0.0
4 ; 1.1166564776721573E7 ; 1.0786704654350823E8 ; 4.451942205284129E7 ; 4.2381357864473695E8 ; 0.0
5 ; 1.118979202823105E7 ; 1.0925119841678506E8 ; 5.5685986829562865E7 ; 5.316806251882452E8 ; 0.0
6 ; 1.1214770383920137E7 ; 1.1094477980592605E8 ; 6.687577885779391E7 ; 6.409318236050303E8 ; 0.0
7 ; 1.1248904789417423E7 ; 1.1294783253788662E8 ; 7.809054924171405E7 ; 7.518766034109564E8 ; 0.0
8 ; 1.1302245183109095E7 ; 1.1526039174662036E8 ; 8.933945403113148E7 ; 8.64824435948843E8 ; 0.0
9 ; 1.138546486786392E7 ; 1.1788248406065899E8 ; 1.0064169921424057E8 ; 9.800848276954634E8 ; 0.0
10 ; 1.1510250632544978E7 ; 1.2081412611437297E8 ; 1.1202716408210449E8 ; 1.0979673117561224E9 ; 0.0
11 ; 1.1707911465561105E7 ; 1.2405532356683186E8 ; 1.2353741471464947E8 ; 1.2187814378704953E9 ; 0.0
12 ; 1.2023941853424137E7 ; 1.2760607075896606E8 ; 1.3524532618021056E8 ; 1.3428367614373271E9 ; 0.0
13 ; 1.23285164652201E7 ; 1.3146635105640513E8 ; 1.472692680336347E8 ; 1.470442832196293E9 ; 0.0
14 ; 1.2364941629170764E7 ; 1.3563613783061743E8 ; 1.595977844988548E8 ; 1.6019091832526982E9 ; 0.0
15 ; 1.2379425176522644E7 ; 1.4011539594764924E8 ; 1.7196272612802556E8 ; 1.7375453210833156E9 ; 0.0
16 ; 1.2395097335139927E7 ; 1.4490408358054528E8 ; 1.843421513045482E8 ; 1.8776607170309649E9 ; 0.0
17 ; 1.240525750712046E7 ; 1.5000215414669338E8 ; 1.9673724863968813E8 ; 2.02256480061151E9 ; 0.0
18 ; 1.2420818013981123E7 ; 1.5540955819144714E8 ; 2.091425061468086E8 ; 2.1725669547582035E9 ; 0.0
19 ; 1.243718422183809E7 ; 1.6112624508274361E8 ; 2.2156332416078973E8 ; 2.327976512949651E9 ; 0.0
20 ; 1.2452018369809994E7 ; 1.6715216443372932E8 ; 2.3400050838262782E8 ; 2.4891027580323944E9 ; 0.0
21 ; 1.246347447600046E7 ; 1.7348726721953866E8 ; 2.464525267524378E8 ; 2.6562549224661236E9 ; 0.0
22 ; 1.2480623454579167E7 ; 1.8013150659295964E8 ; 2.5891600122843826E8 ; 2.8297421896856623E9 ; 0.0
23 ; 1.249748652260622E7 ; 1.8708483842921394E8 ; 2.7139662468301743E8 ; 3.0098736962786217E9 ; 0.0
24 ; 1.2507590948119085E7 ; 1.943472216434114E8 ; 2.838941112056236E8 ; 3.1969585347078357E9 ; 0.0
25 ; 1.2523219213907288E7 ; 2.0060665922633994E8 ; 2.9640170215374273E8 ; 3.391305756351247E9 ; 0.0
26 ; 1.2538289079923289E7 ; 2.0061666428428045E8 ; 3.0892492136765003E8 ; 3.5919124155775867E9 ; 0.0
27 ; 1.2552864738859875E7 ; 2.006269744715561E8 ; 3.214632104475733E8 ; 3.792529079861867E9 ; 0.0
28 ; 1.256505485039078E7 ; 2.006375610819854E8 ; 3.340160751864332E8 ; 3.993156054333423E9 ; 0.0
29 ; 1.2579436279262582E7 ; 2.0064839814903075E8 ; 3.46581130036824E8 ; 4.1937936154154086E9 ; 0.0
30 ; 1.2590047130491044E7 ; 2.0065946223371655E8 ; 3.591605663160866E8 ; 4.39444201356444E9 ; 0.0
31 ; 1.260661309620406E7 ; 2.006707322070019E8 ; 3.717506134465776E8 ; 4.595101475798157E9 ; 0.0
32 ; 1.2621119261105893E7 ; 2.0068218903578877E8 ; 3.8435722654278165E8 ; 4.795772208005158E9 ; 0.0
33 ; 1.2633400017854147E7 ; 2.0069381557849368E8 ; 3.9697834580388755E8 ; 4.996454397040947E9 ; 0.0
34 ; 1.2646066311826412E7 ; 2.0070559639371014E8 ; 4.096117458217417E8 ; 5.197148212619441E9 ; 0.0
35 ; 1.265466783859843E7 ; 2.0071751756377432E8 ; 4.222578121335681E8 ; 5.397853809013151E9 ; 0.0
36 ; 1.266799183875435E7 ; 2.0072956653386167E8 ; 4.3491247997216654E8 ; 5.598571326576925E9 ; 0.0
37 ; 1.2679900995044744E7 ; 2.007417319664554E8 ; 4.475804718109209E8 ; 5.799300893110787E9 ; 0.0
38 ; 1.268886556900941E7 ; 2.0075400361052966E8 ; 4.6026037280596566E8 ; 6.000042625077243E9 ; 0.0
39 ; 1.2698560534179712E7 ; 2.0076637218450022E8 ; 4.729492383749751E8 ; 6.200796628687773E9 ; 0.0
40 ; 1.271005547984901E7 ; 2.0077882927184707E8 ; 4.856477989091548E8 ; 6.4015630008722725E9 ; 0.0
41 ; 1.2719792047592066E7 ; 2.0079136722826186E8 ; 4.9835785438900375E8 ; 6.602341830144119E9 ; 0.0
42 ; 1.27256268577326E7 ; 2.008039790991845E8 ; 5.110776464365958E8 ; 6.803133197372381E9 ; 0.0
43 ; 1.2732704656263003E7 ; 2.0081665854664338E8 ; 5.238032732943284E8 ; 7.003937176471565E9 ; 0.0
44 ; 1.2741346450671144E7 ; 2.0082939978438577E8 ; 5.365359779505914E8 ; 7.2047538350182085E9 ; 0.0
45 ; 1.2748054005082464E7 ; 2.0084219752036893E8 ; 5.492773244012625E8 ; 7.405583234802594E9 ; 0.0
46 ; 1.2757410778996836E7 ; 2.0085504690576884E8 ; 5.62025378406345E8 ; 7.606425432322963E9 ; 0.0
47 ; 1.2759892377038686E7 ; 2.008679434897493E8 ; 5.747827891853418E8 ; 7.807280479228731E9 ; 0.0
48 ; 1.2762060687860781E7 ; 2.008808831793164E8 ; 5.875426815623806E8 ; 8.00814842271848E9 ; 0.0
49 ; 1.2767088777329413E7 ; 2.0089386220365795E8 ; 6.003047422502413E8 ; 8.209029305897797E9 ; 0.0
50 ; 1.2772854394617658E7 ; 2.0090687708243853E8 ; 6.130718310275707E8 ; 8.409923168101455E9 ; 0.0
51 ; 1.277997285877389E7 ; 2.009199245975816E8 ; 6.258446854221884E8 ; 8.610830045183893E9 ; 0.0
52 ; 1.2782961434078544E7 ; 2.0093300176812798E8 ; 6.386246582809623E8 ; 8.811749969781475E9 ; 0.0
53 ; 1.2784125551971672E7 ; 2.0094610582780814E8 ; 6.514076197150409E8 ; 9.012682971549603E9 ; 0.0
54 ; 1.2788710248845045E7 ; 2.0095923420501134E8 ; 6.641917452670126E8 ; 9.21362907737741E9 ; 0.0
55 ; 1.2791782728641823E7 ; 2.0097238450487226E8 ; 6.769804555158577E8 ; 9.414588311582422E9 ; 0.0
56 ; 1.2795167638721885E7 ; 2.009855544932311E8 ; 6.897722382444996E8 ; 9.615560696087294E9 ; 0.0
57 ; 1.2796868894454975E7 ; 2.0099874208225137E8 ; 7.025674058832215E8 ; 9.816546250580524E9 ; 0.0
58 ; 1.2796710949708225E7 ; 2.0101194531750804E8 ; 7.153642747776765E8 ; 1.0017544992662775E10 ; 0.0
59 ; 1.2804292900046673E7 ; 2.0102516236637935E8 ; 7.281609857273847E8 ; 1.0218556937980284E10 ; 0.0
60 ; 1.2805678678637426E7 ; 2.0103839150759712E8 ; 7.409652786274314E8 ; 1.0419582100346663E10 ; 0.0
61 ; 1.280877676950214E7 ; 2.010516311218276E8 ; 7.537709573060688E8 ; 1.062062049185426E10 ; 0.0
62 ; 1.2808878723568778E7 ; 2.010648796831695E8 ; 7.66579734075571E8 ; 1.0821672122976088E10 ; 0.0
63 ; 1.2811517009664845E7 ; 2.0107813575147045E8 ; 7.793886127991397E8 ; 1.1022737002659258E10 ; 0.0
64 ; 1.2817649815646391E7 ; 2.0109139796537352E8 ; 7.922001298088046E8 ; 1.1223815138410728E10 ; 0.0
65 ; 1.281579965540046E7 ; 2.0110466503601664E8 ; 8.05017779624451E8 ; 1.1424906536376102E10 ; 0.0
66 ; 1.2818795098030496E7 ; 2.0111793574131662E8 ; 8.178335792798516E8 ; 1.1626011201412119E10 ; 0.0
67 ; 1.2823013022759402E7 ; 2.0113120892077637E8 ; 8.30652374377882E8 ; 1.1827129137153435E10 ; 0.0
68 ; 1.2822465448647525E7 ; 2.0114448347076228E8 ; 8.434753874006414E8 ; 1.2028260346074211E10 ; 0.0
69 ; 1.2823191270533193E7 ; 2.0115775834020385E8 ; 8.56297852849289E8 ; 1.2229404829544973E10 ; 0.0
70 ; 1.2821912832467487E7 ; 2.0117103252667272E8 ; 8.691210441198221E8 ; 1.2430562587885178E10 ; 0.0
71 ; 1.282547592299983E7 ; 2.011843050728042E8 ; 8.819429569522896E8 ; 1.263173362041185E10 ; 0.0
72 ; 1.2823717146527836E7 ; 2.0119757506302696E8 ; 8.947684328752894E8 ; 1.2832917925484653E10 ; 0.0
73 ; 1.2824223617279751E7 ; 2.0121084162057123E8 ; 9.075921500218173E8 ; 1.303411550054768E10 ; 0.0
74 ; 1.2825005452117188E7 ; 2.0122410390472892E8 ; 9.204163736390971E8 ; 1.3235326342168251E10 ; 0.0
75 ; 1.2826931423042405E7 ; 2.012373611083416E8 ; 9.332413790912143E8 ; 1.343655044607298E10 ; 0.0
76 ; 1.283029094518772E7 ; 2.0125061245549467E8 ; 9.460683105142567E8 ; 1.3637787807181322E10 ; 0.0
77 ; 1.2830672153444592E7 ; 2.0126385719939923E8 ; 9.588986014594444E8 ; 1.3839038419636816E10 ; 0.0
78 ; 1.28228195958844E7 ; 2.0127709462044358E8 ; 9.71729273612889E8 ; 1.4040302276836216E10 ; 0.0
79 ; 1.2822320202976614E7 ; 2.0129032402439982E8 ; 9.845520932087735E8 ; 1.424157937145666E10 ; 0.0
80 ; 1.2819225655334169E7 ; 2.0130354474077085E8 ; 9.973744134117501E8 ; 1.444286969548106E10 ; 0.0
81 ; 1.2813180333157301E7 ; 2.0131675612126577E8 ; 1.0101936390670842E9 ; 1.464417324022183E10 ; 0.0
82 ; 1.2810408248782108E7 ; 2.0132995753839222E8 ; 1.0230068194002415E9 ; 1.4845489996343096E10 ; 0.0
83 ; 1.2806176768896414E7 ; 2.0134314838415557E8 ; 1.0358172276490237E9 ; 1.5046819953881489E10 ; 0.0
84 ; 1.2801026676622128E7 ; 2.0135632806885567E8 ; 1.0486234044179201E9 ; 1.5248163102265644E10 ; 0.0
85 ; 1.2794714625975931E7 ; 2.0136949601997292E8 ; 1.0614244310945423E9 ; 1.54495194303345E10 ; 0.0
86 ; 1.2793667071521264E7 ; 2.0138265168113613E8 ; 1.074219145720518E9 ; 1.5650888926354473E10 ; 0.0
87 ; 1.279010558757327E7 ; 2.0139579451116553E8 ; 1.0870128127920394E9 ; 1.585227157803561E10 ; 0.0
88 ; 1.2783121443948759E7 ; 2.0140892398318416E8 ; 1.0998029183796127E9 ; 1.6053667372546776E10 ; 0.0
89 ; 1.2777763813081244E7 ; 2.0142203958379304E8 ; 1.1125860398235614E9 ; 1.625507629652996E10 ; 0.0
90 ; 1.2772720800113345E7 ; 2.0143514081230393E8 ; 1.1253638036366427E9 ; 1.6456498336113754E10 ; 0.0
91 ; 1.2769288852548737E7 ; 2.014482271800257E8 ; 1.1381365244367561E9 ; 1.6657933476926058E10 ; 0.0
92 ; 1.276416907962441E7 ; 2.0146129820960012E8 ; 1.150905813289305E9 ; 1.6859381704106083E10 ; 0.0
93 ; 1.2759047671338443E7 ; 2.0147435343438277E8 ; 1.1636699823689294E9 ; 1.7060843002315683E10 ; 0.0
94 ; 1.275103649187714E7 ; 2.0148739239786577E8 ; 1.176429030040268E9 ; 1.7262317355750065E10 ; 0.0
95 ; 1.2746231260186704E7 ; 2.015004146531395E8 ; 1.189180066532145E9 ; 1.746380474814793E10 ; 0.0
96 ; 1.273884563241223E7 ; 2.0151341976238963E8 ; 1.2019262977923317E9 ; 1.766530516280107E10 ; 0.0
97 ; 1.2735500836831545E7 ; 2.015264072964274E8 ; 1.214665143424744E9 ; 1.786681858256346E10 ; 0.0
98 ; 1.272864955388189E7 ; 2.0153937683425042E8 ; 1.2274006442615755E9 ; 1.806834498985989E10 ; 0.0
99 ; 1.2723106993216075E7 ; 2.015523279626318E8 ; 1.2401292938154573E9 ; 1.826988436669414E10 ; 0.0
100 ; 1.2715962942881279E7 ; 2.015652602757354E8 ; 1.2528524008086734E9 ; 1.8471436694656773E10 ; 0.0
101 ; 1.2709897787804237E7 ; 2.0157817337475562E8 ; 1.2655683637515547E9 ; 1.8673001954932507E10 ; 0.0
102 ; 1.2702117629145833E7 ; 2.0159106686757964E8 ; 1.2782782615393589E9 ; 1.8874580128307262E10 ; 0.0
103 ; 1.2697239225357909E7 ; 2.0160394036847064E8 ; 1.2909803791685047E9 ; 1.9076171195174843E10 ; 0.0
104 ; 1.269075368031873E7 ; 2.0161679349777073E8 ; 1.3036776183938627E9 ; 1.9277775135543312E10 ; 0.0
105 ; 1.2680023700998245E7 ; 2.0162962588162184E8 ; 1.3163683720741816E9 ; 1.9479391929041084E10 ; 0.0
106 ; 1.2672919154293984E7 ; 2.016424371517035E8 ; 1.3290483957751799E9 ; 1.9681021554922707E10 ; 0.0
107 ; 1.2672324176761743E7 ; 2.0165522694498667E8 ; 1.3417213149294739E9 ; 1.988266399207441E10 ; 0.0
108 ; 1.2658849399095457E7 ; 2.0166799490350175E8 ; 1.3543936391062355E9 ; 2.0084319219019398E10 ; 0.0
109 ; 1.2651644243130881E7 ; 2.0168074067412084E8 ; 1.367052488505331E9 ; 2.02859872139229E10 ; 0.0
110 ; 1.2648671065914331E7 ; 2.016934639083523E8 ; 1.379704132748462E9 ; 2.0487667954597023E10 ; 0.0
111 ; 1.2639917642618982E7 ; 2.0170616426214755E8 ; 1.3923528038143764E9 ; 2.0689361418505375E10 ; 0.0
112 ; 1.2629873337892694E7 ; 2.0171884139571896E8 ; 1.4049927214569952E9 ; 2.089106758276752E10 ; 0.0
113 ; 1.2621267960149834E7 ; 2.0173149497336808E8 ; 1.417622594794888E9 ; 2.109278642416324E10 ; 0.0
114 ; 1.2614119685991675E7 ; 2.017441246633238E8 ; 1.4302438627550378E9 ; 2.129451791913661E10 ; 0.0
115 ; 1.2606673579120802E7 ; 2.0175673013758937E8 ; 1.4428579824410295E9 ; 2.149626204379993E10 ; 0.0
116 ; 1.2597828131666426E7 ; 2.0176931107179844E8 ; 1.4554646560201504E9 ; 2.169801877393752E10 ; 0.0
117 ; 1.2586914183546646E7 ; 2.0178186714507857E8 ; 1.4680624841518168E9 ; 2.189978808500932E10 ; 0.0
118 ; 1.2583286804191768E7 ; 2.017943980399228E8 ; 1.4806493983353634E9 ; 2.2101569952154396E10 ; 0.0
119 ; 1.2572355667065749E7 ; 2.018069034420678E8 ; 1.4932326851395552E9 ; 2.230336435019432E10 ; 0.0
120 ; 1.2563007492437528E7 ; 2.018193830403791E8 ; 1.505805040806621E9 ; 2.2505171253636387E10 ; 0.0
121 ; 1.2555037452807888E7 ; 2.018318365267422E8 ; 1.5183680482990587E9 ; 2.2706990636676765E10 ; 0.0
122 ; 1.2548317465564517E7 ; 2.018442635959597E8 ; 1.5309230857518666E9 ; 2.2908822473203506E10 ; 0.0
123 ; 1.253648190039155E7 ; 2.0185666394565392E8 ; 1.543471403217431E9 ; 2.3110666736799465E10 ; 0.0
124 ; 1.2524400405335657E7 ; 2.0186903727617466E8 ; 1.5560078851178226E9 ; 2.3312523400745117E10 ; 0.0
125 ; 1.2517082967088738E7 ; 2.0188138329051194E8 ; 1.5685322855231583E9 ; 2.3514392438021294E10 ; 0.0
126 ; 1.2505868747133687E7 ; 2.018937016942131E8 ; 1.581049368490247E9 ; 2.3716273821311806E10 ; 0.0
127 ; 1.2499523873863492E7 ; 2.0190599219530454E8 ; 1.5935552372373807E9 ; 2.391816752300602E10 ; 0.0
128 ; 1.2488128888498597E7 ; 2.0191825450421727E8 ; 1.6060547611112442E9 ; 2.4120073515201324E10 ; 0.0
129 ; 1.2477727283910874E7 ; 2.0193048833371642E8 ; 1.6185428899997427E9 ; 2.4321991769705544E10 ; 0.0
130 ; 1.2462871358393703E7 ; 2.019426933988344E8 ; 1.6310206172836537E9 ; 2.452392225803926E10 ; 0.0
131 ; 1.2453433549363403E7 ; 2.0195486941680744E8 ; 1.6434834886420474E9 ; 2.4725864951438095E10 ; 0.0
132 ; 1.2438406541617842E7 ; 2.0196701610701537E8 ; 1.6559369221914108E9 ; 2.4927819820854904E10 ; 0.0
133 ; 1.2422915439128375E7 ; 2.0197913319092447E8 ; 1.6683753287330287E9 ; 2.5129786836961918E10 ; 0.0
134 ; 1.2410888961238345E7 ; 2.019912203920332E8 ; 1.680798244172157E9 ; 2.5331765970152843E10 ; 0.0
135 ; 1.239447660638522E7 ; 2.0200327743582055E8 ; 1.6932091331333954E9 ; 2.5533757190544876E10 ; 0.0
136 ; 1.2382903654760702E7 ; 2.0201530404969734E8 ; 1.7056036097397807E9 ; 2.5735760467980698E10 ; 0.0
137 ; 1.2365070479452137E7 ; 2.020272999629594E8 ; 1.7179865133945413E9 ; 2.5937775772030396E10 ; 0.0
138 ; 1.2352497018055787E7 ; 2.0203926490674362E8 ; 1.7303515838739934E9 ; 2.6139803071993355E10 ; 0.0
139 ; 1.2333995079892173E7 ; 2.020511986139857E8 ; 1.742704080892049E9 ; 2.6341842336900097E10 ; 0.0
140 ; 1.232079378074655E7 ; 2.0206310081938043E8 ; 1.7550380759719412E9 ; 2.6543893535514084E10 ; 0.0
141 ; 1.230637026794625E7 ; 2.0207497125934365E8 ; 1.7673588697526877E9 ; 2.6745956636333466E10 ; 0.0
142 ; 1.2289193747632815E7 ; 2.0208680967197606E8 ; 1.779665240020634E9 ; 2.6948031607592808E10 ; 0.0
143 ; 1.227234855463993E7 ; 2.02098615797029E8 ; 1.7919544337682667E9 ; 2.7150118417264782E10 ; 0.0
144 ; 1.225769733214744E7 ; 2.021103893758717E8 ; 1.8042267823229065E9 ; 2.735221703306181E10 ; 0.0
145 ; 1.2249178882987931E7 ; 2.0212213015146026E8 ; 1.8164844796550539E9 ; 2.7554327422437683E10 ; 0.0
146 ; 1.2235960160168465E7 ; 2.0213383786830822E8 ; 1.8287336585380418E9 ; 2.775644955258914E10 ; 0.0
147 ; 1.2226815448920147E7 ; 2.0214551227245814E8 ; 1.8409696186982102E9 ; 2.795858339045745E10 ; 0.0
148 ; 1.2215045640906429E7 ; 2.0215715311145523E8 ; 1.8531964341471305E9 ; 2.8160728902729908E10 ; 0.0
149 ; 1.2201383525686044E7 ; 2.0216876013432154E8 ; 1.8654114797880368E9 ; 2.8362886055841362E10 ; 0.0
150 ; 1.219423896687644E7 ; 2.0218033309153202E8 ; 1.8776128633137228E9 ; 2.8565054815975685E10 ; 0.0
151 ; 1.2182332244469972E7 ; 2.0219187173499134E8 ; 1.8898071022805994E9 ; 2.876723514906722E10 ; 0.0
152 ; 1.2172489715422047E7 ; 2.0220337581801197E8 ; 1.9019894345250692E9 ; 2.896942702080221E10 ; 0.0
153 ; 1.2160159377326338E7 ; 2.0221484509529328E8 ; 1.9141619242404914E9 ; 2.9171630396620224E10 ; 0.0
154 ; 1.2147729581948828E7 ; 2.0222627932290184E8 ; 1.9263220836178176E9 ; 2.937384524171552E10 ; 0.0
155 ; 1.2136265838841533E7 ; 2.0223767825825232E8 ; 1.9384698131997664E9 ; 2.957607152103842E10 ; 0.0
156 ; 1.2123965721631633E7 ; 2.0224904166008964E8 ; 1.9506060790386078E9 ; 2.9778309199296673E10 ; 0.0
157 ; 1.2109873685667891E7 ; 2.0226036928847185E8 ; 1.9627300447602394E9 ; 2.9980558240956764E10 ; 0.0
158 ; 1.2101979437848017E7 ; 2.0227166090475377E8 ; 1.9748399184459074E9 ; 3.0182818610245235E10 ; 0.0
159 ; 1.2090707283620253E7 ; 2.0228291627157167E8 ; 1.9869418978837554E9 ; 3.038509027114999E10 ; 0.0
160 ; 1.2077353045949332E7 ; 2.022941351528284E8 ; 1.9990326051673758E9 ; 3.0587373187421562E10 ; 0.0
161 ; 1.2066883059164496E7 ; 2.0230531731367946E8 ; 2.011109958213325E9 ; 3.078966732257439E10 ; 0.0
162 ; 1.2056437770808158E7 ; 2.0231646252051967E8 ; 2.0231768412724895E9 ; 3.099197263988807E10 ; 0.0
163 ; 1.204148198272441E7 ; 2.0232757054097056E8 ; 2.0352332790432978E9 ; 3.119428910240859E10 ; 0.0
164 ; 1.2031852706262963E7 ; 2.0233864114386824E8 ; 2.0472747610260222E9 ; 3.139661667294956E10 ; 0.0
165 ; 1.201510858434665E7 ; 2.0234967409925202E8 ; 2.0593066137322853E9 ; 3.1598955314093426E10 ; 0.0
166 ; 1.2005165696210502E7 ; 2.023606691783536E8 ; 2.0713217223166318E9 ; 3.1801304988192677E10 ; 0.0
167 ; 1.199345906254175E7 ; 2.023716261535867E8 ; 2.0833268880128422E9 ; 3.200366565737103E10 ; 0.0
168 ; 1.1982478047942763E7 ; 2.0238254479853725E8 ; 2.095320347075384E9 ; 3.2206037283524616E10 ; 0.0
169 ; 1.196749169285447E7 ; 2.023934248879542E8 ; 2.1073028251233268E9 ; 3.2408419828323154E10 ; 0.0
170 ; 1.1955763558626426E7 ; 2.0240426619774055E8 ; 2.1192703168161812E9 ; 3.261081325321111E10 ; 0.0
171 ; 1.19459436445463E7 ; 2.0241506850494507E8 ; 2.1312260803748076E9 ; 3.281321751940885E10 ; 0.0
172 ; 1.193352348177698E7 ; 2.0242583158775443E8 ; 2.1431720240193539E9 ; 3.3015632587913795E10 ; 0.0
173 ; 1.1921355978909263E7 ; 2.0243655522548553E8 ; 2.155105547501131E9 ; 3.321805841950155E10 ; 0.0
174 ; 1.1910999889173241E7 ; 2.0244723919857857E8 ; 2.1670269034800406E9 ; 3.3420494974727036E10 ; 0.0
175 ; 1.1904073992221218E7 ; 2.024578832885902E8 ; 2.1789379033692136E9 ; 3.3622942213925613E10 ; 0.0
176 ; 1.1897564400439668E7 ; 2.0246848727818713E8 ; 2.190841977361435E9 ; 3.3825400097214203E10 ; 0.0
177 ; 1.1890968901583951E7 ; 2.024790509511402E8 ; 2.2027395417618747E9 ; 3.402786858449239E10 ; 0.0
178 ; 1.1884740413622845E7 ; 2.0248957409231865E8 ; 2.214630510663459E9 ; 3.423034763544353E10 ; 0.0
179 ; 1.1874564304357344E7 ; 2.0250005648768476E8 ; 2.2265152510770817E9 ; 3.443283720953585E10 ; 0.0
180 ; 1.1866098646093855E7 ; 2.025104979242888E8 ; 2.238389815381439E9 ; 3.463533726602354E10 ; 0.0
181 ; 1.1861932773230257E7 ; 2.0252089819026417E8 ; 2.250255914027533E9 ; 3.483784776394782E10 ; 0.0
182 ; 1.1854917244264737E7 ; 2.0253125707482308E8 ; 2.262117846800763E9 ; 3.5040368662138084E10 ; 0.0
183 ; 1.1847929909234002E7 ; 2.025415743682522E8 ; 2.2739727640450277E9 ; 3.5242899919212906E10 ; 0.0
184 ; 1.1838448461995227E7 ; 2.0255184986190867E8 ; 2.285820693954262E9 ; 3.544544149358116E10 ; 0.0
185 ; 1.183203252851258E7 ; 2.0256208334821656E8 ; 2.297659142416257E9 ; 3.564799334344307E10 ; 0.0
186 ; 1.1825104775751265E7 ; 2.0257227462066326E8 ; 2.3094911749447694E9 ; 3.585055542679128E10 ; 0.0
187 ; 1.1819694392946946E7 ; 2.0258242347379616E8 ; 2.3213162797205205E9 ; 3.605312770141195E10 ; 0.0
188 ; 1.1811696654723374E7 ; 2.0259252970321983E8 ; 2.333135974113467E9 ; 3.625571012488574E10 ; 0.0
189 ; 1.1803031501686899E7 ; 2.02602593105593E8 ; 2.3449476707681904E9 ; 3.645830265458896E10 ; 0.0
190 ; 1.1796730001827737E7 ; 2.0261261347862595E8 ; 2.3567507022698774E9 ; 3.666090524769455E10 ; 0.0
191 ; 1.1788029285274776E7 ; 2.026225906210782E8 ; 2.368547432271705E9 ; 3.686351786117317E10 ; 0.0
192 ; 1.1784140616814656E7 ; 2.0263252433275613E8 ; 2.38033546155698E9 ; 3.706614045179425E10 ; 0.0
193 ; 1.1770852035809003E7 ; 2.0264241441451102E8 ; 2.3921196021737947E9 ; 3.726877297612701E10 ; 0.0
194 ; 1.1766754364394192E7 ; 2.026522606682369E8 ; 2.403890454209604E9 ; 3.747141539054152E10 ; 0.0
195 ; 1.1758599840931587E7 ; 2.0266206289686918E8 ; 2.415657208573998E9 ; 3.7674067651209755E10 ; 0.0
