CSV File for the City 1 on Day 202
1 - Minute m 
2 - Power Consumed at minute m 
3 - Power Produced at minute m 
4 - Energy Consumed since the beginning of the day 
5 - Energy Produced since the beginning of the day 
6 - Energy Lost since the beginning of the day on lines starting from the city
 
0 ; 1327656.9390279967 ; 1.0538969772892842E8 ; 0.0 ; 0.0 ; 0.0
1 ; 1349945.5822521367 ; 1.0554238333398378E8 ; 1327656.9390279967 ; 1.0538969772892842E8 ; 0.0
2 ; 1368647.8307915335 ; 1.0600387265770492E8 ; 2677602.521280133 ; 2.109320810629122E8 ; 0.0
3 ; 1389177.4036604008 ; 1.0677416900644994E8 ; 4046250.3520716666 ; 3.169359537206171E8 ; 0.0
4 ; 1412051.1260142943 ; 1.0785327538892525E8 ; 5435427.755732067 ; 4.2371012272706705E8 ; 0.0
5 ; 1443149.7163422785 ; 1.0924119448482895E8 ; 6847478.881746361 ; 5.315633981159923E8 ; 0.0
6 ; 1485365.3443771838 ; 1.1093792861583802E8 ; 8290628.59808864 ; 6.408045926008213E8 ; 0.0
7 ; 1538701.0412277188 ; 1.1294347971963853E8 ; 9775993.942465823 ; 7.517425212166593E8 ; 0.0
8 ; 1621819.4470283752 ; 1.1525784932765299E8 ; 1.1314694983693542E7 ; 8.646860009362979E8 ; 0.0
9 ; 1738050.7028158656 ; 1.178810385470509E8 ; 1.2936514430721916E7 ; 9.799438502639508E8 ; 0.0
10 ; 1921969.6249522308 ; 1.208130480475282E8 ; 1.4674565133537782E7 ; 1.0978248888110018E9 ; 0.0
11 ; 2212177.8197622015 ; 1.2405387805322376E8 ; 1.6596534758490013E7 ; 1.21863793685853E9 ; 0.0
12 ; 2672867.6769416034 ; 1.2760352833999869E8 ; 1.8808712578252215E7 ; 1.342691814911754E9 ; 0.0
13 ; 3128529.784492295 ; 1.3146199823815703E8 ; 2.148158025519382E7 ; 1.4702953432517526E9 ; 0.0
14 ; 3180135.062167617 ; 1.356292866405294E8 ; 2.4610110039686114E7 ; 1.6017573414899096E9 ; 0.0
15 ; 3200555.2424220494 ; 1.4010539201569313E8 ; 2.7790245101853732E7 ; 1.737386628130439E9 ; 0.0
16 ; 3223577.3809739603 ; 1.448903124259623E8 ; 3.099080034427578E7 ; 1.8774920201461322E9 ; 0.0
17 ; 3245123.8703181045 ; 1.4998404554965982E8 ; 3.421437772524974E7 ; 2.0223823325720944E9 ; 0.0
18 ; 3271493.5289231814 ; 1.5538658870708764E8 ; 3.7459501595567845E7 ; 2.172366378121754E9 ; 0.0
19 ; 3292834.8373141875 ; 1.6109793888953933E8 ; 4.073099512449103E7 ; 2.3277529668288417E9 ; 0.0
20 ; 3317718.4525713194 ; 1.6711809279065678E8 ; 4.402382996180522E7 ; 2.488850905718381E9 ; 0.0
21 ; 3343072.4612131855 ; 1.734470468394206E8 ; 4.7341548414376535E7 ; 2.6559689985090375E9 ; 0.0
22 ; 3365762.2093663258 ; 1.80084797234074E8 ; 5.068462087558972E7 ; 2.8294160453484583E9 ; 0.0
23 ; 3388007.597514606 ; 1.8703133997631747E8 ; 5.405038308495605E7 ; 3.0095008425825324E9 ; 0.0
24 ; 3412836.5004346296 ; 1.9428667090516585E8 ; 5.743839068247066E7 ; 3.19653218255885E9 ; 0.0
25 ; 3435760.9250925193 ; 2.0053882662811285E8 ; 6.085122718290529E7 ; 3.3908188534640155E9 ; 0.0
26 ; 3463629.052951962 ; 2.005413505896706E8 ; 6.4286988107997805E7 ; 3.5913576800921283E9 ; 0.0
27 ; 3487091.522661975 ; 2.0054400762620425E8 ; 6.775061716094977E7 ; 3.791899030681799E9 ; 0.0
28 ; 3510582.826814979 ; 2.005467932406309E8 ; 7.123770868361174E7 ; 3.9924430383080034E9 ; 0.0
29 ; 3531966.437002809 ; 2.0054970292137638E8 ; 7.474829151042672E7 ; 4.1929898315486345E9 ; 0.0
30 ; 3554858.021430586 ; 2.005527321657386E8 ; 7.828025794742952E7 ; 4.393539534470011E9 ; 0.0
31 ; 3577945.829563784 ; 2.0055587650083604E8 ; 8.18351159688601E7 ; 4.59409226663575E9 ; 0.0
32 ; 3593867.1874315203 ; 2.0055913150213623E8 ; 8.541306179842389E7 ; 4.794648143136586E9 ; 0.0
33 ; 3622242.150493968 ; 2.005624928096084E8 ; 8.90069289858554E7 ; 4.995207274638722E9 ; 0.0
34 ; 3642740.206823252 ; 2.0056595614158478E8 ; 9.262917113634937E7 ; 5.195769767448331E9 ; 0.0
35 ; 3660968.4704181748 ; 2.0056951730644745E8 ; 9.627191134317261E7 ; 5.396335723589915E9 ; 0.0
36 ; 3680368.723950539 ; 2.0057317221227944E8 ; 9.993287981359078E7 ; 5.596905240896362E9 ; 0.0
37 ; 3702680.0682503195 ; 2.005769168746356E8 ; 1.0361324853754131E8 ; 5.797478413108642E9 ; 0.0
38 ; 3720580.7599083483 ; 2.0058074742259613E8 ; 1.0731592860579163E8 ; 5.998055329983277E9 ; 0.0
39 ; 3735727.8691247967 ; 2.005846601032707E8 ; 1.1103650936569998E8 ; 6.198636077405873E9 ; 0.0
40 ; 3751928.6077498393 ; 2.005886512849183E8 ; 1.1477223723482478E8 ; 6.399220737509144E9 ; 0.0
41 ; 3771096.730999515 ; 2.0059271745884484E8 ; 1.1852416584257461E8 ; 6.599809388794062E9 ; 0.0
42 ; 3786101.806478907 ; 2.0059685524023196E8 ; 1.2229526257357413E8 ; 6.800402106252907E9 ; 0.0
43 ; 3804042.538683654 ; 2.0060106136804253E8 ; 1.2608136438005303E8 ; 7.000998961493138E9 ; 0.0
44 ; 3819892.5801300392 ; 2.0060533270413694E8 ; 1.2988540691873668E8 ; 7.201600022861181E9 ; 0.0
45 ; 3832846.8529352066 ; 2.0060966623172355E8 ; 1.3370529949886672E8 ; 7.402205355565318E9 ; 0.0
46 ; 3843359.8671528385 ; 2.006140590532554E8 ; 1.3753814635180193E8 ; 7.602815021797042E9 ; 0.0
47 ; 3854565.561366201 ; 2.0061850838787386E8 ; 1.4138150621895477E8 ; 7.803429080850297E9 ; 0.0
48 ; 3872312.1760705914 ; 2.0062301156848848E8 ; 1.4523607178032097E8 ; 8.004047589238171E9 ; 0.0
49 ; 3881017.7350063557 ; 2.006275660385731E8 ; 1.4910838395639157E8 ; 8.204670600806659E9 ; 0.0
50 ; 3893656.395853846 ; 2.006321693487463E8 ; 1.5298940169139794E8 ; 8.405298166845232E9 ; 0.0
51 ; 3898922.4181412617 ; 2.0063681915319774E8 ; 1.5688305808725178E8 ; 8.605930336193977E9 ; 0.0
52 ; 3906656.706113758 ; 2.006415132060113E8 ; 1.6078198050539306E8 ; 8.806567155347176E9 ; 0.0
53 ; 3918176.215237546 ; 2.0064624935743007E8 ; 1.646886372115068E8 ; 9.007208668553186E9 ; 0.0
54 ; 3931397.359290047 ; 2.0065102555010003E8 ; 1.6860681342674437E8 ; 9.207854917910616E9 ; 0.0
55 ; 3939955.6916724383 ; 2.006558398153247E8 ; 1.725382107860344E8 ; 9.408505943460716E9 ; 0.0
56 ; 3949359.9274781807 ; 2.0066069026935598E8 ; 1.7647816647770685E8 ; 9.609161783276041E9 ; 0.0
57 ; 3953899.9150998164 ; 2.006655751097434E8 ; 1.8042752640518504E8 ; 9.809822473545397E9 ; 0.0
58 ; 3967363.295114205 ; 2.006704926117581E8 ; 1.8438142632028487E8 ; 1.001048804865514E10 ; 0.0
59 ; 3976098.777885419 ; 2.0067544112490615E8 ; 1.883487896153991E8 ; 1.0211158541266897E10 ; 0.0
60 ; 3983153.9598927074 ; 2.0068041906954077E8 ; 1.923248883932845E8 ; 1.0411833982391804E10 ; 0.0
61 ; 3990420.597074578 ; 2.006854249335823E8 ; 1.9630804235317722E8 ; 1.0612514401461344E10 ; 0.0
62 ; 3996104.554341498 ; 2.006904572693507E8 ; 2.002984629502518E8 ; 1.0813199826394926E10 ; 0.0
63 ; 4007699.2140361792 ; 2.00695514690515E8 ; 2.0429456750459328E8 ; 1.1013890283664276E10 ; 0.0
64 ; 4017360.8660754627 ; 2.0070059586916122E8 ; 2.0830226671862945E8 ; 1.1214585798354792E10 ; 0.0
65 ; 4025549.487591592 ; 2.007056995329801E8 ; 2.123196275847049E8 ; 1.1415286394223953E10 ; 0.0
66 ; 4033076.118646626 ; 2.0071082446257386E8 ; 2.163451770722965E8 ; 1.1615992093756933E10 ; 0.0
67 ; 4040673.5345969 ; 2.0071596948888093E8 ; 2.2037825319094312E8 ; 1.1816702918219507E10 ; 0.0
68 ; 4052408.0929357135 ; 2.0072113349071693E8 ; 2.2441892672554E8 ; 1.2017418887708387E10 ; 0.0
69 ; 4055402.520132226 ; 2.007263153924288E8 ; 2.2847133481847572E8 ; 1.2218140021199104E10 ; 0.0
70 ; 4059351.735169919 ; 2.0073151416165966E8 ; 2.3252673733860794E8 ; 1.2418866336591534E10 ; 0.0
71 ; 4066517.22753244 ; 2.007367288072209E8 ; 2.3658608907377785E8 ; 1.2619597850753193E10 ; 0.0
72 ; 4076323.711736892 ; 2.0074195837706771E8 ; 2.406526063013103E8 ; 1.2820334579560413E10 ; 0.0
73 ; 4085348.689838804 ; 2.0074720195637435E8 ; 2.447289300130472E8 ; 1.302107653793748E10 ; 0.0
74 ; 4091623.8095283555 ; 2.0075245866570583E8 ; 2.48814278702886E8 ; 1.3221823739893856E10 ; 0.0
75 ; 4098651.1367009063 ; 2.0075772765928122E8 ; 2.5290590251241434E8 ; 1.3422576198559563E10 ; 0.0
76 ; 4104187.5859784996 ; 2.0076300812332526E8 ; 2.5700455364911523E8 ; 1.3623333926218843E10 ; 0.0
77 ; 4109815.94318858 ; 2.0076829927450424E8 ; 2.6110874123509374E8 ; 1.3824096934342169E10 ; 0.0
78 ; 4111774.9307668903 ; 2.0077360035844222E8 ; 2.6521855717828232E8 ; 1.4024865233616673E10 ; 0.0
79 ; 4116599.8982771323 ; 2.007789106483138E8 ; 2.693303321090492E8 ; 1.4225638833975115E10 ; 0.0
80 ; 4112938.1144184205 ; 2.0078422944350973E8 ; 2.734469320073263E8 ; 1.4426417744623428E10 ; 0.0
81 ; 4115046.3993588677 ; 2.0078955606837216E8 ; 2.7755987012174475E8 ; 1.4627201974066938E10 ; 0.0
82 ; 4113842.02321398 ; 2.0079488987099528E8 ; 2.816749165211036E8 ; 1.4827991530135311E10 ; 0.0
83 ; 4118252.4835033054 ; 2.0080023022208884E8 ; 2.857887585443176E8 ; 1.5028786420006306E10 ; 0.0
84 ; 4116245.168720907 ; 2.0080557651390094E8 ; 2.899070110278209E8 ; 1.5229586650228395E10 ; 0.0
85 ; 4119214.7965732804 ; 2.0081092815919682E8 ; 2.940232561965418E8 ; 1.5430392226742296E10 ; 0.0
86 ; 4121674.293922305 ; 2.008162845902912E8 ; 2.9814247099311507E8 ; 1.5631203154901493E10 ; 0.0
87 ; 4114570.6369217765 ; 2.0082164525813097E8 ; 3.022641452870374E8 ; 1.5832019439491785E10 ; 0.0
88 ; 4117450.2551556076 ; 2.008270096314257E8 ; 3.0637871592395914E8 ; 1.6032841084749916E10 ; 0.0
89 ; 4112536.305660498 ; 2.008323771958234E8 ; 3.1049616617911476E8 ; 1.6233668094381342E10 ; 0.0
90 ; 4117198.817383886 ; 2.0083774745312893E8 ; 3.1460870248477525E8 ; 1.6434500471577166E10 ; 0.0
91 ; 4113442.585813308 ; 2.0084311992056322E8 ; 3.1872590130215913E8 ; 1.6635338219030294E10 ; 0.0
92 ; 4118561.726643217 ; 2.008484941300605E8 ; 3.228393438879724E8 ; 1.6836181338950857E10 ; 0.0
93 ; 4113638.2168181785 ; 2.008538696276019E8 ; 3.269579056146156E8 ; 1.7037029833080917E10 ; 0.0
94 ; 4116438.335997897 ; 2.0085924597258332E8 ; 3.310715438314338E8 ; 1.723788370270852E10 ; 0.0
95 ; 4113483.3972336757 ; 2.008646227372156E8 ; 3.3518798216743165E8 ; 1.7438742948681103E10 ; 0.0
96 ; 4109469.4257612154 ; 2.008699995059555E8 ; 3.393014655646653E8 ; 1.763960757141832E10 ; 0.0
97 ; 4113160.6925411364 ; 2.0087537587496543E8 ; 3.4341093499042654E8 ; 1.7840477570924274E10 ; 0.0
98 ; 4113043.6460848143 ; 2.0088075145160082E8 ; 3.4752409568296766E8 ; 1.804135294679924E10 ; 0.0
99 ; 4109952.6969083995 ; 2.0088612585392326E8 ; 3.5163713932905245E8 ; 1.824223369825084E10 ; 0.0
100 ; 4105026.1421414963 ; 2.0089149871023804E8 ; 3.5574709202596086E8 ; 1.8443119824104763E10 ; 0.0
101 ; 4103450.7540859585 ; 2.0089686965865517E8 ; 3.598521181681024E8 ; 1.8644011322815002E10 ; 0.0
102 ; 4104437.650953304 ; 2.0090223834667197E8 ; 3.6395556892218834E8 ; 1.8844908192473656E10 ; 0.0
103 ; 4102240.600271966 ; 2.0090760443077666E8 ; 3.6806000657314163E8 ; 1.9045810430820328E10 ; 0.0
104 ; 4098635.283745068 ; 2.009129675760715E8 ; 3.721622471734136E8 ; 1.9246718035251106E10 ; 0.0
105 ; 4095151.3135356526 ; 2.009183274559144E8 ; 3.762608824571586E8 ; 1.944763100282718E10 ; 0.0
106 ; 4092944.2922433033 ; 2.0092368375157818E8 ; 3.8035603377069426E8 ; 1.9648549330283092E10 ; 0.0
107 ; 4089543.218858682 ; 2.009290361519265E8 ; 3.8444897806293756E8 ; 1.984947301403467E10 ; 0.0
108 ; 4090965.9286225988 ; 2.0093438435310543E8 ; 3.885385212817962E8 ; 2.00504020501866E10 ; 0.0
109 ; 4082312.0992519795 ; 2.0093972805825E8 ; 3.926294872104188E8 ; 2.0251336434539703E10 ; 0.0
110 ; 4083838.81063508 ; 2.0094506697720495E8 ; 3.967117993096708E8 ; 2.0452276162597954E10 ; 0.0
111 ; 4077874.931969628 ; 2.0095040082625863E8 ; 4.007956381203059E8 ; 2.0653221229575157E10 ; 0.0
112 ; 4078052.286622826 ; 2.0095572932788974E8 ; 4.0487351305227554E8 ; 2.0854171630401417E10 ; 0.0
113 ; 4075999.383280676 ; 2.0096105221052608E8 ; 4.0895156533889836E8 ; 2.1055127359729305E10 ; 0.0
114 ; 4069975.908252992 ; 2.0096636920831466E8 ; 4.1302756472217906E8 ; 2.125608841193983E10 ; 0.0
115 ; 4064750.538568263 ; 2.0097168006090254E8 ; 4.1709754063043207E8 ; 2.1457054781148144E10 ; 0.0
116 ; 4060680.9251545616 ; 2.0097698451322797E8 ; 4.211622911690003E8 ; 2.1658026461209045E10 ; 0.0
117 ; 4058388.6884554224 ; 2.009822823153212E8 ; 4.252229720941549E8 ; 2.1859003445722275E10 ; 0.0
118 ; 4054938.0830078037 ; 2.009875732221146E8 ; 4.292813607826103E8 ; 2.2059985728037598E10 ; 0.0
119 ; 4052514.279524358 ; 2.009928569932613E8 ; 4.333362988656181E8 ; 2.2260973301259712E10 ; 0.0
120 ; 4047489.289488769 ; 2.0099813339296243E8 ; 4.373888131451425E8 ; 2.246196615825297E10 ; 0.0
121 ; 4044399.8741927138 ; 2.0100340218980187E8 ; 4.414363024346313E8 ; 2.2662964291645935E10 ; 0.0
122 ; 4040666.190621536 ; 2.0100866315658888E8 ; 4.45480702308824E8 ; 2.2863967693835735E10 ; 0.0
123 ; 4035986.0179962562 ; 2.0101391607020745E8 ; 4.4952136849944556E8 ; 2.3064976356992325E10 ; 0.0
124 ; 4029640.554897412 ; 2.0101916071147275E8 ; 4.535573545174418E8 ; 2.326599027306253E10 ; 0.0
125 ; 4025424.008862461 ; 2.010243968649936E8 ; 4.5758699507233924E8 ; 2.3467009433774002E10 ; 0.0
126 ; 4019519.749303364 ; 2.0102962431904152E8 ; 4.616124190812017E8 ; 2.3668033830638996E10 ; 0.0
127 ; 4011416.0562508754 ; 2.0103484286542505E8 ; 4.65631938830505E8 ; 2.386906345495804E10 ; 0.0
128 ; 4012875.399140331 ; 2.0104005229937005E8 ; 4.696433548867559E8 ; 2.4070098297823463E10 ; 0.0
129 ; 4002102.846633511 ; 2.0104525241940492E8 ; 4.7365623028589624E8 ; 2.4271138350122833E10 ; 0.0
130 ; 3995583.4842452966 ; 2.0105044302725103E8 ; 4.7765833313252974E8 ; 2.4472183602542236E10 ; 0.0
131 ; 3986358.3264439916 ; 2.0105562392771766E8 ; 4.8165391661677504E8 ; 2.467323404556949E10 ; 0.0
132 ; 3976079.5171199436 ; 2.0106079492860165E8 ; 4.85640274943219E8 ; 2.4874289669497208E10 ; 0.0
133 ; 3965516.764596488 ; 2.010659558405915E8 ; 4.8961635446033895E8 ; 2.5075350464425808E10 ; 0.0
134 ; 3952743.621501234 ; 2.0107110647717497E8 ; 4.935818712249354E8 ; 2.52764164202664E10 ; 0.0
135 ; 3943606.956404159 ; 2.010762466545514E8 ; 4.975346148464366E8 ; 2.5477487526743576E10 ; 0.0
136 ; 3929744.0059903855 ; 2.0108137619154707E8 ; 5.0147822180284077E8 ; 2.567856377339813E10 ; 0.0
137 ; 3914872.8375824136 ; 2.0108649490953448E8 ; 5.0540796580883116E8 ; 2.5879645149589676E10 ; 0.0
138 ; 3908476.823282207 ; 2.0109160263235497E8 ; 5.0932283864641356E8 ; 2.608073164449921E10 ; 0.0
139 ; 3896435.9473049203 ; 2.010966991862444E8 ; 5.1323131546969575E8 ; 2.6281823247131565E10 ; 0.0
140 ; 3881331.6885517417 ; 2.01101784399762E8 ; 5.1712775141700065E8 ; 2.648291994631781E10 ; 0.0
141 ; 3871434.959763354 ; 2.011068581037223E8 ; 5.210090831055524E8 ; 2.668402173071757E10 ; 0.0
142 ; 3860465.117556083 ; 2.0111192013112965E8 ; 5.248805180653157E8 ; 2.6885128588821293E10 ; 0.0
143 ; 3851884.995496564 ; 2.011169703171155E8 ; 5.287409831828718E8 ; 2.7086240508952423E10 ; 0.0
144 ; 3840605.1936413725 ; 2.0112200849887815E8 ; 5.325928681783684E8 ; 2.728735747926954E10 ; 0.0
145 ; 3827419.6033549285 ; 2.0112703451562524E8 ; 5.3643347337200975E8 ; 2.7488479487768417E10 ; 0.0
146 ; 3827393.853386001 ; 2.0113204820851812E8 ; 5.402608929753647E8 ; 2.7689606522284042E10 ; 0.0
147 ; 3819609.0993940705 ; 2.0113704942061874E8 ; 5.440882868287507E8 ; 2.789073857049256E10 ; 0.0
148 ; 3813598.527972301 ; 2.0114203799683872E8 ; 5.479078959281448E8 ; 2.809187561991318E10 ; 0.0
149 ; 3810735.474693172 ; 2.0114701378389007E8 ; 5.517214944561172E8 ; 2.829301765791002E10 ; 0.0
150 ; 3806155.3683151123 ; 2.0115197663023838E8 ; 5.555322299308103E8 ; 2.849416467169391E10 ; 0.0
151 ; 3797688.7765190434 ; 2.011569263860575E8 ; 5.593383852991254E8 ; 2.8695316648324146E10 ; 0.0
152 ; 3791672.825214158 ; 2.01161862903186E8 ; 5.631360740756445E8 ; 2.8896473574710205E10 ; 0.0
153 ; 3787137.8219014322 ; 2.011667860350856E8 ; 5.669277469008586E8 ; 2.909763543761339E10 ; 0.0
154 ; 3786884.3288226016 ; 2.0117169563680094E8 ; 5.707148847227601E8 ; 2.9298802223648476E10 ; 0.0
155 ; 3777130.8006776837 ; 2.011765915649211E8 ; 5.745017690515827E8 ; 2.949997391928528E10 ; 0.0
156 ; 3770526.393994701 ; 2.0118147367754257E8 ; 5.782788998522604E8 ; 2.97011505108502E10 ; 0.0
157 ; 3763630.6720935903 ; 2.0118634183423343E8 ; 5.82049426246255E8 ; 2.9902331984527744E10 ; 0.0
158 ; 3758354.1970857535 ; 2.0119119589599928E8 ; 5.858130569183487E8 ; 3.0103518326361977E10 ; 0.0
159 ; 3757222.9514538427 ; 2.0119603572525024E8 ; 5.895714111154344E8 ; 3.0304709522257977E10 ; 0.0
160 ; 3751400.5329290833 ; 2.012008611857692E8 ; 5.933286340668882E8 ; 3.0505905557983227E10 ; 0.0
161 ; 3743383.9412911027 ; 2.0120567214268136E8 ; 5.970800345998173E8 ; 3.0707106419168995E10 ; 0.0
162 ; 3740147.1523762327 ; 2.0121046846242496E8 ; 6.008234185411084E8 ; 3.0908312091311676E10 ; 0.0
163 ; 3729211.2636832604 ; 2.0121525001272285E8 ; 6.045635656934845E8 ; 3.11095225597741E10 ; 0.0
164 ; 3726681.33067408 ; 2.0122001666255555E8 ; 6.082927769571679E8 ; 3.1310737809786823E10 ; 0.0
165 ; 3720238.3590485062 ; 2.0122476828213492E8 ; 6.120194582878419E8 ; 3.151195782644938E10 ; 0.0
166 ; 3715027.606286683 ; 2.0122950474287912E8 ; 6.157396966468904E8 ; 3.1713182594731514E10 ; 0.0
167 ; 3706478.206464273 ; 2.0123422591738823E8 ; 6.19454724253177E8 ; 3.1914412099474392E10 ; 0.0
168 ; 3698680.696991942 ; 2.01238931679421E8 ; 6.231612024596413E8 ; 3.211564632539178E10 ; 0.0
169 ; 3699377.8640499776 ; 2.012436219038723E8 ; 6.268598831566333E8 ; 3.23168852570712E10 ; 0.0
170 ; 3690348.016923978 ; 2.0124829646675164E8 ; 6.305592610206833E8 ; 3.2518128878975075E10 ; 0.0
171 ; 3684709.074975674 ; 2.01252955245162E8 ; 6.342496090376073E8 ; 3.2719377175441826E10 ; 0.0
172 ; 3679879.349050835 ; 2.012575981172801E8 ; 6.37934318112583E8 ; 3.292063013068699E10 ; 0.0
173 ; 3675349.257380939 ; 2.0126222496233675E8 ; 6.416141974616339E8 ; 3.3121887728804268E10 ; 0.0
174 ; 3669801.0463348487 ; 2.0126683566059834E8 ; 6.452895467190149E8 ; 3.3323149953766605E10 ; 0.0
175 ; 3667287.6306423396 ; 2.012714300933489E8 ; 6.489593477653497E8 ; 3.3524416789427204E10 ; 0.0
176 ; 3662820.067345786 ; 2.012760081428726E8 ; 6.52626635395992E8 ; 3.3725688219520554E10 ; 0.0
177 ; 3657935.627517407 ; 2.012805696924373E8 ; 6.562894554633378E8 ; 3.3926964227663425E10 ; 0.0
178 ; 3655993.529232136 ; 2.0128511462627828E8 ; 6.599473910908552E8 ; 3.412824479735586E10 ; 0.0
179 ; 3652668.1960081737 ; 2.0128964282958275E8 ; 6.636033846200874E8 ; 3.432952991198214E10 ; 0.0
180 ; 3647492.00410593 ; 2.0129415418847495E8 ; 6.672560528160956E8 ; 3.453081955481172E10 ; 0.0
181 ; 3647086.198157873 ; 2.0129864859000167E8 ; 6.709035448202015E8 ; 3.47321137090002E10 ; 0.0
182 ; 3639958.2878495036 ; 2.0130312592211843E8 ; 6.745506310183594E8 ; 3.49334123575902E10 ; 0.0
183 ; 3637363.3867723537 ; 2.0130758607367596E8 ; 6.78190589306209E8 ; 3.513471548351232E10 ; 0.0
184 ; 3628786.9333450748 ; 2.0131202893440732E8 ; 6.818279526929814E8 ; 3.5336023069586E10 ; 0.0
185 ; 3629665.6743330806 ; 2.0131645439491546E8 ; 6.854567396263264E8 ; 3.553733509852041E10 ; 0.0
186 ; 3619951.6758465623 ; 2.0132086234666118E8 ; 6.890864053006595E8 ; 3.573865155291532E10 ; 0.0
187 ; 3623731.3868920887 ; 2.0132525268195143E8 ; 6.927063569765061E8 ; 3.5939972415261986E10 ; 0.0
188 ; 3616843.635775295 ; 2.0132962529392827E8 ; 6.963300883633982E8 ; 3.614129766794394E10 ; 0.0
189 ; 3613148.5890419865 ; 2.01333980076558E8 ; 6.999469319991735E8 ; 3.634262729323787E10 ; 0.0
190 ; 3609993.914262568 ; 2.013383169246207E8 ; 7.035600805882155E8 ; 3.654396127331443E10 ; 0.0
191 ; 3606211.0255459985 ; 2.0134263573370025E8 ; 7.07170074502478E8 ; 3.674529959023905E10 ; 0.0
192 ; 3602632.965995051 ; 2.0134693640017465E8 ; 7.10776285528024E8 ; 3.6946642225972755E10 ; 0.0
193 ; 3596498.590360622 ; 2.0135121882120657E8 ; 7.14378918494019E8 ; 3.714798916237293E10 ; 0.0
194 ; 3592790.440777011 ; 2.0135548289473444E8 ; 7.179754170843797E8 ; 3.734934038119414E10 ; 0.0
195 ; 3587816.391032693 ; 2.0135972851946363E8 ; 7.215682075251567E8 ; 3.7550695864088875E10 ; 0.0
196 ; 3585564.4231507806 ; 2.013639555948581E8 ; 7.251560239161894E8 ; 3.775205559260834E10 ; 0.0
197 ; 3581503.571541262 ; 2.013681640211324E8 ; 7.287415883393402E8 ; 3.795341954820319E10 ; 0.0
198 ; 3575117.5021799104 ; 2.0137235369924366E8 ; 7.323230919108815E8 ; 3.815478771222433E10 ; 0.0
199 ; 3572528.368695384 ; 2.013765245308841E8 ; 7.358982094130614E8 ; 3.835616006592357E10 ; 0.0
200 ; 3568268.046515344 ; 2.0138067641847375E8 ; 7.394707377817568E8 ; 3.855753659045445E10 ; 0.0
