CSV File for the City 3 on Day 102
1 - Minute m 
2 - Power Consumed at minute m 
3 - Power Produced at minute m 
4 - Energy Consumed since the beginning of the day 
5 - Energy Produced since the beginning of the day 
6 - Energy Lost since the beginning of the day on lines starting from the city
 
0 ; 2396687.5257881535 ; 1.0555025652445248E8 ; 0.0 ; 0.0 ; 0.0
1 ; 2397195.7156956205 ; 1.0570321095048034E8 ; 2396687.5257881535 ; 1.0555025652445248E8 ; 0.0
2 ; 2400551.0173894395 ; 1.0616494682200953E8 ; 4793883.241483774 ; 2.1125346747493282E8 ; 0.0
3 ; 2403516.6736862436 ; 1.0693546556566912E8 ; 7194434.258873213 ; 3.1741841429694235E8 ; 0.0
4 ; 2406660.740394321 ; 1.0801476845923E8 ; 9597950.932559457 ; 4.243538798626115E8 ; 0.0
5 ; 2411539.9636949087 ; 1.094028566247772E8 ; 1.2004611672953777E7 ; 5.323686483218415E8 ; 0.0
6 ; 2417850.849324167 ; 1.1109973102260348E8 ; 1.4416151636648685E7 ; 6.417715049466187E8 ; 0.0
7 ; 2424496.185116707 ; 1.1310539244590127E8 ; 1.683400248597285E7 ; 7.528712359692222E8 ; 0.0
8 ; 2435806.4564750614 ; 1.154198415163204E8 ; 1.925849867108956E7 ; 8.659766284151235E8 ; 0.0
9 ; 2453637.3349687043 ; 1.180430786804505E8 ; 2.169430512756462E7 ; 9.813964699314439E8 ; 0.0
10 ; 2480495.5711654853 ; 1.2097510420727384E8 ; 2.4147942462533325E7 ; 1.0994395486118944E9 ; 0.0
11 ; 2521432.673886307 ; 1.2421591818662336E8 ; 2.6628438033698812E7 ; 1.220414652819168E9 ; 0.0
12 ; 2587424.348023941 ; 1.2776552052866611E8 ; 2.914987070758512E7 ; 1.3446305710057914E9 ; 0.0
13 ; 2651422.7771876464 ; 1.3162391096441978E8 ; 3.173729505560906E7 ; 1.4723960915344574E9 ; 0.0
14 ; 2657067.6499808473 ; 1.3579108904729486E8 ; 3.438871783279671E7 ; 1.6040200024988773E9 ; 0.0
15 ; 2662020.316053525 ; 1.4026705415564138E8 ; 3.704578548277756E7 ; 1.7398110915461721E9 ; 0.0
16 ; 2664519.118101721 ; 1.4505180549626705E8 ; 3.970780579883108E7 ; 1.8800781457018135E9 ; 0.0
17 ; 2667406.1018442675 ; 1.50145342108879E8 ; 4.237232491693281E7 ; 2.0251299511980805E9 ; 0.0
18 ; 2671884.675129053 ; 1.5554766287139225E8 ; 4.503973101877707E7 ; 2.1752752933069596E9 ; 0.0
19 ; 2673419.067470259 ; 1.612587665060359E8 ; 4.771161569390613E7 ; 2.330822956178352E9 ; 0.0
20 ; 2676746.235944396 ; 1.6727865158618084E8 ; 5.038503476137639E7 ; 2.4920817226843877E9 ; 0.0
21 ; 2679616.4570610034 ; 1.736073165438061E8 ; 5.3061780997320786E7 ; 2.6593603742705684E9 ; 0.0
22 ; 2683127.7256372804 ; 1.8024475967751467E8 ; 5.574139745438179E7 ; 2.8329676908143744E9 ; 0.0
23 ; 2686843.7560351095 ; 1.8719097916100734E8 ; 5.8424525180019066E7 ; 3.013212450491889E9 ; 0.0
24 ; 2689560.1825755476 ; 1.9444597305192178E8 ; 6.111136893605418E7 ; 3.2004034296528964E9 ; 0.0
25 ; 2693270.8388736914 ; 2.006977801991269E8 ; 6.3800929118629724E7 ; 3.3948494027048182E9 ; 0.0
26 ; 2697058.704489987 ; 2.0069994628891075E8 ; 6.6494199957503416E7 ; 3.595547182903945E9 ; 0.0
27 ; 2698192.554019491 ; 2.0070223837926844E8 ; 6.91912586619934E7 ; 3.796247129192856E9 ; 0.0
28 ; 2702566.5190932425 ; 2.00704654156069E8 ; 7.18894512160129E7 ; 3.9969493675721245E9 ; 0.0
29 ; 2704572.207710948 ; 2.007071912356266E8 ; 7.459201773510614E7 ; 4.1976540217281933E9 ; 0.0
30 ; 2708577.904517578 ; 2.0070984717388648E8 ; 7.729658994281709E7 ; 4.3983612129638195E9 ; 0.0
31 ; 2710085.3458156968 ; 2.007126194754063E8 ; 8.000516784733467E7 ; 4.599071060137706E9 ; 0.0
32 ; 2714062.2489162353 ; 2.007155056020756E8 ; 8.271525319315037E7 ; 4.799783679613112E9 ; 0.0
33 ; 2717927.8651447217 ; 2.007185029815238E8 ; 8.542931544206661E7 ; 5.000499185215188E9 ; 0.0
34 ; 2716985.0754022556 ; 2.0072160901517448E8 ; 8.814724330721132E7 ; 5.201217688196712E9 ; 0.0
35 ; 2722920.0130683878 ; 2.0072482108591178E8 ; 9.086422838261358E7 ; 5.401939297211886E9 ; 0.0
36 ; 2724726.30882705 ; 2.0072813656533203E8 ; 9.358714839568198E7 ; 5.602664118297798E9 ; 0.0
37 ; 2728350.3178974446 ; 2.0073155282055983E8 ; 9.631187470450902E7 ; 5.803392254863131E9 ; 0.0
38 ; 2730561.9637202662 ; 2.0073506722061545E8 ; 9.904022502240646E7 ; 6.00412380768369E9 ; 0.0
39 ; 2730345.325259472 ; 2.0073867714232573E8 ; 1.0177078698612672E8 ; 6.204858874904305E9 ; 0.0
40 ; 2734415.4172454798 ; 2.0074237997577596E8 ; 1.045011323113862E8 ; 6.405597552046631E9 ; 0.0
41 ; 2735290.4339834116 ; 2.0074617312930572E8 ; 1.0723554772863168E8 ; 6.606339932022407E9 ; 0.0
42 ; 2738807.72417664 ; 2.007500540340553E8 ; 1.0997083816261509E8 ; 6.807086105151712E9 ; 0.0
43 ; 2741570.722329205 ; 2.00754020148073E8 ; 1.1270964588679174E8 ; 7.007836159185768E9 ; 0.0
44 ; 2741504.3471978134 ; 2.0075806895999703E8 ; 1.1545121660912094E8 ; 7.208590179333841E9 ; 0.0
45 ; 2743974.85001106 ; 2.0076219799232817E8 ; 1.1819272095631875E8 ; 7.4093482482938385E9 ; 0.0
46 ; 2744417.132960225 ; 2.0076640480431074E8 ; 1.2093669580632982E8 ; 7.610110446286167E9 ; 0.0
47 ; 2746276.6888074703 ; 2.0077068699444184E8 ; 1.2368111293929005E8 ; 7.810876851090478E9 ; 0.0
48 ; 2747527.3618024127 ; 2.0077504220262966E8 ; 1.2642738962809752E8 ; 8.01164753808492E9 ; 0.0
49 ; 2749177.891345033 ; 2.0077946811202163E8 ; 1.2917491698989993E8 ; 8.21242258028755E9 ; 0.0
50 ; 2750893.8413668317 ; 2.0078396245052472E8 ; 1.3192409488124497E8 ; 8.413202048399571E9 ; 0.0
51 ; 2750994.422887737 ; 2.0078852299203947E8 ; 1.346749887226118E8 ; 8.613986010850096E9 ; 0.0
52 ; 2752024.046487264 ; 2.0079314755742928E8 ; 1.3742598314549956E8 ; 8.814774533842134E9 ; 0.0
53 ; 2751982.476856675 ; 2.0079783401524645E8 ; 1.4017800719198683E8 ; 9.015567681399563E9 ; 0.0
54 ; 2754872.086991394 ; 2.008025802822353E8 ; 1.429299896688435E8 ; 9.21636551541481E9 ; 0.0
55 ; 2753941.046629585 ; 2.008073843236325E8 ; 1.456848617558349E8 ; 9.417168095697046E9 ; 0.0
56 ; 2753768.4236103226 ; 2.008122441532838E8 ; 1.484388028024645E8 ; 9.61797548002068E9 ; 0.0
57 ; 2755238.5400987347 ; 2.008171578335951E8 ; 1.511925712260748E8 ; 9.818787724173964E9 ; 0.0
58 ; 2755983.3365861564 ; 2.008221234753352E8 ; 1.5394780976617354E8 ; 1.0019604882007559E10 ; 0.0
59 ; 2758708.9957774105 ; 2.008271392373067E8 ; 1.567037931027597E8 ; 1.0220427005482895E10 ; 0.0
60 ; 2758057.2489386722 ; 2.0083220332589975E8 ; 1.594625020985371E8 ; 1.0421254144720201E10 ; 0.0
61 ; 2758288.4083381942 ; 2.008373139945433E8 ; 1.6222055934747577E8 ; 1.06220863480461E10 ; 0.0
62 ; 2760405.1703704195 ; 2.0084246954306683E8 ; 1.6497884775581396E8 ; 1.0822923662040644E10 ; 0.0
63 ; 2761293.0946537238 ; 2.0084766831698456E8 ; 1.677392529261844E8 ; 1.102376613158371E10 ; 0.0
64 ; 2761917.27665121 ; 2.0085290870671374E8 ; 1.705005460208381E8 ; 1.1224613799900694E10 ; 0.0
65 ; 2762249.575374233 ; 2.0085818914673677E8 ; 1.7326246329748932E8 ; 1.1425466708607409E10 ; 0.0
66 ; 2762711.7619181033 ; 2.0086350811471716E8 ; 1.7602471287286356E8 ; 1.1626324897754145E10 ; 0.0
67 ; 2763817.293975649 ; 2.0086886413057703E8 ; 1.7878742463478166E8 ; 1.1827188405868862E10 ; 0.0
68 ; 2762958.9779844885 ; 2.0087425575554493E8 ; 1.815512419287573E8 ; 1.202805726999944E10 ; 0.0
69 ; 2764571.890051639 ; 2.0087968159117994E8 ; 1.843142009067418E8 ; 1.2228931525754984E10 ; 0.0
70 ; 2763801.5484844767 ; 2.008851402783789E8 ; 1.8707877279679343E8 ; 1.2429811207346165E10 ; 0.0
71 ; 2765080.5803354234 ; 2.0089063049637246E8 ; 1.898425743452779E8 ; 1.2630696347624544E10 ; 0.0
72 ; 2765199.7460929328 ; 2.0089615096171442E8 ; 1.9260765492561334E8 ; 1.2831586978120916E10 ; 0.0
73 ; 2766709.221070081 ; 2.009017004272695E8 ; 1.953728546717063E8 ; 1.303248312908263E10 ; 0.0
74 ; 2766474.6702388483 ; 2.009072776812028E8 ; 1.9813956389277637E8 ; 1.32333848295099E10 ; 0.0
75 ; 2766828.9123385525 ; 2.0091288154597494E8 ; 2.0090603856301522E8 ; 1.3434292107191101E10 ; 0.0
76 ; 2767062.483161063 ; 2.009185108773456E8 ; 2.0367286747535378E8 ; 1.3635204988737076E10 ; 0.0
77 ; 2769192.4861684237 ; 2.0092416456338796E8 ; 2.0643992995851484E8 ; 1.3836123499614422E10 ; 0.0
78 ; 2766470.5623022974 ; 2.0092984152351692E8 ; 2.0920912244468325E8 ; 1.403704766417781E10 ; 0.0
79 ; 2767286.1688172272 ; 2.0093554070753196E8 ; 2.1197559300698555E8 ; 1.4237977505701328E10 ; 0.0
80 ; 2765065.4160247548 ; 2.0094126109467736E8 ; 2.1474287917580277E8 ; 1.4438913046408861E10 ; 0.0
81 ; 2765970.2360623474 ; 2.0094700169272053E8 ; 2.175079445918275E8 ; 1.4639854307503538E10 ; 0.0
82 ; 2765157.6814911687 ; 2.0095276153704947E8 ; 2.2027391482788986E8 ; 1.4840801309196259E10 ; 0.0
83 ; 2764058.0510329898 ; 2.0095853968979082E8 ; 2.2303907250938103E8 ; 1.5041754070733309E10 ; 0.0
84 ; 2763156.6821224093 ; 2.0096433523894855E8 ; 2.2580313056041402E8 ; 1.52427126104231E10 ; 0.0
85 ; 2763459.7857114803 ; 2.009701472975644E8 ; 2.2856628724253643E8 ; 1.5443676945662048E10 ; 0.0
86 ; 2762779.639274246 ; 2.009759750028999E8 ; 2.313297470282479E8 ; 1.5644647092959612E10 ; 0.0
87 ; 2761180.0303831655 ; 2.0098181751564077E8 ; 2.3409252666752213E8 ; 1.5845623067962511E10 ; 0.0
88 ; 2760796.6066308264 ; 2.009876740191235E8 ; 2.368537066979053E8 ; 1.6046604885478151E10 ; 0.0
89 ; 2760831.877933873 ; 2.0099354371858397E8 ; 2.3961450330453613E8 ; 1.6247592559497274E10 ; 0.0
90 ; 2759808.9849636722 ; 2.0099942584042856E8 ; 2.4237533518247E8 ; 1.6448586103215858E10 ; 0.0
91 ; 2758810.7648187345 ; 2.0100531963152713E8 ; 2.4513514416743368E8 ; 1.6649585529056288E10 ; 0.0
92 ; 2759777.6607166235 ; 2.0101122435852793E8 ; 2.478939549322524E8 ; 1.6850590848687815E10 ; 0.0
93 ; 2757142.039556179 ; 2.0101713930719396E8 ; 2.5065373259296903E8 ; 1.7051602073046343E10 ; 0.0
94 ; 2758154.54630674 ; 2.0102306378176066E8 ; 2.534108746325252E8 ; 1.725261921235354E10 ; 0.0
95 ; 2755881.929625115 ; 2.0102899710431442E8 ; 2.5616902917883193E8 ; 1.74536422761353E10 ; 0.0
96 ; 2754663.847263373 ; 2.0103493861419156E8 ; 2.5892491110845706E8 ; 1.7654671273239613E10 ; 0.0
97 ; 2754211.156827338 ; 2.0104088766739738E8 ; 2.6167957495572042E8 ; 1.7855706211853806E10 ; 0.0
98 ; 2752745.583984804 ; 2.010468436360448E8 ; 2.6443378611254776E8 ; 1.8056747099521202E10 ; 0.0
99 ; 2751751.117397505 ; 2.0105280590781194E8 ; 2.6718653169653255E8 ; 1.8257793943157246E10 ; 0.0
100 ; 2751302.702538416 ; 2.0105877388541877E8 ; 2.6993828281393003E8 ; 1.8458846749065056E10 ; 0.0
101 ; 2750404.350073454 ; 2.0106474698612127E8 ; 2.7268958551646847E8 ; 1.8659905522950474E10 ; 0.0
102 ; 2749521.053734828 ; 2.010707246412239E8 ; 2.754399898665419E8 ; 1.8860970269936596E10 ; 0.0
103 ; 2749083.357421855 ; 2.010767062956086E8 ; 2.7818951092027676E8 ; 1.906204099457782E10 ; 0.0
104 ; 2749417.2343072766 ; 2.010826914072809E8 ; 2.8093859427769864E8 ; 1.926311770087343E10 ; 0.0
105 ; 2747561.965942792 ; 2.0108867944693178E8 ; 2.836880115120059E8 ; 1.946420039228071E10 ; 0.0
106 ; 2744421.9941532267 ; 2.0109466989751548E8 ; 2.864355734779487E8 ; 1.966528907172764E10 ; 0.0
107 ; 2743559.890288806 ; 2.011006622538422E8 ; 2.891799954721019E8 ; 1.9866383741625153E10 ; 0.0
108 ; 2743084.9344875747 ; 2.0110665602218547E8 ; 2.9192355536239076E8 ; 2.0067484403878994E10 ; 0.0
109 ; 2741019.4358990933 ; 2.011126507199039E8 ; 2.9466664029687834E8 ; 2.026859105990118E10 ; 0.0
110 ; 2739764.470750598 ; 2.011186458750762E8 ; 2.974076597327774E8 ; 2.0469703710621082E10 ; 0.0
111 ; 2739381.10350328 ; 2.011246410261499E8 ; 3.00147424203528E8 ; 2.067082235649616E10 ; 0.0
112 ; 2736971.5104905055 ; 2.0113063572160247E8 ; 3.028868053070313E8 ; 2.087194699752231E10 ; 0.0
113 ; 2737075.861896525 ; 2.0113662951961485E8 ; 3.0562377681752175E8 ; 2.107307763324391E10 ; 0.0
114 ; 2736588.6059787697 ; 2.01142621987757E8 ; 3.0836085267941827E8 ; 2.1274214262763527E10 ; 0.0
115 ; 2734905.9939400624 ; 2.011486127026848E8 ; 3.1109744128539705E8 ; 2.1475356884751286E10 ; 0.0
116 ; 2731405.1733516064 ; 2.0115460124984798E8 ; 3.138323472793371E8 ; 2.167650549745397E10 ; 0.0
117 ; 2730772.4959947127 ; 2.0116058722320879E8 ; 3.165637524526887E8 ; 2.187766009870382E10 ; 0.0
118 ; 2729991.0128098344 ; 2.0116657022497094E8 ; 3.192945249486834E8 ; 2.207882068592703E10 ; 0.0
119 ; 2729368.1685460354 ; 2.011725498653183E8 ; 3.220245159614932E8 ; 2.2279987256152E10 ; 0.0
120 ; 2728261.200534008 ; 2.0117852576216337E8 ; 3.247538841300392E8 ; 2.248115980601732E10 ; 0.0
121 ; 2725416.7681051698 ; 2.0118449754090473E8 ; 3.274821453305732E8 ; 2.2682338331779484E10 ; 0.0
122 ; 2723672.422801594 ; 2.0119046483419335E8 ; 3.3020756209867835E8 ; 2.288352282932039E10 ; 0.0
123 ; 2722525.229882021 ; 2.0119642728170756E8 ; 3.3293123452147996E8 ; 2.3084713294154583E10 ; 0.0
124 ; 2721833.0603598026 ; 2.0120238452993608E8 ; 3.3565375975136197E8 ; 2.328590972143629E10 ; 0.0
125 ; 2719683.1958865575 ; 2.0120833623196894E8 ; 3.3837559281172174E8 ; 2.348711210596623E10 ; 0.0
126 ; 2717395.4630282163 ; 2.0121428204729608E8 ; 3.410952760076083E8 ; 2.3688320442198196E10 ; 0.0
127 ; 2716813.413366627 ; 2.012202216416132E8 ; 3.438126714706365E8 ; 2.388953472424549E10 ; 0.0
128 ; 2714935.6408210783 ; 2.0122615468663463E8 ; 3.465294848840031E8 ; 2.4090754945887104E10 ; 0.0
129 ; 2713445.3748444044 ; 2.0123208085991296E8 ; 3.492444205248242E8 ; 2.429198110057374E10 ; 0.0
130 ; 2711082.6709343954 ; 2.0123799984466526E8 ; 3.5195786589966863E8 ; 2.449321318143365E10 ; 0.0
131 ; 2707567.409489707 ; 2.012439113296055E8 ; 3.54668948570603E8 ; 2.4694451181278316E10 ; 0.0
132 ; 2705510.4974020887 ; 2.0124981500878292E8 ; 3.573765159800927E8 ; 2.489569509260792E10 ; 0.0
133 ; 2705168.2999077006 ; 2.012557105814264E8 ; 3.600820264774948E8 ; 2.5096944907616703E10 ; 0.0
134 ; 2702113.6586107076 ; 2.0126159775179434E8 ; 3.6278719477740246E8 ; 2.5298200618198128E10 ; 0.0
135 ; 2699916.987636187 ; 2.012674762290296E8 ; 3.6548930843601316E8 ; 2.549946221594992E10 ; 0.0
136 ; 2696269.9510401236 ; 2.0127334572702017E8 ; 3.681892254236494E8 ; 2.570072969217895E10 ; 0.0
137 ; 2692176.7952889986 ; 2.0127920596426436E8 ; 3.708854953746895E8 ; 2.590200303790597E10 ; 0.0
138 ; 2690247.8495946154 ; 2.0128505666374096E8 ; 3.735776721699785E8 ; 2.6103282243870235E10 ; 0.0
139 ; 2688443.9059462557 ; 2.0129089755278397E8 ; 3.762679200195731E8 ; 2.6304567300533978E10 ; 0.0
140 ; 2685150.471268074 ; 2.0129672836296168E8 ; 3.7895636392551935E8 ; 2.650585819808676E10 ; 0.0
141 ; 2684220.544115055 ; 2.0130254882996023E8 ; 3.816415143967874E8 ; 2.6707154926449722E10 ; 0.0
142 ; 2680991.4072022582 ; 2.0130835869347095E8 ; 3.843257349409025E8 ; 2.6908457475279682E10 ; 0.0
143 ; 2678181.6501719677 ; 2.0131415769708195E8 ; 3.870067263481047E8 ; 2.7109765833973152E10 ; 0.0
144 ; 2674322.0715891006 ; 2.0131994558817336E8 ; 3.896849079982767E8 ; 2.7311079991670235E10 ; 0.0
145 ; 2672920.5676995986 ; 2.0132572211781612E8 ; 3.923592300698658E8 ; 2.7512399937258408E10 ; 0.0
146 ; 2670530.255850481 ; 2.0133148704067463E8 ; 3.9503215063756543E8 ; 2.7713725659376225E10 ; 0.0
147 ; 2670437.5944352713 ; 2.013372401149123E8 ; 3.977026808934159E8 ; 2.79150571464169E10 ; 0.0
148 ; 2668009.114506029 ; 2.013429811021009E8 ; 4.003731184878512E8 ; 2.8116394386531815E10 ; 0.0
149 ; 2665048.4691505604 ; 2.013487097671326E8 ; 4.030411276023572E8 ; 2.8317737367633915E10 ; 0.0
150 ; 2663999.396647372 ; 2.013544258781352E8 ; 4.0570617607150775E8 ; 2.8519086077401047E10 ; 0.0
151 ; 2663143.365293799 ; 2.0136012920639044E8 ; 4.0837017546815515E8 ; 2.8720440503279182E10 ; 0.0
152 ; 2661468.04599624 ; 2.0136581952625474E8 ; 4.1103331883344895E8 ; 2.8921800632485573E10 ; 0.0
153 ; 2658916.7367143645 ; 2.0137149661508304E8 ; 4.136947868794452E8 ; 2.912316645201183E10 ; 0.0
154 ; 2657365.9171963846 ; 2.0137716025315496E8 ; 4.1635370361615956E8 ; 2.932453794862691E10 ; 0.0
155 ; 2656547.9606192163 ; 2.0138281022360358E8 ; 4.1901106953335595E8 ; 2.9525915108880066E10 ; 0.0
156 ; 2654366.281139517 ; 2.0138844631234652E8 ; 4.2166761749397516E8 ; 2.972729791910367E10 ; 0.0
157 ; 2651266.63466101 ; 2.013940683080196E8 ; 4.2432198377511466E8 ; 2.9928686365416016E10 ; 0.0
158 ; 2650568.314419833 ; 2.0139967600191244E8 ; 4.269732504097757E8 ; 3.0130080433724033E10 ; 0.0
159 ; 2647782.833038778 ; 2.0140526918790638E8 ; 4.296238187241955E8 ; 3.0331480109725945E10 ; 0.0
160 ; 2645666.2950035203 ; 2.0141084766241452E8 ; 4.322716015572343E8 ; 3.0532885378913853E10 ; 0.0
161 ; 2644078.1544863535 ; 2.0141641122432357E8 ; 4.349172678522378E8 ; 3.0734296226576267E10 ; 0.0
162 ; 2643204.0970446453 ; 2.0142195967493784E8 ; 4.375613460067242E8 ; 3.093571263780059E10 ; 0.0
163 ; 2640785.197989658 ; 2.0142749281792498E8 ; 4.402045501037688E8 ; 3.113713459747553E10 ; 0.0
164 ; 2637926.7399334293 ; 2.014330104592636E8 ; 4.4284533530175847E8 ; 3.1338562090293453E10 ; 0.0
165 ; 2635693.232824469 ; 2.0143851240719244E8 ; 4.454832620416919E8 ; 3.1539995100752716E10 ; 0.0
166 ; 2634824.7348654256 ; 2.014439984721615E8 ; 4.4811895527451634E8 ; 3.174143361315991E10 ; 0.0
167 ; 2632348.683591868 ; 2.0144946846678445E8 ; 4.507537800093818E8 ; 3.194287761163207E10 ; 0.0
168 ; 2631437.415912089 ; 2.014549222057929E8 ; 4.533861286929736E8 ; 3.2144327080098854E10 ; 0.0
169 ; 2629137.8714570324 ; 2.014603595059919E8 ; 4.560175661088857E8 ; 3.2345782002304646E10 ; 0.0
170 ; 2627748.572555467 ; 2.0146578018621713E8 ; 4.5864670398034275E8 ; 3.254724236181064E10 ; 0.0
171 ; 2624784.816299402 ; 2.0147118406729332E8 ; 4.612744525528982E8 ; 3.2748708141996857E10 ; 0.0
172 ; 2622802.825964934 ; 2.0147657097199395E8 ; 4.638992373691976E8 ; 3.295017932606415E10 ; 0.0
173 ; 2621719.741043971 ; 2.014819407250026E8 ; 4.6652204019516253E8 ; 3.3151655897036144E10 ; 0.0
174 ; 2620278.733866453 ; 2.0148729315287504E8 ; 4.691437599362065E8 ; 3.3353137837761147E10 ; 0.0
175 ; 2617820.883417907 ; 2.0149262808400312E8 ; 4.71764038670073E8 ; 3.355462513091402E10 ; 0.0
176 ; 2618673.912422505 ; 2.0149794534857914E8 ; 4.743818595534909E8 ; 3.3756117758998024E10 ; 0.0
177 ; 2617282.2472748565 ; 2.01503244778562E8 ; 4.7700053346591336E8 ; 3.3957615704346603E10 ; 0.0
178 ; 2615799.447997219 ; 2.0150852620764413E8 ; 4.7961781571318823E8 ; 3.4159118949125164E10 ; 0.0
179 ; 2613842.5623453776 ; 2.015137894712193E8 ; 4.8223361516118544E8 ; 3.436062747533281E10 ; 0.0
180 ; 2613498.295783315 ; 2.015190344063519E8 ; 4.848474577235308E8 ; 3.456214126480403E10 ; 0.0
181 ; 2610658.7873735903 ; 2.0152426085174674E8 ; 4.8746095601931417E8 ; 3.476366029921038E10 ; 0.0
182 ; 2609889.0740336976 ; 2.0152946864772016E8 ; 4.900716148066878E8 ; 3.4965184560062126E10 ; 0.0
183 ; 2608955.8369053607 ; 2.0153465763617173E8 ; 4.9268150388072145E8 ; 3.516671402870985E10 ; 0.0
184 ; 2607903.9481284413 ; 2.0153982766055724E8 ; 4.952904597176268E8 ; 3.5368248686346016E10 ; 0.0
185 ; 2606950.794806142 ; 2.0154497856586203E8 ; 4.978983636657553E8 ; 3.556978851400658E10 ; 0.0
186 ; 2606150.135927518 ; 2.0155011019857562E8 ; 5.005053144605614E8 ; 3.577133349257244E10 ; 0.0
187 ; 2605477.609225999 ; 2.015552224066669E8 ; 5.031114645964889E8 ; 3.597288360277102E10 ; 0.0
188 ; 2602693.6524820332 ; 2.0156031503956005E8 ; 5.057169422057149E8 ; 3.617443882517769E10 ; 0.0
189 ; 2602206.062778324 ; 2.0156538794811136E8 ; 5.083196358581969E8 ; 3.637599914021725E10 ; 0.0
190 ; 2601024.3392953505 ; 2.0157044098458675E8 ; 5.109218419209752E8 ; 3.657756452816536E10 ; 0.0
191 ; 2599127.904759171 ; 2.0157547400263983E8 ; 5.1352286626027054E8 ; 3.677913496914995E10 ; 0.0
192 ; 2599118.988396336 ; 2.0158048685729074E8 ; 5.161219941650297E8 ; 3.698071044315259E10 ; 0.0
193 ; 2599032.785561684 ; 2.0158547940490577E8 ; 5.1872111315342605E8 ; 3.718229093000988E10 ; 0.0
194 ; 2595906.828338723 ; 2.0159045150317737E8 ; 5.2132014593898773E8 ; 3.738387640941479E10 ; 0.0
195 ; 2594597.7539756713 ; 2.015954030111049E8 ; 5.239160527673265E8 ; 3.758546686091796E10 ; 0.0
196 ; 2594400.227555995 ; 2.01600333788976E8 ; 5.2651065052130216E8 ; 3.778706226392907E10 ; 0.0
197 ; 2592450.122309625 ; 2.0160524369834846E8 ; 5.2910505074885815E8 ; 3.798866259771805E10 ; 0.0
198 ; 2590876.230632256 ; 2.016101326020326E8 ; 5.316975008711678E8 ; 3.81902678414164E10 ; 0.0
199 ; 2590989.36242226 ; 2.0161500036407444E8 ; 5.342883771018E8 ; 3.839187797401843E10 ; 0.0
200 ; 2589884.6033177767 ; 2.0161984684973893E8 ; 5.368793664642223E8 ; 3.859349297438251E10 ; 0.0
