CSV File for the City 3 on Day 239
1 - Minute m 
2 - Power Consumed at minute m 
3 - Power Produced at minute m 
4 - Energy Consumed since the beginning of the day 
5 - Energy Produced since the beginning of the day 
6 - Energy Lost since the beginning of the day on lines starting from the city
 
0 ; 320110.59274391574 ; 1.0527131934352276E8 ; 0.0 ; 0.0 ; 0.0
1 ; 321854.368560501 ; 1.0542280234453702E8 ; 320110.59274391574 ; 1.0527131934352276E8 ; 0.0
2 ; 324857.5770493137 ; 1.058831601648862E8 ; 641964.9613044168 ; 2.1069412168805978E8 ; 0.0
3 ; 329668.92751035537 ; 1.0665241082114011E8 ; 966822.5383537305 ; 3.16577281852946E8 ; 0.0
4 ; 331923.99465389113 ; 1.0773057220118457E8 ; 1296491.4658640858 ; 4.232296926740861E8 ; 0.0
5 ; 335790.200653597 ; 1.0911766157611877E8 ; 1628415.460517977 ; 5.3096026487527066E8 ; 0.0
6 ; 342779.9400133261 ; 1.1081369503942814E8 ; 1964205.661171574 ; 6.400779264513894E8 ; 0.0
7 ; 348848.2175712332 ; 1.1281868690220249E8 ; 2306985.6011849 ; 7.508916214908175E8 ; 0.0
8 ; 360467.6268617344 ; 1.1513264908660156E8 ; 2655833.8187561333 ; 8.6371030839302E8 ; 0.0
9 ; 376515.5451294731 ; 1.1775559056988245E8 ; 3016301.4456178676 ; 9.788429574796216E8 ; 0.0
10 ; 404014.15350288484 ; 1.206875169347415E8 ; 3392816.990747341 ; 1.096598548049504E9 ; 0.0
11 ; 446203.2339743148 ; 1.2392843007605532E8 ; 3796831.1442502257 ; 1.2172860649842455E9 ; 0.0
12 ; 513956.2721865622 ; 1.2747832809894726E8 ; 4243034.3782245405 ; 1.3412144950603008E9 ; 0.0
13 ; 575749.7002996214 ; 1.31337205420721E8 ; 4756990.650411103 ; 1.468692823159248E9 ; 0.0
14 ; 584585.7472014187 ; 1.3550505306411952E8 ; 5332740.3507107245 ; 1.6000300285799692E9 ; 0.0
15 ; 586806.1763644452 ; 1.3998185910698295E8 ; 5917326.097912143 ; 1.7355350816440887E9 ; 0.0
16 ; 590612.9199670353 ; 1.4476760923822162E8 ; 6504132.274276588 ; 1.8755169407510717E9 ; 0.0
17 ; 593179.5850917973 ; 1.4986228736435E8 ; 7094745.194243623 ; 2.0202845499892933E9 ; 0.0
18 ; 597011.2711214225 ; 1.5526587621426892E8 ; 7687924.779335421 ; 2.1701468373536434E9 ; 0.0
19 ; 600326.3142765419 ; 1.6097835790009257E8 ; 8284936.050456843 ; 2.325412713567912E9 ; 0.0
20 ; 603449.7180138364 ; 1.6699971440525112E8 ; 8885262.364733385 ; 2.4863910714680047E9 ; 0.0
21 ; 605069.5996218643 ; 1.733299279847345E8 ; 9488712.082747221 ; 2.6533907858732557E9 ; 0.0
22 ; 609141.8502348849 ; 1.799689814739657E8 ; 1.0093781682369085E7 ; 2.8267207138579903E9 ; 0.0
23 ; 612922.3395014848 ; 1.8691685851132202E8 ; 1.070292353260397E7 ; 3.006689695331956E9 ; 0.0
24 ; 616763.4617825288 ; 1.941735436846121E8 ; 1.1315845872105455E7 ; 3.193606553843278E9 ; 0.0
25 ; 620235.352953049 ; 2.0042706351250258E8 ; 1.1932609333887983E7 ; 3.38778009752789E9 ; 0.0
26 ; 622398.3526180749 ; 2.0043095251466474E8 ; 1.2552844686841032E7 ; 3.588207161040393E9 ; 0.0
27 ; 626592.4870546088 ; 2.0043496773227674E8 ; 1.3175243039459106E7 ; 3.7886381135550575E9 ; 0.0
28 ; 630224.1886037816 ; 2.0043909794345933E8 ; 1.3801835526513714E7 ; 3.9890730812873344E9 ; 0.0
29 ; 630907.7752097849 ; 2.0044333290707576E8 ; 1.4432059715117496E7 ; 4.189512179230794E9 ; 0.0
30 ; 636208.0977023263 ; 2.004476633021369E8 ; 1.506296749032728E7 ; 4.38995551213787E9 ; 0.0
31 ; 640058.7519157622 ; 2.004520806613364E8 ; 1.5699175588029606E7 ; 4.590403175440006E9 ; 0.0
32 ; 642010.3498727544 ; 2.0045657730257234E8 ; 1.6339234339945368E7 ; 4.790855256101342E9 ; 0.0
33 ; 645175.528324965 ; 2.00461146261164E8 ; 1.698124468981812E7 ; 4.991311833403914E9 ; 0.0
34 ; 648067.2635843933 ; 2.0046578122457463E8 ; 1.7626420218143087E7 ; 5.191772979665078E9 ; 0.0
35 ; 650718.0367399502 ; 2.0047047647077549E8 ; 1.827448748172748E7 ; 5.392238760889653E9 ; 0.0
36 ; 653777.8483992793 ; 2.004752268108888E8 ; 1.892520551846743E7 ; 5.592709237360429E9 ; 0.0
37 ; 656882.5186943925 ; 2.0048002753639245E8 ; 1.9578983366866708E7 ; 5.793184464171318E9 ; 0.0
38 ; 659493.6682551652 ; 2.0048487437092546E8 ; 2.02358658855611E7 ; 5.99366449170771E9 ; 0.0
39 ; 660593.7477525944 ; 2.0048976342657033E8 ; 2.0895359553816266E7 ; 6.194149366078636E9 ; 0.0
40 ; 663724.1234467648 ; 2.004946911643863E8 ; 2.1555953301568862E7 ; 6.394639129505206E9 ; 0.0
41 ; 665874.39698214 ; 2.0049965435890898E8 ; 2.221967742501563E7 ; 6.595133820669593E9 ; 0.0
42 ; 667820.5261585689 ; 2.0050465006630373E8 ; 2.288555182199777E7 ; 6.7956334750285015E9 ; 0.0
43 ; 671256.4526035094 ; 2.005096755958518E8 ; 2.3553372348156337E7 ; 6.996138125094805E9 ; 0.0
44 ; 674278.8032974702 ; 2.0051472848445514E8 ; 2.4224628800759844E7 ; 7.196647800690657E9 ; 0.0
45 ; 673567.5802926266 ; 2.0051980647385928E8 ; 2.4898907604057316E7 ; 7.397162529175112E9 ; 0.0
46 ; 676470.813485732 ; 2.005249074903145E8 ; 2.5572475184349943E7 ; 7.597682335648971E9 ; 0.0
47 ; 677483.1293030776 ; 2.005300296264163E8 ; 2.6248945997835673E7 ; 7.798207243139285E9 ; 0.0
48 ; 678867.6163588098 ; 2.0053517112488964E8 ; 2.6926429127138752E7 ; 7.998737272765701E9 ; 0.0
49 ; 678865.1371839653 ; 2.0054033036410418E8 ; 2.760529674349756E7 ; 8.199272443890591E9 ; 0.0
50 ; 682314.6847566029 ; 2.0054550584512866E8 ; 2.8284161880681526E7 ; 8.399812774254695E9 ; 0.0
51 ; 683685.0352705577 ; 2.0055069618015337E8 ; 2.896647656543813E7 ; 8.600358280099823E9 ; 0.0
52 ; 685407.248484261 ; 2.0055590008212784E8 ; 2.9650161600708686E7 ; 8.800908976279976E9 ; 0.0
53 ; 687528.5863664343 ; 2.005611163554783E8 ; 3.0335568849192947E7 ; 9.001464876362104E9 ; 0.0
54 ; 687970.0595389747 ; 2.0056634388778397E8 ; 3.102309743555938E7 ; 9.202025992717583E9 ; 0.0
55 ; 689354.2734904725 ; 2.0057158164230597E8 ; 3.1711067495098356E7 ; 9.402592336605366E9 ; 0.0
56 ; 689059.9854365789 ; 2.0057682865127417E8 ; 3.240042176858883E7 ; 9.603163918247671E9 ; 0.0
57 ; 691622.217083149 ; 2.0058208400984827E8 ; 3.3089481754025407E7 ; 9.803740746898945E9 ; 0.0
58 ; 691030.0580839226 ; 2.005873468706794E8 ; 3.3781103971108556E7 ; 1.0004322830908792E10 ; 0.0
59 ; 691522.020863933 ; 2.0059261643900707E8 ; 3.447213402919248E7 ; 1.0204910177779472E10 ; 0.0
60 ; 693627.4919929814 ; 2.0059789196823302E8 ; 3.516365605005641E7 ; 1.040550279421848E10 ; 0.0
61 ; 694457.9527397436 ; 2.0060317275592142E8 ; 3.585728354204939E7 ; 1.0606100686186712E10 ; 0.0
62 ; 697306.2976727006 ; 2.0060845814018005E8 ; 3.655174149478914E7 ; 1.0806703858942635E10 ; 0.0
63 ; 698962.7523251743 ; 2.006137474963817E8 ; 3.724904779246184E7 ; 1.1007312317082815E10 ; 0.0
64 ; 698568.4692972085 ; 2.006190402341913E8 ; 3.794801054478702E7 ; 1.1207926064579197E10 ; 0.0
65 ; 698090.2703521546 ; 2.0062433579486626E8 ; 3.864657901408423E7 ; 1.1408545104813389E10 ; 0.0
66 ; 700606.6069595575 ; 2.006296336488024E8 ; 3.934466928443638E7 ; 1.1609169440608255E10 ; 0.0
67 ; 701954.7674855873 ; 2.0063493329330072E8 ; 4.004527589139594E7 ; 1.1809799074257057E10 ; 0.0
68 ; 702696.1265953617 ; 2.0064023425053257E8 ; 4.074723065888153E7 ; 1.2010434007550358E10 ; 0.0
69 ; 703275.7764404265 ; 2.0064553606568348E8 ; 4.144992678547689E7 ; 1.221107424180089E10 ; 0.0
70 ; 704687.457441432 ; 2.0065083830525845E8 ; 4.215320256191732E7 ; 1.2411719777866573E10 ; 0.0
71 ; 705944.3558726419 ; 2.0065614055553252E8 ; 4.2857890019358754E7 ; 1.2612370616171831E10 ; 0.0
72 ; 705639.4550033436 ; 2.0066144242113283E8 ; 4.356383437523139E7 ; 1.2813026756727364E10 ; 0.0
73 ; 707471.5786329794 ; 2.0066674352373984E8 ; 4.4269473830234736E7 ; 1.3013688199148497E10 ; 0.0
74 ; 708104.8921005514 ; 2.0067204350089604E8 ; 4.497694540886772E7 ; 1.3214354942672237E10 ; 0.0
75 ; 708449.7848761148 ; 2.0067734200491244E8 ; 4.568505030096827E7 ; 1.3415026986173134E10 ; 0.0
76 ; 709427.6511023543 ; 2.0068263870186368E8 ; 4.639350008584438E7 ; 1.3615704328178047E10 ; 0.0
77 ; 709957.9179052347 ; 2.006879332706638E8 ; 4.710292773694674E7 ; 1.3816386966879911E10 ; 0.0
78 ; 709224.0393913875 ; 2.0069322540221506E8 ; 4.781288565485197E7 ; 1.4017074900150576E10 ; 0.0
79 ; 711262.9221229957 ; 2.0069851479862374E8 ; 4.8522109694243364E7 ; 1.4217768125552792E10 ; 0.0
80 ; 710680.4904140692 ; 2.0070380117247644E8 ; 4.923337261636636E7 ; 1.4418466640351416E10 ; 0.0
81 ; 709256.3307079696 ; 2.007090842461722E8 ; 4.9944053106780425E7 ; 1.4619170441523891E10 ; 0.0
82 ; 709432.3970639494 ; 2.0071436375130498E8 ; 5.065330943748839E7 ; 1.4819879525770063E10 ; 0.0
83 ; 710378.7648423992 ; 2.007196394280927E8 ; 5.136274183455234E7 ; 1.5020593889521368E10 ; 0.0
84 ; 709972.6455790747 ; 2.007249110248484E8 ; 5.207312059939474E7 ; 1.5221313528949461E10 ; 0.0
85 ; 709366.9125705252 ; 2.0073017829749063E8 ; 5.2783093244973816E7 ; 1.542203843997431E10 ; 0.0
86 ; 710727.8606569917 ; 2.0073544100908902E8 ; 5.3492460157544345E7 ; 1.5622768618271801E10 ; 0.0
87 ; 708734.7935788553 ; 2.007406989294427E8 ; 5.4203188018201336E7 ; 1.582350405928089E10 ; 0.0
88 ; 707731.8227355286 ; 2.0074595183468884E8 ; 5.491192281178019E7 ; 1.6024244758210333E10 ; 0.0
89 ; 708681.7441823905 ; 2.007511995069385E8 ; 5.561965463451572E7 ; 1.6224990710045021E10 ; 0.0
90 ; 709185.9433234214 ; 2.0075644173393816E8 ; 5.632833637869811E7 ; 1.642574190955196E10 ; 0.0
91 ; 708409.9028781553 ; 2.0076167830875444E8 ; 5.703752232202153E7 ; 1.6626498351285898E10 ; 0.0
92 ; 708197.1603566934 ; 2.007669090294803E8 ; 5.774593222489969E7 ; 1.6827260029594652E10 ; 0.0
93 ; 706607.2201966525 ; 2.0077213369896144E8 ; 5.845412938525638E7 ; 1.7028026938624132E10 ; 0.0
94 ; 707847.7984921873 ; 2.0077735212454066E8 ; 5.916073660545303E7 ; 1.7228799072323093E10 ; 0.0
95 ; 706260.6825688822 ; 2.0078256411781937E8 ; 5.9868584403945215E7 ; 1.7429576424447636E10 ; 0.0
96 ; 707128.5884656193 ; 2.007877694944349E8 ; 6.05748450865141E7 ; 1.7630358988565456E10 ; 0.0
97 ; 706898.884879419 ; 2.0079296807385206E8 ; 6.128197367497972E7 ; 1.783114675805989E10 ; 0.0
98 ; 705461.5033693563 ; 2.007981596791683E8 ; 6.1988872559859134E7 ; 1.8031939726133743E10 ; 0.0
99 ; 705913.0317560923 ; 2.0080334413693136E8 ; 6.269433406322849E7 ; 1.8232737885812912E10 ; 0.0
100 ; 705405.7911662048 ; 2.0080852127696827E8 ; 6.340024709498458E7 ; 1.8433541229949844E10 ; 0.0
101 ; 704341.4321463007 ; 2.0081369093222535E8 ; 6.4105652886150785E7 ; 1.8634349751226814E10 ; 0.0
102 ; 703861.6014104309 ; 2.00818852938618E8 ; 6.480999431829709E7 ; 1.883516344215904E10 ; 0.0
103 ; 702921.4853809307 ; 2.008240071348898E8 ; 6.551385591970752E7 ; 1.9035982295097656E10 ; 0.0
104 ; 703505.0451986312 ; 2.0082915336248022E8 ; 6.6216777405088454E7 ; 1.9236806302232548E10 ; 0.0
105 ; 703523.7682623903 ; 2.008342914654003E8 ; 6.692028245028709E7 ; 1.9437635455595028E10 ; 0.0
106 ; 702386.1243272605 ; 2.008394212901159E8 ; 6.762380621854948E7 ; 1.963846974706043E10 ; 0.0
107 ; 702807.2156191482 ; 2.008445426854379E8 ; 6.832619234287673E7 ; 1.9839309168350544E10 ; 0.0
108 ; 701710.5262163877 ; 2.0084965550241876E8 ; 6.902899955849588E7 ; 2.004015371103598E10 ; 0.0
109 ; 700145.4607761984 ; 2.008547595942553E8 ; 6.973071008471227E7 ; 2.02410033665384E10 ; 0.0
110 ; 698613.2275594366 ; 2.0085985481619707E8 ; 7.043085554548846E7 ; 2.0441858126132652E10 ; 0.0
111 ; 700670.4433003148 ; 2.0086494102546E8 ; 7.11294687730479E7 ; 2.064271798094885E10 ; 0.0
112 ; 697150.6802843518 ; 2.0087001808114508E8 ; 7.183013921634822E7 ; 2.0843582921974308E10 ; 0.0
113 ; 697421.5171866431 ; 2.0087508584416145E8 ; 7.252728989663257E7 ; 2.1044452940055454E10 ; 0.0
114 ; 696329.1718953516 ; 2.008801441771541E8 ; 7.322471141381921E7 ; 2.1245328025899616E10 ; 0.0
115 ; 696585.9525498911 ; 2.0088519294443542E8 ; 7.392104058571456E7 ; 2.144620817007677E10 ; 0.0
116 ; 695977.9508143915 ; 2.0089023201192072E8 ; 7.461762653826445E7 ; 2.1647093363021206E10 ; 0.0
117 ; 696588.2335510626 ; 2.0089526124706712E8 ; 7.531360448907885E7 ; 2.1847983595033127E10 ; 0.0
118 ; 695475.671973183 ; 2.009002805188159E8 ; 7.60101927226299E7 ; 2.2048878856280193E10 ; 0.0
119 ; 693239.5488489148 ; 2.0090528969753802E8 ; 7.670566839460309E7 ; 2.2249779136799007E10 ; 0.0
120 ; 694126.5330818843 ; 2.009102886549825E8 ; 7.7398907943452E7 ; 2.2450684426496544E10 ; 0.0
121 ; 692397.8491409309 ; 2.0091527726422766E8 ; 7.809303447653389E7 ; 2.2651594715151527E10 ; 0.0
122 ; 692710.6058625436 ; 2.0092025539963487E8 ; 7.878543232567482E7 ; 2.2852509992415756E10 ; 0.0
123 ; 691615.6344906655 ; 2.009252229368048E8 ; 7.947814293153736E7 ; 2.305343024781539E10 ; 0.0
124 ; 688737.8959160924 ; 2.00930179752536E8 ; 8.016975856602803E7 ; 2.3254355470752197E10 ; 0.0
125 ; 688422.916711153 ; 2.0093512572478566E8 ; 8.085849646194412E7 ; 2.3455285650504734E10 ; 0.0
126 ; 688088.7432495265 ; 2.0094006073263225E8 ; 8.154691937865527E7 ; 2.365622077622952E10 ; 0.0
127 ; 688597.5964629205 ; 2.0094498465624037E8 ; 8.223500812190479E7 ; 2.385716083696215E10 ; 0.0
128 ; 686923.5662977347 ; 2.0094989737682718E8 ; 8.292360571836771E7 ; 2.405810582161839E10 ; 0.0
129 ; 685007.6662539523 ; 2.0095479877663067E8 ; 8.361052928466545E7 ; 2.4259055718995216E10 ; 0.0
130 ; 683138.7839521162 ; 2.0095968873887947E8 ; 8.42955369509194E7 ; 2.4460010517771847E10 ; 0.0
131 ; 682291.269830926 ; 2.0096456714776427E8 ; 8.497867573487152E7 ; 2.4660970206510727E10 ; 0.0
132 ; 679101.5448871118 ; 2.0096943388841054E8 ; 8.566096700470245E7 ; 2.4861934773658493E10 ; 0.0
133 ; 679511.1902457916 ; 2.0097428884685293E8 ; 8.634006854958956E7 ; 2.50629042075469E10 ; 0.0
134 ; 675940.3222991722 ; 2.009791319100105E8 ; 8.701957973983535E7 ; 2.5263878496393753E10 ; 0.0
135 ; 675535.918076458 ; 2.0098396296566352E8 ; 8.769552006213452E7 ; 2.5464857628303764E10 ; 0.0
136 ; 673270.1366513347 ; 2.0098878190243137E8 ; 8.837105598021097E7 ; 2.566584159126943E10 ; 0.0
137 ; 672017.3073347057 ; 2.0099358860975137E8 ; 8.904432611686231E7 ; 2.586683037317186E10 ; 0.0
138 ; 669884.362184646 ; 2.0099838297785884E8 ; 8.971634342419702E7 ; 2.6067823961781612E10 ; 0.0
139 ; 667718.5462672516 ; 2.0100316489776802E8 ; 9.038622778638166E7 ; 2.626882234475947E10 ; 0.0
140 ; 665183.0844124733 ; 2.010079342612539E8 ; 9.105394633264892E7 ; 2.646982550965724E10 ; 0.0
141 ; 666085.170529347 ; 2.0101269096083507E8 ; 9.171912941706139E7 ; 2.6670833443918495E10 ; 0.0
142 ; 661424.7068460337 ; 2.0101743488975725E8 ; 9.238521458759074E7 ; 2.687184613487933E10 ; 0.0
143 ; 661006.9165037601 ; 2.010221659419777E8 ; 9.304663929443677E7 ; 2.707286356976909E10 ; 0.0
144 ; 658868.6866712042 ; 2.0102688401215044E8 ; 9.370764621094052E7 ; 2.7273885735711067E10 ; 0.0
145 ; 657867.552689686 ; 2.0103158899561185E8 ; 9.436651489761172E7 ; 2.7474912619723217E10 ; 0.0
146 ; 655843.3257727403 ; 2.010362807883675E8 ; 9.502438245030141E7 ; 2.767594420871883E10 ; 0.0
147 ; 655812.186602589 ; 2.010409592870792E8 ; 9.568022577607416E7 ; 2.78769804895072E10 ; 0.0
148 ; 654228.7481249825 ; 2.0104562438905266E8 ; 9.633603796267675E7 ; 2.8078021448794277E10 ; 0.0
149 ; 652881.6977429794 ; 2.010502759922261E8 ; 9.699026671080174E7 ; 2.827906707318333E10 ; 0.0
150 ; 654276.6054286463 ; 2.010549139951589E8 ; 9.764314840854472E7 ; 2.8480117349175556E10 ; 0.0
151 ; 653102.7820277307 ; 2.0105953829702133E8 ; 9.829742501397337E7 ; 2.8681172263170715E10 ; 0.0
152 ; 648886.8385354835 ; 2.0106414879758427E8 ; 9.89505277960011E7 ; 2.8882231801467735E10 ; 0.0
153 ; 649379.1139028977 ; 2.010687453972097E8 ; 9.95994146345366E7 ; 2.908329595026532E10 ; 0.0
154 ; 649266.08456944 ; 2.0107332799684158E8 ; 1.0024879374843949E8 ; 2.928436469566253E10 ; 0.0
155 ; 646787.3806401443 ; 2.0107789649799722E8 ; 1.0089805983300893E8 ; 2.948543802365937E10 ; 0.0
156 ; 647884.531777451 ; 2.0108245080275887E8 ; 1.0154484721364908E8 ; 2.9686515920157368E10 ; 0.0
157 ; 645865.4133192614 ; 2.010869908137659E8 ; 1.0219273174542654E8 ; 2.9887598370960125E10 ; 0.0
158 ; 646272.9979270303 ; 2.010915164342074E8 ; 1.028385971587458E8 ; 3.008868536177389E10 ; 0.0
159 ; 644213.0479969397 ; 2.0109602756781474E8 ; 1.0348487015667282E8 ; 3.02897768782081E10 ; 0.0
160 ; 642495.6352221549 ; 2.0110052411885497E8 ; 1.0412908320466976E8 ; 3.0490872905775913E10 ; 0.0
161 ; 641833.7501546686 ; 2.0110500599212432E8 ; 1.0477157883989191E8 ; 3.0691973429894768E10 ; 0.0
162 ; 643492.7972597457 ; 2.0110947309294188E8 ; 1.0541341259004658E8 ; 3.089307843588689E10 ; 0.0
163 ; 640015.1112999759 ; 2.0111392532714388E8 ; 1.0605690538730633E8 ; 3.109418790897983E10 ; 0.0
164 ; 639231.6814611106 ; 2.0111836260107788E8 ; 1.0669692049860631E8 ; 3.1295301834306976E10 ; 0.0
165 ; 637225.6406844963 ; 2.0112278482159767E8 ; 1.0733615218006742E8 ; 3.1496420196908054E10 ; 0.0
166 ; 636093.4195695565 ; 2.0112719189605796E8 ; 1.0797337782075192E8 ; 3.1697542981729652E10 ; 0.0
167 ; 636748.7175441805 ; 2.0113158373230967E8 ; 1.0860947124032147E8 ; 3.189867017362571E10 ; 0.0
168 ; 635958.463314948 ; 2.011359602386953E8 ; 1.0924621995786566E8 ; 3.209980175735802E10 ; 0.0
169 ; 634508.8800503851 ; 2.0114032132404453E8 ; 1.098821784211806E8 ; 3.2300937717596718E10 ; 0.0
170 ; 633159.1245130936 ; 2.0114466689767015E8 ; 1.10516687301231E8 ; 3.250207803892076E10 ; 0.0
171 ; 631796.8981252136 ; 2.0114899686936396E8 ; 1.1114984642574409E8 ; 3.270322270581843E10 ; 0.0
172 ; 629687.7972053951 ; 2.0115331114939308E8 ; 1.117816433238693E8 ; 3.2904371702687798E10 ; 0.0
173 ; 629514.4372551917 ; 2.0115760964849645E8 ; 1.1241133112107469E8 ; 3.310552501383719E10 ; 0.0
174 ; 627242.8077361458 ; 2.011618922778812E8 ; 1.1304084555832988E8 ; 3.3306682623485683E10 ; 0.0
175 ; 629091.866160514 ; 2.011661589492198E8 ; 1.1366808836606602E8 ; 3.3507844515763565E10 ; 0.0
176 ; 627980.3235014427 ; 2.0117040957464656E8 ; 1.1429718023222654E8 ; 3.3709010674712784E10 ; 0.0
177 ; 627262.2073896882 ; 2.0117464406675515E8 ; 1.1492516055572797E8 ; 3.391018108428743E10 ; 0.0
178 ; 625775.4113025803 ; 2.011788623385955E8 ; 1.1555242276311766E8 ; 3.4111355728354183E10 ; 0.0
179 ; 625228.0727248478 ; 2.0118306430367145E8 ; 1.1617819817442024E8 ; 3.431253459069278E10 ; 0.0
180 ; 626058.4070823774 ; 2.0118724987593815E8 ; 1.1680342624714509E8 ; 3.451371765499645E10 ; 0.0
181 ; 625692.5520628403 ; 2.011914189697997E8 ; 1.1742948465422747E8 ; 3.471490490487239E10 ; 0.0
182 ; 623371.3817487063 ; 2.0119557150010705E8 ; 1.180551772062903E8 ; 3.491609632384219E10 ; 0.0
183 ; 621629.548446639 ; 2.0119970738215584E8 ; 1.1867854858803901E8 ; 3.51172918953423E10 ; 0.0
184 ; 622667.2612857783 ; 2.0120382653168446E8 ; 1.1930017813648565E8 ; 3.531849160272446E10 ; 0.0
185 ; 622125.1247474354 ; 2.0120792886487216E8 ; 1.1992284539777143E8 ; 3.551969542925614E10 ; 0.0
186 ; 619836.3710294989 ; 2.0121201429833728E8 ; 1.2054497052251887E8 ; 3.572090335812102E10 ; 0.0
187 ; 620408.3231895991 ; 2.012160827491357E8 ; 1.2116480689354837E8 ; 3.592211537241936E10 ; 0.0
188 ; 617545.061770055 ; 2.0122013413475913E8 ; 1.2178521521673797E8 ; 3.6123331455168495E10 ; 0.0
189 ; 618000.7746279333 ; 2.0122416837313387E8 ; 1.2240276027850802E8 ; 3.632455158930325E10 ; 0.0
190 ; 617664.4461832698 ; 2.0122818538261914E8 ; 1.2302076105313596E8 ; 3.6525775757676384E10 ; 0.0
191 ; 615990.9698836836 ; 2.0123218508200616E8 ; 1.2363842549931923E8 ; 3.6727003943059006E10 ; 0.0
192 ; 616316.6452080777 ; 2.0123616739051667E8 ; 1.242544164692029E8 ; 3.6928236128141014E10 ; 0.0
193 ; 617776.1887825121 ; 2.0124013222780186E8 ; 1.2487073311441098E8 ; 3.712947229553153E10 ; 0.0
194 ; 615898.1594387273 ; 2.0124407951394153E8 ; 1.254885093031935E8 ; 3.733071242775933E10 ; 0.0
195 ; 614546.9782699774 ; 2.0124800916944283E8 ; 1.2610440746263222E8 ; 3.753195650727327E10 ; 0.0
196 ; 613904.9860411462 ; 2.0125192111523956E8 ; 1.267189544409022E8 ; 3.773320451644271E10 ; 0.0
197 ; 613132.7960172407 ; 2.012558152726913E8 ; 1.2733285942694335E8 ; 3.793445643755795E10 ; 0.0
198 ; 611112.4315832194 ; 2.0125969156358266E8 ; 1.2794599222296059E8 ; 3.813571225283064E10 ; 0.0
199 ; 611473.383681794 ; 2.0126354991012245E8 ; 1.2855710465454382E8 ; 3.8336971944394226E10 ; 0.0
200 ; 612210.863597631 ; 2.012673902349432E8 ; 1.291685780382256E8 ; 3.853823549430435E10 ; 0.0
201 ; 610659.8471117837 ; 2.0127121246110055E8 ; 1.2978078890182324E8 ; 3.873950288453929E10 ; 0.0
