CSV File for the City 1 on Day 246
1 - Minute m 
2 - Power Consumed at minute m 
3 - Power Produced at minute m 
4 - Energy Consumed since the beginning of the day 
5 - Energy Produced since the beginning of the day 
6 - Energy Lost since the beginning of the day on lines starting from the city
 
0 ; 2986832.036273566 ; 1.053356988163487E8 ; 0.0 ; 0.0 ; 0.0
1 ; 3008013.5069664456 ; 1.0548807412605417E8 ; 2986832.036273566 ; 1.053356988163487E8 ; 0.0
2 ; 3023575.111893514 ; 1.059492770122017E8 ; 5994845.543240012 ; 2.1082377294240287E8 ; 0.0
3 ; 3042878.251820358 ; 1.067193134069525E8 ; 9018420.655133527 ; 3.1677304995460457E8 ; 0.0
4 ; 3065944.274036807 ; 1.0779818880541259E8 ; 1.2061298906953884E7 ; 4.2349236336155707E8 ; 0.0
5 ; 3091710.686768794 ; 1.0918590818101037E8 ; 1.5127243180990692E7 ; 5.3129055216696966E8 ; 0.0
6 ; 3131913.044272338 ; 1.1088247590403333E8 ; 1.8218953867759485E7 ; 6.4047646034798E8 ; 0.0
7 ; 3184263.7107972493 ; 1.1288789566616428E8 ; 2.1350866912031822E7 ; 7.513589362520133E8 ; 0.0
8 ; 3265768.385235756 ; 1.1520217041387033E8 ; 2.4535130622829072E7 ; 8.642468319181776E8 ; 0.0
9 ; 3383944.3794668317 ; 1.1782530229333764E8 ; 2.780089900806483E7 ; 9.794490023320479E8 ; 0.0
10 ; 3563304.3766621165 ; 1.2075729260929012E8 ; 3.118484338753166E7 ; 1.0972743046253855E9 ; 0.0
11 ; 3851980.273492395 ; 1.2399814179951051E8 ; 3.474814776419377E7 ; 1.2180315972346756E9 ; 0.0
12 ; 4313540.073168553 ; 1.2754784942621604E8 ; 3.860012803768617E7 ; 1.3420297390341861E9 ; 0.0
13 ; 4758343.120624027 ; 1.3140641418468279E8 ; 4.291366811085472E7 ; 1.4695775884604023E9 ; 0.0
14 ; 4814737.449849975 ; 1.355738339287247E8 ; 4.767201123147875E7 ; 1.600984002645085E9 ; 0.0
15 ; 4832901.072826133 ; 1.4005010571187454E8 ; 5.248674868132873E7 ; 1.7365578365738099E9 ; 0.0
16 ; 4852433.66434398 ; 1.4483522584244964E8 ; 5.731964975415486E7 ; 1.8766079422856843E9 ; 0.0
17 ; 4874274.4000581615 ; 1.4992918995016238E8 ; 6.2172083418498844E7 ; 2.021443168128134E9 ; 0.0
18 ; 4897692.124466017 ; 1.553319930615844E8 ; 6.704635781855701E7 ; 2.171372358078296E9 ; 0.0
19 ; 4918087.606408454 ; 1.6104362968160972E8 ; 7.194404994302303E7 ; 2.3267043511398807E9 ; 0.0
20 ; 4938841.587238431 ; 1.6706409387807706E8 ; 7.686213754943147E7 ; 2.4877479808214903E9 ; 0.0
21 ; 4962111.040851426 ; 1.733933793668845E8 ; 8.18009791366699E7 ; 2.6548120746995673E9 ; 0.0
22 ; 4978975.758967844 ; 1.8003147959522378E8 ; 8.676309017752133E7 ; 2.828205454066452E9 ; 0.0
23 ; 4999827.407284908 ; 1.8697838782094288E8 ; 9.174206593648918E7 ; 3.008236933661676E9 ; 0.0
24 ; 5026660.663615578 ; 1.9423409718646967E8 ; 9.674189334377408E7 ; 3.195215321482619E9 ; 0.0
25 ; 5050907.416759049 ; 2.0048664168434584E8 ; 1.0176855400738966E8 ; 3.3894494186690884E9 ; 0.0
26 ; 5068547.618757338 ; 2.0048956225417918E8 ; 1.0681946142414871E8 ; 3.589936060353434E9 ; 0.0
27 ; 5090555.849716875 ; 2.0049262135995865E8 ; 1.1188800904290605E8 ; 3.790425622607613E9 ; 0.0
28 ; 5113494.707186244 ; 2.004958122815591E8 ; 1.1697856489262292E8 ; 3.9909182439675717E9 ; 0.0
29 ; 5132877.942514614 ; 2.0049912844525808E8 ; 1.2209205959980917E8 ; 4.1914140562491307E9 ; 0.0
30 ; 5152209.13345906 ; 2.0050256345395717E8 ; 1.2722493754232378E8 ; 4.391913184694388E9 ; 0.0
31 ; 5175807.815863325 ; 2.00506111110898E8 ; 1.3237714667578284E8 ; 4.592415748148346E9 ; 0.0
32 ; 5193939.751491675 ; 2.0050976543750057E8 ; 1.3755295449164617E8 ; 4.792921859259244E9 ; 0.0
33 ; 5210706.99009883 ; 2.00513520685993E8 ; 1.4274689424313784E8 ; 4.993431624696745E9 ; 0.0
34 ; 5230720.134732687 ; 2.0051737134750688E8 ; 1.4795760123323667E8 ; 5.193945145382738E9 ; 0.0
35 ; 5251982.756875771 ; 2.0052131215629506E8 ; 1.5318832136796936E8 ; 5.394462516730245E9 ; 0.0
36 ; 5265793.075386238 ; 2.0052533809068945E8 ; 1.5844030412484515E8 ; 5.594983828886539E9 ; 0.0
37 ; 5288793.733343973 ; 2.005294443713693E8 ; 1.6370609720023137E8 ; 5.795509166977229E9 ; 0.0
38 ; 5304418.296011189 ; 2.0053362645745245E8 ; 1.6899489093357533E8 ; 5.9960386113485985E9 ; 0.0
39 ; 5317413.590544358 ; 2.005378800408651E8 ; 1.742993092295865E8 ; 6.196572237806051E9 ; 0.0
40 ; 5335751.3468751935 ; 2.005422010393868E8 ; 1.7961672282013088E8 ; 6.397110117846916E9 ; 0.0
41 ; 5347703.067613374 ; 2.005465855887114E8 ; 1.8495247416700608E8 ; 6.597652318886303E9 ; 0.0
42 ; 5364333.2331920415 ; 2.0055103003381315E8 ; 1.9030017723461944E8 ; 6.798198904475015E9 ; 0.0
43 ; 5372768.629503576 ; 2.005555309198599E8 ; 1.9566451046781147E8 ; 6.998749934508828E9 ; 0.0
44 ; 5390267.85242321 ; 2.0056008498287293E8 ; 2.0103727909731504E8 ; 7.199305465428688E9 ; 0.0
45 ; 5402194.768860725 ; 2.0056468914029562E8 ; 2.0642754694973826E8 ; 7.399865550411561E9 ; 0.0
46 ; 5409973.062662216 ; 2.0056934048160106E8 ; 2.11829741718599E8 ; 7.600430239551857E9 ; 0.0
47 ; 5422464.0519804275 ; 2.0057403625904113E8 ; 2.172397147812612E8 ; 7.800999580033458E9 ; 0.0
48 ; 5429877.378486567 ; 2.005787738786159E8 ; 2.2266217883324164E8 ; 8.001573616292499E9 ; 0.0
49 ; 5437419.748478008 ; 2.005835508913222E8 ; 2.2809205621172822E8 ; 8.202152390171115E9 ; 0.0
50 ; 5446310.314472031 ; 2.0058836498472506E8 ; 2.335294759602062E8 ; 8.402735941062437E9 ; 0.0
51 ; 5455617.934730313 ; 2.0059321397488013E8 ; 2.3897578627467823E8 ; 8.603324306047163E9 ; 0.0
52 ; 5463848.603849572 ; 2.005980957986267E8 ; 2.4443140420940855E8 ; 8.803917520022043E9 ; 0.0
53 ; 5470155.200971078 ; 2.0060300850626016E8 ; 2.498952528132581E8 ; 9.00451561582067E9 ; 0.0
54 ; 5475068.4010414425 ; 2.0060795025458702E8 ; 2.5536540801422918E8 ; 9.20511862432693E9 ; 0.0
55 ; 5485949.902646612 ; 2.0061291930035937E8 ; 2.6084047641527063E8 ; 9.405726574581516E9 ; 0.0
56 ; 5491456.711479799 ; 2.0061791399408177E8 ; 2.6632642631791723E8 ; 9.606339493881876E9 ; 0.0
57 ; 5497997.301689344 ; 2.0062293277418065E8 ; 2.71817883029397E8 ; 9.806957407875957E9 ; 0.0
58 ; 5503018.709769032 ; 2.0062797416152346E8 ; 2.7731588033108634E8 ; 1.0007580340650139E10 ; 0.0
59 ; 5509369.239873191 ; 2.0063303675427362E8 ; 2.8281889904085535E8 ; 1.0208208314811663E10 ; 0.0
60 ; 5518001.4840987595 ; 2.00638119223066E8 ; 2.883282682807285E8 ; 1.0408841351565937E10 ; 0.0
61 ; 5519720.057821408 ; 2.0064322030648732E8 ; 2.9384626976482725E8 ; 1.0609479470789003E10 ; 0.0
62 ; 5527363.688167116 ; 2.0064833880684543E8 ; 2.9936598982264864E8 ; 1.0810122691095491E10 ; 0.0
63 ; 5535644.982942173 ; 2.006534735862114E8 ; 3.0489335351081574E8 ; 1.1010771029902336E10 ; 0.0
64 ; 5542808.358322406 ; 2.0065862356271893E8 ; 3.104289984937579E8 ; 1.1211424503488548E10 ; 0.0
65 ; 5547260.443627629 ; 2.0066378770710513E8 ; 3.159718068520803E8 ; 1.1412083127051268E10 ; 0.0
66 ; 5552084.922307605 ; 2.0066896503947875E8 ; 3.2151906729570794E8 ; 1.1612746914758373E10 ; 0.0
67 ; 5562637.05100665 ; 2.0067415462630063E8 ; 3.2707115221801555E8 ; 1.1813415879797852E10 ; 0.0
68 ; 5562864.1875156 ; 2.0067935557756343E8 ; 3.326337892690222E8 ; 1.2014090034424152E10 ; 0.0
69 ; 5566878.805976878 ; 2.0068456704415712E8 ; 3.3819665345653784E8 ; 1.2214769390001717E10 ; 0.0
70 ; 5573984.078887438 ; 2.006897882154086E8 ; 3.437635322625147E8 ; 1.2415453957045874E10 ; 0.0
71 ; 5579219.966715465 ; 2.0069501831678325E8 ; 3.493375163414022E8 ; 1.2616143745261282E10 ; 0.0
72 ; 5585913.236860175 ; 2.0070025660773775E8 ; 3.549167363081176E8 ; 1.2816838763578066E10 ; 0.0
73 ; 5586873.545170741 ; 2.0070550237971416E8 ; 3.605026495449778E8 ; 1.3017539020185804E10 ; 0.0
74 ; 5592005.648296767 ; 2.0071075495426503E8 ; 3.660895230901485E8 ; 1.321824452256552E10 ; 0.0
75 ; 5599919.513150162 ; 2.0071601368130136E8 ; 3.716815287384453E8 ; 1.3418955277519785E10 ; 0.0
76 ; 5601999.072248008 ; 2.0072127793745425E8 ; 3.7728144825159544E8 ; 1.3619671291201086E10 ; 0.0
77 ; 5604996.010315787 ; 2.00726547124543E8 ; 3.828834473238434E8 ; 1.382039256913854E10 ; 0.0
78 ; 5602720.225994376 ; 2.0073182066814205E8 ; 3.884884433341592E8 ; 1.4021119116263083E10 ; 0.0
79 ; 5605838.608301965 ; 2.0073709801623973E8 ; 3.9409116356015354E8 ; 1.4221850936931225E10 ; 0.0
80 ; 5603882.980690183 ; 2.0074237863798332E8 ; 3.996970021684555E8 ; 1.4422588034947464E10 ; 0.0
81 ; 5600462.287000953 ; 2.0074766202250344E8 ; 4.0530088514914566E8 ; 1.4623330413585447E10 ; 0.0
82 ; 5597913.274865604 ; 2.0075294767781317E8 ; 4.109013474361466E8 ; 1.482407807560795E10 ; 0.0
83 ; 5596553.95668228 ; 2.0075823512977642E8 ; 4.1649926071101224E8 ; 1.5024831023285763E10 ; 0.0
84 ; 5592277.208974622 ; 2.007635239211407E8 ; 4.220958146676945E8 ; 1.5225589258415539E10 ; 0.0
85 ; 5589720.412795369 ; 2.0076881361063027E8 ; 4.276880918766691E8 ; 1.542635278233668E10 ; 0.0
86 ; 5587026.672433258 ; 2.0077410377209532E8 ; 4.332778122894645E8 ; 1.562712159594731E10 ; 0.0
87 ; 5588242.7131792735 ; 2.0077939399371338E8 ; 4.3886483896189773E8 ; 1.5827895699719404E10 ; 0.0
88 ; 5576473.629009661 ; 2.007846838772397E8 ; 4.44453081675077E8 ; 1.6028675093713118E10 ; 0.0
89 ; 5580324.31671665 ; 2.0078997303730297E8 ; 4.500295553040867E8 ; 1.6229459777590357E10 ; 0.0
90 ; 5577070.86421062 ; 2.0079526110074356E8 ; 4.5560987962080336E8 ; 1.6430249750627659E10 ; 0.0
91 ; 5577448.489017093 ; 2.0080054770599157E8 ; 4.6118695048501396E8 ; 1.6631045011728403E10 ; 0.0
92 ; 5572192.403668187 ; 2.0080583250248167E8 ; 4.6676439897403103E8 ; 1.6831845559434395E10 ; 0.0
93 ; 5572589.439687896 ; 2.008111151501028E8 ; 4.723365913776992E8 ; 1.7032651391936876E10 ; 0.0
94 ; 5569691.116011263 ; 2.0081639531868E8 ; 4.779091808173871E8 ; 1.723346250708698E10 ; 0.0
95 ; 5564991.516278259 ; 2.008216726874866E8 ; 4.8347887193339837E8 ; 1.743427890240566E10 ; 0.0
96 ; 5562491.856057978 ; 2.0082694694478473E8 ; 4.8904386344967663E8 ; 1.7635100575093143E10 ; 0.0
97 ; 5556919.568714253 ; 2.0083221778739214E8 ; 4.9460635530573463E8 ; 1.783592752203793E10 ; 0.0
98 ; 5552759.1909829425 ; 2.0083748492027393E8 ; 5.001632748744489E8 ; 1.803675973982532E10 ; 0.0
99 ; 5547592.693632052 ; 2.0084274805615735E8 ; 5.0571603406543183E8 ; 1.8237597224745594E10 ; 0.0
100 ; 5540803.026409377 ; 2.0084800691516855E8 ; 5.112636267590639E8 ; 1.843843997280175E10 ; 0.0
101 ; 5535775.894189117 ; 2.0085326122448942E8 ; 5.168044297854733E8 ; 1.863928797971692E10 ; 0.0
102 ; 5536422.759407501 ; 2.0085851071803367E8 ; 5.223402056796624E8 ; 1.884014124094141E10 ; 0.0
103 ; 5526820.536571885 ; 2.0086375513614082E8 ; 5.278766284390699E8 ; 1.9040999751659443E10 ; 0.0
104 ; 5525687.3404374905 ; 2.00868994225287E8 ; 5.334034489756418E8 ; 1.9241863506795586E10 ; 0.0
105 ; 5521639.684365257 ; 2.008742277378114E8 ; 5.389291363160793E8 ; 1.9442732501020874E10 ; 0.0
106 ; 5516464.423263295 ; 2.008794554316577E8 ; 5.444507760004445E8 ; 1.9643606728758686E10 ; 0.0
107 ; 5511897.630362258 ; 2.0088467707012933E8 ; 5.499672404237078E8 ; 1.9844486184190342E10 ; 0.0
108 ; 5506340.69463907 ; 2.0088989242165777E8 ; 5.554791380540701E8 ; 2.004537086126047E10 ; 0.0
109 ; 5501553.976173901 ; 2.008951012595832E8 ; 5.609854787487092E8 ; 2.024626075368213E10 ; 0.0
110 ; 5496388.247359388 ; 2.0090030336194676E8 ; 5.664870327248831E8 ; 2.044715585494171E10 ; 0.0
111 ; 5494274.012286392 ; 2.009054985112935E8 ; 5.719834209722425E8 ; 2.0648056158303658E10 ; 0.0
112 ; 5483081.22854653 ; 2.0091068649448586E8 ; 5.774776949845289E8 ; 2.0848961656814953E10 ; 0.0
113 ; 5481348.591279863 ; 2.009158671025266E8 ; 5.829607762130754E8 ; 2.104987234330944E10 ; 0.0
114 ; 5473380.860301854 ; 2.009210401303908E8 ; 5.884421248043553E8 ; 2.125078821041197E10 ; 0.0
115 ; 5462457.151888738 ; 2.0092620537686655E8 ; 5.939155056646571E8 ; 2.145170925054236E10 ; 0.0
116 ; 5458268.676568848 ; 2.0093136264440364E8 ; 5.993779628165458E8 ; 2.1652635455919224E10 ; 0.0
117 ; 5452547.605820249 ; 2.0093651173896992E8 ; 6.048362314931147E8 ; 2.185356681856363E10 ; 0.0
118 ; 5444507.512921753 ; 2.009416524699148E8 ; 6.10288779098935E8 ; 2.20545033303026E10 ; 0.0
119 ; 5440612.843781371 ; 2.009467846498394E8 ; 6.157332866118568E8 ; 2.2255444982772514E10 ; 0.0
120 ; 5430988.471464482 ; 2.0095190809447357E8 ; 6.211738994556382E8 ; 2.2456391767422356E10 ; 0.0
121 ; 5427743.124340915 ; 2.0095702262255833E8 ; 6.266048879271027E8 ; 2.265734367551683E10 ; 0.0
122 ; 5422679.960631351 ; 2.0096212805573452E8 ; 6.320326310514436E8 ; 2.285830069813939E10 ; 0.0
123 ; 5415981.374208805 ; 2.009672242184367E8 ; 6.37455311012075E8 ; 2.305926282619512E10 ; 0.0
124 ; 5409411.704243251 ; 2.00972310937792E8 ; 6.428712923862838E8 ; 2.326023005041356E10 ; 0.0
125 ; 5400274.839083127 ; 2.0097738804352412E8 ; 6.48280704090527E8 ; 2.3461202361351353E10 ; 0.0
126 ; 5389911.679686702 ; 2.0098245536786163E8 ; 6.536809789296101E8 ; 2.366217974939488E10 ; 0.0
127 ; 5384078.790798983 ; 2.0098751274545082E8 ; 6.590708906092968E8 ; 2.386316220476274E10 ; 0.0
128 ; 5374731.636364373 ; 2.0099256001327243E8 ; 6.644549694000958E8 ; 2.406414971750819E10 ; 0.0
129 ; 5368111.390242445 ; 2.0099759701056254E8 ; 6.698297010364602E8 ; 2.426514227752146E10 ; 0.0
130 ; 5353842.714986783 ; 2.0100262357873687E8 ; 6.751978124267026E8 ; 2.4466139874532024E10 ; 0.0
131 ; 5344324.95632296 ; 2.0100763956131876E8 ; 6.805516551416894E8 ; 2.466714249811076E10 ; 0.0
132 ; 5332065.709052993 ; 2.0101264480387044E8 ; 6.858959800980123E8 ; 2.4868150137672077E10 ; 0.0
133 ; 5316859.989461766 ; 2.010176391539274E8 ; 6.912280458070654E8 ; 2.506916278247595E10 ; 0.0
134 ; 5303119.411428063 ; 2.0102262246093565E8 ; 6.965449057965271E8 ; 2.5270180421629875E10 ; 0.0
135 ; 5290232.349208411 ; 2.0102759457619217E8 ; 7.018480252079552E8 ; 2.5471203044090813E10 ; 0.0
136 ; 5273902.896568509 ; 2.010325553527875E8 ; 7.071382575571636E8 ; 2.5672230638667004E10 ; 0.0
137 ; 5262944.112065479 ; 2.0103750464555144E8 ; 7.124121604537321E8 ; 2.587326319401979E10 ; 0.0
138 ; 5244770.385419092 ; 2.0104244231100076E8 ; 7.176751045657976E8 ; 2.607430069866534E10 ; 0.0
139 ; 5233558.243077713 ; 2.010473682072895E8 ; 7.229198749512167E8 ; 2.627534314097634E10 ; 0.0
140 ; 5215287.807861063 ; 2.0105228219416124E8 ; 7.281534331942945E8 ; 2.647639050918363E10 ; 0.0
141 ; 5201014.32052401 ; 2.0105718413290367E8 ; 7.333687210021555E8 ; 2.6677442791377792E10 ; 0.0
142 ; 5183347.356623049 ; 2.0106207388630503E8 ; 7.385697353226795E8 ; 2.6878499975510696E10 ; 0.0
143 ; 5172034.983501595 ; 2.0106695131861237E8 ; 7.437530826793026E8 ; 2.7079562049397003E10 ; 0.0
144 ; 5155161.161200847 ; 2.0107181629549178E8 ; 7.489251176628041E8 ; 2.7280629000715614E10 ; 0.0
145 ; 5146021.5160059575 ; 2.0107666868399027E8 ; 7.54080278824005E8 ; 2.7481700817011105E10 ; 0.0
146 ; 5141264.156130798 ; 2.0108150835249916E8 ; 7.59226300340011E8 ; 2.7682777485695095E10 ; 0.0
147 ; 5132514.194482019 ; 2.0108633517071927E8 ; 7.643675644961418E8 ; 2.7883858994047596E10 ; 0.0
148 ; 5116663.236272631 ; 2.0109114900962728E8 ; 7.695000786906238E8 ; 2.8084945329218315E10 ; 0.0
149 ; 5115658.15546588 ; 2.0109594974144387E8 ; 7.746167419268963E8 ; 2.8286036478227943E10 ; 0.0
150 ; 5102763.080501853 ; 2.0110073723960283E8 ; 7.797324000823622E8 ; 2.8487132427969387E10 ; 0.0
151 ; 5094151.043974698 ; 2.0110551137872183E8 ; 7.84835163162864E8 ; 2.868823316520899E10 ; 0.0
152 ; 5088796.9921637345 ; 2.0111027203457406E8 ; 7.899293142068386E8 ; 2.888933867658771E10 ; 0.0
153 ; 5079803.632473529 ; 2.0111501908406132E8 ; 7.950181111990024E8 ; 2.9090448948622284E10 ; 0.0
154 ; 5074984.21577429 ; 2.0111975240518808E8 ; 8.00097914831476E8 ; 2.9291563967706345E10 ; 0.0
155 ; 5069736.68144675 ; 2.011244718770366E8 ; 8.051728990472503E8 ; 2.9492683720111534E10 ; 0.0
156 ; 5055624.282135978 ; 2.0112917737974328E8 ; 8.102426357286971E8 ; 2.969380819198857E10 ; 0.0
157 ; 5051047.354615008 ; 2.011338687944756E8 ; 8.15298260010833E8 ; 2.9894937369368313E10 ; 0.0
158 ; 5040714.740473296 ; 2.011385460034104E8 ; 8.20349307365448E8 ; 3.009607123816279E10 ; 0.0
159 ; 5032235.349354619 ; 2.011432088897128E8 ; 8.253900221059213E8 ; 3.02972097841662E10 ; 0.0
160 ; 5023670.434557317 ; 2.0114785733751604E8 ; 8.304222574552759E8 ; 3.0498352993055912E10 ; 0.0
161 ; 5013125.156450367 ; 2.0115249123190203E8 ; 8.354459278898332E8 ; 3.069950085039343E10 ; 0.0
162 ; 5002399.764292724 ; 2.0115711045888302E8 ; 8.404590530462836E8 ; 3.090065334162533E10 ; 0.0
163 ; 4998820.323195328 ; 2.0116171490538353E8 ; 8.454614528105763E8 ; 3.1101810452084213E10 ; 0.0
164 ; 4988671.411580151 ; 2.011663044592234E8 ; 8.504602731337717E8 ; 3.1302972166989597E10 ; 0.0
165 ; 4977218.700788319 ; 2.0117087900910127E8 ; 8.554489445453519E8 ; 3.1504138471448822E10 ; 0.0
166 ; 4970309.733813019 ; 2.0117543844457892E8 ; 8.604261632461402E8 ; 3.1705309350457924E10 ; 0.0
167 ; 4961510.680518114 ; 2.0117998265606597E8 ; 8.653964729799533E8 ; 3.1906484788902504E10 ; 0.0
168 ; 4956577.3557944605 ; 2.0118451153480548E8 ; 8.703579836604714E8 ; 3.210766477155857E10 ; 0.0
169 ; 4944425.713496568 ; 2.0118902497285986E8 ; 8.753145610162659E8 ; 3.2308849283093376E10 ; 0.0
170 ; 4936194.517827339 ; 2.0119352286309755E8 ; 8.802589867297624E8 ; 3.2510038308066235E10 ; 0.0
171 ; 4928166.63904898 ; 2.0119800509918004E8 ; 8.851951812475898E8 ; 3.2711231830929333E10 ; 0.0
172 ; 4919664.032076067 ; 2.0120247157554963E8 ; 8.901233478866388E8 ; 3.291242983602851E10 ; 0.0
173 ; 4908348.220526501 ; 2.0120692218741733E8 ; 8.950430119187149E8 ; 3.311363230760406E10 ; 0.0
174 ; 4904851.723711865 ; 2.0121135683075154E8 ; 8.999513601392413E8 ; 3.3314839229791477E10 ; 0.0
175 ; 4898579.718934291 ; 2.012157754022671E8 ; 9.048562118629532E8 ; 3.351605058662223E10 ; 0.0
176 ; 4892235.700236392 ; 2.0122017779941466E8 ; 9.097547915818875E8 ; 3.3717266362024498E10 ; 0.0
177 ; 4889976.991580131 ; 2.012245639203706E8 ; 9.146470272821239E8 ; 3.3918486539823914E10 ; 0.0
178 ; 4880694.827544357 ; 2.0122893366402718E8 ; 9.19537004273704E8 ; 3.4119711103744286E10 ; 0.0
179 ; 4871227.89525487 ; 2.0123328692998323E8 ; 9.244176991012484E8 ; 3.4320940037408314E10 ; 0.0
180 ; 4868221.143611621 ; 2.0123762361853522E8 ; 9.292889269965032E8 ; 3.4522173324338295E10 ; 0.0
181 ; 4859634.089750389 ; 2.0124194363066843E8 ; 9.341571481401149E8 ; 3.472341094795683E10 ; 0.0
182 ; 4849957.414242668 ; 2.012462468680488E8 ; 9.390167822298653E8 ; 3.49246528915875E10 ; 0.0
183 ; 4848590.212768013 ; 2.0125053323301476E8 ; 9.438667396441079E8 ; 3.512589913845555E10 ; 0.0
184 ; 4840092.544724864 ; 2.0125480262856978E8 ; 9.487153298568759E8 ; 3.532714967168857E10 ; 0.0
185 ; 4833266.953959842 ; 2.0125905495837474E8 ; 9.535554224016007E8 ; 3.552840447431714E10 ; 0.0
186 ; 4825731.7339552045 ; 2.0126329012674093E8 ; 9.583886893555605E8 ; 3.572966352927551E10 ; 0.0
187 ; 4818864.845063423 ; 2.0126750803862324E8 ; 9.632144210895157E8 ; 3.593092681940225E10 ; 0.0
188 ; 4814684.727344873 ; 2.012717085996136E8 ; 9.680332859345791E8 ; 3.613219432744087E10 ; 0.0
189 ; 4807205.642739353 ; 2.0127589171593457E8 ; 9.72847970661924E8 ; 3.633346603604049E10 ; 0.0
190 ; 4801732.884339834 ; 2.0128005729443347E8 ; 9.776551763046633E8 ; 3.6534741927756424E10 ; 0.0
191 ; 4797938.9944801275 ; 2.0128420524257636E8 ; 9.824569091890031E8 ; 3.673602198505086E10 ; 0.0
192 ; 4790923.916925061 ; 2.0128833546844253E8 ; 9.872548481834832E8 ; 3.6937306190293434E10 ; 0.0
193 ; 4784239.449922028 ; 2.0129244788071916E8 ; 9.920457721004083E8 ; 3.713859452576188E10 ; 0.0
194 ; 4773327.126303152 ; 2.01296542388696E8 ; 9.968300115503304E8 ; 3.73398869736426E10 ; 0.0
195 ; 4770092.8861471675 ; 2.013006189022607E8 ; 1.0016033386766336E9 ; 3.7541183516031296E10 ; 0.0
196 ; 4762245.245873816 ; 2.0130467733189356E8 ; 1.0063734315627807E9 ; 3.7742484134933556E10 ; 0.0
197 ; 4755837.796549123 ; 2.0130871758866346E8 ; 1.0111356768086545E9 ; 3.794378881226545E10 ; 0.0
198 ; 4748117.816906555 ; 2.0131273958422312E8 ; 1.0158915146052036E9 ; 3.814509752985411E10 ; 0.0
199 ; 4743409.124463988 ; 2.0131674323080498E8 ; 1.0206396324221102E9 ; 3.834641026943833E10 ; 0.0
200 ; 4734608.503200389 ; 2.013207284412171E8 ; 1.0253830415465742E9 ; 3.8547727012669136E10 ; 0.0
201 ; 4730291.034694075 ; 2.0117710237833035E8 ; 1.0301176500497746E9 ; 3.874904774111035E10 ; 0.0
