CSV File for the City 4 on Day 72
1 - Minute m 
2 - Power Consumed at minute m 
3 - Power Produced at minute m 
4 - Energy Consumed since the beginning of the day 
5 - Energy Produced since the beginning of the day 
6 - Energy Lost since the beginning of the day on lines starting from the city
 
0 ; 6812387.5066054175 ; 1.0606106161582324E8 ; 0.0 ; 0.0 ; 0.0
1 ; 6817479.493689989 ; 1.0621150892823946E8 ; 6812387.5066054175 ; 1.0606106161582324E8 ; 0.0
2 ; 6825794.891290804 ; 1.0667099092093179E8 ; 1.3629867000295406E7 ; 2.122725705440627E8 ; 0.0
3 ; 6833813.8499268275 ; 1.074395124720084E8 ; 2.045566189158621E7 ; 3.189435614649945E8 ; 0.0
4 ; 6845335.079257056 ; 1.0851707796551144E8 ; 2.7289475741513036E7 ; 4.263830739370029E8 ; 0.0
5 ; 6857489.056501458 ; 1.0990369126297879E8 ; 3.413481082077009E7 ; 5.3490015190251434E8 ; 0.0
6 ; 6876749.210812198 ; 1.1159935567782757E8 ; 4.099229987727155E7 ; 6.448038431654931E8 ; 0.0
7 ; 6892613.969556886 ; 1.136040739529469E8 ; 4.7869049088083744E7 ; 7.564031988433207E8 ; 0.0
8 ; 6929269.115751231 ; 1.1591784824184936E8 ; 5.476166305764063E7 ; 8.700072727962676E8 ; 0.0
9 ; 6979547.0968073895 ; 1.1854068009368175E8 ; 6.1690932173391856E7 ; 9.859251210381169E8 ; 0.0
10 ; 7055106.82012688 ; 1.2147257044233817E8 ; 6.867047927019924E7 ; 1.1044658011317987E9 ; 0.0
11 ; 7182129.735672954 ; 1.2471351959985462E8 ; 7.572558609032612E7 ; 1.225938371574137E9 ; 0.0
12 ; 7378455.4791744575 ; 1.2826352725419506E8 ; 8.290771582599907E7 ; 1.3506518911739917E9 ; 0.0
13 ; 7568647.20039982 ; 1.3212259247146541E8 ; 9.028617130517352E7 ; 1.4789154184281867E9 ; 0.0
14 ; 7588494.560414837 ; 1.3629071370251894E8 ; 9.785481850557333E7 ; 1.611038010899652E9 ; 0.0
15 ; 7599676.11992658 ; 1.4076788879384297E8 ; 1.0544331306598817E8 ; 1.747328724602171E9 ; 0.0
16 ; 7608551.506958308 ; 1.455541150025485E8 ; 1.1304298918591475E8 ; 1.888096613396014E9 ; 0.0
17 ; 7616937.048718518 ; 1.506493890152183E8 ; 1.2065154069287306E8 ; 2.0336507283985624E9 ; 0.0
18 ; 7625079.540890761 ; 1.560537069703145E8 ; 1.2826847774159157E8 ; 2.1843001174137807E9 ; 0.0
19 ; 7635096.343293604 ; 1.6176706448379502E8 ; 1.3589355728248233E8 ; 2.340353824384095E9 ; 0.0
20 ; 7641618.30126746 ; 1.677894566775516E8 ; 1.4352865362577593E8 ; 2.5021208888678904E9 ; 0.0
21 ; 7650161.592803747 ; 1.741208782102519E8 ; 1.5117027192704338E8 ; 2.669910345545442E9 ; 0.0
22 ; 7662056.297938851 ; 1.8076132331015038E8 ; 1.5882043351984712E8 ; 2.844031223755694E9 ; 0.0
23 ; 7669158.591182499 ; 1.8771078580942452E8 ; 1.6648248981778598E8 ; 3.0247925470658445E9 ; 0.0
24 ; 7676916.370019109 ; 1.94969259179595E8 ; 1.7415164840896848E8 ; 3.212503332875269E9 ; 0.0
25 ; 7687564.448397756 ; 2.0122477746578255E8 ; 1.818285647789876E8 ; 3.407472592054864E9 ; 0.0
26 ; 7694902.155982662 ; 2.0123088135992017E8 ; 1.8951612922738534E8 ; 3.6086973695206466E9 ; 0.0
27 ; 7703493.387769732 ; 2.0123733276182914E8 ; 1.9721103138336802E8 ; 3.8099282508805666E9 ; 0.0
28 ; 7710073.700761293 ; 2.0124412406166843E8 ; 2.0491452477113774E8 ; 4.011165583642396E9 ; 0.0
29 ; 7720849.61646697 ; 2.0125124746804237E8 ; 2.1262459847189903E8 ; 4.2124097077040644E9 ; 0.0
30 ; 7727501.33977265 ; 2.0125869504176974E8 ; 2.20345448088366E8 ; 4.413660955172107E9 ; 0.0
31 ; 7736484.2169907205 ; 2.0126645872831994E8 ; 2.2807294942813864E8 ; 4.614919650213877E9 ; 0.0
32 ; 7745365.205515898 ; 2.0127453038871804E8 ; 2.3580943364512935E8 ; 4.816186108942197E9 ; 0.0
33 ; 7754675.467324667 ; 2.012829018287592E8 ; 2.4355479885064524E8 ; 5.0174606393309145E9 ; 0.0
34 ; 7761636.623477751 ; 2.0129156482641232E8 ; 2.5130947431796992E8 ; 5.218743541159674E9 ; 0.0
35 ; 7769067.197332471 ; 2.0130051115732807E8 ; 2.5907111094144768E8 ; 5.420035105986086E9 ; 0.0
36 ; 7772326.70913372 ; 2.013097326184E8 ; 2.6684017813878015E8 ; 5.621335617143414E9 ; 0.0
37 ; 7780286.233704409 ; 2.0131922104935744E8 ; 2.7461250484791386E8 ; 5.822645349761813E9 ; 0.0
38 ; 7788460.947997341 ; 2.013289683523959E8 ; 2.8239279108161825E8 ; 6.023964570811171E9 ; 0.0
39 ; 7793014.925111222 ; 2.0133896650987288E8 ; 2.901812520296156E8 ; 6.225293539163567E9 ; 0.0
40 ; 7801448.713262433 ; 2.0134920760011846E8 ; 2.979742669547268E8 ; 6.426632505673439E9 ; 0.0
41 ; 7806208.718129372 ; 2.0135968381142437E8 ; 3.0577571566798925E8 ; 6.627981713273558E9 ; 0.0
42 ; 7812763.340208014 ; 2.0137038745428976E8 ; 3.1358192438611865E8 ; 6.829341397084982E9 ; 0.0
43 ; 7815684.796658558 ; 2.0138131097201157E8 ; 3.2139468772632664E8 ; 7.030711784539271E9 ; 0.0
44 ; 7818657.804618445 ; 2.0139244694971445E8 ; 3.292103725229852E8 ; 7.232093095511283E9 ; 0.0
45 ; 7823773.434820505 ; 2.0140378812192094E8 ; 3.3702903032760364E8 ; 7.433485542460998E9 ; 0.0
46 ; 7827711.031766315 ; 2.0141532737876427E8 ; 3.448528037624242E8 ; 7.634889330582918E9 ; 0.0
47 ; 7831429.977443296 ; 2.0142705777094817E8 ; 3.5268051479419047E8 ; 7.836304657961682E9 ; 0.0
48 ; 7836523.671011866 ; 2.0143897251355705E8 ; 3.6051194477163374E8 ; 8.037731715732631E9 ; 0.0
49 ; 7839715.789497681 ; 2.014510649888175E8 ; 3.683484684426456E8 ; 8.239170688246188E9 ; 0.0
50 ; 7841300.595370065 ; 2.0146332874790993E8 ; 3.761881842321433E8 ; 8.440621753235005E9 ; 0.0
51 ; 7842508.252697999 ; 2.014757575119246E8 ; 3.8402948482751334E8 ; 8.642085081982916E9 ; 0.0
52 ; 7846255.636387373 ; 2.0148834517205232E8 ; 3.9187199308021134E8 ; 8.84356083949484E9 ; 0.0
53 ; 7849132.943782929 ; 2.01501085789095E8 ; 3.997182487165987E8 ; 9.045049184666893E9 ; 0.0
54 ; 7850278.20641051 ; 2.0151397359237584E8 ; 4.075673816603816E8 ; 9.246550270455988E9 ; 0.0
55 ; 7853424.707419812 ; 2.0152700297812396E8 ; 4.1541765986679214E8 ; 9.448064244048365E9 ; 0.0
56 ; 7854007.41835191 ; 2.015401685074026E8 ; 4.2327108457421196E8 ; 9.64959124702649E9 ; 0.0
57 ; 7856641.027003433 ; 2.0155346490364486E8 ; 4.3112509199256384E8 ; 9.851131415533892E9 ; 0.0
58 ; 7856086.99460065 ; 2.0156688704985493E8 ; 4.3898173301956725E8 ; 1.0052684880437536E10 ; 0.0
59 ; 7858050.458588466 ; 2.0158042998552898E8 ; 4.468378200141679E8 ; 1.025425176748739E10 ; 0.0
60 ; 7864099.926268651 ; 2.0159408890334338E8 ; 4.546958704727564E8 ; 1.045583219747292E10 ; 0.0
61 ; 7861300.921695829 ; 2.0160785914565465E8 ; 4.62559970399025E8 ; 1.0657426286376263E10 ; 0.0
62 ; 7864155.1876132 ; 2.016217362008503E8 ; 4.7042127132072085E8 ; 1.0859034145521917E10 ; 0.0
63 ; 7864104.324559714 ; 2.0163571569958568E8 ; 4.7828542650833404E8 ; 1.1060655881722767E10 ; 0.0
64 ; 7865843.441178072 ; 2.0164979341093823E8 ; 4.861495308328937E8 ; 1.1262291597422352E10 ; 0.0
65 ; 7867941.688655118 ; 2.0166396523850727E8 ; 4.940153742740718E8 ; 1.146394139083329E10 ; 0.0
66 ; 7869298.099928132 ; 2.0167822721648353E8 ; 5.0188331596272695E8 ; 1.1665605356071796E10 ; 0.0
67 ; 7870033.183590397 ; 2.0169257550570983E8 ; 5.097526140626551E8 ; 1.186728358328828E10 ; 0.0
68 ; 7871086.688665468 ; 2.0170700638975194E8 ; 5.176226472462455E8 ; 1.2068976158793991E10 ; 0.0
69 ; 7870212.7046661135 ; 2.017215162709956E8 ; 5.2549373393491095E8 ; 1.2270683165183743E10 ; 0.0
70 ; 7874166.947101938 ; 2.0173610166678375E8 ; 5.333639466395771E8 ; 1.2472404681454739E10 ; 0.0
71 ; 7874889.85126885 ; 2.0175075920560578E8 ; 5.41238113586679E8 ; 1.2674140783121523E10 ; 0.0
72 ; 7875628.81975393 ; 2.0176548562334874E8 ; 5.491130034379479E8 ; 1.287589154232713E10 ; 0.0
73 ; 7877236.915682989 ; 2.0178027775961912E8 ; 5.569886322577018E8 ; 1.3077657027950478E10 ; 0.0
74 ; 7875846.169482732 ; 2.017951325541417E8 ; 5.648658691733848E8 ; 1.3279437305710096E10 ; 0.0
75 ; 7877160.816870808 ; 2.0181004704324153E8 ; 5.727417153428675E8 ; 1.3481232438264238E10 ; 0.0
76 ; 7877243.008920129 ; 2.0182501835641295E8 ; 5.806188761597383E8 ; 1.368304248530748E10 ; 0.0
77 ; 7879099.3254950745 ; 2.018400437129792E8 ; 5.884961191686584E8 ; 1.3884867503663893E10 ; 0.0
78 ; 7878742.050622955 ; 2.0185512041884536E8 ; 5.963752184941535E8 ; 1.4086707547376871E10 ; 0.0
79 ; 7873791.474145629 ; 2.0187024586334565E8 ; 6.042539605447764E8 ; 1.4288562667795717E10 ; 0.0
80 ; 7871104.71674241 ; 2.018854175161868E8 ; 6.121277520189221E8 ; 1.4490432913659063E10 ; 0.0
81 ; 7871535.243561883 ; 2.0190063292448717E8 ; 6.199988567356645E8 ; 1.4692318331175251E10 ; 0.0
82 ; 7867158.191223953 ; 2.0191588970991212E8 ; 6.278703919792264E8 ; 1.489421896409974E10 ; 0.0
83 ; 7866131.510230254 ; 2.019311855659044E8 ; 6.357375501704503E8 ; 1.509613485380965E10 ; 0.0
84 ; 7860641.946668967 ; 2.019465182550092E8 ; 6.436036816806806E8 ; 1.5298066039375555E10 ; 0.0
85 ; 7860920.349015276 ; 2.0196188560629213E8 ; 6.514643236273496E8 ; 1.5500012557630564E10 ; 0.0
86 ; 7858856.184957966 ; 2.019772855128487E8 ; 6.593252439763649E8 ; 1.5701974443236856E10 ; 0.0
87 ; 7858073.150287206 ; 2.0199271592940387E8 ; 6.671841001613228E8 ; 1.5903951728749704E10 ; 0.0
88 ; 7852738.105981128 ; 2.0200817486999893E8 ; 6.7504217331161E8 ; 1.6105944444679108E10 ; 0.0
89 ; 7850744.156445434 ; 2.0202366040576458E8 ; 6.828949114175911E8 ; 1.6307952619549107E10 ; 0.0
90 ; 7847028.6223526355 ; 2.0203917066277716E8 ; 6.907456555740365E8 ; 1.6509976279954872E10 ; 0.0
91 ; 7842879.983825091 ; 2.0205470381999633E8 ; 6.985926841963891E8 ; 1.671201545061765E10 ; 0.0
92 ; 7841765.362689303 ; 2.0207025810728163E8 ; 7.064355641802142E8 ; 1.6914070154437645E10 ; 0.0
93 ; 7840198.002733159 ; 2.0208583180348524E8 ; 7.142773295429034E8 ; 1.7116140412544926E10 ; 0.0
94 ; 7837571.328182496 ; 2.0210142323461923E8 ; 7.221175275456365E8 ; 1.731822624434841E10 ; 0.0
95 ; 7829971.133109866 ; 2.0211703077209407E8 ; 7.29955098873819E8 ; 1.752032766758303E10 ; 0.0
96 ; 7829559.67077154 ; 2.0213265283102658E8 ; 7.377850700069288E8 ; 1.7722444698355125E10 ; 0.0
97 ; 7827395.203355149 ; 2.021482878686147E8 ; 7.456146296777004E8 ; 1.7924577351186153E10 ; 0.0
98 ; 7824547.52282769 ; 2.021639343825768E8 ; 7.534420248810556E8 ; 1.8126725639054768E10 ; 0.0
99 ; 7819133.55273087 ; 2.021795909096528E8 ; 7.612665724038833E8 ; 1.8328889573437344E10 ; 0.0
100 ; 7820004.919058825 ; 2.0219525602416572E8 ; 7.690857059566143E8 ; 1.8531069164346996E10 ; 0.0
101 ; 7813963.559769328 ; 2.022109283366403E8 ; 7.76905710875673E8 ; 1.8733264420371162E10 ; 0.0
102 ; 7808868.37620503 ; 2.0222660649247736E8 ; 7.847196744354423E8 ; 1.89354753487078E10 ; 0.0
103 ; 7805712.281450774 ; 2.022422891706814E8 ; 7.925285428116474E8 ; 1.913770195520028E10 ; 0.0
104 ; 7802251.937566254 ; 2.0225797508263934E8 ; 8.003342550930982E8 ; 1.933994424437096E10 ; 0.0
105 ; 7801599.928575461 ; 2.0227366297094867E8 ; 8.081365070306644E8 ; 1.9542202219453598E10 ; 0.0
106 ; 7793136.205431517 ; 2.0228935160829255E8 ; 8.1593810695924E8 ; 1.9744475882424545E10 ; 0.0
107 ; 7789778.49967307 ; 2.023050397963606E8 ; 8.237312431646714E8 ; 1.9946765234032837E10 ; 0.0
108 ; 7787893.378882663 ; 2.0232072636481297E8 ; 8.315210216643445E8 ; 2.0149070273829197E10 ; 0.0
109 ; 7781086.097782564 ; 2.023364101702864E8 ; 8.393089150432272E8 ; 2.035139100019401E10 ; 0.0
110 ; 7777870.348752033 ; 2.0235209009544018E8 ; 8.470900011410098E8 ; 2.05537274103643E10 ; 0.0
111 ; 7773523.276105999 ; 2.0236776504804072E8 ; 8.548678714897618E8 ; 2.075607950045974E10 ; 0.0
112 ; 7769548.772181896 ; 2.0238343396008268E8 ; 8.626413947658678E8 ; 2.0958447265507782E10 ; 0.0
113 ; 7766186.741507149 ; 2.0239909578694573E8 ; 8.704109435380497E8 ; 2.1160830699467865E10 ; 0.0
114 ; 7760766.528694077 ; 2.02414749506585E8 ; 8.781771302795569E8 ; 2.136322979525481E10 ; 0.0
115 ; 7757953.917645838 ; 2.024303941187541E8 ; 8.859378968082509E8 ; 2.1565644544761395E10 ; 0.0
116 ; 7752843.329247809 ; 2.0244602864425895E8 ; 8.936958507258967E8 ; 2.176807493888015E10 ; 0.0
117 ; 7748037.761348879 ; 2.024616521242419E8 ; 9.014486940551445E8 ; 2.197052096752441E10 ; 0.0
118 ; 7742019.3002410345 ; 2.0247726361949396E8 ; 9.091967318164934E8 ; 2.217298261964865E10 ; 0.0
119 ; 7736943.870601214 ; 2.0249286220979455E8 ; 9.169387511167344E8 ; 2.2375459883268147E10 ; 0.0
120 ; 7733075.361713879 ; 2.0250844699327764E8 ; 9.246756949873356E8 ; 2.257795274547794E10 ; 0.0
121 ; 7727668.850871246 ; 2.0252401708582258E8 ; 9.324087703490494E8 ; 2.278046119247122E10 ; 0.0
122 ; 7721787.957828563 ; 2.0253957162046954E8 ; 9.401364391999207E8 ; 2.298298520955704E10 ; 0.0
123 ; 7713469.148851292 ; 2.0255510974685752E8 ; 9.478582271577492E8 ; 2.318552478117751E10 ; 0.0
124 ; 7712990.453215805 ; 2.0257063063068473E8 ; 9.555716963066005E8 ; 2.3388079890924366E10 ; 0.0
125 ; 7705861.649616314 ; 2.0258613345319003E8 ; 9.632846867598163E8 ; 2.359065052155505E10 ; 0.0
126 ; 7702424.061544742 ; 2.0260161741065472E8 ; 9.709905484094326E8 ; 2.379323665500824E10 ; 0.0
127 ; 7697895.299436434 ; 2.0261708171392363E8 ; 9.786929724709774E8 ; 2.3995838272418896E10 ; 0.0
128 ; 7689725.8073577415 ; 2.0263252558794495E8 ; 9.863908677704139E8 ; 2.419845535413282E10 ; 0.0
129 ; 7683646.388806408 ; 2.0264794827132794E8 ; 9.940805935777717E8 ; 2.4401087879720764E10 ; 0.0
130 ; 7678114.374723603 ; 2.0266334901591745E8 ; 1.0017642399665781E9 ; 2.4603735827992092E10 ; 0.0
131 ; 7670704.5155854495 ; 2.0267872708638528E8 ; 1.0094423543413017E9 ; 2.480639917700801E10 ; 0.0
132 ; 7664506.761680053 ; 2.0269408175983682E8 ; 1.0171130588568871E9 ; 2.5009077904094395E10 ; 0.0
133 ; 7654745.4570862185 ; 2.0270941232543308E8 ; 1.0247775656185671E9 ; 2.5211771985854233E10 ; 0.0
134 ; 7647017.650173422 ; 2.0272471808402678E8 ; 1.0324323110756533E9 ; 2.5414481398179665E10 ; 0.0
135 ; 7638078.398314335 ; 2.0273999834781277E8 ; 1.0400793287258267E9 ; 2.561720611626369E10 ; 0.0
136 ; 7629127.597377916 ; 2.027552524399913E8 ; 1.0477174071241411E9 ; 2.5819946114611504E10 ; 0.0
137 ; 7619756.706231535 ; 2.0277047969444415E8 ; 1.055346534721519E9 ; 2.6022701367051495E10 ; 0.0
138 ; 7611534.334500611 ; 2.0278567945542303E8 ; 1.0629662914277506E9 ; 2.6225471846745937E10 ; 0.0
139 ; 7603994.753837068 ; 2.028008510772496E8 ; 1.0705778257622511E9 ; 2.642825752620136E10 ; 0.0
140 ; 7594537.908877893 ; 2.0281599392402673E8 ; 1.0781818205160882E9 ; 2.663105837727861E10 ; 0.0
141 ; 7586559.705165883 ; 2.0283110736936063E8 ; 1.085776358424966E9 ; 2.6833874371202637E10 ; 0.0
142 ; 7577913.903857547 ; 2.0284619079609308E8 ; 1.093362918130132E9 ; 2.7036705478572E10 ; 0.0
143 ; 7567652.704242449 ; 2.0286124359604385E8 ; 1.1009408320339894E9 ; 2.723955166936809E10 ; 0.0
144 ; 7559200.940663441 ; 2.0287626516976243E8 ; 1.108508484738232E9 ; 2.7442412912964134E10 ; 0.0
145 ; 7550382.120877091 ; 2.0289125492628905E8 ; 1.1160676856788952E9 ; 2.7645289178133896E10 ; 0.0
146 ; 7547563.073747375 ; 2.0290621228292426E8 ; 1.1236180677997723E9 ; 2.7848180433060184E10 ; 0.0
147 ; 7539566.205904826 ; 2.0292113666500717E8 ; 1.1311656308735197E9 ; 2.805108664534311E10 ; 0.0
148 ; 7533731.124211985 ; 2.0293602750570163E8 ; 1.1387051970794244E9 ; 2.8254007782008118E10 ; 0.0
149 ; 7529087.296207238 ; 2.0295088424579012E8 ; 1.1462389282036364E9 ; 2.845694380951382E10 ; 0.0
150 ; 7522909.994119078 ; 2.0296570633347526E8 ; 1.1537680154998436E9 ; 2.865989469375961E10 ; 0.0
151 ; 7516945.842531905 ; 2.0298049322418842E8 ; 1.1612909254939628E9 ; 2.8862860400093086E10 ; 0.0
152 ; 7510855.646239003 ; 2.02995244380405E8 ; 1.1688078713364947E9 ; 2.9065840893317276E10 ; 0.0
153 ; 7504159.810351398 ; 2.0300995927146673E8 ; 1.1763187269827337E9 ; 2.926883613769768E10 ; 0.0
154 ; 7494724.618433754 ; 2.030246373734099E8 ; 1.183822886793085E9 ; 2.9471846096969147E10 ; 0.0
155 ; 7489815.421064939 ; 2.0303927816879997E8 ; 1.1913176114115188E9 ; 2.9674870734342556E10 ; 0.0
156 ; 7482322.361471584 ; 2.0305388114657193E8 ; 1.1988074268325837E9 ; 2.9877910012511356E10 ; 0.0
157 ; 7478262.592792716 ; 2.0306844580187643E8 ; 1.2062897491940553E9 ; 3.008096389365793E10 ; 0.0
158 ; 7473219.269916929 ; 2.0308297163593102E8 ; 1.213768011786848E9 ; 3.0284032339459805E10 ; 0.0
159 ; 7468246.549310725 ; 2.03097458155877E8 ; 1.221241231056765E9 ; 3.0487115311095734E10 ; 0.0
160 ; 7460682.439551284 ; 2.0311190487464103E8 ; 1.2287094776060758E9 ; 3.069021276925161E10 ; 0.0
161 ; 7451837.21660268 ; 2.0312631131080168E8 ; 1.236170160045627E9 ; 3.089332467412625E10 ; 0.0
162 ; 7446140.71201826 ; 2.031406769884605E8 ; 1.2436219972622297E9 ; 3.1096450985437054E10 ; 0.0
163 ; 7439770.123576489 ; 2.0315500143711773E8 ; 1.251068137974248E9 ; 3.1299591662425514E10 ; 0.0
164 ; 7430641.736501866 ; 2.031692841915521E8 ; 1.2585079080978243E9 ; 3.1502746663862633E10 ; 0.0
165 ; 7429577.085940892 ; 2.0318352479170495E8 ; 1.2659385498343263E9 ; 3.1705915948054184E10 ; 0.0
166 ; 7418679.3703939095 ; 2.0319772278256825E8 ; 1.273368126920267E9 ; 3.190909947284589E10 ; 0.0
167 ; 7411930.018880259 ; 2.032118777140765E8 ; 1.280786806290661E9 ; 3.211229719562846E10 ; 0.0
168 ; 7406107.039940833 ; 2.032259891410021E8 ; 1.2881987363095415E9 ; 3.2315509073342537E10 ; 0.0
169 ; 7401432.326161689 ; 2.0324005662285468E8 ; 1.2956048433494823E9 ; 3.251873506248354E10 ; 0.0
170 ; 7391946.465067801 ; 2.0325407972378352E8 ; 1.303006275675644E9 ; 3.2721975119106396E10 ; 0.0
171 ; 7385600.474201991 ; 2.0326805801248336E8 ; 1.3103982221407118E9 ; 3.292522919883018E10 ; 0.0
172 ; 7376354.705200916 ; 2.0328199106210333E8 ; 1.3177838226149137E9 ; 3.3128497256842663E10 ; 0.0
173 ; 7372349.623390644 ; 2.0329587845015922E8 ; 1.3251601773201146E9 ; 3.3331779247904766E10 ; 0.0
174 ; 7367091.239036753 ; 2.0330971975844824E8 ; 1.3325325269435053E9 ; 3.3535075126354927E10 ; 0.0
175 ; 7364050.436895417 ; 2.0332351457296705E8 ; 1.339899618182542E9 ; 3.3738384846113377E10 ; 0.0
176 ; 7360037.648636285 ; 2.033372624838322E8 ; 1.3472636686194375E9 ; 3.3941708360686344E10 ; 0.0
177 ; 7352736.301597592 ; 2.0335096308520353E8 ; 1.3546237062680738E9 ; 3.4145045623170177E10 ; 0.0
178 ; 7349441.9729149 ; 2.0336461597520965E8 ; 1.3619764425696714E9 ; 3.4348396586255383E10 ; 0.0
179 ; 7346165.596204833 ; 2.0337822075587657E8 ; 1.3693258845425863E9 ; 3.455176120223059E10 ; 0.0
180 ; 7339887.623351939 ; 2.0339177703305793E8 ; 1.376672050138791E9 ; 3.4755139422986465E10 ; 0.0
181 ; 7335688.945046428 ; 2.0340528441636807E8 ; 1.3840119377621431E9 ; 3.495853120001952E10 ; 0.0
182 ; 7331074.286310172 ; 2.0341874251911703E8 ; 1.3913476267071896E9 ; 3.516193648443589E10 ; 0.0
183 ; 7328995.9079780895 ; 2.0343215095824784E8 ; 1.3986787009934998E9 ; 3.536535522695501E10 ; 0.0
184 ; 7327290.479760665 ; 2.0344550935427567E8 ; 1.4060076969014778E9 ; 3.556878737791325E10 ; 0.0
185 ; 7322106.699942316 ; 2.0345881733122915E8 ; 1.4133349873812385E9 ; 3.577223288726753E10 ; 0.0
186 ; 7316389.117906972 ; 2.0347207451659346E8 ; 1.4206570940811808E9 ; 3.597569170459876E10 ; 0.0
187 ; 7313163.934930514 ; 2.0348528054125535E8 ; 1.4279734831990879E9 ; 3.617916377911536E10 ; 0.0
188 ; 7307914.840124382 ; 2.034984350394499E8 ; 1.4352866471340184E9 ; 3.638264905965661E10 ; 0.0
189 ; 7301886.038025776 ; 2.03511537648709E8 ; 1.4425945619741428E9 ; 3.658614749469606E10 ; 0.0
190 ; 7298391.473495266 ; 2.035245880098115E8 ; 1.4498964480121686E9 ; 3.678965903234477E10 ; 0.0
191 ; 7293522.497783763 ; 2.0353758576673496E8 ; 1.457194839485664E9 ; 3.699318362035458E10 ; 0.0
192 ; 7291453.697637284 ; 2.0355053056660897E8 ; 1.4644883619834476E9 ; 3.7196721206121315E10 ; 0.0
193 ; 7286372.0663227 ; 2.0356342205966988E8 ; 1.4717798156810849E9 ; 3.740027173668793E10 ; 0.0
194 ; 7283068.53498402 ; 2.0357625989921716E8 ; 1.4790661877474077E9 ; 3.76038351587476E10 ; 0.0
195 ; 7277146.389855888 ; 2.0358904374157083E8 ; 1.4863492562823918E9 ; 3.780741141864681E10 ; 0.0
196 ; 7274646.99358328 ; 2.0360177324603072E8 ; 1.4936264026722476E9 ; 3.801100046238838E10 ; 0.0
197 ; 7270043.898354571 ; 2.0361444807483646E8 ; 1.5009010496658309E9 ; 3.8214602235634415E10 ; 0.0
198 ; 7265594.81058263 ; 2.0362706789312926E8 ; 1.5081710935641854E9 ; 3.841821668370925E10 ; 0.0
199 ; 7261243.129994622 ; 2.036396323689145E8 ; 1.515436688374768E9 ; 3.862184375160238E10 ; 0.0
200 ; 7258966.075620543 ; 1.8786414706970653E8 ; 1.5226979315047626E9 ; 3.882548338397129E10 ; 0.0
201 ; 7250559.548654027 ; 1.5482460076023433E8 ; 1.5299568975803833E9 ; 3.9013347531041E10 ; 0.0
