CSV File for the City 4 on Day 92
1 - Minute m 
2 - Power Consumed at minute m 
3 - Power Produced at minute m 
4 - Energy Consumed since the beginning of the day 
5 - Energy Produced since the beginning of the day 
6 - Energy Lost since the beginning of the day on lines starting from the city
 
0 ; 6845697.135670721 ; 1.0619306432584915E8 ; 0.0 ; 0.0 ; 0.0
1 ; 6850714.999342734 ; 1.0634361259621626E8 ; 6845697.135670721 ; 1.0619306432584915E8 ; 0.0
2 ; 6859053.206896033 ; 1.068031874188846E8 ; 1.3696412135013454E7 ; 2.125366769220654E8 ; 0.0
3 ; 6866261.140360062 ; 1.0757179287956274E8 ; 2.0555465341909487E7 ; 3.1933986434095E8 ; 0.0
4 ; 6875031.931076828 ; 1.0864943263989562E8 ; 2.7421726482269548E7 ; 4.2691165722051275E8 ; 0.0
5 ; 6886901.705519663 ; 1.1003610991713673E8 ; 3.429675841334638E7 ; 5.3556108986040837E8 ; 0.0
6 ; 6906359.304301631 ; 1.1173182746594492E8 ; 4.118366011886604E7 ; 6.455971997775451E8 ; 0.0
7 ; 6926581.655298338 ; 1.1373658756254226E8 ; 4.8090019423167676E7 ; 7.5732902724349E8 ; 0.0
8 ; 6963287.58312246 ; 1.1605039199144542E8 ; 5.501660107846601E7 ; 8.710656148060322E8 ; 0.0
9 ; 7011574.788807472 ; 1.1867324203494918E8 ; 6.1979888661588475E7 ; 9.871160067974776E8 ; 0.0
10 ; 7089442.525174199 ; 1.2160513846550804E8 ; 6.899146345039594E7 ; 1.1057892488324268E9 ; 0.0
11 ; 7214019.707509671 ; 1.2484608154112205E8 ; 7.608090597557014E7 ; 1.2273943872979348E9 ; 0.0
12 ; 7410710.534219594 ; 1.2839607100379112E8 ; 8.329492568307981E7 ; 1.3522404688390567E9 ; 0.0
13 ; 7599450.711425254 ; 1.3225510608106077E8 ; 9.07056362172994E7 ; 1.4806365398428478E9 ; 0.0
14 ; 7621084.7825699765 ; 1.364231854906363E8 ; 9.830508692872466E7 ; 1.6128916459239087E9 ; 0.0
15 ; 7633768.355641821 ; 1.409003074480009E8 ; 1.0592617171129464E8 ; 1.749314831414545E9 ; 0.0
16 ; 7640788.939908033 ; 1.4568646967693266E8 ; 1.1355994006693646E8 ; 1.890215138862546E9 ; 0.0
17 ; 7651887.442765016 ; 1.5078166942277262E8 ; 1.2120072900684449E8 ; 2.0359016085394785E9 ; 0.0
18 ; 7658964.2537151845 ; 1.5618590346826732E8 ; 1.288526164496095E8 ; 2.186683277962251E9 ; 0.0
19 ; 7668113.303151976 ; 1.618991681517718E8 ; 1.3651158070332468E8 ; 2.3428691814305186E9 ; 0.0
20 ; 7678265.896379468 ; 1.679214593875775E8 ; 1.4417969400647664E8 ; 2.5047683495822906E9 ; 0.0
21 ; 7684244.545871286 ; 1.7425277268810776E8 ; 1.518579599028561E8 ; 2.672689808969868E9 ; 0.0
22 ; 7696765.637710606 ; 1.808931031877082E8 ; 1.595422044487274E8 ; 2.846942581657976E9 ; 0.0
23 ; 7705925.163553623 ; 1.8784244566775113E8 ; 1.67238970086438E8 ; 3.0278356848456845E9 ; 0.0
24 ; 7711276.403699626 ; 1.951007945827688E8 ; 1.7494489524999163E8 ; 3.215678130513436E9 ; 0.0
25 ; 7723564.030295858 ; 2.013561849855164E8 ; 1.8265617165369126E8 ; 3.4107789250962048E9 ; 0.0
26 ; 7734005.73799223 ; 2.013621585912172E8 ; 1.903797356839871E8 ; 3.6121351100817213E9 ; 0.0
27 ; 7741117.264202635 ; 2.0136847833001965E8 ; 1.9811374142197934E8 ; 3.8134972686729383E9 ; 0.0
28 ; 7750946.556060682 ; 2.0137513762127858E8 ; 2.0585485868618196E8 ; 4.014865747002958E9 ; 0.0
29 ; 7755818.40561578 ; 2.0138212969403106E8 ; 2.1360580524224263E8 ; 4.2162408846242366E9 ; 0.0
30 ; 7764388.415734258 ; 2.0138944761373806E8 ; 2.213616236478584E8 ; 4.417623014318268E9 ; 0.0
31 ; 7772968.856929869 ; 2.0139708430834746E8 ; 2.2912601206359267E8 ; 4.619012461932006E9 ; 0.0
32 ; 7784929.943111486 ; 2.01405032593512E8 ; 2.3689898092052254E8 ; 4.820409546240354E9 ; 0.0
33 ; 7789659.435706035 ; 2.0141328519682026E8 ; 2.4468391086363402E8 ; 5.021814578833865E9 ; 0.0
34 ; 7798144.828394757 ; 2.0142183478092232E8 ; 2.5247357029934007E8 ; 5.223227864030685E9 ; 0.0
35 ; 7805795.235479322 ; 2.0143067396545458E8 ; 2.6027171512773484E8 ; 5.424649698811607E9 ; 0.0
36 ; 7812358.227916081 ; 2.014397953476914E8 ; 2.6807751036321416E8 ; 5.626080372777061E9 ; 0.0
37 ; 7819678.806988142 ; 2.014491915218712E8 ; 2.7588986859113026E8 ; 5.827520168124753E9 ; 0.0
38 ; 7826187.251585303 ; 2.014588550971652E8 ; 2.837095473981184E8 ; 6.028969359646625E9 ; 0.0
39 ; 7834853.987169393 ; 2.014687787142739E8 ; 2.915357346497037E8 ; 6.23042821474379E9 ; 0.0
40 ; 7838142.764912812 ; 2.0147895506065276E8 ; 2.9937058863687307E8 ; 6.431896993458063E9 ; 0.0
41 ; 7847156.057876173 ; 2.014893768843827E8 ; 3.0720873140178585E8 ; 6.633375948518716E9 ; 0.0
42 ; 7850699.77316731 ; 2.015000370067125E8 ; 3.15055887459662E8 ; 6.834865325403098E9 ; 0.0
43 ; 7854364.333332745 ; 2.0151092833331147E8 ; 3.2290658723282933E8 ; 7.036365362409811E9 ; 0.0
44 ; 7859857.456627821 ; 2.0152204386427823E8 ; 3.3076095156616205E8 ; 7.237876290743122E9 ; 0.0
45 ; 7863580.285873369 ; 2.0153337670295885E8 ; 3.386208090227899E8 ; 7.4393983346074E9 ; 0.0
46 ; 7870907.283863818 ; 2.0154492006363317E8 ; 3.4648438930866325E8 ; 7.640931711310359E9 ; 0.0
47 ; 7873334.961630607 ; 2.015566672781305E8 ; 3.543552965925271E8 ; 7.842476631373992E9 ; 0.0
48 ; 7877273.811456177 ; 2.0156861180144063E8 ; 3.622286315541577E8 ; 8.0440332986521225E9 ; 0.0
49 ; 7876141.236899478 ; 2.015807472163856E8 ; 3.701059053656139E8 ; 8.245601910453563E9 ; 0.0
50 ; 7880256.576133746 ; 2.0159306723741892E8 ; 3.779820466025134E8 ; 8.447182657669949E9 ; 0.0
51 ; 7882525.581643381 ; 2.01605565713619E8 ; 3.858623031786471E8 ; 8.648775724907368E9 ; 0.0
52 ; 7890142.115066053 ; 2.0161823663094124E8 ; 3.937448287602905E8 ; 8.850381290620987E9 ; 0.0
53 ; 7888967.422275408 ; 2.0163107411379287E8 ; 4.0163497087535655E8 ; 9.051999527251928E9 ; 0.0
54 ; 7891425.664033273 ; 2.016440724259913E8 ; 4.09523938297632E8 ; 9.25363060136572E9 ; 0.0
55 ; 7896300.155573579 ; 2.016572259711651E8 ; 4.174153639616653E8 ; 9.455274673791712E9 ; 0.0
56 ; 7897011.416759559 ; 2.0167052929265362E8 ; 4.253116641172389E8 ; 9.656931899762877E9 ; 0.0
57 ; 7899968.926957754 ; 2.0168397707295766E8 ; 4.332086755339984E8 ; 9.85860242905553E9 ; 0.0
58 ; 7901149.286023087 ; 2.016975641327918E8 ; 4.4110864446095616E8 ; 1.0060286406128489E10 ; 0.0
59 ; 7903581.023410209 ; 2.0171128542978442E8 ; 4.4900979374697924E8 ; 1.026198397026128E10 ; 0.0
60 ; 7905372.1507997075 ; 2.0172513605686924E8 ; 4.5691337477038944E8 ; 1.0463695255691065E10 ; 0.0
61 ; 7906760.136491765 ; 2.0173911124040827E8 ; 4.648187469211891E8 ; 1.0665420391747934E10 ; 0.0
62 ; 7907994.293377986 ; 2.0175320633808407E8 ; 4.727255070576809E8 ; 1.0867159502988342E10 ; 0.0
63 ; 7912113.8098670365 ; 2.0176741683659434E8 ; 4.806335013510589E8 ; 1.1068912709326426E10 ; 0.0
64 ; 7914680.733985371 ; 2.0178173834918144E8 ; 4.885456151609259E8 ; 1.127068012616302E10 ; 0.0
65 ; 7914770.445102652 ; 2.017961666130242E8 ; 4.964602958949113E8 ; 1.1472461864512201E10 ; 0.0
66 ; 7915297.979110633 ; 2.018106974865186E8 ; 5.043750663400139E8 ; 1.1674258031125225E10 ; 0.0
67 ; 7918269.864197658 ; 2.0182532694647023E8 ; 5.122903643191246E8 ; 1.1876068728611744E10 ; 0.0
68 ; 7917351.648703454 ; 2.018400510852201E8 ; 5.2020863418332225E8 ; 1.2077894055558214E10 ; 0.0
69 ; 7918384.021907807 ; 2.0185486610772213E8 ; 5.281259858320257E8 ; 1.2279734106643435E10 ; 0.0
70 ; 7920176.323158209 ; 2.018697683285895E8 ; 5.360443698539335E8 ; 1.2481588972751156E10 ; 0.0
71 ; 7921882.0618651 ; 2.0188475416912478E8 ; 5.439645461770917E8 ; 1.2683458741079746E10 ; 0.0
72 ; 7923526.028332215 ; 2.018998201543471E8 ; 5.518864282389568E8 ; 1.288534349524887E10 ; 0.0
73 ; 7924856.036029599 ; 2.0191496291002777E8 ; 5.59809954267289E8 ; 1.3087243315403217E10 ; 0.0
74 ; 7925517.844012282 ; 2.0193017915974513E8 ; 5.677348103033186E8 ; 1.3289158278313246E10 ; 0.0
75 ; 7927403.310061423 ; 2.019454657219666E8 ; 5.756603281473309E8 ; 1.349108845747299E10 ; 0.0
76 ; 7930073.4537313385 ; 2.0196081950716662E8 ; 5.835877314573923E8 ; 1.3693033923194956E10 ; 0.0
77 ; 7929321.459880443 ; 2.0197623751498622E8 ; 5.915178049111236E8 ; 1.3894994742702122E10 ; 0.0
78 ; 7925907.835881663 ; 2.0199171683144003E8 ; 5.994471263710041E8 ; 1.4096970980217108E10 ; 0.0
79 ; 7925673.39017859 ; 2.0200725462617567E8 ; 6.073730342068858E8 ; 1.4298962697048548E10 ; 0.0
80 ; 7925864.007805342 ; 2.020228481497891E8 ; 6.152987075970644E8 ; 1.4500969951674723E10 ; 0.0
81 ; 7920636.976939216 ; 2.020384947311988E8 ; 6.232245716048697E8 ; 1.4702992799824512E10 ; 0.0
82 ; 7920392.557805733 ; 2.020541917750821E8 ; 6.311452085818089E8 ; 1.4905031294555712E10 ; 0.0
83 ; 7919316.80363206 ; 2.020699367593748E8 ; 6.390656011396147E8 ; 1.5107085486330793E10 ; 0.0
84 ; 7915437.917854458 ; 2.0208572723283565E8 ; 6.469849179432467E8 ; 1.5309155423090168E10 ; 0.0
85 ; 7913463.048409501 ; 2.0210156081267706E8 ; 6.549003558611012E8 ; 1.5511241150323004E10 ; 0.0
86 ; 7911793.716199256 ; 2.0211743518226212E8 ; 6.628138189095106E8 ; 1.5713342711135681E10 ; 0.0
87 ; 7909141.315157721 ; 2.0213334808886838E8 ; 6.707256126257099E8 ; 1.5915460146317944E10 ; 0.0
88 ; 7908864.396348465 ; 2.0214929734151825E8 ; 6.786347539408677E8 ; 1.6117593494406813E10 ; 0.0
89 ; 7906887.725686107 ; 2.0216528080887577E8 ; 6.865436183372161E8 ; 1.6319742791748331E10 ; 0.0
90 ; 7903154.37034344 ; 2.0218129641720897E8 ; 6.944505060629022E8 ; 1.6521908072557207E10 ; 0.0
91 ; 7897610.923878386 ; 2.0219734214841723E8 ; 7.023536604332457E8 ; 1.6724089368974417E10 ; 0.0
92 ; 7899647.570657314 ; 2.0221341603812265E8 ; 7.102512713571241E8 ; 1.6926286711122833E10 ; 0.0
93 ; 7896125.327474793 ; 2.022295161738244E8 ; 7.181509189277815E8 ; 1.7128500127160955E10 ; 0.0
94 ; 7892606.165104181 ; 2.0224564069311464E8 ; 7.260470442552563E8 ; 1.733072964333478E10 ; 0.0
95 ; 7891091.018113306 ; 2.02261787781955E8 ; 7.339396504203604E8 ; 1.7532975284027897E10 ; 0.0
96 ; 7888890.675749191 ; 2.0227795567301232E8 ; 7.418307414384737E8 ; 1.7735237071809853E10 ; 0.0
97 ; 7885111.63066068 ; 2.0229414264405164E8 ; 7.497196321142229E8 ; 1.7937515027482864E10 ; 0.0
98 ; 7881473.580807582 ; 2.0231034701638576E8 ; 7.576047437448835E8 ; 1.8139809170126915E10 ; 0.0
99 ; 7879204.506393493 ; 2.0232656715337944E8 ; 7.654862173256911E8 ; 1.83421195171433E10 ; 0.0
100 ; 7876631.963223132 ; 2.0234280145900637E8 ; 7.733654218320847E8 ; 1.8544446084296677E10 ; 0.0
101 ; 7872083.754829105 ; 2.023590483764584E8 ; 7.812420537953078E8 ; 1.8746788885755684E10 ; 0.0
102 ; 7868199.670003995 ; 2.0237530638680428E8 ; 7.891141375501368E8 ; 1.894914793413214E10 ; 0.0
103 ; 7867283.744159795 ; 2.0239157400769728E8 ; 7.969823372201408E8 ; 1.9151523240518944E10 ; 0.0
104 ; 7862995.062837201 ; 2.024078497921296E8 ; 8.048496209643006E8 ; 1.935391481452664E10 ; 0.0
105 ; 7860320.4548232 ; 2.0242413232723248E8 ; 8.127126160271379E8 ; 1.955632266431877E10 ; 0.0
106 ; 7861139.531563684 ; 2.0244042023311996E8 ; 8.205729364819611E8 ; 1.9758746796646004E10 ; 0.0
107 ; 7853101.109649517 ; 2.0245671216177556E8 ; 8.284340760135248E8 ; 1.9961187216879124E10 ; 0.0
108 ; 7848811.811573457 ; 2.024730067959797E8 ; 8.362871771231743E8 ; 2.0163643929040897E10 ; 0.0
109 ; 7845166.059851343 ; 2.0248930284827694E8 ; 8.441359889347478E8 ; 2.0366116935836876E10 ; 0.0
110 ; 7839212.554515353 ; 2.025055990599813E8 ; 8.519811549945991E8 ; 2.0568606238685154E10 ; 0.0
111 ; 7837333.112778891 ; 2.0252189420021856E8 ; 8.598203675491145E8 ; 2.0771111837745136E10 ; 0.0
112 ; 7833760.849944473 ; 2.0253818706500426E8 ; 8.676577006618934E8 ; 2.0973633731945354E10 ; 0.0
113 ; 7829904.839515569 ; 2.0255447647635576E8 ; 8.754914615118378E8 ; 2.1176171919010357E10 ; 0.0
114 ; 7826594.245372366 ; 2.0257076128143737E8 ; 8.833213663513534E8 ; 2.1378726395486713E10 ; 0.0
115 ; 7820885.951374759 ; 2.0258704035173744E8 ; 8.911479605967258E8 ; 2.158129715676815E10 ; 0.0
116 ; 7815226.563484536 ; 2.0260331258227593E8 ; 8.989688465481006E8 ; 2.178388419711989E10 ; 0.0
117 ; 7813562.097637876 ; 2.0261957689084154E8 ; 9.067840731115851E8 ; 2.1986487509702164E10 ; 0.0
118 ; 7808323.233240402 ; 2.0263583221725723E8 ; 9.14597635209223E8 ; 2.2189107086593006E10 ; 0.0
119 ; 7804308.462002418 ; 2.0265207752267304E8 ; 9.224059584424634E8 ; 2.2391742918810265E10 ; 0.0
120 ; 7798257.229963992 ; 2.0266831178888518E8 ; 9.302102669044658E8 ; 2.259439499633294E10 ; 0.0
121 ; 7795840.832513559 ; 2.026845340176805E8 ; 9.380085241344298E8 ; 2.2797063308121826E10 ; 0.0
122 ; 7794210.829356313 ; 2.0270074323020506E8 ; 9.458043649669434E8 ; 2.2999747842139507E10 ; 0.0
123 ; 7785563.441702417 ; 2.0271693846635652E8 ; 9.535985757962997E8 ; 2.3202448585369713E10 ; 0.0
124 ; 7785359.514211677 ; 2.0273311878419843E8 ; 9.613841392380021E8 ; 2.340516552383607E10 ; 0.0
125 ; 7777130.33268859 ; 2.0274928325939676E8 ; 9.691694987522137E8 ; 2.360789864262027E10 ; 0.0
126 ; 7772605.296990027 ; 2.027654309846768E8 ; 9.769466290849023E8 ; 2.3810647925879665E10 ; 0.0
127 ; 7769948.350802707 ; 2.027815610693003E8 ; 9.847192343818923E8 ; 2.401341335686434E10 ; 0.0
128 ; 7765003.733410477 ; 2.0279767263856167E8 ; 9.92489182732695E8 ; 2.4216194917933643E10 ; 0.0
129 ; 7759571.605532933 ; 2.0281376483330292E8 ; 1.0002541864661055E9 ; 2.4418992590572205E10 ; 0.0
130 ; 7751398.629176673 ; 2.02829836809446E8 ; 1.0080137580716383E9 ; 2.4621806355405506E10 ; 0.0
131 ; 7742768.007279997 ; 2.0284588773754272E8 ; 1.015765156700815E9 ; 2.482463619221495E10 ; 0.0
132 ; 7737840.881886653 ; 2.028619168023406E8 ; 1.023507924708095E9 ; 2.502748207995249E10 ; 0.0
133 ; 7728973.071805395 ; 2.0287792320236477E8 ; 1.0312457655899816E9 ; 2.5230343996754833E10 ; 0.0
134 ; 7724158.266736233 ; 2.028939061495152E8 ; 1.0389747386617869E9 ; 2.54332219199572E10 ; 0.0
135 ; 7713671.7727072695 ; 2.0290986486867818E8 ; 1.0466988969285232E9 ; 2.5636115826106716E10 ; 0.0
136 ; 7704084.544974061 ; 2.0292579859735206E8 ; 1.0544125687012304E9 ; 2.5839025690975395E10 ; 0.0
137 ; 7696235.343209366 ; 2.0294170658528647E8 ; 1.0621166532462045E9 ; 2.6041951489572746E10 ; 0.0
138 ; 7689197.8294698745 ; 2.029575880941345E8 ; 1.0698128885894139E9 ; 2.624489319615803E10 ; 0.0
139 ; 7682854.618944037 ; 2.029734423971173E8 ; 1.0775020864188838E9 ; 2.6447850784252167E10 ; 0.0
140 ; 7674509.967249233 ; 2.0298926877870068E8 ; 1.0851849410378277E9 ; 2.6650824226649284E10 ; 0.0
141 ; 7665264.290699935 ; 2.0300506653428346E8 ; 1.092859451005077E9 ; 2.6853813495427986E10 ; 0.0
142 ; 7655774.571513391 ; 2.0302083496989658E8 ; 1.1005247152957768E9 ; 2.705681856196227E10 ; 0.0
143 ; 7650055.349965176 ; 2.030365734019131E8 ; 1.1081804898672903E9 ; 2.7259839396932167E10 ; 0.0
144 ; 7642675.6808199035 ; 2.0305228115676844E8 ; 1.1158305452172554E9 ; 2.746287597033408E10 ; 0.0
145 ; 7634649.585795733 ; 2.0306795757069045E8 ; 1.1234732208980753E9 ; 2.766592825149085E10 ; 0.0
146 ; 7630271.805407041 ; 2.0308360198943904E8 ; 1.131107870483871E9 ; 2.786899620906154E10 ; 0.0
147 ; 7624315.077591974 ; 2.0309921376805484E8 ; 1.138738142289278E9 ; 2.807207981105098E10 ; 0.0
148 ; 7618662.928610994 ; 2.0311479227061674E8 ; 1.14636245736687E9 ; 2.8275179024819035E10 ; 0.0
149 ; 7611962.78046617 ; 2.0313033687000796E8 ; 1.153981120295481E9 ; 2.8478293817089653E10 ; 0.0
150 ; 7610774.404759685 ; 2.0314584694769007E8 ; 1.161593083075947E9 ; 2.868142415395966E10 ; 0.0
151 ; 7600379.813785456 ; 2.0316132189348495E8 ; 1.1692038574807067E9 ; 2.888457000090735E10 ; 0.0
152 ; 7598270.711620691 ; 2.031767611053644E8 ; 1.1768042372944922E9 ; 2.9087731322800835E10 ; 0.0
153 ; 7593184.714818894 ; 2.0319216398924685E8 ; 1.184402508006113E9 ; 2.92909080839062E10 ; 0.0
154 ; 7586054.574535874 ; 2.03207529958801E8 ; 1.191995692720932E9 ; 2.9494100247895447E10 ; 0.0
155 ; 7579865.709595038 ; 2.0322285843525654E8 ; 1.1995817472954679E9 ; 2.9697307777854248E10 ; 0.0
156 ; 7574390.775269683 ; 2.0323814884722093E8 ; 1.2071616130050628E9 ; 2.9900530636289505E10 ; 0.0
157 ; 7565320.821358772 ; 2.0325340063050264E8 ; 1.2147360037803326E9 ; 3.0103768785136726E10 ; 0.0
158 ; 7560847.912691969 ; 2.032686132279404E8 ; 1.2223013246016912E9 ; 3.0307022185767227E10 ; 0.0
159 ; 7556842.121175461 ; 2.032837860892382E8 ; 1.2298621725143833E9 ; 3.0510290798995167E10 ; 0.0
160 ; 7549108.923105047 ; 2.0329891867080584E8 ; 1.2374190146355588E9 ; 3.0713574585084404E10 ; 0.0
161 ; 7547930.9521467285 ; 2.0331401043560487E8 ; 1.2449681235586638E9 ; 3.091687350375521E10 ; 0.0
162 ; 7539356.068922242 ; 2.033290608529998E8 ; 1.2525160545108106E9 ; 3.1120187514190815E10 ; 0.0
163 ; 7532623.427565807 ; 2.033440693986141E8 ; 1.260055410579733E9 ; 3.1323516575043816E10 ; 0.0
164 ; 7527225.648898338 ; 2.0335903555419123E8 ; 1.2675880340072987E9 ; 3.152686064444243E10 ; 0.0
165 ; 7520903.44465453 ; 2.0337395880746007E8 ; 1.275115259656197E9 ; 3.173021967999662E10 ; 0.0
166 ; 7515928.650041184 ; 2.0338883865200508E8 ; 1.2826361631008515E9 ; 3.193359363880408E10 ; 0.0
167 ; 7507766.895781494 ; 2.0340367458714047E8 ; 1.2901520917508926E9 ; 3.2136982477456085E10 ; 0.0
168 ; 7503232.236750426 ; 2.0341846611778885E8 ; 1.2976598586466742E9 ; 3.2340386152043224E10 ; 0.0
169 ; 7496992.233512192 ; 2.0343321275436357E8 ; 1.3051630908834245E9 ; 3.2543804618161015E10 ; 0.0
170 ; 7490201.127920888 ; 2.0344791401265514E8 ; 1.3126600831169367E9 ; 3.274723783091538E10 ; 0.0
171 ; 7482887.085717406 ; 2.034625694137212E8 ; 1.3201502842448575E9 ; 3.2950685744928032E10 ; 0.0
172 ; 7472896.84492869 ; 2.034771784837803E8 ; 1.327633171330575E9 ; 3.3154148314341755E10 ; 0.0
173 ; 7471957.414024152 ; 2.0349174075410894E8 ; 1.3351060681755037E9 ; 3.3357625492825535E10 ; 0.0
174 ; 7468611.921480836 ; 2.0350625576094198E8 ; 1.3425780255895278E9 ; 3.3561117233579643E10 ; 0.0
175 ; 7462572.576277536 ; 2.0352072304537648E8 ; 1.3500466375110087E9 ; 3.3764623489340584E10 ; 0.0
176 ; 7456795.315659164 ; 2.0353514215327835E8 ; 1.3575092100872862E9 ; 3.396814421238596E10 ; 0.0
177 ; 7456403.174755085 ; 2.0354951263519222E8 ; 1.3649660054029453E9 ; 3.4171679354539238E10 ; 0.0
178 ; 7450661.882563737 ; 2.035638340462542E8 ; 1.3724224085777004E9 ; 3.437522886717443E10 ; 0.0
179 ; 7448661.918640317 ; 2.035781059461072E8 ; 1.3798730704602642E9 ; 3.457879270122069E10 ; 0.0
180 ; 7442952.145125606 ; 2.0359232789881942E8 ; 1.3873217323789046E9 ; 3.4782370807166794E10 ; 0.0
181 ; 7441459.311691205 ; 2.0360649947280487E8 ; 1.3947646845240302E9 ; 3.498596313506561E10 ; 0.0
182 ; 7435392.665083738 ; 2.036206202407469E8 ; 1.4022061438357215E9 ; 3.5189569634538414E10 ; 0.0
183 ; 7433872.376582025 ; 2.0363468977952388E8 ; 1.4096415365008051E9 ; 3.539319025477916E10 ; 0.0
184 ; 7426770.583607492 ; 2.0364870767013744E8 ; 1.417075408877387E9 ; 3.5596824944558685E10 ; 0.0
185 ; 7426247.375271908 ; 2.0366267349764276E8 ; 1.4245021794609945E9 ; 3.580047365222882E10 ; 0.0
186 ; 7422945.381670788 ; 2.0367658685108113E8 ; 1.4319284268362663E9 ; 3.600413632572646E10 ; 0.0
187 ; 7418604.606010843 ; 2.0369044732341477E8 ; 1.439351372217937E9 ; 3.6207812912577545E10 ; 0.0
188 ; 7411849.6407479225 ; 2.0370425451146358E8 ; 1.446769976823948E9 ; 3.641150335990096E10 ; 0.0
189 ; 7410532.381765964 ; 2.0371800801584375E8 ; 1.454181826464696E9 ; 3.661520761441243E10 ; 0.0
190 ; 7405917.571348054 ; 2.0373170744090864E8 ; 1.461592358846462E9 ; 3.6818925622428276E10 ; 0.0
191 ; 7403923.197911536 ; 2.0374535239469102E8 ; 1.46899827641781E9 ; 3.702265732986919E10 ; 0.0
192 ; 7399690.151504249 ; 2.0375894248884758E8 ; 1.4764021996157215E9 ; 3.722640268226388E10 ; 0.0
193 ; 7394734.407692784 ; 2.0377247733860493E8 ; 1.4838018897672257E9 ; 3.743016162475272E10 ; 0.0
194 ; 7389563.646904295 ; 2.037859565627072E8 ; 1.4911966241749184E9 ; 3.763393410209133E10 ; 0.0
195 ; 7389230.474143607 ; 2.0379937978336537E8 ; 1.4985861878218226E9 ; 3.783772005865404E10 ; 0.0
196 ; 7383409.3635511575 ; 2.038127466262083E8 ; 1.5059754182959661E9 ; 3.80415194384374E10 ; 0.0
197 ; 7380155.588311431 ; 2.03826056720235E8 ; 1.5133588276595173E9 ; 3.824533218506361E10 ; 0.0
198 ; 7374297.4781450005 ; 2.038393096977684E8 ; 1.5207389832478287E9 ; 3.8449158241783844E10 ; 0.0
199 ; 7372389.16484934 ; 2.038525051944109E8 ; 1.5281132807259736E9 ; 3.865299755148161E10 ; 0.0
200 ; 7370547.000699459 ; 1.7808621085820165E8 ; 1.535485669890823E9 ; 3.8856850056676025E10 ; 0.0
201 ; 7363502.9843845535 ; 1.5503872908471435E8 ; 1.5428562168915224E9 ; 3.9034936267534225E10 ; 0.0
