CSV File for the City 4 on Day 100
1 - Minute m 
2 - Power Consumed at minute m 
3 - Power Produced at minute m 
4 - Energy Consumed since the beginning of the day 
5 - Energy Produced since the beginning of the day 
6 - Energy Lost since the beginning of the day on lines starting from the city
 
0 ; 6858887.546481814 ; 1.0622455535635802E8 ; 0.0 ; 0.0 ; 0.0
1 ; 6866542.887179895 ; 1.0637511622504902E8 ; 6858887.546481814 ; 1.0622455535635802E8 ; 0.0
2 ; 6873618.266267052 ; 1.0683470275019428E8 ; 1.372543043366171E7 ; 2.1259967158140704E8 ; 0.0
3 ; 6882211.671628958 ; 1.0760331888057637E8 ; 2.059904869992876E7 ; 3.194343743316013E8 ; 0.0
4 ; 6891487.836664556 ; 1.0868096815329826E8 ; 2.748126037155772E7 ; 4.270376932121777E8 ; 0.0
5 ; 6904948.154562074 ; 1.1006765367476511E8 ; 3.437274820822228E7 ; 5.3571866136547595E8 ; 0.0
6 ; 6920510.166222598 ; 1.1176337810367224E8 ; 4.127769636278435E7 ; 6.45786315040241E8 ; 0.0
7 ; 6942693.314587947 ; 1.137681436362142E8 ; 4.819820652900694E7 ; 7.575496931439133E8 ; 0.0
8 ; 6981347.605918378 ; 1.1608195199370545E8 ; 5.5140899843594894E7 ; 8.713178367801275E8 ; 0.0
9 ; 7028046.794191755 ; 1.1870480441277558E8 ; 6.212224744951327E7 ; 9.87399788773833E8 ; 0.0
10 ; 7105822.395873345 ; 1.2163670163826942E8 ; 6.915029424370503E7 ; 1.1061045931866086E9 ; 0.0
11 ; 7228676.958804091 ; 1.2487764391894844E8 ; 7.625611663957837E7 ; 1.227741294824878E9 ; 0.0
12 ; 7427428.966332408 ; 1.2842763100605115E8 ; 8.348479359838246E7 ; 1.3526189387438264E9 ; 0.0
13 ; 7618882.6643053265 ; 1.322866621547327E8 ; 9.091222256471486E7 ; 1.4810465697498775E9 ; 0.0
14 ; 7640191.399816109 ; 1.364547361283636E8 ; 9.85311052290202E7 ; 1.6133332319046102E9 ; 0.0
15 ; 7649526.424800429 ; 1.409318512056293E8 ; 1.061712966288363E8 ; 1.7497879680329738E9 ; 0.0
16 ; 7657176.670236661 ; 1.457180051903353E8 ; 1.1382082305363673E8 ; 1.890719819238603E9 ; 0.0
17 ; 7665831.173549582 ; 1.5081319542378625E8 ; 1.2147799972387339E8 ; 2.0364378244289384E9 ; 0.0
18 ; 7678904.7158985725 ; 1.56217418799577E8 ; 1.2914383089742297E8 ; 2.1872510198527246E9 ; 0.0
19 ; 7683170.258869647 ; 1.6193067178060457E8 ; 1.3682273561332154E8 ; 2.343468438652302E9 ; 0.0
20 ; 7693440.284354094 ; 1.6795295041808638E8 ; 1.445059058721912E8 ; 2.505399110432906E9 ; 0.0
21 ; 7702216.628886747 ; 1.7428425037235108E8 ; 1.5219934615654528E8 ; 2.6733520608509927E9 ; 0.0
22 ; 7712443.969879892 ; 1.809245669351549E8 ; 1.5990156278543204E8 ; 2.847636311223344E9 ; 0.0
23 ; 7722444.821689162 ; 1.878738950532664E8 ; 1.6761400675531194E8 ; 3.028560878158499E9 ; 0.0
24 ; 7731661.112268614 ; 1.951322293530587E8 ; 1.753364515770011E8 ; 3.2164347732117653E9 ; 0.0
25 ; 7737400.285726135 ; 2.013876050640343E8 ; 1.8306811268926972E8 ; 3.411567002564824E9 ; 0.0
26 ; 7751551.433840501 ; 2.0139356408155498E8 ; 1.9080551297499585E8 ; 3.6129546076288586E9 ; 0.0
27 ; 7759279.735453678 ; 2.0139986951782763E8 ; 1.9855706440883636E8 ; 3.8143481717104135E9 ; 0.0
28 ; 7767795.412986206 ; 2.0140651497477454E8 ; 2.0631634414429003E8 ; 4.015748041228241E9 ; 0.0
29 ; 7777519.477827096 ; 2.0141349386317474E8 ; 2.1408413955727625E8 ; 4.2171545562030153E9 ; 0.0
30 ; 7783578.978175512 ; 2.014207994281593E8 ; 2.2186165903510335E8 ; 4.41856805006619E9 ; 0.0
31 ; 7789219.890049008 ; 2.0142842477412587E8 ; 2.2964523801327887E8 ; 4.6199888494943495E9 ; 0.0
32 ; 7802007.269899424 ; 2.0143636288891387E8 ; 2.3743445790332788E8 ; 4.821417274268476E9 ; 0.0
33 ; 7808812.384751797 ; 2.0144460666710263E8 ; 2.452364651732273E8 ; 5.02285363715739E9 ; 0.0
34 ; 7814906.745642554 ; 2.0145314893231693E8 ; 2.530452775579791E8 ; 5.224298243824492E9 ; 0.0
35 ; 7823117.291771764 ; 2.0146198245844474E8 ; 2.6086018430362165E8 ; 5.425751392756809E9 ; 0.0
36 ; 7832055.072397688 ; 2.0147109998969302E8 ; 2.686833015953934E8 ; 5.627213375215254E9 ; 0.0
37 ; 7838910.651772899 ; 2.0148049425942665E8 ; 2.765153566677911E8 ; 5.8286844752049465E9 ; 0.0
38 ; 7844911.846025194 ; 2.0149015800775367E8 ; 2.8435426731956404E8 ; 6.030164969464374E9 ; 0.0
39 ; 7852255.98595361 ; 2.015000839978364E8 ; 2.921991791655892E8 ; 6.231655127472127E9 ; 0.0
40 ; 7858819.476036838 ; 2.0151026503092417E8 ; 3.0005143515154284E8 ; 6.433155211469963E9 ; 0.0
41 ; 7865584.207099137 ; 2.0152069396011472E8 ; 3.079102546275797E8 ; 6.634665476500887E9 ; 0.0
42 ; 7870019.361528027 ; 2.015313637028658E8 ; 3.157758388346788E8 ; 6.836186170461001E9 ; 0.0
43 ; 7875029.004350328 ; 2.015422672522859E8 ; 3.2364585819620687E8 ; 7.037717534163867E9 ; 0.0
44 ; 7879446.038494089 ; 2.0155339768724337E8 ; 3.315208872005572E8 ; 7.239259801416153E9 ; 0.0
45 ; 7883706.79673476 ; 2.0156474818133917E8 ; 3.394003332390513E8 ; 7.440813199103396E9 ; 0.0
46 ; 7888515.084087438 ; 2.015763120107944E8 ; 3.4728404003578603E8 ; 7.642377947284736E9 ; 0.0
47 ; 7892899.742258818 ; 2.015880825613073E8 ; 3.5517255511987346E8 ; 7.84395425929553E9 ; 0.0
48 ; 7896669.49394984 ; 2.0160005333393848E8 ; 3.630654548621323E8 ; 8.045542341856837E9 ; 0.0
49 ; 7899241.835724315 ; 2.016122179500836E8 ; 3.7096212435608214E8 ; 8.247142395190776E9 ; 0.0
50 ; 7903180.800884525 ; 2.016245701555948E8 ; 3.7886136619180644E8 ; 8.44875461314086E9 ; 0.0
51 ; 7904952.997029604 ; 2.0163710382411167E8 ; 3.86764546992691E8 ; 8.650379183296453E9 ; 0.0
52 ; 7909358.57857812 ; 2.016498129596623E8 ; 3.946694999897206E8 ; 8.852016287120565E9 ; 0.0
53 ; 7908887.227437023 ; 2.016626916985933E8 ; 4.025788585682987E8 ; 9.053666100080227E9 ; 0.0
54 ; 7914223.237319448 ; 2.0167573431088653E8 ; 4.104877457957357E8 ; 9.25532879177882E9 ; 0.0
55 ; 7913836.618105174 ; 2.0168893520091805E8 ; 4.184019690330552E8 ; 9.457004526089706E9 ; 0.0
56 ; 7916688.1094213845 ; 2.0170228890771216E8 ; 4.2631580565116036E8 ; 9.658693461290625E9 ; 0.0
57 ; 7921442.810116842 ; 2.01715790104741E8 ; 4.3423249376058173E8 ; 9.860395750198338E9 ; 0.0
58 ; 7923164.619404727 ; 2.017294335993181E8 ; 4.4215393657069856E8 ; 1.0062111540303078E10 ; 0.0
59 ; 7926457.989966867 ; 2.017432143316298E8 ; 4.500771011901033E8 ; 1.0263840973902395E10 ; 0.0
60 ; 7929292.13477092 ; 2.01757127373448E8 ; 4.5800355918007016E8 ; 1.0465584188234026E10 ; 0.0
61 ; 7925483.660089688 ; 2.017711679265617E8 ; 4.659328513148411E8 ; 1.0667341315607473E10 ; 0.0
62 ; 7932743.561261991 ; 2.017853313209655E8 ; 4.7385833497493076E8 ; 1.0869112483534035E10 ; 0.0
63 ; 7933625.234038143 ; 2.0179961301283735E8 ; 4.817910785361928E8 ; 1.1070897814855E10 ; 0.0
64 ; 7934389.4978836365 ; 2.01814008582337E8 ; 4.897247037702309E8 ; 1.1272697427867836E10 ; 0.0
65 ; 7937983.313362729 ; 2.018285137312533E8 ; 4.976590932681145E8 ; 1.1474511436450172E10 ; 0.0
66 ; 7940998.3287687795 ; 2.0184312428052625E8 ; 5.055970765814772E8 ; 1.1676339950181425E10 ; 0.0
67 ; 7939765.880469726 ; 2.018578361676671E8 ; 5.13538074910246E8 ; 1.1878183074461952E10 ; 0.0
68 ; 7940718.325021167 ; 2.0187264544409785E8 ; 5.2147784079071575E8 ; 1.208004091062962E10 ; 0.0
69 ; 7942451.983280413 ; 2.0188754827242938E8 ; 5.294185591157369E8 ; 1.2281913556073717E10 ; 0.0
70 ; 7945262.458493437 ; 2.0190254092369515E8 ; 5.373610110990173E8 ; 1.2483801104346146E10 ; 0.0
71 ; 7944402.8404654525 ; 2.0191761977455607E8 ; 5.453062735575107E8 ; 1.268570364526984E10 ; 0.0
72 ; 7947719.452784018 ; 2.019327813044903E8 ; 5.532506763979762E8 ; 1.2887621265044395E10 ; 0.0
73 ; 7946214.173734336 ; 2.019480220929797E8 ; 5.611983958507602E8 ; 1.3089554046348886E10 ; 0.0
74 ; 7950256.4192975415 ; 2.019633388167043E8 ; 5.691446100244945E8 ; 1.3291502068441866E10 ; 0.0
75 ; 7952751.0184679255 ; 2.0197872824675333E8 ; 5.770948664437921E8 ; 1.349346540725857E10 ; 0.0
76 ; 7951567.502981579 ; 2.0199418724586207E8 ; 5.8504761746226E8 ; 1.3695444135505323E10 ; 0.0
77 ; 7953981.809454869 ; 2.020097127656803E8 ; 5.929991849652416E8 ; 1.3897438322751186E10 ; 0.0
78 ; 7952364.098046417 ; 2.0202530184407982E8 ; 6.009531667746965E8 ; 1.4099448035516867E10 ; 0.0
79 ; 7951002.200221703 ; 2.0204095160250515E8 ; 6.089055308727429E8 ; 1.4301473337360947E10 ; 0.0
80 ; 7947322.655057916 ; 2.0205665924337217E8 ; 6.168565330729645E8 ; 1.4503514288963451E10 ; 0.0
81 ; 7944203.407129578 ; 2.0207242204751867E8 ; 6.248038557280225E8 ; 1.4705570948206823E10 ; 0.0
82 ; 7948091.673654271 ; 2.020882373717092E8 ; 6.32748059135152E8 ; 1.4907643370254341E10 ; 0.0
83 ; 7945129.880305431 ; 2.0210410264619684E8 ; 6.406961508088063E8 ; 1.510973160762605E10 ; 0.0
84 ; 7943185.44209216 ; 2.021200153723441E8 ; 6.486412806891117E8 ; 1.5311835710272247E10 ; 0.0
85 ; 7938778.342697763 ; 2.0213597312030363E8 ; 6.565844661312039E8 ; 1.5513955725644592E10 ; 0.0
86 ; 7937853.223382866 ; 2.021519735267603E8 ; 6.645232444739016E8 ; 1.5716091698764896E10 ; 0.0
87 ; 7934237.726039726 ; 2.021680142927352E8 ; 6.724610976972845E8 ; 1.5918243672291656E10 ; 0.0
88 ; 7934286.183507882 ; 2.0218409318145114E8 ; 6.803953354233242E8 ; 1.6120411686584393E10 ; 0.0
89 ; 7933465.803262585 ; 2.022002080162611E8 ; 6.883296216068321E8 ; 1.6322595779765844E10 ; 0.0
90 ; 7930883.188318673 ; 2.0221635667863742E8 ; 6.962630874100947E8 ; 1.6524795987782104E10 ; 0.0
91 ; 7924976.405430973 ; 2.0223253710622326E8 ; 7.041939705984135E8 ; 1.6727012344460741E10 ; 0.0
92 ; 7925473.944075221 ; 2.0224874729094413E8 ; 7.121189470038445E8 ; 1.6929244881566965E10 ; 0.0
93 ; 7921773.539918068 ; 2.022649852771796E8 ; 7.200444209479197E8 ; 1.713149362885791E10 ; 0.0
94 ; 7919818.604328475 ; 2.022812491599938E8 ; 7.279661944878378E8 ; 1.733375861413509E10 ; 0.0
95 ; 7920064.537498758 ; 2.0229753708342394E8 ; 7.358860130921663E8 ; 1.7536039863295082E10 ; 0.0
96 ; 7917142.1937581105 ; 2.0231384723882562E8 ; 7.43806077629665E8 ; 1.7738337400378506E10 ; 0.0
97 ; 7914281.072312012 ; 2.0233017786327326E8 ; 7.517232198234231E8 ; 1.7940651247617332E10 ; 0.0
98 ; 7911176.787760625 ; 2.023465272380155E8 ; 7.596375008957351E8 ; 1.8142981425480606E10 ; 0.0
99 ; 7908385.554996744 ; 2.0236289368698272E8 ; 7.675486776834958E8 ; 1.834532795271862E10 ; 0.0
100 ; 7906627.620401953 ; 2.0237927557534677E8 ; 7.754570632384925E8 ; 1.85476908464056E10 ; 0.0
101 ; 7905221.525060193 ; 2.0239567130813056E8 ; 7.833636908588945E8 ; 1.875007012198095E10 ; 0.0
102 ; 7899214.94464984 ; 2.0241207932886633E8 ; 7.912689123839546E8 ; 1.895246579328908E10 ; 0.0
103 ; 7893611.3014617525 ; 2.0242849811830157E8 ; 7.991681273286045E8 ; 1.9154877872617947E10 ; 0.0
104 ; 7892279.833700549 ; 2.0244492619315064E8 ; 8.070617386300662E8 ; 1.9357306370736248E10 ; 0.0
105 ; 7889319.807124995 ; 2.02461362104891E8 ; 8.149540184637667E8 ; 1.9559751296929398E10 ; 0.0
106 ; 7888044.956032629 ; 2.0247780443860263E8 ; 8.228433382708917E8 ; 1.976221265903429E10 ; 0.0
107 ; 7882062.214663343 ; 2.0249425181184912E8 ; 8.307313832269243E8 ; 1.9964690463472893E10 ; 0.0
108 ; 7877776.972944999 ; 2.0251070287359917E8 ; 8.386134454415877E8 ; 2.016718471528474E10 ; 0.0
109 ; 7877061.379711892 ; 2.025271563031872E8 ; 8.464912224145327E8 ; 2.036969541815834E10 ; 0.0
110 ; 7875053.36915553 ; 2.0254361080931163E8 ; 8.543682837942445E8 ; 2.057222257446153E10 ; 0.0
111 ; 7868311.980032583 ; 2.0256006512906966E8 ; 8.622433371634E8 ; 2.077476618527084E10 ; 0.0
112 ; 7867527.520815151 ; 2.0257651802702713E8 ; 8.701116491434326E8 ; 2.097732625039991E10 ; 0.0
113 ; 7859632.383899377 ; 2.0259296829432252E8 ; 8.779791766642478E8 ; 2.1179902768426937E10 ; 0.0
114 ; 7859221.411071087 ; 2.0260941474780342E8 ; 8.858388090481471E8 ; 2.138249573672126E10 ; 0.0
115 ; 7853979.569584412 ; 2.0262585622919488E8 ; 8.936980304592181E8 ; 2.1585105151469063E10 ; 0.0
116 ; 7850528.898520163 ; 2.0264229160429797E8 ; 9.015520100288025E8 ; 2.1787731007698257E10 ; 0.0
117 ; 7845603.436163164 ; 2.026587197622179E8 ; 9.094025389273226E8 ; 2.1990373299302555E10 ; 0.0
118 ; 7845997.616166956 ; 2.0267513961462015E8 ; 9.172481423634858E8 ; 2.2193032019064774E10 ; 0.0
119 ; 7837435.612421285 ; 2.0269155009501407E8 ; 9.250941399796528E8 ; 2.2395707158679394E10 ; 0.0
120 ; 7833791.705073243 ; 2.0270795015806258E8 ; 9.32931575592074E8 ; 2.2598398708774406E10 ; 0.0
121 ; 7831334.92799316 ; 2.027243387789172E8 ; 9.407653672971473E8 ; 2.280110665893247E10 ; 0.0
122 ; 7826670.446575483 ; 2.0274071495257732E8 ; 9.485967022251405E8 ; 2.3003830997711384E10 ; 0.0
123 ; 7821632.074146799 ; 2.0275707769327295E8 ; 9.56423372671716E8 ; 2.320657171266396E10 ; 0.0
124 ; 7818647.741774974 ; 2.0277342603386995E8 ; 9.642450047458627E8 ; 2.340932879035723E10 ; 0.0
125 ; 7812840.196891215 ; 2.0278975902529696E8 ; 9.720636524876376E8 ; 2.36121022163911E10 ; 0.0
126 ; 7808704.060153861 ; 2.028060757359933E8 ; 9.798764926845288E8 ; 2.3814891975416397E10 ; 0.0
127 ; 7802726.254457165 ; 2.0282237525137672E8 ; 9.876851967446827E8 ; 2.401769805115239E10 ; 0.0
128 ; 7797492.243436959 ; 2.0283865667333072E8 ; 9.954879229991398E8 ; 2.4220520426403767E10 ; 0.0
129 ; 7797625.469340701 ; 2.0285491911971027E8 ; 1.0032854152425767E9 ; 2.44233590830771E10 ; 0.0
130 ; 7788174.023618296 ; 2.028711617238655E8 ; 1.0110830407119174E9 ; 2.4626214002196808E10 ; 0.0
131 ; 7778952.713881369 ; 2.0288738363418275E8 ; 1.0188712147355357E9 ; 2.4829085163920673E10 ; 0.0
132 ; 7772651.308537065 ; 2.0290358401364174E8 ; 1.0266501674494171E9 ; 2.5031972547554855E10 ; 0.0
133 ; 7765699.006128602 ; 2.0291976203938913E8 ; 1.0344228187579541E9 ; 2.5234876131568497E10 ; 0.0
134 ; 7756953.4033341855 ; 2.0293591690232715E8 ; 1.0421885177640827E9 ; 2.5437795893607887E10 ; 0.0
135 ; 7752917.629966623 ; 2.0295204780671707E8 ; 1.0499454711674168E9 ; 2.5640731810510216E10 ; 0.0
136 ; 7744971.6538032545 ; 2.0296815396979672E8 ; 1.0576983887973834E9 ; 2.5843683858316933E10 ; 0.0
137 ; 7733457.268368965 ; 2.0298423462141174E8 ; 1.0654433604511867E9 ; 2.6046652012286728E10 ; 0.0
138 ; 7729642.307865005 ; 2.0300028900366008E8 ; 1.0731768177195556E9 ; 2.624963624690814E10 ; 0.0
139 ; 7721498.970797332 ; 2.0301631637054884E8 ; 1.0809064600274205E9 ; 2.6452636535911797E10 ; 0.0
140 ; 7712381.962728303 ; 2.0303231598766345E8 ; 1.0886279589982178E9 ; 2.6655652852282345E10 ; 0.0
141 ; 7707175.312896845 ; 2.0304828713184857E8 ; 1.096340340960946E9 ; 2.6858685168270008E10 ; 0.0
142 ; 7696898.590732737 ; 2.0306422909090003E8 ; 1.1040475162738428E9 ; 2.7061733455401855E10 ; 0.0
143 ; 7689255.762371217 ; 2.0308014116326788E8 ; 1.1117444148645756E9 ; 2.7264797684492756E10 ; 0.0
144 ; 7681926.229991359 ; 2.0309602265776956E8 ; 1.119433670626947E9 ; 2.7467877825656025E10 ; 0.0
145 ; 7678007.596287041 ; 2.031118728933134E8 ; 1.1271155968569384E9 ; 2.7670973848313793E10 ; 0.0
146 ; 7672459.959983702 ; 2.031276911986314E8 ; 1.1347936044532254E9 ; 2.7874085721207108E10 ; 0.0
147 ; 7664207.546444857 ; 2.0314347691202167E8 ; 1.142466064413209E9 ; 2.807721341240574E10 ; 0.0
148 ; 7658269.339103945 ; 2.0315922938109955E8 ; 1.1501302719596539E9 ; 2.828035688931776E10 ; 0.0
149 ; 7652368.256327216 ; 2.0317494796255746E8 ; 1.1577885412987578E9 ; 2.848351611869886E10 ; 0.0
150 ; 7652061.60433939 ; 2.03190632021933E8 ; 1.165440909555085E9 ; 2.868669106666142E10 ; 0.0
151 ; 7644877.892583321 ; 2.0320628093338493E8 ; 1.1730929711594243E9 ; 2.8889881698683353E10 ; 0.0
152 ; 7637784.70186987 ; 2.0322189407947707E8 ; 1.1807378490520077E9 ; 2.9093087979616737E10 ; 0.0
153 ; 7632425.658493397 ; 2.0323747085096937E8 ; 1.1883756337538776E9 ; 2.9296309873696213E10 ; 0.0
154 ; 7625434.523716378 ; 2.032530106466162E8 ; 1.196008059412371E9 ; 2.9499547344547184E10 ; 0.0
155 ; 7625154.495076011 ; 2.0326851287297136E8 ; 1.2036334939360874E9 ; 2.97028003551938E10 ; 0.0
156 ; 7616945.2737001255 ; 2.0328397694420004E8 ; 1.2112586484311633E9 ; 2.9906068868066772E10 ; 0.0
157 ; 7610845.775953338 ; 2.032994022818969E8 ; 1.2188755937048635E9 ; 3.010935284501097E10 ; 0.0
158 ; 7605157.5888722 ; 2.0331478831491E8 ; 1.2264864394808168E9 ; 3.031265224729287E10 ; 0.0
159 ; 7602341.033185216 ; 2.0333013447917145E8 ; 1.234091597069689E9 ; 3.051596703560778E10 ; 0.0
160 ; 7593978.334029437 ; 2.033454402175328E8 ; 1.2416939381028743E9 ; 3.0719297170086952E10 ; 0.0
161 ; 7590865.030992545 ; 2.0336070497960675E8 ; 1.2492879164369037E9 ; 3.0922642610304485E10 ; 0.0
162 ; 7582929.636179698 ; 2.0337592822161347E8 ; 1.2568787814678962E9 ; 3.1126003315284092E10 ; 0.0
163 ; 7579068.721872624 ; 2.0339110940623254E8 ; 1.264461711104076E9 ; 3.1329379243505707E10 ; 0.0
164 ; 7572628.02316501 ; 2.034062480024595E8 ; 1.2720407798259485E9 ; 3.1532770352911938E10 ; 0.0
165 ; 7567993.311438243 ; 2.0342134348546728E8 ; 1.2796134078491135E9 ; 3.17361766009144E10 ; 0.0
166 ; 7561014.245252957 ; 2.0343639533647212E8 ; 1.2871814011605518E9 ; 3.1939597944399864E10 ; 0.0
167 ; 7553871.846665808 ; 2.0345140304260397E8 ; 1.2947424154058046E9 ; 3.2143034339736336E10 ; 0.0
168 ; 7550190.783554272 ; 2.0346636609678108E8 ; 1.3022962872524705E9 ; 3.234648574277894E10 ; 0.0
169 ; 7540954.971416046 ; 2.0348128399758872E8 ; 1.3098464780360248E9 ; 3.254995210887572E10 ; 0.0
170 ; 7537227.95799783 ; 2.0349615624916184E8 ; 1.3173874330074408E9 ; 3.275343339287331E10 ; 0.0
171 ; 7532249.775871369 ; 2.0351098236107165E8 ; 1.3249246609654386E9 ; 3.295692954912247E10 ; 0.0
172 ; 7522696.223588268 ; 2.0352576184821567E8 ; 1.33245691074131E9 ; 3.3160440531483543E10 ; 0.0
173 ; 7518486.4846335985 ; 2.0354049423071146E8 ; 1.339979606964898E9 ; 3.336396629333176E10 ; 0.0
174 ; 7515069.901893956 ; 2.0355517903379393E8 ; 1.3474980934495318E9 ; 3.3567506787562473E10 ; 0.0
175 ; 7511202.240124711 ; 2.0356981578771558E8 ; 1.3550131633514256E9 ; 3.3771061966596268E10 ; 0.0
176 ; 7507241.05300584 ; 2.0358440402765036E8 ; 1.3625243655915504E9 ; 3.3974631782383984E10 ; 0.0
177 ; 7505062.319097026 ; 2.0359894329360026E8 ; 1.3700316066445563E9 ; 3.4178216186411633E10 ; 0.0
178 ; 7498002.264346451 ; 2.036134331303052E8 ; 1.3775366689636533E9 ; 3.438181512970523E10 ; 0.0
179 ; 7498330.4530595 ; 2.0362787308715546E8 ; 1.3850346712279997E9 ; 3.458542856283553E10 ; 0.0
180 ; 7490842.531706002 ; 2.036422627181071E8 ; 1.3925330016810591E9 ; 3.478905643592269E10 ; 0.0
181 ; 7491134.007349036 ; 2.036566015816002E8 ; 1.4000238442127652E9 ; 3.49926986986408E10 ; 0.0
182 ; 7487926.08801481 ; 2.0367088924047914E8 ; 1.4075149782201142E9 ; 3.51963553002224E10 ; 0.0
183 ; 7484493.138220034 ; 2.036851252619162E8 ; 1.415002904308129E9 ; 3.5400026189462875E10 ; 0.0
184 ; 7479331.704672503 ; 2.0369930921733674E8 ; 1.4224873974463491E9 ; 3.560371131472479E10 ; 0.0
185 ; 7474460.632497016 ; 2.0371344068234742E8 ; 1.4299667291510217E9 ; 3.580741062394213E10 ; 0.0
186 ; 7471310.799978131 ; 2.0372751923666617E8 ; 1.4374411897835188E9 ; 3.601112406462448E10 ; 0.0
187 ; 7468279.744192299 ; 2.0374154446405455E8 ; 1.4449125005834968E9 ; 3.6214851583861145E10 ; 0.0
188 ; 7464732.740397509 ; 2.0375551595225242E8 ; 1.4523807803276892E9 ; 3.64185931283252E10 ; 0.0
189 ; 7460850.118335791 ; 2.0376943329291412E8 ; 1.4598455130680866E9 ; 3.662234864427746E10 ; 0.0
190 ; 7455397.465294331 ; 2.037832960815472E8 ; 1.4673063631864223E9 ; 3.682611807757037E10 ; 0.0
191 ; 7453871.543879687 ; 2.0379710391745275E8 ; 1.4747617606517167E9 ; 3.7029901373651924E10 ; 0.0
192 ; 7447418.382708434 ; 2.0381085640366754E8 ; 1.4822156321955965E9 ; 3.7233698477569374E10 ; 0.0
193 ; 7445663.337478112 ; 2.0382455314690807E8 ; 1.489663050578305E9 ; 3.7437509333973045E10 ; 0.0
194 ; 7444873.171141398 ; 2.0383819375751635E8 ; 1.4971087139157832E9 ; 3.764133388711996E10 ; 0.0
195 ; 7438960.663425118 ; 2.0385177784940723E8 ; 1.5045535870869246E9 ; 3.784517208087747E10 ; 0.0
196 ; 7437025.943452931 ; 2.0386530504001743E8 ; 1.5119925477503498E9 ; 3.804902385872688E10 ; 0.0
197 ; 7433909.561195376 ; 2.038787749502562E8 ; 1.5194295736938026E9 ; 3.82528891637669E10 ; 0.0
198 ; 7427926.982353918 ; 2.0389218720445725E8 ; 1.526863483254998E9 ; 3.8456767938717155E10 ; 0.0
199 ; 7421171.928973568 ; 2.0390554143033242E8 ; 1.534291410237352E9 ; 3.8660660125921616E10 ; 0.0
200 ; 7419630.206570221 ; 1.7573393188968375E8 ; 1.5417125821663256E9 ; 3.886456566735195E10 ; 0.0
201 ; 7416263.714475592 ; 1.5509208110571817E8 ; 1.5491322123728957E9 ; 3.904029959924164E10 ; 0.0
