CSV File for the City 6 on Day 32
1 - Minute m 
2 - Power Consumed at minute m 
3 - Power Produced at minute m 
4 - Energy Consumed since the beginning of the day 
5 - Energy Produced since the beginning of the day 
6 - Energy Lost since the beginning of the day on lines starting from the city
 
0 ; 1.1113184864970004E7 ; 1.0545654281790933E8 ; 0.0 ; 0.0 ; 0.0
1 ; 1.1125514944603221E7 ; 1.056042032870214E8 ; 1.1113184864970004E7 ; 1.0545654281790933E8 ; 0.0
2 ; 1.1139341847971441E7 ; 1.0606107232746658E8 ; 2.2238699809573226E7 ; 2.1106074610493073E8 ; 0.0
3 ; 1.115125339150936E7 ; 1.0682718782086772E8 ; 3.3378041657544665E7 ; 3.171218184323973E8 ; 0.0
4 ; 1.1166190544825109E7 ; 1.0790258678307682E8 ; 4.452929504905403E7 ; 4.23949006253265E8 ; 0.0
5 ; 1.1186576306733008E7 ; 1.0928730441539305E8 ; 5.569548559387913E7 ; 5.3185159303634185E8 ; 0.0
6 ; 1.1215078954459758E7 ; 1.1098137306219175E8 ; 6.6882061900612146E7 ; 6.411388974517349E8 ; 0.0
7 ; 1.1253632714421684E7 ; 1.1298482112885624E8 ; 7.80971408550719E7 ; 7.521202705139266E8 ; 0.0
8 ; 1.1303589849123187E7 ; 1.1529767203063571E8 ; 8.935077356949359E7 ; 8.651050916427829E8 ; 0.0
9 ; 1.1384706389782922E7 ; 1.1791994325366986E8 ; 1.0065436341861677E8 ; 9.804027636734186E8 ; 0.0
10 ; 1.1509819668874696E7 ; 1.2085164561031199E8 ; 1.1203906980839969E8 ; 1.0983227069270885E9 ; 0.0
11 ; 1.1705020928642686E7 ; 1.2409278275984272E8 ; 1.2354888947727439E8 ; 1.2191743525374005E9 ; 0.0
12 ; 1.2023183230819488E7 ; 1.2764335104298142E8 ; 1.3525391040591708E8 ; 1.343267135297243E9 ; 0.0
13 ; 1.232661116085334E7 ; 1.3150333964737475E8 ; 1.4727709363673657E8 ; 1.4709104863402245E9 ; 0.0
14 ; 1.2363851569948686E7 ; 1.3567273108688313E8 ; 1.596037047975899E8 ; 1.6024138259875994E9 ; 0.0
15 ; 1.2378668458427431E7 ; 1.4015150194625723E8 ; 1.7196755636753857E8 ; 1.7380865570744824E9 ; 0.0
16 ; 1.2395436185604565E7 ; 1.4493962382011387E8 ; 1.84346224825966E8 ; 1.8782380590207396E9 ; 0.0
17 ; 1.2403217590979807E7 ; 1.500370643640776E8 ; 1.9674166101157057E8 ; 2.0231776828408535E9 ; 0.0
18 ; 1.2424571596440619E7 ; 1.554437883768493E8 ; 2.091448786025504E8 ; 2.1732147472049313E9 ; 0.0
19 ; 1.2439191246774845E7 ; 1.6115975884257695E8 ; 2.21569450198991E8 ; 2.3286585355817804E9 ; 0.0
20 ; 1.245460457595168E7 ; 1.671849378796377E8 ; 2.3400864144576585E8 ; 2.4898182944243574E9 ; 0.0
21 ; 1.2468188111585433E7 ; 1.735192875608925E8 ; 2.4646324602171755E8 ; 2.657003232303995E9 ; 0.0
22 ; 1.2480408680651007E7 ; 1.8016277058843553E8 ; 2.58931434133303E8 ; 2.8305225198648877E9 ; 0.0
23 ; 1.2494615389708227E7 ; 1.8711535082073075E8 ; 2.71411842813954E8 ; 3.0106852904533234E9 ; 0.0
24 ; 1.2509955690200415E7 ; 1.9437699366088343E8 ; 2.839064582036622E8 ; 3.197800641274054E9 ; 0.0
25 ; 1.2525907409887668E7 ; 2.0063570721981153E8 ; 2.964164138938626E8 ; 3.3921776349349375E9 ; 0.0
26 ; 1.253746909135845E7 ; 2.0064500851380906E8 ; 3.089423213037503E8 ; 3.592813342154749E9 ; 0.0
27 ; 1.2552782032515524E7 ; 2.006546380655277E8 ; 3.214797903951087E8 ; 3.793458350668558E9 ; 0.0
28 ; 1.2568655858145854E7 ; 2.0066456916096255E8 ; 3.340325724276242E8 ; 3.994112988734086E9 ; 0.0
29 ; 1.2582977538634675E7 ; 2.006747771037318E8 ; 3.4660122828577006E8 ; 4.1947775578950486E9 ; 0.0
30 ; 1.259330643111992E7 ; 2.0068523914110905E8 ; 3.591842058244047E8 ; 4.39545233499878E9 ; 0.0
31 ; 1.260685007097752E7 ; 2.006959343666363E8 ; 3.7177751225552464E8 ; 4.59613757413989E9 ; 0.0
32 ; 1.2620064083942017E7 ; 2.0070684360847017E8 ; 3.8438436232650214E8 ; 4.796833508506526E9 ; 0.0
33 ; 1.263650164307795E7 ; 2.0071794931046444E8 ; 3.9700442641044414E8 ; 4.997540352114996E9 ; 0.0
34 ; 1.2643695213734088E7 ; 2.0072923541118547E8 ; 4.096409280535221E8 ; 5.198258301425461E9 ; 0.0
35 ; 1.2656226176193966E7 ; 2.0074068722458002E8 ; 4.222846232672562E8 ; 5.398987536836646E9 ; 0.0
36 ; 1.2667257686380457E7 ; 2.0075229132485124E8 ; 4.3494084944345015E8 ; 5.599728224061226E9 ; 0.0
37 ; 1.2676736714538949E7 ; 2.007640354371984E8 ; 4.476081071298306E8 ; 5.800480515386077E9 ; 0.0
38 ; 1.2688317099759035E7 ; 2.0077590833539978E8 ; 4.6028484384436953E8 ; 6.001244550823276E9 ; 0.0
39 ; 1.2697618984876664E7 ; 2.0078789974672127E8 ; 4.729731609441286E8 ; 6.202020459158675E9 ; 0.0
40 ; 1.2711707228602774E7 ; 2.0080000026427668E8 ; 4.8567077992900527E8 ; 6.402808358905396E9 ; 0.0
41 ; 1.2721731257472876E7 ; 2.008122012667205E8 ; 4.9838248715760803E8 ; 6.603608359169673E9 ; 0.0
42 ; 1.2728125492368165E7 ; 2.00824494844989E8 ; 5.111042184150809E8 ; 6.804420560436394E9 ; 0.0
43 ; 1.2732391444149895E7 ; 2.0083687373570323E8 ; 5.2383234390744907E8 ; 7.005245055281383E9 ; 0.0
44 ; 1.2742683828928342E7 ; 2.008493312607901E8 ; 5.36564735351599E8 ; 7.206081929017086E9 ; 0.0
45 ; 1.2749860187877677E7 ; 2.008618612728507E8 ; 5.493074191805273E8 ; 7.406931260277876E9 ; 0.0
46 ; 1.2755502341053538E7 ; 2.0087445810580283E8 ; 5.62057279368405E8 ; 7.607793121550727E9 ; 0.0
47 ; 1.2760487021247493E7 ; 2.0088711653033477E8 ; 5.748127817094585E8 ; 7.808667579656529E9 ; 0.0
48 ; 1.2766203961817788E7 ; 2.008998317137286E8 ; 5.87573268730706E8 ; 8.009554696186864E9 ; 0.0
49 ; 1.277519156136305E7 ; 2.0091259918363887E8 ; 6.003394726925237E8 ; 8.210454527900593E9 ; 0.0
50 ; 1.2776496813800385E7 ; 2.009254147954409E8 ; 6.131146642538868E8 ; 8.411367127084231E9 ; 0.0
51 ; 1.2778005913464583E7 ; 2.009382747027954E8 ; 6.258911610676872E8 ; 8.612292541879673E9 ; 0.0
52 ; 1.2783180077897944E7 ; 2.0095117533110538E8 ; 6.386691669811517E8 ; 8.813230816582468E9 ; 0.0
53 ; 1.278670497068164E7 ; 2.0096411335357255E8 ; 6.514523470590496E8 ; 9.014181991913574E9 ; 0.0
54 ; 1.2789146243805217E7 ; 2.0097708566958675E8 ; 6.642390520297313E8 ; 9.215146105267147E9 ; 0.0
55 ; 1.2795566741420247E7 ; 2.0099008938520998E8 ; 6.770281982735364E8 ; 9.416123190936733E9 ; 0.0
56 ; 1.279627323372143E7 ; 2.0100312179553893E8 ; 6.898237650149567E8 ; 9.617113280321943E9 ; 0.0
57 ; 1.2796594368491396E7 ; 2.0101618036875415E8 ; 7.026200382486781E8 ; 9.818116402117483E9 ; 0.0
58 ; 1.2802213169157086E7 ; 2.010292627316816E8 ; 7.154166326171695E8 ; 1.0019132582486237E10 ; 0.0
59 ; 1.2805256472508792E7 ; 2.0104236665671298E8 ; 7.282188457863265E8 ; 1.0220161845217918E10 ; 0.0
60 ; 1.2807158544513537E7 ; 2.0105549004994565E8 ; 7.410241022588353E8 ; 1.0421204211874632E10 ; 0.0
61 ; 1.2807897124269646E7 ; 2.010686309404187E8 ; 7.538312608033489E8 ; 1.0622259701924578E10 ; 0.0
62 ; 1.2813166520105867E7 ; 2.010817874703346E8 ; 7.666391579276185E8 ; 1.0823328332864996E10 ; 0.0
63 ; 1.2813480108162608E7 ; 2.0109495788616776E8 ; 7.794523244477243E8 ; 1.1024410120335331E10 ; 0.0
64 ; 1.2816089117874386E7 ; 2.0110814053057143E8 ; 7.92265804555887E8 ; 1.1225505078221498E10 ; 0.0
65 ; 1.2817975321237616E7 ; 2.0112133383500403E8 ; 8.050818936737614E8 ; 1.142661321875207E10 ; 0.0
66 ; 1.2817536037666418E7 ; 2.0113453631300458E8 ; 8.178998689949989E8 ; 1.1627734552587074E10 ; 0.0
67 ; 1.2818768843643995E7 ; 2.011477465540539E8 ; 8.307174050326654E8 ; 1.182886908890008E10 ; 0.0
68 ; 1.2821594148149047E7 ; 2.0116096321796477E8 ; 8.435361738763094E8 ; 1.2030016835454134E10 ; 0.0
69 ; 1.2824342775063295E7 ; 2.011741850297509E8 ; 8.563577680244584E8 ; 1.2231177798672098E10 ; 0.0
70 ; 1.282368623726301E7 ; 2.0118741077492908E8 ; 8.691821107995217E8 ; 1.2432351983701849E10 ; 0.0
71 ; 1.2826698829917476E7 ; 2.0120063929521337E8 ; 8.820057970367846E8 ; 1.2633539394476778E10 ; 0.0
72 ; 1.2825916734111374E7 ; 2.0121386948456556E8 ; 8.948324958667021E8 ; 1.2834740033771992E10 ; 0.0
73 ; 1.283111141706181E7 ; 2.012271002855684E8 ; 9.076584126008135E8 ; 1.3035953903256557E10 ; 0.0
74 ; 1.2829471698317846E7 ; 2.0124033068609232E8 ; 9.204895240178753E8 ; 1.3237181003542126E10 ; 0.0
75 ; 1.2827203659555892E7 ; 2.012535597162289E8 ; 9.333189957161932E8 ; 1.3438421334228218E10 ; 0.0
76 ; 1.2830140247495571E7 ; 2.012667864454675E8 ; 9.461461993757491E8 ; 1.3639674893944447E10 ; 0.0
77 ; 1.2828922732010039E7 ; 2.0128000998009288E8 ; 9.589763396232446E8 ; 1.3840941680389914E10 ; 0.0
78 ; 1.2826295896330837E7 ; 2.0129322946078482E8 ; 9.718052623552547E8 ; 1.4042221690370007E10 ; 0.0
79 ; 1.2824240916444404E7 ; 2.01306444060402E8 ; 9.846315582515855E8 ; 1.4243514919830791E10 ; 0.0
80 ; 1.2817474274577102E7 ; 2.0131965298193407E8 ; 9.974557991680299E8 ; 1.4444821363891193E10 ; 0.0
81 ; 1.2816015603785083E7 ; 2.0133285545660767E8 ; 1.010273273442607E9 ; 1.4646141016873127E10 ; 0.0
82 ; 1.2810194176631752E7 ; 2.013460507421335E8 ; 1.0230892890463921E9 ; 1.4847473872329735E10 ; 0.0
83 ; 1.2807873571971888E7 ; 2.0135923812108213E8 ; 1.0358994832230239E9 ; 1.5048819923071869E10 ; 0.0
84 ; 1.2802519014064247E7 ; 2.0137241689937845E8 ; 1.0487073567949958E9 ; 1.5250179161192951E10 ; 0.0
85 ; 1.2795509372519068E7 ; 2.0138558640490466E8 ; 1.06150987580906E9 ; 1.5451551578092329E10 ; 0.0
86 ; 1.279360970563761E7 ; 2.0139874598620296E8 ; 1.074305385181579E9 ; 1.5652937164497234E10 ; 0.0
87 ; 1.2789198049404137E7 ; 2.0141189501126984E8 ; 1.0870989948872168E9 ; 1.5854335910483437E10 ; 0.0
88 ; 1.2785508221684597E7 ; 2.014250328664352E8 ; 1.099888192936621E9 ; 1.6055747805494707E10 ; 0.0
89 ; 1.2779981256959027E7 ; 2.014381589553186E8 ; 1.1126737011583056E9 ; 1.6257172838361143E10 ; 0.0
90 ; 1.27754440187086E7 ; 2.014512726978575E8 ; 1.1254536824152646E9 ; 1.6458610997316462E10 ; 0.0
91 ; 1.2769749216026628E7 ; 2.0146437352940154E8 ; 1.1382291264339733E9 ; 1.6660062270014318E10 ; 0.0
92 ; 1.2763637532741942E7 ; 2.0147746089986756E8 ; 1.1509988756499999E9 ; 1.686152664354372E10 ; 0.0
93 ; 1.2757800820001572E7 ; 2.0149053427295113E8 ; 1.1637625131827419E9 ; 1.7063004104443588E10 ; 0.0
94 ; 1.2752510261469595E7 ; 2.0150359312539023E8 ; 1.1765203140027435E9 ; 1.7264494638716537E10 ; 0.0
95 ; 1.2747120846712314E7 ; 2.015166369462769E8 ; 1.189272824264213E9 ; 1.7465998231841927E10 ; 0.0
96 ; 1.2745882793089319E7 ; 2.0152966523641357E8 ; 1.2020199451109254E9 ; 1.7667514868788204E10 ; 0.0
97 ; 1.2737838858971264E7 ; 2.015426775077109E8 ; 1.2147658279040148E9 ; 1.7869044534024616E10 ; 0.0
98 ; 1.273044838144448E7 ; 2.015556732826237E8 ; 1.2275036667629862E9 ; 1.8070587211532326E10 ; 0.0
99 ; 1.272402711054645E7 ; 2.0156865209362265E8 ; 1.2402341151444306E9 ; 1.827214288481495E10 ; 0.0
100 ; 1.2719551199187558E7 ; 2.0158161348269874E8 ; 1.252958142254977E9 ; 1.8473711536908573E10 ; 0.0
101 ; 1.2710339522539219E7 ; 2.015945570008989E8 ; 1.2656776934541645E9 ; 1.8675293150391273E10 ; 0.0
102 ; 1.2705411259434547E7 ; 2.0160748220788953E8 ; 1.2783880329767036E9 ; 1.8876887707392174E10 ; 0.0
103 ; 1.27009969720498E7 ; 2.016203886715472E8 ; 1.291093444236138E9 ; 1.9078495189600063E10 ; 0.0
104 ; 1.2692063345275566E7 ; 2.016332759675737E8 ; 1.3037944412081878E9 ; 1.928011557827161E10 ; 0.0
105 ; 1.2687469833539143E7 ; 2.0164614367913422E8 ; 1.3164865045534635E9 ; 1.9481748854239185E10 ; 0.0
106 ; 1.2676753815009736E7 ; 2.0165899139651704E8 ; 1.3291739743870027E9 ; 1.968339499791832E10 ; 0.0
107 ; 1.2667076088116024E7 ; 2.0167181871681324E8 ; 1.3418507282020125E9 ; 1.988505398931484E10 ; 0.0
108 ; 1.2661495855421051E7 ; 2.0168462524361512E8 ; 1.3545178042901285E9 ; 2.008672580803165E10 ; 0.0
109 ; 1.2657171730929194E7 ; 2.016974105867321E8 ; 1.3671793001455495E9 ; 2.0288410433275265E10 ; 0.0
110 ; 1.2643866410564693E7 ; 2.017101743619229E8 ; 1.3798364718764787E9 ; 2.0490107843861996E10 ; 0.0
111 ; 1.2638640243806684E7 ; 2.0172291619064307E8 ; 1.3924803382870433E9 ; 2.069181801822392E10 ; 0.0
112 ; 1.2632126138681373E7 ; 2.0173563569980678E8 ; 1.40511897853085E9 ; 2.0893540934414562E10 ; 0.0
113 ; 1.2624170751387414E7 ; 2.017483325215619E8 ; 1.4177511046695313E9 ; 2.109527657011437E10 ; 0.0
114 ; 1.2611061340955643E7 ; 2.017610062930777E8 ; 1.4303752754209187E9 ; 2.129702490263593E10 ; 0.0
115 ; 1.2607163714206584E7 ; 2.017736566563444E8 ; 1.4429863367618744E9 ; 2.149878590892901E10 ; 0.0
116 ; 1.2603454227362975E7 ; 2.0178628325798348E8 ; 1.4555935004760811E9 ; 2.1700559565585354E10 ; 0.0
117 ; 1.2590784112012232E7 ; 2.017988857490685E8 ; 1.468196954703444E9 ; 2.1902345848843338E10 ; 0.0
118 ; 1.2583996765714053E7 ; 2.0181146378495562E8 ; 1.4807877388154562E9 ; 2.2104144734592407E10 ; 0.0
119 ; 1.2573343958863445E7 ; 2.018240170251232E8 ; 1.4933717355811703E9 ; 2.230595619837736E10 ; 0.0
120 ; 1.2565216994465496E7 ; 2.0183654513301992E8 ; 1.5059450795400338E9 ; 2.2507780215402485E10 ; 0.0
121 ; 1.2554436022652486E7 ; 2.0184904777592108E8 ; 1.5185102965344994E9 ; 2.2709616760535503E10 ; 0.0
122 ; 1.2549876833946347E7 ; 2.0186152462479225E8 ; 1.5310647325571518E9 ; 2.2911465808311424E10 ; 0.0
123 ; 1.253990834205106E7 ; 2.0187397535416043E8 ; 1.543614609391098E9 ; 2.311332733293622E10 ; 0.0
124 ; 1.2528123293076599E7 ; 2.0188639964199147E8 ; 1.556154517733149E9 ; 2.331520130829038E10 ; 0.0
125 ; 1.2518053371483576E7 ; 2.018987971695741E8 ; 1.5686826410262256E9 ; 2.351708770793237E10 ; 0.0
126 ; 1.2509567275556192E7 ; 2.0191116762141007E8 ; 1.5812006943977091E9 ; 2.3718986505101944E10 ; 0.0
127 ; 1.2497926405071229E7 ; 2.019235106851093E8 ; 1.5937102616732652E9 ; 2.3920897672723354E10 ; 0.0
128 ; 1.2488615944126321E7 ; 2.0193582605129108E8 ; 1.6062081880783365E9 ; 2.4122821183408463E10 ; 0.0
129 ; 1.2479492252651876E7 ; 2.0194811341348976E8 ; 1.6186968040224628E9 ; 2.4324757009459755E10 ; 0.0
130 ; 1.2467007399309315E7 ; 2.0196037246806547E8 ; 1.6311762962751148E9 ; 2.4526705122873245E10 ; 0.0
131 ; 1.2454763692769296E7 ; 2.0197260291411898E8 ; 1.6436433036744242E9 ; 2.4728665495341312E10 ; 0.0
132 ; 1.2439548815822337E7 ; 2.0198480445341116E8 ; 1.6560980673671935E9 ; 2.4930638098255432E10 ; 0.0
133 ; 1.2422677930060407E7 ; 2.0199697679028612E8 ; 1.6685376161830158E9 ; 2.5132622902708843E10 ; 0.0
134 ; 1.240977359848967E7 ; 2.020091196315983E8 ; 1.6809602941130762E9 ; 2.533461987949913E10 ; 0.0
135 ; 1.2394228958766393E7 ; 2.0202123268664303E8 ; 1.693370067711566E9 ; 2.553662899913073E10 ; 0.0
136 ; 1.2383420134213129E7 ; 2.020333156670906E8 ; 1.7057642966703324E9 ; 2.573865023181737E10 ; 0.0
137 ; 1.2367685234425763E7 ; 2.0204536828692332E8 ; 1.7181477168045456E9 ; 2.5940683547484463E10 ; 0.0
138 ; 1.2350384590247473E7 ; 2.020573902623758E8 ; 1.7305154020389714E9 ; 2.6142728915771385E10 ; 0.0
139 ; 1.2336155017828008E7 ; 2.0206938131187803E8 ; 1.7428657866292188E9 ; 2.634478630603376E10 ; 0.0
140 ; 1.2321509065963164E7 ; 2.020813411560012E8 ; 1.7552019416470468E9 ; 2.654685568734564E10 ; 0.0
141 ; 1.230631174023237E7 ; 2.0209326951740605E8 ; 1.76752345071301E9 ; 2.674893702850164E10 ; 0.0
142 ; 1.2290591357619349E7 ; 2.0210516612079373E8 ; 1.7798297624532425E9 ; 2.6951030298019047E10 ; 0.0
143 ; 1.2274579693810096E7 ; 2.0211703069285896E8 ; 1.7921203538108618E9 ; 2.715313546413984E10 ; 0.0
144 ; 1.2258637533187315E7 ; 2.0212886296224543E8 ; 1.8043949335046718E9 ; 2.73552524948327E10 ; 0.0
145 ; 1.22482357942724E7 ; 2.0214066265950328E8 ; 1.8166535710378592E9 ; 2.7557381357794945E10 ; 0.0
146 ; 1.2235864244258702E7 ; 2.0215242951704845E8 ; 1.8289018068321316E9 ; 2.775952202045445E10 ; 0.0
147 ; 1.2226615330512201E7 ; 2.0216416326912418E8 ; 1.8411376710763903E9 ; 2.7961674449971497E10 ; 0.0
148 ; 1.221112436913025E7 ; 2.0217586365176404E8 ; 1.8533642864069026E9 ; 2.816383861324062E10 ; 0.0
149 ; 1.2205369745018693E7 ; 2.0218753040275693E8 ; 1.8655754107760327E9 ; 2.8366014476892384E10 ; 0.0
150 ; 1.2193878755820751E7 ; 2.0219916326161343E8 ; 1.8777807805210514E9 ; 2.856820200729514E10 ; 0.0
151 ; 1.2180046564114913E7 ; 2.0221076196953392E8 ; 1.8899746592768722E9 ; 2.877040117055675E10 ; 0.0
152 ; 1.216956861466899E7 ; 2.022223262693781E8 ; 1.902154705840987E9 ; 2.8972611932526283E10 ; 0.0
153 ; 1.216037877801376E7 ; 2.0223385590563592E8 ; 1.914324274455656E9 ; 2.9174834258795662E10 ; 0.0
154 ; 1.2148907460180527E7 ; 2.0224535062439978E8 ; 1.9264846532336698E9 ; 2.9377068114701298E10 ; 0.0
155 ; 1.2137812154872015E7 ; 2.0225681017333806E8 ; 1.9386335606938503E9 ; 2.95793134653257E10 ; 0.0
156 ; 1.2121551650507292E7 ; 2.0226823430167E8 ; 1.9507713728487222E9 ; 2.978157027549904E10 ; 0.0
157 ; 1.211263964379421E7 ; 2.0227962276014146E8 ; 1.9628929244992294E9 ; 2.998383850980071E10 ; 0.0
158 ; 1.2098287931583675E7 ; 2.022909753010019E8 ; 1.9750055641430237E9 ; 3.0186118132560852E10 ; 0.0
159 ; 1.2086697698345669E7 ; 2.023022916779827E8 ; 1.9871038520746074E9 ; 3.0388409107861855E10 ; 0.0
160 ; 1.2077040899071578E7 ; 2.0231357164627582E8 ; 1.999190549772953E9 ; 3.0590711399539837E10 ; 0.0
161 ; 1.2065084609652016E7 ; 2.023248149625142E8 ; 2.0112675906720247E9 ; 3.079302497118611E10 ; 0.0
162 ; 1.2055417839484142E7 ; 2.0233602138475245E8 ; 2.0233326752816768E9 ; 3.0995349786148624E10 ; 0.0
163 ; 1.2041069733645692E7 ; 2.0234719067244887E8 ; 2.035388093121161E9 ; 3.119768580753338E10 ; 0.0
164 ; 1.2028642033713304E7 ; 2.023583225864479E8 ; 2.0474291628548067E9 ; 3.1400032998205826E10 ; 0.0
165 ; 1.201636030896689E7 ; 2.023694168889636E8 ; 2.05945780488852E9 ; 3.1602391320792274E10 ; 0.0
166 ; 1.2006850665786777E7 ; 2.0238047334356397E8 ; 2.0714741651974869E9 ; 3.1804760737681236E10 ; 0.0
167 ; 1.1993984598259874E7 ; 2.023914917151558E8 ; 2.0834810158632736E9 ; 3.20071412110248E10 ; 0.0
168 ; 1.1978765681511946E7 ; 2.024024717699703E8 ; 2.0954750004615335E9 ; 3.2209532702739956E10 ; 0.0
169 ; 1.1968315185623404E7 ; 2.0241341327554938E8 ; 2.1074537661430454E9 ; 3.2411935174509926E10 ; 0.0
170 ; 1.1956501511444362E7 ; 2.0242431600073263E8 ; 2.1194220813286688E9 ; 3.2614348587785477E10 ; 0.0
171 ; 1.194372702038351E7 ; 2.0243517971564478E8 ; 2.1313785828401132E9 ; 3.281677290378621E10 ; 0.0
172 ; 1.1928629814689698E7 ; 2.0244600419168395E8 ; 2.1433223098604968E9 ; 3.3019208083501854E10 ; 0.0
173 ; 1.1916508494703501E7 ; 2.024567892015102E8 ; 2.1552509396751866E9 ; 3.322165408769354E10 ; 0.0
174 ; 1.1911314291781912E7 ; 2.024675345190347E8 ; 2.16716744816989E9 ; 3.342411087689505E10 ; 0.0
175 ; 1.1902898948048683E7 ; 2.024782399194097E8 ; 2.179078762461672E9 ; 3.3626578411414085E10 ; 0.0
176 ; 1.1894478386128346E7 ; 2.0248890517901844E8 ; 2.1909816614097204E9 ; 3.3829056651333496E10 ; 0.0
177 ; 1.1888604513016932E7 ; 2.0249953007546604E8 ; 2.202876139795849E9 ; 3.4031545556512516E10 ; 0.0
178 ; 1.1881950932784174E7 ; 2.0251011438757047E8 ; 2.2147647443088655E9 ; 3.4234045086587982E10 ; 0.0
179 ; 1.1874183432914555E7 ; 2.0252065789535427E8 ; 2.2266466952416496E9 ; 3.4436555200975555E10 ; 0.0
180 ; 1.1868628070214929E7 ; 2.025311603800364E8 ; 2.2385208786745644E9 ; 3.463907585887091E10 ; 0.0
181 ; 1.1861129312933162E7 ; 2.0254162162402463E8 ; 2.250389506744779E9 ; 3.4841607019250946E10 ; 0.0
182 ; 1.1852293538170274E7 ; 2.0255204141090825E8 ; 2.262250636057712E9 ; 3.504414864087497E10 ; 0.0
183 ; 1.1844902043721342E7 ; 2.0256241952545124E8 ; 2.2741029295958824E9 ; 3.524670068228588E10 ; 0.0
184 ; 1.1837300217573164E7 ; 2.025727557535857E8 ; 2.2859478316396036E9 ; 3.544926310181133E10 ; 0.0
185 ; 1.1833184357202549E7 ; 2.025830498824056E8 ; 2.297785131857177E9 ; 3.565183585756492E10 ; 0.0
186 ; 1.1825397109875403E7 ; 2.025933017001609E8 ; 2.3096183162143793E9 ; 3.585441890744733E10 ; 0.0
187 ; 1.1817417815477928E7 ; 2.0260351099625194E8 ; 2.3214437133242545E9 ; 3.6057012209147484E10 ; 0.0
188 ; 1.1808953051495647E7 ; 2.0261367756122422E8 ; 2.3332611311397324E9 ; 3.625961572014374E10 ; 0.0
189 ; 1.179744108224544E7 ; 2.026238011867633E8 ; 2.345070084191228E9 ; 3.646222939770496E10 ; 0.0
190 ; 1.179431183174576E7 ; 2.026338816656901E8 ; 2.3568675252734733E9 ; 3.666485319889172E10 ; 0.0
191 ; 1.1785267926888268E7 ; 2.0264391879195637E8 ; 2.368661837105219E9 ; 3.686748708055741E10 ; 0.0
192 ; 1.17802313671681E7 ; 2.0265391236064053E8 ; 2.3804471050321074E9 ; 3.7070130999349365E10 ; 0.0
193 ; 1.1771180255094191E7 ; 2.0266386216794363E8 ; 2.3922273363992753E9 ; 3.727278491171001E10 ; 0.0
194 ; 1.176044453759158E7 ; 2.0267376801118556E8 ; 2.4039985166543694E9 ; 3.747544877387795E10 ; 0.0
195 ; 1.1759877654002555E7 ; 2.0268362968880162E8 ; 2.415758961191961E9 ; 3.767812254188914E10 ; 0.0
