CSV File for the City 1 on Day 44
1 - Minute m 
2 - Power Consumed at minute m 
3 - Power Produced at minute m 
4 - Energy Consumed since the beginning of the day 
5 - Energy Produced since the beginning of the day 
6 - Energy Lost since the beginning of the day on lines starting from the city
 
0 ; 1.5977997440524735E7 ; 1.0535821490530673E8 ; 0.0 ; 0.0 ; 0.0
1 ; 1.5995207714978654E7 ; 1.0551074635053486E8 ; 1.5977997440524735E7 ; 1.0535821490530673E8 ; 0.0
2 ; 1.6010293212819654E7 ; 1.0597209374272808E8 ; 3.197320515550339E7 ; 2.1086896125584158E8 ; 0.0
3 ; 1.6032096987709032E7 ; 1.0674226159732074E8 ; 4.798349836832304E7 ; 3.1684105499856967E8 ; 0.0
4 ; 1.6052860461722309E7 ; 1.0782125405846006E8 ; 6.401559535603207E7 ; 4.235833165958904E8 ; 0.0
5 ; 1.6082460203009514E7 ; 1.0920907484553242E8 ; 8.006845581775439E7 ; 5.3140457065435046E8 ; 0.0
6 ; 1.6122424353040632E7 ; 1.1090572720274922E8 ; 9.61509160207639E7 ; 6.406136454998829E8 ; 0.0
7 ; 1.6175153164825328E7 ; 1.129112138532815E8 ; 1.1227334037380454E8 ; 7.515193727026322E8 ; 0.0
8 ; 1.625171593204033E7 ; 1.152255369593845E8 ; 1.2844849353862986E8 ; 8.644305865559137E8 ; 0.0
9 ; 1.6372909272512656E7 ; 1.1784869808983457E8 ; 1.447002094706702E8 ; 9.796561235152981E8 ; 0.0
10 ; 1.6552715149746187E7 ; 1.2078069819580048E8 ; 1.6107311874318284E8 ; 1.0975048216051326E9 ; 0.0
11 ; 1.6838126303934384E7 ; 1.2402153759600744E8 ; 1.7762583389292902E8 ; 1.2182855198009331E9 ; 0.0
12 ; 1.730073143461103E7 ; 1.275712159717302E8 ; 1.944639601968634E8 ; 1.3423070573969405E9 ; 0.0
13 ; 1.7751193304917816E7 ; 1.314297323718E8 ; 2.1176469163147444E8 ; 1.4698782733686707E9 ; 0.0
14 ; 1.779709648354797E7 ; 1.355970852274406E8 ; 2.2951588493639225E8 ; 1.6013080057404706E9 ; 0.0
15 ; 1.782131774314837E7 ; 1.400732723763966E8 ; 2.4731298141994023E8 ; 1.7369050909679112E9 ; 0.0
16 ; 1.784437871815607E7 ; 1.448582910954971E8 ; 2.6513429916308862E8 ; 1.876978363344308E9 ; 0.0
17 ; 1.785835733254256E7 ; 1.4995213814053062E8 ; 2.8297867788124466E8 ; 2.021836654439805E9 ; 0.0
18 ; 1.788369119844954E7 ; 1.553548097921108E8 ; 3.008370352137872E8 ; 2.1717887925803356E9 ; 0.0
19 ; 1.7904901624064617E7 ; 1.610663019060904E8 ; 3.1872072641223675E8 ; 2.3271436023724465E9 ; 0.0
20 ; 1.7925635878190175E7 ; 1.6708660996703508E8 ; 3.366256280363014E8 ; 2.488209904278537E9 ; 0.0
21 ; 1.7945628241420135E7 ; 1.7341572914329568E8 ; 3.5455126391449153E8 ; 2.655296514245572E9 ; 0.0
22 ; 1.796853120009282E7 ; 1.8005365434230828E8 ; 3.724968921559117E8 ; 2.828712243388868E9 ; 0.0
23 ; 1.7991900081978526E7 ; 1.8700038026488954E8 ; 3.904654233560045E8 ; 3.0087658977311764E9 ; 0.0
24 ; 1.801043487314771E7 ; 1.94255901457469E8 ; 4.08457323437983E8 ; 3.195766277996066E9 ; 0.0
25 ; 1.803139955890385E7 ; 2.0050825325958014E8 ; 4.264677583111307E8 ; 3.390022179453535E9 ; 0.0
26 ; 1.8049123697422337E7 ; 2.0051097788647544E8 ; 4.444991578700346E8 ; 3.590530432713115E9 ; 0.0
27 ; 1.8073082245202065E7 ; 2.0051383899569622E8 ; 4.625482815674569E8 ; 3.791041410599591E9 ; 0.0
28 ; 1.809440264463604E7 ; 2.0051683097117543E8 ; 4.8062136381265897E8 ; 3.991555249595287E9 ; 0.0
29 ; 1.8112225888273574E7 ; 2.0051994824935612E8 ; 4.98715766457295E8 ; 4.1920720805664625E9 ; 0.0
30 ; 1.81308130481824E7 ; 2.0052318534762374E8 ; 5.168279923455686E8 ; 4.392592028815819E9 ; 0.0
31 ; 1.814880946762717E7 ; 2.005265368884266E8 ; 5.34958805393751E8 ; 4.593115214163443E9 ; 0.0
32 ; 1.8171885640167084E7 ; 2.0052999761929893E8 ; 5.531076148613782E8 ; 4.793641751051869E9 ; 0.0
33 ; 1.8184021627359737E7 ; 2.0053356242906484E8 ; 5.712795005015453E8 ; 4.994171748671168E9 ; 0.0
34 ; 1.8202496442119636E7 ; 2.0053722636054185E8 ; 5.89463522128905E8 ; 5.194705311100233E9 ; 0.0
35 ; 1.82191839598885E7 ; 2.0054098462008658E8 ; 6.076660185710247E8 ; 5.395242537460775E9 ; 0.0
36 ; 1.8237725327813663E7 ; 2.0054483258433235E8 ; 6.258852025309131E8 ; 5.595783522080862E9 ; 0.0
37 ; 1.825338616909923E7 ; 2.0054876580446485E8 ; 6.441229278587267E8 ; 5.7963283546651945E9 ; 0.0
38 ; 1.8270176155500054E7 ; 2.0055278000836968E8 ; 6.62376314027826E8 ; 5.99687712046966E9 ; 0.0
39 ; 1.828125152645703E7 ; 2.005568711009645E8 ; 6.80646490183326E8 ; 6.197429900478029E9 ; 0.0
40 ; 1.8296998943668026E7 ; 2.0056103516300666E8 ; 6.989277417097831E8 ; 6.397986771578994E9 ; 0.0
41 ; 1.830897914684329E7 ; 2.0056526844864038E8 ; 7.172247406534511E8 ; 6.598547806742001E9 ; 0.0
42 ; 1.8324556903388266E7 ; 2.005695673819193E8 ; 7.355337198002944E8 ; 6.799113075190641E9 ; 0.0
43 ; 1.833477997326604E7 ; 2.0057392855251577E8 ; 7.538582767036827E8 ; 6.99968264257256E9 ; 0.0
44 ; 1.834516496168606E7 ; 2.0057834871079975E8 ; 7.721930566769487E8 ; 7.200256571125076E9 ; 0.0
45 ; 1.8353510365131628E7 ; 2.005828247624468E8 ; 7.905382216386347E8 ; 7.400834919835876E9 ; 0.0
46 ; 1.8362839040019784E7 ; 2.0058735376271158E8 ; 8.088917320037663E8 ; 7.601417744598323E9 ; 0.0
47 ; 1.837278306289951E7 ; 2.0059193291048303E8 ; 8.27254571043786E8 ; 7.802005098361034E9 ; 0.0
48 ; 1.8379280866257966E7 ; 2.005965595422172E8 ; 8.456273541066855E8 ; 8.002597031271518E9 ; 0.0
49 ; 1.838701456968758E7 ; 2.0060123112582937E8 ; 8.640066349729435E8 ; 8.203193590813735E9 ; 0.0
50 ; 1.839101148063584E7 ; 2.0060594525461042E8 ; 8.823936495426311E8 ; 8.403794821939565E9 ; 0.0
51 ; 1.839577179734068E7 ; 2.0061069964122105E8 ; 9.00784661023267E8 ; 8.604400767194176E9 ; 0.0
52 ; 1.840185670907097E7 ; 2.0061549211180577E8 ; 9.191804328206077E8 ; 8.805011466835396E9 ; 0.0
53 ; 1.840723428677932E7 ; 2.006203206002598E8 ; 9.375822895296786E8 ; 9.0056269589472E9 ; 0.0
54 ; 1.8407037271473065E7 ; 2.006251831426732E8 ; 9.559895238164579E8 ; 9.20624727954746E9 ; 0.0
55 ; 1.841953605109641E7 ; 2.0063007787197074E8 ; 9.743965610879309E8 ; 9.406872462690134E9 ; 0.0
56 ; 1.8419523796324346E7 ; 2.0063500301276007E8 ; 9.928160971390274E8 ; 9.607502540562105E9 ; 0.0
57 ; 1.8422405314594045E7 ; 2.0063995687639564E8 ; 1.0112356209353517E9 ; 9.808137543574865E9 ; 0.0
58 ; 1.8428951267368514E7 ; 2.0064493785626283E8 ; 1.0296580262499458E9 ; 1.0008777500451262E10 ; 0.0
59 ; 1.8429992641389575E7 ; 2.0064994442328316E8 ; 1.0480869775173143E9 ; 1.0209422438307524E10 ; 0.0
60 ; 1.8430313953185E7 ; 2.00654975121639E8 ; 1.0665169701587039E9 ; 1.0410072382730806E10 ; 0.0
61 ; 1.8438000438796192E7 ; 2.006600285647146E8 ; 1.084947284111889E9 ; 1.0610727357852446E10 ; 0.0
62 ; 1.844175519187976E7 ; 2.0066510343124783E8 ; 1.1033852845506852E9 ; 1.081138738641716E10 ; 0.0
63 ; 1.8446621439447578E7 ; 2.006701984616875E8 ; 1.121827039742565E9 ; 1.1012052489848408E10 ; 0.0
64 ; 1.8449417885812636E7 ; 2.0067531245474842E8 ; 1.1402736611820126E9 ; 1.1212722688310095E10 ; 0.0
65 ; 1.8449664839725263E7 ; 2.0068044426415688E8 ; 1.158723079067825E9 ; 1.1413398000764843E10 ; 0.0
66 ; 1.845412931064953E7 ; 2.00685592795579E8 ; 1.1771727439075503E9 ; 1.1614078445029E10 ; 0.0
67 ; 1.8455782300771553E7 ; 2.0069075700372314E8 ; 1.1956268732182E9 ; 1.181476403782458E10 ; 0.0
68 ; 1.8459754766569164E7 ; 2.0069593588960856E8 ; 1.2140826555189714E9 ; 1.2015454794828302E10 ; 0.0
69 ; 1.846187314745604E7 ; 2.0070112849799183E8 ; 1.2325424102855406E9 ; 1.221615073071791E10 ; 0.0
70 ; 1.845880462766765E7 ; 2.00706333914943E8 ; 1.2510042834329965E9 ; 1.2416851859215902E10 ; 0.0
71 ; 1.8461162021799766E7 ; 2.0071155126556364E8 ; 1.2694630880606642E9 ; 1.2617558193130846E10 ; 0.0
72 ; 1.8459926561692733E7 ; 2.0071677971183848E8 ; 1.287924250082464E9 ; 1.281826974439641E10 ; 0.0
73 ; 1.84642763042192E7 ; 2.0072201845061415E8 ; 1.3063841766441567E9 ; 1.3018986524108248E10 ; 0.0
74 ; 1.8466141985873967E7 ; 2.0072726671169668E8 ; 1.324848452948376E9 ; 1.3219708542558863E10 ; 0.0
75 ; 1.846804751449445E7 ; 2.0073252375606173E8 ; 1.3433145949342499E9 ; 1.342043580927056E10 ; 0.0
76 ; 1.847020326973355E7 ; 2.007377888741706E8 ; 1.3617826424487443E9 ; 1.362116833302662E10 ; 0.0
77 ; 1.846707076262532E7 ; 2.0074306138438565E8 ; 1.3802528457184777E9 ; 1.3821906121900791E10 ; 0.0
78 ; 1.8461630619612355E7 ; 2.0074834063147947E8 ; 1.398719916481103E9 ; 1.4022649183285177E10 ; 0.0
79 ; 1.8454955983640358E7 ; 2.0075362598523203E8 ; 1.4171815471007154E9 ; 1.4223397523916656E10 ; 0.0
80 ; 1.845325012586238E7 ; 2.0075891683911026E8 ; 1.4356365030843558E9 ; 1.4424151149901888E10 ; 0.0
81 ; 1.8447132647961363E7 ; 2.007642126090255E8 ; 1.4540897532102182E9 ; 1.4624910066740997E10 ; 0.0
82 ; 1.8440575584487773E7 ; 2.0076951273216355E8 ; 1.4725368858581796E9 ; 1.4825674279350023E10 ; 0.0
83 ; 1.8431959953714553E7 ; 2.0077481666588312E8 ; 1.4909774614426672E9 ; 1.5026443792082188E10 ; 0.0
84 ; 1.842834708098377E7 ; 2.007801238866787E8 ; 1.5094094213963819E9 ; 1.5227218608748072E10 ; 0.0
85 ; 1.8422437744855266E7 ; 2.0078543388920325E8 ; 1.5278377684773657E9 ; 1.542799873263475E10 ; 0.0
86 ; 1.8413286490997948E7 ; 2.0079074618534777E8 ; 1.546260206222221E9 ; 1.5628784166523954E10 ; 0.0
87 ; 1.8408205886437166E7 ; 2.007960603033736E8 ; 1.564673492713219E9 ; 1.5829574912709303E10 ; 0.0
88 ; 1.8400130192018777E7 ; 2.0080137578709468E8 ; 1.583081698599656E9 ; 1.6030370973012676E10 ; 0.0
89 ; 1.839299679184061E7 ; 2.008066921951063E8 ; 1.6014818287916749E9 ; 1.623117234879977E10 ; 0.0
90 ; 1.838478064853791E7 ; 2.0081200910005793E8 ; 1.6198748255835154E9 ; 1.6431979040994877E10 ; 0.0
91 ; 1.8382205130055584E7 ; 2.0081732608796695E8 ; 1.6382596062320533E9 ; 1.6632791050094934E10 ; 0.0
92 ; 1.8374093647160355E7 ; 2.0082264275757107E8 ; 1.656641811362109E9 ; 1.6833608376182901E10 ; 0.0
93 ; 1.8364011738745775E7 ; 2.0082795871971706E8 ; 1.6750159050092692E9 ; 1.7034431018940472E10 ; 0.0
94 ; 1.8358460241596732E7 ; 2.008332735967835E8 ; 1.693379916748015E9 ; 1.723525897766019E10 ; 0.0
95 ; 1.834847795354012E7 ; 2.008385870221354E8 ; 1.7117383769896116E9 ; 1.7436092251256973E10 ; 0.0
96 ; 1.8340510635153297E7 ; 2.008438986396092E8 ; 1.7300868549431517E9 ; 1.763693083827911E10 ; 0.0
97 ; 1.8332857447699886E7 ; 2.0084920810302547E8 ; 1.748427365578305E9 ; 1.783777473691872E10 ; 0.0
98 ; 1.832518022967744E7 ; 2.0085451507572863E8 ; 1.7667602230260048E9 ; 1.8038623945021748E10 ; 0.0
99 ; 1.831051302835324E7 ; 2.0085981923015144E8 ; 1.7850854032556822E9 ; 1.8239478460097477E10 ; 0.0
100 ; 1.8308407579974044E7 ; 2.0086512024740294E8 ; 1.8033959162840354E9 ; 1.844033827932763E10 ; 0.0
101 ; 1.829441724430482E7 ; 2.008704178168784E8 ; 1.8217043238640094E9 ; 1.864120339957503E10 ; 0.0
102 ; 1.8286074734908413E7 ; 2.0087571163589033E8 ; 1.8399987411083143E9 ; 1.884207381739191E10 ; 0.0
103 ; 1.827701806012852E7 ; 2.0088100140931854E8 ; 1.8582848158432226E9 ; 1.90429495290278E10 ; 0.0
104 ; 1.826630336251489E7 ; 2.0088628684927917E8 ; 1.876561833903351E9 ; 1.924383053043712E10 ; 0.0
105 ; 1.8259097095038697E7 ; 2.008915676748106E8 ; 1.894828137265866E9 ; 1.9444716817286396E10 ; 0.0
106 ; 1.8246512126222964E7 ; 2.00896843611576E8 ; 1.9130872343609047E9 ; 1.964560838496121E10 ; 0.0
107 ; 1.8234095969934087E7 ; 2.0090211439158103E8 ; 1.9313337464871275E9 ; 1.9846505228572784E10 ; 0.0
108 ; 1.8228379517708667E7 ; 2.0090737975290626E8 ; 1.9495678424570615E9 ; 2.0047407342964367E10 ; 0.0
109 ; 1.8215615099972077E7 ; 2.0091263943945307E8 ; 1.9677962219747703E9 ; 2.0248314722717274E10 ; 0.0
110 ; 1.820430282411827E7 ; 2.0091789320070258E8 ; 1.9860118370747423E9 ; 2.0449227362156727E10 ; 0.0
111 ; 1.819546081987162E7 ; 2.009231407914868E8 ; 2.0042161398988607E9 ; 2.065014525535743E10 ; 0.0
112 ; 1.8180765457759637E7 ; 2.0092838197177106E8 ; 2.0224116007187324E9 ; 2.085106839614892E10 ; 0.0
113 ; 1.8169233439971592E7 ; 2.0093361650644752E8 ; 2.040592366176492E9 ; 2.105199677812069E10 ; 0.0
114 ; 1.815574686894565E7 ; 2.0093884416513875E8 ; 2.0587615996164637E9 ; 2.1252930394627136E10 ; 0.0
115 ; 1.814447005519206E7 ; 2.0094406472201118E8 ; 2.0769173464854093E9 ; 2.1453869238792274E10 ; 0.0
116 ; 1.8133142143283222E7 ; 2.0094927795559746E8 ; 2.0950618165406013E9 ; 2.1654813303514286E10 ; 0.0
117 ; 1.8120800832539763E7 ; 2.0095448364862764E8 ; 2.1131949586838844E9 ; 2.1855762581469883E10 ; 0.0
118 ; 1.8108432827400062E7 ; 2.009596815878685E8 ; 2.1313157595164242E9 ; 2.205671706511851E10 ; 0.0
119 ; 1.8097013775539357E7 ; 2.0096487156397066E8 ; 2.1494241923438244E9 ; 2.225767674670638E10 ; 0.0
120 ; 1.8082200296260633E7 ; 2.009700533713228E8 ; 2.167521206119364E9 ; 2.245864161827035E10 ; 0.0
121 ; 1.807037940856962E7 ; 2.0097522680791306E8 ; 2.1856034064156246E9 ; 2.2659611671641674E10 ; 0.0
122 ; 1.8059556989690825E7 ; 2.0098039167519698E8 ; 2.2036737858241944E9 ; 2.286058689844959E10 ; 0.0
123 ; 1.804473335610661E7 ; 2.0098554777797136E8 ; 2.221733342813885E9 ; 2.3061567290124786E10 ; 0.0
124 ; 1.8030228307556167E7 ; 2.009906949242545E8 ; 2.239778076169992E9 ; 2.326255283790276E10 ; 0.0
125 ; 1.802112213491305E7 ; 2.0099583292517155E8 ; 2.257808304477548E9 ; 2.3463543532827015E10 ; 0.0
126 ; 1.8002103075814117E7 ; 2.0100096159484553E8 ; 2.275829426612461E9 ; 2.3664539365752186E10 ; 0.0
127 ; 1.7989094493467744E7 ; 2.01006080750293E8 ; 2.2938315296882753E9 ; 2.386554032734703E10 ; 0.0
128 ; 1.7977195939214714E7 ; 2.0101119021132484E8 ; 2.311820624181743E9 ; 2.4066546408097324E10 ; 0.0
129 ; 1.7961021505837243E7 ; 2.010162898004514E8 ; 2.329797820120958E9 ; 2.426755759830865E10 ; 0.0
130 ; 1.7942212458478767E7 ; 2.0102137934279186E8 ; 2.3477588416267953E9 ; 2.4468573888109104E10 ; 0.0
131 ; 1.7922294809827123E7 ; 2.0102645866598782E8 ; 2.365701054085274E9 ; 2.4669595267451897E10 ; 0.0
132 ; 1.790171870793087E7 ; 2.0103152760012063E8 ; 2.3836233488951015E9 ; 2.4870621726117886E10 ; 0.0
133 ; 1.78803519028228E7 ; 2.010365859776325E8 ; 2.4015250676030326E9 ; 2.5071653253718006E10 ; 0.0
134 ; 1.7861359403287288E7 ; 2.01041633633251E8 ; 2.4194054195058556E9 ; 2.5272689839695637E10 ; 0.0
135 ; 1.783909143232301E7 ; 2.0104667040391704E8 ; 2.437266778909143E9 ; 2.5473731473328888E10 ; 0.0
136 ; 1.7817439037477553E7 ; 2.0105169612871578E8 ; 2.455105870341466E9 ; 2.5674778143732803E10 ; 0.0
137 ; 1.7800155285916865E7 ; 2.0105671064881077E8 ; 2.4729233093789434E9 ; 2.587582983986152E10 ; 0.0
138 ; 1.7774337417884335E7 ; 2.0106171380738083E8 ; 2.4907234646648602E9 ; 2.607688655051033E10 ; 0.0
139 ; 1.7753546461575095E7 ; 2.010667054495597E8 ; 2.5084978020827446E9 ; 2.627794826431771E10 ; 0.0
140 ; 1.7730717809771E7 ; 2.0107168542237815E8 ; 2.5262513485443196E9 ; 2.647901496976727E10 ; 0.0
141 ; 1.7711697334670283E7 ; 2.0107665357470885E8 ; 2.5439820663540907E9 ; 2.6680086655189648E10 ; 0.0
142 ; 1.7688276658273086E7 ; 2.0108160975721326E8 ; 2.5616937636887608E9 ; 2.6881163308764355E10 ; 0.0
143 ; 1.7666582147812147E7 ; 2.0108655382229102E8 ; 2.579382040347034E9 ; 2.708224491852157E10 ; 0.0
144 ; 1.7639293901836015E7 ; 2.010914856240312E8 ; 2.5970486224948463E9 ; 2.728333147234386E10 ; 0.0
145 ; 1.7626342536077626E7 ; 2.0109640501816598E8 ; 2.6146879163966823E9 ; 2.748442295796789E10 ; 0.0
146 ; 1.7613235481031403E7 ; 2.0110131186202586E8 ; 2.63231425893276E9 ; 2.7685519362986057E10 ; 0.0
147 ; 1.7594021098811753E7 ; 2.01106206014497E8 ; 2.649927494413791E9 ; 2.7886620674848083E10 ; 0.0
148 ; 1.7581091242347695E7 ; 2.0111108733598024E8 ; 2.667521515512603E9 ; 2.808772688086258E10 ; 0.0
149 ; 1.756323250868692E7 ; 2.0111595568835172E8 ; 2.6851026067549505E9 ; 2.828883796819856E10 ; 0.0
150 ; 1.7552121160638258E7 ; 2.0112081093492532E8 ; 2.7026658392636375E9 ; 2.848995392388691E10 ; 0.0
151 ; 1.7531203878709763E7 ; 2.0112565294041637E8 ; 2.720217960424276E9 ; 2.8691074734821835E10 ; 0.0
152 ; 1.7516985608101945E7 ; 2.0113048157090706E8 ; 2.7377491643029857E9 ; 2.8892200387762253E10 ; 0.0
153 ; 1.749679376071161E7 ; 2.0113529669381317E8 ; 2.7552661499110875E9 ; 2.909333086933316E10 ; 0.0
154 ; 1.74837501062314E7 ; 2.011400981778521E8 ; 2.772762943671799E9 ; 2.9294466166026974E10 ; 0.0
155 ; 1.7469718620111566E7 ; 2.011448858930122E8 ; 2.7902466937780304E9 ; 2.9495606264204826E10 ; 0.0
156 ; 1.7450101523917288E7 ; 2.011496597105234E8 ; 2.807716412398142E9 ; 2.969675115009784E10 ; 0.0
157 ; 1.743588114530423E7 ; 2.0115441950282896E8 ; 2.825166513922059E9 ; 2.989790080980836E10 ; 0.0
158 ; 1.741950992713674E7 ; 2.011591651435582E8 ; 2.8426023950673633E9 ; 3.009905522931119E10 ; 0.0
159 ; 1.7399559584590204E7 ; 2.0116389650750068E8 ; 2.8600219049945E9 ; 3.030021439445475E10 ; 0.0
160 ; 1.7385874241583306E7 ; 2.0116861347058097E8 ; 2.8774214645790906E9 ; 3.050137829096225E10 ; 0.0
161 ; 1.7369815551521666E7 ; 2.0117331590983462E8 ; 2.894807338820674E9 ; 3.070254690443283E10 ; 0.0
162 ; 1.7352035544959594E7 ; 2.0117800370338514E8 ; 2.9121771543721957E9 ; 3.0903720220342667E10 ; 0.0
163 ; 1.7336850847946994E7 ; 2.0118267673042178E8 ; 2.9295291899171553E9 ; 3.110489822404605E10 ; 0.0
164 ; 1.7317211135817803E7 ; 2.0118733487117812E8 ; 2.9468660407651024E9 ; 3.1306080900776474E10 ; 0.0
165 ; 1.729594978382779E7 ; 2.0119197800691155E8 ; 2.9641832519009204E9 ; 3.150726823564765E10 ; 0.0
166 ; 1.728207723428719E7 ; 2.011966060198837E8 ; 2.981479201684748E9 ; 3.1708460213654564E10 ; 0.0
167 ; 1.726340408868798E7 ; 2.012012187933412E8 ; 2.9987612789190354E9 ; 3.1909656819674446E10 ; 0.0
168 ; 1.724957954167255E7 ; 2.0120581621149775E8 ; 3.0160246830077233E9 ; 3.211085803846779E10 ; 0.0
169 ; 1.723294558676673E7 ; 2.0121039815951636E8 ; 3.033274262549396E9 ; 3.2312063854679287E10 ; 0.0
170 ; 1.7213185786221597E7 ; 2.012149645234926E8 ; 3.0505072081361628E9 ; 3.2513274252838802E10 ; 0.0
171 ; 1.7195353893618442E7 ; 2.012195151904383E8 ; 3.0677203939223843E9 ; 3.2714489217362293E10 ; 0.0
172 ; 1.7176581062534846E7 ; 2.01224050048266E8 ; 3.084915747816003E9 ; 3.291570873255273E10 ; 0.0
173 ; 1.7164126198687997E7 ; 2.0122856898577392E8 ; 3.1020923288785377E9 ; 3.3116932782600998E10 ; 0.0
174 ; 1.7151903984792538E7 ; 2.012330718926315E8 ; 3.1192564550772257E9 ; 3.3318161351586773E10 ; 0.0
175 ; 1.7138461805149306E7 ; 2.0123755865936553E8 ; 3.1364083590620184E9 ; 3.3519394423479404E10 ; 0.0
176 ; 1.7128430506239183E7 ; 2.0124202917734665E8 ; 3.1535468208671675E9 ; 3.372063198213877E10 ; 0.0
177 ; 1.7115851396114293E7 ; 2.0124648333877668E8 ; 3.170675251373407E9 ; 3.3921874011316116E10 ; 0.0
178 ; 1.710674153473171E7 ; 2.0125092103667605E8 ; 3.187791102769521E9 ; 3.4123120494654892E10 ; 0.0
179 ; 1.7097090517173197E7 ; 2.0125534216487196E8 ; 3.204897844304253E9 ; 3.4324371415691566E10 ; 0.0
180 ; 1.7086273537219647E7 ; 2.0125974661798686E8 ; 3.2219949348214264E9 ; 3.452562675785644E10 ; 0.0
181 ; 1.7077187594903596E7 ; 2.0126413429142743E8 ; 3.239081208358646E9 ; 3.472688650447443E10 ; 0.0
182 ; 1.7065595501350876E7 ; 2.012685050813739E8 ; 3.2561583959535494E9 ; 3.4928150638765854E10 ; 0.0
183 ; 1.7051600577447258E7 ; 2.0127285888476983E8 ; 3.2732239914549003E9 ; 3.512941914384723E10 ; 0.0
184 ; 1.7043669115702603E7 ; 2.0127719559931225E8 ; 3.2902755920323477E9 ; 3.5330692002732E10 ; 0.0
185 ; 1.7034185999136567E7 ; 2.0128151512344214E8 ; 3.3073192611480503E9 ; 3.5531969198331314E10 ; 0.0
186 ; 1.7022901879621208E7 ; 2.0128581735633528E8 ; 3.3243534471471868E9 ; 3.573325071345476E10 ; 0.0
187 ; 1.70108387240512E7 ; 2.0129010219789347E8 ; 3.341376349026808E9 ; 3.59345365308111E10 ; 0.0
188 ; 1.700096306646247E7 ; 2.0129436954873604E8 ; 3.358387187750859E9 ; 3.613582663300899E10 ; 0.0
189 ; 1.69926624394699E7 ; 2.0129861931019166E8 ; 3.3753881508173213E9 ; 3.6337121002557724E10 ; 0.0
190 ; 1.698127762494843E7 ; 2.0130285138429058E8 ; 3.392380813256791E9 ; 3.653841962186791E10 ; 0.0
191 ; 1.696881009673228E7 ; 2.0130706567375687E8 ; 3.4093620908817396E9 ; 3.6739722473252205E10 ; 0.0
192 ; 1.6960986113555E7 ; 2.013112620820013E8 ; 3.4263309009784718E9 ; 3.6941029538925964E10 ; 0.0
193 ; 1.6946660854703214E7 ; 2.0131544051311418E8 ; 3.4432918870920267E9 ; 3.7142340801007965E10 ; 0.0
194 ; 1.69395255704946E7 ; 2.0131960087185878E8 ; 3.46023854794673E9 ; 3.734365624152108E10 ; 0.0
195 ; 1.6924021817826476E7 ; 2.0132374306366462E8 ; 3.477178073517225E9 ; 3.754497584239294E10 ; 0.0
