CSV File for the City 6 on Day 15
1 - Minute m 
2 - Power Consumed at minute m 
3 - Power Produced at minute m 
4 - Energy Consumed since the beginning of the day 
5 - Energy Produced since the beginning of the day 
6 - Energy Lost since the beginning of the day on lines starting from the city
 
0 ; 1.111888091178229E7 ; 1.0538712400716648E8 ; 0.0 ; 0.0 ; 0.0
1 ; 1.1127971569087606E7 ; 1.0553293038928777E8 ; 1.111888091178229E7 ; 1.0538712400716648E8 ; 0.0
2 ; 1.1143567050732456E7 ; 1.0598797985007611E8 ; 2.2246852480869897E7 ; 2.1092005439645424E8 ; 0.0
3 ; 1.1155453480165333E7 ; 1.067523436446796E8 ; 3.3390419531602353E7 ; 3.1690803424653035E8 ; 0.0
4 ; 1.117285405154038E7 ; 1.0782609703257966E8 ; 4.4545873011767685E7 ; 4.2366037789120996E8 ; 0.0
5 ; 1.1194979316922162E7 ; 1.0920931721986258E8 ; 5.571872706330807E7 ; 5.314864749237896E8 ; 0.0
6 ; 1.1216386827416066E7 ; 1.109020804185426E8 ; 6.691370638023023E7 ; 6.406957921436522E8 ; 0.0
7 ; 1.1254616308492659E7 ; 1.1290445806763035E8 ; 7.81300932076463E7 ; 7.515978725621948E8 ; 0.0
8 ; 1.1308250522710187E7 ; 1.1521651245933646E8 ; 8.938470951613896E7 ; 8.645023306298251E8 ; 0.0
9 ; 1.138756808833433E7 ; 1.1783829224124563E8 ; 1.0069296003884915E8 ; 9.797188430891616E8 ; 0.0
10 ; 1.1517075037626274E7 ; 1.207698284465254E8 ; 1.1208052812718347E8 ; 1.0975571353304071E9 ; 0.0
11 ; 1.171000077715074E7 ; 1.240111317474185E8 ; 1.2359760316480973E8 ; 1.2183269637769325E9 ; 0.0
12 ; 1.2028414432002243E7 ; 1.2756219147168216E8 ; 1.3530760394196048E8 ; 1.342338095524351E9 ; 0.0
13 ; 1.2330991487810496E7 ; 1.3142297658614886E8 ; 1.4733601837396273E8 ; 1.469900286996033E9 ; 0.0
14 ; 1.2366036382072845E7 ; 1.3559343844323397E8 ; 1.5966700986177322E8 ; 1.601323263582182E9 ; 0.0
15 ; 1.238141785197218E7 ; 1.4007351475072676E8 ; 1.7203304624384606E8 ; 1.736916702025416E9 ; 0.0
16 ; 1.2394960925846837E7 ; 1.448631340696167E8 ; 1.8441446409581825E8 ; 1.8769902167761426E9 ; 0.0
17 ; 1.2408228945281496E7 ; 1.499622201878895E8 ; 1.968094250216651E8 ; 2.0218533508457594E9 ; 0.0
18 ; 1.2427135519522943E7 ; 1.5537069589945883E8 ; 2.092176539669466E8 ; 2.171815571033649E9 ; 0.0
19 ; 1.243934268140305E7 ; 1.6108848594484332E8 ; 2.2164478948646954E8 ; 2.327186266933108E9 ; 0.0
20 ; 1.2451274928557154E7 ; 1.6711551906889483E8 ; 2.3408413216787258E8 ; 2.488274752877951E9 ; 0.0
21 ; 1.246613627606333E7 ; 1.734517292842529E8 ; 2.4653540709642974E8 ; 2.655390271946846E9 ; 0.0
22 ; 1.248223956510978E7 ; 1.800970564948758E8 ; 2.5900154337249306E8 ; 2.828842001231099E9 ; 0.0
23 ; 1.2495608838713575E7 ; 1.8705144664835644E8 ; 2.714837829376028E8 ; 3.008939057725975E9 ; 0.0
24 ; 1.2507253615632072E7 ; 1.9431485156956255E8 ; 2.839793917763164E8 ; 3.1959905043743315E9 ; 0.0
25 ; 1.25224978254282E7 ; 2.005752694968448E8 ; 2.9648664539194846E8 ; 3.390305355943894E9 ; 0.0
26 ; 1.2540122972533643E7 ; 2.0058621065276298E8 ; 3.0900914321737665E8 ; 3.5908806254407387E9 ; 0.0
27 ; 1.2555624423847957E7 ; 2.005974112620378E8 ; 3.215492661899103E8 ; 3.7914668360935016E9 ; 0.0
28 ; 1.2566009825638195E7 ; 2.0060884229175597E8 ; 3.3410489061375827E8 ; 3.9920642473555393E9 ; 0.0
29 ; 1.258236961644804E7 ; 2.0062047826318073E8 ; 3.4667090043939644E8 ; 4.1926730896472955E9 ; 0.0
30 ; 1.2593948452351978E7 ; 2.0063229680876216E8 ; 3.592532700558445E8 ; 4.393293567910477E9 ; 0.0
31 ; 1.2606525006597852E7 ; 2.0064427827333093E8 ; 3.718472185081965E8 ; 4.593925864719239E9 ; 0.0
32 ; 1.262000002763453E7 ; 2.0065640536045808E8 ; 3.8445374351479435E8 ; 4.79457014299257E9 ; 0.0
33 ; 1.2632968501117568E7 ; 2.00668662822158E8 ; 3.9707374354242885E8 ; 4.995226548353028E9 ; 0.0
34 ; 1.264486891246168E7 ; 2.0068103718861195E8 ; 4.0970671204354644E8 ; 5.195895211175186E9 ; 0.0
35 ; 1.2656287085621245E7 ; 2.006935165339225E8 ; 4.2235158095600814E8 ; 5.396576248363798E9 ; 0.0
36 ; 1.2667397875446582E7 ; 2.0070609027375606E8 ; 4.350078680416294E8 ; 5.59726976489772E9 ; 0.0
37 ; 1.2675350588382443E7 ; 2.0071874899087316E8 ; 4.4767526591707593E8 ; 5.797975855171476E9 ; 0.0
38 ; 1.2688728092739526E7 ; 2.007314842848481E8 ; 4.6035061650545835E8 ; 5.99869460416235E9 ; 0.0
39 ; 1.2699327353241224E7 ; 2.007442886426504E8 ; 4.730393445981979E8 ; 6.199426088447198E9 ; 0.0
40 ; 1.2707323061289294E7 ; 2.0075715532715E8 ; 4.857386719514391E8 ; 6.4001703770898485E9 ; 0.0
41 ; 1.271726674088259E7 ; 2.007700782809846E8 ; 4.984459950127284E8 ; 6.600927532416999E9 ; 0.0
42 ; 1.2722287211282644E7 ; 2.0078305204357547E8 ; 5.1116326175361097E8 ; 6.801697610697984E9 ; 0.0
43 ; 1.2730790388360912E7 ; 2.0079607167939085E8 ; 5.2388554896489364E8 ; 7.002480662741559E9 ; 0.0
44 ; 1.274377795484588E7 ; 2.0080913271583176E8 ; 5.3661633935325456E8 ; 7.20327673442095E9 ; 0.0
45 ; 1.2745419249395482E7 ; 2.008222310893532E8 ; 5.493601173081005E8 ; 7.404085867136782E9 ; 0.0
46 ; 1.2754389623383438E7 ; 2.008353630986416E8 ; 5.62105536557496E8 ; 7.604908098226135E9 ; 0.0
47 ; 1.2759368754631484E7 ; 2.0084852536384377E8 ; 5.748599261808794E8 ; 7.805743461324777E9 ; 0.0
48 ; 1.2760898116218358E7 ; 2.0086171479099423E8 ; 5.876192949355109E8 ; 8.006591986688621E9 ; 0.0
49 ; 1.2767514830192028E7 ; 2.0087492854091483E8 ; 6.003801930517292E8 ; 8.207453701479615E9 ; 0.0
50 ; 1.2770571047732666E7 ; 2.008881640019678E8 ; 6.131477078819212E8 ; 8.40832863002053E9 ; 0.0
51 ; 1.2775568613313522E7 ; 2.009014187661363E8 ; 6.259182789296539E8 ; 8.609216794022497E9 ; 0.0
52 ; 1.2782090972449375E7 ; 2.0091469060798264E8 ; 6.386938475429674E8 ; 8.810118212788633E9 ; 0.0
53 ; 1.2783554584351765E7 ; 2.0092797746610048E8 ; 6.514759385154169E8 ; 9.011032903396616E9 ; 0.0
54 ; 1.2788565728090106E7 ; 2.0094127742673218E8 ; 6.642594930997686E8 ; 9.211960880862717E9 ; 0.0
55 ; 1.2792088840865567E7 ; 2.0095458870927045E8 ; 6.770480588278587E8 ; 9.41290215828945E9 ; 0.0
56 ; 1.279241030243765E7 ; 2.0096790965340188E8 ; 6.898401476687243E8 ; 9.61385674699872E9 ; 0.0
57 ; 1.2797179653670294E7 ; 2.009812387076849E8 ; 7.02632557971162E8 ; 9.814824656652122E9 ; 0.0
58 ; 1.279780925641113E7 ; 2.0099457441938314E8 ; 7.154297376248323E8 ; 1.0015805895359808E10 ; 0.0
59 ; 1.279955728457737E7 ; 2.0100791542539907E8 ; 7.282275468812433E8 ; 1.0216800469779192E10 ; 0.0
60 ; 1.2803031138942994E7 ; 2.0102126044417477E8 ; 7.410271041658207E8 ; 1.0417808385204592E10 ; 0.0
61 ; 1.280862476603836E7 ; 2.0103460826844358E8 ; 7.538301353047637E8 ; 1.0618829645648766E10 ; 0.0
62 ; 1.2808626017242905E7 ; 2.0104795775873214E8 ; 7.666387600708021E8 ; 1.081986425391721E10 ; 0.0
63 ; 1.2813116477674017E7 ; 2.010613078375254E8 ; 7.79447386088045E8 ; 1.1020912211675941E10 ; 0.0
64 ; 1.2810941669455525E7 ; 2.0107465748401818E8 ; 7.92260502565719E8 ; 1.1221973519513468E10 ; 0.0
65 ; 1.281320105069557E7 ; 2.0108800572938696E8 ; 8.050714442351745E8 ; 1.1423048176997486E10 ; 0.0
66 ; 1.2817745142468793E7 ; 2.0110135165252358E8 ; 8.178846452858701E8 ; 1.1624136182726873E10 ; 0.0
67 ; 1.2816644456107363E7 ; 2.0111469437617967E8 ; 8.307023904283389E8 ; 1.1825237534379396E10 ; 0.0
68 ; 1.2818092262851557E7 ; 2.0112803306347734E8 ; 8.435190348844463E8 ; 1.2026352228755575E10 ; 0.0
69 ; 1.282236985259396E7 ; 2.0114136691474673E8 ; 8.563371271472979E8 ; 1.2227480261819052E10 ; 0.0
70 ; 1.2819566272149855E7 ; 2.011546951646556E8 ; 8.691594969998919E8 ; 1.2428621628733799E10 ; 0.0
71 ; 1.2822422368242951E7 ; 2.011680170796004E8 ; 8.819790632720417E8 ; 1.2629776323898455E10 ; 0.0
72 ; 1.2820808976430401E7 ; 2.0118133195533198E8 ; 8.948014856402847E8 ; 1.2830944340978056E10 ; 0.0
73 ; 1.2824971957370652E7 ; 2.01194639114792E8 ; 9.076222946167151E8 ; 1.3032125672933388E10 ; 0.0
74 ; 1.2823223392833618E7 ; 2.012079379061385E8 ; 9.204472665740857E8 ; 1.323332031204818E10 ; 0.0
75 ; 1.2826200592911644E7 ; 2.0122122770094234E8 ; 9.332704899669193E8 ; 1.3434528249954319E10 ; 0.0
76 ; 1.282638898377358E7 ; 2.0123450789253724E8 ; 9.460966905598309E8 ; 1.3635749477655262E10 ; 0.0
77 ; 1.2829013858486816E7 ; 2.0124777789450896E8 ; 9.589230795436045E8 ; 1.38369839855478E10 ; 0.0
78 ; 1.2820460824224748E7 ; 2.0126103713931012E8 ; 9.717520934020913E8 ; 1.4038231763442308E10 ; 0.0
79 ; 1.281847567576108E7 ; 2.0127428507698864E8 ; 9.84572554226316E8 ; 1.423949280058162E10 ; 0.0
80 ; 1.281637543455956E7 ; 2.0128752117401937E8 ; 9.973910299020771E8 ; 1.4440767085658607E10 ; 0.0
81 ; 1.2811241173241323E7 ; 2.013007449122296E8 ; 1.0102074053366367E9 ; 1.4642054606832626E10 ; 0.0
82 ; 1.2812820368987607E7 ; 2.0131395578780934E8 ; 1.023018646509878E9 ; 1.4843355351744856E10 ; 0.0
83 ; 1.2804670847352585E7 ; 2.013271533103992E8 ; 1.0358314668788656E9 ; 1.5044669307532665E10 ; 0.0
84 ; 1.2801184624714516E7 ; 2.0134033700224882E8 ; 1.0486361377262182E9 ; 1.5245996460843065E10 ; 0.0
85 ; 1.2797624913512481E7 ; 2.013535063974397E8 ; 1.0614373223509327E9 ; 1.5447336797845314E10 ; 0.0
86 ; 1.27901305483647E7 ; 2.0136666104116645E8 ; 1.0742349472644453E9 ; 1.5648690304242754E10 ; 0.0
87 ; 1.2785995670695657E7 ; 2.0137980048907235E8 ; 1.08702507781281E9 ; 1.585005696528392E10 ; 0.0
88 ; 1.2782675302543012E7 ; 2.0139292430663344E8 ; 1.0998110734835055E9 ; 1.6051436765772993E10 ; 0.0
89 ; 1.2776809398112616E7 ; 2.0140603206858793E8 ; 1.1125937487860484E9 ; 1.6252829690079626E10 ; 0.0
90 ; 1.2775677244462257E7 ; 2.014191233584068E8 ; 1.125370558184161E9 ; 1.6454235722148214E10 ; 0.0
91 ; 1.2766316583633292E7 ; 2.0143219776780236E8 ; 1.1381462354286232E9 ; 1.665565484550662E10 ; 0.0
92 ; 1.2761089514737045E7 ; 2.0144525489627144E8 ; 1.1509125520122564E9 ; 1.6857087043274424E10 ; 0.0
93 ; 1.2756231342231639E7 ; 2.0145829435067078E8 ; 1.1636736415269935E9 ; 1.7058532298170694E10 ; 0.0
94 ; 1.2751745321522074E7 ; 2.0147131574482173E8 ; 1.1764298728692253E9 ; 1.7259990592521366E10 ; 0.0
95 ; 1.2746710593229387E7 ; 2.0148431869914216E8 ; 1.1891816181907473E9 ; 1.746146190826619E10 ; 0.0
96 ; 1.2741615000796467E7 ; 2.0149730284030336E8 ; 1.2019283287839766E9 ; 1.7662946226965332E10 ; 0.0
97 ; 1.273630544576921E7 ; 2.0151026780091E8 ; 1.214669943784773E9 ; 1.7864443529805634E10 ; 0.0
98 ; 1.2728588684642136E7 ; 2.015232132192016E8 ; 1.2274062492305424E9 ; 1.8065953797606544E10 ; 0.0
99 ; 1.2724699305128353E7 ; 2.0153613873877352E8 ; 1.2401348379151845E9 ; 1.8267477010825745E10 ; 0.0
100 ; 1.2718974180828398E7 ; 2.0154904400831622E8 ; 1.2528595372203128E9 ; 1.8469013149564518E10 ; 0.0
101 ; 1.2709098405340206E7 ; 2.015619286813717E8 ; 1.2655785114011412E9 ; 1.8670562193572834E10 ; 0.0
102 ; 1.270623482855352E7 ; 2.015747924161051E8 ; 1.2782876098064814E9 ; 1.8872124122254204E10 ; 0.0
103 ; 1.2700673566254806E7 ; 2.0158763487509134E8 ; 1.2909938446350348E9 ; 1.9073698914670307E10 ; 0.0
104 ; 1.2694379048438668E7 ; 2.01600455725115E8 ; 1.3036945182012897E9 ; 1.92752865495454E10 ; 0.0
105 ; 1.2686941921234755E7 ; 2.0161325463698262E8 ; 1.3163888972497282E9 ; 1.9476887005270515E10 ; 0.0
106 ; 1.2678280171649763E7 ; 2.0162603128534684E8 ; 1.329075839170963E9 ; 1.9678500259907497E10 ; 0.0
107 ; 1.2670229625770587E7 ; 2.0163878534854144E8 ; 1.3417541193426127E9 ; 1.9880126291192844E10 ; 0.0
108 ; 1.2667659164163548E7 ; 2.0165151650842607E8 ; 1.3544243489683833E9 ; 2.0081765076541386E10 ; 0.0
109 ; 1.265504111544705E7 ; 2.0166422445024085E8 ; 1.367092008132547E9 ; 2.0283416593049812E10 ; 0.0
110 ; 1.2650624483301332E7 ; 2.016769088624694E8 ; 1.379747049247994E9 ; 2.0485080817500053E10 ; 0.0
111 ; 1.2640904895369401E7 ; 2.0168956943671024E8 ; 1.3923976737312953E9 ; 2.0686757726362522E10 ; 0.0
112 ; 1.2634950220225463E7 ; 2.0170220586755553E8 ; 1.4050385786266646E9 ; 2.0888447295799232E10 ; 0.0
113 ; 1.2625030148649158E7 ; 2.0171481785247743E8 ; 1.4176735288468902E9 ; 2.1090149501666786E10 ; 0.0
114 ; 1.2618507318729952E7 ; 2.0172740509172043E8 ; 1.4302985589955394E9 ; 2.1291864319519264E10 ; 0.0
115 ; 1.260589850789045E7 ; 2.0173996728820065E8 ; 1.4429170663142693E9 ; 2.1493591724610985E10 ; 0.0
116 ; 1.260426089932867E7 ; 2.0175250414741027E8 ; 1.4555229648221598E9 ; 2.1695331691899185E10 ; 0.0
117 ; 1.259124788316833E7 ; 2.0176501537732804E8 ; 1.4681272257214885E9 ; 2.1897084196046597E10 ; 0.0
118 ; 1.2585217819332272E7 ; 2.0177750068833432E8 ; 1.4807184736046567E9 ; 2.2098849211423923E10 ; 0.0
119 ; 1.257603786107444E7 ; 2.0178995979313135E8 ; 1.493303691423989E9 ; 2.230062671211226E10 ; 0.0
120 ; 1.2568945437389195E7 ; 2.0180239240666783E8 ; 1.5058797292850635E9 ; 2.250241667190539E10 ; 0.0
121 ; 1.2561547055110808E7 ; 2.0181479824606767E8 ; 1.5184486747224526E9 ; 2.270421906431206E10 ; 0.0
122 ; 1.2549418753709456E7 ; 2.0182717703056282E8 ; 1.5310102217775633E9 ; 2.290603386255813E10 ; 0.0
123 ; 1.2541230161235463E7 ; 2.0183952848142964E8 ; 1.543559640531273E9 ; 2.310786103958869E10 ; 0.0
124 ; 1.253126503874207E7 ; 2.0185185232192907E8 ; 1.5561008706925085E9 ; 2.330970056807012E10 ; 0.0
125 ; 1.2521632390941678E7 ; 2.0186414827724972E8 ; 1.5686321357312505E9 ; 2.351155242039205E10 ; 0.0
126 ; 1.2514506456491195E7 ; 2.018764160744543E8 ; 1.5811537681221921E9 ; 2.37134165686693E10 ; 0.0
127 ; 1.250730034135784E7 ; 2.0188865544242892E8 ; 1.5936682745786834E9 ; 2.3915292984743755E10 ; 0.0
128 ; 1.2493512075597873E7 ; 2.01900866111835E8 ; 1.6061755749200413E9 ; 2.4117181640186184E10 ; 0.0
129 ; 1.2485671498124763E7 ; 2.0191304781506392E8 ; 1.618669086995639E9 ; 2.431908250629802E10 ; 0.0
130 ; 1.2472638507466748E7 ; 2.019252002861941E8 ; 1.631154758493764E9 ; 2.4520995554113083E10 ; 0.0
131 ; 1.245922414294792E7 ; 2.019373232609502E8 ; 1.6436273970012307E9 ; 2.4722920754399277E10 ; 0.0
132 ; 1.2447996627158098E7 ; 2.019494164766647E8 ; 1.6560866211441786E9 ; 2.492485807766023E10 ; 0.0
133 ; 1.2433989186914783E7 ; 2.0196147967224142E8 ; 1.6685346177713368E9 ; 2.5126807494136894E10 ; 0.0
134 ; 1.2416547164456038E7 ; 2.0197351258812094E8 ; 1.6809686069582515E9 ; 2.5328768973809135E10 ; 0.0
135 ; 1.2403204030566221E7 ; 2.0198551496624792E8 ; 1.6933851541227076E9 ; 2.5530742486397255E10 ; 0.0
136 ; 1.23880736052876E7 ; 2.0199748655004013E8 ; 1.7057883581532738E9 ; 2.5732728001363503E10 ; 0.0
137 ; 1.2372980108254846E7 ; 2.0200942708435908E8 ; 1.7181764317585614E9 ; 2.5934725487913544E10 ; 0.0
138 ; 1.2361905206916654E7 ; 2.020213363154822E8 ; 1.7305494118668163E9 ; 2.6136734914997902E10 ; 0.0
139 ; 1.2344684164933566E7 ; 2.020332139910765E8 ; 1.7429113170737329E9 ; 2.6338756251313385E10 ; 0.0
140 ; 1.2329208198970007E7 ; 2.0204505986017358E8 ; 1.7552560012386665E9 ; 2.6540789465304462E10 ; 0.0
141 ; 1.2311460399476018E7 ; 2.02056873673146E8 ; 1.7675852094376366E9 ; 2.6742834525164635E10 ; 0.0
142 ; 1.230187474225097E7 ; 2.0206865518168488E8 ; 1.7798966698371127E9 ; 2.694489139883778E10 ; 0.0
143 ; 1.228897886708176E7 ; 2.0208040413877857E8 ; 1.7921985445793636E9 ; 2.7146960054019466E10 ; 0.0
144 ; 1.227069927696502E7 ; 2.0209212029869255E8 ; 1.8044875234464452E9 ; 2.7349040458158245E10 ; 0.0
145 ; 1.2261606804182896E7 ; 2.0210380341695046E8 ; 1.8167582227234101E9 ; 2.7551132578456936E10 ; 0.0
146 ; 1.224972234811485E7 ; 2.0211545325031587E8 ; 1.8290198295275931E9 ; 2.7753236381873886E10 ; 0.0
147 ; 1.224138185594556E7 ; 2.0212706955677527E8 ; 1.841269551875708E9 ; 2.7955351835124203E10 ; 0.0
148 ; 1.2229156649672942E7 ; 2.021386520955218E8 ; 1.8535109337316537E9 ; 2.8157478904680977E10 ; 0.0
149 ; 1.2216988996577354E7 ; 2.0215020062693995E8 ; 1.8657400903813267E9 ; 2.8359617556776497E10 ; 0.0
150 ; 1.2210455831786098E7 ; 2.0216171491259095E8 ; 1.877957079377904E9 ; 2.856176775740344E10 ; 0.0
151 ; 1.2194963123848915E7 ; 2.0217319471519905E8 ; 1.89016753520969E9 ; 2.876392947231603E10 ; 0.0
152 ; 1.2183216282083774E7 ; 2.0218463979863843E8 ; 1.902362498333539E9 ; 2.8966102667031227E10 ; 0.0
153 ; 1.217302223187553E7 ; 2.0219604992792097E8 ; 1.9145457146156228E9 ; 2.9168287306829865E10 ; 0.0
154 ; 1.2167003680128457E7 ; 2.022074248691845E8 ; 1.9267187368474982E9 ; 2.9370483356757786E10 ; 0.0
155 ; 1.2154902193541426E7 ; 2.022187643896818E8 ; 1.9388857405276268E9 ; 2.957269078162697E10 ; 0.0
156 ; 1.214062552880009E7 ; 2.022300682577701E8 ; 1.9510406427211683E9 ; 2.977490954601665E10 ; 0.0
157 ; 1.2131753241478752E7 ; 2.022413362429014E8 ; 1.9631812682499683E9 ; 2.997713961427442E10 ; 0.0
158 ; 1.2119858570568608E7 ; 2.0225256811561304E8 ; 1.975313021491447E9 ; 3.0179380950517323E10 ; 0.0
159 ; 1.2106114460542556E7 ; 2.0226376364751884E8 ; 1.9874328800620155E9 ; 3.0381633518632935E10 ; 0.0
160 ; 1.2095074117773432E7 ; 2.0227492261130095E8 ; 1.999538994522558E9 ; 3.0583897282280453E10 ; 0.0
161 ; 1.208269255703549E7 ; 2.0228604478070202E8 ; 2.0116340686403315E9 ; 3.0786172204891754E10 ; 0.0
162 ; 1.2073095108170286E7 ; 2.0229712993051773E8 ; 2.023716761197367E9 ; 3.0988458249672455E10 ; 0.0
163 ; 1.2060304086186599E7 ; 2.0230817783658993E8 ; 2.0357898563055372E9 ; 3.1190755379602974E10 ; 0.0
164 ; 1.2048154347057683E7 ; 2.023191882758001E8 ; 2.0478501603917239E9 ; 3.1393063557439564E10 ; 0.0
165 ; 1.2037406177342363E7 ; 2.0233016102606323E8 ; 2.0598983147387815E9 ; 3.1595382745715363E10 ; 0.0
166 ; 1.2025537003713768E7 ; 2.0234109586632198E8 ; 2.0719357209161239E9 ; 3.1797712906741425E10 ; 0.0
167 ; 1.2013844734321646E7 ; 2.023519925765414E8 ; 2.0839612579198377E9 ; 3.2000054002607746E10 ; 0.0
168 ; 1.2002422851033676E7 ; 2.0236285093770367E8 ; 2.0959751026541593E9 ; 3.2202405995184288E10 ; 0.0
169 ; 1.1990708975946046E7 ; 2.0237367073180354E8 ; 2.107977525505193E9 ; 3.240476884612199E10 ; 0.0
170 ; 1.1976755595752694E7 ; 2.0238445174184385E8 ; 2.119968234481139E9 ; 3.2607142516853794E10 ; 0.0
171 ; 1.1968015739725366E7 ; 2.0239519375183126E8 ; 2.1319449900768917E9 ; 3.280952696859564E10 ; 0.0
172 ; 1.1949888244640118E7 ; 2.0240589654677257E8 ; 2.143913005816617E9 ; 3.301192216234747E10 ; 0.0
173 ; 1.1942191134883098E7 ; 2.02416559912671E8 ; 2.1558628940612574E9 ; 3.321432805889424E10 ; 0.0
174 ; 1.1933495585557476E7 ; 2.0242718363652292E8 ; 2.1678050851961403E9 ; 3.341674461880691E10 ; 0.0
175 ; 1.1927432451286267E7 ; 2.0243776750631467E8 ; 2.1797385807816978E9 ; 3.3619171802443436E10 ; 0.0
176 ; 1.1920860877037352E7 ; 2.0244831131101993E8 ; 2.191666013232984E9 ; 3.382160956994975E10 ; 0.0
177 ; 1.1915136478292877E7 ; 2.024588148405968E8 ; 2.2035868741100216E9 ; 3.402405788126077E10 ; 0.0
178 ; 1.1906479382257935E7 ; 2.024692778859856E8 ; 2.2155020105883145E9 ; 3.4226516696101364E10 ; 0.0
179 ; 1.1899724613758624E7 ; 2.024797002391066E8 ; 2.2274084899705725E9 ; 3.442898597398735E10 ; 0.0
180 ; 1.1893759448884187E7 ; 2.0249008169285792E8 ; 2.239308214584331E9 ; 3.4631465674226456E10 ; 0.0
181 ; 1.1888449344721498E7 ; 2.0250042204111388E8 ; 2.251201974033215E9 ; 3.483395575591931E10 ; 0.0
182 ; 1.188045999001324E7 ; 2.025107210787232E8 ; 2.2630904233779364E9 ; 3.503645617796043E10 ; 0.0
183 ; 1.1871846349001316E7 ; 2.0252097860150757E8 ; 2.2749708833679495E9 ; 3.523896689903915E10 ; 0.0
184 ; 1.1863652261728317E7 ; 2.0253119440626043E8 ; 2.286842729716951E9 ; 3.5441487877640656E10 ; 0.0
185 ; 1.185614691074329E7 ; 2.0254136829074565E8 ; 2.298706381978679E9 ; 3.564401907204691E10 ; 0.0
186 ; 1.1851275388992721E7 ; 2.0255150005369663E8 ; 2.3105625288894224E9 ; 3.584656044033766E10 ; 0.0
187 ; 1.1840843525888136E7 ; 2.025615894948155E8 ; 2.322413804278415E9 ; 3.604911194039136E10 ; 0.0
188 ; 1.1834357857787346E7 ; 2.025716364147722E8 ; 2.334254647804303E9 ; 3.625167352988617E10 ; 0.0
189 ; 1.182963224891638E7 ; 2.025816406152042E8 ; 2.3460890056620903E9 ; 3.645424516630094E10 ; 0.0
190 ; 1.1821202810783993E7 ; 2.025916018987156E8 ; 2.3579186379110065E9 ; 3.6656826806916145E10 ; 0.0
191 ; 1.1814243410085807E7 ; 2.0260152006887716E8 ; 2.3697398407217903E9 ; 3.685941840881486E10 ; 0.0
192 ; 1.180671031684887E7 ; 2.02611394930226E8 ; 2.381554084131876E9 ; 3.7062019928883736E10 ; 0.0
193 ; 1.1802240234657496E7 ; 2.026212262882653E8 ; 2.3933607944487247E9 ; 3.7264631323813965E10 ; 0.0
194 ; 1.179239608927833E7 ; 2.0263101394946444E8 ; 2.405163034683382E9 ; 3.7467252550102234E10 ; 0.0
195 ; 1.1784704807109745E7 ; 2.02640757721259E8 ; 2.4169554307726603E9 ; 3.76698835640517E10 ; 0.0
