CSV File for the City 3 on Day 247
1 - Minute m 
2 - Power Consumed at minute m 
3 - Power Produced at minute m 
4 - Energy Consumed since the beginning of the day 
5 - Energy Produced since the beginning of the day 
6 - Energy Lost since the beginning of the day on lines starting from the city
 
0 ; 463284.0499046485 ; 1.0534570262910202E8 ; 0.0 ; 0.0 ; 0.0
1 ; 465012.1189474876 ; 1.05498153178581E8 ; 463284.0499046485 ; 1.0534570262910202E8 ; 0.0
2 ; 468307.6654969361 ; 1.059594258020635E8 ; 928296.1688521361 ; 2.1084385580768302E8 ; 0.0
3 ; 470970.24997233105 ; 1.067295257237879E8 ; 1396603.8343490723 ; 3.168032816097465E8 ; 0.0
4 ; 473546.85680289235 ; 1.0780845776108706E8 ; 1867574.0843214034 ; 4.235328073335344E8 ; 0.0
5 ; 477930.4709993418 ; 1.0919622625598758E8 ; 2341120.941124296 ; 5.313412650946215E8 ; 0.0
6 ; 483872.6214847456 ; 1.1089283501003805E8 ; 2819051.4121236377 ; 6.405374913506091E8 ; 0.0
7 ; 491455.63745798205 ; 1.1289828722447366E8 ; 3302924.0336083835 ; 7.514303263606471E8 ; 0.0
8 ; 503674.99307193625 ; 1.1521258544779569E8 ; 3794379.6710663657 ; 8.643286135851207E8 ; 0.0
9 ; 520292.0921841791 ; 1.1783573153269774E8 ; 4298054.664138302 ; 9.795411990329163E8 ; 0.0
10 ; 544333.7882397244 ; 1.2076772660399997E8 ; 4818346.756322482 ; 1.097376930565614E9 ; 0.0
11 ; 586570.5063318397 ; 1.240085710388706E8 ; 5362680.544562206 ; 1.2181446571696138E9 ; 0.0
12 ; 655564.7939748592 ; 1.2755826446014139E8 ; 5949251.050894045 ; 1.3421532282084844E9 ; 0.0
13 ; 717472.4484554584 ; 1.3141680574299216E8 ; 6604815.844868904 ; 1.4697114926686258E9 ; 0.0
14 ; 723483.5513139026 ; 1.3558419303472942E8 ; 7322288.2933243625 ; 1.601128298411618E9 ; 0.0
15 ; 726664.9515740537 ; 1.4006042378685176E8 ; 8045771.844638265 ; 1.7367124914463475E9 ; 0.0
16 ; 729181.0579120154 ; 1.448454947981241E8 ; 8772436.79621232 ; 1.8767729152331991E9 ; 0.0
17 ; 732155.6067282814 ; 1.4993940226699778E8 ; 9501617.854124334 ; 2.0216184100313232E9 ; 0.0
18 ; 734994.3444676979 ; 1.553421418514462E8 ; 1.0233773460852616E7 ; 2.171557812298321E9 ; 0.0
19 ; 738873.7421644393 ; 1.6105370873413655E8 ; 1.0968767805320313E7 ; 2.326899954149767E9 ; 0.0
20 ; 742226.2252750639 ; 1.6707409769083038E8 ; 1.1707641547484752E7 ; 2.4879536628839035E9 ; 0.0
21 ; 746302.4687769581 ; 1.7340330315999278E8 ; 1.2449867772759816E7 ; 2.6550277605747337E9 ; 0.0
22 ; 748365.2692473787 ; 1.800413193117599E8 ; 1.3196170241536774E7 ; 2.8284310637347264E9 ; 0.0
23 ; 751823.1998752437 ; 1.8698814011465955E8 ; 1.3944535510784153E7 ; 3.0084723830464864E9 ; 0.0
24 ; 755052.3918192307 ; 1.9424375939876193E8 ; 1.4696358710659396E7 ; 3.195460523161146E9 ; 0.0
25 ; 757236.77263603 ; 2.0049621181242263E8 ; 1.5451411102478627E7 ; 3.389704282559908E9 ; 0.0
26 ; 761742.5388045298 ; 2.0049903891242567E8 ; 1.6208647875114657E7 ; 3.5902004943723307E9 ; 0.0
27 ; 764820.2681782463 ; 2.0050200373637852E8 ; 1.6970390413919188E7 ; 3.790699533284756E9 ; 0.0
28 ; 767107.450471141 ; 2.005051000910276E8 ; 1.7735210682097435E7 ; 3.991201537021135E9 ; 0.0
29 ; 769582.2530656905 ; 2.0050832188111347E8 ; 1.8502318132568575E7 ; 4.1917066371121626E9 ; 0.0
30 ; 772885.3377340073 ; 2.005116631392342E8 ; 1.9271900385634266E7 ; 4.392214958993276E9 ; 0.0
31 ; 777066.1466939053 ; 2.0051511805027446E8 ; 2.0044785723368272E7 ; 4.59272662213251E9 ; 0.0
32 ; 778877.1741674764 ; 2.005186809708061E8 ; 2.0821851870062176E7 ; 4.793241740182785E9 ; 0.0
33 ; 781523.2449582167 ; 2.0052234644392058E8 ; 2.1600729044229653E7 ; 4.993760421153591E9 ; 0.0
34 ; 785445.5558404328 ; 2.005261092099845E8 ; 2.238225228918787E7 ; 5.194282767597511E9 ; 0.0
35 ; 787625.3137526244 ; 2.005299642138141E8 ; 2.3167697845028304E7 ; 5.394808876807496E9 ; 0.0
36 ; 789288.152228849 ; 2.0053390660875455E8 ; 2.395532315878093E7 ; 5.59533884102131E9 ; 0.0
37 ; 792370.1592390012 ; 2.0053793175812453E8 ; 2.474461131100978E7 ; 5.795872747630064E9 ; 0.0
38 ; 796528.6971331827 ; 2.005420352344551E8 ; 2.553698147024878E7 ; 5.996410679388188E9 ; 0.0
39 ; 799053.0786955506 ; 2.005462128169125E8 ; 2.6333510167381965E7 ; 6.196952714622643E9 ; 0.0
40 ; 799105.3879765004 ; 2.005504604872554E8 ; 2.7132563246077515E7 ; 6.397498927439556E9 ; 0.0
41 ; 801704.3389128097 ; 2.0055477442463526E8 ; 2.7931668634054016E7 ; 6.598049387926811E9 ; 0.0
42 ; 803431.1895636535 ; 2.0055915099950942E8 ; 2.8733372972966827E7 ; 6.798604162351446E9 ; 0.0
43 ; 805568.9034337815 ; 2.0056358676689836E8 ; 2.953680416253048E7 ; 6.999163313350956E9 ; 0.0
44 ; 808320.7015673731 ; 2.0056807845918417E8 ; 3.0342373065964263E7 ; 7.199726900117854E9 ; 0.0
45 ; 807858.4583129584 ; 2.0057262297861573E8 ; 3.1150693767531637E7 ; 7.400294978577038E9 ; 0.0
46 ; 809754.35465095 ; 2.0057721738965794E8 ; 3.1958552225844596E7 ; 7.600867601555654E9 ; 0.0
47 ; 810601.6473267333 ; 2.0058185891129705E8 ; 3.2768306580495544E7 ; 7.801444818945312E9 ; 0.0
48 ; 814323.2552461214 ; 2.005865449093931E8 ; 3.3578908227822274E7 ; 8.002026677856608E9 ; 0.0
49 ; 814408.4292830334 ; 2.0059127288915133E8 ; 3.439323148306839E7 ; 8.202613222766002E9 ; 0.0
50 ; 814787.1037169138 ; 2.005960404877687E8 ; 3.520763991235142E7 ; 8.403204495655153E9 ; 0.0
51 ; 818344.3888132247 ; 2.0060084546729827E8 ; 3.602242701606834E7 ; 8.603800536142921E9 ; 0.0
52 ; 818256.5127156406 ; 2.0060568570776227E8 ; 3.684077140488157E7 ; 8.80440138161022E9 ; 0.0
53 ; 819666.4900632562 ; 2.0061055920053625E8 ; 3.7659027917597204E7 ; 9.005007067317982E9 ; 0.0
54 ; 821015.1055735273 ; 2.0061546404201812E8 ; 3.847869440766046E7 ; 9.205617626518518E9 ; 0.0
55 ; 821567.5265394037 ; 2.0062039842759034E8 ; 3.929970951323399E7 ; 9.406233090560537E9 ; 0.0
56 ; 820378.0970146348 ; 2.0062536064587757E8 ; 4.012127703977339E7 ; 9.606853488988127E9 ; 0.0
57 ; 822944.7113926405 ; 2.0063034907329926E8 ; 4.0941655136788025E7 ; 9.807478849634005E9 ; 0.0
58 ; 823912.7284077537 ; 2.0063536216891217E8 ; 4.176459984818067E7 ; 1.0008109198707304E10 ; 0.0
59 ; 824184.7490506249 ; 2.0064039846953672E8 ; 4.258851257658842E7 ; 1.0208744560876217E10 ; 0.0
60 ; 825837.5236225618 ; 2.0064545658515802E8 ; 4.341269732563905E7 ; 1.0409384959345753E10 ; 0.0
61 ; 827703.5646700108 ; 2.0065053519459212E8 ; 4.423853484926161E7 ; 1.061003041593091E10 ; 0.0
62 ; 826955.39341687 ; 2.0065563304140675E8 ; 4.506623841393162E7 ; 1.0810680951125502E10 ; 0.0
63 ; 828199.8334652246 ; 2.0066074893008476E8 ; 4.589319380734849E7 ; 1.1011336584166908E10 ; 0.0
64 ; 829518.174431155 ; 2.0066588172241908E8 ; 4.6721393640813716E7 ; 1.1211997333096992E10 ; 0.0
65 ; 829455.6902711218 ; 2.0067103033412716E8 ; 4.755091181524487E7 ; 1.1412663214819412E10 ; 0.0
66 ; 831223.5223035357 ; 2.0067619373167342E8 ; 4.838036750551599E7 ; 1.161333424515354E10 ; 0.0
67 ; 830927.2024046821 ; 2.0068137092928788E8 ; 4.921159102781953E7 ; 1.1814010438885214E10 ; 0.0
68 ; 832163.0750523941 ; 2.0068656098617026E8 ; 5.0042518230224214E7 ; 1.20146918098145E10 ; 0.0
69 ; 834662.092875562 ; 2.006917630038681E8 ; 5.087468130527661E7 ; 1.221537837080067E10 ; 0.0
70 ; 834080.0023259342 ; 2.0069697612381908E8 ; 5.170934339815217E7 ; 1.2416070133804539E10 ; 0.0
71 ; 835710.2025687054 ; 2.0070219952504703E8 ; 5.254342340047811E7 ; 1.2616767109928358E10 ; 0.0
72 ; 834923.0871929686 ; 2.0070743242200246E8 ; 5.337913360304681E7 ; 1.2817469309453405E10 ; 0.0
73 ; 836019.5256450594 ; 2.0071267406253842E8 ; 5.421405669023978E7 ; 1.3018176741875408E10 ; 0.0
74 ; 836177.5750241777 ; 2.0071792372601306E8 ; 5.505007621588484E7 ; 1.3218889415937946E10 ; 0.0
75 ; 837758.9123188775 ; 2.007231807215111E8 ; 5.588625379090902E7 ; 1.341960733966396E10 ; 0.0
76 ; 837747.4887966753 ; 2.0072844438617602E8 ; 5.67240127032279E7 ; 1.3620330520385471E10 ; 0.0
77 ; 837526.1560542617 ; 2.0073371408364648E8 ; 5.756176019202457E7 ; 1.3821058964771646E10 ; 0.0
78 ; 837191.8598474512 ; 2.0073898920258978E8 ; 5.839928634807883E7 ; 1.4021792678855293E10 ; 0.0
79 ; 838526.9161205023 ; 2.0074426915532592E8 ; 5.923647820792628E7 ; 1.4222531668057882E10 ; 0.0
80 ; 837845.3681626242 ; 2.0074955337653697E8 ; 6.007500512404678E7 ; 1.442327593721321E10 ; 0.0
81 ; 836956.4049372538 ; 2.007548413220554E8 ; 6.0912850492209405E7 ; 1.4624025490589746E10 ; 0.0
82 ; 837514.8247375039 ; 2.0076013246772698E8 ; 6.174980689714666E7 ; 1.4824780331911802E10 ; 0.0
83 ; 835928.9431098218 ; 2.007654263083425E8 ; 6.258732172188416E7 ; 1.502554046437953E10 ; 0.0
84 ; 837650.4499826356 ; 2.0077072235663474E8 ; 6.342325066499399E7 ; 1.5226305890687872E10 ; 0.0
85 ; 836528.1569311462 ; 2.0077602014233586E8 ; 6.426090111497662E7 ; 1.5427076613044506E10 ; 0.0
86 ; 836450.3013382321 ; 2.007813192112913E8 ; 6.509742927190777E7 ; 1.5627852633186842E10 ; 0.0
87 ; 835657.9115527038 ; 2.0078661912462673E8 ; 6.5933879573246E7 ; 1.5828633952398132E10 ; 0.0
88 ; 834959.8539046024 ; 2.0079191945796454E8 ; 6.676953748479871E7 ; 1.6029420571522758E10 ; 0.0
89 ; 834590.0282295623 ; 2.007972198006866E8 ; 6.76044973387033E7 ; 1.6230212490980722E10 ; 0.0
90 ; 834432.617605229 ; 2.008025197552403E8 ; 6.843908736693287E7 ; 1.6431009710781408E10 ; 0.0
91 ; 835083.7578530425 ; 2.0080781893648526E8 ; 6.92735199845381E7 ; 1.6631812230536648E10 ; 0.0
92 ; 833045.8529715964 ; 2.0081311697107798E8 ; 7.010860374239114E7 ; 1.6832620049473133E10 ; 0.0
93 ; 832294.0562112959 ; 2.0081841349689186E8 ; 7.094164959536274E7 ; 1.7033433166444212E10 ; 0.0
94 ; 832596.5837330212 ; 2.0082370816247067E8 ; 7.177394365157403E7 ; 1.7234251579941105E10 ; 0.0
95 ; 831715.4477170671 ; 2.008290006265133E8 ; 7.260654023530705E7 ; 1.7435075288103577E10 ; 0.0
96 ; 830603.956477568 ; 2.0083429055738735E8 ; 7.343825568302412E7 ; 1.763590428873009E10 ; 0.0
97 ; 830777.0406621118 ; 2.008395776326706E8 ; 7.426885963950169E7 ; 1.783673857928748E10 ; 0.0
98 ; 829754.9153969695 ; 2.0084486153871784E8 ; 7.50996366801638E7 ; 1.803757815692015E10 ; 0.0
99 ; 829152.7774635813 ; 2.008501419702518E8 ; 7.592939159556077E7 ; 1.823842301845887E10 ; 0.0
100 ; 828578.5837062536 ; 2.0085541862997702E8 ; 7.675854437302436E7 ; 1.8439273160429123E10 ; 0.0
101 ; 827662.8188476505 ; 2.0086069122821444E8 ; 7.758712295673062E7 ; 1.86401285790591E10 ; 0.0
102 ; 826634.7157638252 ; 2.0086595948255643E8 ; 7.841478577557828E7 ; 1.8840989270287315E10 ; 0.0
103 ; 826355.9695374129 ; 2.0087122311754024E8 ; 7.92414204913421E7 ; 1.904185522976987E10 ; 0.0
104 ; 826482.227509028 ; 2.0087648186433902E8 ; 8.00677764608795E7 ; 1.924272645288741E10 ; 0.0
105 ; 824803.9972747286 ; 2.008817354604697E8 ; 8.089425868838853E7 ; 1.9443602934751747E10 ; 0.0
106 ; 824230.8637888373 ; 2.00886983649516E8 ; 8.171906268566325E7 ; 1.9644484670212215E10 ; 0.0
107 ; 823221.6505103142 ; 2.0089222618086636E8 ; 8.25432935494521E7 ; 1.9845371653861732E10 ; 0.0
108 ; 821392.3237364412 ; 2.008974628094657E8 ; 8.33665151999624E7 ; 2.00462638800426E10 ; 0.0
109 ; 822337.0909315419 ; 2.0090269329557982E8 ; 8.418790752369885E7 ; 2.0247161342852066E10 ; 0.0
110 ; 820168.0660576151 ; 2.0090791740457228E8 ; 8.501024461463039E7 ; 2.0448064036147644E10 ; 0.0
111 ; 819551.5700962396 ; 2.0091313490669265E8 ; 8.583041268068801E7 ; 2.0648971953552216E10 ; 0.0
112 ; 819608.04881402 ; 2.0091834557687584E8 ; 8.664996425078425E7 ; 2.0849885088458908E10 ; 0.0
113 ; 818761.634155036 ; 2.0092354919455123E8 ; 8.746957229959826E7 ; 2.1050803434035786E10 ; 0.0
114 ; 818125.9308045598 ; 2.0092874554346183E8 ; 8.82883339337533E7 ; 2.1251726983230335E10 ; 0.0
115 ; 817331.381721068 ; 2.0093393441149226E8 ; 8.910645986455786E7 ; 2.1452655728773796E10 ; 0.0
116 ; 816837.9618237539 ; 2.009391155905056E8 ; 8.992379124627893E7 ; 2.1653589663185287E10 ; 0.0
117 ; 814911.6333607998 ; 2.00944288876188E8 ; 9.074062920810267E7 ; 2.1854528778775795E10 ; 0.0
118 ; 815797.7097508246 ; 2.009494540679013E8 ; 9.155554084146348E7 ; 2.205547306765198E10 ; 0.0
119 ; 814061.9474108414 ; 2.0095461096854252E8 ; 9.237133855121431E7 ; 2.2256422521719883E10 ; 0.0
120 ; 812272.786574721 ; 2.0095975938441053E8 ; 9.318540049862514E7 ; 2.2457377132688427E10 ; 0.0
121 ; 810802.7188261645 ; 2.0096489912507892E8 ; 9.399767328519987E7 ; 2.2658336892072838E10 ; 0.0
122 ; 808377.3266300794 ; 2.0097003000327522E8 ; 9.480847600402603E7 ; 2.2859301791197918E10 ; 0.0
123 ; 808113.9676770596 ; 2.0097515183476558E8 ; 9.561685333065611E7 ; 2.3060271821201195E10 ; 0.0
124 ; 807484.6997020385 ; 2.0098026443824533E8 ; 9.642496729833317E7 ; 2.326124697303596E10 ; 0.0
125 ; 806830.5325347132 ; 2.0098536763523436E8 ; 9.72324519980352E7 ; 2.3462227237474205E10 ; 0.0
126 ; 806048.9749701474 ; 2.0099046124997768E8 ; 9.803928253056993E7 ; 2.366321260510944E10 ; 0.0
127 ; 805572.2560917991 ; 2.009955451093504E8 ; 9.884533150554007E7 ; 2.3864203066359417E10 ; 0.0
128 ; 803296.2447745245 ; 2.0100061904276735E8 ; 9.965090376163188E7 ; 2.406519861146877E10 ; 0.0
129 ; 801647.2533741968 ; 2.0100568288209668E8 ; 1.004542000064064E8 ; 2.4266199230511536E10 ; 0.0
130 ; 799232.2023742357 ; 2.0101073646157756E8 ; 1.012558472597806E8 ; 2.446720491339363E10 ; 0.0
131 ; 799362.5453788876 ; 2.010157796177416E8 ; 1.0205507946215484E8 ; 2.466821564985521E10 ; 0.0
132 ; 795033.8656109227 ; 2.0102081218933785E8 ; 1.0285444200753373E8 ; 2.486923142947295E10 ; 0.0
133 ; 795822.7142486777 ; 2.0102583401726106E8 ; 1.0364947587314466E8 ; 2.507025224166229E10 ; 0.0
134 ; 793003.720911355 ; 2.0103084494448343E8 ; 1.0444529858739333E8 ; 2.527127807567955E10 ; 0.0
135 ; 791593.8936892304 ; 2.010358448159891E8 ; 1.0523830230830468E8 ; 2.5472308920624035E10 ; 0.0
136 ; 789413.4679462786 ; 2.010408334787119E8 ; 1.0602989620199391E8 ; 2.5673344765440025E10 ; 0.0
137 ; 786390.5903169558 ; 2.0104581078147548E8 ; 1.0681930966994019E8 ; 2.5874385598918736E10 ; 0.0
138 ; 783294.194574058 ; 2.0105077657493636E8 ; 1.0760570026025714E8 ; 2.607543140970021E10 ; 0.0
139 ; 781627.1301589563 ; 2.010557307115293E8 ; 1.083889944548312E8 ; 2.6276482186275146E10 ; 0.0
140 ; 780269.5224492181 ; 2.0106067304541528E8 ; 1.0917062158499016E8 ; 2.6477537916986675E10 ; 0.0
141 ; 777549.3541919314 ; 2.0106560343243128E8 ; 1.0995089110743938E8 ; 2.667859859003209E10 ; 0.0
142 ; 775352.9517317698 ; 2.0107052173004285E8 ; 1.1072844046163131E8 ; 2.687966419346452E10 ; 0.0
143 ; 774424.3346283482 ; 2.010754277972981E8 ; 1.1150379341336308E8 ; 2.708073471519456E10 ; 0.0
144 ; 771450.0150110704 ; 2.0108032149478415E8 ; 1.1227821774799143E8 ; 2.728181014299186E10 ; 0.0
145 ; 770821.5499147439 ; 2.010852026845851E8 ; 1.130496677630025E8 ; 2.7482890464486645E10 ; 0.0
146 ; 768479.3510028577 ; 2.0109007123024192E8 ; 1.1382048931291725E8 ; 2.768397566717123E10 ; 0.0
147 ; 768218.8980870587 ; 2.010949269967141E8 ; 1.145889686639201E8 ; 2.7885065738401474E10 ; 0.0
148 ; 767688.7183726662 ; 2.0109976985034263E8 ; 1.1535718756200716E8 ; 2.808616066539819E10 ; 0.0
149 ; 765397.9044454559 ; 2.0110459965881494E8 ; 1.1612487628037983E8 ; 2.828726043524853E10 ; 0.0
150 ; 764683.3306894047 ; 2.0110941629113087E8 ; 1.1689027418482529E8 ; 2.8488365034907345E10 ; 0.0
151 ; 762003.3979239133 ; 2.011142196175704E8 ; 1.1765495751551469E8 ; 2.8689474451198475E10 ; 0.0
152 ; 760860.8850246447 ; 2.0111900950966245E8 ; 1.184169609134386E8 ; 2.8890588670816044E10 ; 0.0
153 ; 760916.2740816267 ; 2.011237858401551E8 ; 1.1917782179846326E8 ; 2.9091707680325706E10 ; 0.0
154 ; 758023.3702704413 ; 2.0112854848298708E8 ; 1.1993873807254489E8 ; 2.9292831466165863E10 ; 0.0
155 ; 757235.7933679294 ; 2.0113329731326023E8 ; 1.2069676144281533E8 ; 2.949396001464885E10 ; 0.0
156 ; 756694.6589005482 ; 2.0113803220721325E8 ; 1.2145399723618326E8 ; 2.969509331196211E10 ; 0.0
157 ; 754795.1583079305 ; 2.0114275304219642E8 ; 1.222106918950838E8 ; 2.9896231344169323E10 ; 0.0
158 ; 755167.8093851036 ; 2.0114745969664738E8 ; 1.2296548705339172E8 ; 3.009737409721152E10 ; 0.0
159 ; 753394.6033193808 ; 2.0115215205006787E8 ; 1.2372065486277683E8 ; 3.029852155690817E10 ; 0.0
160 ; 753457.840438232 ; 2.0115682998300138E8 ; 1.2447404946609621E8 ; 3.0499673708958237E10 ; 0.0
161 ; 750026.9553254417 ; 2.0116149337701178E8 ; 1.2522750730653444E8 ; 3.070083053894124E10 ; 0.0
162 ; 749543.3208764794 ; 2.0116614211466265E8 ; 1.2597753426185988E8 ; 3.090199203231825E10 ; 0.0
163 ; 748435.2800015204 ; 2.011707760794975E8 ; 1.2672707758273636E8 ; 3.110315817443291E10 ; 0.0
164 ; 748701.9022917321 ; 2.0117539515602085E8 ; 1.2747551286273788E8 ; 3.130432895051241E10 ; 0.0
165 ; 746360.3698951647 ; 2.0117999922967997E8 ; 1.2822421476502961E8 ; 3.150550434566843E10 ; 0.0
166 ; 745296.93179945 ; 2.0118458818684733E8 ; 1.2897057513492477E8 ; 3.170668434489811E10 ; 0.0
167 ; 743946.3488232853 ; 2.011891619148037E8 ; 1.2971587206672423E8 ; 3.1907868933084957E10 ; 0.0
168 ; 742297.6618635897 ; 2.0119372030172217E8 ; 1.304598184155475E8 ; 3.210905809499976E10 ; 0.0
169 ; 741720.311957038 ; 2.0119826323665228E8 ; 1.312021160774111E8 ; 3.2310251815301483E10 ; 0.0
170 ; 739644.0386511418 ; 2.0120279060950536E8 ; 1.3194383638936813E8 ; 3.2511450078538136E10 ; 0.0
171 ; 738370.7614460511 ; 2.0120730231104004E8 ; 1.3268348042801927E8 ; 3.271265286914764E10 ; 0.0
172 ; 736485.4201832858 ; 2.012117982328484E8 ; 1.3342185118946531E8 ; 3.291386017145868E10 ; 0.0
173 ; 737459.8623560356 ; 2.012162782673428E8 ; 1.341583366096486E8 ; 3.311507196969153E10 ; 0.0
174 ; 734581.6419410151 ; 2.0122074230774295E8 ; 1.3489579647200462E8 ; 3.331628824795887E10 ; 0.0
175 ; 732292.5945488879 ; 2.012251902480638E8 ; 1.3563037811394563E8 ; 3.3517508990266613E10 ; 0.0
176 ; 733356.3370544462 ; 2.0122962198310366E8 ; 1.363626707084945E8 ; 3.3718734180514675E10 ; 0.0
177 ; 732739.6856159184 ; 2.0123403740843278E8 ; 1.3709602704554895E8 ; 3.391996380249778E10 ; 0.0
178 ; 730996.0500884823 ; 2.0123843642038256E8 ; 1.3782876673116487E8 ; 3.412119783990621E10 ; 0.0
179 ; 728794.5825482219 ; 2.0124281891603494E8 ; 1.3855976278125337E8 ; 3.4322436276326595E10 ; 0.0
180 ; 728571.6007362657 ; 2.0124718479321235E8 ; 1.392885573638016E8 ; 3.452367909524263E10 ; 0.0
181 ; 728562.4917763047 ; 2.01251533950468E8 ; 1.4001712896453786E8 ; 3.472492628003584E10 ; 0.0
182 ; 728467.6898177671 ; 2.0125586628707644E8 ; 1.4074569145631418E8 ; 3.492617781398631E10 ; 0.0
183 ; 728072.701949586 ; 2.0126018170302474E8 ; 1.4147415914613193E8 ; 3.512743368027339E10 ; 0.0
184 ; 726119.2130681204 ; 2.0126448009900364E8 ; 1.4220223184808153E8 ; 3.532869386197642E10 ; 0.0
185 ; 725850.3412603991 ; 2.0126876137639946E8 ; 1.4292835106114966E8 ; 3.5529958342075424E10 ; 0.0
186 ; 724180.712419099 ; 2.0127302543728578E8 ; 1.4365420140241006E8 ; 3.573122710345182E10 ; 0.0
187 ; 723264.9736345932 ; 2.0127727218441612E8 ; 1.4437838211482915E8 ; 3.593250012888911E10 ; 0.0
188 ; 721072.0709404631 ; 2.0128150152121615E8 ; 1.4510164708846375E8 ; 3.6133777401073524E10 ; 0.0
189 ; 721520.1201323743 ; 2.0128571335177687E8 ; 1.4582271915940422E8 ; 3.633505890259474E10 ; 0.0
190 ; 720072.8850858675 ; 2.0128990758084756E8 ; 1.465442392795366E8 ; 3.653634461594652E10 ; 0.0
191 ; 719449.4276157285 ; 2.012940841138293E8 ; 1.472643121646225E8 ; 3.673763452352737E10 ; 0.0
192 ; 717921.5194358145 ; 2.0129824285676852E8 ; 1.4798376159223822E8 ; 3.69389286076412E10 ; 0.0
193 ; 717699.6561546875 ; 2.0130238371635094E8 ; 1.4870168311167404E8 ; 3.714022685049796E10 ; 0.0
194 ; 716920.5186497062 ; 2.0130650659989578E8 ; 1.4941938276782873E8 ; 3.734152923421432E10 ; 0.0
195 ; 714810.132226803 ; 2.0131061141534993E8 ; 1.5013630328647843E8 ; 3.754283574081422E10 ; 0.0
196 ; 714683.7594469171 ; 2.013146980712827E8 ; 1.5085111341870522E8 ; 3.774414635222957E10 ; 0.0
197 ; 714355.8665181852 ; 2.013187664768805E8 ; 1.5156579717815214E8 ; 3.794546105030085E10 ; 0.0
198 ; 713128.0099983908 ; 2.0132281654194173E8 ; 1.5228015304467034E8 ; 3.814677981677773E10 ; 0.0
199 ; 711200.5615534361 ; 2.013268481768722E8 ; 1.5299328105466872E8 ; 3.834810263331967E10 ; 0.0
200 ; 712467.0574100887 ; 2.0133086129268017E8 ; 1.5370448161622217E8 ; 3.8549429481496544E10 ; 0.0
201 ; 711183.4765584081 ; 2.0051370045824286E8 ; 1.5441694867363226E8 ; 3.875076034278922E10 ; 0.0
