CSV File for the City 4 on Day 171
1 - Minute m 
2 - Power Consumed at minute m 
3 - Power Produced at minute m 
4 - Energy Consumed since the beginning of the day 
5 - Energy Produced since the beginning of the day 
6 - Energy Lost since the beginning of the day on lines starting from the city
 
0 ; 2213210.9450310287 ; 1.0612668803204826E8 ; 0.0 ; 0.0 ; 0.0
1 ; 2219589.09483266 ; 1.0627719624486631E8 ; 2213210.9450310287 ; 1.0612668803204826E8 ; 0.0
2 ; 2223815.803910175 ; 1.0673673413246158E8 ; 4432800.039863689 ; 2.1240388427691457E8 ; 0.0
3 ; 2230351.3024419583 ; 1.07505306128057E8 ; 6656615.843773864 ; 3.1914061840937614E8 ; 0.0
4 ; 2240026.4866353115 ; 1.0858291620975697E8 ; 8886967.146215823 ; 4.2664592453743315E8 ; 0.0
5 ; 2254211.278075098 ; 1.099695678767755E8 ; 1.1126993632851135E7 ; 5.352288407471901E8 ; 0.0
6 ; 2266036.6219998957 ; 1.1166526412809238E8 ; 1.3381204910926234E7 ; 6.451984086239656E8 ; 0.0
7 ; 2286840.670127799 ; 1.1367000744383508E8 ; 1.564724153292613E7 ; 7.56863672752058E8 ; 0.0
8 ; 2317795.229520771 ; 1.1598379976965523E8 ; 1.793408220305393E7 ; 8.70533680195893E8 ; 0.0
9 ; 2366613.886719326 ; 1.1860664250432622E8 ; 2.02518774325747E7 ; 9.865174799655483E8 ; 0.0
10 ; 2444888.730247733 ; 1.2153853649074894E8 ; 2.2618491319294028E7 ; 1.1051241224698744E9 ; 0.0
11 ; 2566535.119785858 ; 1.2477948201049909E8 ; 2.506338004954176E7 ; 1.2266626589606233E9 ; 0.0
12 ; 2765260.5733321044 ; 1.2832947878200093E8 ; 2.7629915169327617E7 ; 1.3514421409711223E9 ; 0.0
13 ; 2950570.616513596 ; 1.3218852596235359E8 ; 3.039517574265972E7 ; 1.4797716197531233E9 ; 0.0
14 ; 2975225.694987809 ; 1.3635662215278375E8 ; 3.3345746359173317E7 ; 1.611960145715477E9 ; 0.0
15 ; 2979661.3815665618 ; 1.4083376540763968E8 ; 3.6320972054161124E7 ; 1.7483167678682609E9 ; 0.0
16 ; 2986673.659223225 ; 1.4561995324679402E8 ; 3.9300633435727686E7 ; 1.8891505332759006E9 ; 0.0
17 ; 2997182.361237513 ; 1.5071518267126688E8 ; 4.2287307094950914E7 ; 2.0347704865226946E9 ; 0.0
18 ; 3006036.156752215 ; 1.561194501818443E8 ; 4.5284489456188425E7 ; 2.1854856691939616E9 ; 0.0
19 ; 3012595.7697685566 ; 1.6183275180042186E8 ; 4.829052561294064E7 ; 2.341605119375806E9 ; 0.0
20 ; 3022625.041132333 ; 1.678550830937766E8 ; 5.13031213827092E7 ; 2.5034378711762276E9 ; 0.0
21 ; 3028395.1145081487 ; 1.7418643919944426E8 ; 5.432574642384153E7 ; 2.6712929542700043E9 ; 0.0
22 ; 3036414.009635969 ; 1.808268148533619E8 ; 5.735414153834968E7 ; 2.8454793934694486E9 ; 0.0
23 ; 3044383.9304096657 ; 1.8777620441892886E8 ; 6.039055554798565E7 ; 3.0263062083228106E9 ; 0.0
24 ; 3051375.8202918717 ; 1.9503460191713417E8 ; 6.343493947839531E7 ; 3.2140824127417393E9 ; 0.0
25 ; 3057476.9220558535 ; 2.0129004195559117E8 ; 6.648631529868718E7 ; 3.4091170146588736E9 ; 0.0
26 ; 3067819.1718726098 ; 2.0129606579667294E8 ; 6.954379222074303E7 ; 3.6104070566144648E9 ; 0.0
27 ; 3073745.6727378326 ; 2.0130243591372794E8 ; 7.261161139261565E7 ; 3.8117031224111376E9 ; 0.0
28 ; 3082593.0308151483 ; 2.013091452689426E8 ; 7.568535706535348E7 ; 4.0130055583248653E9 ; 0.0
29 ; 3088115.0938801374 ; 2.013161866371836E8 ; 7.876795009616864E7 ; 4.214314703593808E9 ; 0.0
30 ; 3096767.8012232343 ; 2.0132355263586047E8 ; 8.185606519004877E7 ; 4.415630890230991E9 ; 0.0
31 ; 3102310.311290383 ; 2.0133123575384003E8 ; 8.4952832991272E7 ; 4.616954442866852E9 ; 0.0
32 ; 3108442.432493437 ; 2.013392283792309E8 ; 8.805514330256239E7 ; 4.818285678620692E9 ; 0.0
33 ; 3118563.6243311577 ; 2.0134752282588556E8 ; 9.116358573505582E7 ; 5.019624906999923E9 ; 0.0
34 ; 3122945.1160565605 ; 2.0135611135849878E8 ; 9.428214935938698E7 ; 5.220972429825809E9 ; 0.0
35 ; 3131258.5465599233 ; 2.0136498621620822E8 ; 9.740509447544354E7 ; 5.422328541184307E9 ; 0.0
36 ; 3138231.92414216 ; 2.01374139634632E8 ; 1.0053635302200347E8 ; 5.623693527400516E9 ; 0.0
37 ; 3143183.285041625 ; 2.0138356386630183E8 ; 1.0367458494614564E8 ; 5.825067667035148E9 ; 0.0
38 ; 3147710.3692058977 ; 2.013932511994736E8 ; 1.0681776823118727E8 ; 6.026451230901449E9 ; 0.0
39 ; 3153562.364434543 ; 2.014031939753174E8 ; 1.0996547860039316E8 ; 6.227844482100923E9 ; 0.0
40 ; 3159342.693407618 ; 2.0141338460350722E8 ; 1.131190409648277E8 ; 6.42924767607624E9 ; 0.0
41 ; 3163257.9854097124 ; 2.0142381557624593E8 ; 1.1627838365823533E8 ; 6.630661060679747E9 ; 0.0
42 ; 3170288.51579083 ; 2.0143447948077288E8 ; 1.1944164164364503E8 ; 6.832084876255993E9 ; 0.0
43 ; 3172345.1551023433 ; 2.014453690104137E8 ; 1.2261193015943587E8 ; 7.033519355736766E9 ; 0.0
44 ; 3175909.5506301154 ; 2.0145647697423884E8 ; 1.2578427531453821E8 ; 7.23496472474718E9 ; 0.0
45 ; 3181931.170351325 ; 2.0146779630540416E8 ; 1.2896018486516833E8 ; 7.436421201721418E9 ; 0.0
46 ; 3185267.2463036594 ; 2.0147932006825125E8 ; 1.3214211603551966E8 ; 7.637888998026822E9 ; 0.0
47 ; 3189266.708270057 ; 2.0149104146424794E8 ; 1.353273832818233E8 ; 7.839368318095074E9 ; 0.0
48 ; 3188931.65830903 ; 2.0150295383685064E8 ; 1.3851664999009335E8 ; 8.040859359559321E9 ; 0.0
49 ; 3192309.1063343543 ; 2.0151505067537075E8 ; 1.417055816484024E8 ; 8.242362313396172E9 ; 0.0
50 ; 3195027.4493277175 ; 2.0152732561792576E8 ; 1.4489789075473675E8 ; 8.443877364071543E9 ; 0.0
51 ; 3195810.564013759 ; 2.0153977245355442E8 ; 1.4809291820406446E8 ; 8.645404689689468E9 ; 0.0
52 ; 3198746.8197644064 ; 2.0155238512357235E8 ; 1.512887287680782E8 ; 8.846944462143023E9 ; 0.0
53 ; 3197477.954139007 ; 2.0156515772224236E8 ; 1.544874755878426E8 ; 9.048496847266594E9 ; 0.0
54 ; 3201115.465426195 ; 2.0157808449682873E8 ; 1.576849535419816E8 ; 9.250062004988836E9 ; 0.0
55 ; 3204425.9212324987 ; 2.0159115984710273E8 ; 1.608860690074078E8 ; 9.451640089485664E9 ; 0.0
56 ; 3201129.278824454 ; 2.0160437832436106E8 ; 1.640904949286403E8 ; 9.653231249332767E9 ; 0.0
57 ; 3203276.5401044358 ; 2.0161773463001618E8 ; 1.6729162420746475E8 ; 9.85483562765713E9 ; 0.0
58 ; 3206677.3434644327 ; 2.0163122361381245E8 ; 1.704949007475692E8 ; 1.0056453362287146E10 ; 0.0
59 ; 3209191.5734936437 ; 2.0164484027171835E8 ; 1.7370157809103364E8 ; 1.0258084585900959E10 ; 0.0
60 ; 3209327.098936473 ; 2.0165857974354112E8 ; 1.7691076966452727E8 ; 1.0459729426172678E10 ; 0.0
61 ; 3211936.304197331 ; 2.01672437310306E8 ; 1.8012009676346374E8 ; 1.066138800591622E10 ; 0.0
62 ; 3214335.054497366 ; 2.0168640839143893E8 ; 1.8333203306766108E8 ; 1.0863060443226526E10 ; 0.0
63 ; 3215938.0099624423 ; 2.0170048854178748E8 ; 1.8654636812215844E8 ; 1.1064746851617966E10 ; 0.0
64 ; 3212553.7140193824 ; 2.0171467344851196E8 ; 1.8976230613212088E8 ; 1.1266447340159754E10 ; 0.0
65 ; 3216105.736413501 ; 2.0172895892787522E8 ; 1.9297485984614027E8 ; 1.1468162013608265E10 ; 0.0
66 ; 3215041.9643023694 ; 2.0174334092195663E8 ; 1.9619096558255377E8 ; 1.166989097253614E10 ; 0.0
67 ; 3219173.681321927 ; 2.0175781549531305E8 ; 1.9940600754685614E8 ; 1.1871634313458097E10 ; 0.0
68 ; 3219339.4101485093 ; 2.0177237883160734E8 ; 2.0262518122817805E8 ; 1.2073392128953411E10 ; 0.0
69 ; 3221435.6300568064 ; 2.0178702723022184E8 ; 2.0584452063832656E8 ; 1.2275164507785019E10 ; 0.0
70 ; 3220470.794679727 ; 2.01801757102873E8 ; 2.0906595626838335E8 ; 1.2476951535015242E10 ; 0.0
71 ; 3221854.5107553857 ; 2.018165649702405E8 ; 2.1228642706306309E8 ; 1.2678753292118114E10 ; 0.0
72 ; 3220619.00526163 ; 2.0183144745862335E8 ; 2.1550828157381848E8 ; 1.2880569857088354E10 ; 0.0
73 ; 3221366.8007282726 ; 2.0184640129663253E8 ; 2.187289005790801E8 ; 1.3082401304546978E10 ; 0.0
74 ; 3221623.009723517 ; 2.0186142331192973E8 ; 2.2195026737980837E8 ; 1.328424770584361E10 ; 0.0
75 ; 3219931.241503329 ; 2.0187651042801908E8 ; 2.2517189038953188E8 ; 1.348610912915554E10 ; 0.0
76 ; 3224467.6846783413 ; 2.0189165966109836E8 ; 2.283918216310352E8 ; 1.3687985639583559E10 ; 0.0
77 ; 3225710.6425622567 ; 2.0190686811697498E8 ; 2.3161628931571355E8 ; 1.3889877299244658E10 ; 0.0
78 ; 3221900.659185579 ; 2.0192213298805058E8 ; 2.3484199995827582E8 ; 1.4091784167361633E10 ; 0.0
79 ; 3217713.5042940686 ; 2.01937451550378E8 ; 2.380639006174614E8 ; 1.4293706300349684E10 ; 0.0
80 ; 3218073.2903243294 ; 2.0195282116079277E8 ; 2.4128161412175548E8 ; 1.4495643751900063E10 ; 0.0
81 ; 3213795.295267286 ; 2.019682392541215E8 ; 2.444996874120798E8 ; 1.4697596573060856E10 ; 0.0
82 ; 3214315.4932876993 ; 2.01983703340468E8 ; 2.477134827073471E8 ; 1.4899564812314978E10 ; 0.0
83 ; 3209392.520372485 ; 2.0199921100257814E8 ; 2.509277982006348E8 ; 1.5101548515655445E10 ; 0.0
84 ; 3209121.643337085 ; 2.020147598932839E8 ; 2.541371907210073E8 ; 1.5303547726658024E10 ; 0.0
85 ; 3203961.7289278116 ; 2.020303477330264E8 ; 2.5734631236434436E8 ; 1.5505562486551308E10 ; 0.0
86 ; 3203961.9419540237 ; 2.020459723074571E8 ; 2.6055027409327218E8 ; 1.5707592834284334E10 ; 0.0
87 ; 3200670.386256353 ; 2.020616314651176E8 ; 2.637542360352262E8 ; 1.5909638806591791E10 ; 0.0
88 ; 3200978.7593877483 ; 2.0207732311519563E8 ; 2.6695490642148256E8 ; 1.611170043805691E10 ; 0.0
89 ; 3195422.582092587 ; 2.0209304522535726E8 ; 2.701558851808703E8 ; 1.6313777761172106E10 ; 0.0
90 ; 3191706.3364596236 ; 2.0210879581965333E8 ; 2.733513077629629E8 ; 1.6515870806397463E10 ; 0.0
91 ; 3188326.916899357 ; 2.0212457297649872E8 ; 2.765430140994225E8 ; 1.6717979602217115E10 ; 0.0
92 ; 3186395.0996102025 ; 2.0214037482672325E8 ; 2.797313410163219E8 ; 1.6920104175193615E10 ; 0.0
93 ; 3183582.122345296 ; 2.0215619955169195E8 ; 2.829177361159321E8 ; 1.7122244550020338E10 ; 0.0
94 ; 3181089.5297479653 ; 2.0217204538149312E8 ; 2.861013182382774E8 ; 1.732440074957203E10 ; 0.0
95 ; 3179041.0576622155 ; 2.0218791059319267E8 ; 2.8928240776802534E8 ; 1.752657279495352E10 ; 0.0
96 ; 3176452.2789386204 ; 2.0220379350915244E8 ; 2.924614488256875E8 ; 1.7728760705546715E10 ; 0.0
97 ; 3171628.228262809 ; 2.0221969249541077E8 ; 2.956379011046261E8 ; 1.7930964499055866E10 ; 0.0
98 ; 3168085.8527971245 ; 2.0223560596012357E8 ; 2.988095293328889E8 ; 1.8133184191551277E10 ; 0.0
99 ; 3168728.903328519 ; 2.022515323520637E8 ; 3.0197761518568605E8 ; 1.8335419797511402E10 ; 0.0
100 ; 3165132.936473673 ; 2.0226747015917695E8 ; 3.051463440890146E8 ; 1.8537671329863464E10 ; 0.0
101 ; 3159990.8235632866 ; 2.022834179071929E8 ; 3.0831147702548826E8 ; 1.873993880002264E10 ; 0.0
102 ; 3156607.130060678 ; 2.0229937415828827E8 ; 3.1147146784905154E8 ; 1.8942222217929832E10 ; 0.0
103 ; 3154146.3972183843 ; 2.0231533750980145E8 ; 3.146280749791122E8 ; 1.914452159208812E10 ; 0.0
104 ; 3148629.753020948 ; 2.0233130659299633E8 ; 3.177822213763306E8 ; 1.934683692959792E10 ; 0.0
105 ; 3147133.7255753987 ; 2.0234728007187325E8 ; 3.2093085112935156E8 ; 1.9549168236190914E10 ; 0.0
106 ; 3143239.250174563 ; 2.0236325664202607E8 ; 3.2407798485492694E8 ; 1.9751515516262787E10 ; 0.0
107 ; 3137437.811210061 ; 2.0237923502954286E8 ; 3.272212241051015E8 ; 1.995387877290481E10 ; 0.0
108 ; 3136282.882622734 ; 2.023952139899493E8 ; 3.3035866191631156E8 ; 2.0156258007934353E10 ; 0.0
109 ; 3133527.3999972013 ; 2.0241119230719253E8 ; 3.334949447989343E8 ; 2.03586532219243E10 ; 0.0
110 ; 3128118.5789254736 ; 2.024271687926649E8 ; 3.3662847219893146E8 ; 2.0561064414231495E10 ; 0.0
111 ; 3124672.1424585897 ; 2.0244314228426445E8 ; 3.3975659077785695E8 ; 2.076349158302416E10 ; 0.0
112 ; 3122764.3456004066 ; 2.0245911164549282E8 ; 3.4288126292031556E8 ; 2.0965934725308422E10 ; 0.0
113 ; 3115349.6490595546 ; 2.0247507576458716E8 ; 3.46004027265916E8 ; 2.1168393836953915E10 ; 0.0
114 ; 3113635.274787443 ; 2.0249103355368596E8 ; 3.491193769149755E8 ; 2.1370868912718502E10 ; 0.0
115 ; 3109135.589116398 ; 2.0250698394802722E8 ; 3.5223301218976295E8 ; 2.1573359946272186E10 ; 0.0
116 ; 3105926.21224108 ; 2.0252292590517718E8 ; 3.5534214777887934E8 ; 2.1775866930220215E10 ; 0.0
117 ; 3098364.7853907933 ; 2.0253885840428913E8 ; 3.584480739911204E8 ; 2.1978389856125393E10 ; 0.0
118 ; 3095873.352995649 ; 2.0255478044539064E8 ; 3.615464387765112E8 ; 2.2180928714529682E10 ; 0.0
119 ; 3091954.304565152 ; 2.025706910486981E8 ; 3.646423121295068E8 ; 2.238348349497507E10 ; 0.0
120 ; 3089310.688555195 ; 2.025865892539578E8 ; 3.6773426643407196E8 ; 2.258605418602377E10 ; 0.0
121 ; 3083318.38086158 ; 2.0260247411981213E8 ; 3.7082357712262714E8 ; 2.278864077527773E10 ; 0.0
122 ; 3078880.1239332114 ; 2.0261834472319E8 ; 3.739068955034887E8 ; 2.299124324939754E10 ; 0.0
123 ; 3074215.6549705844 ; 2.0263420015872082E8 ; 3.769857756274219E8 ; 2.319386159412073E10 ; 0.0
124 ; 3068237.493279923 ; 2.026500395381704E8 ; 3.800599912823925E8 ; 2.3396495794279453E10 ; 0.0
125 ; 3064854.208076055 ; 2.026658619898988E8 ; 3.8312822877567244E8 ; 2.3599145833817623E10 ; 0.0
126 ; 3058214.412975976 ; 2.0268166665833834E8 ; 3.861930829837485E8 ; 2.380181169580752E10 ; 0.0
127 ; 3056114.2404798167 ; 2.026974527034917E8 ; 3.8925129739672446E8 ; 2.400449336246586E10 ; 0.0
128 ; 3048709.2021143907 ; 2.0271321930044886E8 ; 3.923074116372043E8 ; 2.420719081516935E10 ; 0.0
129 ; 3046032.5228910292 ; 2.0272896563892224E8 ; 3.953561208393187E8 ; 2.44099040344698E10 ; 0.0
130 ; 3038827.6075662295 ; 2.0274469092279938E8 ; 3.9840215336220974E8 ; 2.4612633000108723E10 ; 0.0
131 ; 3030474.5411112886 ; 2.0276039436971235E8 ; 4.01440980969776E8 ; 2.481537769103152E10 ; 0.0
132 ; 3026532.795722144 ; 2.027760752106234E8 ; 4.0447145551088727E8 ; 2.5018138085401234E10 ; 0.0
133 ; 3020306.3702973723 ; 2.0279173268942595E8 ; 4.074979883066094E8 ; 2.522091416061186E10 ; 0.0
134 ; 3011899.2153782714 ; 2.0280736606256035E8 ; 4.1051829467690676E8 ; 2.5423705893301285E10 ; 0.0
135 ; 3003366.937250698 ; 2.028229745986442E8 ; 4.1353019389228505E8 ; 2.5626513259363846E10 ; 0.0
136 ; 2993950.793257849 ; 2.028385575781161E8 ; 4.165335608295357E8 ; 2.582933623396249E10 ; 0.0
137 ; 2988939.981335588 ; 2.0285411429289258E8 ; 4.1952751162279356E8 ; 2.6032174791540607E10 ; 0.0
138 ; 2981242.2562650763 ; 2.0286964404603773E8 ; 4.2251645160412914E8 ; 2.62350289058335E10 ; 0.0
139 ; 2973328.7424530024 ; 2.02885146151445E8 ; 4.2549769386039424E8 ; 2.643789854987954E10 ; 0.0
140 ; 2966530.4842742546 ; 2.029006199335304E8 ; 4.284710226028472E8 ; 2.6640783696030983E10 ; 0.0
141 ; 2959900.718834708 ; 2.0291606472693714E8 ; 4.314375530871215E8 ; 2.684368431596451E10 ; 0.0
142 ; 2953183.4479895174 ; 2.0293147987625095E8 ; 4.343974538059562E8 ; 2.704660038069145E10 ; 0.0
143 ; 2942719.776332506 ; 2.029468647357256E8 ; 4.373506372539457E8 ; 2.72495318605677E10 ; 0.0
144 ; 2930747.9169133273 ; 2.029622186690185E8 ; 4.402933570302782E8 ; 2.7452478725303425E10 ; 0.0
145 ; 2927834.0038618515 ; 2.029775410489357E8 ; 4.4322410494719154E8 ; 2.7655440943972443E10 ; 0.0
146 ; 2925992.68135256 ; 2.0299283125718614E8 ; 4.461519389510534E8 ; 2.7858418485021378E10 ; 0.0
147 ; 2917777.82207489 ; 2.030080886841446E8 ; 4.4907793163240594E8 ; 2.8061411316278564E10 ; 0.0
148 ; 2912178.126056773 ; 2.030233127286232E8 ; 4.519957094544808E8 ; 2.8264419404962708E10 ; 0.0
149 ; 2909633.537983045 ; 2.0303850279765114E8 ; 4.549078875805376E8 ; 2.846744271769133E10 ; 0.0
150 ; 2904233.144248757 ; 2.0305365830626175E8 ; 4.578175211185207E8 ; 2.867048122048898E10 ; 0.0
151 ; 2897561.0842847684 ; 2.0306877867728785E8 ; 4.6072175426276946E8 ; 2.8873534878795242E10 ; 0.0
152 ; 2891682.680982778 ; 2.0308386334116358E8 ; 4.6361931534705424E8 ; 2.907660365747253E10 ; 0.0
153 ; 2889048.8618456894 ; 2.0309891173573372E8 ; 4.66510998028037E8 ; 2.9279687520813694E10 ; 0.0
154 ; 2883413.533755222 ; 2.0311392330606934E8 ; 4.694000468898827E8 ; 2.9482786432549427E10 ; 0.0
155 ; 2878960.427162561 ; 2.0312889750429013E8 ; 4.722834604236379E8 ; 2.9685900355855495E10 ; 0.0
156 ; 2873481.1169023723 ; 2.0314383378939274E8 ; 4.751624208508005E8 ; 2.9889029253359787E10 ; 0.0
157 ; 2866023.0677850395 ; 2.0315873162708518E8 ; 4.7803590196770287E8 ; 3.009217308714918E10 ; 0.0
158 ; 2863585.629350852 ; 2.0317359048962694E8 ; 4.809019250354879E8 ; 3.0295331818776268E10 ; 0.0
159 ; 2856710.8199988613 ; 2.0318840985567456E8 ; 4.8376551066483873E8 ; 3.0498505409265896E10 ; 0.0
160 ; 2851035.889993917 ; 2.0320318921013254E8 ; 4.866222214848376E8 ; 3.070169381912157E10 ; 0.0
161 ; 2845808.5436117374 ; 2.0321792804400942E8 ; 4.894732573748315E8 ; 3.0904897008331703E10 ; 0.0
162 ; 2837492.7845087904 ; 2.0323262585427865E8 ; 4.9231906591844326E8 ; 3.1108114936375713E10 ; 0.0
163 ; 2835161.1704157996 ; 2.0324728214374438E8 ; 4.95156558702952E8 ; 3.1311347562229992E10 ; 0.0
164 ; 2830744.0953932283 ; 2.0326189642091152E8 ; 4.9799171987336785E8 ; 3.1514594844373737E10 ; 0.0
165 ; 2823776.711826114 ; 2.0327646819986057E8 ; 5.008224639687611E8 ; 3.1717856740794647E10 ; 0.0
166 ; 2818639.2339345864 ; 2.0329099700012642E8 ; 5.036462406805872E8 ; 3.1921133208994507E10 ; 0.0
167 ; 2815627.085395046 ; 2.0330548234658122E8 ; 5.0646487991452175E8 ; 3.2124424205994633E10 ; 0.0
168 ; 2808057.348728216 ; 2.033199237693213E8 ; 5.092805069999168E8 ; 3.2327729688341213E10 ; 0.0
169 ; 2803403.8239463186 ; 2.033343208035579E8 ; 5.1208856434864503E8 ; 3.2531049612110535E10 ; 0.0
170 ; 2798509.2250741688 ; 2.033486729895114E8 ; 5.148919681725913E8 ; 3.2734383932914093E10 ; 0.0
171 ; 2792271.3055000035 ; 2.033629798723091E8 ; 5.176904773976655E8 ; 3.2937732605903603E10 ; 0.0
172 ; 2784239.597241297 ; 2.033772410018865E8 ; 5.2048274870316553E8 ; 3.3141095585775913E10 ; 0.0
173 ; 2781442.9416276957 ; 2.033914559328918E8 ; 5.232669883004068E8 ; 3.33444728267778E10 ; 0.0
174 ; 2774745.4754137015 ; 2.0340562422459346E8 ; 5.260484312420345E8 ; 3.3547864282710693E10 ; 0.0
175 ; 2774378.5530125997 ; 2.034197454407909E8 ; 5.288231767174482E8 ; 3.3751269906935287E10 ; 0.0
176 ; 2771073.207480188 ; 2.0343381914972812E8 ; 5.315975552704608E8 ; 3.395468965237608E10 ; 0.0
177 ; 2766970.9520560745 ; 2.034478449240101E8 ; 5.34368628477941E8 ; 3.4158123471525806E10 ; 0.0
178 ; 2759553.577971927 ; 2.0346182234052193E8 ; 5.371355994299971E8 ; 3.4361571316449814E10 ; 0.0
179 ; 2759092.417758647 ; 2.034757509803507E8 ; 5.39895153007969E8 ; 3.456503313879034E10 ; 0.0
180 ; 2753740.6878739833 ; 2.034896304287097E8 ; 5.426542454257277E8 ; 3.476850888977069E10 ; 0.0
181 ; 2745394.8619825346 ; 2.035034602748652E8 ; 5.454079861136017E8 ; 3.49719985201994E10 ; 0.0
182 ; 2743673.4911311152 ; 2.035172401120658E8 ; 5.481533809755843E8 ; 3.5175501980474266E10 ; 0.0
183 ; 2741038.4585809004 ; 2.0353096953747356E8 ; 5.508970544667153E8 ; 3.5379019220586334E10 ; 0.0
184 ; 2734569.908327252 ; 2.0354464815209782E8 ; 5.536380929252962E8 ; 3.558255019012381E10 ; 0.0
185 ; 2733793.1898686294 ; 2.035582755607309E8 ; 5.563726628336234E8 ; 3.578609483827591E10 ; 0.0
186 ; 2726114.078294777 ; 2.0357185137188593E8 ; 5.591064560234921E8 ; 3.598965311383664E10 ; 0.0
187 ; 2724403.578111698 ; 2.0358537519773662E8 ; 5.618325701017869E8 ; 3.619322496520853E10 ; 0.0
188 ; 2719492.419968639 ; 2.0359884665405902E8 ; 5.645569736798985E8 ; 3.6396810340406265E10 ; 0.0
189 ; 2714947.4286021576 ; 2.0361226536017504E8 ; 5.672764660998671E8 ; 3.6600409187060326E10 ; 0.0
190 ; 2711563.9451364195 ; 2.0362563093889788E8 ; 5.699914135284692E8 ; 3.68040214524205E10 ; 0.0
191 ; 2708565.345275686 ; 2.0363894301647905E8 ; 5.727029774736056E8 ; 3.70076470833594E10 ; 0.0
192 ; 2701636.6199587984 ; 2.036522012225571E8 ; 5.754115428188813E8 ; 3.721128602637588E10 ; 0.0
193 ; 2696310.6179188406 ; 2.0366540519010812E8 ; 5.7811317943884E8 ; 3.7414938227598434E10 ; 0.0
194 ; 2693913.2829945683 ; 2.036785545553976E8 ; 5.808094900567589E8 ; 3.761860363278854E10 ; 0.0
195 ; 2690393.8671453362 ; 2.0369164895793378E8 ; 5.835034033397534E8 ; 3.782228218734394E10 ; 0.0
196 ; 2684359.987953002 ; 2.0370468804042277E8 ; 5.861937972068987E8 ; 3.802597383630187E10 ; 0.0
197 ; 2680815.0799280736 ; 2.0371767144872463E8 ; 5.888781571948516E8 ; 3.822967852434229E10 ; 0.0
198 ; 2676060.4163456745 ; 2.0373059883181122E8 ; 5.915589722747797E8 ; 3.8433396195791016E10 ; 0.0
199 ; 2672157.425792299 ; 2.0374346984172508E8 ; 5.942350326911254E8 ; 3.8637126794622826E10 ; 0.0
200 ; 2668054.4928598814 ; 1.830251357541441E8 ; 5.969071901169177E8 ; 3.8840870264464554E10 ; 0.0
