CSV File for the City 6 on Day 326
1 - Minute m 
2 - Power Consumed at minute m 
3 - Power Produced at minute m 
4 - Energy Consumed since the beginning of the day 
5 - Energy Produced since the beginning of the day 
6 - Energy Lost since the beginning of the day on lines starting from the city
 
0 ; 1.1244842230096111E7 ; 1.0663443916700765E8 ; 0.0 ; 0.0 ; 0.0
1 ; 1.1258367114566144E7 ; 1.0678517585426205E8 ; 1.1244842230096111E7 ; 1.0663443916700765E8 ; 0.0
2 ; 1.1269957054469611E7 ; 1.0724492364927039E8 ; 2.2503209344662257E7 ; 2.134196150212697E8 ; 0.0
3 ; 1.128434952859263E7 ; 1.0801368523054779E8 ; 3.3773166399131864E7 ; 3.206645386705401E8 ; 0.0
4 ; 1.1298032279158475E7 ; 1.090914629860512E8 ; 4.5057515927724496E7 ; 4.286782239010879E8 ; 0.0
5 ; 1.1317798963786487E7 ; 1.1047825900422853E8 ; 5.635554820688297E7 ; 5.377696868871391E8 ; 0.0
6 ; 1.1347346083366184E7 ; 1.1217407506609061E8 ; 6.767334717066945E7 ; 6.482479458913677E8 ; 0.0
7 ; 1.1382026765446752E7 ; 1.1417891263837719E8 ; 7.902069325403564E7 ; 7.604220209574583E8 ; 0.0
8 ; 1.1436739365911325E7 ; 1.1649277286787724E8 ; 9.040272001948239E7 ; 8.746009335958354E8 ; 0.0
9 ; 1.151790059648591E7 ; 1.1911565657695651E8 ; 1.0183945938539371E8 ; 9.910937064637127E8 ; 0.0
10 ; 1.1644312236548254E7 ; 1.2204756426033294E8 ; 1.1335735998187962E8 ; 1.1102093630406692E9 ; 0.0
11 ; 1.1843550065279527E7 ; 1.2528849608312938E8 ; 1.2500167221842788E8 ; 1.232256927301002E9 ; 0.0
12 ; 1.2157425927865468E7 ; 1.2883845188022295E8 ; 1.368452222837074E8 ; 1.3575454233841314E9 ; 0.0
13 ; 1.2460967770862658E7 ; 1.326974311568957E8 ; 1.490026482115729E8 ; 1.4863838752643545E9 ; 0.0
14 ; 1.2498558279487858E7 ; 1.36865433090782E8 ; 1.6146361598243555E8 ; 1.61908130642125E9 ; 0.0
15 ; 1.2513310966354027E7 ; 1.413424565350927E8 ; 1.739621742619234E8 ; 1.755946739512032E9 ; 0.0
16 ; 1.252765883424208E7 ; 1.4612850002308825E8 ; 1.8647548522827744E8 ; 1.8972891960471249E9 ; 0.0
17 ; 1.2542535969643213E7 ; 1.5122356177375767E8 ; 1.9900314406251952E8 ; 2.043417696070213E9 ; 0.0
18 ; 1.2560263139492037E7 ; 1.566276396986531E8 ; 2.1154568003216273E8 ; 2.194641257843971E9 ; 0.0
19 ; 1.257317600693617E7 ; 1.623407314098176E8 ; 2.2410594317165476E8 ; 2.351268897542624E9 ; 0.0
20 ; 1.2588177495457212E7 ; 1.68362834228736E8 ; 2.3667911917859092E8 ; 2.5136096289524417E9 ; 0.0
21 ; 1.2604182017649977E7 ; 1.7469394519623175E8 ; 2.4926729667404813E8 ; 2.6819724631811776E9 ; 0.0
22 ; 1.2618345319698045E7 ; 1.8133406108322424E8 ; 2.618714786916981E8 ; 2.8566664083774095E9 ; 0.0
23 ; 1.2633930217757009E7 ; 1.8828317840225786E8 ; 2.7448982401139617E8 ; 3.0380004694606338E9 ; 0.0
24 ; 1.2646700553979047E7 ; 1.955412934197091E8 ; 2.8712375422915316E8 ; 3.2262836478628917E9 ; 0.0
25 ; 1.266337246347414E7 ; 2.0179644306675947E8 ; 2.997704547831322E8 ; 3.421824941282601E9 ; 0.0
26 ; 1.2675703271818949E7 ; 2.0180217098956457E8 ; 3.1243382724660635E8 ; 3.6236213843493605E9 ; 0.0
27 ; 1.2694243886852996E7 ; 2.0180824208781868E8 ; 3.251095305184253E8 ; 3.825423555338925E9 ; 0.0
28 ; 1.270732030357713E7 ; 2.018146517754784E8 ; 3.3780377440527827E8 ; 4.0272317974267435E9 ; 0.0
29 ; 1.2726798002299901E7 ; 2.0182139528815603E8 ; 3.505110947088554E8 ; 4.229046449202222E9 ; 0.0
30 ; 1.2740003728847394E7 ; 2.01828467697373E8 ; 3.632378927111553E8 ; 4.430867844490377E9 ; 0.0
31 ; 1.2750647596180422E7 ; 2.0183586392483124E8 ; 3.759778964400027E8 ; 4.632696312187751E9 ; 0.0
32 ; 1.2767762581893336E7 ; 2.018435787566206E8 ; 3.887285440361831E8 ; 4.834532176112582E9 ; 0.0
33 ; 1.2777976461832672E7 ; 2.0185160685728478E8 ; 4.0149630661807644E8 ; 5.036375754869203E9 ; 0.0
34 ; 1.2791623617962763E7 ; 2.0185994278367501E8 ; 4.142742830799091E8 ; 5.238227361726487E9 ; 0.0
35 ; 1.2806662603071837E7 ; 2.018685809985263E8 ; 4.2706590669787186E8 ; 5.440087304510162E9 ; 0.0
36 ; 1.2820514077408532E7 ; 2.0187751588369802E8 ; 4.398725693009437E8 ; 5.641955885508689E9 ; 0.0
37 ; 1.2828057244514648E7 ; 2.0188674175302678E8 ; 4.526930833783522E8 ; 5.843833401392387E9 ; 0.0
38 ; 1.283895900307637E7 ; 2.0189625286474693E8 ; 4.6552114062286687E8 ; 6.045720143145414E9 ; 0.0
39 ; 1.285217466733658E7 ; 2.019060434334394E8 ; 4.7836009962594324E8 ; 6.247616396010161E9 ; 0.0
40 ; 1.2864480302698864E7 ; 2.0191610764147764E8 ; 4.912122742932798E8 ; 6.449522439443601E9 ; 0.0
41 ; 1.2871386056045042E7 ; 2.019264396499442E8 ; 5.040767545959787E8 ; 6.651438547085078E9 ; 0.0
42 ; 1.2885709753636E7 ; 2.0193703360899806E8 ; 5.1694814065202373E8 ; 6.853364986735023E9 ; 0.0
43 ; 1.2890871647117853E7 ; 2.019478836676789E8 ; 5.2983385040565974E8 ; 7.055302020344021E9 ; 0.0
44 ; 1.2896605914221803E7 ; 2.0195898398313838E8 ; 5.427247220527775E8 ; 7.2572499040117E9 ; 0.0
45 ; 1.2904156195353404E7 ; 2.0197032872929516E8 ; 5.556213279669993E8 ; 7.459208887994838E9 ; 0.0
46 ; 1.291372218943144E7 ; 2.0198191210491294E8 ; 5.685254841623527E8 ; 7.661179216724133E9 ; 0.0
47 ; 1.2921480235345647E7 ; 2.0199372834110612E8 ; 5.814392063517841E8 ; 7.863161128829045E9 ; 0.0
48 ; 1.292861240497398E7 ; 2.0200577170828104E8 ; 5.943606865871297E8 ; 8.065154857170152E9 ; 0.0
49 ; 1.2929453635768872E7 ; 2.0201803652252278E8 ; 6.072892989921037E8 ; 8.267160628878433E9 ; 0.0
50 ; 1.293741932572759E7 ; 2.02030517151442E8 ; 6.202187526278726E8 ; 8.469178665400956E9 ; 0.0
51 ; 1.2941430693665035E7 ; 2.0204320801949692E8 ; 6.331561719536002E8 ; 8.671209182552399E9 ; 0.0
52 ; 1.2947347461163E7 ; 2.0205610361280897E8 ; 6.460976026472652E8 ; 8.873252390571896E9 ; 0.0
53 ; 1.2953094609578315E7 ; 2.0206919848349053E8 ; 6.590449501084282E8 ; 9.075308494184704E9 ; 0.0
54 ; 1.2957323417304605E7 ; 2.0208248725350615E8 ; 6.719980447180066E8 ; 9.277377692668194E9 ; 0.0
55 ; 1.2960163564264068E7 ; 2.0209596461808854E8 ; 6.849553681353112E8 ; 9.4794601799217E9 ; 0.0
56 ; 1.2964247509945145E7 ; 2.0210962534873125E8 ; 6.979155316995753E8 ; 9.681556144539787E9 ; 0.0
57 ; 1.296368233824681E7 ; 2.021234642957809E8 ; 7.108797792095205E8 ; 9.88366576988852E9 ; 0.0
58 ; 1.2973087077535093E7 ; 2.021374763906517E8 ; 7.238434615477673E8 ; 1.00857892341843E10 ; 0.0
59 ; 1.2976421336407693E7 ; 2.0215165664768484E8 ; 7.368165486253023E8 ; 1.0287926710574951E10 ; 0.0
60 ; 1.2979230994790329E7 ; 2.0216600016567537E8 ; 7.4979296996171E8 ; 1.0490078367222635E10 ; 0.0
61 ; 1.2982922531933144E7 ; 2.0218050212908873E8 ; 7.627722009565003E8 ; 1.0692244367388311E10 ; 0.0
62 ; 1.2985676824322391E7 ; 2.0219515780898875E8 ; 7.757551234884335E8 ; 1.08944248695174E10 ; 0.0
63 ; 1.2990229544591544E7 ; 2.02209962563698E8 ; 7.887408003127558E8 ; 1.109662002732639E10 ; 0.0
64 ; 1.2991686429658413E7 ; 2.0222491183921105E8 ; 8.017310298573474E8 ; 1.1298829989890087E10 ; 0.0
65 ; 1.2996850771173721E7 ; 2.022400011693806E8 ; 8.147227162870058E8 ; 1.1501054901729298E10 ; 0.0
66 ; 1.300078683519526E7 ; 2.0225522617589462E8 ; 8.277195670581795E8 ; 1.1703294902898678E10 ; 0.0
67 ; 1.300296245571508E7 ; 2.0227058256806365E8 ; 8.407203538933748E8 ; 1.1905550129074572E10 ; 0.0
68 ; 1.3006000878535302E7 ; 2.022860661424345E8 ; 8.537233163490899E8 ; 1.2107820711642635E10 ; 0.0
69 ; 1.3009315038509455E7 ; 2.0230167278224713E8 ; 8.667293172276251E8 ; 1.231010677778507E10 ; 0.0
70 ; 1.3013929937708369E7 ; 2.0231739845674998E8 ; 8.797386322661346E8 ; 1.2512408450567318E10 ; 0.0
71 ; 1.3013333119160617E7 ; 2.023332392203886E8 ; 8.92752562203843E8 ; 1.2714725849024069E10 ; 0.0
72 ; 1.3020114475363633E7 ; 2.0234919121188056E8 ; 9.057658953230036E8 ; 1.2917059088244457E10 ; 0.0
73 ; 1.3017911677259846E7 ; 2.0236525065319034E8 ; 9.187860097983673E8 ; 1.3119408279456337E10 ; 0.0
74 ; 1.3022789918849647E7 ; 2.0238141384841514E8 ; 9.318039214756271E8 ; 1.3321773530109528E10 ; 0.0
75 ; 1.3023762518962126E7 ; 2.0239767718259385E8 ; 9.448267113944767E8 ; 1.3524154943957943E10 ; 0.0
76 ; 1.3026449144474892E7 ; 2.0241403712044847E8 ; 9.578504739134388E8 ; 1.3726552621140537E10 ; 0.0
77 ; 1.3027472190793917E7 ; 2.0243049020506844E8 ; 9.708769230579137E8 ; 1.3928966658260986E10 ; 0.0
78 ; 1.3023586683179008E7 ; 2.0244703305654606E8 ; 9.839043952487075E8 ; 1.4131397148466055E10 ; 0.0
79 ; 1.302463247151979E7 ; 2.0246366237057164E8 ; 9.969279819318866E8 ; 1.43338441815226E10 ; 0.0
80 ; 1.3022820295278843E7 ; 2.024803749169957E8 ; 1.0099526144034064E9 ; 1.4536307843893171E10 ; 0.0
81 ; 1.3020846811524153E7 ; 2.0249716753836507E8 ; 1.0229754346986852E9 ; 1.4738788218810167E10 ; 0.0
82 ; 1.3020490007956594E7 ; 2.0251403714843917E8 ; 1.0359962815102093E9 ; 1.4941285386348532E10 ; 0.0
83 ; 1.3014720769348921E7 ; 2.025309807306924E8 ; 1.049016771518166E9 ; 1.5143799423496971E10 ; 0.0
84 ; 1.3014067561760249E7 ; 2.0254799533680764E8 ; 1.0620314922875149E9 ; 1.5346330404227663E10 ; 0.0
85 ; 1.3007939819870587E7 ; 2.025650780851657E8 ; 1.075045559849275E9 ; 1.554887839956447E10 ; 0.0
86 ; 1.300753726190843E7 ; 2.0258222615933472E8 ; 1.0880534996691456E9 ; 1.5751443477649635E10 ; 0.0
87 ; 1.3002245570556188E7 ; 2.0259943680656397E8 ; 1.101061036931054E9 ; 1.595402570380897E10 ; 0.0
88 ; 1.3006087856414603E7 ; 2.0261670733628476E8 ; 1.1140632825016103E9 ; 1.6156625140615534E10 ; 0.0
89 ; 1.2998080802826006E7 ; 2.0263403511862195E8 ; 1.1270693703580248E9 ; 1.6359241847951818E10 ; 0.0
90 ; 1.2994218489494892E7 ; 2.0265141758291885E8 ; 1.1400674511608508E9 ; 1.656187588307044E10 ; 0.0
91 ; 1.2988672202690966E7 ; 2.0266885221627763E8 ; 1.1530616696503456E9 ; 1.6764527300653358E10 ; 0.0
92 ; 1.2989035119333554E7 ; 2.026863365621175E8 ; 1.1660503418530366E9 ; 1.6967196152869637E10 ; 0.0
93 ; 1.2986097406729676E7 ; 2.0270386821875268E8 ; 1.1790393769723701E9 ; 1.7169882489431753E10 ; 0.0
94 ; 1.2981285694192713E7 ; 2.0272144483799142E8 ; 1.1920254743790998E9 ; 1.7372586357650505E10 ; 0.0
95 ; 1.2979805361021705E7 ; 2.0273906412375778E8 ; 1.2050067600732925E9 ; 1.7575307802488495E10 ; 0.0
96 ; 1.297866215285209E7 ; 2.027567238307372E8 ; 1.2179865654343143E9 ; 1.777804686661225E10 ; 0.0
97 ; 1.2972345660155341E7 ; 2.0277442176304674E8 ; 1.2309652275871663E9 ; 1.798080359044299E10 ; 0.0
98 ; 1.2965495996335028E7 ; 2.0279215577293104E8 ; 1.2439375732473216E9 ; 1.8183578012206036E10 ; 0.0
99 ; 1.2963861162843252E7 ; 2.028099237594844E8 ; 1.2569030692436566E9 ; 1.8386370167978966E10 ; 0.0
100 ; 1.296055885578509E7 ; 2.0282772366739982E8 ; 1.2698669304064999E9 ; 1.858918009173845E10 ; 0.0
101 ; 1.2957150623715E7 ; 2.0284555348574498E8 ; 1.282827489262285E9 ; 1.879200781540585E10 ; 0.0
102 ; 1.2950612592386883E7 ; 2.028634112467657E8 ; 1.295784639886E9 ; 1.8994853368891594E10 ; 0.0
103 ; 1.2945776645025803E7 ; 2.0288129502471712E8 ; 1.3087352524783869E9 ; 1.919771678013836E10 ; 0.0
104 ; 1.2942143994493632E7 ; 2.0289920293472227E8 ; 1.3216810291234126E9 ; 1.9400598075163074E10 ; 0.0
105 ; 1.2933121951735716E7 ; 2.0291713313165852E8 ; 1.3346231731179063E9 ; 1.9603497278097797E10 ; 0.0
106 ; 1.2927751951588301E7 ; 2.0293508380907142E8 ; 1.347556295069642E9 ; 1.9806414411229454E10 ; 0.0
107 ; 1.292715079723212E7 ; 2.0295305319811606E8 ; 1.3604840470212305E9 ; 2.0009349495038525E10 ; 0.0
108 ; 1.2922375955047749E7 ; 2.0297103956652555E8 ; 1.3734111978184626E9 ; 2.021230254823664E10 ; 0.0
109 ; 1.2915385376612114E7 ; 2.0298904121760625E8 ; 1.3863335737735105E9 ; 2.0415273587803165E10 ; 0.0
110 ; 1.2909230174316784E7 ; 2.0300705648926002E8 ; 1.3992489591501226E9 ; 2.061826262902077E10 ; 0.0
111 ; 1.2902409092602544E7 ; 2.030250837530323E8 ; 1.4121581893244395E9 ; 2.0821269685510033E10 ; 0.0
112 ; 1.2898449986005396E7 ; 2.0304312141318625E8 ; 1.425060598417042E9 ; 2.1024294769263065E10 ; 0.0
113 ; 1.2896154696290838E7 ; 2.0306116790580246E8 ; 1.4379590484030473E9 ; 2.122733789067625E10 ; 0.0
114 ; 1.288790233446959E7 ; 2.0307922169790336E8 ; 1.450855203099338E9 ; 2.1430399058582054E10 ; 0.0
115 ; 1.2882923008914776E7 ; 2.0309728128660253E8 ; 1.4637431054338076E9 ; 2.1633478280279957E10 ; 0.0
116 ; 1.2875560415215274E7 ; 2.0311534519827786E8 ; 1.4766260284427223E9 ; 2.183657556156656E10 ; 0.0
117 ; 1.2870093580474803E7 ; 2.0313341198776838E8 ; 1.4895015888579376E9 ; 2.2039690906764835E10 ; 0.0
118 ; 1.285925392939253E7 ; 2.0315148023759428E8 ; 1.5023716824384124E9 ; 2.2242824318752605E10 ; 0.0
119 ; 1.2857244213894106E7 ; 2.0316954855719927E8 ; 1.515230936367805E9 ; 2.24459757989902E10 ; 0.0
120 ; 1.2853344205083195E7 ; 2.0318761558221525E8 ; 1.5280881805816991E9 ; 2.2649145347547398E10 ; 0.0
121 ; 1.2842223395548018E7 ; 2.0320567997374845E8 ; 1.5409415247867823E9 ; 2.2852332963129612E10 ; 0.0
122 ; 1.2838325266644536E7 ; 2.0322374041768646E8 ; 1.5537837481823304E9 ; 2.305553864310336E10 ; 0.0
123 ; 1.2831469933788026E7 ; 2.0324179562402594E8 ; 1.5666220734489748E9 ; 2.3258762383521046E10 ; 0.0
124 ; 1.2824236995554445E7 ; 2.032598443262203E8 ; 1.579453543382763E9 ; 2.3462004179145073E10 ; 0.0
125 ; 1.2815683296953795E7 ; 2.032778852805467E8 ; 1.5922777803783174E9 ; 2.3665264023471294E10 ; 0.0
126 ; 1.2811063734668324E7 ; 2.0329591726549223E8 ; 1.605093463675271E9 ; 2.3868541908751842E10 ; 0.0
127 ; 1.2800224517465524E7 ; 2.0331393908115828E8 ; 1.6179045274099393E9 ; 2.4071837826017334E10 ; 0.0
128 ; 1.2794481476896185E7 ; 2.033319495486831E8 ; 1.6307047519274049E9 ; 2.427515176509849E10 ; 0.0
129 ; 1.2787629031076815E7 ; 2.033499475096817E8 ; 1.6434992334043012E9 ; 2.4478483714647175E10 ; 0.0
130 ; 1.277854827859838E7 ; 2.0336793182570267E8 ; 1.656286862435378E9 ; 2.4681833662156857E10 ; 0.0
131 ; 1.2767483934800066E7 ; 2.0338590137770152E8 ; 1.6690654107139764E9 ; 2.488520159398256E10 ; 0.0
132 ; 1.2753737820166228E7 ; 2.0340385506553015E8 ; 1.6818328946487765E9 ; 2.508858749536026E10 ; 0.0
133 ; 1.2744522252820523E7 ; 2.0342179180744177E8 ; 1.6945866324689426E9 ; 2.529199135042579E10 ; 0.0
134 ; 1.2729696188865378E7 ; 2.034397105396108E8 ; 1.7073311547217631E9 ; 2.549541314223323E10 ; 0.0
135 ; 1.2722869615881488E7 ; 2.0345761021566767E8 ; 1.7200608509106286E9 ; 2.5698852852772842E10 ; 0.0
136 ; 1.2706190251770632E7 ; 2.034754898062477E8 ; 1.73278372052651E9 ; 2.590231046298851E10 ; 0.0
137 ; 1.2695912528176311E7 ; 2.0349334829855388E8 ; 1.7454899107782807E9 ; 2.6105785952794758E10 ; 0.0
138 ; 1.2683697499916283E7 ; 2.0351118469593275E8 ; 1.758185823306457E9 ; 2.630927930109331E10 ; 0.0
139 ; 1.267151635671186E7 ; 2.035289980174637E8 ; 1.7708695208063734E9 ; 2.6512790485789246E10 ; 0.0
140 ; 1.2661423130029056E7 ; 2.035467872975606E8 ; 1.7835410371630852E9 ; 2.671631948380671E10 ; 0.0
141 ; 1.2648263722163001E7 ; 2.0356455158558556E8 ; 1.7962024602931142E9 ; 2.691986627110427E10 ; 0.0
142 ; 1.2632998890951807E7 ; 2.0358228994547474E8 ; 1.8088507240152771E9 ; 2.7123430822689857E10 ; 0.0
143 ; 1.262378700264423E7 ; 2.036000014553755E8 ; 1.821483722906229E9 ; 2.7327013112635334E10 ; 0.0
144 ; 1.261102805658582E7 ; 2.0361768520729458E8 ; 1.8341075099088733E9 ; 2.753061311409071E10 ; 0.0
145 ; 1.2602949515529903E7 ; 2.0363534030675742E8 ; 1.846718537965459E9 ; 2.7734230799298004E10 ; 0.0
146 ; 1.259266755415702E7 ; 2.036529658724773E8 ; 1.859321487480989E9 ; 2.7937866139604763E10 ; 0.0
147 ; 1.258596985921752E7 ; 2.0367056103603524E8 ; 1.871914155035146E9 ; 2.814151910547724E10 ; 0.0
148 ; 1.2577347125381466E7 ; 2.0368812494156927E8 ; 1.8845001248943634E9 ; 2.8345189666513275E10 ; 0.0
149 ; 1.2570211937529E7 ; 2.037056567454733E8 ; 1.8970774720197449E9 ; 2.8548877791454845E10 ; 0.0
150 ; 1.2559768136984488E7 ; 2.0372315561610523E8 ; 1.909647683957274E9 ; 2.8752583448200317E10 ; 0.0
151 ; 1.2556136369927632E7 ; 2.03740620733504E8 ; 1.9222074520942585E9 ; 2.895630660381642E10 ; 0.0
152 ; 1.2547222874474015E7 ; 2.0375805128911507E8 ; 1.9347635884641862E9 ; 2.9160047224549927E10 ; 0.0
153 ; 1.2537305762776576E7 ; 2.0377544648552442E8 ; 1.9473108113386602E9 ; 2.9363805275839043E10 ; 0.0
154 ; 1.2528848778829947E7 ; 2.037928055362007E8 ; 1.9598481171014369E9 ; 2.9567580722324566E10 ; 0.0
155 ; 1.251608240098679E7 ; 2.0381012766524494E8 ; 1.972376965880267E9 ; 2.9771373527860767E10 ; 0.0
156 ; 1.2512092640703019E7 ; 2.0382741210714817E8 ; 1.9848930482812538E9 ; 2.9975183655526012E10 ; 0.0
157 ; 1.2502845646058053E7 ; 2.0384465810655612E8 ; 1.9974051409219568E9 ; 3.017901106763316E10 ; 0.0
158 ; 1.2494579741187574E7 ; 2.038618649180412E8 ; 2.0099079865680149E9 ; 3.0382855725739716E10 ; 0.0
159 ; 1.2484074476899894E7 ; 2.0387903180588135E8 ; 2.0224025663092024E9 ; 3.0586717590657757E10 ; 0.0
160 ; 1.2477992980125248E7 ; 2.0389615804384542E8 ; 2.0348866407861023E9 ; 3.079059662246364E10 ; 0.0
161 ; 1.2468944201824164E7 ; 2.0391324291498524E8 ; 2.0473646337662275E9 ; 3.0994492780507484E10 ; 0.0
162 ; 1.246202789606239E7 ; 2.0393028571143383E8 ; 2.0598335779680517E9 ; 3.119840602342247E10 ; 0.0
163 ; 1.2449199066256134E7 ; 2.0394728573420954E8 ; 2.072295605864114E9 ; 3.1402336309133904E10 ; 0.0
164 ; 1.2442283746625615E7 ; 2.0396424229302627E8 ; 2.08474480493037E9 ; 3.1606283594868114E10 ; 0.0
165 ; 1.2433436655791417E7 ; 2.039811547061094E8 ; 2.0971870886769958E9 ; 3.181024783716114E10 ; 0.0
166 ; 1.2424226418661114E7 ; 2.039980223000169E8 ; 2.1096205253327873E9 ; 3.201422899186725E10 ; 0.0
167 ; 1.2419188440809812E7 ; 2.0401484440946615E8 ; 2.1220447517514484E9 ; 3.2218227014167267E10 ; 0.0
168 ; 1.240685938033009E7 ; 2.0403162037716568E8 ; 2.1344639401922581E9 ; 3.2422241858576733E10 ; 0.0
169 ; 1.2401920052247372E7 ; 2.0404834955365208E8 ; 2.1468707995725882E9 ; 3.26262734789539E10 ; 0.0
170 ; 1.2389768489373561E7 ; 2.040650312971315E8 ; 2.1592727196248355E9 ; 3.2830321828507553E10 ; 0.0
171 ; 1.237899637585546E7 ; 2.0408166497332627E8 ; 2.171662488114209E9 ; 3.3034386859804684E10 ; 0.0
172 ; 1.2372533674100507E7 ; 2.0409824995532548E8 ; 2.1840414844900646E9 ; 3.323846852477801E10 ; 0.0
173 ; 1.2362491413677802E7 ; 2.0411478562344056E8 ; 2.196414018164165E9 ; 3.3442566774733337E10 ; 0.0
174 ; 1.2356432015860518E7 ; 2.0413127136506474E8 ; 2.2087765095778427E9 ; 3.3646681560356777E10 ; 0.0
175 ; 1.2351724778697146E7 ; 2.0414770657453668E8 ; 2.2211329415937033E9 ; 3.3850812831721844E10 ; 0.0
176 ; 1.2344815024537964E7 ; 2.0416409065300837E8 ; 2.2334846663724003E9 ; 3.405496053829638E10 ; 0.0
177 ; 1.2339250600455854E7 ; 2.041804230083165E8 ; 2.2458294813969383E9 ; 3.4259124628949387E10 ; 0.0
178 ; 1.2336552395489201E7 ; 2.0419670305485788E8 ; 2.258168731997394E9 ; 3.44633050519577E10 ; 0.0
179 ; 1.2332703941273889E7 ; 2.0421293021346855E8 ; 2.2705052843928833E9 ; 3.466750175501256E10 ; 0.0
180 ; 1.2322389842380457E7 ; 2.0422910391130614E8 ; 2.282837988334157E9 ; 3.487171468522603E10 ; 0.0
181 ; 1.231709245675472E7 ; 2.0424522358173582E8 ; 2.2951603781765375E9 ; 3.507594378913734E10 ; 0.0
182 ; 1.230932069724015E7 ; 2.0426128866421956E8 ; 2.307477470633292E9 ; 3.528018901271907E10 ; 0.0
183 ; 1.2310143394797096E7 ; 2.0427729860420865E8 ; 2.3197867913305326E9 ; 3.548445030138329E10 ; 0.0
184 ; 1.230086488894769E7 ; 2.042932528530392E8 ; 2.33209693472533E9 ; 3.56887275999875E10 ; 0.0
185 ; 1.2297449810811335E7 ; 2.043E8 ; 2.3443977996142774E9 ; 3.5893020852840546E10 ; 0.0
186 ; 1.2290851601436561E7 ; 2.043E8 ; 2.356695249425089E9 ; 3.6097320852840546E10 ; 0.0
187 ; 1.228307678717657E7 ; 2.043E8 ; 2.3689861010265255E9 ; 3.6301620852840546E10 ; 0.0
188 ; 1.2282697245077807E7 ; 2.043E8 ; 2.381269177813702E9 ; 3.6505920852840546E10 ; 0.0
189 ; 1.2276156235230068E7 ; 2.043E8 ; 2.3935518750587797E9 ; 3.6710220852840546E10 ; 0.0
190 ; 1.2268271943972E7 ; 2.043E8 ; 2.4058280312940097E9 ; 3.6914520852840546E10 ; 0.0
191 ; 1.2264690995546373E7 ; 2.043E8 ; 2.418096303237982E9 ; 3.7118820852840546E10 ; 0.0
192 ; 1.2258675311674401E7 ; 2.043E8 ; 2.430360994233528E9 ; 3.7323120852840546E10 ; 0.0
193 ; 1.2253384869470889E7 ; 2.043E8 ; 2.4426196695452027E9 ; 3.7527420852840546E10 ; 0.0
194 ; 1.2247459613824064E7 ; 2.043E8 ; 2.454873054414674E9 ; 3.7731720852840546E10 ; 0.0
195 ; 1.2240221330514228E7 ; 2.043E8 ; 2.4671205140284977E9 ; 3.7936020852840546E10 ; 0.0
196 ; 1.223990834946159E7 ; 2.043E8 ; 2.479360735359012E9 ; 3.8140320852840546E10 ; 0.0
