CSV File for the City 6 on Day 9
1 - Minute m 
2 - Power Consumed at minute m 
3 - Power Produced at minute m 
4 - Energy Consumed since the beginning of the day 
5 - Energy Produced since the beginning of the day 
6 - Energy Lost since the beginning of the day on lines starting from the city
 
0 ; 1.1121369711585004E7 ; 1.0550975419552311E8 ; 0.0 ; 0.0 ; 0.0
1 ; 1.1135511606073229E7 ; 1.0565829040310305E8 ; 1.1121369711585004E7 ; 1.0550975419552311E8 ; 0.0
2 ; 1.1149209905016303E7 ; 1.0611599223057291E8 ; 2.225688131765823E7 ; 2.1116804459862617E8 ; 0.0
3 ; 1.1160274944539908E7 ; 1.0688288493369472E8 ; 3.3406091222674534E7 ; 3.172840368291991E8 ; 0.0
4 ; 1.117756635552874E7 ; 1.0795899249966288E8 ; 4.456636616721444E7 ; 4.241669217628938E8 ; 0.0
5 ; 1.1197197478696581E7 ; 1.0934433714155531E8 ; 5.574393252274318E7 ; 5.321259142625567E8 ; 0.0
6 ; 1.1224853481830545E7 ; 1.1103893878208861E8 ; 6.6941130001439765E7 ; 6.41470251404112E8 ; 0.0
7 ; 1.1261544002047207E7 ; 1.1304281455036813E8 ; 7.816598348327032E7 ; 7.525091901862006E8 ; 0.0
8 ; 1.1315219434522022E7 ; 1.153559783181979E8 ; 8.942752748531753E7 ; 8.655520047365687E8 ; 0.0
9 ; 1.1389112873457171E7 ; 1.179784403032242E8 ; 1.0074274691983955E8 ; 9.809079830547667E8 ; 0.0
10 ; 1.1519714405945953E7 ; 1.2091020676425415E8 ; 1.1213185979329672E8 ; 1.0988864233579907E9 ; 0.0
11 ; 1.171400762996628E7 ; 1.2415127980939707E8 ; 1.2365157419924268E8 ; 1.2197966301222448E9 ; 0.0
12 ; 1.2031299952745344E7 ; 1.2770165733054361E8 ; 1.3536558182920897E8 ; 1.3439479099316418E9 ; 0.0
13 ; 1.2334258844214667E7 ; 1.3156133306888664E8 ; 1.4739688178195432E8 ; 1.4716495672621853E9 ; 0.0
14 ; 1.237261327034736E7 ; 1.3573029680677998E8 ; 1.59731140626169E8 ; 1.6032109003310719E9 ; 0.0
15 ; 1.2386567783106802E7 ; 1.402085346724195E8 ; 1.7210375389651635E8 ; 1.7389411971378517E9 ; 0.0
16 ; 1.2399632365670023E7 ; 1.4499602953669992E8 ; 1.8449032167962316E8 ; 1.8791497318102713E9 ; 0.0
17 ; 1.241745825548554E7 ; 1.500927614769046E8 ; 1.9688995404529318E8 ; 2.0241457613469713E9 ; 0.0
18 ; 1.2426509211122278E7 ; 1.5549870827995563E8 ; 2.0930741230077872E8 ; 2.174238522823876E9 ; 0.0
19 ; 1.2441635128170488E7 ; 1.612138459586586E8 ; 2.21733921511901E8 ; 2.3297372311038313E9 ; 0.0
20 ; 1.245701867510787E7 ; 1.6723814925725147E8 ; 2.3417555664007148E8 ; 2.49095107706249E9 ; 0.0
21 ; 1.2470597891517494E7 ; 1.7357159212691346E8 ; 2.4663257531517935E8 ; 2.6581892263197412E9 ; 0.0
22 ; 1.2484791022121737E7 ; 1.802141481569674E8 ; 2.5910317320669684E8 ; 2.831760818446655E9 ; 0.0
23 ; 1.2501314292442588E7 ; 1.871657909526462E8 ; 2.715879642288186E8 ; 3.0119749666036224E9 ; 0.0
24 ; 1.251427109453236E7 ; 1.944264944549849E8 ; 2.8408927852126116E8 ; 3.1991407575562687E9 ; 0.0
25 ; 1.2528386523242945E7 ; 2.0068427410049817E8 ; 2.966035496157935E8 ; 3.3935672520112534E9 ; 0.0
26 ; 1.2541794801465414E7 ; 2.0069265306364843E8 ; 3.091319361390365E8 ; 3.5942515261117516E9 ; 0.0
27 ; 1.2556130229447281E7 ; 2.0070137693595773E8 ; 3.2167373094050187E8 ; 3.7949441791754E9 ; 0.0
28 ; 1.2571448866187196E7 ; 2.0071042308143365E8 ; 3.342298611699492E8 ; 3.9956455561113577E9 ; 0.0
29 ; 1.2586327723662915E7 ; 2.0071976999929526E8 ; 3.468013100361364E8 ; 4.1963559791927915E9 ; 0.0
30 ; 1.2599638124801217E7 ; 2.0072939736071452E8 ; 3.593876377597993E8 ; 4.397075749192087E9 ; 0.0
31 ; 1.2612456676950987E7 ; 2.007392860189421E8 ; 3.719872758846005E8 ; 4.597805146552802E9 ; 0.0
32 ; 1.2624639106907587E7 ; 2.0074941799840036E8 ; 3.845997325615515E8 ; 4.798544432571744E9 ; 0.0
33 ; 1.2639321097047241E7 ; 2.00759776467665E8 ; 3.972243716684591E8 ; 4.999293850570145E9 ; 0.0
34 ; 1.2649508160675602E7 ; 2.007703457005525E8 ; 4.098636927655064E8 ; 5.200053627037809E9 ; 0.0
35 ; 1.2658619654985735E7 ; 2.0078111102883965E8 ; 4.22513200926182E8 ; 5.400823972738362E9 ; 0.0
36 ; 1.2669296586983357E7 ; 2.0079205878949848E8 ; 4.351718205811677E8 ; 5.601605083767202E9 ; 0.0
37 ; 1.2686188206203252E7 ; 2.0080317626875404E8 ; 4.478411171681511E8 ; 5.802397142556701E9 ; 0.0
38 ; 1.2692456594999615E7 ; 2.0081445164477316E8 ; 4.6052730537435436E8 ; 6.003200318825455E9 ; 0.0
39 ; 1.270412813461978E7 ; 2.0082587393036777E8 ; 4.73219761969354E8 ; 6.204014770470228E9 ; 0.0
40 ; 1.271003169202776E7 ; 2.0083743291674462E8 ; 4.8592389010397375E8 ; 6.404840644400596E9 ; 0.0
41 ; 1.2718633717897698E7 ; 2.0084911911904633E8 ; 4.986339217960015E8 ; 6.60567807731734E9 ; 0.0
42 ; 1.2728945855306271E7 ; 2.008609237241985E8 ; 5.113525555138992E8 ; 6.806527196436386E9 ; 0.0
43 ; 1.2737701118238693E7 ; 2.008728385413962E8 ; 5.240815013692055E8 ; 7.007388120160584E9 ; 0.0
44 ; 1.2741016968116425E7 ; 2.0088485595542228E8 ; 5.3681920248744416E8 ; 7.208260958701981E9 ; 0.0
45 ; 1.2749047882375259E7 ; 2.0089696888288283E8 ; 5.495602194555606E8 ; 7.409145814657403E9 ; 0.0
46 ; 1.2757720396254001E7 ; 2.0090917073136467E8 ; 5.623092673379358E8 ; 7.610042783540286E9 ; 0.0
47 ; 1.2764023717452882E7 ; 2.009214553614615E8 ; 5.750669877341897E8 ; 7.81095195427165E9 ; 0.0
48 ; 1.2768878597493438E7 ; 2.0093381705157405E8 ; 5.878310114516426E8 ; 8.011873409633112E9 ; 0.0
49 ; 1.2774427567472255E7 ; 2.009462504653616E8 ; 6.00599890049136E8 ; 8.212807226684686E9 ; 0.0
50 ; 1.2776813759819517E7 ; 2.0095875062170464E8 ; 6.133743176166083E8 ; 8.413753477150047E9 ; 0.0
51 ; 1.278023946627396E7 ; 2.0097131286702836E8 ; 6.261511313764278E8 ; 8.614712227771751E9 ; 0.0
52 ; 1.2785723384545393E7 ; 2.0098393284983364E8 ; 6.389313708427017E8 ; 8.81568354063878E9 ; 0.0
53 ; 1.2789024457803024E7 ; 2.0099660649728104E8 ; 6.517170942272471E8 ; 9.016667473488615E9 ; 0.0
54 ; 1.2793411995306501E7 ; 2.0100932999367842E8 ; 6.645061186850501E8 ; 9.217664079985895E9 ; 0.0
55 ; 1.27940734534949E7 ; 2.0102209976072666E8 ; 6.772995306803566E8 ; 9.418673409979574E9 ; 0.0
56 ; 1.2800271648129672E7 ; 2.010349124393863E8 ; 6.900936041338515E8 ; 9.619695509740301E9 ; 0.0
57 ; 1.2799748298842557E7 ; 2.010477648732346E8 ; 7.028938757819812E8 ; 9.820730422179688E9 ; 0.0
58 ; 1.2803044945600888E7 ; 2.0106065409319142E8 ; 7.156936240808238E8 ; 1.0021778187052921E10 ; 0.0
59 ; 1.2809354275159806E7 ; 2.0107357730350038E8 ; 7.284966690264246E8 ; 1.0222838841146112E10 ; 0.0
60 ; 1.2810156794002004E7 ; 2.010865318688598E8 ; 7.413060233015845E8 ; 1.0423912418449614E10 ; 0.0
61 ; 1.2812417398060951E7 ; 2.0109951530260637E8 ; 7.541161800955865E8 ; 1.0624998950318474E10 ; 0.0
62 ; 1.2812072004858403E7 ; 2.01112525255862E8 ; 7.669285974936475E8 ; 1.082609846562108E10 ; 0.0
63 ; 1.2816045008927116E7 ; 2.0112555950756145E8 ; 7.797406694985058E8 ; 1.1027210990876942E10 ; 0.0
64 ; 1.2816756358029125E7 ; 2.0113861595528525E8 ; 7.925567145074329E8 ; 1.1228336550384502E10 ; 0.0
65 ; 1.2817963531333094E7 ; 2.0115169260682902E8 ; 8.053734708654621E8 ; 1.1429475166339788E10 ; 0.0
66 ; 1.2819877227951352E7 ; 2.0116478757244587E8 ; 8.181914343967952E8 ; 1.1630626858946617E10 ; 0.0
67 ; 1.2822619010732543E7 ; 2.0117789905770442E8 ; 8.310113116247466E8 ; 1.1831791646519062E10 ; 0.0
68 ; 1.2822547370001439E7 ; 2.0119102535690963E8 ; 8.438339306354791E8 ; 1.2032969545576767E10 ; 0.0
69 ; 1.2825434861012353E7 ; 2.0120416484703842E8 ; 8.566564780054805E8 ; 1.2234160570933676E10 ; 0.0
70 ; 1.2827064832989872E7 ; 2.012173159821468E8 ; 8.694819128664929E8 ; 1.2435364735780714E10 ; 0.0
71 ; 1.2827878783985749E7 ; 2.0123047728820786E8 ; 8.823089776994827E8 ; 1.2636582051762861E10 ; 0.0
72 ; 1.2827523652003711E7 ; 2.0124364735834518E8 ; 8.951368564834684E8 ; 1.283781252905107E10 ; 0.0
73 ; 1.2829750583735134E7 ; 2.0125682484842768E8 ; 9.079643801354722E8 ; 1.3039056176409414E10 ; 0.0
74 ; 1.28329761552026E7 ; 2.012700084729966E8 ; 9.207941307192073E8 ; 1.3240313001257841E10 ; 0.0
75 ; 1.2832299042808905E7 ; 2.012831970014964E8 ; 9.336271068744099E8 ; 1.3441583009730837E10 ; 0.0
76 ; 1.2835301913494175E7 ; 2.0129638925478503E8 ; 9.464594059172188E8 ; 1.3642866206732334E10 ; 0.0
77 ; 1.2834137319340479E7 ; 2.0130958410190037E8 ; 9.59294707830713E8 ; 1.384416259598712E10 ; 0.0
78 ; 1.2827708669656415E7 ; 2.013227804570623E8 ; 9.721288451500535E8 ; 1.404547218008902E10 ; 0.0
79 ; 1.2827140758365298E7 ; 2.0133597727689123E8 ; 9.849565538197099E8 ; 1.4246794960546082E10 ; 0.0
80 ; 1.2820461920146925E7 ; 2.0134917355782562E8 ; 9.977836945780752E8 ; 1.4448130937822973E10 ; 0.0
81 ; 1.2818385097121915E7 ; 2.0136236833372283E8 ; 1.0106041564982221E9 ; 1.4649480111380798E10 ; 0.0
82 ; 1.2816582916276E7 ; 2.01375560673629E8 ; 1.0234225415953441E9 ; 1.4850842479714521E10 ; 0.0
83 ; 1.2810919151294416E7 ; 2.0138874967970392E8 ; 1.03623912451162E9 ; 1.5052218040388151E10 ; 0.0
84 ; 1.2805279564248035E7 ; 2.0140193448529008E8 ; 1.0490500436629145E9 ; 1.5253606790067856E10 ; 0.0
85 ; 1.2801980525286391E7 ; 2.0141511425311333E8 ; 1.0618553232271626E9 ; 1.5455008724553146E10 ; 0.0
86 ; 1.2799323913128613E7 ; 2.0142828817360643E8 ; 1.074657303752449E9 ; 1.565642383880626E10 ; 0.0
87 ; 1.279496722403775E7 ; 2.0144145546334484E8 ; 1.0874566276655777E9 ; 1.5857852126979866E10 ; 0.0
88 ; 1.279155840115376E7 ; 2.0145461536358768E8 ; 1.1002515948896153E9 ; 1.605929358244321E10 ; 0.0
89 ; 1.2786906288357858E7 ; 2.0146776713891453E8 ; 1.113043153290769E9 ; 1.6260748197806799E10 ; 0.0
90 ; 1.2779659149311878E7 ; 2.0148091007595214E8 ; 1.125830059579127E9 ; 1.6462215964945713E10 ; 0.0
91 ; 1.2773031824947493E7 ; 2.0149404348218387E8 ; 1.1386097187284389E9 ; 1.6663696875021666E10 ; 0.0
92 ; 1.2770018512975316E7 ; 2.0150716668483564E8 ; 1.1513827505533864E9 ; 1.6865190918503849E10 ; 0.0
93 ; 1.2765583368533593E7 ; 2.015202790298335E8 ; 1.1641527690663617E9 ; 1.7066698085188684E10 ; 0.0
94 ; 1.275981113368897E7 ; 2.0153337988082686E8 ; 1.1769183524348953E9 ; 1.7268218364218517E10 ; 0.0
95 ; 1.2751142574106412E7 ; 2.0154646861827356E8 ; 1.1896781635685842E9 ; 1.7469751744099342E10 ; 0.0
96 ; 1.2748397676605664E7 ; 2.0155954463858145E8 ; 1.2024293061426907E9 ; 1.7671298212717617E10 ; 0.0
97 ; 1.2743982778452821E7 ; 2.0157260735330355E8 ; 1.2151777038192964E9 ; 1.7872857757356197E10 ; 0.0
98 ; 1.2741068496730251E7 ; 2.0158565618838194E8 ; 1.2279216865977492E9 ; 1.80744303647095E10 ; 0.0
99 ; 1.2733057175106643E7 ; 2.0159869058343816E8 ; 1.2406627550944796E9 ; 1.827601602089788E10 ; 0.0
100 ; 1.272894984918201E7 ; 2.016117099911061E8 ; 1.253395812269586E9 ; 1.847761471148132E10 ; 0.0
101 ; 1.2719470338496102E7 ; 2.0162471387640458E8 ; 1.2661247621187682E9 ; 1.8679226421472427E10 ; 0.0
102 ; 1.2715126855797976E7 ; 2.0163770171614766E8 ; 1.2788442324572644E9 ; 1.888085113534883E10 ; 0.0
103 ; 1.2707648125523683E7 ; 2.016506729983891E8 ; 1.2915593593130624E9 ; 1.908248883706498E10 ; 0.0
104 ; 1.2702479047364296E7 ; 2.016636272218995E8 ; 1.304267007438586E9 ; 1.928413951006337E10 ; 0.0
105 ; 1.269364318249231E7 ; 2.0167656389567372E8 ; 1.3169694864859502E9 ; 1.948580313728527E10 ; 0.0
106 ; 1.2685177009181952E7 ; 2.016894825384664E8 ; 1.3296631296684425E9 ; 1.9687479701180943E10 ; 0.0
107 ; 1.2680598859334135E7 ; 2.017023826783542E8 ; 1.3423483066776245E9 ; 1.988916918371941E10 ; 0.0
108 ; 1.2673985023422841E7 ; 2.0171526385232258E8 ; 1.3550289055369587E9 ; 2.0090871566397762E10 ; 0.0
109 ; 1.2666807154326145E7 ; 2.017281256058758E8 ; 1.3677028905603817E9 ; 2.0292586830250084E10 ; 0.0
110 ; 1.265851219022871E7 ; 2.017409674926688E8 ; 1.3803696977147079E9 ; 2.049431495585596E10 ; 0.0
111 ; 1.2652194375256876E7 ; 2.017537890741592E8 ; 1.3930282099049366E9 ; 2.069605592334863E10 ; 0.0
112 ; 1.2642409167123463E7 ; 2.0176658991927847E8 ; 1.4056804042801933E9 ; 2.0897809712422787E10 ; 0.0
113 ; 1.2639147752927953E7 ; 2.0177936960412115E8 ; 1.418322813447317E9 ; 2.1099576302342064E10 ; 0.0
114 ; 1.2628741150860257E7 ; 2.0179212771165055E8 ; 1.430961961200245E9 ; 2.1301355671946186E10 ; 0.0
115 ; 1.261891963719841E7 ; 2.018048638314206E8 ; 1.4435907023511052E9 ; 2.1503147799657837E10 ; 0.0
116 ; 1.2614531932838494E7 ; 2.0181757755931225E8 ; 1.4562096219883037E9 ; 2.1704952663489258E10 ; 0.0
117 ; 1.2604625204519864E7 ; 2.0183026849728397E8 ; 1.468824153921142E9 ; 2.190677024104857E10 ; 0.0
118 ; 1.2594493184696456E7 ; 2.018429362531352E8 ; 1.4814287791256618E9 ; 2.2108600509545853E10 ; 0.0
119 ; 1.2590583216665586E7 ; 2.018555804402824E8 ; 1.4940232723103583E9 ; 2.231044344579899E10 ; 0.0
120 ; 1.2579814290957281E7 ; 2.0186820067754647E8 ; 1.5066138555270238E9 ; 2.251229902623927E10 ; 0.0
121 ; 1.2572319585200032E7 ; 2.0188079658895108E8 ; 1.519193669817981E9 ; 2.2714167226916817E10 ; 0.0
122 ; 1.2560668255867336E7 ; 2.018933678035317E8 ; 1.531765989403181E9 ; 2.2916048023505768E10 ; 0.0
123 ; 1.2554971392539475E7 ; 2.0190591395515373E8 ; 1.5443266576590483E9 ; 2.31179413913093E10 ; 0.0
124 ; 1.2547030477389954E7 ; 2.0191843468234038E8 ; 1.5568816290515878E9 ; 2.3319847305264454E10 ; 0.0
125 ; 1.2535635346243648E7 ; 2.0193092962810883E8 ; 1.5694286595289779E9 ; 2.3521765739946793E10 ; 0.0
126 ; 1.2528781306254927E7 ; 2.0194339843981466E8 ; 1.5819642948752215E9 ; 2.37236966695749E10 ; 0.0
127 ; 1.2513056043408416E7 ; 2.0195584076900396E8 ; 1.5944930761814764E9 ; 2.3925640068014717E10 ; 0.0
128 ; 1.2508555680242917E7 ; 2.019682562712729E8 ; 1.6070061322248847E9 ; 2.4127595908783722E10 ; 0.0
129 ; 1.2497703794728262E7 ; 2.0198064460613373E8 ; 1.6195146879051278E9 ; 2.4329564165054996E10 ; 0.0
130 ; 1.2489081508864628E7 ; 2.0199300543688792E8 ; 1.632012391699856E9 ; 2.453154480966113E10 ; 0.0
131 ; 1.2475675884192726E7 ; 2.0200533843050483E8 ; 1.6445014732087207E9 ; 2.473353781509802E10 ; 0.0
132 ; 1.2460952983192232E7 ; 2.0201764325750664E8 ; 1.6569771490929134E9 ; 2.4935543153528522E10 ; 0.0
133 ; 1.2447195701761123E7 ; 2.020299195918586E8 ; 1.6694381020761056E9 ; 2.513756079678603E10 ; 0.0
134 ; 1.2430471609585147E7 ; 2.0204216711086443E8 ; 1.6818852977778666E9 ; 2.5339590716377888E10 ; 0.0
135 ; 1.2419710136719916E7 ; 2.0205438549506694E8 ; 1.6943157693874516E9 ; 2.554163288348875E10 ; 0.0
136 ; 1.2404373871117324E7 ; 2.02066574428153E8 ; 1.7067354795241716E9 ; 2.5743687268983818E10 ; 0.0
137 ; 1.239153845722762E7 ; 2.0207873359686327E8 ; 1.719139853395289E9 ; 2.5945753843411972E10 ; 0.0
138 ; 1.2375001572183028E7 ; 2.0209086269090575E8 ; 1.7315313918525167E9 ; 2.6147832577008835E10 ; 0.0
139 ; 1.2358392100793703E7 ; 2.0210296140287378E8 ; 1.7439063934246998E9 ; 2.634992343969974E10 ; 0.0
140 ; 1.2349061180741249E7 ; 2.0211502942816752E8 ; 1.7562647855254934E9 ; 2.6552026401102615E10 ; 0.0
141 ; 1.2329736241262943E7 ; 2.0212706646491915E8 ; 1.7686138467062347E9 ; 2.6754141430530785E10 ; 0.0
142 ; 1.2317932753773797E7 ; 2.0213907221392137E8 ; 1.7809435829474976E9 ; 2.6956268496995705E10 ; 0.0
143 ; 1.23045730551511E7 ; 2.0215104637855935E8 ; 1.7932615157012713E9 ; 2.7158407569209625E10 ; 0.0
144 ; 1.2287862876379501E7 ; 2.021629886647456E8 ; 1.8055660887564223E9 ; 2.7360558615588184E10 ; 0.0
145 ; 1.2279142132887516E7 ; 2.021748987808579E8 ; 1.8178539516328018E9 ; 2.756272160425293E10 ; 0.0
146 ; 1.226863998035541E7 ; 2.0218677643767977E8 ; 1.8301330937656894E9 ; 2.7764896503033787E10 ; 0.0
147 ; 1.2255743757435098E7 ; 2.021986213483441E8 ; 1.8424017337460449E9 ; 2.7967083279471466E10 ; 0.0
148 ; 1.2247347419104673E7 ; 2.0221043322827858E8 ; 1.85465747750348E9 ; 2.816928190081981E10 ; 0.0
149 ; 1.2234848828464283E7 ; 2.022222117951543E8 ; 1.8669048249225845E9 ; 2.8371492334048088E10 ; 0.0
150 ; 1.222742083096392E7 ; 2.022339567688361E8 ; 1.8791396737510488E9 ; 2.8573714545843243E10 ; 0.0
151 ; 1.2215654283148289E7 ; 2.022456678713353E8 ; 1.8913670945820127E9 ; 2.877594850261208E10 ; 0.0
152 ; 1.220227548416178E7 ; 2.0225734482676452E8 ; 1.903582748865161E9 ; 2.8978194170483414E10 ; 0.0
153 ; 1.2191539685293786E7 ; 2.0226898736129442E8 ; 1.9157850243493228E9 ; 2.9180451515310177E10 ; 0.0
154 ; 1.2182151624673376E7 ; 2.0228059520311236E8 ; 1.9279765640346165E9 ; 2.938272050267147E10 ; 0.0
155 ; 1.2174046161228439E7 ; 2.0229216808238295E8 ; 1.9401587156592898E9 ; 2.9585001097874584E10 ; 0.0
156 ; 1.2162422122382434E7 ; 2.0230370573121002E8 ; 1.9523327618205183E9 ; 2.9787293265956966E10 ; 0.0
157 ; 1.2150044663822817E7 ; 2.023152078836007E8 ; 1.9644951839429007E9 ; 2.9989596971688175E10 ; 0.0
158 ; 1.2140411671096554E7 ; 2.0232667427543056E8 ; 1.9766452286067235E9 ; 3.0191912179571777E10 ; 0.0
159 ; 1.2130065657996612E7 ; 2.0233810464441064E8 ; 1.98878564027782E9 ; 3.0394238853847206E10 ; 0.0
160 ; 1.212131835216202E7 ; 2.0234949873005566E8 ; 2.0009157059358168E9 ; 3.0596576958491615E10 ; 0.0
161 ; 1.2106484010832079E7 ; 2.0236085627365372E8 ; 2.013037024287979E9 ; 3.0798926457221672E10 ; 0.0
162 ; 1.2093792498231577E7 ; 2.0237217701823723E8 ; 2.025143508298811E9 ; 3.1001287313495327E10 ; 0.0
163 ; 1.2080365067310302E7 ; 2.023834607085552E8 ; 2.0372373007970426E9 ; 3.1203659490513565E10 ; 0.0
164 ; 1.2069578343842614E7 ; 2.0239470709104642E8 ; 2.049317665864353E9 ; 3.140604295122212E10 ; 0.0
165 ; 1.2057686191952942E7 ; 2.0240591591381428E8 ; 2.0613872442081954E9 ; 3.1608437658313164E10 ; 0.0
166 ; 1.2050710096512662E7 ; 2.024170869266021E8 ; 2.0734449304001484E9 ; 3.181084357422698E10 ; 0.0
167 ; 1.2038079535780363E7 ; 2.0242821988076997E8 ; 2.085495640496661E9 ; 3.201326066115358E10 ; 0.0
168 ; 1.2027483566687658E7 ; 2.024393145292723E8 ; 2.0975337200324414E9 ; 3.221568888103435E10 ; 0.0
169 ; 1.2011013191023853E7 ; 2.0245037062663648E8 ; 2.109561203599129E9 ; 3.2418128195563625E10 ; 0.0
170 ; 1.2003274930450806E7 ; 2.0246138792894232E8 ; 2.1215722167901528E9 ; 3.262057856619026E10 ; 0.0
171 ; 1.1987963951828746E7 ; 2.0247236619380248E8 ; 2.1335754917206037E9 ; 3.2823039954119205E10 ; 0.0
172 ; 1.1983509239864698E7 ; 2.0248330518034366E8 ; 2.1455634556724324E9 ; 3.3025512320313007E10 ; 0.0
173 ; 1.1967485569990572E7 ; 2.0249420464918864E8 ; 2.1575469649122972E9 ; 3.322799562549335E10 ; 0.0
174 ; 1.1959476605413746E7 ; 2.0250506436243898E8 ; 2.169514450482288E9 ; 3.343048983014254E10 ; 0.0
175 ; 1.1954023568773683E7 ; 2.025158840836586E8 ; 2.181473927087702E9 ; 3.363299489450498E10 ; 0.0
176 ; 1.1944585217944667E7 ; 2.025266635778581E8 ; 2.1934279506564755E9 ; 3.383551077858864E10 ; 0.0
177 ; 1.194093723508174E7 ; 2.0253740261147937E8 ; 2.20537253587442E9 ; 3.4038037442166496E10 ; 0.0
178 ; 1.1934084138053214E7 ; 2.0254810095238143E8 ; 2.217313473109502E9 ; 3.4240574844777977E10 ; 0.0
179 ; 1.1928627239469685E7 ; 2.0255875836982632E8 ; 2.2292475572475553E9 ; 3.444312294573036E10 ; 0.0
180 ; 1.1918035933084702E7 ; 2.025693746344661E8 ; 2.241176184487025E9 ; 3.464568170410019E10 ; 0.0
181 ; 1.1907006619462006E7 ; 2.0257994951833004E8 ; 2.2530942204201093E9 ; 3.484825107873466E10 ; 0.0
182 ; 1.1903445550159976E7 ; 2.025904827948124E8 ; 2.2650012270395713E9 ; 3.505083102825299E10 ; 0.0
183 ; 1.1895786245494861E7 ; 2.0260097423866105E8 ; 2.276904672589731E9 ; 3.5253421511047806E10 ; 0.0
184 ; 1.188987329195586E7 ; 2.0261142362596616E8 ; 2.288800458835226E9 ; 3.545602248528647E10 ; 0.0
185 ; 1.1883737074898297E7 ; 2.0262183073414972E8 ; 2.300690332127182E9 ; 3.565863390891244E10 ; 0.0
186 ; 1.1878402025350085E7 ; 2.0263219534195536E8 ; 2.3125740692020802E9 ; 3.586125573964658E10 ; 0.0
187 ; 1.1867513620034104E7 ; 2.026425172294385E8 ; 2.3244524712274303E9 ; 3.606388793498854E10 ; 0.0
188 ; 1.1858894176934423E7 ; 2.0265279617795736E8 ; 2.3363199848474646E9 ; 3.626653045221798E10 ; 0.0
189 ; 1.1857363168058427E7 ; 2.0266303197016376E8 ; 2.348178879024399E9 ; 3.6469183248395935E10 ; 0.0
190 ; 1.1845870877083559E7 ; 2.026732243899949E8 ; 2.360036242192457E9 ; 3.66718462803661E10 ; 0.0
191 ; 1.184242264069507E7 ; 2.0268337322266513E8 ; 2.371882113069541E9 ; 3.687451950475609E10 ; 0.0
192 ; 1.183799793354217E7 ; 2.0269347825465837E8 ; 2.383724535710236E9 ; 3.707720287797875E10 ; 0.0
193 ; 1.1825540248952903E7 ; 2.027035392737205E8 ; 2.3955625336437783E9 ; 3.727989635623341E10 ; 0.0
194 ; 1.1819965155043216E7 ; 2.0271355606885254E8 ; 2.407388073892731E9 ; 3.748259989550713E10 ; 0.0
195 ; 1.1809193960882355E7 ; 2.027235284303038E8 ; 2.4192080390477743E9 ; 3.768531345157599E10 ; 0.0
