CSV File for the City 2 on Day 234
1 - Minute m 
2 - Power Consumed at minute m 
3 - Power Produced at minute m 
4 - Energy Consumed since the beginning of the day 
5 - Energy Produced since the beginning of the day 
6 - Energy Lost since the beginning of the day on lines starting from the city
 
0 ; 194926.42970259654 ; 1.0518054743832722E8 ; 0.0 ; 0.0 ; 0.0
1 ; 196109.95513735642 ; 1.0533387221117783E8 ; 194926.42970259654 ; 1.0518054743832722E8 ; 0.0
2 ; 198463.39860191825 ; 1.0579589495909426E8 ; 391036.3848399529 ; 2.1051441964950505E8 ; 0.0
3 ; 201407.5343277115 ; 1.0656662539697719E8 ; 589499.7834418712 ; 3.163103146085993E8 ; 0.0
4 ; 204971.73090303285 ; 1.0764607465420938E8 ; 790907.3177695826 ; 4.228769400055765E8 ; 0.0
5 ; 208495.69048982044 ; 1.0903425515195113E8 ; 995879.0486726154 ; 5.3052301465978587E8 ; 0.0
6 ; 212732.1836214016 ; 1.107311802359437E8 ; 1204374.7391624358 ; 6.395572698117371E8 ; 0.0
7 ; 218786.0135910485 ; 1.127368634812187E8 ; 1417106.9227838374 ; 7.502884500476807E8 ; 0.0
8 ; 227850.801032537 ; 1.150513176370951E8 ; 1635892.936374886 ; 8.630253135288994E8 ; 0.0
9 ; 241561.58358431104 ; 1.1767455329549778E8 ; 1863743.737407423 ; 9.780766311659945E8 ; 0.0
10 ; 263347.16330568725 ; 1.2060657752131367E8 ; 2105305.320991734 ; 1.0957511844614923E9 ; 0.0
11 ; 297974.72566344973 ; 1.2384739280167064E8 ; 2368652.4842974213 ; 1.216357761982806E9 ; 0.0
12 ; 352739.8379963352 ; 1.273969966494408E8 ; 2666627.209960871 ; 1.3402051547844765E9 ; 0.0
13 ; 406155.3728302371 ; 1.312553819997372E8 ; 3019367.047957206 ; 1.4676021514339173E9 ; 0.0
14 ; 411487.6265477616 ; 1.3542253826063508E8 ; 3425522.4207874434 ; 1.5988575334336545E9 ; 0.0
15 ; 414617.7309910961 ; 1.398984526828153E8 ; 3837010.047335205 ; 1.7342800716942897E9 ; 0.0
16 ; 416926.1690037748 ; 1.4468311169124642E8 ; 4251627.778326301 ; 1.874178524377105E9 ; 0.0
17 ; 419525.0421804426 ; 1.4977650194018707E8 ; 4668553.947330075 ; 2.0188616360683515E9 ; 0.0
18 ; 421168.01181055116 ; 1.5517861100847697E8 ; 5088078.989510518 ; 2.1686381380085387E9 ; 0.0
19 ; 424899.0573340765 ; 1.6088942776673338E8 ; 5509247.001321069 ; 2.3238167490170155E9 ; 0.0
20 ; 428332.341888461 ; 1.6690894250005558E8 ; 5934146.058655146 ; 2.4847061767837486E9 ; 0.0
21 ; 430456.19646805024 ; 1.732371468750092E8 ; 6362478.400543607 ; 2.6516151192838044E9 ; 0.0
22 ; 434501.49189015303 ; 1.7987403382225263E8 ; 6792934.597011657 ; 2.8248522661588135E9 ; 0.0
23 ; 435230.94676074723 ; 1.8681959738363242E8 ; 7227436.08890181 ; 3.004726299981066E9 ; 0.0
24 ; 438900.0783540287 ; 1.9407383255326706E8 ; 7662667.035662558 ; 3.1915458973646984E9 ; 0.0
25 ; 442055.60489913344 ; 2.0032477602656046E8 ; 8101567.114016587 ; 3.3856197299179654E9 ; 0.0
26 ; 444171.38231231814 ; 2.003259721046979E8 ; 8543622.71891572 ; 3.5859445059445257E9 ; 0.0
27 ; 447964.7878508269 ; 2.0032718710590142E8 ; 8987794.101228038 ; 3.7862704780492234E9 ; 0.0
28 ; 448568.4353327482 ; 2.0032841851664007E8 ; 9435758.889078865 ; 3.9865976651551247E9 ; 0.0
29 ; 453120.51669955906 ; 2.003296642055365E8 ; 9884327.324411614 ; 4.186926083671765E9 ; 0.0
30 ; 454933.7975901788 ; 2.0033092235798904E8 ; 1.0337447841111172E7 ; 4.387255747877301E9 ; 0.0
31 ; 456758.5727630668 ; 2.0033219142251444E8 ; 1.0792381638701351E7 ; 4.587586670235291E9 ; 0.0
32 ; 460485.77578647644 ; 2.003334700667796E8 ; 1.1249140211464418E7 ; 4.7879188616578045E9 ; 0.0
33 ; 462335.54703589244 ; 2.003347571415696E8 ; 1.1709625987250894E7 ; 4.988252331724585E9 ; 0.0
34 ; 464532.9438481464 ; 2.0033605165122062E8 ; 1.2171961534286786E7 ; 5.188587088866154E9 ; 0.0
35 ; 468071.0372892354 ; 2.0033735272930723E8 ; 1.2636494478134932E7 ; 5.388923140517374E9 ; 0.0
36 ; 470005.1522986346 ; 2.0033865961859515E8 ; 1.3104565515424168E7 ; 5.589260493246681E9 ; 0.0
37 ; 472199.0256350001 ; 2.0033997165446037E8 ; 1.3574570667722803E7 ; 5.789599152865276E9 ; 0.0
38 ; 473860.3565736569 ; 2.003412882511286E8 ; 1.4046769693357803E7 ; 5.989939124519736E9 ; 0.0
39 ; 476498.58090968104 ; 2.0034260889021513E8 ; 1.452063004993146E7 ; 6.1902804127708645E9 ; 0.0
40 ; 476353.9155878505 ; 2.0034393311114562E8 ; 1.499712863084114E7 ; 6.390623021661079E9 ; 0.0
41 ; 481050.40244420996 ; 2.0034526050311995E8 ; 1.547348254642899E7 ; 6.590966954772225E9 ; 0.0
42 ; 482738.6234589913 ; 2.003465906983458E8 ; 1.59545329488732E7 ; 6.791312215275345E9 ; 0.0
43 ; 482818.8480748584 ; 2.0034792336632052E8 ; 1.643727157233219E7 ; 6.991658805973691E9 ; 0.0
44 ; 486340.4948636875 ; 2.0034925820898148E8 ; 1.692009042040705E7 ; 7.192006729340012E9 ; 0.0
45 ; 487337.1942131731 ; 2.0035059495657897E8 ; 1.740643091527074E7 ; 7.392355987548993E9 ; 0.0
46 ; 488169.83899537835 ; 2.0035193336415142E8 ; 1.7893768109483913E7 ; 7.592706582505572E9 ; 0.0
47 ; 491529.95219381736 ; 2.0035327320850518E8 ; 1.838193794847929E7 ; 7.793058515869723E9 ; 0.0
48 ; 491028.7895479775 ; 2.0035461428561836E8 ; 1.887346790067311E7 ; 7.993411789078229E9 ; 0.0
49 ; 492980.8424710147 ; 2.0035595640840182E8 ; 1.9364496690221086E7 ; 8.193766403363848E9 ; 0.0
50 ; 493910.314166244 ; 2.003572994047624E8 ; 1.98574775326921E7 ; 8.394122359772249E9 ; 0.0
51 ; 495520.5554003993 ; 2.0035864311592263E8 ; 2.0351387846858345E7 ; 8.594479659177011E9 ; 0.0
52 ; 495253.76929396135 ; 2.0035998739495882E8 ; 2.0846908402258743E7 ; 8.794838302292934E9 ; 0.0
53 ; 497963.44108600804 ; 2.0036133210552529E8 ; 2.1342162171552703E7 ; 8.995198289687893E9 ; 0.0
54 ; 498693.80900173204 ; 2.0036267712073845E8 ; 2.1840125612638712E7 ; 9.195559621793419E9 ; 0.0
55 ; 500058.0470535505 ; 2.0036402232219782E8 ; 2.2338819421640445E7 ; 9.395922298914158E9 ; 0.0
56 ; 501227.67254744814 ; 2.0036536759912533E8 ; 2.2838877468693994E7 ; 9.596286321236355E9 ; 0.0
57 ; 502065.3831407513 ; 2.0036671284760624E8 ; 2.3340105141241442E7 ; 9.79665168883548E9 ; 0.0
58 ; 502363.7295729569 ; 2.0036805796991885E8 ; 2.3842170524382193E7 ; 9.997018401683086E9 ; 0.0
59 ; 504343.3154434892 ; 2.0036940287394065E8 ; 2.434453425395515E7 ; 1.0197386459653006E10 ; 0.0
60 ; 503743.5072903394 ; 2.003707474726211E8 ; 2.4848877569398638E7 ; 1.0397755862526947E10 ; 0.0
61 ; 505726.91459995776 ; 2.0037209168351308E8 ; 2.535262107668898E7 ; 1.0598126609999569E10 ; 0.0
62 ; 506307.82656554563 ; 2.0037343542835474E8 ; 2.5858347991288938E7 ; 1.0798498701683083E10 ; 0.0
63 ; 507611.2110372985 ; 2.003747786326966E8 ; 2.6364655817854483E7 ; 1.0998872137111437E10 ; 0.0
64 ; 507675.0693801138 ; 2.0037612122556743E8 ; 2.687226702889178E7 ; 1.1199246915744133E10 ; 0.0
65 ; 509563.0754889724 ; 2.0037746313917497E8 ; 2.737994209827189E7 ; 1.13996230369697E10 ; 0.0
66 ; 509528.19883943023 ; 2.003788043086369E8 ; 2.7889505173760865E7 ; 1.1600000500108875E10 ; 0.0
67 ; 510552.836311808 ; 2.0038014467173922E8 ; 2.8399033372600295E7 ; 1.1800379304417513E10 ; 0.0
68 ; 511327.7117976686 ; 2.0038148416871783E8 ; 2.8909586208912104E7 ; 1.2000759449089252E10 ; 0.0
69 ; 512164.43306021177 ; 2.0038282274206203E8 ; 2.9420913920709774E7 ; 1.220114093325797E10 ; 0.0
70 ; 513473.8297867857 ; 2.0038416033633646E8 ; 2.9933078353769984E7 ; 1.2401523756000032E10 ; 0.0
71 ; 513645.375403528 ; 2.003854968980198E8 ; 3.044655218355677E7 ; 1.2601907916336369E10 ; 0.0
72 ; 515019.2916602698 ; 2.0038683237535882E8 ; 3.0960197558960296E7 ; 1.2802293413234388E10 ; 0.0
73 ; 514816.2583796405 ; 2.0038816671823546E8 ; 3.1475216850620568E7 ; 1.3002680245609747E10 ; 0.0
74 ; 516666.20478147914 ; 2.0038949987804618E8 ; 3.199003310900021E7 ; 1.3203068412327982E10 ; 0.0
75 ; 517792.56850284466 ; 2.0039083180759192E8 ; 3.250669931378169E7 ; 1.3403457912206028E10 ; 0.0
76 ; 516541.4030379649 ; 2.0039216246097776E8 ; 3.3024491882284533E7 ; 1.360384874401362E10 ; 0.0
77 ; 518803.2307719973 ; 2.0039349179352143E8 ; 3.35410332853225E7 ; 1.3804240906474598E10 ; 0.0
78 ; 518792.25913997565 ; 2.003948197616695E8 ; 3.40598365160945E7 ; 1.400463439826812E10 ; 0.0
79 ; 519313.77966278064 ; 2.0039614632292062E8 ; 3.4578628775234476E7 ; 1.4205029218029789E10 ; 0.0
80 ; 519580.2625779076 ; 2.0039747143575546E8 ; 3.5097942554897256E7 ; 1.4405425364352709E10 ; 0.0
81 ; 519707.9230654061 ; 2.0039879505957192E8 ; 3.561752281747516E7 ; 1.4605822835788464E10 ; 0.0
82 ; 518433.0153123491 ; 2.0040011715462625E8 ; 3.613723074054057E7 ; 1.4806221630848036E10 ; 0.0
83 ; 519924.09135317465 ; 2.004014376819783E8 ; 3.665566375585292E7 ; 1.5006621748002663E10 ; 0.0
84 ; 520177.4730593715 ; 2.004027566034414E8 ; 3.71755878472061E7 ; 1.520702318568464E10 ; 0.0
85 ; 518999.5547921218 ; 2.0040407388153633E8 ; 3.769576532026547E7 ; 1.5407425942288082E10 ; 0.0
86 ; 519323.8775258547 ; 2.004053894794486E8 ; 3.821476487505759E7 ; 1.5607830016169619E10 ; 0.0
87 ; 518292.8429670014 ; 2.0040670336098894E8 ; 3.8734088752583444E7 ; 1.5808235405649067E10 ; 0.0
88 ; 519828.2515229603 ; 2.0040801549055713E8 ; 3.925238159555045E7 ; 1.6008642109010056E10 ; 0.0
89 ; 519284.2367162845 ; 2.0040932583310834E8 ; 3.9772209847073406E7 ; 1.6209050124500612E10 ; 0.0
90 ; 518564.66177884134 ; 2.0041063435412177E8 ; 4.029149408378969E7 ; 1.6409459450333721E10 ; 0.0
91 ; 519288.5152991013 ; 2.0041194101957208E8 ; 4.0810058745568536E7 ; 1.6609870084687843E10 ; 0.0
92 ; 519738.5658023597 ; 2.004132457959024E8 ; 4.132934726086764E7 ; 1.6810282025707415E10 ; 0.0
93 ; 518401.16237872955 ; 2.0041454864999953E8 ; 4.184908582667E7 ; 1.7010695271503317E10 ; 0.0
94 ; 518556.04813552264 ; 2.00415849549171E8 ; 4.236748698904873E7 ; 1.7211109820153316E10 ; 0.0
95 ; 518701.8471689363 ; 2.0041714846112338E8 ; 4.2886043037184246E7 ; 1.7411525669702488E10 ; 0.0
96 ; 517379.98422024754 ; 2.0041844535394254E8 ; 4.340474488435318E7 ; 1.7611942818163612E10 ; 0.0
97 ; 517548.9377048648 ; 2.0041974019607496E8 ; 4.392212486857343E7 ; 1.7812361263517555E10 ; 0.0
98 ; 518130.2515625227 ; 2.0042103295631042E8 ; 4.443967380627829E7 ; 1.801278100371363E10 ; 0.0
99 ; 516538.55488774524 ; 2.004223236037659E8 ; 4.495780405784081E7 ; 1.821320203666994E10 ; 0.0
100 ; 517708.90177929413 ; 2.0042361210787058E8 ; 4.547434261272855E7 ; 1.841362436027371E10 ; 0.0
101 ; 516482.47418266523 ; 2.0042489843835172E8 ; 4.5992051514507845E7 ; 1.861404797238158E10 ; 0.0
102 ; 516605.3168876256 ; 2.004261825652215E8 ; 4.650853398869051E7 ; 1.881447287081993E10 ; 0.0
103 ; 516387.0093432774 ; 2.0042746445876494E8 ; 4.7025139305578135E7 ; 1.901489905338515E10 ; 0.0
104 ; 516732.1658735871 ; 2.0042874408952823E8 ; 4.754152631492141E7 ; 1.9215326517843914E10 ; 0.0
105 ; 516471.60535116226 ; 2.0043002142830822E8 ; 4.8058258480794996E7 ; 1.941575526193344E10 ; 0.0
106 ; 513976.5537837965 ; 2.0043129644614217E8 ; 4.857473008614616E7 ; 1.9616185283361748E10 ; 0.0
107 ; 515128.710341017 ; 2.0043256911429855E8 ; 4.908870663992996E7 ; 1.9816616579807888E10 ; 0.0
108 ; 514459.98405546905 ; 2.004338394042681E8 ; 4.960383535027097E7 ; 2.0017049148922188E10 ; 0.0
109 ; 513676.81991654244 ; 2.0043510728775558E8 ; 5.011829533432644E7 ; 2.0217482988326454E10 ; 0.0
110 ; 513880.2353187547 ; 2.004363727366722E8 ; 5.063197215424298E7 ; 2.041791809561421E10 ; 0.0
111 ; 514398.3816077392 ; 2.0043763572312814E8 ; 5.1145852389561735E7 ; 2.061835446835088E10 ; 0.0
112 ; 514389.3549048664 ; 2.0043889621942586E8 ; 5.1660250771169476E7 ; 2.081879210407401E10 ; 0.0
113 ; 512659.2411897501 ; 2.0044015419805372E8 ; 5.2174640126074344E7 ; 2.1019231000293434E10 ; 0.0
114 ; 513789.79458867805 ; 2.004414096316799E8 ; 5.268729936726409E7 ; 2.121967115449149E10 ; 0.0
115 ; 512645.99491116963 ; 2.0044266249314675E8 ; 5.320108916185277E7 ; 2.142011256412317E10 ; 0.0
116 ; 510904.1240836242 ; 2.0044391275546563E8 ; 5.371373515676394E7 ; 2.1620555226616314E10 ; 0.0
117 ; 511098.2141499865 ; 2.0044516039181173E8 ; 5.4224639280847564E7 ; 2.182099913937178E10 ; 0.0
118 ; 510148.36266579176 ; 2.004464053755195E8 ; 5.473573749499755E7 ; 2.202144429976359E10 ; 0.0
119 ; 510562.0155453313 ; 2.004476476800782E8 ; 5.524588585766335E7 ; 2.222189070513911E10 ; 0.0
120 ; 509882.12492591585 ; 2.0044888727912778E8 ; 5.575644787320868E7 ; 2.2422338352819187E10 ; 0.0
121 ; 509226.5989501486 ; 2.004501241464549E8 ; 5.62663299981346E7 ; 2.2622787240098316E10 ; 0.0
122 ; 508040.60002816276 ; 2.004513582559894E8 ; 5.6775556597084746E7 ; 2.282323736424477E10 ; 0.0
123 ; 507806.64583198726 ; 2.0045258958180067E8 ; 5.728359719711291E7 ; 2.302368872250076E10 ; 0.0
124 ; 506565.72421174595 ; 2.0045381809809446E8 ; 5.77914038429449E7 ; 2.322414131208256E10 ; 0.0
125 ; 506668.1003583529 ; 2.0045504377920988E8 ; 5.829796956715664E7 ; 2.3424595130180656E10 ; 0.0
126 ; 506166.3840727318 ; 2.004562665996164E8 ; 5.8804637667514995E7 ; 2.3625050173959866E10 ; 0.0
127 ; 503862.82866733696 ; 2.0045748653391126E8 ; 5.931080405158772E7 ; 2.3825506440559483E10 ; 0.0
128 ; 504430.4520033484 ; 2.004587035568167E8 ; 5.981466688025506E7 ; 2.4025963927093395E10 ; 0.0
129 ; 504522.7014321361 ; 2.0045991764317778E8 ; 6.03190973322584E7 ; 2.422642263065021E10 ; 0.0
130 ; 504412.7380868775 ; 2.0046112876795995E8 ; 6.082362003369054E7 ; 2.442688254829339E10 ; 0.0
131 ; 499276.3985595149 ; 2.0046233690624696E8 ; 6.132803277177742E7 ; 2.4627343677061348E10 ; 0.0
132 ; 499531.8255737217 ; 2.0046354203323886E8 ; 6.182730917033694E7 ; 2.4827806013967594E10 ; 0.0
133 ; 498461.49961685966 ; 2.0046474412425005E8 ; 6.232684099591066E7 ; 2.502826955600083E10 ; 0.0
134 ; 497171.7108940201 ; 2.0046594315470758E8 ; 6.282530249552752E7 ; 2.522873430012508E10 ; 0.0
135 ; 496361.4679449447 ; 2.0046713910014933E8 ; 6.332247420642154E7 ; 2.542920024327979E10 ; 0.0
136 ; 494406.5510057961 ; 2.0046833193622255E8 ; 6.381883567436648E7 ; 2.562966738237994E10 ; 0.0
137 ; 492141.6955117006 ; 2.0046952163868234E8 ; 6.431324222537228E7 ; 2.5830135714316162E10 ; 0.0
138 ; 493170.740550043 ; 2.0047070818339014E8 ; 6.4805383920883976E7 ; 2.6030605235954845E10 ; 0.0
139 ; 489820.33437026525 ; 2.004718915463126E8 ; 6.529855466143402E7 ; 2.6231075944138237E10 ; 0.0
140 ; 488877.85992334003 ; 2.004730717035202E8 ; 6.578837499580428E7 ; 2.643154783568455E10 ; 0.0
141 ; 486874.4313617074 ; 2.004742486311861E8 ; 6.627725285572762E7 ; 2.6632020907388073E10 ; 0.0
142 ; 486981.3581488353 ; 2.004754223055851E8 ; 6.6764127287089325E7 ; 2.683249515601926E10 ; 0.0
143 ; 483846.8929966226 ; 2.0047659270309252E8 ; 6.725110864523816E7 ; 2.7032970578324844E10 ; 0.0
144 ; 483493.81237756717 ; 2.0047775980018336E8 ; 6.773495553823479E7 ; 2.7233447171027935E10 ; 0.0
145 ; 481815.122648686 ; 2.004789235734313E8 ; 6.821844935061236E7 ; 2.7433924930828117E10 ; 0.0
146 ; 481678.78957818175 ; 2.0048008399950787E8 ; 6.870026447326104E7 ; 2.763440385440155E10 ; 0.0
147 ; 482791.8764387821 ; 2.0048124105518168E8 ; 6.918194326283923E7 ; 2.783488393840106E10 ; 0.0
148 ; 480593.2542300165 ; 2.0048239471731764E8 ; 6.966473513927801E7 ; 2.803536517945624E10 ; 0.0
149 ; 479137.2111111185 ; 2.004835449628763E8 ; 7.014532839350803E7 ; 2.823584757417356E10 ; 0.0
150 ; 478711.54422474996 ; 2.004846917689132E8 ; 7.062446560461915E7 ; 2.8436331119136436E10 ; 0.0
151 ; 478834.8467725611 ; 2.004858351125783E8 ; 7.11031771488439E7 ; 2.863681581090535E10 ; 0.0
152 ; 477630.6113450822 ; 2.0048697497111526E8 ; 7.158201199561647E7 ; 2.883730164601793E10 ; 0.0
153 ; 476505.38562182494 ; 2.0048811132186112E8 ; 7.205964260696155E7 ; 2.9037788620989044E10 ; 0.0
154 ; 476470.36291088845 ; 2.0048924414224574E8 ; 7.253614799258338E7 ; 2.9238276732310905E10 ; 0.0
155 ; 475085.8445831848 ; 2.0049037340979123E8 ; 7.301261835549426E7 ; 2.943876597645315E10 ; 0.0
156 ; 474925.91798733507 ; 2.004914991021118E8 ; 7.348770420007744E7 ; 2.963925634986294E10 ; 0.0
157 ; 474480.4793982135 ; 2.0049262119691306E8 ; 7.396263011806478E7 ; 2.9839747848965054E10 ; 0.0
158 ; 472965.39310465613 ; 2.004937396719919E8 ; 7.4437110597463E7 ; 3.004024047016197E10 ; 0.0
159 ; 472405.824538673 ; 2.0049485450523615E8 ; 7.491007599056765E7 ; 3.024073420983396E10 ; 0.0
160 ; 473401.53518322203 ; 2.004959656746241E8 ; 7.538248181510633E7 ; 3.04412290643392E10 ; 0.0
161 ; 471565.03100645734 ; 2.004970731582244E8 ; 7.585588335028955E7 ; 3.0641725030013824E10 ; 0.0
162 ; 470749.5704929897 ; 2.0049817693419585E8 ; 7.632744838129601E7 ; 3.084222210317205E10 ; 0.0
163 ; 469553.05736355635 ; 2.0049927698078698E8 ; 7.679819795178899E7 ; 3.1042720280106247E10 ; 0.0
164 ; 469770.89798594185 ; 2.0050037327633604E8 ; 7.726775100915255E7 ; 3.1243219557087032E10 ; 0.0
165 ; 469975.282444336 ; 2.0050146579927075E8 ; 7.773752190713848E7 ; 3.144371993036337E10 ; 0.0
166 ; 467839.33796151803 ; 2.0050255452810815E8 ; 7.820749718958282E7 ; 3.164422139616264E10 ; 0.0
167 ; 468447.65831593616 ; 2.0050363944145444E8 ; 7.867533652754435E7 ; 3.1844723950690746E10 ; 0.0
168 ; 467865.9047860707 ; 2.005047205180049E8 ; 7.914378418586029E7 ; 3.2045227590132202E10 ; 0.0
169 ; 466312.33067895274 ; 2.0050579773654377E8 ; 7.961165009064636E7 ; 3.2245732310650208E10 ; 0.0
170 ; 465603.62059927563 ; 2.0050687107594424E8 ; 8.007796242132531E7 ; 3.2446238108386753E10 ; 0.0
171 ; 463644.21726961766 ; 2.0050794051516825E8 ; 8.054356604192458E7 ; 3.2646744979462696E10 ; 0.0
172 ; 464300.58045775694 ; 2.0050900603326648E8 ; 8.10072102591942E7 ; 3.2847252919977863E10 ; 0.0
173 ; 462815.16403107677 ; 2.0051006760937846E8 ; 8.147151083965196E7 ; 3.304776192601113E10 ; 0.0
174 ; 462543.18450795923 ; 2.005111252227323E8 ; 8.193432600368303E7 ; 3.324827199362051E10 ; 0.0
175 ; 462878.8857678486 ; 2.0051217885264492E8 ; 8.2396869188191E7 ; 3.3448783118843243E10 ; 0.0
176 ; 461312.182244011 ; 2.0051322847852185E8 ; 8.285974807395884E7 ; 3.364929529769589E10 ; 0.0
177 ; 461437.7816630419 ; 2.0051427407985747E8 ; 8.332106025620286E7 ; 3.384980852617441E10 ; 0.0
178 ; 459920.16771352163 ; 2.0051531563623473E8 ; 8.37824980378659E7 ; 3.405032280025427E10 ; 0.0
179 ; 459083.07382541033 ; 2.0051635312732556E8 ; 8.424241820557943E7 ; 3.4250838115890503E10 ; 0.0
180 ; 457960.785032928 ; 2.0051738653289062E8 ; 8.470150127940483E7 ; 3.445135446901783E10 ; 0.0
181 ; 458978.9477769887 ; 2.0051841583277947E8 ; 8.515946206443776E7 ; 3.465187185555072E10 ; 0.0
182 ; 456991.4346293694 ; 2.0051944100693065E8 ; 8.561844101221475E7 ; 3.48523902713835E10 ; 0.0
183 ; 457352.4690803178 ; 2.0052046203537178E8 ; 8.607543244684412E7 ; 3.505290971239043E10 ; 0.0
184 ; 458128.836668458 ; 2.005214788982196E8 ; 8.653278491592443E7 ; 3.52534301744258E10 ; 0.0
185 ; 456902.71036606346 ; 2.0052249157568002E8 ; 8.699091375259289E7 ; 3.545395165332401E10 ; 0.0
186 ; 458121.1339004187 ; 2.0052350004804835E8 ; 8.744781646295896E7 ; 3.56544741448997E10 ; 0.0
187 ; 456354.6515947998 ; 2.0052450429570928E8 ; 8.790593759685938E7 ; 3.585499764494775E10 ; 0.0
188 ; 455418.23718702426 ; 2.0052550429913715E8 ; 8.836229224845418E7 ; 3.6055522149243454E10 ; 0.0
189 ; 454290.2651095395 ; 2.0052650003889585E8 ; 8.881771048564121E7 ; 3.6256047653542595E10 ; 0.0
190 ; 454262.5605233552 ; 2.0052749149563918E8 ; 8.927200075075075E7 ; 3.645657415358149E10 ; 0.0
191 ; 452964.8878171124 ; 2.0052847865011087E8 ; 8.972626331127411E7 ; 3.6657101645077126E10 ; 0.0
192 ; 453090.7271614566 ; 2.0052946148314473E8 ; 9.017922819909123E7 ; 3.6857630123727234E10 ; 0.0
193 ; 452915.25164976536 ; 2.0053043997566476E8 ; 9.063231892625268E7 ; 3.705815958521038E10 ; 0.0
194 ; 452350.36435286124 ; 2.0053141410868546E8 ; 9.108523417790245E7 ; 3.725869002518604E10 ; 0.0
195 ; 451879.8735779852 ; 2.0053238386331183E8 ; 9.153758454225531E7 ; 3.745922143929473E10 ; 0.0
196 ; 450866.59914991417 ; 2.005333492207395E8 ; 9.19894644158333E7 ; 3.765975382315804E10 ; 0.0
197 ; 451004.1324852531 ; 2.0053431016225514E8 ; 9.24403310149832E7 ; 3.7860287172378784E10 ; 0.0
198 ; 451536.9338218117 ; 2.0053526666923636E8 ; 9.289133514746846E7 ; 3.806082148254104E10 ; 0.0
199 ; 449946.26587977266 ; 2.00536218723152E8 ; 9.334287208129027E7 ; 3.826135674921027E10 ; 0.0
200 ; 448718.17144056794 ; 2.0053716630556238E8 ; 9.379281834717005E7 ; 3.8461892967933426E10 ; 0.0
201 ; 450089.44019848405 ; 2.0053810939811933E8 ; 9.424153651861063E7 ; 3.866243013423899E10 ; 0.0
