CSV File for the City 6 on Day 355
1 - Minute m 
2 - Power Consumed at minute m 
3 - Power Produced at minute m 
4 - Energy Consumed since the beginning of the day 
5 - Energy Produced since the beginning of the day 
6 - Energy Lost since the beginning of the day on lines starting from the city
 
0 ; 1.1155807475599675E7 ; 1.0601640306832507E8 ; 0.0 ; 0.0 ; 0.0
1 ; 1.1168152884341372E7 ; 1.0616723947523642E8 ; 1.1155807475599675E7 ; 1.0601640306832507E8 ; 0.0
2 ; 1.1178402394889846E7 ; 1.0662707180791453E8 ; 2.2323960359941047E7 ; 2.121836425435615E8 ; 0.0
3 ; 1.1192285262206303E7 ; 1.0739590423690945E8 ; 3.3502362754830893E7 ; 3.18810714351476E8 ; 0.0
4 ; 1.121099958770968E7 ; 1.084737405066458E8 ; 4.46946480170372E7 ; 4.2620661858838546E8 ; 0.0
5 ; 1.1233224059686445E7 ; 1.098605839123702E8 ; 5.590564760474688E7 ; 5.3468035909503126E8 ; 0.0
6 ; 1.1257720607081084E7 ; 1.1155643727942911E8 ; 6.713887166443333E7 ; 6.445409430074015E8 ; 0.0
7 ; 1.1295604061766494E7 ; 1.1356130294517553E8 ; 7.839659227151442E7 ; 7.560973802868305E8 ; 0.0
8 ; 1.134611260881506E7 ; 1.158751827437728E8 ; 8.96921963332809E7 ; 8.696586832320061E8 ; 0.0
9 ; 1.142828457860753E7 ; 1.1849807799412417E8 ; 1.0103830894209597E8 ; 9.855338659757788E8 ; 0.0
10 ; 1.1554781917298838E7 ; 1.2142998949111408E8 ; 1.124665935207035E8 ; 1.104031943969903E9 ; 0.0
11 ; 1.1749032712147068E7 ; 1.2467091750029704E8 ; 1.2402137543800233E8 ; 1.2254619334610171E9 ; 0.0
12 ; 1.206596763348266E7 ; 1.282208617561185E8 ; 1.357704081501494E8 ; 1.3501328509613142E9 ; 0.0
13 ; 1.2372481106148684E7 ; 1.3207982146369404E8 ; 1.4783637578363207E8 ; 1.4783537127174327E9 ; 0.0
14 ; 1.2409272935457986E7 ; 1.3624779530412048E8 ; 1.6020885688978076E8 ; 1.6104335341811268E9 ; 0.0
15 ; 1.2425029702561084E7 ; 1.4072478144323438E8 ; 1.7261812982523873E8 ; 1.7466813294852474E9 ; 0.0
16 ; 1.243165409102953E7 ; 1.4551077754368284E8 ; 1.8504315952779981E8 ; 1.8874061109284818E9 ; 0.0
17 ; 1.2450498443577131E7 ; 1.5060578078011933E8 ; 1.9747481361882934E8 ; 2.0329168884721646E9 ; 0.0
18 ; 1.2460610505073441E7 ; 1.5600978785729724E8 ; 2.0992531206240648E8 ; 2.183522669252284E9 ; 0.0
19 ; 1.247750399484282E7 ; 1.6172279503079197E8 ; 2.223859225674799E8 ; 2.3395324571095815E9 ; 0.0
20 ; 1.2492411217641676E7 ; 1.6774479813005343E8 ; 2.3486342656232274E8 ; 2.501255252140373E9 ; 0.0
21 ; 1.2511976972992642E7 ; 1.740757925834684E8 ; 2.4735583777996442E8 ; 2.6690000502704268E9 ; 0.0
22 ; 1.2521308514799874E7 ; 1.807157734450931E8 ; 2.5986781475295705E8 ; 2.843075842853895E9 ; 0.0
23 ; 1.2539315006239668E7 ; 1.8766473542271173E8 ; 2.7238912326775694E8 ; 3.0237916162989883E9 ; 0.0
24 ; 1.255158479874761E7 ; 1.9492267290687484E8 ; 2.849284382739966E8 ; 3.2114563517217E9 ; 0.0
25 ; 1.2565713565355983E7 ; 2.0117762089876068E8 ; 2.974800230727442E8 ; 3.406379024628575E9 ; 0.0
26 ; 1.2581896534963407E7 ; 2.011831210770613E8 ; 3.1004573663810015E8 ; 3.6075566455273356E9 ; 0.0
27 ; 1.2590349407275716E7 ; 2.0118893635287982E8 ; 3.226276331730636E8 ; 3.808739766604397E9 ; 0.0
28 ; 1.2607946203784367E7 ; 2.0119506014621353E8 ; 3.352179825803393E8 ; 4.009928702957277E9 ; 0.0
29 ; 1.2623517539067112E7 ; 2.0120148570836574E8 ; 3.4782592878412366E8 ; 4.2111237631034904E9 ; 0.0
30 ; 1.263735587626675E7 ; 2.0120820615033624E8 ; 3.6044944632319075E8 ; 4.412325248811856E9 ; 0.0
31 ; 1.2650609661864273E7 ; 2.0121521447023332E8 ; 3.730868021994575E8 ; 4.613533454962193E9 ; 0.0
32 ; 1.2660929191145007E7 ; 2.0122250357953578E8 ; 3.857374118613218E8 ; 4.8147486694324255E9 ; 0.0
33 ; 1.2674575114829628E7 ; 2.0123006632806376E8 ; 3.983983410524668E8 ; 5.015971173011961E9 ; 0.0
34 ; 1.2685814399729494E7 ; 2.012378955275478E8 ; 4.110729161672964E8 ; 5.217201239340025E9 ; 0.0
35 ; 1.269679830853854E7 ; 2.012459839737128E8 ; 4.237587305670259E8 ; 5.418439134867573E9 ; 0.0
36 ; 1.2710770109575227E7 ; 2.0125432446682099E8 ; 4.3645552887556446E8 ; 5.619685118841286E9 ; 0.0
37 ; 1.2722534624532066E7 ; 2.012629098306424E8 ; 4.4916629898513967E8 ; 5.820939443308106E9 ; 0.0
38 ; 1.2733518082455028E7 ; 2.012717329298428E8 ; 4.618888336096717E8 ; 6.022202353138749E9 ; 0.0
39 ; 1.2744394326039992E7 ; 2.0128078668579894E8 ; 4.7462235169212675E8 ; 6.223474086068592E9 ; 0.0
40 ; 1.275203217544573E7 ; 2.0129006409086794E8 ; 4.873667460181667E8 ; 6.424754872754391E9 ; 0.0
41 ; 1.2761213422413033E7 ; 2.0129955822115153E8 ; 5.0011877819361246E8 ; 6.626044936845259E9 ; 0.0
42 ; 1.2770132341212532E7 ; 2.0130926224780795E8 ; 5.128799916160255E8 ; 6.82734449506641E9 ; 0.0
43 ; 1.278158689778003E7 ; 2.0131916944697425E8 ; 5.25650123957238E8 ; 7.028653757314218E9 ; 0.0
44 ; 1.2786977686773824E7 ; 2.013292732083678E8 ; 5.38431710855018E8 ; 7.229972926761191E9 ; 0.0
45 ; 1.2793070639770044E7 ; 2.01339567042643E8 ; 5.512186885417918E8 ; 7.431302199969559E9 ; 0.0
46 ; 1.2800277417314295E7 ; 2.0135004458758065E8 ; 5.640117591815618E8 ; 7.632641767012201E9 ; 0.0
47 ; 1.2807121689676637E7 ; 2.013606996131915E8 ; 5.768120365988761E8 ; 7.833991811599782E9 ; 0.0
48 ; 1.2810593127503304E7 ; 2.0137152602581456E8 ; 5.896191582885528E8 ; 8.035352511212974E9 ; 0.0
49 ; 1.2816413633572891E7 ; 2.0138251787129107E8 ; 6.02429751416056E8 ; 8.236724037238789E9 ; 0.0
50 ; 1.2818034251984453E7 ; 2.013936693372932E8 ; 6.15246165049629E8 ; 8.43810655511008E9 ; 0.0
51 ; 1.2822521991314137E7 ; 2.0140497475488484E8 ; 6.280641993016135E8 ; 8.639500224447372E9 ; 0.0
52 ; 1.2828799137361307E7 ; 2.0141642859938797E8 ; 6.408867212929276E8 ; 8.840905199202257E9 ; 0.0
53 ; 1.2831197202385508E7 ; 2.014280254906259E8 ; 6.537155204302889E8 ; 9.042321627801645E9 ; 0.0
54 ; 1.2833513106625412E7 ; 2.0143976019261E8 ; 6.665467176326745E8 ; 9.24374965329227E9 ; 0.0
55 ; 1.2836499941091927E7 ; 2.0145162761273363E8 ; 6.793802307392999E8 ; 9.44518941348488E9 ; 0.0
56 ; 1.2843473299346272E7 ; 2.0146362280053142E8 ; 6.922167306803918E8 ; 9.646641041097614E9 ; 0.0
57 ; 1.2843780335288974E7 ; 2.014757409460597E8 ; 7.050602039797381E8 ; 9.848104663898146E9 ; 0.0
58 ; 1.2847525506895097E7 ; 2.0148797737794876E8 ; 7.179039843150271E8 ; 1.0049580404844206E10 ; 0.0
59 ; 1.285001080570025E7 ; 2.0150032756117302E8 ; 7.307515098219222E8 ; 1.0251068382222155E10 ; 0.0
60 ; 1.2855975463779645E7 ; 2.0151278709458306E8 ; 7.436015206276225E8 ; 1.0452568709783327E10 ; 0.0
61 ; 1.2856735980062282E7 ; 2.015253517082377E8 ; 7.564574960914022E8 ; 1.065408149687791E10 ; 0.0
62 ; 1.2863251418039326E7 ; 2.0153801726057222E8 ; 7.693142320714644E8 ; 1.085560684858615E10 ; 0.0
63 ; 1.286514353372988E7 ; 2.015507797354342E8 ; 7.821774834895037E8 ; 1.1057144865846722E10 ; 0.0
64 ; 1.2864637590440163E7 ; 2.015636352390164E8 ; 7.950426270232337E8 ; 1.1258695645582155E10 ; 0.0
65 ; 1.2868422563022746E7 ; 2.01576579996712E8 ; 8.079072646136738E8 ; 1.146025928082117E10 ; 0.0
66 ; 1.2868359239968605E7 ; 2.015896103499154E8 ; 8.207756871766965E8 ; 1.1661835860817883E10 ; 0.0
67 ; 1.2871793230355795E7 ; 2.0160272275278893E8 ; 8.336440464166652E8 ; 1.1863425471167797E10 ; 0.0
68 ; 1.287202043157544E7 ; 2.0161591376901364E8 ; 8.465158396470209E8 ; 1.2065028193920586E10 ; 0.0
69 ; 1.2875909895364465E7 ; 2.0162918006853953E8 ; 8.593878600785964E8 ; 1.22666441076896E10 ; 0.0
70 ; 1.2876834199713208E7 ; 2.0164251842434937E8 ; 8.722637699739609E8 ; 1.2468273287758139E10 ; 0.0
71 ; 1.2878202573019452E7 ; 2.0165592570924798E8 ; 8.851406041736741E8 ; 1.2669915806182487E10 ; 0.0
72 ; 1.2880201104753558E7 ; 2.0166939889268714E8 ; 8.980188067466936E8 ; 1.2871571731891735E10 ; 0.0
73 ; 1.2880514859487912E7 ; 2.016829350376349E8 ; 9.108990078514472E8 ; 1.3073241130784422E10 ; 0.0
74 ; 1.2888215531794112E7 ; 2.016965312974968E8 ; 9.237795227109351E8 ; 1.3274924065822058E10 ; 0.0
75 ; 1.2881729894363362E7 ; 2.017101849130951E8 ; 9.366677382427292E8 ; 1.3476620597119555E10 ; 0.0
76 ; 1.2884855891749447E7 ; 2.0172389320971128E8 ; 9.495494681370926E8 ; 1.367833078203265E10 ; 0.0
77 ; 1.288910515519448E7 ; 2.017376535941956E8 ; 9.624343240288421E8 ; 1.3880054675242361E10 ; 0.0
78 ; 1.288298803185879E7 ; 2.017514635521474E8 ; 9.753234291840366E8 ; 1.4081792328836557E10 ; 0.0
79 ; 1.288145132451576E7 ; 2.0176532064516824E8 ; 9.882064172158954E8 ; 1.4283543792388704E10 ; 0.0
80 ; 1.2875839970106473E7 ; 2.0177922250819036E8 ; 1.0010878685404112E9 ; 1.4485309113033873E10 ; 0.0
81 ; 1.2872636655652396E7 ; 2.0179316684688064E8 ; 1.0139637085105177E9 ; 1.4687088335542063E10 ; 0.0
82 ; 1.2867627532973288E7 ; 2.0180715143512177E8 ; 1.0268363451661701E9 ; 1.4888881502388943E10 ; 0.0
83 ; 1.2866914978919117E7 ; 2.0182117411257058E8 ; 1.0397039726991434E9 ; 1.5090688653824064E10 ; 0.0
84 ; 1.286441282364557E7 ; 2.0183523278229314E8 ; 1.0525708876780626E9 ; 1.5292509827936634E10 ; 0.0
85 ; 1.2861013716269016E7 ; 2.018493254084764E8 ; 1.0654353005017081E9 ; 1.5494345060718927E10 ; 0.0
86 ; 1.2855806230444515E7 ; 2.018634500142158E8 ; 1.078296314217977E9 ; 1.5696194386127403E10 ; 0.0
87 ; 1.2856021438400062E7 ; 2.0187760467937744E8 ; 1.0911521204484215E9 ; 1.5898057836141619E10 ; 0.0
88 ; 1.2848541036462296E7 ; 2.01891787538534E8 ; 1.1040081418868215E9 ; 1.6099935440820995E10 ; 0.0
89 ; 1.284654974582894E7 ; 2.0190599677897277E8 ; 1.1168566829232838E9 ; 1.630182722835953E10 ; 0.0
90 ; 1.2839261557461217E7 ; 2.0192023063877454E8 ; 1.1297032326691127E9 ; 1.6503733225138502E10 ; 0.0
91 ; 1.283422667933527E7 ; 2.0193448740496156E8 ; 1.142542494226574E9 ; 1.6705653455777277E10 ; 0.0
92 ; 1.2834882025543235E7 ; 2.0194876541171268E8 ; 1.1553767209059093E9 ; 1.6907587943182238E10 ; 0.0
93 ; 1.283064546037238E7 ; 2.0196306303864458E8 ; 1.1682116029314525E9 ; 1.710953670859395E10 ; 0.0
94 ; 1.2826015502321044E7 ; 2.0197737870915636E8 ; 1.181042248391825E9 ; 1.7311499771632595E10 ; 0.0
95 ; 1.2821574178361582E7 ; 2.019917108888363E8 ; 1.193868263894146E9 ; 1.751347715034175E10 ; 0.0
96 ; 1.2815418035749186E7 ; 2.0200605808392867E8 ; 1.2066898380725076E9 ; 1.7715468861230587E10 ; 0.0
97 ; 1.2807548515530162E7 ; 2.0202041883985874E8 ; 1.2195052561082568E9 ; 1.7917474919314514E10 ; 0.0
98 ; 1.2802903847843047E7 ; 2.0203479173981386E8 ; 1.232312804623787E9 ; 1.8119495338154373E10 ; 0.0
99 ; 1.2799490143222036E7 ; 2.0204917540337938E8 ; 1.2451157084716299E9 ; 1.8321530129894188E10 ; 0.0
100 ; 1.279518938882549E7 ; 2.0206356848522675E8 ; 1.257915198614852E9 ; 1.8523579305297565E10 ; 0.0
101 ; 1.2788590636431312E7 ; 2.0207796967385262E8 ; 1.2707103880036774E9 ; 1.872564287378279E10 ; 0.0
102 ; 1.2778554812449982E7 ; 2.0209237769036666E8 ; 1.2834989786401086E9 ; 1.8927720843456642E10 ; 0.0
103 ; 1.2773392701516794E7 ; 2.021067912873267E8 ; 1.2962775334525585E9 ; 1.9129813221147007E10 ; 0.0
104 ; 1.2770298555112498E7 ; 2.021212092476193E8 ; 1.3090509261540754E9 ; 1.9331920012434334E10 ; 0.0
105 ; 1.2761896953106714E7 ; 2.0213563038338402E8 ; 1.321821224709188E9 ; 1.9534041221681953E10 ; 0.0
106 ; 1.2755002834183214E7 ; 2.0215005353497985E8 ; 1.3345831216622946E9 ; 1.973617685206534E10 ; 0.0
107 ; 1.2750620129245328E7 ; 2.02164477569992E8 ; 1.3473381244964778E9 ; 1.993832690560032E10 ; 0.0
108 ; 1.274159567014576E7 ; 2.0217890138227797E8 ; 1.3600887446257231E9 ; 2.014049138317031E10 ; 0.0
109 ; 1.2738500414554657E7 ; 2.021933238910506E8 ; 1.3728303402958689E9 ; 2.034267028455259E10 ; 0.0
110 ; 1.27323264785375E7 ; 2.022077440399976E8 ; 1.3855688407104235E9 ; 2.054486360844364E10 ; 0.0
111 ; 1.2723925826533312E7 ; 2.0222216079643536E8 ; 1.398301167188961E9 ; 2.074707135248364E10 ; 0.0
112 ; 1.2715637936176186E7 ; 2.022365731504959E8 ; 1.4110250930154943E9 ; 2.0949293513280075E10 ; 0.0
113 ; 1.2710338481898779E7 ; 2.022509801143459E8 ; 1.4237407309516706E9 ; 2.1151530086430573E10 ; 0.0
114 ; 1.2702661094822606E7 ; 2.022653807214365E8 ; 1.4364510694335694E9 ; 2.1353781066544918E10 ; 0.0
115 ; 1.269973202149186E7 ; 2.0227977402578187E8 ; 1.449153730528392E9 ; 2.1556046447266354E10 ; 0.0
116 ; 1.2689029072694788E7 ; 2.0229415910126674E8 ; 1.4618534625498838E9 ; 2.1758326221292137E10 ; 0.0
117 ; 1.2682300782486193E7 ; 2.0230853504098046E8 ; 1.4745424916225786E9 ; 2.1960620380393402E10 ; 0.0
118 ; 1.2674530900264965E7 ; 2.0232290095657736E8 ; 1.4872247924050648E9 ; 2.2162928915434383E10 ; 0.0
119 ; 1.266835712278124E7 ; 2.0233725597766173E8 ; 1.4998993233053298E9 ; 2.236525181639096E10 ; 0.0
120 ; 1.2656688607170606E7 ; 2.0235159925119704E8 ; 1.512567680428111E9 ; 2.256758907236862E10 ; 0.0
121 ; 1.2652924042788805E7 ; 2.0236592994093788E8 ; 1.5252243690352817E9 ; 2.276994067161982E10 ; 0.0
122 ; 1.264533162575784E7 ; 2.0238024722688395E8 ; 1.5378772930780704E9 ; 2.2972306601560757E10 ; 0.0
123 ; 1.263452122789315E7 ; 2.0239455030475524E8 ; 1.5505226247038283E9 ; 2.317468684878764E10 ; 0.0
124 ; 1.262816533899995E7 ; 2.024088383854873E8 ; 1.5631571459317214E9 ; 2.3377081399092396E10 ; 0.0
125 ; 1.261756341394033E7 ; 2.0242311069474605E8 ; 1.5757853112707214E9 ; 2.3579490237477882E10 ; 0.0
126 ; 1.260960072483899E7 ; 2.0243736647246125E8 ; 1.5884028746846619E9 ; 2.378191334817263E10 ; 0.0
127 ; 1.2600432544841925E7 ; 2.0245160497237784E8 ; 1.6010124754095008E9 ; 2.3984350714645092E10 ; 0.0
128 ; 1.2591867745324321E7 ; 2.024658254616241E8 ; 1.6136129079543428E9 ; 2.418680231961747E10 ; 0.0
129 ; 1.2581384252056995E7 ; 2.0248002722029683E8 ; 1.6262047756996672E9 ; 2.4389268145079094E10 ; 0.0
130 ; 1.256970827196982E7 ; 2.0249420954106185E8 ; 1.6387861599517243E9 ; 2.459174817229939E10 ; 0.0
131 ; 1.255921495597462E7 ; 2.0250837172876978E8 ; 1.651355868223694E9 ; 2.479424238184045E10 ; 0.0
132 ; 1.254532573617329E7 ; 2.0252251310008645E8 ; 1.6639150831796687E9 ; 2.499675075356922E10 ; 0.0
133 ; 1.2534886525368161E7 ; 2.0253663298313698E8 ; 1.676460408915842E9 ; 2.5199273266669308E10 ; 0.0
134 ; 1.2519836212980911E7 ; 2.0255073071716347E8 ; 1.6889952954412103E9 ; 2.5401809899652443E10 ; 0.0
135 ; 1.2504699373859467E7 ; 2.0256480565219548E8 ; 1.7015151316541913E9 ; 2.5604360630369606E10 ; 0.0
136 ; 1.2493032278197097E7 ; 2.0257885714873266E8 ; 1.7140198310280507E9 ; 2.58069254360218E10 ; 0.0
137 ; 1.248071013351661E7 ; 2.025928845774394E8 ; 1.7265128633062477E9 ; 2.6009504293170532E10 ; 0.0
138 ; 1.2468621568067607E7 ; 2.0260688731885064E8 ; 1.7389935734397643E9 ; 2.621209717774797E10 ; 0.0
139 ; 1.245120860751446E7 ; 2.026208647630887E8 ; 1.7514621950078318E9 ; 2.6414704065066822E10 ; 0.0
140 ; 1.24395714213653E7 ; 2.0263481630959055E8 ; 1.7639134036153462E9 ; 2.661732492982991E10 ; 0.0
141 ; 1.2426832708569692E7 ; 2.0264874136684495E8 ; 1.7763529750367115E9 ; 2.68199597461395E10 ; 0.0
142 ; 1.2412237535950467E7 ; 2.0266263935213947E8 ; 1.7887798077452812E9 ; 2.7022608487506344E10 ; 0.0
143 ; 1.239915818970534E7 ; 2.0267650969131657E8 ; 1.8011920452812316E9 ; 2.7225271126858482E10 ; 0.0
144 ; 1.2381930191870427E7 ; 2.026903518185386E8 ; 1.813591203470937E9 ; 2.7427947636549797E10 ; 0.0
145 ; 1.2373638257301297E7 ; 2.0270416517606142E8 ; 1.8259731336628075E9 ; 2.7630637988368336E10 ; 0.0
146 ; 1.2364415767883206E7 ; 2.027179492140161E8 ; 1.8383467719201088E9 ; 2.7833342153544395E10 ; 0.0
147 ; 1.235335561174351E7 ; 2.0273170339019862E8 ; 1.850711187687992E9 ; 2.803606010275841E10 ; 0.0
148 ; 1.2347734134922545E7 ; 2.0274542716986698E8 ; 1.8630645432997355E9 ; 2.823879180614861E10 ; 0.0
149 ; 1.2336914899102274E7 ; 2.0275912002554575E8 ; 1.875412277434658E9 ; 2.8441537233318478E10 ; 0.0
150 ; 1.232646547320686E7 ; 2.0277278143683738E8 ; 1.8877491923337603E9 ; 2.8644296353344025E10 ; 0.0
151 ; 1.2313746742729269E7 ; 2.0278641089024058E8 ; 1.900075657806967E9 ; 2.884706913478086E10 ; 0.0
152 ; 1.2306549501586214E7 ; 2.0280000787897474E8 ; 1.9123894045496962E9 ; 2.90498555456711E10 ; 0.0
153 ; 1.2296762665408593E7 ; 2.0281357190281084E8 ; 1.9246959540512824E9 ; 2.9252655553550076E10 ; 0.0
154 ; 1.228479568257835E7 ; 2.028271024679083E8 ; 1.936992716716691E9 ; 2.9455469125452885E10 ; 0.0
155 ; 1.2275671768720517E7 ; 2.0284059908665738E8 ; 1.9492775123992693E9 ; 2.965829622792079E10 ; 0.0
156 ; 1.2265098958528219E7 ; 2.0285406127752733E8 ; 1.96155318416799E9 ; 2.986113682700745E10 ; 0.0
157 ; 1.225841210069342E7 ; 2.0286748856491974E8 ; 1.9738182831265182E9 ; 3.0063990888284977E10 ; 0.0
158 ; 1.2248441219900897E7 ; 2.028808804790269E8 ; 1.9860766952272117E9 ; 3.0266858376849895E10 ; 0.0
159 ; 1.2236087736386802E7 ; 2.0289423655569538E8 ; 1.9983251364471126E9 ; 3.0469739257328922E10 ; 0.0
160 ; 1.2225979414339073E7 ; 2.0290755633629394E8 ; 2.0105612241834993E9 ; 3.0672633493884617E10 ; 0.0
161 ; 1.2213000490380397E7 ; 2.029208393675862E8 ; 2.0227872035978384E9 ; 3.087554105022091E10 ; 0.0
162 ; 1.2201751455732906E7 ; 2.0293408520160785E8 ; 2.0350002040882187E9 ; 3.1078461889588497E10 ; 0.0
163 ; 1.2194466293729251E7 ; 2.029472933955477E8 ; 2.0472019555439515E9 ; 3.1281395974790104E10 ; 0.0
164 ; 1.2183706235092023E7 ; 2.0296046351163304E8 ; 2.0593964218376808E9 ; 3.148434326818565E10 ; 0.0
165 ; 1.2171343708591199E7 ; 2.0297359511701897E8 ; 2.0715801280727727E9 ; 3.1687303731697285E10 ; 0.0
166 ; 1.2166221740235703E7 ; 2.0298668778368118E8 ; 2.083751471781364E9 ; 3.1890277326814304E10 ; 0.0
167 ; 1.2152566391156454E7 ; 2.0299974108831277E8 ; 2.0959176935215998E9 ; 3.2093264014597984E10 ; 0.0
168 ; 1.214059482836944E7 ; 2.0301275461222413E8 ; 2.1080702599127562E9 ; 3.22962637556863E10 ; 0.0
169 ; 1.2128687787663635E7 ; 2.0302572794124654E8 ; 2.1202108547411256E9 ; 3.2499276510298523E10 ; 0.0
170 ; 1.2121891626764268E7 ; 2.0303866066563877E8 ; 2.1323395425287893E9 ; 3.270230223823977E10 ; 0.0
171 ; 1.210716620667807E7 ; 2.0305155237999704E8 ; 2.1444614341555536E9 ; 3.2905340898905407E10 ; 0.0
172 ; 1.2095206045913069E7 ; 2.030644026831677E8 ; 2.1565686003622317E9 ; 3.3108392451285404E10 ; 0.0
173 ; 1.208720095943348E7 ; 2.0307721117816302E8 ; 2.168663806408145E9 ; 3.331145685396857E10 ; 0.0
174 ; 1.2080151600229803E7 ; 2.0308997747207972E8 ; 2.1807510073675785E9 ; 3.3514534065146732E10 ; 0.0
175 ; 1.2073178818873309E7 ; 2.0310270117602026E8 ; 2.1928311589678082E9 ; 3.3717624042618813E10 ; 0.0
176 ; 1.2069666980159672E7 ; 2.031153819050165E8 ; 2.2049043377866817E9 ; 3.3920726743794834E10 ; 0.0
177 ; 1.2061363601809764E7 ; 2.031280192779562E8 ; 2.2169740047668414E9 ; 3.4123842125699852E10 ; 0.0
178 ; 1.2055127786421457E7 ; 2.031406129175116E8 ; 2.2290353683686514E9 ; 3.432697014497781E10 ; 0.0
179 ; 1.2048602723246114E7 ; 2.0315316245007074E8 ; 2.2410904961550727E9 ; 3.4530110757895325E10 ; 0.0
180 ; 1.204024532315559E7 ; 2.031656675056705E8 ; 2.253139098878319E9 ; 3.47332639203454E10 ; 0.0
181 ; 1.2037383636170546E7 ; 2.031781277179323E8 ; 2.265179344201474E9 ; 3.493642958785107E10 ; 0.0
182 ; 1.2030855817411685E7 ; 2.0319054272399974E8 ; 2.2772167278376446E9 ; 3.5139607715569E10 ; 0.0
183 ; 1.20216806325523E7 ; 2.0320291216447806E8 ; 2.2892475836550565E9 ; 3.5342798258293E10 ; 0.0
184 ; 1.2015395038041228E7 ; 2.032152356833758E8 ; 2.3012692642876086E9 ; 3.554600117045747E10 ; 0.0
185 ; 1.2009510278300442E7 ; 2.0322751292804825E8 ; 2.3132846593256497E9 ; 3.574921640614085E10 ; 0.0
186 ; 1.2002520040263457E7 ; 2.0323974354914272E8 ; 2.32529416960395E9 ; 3.595244391906889E10 ; 0.0
187 ; 1.1996005063914841E7 ; 2.0325192720054564E8 ; 2.3372966896442137E9 ; 3.6155683662618034E10 ; 0.0
188 ; 1.1991451068503803E7 ; 2.0326406353933117E8 ; 2.3492926947081285E9 ; 3.635893558981858E10 ; 0.0
189 ; 1.198469572780108E7 ; 2.0327615222571167E8 ; 2.3612841457766323E9 ; 3.656219965335791E10 ; 0.0
190 ; 1.1977122643462243E7 ; 2.0328819292298964E8 ; 2.373268841504433E9 ; 3.676547580558362E10 ; 0.0
191 ; 1.1969896540472768E7 ; 2.033001852975112E8 ; 2.3852459641478953E9 ; 3.696876399850661E10 ; 0.0
192 ; 1.1960808831437869E7 ; 2.0331212901862097E8 ; 2.3972158606883683E9 ; 3.7172064183804115E10 ; 0.0
193 ; 1.1954153808629423E7 ; 2.033240237586186E8 ; 2.4091766695198064E9 ; 3.737537631282274E10 ; 0.0
194 ; 1.1950979160139918E7 ; 2.0333586919271642E8 ; 2.421130823328436E9 ; 3.757870033658136E10 ; 0.0
195 ; 1.194086313848285E7 ; 2.033476649989986E8 ; 2.433081802488576E9 ; 3.778203620577408E10 ; 0.0
