CSV File for the City 3 on Day 204
1 - Minute m 
2 - Power Consumed at minute m 
3 - Power Produced at minute m 
4 - Energy Consumed since the beginning of the day 
5 - Energy Produced since the beginning of the day 
6 - Energy Lost since the beginning of the day on lines starting from the city
 
0 ; 181696.32689446775 ; 1.0537831175492886E8 ; 0.0 ; 0.0 ; 0.0
1 ; 183390.26888351797 ; 1.0553094852349037E8 ; 181696.32689446775 ; 1.0537831175492886E8 ; 0.0
2 ; 186185.4082024591 ; 1.0599239295775989E8 ; 365086.59577798576 ; 2.1090926027841923E8 ; 0.0
3 ; 189628.13424182177 ; 1.0676264872800905E8 ; 551272.0039804449 ; 3.169016532361791E8 ; 0.0
4 ; 194308.8165835799 ; 1.078417191829524E8 ; 740900.1382222667 ; 4.2366430196418816E8 ; 0.0
5 ; 197812.80668030662 ; 1.0922960731220478E8 ; 935208.9548058466 ; 5.3150602114714056E8 ; 0.0
6 ; 202148.9194118564 ; 1.1092631571134457E8 ; 1133021.7614861531 ; 6.407356284593453E8 ; 0.0
7 ; 211183.55219834248 ; 1.1293184655048364E8 ; 1335170.6808980096 ; 7.5166194417069E8 ; 0.0
8 ; 222622.69840046283 ; 1.1524620154719871E8 ; 1546354.233096352 ; 8.645937907211735E8 ; 0.0
9 ; 239828.90761996416 ; 1.1786938194459379E8 ; 1768976.9314968148 ; 9.798399922683723E8 ; 0.0
10 ; 267457.0645865681 ; 1.2080138849513829E8 ; 2008805.839116779 ; 1.097709374212966E9 ; 0.0
11 ; 308486.71322529303 ; 1.2404222145076665E8 ; 2276262.903703347 ; 1.2185107627081041E9 ; 0.0
12 ; 374914.4116092147 ; 1.2759188055954441E8 ; 2584749.61692864 ; 1.3425529841588707E9 ; 0.0
13 ; 439764.2799482665 ; 1.3145036506900215E8 ; 2959664.0285378546 ; 1.470144864718415E9 ; 0.0
14 ; 446733.89604278834 ; 1.3561767373603594E8 ; 3399428.3084861212 ; 1.6015952297874172E9 ; 0.0
15 ; 449588.0857332551 ; 1.4009380484306896E8 ; 3846162.2045289096 ; 1.7372129035234532E9 ; 0.0
16 ; 451493.7196170821 ; 1.4487875621998945E8 ; 4295750.290262165 ; 1.8773067083665223E9 ; 0.0
17 ; 456093.2165992814 ; 1.4997252527121893E8 ; 4747244.009879246 ; 2.0221854645865119E9 ; 0.0
18 ; 461172.77027579764 ; 1.553751090071426E8 ; 5203337.226478528 ; 2.172157989857731E9 ; 0.0
19 ; 464431.6550205265 ; 1.6108650407904592E8 ; 5664509.996754326 ; 2.3275330988648734E9 ; 0.0
20 ; 468434.61447855295 ; 1.6710670681665722E8 ; 6128941.651774853 ; 2.488619602943919E9 ; 0.0
21 ; 470312.02646449156 ; 1.7343571326738653E8 ; 6597376.266253405 ; 2.6557263097605762E9 ; 0.0
22 ; 473037.58798918227 ; 1.8007351923638064E8 ; 7067688.292717896 ; 2.8291620230279627E9 ; 0.0
23 ; 476378.54100549285 ; 1.8702012032657188E8 ; 7540725.880707079 ; 3.0092355422643433E9 ; 0.0
24 ; 482078.09800179716 ; 1.9427551197798204E8 ; 8017104.421712572 ; 3.196255662590915E9 ; 0.0
25 ; 483387.2635573133 ; 2.0052773040382436E8 ; 8499182.519714369 ; 3.3905311745688972E9 ; 0.0
26 ; 487040.28104838205 ; 2.005303186634025E8 ; 8982569.783271682 ; 3.5910589049727216E9 ; 0.0
27 ; 491477.362033622 ; 2.0053304122068438E8 ; 9469610.064320063 ; 3.791589223636124E9 ; 0.0
28 ; 493917.3477596179 ; 2.005358932221064E8 ; 9961087.426353686 ; 3.9921222648568087E9 ; 0.0
29 ; 496916.3987946808 ; 2.0053886981801018E8 ; 1.0455004774113303E7 ; 4.192658158078915E9 ; 0.0
30 ; 502897.5772051508 ; 2.0054196618788695E8 ; 1.0951921172907984E7 ; 4.393197027896925E9 ; 0.0
31 ; 504646.3086583823 ; 2.0054517756265065E8 ; 1.1454818750113135E7 ; 4.593738994084812E9 ; 0.0
32 ; 506931.3140453731 ; 2.0054849924398544E8 ; 1.1959465058771517E7 ; 4.794284171647463E9 ; 0.0
33 ; 510178.4490035991 ; 2.0055192662086937E8 ; 1.246639637281689E7 ; 4.994832670891448E9 ; 0.0
34 ; 514640.6962827567 ; 2.0055545518341997E8 ; 1.297657482182049E7 ; 5.195384597512318E9 ; 0.0
35 ; 517399.7671910951 ; 2.0055908053423852E8 ; 1.3491215518103248E7 ; 5.395940052695738E9 ; 0.0
36 ; 520580.7237444918 ; 2.0056279839745107E8 ; 1.4008615285294343E7 ; 5.596499133229977E9 ; 0.0
37 ; 524375.7421301805 ; 2.005666046256563E8 ; 1.4529196009038834E7 ; 5.797061931627428E9 ; 0.0
38 ; 526094.3895686663 ; 2.0057049520499364E8 ; 1.5053571751169015E7 ; 5.997628536253084E9 ; 0.0
39 ; 529562.960800371 ; 2.005744662585439E8 ; 1.557966614073768E7 ; 6.198199031458077E9 ; 0.0
40 ; 531323.3255814516 ; 2.005785140482679E8 ; 1.610922910153805E7 ; 6.398773497716621E9 ; 0.0
41 ; 534286.0343362718 ; 2.005826349756773E8 ; 1.6640552427119503E7 ; 6.59935201176489E9 ; 0.0
42 ; 535672.2141249467 ; 2.005868255814208E8 ; 1.7174838461455774E7 ; 6.799934646740567E9 ; 0.0
43 ; 536655.5061704543 ; 2.0059108254395264E8 ; 1.771051067558072E7 ; 7.000521472321988E9 ; 0.0
44 ; 541336.1977302048 ; 2.0059540267743728E8 ; 1.8247166181751177E7 ; 7.201112554865941E9 ; 0.0
45 ; 542859.5769509207 ; 2.005997829290274E8 ; 1.8788502379481383E7 ; 7.401707957543378E9 ; 0.0
46 ; 543886.1071946285 ; 2.0060422037563822E8 ; 1.9331361956432305E7 ; 7.602307740472405E9 ; 0.0
47 ; 548201.7295240087 ; 2.0060871222032604E8 ; 1.9875248063626934E7 ; 7.802911960848043E9 ; 0.0
48 ; 548686.7820701565 ; 2.0061325578836647E8 ; 2.0423449793150943E7 ; 8.00352067306837E9 ; 0.0
49 ; 549283.8238686445 ; 2.006178485231136E8 ; 2.09721365752211E7 ; 8.204133928856736E9 ; 0.0
50 ; 551904.5743503585 ; 2.006224879817114E8 ; 2.1521420399089742E7 ; 8.404751777379849E9 ; 0.0
51 ; 552855.8820064053 ; 2.006271718307165E8 ; 2.20733249734401E7 ; 8.60537426536156E9 ; 0.0
52 ; 553688.6045283888 ; 2.0063189784168407E8 ; 2.2626180855446506E7 ; 8.806001437192278E9 ; 0.0
53 ; 553641.4547781193 ; 2.0063666388675788E8 ; 2.3179869459974896E7 ; 9.006633335033962E9 ; 0.0
54 ; 559902.1408021708 ; 2.0064146793430012E8 ; 2.3733510914753016E7 ; 9.207269998920721E9 ; 0.0
55 ; 558125.099189261 ; 2.0064630804458886E8 ; 2.4293413055555187E7 ; 9.40791146685502E9 ; 0.0
56 ; 559680.6484665156 ; 2.006511823656062E8 ; 2.4851538154744446E7 ; 9.608557774899609E9 ; 0.0
57 ; 560665.8061410744 ; 2.0065608912893435E8 ; 2.5411218803210963E7 ; 9.809208957265215E9 ; 0.0
58 ; 562407.5169283765 ; 2.006610266457741E8 ; 2.5971884609352037E7 ; 1.000986504639415E10 ; 0.0
59 ; 564086.4152551763 ; 2.0066599330309498E8 ; 2.6534292126280412E7 ; 1.0210526073039925E10 ; 0.0
60 ; 565454.1391343797 ; 2.006709875599245E8 ; 2.709837854153559E7 ; 1.041119206634302E10 ; 0.0
61 ; 566729.1516527414 ; 2.0067600794378123E8 ; 2.766383268066997E7 ; 1.0611863053902945E10 ; 0.0
62 ; 567881.2296507431 ; 2.0068105304725376E8 ; 2.8230561832322713E7 ; 1.0812539061846725E10 ; 0.0
63 ; 568757.7854536093 ; 2.0068612152472648E8 ; 2.8798443061973456E7 ; 1.101322011489398E10 ; 0.0
64 ; 569080.2361903673 ; 2.0069121208925152E8 ; 2.9367200847427066E7 ; 1.1213906236418707E10 ; 0.0
65 ; 569535.9404460178 ; 2.0069632350956473E8 ; 2.9936281083617434E7 ; 1.1414597448507957E10 ; 0.0
66 ; 572779.3645609883 ; 2.0070145460724327E8 ; 3.0505817024063453E7 ; 1.1615293772017523E10 ; 0.0
67 ; 574505.974578928 ; 2.0070660425400114E8 ; 3.107859638862444E7 ; 1.1815995226624765E10 ; 0.0
68 ; 574824.3780844205 ; 2.007117713691186E8 ; 3.165310236320337E7 ; 1.2016701830878767E10 ; 0.0
69 ; 576254.7439912857 ; 2.0071695491700113E8 ; 3.222792674128779E7 ; 1.2217413602247885E10 ; 0.0
70 ; 576794.3051836869 ; 2.0072215390486315E8 ; 3.2804181485279076E7 ; 1.2418130557164886E10 ; 0.0
71 ; 577949.2482682231 ; 2.0072736738053188E8 ; 3.3380975790462762E7 ; 1.261885271106975E10 ; 0.0
72 ; 580035.2722832703 ; 2.0073259443036577E8 ; 3.395892503873099E7 ; 1.2819580078450281E10 ; 0.0
73 ; 580030.5053080582 ; 2.0073783417728305E8 ; 3.453896031101426E7 ; 1.3020312672880648E10 ; 0.0
74 ; 580933.2011168055 ; 2.0074308577889514E8 ; 3.511899081632232E7 ; 1.322105050705793E10 ; 0.0
75 ; 581140.4360262997 ; 2.0074834842573974E8 ; 3.569992401743913E7 ; 1.3421793592836824E10 ; 0.0
76 ; 584268.0073145584 ; 2.007536213396091E8 ; 3.6281064453465424E7 ; 1.3622541941262564E10 ; 0.0
77 ; 583706.9868603676 ; 2.0075890377196857E8 ; 3.686533246077998E7 ; 1.3823295562602173E10 ; 0.0
78 ; 584469.9822603642 ; 2.0076419500246075E8 ; 3.7449039447640345E7 ; 1.4024054466374142E10 ; 0.0
79 ; 585447.0533859747 ; 2.0076949433749077E8 ; 3.8033509429900706E7 ; 1.4224818661376602E10 ; 0.0
80 ; 585023.4172584591 ; 2.0077480110888854E8 ; 3.861895648328668E7 ; 1.4425588155714092E10 ; 0.0
81 ; 585275.1563061005 ; 2.0078011467264393E8 ; 3.9203979900545135E7 ; 1.462636295682298E10 ; 0.0
82 ; 586295.9588948637 ; 2.007854344077106E8 ; 3.978925505685124E7 ; 1.4827143071495625E10 ; 0.0
83 ; 586220.536657367 ; 2.0079075971487492E8 ; 4.03755510157461E7 ; 1.5027928505903336E10 ; 0.0
84 ; 586015.5624274877 ; 2.0079609001568648E8 ; 4.096177155240347E7 ; 1.522871926561821E10 ; 0.0
85 ; 585454.8180473564 ; 2.0080142475144675E8 ; 4.154778711483096E7 ; 1.5429515355633896E10 ; 0.0
86 ; 585962.0202675535 ; 2.0080676338225234E8 ; 4.213324193287832E7 ; 1.5630316780385344E10 ; 0.0
87 ; 585834.0764403814 ; 2.0081210538609025E8 ; 4.271920395314588E7 ; 1.5831123543767595E10 ; 0.0
88 ; 586107.3324643839 ; 2.0081745025798187E8 ; 4.3305038029586256E7 ; 1.6031935649153685E10 ; 0.0
89 ; 585513.3897946669 ; 2.0082279750917315E8 ; 4.389114536205064E7 ; 1.6232753099411667E10 ; 0.0
90 ; 586479.6579585146 ; 2.008281466663681E8 ; 4.447665875184531E7 ; 1.643357589692084E10 ; 0.0
91 ; 585261.816093416 ; 2.0083349727100345E8 ; 4.506313840980382E7 ; 1.6634404043587208E10 ; 0.0
92 ; 585555.5165127644 ; 2.008388488785621E8 ; 4.564840022589724E7 ; 1.6835237540858212E10 ; 0.0
93 ; 584710.7020346671 ; 2.008442010579227E8 ; 4.6233955742410004E7 ; 1.7036076389736774E10 ; 0.0
94 ; 586093.528331212 ; 2.0084955339074412E8 ; 4.681866644444467E7 ; 1.7236920590794697E10 ; 0.0
95 ; 584770.2285592548 ; 2.0085490547088212E8 ; 4.7404759972775884E7 ; 1.743777014418544E10 ; 0.0
96 ; 586152.1564201537 ; 2.0086025690383673E8 ; 4.798953020133514E7 ; 1.7638625049656322E10 ; 0.0
97 ; 585678.1017278028 ; 2.0086560730622846E8 ; 4.8575682357755296E7 ; 1.7839485306560158E10 ; 0.0
98 ; 586154.2151538101 ; 2.00870956305302E8 ; 4.91613604594831E7 ; 1.8040350913866386E10 ; 0.0
99 ; 585361.487693053 ; 2.0087630353845543E8 ; 4.9747514674636915E7 ; 1.8241221870171688E10 ; 0.0
100 ; 584617.083907149 ; 2.008816486527938E8 ; 5.033287616232997E7 ; 1.8442098173710144E10 ; 0.0
101 ; 584833.4103602733 ; 2.0088699130470574E8 ; 5.091749324623712E7 ; 1.8642979822362938E10 ; 0.0
102 ; 584872.5216374748 ; 2.0089233115946153E8 ; 5.15023266565974E7 ; 1.8843866813667645E10 ; 0.0
103 ; 584711.4716449073 ; 2.0089766789083183E8 ; 5.2087199178234875E7 ; 1.9044759144827106E10 ; 0.0
104 ; 584869.5915926063 ; 2.0090300118072543E8 ; 5.267191064987978E7 ; 1.9245656812717937E10 ; 0.0
105 ; 582329.253926753 ; 2.0090833071884564E8 ; 5.325678024147239E7 ; 1.9446559813898663E10 ; 0.0
106 ; 583255.8992273972 ; 2.0091365620236343E8 ; 5.383910949539915E7 ; 1.9647468144617508E10 ; 0.0
107 ; 583057.7667994506 ; 2.0091897733560726E8 ; 5.442236539462654E7 ; 1.984838180081987E10 ; 0.0
108 ; 581779.2349026321 ; 2.0092429382976812E8 ; 5.500542316142599E7 ; 2.0049300778155476E10 ; 0.0
109 ; 582067.5658271601 ; 2.0092960540261912E8 ; 5.558720239632863E7 ; 2.0250225071985245E10 ; 0.0
110 ; 581912.3574907314 ; 2.009349117782488E8 ; 5.616926996215579E7 ; 2.0451154677387863E10 ; 0.0
111 ; 581124.2516876514 ; 2.009402126868076E8 ; 5.675118231964652E7 ; 2.065208958916611E10 ; 0.0
112 ; 581051.5226245845 ; 2.0094550786426663E8 ; 5.7332306571334176E7 ; 2.0853029801852917E10 ; 0.0
113 ; 579655.5330087133 ; 2.009507970521879E8 ; 5.791335809395876E7 ; 2.1053975309717182E10 ; 0.0
114 ; 580635.6375047561 ; 2.009560799975057E8 ; 5.8493013626967475E7 ; 2.125492610676937E10 ; 0.0
115 ; 578332.295190223 ; 2.009613564523186E8 ; 5.907364926447223E7 ; 2.1455882186766876E10 ; 0.0
116 ; 579075.6285911729 ; 2.009666261736911E8 ; 5.9651981559662454E7 ; 2.1656843543219196E10 ; 0.0
117 ; 580491.5911468449 ; 2.0097188892346466E8 ; 6.0231057188253626E7 ; 2.1857810169392887E10 ; 0.0
118 ; 577902.1639737764 ; 2.0097714446807787E8 ; 6.081154877940047E7 ; 2.2058782058316353E10 ; 0.0
119 ; 576263.0479498735 ; 2.0098239257839468E8 ; 6.138945094337425E7 ; 2.225975920278443E10 ; 0.0
120 ; 577001.7502540288 ; 2.0098763302954096E8 ; 6.196571399132412E7 ; 2.2460741595362827E10 ; 0.0
121 ; 576989.2759837507 ; 2.009928656007483E8 ; 6.254271574157815E7 ; 2.266172922839237E10 ; 0.0
122 ; 576304.1725651138 ; 2.009980900752054E8 ; 6.31197050175619E7 ; 2.286272209399312E10 ; 0.0
123 ; 574838.1181689302 ; 2.0100330623991567E8 ; 6.3696009190127015E7 ; 2.3063720184068325E10 ; 0.0
124 ; 575088.2247029594 ; 2.010085138855621E8 ; 6.427084730829594E7 ; 2.326472349030824E10 ; 0.0
125 ; 573448.1689561517 ; 2.0101371280637744E8 ; 6.4845935532998905E7 ; 2.34657320041938E10 ; 0.0
126 ; 573759.0274634394 ; 2.0101890280002087E8 ; 6.541938370195506E7 ; 2.366674571700018E10 ; 0.0
127 ; 571371.6742928686 ; 2.0102408366745985E8 ; 6.5993142729418494E7 ; 2.38677646198002E10 ; 0.0
128 ; 572187.8134777421 ; 2.0102925521285728E8 ; 6.656451440371136E7 ; 2.4068788703467663E10 ; 0.0
129 ; 571967.2922936422 ; 2.010344172434638E8 ; 6.71367022171891E7 ; 2.426981795868052E10 ; 0.0
130 ; 568136.3097214756 ; 2.010395695695148E8 ; 6.770866950948274E7 ; 2.4470852375923985E10 ; 0.0
131 ; 566889.8558116987 ; 2.0104471200413167E8 ; 6.827680581920421E7 ; 2.46718919454935E10 ; 0.0
132 ; 567295.8290319245 ; 2.0104984436322793E8 ; 6.884369567501591E7 ; 2.487293665749763E10 ; 0.0
133 ; 566374.8086759526 ; 2.0105496646541888E8 ; 6.941099150404784E7 ; 2.507398650186086E10 ; 0.0
134 ; 563712.6404514991 ; 2.0106007813193548E8 ; 6.99773663127238E7 ; 2.527504146832628E10 ; 0.0
135 ; 562834.9933855869 ; 2.010651791865418E8 ; 7.05410789531753E7 ; 2.5476101546458214E10 ; 0.0
136 ; 562038.0543253449 ; 2.0107026945545608E8 ; 7.110391394656089E7 ; 2.5677166725644756E10 ; 0.0
137 ; 559682.8081045687 ; 2.0107534876727518E8 ; 7.166595200088623E7 ; 2.5878236995100212E10 ; 0.0
138 ; 559439.6011836838 ; 2.0108041695290202E8 ; 7.22256348089908E7 ; 2.607931234386749E10 ; 0.0
139 ; 556548.6388884472 ; 2.010854738454764E8 ; 7.278507441017449E7 ; 2.6280392760820393E10 ; 0.0
140 ; 554492.5398249853 ; 2.010905192803084E8 ; 7.334162304906294E7 ; 2.648147823466587E10 ; 0.0
141 ; 552554.3649932306 ; 2.0109555309481484E8 ; 7.389611558888793E7 ; 2.668256875394618E10 ; 0.0
142 ; 551994.956911622 ; 2.0110057512845826E8 ; 7.444866995388116E7 ; 2.6883664307040993E10 ; 0.0
143 ; 548729.0376784649 ; 2.0110558522268832E8 ; 7.500066491079278E7 ; 2.7084764882169453E10 ; 0.0
144 ; 547453.9418408117 ; 2.011105832208858E8 ; 7.554939394847125E7 ; 2.728587046739214E10 ; 0.0
145 ; 547712.0715825914 ; 2.011155689683089E8 ; 7.609684789031206E7 ; 2.7486981050613026E10 ; 0.0
146 ; 545921.0391650113 ; 2.0112054231204146E8 ; 7.664455996189465E7 ; 2.7688096619581333E10 ; 0.0
147 ; 547303.6351725344 ; 2.011255031009436E8 ; 7.719048100105965E7 ; 2.7889217161893375E10 ; 0.0
148 ; 545777.636532079 ; 2.0113045118560427E8 ; 7.773778463623218E7 ; 2.809034266499432E10 ; 0.0
149 ; 544640.2505297443 ; 2.0113538641829556E8 ; 7.828356227276427E7 ; 2.8291473116179924E10 ; 0.0
150 ; 543998.5152882222 ; 2.01140308652929E8 ; 7.882820252329402E7 ; 2.849260850259822E10 ; 0.0
151 ; 543097.8981238416 ; 2.0114521774501368E8 ; 7.937220103858224E7 ; 2.869374881125115E10 ; 0.0
152 ; 543400.7327867659 ; 2.011501135516157E8 ; 7.991529893670608E7 ; 2.8894894028996162E10 ; 0.0
153 ; 541519.5863625866 ; 2.011549959313196E8 ; 8.045869966949284E7 ; 2.909604414254778E10 ; 0.0
154 ; 540946.877796565 ; 2.0115986474419114E8 ; 8.100021925585543E7 ; 2.92971991384791E10 ; 0.0
155 ; 539566.3443921922 ; 2.0116471985174155E8 ; 8.154116613365199E7 ; 2.949835900322329E10 ; 0.0
156 ; 538918.6118509264 ; 2.0116956111689314E8 ; 8.208073247804418E7 ; 2.969952372307503E10 ; 0.0
157 ; 538481.8480627246 ; 2.0117438840394637E8 ; 8.261965108989511E7 ; 2.9900693284191925E10 ; 0.0
158 ; 538635.0545915138 ; 2.0117920157854804E8 ; 8.315813293795784E7 ; 3.010186767259587E10 ; 0.0
159 ; 537292.2904272855 ; 2.0118400050766096E8 ; 8.369676799254934E7 ; 3.030304687417442E10 ; 0.0
160 ; 537063.9824284292 ; 2.0118878505953443E8 ; 8.423406028297663E7 ; 3.050423087468208E10 ; 0.0
161 ; 535359.5196057148 ; 2.0119355510367617E8 ; 8.477112426540506E7 ; 3.0705419659741615E10 ; 0.0
162 ; 536142.3438667962 ; 2.0119831051082528E8 ; 8.530648378501077E7 ; 3.090661321484529E10 ; 0.0
163 ; 534002.7953071374 ; 2.012030511529259E8 ; 8.584262612887757E7 ; 3.1107811525356117E10 ; 0.0
164 ; 533917.4595720149 ; 2.0120777690310246E8 ; 8.637662892418471E7 ; 3.1309014576509045E10 ; 0.0
165 ; 532093.5445162699 ; 2.0121248763563526E8 ; 8.691054638375673E7 ; 3.1510222353412148E10 ; 0.0
166 ; 532989.4906896293 ; 2.0121718322593743E8 ; 8.744263992827299E7 ; 3.1711434841047783E10 ; 0.0
167 ; 532436.8257083226 ; 2.0122186355053246E8 ; 8.797562941896263E7 ; 3.191265202427372E10 ; 0.0
168 ; 531070.0233258872 ; 2.0122652848703283E8 ; 8.850806624467096E7 ; 3.2113873887824253E10 ; 0.0
169 ; 530105.3892989963 ; 2.0123117791411912E8 ; 8.903913626799685E7 ; 3.2315100416311287E10 ; 0.0
170 ; 529674.337457876 ; 2.0123581171152022E8 ; 8.956924165729584E7 ; 3.2516331594225407E10 ; 0.0
171 ; 530159.7006429632 ; 2.0124042975999412E8 ; 9.009891599475372E7 ; 3.2717567405936928E10 ; 0.0
172 ; 526400.0945061297 ; 2.0124503194130933E8 ; 9.062907569539668E7 ; 3.2918807835696922E10 ; 0.0
173 ; 525248.4238118343 ; 2.0124961813822722E8 ; 9.11554757899028E7 ; 3.3120052867638233E10 ; 0.0
174 ; 526493.8208699346 ; 2.0125418823448482E8 ; 9.168072421371464E7 ; 3.332130248577646E10 ; 0.0
175 ; 525385.6269151132 ; 2.0125874211477822E8 ; 9.220721803458458E7 ; 3.3522556674010944E10 ; 0.0
176 ; 524786.675338376 ; 2.0126327966474685E8 ; 9.27326036614997E7 ; 3.372381541612572E10 ; 0.0
177 ; 523481.1940211787 ; 2.0126780077095804E8 ; 9.325739033683807E7 ; 3.3925078695790466E10 ; 0.0
178 ; 523839.48499624105 ; 2.0127230532089227E8 ; 9.378087153085925E7 ; 3.4126346496561424E10 ; 0.0
179 ; 522290.661601534 ; 2.0127679320292896E8 ; 9.430471101585549E7 ; 3.4327618801882317E10 ; 0.0
180 ; 522820.59745273704 ; 2.0128126430633283E8 ; 9.482700167745702E7 ; 3.452889559508524E10 ; 0.0
181 ; 523949.1219241154 ; 2.012857185212405E8 ; 9.534982227490975E7 ; 3.473017685939158E10 ; 0.0
182 ; 523481.86766718695 ; 2.0129015573864806E8 ; 9.587377139683387E7 ; 3.493146257791282E10 ; 0.0
183 ; 522588.53565188387 ; 2.0129457585039854E8 ; 9.639725326450105E7 ; 3.513275273365147E10 ; 0.0
184 ; 521563.65021337575 ; 2.012989787491702E8 ; 9.691984180015293E7 ; 3.533404730950186E10 ; 0.0
185 ; 521842.5817208409 ; 2.0130336432846513E8 ; 9.74414054503663E7 ; 3.553534628825103E10 ; 0.0
186 ; 521108.9731246212 ; 2.0130773248259825E8 ; 9.796324803208715E7 ; 3.57366496525795E10 ; 0.0
187 ; 520456.5842903049 ; 2.0131208310668668E8 ; 9.848435700521177E7 ; 3.5937957385062096E10 ; 0.0
188 ; 519342.39663660387 ; 2.0131641609663966E8 ; 9.900481358950208E7 ; 3.6139269468168785E10 ; 0.0
189 ; 518824.8659236633 ; 2.0132073134914854E8 ; 9.952415598613869E7 ; 3.634058588426543E10 ; 0.0
190 ; 518590.1154875034 ; 2.0132502876167738E8 ; 1.0004298085206234E8 ; 3.654190661561458E10 ; 0.0
191 ; 518697.4099225448 ; 2.013293082324538E8 ; 1.0056157096754985E8 ; 3.674323164437626E10 ; 0.0
192 ; 517940.88435522007 ; 2.0133356966046005E8 ; 1.0108026837747239E8 ; 3.694456095260871E10 ; 0.0
193 ; 516845.2064787345 ; 2.0133781294542474E8 ; 1.015982092618276E8 ; 3.714589452226917E10 ; 0.0
194 ; 518107.646223633 ; 2.0134203798781434E8 ; 1.0211505446830633E8 ; 3.73472323352146E10 ; 0.0
195 ; 516026.46291829663 ; 2.0134624468882546E8 ; 1.0263316211452997E8 ; 3.7548574373202415E10 ; 0.0
196 ; 516406.76980555087 ; 2.0135043295037717E8 ; 1.0314918857744826E8 ; 3.774992061789124E10 ; 0.0
197 ; 514998.1259553721 ; 2.0135460267510363E8 ; 1.0366559534725381E8 ; 3.795127105084162E10 ; 0.0
198 ; 515792.5737327741 ; 2.0135875376634705E8 ; 1.0418059347320919E8 ; 3.815262565351672E10 ; 0.0
199 ; 514639.2016221254 ; 2.013628861281507E8 ; 1.0469638604694197E8 ; 3.835398440728307E10 ; 0.0
200 ; 513528.0688472906 ; 2.0136699966525248E8 ; 1.052110252485641E8 ; 3.8555347293411224E10 ; 0.0
201 ; 512467.28496080503 ; 1.982881514215056E8 ; 1.0572455331741138E8 ; 3.875671429307648E10 ; 0.0
