CSV File for the City 4 on Day 166
1 - Minute m 
2 - Power Consumed at minute m 
3 - Power Produced at minute m 
4 - Energy Consumed since the beginning of the day 
5 - Energy Produced since the beginning of the day 
6 - Energy Lost since the beginning of the day on lines starting from the city
 
0 ; 2618671.642052345 ; 1.0615847678981784E8 ; 0.0 ; 0.0 ; 0.0
1 ; 2623564.0349864643 ; 1.0630900662445956E8 ; 2618671.642052345 ; 1.0615847678981784E8 ; 0.0
2 ; 2628000.0786484946 ; 1.067685644168112E8 ; 5242235.677038809 ; 2.124674834142774E8 ; 0.0
3 ; 2636952.4549197443 ; 1.075371544226892E8 ; 7870235.755687304 ; 3.192360478310886E8 ; 0.0
4 ; 2642634.8278329573 ; 1.0861478045857692E8 ; 1.0507188210607048E7 ; 4.267732022537778E8 ; 0.0
5 ; 2652502.3638635348 ; 1.1000144587963259E8 ; 1.3149823038440006E7 ; 5.353879827123547E8 ; 0.0
6 ; 2666281.3680792763 ; 1.1169715355996987E8 ; 1.5802325402303541E7 ; 6.453894285919874E8 ; 0.0
7 ; 2689242.031620839 ; 1.1370190587547743E8 ; 1.8468606770382818E7 ; 7.570865821519573E8 ; 0.0
8 ; 2721994.125085551 ; 1.1601570468941438E8 ; 2.1157848802003656E7 ; 8.707884880274347E8 ; 0.0
9 ; 2768790.4024879476 ; 1.1863855134098583E8 ; 2.3879842927089207E7 ; 9.868041927168491E8 ; 0.0
10 ; 2844354.37078318 ; 1.2157044663706166E8 ; 2.6648633329577155E7 ; 1.1054427440578349E9 ; 0.0
11 ; 2967833.1332014217 ; 1.248113908471587E8 ; 2.9492987700360335E7 ; 1.2270131906948965E9 ; 0.0
12 ; 3161643.4111649287 ; 1.2836138370176008E8 ; 3.2460820833561756E7 ; 1.3518245815420551E9 ; 0.0
13 ; 3351549.198756076 ; 1.3222042439399594E8 ; 3.562246424472669E7 ; 1.4801859652438152E9 ; 0.0
14 ; 3372291.3843983253 ; 1.3638851158466125E8 ; 3.8974013443482764E7 ; 1.6124063896378112E9 ; 0.0
15 ; 3380323.3763577025 ; 1.4086564341049677E8 ; 4.234630482788109E7 ; 1.7487949012224724E9 ; 0.0
16 ; 3387340.0932550705 ; 1.4565181749561396E8 ; 4.5726628204238795E7 ; 1.8896605446329691E9 ; 0.0
17 ; 3392716.6272154287 ; 1.5074703096589908E8 ; 4.911396829749387E7 ; 2.0353123621285832E9 ; 0.0
18 ; 3400939.4968087524 ; 1.561512804661939E8 ; 5.25066849247093E7 ; 2.1860593930944824E9 ; 0.0
19 ; 3408099.516984102 ; 1.6186456218001512E8 ; 5.590762442151805E7 ; 2.3422106735606766E9 ; 0.0
20 ; 3415267.9689239403 ; 1.678868718515462E8 ; 5.9315723938502155E7 ; 2.5040752357406917E9 ; 0.0
21 ; 3419327.558982767 ; 1.742182048096138E8 ; 6.27309919074261E7 ; 2.671962107592238E9 ; 0.0
22 ; 3427889.20727029 ; 1.8085855599334365E8 ; 6.615031946640886E7 ; 2.8461803124018517E9 ; 0.0
23 ; 3434743.906047066 ; 1.8780791997918373E8 ; 6.957820867367916E7 ; 3.0270388683951955E9 ; 0.0
24 ; 3442019.3656771365 ; 1.9506629100897717E8 ; 7.301295257972622E7 ; 3.214846788374379E9 ; 0.0
25 ; 3453078.660978963 ; 2.013217039169576E8 ; 7.645497194540335E7 ; 3.409913079383356E9 ; 0.0
26 ; 3458750.6246307534 ; 2.0132770019588998E8 ; 7.990805060638231E7 ; 3.6112347833003135E9 ; 0.0
27 ; 3466213.1948506413 ; 2.013340425513633E8 ; 8.336680123101306E7 ; 3.8125624834962034E9 ; 0.0
28 ; 3474376.977218238 ; 2.0134072417782432E8 ; 8.68330144258637E7 ; 4.013896526047567E9 ; 0.0
29 ; 3478321.0295493826 ; 2.0134773808070517E8 ; 9.030739140308194E7 ; 4.2152372502253914E9 ; 0.0
30 ; 3485293.02821747 ; 2.0135507710470006E8 ; 9.378571243263131E7 ; 4.416584988306097E9 ; 0.0
31 ; 3489761.0239869463 ; 2.0136273396123514E8 ; 9.727100546084878E7 ; 4.617940065410797E9 ; 0.0
32 ; 3499208.2074761568 ; 2.01370701254957E8 ; 1.0076076648483573E8 ; 4.819302799372032E9 ; 0.0
33 ; 3509252.6956143854 ; 2.0137897150909236E8 ; 1.0425997469231188E8 ; 5.020673500626989E9 ; 0.0
34 ; 3512370.7601764738 ; 2.013875371895585E8 ; 1.0776922738792627E8 ; 5.222052472136082E9 ; 0.0
35 ; 3517795.5403391775 ; 2.0139639072772947E8 ; 1.1128159814810275E8 ; 5.42344000932564E9 ; 0.0
36 ; 3522273.4885928445 ; 2.01405524541788E8 ; 1.1479939368844192E8 ; 5.6248364000533695E9 ; 0.0
37 ; 3529421.7171585704 ; 2.0141493105661663E8 ; 1.1832166717703477E8 ; 5.826241924595158E9 ; 0.0
38 ; 3531636.247568469 ; 2.0142460272220126E8 ; 1.2185108889419334E8 ; 6.027656855651774E9 ; 0.0
39 ; 3535661.4707628046 ; 2.0143453203054106E8 ; 1.2538272514176181E8 ; 6.229081458373976E9 ; 0.0
40 ; 3544296.935180276 ; 2.0144471153107458E8 ; 1.2891838661252461E8 ; 6.430515990404517E9 ; 0.0
41 ; 3547467.7024153667 ; 2.014551338446467E8 ; 1.3246268354770489E8 ; 6.631960701935592E9 ; 0.0
42 ; 3552547.944709737 ; 2.01465791676054E8 ; 1.3601015125012025E8 ; 6.833415835780238E9 ; 0.0
43 ; 3556103.206150571 ; 2.0147667782521644E8 ; 1.3956269919483E8 ; 7.034881627456292E9 ; 0.0
44 ; 3560813.03479012 ; 2.014877851970312E8 ; 1.4311880240098056E8 ; 7.236358305281508E9 ; 0.0
45 ; 3561175.7858288777 ; 2.0149910680997187E8 ; 1.466796154357707E8 ; 7.437846090478539E9 ; 0.0
46 ; 3567060.117638733 ; 2.015106358035008E8 ; 1.5024079122159958E8 ; 7.639345197288511E9 ; 0.0
47 ; 3567132.798860619 ; 2.0152236544436508E8 ; 1.5380785133923832E8 ; 7.840855833092012E9 ; 0.0
48 ; 3570616.836159677 ; 2.0153428913185024E8 ; 1.5737498413809893E8 ; 8.042378198536378E9 ; 0.0
49 ; 3571827.1548317038 ; 2.0154640040206477E8 ; 1.609456009742586E8 ; 8.243912487668228E9 ; 0.0
50 ; 3572338.784596189 ; 2.015586929313294E8 ; 1.645174281290903E8 ; 8.445458888070292E9 ; 0.0
51 ; 3574138.6064208373 ; 2.0157116053874427E8 ; 1.6808976691368648E8 ; 8.647017581001621E9 ; 0.0
52 ; 3574863.047084537 ; 2.0158379718800414E8 ; 1.7166390552010733E8 ; 8.848588741540365E9 ; 0.0
53 ; 3574866.278539093 ; 2.0159659698853064E8 ; 1.7523876856719187E8 ; 9.050172538728369E9 ; 0.0
54 ; 3576886.424006356 ; 2.016095541959875E8 ; 1.7881363484573096E8 ; 9.2517691357169E9 ; 0.0
55 ; 3574043.031072742 ; 2.0162266321224067E8 ; 1.823905212697373E8 ; 9.453378689912888E9 ; 0.0
56 ; 3577843.2459877976 ; 2.016359185848236E8 ; 1.8596456430081004E8 ; 9.655001353125128E9 ; 0.0
57 ; 3577652.9985539317 ; 2.016493150059624E8 ; 1.8954240754679784E8 ; 9.856637271709951E9 ; 0.0
58 ; 3578170.9121388723 ; 2.0166284731121388E8 ; 1.9312006054535177E8 ; 1.0058286586715914E10 ; 0.0
59 ; 3580892.0759772738 ; 2.016765104777643E8 ; 1.9669823145749065E8 ; 1.0259949434027128E10 ; 0.0
60 ; 3583143.523766874 ; 2.0169029962243447E8 ; 2.0027912353346792E8 ; 1.0461625944504892E10 ; 0.0
61 ; 3579951.2101698006 ; 2.017042099994317E8 ; 2.038622670572348E8 ; 1.0663316244127327E10 ; 0.0
62 ; 3582024.893911417 ; 2.0171823699788764E8 ; 2.074422182674046E8 ; 1.0865020454126759E10 ; 0.0
63 ; 3583597.1055399147 ; 2.0173237613921583E8 ; 2.11024243161316E8 ; 1.1066738691124647E10 ; 0.0
64 ; 3583838.39892954 ; 2.0174662307432088E8 ; 2.1460784026685593E8 ; 1.1268471067263863E10 ; 0.0
65 ; 3584653.6973346197 ; 2.017609735806882E8 ; 2.1819167866578546E8 ; 1.1470217690338184E10 ; 0.0
66 ; 3581748.1401563934 ; 2.017754235593793E8 ; 2.2177633236312008E8 ; 1.1671978663918873E10 ; 0.0
67 ; 3582333.0597886615 ; 2.0178996903195667E8 ; 2.2535808050327647E8 ; 1.1873754087478252E10 ; 0.0
68 ; 3583357.0157825127 ; 2.0180460613735834E8 ; 2.2894041356306514E8 ; 1.2075544056510208E10 ; 0.0
69 ; 3585699.6970337983 ; 2.0181933112874088E8 ; 2.3252377057884765E8 ; 1.2277348662647566E10 ; 0.0
70 ; 3583432.368874655 ; 2.0183414037030718E8 ; 2.3610947027588144E8 ; 1.2479167993776306E10 ; 0.0
71 ; 3586428.453155887 ; 2.0184903033413312E8 ; 2.396929026447561E8 ; 1.2681002134146614E10 ; 0.0
72 ; 3585929.141389927 ; 2.0186399759700623E8 ; 2.4327933109791198E8 ; 1.2882851164480747E10 ; 0.0
73 ; 3586142.094315247 ; 2.0187903883728686E8 ; 2.4686526023930192E8 ; 1.3084715162077753E10 ; 0.0
74 ; 3581468.719004522 ; 2.0189415083180186E8 ; 2.5045140233361718E8 ; 1.328659420091504E10 ; 0.0
75 ; 3583188.998357596 ; 2.019093304527786E8 ; 2.540328710526217E8 ; 1.3488488351746841E10 ; 0.0
76 ; 3583355.1705613853 ; 2.0192457466482642E8 ; 2.576160600509793E8 ; 1.369039768219962E10 ; 0.0
77 ; 3585790.868454198 ; 2.0193988052197143E8 ; 2.6119941522154066E8 ; 1.3892322256864447E10 ; 0.0
78 ; 3583545.157527916 ; 2.0195524516474962E8 ; 2.6478520608999485E8 ; 1.4094262137386417E10 ; 0.0
79 ; 3579063.989690723 ; 2.0197066581736207E8 ; 2.6836875124752277E8 ; 1.4296217382551167E10 ; 0.0
80 ; 3576961.6856192644 ; 2.0198613978489572E8 ; 2.719478152372135E8 ; 1.4498188048368528E10 ; 0.0
81 ; 3575398.813993652 ; 2.0200166445061213E8 ; 2.755247769228327E8 ; 1.4700174188153423E10 ; 0.0
82 ; 3574145.884236074 ; 2.0201723727330613E8 ; 2.7910017573682636E8 ; 1.4902175852604036E10 ; 0.0
83 ; 3566816.610695984 ; 2.020328557847357E8 ; 2.8267432162106246E8 ; 1.5104193089877342E10 ; 0.0
84 ; 3563824.401230827 ; 2.0204851758712393E8 ; 2.862411382317584E8 ; 1.5306225945662079E10 ; 0.0
85 ; 3561893.093409796 ; 2.0206422035073373E8 ; 2.898049626329892E8 ; 1.5508274463249203E10 ; 0.0
86 ; 3561603.5782305426 ; 2.02079961811515E8 ; 2.93366855726399E8 ; 1.5710338683599936E10 ; 0.0
87 ; 3556022.362479816 ; 2.020957397688244E8 ; 2.9692845930462956E8 ; 1.5912418645411451E10 ; 0.0
88 ; 3553809.6040852503 ; 2.021115520832167E8 ; 3.004844816671094E8 ; 1.6114514385180275E10 ; 0.0
89 ; 3552946.7073051264 ; 2.0212739667430767E8 ; 3.0403829127119464E8 ; 1.6316625937263493E10 ; 0.0
90 ; 3546494.1128160614 ; 2.0214327151870683E8 ; 3.0759123797849977E8 ; 1.65187533339378E10 ; 0.0
91 ; 3546384.8403520654 ; 2.021591746480193E8 ; 3.111377320913158E8 ; 1.6720896605456507E10 ; 0.0
92 ; 3540484.478707578 ; 2.021751041469156E8 ; 3.1468411693166786E8 ; 1.6923055780104527E10 ; 0.0
93 ; 3536290.501306464 ; 2.021910581512676E8 ; 3.182246014103754E8 ; 1.7125230884251442E10 ; 0.0
94 ; 3532665.145518025 ; 2.0220703484634924E8 ; 3.217608919116819E8 ; 1.732742194240271E10 ; 0.0
95 ; 3527828.1171276937 ; 2.0222303246510124E8 ; 3.252935570571999E8 ; 1.7529628977249058E10 ; 0.0
96 ; 3525819.9932471802 ; 2.0223904928645664E8 ; 3.288213851743276E8 ; 1.7731852009714157E10 ; 0.0
97 ; 3523324.8580413237 ; 2.0225508363372704E8 ; 3.3234720516757476E8 ; 1.7934091059000614E10 ; 0.0
98 ; 3520216.7716107764 ; 2.0227113387304682E8 ; 3.358705300256161E8 ; 1.8136346142634342E10 ; 0.0
99 ; 3514469.0234449976 ; 2.0228719841187432E8 ; 3.393907467972269E8 ; 1.833861727650739E10 ; 0.0
100 ; 3510959.297989501 ; 2.0230327569754764E8 ; 3.429052158206719E8 ; 1.8540904474919262E10 ; 0.0
101 ; 3506964.7555649164 ; 2.0231936421589395E8 ; 3.464161751186614E8 ; 1.874320775061681E10 ; 0.0
102 ; 3503657.2116861944 ; 2.0233546248989007E8 ; 3.4992313987422633E8 ; 1.8945527114832703E10 ; 0.0
103 ; 3498329.6467350405 ; 2.02351569078373E8 ; 3.534267970859125E8 ; 1.9147862577322594E10 ; 0.0
104 ; 3492577.8733605007 ; 2.0236768257479864E8 ; 3.5692512673264754E8 ; 1.9350214146400967E10 ; 0.0
105 ; 3488814.404096191 ; 2.0238380160604692E8 ; 3.6041770460600805E8 ; 1.9552581828975765E10 ; 0.0
106 ; 3486389.2832740447 ; 2.0239992483127183E8 ; 3.6390651901010424E8 ; 1.9754965630581814E10 ; 0.0
107 ; 3481884.4008434983 ; 2.0241605094079494E8 ; 3.673929082933783E8 ; 1.9957365555413086E10 ; 0.0
108 ; 3477345.9430462485 ; 2.024321786550404E8 ; 3.708747926942218E8 ; 2.015978160635388E10 ; 0.0
109 ; 3475662.203614638 ; 2.0244830672351047E8 ; 3.7435213863726807E8 ; 2.0362213785008923E10 ; 0.0
110 ; 3468275.1888229037 ; 2.0246443392379954E8 ; 3.778278008408827E8 ; 2.0564662091732433E10 ; 0.0
111 ; 3464754.0498740072 ; 2.0248055906064597E8 ; 3.8129607602970564E8 ; 2.0767126525656235E10 ; 0.0
112 ; 3459169.9499560334 ; 2.024966809650193E8 ; 3.8476083007957965E8 ; 2.096960708471688E10 ; 0.0
113 ; 3456147.2978806775 ; 2.025127984932425E8 ; 3.882200000295357E8 ; 2.11721037656819E10 ; 0.0
114 ; 3454462.934897843 ; 2.025289105261475E8 ; 3.9167614732741636E8 ; 2.1374616564175144E10 ; 0.0
115 ; 3446167.1025641407 ; 2.0254501596826255E8 ; 3.951306102623142E8 ; 2.157714547470129E10 ; 0.0
116 ; 3442052.1756310007 ; 2.0256111374703047E8 ; 3.9857677736487836E8 ; 2.177969049066955E10 ; 0.0
117 ; 3436540.5291609447 ; 2.025772028120567E8 ; 4.0201882954050934E8 ; 2.1982251604416584E10 ; 0.0
118 ; 3435040.47509573 ; 2.0259328213438562E8 ; 4.0545537006967026E8 ; 2.218482880722864E10 ; 0.0
119 ; 3427677.0213949946 ; 2.026093507058044E8 ; 4.08890410544766E8 ; 2.2387422089363026E10 ; 0.0
120 ; 3421872.861124246 ; 2.026254075381731E8 ; 4.12318087566161E8 ; 2.259003144006883E10 ; 0.0
121 ; 3417402.1315869107 ; 2.0264145166278002E8 ; 4.157399604272852E8 ; 2.2792656847607002E10 ; 0.0
122 ; 3411388.4544673543 ; 2.0265748212972146E8 ; 4.191573625588721E8 ; 2.2995298299269783E10 ; 0.0
123 ; 3408777.7265630555 ; 2.026734980073049E8 ; 4.2256875101333946E8 ; 2.3197955781399506E10 ; 0.0
124 ; 3402627.473020869 ; 2.0268949838147435E8 ; 4.259775287399025E8 ; 2.340062927940681E10 ; 0.0
125 ; 3393386.031110923 ; 2.0270548235525742E8 ; 4.2938015621292335E8 ; 2.3603318777788284E10 ; 0.0
126 ; 3391795.212028083 ; 2.027214490482333E8 ; 4.327735422440343E8 ; 2.3806024260143543E10 ; 0.0
127 ; 3389997.901146169 ; 2.0273739759602016E8 ; 4.361653374560624E8 ; 2.4008745709191776E10 ; 0.0
128 ; 3381128.0364480913 ; 2.0275332714978215E8 ; 4.3955533535720855E8 ; 2.4211483106787796E10 ; 0.0
129 ; 3375503.151111234 ; 2.0276923687575445E8 ; 4.429364633936566E8 ; 2.4414236433937576E10 ; 0.0
130 ; 3371562.3364966484 ; 2.0278512595478603E8 ; 4.4631196654476786E8 ; 2.461700567081333E10 ; 0.0
131 ; 3360138.2105939654 ; 2.0280099358189943E8 ; 4.496835288812645E8 ; 2.4819790796768116E10 ; 0.0
132 ; 3352099.0249352898 ; 2.028168389658668E8 ; 4.5304366709185845E8 ; 2.5022591790350014E10 ; 0.0
133 ; 3344673.654820571 ; 2.0283266132880136E8 ; 4.5639576611679375E8 ; 2.522540862931588E10 ; 0.0
134 ; 3339293.710435884 ; 2.0284845990576425E8 ; 4.597404397716143E8 ; 2.542824129064468E10 ; 0.0
135 ; 3324902.4354848703 ; 2.028642339443855E8 ; 4.630797334820502E8 ; 2.5631089750550446E10 ; 0.0
136 ; 3320133.435535289 ; 2.02879982704499E8 ; 4.6640463591753507E8 ; 2.583395398449483E10 ; 0.0
137 ; 3311323.442739829 ; 2.028957054577908E8 ; 4.697247693530704E8 ; 2.603683396719933E10 ; 0.0
138 ; 3302259.6140700686 ; 2.029114014874601E8 ; 4.730360927958102E8 ; 2.623972967265712E10 ; 0.0
139 ; 3296433.4065034664 ; 2.0292707008789283E8 ; 4.763383524098803E8 ; 2.644264107414458E10 ; 0.0
140 ; 3286276.815536156 ; 2.0294271056434652E8 ; 4.796347858163837E8 ; 2.6645568144232475E10 ; 0.0
141 ; 3277036.6141234683 ; 2.0295832223264715E8 ; 4.8292106263191986E8 ; 2.684851085479682E10 ; 0.0
142 ; 3269044.100004416 ; 2.0297390441889647E8 ; 4.861980992460433E8 ; 2.705146917702947E10 ; 0.0
143 ; 3261461.5174344745 ; 2.0298945645918995E8 ; 4.8946714334604776E8 ; 2.7254443081448364E10 ; 0.0
144 ; 3254279.1468018596 ; 2.0300497769934496E8 ; 4.9272860486348224E8 ; 2.7457432537907555E10 ; 0.0
145 ; 3246601.571283878 ; 2.030204674946384E8 ; 4.959828840102841E8 ; 2.76604375156069E10 ; 0.0
146 ; 3239781.3832534896 ; 2.030359252095539E8 ; 4.99229485581568E8 ; 2.7863457983101536E10 ; 0.0
147 ; 3236702.412777558 ; 2.0305135021753776E8 ; 5.024692669648215E8 ; 2.806649390831109E10 ; 0.0
148 ; 3231079.320188991 ; 2.030667419007637E8 ; 5.0570596937759906E8 ; 2.8269545258528625E10 ; 0.0
149 ; 3223147.3359929323 ; 2.030820996499058E8 ; 5.0893704869778806E8 ; 2.847261200042939E10 ; 0.0
150 ; 3217095.857589825 ; 2.0309742286391947E8 ; 5.12160196033781E8 ; 2.8675694100079296E10 ; 0.0
151 ; 3213377.214462671 ; 2.0311271094983003E8 ; 5.1537729189137083E8 ; 2.8878791522943214E10 ; 0.0
152 ; 3206965.532832418 ; 2.0312796332252878E8 ; 5.1859066910583353E8 ; 2.9081904233893044E10 ; 0.0
153 ; 3202035.3643053863 ; 2.0314317940457603E8 ; 5.21797634638666E8 ; 2.9285032197215572E10 ; 0.0
154 ; 3194802.425665137 ; 2.0315835862601113E8 ; 5.2499967000297135E8 ; 2.9488175376620148E10 ; 0.0
155 ; 3186381.317140808 ; 2.031735004241689E8 ; 5.281944724286365E8 ; 2.969133373524616E10 ; 0.0
156 ; 3181980.4203916257 ; 2.031886042435026E8 ; 5.313808537457773E8 ; 2.9894507235670326E10 ; 0.0
157 ; 3176359.93062047 ; 2.0320366953541264E8 ; 5.345628341661689E8 ; 3.009769583991383E10 ; 0.0
158 ; 3172945.667430685 ; 2.0321869575808176E8 ; 5.377391940967894E8 ; 3.030089950944924E10 ; 0.0
159 ; 3164817.4318240713 ; 2.0323368237631515E8 ; 5.4091213976422E8 ; 3.0504118205207325E10 ; 0.0
160 ; 3162242.8128580414 ; 2.0324862886138654E8 ; 5.440769571960441E8 ; 3.070735188758364E10 ; 0.0
161 ; 3153045.206722681 ; 2.0326353469088924E8 ; 5.472392000089021E8 ; 3.0910600516445026E10 ; 0.0
162 ; 3146062.65318247 ; 2.032783993485924E8 ; 5.503922452156248E8 ; 3.1113864051135914E10 ; 0.0
163 ; 3143503.3040191894 ; 2.0329322232430205E8 ; 5.535383078688073E8 ; 3.1317142450484505E10 ; 0.0
164 ; 3133518.6074343123 ; 2.0330800311372674E8 ; 5.566818111728265E8 ; 3.1520435672808807E10 ; 0.0
165 ; 3128818.2502335357 ; 2.0332274121834785E8 ; 5.598153297802608E8 ; 3.1723743675922535E10 ; 0.0
166 ; 3123646.5489791613 ; 2.033374361452941E8 ; 5.629441480304943E8 ; 3.1927066417140884E10 ; 0.0
167 ; 3118099.9002715833 ; 2.0335208740722048E8 ; 5.660677945794735E8 ; 3.213040385328618E10 ; 0.0
168 ; 3111860.4046024224 ; 2.0336669452219078E8 ; 5.69185894479745E8 ; 3.2333755940693398E10 ; 0.0
169 ; 3107623.211919342 ; 2.033812570135646E8 ; 5.722977548843474E8 ; 3.2537122635215588E10 ; 0.0
170 ; 3098499.2725762115 ; 2.033957744098875E8 ; 5.754053780962667E8 ; 3.2740503892229153E10 ; 0.0
171 ; 3092361.0567539292 ; 2.0341024624478534E8 ; 5.78503877368843E8 ; 3.294389966663904E10 ; 0.0
172 ; 3086883.9257434043 ; 2.0342467205686164E8 ; 5.815962384255968E8 ; 3.3147309912883827E10 ; 0.0
173 ; 3080964.355240833 ; 2.0343905138959858E8 ; 5.846831223513403E8 ; 3.335073458494069E10 ; 0.0
174 ; 3077154.7064933334 ; 2.0345338379126108E8 ; 5.877640867065811E8 ; 3.3554173636330288E10 ; 0.0
175 ; 3072080.6996533307 ; 2.0346766881480423E8 ; 5.908412414130745E8 ; 3.3757627020121548E10 ; 0.0
176 ; 3066857.1162921274 ; 2.034819060177835E8 ; 5.939133221127279E8 ; 3.396109468893635E10 ; 0.0
177 ; 3061833.826049174 ; 2.03496094962268E8 ; 5.9698017922902E8 ; 3.4164576594954136E10 ; 0.0
178 ; 3055677.204217576 ; 2.0351023521475646E8 ; 6.000420130550692E8 ; 3.4368072689916405E10 ; 0.0
179 ; 3049717.4708279385 ; 2.0352432634609607E8 ; 6.030976902592868E8 ; 3.4571582925131165E10 ; 0.0
180 ; 3046466.6622113115 ; 2.0353836793140382E8 ; 6.061474077301147E8 ; 3.4775107251477264E10 ; 0.0
181 ; 3043485.442677616 ; 2.0355235954999033E8 ; 6.09193874392326E8 ; 3.497864561940867E10 ; 0.0
182 ; 3035602.2819348094 ; 2.0356630078528628E8 ; 6.122373598350036E8 ; 3.518219797895866E10 ; 0.0
183 ; 3031671.743122891 ; 2.0358019122477105E8 ; 6.152729621169385E8 ; 3.538576427974394E10 ; 0.0
184 ; 3024477.9699337203 ; 2.0359403045990366E8 ; 6.183046338600614E8 ; 3.558934447096871E10 ; 0.0
185 ; 3022127.845327319 ; 2.0360781808605608E8 ; 6.213291118299952E8 ; 3.579293850142861E10 ; 0.0
186 ; 3018936.9577104496 ; 2.0362155370244834E8 ; 6.243512396753225E8 ; 3.599654631951467E10 ; 0.0
187 ; 3011454.130158282 ; 2.0363523691208604E8 ; 6.27370176633033E8 ; 3.620016787321712E10 ; 0.0
188 ; 3010128.371075459 ; 2.0364886732169947E8 ; 6.303816307631913E8 ; 3.64038031101292E10 ; 0.0
189 ; 3001040.190746781 ; 2.036624445416851E8 ; 6.333917591342669E8 ; 3.6607451977450905E10 ; 0.0
190 ; 2999001.5027787364 ; 2.0367596818604848E8 ; 6.363927993250136E8 ; 3.681111442199259E10 ; 0.0
191 ; 2992170.304077561 ; 2.036894378723492E8 ; 6.393918008277924E8 ; 3.701479039017864E10 ; 0.0
192 ; 2989353.3897732794 ; 2.0370285322164744E8 ; 6.423839711318699E8 ; 3.7218479828050995E10 ; 0.0
193 ; 2982560.372189968 ; 2.0371621385845232E8 ; 6.453733245216432E8 ; 3.7422182681272644E10 ; 0.0
194 ; 2978507.4188319473 ; 2.0372951941067177E8 ; 6.483558848938332E8 ; 3.7625898895131096E10 ; 0.0
195 ; 2972575.065612635 ; 2.0374276950956395E8 ; 6.513343923126651E8 ; 3.782962841454177E10 ; 0.0
196 ; 2969463.9450627402 ; 2.037559637896902E8 ; 6.543069673782778E8 ; 3.803337118405134E10 ; 0.0
197 ; 2962429.317070176 ; 2.037691018888695E8 ; 6.572764313233405E8 ; 3.823712714784103E10 ; 0.0
198 ; 2956537.096203658 ; 2.037821834481344E8 ; 6.602388606404107E8 ; 3.84408962497299E10 ; 0.0
199 ; 2954828.7187635144 ; 2.03795208111688E8 ; 6.631953977366143E8 ; 3.864467843317803E10 ; 0.0
200 ; 2947906.325424062 ; 1.8066498453140292E8 ; 6.661502264553778E8 ; 3.884847364128972E10 ; 0.0
