CSV File for the City 3 on Day 214
1 - Minute m 
2 - Power Consumed at minute m 
3 - Power Produced at minute m 
4 - Energy Consumed since the beginning of the day 
5 - Energy Produced since the beginning of the day 
6 - Energy Lost since the beginning of the day on lines starting from the city
 
0 ; 150623.4274307922 ; 1.0531549232001004E8 ; 0.0 ; 0.0 ; 0.0
1 ; 152606.82162091025 ; 1.0546767892385244E8 ; 150623.4274307922 ; 1.0531549232001004E8 ; 0.0
2 ; 155453.77286975295 ; 1.0592870600224075E8 ; 303230.24905170244 ; 2.1078317124386248E8 ; 0.0
3 ; 159298.32536461574 ; 1.0669858147636408E8 ; 458684.0219214554 ; 3.167118772461032E8 ; 0.0
4 ; 163109.41177201748 ; 1.0777731277407748E8 ; 617982.3472860712 ; 4.234104587224673E8 ; 0.0
5 ; 167457.34664531462 ; 1.0916490669346112E8 ; 781091.7590580886 ; 5.311877714965448E8 ; 0.0
6 ; 173529.71753387587 ; 1.1086136926770034E8 ; 948549.1057034032 ; 6.403526781900059E8 ; 0.0
7 ; 181250.84460241423 ; 1.1286670563681227E8 ; 1122078.8232372792 ; 7.512140474577062E8 ; 0.0
8 ; 194540.7882149903 ; 1.1518091993206418E8 ; 1303329.6678396934 ; 8.640807530945184E8 ; 0.0
9 ; 210694.56034243671 ; 1.1780401517882001E8 ; 1497870.4560546838 ; 9.792616730265826E8 ; 0.0
10 ; 236322.19908833757 ; 1.2073599322296405E8 ; 1708565.0163971204 ; 1.0970656882054026E9 ; 0.0
11 ; 278166.4784344038 ; 1.2397685468499288E8 ; 1944887.215485458 ; 1.2178016814283667E9 ; 0.0
12 ; 345087.7656206651 ; 1.2752659894440988E8 ; 2223053.6939198617 ; 1.3417785361133595E9 ; 0.0
13 ; 408526.78117741365 ; 1.3138522415533078E8 ; 2568141.459540527 ; 1.4693051350577693E9 ; 0.0
14 ; 416242.5542066361 ; 1.3555272729239172E8 ; 2976668.2407179405 ; 1.6006903592131E9 ; 0.0
15 ; 419853.4769079868 ; 1.400291042243253E8 ; 3392910.7949245768 ; 1.7362430865054917E9 ; 0.0
16 ; 423501.3266254119 ; 1.4481434981111452E8 ; 3812764.2718325634 ; 1.876272190729817E9 ; 0.0
17 ; 427211.575319248 ; 1.4990845801957396E8 ; 4236265.598457975 ; 2.0210865405409315E9 ; 0.0
18 ; 429850.8374941911 ; 1.5531142205162346E8 ; 4663477.173777224 ; 2.1709949985605054E9 ; 0.0
19 ; 433156.0847827331 ; 1.61023234479408E8 ; 5093328.011271414 ; 2.3263064206121287E9 ; 0.0
20 ; 436896.60827735136 ; 1.670438873817384E8 ; 5526484.096054148 ; 2.4873296550915365E9 ; 0.0
21 ; 441817.52282483975 ; 1.7337337247698542E8 ; 5963380.7043314995 ; 2.6543735424732747E9 ; 0.0
22 ; 443915.24888400704 ; 1.8001168124843794E8 ; 6405198.227156339 ; 2.82774691495026E9 ; 0.0
23 ; 447264.6364254456 ; 1.869588050591238E8 ; 6849113.476040347 ; 3.007758596198698E9 ; 0.0
24 ; 451106.42372257897 ; 1.9421473525408453E8 ; 7296378.112465792 ; 3.194717401257822E9 ; 0.0
25 ; 454738.6384986544 ; 2.0046750414719367E8 ; 7747484.5361883715 ; 3.3889321365119066E9 ; 0.0
26 ; 457670.08308878937 ; 2.004706511327439E8 ; 8202223.174687026 ; 3.5893996406591005E9 ; 0.0
27 ; 461758.6948016393 ; 2.004739372714245E8 ; 8659893.257775815 ; 3.7898702917918444E9 ; 0.0
28 ; 465580.33131983725 ; 2.0047735458534965E8 ; 9121651.952577455 ; 3.9903442290632687E9 ; 0.0
29 ; 469232.29082646564 ; 2.004808953878567E8 ; 9587232.283897292 ; 4.190821583648618E9 ; 0.0
30 ; 471088.9175133816 ; 2.0048455230965725E8 ; 1.0056464574723758E7 ; 4.391302479036475E9 ; 0.0
31 ; 476017.15378164966 ; 2.004883183159639E8 ; 1.052755349223714E7 ; 4.591787031346132E9 ; 0.0
32 ; 478667.2573159405 ; 2.0049218671596393E8 ; 1.1003570646018788E7 ; 4.792275349662096E9 ; 0.0
33 ; 481693.810914027 ; 2.0049615116594613E8 ; 1.148223790333473E7 ; 4.99276753637806E9 ; 0.0
34 ; 484976.8176350079 ; 2.0050020566728282E8 ; 1.1963931714248756E7 ; 5.193263687544006E9 ; 0.0
35 ; 488188.67534973216 ; 2.005043445603433E8 ; 1.2448908531883763E7 ; 5.393763893211289E9 ; 0.0
36 ; 491224.2232397171 ; 2.0050856251528007E8 ; 1.2937097207233496E7 ; 5.594268237771633E9 ; 0.0
37 ; 493037.81320965785 ; 2.005128545204945E8 ; 1.3428321430473212E7 ; 5.794776800286913E9 ; 0.0
38 ; 496484.73935211654 ; 2.005172158694606E8 ; 1.392135924368287E7 ; 5.995289654807407E9 ; 0.0
39 ; 500338.57020527363 ; 2.0052164214646786E8 ; 1.4417843983034987E7 ; 6.195806870676868E9 ; 0.0
40 ; 501948.9804718481 ; 2.005261292117387E8 ; 1.491818255324026E7 ; 6.396328512823337E9 ; 0.0
41 ; 504682.1781285075 ; 2.0053067318628487E8 ; 1.5420131533712108E7 ; 6.596854642035075E9 ; 0.0
42 ; 505923.4797650131 ; 2.0053527043678737E8 ; 1.5924813711840615E7 ; 6.79738531522136E9 ; 0.0
43 ; 509793.53174032585 ; 2.00539917560719E8 ; 1.6430737191605628E7 ; 6.997920585658148E9 ; 0.0
44 ; 512471.12869507656 ; 2.005446113718722E8 ; 1.6940530723345954E7 ; 7.198460503218866E9 ; 0.0
45 ; 513366.0861611214 ; 2.0054934888640982E8 ; 1.7453001852041032E7 ; 7.399005114590738E9 ; 0.0
46 ; 515634.44128552754 ; 2.005541273095207E8 ; 1.7966367938202154E7 ; 7.599554463477148E9 ; 0.0
47 ; 517480.4238193817 ; 2.0055894402273026E8 ; 1.8482002379487682E7 ; 7.800108590786669E9 ; 0.0
48 ; 518558.9939343125 ; 2.0056379657189575E8 ; 1.8999482803307064E7 ; 8.000667534809399E9 ; 0.0
49 ; 520404.8228080951 ; 2.0056868265589556E8 ; 1.9518041797241375E7 ; 8.201231331381294E9 ; 0.0
50 ; 523573.57746475964 ; 2.005736001160101E8 ; 2.003844662004947E7 ; 8.4018000140371895E9 ; 0.0
51 ; 524270.27994849504 ; 2.005785469259799E8 ; 2.056202019751423E7 ; 8.6023736141532E9 ; 0.0
52 ; 524781.4264578235 ; 2.0058352118272066E8 ; 2.1086290477462724E7 ; 8.80295216107918E9 ; 0.0
53 ; 527538.4693760582 ; 2.005885210976683E8 ; 2.1611071903920546E7 ; 9.0035356822619E9 ; 0.0
54 ; 528956.1460558106 ; 2.0059354498872504E8 ; 2.2138610373296604E7 ; 9.204124203359568E9 ; 0.0
55 ; 529566.9925035548 ; 2.0059859127277428E8 ; 2.2667566519352414E7 ; 9.404717748348293E9 ; 0.0
56 ; 531248.0750963248 ; 2.006036584587319E8 ; 2.3197133511855967E7 ; 9.605316339621067E9 ; 0.0
57 ; 532970.3918057595 ; 2.0060874514110076E8 ; 2.372838158695229E7 ; 9.8059199980798E9 ; 0.0
58 ; 534576.5246027326 ; 2.0061384999399644E8 ; 2.4261351978758052E7 ; 1.00065287432209E10 ; 0.0
59 ; 535305.1746569664 ; 2.0061897176561186E8 ; 2.4795928503360786E7 ; 1.0207142593214895E10 ; 0.0
60 ; 537639.1858280277 ; 2.0062410927309132E8 ; 2.533123367801775E7 ; 1.0407761564980507E10 ; 0.0
61 ; 537918.3339981188 ; 2.006292613977838E8 ; 2.5868872863845777E7 ; 1.0608385674253597E10 ; 0.0
62 ; 539908.2265261066 ; 2.006344270808488E8 ; 2.6406791197843894E7 ; 1.080901493565138E10 ; 0.0
63 ; 541877.6477762408 ; 2.0063960531918842E8 ; 2.6946699424370002E7 ; 1.100964936273223E10 ; 0.0
64 ; 541861.9692563458 ; 2.006447951616811E8 ; 2.7488577072146244E7 ; 1.1210288968051418E10 ; 0.0
65 ; 543412.3187672293 ; 2.006499957056946E8 ; 2.803043904140259E7 ; 1.1410933763213099E10 ; 0.0
66 ; 545237.0631877693 ; 2.006552060938566E8 ; 2.857385136016982E7 ; 1.1611583758918793E10 ; 0.0
67 ; 545290.7514371902 ; 2.0066042551106364E8 ; 2.911908842335759E7 ; 1.181223896501265E10 ; 0.0
68 ; 546374.1577243749 ; 2.0066565318170923E8 ; 2.9664379174794782E7 ; 1.2012899390523714E10 ; 0.0
69 ; 549292.1826125425 ; 2.0067088836711517E8 ; 3.021075333251916E7 ; 1.2213565043705423E10 ; 0.0
70 ; 549375.9607717854 ; 2.0067613036314985E8 ; 3.07600455151317E7 ; 1.2414235932072538E10 ; 0.0
71 ; 550409.3804296522 ; 2.006813784980188E8 ; 3.1309421475903485E7 ; 1.2614912062435688E10 ; 0.0
72 ; 552140.1597624016 ; 2.0068663213021493E8 ; 3.1859830856333137E7 ; 1.2815593440933706E10 ; 0.0
73 ; 552507.9786637923 ; 2.0069189064661524E8 ; 3.2411971016095538E7 ; 1.3016280073063921E10 ; 0.0
74 ; 553884.7289969533 ; 2.0069715346071333E8 ; 3.296447899475933E7 ; 1.3216971963710537E10 ; 0.0
75 ; 554591.9884003741 ; 2.00702420010977E8 ; 3.3518363723756284E7 ; 1.341766911717125E10 ; 0.0
76 ; 555706.5140649552 ; 2.0070768975932133E8 ; 3.407295571215666E7 ; 1.3618371537182226E10 ; 0.0
77 ; 557268.401951695 ; 2.007129621896885E8 ; 3.462866222622161E7 ; 1.3819079226941547E10 ; 0.0
78 ; 557127.484072593 ; 2.0071823680672595E8 ; 3.518593062817331E7 ; 1.4019792189131235E10 ; 0.0
79 ; 556983.6767508197 ; 2.0072351313455594E8 ; 3.57430581122459E7 ; 1.4220510425937962E10 ; 0.0
80 ; 557541.0199650844 ; 2.0072879071562904E8 ; 3.630004178899672E7 ; 1.4421233939072517E10 ; 0.0
81 ; 558462.5691243936 ; 2.0073406910965556E8 ; 3.68575828089618E7 ; 1.4621962729788147E10 ; 0.0
82 ; 558502.2429900344 ; 2.007393478926091E8 ; 3.7416045378086194E7 ; 1.4822696798897802E10 ; 0.0
83 ; 557728.6388950278 ; 2.007446266557966E8 ; 3.7974547621076226E7 ; 1.5023436146790411E10 ; 0.0
84 ; 558868.3780872156 ; 2.0074990500499037E8 ; 3.853227625997125E7 ; 1.5224180773446207E10 ; 0.0
85 ; 559971.7358551268 ; 2.007551825596172E8 ; 3.909114463805847E7 ; 1.5424930678451197E10 ; 0.0
86 ; 559465.0148203253 ; 2.0076045895200047E8 ; 3.965111637391359E7 ; 1.5625685861010815E10 ; 0.0
87 ; 558907.250931256 ; 2.007657338266516E8 ; 4.0210581388733916E7 ; 1.5826446319962814E10 ; 0.0
88 ; 557280.2453198913 ; 2.0077100683960697E8 ; 4.076948863966517E7 ; 1.6027212053789467E10 ; 0.0
89 ; 559289.1109754371 ; 2.007762776578074E8 ; 4.132676888498506E7 ; 1.6227983060629074E10 ; 0.0
90 ; 559607.5841933849 ; 2.0078154595851675E8 ; 4.18860579959605E7 ; 1.6428759338286882E10 ; 0.0
91 ; 559296.4523578018 ; 2.0078681142877734E8 ; 4.244566558015388E7 ; 1.66295408842454E10 ; 0.0
92 ; 559156.0893840472 ; 2.007920737648992E8 ; 4.300496203251168E7 ; 1.6830327695674177E10 ; 0.0
93 ; 559023.5909292718 ; 2.0079733267198095E8 ; 4.356411812189573E7 ; 1.7031119769439075E10 ; 0.0
94 ; 558783.3286763658 ; 2.0080258786346033E8 ; 4.4123141712825E7 ; 1.7231917102111057E10 ; 0.0
95 ; 559469.5504747257 ; 2.008078390606919E8 ; 4.4681925041501366E7 ; 1.7432719689974518E10 ; 0.0
96 ; 558340.6138425125 ; 2.0081308599255037E8 ; 4.524139459197609E7 ; 1.763352752903521E10 ; 0.0
97 ; 557609.1811399037 ; 2.0081832839505786E8 ; 4.57997352058186E7 ; 1.783434061502776E10 ; 0.0
98 ; 558738.4351264482 ; 2.008235660110332E8 ; 4.63573443869585E7 ; 1.8035158943422817E10 ; 0.0
99 ; 558533.5250122801 ; 2.008287985897621E8 ; 4.691608282208495E7 ; 1.823598250943385E10 ; 0.0
100 ; 558662.524192742 ; 2.008340258866864E8 ; 4.7474616347097225E7 ; 1.8436811308023613E10 ; 0.0
101 ; 559738.2381248046 ; 2.0083924766311207E8 ; 4.803327887128997E7 ; 1.86376453339103E10 ; 0.0
102 ; 557037.498245286 ; 2.0084446368593305E8 ; 4.859301710941477E7 ; 1.8838484581573414E10 ; 0.0
103 ; 557243.7431469891 ; 2.0084967372737196E8 ; 4.9150054607660055E7 ; 1.9039329045259346E10 ; 0.0
104 ; 558188.4492142946 ; 2.0085487756473494E8 ; 4.970729835080704E7 ; 1.9240178718986717E10 ; 0.0
105 ; 556841.0088900231 ; 2.0086007498018038E8 ; 5.0265486800021335E7 ; 1.9441033596551453E10 ; 0.0
106 ; 557564.1949038729 ; 2.00865265760501E8 ; 5.082232780891136E7 ; 1.964189367153163E10 ; 0.0
107 ; 557653.8364332577 ; 2.0087044969691753E8 ; 5.137989200381523E7 ; 1.9842758937292133E10 ; 0.0
108 ; 556644.4374930856 ; 2.0087562658488432E8 ; 5.193754584024849E7 ; 2.004362938698905E10 ; 0.0
109 ; 556941.2543595444 ; 2.0088079622390506E8 ; 5.2494190277741574E7 ; 2.0244505013573936E10 ; 0.0
110 ; 556002.4785202586 ; 2.0088595841735902E8 ; 5.305113153210112E7 ; 2.044538580979784E10 ; 0.0
111 ; 557188.7570730317 ; 2.0089111297233635E8 ; 5.360713401062138E7 ; 2.06462717682152E10 ; 0.0
112 ; 555945.2742795269 ; 2.0089625969948244E8 ; 5.4164322767694406E7 ; 2.0847162881187534E10 ; 0.0
113 ; 554883.5703927093 ; 2.009013984128504E8 ; 5.472026804197393E7 ; 2.1048059140887016E10 ; 0.0
114 ; 554261.4639590345 ; 2.009065289297614E8 ; 5.527515161236665E7 ; 2.1248960539299866E10 ; 0.0
115 ; 554927.8502175333 ; 2.0091165107067242E8 ; 5.5829413076325685E7 ; 2.1449867068229626E10 ; 0.0
116 ; 553871.9805080822 ; 2.0091676465905088E8 ; 5.638434092654322E7 ; 2.1650778719300297E10 ; 0.0
117 ; 553315.5234404797 ; 2.0092186952125555E8 ; 5.69382129070513E7 ; 2.1851695483959347E10 ; 0.0
118 ; 552683.6044315418 ; 2.00926965486424E8 ; 5.749152843049178E7 ; 2.2052617353480602E10 ; 0.0
119 ; 553038.3581687992 ; 2.0093205238636544E8 ; 5.804421203492332E7 ; 2.2253544318967026E10 ; 0.0
120 ; 551991.203158035 ; 2.0093713005545914E8 ; 5.859725039309212E7 ; 2.245447637135339E10 ; 0.0
121 ; 552948.0613204563 ; 2.00942198330558E8 ; 5.9149241596250154E7 ; 2.2655413501408848E10 ; 0.0
122 ; 551572.3354291631 ; 2.0094725705089694E8 ; 5.970218965757061E7 ; 2.2856355699739407E10 ; 0.0
123 ; 551323.6990411609 ; 2.0095230605800584E8 ; 6.025376199299977E7 ; 2.3057302956790302E10 ; 0.0
124 ; 549815.6196460723 ; 2.0095734519562668E8 ; 6.080508569204093E7 ; 2.325825526284831E10 ; 0.0
125 ; 549129.7201768033 ; 2.0096237430963495E8 ; 6.1354901311687E7 ; 2.3459212608043934E10 ; 0.0
126 ; 548920.670284635 ; 2.0096739324796495E8 ; 6.19040310318638E7 ; 2.366017498235357E10 ; 0.0
127 ; 548738.3630094202 ; 2.009724018605382E8 ; 6.245295170214844E7 ; 2.3861142375601536E10 ; 0.0
128 ; 548357.0745314443 ; 2.0097739999919614E8 ; 6.300169006515786E7 ; 2.4062114777462074E10 ; 0.0
129 ; 548258.1061357965 ; 2.0098238751763523E8 ; 6.3550047139689304E7 ; 2.426309217746127E10 ; 0.0
130 ; 546413.2254514995 ; 2.0098736427134573E8 ; 6.40983052458251E7 ; 2.4464074564978905E10 ; 0.0
131 ; 545339.6413916348 ; 2.009923301175531E8 ; 6.4644718471276596E7 ; 2.466506192925025E10 ; 0.0
132 ; 543563.6538111828 ; 2.009972849151623E8 ; 6.519005811266823E7 ; 2.4866054259367805E10 ; 0.0
133 ; 542253.154665243 ; 2.0100222852470458E8 ; 6.573362176647942E7 ; 2.5067051544282967E10 ; 0.0
134 ; 540524.7964432645 ; 2.0100716080828682E8 ; 6.6275874921144664E7 ; 2.526805377280767E10 ; 0.0
135 ; 538266.5690129551 ; 2.0101208162954322E8 ; 6.6816399717587925E7 ; 2.546906093361596E10 ; 0.0
136 ; 537219.0911626462 ; 2.0101699085358924E8 ; 6.735466628660089E7 ; 2.5670073015245502E10 ; 0.0
137 ; 537475.8320191528 ; 2.010218883469776E8 ; 6.789188537776354E7 ; 2.587109000609909E10 ; 0.0
138 ; 534609.5467773386 ; 2.0102677397765633E8 ; 6.842936120978269E7 ; 2.6072111894446068E10 ; 0.0
139 ; 532956.561419909 ; 2.0103164761492866E8 ; 6.896397075656003E7 ; 2.6273138668423725E10 ; 0.0
140 ; 531902.6968053053 ; 2.0103650912941486E8 ; 6.949692731797993E7 ; 2.6474170316038654E10 ; 0.0
141 ; 529631.7475473745 ; 2.0104135839301556E8 ; 7.002883001478523E7 ; 2.6675206825168068E10 ; 0.0
142 ; 528811.7093190228 ; 2.0104619527887708E8 ; 7.05584617623326E7 ; 2.6876248183561085E10 ; 0.0
143 ; 527137.1317216246 ; 2.0105101966135782E8 ; 7.108727347165163E7 ; 2.7077294378839962E10 ; 0.0
144 ; 525694.1555390045 ; 2.0105583141599667E8 ; 7.161441060337326E7 ; 2.727834539850132E10 ; 0.0
145 ; 524367.590501563 ; 2.0106063041948232E8 ; 7.214010475891227E7 ; 2.7479401229917316E10 ; 0.0
146 ; 524102.5015116266 ; 2.010654165496243E8 ; 7.266447234941383E7 ; 2.76804618603368E10 ; 0.0
147 ; 523435.92806818784 ; 2.0107018968532506E8 ; 7.318857485092546E7 ; 2.7881527276886425E10 ; 0.0
148 ; 523105.823531784 ; 2.0107494970655337E8 ; 7.371201077899365E7 ; 2.808259746657175E10 ; 0.0
149 ; 521878.88304411224 ; 2.0107969649431878E8 ; 7.423511660252543E7 ; 2.8283672416278305E10 ; 0.0
150 ; 522052.55782280973 ; 2.0108442993064737E8 ; 7.475699548556954E7 ; 2.8484752112772625E10 ; 0.0
151 ; 519805.88772048295 ; 2.0108914989855832E8 ; 7.527904804339235E7 ; 2.8685836542703274E10 ; 0.0
152 ; 520174.41085583303 ; 2.010938562820416E8 ; 7.579885393111283E7 ; 2.8886925692601833E10 ; 0.0
153 ; 519944.80708903377 ; 2.0109854896603668E8 ; 7.631902834196866E7 ; 2.9088019548883877E10 ; 0.0
154 ; 519811.9738508711 ; 2.011032278364119E8 ; 7.683897314905769E7 ; 2.9289118097849915E10 ; 0.0
155 ; 518542.2466529776 ; 2.0110789277994508E8 ; 7.735878512290856E7 ; 2.9490221325686325E10 ; 0.0
156 ; 517542.6699176462 ; 2.011125436843046E8 ; 7.787732736956154E7 ; 2.969132921846627E10 ; 0.0
157 ; 516729.4319762665 ; 2.0111718043803155E8 ; 7.839487003947918E7 ; 2.9892441762150574E10 ; 0.0
158 ; 516171.68806867965 ; 2.011218029305224E8 ; 7.891159947145545E7 ; 3.0093558942588604E10 ; 0.0
159 ; 515546.7806698867 ; 2.011264110520126E8 ; 7.942777115952413E7 ; 3.0294680745519127E10 ; 0.0
160 ; 516108.6468289866 ; 2.0113100469356066E8 ; 7.994331794019401E7 ; 3.049580715657114E10 ; 0.0
161 ; 515207.117267406 ; 2.0113558374703315E8 ; 8.045942658702299E7 ; 3.06969381612647E10 ; 0.0
162 ; 514740.2456438409 ; 2.0114014810509005E8 ; 8.097463370429039E7 ; 3.0898073745011734E10 ; 0.0
163 ; 513806.201919128 ; 2.011446976611709E8 ; 8.148937394993423E7 ; 3.1099213893116825E10 ; 0.0
164 ; 512083.58814856445 ; 2.011492323094815E8 ; 8.200318015185335E7 ; 3.1300358590777996E10 ; 0.0
165 ; 512142.7622755324 ; 2.0115375194498104E8 ; 8.251526374000192E7 ; 3.150150782308748E10 ; 0.0
166 ; 512420.4848930842 ; 2.0115825646336985E8 ; 8.302740650227745E7 ; 3.170266157503246E10 ; 0.0
167 ; 510421.5719552246 ; 2.011627457610777E8 ; 8.353982698717053E7 ; 3.190381983149583E10 ; 0.0
168 ; 511376.8088864181 ; 2.011672197352525E8 ; 8.405024855912575E7 ; 3.210498257725691E10 ; 0.0
169 ; 510741.7515190055 ; 2.0117167828374943E8 ; 8.456162536801217E7 ; 3.230614979699216E10 ; 0.0
170 ; 509026.3715440025 ; 2.011761213051207E8 ; 8.507236711953118E7 ; 3.250732147527591E10 ; 0.0
171 ; 509114.009050714 ; 2.011805486986055E8 ; 8.558139349107519E7 ; 3.270849759658103E10 ; 0.0
172 ; 508332.7015358776 ; 2.0118496036412048E8 ; 8.60905075001259E7 ; 3.2909678145279636E10 ; 0.0
173 ; 506651.93929222383 ; 2.0118935620225063E8 ; 8.659884020166178E7 ; 3.3110863105643757E10 ; 0.0
174 ; 507090.52949476766 ; 2.011937361142405E8 ; 8.7105492140954E7 ; 3.331205246184601E10 ; 0.0
175 ; 506559.0199271411 ; 2.0119810000198576E8 ; 8.761258267044877E7 ; 3.3513246197960247E10 ; 0.0
176 ; 505796.1422266672 ; 2.0120244776802513E8 ; 8.811914169037591E7 ; 3.3714444297962234E10 ; 0.0
177 ; 506357.5473389172 ; 2.012067793155327E8 ; 8.862493783260258E7 ; 3.391564674573026E10 ; 0.0
178 ; 505346.9801044366 ; 2.0121109454831046E8 ; 8.91312953799415E7 ; 3.411685352504579E10 ; 0.0
179 ; 504730.7627271022 ; 2.0121539337078106E8 ; 8.963664236004592E7 ; 3.43180646195941E10 ; 0.0
180 ; 504715.74992494675 ; 2.012196756879812E8 ; 9.014137312277302E7 ; 3.451928001296488E10 ; 0.0
181 ; 504774.17295319197 ; 2.0122394140555483E8 ; 9.064608887269796E7 ; 3.472049968865286E10 ; 0.0
182 ; 503775.72781555593 ; 2.0122819042974716E8 ; 9.115086304565115E7 ; 3.492172363005842E10 ; 0.0
183 ; 503602.91508098005 ; 2.0123242266739836E8 ; 9.16546387734667E7 ; 3.512295182048817E10 ; 0.0
184 ; 502782.5851198152 ; 2.0123663802593783E8 ; 9.215824168854769E7 ; 3.532418424315556E10 ; 0.0
185 ; 502459.24108576047 ; 2.0124083641337878E8 ; 9.26610242736675E7 ; 3.55254208811815E10 ; 0.0
186 ; 501517.6964083458 ; 2.0124501773831278E8 ; 9.316348351475327E7 ; 3.572666171759488E10 ; 0.0
187 ; 502142.3111689878 ; 2.0124918190990478E8 ; 9.366500121116161E7 ; 3.592790673533319E10 ; 0.0
188 ; 502151.7416623422 ; 2.012533288378881E8 ; 9.41671435223306E7 ; 3.6129155917243095E10 ; 0.0
189 ; 500599.4342632557 ; 2.0125745843255976E8 ; 9.466929526399294E7 ; 3.6330409246080986E10 ; 0.0
190 ; 499780.58934934513 ; 2.012615706047761E8 ; 9.51698946982562E7 ; 3.653166670451354E10 ; 0.0
191 ; 500081.323682388 ; 2.012656652659484E8 ; 9.566967528760554E7 ; 3.673292827511832E10 ; 0.0
192 ; 500185.86179717636 ; 2.0126974232803872E8 ; 9.616975661128792E7 ; 3.693419394038426E10 ; 0.0
193 ; 500044.4743278017 ; 2.0127380170355597E8 ; 9.66699424730851E7 ; 3.71354636827123E10 ; 0.0
194 ; 498854.0754834819 ; 2.0127784330555218E8 ; 9.716998694741291E7 ; 3.7336737484415855E10 ; 0.0
195 ; 497869.7103730174 ; 2.0128186704761878E8 ; 9.76688410228964E7 ; 3.7538015327721405E10 ; 0.0
196 ; 496525.7305362509 ; 2.012858728438832E8 ; 9.816671073326941E7 ; 3.773929719476902E10 ; 0.0
197 ; 496921.2635739005 ; 2.012898606090055E8 ; 9.866323646380566E7 ; 3.79405830676129E10 ; 0.0
198 ; 496577.5823207647 ; 2.0129383025817528E8 ; 9.916015772737956E7 ; 3.814187292822191E10 ; 0.0
199 ; 496185.469828066 ; 2.012977817071085E8 ; 9.965673530970033E7 ; 3.834316675848009E10 ; 0.0
200 ; 497886.86336156307 ; 2.0130171487204462E8 ; 1.001529207795284E8 ; 3.8544464540187195E10 ; 0.0
201 ; 495529.6159153423 ; 2.0130562966974384E8 ; 1.0065080764288996E8 ; 3.874576625505924E10 ; 0.0
