CSV File for the City 6 on Day 347
1 - Minute m 
2 - Power Consumed at minute m 
3 - Power Produced at minute m 
4 - Energy Consumed since the beginning of the day 
5 - Energy Produced since the beginning of the day 
6 - Energy Lost since the beginning of the day on lines starting from the city
 
0 ; 1.117529017825437E7 ; 1.0621987397347197E8 ; 0.0 ; 0.0 ; 0.0
1 ; 1.1191253968832988E7 ; 1.0637079245483273E8 ; 1.117529017825437E7 ; 1.0621987397347197E8 ; 0.0
2 ; 1.1203230158120124E7 ; 1.0683070104357341E8 ; 2.2366544147087358E7 ; 2.125906664283047E8 ; 0.0
3 ; 1.1217072364005832E7 ; 1.0759960301312965E8 ; 3.356977430520748E7 ; 3.194213674718781E8 ; 0.0
4 ; 1.1230635835550906E7 ; 1.0867750129161197E8 ; 4.478684666921332E7 ; 4.2702097048500776E8 ; 0.0
5 ; 1.1250897019874578E7 ; 1.1006439844744211E8 ; 5.601748250476422E7 ; 5.3569847177661973E8 ; 0.0
6 ; 1.1278085218341988E7 ; 1.1176029667654142E8 ; 6.72683795246388E7 ; 6.457628702240618E8 ; 0.0
7 ; 1.1313389093448795E7 ; 1.1376519779121989E8 ; 7.85464647429808E7 ; 7.575231669006033E8 ; 0.0
8 ; 1.1367858538131459E7 ; 1.1607910321089667E8 ; 8.98598538364296E7 ; 8.712883646918232E8 ; 0.0
9 ; 1.1451828458655965E7 ; 1.187020139547621E8 ; 1.0122771237456106E8 ; 9.8736746790272E8 ; 0.0
10 ; 1.1576023648166299E7 ; 1.2163393063647157E8 ; 1.1267954083321702E8 ; 1.106069481857482E9 ; 0.0
11 ; 1.1770486183460629E7 ; 1.2487485346093497E8 ; 1.2425556448138332E8 ; 1.2277034124939535E9 ; 0.0
12 ; 1.208898696257885E7 ; 1.2842478222324237E8 ; 1.3602605066484395E8 ; 1.3525782659548883E9 ; 0.0
13 ; 1.2391381656651717E7 ; 1.322837163097384E8 ; 1.481150376274228E8 ; 1.4810030481781306E9 ; 0.0
14 ; 1.2429610636026984E7 ; 1.364516547012328E8 ; 1.6050641928407452E8 ; 1.613286764487869E9 ; 0.0
15 ; 1.2447773957885247E7 ; 1.409285959783063E8 ; 1.729360299201015E8 ; 1.7497384191891017E9 ; 0.0
16 ; 1.2455731025136402E7 ; 1.45714538328649E8 ; 1.8538380387798673E8 ; 1.890667015167408E9 ; 0.0
17 ; 1.247204172002533E7 ; 1.5080947955633953E8 ; 1.9783953490312314E8 ; 2.036381553496057E9 ; 0.0
18 ; 1.2489205803066844E7 ; 1.5621341709295613E8 ; 2.1031157662314847E8 ; 2.187191033052397E9 ; 0.0
19 ; 1.249972787499721E7 ; 1.6192634801038828E8 ; 2.2280078242621532E8 ; 2.343404450145353E9 ; 0.0
20 ; 1.2516710405287692E7 ; 1.6794826903520033E8 ; 2.3530051030121252E8 ; 2.505330798155741E9 ; 0.0
21 ; 1.2530500703475216E7 ; 1.7427917656438658E8 ; 2.478172207065002E8 ; 2.6732790671909413E9 ; 0.0
22 ; 1.254243542786005E7 ; 1.8091906668234497E8 ; 2.603477214099754E8 ; 2.8475582437553277E9 ; 0.0
23 ; 1.2559463104410775E7 ; 1.8786793517888921E8 ; 2.7289015683783543E8 ; 3.0284773104376726E9 ; 0.0
24 ; 1.2571900740373341E7 ; 1.9512577756811494E8 ; 2.854496199422462E8 ; 3.216345245616562E9 ; 0.0
25 ; 1.2591298329329325E7 ; 2.0138063000611848E8 ; 2.980215206826195E8 ; 3.4114710231846766E9 ; 0.0
26 ; 1.2600907045216065E7 ; 2.0138603534791303E8 ; 3.106128190119488E8 ; 3.612851653190795E9 ; 0.0
27 ; 1.2619842689333472E7 ; 2.013917576926587E8 ; 3.232137260571649E8 ; 3.8142376885387077E9 ; 0.0
28 ; 1.2632235628084233E7 ; 2.0139779165089574E8 ; 3.358335687464984E8 ; 4.0156294462313666E9 ; 0.0
29 ; 1.2647381779685736E7 ; 2.0140413165822247E8 ; 3.4846580437458265E8 ; 4.217027237882262E9 ; 0.0
30 ; 1.2661156284423722E7 ; 2.0141077199554795E8 ; 3.611131861542684E8 ; 4.418431369540484E9 ; 0.0
31 ; 1.2674614423673224E7 ; 2.0141770680902505E8 ; 3.737743424386921E8 ; 4.619842141536033E9 ; 0.0
32 ; 1.268531872424893E7 ; 2.014249301295382E8 ; 3.864489568623653E8 ; 4.8212598483450575E9 ; 0.0
33 ; 1.269913382206577E7 ; 2.0143243589163402E8 ; 3.9913427558661425E8 ; 5.022684778474596E9 ; 0.0
34 ; 1.270888643606465E7 ; 2.0144021795179737E8 ; 4.1183340940868E8 ; 5.22411721436623E9 ; 0.0
35 ; 1.2722233216570256E7 ; 2.0144827010599032E8 ; 4.245422958447447E8 ; 5.4255574323180275E9 ; 0.0
36 ; 1.2736866370560028E7 ; 2.014565861063855E8 ; 4.3726452906131494E8 ; 5.627005702424018E9 ; 0.0
37 ; 1.274903584036431E7 ; 2.014651596772393E8 ; 4.50001395431875E8 ; 5.828462288530403E9 ; 0.0
38 ; 1.2758250567407236E7 ; 2.0147398452986395E8 ; 4.627504312722393E8 ; 6.029927448207643E9 ; 0.0
39 ; 1.2767145596181773E7 ; 2.014830543766693E8 ; 4.755086818396466E8 ; 6.231401432737507E9 ; 0.0
40 ; 1.2779010245774793E7 ; 2.0149236294425717E8 ; 4.882758274358283E8 ; 6.432884487114176E9 ; 0.0
41 ; 1.2787810029789988E7 ; 2.0150190398556194E8 ; 5.0105483768160313E8 ; 6.634376850058433E9 ; 0.0
42 ; 1.27962259972819E7 ; 2.015116712910393E8 ; 5.138426477113931E8 ; 6.835878754043995E9 ; 0.0
43 ; 1.2802514982757531E7 ; 2.0152165869891465E8 ; 5.26638873708675E8 ; 7.037390425335034E9 ; 0.0
44 ; 1.281132771307802E7 ; 2.0153186010450995E8 ; 5.394413886914326E8 ; 7.238912084033949E9 ; 0.0
45 ; 1.2820441212640632E7 ; 2.015422694686725E8 ; 5.522527164045106E8 ; 7.440443944138459E9 ; 0.0
46 ; 1.2829780249480233E7 ; 2.015528808253366E8 ; 5.650731576171513E8 ; 7.641986213607132E9 ; 0.0
47 ; 1.2833582156166498E7 ; 2.015636882882512E8 ; 5.779029378666315E8 ; 7.843539094432468E9 ; 0.0
48 ; 1.2839573630339747E7 ; 2.0157468605691162E8 ; 5.907365200227981E8 ; 8.045102782720719E9 ; 0.0
49 ; 1.2846957433214966E7 ; 2.01585868421735E8 ; 6.035760936531378E8 ; 8.246677468777631E9 ; 0.0
50 ; 1.2849076725419862E7 ; 2.0159722976852065E8 ; 6.164230510863528E8 ; 8.448263337199366E9 ; 0.0
51 ; 1.2851697580858715E7 ; 2.016087645822393E8 ; 6.292721278117727E8 ; 8.649860566967886E9 ; 0.0
52 ; 1.2857428410985826E7 ; 2.01620467450193E8 ; 6.421238253926314E8 ; 8.851469331550125E9 ; 0.0
53 ; 1.2860501723114079E7 ; 2.0163233306459048E8 ; 6.549812538036172E8 ; 9.053089799000319E9 ; 0.0
54 ; 1.2867383160742685E7 ; 2.016443562245796E8 ; 6.678417555267314E8 ; 9.254722132064909E9 ; 0.0
55 ; 1.2868357121223917E7 ; 2.0165653183777964E8 ; 6.80709138687474E8 ; 9.456366488289488E9 ; 0.0
56 ; 1.2873412098518826E7 ; 2.0166885492135403E8 ; 6.935774958086979E8 ; 9.658023020127268E9 ; 0.0
57 ; 1.2871273110537598E7 ; 2.0168132060266295E8 ; 7.064509079072168E8 ; 9.859691875048622E9 ; 0.0
58 ; 1.2877813261972282E7 ; 2.0169392411953416E8 ; 7.193221810177544E8 ; 1.0061373195651285E10 ; 0.0
59 ; 1.2879807431878367E7 ; 2.0170666082018754E8 ; 7.321999942797267E8 ; 1.0263067119770819E10 ; 0.0
60 ; 1.2882682989610996E7 ; 2.0171952616284844E8 ; 7.450798017116051E8 ; 1.0464773780591005E10 ; 0.0
61 ; 1.2886891675100716E7 ; 2.017325157150818E8 ; 7.579624847012161E8 ; 1.0666493306753853E10 ; 0.0
62 ; 1.2890224238320995E7 ; 2.0174562515287772E8 ; 7.708493763763168E8 ; 1.0868225822468935E10 ; 0.0
63 ; 1.2893415551054465E7 ; 2.0175885025951713E8 ; 7.837396006146377E8 ; 1.1069971447621813E10 ; 0.0
64 ; 1.2896049594475016E7 ; 2.0177218692424423E8 ; 7.966330161656922E8 ; 1.127173029788133E10 ; 0.0
65 ; 1.2898383691901587E7 ; 2.017856311407699E8 ; 8.095290657601672E8 ; 1.1473502484805574E10 ; 0.0
66 ; 1.2901631632727802E7 ; 2.0179917900563E8 ; 8.224274494520688E8 ; 1.1675288115946344E10 ; 0.0
67 ; 1.2907281661897399E7 ; 2.0181282671641853E8 ; 8.353290810847967E8 ; 1.1877087294951975E10 ; 0.0
68 ; 1.2906351076058844E7 ; 2.0182657056991586E8 ; 8.482363627466941E8 ; 1.2078900121668394E10 ; 0.0
69 ; 1.2901837813018052E7 ; 2.0184040696012914E8 ; 8.61142713822753E8 ; 1.228072669223831E10 ; 0.0
70 ; 1.2910994840941729E7 ; 2.018543323762616E8 ; 8.74044551635771E8 ; 1.2482567099198439E10 ; 0.0
71 ; 1.2912027349555554E7 ; 2.018683434006249E8 ; 8.869555464767128E8 ; 1.26844214315747E10 ; 0.0
72 ; 1.2910810023850288E7 ; 2.0188243670650828E8 ; 8.998675738262684E8 ; 1.2886289774975325E10 ; 0.0
73 ; 1.2913716990428096E7 ; 2.0189660905601606E8 ; 9.127783838501188E8 ; 1.3088172211681833E10 ; 0.0
74 ; 1.2916958522696942E7 ; 2.0191085729788482E8 ; 9.256921008405468E8 ; 1.329006882073785E10 ; 0.0
75 ; 1.2919816396200437E7 ; 2.0192517836528918E8 ; 9.386090593632438E8 ; 1.3491979678035734E10 ; 0.0
76 ; 1.291981571552286E7 ; 2.0193956927364552E8 ; 9.515288757594442E8 ; 1.3693904856401024E10 ; 0.0
77 ; 1.2917181736717861E7 ; 2.019540271184206E8 ; 9.644486914749671E8 ; 1.389584442567467E10 ; 0.0
78 ; 1.2916575300987542E7 ; 2.0196854907295248E8 ; 9.77365873211685E8 ; 1.409779845279309E10 ; 0.0
79 ; 1.2915895815224243E7 ; 2.0198313238628897E8 ; 9.902824485126724E8 ; 1.4299767001866043E10 ; 0.0
80 ; 1.2910009380919602E7 ; 2.0199777438104925E8 ; 1.0031983443278967E9 ; 1.4501750134252333E10 ; 0.0
81 ; 1.2910753580502734E7 ; 2.0201247245131296E8 ; 1.0161083537088163E9 ; 1.4703747908633383E10 ; 0.0
82 ; 1.2904191113443352E7 ; 2.0202722406054068E8 ; 1.029019107289319E9 ; 1.4905760381084696E10 ; 0.0
83 ; 1.2903439426450497E7 ; 2.020420267395288E8 ; 1.0419232984027624E9 ; 1.5107787605145237E10 ; 0.0
84 ; 1.2897411033161808E7 ; 2.020568780844021E8 ; 1.0548267378292129E9 ; 1.5309829631884766E10 ; 0.0
85 ; 1.2896080377418015E7 ; 2.020717757546458E8 ; 1.0677241488623747E9 ; 1.5511886509969168E10 ; 0.0
86 ; 1.2895124952992376E7 ; 2.02086717471179E8 ; 1.0806202292397926E9 ; 1.5713958285723814E10 ; 0.0
87 ; 1.2888694530283978E7 ; 2.0210170101447165E8 ; 1.093515354192785E9 ; 1.5916045003194992E10 ; 0.0
88 ; 1.2888127377276802E7 ; 2.0211672422270527E8 ; 1.106404048723069E9 ; 1.6118146704209463E10 ; 0.0
89 ; 1.2880330094938695E7 ; 2.0213178498997903E8 ; 1.1192921761003458E9 ; 1.6320263428432169E10 ; 0.0
90 ; 1.2878847513049385E7 ; 2.0214688126456133E8 ; 1.1321725061952846E9 ; 1.6522395213422148E10 ; 0.0
91 ; 1.2871284150184222E7 ; 2.0216201104718763E8 ; 1.145051353708334E9 ; 1.6724542094686708E10 ; 0.0
92 ; 1.2871388169355622E7 ; 2.021771723894042E8 ; 1.1579226378585181E9 ; 1.6926704105733896E10 ; 0.0
93 ; 1.2864893806489069E7 ; 2.021923633919582E8 ; 1.1707940260278738E9 ; 1.71288812781233E10 ; 0.0
94 ; 1.286197543976379E7 ; 2.022075822032337E8 ; 1.1836589198343627E9 ; 1.733107364151526E10 ; 0.0
95 ; 1.285763988188137E7 ; 2.0222282701773304E8 ; 1.1965208952741265E9 ; 1.753328122371849E10 ; 0.0
96 ; 1.2849705159152588E7 ; 2.022380960746037E8 ; 1.209378535156008E9 ; 1.7735504050736225E10 ; 0.0
97 ; 1.2848463900316492E7 ; 2.022533876562095E8 ; 1.2222282403151605E9 ; 1.793774214681083E10 ; 0.0
98 ; 1.2843111485573934E7 ; 2.0226870008674562E8 ; 1.235076704215477E9 ; 1.8139995534467037E10 ; 0.0
99 ; 1.284006261316273E7 ; 2.0228403173089695E8 ; 1.247919815701051E9 ; 1.8342264234553783E10 ; 0.0
100 ; 1.2829810422362281E7 ; 2.022993809925388E8 ; 1.2607598783142138E9 ; 1.854454826628468E10 ; 0.0
101 ; 1.2827406938243035E7 ; 2.0231474631347886E8 ; 1.273589688736576E9 ; 1.8746847647277218E10 ; 0.0
102 ; 1.2818700854654908E7 ; 2.023301261722401E8 ; 1.2864170956748192E9 ; 1.89491623935907E10 ; 0.0
103 ; 1.2814047257100685E7 ; 2.0234551908288306E8 ; 1.2992357965294743E9 ; 1.915149251976294E10 ; 0.0
104 ; 1.2810547461907895E7 ; 2.0236092359386697E8 ; 1.3120498437865748E9 ; 1.935383803884582E10 ; 0.0
105 ; 1.2803967180839794E7 ; 2.0237633828694862E8 ; 1.3248603912484827E9 ; 1.955619896243969E10 ; 0.0
106 ; 1.2796417296418319E7 ; 2.0239176177611792E8 ; 1.3376643584293225E9 ; 1.975857530072664E10 ; 0.0
107 ; 1.2793059896296998E7 ; 2.0240719270656916E8 ; 1.350460775725741E9 ; 1.9960967062502758E10 ; 0.0
108 ; 1.278426251501423E7 ; 2.024226297537071E8 ; 1.363253835622038E9 ; 2.0163374255209328E10 ; 0.0
109 ; 1.2778766968296008E7 ; 2.024380716221868E8 ; 1.376038098137052E9 ; 2.0365796884963036E10 ; 0.0
110 ; 1.2774967736648912E7 ; 2.024535170449861E8 ; 1.388816865105348E9 ; 2.0568234956585224E10 ; 0.0
111 ; 1.277016335277377E7 ; 2.0246896478250986E8 ; 1.401591832841997E9 ; 2.077068847363021E10 ; 0.0
112 ; 1.2759592316338677E7 ; 2.0248441362172514E8 ; 1.4143619961947706E9 ; 2.097315743841272E10 ; 0.0
113 ; 1.275534646753923E7 ; 2.0249986237532607E8 ; 1.4271215885111094E9 ; 2.1175641852034447E10 ; 0.0
114 ; 1.274860188758196E7 ; 2.025153098809275E8 ; 1.4398769349786487E9 ; 2.137814171440977E10 ; 0.0
115 ; 1.2741631483698888E7 ; 2.0253075500028688E8 ; 1.4526255368662307E9 ; 2.15806570242907E10 ; 0.0
116 ; 1.27355332953412E7 ; 2.025461966185529E8 ; 1.4653671683499296E9 ; 2.1783187779290985E10 ; 0.0
117 ; 1.2726416780257769E7 ; 2.025616336435403E8 ; 1.4781027016452708E9 ; 2.198573397590954E10 ; 0.0
118 ; 1.2719668325259509E7 ; 2.0257706500503018E8 ; 1.4908291184255285E9 ; 2.2188295609553078E10 ; 0.0
119 ; 1.271133842976827E7 ; 2.0259248965409443E8 ; 1.503548786750788E9 ; 2.239087267455811E10 ; 0.0
120 ; 1.2704131811694784E7 ; 2.0260790656244388E8 ; 1.5162601251805563E9 ; 2.2593465164212204E10 ; 0.0
121 ; 1.2697163043684786E7 ; 2.0262331472179925E8 ; 1.5289642569922512E9 ; 2.2796073070774647E10 ; 0.0
122 ; 1.269044798353043E7 ; 2.0263871314328402E8 ; 1.5416614200359359E9 ; 2.2998696385496445E10 ; 0.0
123 ; 1.2683752639721034E7 ; 2.026541008568386E8 ; 1.5543518680194664E9 ; 2.320133509863973E10 ; 0.0
124 ; 1.2676520572819129E7 ; 2.026694769106549E8 ; 1.5670356206591873E9 ; 2.3403989199496567E10 ; 0.0
125 ; 1.2663144948100977E7 ; 2.0268484037063077E8 ; 1.5797121412320065E9 ; 2.3606658676407223E10 ; 0.0
126 ; 1.2660254875874082E7 ; 2.0270019031984332E8 ; 1.5923752861801076E9 ; 2.3809343516777855E10 ; 0.0
127 ; 1.2650245739543848E7 ; 2.0271552585804096E8 ; 1.6050355410559816E9 ; 2.40120437070977E10 ; 0.0
128 ; 1.2640795815622868E7 ; 2.027308461011528E8 ; 1.6176857867955256E9 ; 2.4214759232955738E10 ; 0.0
129 ; 1.26321360488705E7 ; 2.0274615018081546E8 ; 1.6303265826111484E9 ; 2.4417490079056892E10 ; 0.0
130 ; 1.2623119986196535E7 ; 2.0276143724391615E8 ; 1.642958718660019E9 ; 2.462023622923771E10 ; 0.0
131 ; 1.2609723787908569E7 ; 2.0277670645215186E8 ; 1.6555818386462154E9 ; 2.4822997666481625E10 ; 0.0
132 ; 1.2599103473360365E7 ; 2.0279195698160368E8 ; 1.668191562434124E9 ; 2.5025774372933777E10 ; 0.0
133 ; 1.258429935340112E7 ; 2.02807188022326E8 ; 1.6807906659074843E9 ; 2.5228566329915382E10 ; 0.0
134 ; 1.2572300801878424E7 ; 2.0282239877795002E8 ; 1.6933749652608855E9 ; 2.543137351793771E10 ; 0.0
135 ; 1.2556693880771084E7 ; 2.0283758846530086E8 ; 1.705947266062764E9 ; 2.563419591671566E10 ; 0.0
136 ; 1.2544383656533789E7 ; 2.0285275631402797E8 ; 1.718503959943535E9 ; 2.583703350518096E10 ; 0.0
137 ; 1.2529923784701955E7 ; 2.0286790156624824E8 ; 1.7310483436000688E9 ; 2.603988626149499E10 ; 0.0
138 ; 1.2518965903360613E7 ; 2.0288302347620165E8 ; 1.7435782673847709E9 ; 2.624275416306124E10 ; 0.0
139 ; 1.250519213445112E7 ; 2.0289812130991825E8 ; 1.7560972332881315E9 ; 2.644563718653744E10 ; 0.0
140 ; 1.2494910798713738E7 ; 2.0291319434489715E8 ; 1.7686024254225826E9 ; 2.664853530784736E10 ; 0.0
141 ; 1.2479142401913343E7 ; 2.0292824186979616E8 ; 1.7810973362212963E9 ; 2.6851448502192257E10 ; 0.0
142 ; 1.2465728371219711E7 ; 2.0294326318413204E8 ; 1.7935764786232097E9 ; 2.7054376744062054E10 ; 0.0
143 ; 1.2448189812816137E7 ; 2.0295825759799123E8 ; 1.8060422069944293E9 ; 2.7257320007246185E10 ; 0.0
144 ; 1.2439717738642221E7 ; 2.0297322443175003E8 ; 1.8184903968072455E9 ; 2.7460278264844177E10 ; 0.0
145 ; 1.242857604966682E7 ; 2.029881630158048E8 ; 1.8309301145458877E9 ; 2.766325148927593E10 ; 0.0
146 ; 1.2418071090960357E7 ; 2.0300307269031075E8 ; 1.8433586905955546E9 ; 2.7866239652291733E10 ; 0.0
147 ; 1.2409491354766922E7 ; 2.030179528049299E8 ; 1.8557767616865149E9 ; 2.8069242724982044E10 ; 0.0
148 ; 1.2397931338797651E7 ; 2.0303280271858767E8 ; 1.8681862530412817E9 ; 2.8272260677786976E10 ; 0.0
149 ; 1.2390289002923453E7 ; 2.0304762179923716E8 ; 1.8805841843800793E9 ; 2.847529348050556E10 ; 0.0
150 ; 1.2382096430443838E7 ; 2.0306240942363185E8 ; 1.8929744733830028E9 ; 2.86783411023048E10 ; 0.0
151 ; 1.2372315393611891E7 ; 2.030771649771057E8 ; 1.9053565698134465E9 ; 2.888140351172843E10 ; 0.0
152 ; 1.2364120444068443E7 ; 2.0309188785336056E8 ; 1.9177288852070584E9 ; 2.9084480676705536E10 ; 0.0
153 ; 1.2356786887699403E7 ; 2.0310657745426077E8 ; 1.9300930056511269E9 ; 2.9287572564558895E10 ; 0.0
154 ; 1.2343498429168943E7 ; 2.0312123318963447E8 ; 1.9424497925388262E9 ; 2.9490679142013157E10 ; 0.0
155 ; 1.2337783415425478E7 ; 2.0313585447708172E8 ; 1.9547932909679952E9 ; 2.9693800375202793E10 ; 0.0
156 ; 1.2326051873846801E7 ; 2.0315044074178863E8 ; 1.9671310743834207E9 ; 2.9896936229679874E10 ; 0.0
157 ; 1.2316384927202465E7 ; 2.03164991416348E8 ; 1.9794571262572675E9 ; 3.010008667042166E10 ; 0.0
158 ; 1.2308978861697163E7 ; 2.031795059405856E8 ; 1.99177351118447E9 ; 3.030325166183801E10 ; 0.0
159 ; 1.2298214452937689E7 ; 2.031939837613922E8 ; 2.0040824900461671E9 ; 3.0506431167778595E10 ; 0.0
160 ; 1.2283720852367751E7 ; 2.0320842433256125E8 ; 2.0163807044991047E9 ; 3.0709625151539986E10 ; 0.0
161 ; 1.2276904653989727E7 ; 2.0322282711463162E8 ; 2.0286644253514724E9 ; 3.0912833575872547E10 ; 0.0
162 ; 1.226802506071749E7 ; 2.0323719157473576E8 ; 2.0409413300054622E9 ; 3.111605640298718E10 ; 0.0
163 ; 1.2256327721742647E7 ; 2.0325151718645248E8 ; 2.0532093550661798E9 ; 3.1319293594561916E10 ; 0.0
164 ; 1.224746996358933E7 ; 2.0326580342966473E8 ; 2.0654656827879224E9 ; 3.1522545111748367E10 ; 0.0
165 ; 1.22332343909749E7 ; 2.0328004979042196E8 ; 2.0777131527515118E9 ; 3.1725810915178032E10 ; 0.0
166 ; 1.2227359211891366E7 ; 2.0329425576080674E8 ; 2.0899463871424868E9 ; 3.1929090964968452E10 ; 0.0
167 ; 1.2214299272639127E7 ; 2.033084208388059E8 ; 2.1021737463543782E9 ; 3.213238522072926E10 ; 0.0
168 ; 1.2206483421498839E7 ; 2.0332254452818576E8 ; 2.1143880456270173E9 ; 3.2335693641568066E10 ; 0.0
169 ; 1.2196553919150379E7 ; 2.03336626338371E8 ; 2.126594529048516E9 ; 3.2539016186096252E10 ; 0.0
170 ; 1.2185853041697515E7 ; 2.0335066578432816E8 ; 2.1387910829676664E9 ; 3.2742352812434624E10 ; 0.0
171 ; 1.2177054236685295E7 ; 2.03364662386452E8 ; 2.150976936009364E9 ; 3.2945703478218952E10 ; 0.0
172 ; 1.2162505918504495E7 ; 2.03378615670456E8 ; 2.1631539902460494E9 ; 3.3149068140605404E10 ; 0.0
173 ; 1.2159514738878548E7 ; 2.0339252516726622E8 ; 2.175316496164554E9 ; 3.335244675627586E10 ; 0.0
174 ; 1.2149205212715935E7 ; 2.0340639041291848E8 ; 2.187476010903433E9 ; 3.3555839281443127E10 ; 0.0
175 ; 1.2142792550172152E7 ; 2.0342021094845867E8 ; 2.199625216116149E9 ; 3.3759245671856045E10 ; 0.0
176 ; 1.2133020574815093E7 ; 2.0343398631984645E8 ; 2.2117680086663213E9 ; 3.3962665882804504E10 ; 0.0
177 ; 1.2130784275917329E7 ; 2.0344771607786185E8 ; 2.2239010292411366E9 ; 3.416609986912435E10 ; 0.0
178 ; 1.2123104984708654E7 ; 2.0346139977801457E8 ; 2.236031813517054E9 ; 3.436954758520222E10 ; 0.0
179 ; 1.2118566555474559E7 ; 2.034750369804566E8 ; 2.248154918501763E9 ; 3.457300898498023E10 ; 0.0
180 ; 1.2110055742325993E7 ; 2.034886272498971E8 ; 2.2602734850572376E9 ; 3.4776484021960686E10 ; 0.0
181 ; 1.2104930828984566E7 ; 2.035021701555201E8 ; 2.2723835407995634E9 ; 3.497997264921059E10 ; 0.0
182 ; 1.2096882162804803E7 ; 2.0351566527090496E8 ; 2.284488471628548E9 ; 3.5183474819366104E10 ; 0.0
183 ; 1.2089982724912284E7 ; 2.0352911217394885E8 ; 2.2965853537913527E9 ; 3.538699048463701E10 ; 0.0
184 ; 1.208393152513218E7 ; 2.03542510446792E8 ; 2.308675336516265E9 ; 3.559051959681096E10 ; 0.0
185 ; 1.2079548724161323E7 ; 2.0355585967574516E8 ; 2.320759268041397E9 ; 3.579406210725775E10 ; 0.0
186 ; 1.2072380772103822E7 ; 2.0356915945121908E8 ; 2.3328388167655582E9 ; 3.5997617966933495E10 ; 0.0
187 ; 1.2066344468653053E7 ; 2.0358240936765653E8 ; 2.344911197537662E9 ; 3.620118712638471E10 ; 0.0
188 ; 1.20587219399028E7 ; 2.0359560902346602E8 ; 2.356977542006315E9 ; 3.6404769535752365E10 ; 0.0
189 ; 1.20551709362544E7 ; 2.0360875802095783E8 ; 2.369036263946218E9 ; 3.660836514477583E10 ; 0.0
190 ; 1.2047279830387624E7 ; 2.0362185596628183E8 ; 2.3810914348824725E9 ; 3.681197390279679E10 ; 0.0
191 ; 1.2041573134234987E7 ; 2.036349024693672E8 ; 2.39313871471286E9 ; 3.701559575876307E10 ; 0.0
192 ; 1.2033375575914633E7 ; 2.0364789714386413E8 ; 2.405180287847095E9 ; 3.721923066123244E10 ; 0.0
193 ; 1.2026799166263666E7 ; 2.0366083960708705E8 ; 2.41721366342301E9 ; 3.7422878558376305E10 ; 0.0
194 ; 1.202504399945561E7 ; 2.036737294799597E8 ; 2.4292404625892735E9 ; 3.762653939798339E10 ; 0.0
195 ; 1.2014791650908293E7 ; 2.0368656638696203E8 ; 2.441265506588729E9 ; 3.783021312746335E10 ; 0.0
