CSV File for the City 3 on Day 237
1 - Minute m 
2 - Power Consumed at minute m 
3 - Power Produced at minute m 
4 - Energy Consumed since the beginning of the day 
5 - Energy Produced since the beginning of the day 
6 - Energy Lost since the beginning of the day on lines starting from the city
 
0 ; 291306.8529985307 ; 1.052560384810808E8 ; 0.0 ; 0.0 ; 0.0
1 ; 293106.91322283674 ; 1.0540710285134941E8 ; 291306.8529985307 ; 1.052560384810808E8 ; 0.0
2 ; 296687.40542112046 ; 1.0586704969039688E8 ; 584413.7662213675 ; 2.106631413324302E8 ; 0.0
3 ; 300090.8806978428 ; 1.066359046426568E8 ; 881101.171642488 ; 3.165301910228271E8 ; 0.0
4 ; 302354.7537172056 ; 1.0771369431589675E8 ; 1181192.0523403308 ; 4.231660956654839E8 ; 0.0
5 ; 306754.2726897987 ; 1.091004455259462E8 ; 1483546.8060575365 ; 5.3087978998138064E8 ; 0.0
6 ; 313157.7674888975 ; 1.1079618429312673E8 ; 1790301.0787473351 ; 6.399802355073268E8 ; 0.0
7 ; 321163.2650024657 ; 1.1280093462300879E8 ; 2103458.8462362327 ; 7.507764198004535E8 ; 0.0
8 ; 330982.69015117525 ; 1.151147171573472E8 ; 2424622.1112386985 ; 8.635773544234624E8 ; 0.0
9 ; 348673.94946423126 ; 1.177375478356356E8 ; 2755604.801389874 ; 9.786920715808096E8 ; 0.0
10 ; 375698.84160718945 ; 1.2066943674549341E8 ; 3104278.750854105 ; 1.0964296194164453E9 ; 0.0
11 ; 417145.716179998 ; 1.2391038734180847E8 ; 3479977.5924612945 ; 1.2170990561619387E9 ; 0.0
12 ; 483227.7878613063 ; 1.274603961696929E8 ; 3897123.3086412926 ; 1.3410094435037472E9 ; 0.0
13 ; 544549.7498592607 ; 1.313194531415273E8 ; 4380351.096502599 ; 1.4684698396734402E9 ; 0.0
14 ; 555327.3534127454 ; 1.354875423178181E8 ; 4924900.84636186 ; 1.5997892928149676E9 ; 0.0
15 ; 558568.5473690198 ; 1.3996464305681038E8 ; 5480228.199774605 ; 1.7352768351327858E9 ; 0.0
16 ; 560033.663842473 ; 1.447507313529338E8 ; 6038796.747143625 ; 1.8752414781895962E9 ; 0.0
17 ; 563850.2934518338 ; 1.4984578118586668E8 ; 6598830.410986098 ; 2.01999220954253E9 ; 0.0
18 ; 567574.5015838346 ; 1.552497657397796E8 ; 7162680.704437932 ; 2.169837990728397E9 ; 0.0
19 ; 569977.5548306803 ; 1.6096265840690497E8 ; 7730255.206021767 ; 2.3250877564681764E9 ; 0.0
20 ; 573156.3445277967 ; 1.6698443354280916E8 ; 8300232.760852448 ; 2.4860504148750815E9 ; 0.0
21 ; 576989.4214846848 ; 1.7331506698140827E8 ; 8873389.105380245 ; 2.6530348484178905E9 ; 0.0
22 ; 581789.7699571224 ; 1.7995453634238458E8 ; 9450378.52686493 ; 2.8263499153992987E9 ; 0.0
23 ; 584844.9079333242 ; 1.869028211741017E8 ; 1.0032168296822052E7 ; 3.006304451741683E9 ; 0.0
24 ; 587981.5056929059 ; 1.9415990297559702E8 ; 1.0617013204755377E7 ; 3.193207272915785E9 ; 0.0
25 ; 590745.786921474 ; 2.0041380603424996E8 ; 1.1204994710448284E7 ; 3.3873671758913817E9 ; 0.0
26 ; 593466.668026638 ; 2.004180633505869E8 ; 1.1795740497369757E7 ; 3.5877809819256315E9 ; 0.0
27 ; 598808.2737785922 ; 2.0042243102277875E8 ; 1.2389207165396394E7 ; 3.7881990452762184E9 ; 0.0
28 ; 599993.3594790486 ; 2.004268973411864E8 ; 1.2988015439174987E7 ; 3.988621476298997E9 ; 0.0
29 ; 604420.3217421216 ; 2.0043145192860118E8 ; 1.3588008798654037E7 ; 4.1890483736401834E9 ; 0.0
30 ; 608010.7061344625 ; 2.0043608559339148E8 ; 1.4192429120396158E7 ; 4.389479825568785E9 ; 0.0
31 ; 610188.4218890668 ; 2.0044079019277292E8 ; 1.480043982653062E7 ; 4.589915911162176E9 ; 0.0
32 ; 613552.2786461635 ; 2.0044555850814265E8 ; 1.5410628248419687E7 ; 4.790356701354949E9 ; 0.0
33 ; 616293.2162604177 ; 2.004503841330831E8 ; 1.602418052706585E7 ; 4.990802259863091E9 ; 0.0
34 ; 620199.0257368563 ; 2.004552613738069E8 ; 1.664047374332627E7 ; 5.191252643996175E9 ; 0.0
35 ; 622957.6456300404 ; 2.0046018516132706E8 ; 1.7260672769063126E7 ; 5.391707905369982E9 ; 0.0
36 ; 624616.7888291117 ; 2.0046515097438556E8 ; 1.7883630414693166E7 ; 5.592168090531309E9 ; 0.0
37 ; 627248.3088194805 ; 2.0047015477207166E8 ; 1.8508247203522276E7 ; 5.792633241505694E9 ; 0.0
38 ; 631685.2034048972 ; 2.0047519293505448E8 ; 1.9135495512341756E7 ; 5.993103396277766E9 ; 0.0
39 ; 632518.1109405118 ; 2.004802622144038E8 ; 1.9767180715746652E7 ; 6.193578589212821E9 ; 0.0
40 ; 635260.4552698975 ; 2.0048535968704996E8 ; 2.0399698826687165E7 ; 6.394058851427225E9 ; 0.0
41 ; 637955.8628355169 ; 2.0049048271702674E8 ; 2.1034959281957064E7 ; 6.594544211114275E9 ; 0.0
42 ; 640962.6737705393 ; 2.0049562892173457E8 ; 2.167291514479258E7 ; 6.795034693831302E9 ; 0.0
43 ; 642453.3404120136 ; 2.0050079614255315E8 ; 2.231387781856312E7 ; 6.9955303227530365E9 ; 0.0
44 ; 645769.5271357921 ; 2.0050598241921744E8 ; 2.295633115897513E7 ; 7.19603111889559E9 ; 0.0
45 ; 645260.3627887653 ; 2.005111859674484E8 ; 2.3602100686110925E7 ; 7.396537101314807E9 ; 0.0
46 ; 648949.2486573679 ; 2.0051640515939808E8 ; 2.424736104889969E7 ; 7.597048287282255E9 ; 0.0
47 ; 650214.9555759438 ; 2.0052163850652936E8 ; 2.489631029755706E7 ; 7.797564692441653E9 ; 0.0
48 ; 650541.3752619935 ; 2.005268846446032E8 ; 2.5546525253133003E7 ; 7.998086330948183E9 ; 0.0
49 ; 654145.7607996069 ; 2.0053214232049197E8 ; 2.6197066628394995E7 ; 8.198613215592786E9 ; 0.0
50 ; 654322.017823085 ; 2.0053741038057703E8 ; 2.68512123891946E7 ; 8.399145357913278E9 ; 0.0
51 ; 655140.3000049853 ; 2.0054268776052174E8 ; 2.7505534407017685E7 ; 8.599682768293854E9 ; 0.0
52 ; 657738.7533748286 ; 2.005479734762416E8 ; 2.816067470702267E7 ; 8.800225456054375E9 ; 0.0
53 ; 658353.3195156587 ; 2.0055326661591655E8 ; 2.88184134603975E7 ; 9.000773429530617E9 ; 0.0
54 ; 660942.5959940071 ; 2.0055856633291307E8 ; 2.947676677991316E7 ; 9.201326696146534E9 ; 0.0
55 ; 659388.6139519722 ; 2.0056387183950076E8 ; 3.0137709375907168E7 ; 9.401885262479446E9 ; 0.0
56 ; 660567.0661575763 ; 2.00569182401265E8 ; 3.079709798985914E7 ; 9.602449134318947E9 ; 0.0
57 ; 663797.754018747 ; 2.0057449733212948E8 ; 3.1457665056016717E7 ; 9.803018316720211E9 ; 0.0
58 ; 663623.2358925064 ; 2.0057981598991486E8 ; 3.2121462810035463E7 ; 1.0003592814052341E10 ; 0.0
59 ; 665078.3191166078 ; 2.0058513777236834E8 ; 3.278508604592797E7 ; 1.0204172630042255E10 ; 0.0
60 ; 666826.340160991 ; 2.0059046211360934E8 ; 3.345016436504458E7 ; 1.0404757767814623E10 ; 0.0
61 ; 669049.7860781506 ; 2.0059578848094147E8 ; 3.411699070520557E7 ; 1.0605348229928232E10 ; 0.0
62 ; 668314.6652394782 ; 2.0060111637198922E8 ; 3.4786040491283715E7 ; 1.0805944018409174E10 ; 0.0
63 ; 670531.3419822415 ; 2.0060644531212172E8 ; 3.545435515652319E7 ; 1.1006545134781162E10 ; 0.0
64 ; 670980.9809794566 ; 2.006117748521315E8 ; 3.612488649850543E7 ; 1.1207151580093285E10 ; 0.0
65 ; 671947.7184302666 ; 2.006171045661397E8 ; 3.6795867479484886E7 ; 1.1407763354945415E10 ; 0.0
66 ; 674694.0475545968 ; 2.0062243404970312E8 ; 3.746781519791515E7 ; 1.1608380459511555E10 ; 0.0
67 ; 673877.3745416048 ; 2.0062776291810068E8 ; 3.814250924546975E7 ; 1.1809002893561258E10 ; 0.0
68 ; 674164.5988753632 ; 2.0063309080478057E8 ; 3.881638662001135E7 ; 1.2009630656479359E10 ; 0.0
69 ; 675807.7235357258 ; 2.0063841735995102E8 ; 3.949055121888672E7 ; 1.221026374728414E10 ; 0.0
70 ; 678144.209701486 ; 2.0064374224929926E8 ; 4.016635894242244E7 ; 1.241090216464409E10 ; 0.0
71 ; 676775.0037840573 ; 2.0064906515282607E8 ; 4.084450315212393E7 ; 1.261154590689339E10 ; 0.0
72 ; 678042.2323401532 ; 2.006543857637836E8 ; 4.152127815590799E7 ; 1.2812194972046217E10 ; 0.0
73 ; 680366.0783249862 ; 2.0065970378770664E8 ; 4.219932038824814E7 ; 1.3012849357810001E10 ; 0.0
74 ; 680669.7605748521 ; 2.0066501894152737E8 ; 4.287968646657313E7 ; 1.3213509061597708E10 ; 0.0
75 ; 681816.4864660926 ; 2.0067033095276594E8 ; 4.356035622714798E7 ; 1.3414174080539234E10 ; 0.0
76 ; 682158.662089902 ; 2.0067563955878955E8 ; 4.424217271361408E7 ; 1.3614844411492E10 ; 0.0
77 ; 682937.9064223262 ; 2.006809445061328E8 ; 4.4924331375703976E7 ; 1.381552005105079E10 ; 0.0
78 ; 682935.0319019374 ; 2.0068624554987463E8 ; 4.56072692821263E7 ; 1.4016200995556923E10 ; 0.0
79 ; 683287.5761599044 ; 2.0069154245306522E8 ; 4.629020431402824E7 ; 1.4216887241106798E10 ; 0.0
80 ; 683566.9593139716 ; 2.0069683498619956E8 ; 4.697349189018814E7 ; 1.4417578783559864E10 ; 0.0
81 ; 682506.7873608243 ; 2.0070212292673254E8 ; 4.765705884950212E7 ; 1.4618275618546064E10 ; 0.0
82 ; 684933.87043047 ; 2.00707406058632E8 ; 4.833956563686294E7 ; 1.4818977741472797E10 ; 0.0
83 ; 682409.2671267346 ; 2.007126841719666E8 ; 4.902449950729341E7 ; 1.501968514753143E10 ; 0.0
84 ; 684614.6063409925 ; 2.0071795706252536E8 ; 4.970690877442014E7 ; 1.5220397831703396E10 ; 0.0
85 ; 683017.9007716798 ; 2.0072322453146577E8 ; 5.039152338076113E7 ; 1.542111578876592E10 ; 0.0
86 ; 682440.0990463794 ; 2.0072848638498846E8 ; 5.107454128153281E7 ; 1.5621839013297386E10 ; 0.0
87 ; 683674.9676946054 ; 2.00733742434036E8 ; 5.175698138057919E7 ; 1.5822567499682375E10 ; 0.0
88 ; 683661.4075659538 ; 2.0073899249401376E8 ; 5.244065634827379E7 ; 1.6023301242116411E10 ; 0.0
89 ; 682464.8594958764 ; 2.0074423638453087E8 ; 5.312431775583974E7 ; 1.6224040234610424E10 ; 0.0
90 ; 682183.9387529424 ; 2.0074947392915997E8 ; 5.380678261533562E7 ; 1.6424784470994955E10 ; 0.0
91 ; 682019.4485728526 ; 2.007547049552139E8 ; 5.448896655408856E7 ; 1.6625533944924114E10 ; 0.0
92 ; 682752.9775141302 ; 2.0075992929353812E8 ; 5.5170986002661414E7 ; 1.6826288649879328E10 ; 0.0
93 ; 682568.0652117984 ; 2.007651467783175E8 ; 5.585373898017555E7 ; 1.7027048579172867E10 ; 0.0
94 ; 681147.8444075465 ; 2.0077035724689662E8 ; 5.653630704538734E7 ; 1.7227813725951183E10 ; 0.0
95 ; 681556.9337555635 ; 2.0077556053961185E8 ; 5.7217454889794886E7 ; 1.742858408319808E10 ; 0.0
96 ; 680396.8493450766 ; 2.007807564996354E8 ; 5.789901182355045E7 ; 1.762935964373769E10 ; 0.0
97 ; 680904.2849727371 ; 2.007859449728292E8 ; 5.857940867289552E7 ; 1.7830140400237324E10 ; 0.0
98 ; 682320.0584719897 ; 2.007911258076089E8 ; 5.9260312957868256E7 ; 1.803092634521015E10 ; 0.0
99 ; 679570.9099309935 ; 2.0079629885481647E8 ; 5.994263301634025E7 ; 1.823171747101776E10 ; 0.0
100 ; 679306.1888506053 ; 2.0080146396760118E8 ; 6.0622203926271245E7 ; 1.8432513769872578E10 ; 0.0
101 ; 678380.1996388522 ; 2.0080662100130835E8 ; 6.130151011512185E7 ; 1.863331523384018E10 ; 0.0
102 ; 679956.7232648074 ; 2.008117698133751E8 ; 6.19798903147607E7 ; 1.8834121854841488E10 ; 0.0
103 ; 678773.6279319354 ; 2.0081691026323253E8 ; 6.2659847038025506E7 ; 1.903493362465486E10 ; 0.0
104 ; 678463.7317717179 ; 2.0082204221221444E8 ; 6.333862066595744E7 ; 1.9235750534918095E10 ; 0.0
105 ; 676796.9159923175 ; 2.0082716552347124E8 ; 6.401708439772916E7 ; 1.943657257713031E10 ; 0.0
106 ; 676681.615772561 ; 2.0083228006188956E8 ; 6.469388131372148E7 ; 1.963739974265378E10 ; 0.0
107 ; 676490.8522563537 ; 2.0083738569401652E8 ; 6.537056292949404E7 ; 1.983823202271567E10 ; 0.0
108 ; 674844.8788162435 ; 2.0084248228798866E8 ; 6.604705378175039E7 ; 2.0039069408409687E10 ; 0.0
109 ; 674357.8616256082 ; 2.0084756971346524E8 ; 6.6721898660566635E7 ; 2.0239911890697678E10 ; 0.0
110 ; 672823.4841963013 ; 2.0085264784156537E8 ; 6.739625652219224E7 ; 2.0440759460411144E10 ; 0.0
111 ; 673316.1877817808 ; 2.0085771654480895E8 ; 6.806908000638855E7 ; 2.064161210825271E10 ; 0.0
112 ; 672938.8903479815 ; 2.00862775697061E8 ; 6.874239619417033E7 ; 2.0842469824797516E10 ; 0.0
113 ; 673968.0960872404 ; 2.0086782517347944E8 ; 6.941533508451831E7 ; 2.1043332600494576E10 ; 0.0
114 ; 673311.5605670543 ; 2.008728648504655E8 ; 7.008930318060556E7 ; 2.1244200425668056E10 ; 0.0
115 ; 672971.2699936207 ; 2.008778946056175E8 ; 7.076261474117261E7 ; 2.144507329051852E10 ; 0.0
116 ; 670502.8141918301 ; 2.0088291431768677E8 ; 7.143558601116623E7 ; 2.1645951185124138E10 ; 0.0
117 ; 671359.8769683508 ; 2.0088792386653644E8 ; 7.210608882535806E7 ; 2.1846834099441826E10 ; 0.0
118 ; 670625.1161851196 ; 2.0089292313310227E8 ; 7.277744870232642E7 ; 2.204772202330836E10 ; 0.0
119 ; 668936.2537025351 ; 2.0089791199935597E8 ; 7.344807381851153E7 ; 2.2248614946441463E10 ; 0.0
120 ; 669259.1630307714 ; 2.0090289034827024E8 ; 7.411701007221407E7 ; 2.244951285844082E10 ; 0.0
121 ; 667643.3065604221 ; 2.0090785806378597E8 ; 7.478626923524484E7 ; 2.265041574878909E10 ; 0.0
122 ; 665800.8958589811 ; 2.0091281503078118E8 ; 7.545391254180527E7 ; 2.2851323606852875E10 ; 0.0
123 ; 665702.3667286389 ; 2.0091776113504168E8 ; 7.611971343766426E7 ; 2.3052236421883656E10 ; 0.0
124 ; 666366.4240542938 ; 2.0092269626323318E8 ; 7.678541580439289E7 ; 2.3253154183018696E10 ; 0.0
125 ; 663352.0655351527 ; 2.0092762030287513E8 ; 7.745178222844718E7 ; 2.345407687928193E10 ; 0.0
126 ; 663948.9333057852 ; 2.0093253314231586E8 ; 7.811513429398234E7 ; 2.3655004499584805E10 ; 0.0
127 ; 662947.8190388079 ; 2.0093743467070895E8 ; 7.877908322728813E7 ; 2.385593703272712E10 ; 0.0
128 ; 661892.2410960353 ; 2.009423247779911E8 ; 7.944203104632694E7 ; 2.4056874467397827E10 ; 0.0
129 ; 660392.6031153692 ; 2.009472033548609E8 ; 8.010392328742297E7 ; 2.425781679217582E10 ; 0.0
130 ; 660303.8831158795 ; 2.00952070292759E8 ; 8.076431589053833E7 ; 2.445876399553068E10 ; 0.0
131 ; 657911.9215477479 ; 2.0095692548384905E8 ; 8.142461977365421E7 ; 2.465971606582344E10 ; 0.0
132 ; 656201.9800806517 ; 2.009617688209998E8 ; 8.208253169520195E7 ; 2.486067299130729E10 ; 0.0
133 ; 654586.7070246128 ; 2.009666001977682E8 ; 8.27387336752826E7 ; 2.506163476012829E10 ; 0.0
134 ; 652971.3281036505 ; 2.009714195083832E8 ; 8.339332038230722E7 ; 2.5262601360326057E10 ; 0.0
135 ; 650712.4531363919 ; 2.0097622664773044E8 ; 8.404629171041086E7 ; 2.5463572779834442E10 ; 0.0
136 ; 650664.806755375 ; 2.0098102151133782E8 ; 8.469700416354725E7 ; 2.5664549006482174E10 ; 0.0
137 ; 648312.4022234482 ; 2.0098580399536175E8 ; 8.534766897030263E7 ; 2.586553002799351E10 ; 0.0
138 ; 643496.531196347 ; 2.0099057399657416E8 ; 8.599598137252608E7 ; 2.6066515831988873E10 ; 0.0
139 ; 643321.6825520576 ; 2.0099533141235012E8 ; 8.663947790372242E7 ; 2.6267506405985447E10 ; 0.0
140 ; 643050.5078256318 ; 2.01000076140656E8 ; 8.728279958627447E7 ; 2.6468501737397797E10 ; 0.0
141 ; 640659.3410746334 ; 2.0100480808003855E8 ; 8.79258500941001E7 ; 2.6669501813538452E10 ; 0.0
142 ; 637412.7989530279 ; 2.010095271296141E8 ; 8.856650943517473E7 ; 2.6870506621618492E10 ; 0.0
143 ; 638202.0097252615 ; 2.0101423318905884E8 ; 8.920392223412776E7 ; 2.7071516148748108E10 ; 0.0
144 ; 634768.0796680448 ; 2.0101892615859902E8 ; 8.984212424385302E7 ; 2.727253038193717E10 ; 0.0
145 ; 632559.707424854 ; 2.0102360593900207E8 ; 9.047689232352106E7 ; 2.7473549308095768E10 ; 0.0
146 ; 633512.4039802491 ; 2.0102827243156812E8 ; 9.110945203094591E7 ; 2.767457291403477E10 ; 0.0
147 ; 630993.7416177457 ; 2.0103292553812164E8 ; 9.174296443492617E7 ; 2.787560118646634E10 ; 0.0
148 ; 630758.2790855828 ; 2.01037565161004E8 ; 9.23739581765439E7 ; 2.807663411200446E10 ; 0.0
149 ; 629460.6209527873 ; 2.0104219120306596E8 ; 9.300471645562948E7 ; 2.8277671677165462E10 ; 0.0
150 ; 629343.8145594102 ; 2.0104680356766087E8 ; 9.363417707658227E7 ; 2.847871386836853E10 ; 0.0
151 ; 627245.2053236954 ; 2.0105140215863797E8 ; 9.426352089114168E7 ; 2.867976067193619E10 ; 0.0
152 ; 626349.9524711302 ; 2.0105598688033623E8 ; 9.489076609646538E7 ; 2.888081207409483E10 ; 0.0
153 ; 625642.5085072654 ; 2.0106055763757834E8 ; 9.551711604893652E7 ; 2.9081868060975166E10 ; 0.0
154 ; 626035.6793090489 ; 2.0106511433566523E8 ; 9.614275855744378E7 ; 2.9282928618612743E10 ; 0.0
155 ; 624820.6722468345 ; 2.0106965688037062E8 ; 9.676879423675284E7 ; 2.948399373294841E10 ; 0.0
156 ; 624640.162200502 ; 2.010741851779361E8 ; 9.739361490899967E7 ; 2.968506338982878E10 ; 0.0
157 ; 621771.6431504484 ; 2.0107869913506618E8 ; 9.801825507120016E7 ; 2.9886137575006718E10 ; 0.0
158 ; 620938.7311558299 ; 2.0108319865892392E8 ; 9.864002671435061E7 ; 3.0087216274141785E10 ; 0.0
159 ; 620287.7251171488 ; 2.0108768365712655E8 ; 9.926096544550644E7 ; 3.028829947280071E10 ; 0.0
160 ; 621716.4613779784 ; 2.0109215403774148E8 ; 9.988125317062359E7 ; 3.0489387156457836E10 ; 0.0
161 ; 619957.4943883923 ; 2.0109660970928237E8 ; 1.0050296963200156E8 ; 3.069047931049558E10 ; 0.0
162 ; 619366.6248926127 ; 2.0110105058070555E8 ; 1.0112292712638995E8 ; 3.089157592020486E10 ; 0.0
163 ; 617262.2490399061 ; 2.011054765614066E8 ; 1.0174229375128256E8 ; 3.1092676970785564E10 ; 0.0
164 ; 616902.9342239103 ; 2.011098875612171E8 ; 1.0235955600032246E8 ; 3.129378244734697E10 ; 0.0
165 ; 618377.768953362 ; 2.0111428349040145E8 ; 1.0297645893454637E8 ; 3.1494892334908188E10 ; 0.0
166 ; 614005.322422306 ; 2.011186642596542E8 ; 1.0359483670349973E8 ; 3.169600661839859E10 ; 0.0
167 ; 614210.5866845461 ; 2.0112302978009704E8 ; 1.0420884202592205E8 ; 3.1897125282658245E10 ; 0.0
168 ; 613082.1264750216 ; 2.011273799632765E8 ; 1.0482305261260659E8 ; 3.2098248312438343E10 ; 0.0
169 ; 611886.948949753 ; 2.0113171472116137E8 ; 1.054361347390816E8 ; 3.229937569240162E10 ; 0.0
170 ; 610108.6899401103 ; 2.011360339661404E8 ; 1.0604802168803136E8 ; 3.250050740712278E10 ; 0.0
171 ; 609936.2725629052 ; 2.0114033761102024E8 ; 1.0665813037797147E8 ; 3.270164344108892E10 ; 0.0
172 ; 607211.3946193462 ; 2.011446255690234E8 ; 1.0726806665053438E8 ; 3.290278377869994E10 ; 0.0
173 ; 607077.2868923373 ; 2.0114889775378636E8 ; 1.0787527804515372E8 ; 3.3103928404268963E10 ; 0.0
174 ; 606067.8860166792 ; 2.0115315407935777E8 ; 1.0848235533204606E8 ; 3.330507730202275E10 ; 0.0
175 ; 606808.2223991016 ; 2.0115739446019688E8 ; 1.0908842321806274E8 ; 3.3506230456102108E10 ; 0.0
176 ; 606035.9921391816 ; 2.011616188111718E8 ; 1.0969523144046184E8 ; 3.3707387850562305E10 ; 0.0
177 ; 605503.0093598581 ; 2.0116582704755837E8 ; 1.1030126743260102E8 ; 3.3908549469373478E10 ; 0.0
178 ; 605407.2526505742 ; 2.0117001908503845E8 ; 1.1090677044196087E8 ; 3.4109715296421036E10 ; 0.0
179 ; 604485.9127169431 ; 2.0117419483969903E8 ; 1.1151217769461145E8 ; 3.4310885315506073E10 ; 0.0
180 ; 603230.5824230015 ; 2.011783542280308E8 ; 1.1211666360732839E8 ; 3.451205951034577E10 ; 0.0
181 ; 602760.2446056111 ; 2.011824971669272E8 ; 1.1271989418975139E8 ; 3.47132378645738E10 ; 0.0
182 ; 602142.9911378734 ; 2.0118662357368344E8 ; 1.13322654434357E8 ; 3.491442036174072E10 ; 0.0
183 ; 601071.4032525655 ; 2.0119073336599556E8 ; 1.1392479742549488E8 ; 3.511560698531441E10 ; 0.0
184 ; 600005.8774602258 ; 2.0119482646195963E8 ; 1.1452586882874745E8 ; 3.5316797718680405E10 ; 0.0
185 ; 600374.8450880928 ; 2.0119890278007096E8 ; 1.1512587470620768E8 ; 3.5517992545142365E10 ; 0.0
186 ; 599301.6901570939 ; 2.0120296223922342E8 ; 1.1572624955129577E8 ; 3.571919144792243E10 ; 0.0
187 ; 597787.4036859174 ; 2.0120700475870886E8 ; 1.1632555124145287E8 ; 3.592039441016165E10 ; 0.0
188 ; 597869.4390246607 ; 2.0121103025821653E8 ; 1.1692333864513879E8 ; 3.612160141492036E10 ; 0.0
189 ; 597906.7658777052 ; 2.012150386578325E8 ; 1.1752120808416344E8 ; 3.632281244517857E10 ; 0.0
190 ; 597380.9203802356 ; 2.0121902987803942E8 ; 1.1811911485004115E8 ; 3.65240274838364E10 ; 0.0
191 ; 595785.7044797866 ; 2.01223003839716E8 ; 1.1871649577042139E8 ; 3.672524651371444E10 ; 0.0
192 ; 595042.0934482428 ; 2.0122696046413657E8 ; 1.1931228147490117E8 ; 3.692646951755415E10 ; 0.0
193 ; 594440.705150805 ; 2.0123089967297116E8 ; 1.199073235683494E8 ; 3.712769647801829E10 ; 0.0
194 ; 593472.6445985647 ; 2.0123482138828492E8 ; 1.205017642735002E8 ; 3.732892737769126E10 ; 0.0
195 ; 592804.1284525802 ; 2.0123872553253818E8 ; 1.2109523691809876E8 ; 3.7530162199079544E10 ; 0.0
196 ; 593341.3561447874 ; 2.012426120285861E8 ; 1.2168804104655135E8 ; 3.773140092461208E10 ; 0.0
197 ; 592987.0646130047 ; 2.0124648079967877E8 ; 1.2228138240269613E8 ; 3.793264353664067E10 ; 0.0
198 ; 592946.991155001 ; 2.0125033176946115E8 ; 1.2287436946730913E8 ; 3.8133890017440346E10 ; 0.0
199 ; 590794.9677346826 ; 2.0125416486197293E8 ; 1.2346731645846413E8 ; 3.833514034920981E10 ; 0.0
200 ; 589897.64152755 ; 2.0125798000164866E8 ; 1.2405811142619881E8 ; 3.8536394514071785E10 ; 0.0
201 ; 588734.2371400157 ; 2.0126177711331782E8 ; 1.2464800906772636E8 ; 3.873765249407343E10 ; 0.0
