CSV File for the City 1 on Day 7
1 - Minute m 
2 - Power Consumed at minute m 
3 - Power Produced at minute m 
4 - Energy Consumed since the beginning of the day 
5 - Energy Produced since the beginning of the day 
6 - Energy Lost since the beginning of the day on lines starting from the city
 
0 ; 1.5995507190041833E7 ; 1.0531964095536157E8 ; 0.0 ; 0.0 ; 0.0
1 ; 1.6010426065584451E7 ; 1.054718709859342E8 ; 1.5995507190041833E7 ; 1.0531964095536157E8 ; 0.0
2 ; 1.603011105398288E7 ; 1.0593293864261124E8 ; 3.2005933255626284E7 ; 2.1079151194129577E8 ; 0.0
3 ; 1.6049609696407812E7 ; 1.0670285136142242E8 ; 4.803604430960916E7 ; 3.16724450583907E8 ; 0.0
4 ; 1.6070187634644147E7 ; 1.0778161609495682E8 ; 6.408565400601697E7 ; 4.234273019453294E8 ; 0.0
5 ; 1.6101108015442166E7 ; 1.0916923918934798E8 ; 8.015584164066112E7 ; 5.3120891804028624E8 ; 0.0
6 ; 1.6138018928606333E7 ; 1.1086572626328126E8 ; 9.625694965610328E7 ; 6.403781572296343E8 ; 0.0
7 ; 1.6191397647527762E7 ; 1.128710820938102E8 ; 1.1239496858470961E8 ; 7.512438834929155E8 ; 0.0
8 ; 1.6268282538592739E7 ; 1.1518531051398212E8 ; 1.2858636623223737E8 ; 8.641149655867257E8 ; 0.0
9 ; 1.6388017977845935E7 ; 1.1780841432713205E8 ; 1.448546487708301E8 ; 9.793002761007078E8 ; 0.0
10 ; 1.6569193329760464E7 ; 1.2074039524217337E8 ; 1.6124266674867603E8 ; 1.0971086904278398E9 ; 0.0
11 ; 1.685356565988699E7 ; 1.2398125383330491E8 ; 1.778118600784365E8 ; 1.2178490856700132E9 ; 0.0
12 ; 1.7317362507574536E7 ; 1.2753098952632782E8 ; 1.9466542573832348E8 ; 1.341830339503318E9 ; 0.0
13 ; 1.7761866999701027E7 ; 1.3138960061232871E8 ; 2.11982788245898E8 ; 1.469361329029646E9 ; 0.0
14 ; 1.781895286253524E7 ; 1.3555708428797263E8 ; 2.2974465524559903E8 ; 1.6007509296419747E9 ; 0.0
15 ; 1.784202141202451E7 ; 1.4003343672021216E8 ; 2.4756360810813427E8 ; 1.7363080139299474E9 ; 0.0
16 ; 1.785268402039932E7 ; 1.4481865313199386E8 ; 2.6540562952015877E8 ; 1.8763414506501596E9 ; 0.0
17 ; 1.7881011307778873E7 ; 1.499127279046323E8 ; 2.832583135405581E8 ; 2.0211601037821534E9 ; 0.0
18 ; 1.7895857517696053E7 ; 1.5531565469199395E8 ; 3.01139324848337E8 ; 2.1710728316867857E9 ; 0.0
19 ; 1.7918988289127223E7 ; 1.6102742654148975E8 ; 3.190351823660331E8 ; 2.3263884863787794E9 ; 0.0
20 ; 1.7942097388895206E7 ; 1.6704803601708993E8 ; 3.369541706551603E8 ; 2.487415912920269E9 ; 0.0
21 ; 1.796030079028678E7 ; 1.733774753200771E8 ; 3.548962680440555E8 ; 2.654463948937359E9 ; 0.0
22 ; 1.7980976769143406E7 ; 1.8001573640395093E8 ; 3.728565688343423E8 ; 2.827841424257436E9 ; 0.0
23 ; 1.8001679874107227E7 ; 1.8696281108070934E8 ; 3.908375456034857E8 ; 3.0078571606613865E9 ; 0.0
24 ; 1.8021926045031853E7 ; 1.942186911165576E8 ; 4.0883922547759295E8 ; 3.194819971742096E9 ; 0.0
25 ; 1.804384245975716E7 ; 2.0047140921406972E8 ; 4.268611515226248E8 ; 3.3890386628586535E9 ; 0.0
26 ; 1.8063616385805316E7 ; 2.0047450512086028E8 ; 4.4490499398238194E8 ; 3.5895100720727234E9 ; 0.0
27 ; 1.8084089624157757E7 ; 2.004777402141659E8 ; 4.6296861036818725E8 ; 3.7899845771935835E9 ; 0.0
28 ; 1.8107619404206328E7 ; 2.0048110679573926E8 ; 4.81052699992345E8 ; 3.990462317407749E9 ; 0.0
29 ; 1.812795315477046E7 ; 2.0048459742251593E8 ; 4.991603193965513E8 ; 4.1909434242034883E9 ; 0.0
30 ; 1.8144115039753467E7 ; 2.0048820493438864E8 ; 5.1728827255132174E8 ; 4.391428021626004E9 ; 0.0
31 ; 1.8164482181409348E7 ; 2.0049192247349018E8 ; 5.354323875910752E8 ; 4.591916226560392E9 ; 0.0
32 ; 1.8183571469903417E7 ; 2.004957434961643E8 ; 5.535968697724845E8 ; 4.792408149033882E9 ; 0.0
33 ; 1.8198275934214484E7 ; 2.0049966177877373E8 ; 5.71780441242388E8 ; 4.992903892530046E9 ; 0.0
34 ; 1.8219169626596037E7 ; 2.0050367141842207E8 ; 5.899787171766025E8 ; 5.19340355430882E9 ; 0.0
35 ; 1.8237787163271952E7 ; 2.005077668295708E8 ; 6.081978868031986E8 ; 5.3939072257272415E9 ; 0.0
36 ; 1.8250851885500573E7 ; 2.005119427374238E8 ; 6.264356739664705E8 ; 5.594414992556812E9 ; 0.0
37 ; 1.8266798563890595E7 ; 2.005161941688389E8 ; 6.44686525851971E8 ; 5.794926935294236E9 ; 0.0
38 ; 1.8283045764751114E7 ; 2.0052051644141594E8 ; 6.629533244158616E8 ; 5.995443129463075E9 ; 0.0
39 ; 1.8298052836837966E7 ; 2.0052490515130705E8 ; 6.812363701806127E8 ; 6.19596364590449E9 ; 0.0
40 ; 1.830814148675327E7 ; 2.0052935616019946E8 ; 6.995344230174507E8 ; 6.396488551055798E9 ; 0.0
41 ; 1.8326236169195216E7 ; 2.0053386558183837E8 ; 7.178425645042039E8 ; 6.597017907215997E9 ; 0.0
42 ; 1.833197108421037E7 ; 2.0053842976838264E8 ; 7.361688006733991E8 ; 6.797551772797835E9 ; 0.0
43 ; 1.835120329354216E7 ; 2.005430452968234E8 ; 7.545007717576095E8 ; 6.998090202566218E9 ; 0.0
44 ; 1.836000852051715E7 ; 2.0054770895564294E8 ; 7.728519750511516E8 ; 7.198633247863042E9 ; 0.0
45 ; 1.8370454863179304E7 ; 2.0055241773184553E8 ; 7.912119835716687E8 ; 7.399180956818685E9 ; 0.0
46 ; 1.837735379130847E7 ; 2.005571687984569E8 ; 8.095824384348481E8 ; 7.59973337455053E9 ; 0.0
47 ; 1.8387219333092432E7 ; 2.0056195950255772E8 ; 8.279597922261566E8 ; 7.800290543348988E9 ; 0.0
48 ; 1.8395404632618006E7 ; 2.0056678735389388E8 ; 8.46347011559249E8 ; 8.000852502851545E9 ; 0.0
49 ; 1.8399625457181785E7 ; 2.0057165001408643E8 ; 8.64742416191867E8 ; 8.20141929020544E9 ; 0.0
50 ; 1.840941720791264E7 ; 2.0057654528644997E8 ; 8.831420416490488E8 ; 8.401990940219526E9 ; 0.0
51 ; 1.841381719843302E7 ; 2.005814711064167E8 ; 9.015514588569615E8 ; 8.602567485505976E9 ; 0.0
52 ; 1.8416193205270167E7 ; 2.0058642553255448E8 ; 9.199652760553945E8 ; 8.803148956612392E9 ; 0.0
53 ; 1.8424304583732806E7 ; 2.0059140673816174E8 ; 9.383814692606647E8 ; 9.003735382144947E9 ; 0.0
54 ; 1.8428740446209043E7 ; 2.0059641300341666E8 ; 9.568057738443975E8 ; 9.204326788883108E9 ; 0.0
55 ; 1.8432484912613466E7 ; 2.0060144270805603E8 ; 9.752345142906066E8 ; 9.404923201886524E9 ; 0.0
56 ; 1.8438530512981243E7 ; 2.0060649432455683E8 ; 9.936669992032201E8 ; 9.60552464459458E9 ; 0.0
57 ; 1.84410547199085E7 ; 2.0061156641179234E8 ; 1.0121055297162014E9 ; 9.806131138919136E9 ; 0.0
58 ; 1.8442423599557407E7 ; 2.006166576091355E8 ; 1.0305465844361099E9 ; 1.0006742705330929E10 ; 0.0
59 ; 1.8447256907961044E7 ; 2.00621766630981E8 ; 1.0489890080356673E9 ; 1.0207359362940063E10 ; 0.0
60 ; 1.84548529280457E7 ; 2.0062689226165912E8 ; 1.0674362649436283E9 ; 1.0407981129571045E10 ; 0.0
61 ; 1.845704962894729E7 ; 2.0063203335071546E8 ; 1.085891117871674E9 ; 1.0608608021832705E10 ; 0.0
62 ; 1.846093751953297E7 ; 2.0063718880853102E8 ; 1.1043481675006213E9 ; 1.080924005518342E10 ; 0.0
63 ; 1.8462830296057843E7 ; 2.006423576022586E8 ; 1.1228091050201542E9 ; 1.1009877243991951E10 ; 0.0
64 ; 1.8467115619094286E7 ; 2.0064753875205344E8 ; 1.1412719353162122E9 ; 1.121051960159421E10 ; 0.0
65 ; 1.8465349865844652E7 ; 2.0065273132757625E8 ; 1.1597390509353065E9 ; 1.1411167140346264E10 ; 0.0
66 ; 1.8472410380841326E7 ; 2.0065793444474885E8 ; 1.1782044008011513E9 ; 1.161181987167384E10 ; 0.0
67 ; 1.8467988166266415E7 ; 2.0066314726274383E8 ; 1.1966768111819925E9 ; 1.1812477806118587E10 ; 0.0
68 ; 1.8474695906994537E7 ; 2.0066836898119053E8 ; 1.215144799348259E9 ; 1.201314095338133E10 ; 0.0
69 ; 1.8476737695248254E7 ; 2.0067359883758157E8 ; 1.2336194952552536E9 ; 1.221380932236252E10 ; 0.0
70 ; 1.847626356664009E7 ; 2.006788361048644E8 ; 1.252096232950502E9 ; 1.2414482921200102E10 ; 0.0
71 ; 1.8481545430975895E7 ; 2.0068408008920428E8 ; 1.270572496517142E9 ; 1.2615161757304966E10 ; 0.0
72 ; 1.8488167931176864E7 ; 2.0068933012790555E8 ; 1.289054041948118E9 ; 1.281584583739417E10 ; 0.0
73 ; 1.8485547390563313E7 ; 2.0069458558747938E8 ; 1.3075422098792949E9 ; 1.3016535167522076E10 ; 0.0
74 ; 1.8485709654420704E7 ; 2.006998458618469E8 ; 1.3260277572698581E9 ; 1.3217229753109554E10 ; 0.0
75 ; 1.848632745460923E7 ; 2.007051103706675E8 ; 1.3445134669242787E9 ; 1.3417929598971401E10 ; 0.0
76 ; 1.848924057691491E7 ; 2.00710378557783E8 ; 1.362999794378888E9 ; 1.361863470934207E10 ; 0.0
77 ; 1.8489531708925556E7 ; 2.007156498897689E8 ; 1.381489034955803E9 ; 1.3819345087899853E10 ; 0.0
78 ; 1.8481579527906913E7 ; 2.0072092385458454E8 ; 1.3999785666647284E9 ; 1.4020060737789621E10 ; 0.0
79 ; 1.8477367091587923E7 ; 2.0072619996031538E8 ; 1.4184601461926353E9 ; 1.4220781661644205E10 ; 0.0
80 ; 1.8474868257975645E7 ; 2.007314777339998E8 ; 1.4369375132842233E9 ; 1.442150786160452E10 ; 0.0
81 ; 1.846940822324929E7 ; 2.0073675672053474E8 ; 1.455412381542199E9 ; 1.462223933933852E10 ; 0.0
82 ; 1.8464644793680333E7 ; 2.0074203648165438E8 ; 1.473881789765448E9 ; 1.4822976096059055E10 ; 0.0
83 ; 1.8456661110021498E7 ; 2.007473165949759E8 ; 1.4923464345591285E9 ; 1.502371813254071E10 ; 0.0
84 ; 1.8452773140039887E7 ; 2.0075259665310818E8 ; 1.51080309566915E9 ; 1.5224465449135687E10 ; 0.0
85 ; 1.8444705347762294E7 ; 2.0075787626281872E8 ; 1.52925586880919E9 ; 1.5425218045788795E10 ; 0.0
86 ; 1.8440484347893834E7 ; 2.0076315504425398E8 ; 1.5477005741569524E9 ; 1.5625975922051615E10 ; 0.0
87 ; 1.843286272421818E7 ; 2.0076843263021025E8 ; 1.566141058504846E9 ; 1.582673907709587E10 ; 0.0
88 ; 1.84277913594448E7 ; 2.007737086654507E8 ; 1.5845739212290642E9 ; 1.602750750972608E10 ; 0.0
89 ; 1.842127341709118E7 ; 2.0077898280606577E8 ; 1.603001712588509E9 ; 1.6228281218391531E10 ; 0.0
90 ; 1.84162935641968E7 ; 2.007842547188737E8 ; 1.6214229860056002E9 ; 1.6429060201197598E10 ; 0.0
91 ; 1.8403075907356415E7 ; 2.0078952408085835E8 ; 1.639839279569797E9 ; 1.6629844455916471E10 ; 0.0
92 ; 1.8395283868602227E7 ; 2.007947905786418E8 ; 1.6582423554771535E9 ; 1.683063397999733E10 ; 0.0
93 ; 1.8393081218856987E7 ; 2.0080005390798947E8 ; 1.6766376393457558E9 ; 1.7031428770575972E10 ; 0.0
94 ; 1.8381578400772747E7 ; 2.0080531377334514E8 ; 1.6950307205646129E9 ; 1.723222882448396E10 ; 0.0
95 ; 1.8369822459959272E7 ; 2.0081056988739425E8 ; 1.7134122989653857E9 ; 1.7433034138257305E10 ; 0.0
96 ; 1.836740743306604E7 ; 2.0081582197065338E8 ; 1.731782121425345E9 ; 1.76338447081447E10 ; 0.0
97 ; 1.836107483480304E7 ; 2.008210697510841E8 ; 1.750149528858411E9 ; 1.7834660530115353E10 ; 0.0
98 ; 1.835392349998189E7 ; 2.0082631296372968E8 ; 1.7685106036932142E9 ; 1.8035481599866436E10 ; 0.0
99 ; 1.834043964676452E7 ; 2.0083155135037318E8 ; 1.786864527193196E9 ; 1.8236307912830166E10 ; 0.0
100 ; 1.8335865330971245E7 ; 2.0083678465921527E8 ; 1.8052049668399606E9 ; 1.843713946418054E10 ; 0.0
101 ; 1.832661533671527E7 ; 2.0084201264457092E8 ; 1.8235408321709318E9 ; 1.8637976248839752E10 ; 0.0
102 ; 1.831408547981045E7 ; 2.0084723506658307E8 ; 1.841867447507647E9 ; 1.883881826148432E10 ; 0.0
103 ; 1.830962628136852E7 ; 2.008524516909532E8 ; 1.8601815329874575E9 ; 1.9039665496550903E10 ; 0.0
104 ; 1.8299561479850344E7 ; 2.008576622886864E8 ; 1.878491159268826E9 ; 1.9240517948241856E10 ; 0.0
105 ; 1.8289784638898104E7 ; 2.0086286663585147E8 ; 1.8967907207486763E9 ; 1.944137561053054E10 ; 0.0
106 ; 1.8282807534336433E7 ; 2.008680645133538E8 ; 1.9150805053875744E9 ; 1.9642238477166393E10 ; 0.0
107 ; 1.8263862335536804E7 ; 2.0087325570672104E8 ; 1.9333633129219108E9 ; 1.984310654167975E10 ; 0.0
108 ; 1.8260517239335526E7 ; 2.0087844000590062E8 ; 1.9516271752574475E9 ; 2.004397979738647E10 ; 0.0
109 ; 1.8251320868530598E7 ; 2.008836172050681E8 ; 1.969887692496783E9 ; 2.0244858237392372E10 ; 0.0
110 ; 1.8240247585827008E7 ; 2.00888787102446E8 ; 1.9881390133653135E9 ; 2.044574185459744E10 ; 0.0
111 ; 1.8229924654015288E7 ; 2.0089394950013235E8 ; 2.0063792609511406E9 ; 2.0646630641699886E10 ; 0.0
112 ; 1.8213738940036703E7 ; 2.008991042039384E8 ; 2.024609185605156E9 ; 2.084752459120002E10 ; 0.0
113 ; 1.820677650588766E7 ; 2.0090425102323475E8 ; 2.0428229245451927E9 ; 2.1048423695403957E10 ; 0.0
114 ; 1.8191735115035642E7 ; 2.0090938977080598E8 ; 2.0610297010510805E9 ; 2.1249327946427193E10 ; 0.0
115 ; 1.8181327300626338E7 ; 2.009145202627123E8 ; 2.079221436166116E9 ; 2.1450237336197998E10 ; 0.0
116 ; 1.8172029786426723E7 ; 2.0091964231815895E8 ; 2.0974027634667423E9 ; 2.165115185646071E10 ; 0.0
117 ; 1.8159047094064154E7 ; 2.0092475575937188E8 ; 2.115574793253169E9 ; 2.1852071498778866E10 ; 0.0
118 ; 1.8151579219502963E7 ; 2.0092986041148E8 ; 2.1337338403472333E9 ; 2.205299625453824E10 ; 0.0
119 ; 1.8140176451123994E7 ; 2.009349561024035E8 ; 2.151885419566736E9 ; 2.225392611494972E10 ; 0.0
120 ; 1.8120642522070434E7 ; 2.0094004266274756E8 ; 2.1700255960178604E9 ; 2.245486107105212E10 ; 0.0
121 ; 1.810964812245938E7 ; 2.0094511992570165E8 ; 2.188146238539931E9 ; 2.2655801113714867E10 ; 0.0
122 ; 1.810226038130467E7 ; 2.0095018772694358E8 ; 2.20625588666239E9 ; 2.2856746233640568E10 ; 0.0
123 ; 1.8087090011069115E7 ; 2.0095524590454862E8 ; 2.224358147043695E9 ; 2.305769642136751E10 ; 0.0
124 ; 1.8075403944253106E7 ; 2.009602942989028E8 ; 2.2424452370547643E9 ; 2.325865166727206E10 ; 0.0
125 ; 1.8059290751211353E7 ; 2.0096533275262064E8 ; 2.2605206409990172E9 ; 2.3459611961570965E10 ; 0.0
126 ; 1.804402027212932E7 ; 2.0097036111046678E8 ; 2.2785799317502284E9 ; 2.3660577294323586E10 ; 0.0
127 ; 1.803387111304305E7 ; 2.0097537921928146E8 ; 2.296623952022358E9 ; 2.386154765543405E10 ; 0.0
128 ; 1.8019934748312194E7 ; 2.0098038692790952E8 ; 2.314657823135401E9 ; 2.406252303465333E10 ; 0.0
129 ; 1.800587090932837E7 ; 2.0098538408713284E8 ; 2.332677757883713E9 ; 2.426350342158124E10 ; 0.0
130 ; 1.798872622949739E7 ; 2.0099037054960597E8 ; 2.350683628793041E9 ; 2.4464488805668373E10 ; 0.0
131 ; 1.7970563454568423E7 ; 2.0099534616979474E8 ; 2.3686723550225387E9 ; 2.466547917621798E10 ; 0.0
132 ; 1.7950301358736016E7 ; 2.010003108039179E8 ; 2.386642918477107E9 ; 2.4866474522387775E10 ; 0.0
133 ; 1.7929459876651105E7 ; 2.010052643098913E8 ; 2.404593219835843E9 ; 2.5067474833191692E10 ; 0.0
134 ; 1.7908990742511433E7 ; 2.0101020654727477E8 ; 2.4225226797124944E9 ; 2.5268480097501583E10 ; 0.0
135 ; 1.788793945789439E7 ; 2.0101513737722138E8 ; 2.4404316704550056E9 ; 2.546949030404886E10 ; 0.0
136 ; 1.7868547052935366E7 ; 2.0102005666242924E8 ; 2.4583196099129E9 ; 2.567050544142608E10 ; 0.0
137 ; 1.7848842554181416E7 ; 2.010249642670951E8 ; 2.4761881569658356E9 ; 2.587152549808851E10 ; 0.0
138 ; 1.78248931394853E7 ; 2.010298600568704E8 ; 2.494036999520017E9 ; 2.6072550462355602E10 ; 0.0
139 ; 1.780351165946368E7 ; 2.0103474389881933E8 ; 2.5118618926595025E9 ; 2.627358032241247E10 ; 0.0
140 ; 1.778777599609357E7 ; 2.0103961566137835E8 ; 2.5296654043189664E9 ; 2.647461506631129E10 ; 0.0
141 ; 1.7765736636971816E7 ; 2.010444752143181E8 ; 2.54745318031506E9 ; 2.6675654681972668E10 ; 0.0
142 ; 1.7744583683208108E7 ; 2.010493224287065E8 ; 2.565218916952032E9 ; 2.6876699157186985E10 ; 0.0
143 ; 1.7722751571390174E7 ; 2.0105415717687383E8 ; 2.58296350063524E9 ; 2.7077748479615692E10 ; 0.0
144 ; 1.769905576923671E7 ; 2.0105897933237922E8 ; 2.60068625220663E9 ; 2.7278802636792564E10 ; 0.0
145 ; 1.7686028877506126E7 ; 2.010637887699785E8 ; 2.618385307975867E9 ; 2.7479861616124943E10 ; 0.0
146 ; 1.7666471726646524E7 ; 2.010685853655937E8 ; 2.636071336853373E9 ; 2.768092540489492E10 ; 0.0
147 ; 1.7651653117458697E7 ; 2.0107336899628365E8 ; 2.6537378085800195E9 ; 2.7881993990260513E10 ; 0.0
148 ; 1.7641900708065152E7 ; 2.01078139540216E8 ; 2.6713894616974783E9 ; 2.8083067359256798E10 ; 0.0
149 ; 1.762489563266227E7 ; 2.010828968766404E8 ; 2.6890313624055433E9 ; 2.8284145498797012E10 ; 0.0
150 ; 1.7610648183019668E7 ; 2.0108764088586283E8 ; 2.7066562580382056E9 ; 2.8485228395673653E10 ; 0.0
151 ; 1.759592580240669E7 ; 2.0109237144922087E8 ; 2.7242669062212253E9 ; 2.8686316036559517E10 ; 0.0
152 ; 1.7576387201687727E7 ; 2.0109708844906044E8 ; 2.741862832023632E9 ; 2.888740840800874E10 ; 0.0
153 ; 1.7563837287784893E7 ; 2.0110179176871312E8 ; 2.75943921922532E9 ; 2.90885054964578E10 ; 0.0
154 ; 1.7545701772422824E7 ; 2.0110648129247457E8 ; 2.777003056513105E9 ; 2.9289607288226517E10 ; 0.0
155 ; 1.753228249370734E7 ; 2.011111569055839E8 ; 2.7945487582855277E9 ; 2.949071376951899E10 ; 0.0
156 ; 1.7513728592805285E7 ; 2.0111581849420384E8 ; 2.812081040779235E9 ; 2.9691824926424572E10 ; 0.0
157 ; 1.7497362237694394E7 ; 2.0112046594540188E8 ; 2.8295947693720403E9 ; 2.9892940744918777E10 ; 0.0
158 ; 1.748621563816462E7 ; 2.0112509914713195E8 ; 2.8470921316097345E9 ; 3.0094061210864178E10 ; 0.0
159 ; 1.746882084694663E7 ; 2.0112971798821706E8 ; 2.864578347247899E9 ; 3.029518631001131E10 ; 0.0
160 ; 1.7452776908569027E7 ; 2.0113432235833272E8 ; 2.882047168094846E9 ; 3.0496316027999527E10 ; 0.0
161 ; 1.7436526966298077E7 ; 2.0113891214799067E8 ; 2.8994999450034146E9 ; 3.069745035035786E10 ; 0.0
162 ; 1.7416485225826092E7 ; 2.0114348724852386E8 ; 2.9169364719697127E9 ; 3.089858926250585E10 ; 0.0
163 ; 1.7403769800769895E7 ; 2.0114804755207148E8 ; 2.934352957195539E9 ; 3.1099732749754375E10 ; 0.0
164 ; 1.7389059347502284E7 ; 2.0115259295156497E8 ; 2.951756726996309E9 ; 3.1300880797306446E10 ; 0.0
165 ; 1.737065052134483E7 ; 2.0115712334071448E8 ; 2.969145786343811E9 ; 3.150203339025801E10 ; 0.0
166 ; 1.735901654365994E7 ; 2.0116163861399588E8 ; 2.9865164368651557E9 ; 3.1703190513598724E10 ; 0.0
167 ; 1.7334450163922105E7 ; 2.011661386666383E8 ; 3.003875453408816E9 ; 3.190435215221272E10 ; 0.0
168 ; 1.732206978975334E7 ; 2.011706233946123E8 ; 3.021209903572738E9 ; 3.2105518290879356E10 ; 0.0
169 ; 1.7303533630859695E7 ; 2.0117509269461825E8 ; 3.0385319733624916E9 ; 3.2306688914273968E10 ; 0.0
170 ; 1.728879275023834E7 ; 2.011795464640754E8 ; 3.0558355069933515E9 ; 3.2507864006968586E10 ; 0.0
171 ; 1.726920480984628E7 ; 2.011839846011114E8 ; 3.07312429974359E9 ; 3.2709043553432663E10 ; 0.0
172 ; 1.7255620052777726E7 ; 2.0118840700455216E8 ; 3.0903935045534363E9 ; 3.2910227538033775E10 ; 0.0
173 ; 1.724252426273569E7 ; 2.0119281357391208E8 ; 3.107649124606214E9 ; 3.3111415945038326E10 ; 0.0
174 ; 1.7231112616109867E7 ; 2.0119720420938483E8 ; 3.12489164886895E9 ; 3.331260875861224E10 ; 0.0
175 ; 1.7218670747136477E7 ; 2.0120157881183434E8 ; 3.1421227614850597E9 ; 3.3513805962821625E10 ; 0.0
176 ; 1.7205118119067185E7 ; 2.0120593728278622E8 ; 3.1593414322321963E9 ; 3.371500754163346E10 ; 0.0
177 ; 1.7197021472370647E7 ; 2.0121027952441964E8 ; 3.1765465503512635E9 ; 3.391621347891625E10 ; 0.0
178 ; 1.7188938633145418E7 ; 2.0121460543955922E8 ; 3.193743571823634E9 ; 3.4117423758440666E10 ; 0.0
179 ; 1.7177423506323412E7 ; 2.0121891493166772E8 ; 3.2109325104567795E9 ; 3.4318638363880226E10 ; 0.0
180 ; 1.7167865959987737E7 ; 2.012232079048385E8 ; 3.228109933963103E9 ; 3.45198572788119E10 ; 0.0
181 ; 1.715614067534051E7 ; 2.0122748426378876E8 ; 3.2452777999230905E9 ; 3.4721080486716736E10 ; 0.0
182 ; 1.714600934737578E7 ; 2.012317439138527E8 ; 3.262433940598431E9 ; 3.492230797098052E10 ; 0.0
183 ; 1.7135524557535894E7 ; 2.012359867609751E8 ; 3.279579949945807E9 ; 3.512353971489438E10 ; 0.0
184 ; 1.71229007559357E7 ; 2.012402127117052E8 ; 3.296715474503343E9 ; 3.532477570165536E10 ; 0.0
185 ; 1.7118847691477038E7 ; 2.0124442167319086E8 ; 3.313838375259279E9 ; 3.5526015914367065E10 ; 0.0
186 ; 1.710597048511071E7 ; 2.0124861355317268E8 ; 3.3309572229507556E9 ; 3.572726033604025E10 ; 0.0
187 ; 1.7095437823149785E7 ; 2.0125278825997865E8 ; 3.3480631934358664E9 ; 3.592850894959342E10 ; 0.0
188 ; 1.7083361124174513E7 ; 2.0125694570251903E8 ; 3.365158631259016E9 ; 3.61297617378534E10 ; 0.0
189 ; 1.707361054091052E7 ; 2.0126108579028118E8 ; 3.3822419923831906E9 ; 3.633101868355592E10 ; 0.0
190 ; 1.7061510360579778E7 ; 2.0126520843332478E8 ; 3.3993156029241014E9 ; 3.653227976934621E10 ; 0.0
191 ; 1.7051850599309072E7 ; 2.012693135422773E8 ; 3.4163771132846813E9 ; 3.673354497777953E10 ; 0.0
192 ; 1.7043328071736194E7 ; 2.012734010283295E8 ; 3.4334289638839903E9 ; 3.693481429132181E10 ; 0.0
193 ; 1.7032133153879736E7 ; 2.0127747080323118E8 ; 3.4504722919557266E9 ; 3.7136087692350136E10 ; 0.0
194 ; 1.7020899142426856E7 ; 2.0128152277928722E8 ; 3.4675044251096063E9 ; 3.7337365163153366E10 ; 0.0
195 ; 1.7012419877774578E7 ; 2.0128555686935353E8 ; 3.484525324252033E9 ; 3.7538646685932655E10 ; 0.0
