CSV File for the City 1 on Day 89
1 - Minute m 
2 - Power Consumed at minute m 
3 - Power Produced at minute m 
4 - Energy Consumed since the beginning of the day 
5 - Energy Produced since the beginning of the day 
6 - Energy Lost since the beginning of the day on lines starting from the city
 
0 ; 1.6071073003820207E7 ; 1.0553119866360804E8 ; 0.0 ; 0.0 ; 0.0
1 ; 1.6092565474799814E7 ; 1.0568414514439774E8 ; 1.6071073003820207E7 ; 1.0553119866360804E8 ; 0.0
2 ; 1.6113860579217225E7 ; 1.0614587364224538E8 ; 3.2163638478620023E7 ; 2.1121534380800578E8 ; 0.0
3 ; 1.6132438938378893E7 ; 1.0691638566802448E8 ; 4.827749905783725E7 ; 3.1736121745025116E8 ; 0.0
4 ; 1.615273770805293E7 ; 1.0799568257613939E8 ; 6.440993799621614E7 ; 4.2427760311827564E8 ; 0.0
5 ; 1.6183967903568191E7 ; 1.09383765556889E8 ; 8.056267570426907E7 ; 5.3227328569441503E8 ; 0.0
6 ; 1.6221872103685884E7 ; 1.1108063562962481E8 ; 9.674664360783726E7 ; 6.41657051251304E8 ; 0.0
7 ; 1.627680986953235E7 ; 1.1308629363679403E8 ; 1.1296851571152315E8 ; 7.527376868809289E8 ; 0.0
8 ; 1.6354728776746435E7 ; 1.1540074023894787E8 ; 1.2924532558105549E8 ; 8.658239805177228E8 ; 0.0
9 ; 1.6474936140302109E7 ; 1.180239759107843E8 ; 1.456000543578019E8 ; 9.812247207566707E8 ; 0.0
10 ; 1.6655682634107891E7 ; 1.2095600093828088E8 ; 1.6207499049810404E8 ; 1.099248696667455E9 ; 0.0
11 ; 1.6943078252813593E7 ; 1.2419681541695717E8 ; 1.7873067313221192E8 ; 1.2202046976057358E9 ; 0.0
12 ; 1.7406794292463847E7 ; 1.2774641925129357E8 ; 1.956737513850255E8 ; 1.344401513022693E9 ; 0.0
13 ; 1.785031797286003E7 ; 1.3160481215531254E8 ; 2.1308054567748934E8 ; 1.4721479322739866E9 ; 0.0
14 ; 1.7903365752047602E7 ; 1.357719936543162E8 ; 2.3093086365034938E8 ; 1.603752744429299E9 ; 0.0
15 ; 1.792078964696964E7 ; 1.4024796308775318E8 ; 2.4883422940239698E8 ; 1.7395247380836153E9 ; 0.0
16 ; 1.7944615731510445E7 ; 1.4503271961317644E8 ; 2.6675501904936662E8 ; 1.8797727011713686E9 ; 0.0
17 ; 1.796247379327545E7 ; 1.5012626221123436E8 ; 2.8469963478087705E8 ; 2.024805420784545E9 ; 0.0
18 ; 1.798961622023115E7 ; 1.555285896916281E8 ; 3.026621085741525E8 ; 2.1749316829957795E9 ; 0.0
19 ; 1.8010775299017534E7 ; 1.612397006999533E8 ; 3.206517247943837E8 ; 2.3304602726874075E9 ; 0.0
20 ; 1.8027312128731005E7 ; 1.672595937253364E8 ; 3.3866250009340125E8 ; 2.4916999733873606E9 ; 0.0
21 ; 1.8050569112290252E7 ; 1.7358826710876736E8 ; 3.5668981222213227E8 ; 2.658959567112697E9 ; 0.0
22 ; 1.807111627005365E7 ; 1.8022571905202496E8 ; 3.747403813344225E8 ; 2.8325478342214646E9 ; 0.0
23 ; 1.8092993478046305E7 ; 1.87171947627088E8 ; 3.9281149760447615E8 ; 3.0127735532734895E9 ; 0.0
24 ; 1.811261578694112E7 ; 1.9442695078592384E8 ; 4.1090449108252245E8 ; 3.1999455009005775E9 ; 0.0
25 ; 1.8136296240460068E7 ; 2.006787672687312E8 ; 4.2901710686946356E8 ; 3.3943724516865015E9 ; 0.0
26 ; 1.8154856948267847E7 ; 2.0068094265106082E8 ; 4.471534031099236E8 ; 3.5950512189552326E9 ; 0.0
27 ; 1.817662714452588E7 ; 2.006832438790093E8 ; 4.653082600581914E8 ; 3.7957321616062937E9 ; 0.0
28 ; 1.8195901895977113E7 ; 2.0068566852625406E8 ; 4.834848872027173E8 ; 3.996415405485303E9 ; 0.0
29 ; 1.8215651125747904E7 ; 2.00688214097445E8 ; 5.0168078909869444E8 ; 4.197101074011557E9 ; 0.0
30 ; 1.8239575687156897E7 ; 2.006908780381567E8 ; 5.1989644022444236E8 ; 4.397789288109002E9 ; 0.0
31 ; 1.825608605292134E7 ; 2.0069365774457458E8 ; 5.381360159115993E8 ; 4.598480166147159E9 ; 0.0
32 ; 1.8277478025931083E7 ; 2.0069655057285452E8 ; 5.563921019645206E8 ; 4.799173823891733E9 ; 0.0
33 ; 1.8296182904300082E7 ; 2.0069955384810233E8 ; 5.746695799904517E8 ; 4.999870374464588E9 ; 0.0
34 ; 1.831262744742791E7 ; 2.007026648729304E8 ; 5.929657628947518E8 ; 5.200569928312691E9 ; 0.0
35 ; 1.8328849036971543E7 ; 2.007058809355567E8 ; 6.112783903421797E8 ; 5.401272593185621E9 ; 0.0
36 ; 1.83464409191845E7 ; 2.0070919931741983E8 ; 6.296072393791512E8 ; 5.601978474121178E9 ; 0.0
37 ; 1.836584173386526E7 ; 2.0071261730029222E8 ; 6.479536802983357E8 ; 5.802687673438598E9 ; 0.0
38 ; 1.8382096039162572E7 ; 2.0071613217288065E8 ; 6.663195220322009E8 ; 6.00340029073889E9 ; 0.0
39 ; 1.8396861116975296E7 ; 2.007197412369095E8 ; 6.847016180713634E8 ; 6.20411642291177E9 ; 0.0
40 ; 1.841110941165699E7 ; 2.0072344181268895E8 ; 7.030984791883388E8 ; 6.40483616414868E9 ; 0.0
41 ; 1.8426537379936732E7 ; 2.007272312441749E8 ; 7.215095885999957E8 ; 6.605559605961369E9 ; 0.0
42 ; 1.843831370989691E7 ; 2.007311069035321E8 ; 7.399361259799324E8 ; 6.8062868372055435E9 ; 0.0
43 ; 1.845081706691619E7 ; 2.007350661952153E8 ; 7.583744396898293E8 ; 7.007017944109076E9 ; 0.0
44 ; 1.8461452206116553E7 ; 2.007391065595879E8 ; 7.768252567567456E8 ; 7.207753010304291E9 ; 0.0
45 ; 1.846982228524591E7 ; 2.0074322547609678E8 ; 7.952867089628621E8 ; 7.408492116863878E9 ; 0.0
46 ; 1.8483478681808427E7 ; 2.0074742046602848E8 ; 8.13756531248108E8 ; 7.609235342339975E9 ; 0.0
47 ; 1.849101565008823E7 ; 2.0075168909486824E8 ; 8.322400099299165E8 ; 7.809982762806004E9 ; 0.0
48 ; 1.8498533075070128E7 ; 2.0075602897428846E8 ; 8.507310255800047E8 ; 8.010734451900872E9 ; 0.0
49 ; 1.8502849803955663E7 ; 2.007604377637908E8 ; 8.692295586550748E8 ; 8.21149048087516E9 ; 0.0
50 ; 1.8514513665786196E7 ; 2.0076491317202753E8 ; 8.877324084590305E8 ; 8.412250918638951E9 ; 0.0
51 ; 1.8518704486510556E7 ; 2.0076945295782745E8 ; 9.062469221248167E8 ; 8.613015831810978E9 ; 0.0
52 ; 1.8523794606241405E7 ; 2.0077405493095016E8 ; 9.247656266113272E8 ; 8.813785284768805E9 ; 0.0
53 ; 1.852904046471037E7 ; 2.007787169525935E8 ; 9.432894212175686E8 ; 9.014559339699755E9 ; 0.0
54 ; 1.8533432938957293E7 ; 2.007834369356764E8 ; 9.61818461682279E8 ; 9.215338056652348E9 ; 0.0
55 ; 1.853914280403844E7 ; 2.0078821284491917E8 ; 9.803518946212363E8 ; 9.416121493588024E9 ; 0.0
56 ; 1.854493871011179E7 ; 2.0079304269674253E8 ; 9.988910374252747E8 ; 9.616909706432943E9 ; 0.0
57 ; 1.8551891241273627E7 ; 2.0079792455900463E8 ; 1.0174359761353865E9 ; 9.817702749129686E9 ; 0.0
58 ; 1.8557781683933716E7 ; 2.0080285655059463E8 ; 1.0359878673766601E9 ; 1.001850067368869E10 ; 0.0
59 ; 1.8560565360990208E7 ; 2.0080783684090012E8 ; 1.0545456490605938E9 ; 1.0219303530239285E10 ; 0.0
60 ; 1.8565751909668066E7 ; 2.0081286364916453E8 ; 1.073106214421584E9 ; 1.0420111367080185E10 ; 0.0
61 ; 1.8568746002637237E7 ; 2.0081793524374914E8 ; 1.091671966331252E9 ; 1.062092423072935E10 ; 0.0
62 ; 1.857580284206957E7 ; 2.0082304994131348E8 ; 1.1102407123338892E9 ; 1.0821742165973099E10 ; 0.0
63 ; 1.857925975845068E7 ; 2.0082820610592654E8 ; 1.1288165151759589E9 ; 1.1022565215914412E10 ; 0.0
64 ; 1.85823948951059E7 ; 2.0083340214812037E8 ; 1.1473957749344096E9 ; 1.1223393422020338E10 ; 0.0
65 ; 1.8587313098203093E7 ; 2.0083863652389628E8 ; 1.1659781698295155E9 ; 1.1424226824168459E10 ; 0.0
66 ; 1.8587655615234327E7 ; 2.00843907733693E8 ; 1.1845654829277186E9 ; 1.1625065460692356E10 ; 0.0
67 ; 1.859512214041608E7 ; 2.008492143213257E8 ; 1.203153138542953E9 ; 1.1825909368426048E10 ; 0.0
68 ; 1.859324835330947E7 ; 2.0085455487290272E8 ; 1.2217482606833692E9 ; 1.2026758582747374E10 ; 0.0
69 ; 1.8597215128214452E7 ; 2.008599280157278E8 ; 1.2403415090366786E9 ; 1.2227613137620275E10 ; 0.0
70 ; 1.860184386856673E7 ; 2.008653324171927E8 ; 1.258938724164893E9 ; 1.2428473065636003E10 ; 0.0
71 ; 1.8608205032197684E7 ; 2.0087076678366682E8 ; 1.2775405680334597E9 ; 1.2629338398053196E10 ; 0.0
72 ; 1.861010610015296E7 ; 2.0087622985938746E8 ; 1.2961487730656574E9 ; 1.2830209164836863E10 ; 0.0
73 ; 1.861084323055002E7 ; 2.008817204253556E8 ; 1.3147588791658103E9 ; 1.303108539469625E10 ; 0.0
74 ; 1.8612476003970403E7 ; 2.0088723729824045E8 ; 1.3333697223963604E9 ; 1.3231967115121607E10 ; 0.0
75 ; 1.8618529107391506E7 ; 2.0089277932929596E8 ; 1.3519821984003308E9 ; 1.3432854352419847E10 ; 0.0
76 ; 1.8616985939572576E7 ; 2.0089834540329203E8 ; 1.3706007275077224E9 ; 1.3633747131749144E10 ; 0.0
77 ; 1.8621024389006153E7 ; 2.009039344374628E8 ; 1.389217713447295E9 ; 1.3834645477152435E10 ; 0.0
78 ; 1.8614884925068974E7 ; 2.0090954538047364E8 ; 1.407838737836301E9 ; 1.4035549411589897E10 ; 0.0
79 ; 1.8608911860436324E7 ; 2.0091517721140864E8 ; 1.4264536227613702E9 ; 1.4236458956970371E10 ; 0.0
80 ; 1.8606005889046643E7 ; 2.0092082893878E8 ; 1.4450625346218066E9 ; 1.443737413418178E10 ; 0.0
81 ; 1.8601687264233634E7 ; 2.009264995995603E8 ; 1.4636685405108533E9 ; 1.463829496312056E10 ; 0.0
82 ; 1.8596968169079434E7 ; 2.009321882582381E8 ; 1.4822702277750869E9 ; 1.483922146272012E10 ; 0.0
83 ; 1.85926356880805E7 ; 2.0093789400589842E8 ; 1.5008671959441664E9 ; 1.5040153650978357E10 ; 0.0
84 ; 1.8585036322239053E7 ; 2.0094361595932716E8 ; 1.519459831632247E9 ; 1.5241091544984255E10 ; 0.0
85 ; 1.8580069152203307E7 ; 2.0094935326014128E8 ; 1.5380448679544861E9 ; 1.5442035160943583E10 ; 0.0
86 ; 1.857712789169081E7 ; 2.0095510507394347E8 ; 1.5566249371066895E9 ; 1.5642984514203724E10 ; 0.0
87 ; 1.8578480813447513E7 ; 2.0096087058950225E8 ; 1.5752020649983802E9 ; 1.5843939619277668E10 ; 0.0
88 ; 1.856736014002273E7 ; 2.0096664901795718E8 ; 1.5937805458118277E9 ; 1.604490048986717E10 ; 0.0
89 ; 1.8565549684978828E7 ; 2.0097243959204867E8 ; 1.6123479059518504E9 ; 1.6245867138885128E10 ; 0.0
90 ; 1.855468716028905E7 ; 2.009782415653724E8 ; 1.6309134556368291E9 ; 1.6446839578477177E10 ; 0.0
91 ; 1.8552662823424738E7 ; 2.0098405421165818E8 ; 1.6494681427971182E9 ; 1.664781782004255E10 ; 0.0
92 ; 1.854108630494754E7 ; 2.0098987682407248E8 ; 1.668020805620543E9 ; 1.6848801874254208E10 ; 0.0
93 ; 1.853530280378236E7 ; 2.0099570871454436E8 ; 1.6865618919254906E9 ; 1.704979175107828E10 ; 0.0
94 ; 1.8529514929818556E7 ; 2.0100154921311447E8 ; 1.705097194729273E9 ; 1.7250787459792824E10 ; 0.0
95 ; 1.8523264336349003E7 ; 2.0100739766730633E8 ; 1.7236267096590917E9 ; 1.745178900900594E10 ; 0.0
96 ; 1.8519007947900925E7 ; 2.010132534415196E8 ; 1.7421499739954407E9 ; 1.7652796406673244E10 ; 0.0
97 ; 1.8508687355637383E7 ; 2.0101911591644445E8 ; 1.7606689819433417E9 ; 1.7853809660114765E10 ; 0.0
98 ; 1.8502673160056517E7 ; 2.0102498448849723E8 ; 1.779177669298979E9 ; 1.8054828776031208E10 ; 0.0
99 ; 1.849650146262335E7 ; 2.0103085856927568E8 ; 1.7976803424590356E9 ; 1.8255853760519707E10 ; 0.0
100 ; 1.8492161788551386E7 ; 2.0103673758503416E8 ; 1.816176843921659E9 ; 1.845688461908898E10 ; 0.0
101 ; 1.8481606394325785E7 ; 2.0104262097617772E8 ; 1.8346690057102103E9 ; 1.8657921356674015E10 ; 0.0
102 ; 1.847434676642432E7 ; 2.010485081967748E8 ; 1.853150612104536E9 ; 1.8858963977650192E10 ; 0.0
103 ; 1.8465654281579338E7 ; 2.0105439871408746E8 ; 1.8716249588709605E9 ; 1.9060012485846966E10 ; 0.0
104 ; 1.8457192805480875E7 ; 2.010602920081191E8 ; 1.8900906131525397E9 ; 1.9261066884561054E10 ; 0.0
105 ; 1.8449844899156373E7 ; 2.01066187571179E8 ; 1.9085478059580207E9 ; 1.946212717656917E10 ; 0.0
106 ; 1.8438790917549137E7 ; 2.010720849074626E8 ; 1.926997650857177E9 ; 1.966319336414035E10 ; 0.0
107 ; 1.8434646374673992E7 ; 2.0107798353264764E8 ; 1.9454364417747262E9 ; 1.9864265449047813E10 ; 0.0
108 ; 1.8426422211704243E7 ; 2.0108388297350547E8 ; 1.9638710881494002E9 ; 2.006534343258046E10 ; 0.0
109 ; 1.8418157881070357E7 ; 2.0108978276752642E8 ; 1.9822975103611045E9 ; 2.0266427315553967E10 ; 0.0
110 ; 1.8403250455192097E7 ; 2.010956824625597E8 ; 2.0007156682421749E9 ; 2.046751709832149E10 ; 0.0
111 ; 1.839542653850352E7 ; 2.0110158161646628E8 ; 2.019118918697367E9 ; 2.066861278078405E10 ; 0.0
112 ; 1.8391160021327812E7 ; 2.011074797967852E8 ; 2.0375143452358704E9 ; 2.0869714362400517E10 ; 0.0
113 ; 1.8376442006870884E7 ; 2.0111337658041206E8 ; 2.055905505257198E9 ; 2.10708218421973E10 ; 0.0
114 ; 1.836520363220641E7 ; 2.0111927155328977E8 ; 2.074281947264069E9 ; 2.1271935218777714E10 ; 0.0
115 ; 1.8359977291876588E7 ; 2.0112516431011093E8 ; 2.0926471508962755E9 ; 2.1473054490331005E10 ; 0.0
116 ; 1.8351995352785956E7 ; 2.0113105445403108E8 ; 2.111007128188152E9 ; 2.1674179654641117E10 ; 0.0
117 ; 1.834022993756128E7 ; 2.011369415963931E8 ; 2.1293591235409381E9 ; 2.187531070909515E10 ; 0.0
118 ; 1.832786893849072E7 ; 2.0114282535646173E8 ; 2.1476993534784994E9 ; 2.2076447650691544E10 ; 0.0
119 ; 1.8314751684980094E7 ; 2.0114870536116797E8 ; 2.1660272224169903E9 ; 2.2277590476048004E10 ; 0.0
120 ; 1.8305559149900477E7 ; 2.0115458124486318E8 ; 2.18434197410197E9 ; 2.2478739181409172E10 ; 0.0
121 ; 1.8299321554344997E7 ; 2.0116045264908248E8 ; 2.2026475332518706E9 ; 2.2679893762654034E10 ; 0.0
122 ; 1.8283562516405948E7 ; 2.0116631922231662E8 ; 2.220946854806216E9 ; 2.2881054215303116E10 ; 0.0
123 ; 1.8273495221031908E7 ; 2.011721806197927E8 ; 2.239230417322622E9 ; 2.3082220534525433E10 ; 0.0
124 ; 1.826711018331434E7 ; 2.0117803650326306E8 ; 2.257503912543654E9 ; 2.3283392715145226E10 ; 0.0
125 ; 1.824958312134479E7 ; 2.0118388654080164E8 ; 2.2757710227269683E9 ; 2.3484570751648487E10 ; 0.0
126 ; 1.823660655458486E7 ; 2.0118973040660843E8 ; 2.294020605848313E9 ; 2.368575463818929E10 ; 0.0
127 ; 1.822646240933816E7 ; 2.0119556778082082E8 ; 2.312257212402898E9 ; 2.3886944368595898E10 ; 0.0
128 ; 1.8214274037273124E7 ; 2.0120139834933197E8 ; 2.330483674812236E9 ; 2.4088139936376717E10 ; 0.0
129 ; 1.8199654224398267E7 ; 2.01207221803616E8 ; 2.348697948849509E9 ; 2.4289341334726048E10 ; 0.0
130 ; 1.8188034095021423E7 ; 2.012130378405595E8 ; 2.366897603073907E9 ; 2.4490548556529663E10 ; 0.0
131 ; 1.8170197581973344E7 ; 2.0121884616229942E8 ; 2.385085637168928E9 ; 2.4691761594370224E10 ; 0.0
132 ; 1.815138728188754E7 ; 2.0122464647606662E8 ; 2.4032558347509017E9 ; 2.4892980440532524E10 ; 0.0
133 ; 1.8130627013658877E7 ; 2.0123043849403536E8 ; 2.421407222032789E9 ; 2.509420508700859E10 ; 0.0
134 ; 1.8116054884440575E7 ; 2.012362219331783E8 ; 2.439537849046448E9 ; 2.5295435525502625E10 ; 0.0
135 ; 1.8096794127809282E7 ; 2.0124199651512668E8 ; 2.4576539039308887E9 ; 2.5496671747435802E10 ; 0.0
136 ; 1.8077837187391154E7 ; 2.0124776196603554E8 ; 2.4757506980586977E9 ; 2.5697913743950928E10 ; 0.0
137 ; 1.8061612879644647E7 ; 2.0125351801645395E8 ; 2.493828535246089E9 ; 2.589916150591696E10 ; 0.0
138 ; 1.803933626136378E7 ; 2.0125926440119994E8 ; 2.511890148125734E9 ; 2.6100415023933414E10 ; 0.0
139 ; 1.8025059223091528E7 ; 2.0126500085923976E8 ; 2.529929484387098E9 ; 2.6301674288334614E10 ; 0.0
140 ; 1.800115214223572E7 ; 2.0127072713357168E8 ; 2.5479545436101894E9 ; 2.6502939289193855E10 ; 0.0
141 ; 1.7982178195316978E7 ; 2.012764429711138E8 ; 2.565955695752425E9 ; 2.6704210016327427E10 ; 0.0
142 ; 1.7961801582177505E7 ; 2.0128214812259606E8 ; 2.583937873947742E9 ; 2.6905486459298542E10 ; 0.0
143 ; 1.7940032473104175E7 ; 2.0128784234245586E8 ; 2.6018996755299196E9 ; 2.710676860742114E10 ; 0.0
144 ; 1.7920300407121643E7 ; 2.0129352538873756E8 ; 2.6198397080030236E9 ; 2.7308056449763596E10 ; 0.0
145 ; 1.791019023838716E7 ; 2.0129919702299556E8 ; 2.6377600084101453E9 ; 2.7509349975152332E10 ; 0.0
146 ; 1.789288263382377E7 ; 2.013048570102006E8 ; 2.6556701986485324E9 ; 2.7710649172175327E10 ; 0.0
147 ; 1.7880744239798192E7 ; 2.0131050511864966E8 ; 2.6735630812823563E9 ; 2.7911954029185528E10 ; 0.0
148 ; 1.7868236066991575E7 ; 2.0131614111987883E8 ; 2.6914438255221543E9 ; 2.8113264534304176E10 ; 0.0
149 ; 1.7851834905554198E7 ; 2.0132176478857917E8 ; 2.709312061589146E9 ; 2.8314580675424057E10 ; 0.0
150 ; 1.7841297585532337E7 ; 2.0132737590251574E8 ; 2.7271638964947004E9 ; 2.8515902440212635E10 ; 0.0
151 ; 1.782618698356325E7 ; 2.013329742424493E8 ; 2.7450051940802326E9 ; 2.871722981611515E10 ; 0.0
152 ; 1.781419137931732E7 ; 2.0133855959206074E8 ; 2.762831381063796E9 ; 2.89185627903576E10 ; 0.0
153 ; 1.779983473375574E7 ; 2.013441317378781E8 ; 2.7806455724431133E9 ; 2.911990134994966E10 ; 0.0
154 ; 1.778950073797175E7 ; 2.0134969046920624E8 ; 2.798445407176869E9 ; 2.932124548168754E10 ; 0.0
155 ; 1.7771641174698945E7 ; 2.013552355780588E8 ; 2.8162349079148407E9 ; 2.9522595172156746E10 ; 0.0
156 ; 1.776063070314049E7 ; 2.0136076685909247E8 ; 2.8340065490895395E9 ; 2.9723950407734806E10 ; 0.0
157 ; 1.7746711333966278E7 ; 2.0136628410954377E8 ; 2.85176717979268E9 ; 2.99253111745939E10 ; 0.0
158 ; 1.7734387959580917E7 ; 2.0137178712916756E8 ; 2.869513891126646E9 ; 3.012667745870344E10 ; 0.0
159 ; 1.771678097275584E7 ; 2.01377275720178E8 ; 2.887248279086227E9 ; 3.032804924583261E10 ; 0.0
160 ; 1.769955529121536E7 ; 2.013827496871915E8 ; 2.904965060058983E9 ; 3.0529426521552788E10 ; 0.0
161 ; 1.7690147695918225E7 ; 2.0138820883717117E8 ; 2.9226646153501983E9 ; 3.073080927123998E10 ; 0.0
162 ; 1.7673646500962894E7 ; 2.0139365297937387E8 ; 2.9403547630461164E9 ; 3.093219748007715E10 ; 0.0
163 ; 1.766227877490862E7 ; 2.0139908192529824E8 ; 2.958028409547079E9 ; 3.1133591133056522E10 ; 0.0
164 ; 1.764737041019279E7 ; 2.0140449548863518E8 ; 2.9756906883219876E9 ; 3.133499021498182E10 ; 0.0
165 ; 1.7632152086227622E7 ; 2.0140989348521948E8 ; 2.9933380587321806E9 ; 3.1536394710470455E10 ; 0.0
166 ; 1.761935360234236E7 ; 2.0141527573298332E8 ; 3.010970210818408E9 ; 3.1737804603955673E10 ; 0.0
167 ; 1.7603259826299578E7 ; 2.0142064205191123E8 ; 3.02858956442075E9 ; 3.1939219879688656E10 ; 0.0
168 ; 1.7589271110553708E7 ; 2.014259922639966E8 ; 3.04619282424705E9 ; 3.2140640521740566E10 ; 0.0
169 ; 1.7575814706879877E7 ; 2.0143132619319952E8 ; 3.0637820953576035E9 ; 3.2342066514004562E10 ; 0.0
170 ; 1.755985463564037E7 ; 2.014366436654061E8 ; 3.0813579100644836E9 ; 3.254349784019776E10 ; 0.0
171 ; 1.754816908045171E7 ; 2.014419445083892E8 ; 3.098917764700124E9 ; 3.2744934483863167E10 ; 0.0
172 ; 1.7528326907217905E7 ; 2.014472285517702E8 ; 3.1164659337805753E9 ; 3.2946376428371555E10 ; 0.0
173 ; 1.7518662086220242E7 ; 2.0145249562698227E8 ; 3.1339942606877933E9 ; 3.3147823656923325E10 ; 0.0
174 ; 1.7511542041924935E7 ; 2.0145774556723472E8 ; 3.1515129227740135E9 ; 3.334927615255031E10 ; 0.0
175 ; 1.7498515020348553E7 ; 2.0146297820747846E8 ; 3.1690244648159385E9 ; 3.3550733898117542E10 ; 0.0
176 ; 1.7491343975708846E7 ; 2.0146819338437283E8 ; 3.186522979836287E9 ; 3.375219687632502E10 ; 0.0
177 ; 1.7480366292317193E7 ; 2.01473390936253E8 ; 3.204014323811996E9 ; 3.3953665069709393E10 ; 0.0
178 ; 1.746920974008739E7 ; 2.014785707030992E8 ; 3.2214946901043134E9 ; 3.4155138460645645E10 ; 0.0
179 ; 1.746348729169133E7 ; 2.0148373252650595E8 ; 3.238963899844401E9 ; 3.4356617031348743E10 ; 0.0
180 ; 1.7457057230106875E7 ; 2.0148887624965325E8 ; 3.256427387136092E9 ; 3.455810076387525E10 ; 0.0
181 ; 1.7440746771568954E7 ; 2.0149400171727803E8 ; 3.273884444366199E9 ; 3.475958964012491E10 ; 0.0
182 ; 1.7437734222759277E7 ; 2.014991087756468E8 ; 3.291325191137768E9 ; 3.4961083641842186E10 ; 0.0
183 ; 1.7428037367556613E7 ; 2.0150419727252907E8 ; 3.308762925360527E9 ; 3.5162582750617836E10 ; 0.0
184 ; 1.7412131371047027E7 ; 2.0150926705717167E8 ; 3.3261909627280836E9 ; 3.5364086947890366E10 ; 0.0
185 ; 1.7404475892037865E7 ; 2.0151431798027387E8 ; 3.3436030940991306E9 ; 3.556559621494754E10 ; 0.0
186 ; 1.7397295970146026E7 ; 2.0151934989396325E8 ; 3.3610075699911685E9 ; 3.576711053292781E10 ; 0.0
187 ; 1.7386271835266326E7 ; 2.0152436265177244E8 ; 3.3784048659613147E9 ; 3.596862988282178E10 ; 0.0
188 ; 1.7378836625755806E7 ; 2.0152935610861635E8 ; 3.395791137796581E9 ; 3.617015424547355E10 ; 0.0
189 ; 1.7367394230719343E7 ; 2.0153433012077054E8 ; 3.4131699744223366E9 ; 3.637168360158217E10 ; 0.0
190 ; 1.7362273826014668E7 ; 2.015392845458497E8 ; 3.430537368653056E9 ; 3.657321793170294E10 ; 0.0
191 ; 1.734590377404022E7 ; 2.015442192427874E8 ; 3.4478996424790707E9 ; 3.6774757216248795E10 ; 0.0
192 ; 1.7342190956561923E7 ; 2.0154913407181594E8 ; 3.465245546253111E9 ; 3.6976301435491585E10 ; 0.0
193 ; 1.7335905896071807E7 ; 2.0155402889444727E8 ; 3.482587737209673E9 ; 3.71778505695634E10 ; 0.0
194 ; 1.7322265805840768E7 ; 2.0155890357345414E8 ; 3.499923643105745E9 ; 3.737940459845785E10 ; 0.0
195 ; 1.731921770302613E7 ; 2.0156375797285217E8 ; 3.517245908911586E9 ; 3.75809635020313E10 ; 0.0
