CSV File for the City 2 on Day 10
1 - Minute m 
2 - Power Consumed at minute m 
3 - Power Produced at minute m 
4 - Energy Consumed since the beginning of the day 
5 - Energy Produced since the beginning of the day 
6 - Energy Lost since the beginning of the day on lines starting from the city
 
0 ; 1.0289316594141863E7 ; 1.2233656184336595E7 ; 0.0 ; 0.0 ; 0.0
1 ; 1.029930050540774E7 ; 1.2233656184336595E7 ; 1.0289316594141863E7 ; 1.2233656184336595E7 ; 0.0
2 ; 1.031074431728341E7 ; 1.2233656184336595E7 ; 2.0588617099549603E7 ; 2.446731236867319E7 ; 0.0
3 ; 1.032354785531669E7 ; 1.2233656184336595E7 ; 3.0899361416833013E7 ; 3.6700968553009786E7 ; 0.0
4 ; 1.0336775353886956E7 ; 1.2233656184336595E7 ; 4.1222909272149704E7 ; 4.893462473734638E7 ; 0.0
5 ; 1.0357022004686669E7 ; 1.2233656184336595E7 ; 5.155968462603666E7 ; 6.1168280921682976E7 ; 0.0
6 ; 1.0383055543228915E7 ; 1.2233656184336595E7 ; 6.191670663072333E7 ; 7.340193710601957E7 ; 0.0
7 ; 1.042067804955177E7 ; 1.2233656184336595E7 ; 7.229976217395224E7 ; 8.563559329035616E7 ; 0.0
8 ; 1.0466085822468823E7 ; 1.2233656184336595E7 ; 8.2720440223504E7 ; 9.786924947469276E7 ; 0.0
9 ; 1.0542716394006051E7 ; 1.2233656184336595E7 ; 9.318652604597282E7 ; 1.1010290565902936E8 ; 0.0
10 ; 1.0662157164730184E7 ; 1.2233656184336595E7 ; 1.0372924243997887E8 ; 1.2233656184336597E8 ; 0.0
11 ; 1.0847400732045699E7 ; 1.2233656184336595E7 ; 1.1439139960470906E8 ; 1.3457021802770257E8 ; 0.0
12 ; 1.1148233060080124E7 ; 1.2233656184336595E7 ; 1.2523880033675475E8 ; 1.4680387421203917E8 ; 0.0
13 ; 1.1432437257705025E7 ; 1.2233656184336595E7 ; 1.3638703339683488E8 ; 1.5903753039637578E8 ; 0.0
14 ; 1.1474633062340904E7 ; 1.2233656184336595E7 ; 1.478194706545399E8 ; 1.7127118658071238E8 ; 0.0
15 ; 1.1481547317802196E7 ; 1.2233656184336595E7 ; 1.5929410371688083E8 ; 1.8350484276504898E8 ; 0.0
16 ; 1.1496239984559493E7 ; 1.2233656184336595E7 ; 1.7077565103468302E8 ; 1.9573849894938558E8 ; 0.0
17 ; 1.1510064983440453E7 ; 1.2233656184336595E7 ; 1.8227189101924253E8 ; 2.079721551337222E8 ; 0.0
18 ; 1.1524390554014593E7 ; 1.2233656184336595E7 ; 1.9378195600268298E8 ; 2.202058113180588E8 ; 0.0
19 ; 1.1534632098841025E7 ; 1.2233656184336595E7 ; 2.0530634655669758E8 ; 2.324394675023954E8 ; 0.0
20 ; 1.1549497461577486E7 ; 1.2233656184336595E7 ; 2.168409786555386E8 ; 2.44673123686732E8 ; 0.0
21 ; 1.15637972358847E7 ; 1.2233656184336595E7 ; 2.2839047611711606E8 ; 2.569067798710686E8 ; 0.0
22 ; 1.1579284141846837E7 ; 1.2233656184336595E7 ; 2.3995427335300076E8 ; 2.691404360554052E8 ; 0.0
23 ; 1.158903963752568E7 ; 1.2233656184336595E7 ; 2.515335574948476E8 ; 2.813740922397418E8 ; 0.0
24 ; 1.1602503724263037E7 ; 1.2233656184336595E7 ; 2.6312259713237327E8 ; 2.936077484240784E8 ; 0.0
25 ; 1.1614677107299281E7 ; 1.2233656184336595E7 ; 2.747251008566363E8 ; 3.05841404608415E8 ; 0.0
26 ; 1.1632001848815428E7 ; 1.2233656184336595E7 ; 2.8633977796393555E8 ; 3.180750607927516E8 ; 0.0
27 ; 1.1643252915002855E7 ; 1.2233656184336595E7 ; 2.97971779812751E8 ; 3.303087169770882E8 ; 0.0
28 ; 1.1657867202517482E7 ; 1.2233656184336595E7 ; 3.096150327277539E8 ; 3.425423731614248E8 ; 0.0
29 ; 1.167018321204331E7 ; 1.2233656184336595E7 ; 3.212728999302714E8 ; 3.547760293457614E8 ; 0.0
30 ; 1.167899990608815E7 ; 1.2233656184336595E7 ; 3.329430831423147E8 ; 3.67009685530098E8 ; 0.0
31 ; 1.1692267561649296E7 ; 1.2233656184336595E7 ; 3.4462208304840285E8 ; 3.792433417144346E8 ; 0.0
32 ; 1.1702724622564713E7 ; 1.2233656184336595E7 ; 3.5631435061005217E8 ; 3.914769978987712E8 ; 0.0
33 ; 1.1713416285640288E7 ; 1.2233656184336595E7 ; 3.680170752326169E8 ; 4.037106540831078E8 ; 0.0
34 ; 1.1726968382217128E7 ; 1.2233656184336595E7 ; 3.797304915182572E8 ; 4.1594431026744443E8 ; 0.0
35 ; 1.1738315795125365E7 ; 1.2233656184336595E7 ; 3.914574599004743E8 ; 4.2817796645178103E8 ; 0.0
36 ; 1.1746683986055346E7 ; 1.2233656184336595E7 ; 4.031957756955997E8 ; 4.4041162263611764E8 ; 0.0
37 ; 1.1759118398316097E7 ; 1.2233656184336595E7 ; 4.1494245968165505E8 ; 4.5264527882045424E8 ; 0.0
38 ; 1.1768279392693114E7 ; 1.2233656184336595E7 ; 4.2670157807997113E8 ; 4.6487893500479084E8 ; 0.0
39 ; 1.1779498659645868E7 ; 1.2233656184336595E7 ; 4.3846985747266424E8 ; 4.7711259118912745E8 ; 0.0
40 ; 1.17848005827531E7 ; 1.2233656184336595E7 ; 4.502493561323101E8 ; 4.8934624737346405E8 ; 0.0
41 ; 1.1793988378739635E7 ; 1.2233656184336595E7 ; 4.620341567150632E8 ; 5.0157990355780065E8 ; 0.0
42 ; 1.180183817439812E7 ; 1.2233656184336595E7 ; 4.7382814509380287E8 ; 5.1381355974213725E8 ; 0.0
43 ; 1.1809405238403669E7 ; 1.2233656184336595E7 ; 4.85629983268201E8 ; 5.2604721592647386E8 ; 0.0
44 ; 1.1815078798634589E7 ; 1.2233656184336595E7 ; 4.974393885066047E8 ; 5.382808721108104E8 ; 0.0
45 ; 1.1824964846863674E7 ; 1.2233656184336595E7 ; 5.0925446730523926E8 ; 5.50514528295147E8 ; 0.0
46 ; 1.1830620415684273E7 ; 1.2233656184336595E7 ; 5.2107943215210295E8 ; 5.627481844794835E8 ; 0.0
47 ; 1.1834579728514636E7 ; 1.2233656184336595E7 ; 5.3291005256778723E8 ; 5.7498184066382E8 ; 0.0
48 ; 1.1839987604017366E7 ; 1.2233656184336595E7 ; 5.447446322963018E8 ; 5.872154968481566E8 ; 0.0
49 ; 1.1840619724591777E7 ; 1.2233656184336595E7 ; 5.565846199003192E8 ; 5.994491530324931E8 ; 0.0
50 ; 1.1847936170328695E7 ; 1.2233656184336595E7 ; 5.68425239624911E8 ; 6.116828092168297E8 ; 0.0
51 ; 1.184714726051679E7 ; 1.2233656184336595E7 ; 5.802731757952397E8 ; 6.239164654011662E8 ; 0.0
52 ; 1.1855920762136862E7 ; 1.2233656184336595E7 ; 5.921203230557564E8 ; 6.361501215855027E8 ; 0.0
53 ; 1.1858287717891596E7 ; 1.2233656184336595E7 ; 6.039762438178933E8 ; 6.483837777698393E8 ; 0.0
54 ; 1.1861459514275678E7 ; 1.2233656184336595E7 ; 6.158345315357848E8 ; 6.606174339541758E8 ; 0.0
55 ; 1.1863525183428233E7 ; 1.2233656184336595E7 ; 6.276959910500605E8 ; 6.728510901385124E8 ; 0.0
56 ; 1.1865773155689273E7 ; 1.2233656184336595E7 ; 6.395595162334888E8 ; 6.850847463228489E8 ; 0.0
57 ; 1.1866968455379628E7 ; 1.2233656184336595E7 ; 6.51425289389178E8 ; 6.973184025071855E8 ; 0.0
58 ; 1.1872738184096377E7 ; 1.2233656184336595E7 ; 6.632922578445576E8 ; 7.09552058691522E8 ; 0.0
59 ; 1.1873897209224679E7 ; 1.2233656184336595E7 ; 6.75164996028654E8 ; 7.217857148758585E8 ; 0.0
60 ; 1.1878541324784376E7 ; 1.2233656184336595E7 ; 6.870388932378787E8 ; 7.340193710601951E8 ; 0.0
61 ; 1.1876729521246662E7 ; 1.2233656184336595E7 ; 6.989174345626631E8 ; 7.462530272445316E8 ; 0.0
62 ; 1.1881032326137802E7 ; 1.2233656184336595E7 ; 7.107941640839097E8 ; 7.584866834288682E8 ; 0.0
63 ; 1.1879337211827237E7 ; 1.2233656184336595E7 ; 7.226751964100475E8 ; 7.707203396132047E8 ; 0.0
64 ; 1.1885351605737556E7 ; 1.2233656184336595E7 ; 7.345545336218748E8 ; 7.829539957975413E8 ; 0.0
65 ; 1.1884190661371741E7 ; 1.2233656184336595E7 ; 7.464398852276124E8 ; 7.951876519818778E8 ; 0.0
66 ; 1.1885819782705279E7 ; 1.2233656184336595E7 ; 7.583240758889841E8 ; 8.074213081662143E8 ; 0.0
67 ; 1.1887540375473281E7 ; 1.2233656184336595E7 ; 7.702098956716894E8 ; 8.196549643505509E8 ; 0.0
68 ; 1.1891840208923128E7 ; 1.2233656184336595E7 ; 7.820974360471627E8 ; 8.318886205348874E8 ; 0.0
69 ; 1.1891524350455452E7 ; 1.2233656184336595E7 ; 7.939892762560858E8 ; 8.44122276719224E8 ; 0.0
70 ; 1.1890263650651759E7 ; 1.2233656184336595E7 ; 8.058808006065412E8 ; 8.563559329035605E8 ; 0.0
71 ; 1.1893986450119076E7 ; 1.2233656184336595E7 ; 8.17771064257193E8 ; 8.685895890878971E8 ; 0.0
72 ; 1.189610874761271E7 ; 1.2233656184336595E7 ; 8.29665050707312E8 ; 8.808232452722336E8 ; 0.0
73 ; 1.1896433395629486E7 ; 1.2233656184336595E7 ; 8.415611594549247E8 ; 8.930569014565701E8 ; 0.0
74 ; 1.1894443972380005E7 ; 1.2233656184336595E7 ; 8.534575928505542E8 ; 9.052905576409067E8 ; 0.0
75 ; 1.1898307750965945E7 ; 1.2233656184336595E7 ; 8.653520368229343E8 ; 9.175242138252432E8 ; 0.0
76 ; 1.1897663413444212E7 ; 1.2233656184336595E7 ; 8.772503445739002E8 ; 9.297578700095798E8 ; 0.0
77 ; 1.18988337814955E7 ; 1.2233656184336595E7 ; 8.891480079873444E8 ; 9.419915261939163E8 ; 0.0
78 ; 1.1894516121074999E7 ; 1.2233656184336595E7 ; 9.010468417688398E8 ; 9.542251823782529E8 ; 0.0
79 ; 1.1891621442357874E7 ; 1.2233656184336595E7 ; 9.129413578899149E8 ; 9.664588385625894E8 ; 0.0
80 ; 1.1889112300675584E7 ; 1.2233656184336595E7 ; 9.248329793322728E8 ; 9.78692494746926E8 ; 0.0
81 ; 1.1883953018958585E7 ; 1.2233656184336595E7 ; 9.367220916329484E8 ; 9.909261509312625E8 ; 0.0
82 ; 1.1878738668683164E7 ; 1.2233656184336595E7 ; 9.48606044651907E8 ; 1.003159807115599E9 ; 0.0
83 ; 1.1879708119651299E7 ; 1.2233656184336595E7 ; 9.604847833205901E8 ; 1.0153934632999356E9 ; 0.0
84 ; 1.1872576118342336E7 ; 1.2233656184336595E7 ; 9.723644914402415E8 ; 1.0276271194842721E9 ; 0.0
85 ; 1.1871604288459478E7 ; 1.2233656184336595E7 ; 9.842370675585837E8 ; 1.0398607756686087E9 ; 0.0
86 ; 1.1863651073727695E7 ; 1.2233656184336595E7 ; 9.961086718470432E8 ; 1.0520944318529452E9 ; 0.0
87 ; 1.1859170134124132E7 ; 1.2233656184336595E7 ; 1.0079723229207709E9 ; 1.0643280880372818E9 ; 0.0
88 ; 1.1859698315886961E7 ; 1.2233656184336595E7 ; 1.019831493054895E9 ; 1.0765617442216184E9 ; 0.0
89 ; 1.1851735429111114E7 ; 1.2233656184336595E7 ; 1.031691191370782E9 ; 1.088795400405955E9 ; 0.0
90 ; 1.1846702860248074E7 ; 1.2233656184336595E7 ; 1.0435429267998931E9 ; 1.1010290565902917E9 ; 0.0
91 ; 1.184441680626194E7 ; 1.2233656184336595E7 ; 1.0553896296601412E9 ; 1.1132627127746284E9 ; 0.0
92 ; 1.1839756504245495E7 ; 1.2233656184336595E7 ; 1.0672340464664031E9 ; 1.125496368958965E9 ; 0.0
93 ; 1.183568072648419E7 ; 1.2233656184336595E7 ; 1.0790738029706485E9 ; 1.1377300251433017E9 ; 0.0
94 ; 1.1829504221060103E7 ; 1.2233656184336595E7 ; 1.0909094836971328E9 ; 1.1499636813276384E9 ; 0.0
95 ; 1.182251834325403E7 ; 1.2233656184336595E7 ; 1.1027389879181929E9 ; 1.162197337511975E9 ; 0.0
96 ; 1.1821985448411606E7 ; 1.2233656184336595E7 ; 1.114561506261447E9 ; 1.1744309936963117E9 ; 0.0
97 ; 1.1814147045959564E7 ; 1.2233656184336595E7 ; 1.1263834917098587E9 ; 1.1866646498806484E9 ; 0.0
98 ; 1.1806037693833794E7 ; 1.2233656184336595E7 ; 1.1381976387558181E9 ; 1.198898306064985E9 ; 0.0
99 ; 1.1803729691831954E7 ; 1.2233656184336595E7 ; 1.150003676449652E9 ; 1.2111319622493217E9 ; 0.0
100 ; 1.179380856071412E7 ; 1.2233656184336595E7 ; 1.161807406141484E9 ; 1.2233656184336584E9 ; 0.0
101 ; 1.1790396821953136E7 ; 1.2233656184336595E7 ; 1.173601214702198E9 ; 1.235599274617995E9 ; 0.0
102 ; 1.1783471669524455E7 ; 1.2233656184336595E7 ; 1.185391611524151E9 ; 1.2478329308023317E9 ; 0.0
103 ; 1.1783467490274174E7 ; 1.2233656184336595E7 ; 1.1971750831936755E9 ; 1.2600665869866683E9 ; 0.0
104 ; 1.1774833847268403E7 ; 1.2233656184336595E7 ; 1.2089585506839497E9 ; 1.272300243171005E9 ; 0.0
105 ; 1.176698398160041E7 ; 1.2233656184336595E7 ; 1.220733384531218E9 ; 1.2845338993553417E9 ; 0.0
106 ; 1.1761235242395397E7 ; 1.2233656184336595E7 ; 1.2325003685128186E9 ; 1.2967675555396783E9 ; 0.0
107 ; 1.1755071129553368E7 ; 1.2233656184336595E7 ; 1.244261603755214E9 ; 1.309001211724015E9 ; 0.0
108 ; 1.1748171650841184E7 ; 1.2233656184336595E7 ; 1.2560166748847673E9 ; 1.3212348679083517E9 ; 0.0
109 ; 1.174124831512819E7 ; 1.2233656184336595E7 ; 1.2677648465356085E9 ; 1.3334685240926883E9 ; 0.0
110 ; 1.1737084788234659E7 ; 1.2233656184336595E7 ; 1.2795060948507366E9 ; 1.345702180277025E9 ; 0.0
111 ; 1.172734613282495E7 ; 1.2233656184336595E7 ; 1.2912431796389713E9 ; 1.3579358364613616E9 ; 0.0
112 ; 1.1720692395456212E7 ; 1.2233656184336595E7 ; 1.3029705257717962E9 ; 1.3701694926456983E9 ; 0.0
113 ; 1.1711017538563337E7 ; 1.2233656184336595E7 ; 1.3146912181672525E9 ; 1.382403148830035E9 ; 0.0
114 ; 1.170747940468954E7 ; 1.2233656184336595E7 ; 1.3264022357058158E9 ; 1.3946368050143716E9 ; 0.0
115 ; 1.1698996821321E7 ; 1.2233656184336595E7 ; 1.3381097151105053E9 ; 1.4068704611987083E9 ; 0.0
116 ; 1.1686921525798598E7 ; 1.2233656184336595E7 ; 1.3498087119318264E9 ; 1.419104117383045E9 ; 0.0
117 ; 1.1685470933293223E7 ; 1.2233656184336595E7 ; 1.361495633457625E9 ; 1.4313377735673816E9 ; 0.0
118 ; 1.1677031583573123E7 ; 1.2233656184336595E7 ; 1.3731811043909183E9 ; 1.4435714297517183E9 ; 0.0
119 ; 1.1670272592681227E7 ; 1.2233656184336595E7 ; 1.3848581359744914E9 ; 1.455805085936055E9 ; 0.0
120 ; 1.1658004387447337E7 ; 1.2233656184336595E7 ; 1.3965284085671725E9 ; 1.4680387421203916E9 ; 0.0
121 ; 1.1649243745820459E7 ; 1.2233656184336595E7 ; 1.40818641295462E9 ; 1.4802723983047283E9 ; 0.0
122 ; 1.1642676120156862E7 ; 1.2233656184336595E7 ; 1.4198356567004404E9 ; 1.492506054489065E9 ; 0.0
123 ; 1.163606930142065E7 ; 1.2233656184336595E7 ; 1.4314783328205972E9 ; 1.5047397106734016E9 ; 0.0
124 ; 1.1627944745524034E7 ; 1.2233656184336595E7 ; 1.4431144021220179E9 ; 1.5169733668577383E9 ; 0.0
125 ; 1.1619187469394062E7 ; 1.2233656184336595E7 ; 1.4547423468675418E9 ; 1.529207023042075E9 ; 0.0
126 ; 1.161069252860906E7 ; 1.2233656184336595E7 ; 1.4663615343369358E9 ; 1.5414406792264116E9 ; 0.0
127 ; 1.1604041481972868E7 ; 1.2233656184336595E7 ; 1.4779722268655448E9 ; 1.5536743354107482E9 ; 0.0
128 ; 1.1593794678706389E7 ; 1.2233656184336595E7 ; 1.4895762683475177E9 ; 1.565907991595085E9 ; 0.0
129 ; 1.1583327694553774E7 ; 1.2233656184336595E7 ; 1.5011700630262241E9 ; 1.5781416477794216E9 ; 0.0
130 ; 1.1573042470690934E7 ; 1.2233656184336595E7 ; 1.512753390720778E9 ; 1.5903753039637582E9 ; 0.0
131 ; 1.1561582958168996E7 ; 1.2233656184336595E7 ; 1.524326433191469E9 ; 1.602608960148095E9 ; 0.0
132 ; 1.1549007635576429E7 ; 1.2233656184336595E7 ; 1.535888016149638E9 ; 1.6148426163324316E9 ; 0.0
133 ; 1.1536210776374267E7 ; 1.2233656184336595E7 ; 1.5474370237852144E9 ; 1.6270762725167682E9 ; 0.0
134 ; 1.1525289634773567E7 ; 1.2233656184336595E7 ; 1.5589732345615888E9 ; 1.6393099287011049E9 ; 0.0
135 ; 1.1508732833851209E7 ; 1.2233656184336595E7 ; 1.5704985241963623E9 ; 1.6515435848854415E9 ; 0.0
136 ; 1.149774579383866E7 ; 1.2233656184336595E7 ; 1.5820072570302134E9 ; 1.6637772410697782E9 ; 0.0
137 ; 1.1482959436470525E7 ; 1.2233656184336595E7 ; 1.593505002824052E9 ; 1.6760108972541149E9 ; 0.0
138 ; 1.1466795802349059E7 ; 1.2233656184336595E7 ; 1.6049879622605226E9 ; 1.6882445534384515E9 ; 0.0
139 ; 1.1451584802987313E7 ; 1.2233656184336595E7 ; 1.6164547580628717E9 ; 1.7004782096227882E9 ; 0.0
140 ; 1.1443089096269228E7 ; 1.2233656184336595E7 ; 1.627906342865859E9 ; 1.7127118658071249E9 ; 0.0
141 ; 1.142772896557265E7 ; 1.2233656184336595E7 ; 1.6393494319621282E9 ; 1.7249455219914615E9 ; 0.0
142 ; 1.1415527915501999E7 ; 1.2233656184336595E7 ; 1.6507771609277008E9 ; 1.7371791781757982E9 ; 0.0
143 ; 1.140068978043452E7 ; 1.2233656184336595E7 ; 1.6621926888432028E9 ; 1.7494128343601348E9 ; 0.0
144 ; 1.138717554004546E7 ; 1.2233656184336595E7 ; 1.6735933786236374E9 ; 1.7616464905444715E9 ; 0.0
145 ; 1.1376551028416967E7 ; 1.2233656184336595E7 ; 1.684980554163683E9 ; 1.7738801467288082E9 ; 0.0
146 ; 1.136710667046321E7 ; 1.2233656184336595E7 ; 1.6963571051920998E9 ; 1.7861138029131448E9 ; 0.0
147 ; 1.1357613893332299E7 ; 1.2233656184336595E7 ; 1.7077242118625631E9 ; 1.7983474590974815E9 ; 0.0
148 ; 1.1347798933072543E7 ; 1.2233656184336595E7 ; 1.7190818257558954E9 ; 1.8105811152818182E9 ; 0.0
149 ; 1.1337337890963012E7 ; 1.2233656184336595E7 ; 1.730429624688968E9 ; 1.8228147714661548E9 ; 0.0
150 ; 1.1327077565989647E7 ; 1.2233656184336595E7 ; 1.741766962579931E9 ; 1.8350484276504915E9 ; 0.0
151 ; 1.1318869885278137E7 ; 1.2233656184336595E7 ; 1.7530940401459208E9 ; 1.8472820838348281E9 ; 0.0
152 ; 1.1307266564970965E7 ; 1.2233656184336595E7 ; 1.764412910031199E9 ; 1.8595157400191648E9 ; 0.0
153 ; 1.129774163723904E7 ; 1.2233656184336595E7 ; 1.77572017659617E9 ; 1.8717493962035015E9 ; 0.0
154 ; 1.1287130653353965E7 ; 1.2233656184336595E7 ; 1.787017918233409E9 ; 1.8839830523878381E9 ; 0.0
155 ; 1.127893280400872E7 ; 1.2233656184336595E7 ; 1.7983050488867629E9 ; 1.8962167085721748E9 ; 0.0
156 ; 1.126732332124347E7 ; 1.2233656184336595E7 ; 1.8095839816907716E9 ; 1.9084503647565114E9 ; 0.0
157 ; 1.1258831653289394E7 ; 1.2233656184336595E7 ; 1.820851305012015E9 ; 1.920684020940848E9 ; 0.0
158 ; 1.1248059738310602E7 ; 1.2233656184336595E7 ; 1.8321101366653044E9 ; 1.9329176771251848E9 ; 0.0
159 ; 1.123525586234396E7 ; 1.2233656184336595E7 ; 1.843358196403615E9 ; 1.9451513333095214E9 ; 0.0
160 ; 1.1227515812863357E7 ; 1.2233656184336595E7 ; 1.854593452265959E9 ; 1.957384989493858E9 ; 0.0
161 ; 1.1214026071064027E7 ; 1.2233656184336595E7 ; 1.8658209680788224E9 ; 1.9696186456781948E9 ; 0.0
162 ; 1.1203256483612604E7 ; 1.2233656184336595E7 ; 1.8770349941498864E9 ; 1.9818523018625314E9 ; 0.0
163 ; 1.1195550337691769E7 ; 1.2233656184336595E7 ; 1.888238250633499E9 ; 1.994085958046868E9 ; 0.0
164 ; 1.1184697176001707E7 ; 1.2233656184336595E7 ; 1.8994338009711907E9 ; 2.0063196142312047E9 ; 0.0
165 ; 1.1172443114287622E7 ; 1.2233656184336595E7 ; 1.9106184981471925E9 ; 2.0185532704155414E9 ; 0.0
166 ; 1.1159938452029394E7 ; 1.2233656184336595E7 ; 1.92179094126148E9 ; 2.030786926599878E9 ; 0.0
167 ; 1.1152227790091949E7 ; 1.2233656184336595E7 ; 1.9329508797135096E9 ; 2.0430205827842147E9 ; 0.0
168 ; 1.1140421765796414E7 ; 1.2233656184336595E7 ; 1.9441031075036016E9 ; 2.0552542389685514E9 ; 0.0
169 ; 1.1128665185849953E7 ; 1.2233656184336595E7 ; 1.955243529269398E9 ; 2.067487895152888E9 ; 0.0
170 ; 1.1119166126084747E7 ; 1.2233656184336595E7 ; 1.9663721944552479E9 ; 2.0797215513372247E9 ; 0.0
171 ; 1.110752701292054E7 ; 1.2233656184336595E7 ; 1.9774913605813327E9 ; 2.0919552075215614E9 ; 0.0
172 ; 1.1096184822133297E7 ; 1.2233656184336595E7 ; 1.9885988875942533E9 ; 2.104188863705898E9 ; 0.0
173 ; 1.1087398432248678E7 ; 1.2233656184336595E7 ; 1.9996950724163866E9 ; 2.1164225198902347E9 ; 0.0
174 ; 1.1080406169242552E7 ; 1.2233656184336595E7 ; 2.0107824708486352E9 ; 2.1286561760745714E9 ; 0.0
175 ; 1.1070670952713365E7 ; 1.2233656184336595E7 ; 2.0218628770178778E9 ; 2.140889832258908E9 ; 0.0
176 ; 1.10667953216195E7 ; 1.2233656184336595E7 ; 2.032933547970591E9 ; 2.1531234884432445E9 ; 0.0
177 ; 1.105901911151941E7 ; 1.2233656184336595E7 ; 2.0440003432922106E9 ; 2.165357144627581E9 ; 0.0
178 ; 1.1050888374322249E7 ; 1.2233656184336595E7 ; 2.05505936240373E9 ; 2.177590800811918E9 ; 0.0
179 ; 1.1045433383345952E7 ; 1.2233656184336595E7 ; 2.066110250778052E9 ; 2.1898244569962544E9 ; 0.0
180 ; 1.1038323458416397E7 ; 1.2233656184336595E7 ; 2.077155684161398E9 ; 2.202058113180591E9 ; 0.0
181 ; 1.1032627026996234E7 ; 1.2233656184336595E7 ; 2.0881940076198144E9 ; 2.214291769364928E9 ; 0.0
182 ; 1.1025681298918765E7 ; 1.2233656184336595E7 ; 2.0992266346468105E9 ; 2.2265254255492644E9 ; 0.0
183 ; 1.1018413725541878E7 ; 1.2233656184336595E7 ; 2.1102523159457293E9 ; 2.238759081733601E9 ; 0.0
184 ; 1.1013245276191773E7 ; 1.2233656184336595E7 ; 2.121270729671271E9 ; 2.2509927379179378E9 ; 0.0
185 ; 1.100757793015127E7 ; 1.2233656184336595E7 ; 2.1322839749474628E9 ; 2.2632263941022744E9 ; 0.0
186 ; 1.0998221112920655E7 ; 1.2233656184336595E7 ; 2.143291552877614E9 ; 2.275460050286611E9 ; 0.0
187 ; 1.0991539092176074E7 ; 1.2233656184336595E7 ; 2.154289773990535E9 ; 2.2876937064709477E9 ; 0.0
188 ; 1.0984635119644895E7 ; 1.2233656184336595E7 ; 2.1652813130827107E9 ; 2.2999273626552844E9 ; 0.0
189 ; 1.0980201360354202E7 ; 1.2233656184336595E7 ; 2.176265948202356E9 ; 2.312161018839621E9 ; 0.0
190 ; 1.0973830332838409E7 ; 1.2233656184336595E7 ; 2.1872461495627103E9 ; 2.3243946750239577E9 ; 0.0
191 ; 1.0964779843878834E7 ; 1.2233656184336595E7 ; 2.198219979895549E9 ; 2.3366283312082944E9 ; 0.0
192 ; 1.0961436292134263E7 ; 1.2233656184336595E7 ; 2.2091847597394276E9 ; 2.348861987392631E9 ; 0.0
193 ; 1.095142674727098E7 ; 1.2233656184336595E7 ; 2.220146196031562E9 ; 2.3610956435769677E9 ; 0.0
194 ; 1.0947231476095654E7 ; 1.2233656184336595E7 ; 2.231097622778833E9 ; 2.3733292997613044E9 ; 0.0
195 ; 1.093788161367737E7 ; 1.2233656184336595E7 ; 2.2420448542549286E9 ; 2.385562955945641E9 ; 0.0
196 ; 1.0933844623173216E7 ; 1.2233656184336595E7 ; 2.252982735868606E9 ; 2.3977966121299777E9 ; 0.0
