CSV File for the City 6 on Day 110
1 - Minute m 
2 - Power Consumed at minute m 
3 - Power Produced at minute m 
4 - Energy Consumed since the beginning of the day 
5 - Energy Produced since the beginning of the day 
6 - Energy Lost since the beginning of the day on lines starting from the city
 
0 ; 1.1256394634229576E7 ; 1.0615138525680134E8 ; 0.0 ; 0.0 ; 0.0
1 ; 1.12611012578613E7 ; 1.0630229487077838E8 ; 1.1256394634229576E7 ; 1.0615138525680134E8 ; 0.0
2 ; 1.1277064630348027E7 ; 1.0676219482176635E8 ; 2.2517495892090876E7 ; 2.1245368012757972E8 ; 0.0
3 ; 1.1292939427894548E7 ; 1.0753108860762054E8 ; 3.37945605224389E7 ; 3.1921587494934607E8 ; 0.0
4 ; 1.1306763691443026E7 ; 1.0860897936030471E8 ; 4.5087499950333446E7 ; 4.267469635569666E8 ; 0.0
5 ; 1.1325427836203301E7 ; 1.0999586982946652E8 ; 5.639426364177647E7 ; 5.353559429172713E8 ; 0.0
6 ; 1.135339385562111E7 ; 1.1169176236775711E8 ; 6.771969147797978E7 ; 6.453518127467378E8 ; 0.0
7 ; 1.1391099297047228E7 ; 1.1369665891807711E8 ; 7.90730853336009E7 ; 7.570435751144949E8 ; 0.0
8 ; 1.1445012474816954E7 ; 1.1601056100290805E8 ; 9.046418463064812E7 ; 8.70740234032572E8 ; 0.0
9 ; 1.152347899551871E7 ; 1.1863346971586645E8 ; 1.0190919710546507E8 ; 9.8675079503548E8 ; 0.0
10 ; 1.1649400498439766E7 ; 1.2156538571559054E8 ; 1.1343267610098378E8 ; 1.1053842647513466E9 ; 0.0
11 ; 1.184746230799662E7 ; 1.2480630922203931E8 ; 1.2508207659942356E8 ; 1.226949650466937E9 ; 0.0
12 ; 1.216627975642648E7 ; 1.2835624001525375E8 ; 1.369295389074202E8 ; 1.3517559596889763E9 ; 0.0
13 ; 1.246949483265272E7 ; 1.3221517743659562E8 ; 1.4909581866384667E8 ; 1.48011219970423E9 ; 0.0
14 ; 1.2504509704397812E7 ; 1.3638312039244848E8 ; 1.615653134964994E8 ; 1.6123273771408257E9 ; 0.0
15 ; 1.2522478708062919E7 ; 1.408600673603307E8 ; 1.7406982320089722E8 ; 1.7487104975332742E9 ; 0.0
16 ; 1.2538252185324898E7 ; 1.4564601639734176E8 ; 1.8659230190896013E8 ; 1.8895705648936048E9 ; 0.0
17 ; 1.2550381174851695E7 ; 1.5074096515083042E8 ; 1.9913055409428504E8 ; 2.0352165812909465E9 ; 0.0
18 ; 1.2565883930245029E7 ; 1.5614491087114906E8 ; 2.1168093526913673E8 ; 2.1859575464417768E9 ; 0.0
19 ; 1.258254139728317E7 ; 1.6185785042633393E8 ; 2.2424681919938177E8 ; 2.342102457312926E9 ; 0.0
20 ; 1.2595192605464298E7 ; 1.678797803185297E8 ; 2.3682936059666494E8 ; 2.5039603077392597E9 ; 0.0
21 ; 1.261153457453575E7 ; 1.742106967019619E8 ; 2.4942455320212924E8 ; 2.6718400880577893E9 ; 0.0
22 ; 1.26277987511624E7 ; 1.8085059540224832E8 ; 2.62036087776665E8 ; 2.8460507847597513E9 ; 0.0
23 ; 1.2640976297275815E7 ; 1.8779947193683147E8 ; 2.746638865278274E8 ; 3.0269013801619997E9 ; 0.0
24 ; 1.2654794145166593E7 ; 1.9505732153631115E8 ; 2.873048628251032E8 ; 3.214700852098831E9 ; 0.0
25 ; 1.2669768962163514E7 ; 2.0131218006464046E8 ; 2.999596569702698E8 ; 3.4097581736351423E9 ; 0.0
26 ; 1.2685275654429022E7 ; 2.0131759007849514E8 ; 3.126294259324333E8 ; 3.611070353699783E9 ; 0.0
27 ; 1.2703796980216783E7 ; 2.0132331537490302E8 ; 3.253147015868623E8 ; 3.812387943778278E9 ; 0.0
28 ; 1.2714339986913428E7 ; 2.0132935026079428E8 ; 3.380184985670791E8 ; 4.013711259153181E9 ; 0.0
29 ; 1.2730707614925507E7 ; 2.0133568886888906E8 ; 3.5073283855399257E8 ; 4.2150406094139752E9 ; 0.0
30 ; 1.2747113331321424E7 ; 2.0134232518003228E8 ; 3.634635461689181E8 ; 4.416376298282865E9 ; 0.0
31 ; 1.2757689631142106E7 ; 2.013492530450633E8 ; 3.762106595002395E8 ; 4.617718623462897E9 ; 0.0
32 ; 1.2769766810157305E7 ; 2.0135646620608228E8 ; 3.889683491313816E8 ; 4.81906787650796E9 ; 0.0
33 ; 1.2786830812292453E7 ; 2.01363958316991E8 ; 4.017381159415389E8 ; 5.020424342714043E9 ; 0.0
34 ; 1.2800144466791967E7 ; 2.0137172296320495E8 ; 4.145249467538313E8 ; 5.2217883010310335E9 ; 0.0
35 ; 1.2812137951869186E7 ; 2.0137975368045127E8 ; 4.273250912206233E8 ; 5.423160023994239E9 ; 0.0
36 ; 1.282447378693865E7 ; 2.0138804397258437E8 ; 4.401372291724925E8 ; 5.62453977767469E9 ; 0.0
37 ; 1.28343305084384E7 ; 2.0139658732836714E8 ; 4.529617029594312E8 ; 5.825927821647275E9 ; 0.0
38 ; 1.285058841782801E7 ; 2.0140537723718223E8 ; 4.657960334678696E8 ; 6.027324408975642E9 ; 0.0
39 ; 1.2857214536299687E7 ; 2.014144072036511E8 ; 4.786466218856976E8 ; 6.228729786212825E9 ; 0.0
40 ; 1.2866828322205927E7 ; 2.0142367076115277E8 ; 4.915038364219973E8 ; 6.430144193416476E9 ; 0.0
41 ; 1.287785828801031E7 ; 2.0143316148424494E8 ; 5.043706647442032E8 ; 6.631567864177629E9 ; 0.0
42 ; 1.288860341246282E7 ; 2.014428730000011E8 ; 5.172485230322135E8 ; 6.833001025661875E9 ; 0.0
43 ; 1.2899577481793664E7 ; 2.0145279899828634E8 ; 5.3013712644467634E8 ; 7.034443898661876E9 ; 0.0
44 ; 1.2906887151777998E7 ; 2.0146293324100128E8 ; 5.4303670392647E8 ; 7.235896697660162E9 ; 0.0
45 ; 1.2913461319963127E7 ; 2.014732695703312E8 ; 5.55943591078248E8 ; 7.437359630901163E9 ; 0.0
46 ; 1.2921843457119877E7 ; 2.0148380191604105E8 ; 5.688570523982111E8 ; 7.638832900471495E9 ; 0.0
47 ; 1.2927565047108477E7 ; 2.014945243018627E8 ; 5.81778895855331E8 ; 7.840316702387536E9 ; 0.0
48 ; 1.2935741765094645E7 ; 2.015054308510214E8 ; 5.947064609024395E8 ; 8.041811226689399E9 ; 0.0
49 ; 1.2939704975753075E7 ; 2.015165157909532E8 ; 6.076422026675341E8 ; 8.243316657540421E9 ; 0.0
50 ; 1.2945388514496831E7 ; 2.0152777345726326E8 ; 6.205819076432872E8 ; 8.444833173331374E9 ; 0.0
51 ; 1.2950210647704065E7 ; 2.0153919829697827E8 ; 6.33527296157784E8 ; 8.646360946788637E9 ; 0.0
52 ; 1.2953956382539878E7 ; 2.0155078487114334E8 ; 6.464775068054881E8 ; 8.847900145085615E9 ; 0.0
53 ; 1.2958840260108976E7 ; 2.015625278568151E8 ; 6.59431463188028E8 ; 9.049450929956758E9 ; 0.0
54 ; 1.296354758718124E7 ; 2.0157442204850012E8 ; 6.723903034481369E8 ; 9.251013457813574E9 ; 0.0
55 ; 1.2967440609073475E7 ; 2.0158646235908702E8 ; 6.853538510353181E8 ; 9.452587879862074E9 ; 0.0
56 ; 1.2971069946689509E7 ; 2.0159864382031834E8 ; 6.983212916443917E8 ; 9.65417434222116E9 ; 0.0
57 ; 1.2974983137301609E7 ; 2.0161096158284652E8 ; 7.112923615910811E8 ; 9.85577298604148E9 ; 0.0
58 ; 1.297998492206329E7 ; 2.0162341091591576E8 ; 7.242673447283827E8 ; 1.0057383947624325E10 ; 0.0
59 ; 1.2986363091889624E7 ; 2.016359872067095E8 ; 7.372473296504459E8 ; 1.0259007358540241E10 ; 0.0
60 ; 1.2992760607298227E7 ; 2.016486859594008E8 ; 7.502336927423356E8 ; 1.046064334574695E10 ; 0.0
61 ; 1.2991663810635138E7 ; 2.0166150279394037E8 ; 7.632264533496338E8 ; 1.066229203170635E10 ; 0.0
62 ; 1.299655512302036E7 ; 2.0167443344461456E8 ; 7.762181171602689E8 ; 1.086395353450029E10 ; 0.0
63 ; 1.2999972102509856E7 ; 2.016874737584038E8 ; 7.892146722832893E8 ; 1.1065627967944904E10 ; 0.0
64 ; 1.3002142686081622E7 ; 2.017006196931685E8 ; 8.022146443857992E8 ; 1.1267315441703308E10 ; 0.0
65 ; 1.3006273508064039E7 ; 2.0171386731568876E8 ; 8.152167870718808E8 ; 1.1469016061396477E10 ; 0.0
66 ; 1.3007567894200565E7 ; 2.0172721279958063E8 ; 8.282230605799448E8 ; 1.1670729928712166E10 ; 0.0
67 ; 1.3010090184039118E7 ; 2.0174065242311043E8 ; 8.412306284741454E8 ; 1.1872457141511747E10 ; 0.0
68 ; 1.3016478704242062E7 ; 2.0175418256692672E8 ; 8.542407186581845E8 ; 1.2074197793934858E10 ; 0.0
69 ; 1.3017348478680804E7 ; 2.0176779971172717E8 ; 8.672571973624266E8 ; 1.2275951976501785E10 ; 0.0
70 ; 1.3019992374132322E7 ; 2.0178150043587628E8 ; 8.802745458411075E8 ; 1.2477719776213512E10 ; 0.0
71 ; 1.302255700095378E7 ; 2.0179528141298828E8 ; 8.932945382152398E8 ; 1.267950127664939E10 ; 0.0
72 ; 1.3026048027699674E7 ; 2.018091394094876E8 ; 9.063170952161936E8 ; 1.2881296558062378E10 ; 0.0
73 ; 1.3026477913131867E7 ; 2.018230712821589E8 ; 9.193431432438933E8 ; 1.3083105697471865E10 ; 0.0
74 ; 1.3027397085121965E7 ; 2.0183707397569582E8 ; 9.323696211570251E8 ; 1.3284928768754025E10 ; 0.0
75 ; 1.30337439909905E7 ; 2.0185114452025807E8 ; 9.453970182421471E8 ; 1.3486765842729721E10 ; 0.0
76 ; 1.303744722606036E7 ; 2.018652800290444E8 ; 9.584307622331376E8 ; 1.3688616987249979E10 ; 0.0
77 ; 1.303358864081797E7 ; 2.018794776958881E8 ; 9.71468209459198E8 ; 1.3890482267279024E10 ; 0.0
78 ; 1.3030254963557452E7 ; 2.0189373479288116E8 ; 9.84501798100016E8 ; 1.4092361744974913E10 ; 0.0
79 ; 1.3037419167592833E7 ; 2.019080486680319E8 ; 9.975320530635735E8 ; 1.4294255479767794E10 ; 0.0
80 ; 1.3030195857330168E7 ; 2.019224167429607E8 ; 1.0105694722311664E9 ; 1.4496163528435825E10 ; 0.0
81 ; 1.3028330970388895E7 ; 2.019368365106371E8 ; 1.0235996680884966E9 ; 1.4698085945178785E10 ; 0.0
82 ; 1.3026936156535698E7 ; 2.0195130553316176E8 ; 1.0366279990588855E9 ; 1.4900022781689423E10 ; 0.0
83 ; 1.302259501048641E7 ; 2.0196582143959528E8 ; 1.0496549352154212E9 ; 1.5101974087222584E10 ; 0.0
84 ; 1.3023233685031028E7 ; 2.0198038192383623E8 ; 1.0626775302259076E9 ; 1.530393990866218E10 ; 0.0
85 ; 1.3019552089609154E7 ; 2.0199498474254975E8 ; 1.0757007639109385E9 ; 1.5505920290586016E10 ; 0.0
86 ; 1.301714789062397E7 ; 2.02009627713148E8 ; 1.0887203160005476E9 ; 1.5707915275328566E10 ; 0.0
87 ; 1.3010479881028736E7 ; 2.0202430871182328E8 ; 1.1017374638911717E9 ; 1.5909924903041714E10 ; 0.0
88 ; 1.301264953802016E7 ; 2.0203902567163408E8 ; 1.1147479437722003E9 ; 1.6111949211753536E10 ; 0.0
89 ; 1.3011398653738733E7 ; 2.0205377658064464E8 ; 1.1277605933102205E9 ; 1.631398823742517E10 ; 0.0
90 ; 1.30047467497716E7 ; 2.0206855948011798E8 ; 1.1407719919639592E9 ; 1.6516042014005816E10 ; 0.0
91 ; 1.3003949568239547E7 ; 2.0208337246276173E8 ; 1.1537767387137308E9 ; 1.6718110573485933E10 ; 0.0
92 ; 1.29999021269371E7 ; 2.0209821367102724E8 ; 1.1667806882819703E9 ; 1.6920193945948694E10 ; 0.0
93 ; 1.2996864553271456E7 ; 2.0211308129546037E8 ; 1.1797805904089074E9 ; 1.7122292159619722E10 ; 0.0
94 ; 1.2994880135523433E7 ; 2.021279735731043E8 ; 1.192777454962179E9 ; 1.7324405240915184E10 ; 0.0
95 ; 1.299037938453233E7 ; 2.0214288878595272E8 ; 1.2057723350977023E9 ; 1.752653321448829E10 ; 0.0
96 ; 1.2982531148755852E7 ; 2.0215782525945333E8 ; 1.2187627144822345E9 ; 1.7728676103274242E10 ; 0.0
97 ; 1.298111637520224E7 ; 2.0217278136105976E8 ; 1.2317452456309903E9 ; 1.7930833928533695E10 ; 0.0
98 ; 1.2979690521347549E7 ; 2.0218775549883187E8 ; 1.2447263620061924E9 ; 1.8133006709894756E10 ; 0.0
99 ; 1.2973472708091874E7 ; 2.022027461200825E8 ; 1.25770605252754E9 ; 1.833519446539359E10 ; 0.0
100 ; 1.2969811928767253E7 ; 2.0221775171007E8 ; 1.270679525235632E9 ; 1.853739721151367E10 ; 0.0
101 ; 1.2962538750833414E7 ; 2.0223277079073554E8 ; 1.2836493371643991E9 ; 1.8739614963223743E10 ; 0.0
102 ; 1.2962578366786903E7 ; 2.022478019194834E8 ; 1.2966118759152327E9 ; 1.894184773401448E10 ; 0.0
103 ; 1.2956268999152092E7 ; 2.0226284368800366E8 ; 1.3095744542820196E9 ; 1.9144095535933964E10 ; 0.0
104 ; 1.2951761676238667E7 ; 2.0227789472113582E8 ; 1.3225307232811718E9 ; 1.9346358379621967E10 ; 0.0
105 ; 1.294442961516095E7 ; 2.0229295367577234E8 ; 1.3354824849574106E9 ; 1.95486362743431E10 ; 0.0
106 ; 1.294322806153697E7 ; 2.0230801923980036E8 ; 1.3484269145725715E9 ; 1.9750929228018875E10 ; 0.0
107 ; 1.2941656817445586E7 ; 2.0232309013108125E8 ; 1.3613701426341085E9 ; 1.9953237247258675E10 ; 0.0
108 ; 1.2934689735013617E7 ; 2.023381650964662E8 ; 1.374311799451554E9 ; 2.0155560337389755E10 ; 0.0
109 ; 1.2929074822549995E7 ; 2.023532429108468E8 ; 1.3872464891865678E9 ; 2.035789850248622E10 ; 0.0
110 ; 1.2920633766352044E7 ; 2.023683223762396E8 ; 1.4001755640091178E9 ; 2.0560251745397068E10 ; 0.0
111 ; 1.2916603242168384E7 ; 2.023834023209035E8 ; 1.4130961977754698E9 ; 2.0762620067773308E10 ; 0.0
112 ; 1.2912984274229813E7 ; 2.0239848159848878E8 ; 1.4260128010176382E9 ; 2.096500347009421E10 ; 0.0
113 ; 1.2901704140114367E7 ; 2.0241355908721665E8 ; 1.438925785291868E9 ; 2.11674019516927E10 ; 0.0
114 ; 1.2902541906571537E7 ; 2.024286336890885E8 ; 1.4518274894319823E9 ; 2.1369815510779915E10 ; 0.0
115 ; 1.2896308624149313E7 ; 2.0244370432912368E8 ; 1.464730031338554E9 ; 2.1572244144469E10 ; 0.0
116 ; 1.288899984446678E7 ; 2.0245876995462462E8 ; 1.4776263399627032E9 ; 2.1774687848798126E10 ; 0.0
117 ; 1.2883084369443027E7 ; 2.0247382953446868E8 ; 1.49051533980717E9 ; 2.197714661875275E10 ; 0.0
118 ; 1.2873628380394945E7 ; 2.0248888205842555E8 ; 1.5033984241766129E9 ; 2.217962044828722E10 ; 0.0
119 ; 1.2868061781175558E7 ; 2.0250392653649926E8 ; 1.5162720525570078E9 ; 2.2382109330345646E10 ; 0.0
120 ; 1.2866487095448736E7 ; 2.0251896199829414E8 ; 1.5291401143381834E9 ; 2.2584613256882145E10 ; 0.0
121 ; 1.2859521236009223E7 ; 2.025339874924035E8 ; 1.5420066014336321E9 ; 2.278713221888044E10 ; 0.0
122 ; 1.2848497249806013E7 ; 2.0254900208582067E8 ; 1.5548661226696413E9 ; 2.2989666206372845E10 ; 0.0
123 ; 1.2843893593864877E7 ; 2.0256400486337095E8 ; 1.5677146199194472E9 ; 2.3192215208458664E10 ; 0.0
124 ; 1.2837068747927614E7 ; 2.0257899492716444E8 ; 1.580558513513312E9 ; 2.3394779213322037E10 ; 0.0
125 ; 1.2830274729889812E7 ; 2.0259397139606833E8 ; 1.5933955822612398E9 ; 2.3597358208249203E10 ; 0.0
126 ; 1.2823287796537627E7 ; 2.026089334051984E8 ; 1.6062258569911296E9 ; 2.379995217964527E10 ; 0.0
127 ; 1.2818280450461341E7 ; 2.0262388010542858E8 ; 1.6190491447876673E9 ; 2.400256111305047E10 ; 0.0
128 ; 1.2810469595136153E7 ; 2.026388106629185E8 ; 1.6318674252381287E9 ; 2.4205184993155895E10 ; 0.0
129 ; 1.2799794781418182E7 ; 2.0265372425865754E8 ; 1.6446778948332648E9 ; 2.4407823803818813E10 ; 0.0
130 ; 1.2794977204907889E7 ; 2.0266862008802557E8 ; 1.657477689614683E9 ; 2.4610477528077473E10 ; 0.0
131 ; 1.2780341719029306E7 ; 2.026834973603693E8 ; 1.6702726668195908E9 ; 2.4813146148165497E10 ; 0.0
132 ; 1.2768334199952511E7 ; 2.026983552985937E8 ; 1.68305300853862E9 ; 2.5015829645525867E10 ; 0.0
133 ; 1.2760435510836657E7 ; 2.0271319313876808E8 ; 1.6958213427385726E9 ; 2.5218528000824463E10 ; 0.0
134 ; 1.2750474912978344E7 ; 2.0272801012974605E8 ; 1.7085817782494092E9 ; 2.542124119396323E10 ; 0.0
135 ; 1.2735877088376956E7 ; 2.0274280553279924E8 ; 1.7213322531623876E9 ; 2.5623969204092976E10 ; 0.0
136 ; 1.2724842313810103E7 ; 2.027575786212636E8 ; 1.7340681302507646E9 ; 2.5826712009625774E10 ; 0.0
137 ; 1.2712495662654422E7 ; 2.0277232868019864E8 ; 1.7467929725645747E9 ; 2.602946958824704E10 ; 0.0
138 ; 1.270081286998615E7 ; 2.0278705500605837E8 ; 1.759505468227229E9 ; 2.623224191692724E10 ; 0.0
139 ; 1.2687907943663614E7 ; 2.0280175690637392E8 ; 1.7722062810972152E9 ; 2.6435028971933296E10 ; 0.0
140 ; 1.2675301310919218E7 ; 2.0281643369944748E8 ; 1.7848941890408788E9 ; 2.663783072883967E10 ; 0.0
141 ; 1.2666229359561883E7 ; 2.0283108471405667E8 ; 1.797569490351798E9 ; 2.6840647162539116E10 ; 0.0
142 ; 1.2652087527767736E7 ; 2.028457092891694E8 ; 1.81023571971136E9 ; 2.7043478247253174E10 ; 0.0
143 ; 1.2636955922291698E7 ; 2.028603067736688E8 ; 1.8228878072391276E9 ; 2.7246323956542343E10 ; 0.0
144 ; 1.2624475107438108E7 ; 2.028748765260874E8 ; 1.8355247631614194E9 ; 2.7449184263316013E10 ; 0.0
145 ; 1.2621506359445475E7 ; 2.028894179143509E8 ; 1.8481492382688575E9 ; 2.7652059139842102E10 ; 0.0
146 ; 1.2614633969956806E7 ; 2.0290393031553048E8 ; 1.860770744628303E9 ; 2.7854948557756454E10 ; 0.0
147 ; 1.2605589041162431E7 ; 2.0291841311560386E8 ; 1.87338537859826E9 ; 2.8057852488071983E10 ; 0.0
148 ; 1.2596908608097771E7 ; 2.0293286570922458E8 ; 1.8859909676394224E9 ; 2.8260770901187588E10 ; 0.0
149 ; 1.2588705137900664E7 ; 2.0294728749949905E8 ; 1.8985878762475202E9 ; 2.8463703766896812E10 ; 0.0
150 ; 1.2579924221392192E7 ; 2.0296167789777148E8 ; 1.9111765813854208E9 ; 2.8666651054396313E10 ; 0.0
151 ; 1.2571499368131045E7 ; 2.029760363234159E8 ; 1.923756505606813E9 ; 2.8869612732294083E10 ; 0.0
152 ; 1.2561355181329492E7 ; 2.0299036220363545E8 ; 1.936328004974944E9 ; 2.90725887686175E10 ; 0.0
153 ; 1.255650308377751E7 ; 2.030046549732684E8 ; 1.9488893601562736E9 ; 2.9275579130821136E10 ; 0.0
154 ; 1.254604969939259E7 ; 2.030189140746007E8 ; 1.961445863240051E9 ; 2.9478583785794403E10 ; 0.0
155 ; 1.253765601868768E7 ; 2.0303313895718512E8 ; 1.9739919129394436E9 ; 2.9681602699869003E10 ; 0.0
156 ; 1.2529587801176947E7 ; 2.0304732907766607E8 ; 1.9865295689581313E9 ; 2.9884635838826187E10 ; 0.0
157 ; 1.2510712843406206E7 ; 2.030614838996107E8 ; 1.9990591567593083E9 ; 3.0087683167903854E10 ; 0.0
158 ; 1.2486641636499409E7 ; 2.030756028933453E8 ; 2.0115698696027145E9 ; 3.0290744651803467E10 ; 0.0
159 ; 1.2458606327239105E7 ; 2.030896855357976E8 ; 2.024056511239214E9 ; 3.049382025469681E10 ; 0.0
160 ; 1.2435043198153062E7 ; 2.031037313103439E8 ; 2.036515117566453E9 ; 3.069690994023261E10 ; 0.0
161 ; 1.2406869792614866E7 ; 2.0311773970666146E8 ; 2.048950160764606E9 ; 3.0900013671542953E10 ; 0.0
162 ; 1.2386749980060747E7 ; 2.0313171022058594E8 ; 2.061357030557221E9 ; 3.1103131411249615E10 ; 0.0
163 ; 1.2360333997922897E7 ; 2.0314564235397327E8 ; 2.0737437805372818E9 ; 3.13062631214702E10 ; 0.0
164 ; 1.2330838783169815E7 ; 2.0315953561456618E8 ; 2.0861041145352046E9 ; 3.1509408763824173E10 ; 0.0
165 ; 1.2310427143516466E7 ; 2.0317338951586524E8 ; 2.0984349533183744E9 ; 3.171256829943874E10 ; 0.0
166 ; 1.227904058094134E7 ; 2.0318720357700393E8 ; 2.110745380461891E9 ; 3.1915741688954605E10 ; 0.0
167 ; 1.225192680559895E7 ; 2.0320097732262796E8 ; 2.1230244210428324E9 ; 3.211892889253161E10 ; 0.0
168 ; 1.2235103528640999E7 ; 2.0321471028277844E8 ; 2.1352763478484313E9 ; 3.2322129869854237E10 ; 0.0
169 ; 1.2199807481690908E7 ; 2.0322840199277884E8 ; 2.1475114513770723E9 ; 3.2525344580137016E10 ; 0.0
170 ; 1.2178627336909454E7 ; 2.0324205199312562E8 ; 2.159711258858763E9 ; 3.2728572982129795E10 ; 0.0
171 ; 1.2153631035686426E7 ; 2.0325565982938254E8 ; 2.1718898861956725E9 ; 3.293181503412292E10 ; 0.0
172 ; 1.2129389047214156E7 ; 2.032692250520781E8 ; 2.184043517231359E9 ; 3.3135070693952305E10 ; 0.0
173 ; 1.2102137384098556E7 ; 2.032827472166065E8 ; 2.196172906278573E9 ; 3.3338339919004383E10 ; 0.0
174 ; 1.2077505516795952E7 ; 2.032962258831318E8 ; 2.2082750436626716E9 ; 3.354162266622099E10 ; 0.0
175 ; 1.2058930691210177E7 ; 2.0330966061649495E8 ; 2.2203525491794677E9 ; 3.3744918892104122E10 ; 0.0
176 ; 1.2034580327702297E7 ; 2.0332305098612395E8 ; 2.232411479870678E9 ; 3.3948228552720615E10 ; 0.0
177 ; 1.2011479608904341E7 ; 2.0333639656594682E8 ; 2.2444460601983805E9 ; 3.4151551603706738E10 ; 0.0
178 ; 1.199418036608744E7 ; 2.0334969693430737E8 ; 2.256457539807285E9 ; 3.4354888000272686E10 ; 0.0
179 ; 1.1969743932646817E7 ; 2.033629516738836E8 ; 2.2684517201733723E9 ; 3.455823769720699E10 ; 0.0
180 ; 1.1948837600290496E7 ; 2.033761603716086E8 ; 2.280421464106019E9 ; 3.4761600648880875E10 ; 0.0
181 ; 1.1922543944611192E7 ; 2.0338932261859417E8 ; 2.2923703017063093E9 ; 3.496497680925248E10 ; 0.0
182 ; 1.1905904103697391E7 ; 2.034024380100567E8 ; 2.3042928456509204E9 ; 3.516836613187107E10 ; 0.0
183 ; 1.188033332359191E7 ; 2.034155061452452E8 ; 2.3161987497546177E9 ; 3.537176856988113E10 ; 0.0
184 ; 1.1859059196302775E7 ; 2.03428526627372E8 ; 2.3280790830782094E9 ; 3.5575184076026375E10 ; 0.0
185 ; 1.1830754053722652E7 ; 2.0344149906354526E8 ; 2.3399381422745123E9 ; 3.577861260265375E10 ; 0.0
186 ; 1.181269051941797E7 ; 2.0345442306470373E8 ; 2.351768896328235E9 ; 3.598205410171729E10 ; 0.0
187 ; 1.1790909758014526E7 ; 2.0346729824555346E8 ; 2.363581586847653E9 ; 3.6185508524782E10 ; 0.0
188 ; 1.1766542636107914E7 ; 2.034801242245067E8 ; 2.3753724966056676E9 ; 3.638897582302755E10 ; 0.0
189 ; 1.1747724044896146E7 ; 2.034929006236223E8 ; 2.3871390392417755E9 ; 3.659245594725206E10 ; 0.0
190 ; 1.1723519884589305E7 ; 2.0350562706854826E8 ; 2.3988867632866716E9 ; 3.679594884787568E10 ; 0.0
191 ; 1.169968883007891E7 ; 2.0351830318846613E8 ; 2.410610283171261E9 ; 3.699945447494423E10 ; 0.0
192 ; 1.167748020245796E7 ; 2.0353092861603665E8 ; 2.42230997200134E9 ; 3.72029727781327E10 ; 0.0
193 ; 1.165413263681872E7 ; 2.0354350298734757E8 ; 2.433987452203798E9 ; 3.740650370674873E10 ; 0.0
194 ; 1.163393027401746E7 ; 2.0355602594186288E8 ; 2.4456415848406167E9 ; 3.7610047209736084E10 ; 0.0
195 ; 1.1607087979196046E7 ; 2.0356849712237337E8 ; 2.457275515114634E9 ; 3.781360323567795E10 ; 0.0
