CSV File for the City 6 on Day 278
1 - Minute m 
2 - Power Consumed at minute m 
3 - Power Produced at minute m 
4 - Energy Consumed since the beginning of the day 
5 - Energy Produced since the beginning of the day 
6 - Energy Lost since the beginning of the day on lines starting from the city
 
0 ; 6249047.219135056 ; 1.0640297299377051E8 ; 0.0 ; 0.0 ; 0.0
1 ; 6251267.30596234 ; 1.0655385089324433E8 ; 6249047.219135056 ; 1.0640297299377051E8 ; 0.0
2 ; 6258299.321597001 ; 1.0701372435550115E8 ; 1.2500314525097396E7 ; 2.1295682388701484E8 ; 0.0
3 ; 6265271.844862738 ; 1.0778259627593565E8 ; 1.8758613846694395E7 ; 3.19970548242516E8 ; 0.0
4 ; 6274456.864623887 ; 1.0886046923960763E8 ; 2.502388569155713E7 ; 4.2775314451845163E8 ; 0.0
5 ; 6290590.141347971 ; 1.1024734551024449E8 ; 3.129834255618102E7 ; 5.3661361375805926E8 ; 0.0
6 ; 6310107.784776028 ; 1.1194322702047083E8 ; 3.758893269752899E7 ; 6.468609592683038E8 ; 0.0
7 ; 6341823.49544151 ; 1.1394811536336404E8 ; 4.389904048230502E7 ; 7.588041862887746E8 ; 0.0
8 ; 6389789.566216012 ; 1.1626201178542155E8 ; 5.024086397774653E7 ; 8.727523016521387E8 ; 0.0
9 ; 6460986.372653631 ; 1.1888491718101281E8 ; 5.6630653543962546E7 ; 9.890143134375603E8 ; 0.0
10 ; 6580922.726929947 ; 1.218168320883736E8 ; 6.309163991661618E7 ; 1.1078992306185732E9 ; 0.0
11 ; 6773592.603255542 ; 1.2505775668718567E8 ; 6.967256264354612E7 ; 1.2297160627069468E9 ; 0.0
12 ; 7082455.362833077 ; 1.2860769079776725E8 ; 7.644615524680166E7 ; 1.3547738193941326E9 ; 0.0
13 ; 7385577.523005398 ; 1.3246663388188255E8 ; 8.352861060963474E7 ; 1.4833815101918998E9 ; 0.0
14 ; 7415748.5822930625 ; 1.366345850451622E8 ; 9.091418813264014E7 ; 1.6158481440737824E9 ; 0.0
15 ; 7426863.055553261 ; 1.4111154304110867E8 ; 9.83299367149332E7 ; 1.7524827291189446E9 ; 0.0
16 ; 7434560.682829779 ; 1.4589750627664468E8 ; 1.0575679977048646E8 ; 1.8935942721600533E9 ; 0.0
17 ; 7442806.248609944 ; 1.5099247281914553E8 ; 1.1319136045331624E8 ; 2.039491778436698E9 ; 0.0
18 ; 7449392.300459758 ; 1.5639644040488386E8 ; 1.2063416670192619E8 ; 2.1904842512558436E9 ; 0.0
19 ; 7458137.225731061 ; 1.6210940644879988E8 ; 1.2808355900238594E8 ; 2.3468806916607275E9 ; 0.0
20 ; 7472809.786065084 ; 1.6813136805549887E8 ; 1.3554169622811702E8 ; 2.5089900981095276E9 ; 0.0
21 ; 7480374.762943665 ; 1.744623220313687E8 ; 1.430145060141821E8 ; 2.6771214661650267E9 ; 0.0
22 ; 7487204.459947019 ; 1.811022648977003E8 ; 1.5049488077712575E8 ; 2.8515837881963954E9 ; 0.0
23 ; 7495686.544361434 ; 1.8805119290468967E8 ; 1.5798208523707277E8 ; 3.0326860530940957E9 ; 0.0
24 ; 7506844.63966312 ; 1.9530910204619282E8 ; 1.654777717814342E8 ; 3.2207372459987855E9 ; 0.0
25 ; 7514305.755043131 ; 2.0156402897329044E8 ; 1.7298461642109734E8 ; 3.416046348044978E9 ; 0.0
26 ; 7523822.800638493 ; 2.01569517047059E8 ; 1.8049892217614046E8 ; 3.6176103770182686E9 ; 0.0
27 ; 7531896.205993454 ; 2.0157533087971723E8 ; 1.8802274497677895E8 ; 3.8191798940653276E9 ; 0.0
28 ; 7543475.374036327 ; 2.0158146559788302E8 ; 1.955546411827724E8 ; 4.020755224945045E9 ; 0.0
29 ; 7550644.780571728 ; 2.01587916152424E8 ; 2.030981165568087E8 ; 4.222336690542928E9 ; 0.0
30 ; 7557856.950658243 ; 2.0159467733506918E8 ; 2.1064876133738044E8 ; 4.423924606695353E9 ; 0.0
31 ; 7568378.702098509 ; 2.0160174379491782E8 ; 2.1820661828803867E8 ; 4.625519284030422E9 ; 0.0
32 ; 7575053.1449565645 ; 2.0160911005474588E8 ; 2.257749969901372E8 ; 4.82712102782534E9 ; 0.0
33 ; 7582439.244236606 ; 2.016167705270176E8 ; 2.3335005013509375E8 ; 5.028730137880086E9 ; 0.0
34 ; 7588867.602759245 ; 2.0162471952951992E8 ; 2.4093248937933037E8 ; 5.230346908407104E9 ; 0.0
35 ; 7596208.166968549 ; 2.0163295130054533E8 ; 2.485213569820896E8 ; 5.431971627936624E9 ; 0.0
36 ; 7601368.218159924 ; 2.0164146001356E8 ; 2.5611756514905816E8 ; 5.633604579237169E9 ; 0.0
37 ; 7609391.740267699 ; 2.0165023979130152E8 ; 2.6371893336721808E8 ; 5.83524603925073E9 ; 0.0
38 ; 7614273.468143593 ; 2.0165928471926153E8 ; 2.713283251074858E8 ; 6.036896279042031E9 ; 0.0
39 ; 7620629.506187042 ; 2.016685888585162E8 ; 2.7894259857562935E8 ; 6.238555563761292E9 ; 0.0
40 ; 7622759.405019496 ; 2.0167814625787675E8 ; 2.865632280818164E8 ; 6.440224152619808E9 ; 0.0
41 ; 7630217.455728127 ; 2.016879509653402E8 ; 2.941859874868359E8 ; 6.641902298877685E9 ; 0.0
42 ; 7629431.576699181 ; 2.0169799703882727E8 ; 3.01816204942564E8 ; 6.843590249843025E9 ; 0.0
43 ; 7636329.510888248 ; 2.0170827855620277E8 ; 3.094456365192632E8 ; 7.045288246881852E9 ; 0.0
44 ; 7639507.402745518 ; 2.0171878962457824E8 ; 3.170819660301514E8 ; 7.246996525438055E9 ; 0.0
45 ; 7639971.789691276 ; 2.0172952438890344E8 ; 3.24721473432897E8 ; 7.4487153150626335E9 ; 0.0
46 ; 7642770.049752897 ; 2.0174047703985795E8 ; 3.3236144522258824E8 ; 7.650444839451537E9 ; 0.0
47 ; 7644482.200476498 ; 2.0175164182105827E8 ; 3.4000421527234113E8 ; 7.852185316491395E9 ; 0.0
48 ; 7641081.939904765 ; 2.017630130355991E8 ; 3.4764869747281766E8 ; 8.053936958312453E9 ; 0.0
49 ; 7647305.289283299 ; 2.01774585051952E8 ; 3.552897794127224E8 ; 8.255699971348052E9 ; 0.0
50 ; 7643503.843979853 ; 2.01786352309245E8 ; 3.629370847020057E8 ; 8.457474556400004E9 ; 0.0
51 ; 7646752.130005388 ; 2.0179830932195055E8 ; 3.705805885459855E8 ; 8.65926090870925E9 ; 0.0
52 ; 7643260.897817013 ; 2.0181045068401015E8 ; 3.782273406759909E8 ; 8.8610592180312E9 ; 0.0
53 ; 7642770.491425245 ; 2.0182277107242405E8 ; 3.858706015738079E8 ; 9.06286966871521E9 ; 0.0
54 ; 7640784.040691559 ; 2.0183526525033697E8 ; 3.935133720652331E8 ; 9.264692439787634E9 ; 0.0
55 ; 7641460.512592619 ; 2.018479280696494E8 ; 4.0115415610592467E8 ; 9.466527705037971E9 ; 0.0
56 ; 7638350.802007743 ; 2.0186075447318497E8 ; 4.087956166185173E8 ; 9.66837563310762E9 ; 0.0
57 ; 7635182.188990494 ; 2.0187373949644393E8 ; 4.16433967420525E8 ; 9.870236387580805E9 ; 0.0
58 ; 7640189.830794494 ; 2.0188687826897198E8 ; 4.240691496095155E8 ; 1.007211012707725E10 ; 0.0
59 ; 7634211.013941551 ; 2.0190016601537356E8 ; 4.3170933944031E8 ; 1.0273997005346222E10 ; 0.0
60 ; 7632411.104012758 ; 2.0191359805599716E8 ; 4.393435504542515E8 ; 1.0475897171361595E10 ; 0.0
61 ; 7629859.617221842 ; 2.0192716980732012E8 ; 4.4697596155826426E8 ; 1.0677810769417593E10 ; 0.0
62 ; 7628772.922608004 ; 2.0194087678205824E8 ; 4.546058211754861E8 ; 1.0879737939224913E10 ; 0.0
63 ; 7630010.566502268 ; 2.019547145890254E8 ; 4.622345940980941E8 ; 1.1081678816006971E10 ; 0.0
64 ; 7625846.17328534 ; 2.019686789327665E8 ; 4.698646046645964E8 ; 1.1283633530595997E10 ; 0.0
65 ; 7620775.549568827 ; 2.0198276561298582E8 ; 4.7749045083788174E8 ; 1.1485602209528763E10 ; 0.0
66 ; 7620417.030975362 ; 2.0199697052379248E8 ; 4.851112263874506E8 ; 1.1687584975141748E10 ; 0.0
67 ; 7617271.238345699 ; 2.0201128965278164E8 ; 4.927316434184259E8 ; 1.188958194566554E10 ; 0.0
68 ; 7613172.52369429 ; 2.0202571907997134E8 ; 5.003489146567716E8 ; 1.2091593235318323E10 ; 0.0
69 ; 7612851.447685316 ; 2.0204025497661096E8 ; 5.079620871804659E8 ; 1.2293618954398294E10 ; 0.0
70 ; 7615359.346608294 ; 2.0205489360387814E8 ; 5.155749386281512E8 ; 1.2495659209374905E10 ; 0.0
71 ; 7609017.80474813 ; 2.0206963131147888E8 ; 5.2319029797475946E8 ; 1.2697714102978783E10 ; 0.0
72 ; 7605141.764338995 ; 2.0208446453616458E8 ; 5.307993157795076E8 ; 1.2899783734290262E10 ; 0.0
73 ; 7601806.81365828 ; 2.0209938980017865E8 ; 5.384044575438466E8 ; 1.3101868198826427E10 ; 0.0
74 ; 7601191.945552562 ; 2.0211440370964444E8 ; 5.460062643575048E8 ; 1.3303967588626606E10 ; 0.0
75 ; 7598176.636152448 ; 2.021295029529054E8 ; 5.536074563030574E8 ; 1.350608199233625E10 ; 0.0
76 ; 7593035.30876349 ; 2.021446842988265E8 ; 5.612056329392099E8 ; 1.3708211495289156E10 ; 0.0
77 ; 7590960.036325676 ; 2.0215994459506702E8 ; 5.687986682479734E8 ; 1.3910356179587982E10 ; 0.0
78 ; 7585289.544956639 ; 2.021752807663315E8 ; 5.763896282842991E8 ; 1.4112516124183048E10 ; 0.0
79 ; 7575870.422525017 ; 2.02190689812607E8 ; 5.839749178292558E8 ; 1.4314691404949379E10 ; 0.0
80 ; 7571700.492543641 ; 2.022061688073929E8 ; 5.915507882517809E8 ; 1.4516882094761986E10 ; 0.0
81 ; 7563745.533908211 ; 2.022217148959294E8 ; 5.991224887443246E8 ; 1.4719088263569378E10 ; 0.0
82 ; 7557534.224491493 ; 2.0223732529342955E8 ; 6.066862342782328E8 ; 1.4921309978465307E10 ; 0.0
83 ; 7548284.107486375 ; 2.0225299728332007E8 ; 6.142437685027243E8 ; 1.5123547303758738E10 ; 0.0
84 ; 7538549.043511193 ; 2.022687282154948E8 ; 6.217920526102107E8 ; 1.5325800301042057E10 ; 0.0
85 ; 7531761.050422352 ; 2.022845155045845E8 ; 6.293306016537218E8 ; 1.5528069029257551E10 ; 0.0
86 ; 7522036.360223204 ; 2.0230035662824628E8 ; 6.368623627041441E8 ; 1.5730353544762136E10 ; 0.0
87 ; 7515276.908874175 ; 2.0231624912547562E8 ; 6.443843990643673E8 ; 1.5932653901390383E10 ; 0.0
88 ; 7508264.051815132 ; 2.0233219059494308E8 ; 6.518996759732414E8 ; 1.6134970150515858E10 ; 0.0
89 ; 7499299.167209887 ; 2.0234817869335806E8 ; 6.594079400250566E8 ; 1.6337302341110802E10 ; 0.0
90 ; 7491744.042835316 ; 2.023642111338614E8 ; 6.669072391922665E8 ; 1.653965051980416E10 ; 0.0
91 ; 7485311.4676051345 ; 2.02380285684448E8 ; 6.743989832351018E8 ; 1.674201473093802E10 ; 0.0
92 ; 7476640.691520055 ; 2.023964001664211E8 ; 6.818842947027069E8 ; 1.6944395016622469E10 ; 0.0
93 ; 7470161.461621552 ; 2.0241255245287886E8 ; 6.89360935394227E8 ; 1.714679141678889E10 ; 0.0
94 ; 7454912.691718838 ; 2.024287404672343E8 ; 6.968310968558486E8 ; 1.7349203969241768E10 ; 0.0
95 ; 7450704.982527457 ; 2.0244496218176895E8 ; 7.042860095475674E8 ; 1.7551632709709003E10 ; 0.0
96 ; 7440126.96288121 ; 2.0246121561622047E8 ; 7.117367145300949E8 ; 1.7754077671890774E10 ; 0.0
97 ; 7433175.264548384 ; 2.0247749883640543E8 ; 7.191768414929761E8 ; 1.7956538887506996E10 ; 0.0
98 ; 7421124.415661414 ; 2.0249380995287576E8 ; 7.266100167575245E8 ; 1.8159016386343403E10 ; 0.0
99 ; 7413118.663648126 ; 2.0251014711961058E8 ; 7.34031141173186E8 ; 1.836151019629628E10 ; 0.0
100 ; 7406853.641773688 ; 2.0252650853274202E8 ; 7.414442598368341E8 ; 1.856402034341589E10 ; 0.0
101 ; 7393059.64481472 ; 2.0254289242931554E8 ; 7.488511134786078E8 ; 1.876654685194863E10 ; 0.0
102 ; 7384363.919799378 ; 2.02559297086084E8 ; 7.562441731234225E8 ; 1.8969089744377945E10 ; 0.0
103 ; 7375632.97055089 ; 2.0257572081833568E8 ; 7.636285370432218E8 ; 1.9171649041464027E10 ; 0.0
104 ; 7364208.450464238 ; 2.0259216197875512E8 ; 7.710041700137727E8 ; 1.9374224762282364E10 ; 0.0
105 ; 7358327.084756067 ; 2.0260861895631692E8 ; 7.78368378464237E8 ; 1.957681692426112E10 ; 0.0
106 ; 7346496.271216541 ; 2.0262509017521164E8 ; 7.85726705548993E8 ; 1.9779425543217438E10 ; 0.0
107 ; 7337771.600661964 ; 2.026415740938033E8 ; 7.930732018202095E8 ; 1.998205063339265E10 ; 0.0
108 ; 7327329.767621227 ; 2.026580692036178E8 ; 8.004109734208715E8 ; 2.0184692207486454E10 ; 0.0
109 ; 7316655.7296898095 ; 2.0267457402836204E8 ; 8.077383031884928E8 ; 2.038735027669007E10 ; 0.0
110 ; 7308293.322769923 ; 2.0269108712297225E8 ; 8.150549589181826E8 ; 2.0590024850718433E10 ; 0.0
111 ; 7298651.064342644 ; 2.0270760707269207E8 ; 8.223632522409525E8 ; 2.0792715937841404E10 ; 0.0
112 ; 7287327.262517662 ; 2.0272413249217823E8 ; 8.296619033052951E8 ; 2.0995423544914097E10 ; 0.0
113 ; 7277667.668311966 ; 2.0274066202463478E8 ; 8.369492305678128E8 ; 2.1198147677406277E10 ; 0.0
114 ; 7265827.492301642 ; 2.027571943409736E8 ; 8.442268982361248E8 ; 2.1400888339430912E10 ; 0.0
115 ; 7254270.215581287 ; 2.0277372813900158E8 ; 8.514927257284263E8 ; 2.1603645533771885E10 ; 0.0
116 ; 7244084.811817325 ; 2.027902621426336E8 ; 8.587469959440076E8 ; 2.1806419261910885E10 ; 0.0
117 ; 7234309.434126177 ; 2.0280679510112995E8 ; 8.659910807558249E8 ; 2.200920952405352E10 ; 0.0
118 ; 7222585.894282401 ; 2.0282332578835833E8 ; 8.732253901899511E8 ; 2.221201631915465E10 ; 0.0
119 ; 7211633.287592654 ; 2.0283985300207943E8 ; 8.804479760842335E8 ; 2.241483964494301E10 ; 0.0
120 ; 7200596.938547361 ; 2.0285637556325513E8 ; 8.876596093718262E8 ; 2.2617679497945087E10 ; 0.0
121 ; 7188349.803552662 ; 2.028728923153792E8 ; 8.948602063103735E8 ; 2.2820535873508343E10 ; 0.0
122 ; 7179047.531095469 ; 2.028894021238293E8 ; 9.020485561139262E8 ; 2.3023408765823723E10 ; 0.0
123 ; 7167505.824841068 ; 2.0290590387524012E8 ; 9.092276036450217E8 ; 2.322629816794755E10 ; 0.0
124 ; 7156105.797275809 ; 2.0292239647689658E8 ; 9.163951094698627E8 ; 2.3429204071822792E10 ; 0.0
125 ; 7144417.011545221 ; 2.029388788561469E8 ; 9.235512152671385E8 ; 2.363212646829969E10 ; 0.0
126 ; 7132687.362727315 ; 2.0295534995983452E8 ; 9.306956322786837E8 ; 2.3835065347155838E10 ; 0.0
127 ; 7122207.401657433 ; 2.029718087537486E8 ; 9.37828319641411E8 ; 2.4038020697115673E10 ; 0.0
128 ; 7110003.4232578175 ; 2.029882542220923E8 ; 9.449505270430684E8 ; 2.4240992505869423E10 ; 0.0
129 ; 7098048.707491314 ; 2.0300468536696845E8 ; 9.520605304663262E8 ; 2.4443980760091515E10 ; 0.0
130 ; 7080435.4532015305 ; 2.0302110120788187E8 ; 9.591585791738175E8 ; 2.4646985445458485E10 ; 0.0
131 ; 7066640.739945935 ; 2.03037500781258E8 ; 9.66239014627019E8 ; 2.4850006546666367E10 ; 0.0
132 ; 7052727.846586033 ; 2.030538831399771E8 ; 9.733056553669649E8 ; 2.5053044047447624E10 ; 0.0
133 ; 7036708.326378295 ; 2.0307024735292378E8 ; 9.803583832135509E8 ; 2.52560979305876E10 ; 0.0
134 ; 7018619.176804458 ; 2.0308659250455105E8 ; 9.873950915399293E8 ; 2.5459168177940525E10 ; 0.0
135 ; 7004041.50644117 ; 2.0310291769445866E8 ; 9.944137107167337E8 ; 2.5662254770445076E10 ; 0.0
136 ; 6987854.03490759 ; 2.031192220369851E8 ; 1.0014177522231748E9 ; 2.5865357688139534E10 ; 0.0
137 ; 6971436.923336554 ; 2.0313550466081297E8 ; 1.0084056062580824E9 ; 2.6068476910176517E10 ; 0.0
138 ; 6951730.653966725 ; 2.0315176470858717E8 ; 1.0153770431814189E9 ; 2.627161241483733E10 ; 0.0
139 ; 6938664.393327102 ; 2.0316800133654532E8 ; 1.0223287738353856E9 ; 2.6474764179545918E10 ; 0.0
140 ; 6920118.897700392 ; 2.0318421371416047E8 ; 1.0292674382287127E9 ; 2.667793218088246E10 ; 0.0
141 ; 6903718.0461669825 ; 2.0320040102379522E8 ; 1.0361875571264131E9 ; 2.6881116394596622E10 ; 0.0
142 ; 6887806.186922593 ; 2.0321656246036696E8 ; 1.0430912751725801E9 ; 2.708431679562042E10 ; 0.0
143 ; 6869160.063803334 ; 2.0323269723102424E8 ; 1.0499790813595027E9 ; 2.7287533358080784E10 ; 0.0
144 ; 6850416.756060839 ; 2.0324880455483332E8 ; 1.056848241423306E9 ; 2.749076605531181E10 ; 0.0
145 ; 6841396.263389007 ; 2.0326488366247493E8 ; 1.0636986581793668E9 ; 2.7694014859866642E10 ; 0.0
146 ; 6827253.032034821 ; 2.0328093379595086E8 ; 1.0705400544427558E9 ; 2.7897279743529118E10 ; 0.0
147 ; 6815703.792613831 ; 2.0329695420830002E8 ; 1.0773673074747906E9 ; 2.810056067732507E10 ; 0.0
148 ; 6802090.262294412 ; 2.033129441633234E8 ; 1.0841830112674043E9 ; 2.830385763153337E10 ; 0.0
149 ; 6791073.110697543 ; 2.0332890293531817E8 ; 1.0909851015296988E9 ; 2.8507170575696693E10 ; 0.0
150 ; 6778944.494148605 ; 2.0334482980882007E8 ; 1.0977761746403964E9 ; 2.871049947863201E10 ; 0.0
151 ; 6763037.211053646 ; 2.0336072407835415E8 ; 1.1045551191345448E9 ; 2.891384430844083E10 ; 0.0
152 ; 6753542.202961205 ; 2.033765850481934E8 ; 1.1113181563455985E9 ; 2.9117205032519184E10 ; 0.0
153 ; 6741928.180062282 ; 2.033924120321252E8 ; 1.1180716985485597E9 ; 2.932058161756738E10 ; 0.0
154 ; 6726780.235467495 ; 2.0340820435322502E8 ; 1.124813626728622E9 ; 2.9523974029599503E10 ; 0.0
155 ; 6717384.37560615 ; 2.034239613436374E8 ; 1.1315404069640894E9 ; 2.972738223395273E10 ; 0.0
156 ; 6703965.765242454 ; 2.0343968234436402E8 ; 1.1382577913396955E9 ; 2.9930806195296364E10 ; 0.0
157 ; 6692232.096906747 ; 2.0345536670505804E8 ; 1.1449617571049378E9 ; 3.0134245877640728E10 ; 0.0
158 ; 6678747.173795906 ; 2.0347101378382552E8 ; 1.1516539892018445E9 ; 3.0337701244345787E10 ; 0.0
159 ; 6664265.375768201 ; 2.0348662294703263E8 ; 1.1583327363756404E9 ; 3.0541172258129612E10 ; 0.0
160 ; 6653782.801234853 ; 2.0350219356911913E8 ; 1.1649970017514086E9 ; 3.0744658881076645E10 ; 0.0
161 ; 6642033.471594903 ; 2.0351772503241763E8 ; 1.1716507845526435E9 ; 3.0948161074645763E10 ; 0.0
162 ; 6628624.110841097 ; 2.0353321672697863E8 ; 1.1782928180242383E9 ; 3.115167879967818E10 ; 0.0
163 ; 6614855.458123042 ; 2.035486680504008E8 ; 1.1849214421350794E9 ; 3.135521201640516E10 ; 0.0
164 ; 6601487.560711632 ; 2.0356407840766683E8 ; 1.1915362975932024E9 ; 3.155876068445556E10 ; 0.0
165 ; 6589547.323699319 ; 2.035794472109842E8 ; 1.198137785153914E9 ; 3.1762324762863224E10 ; 0.0
166 ; 6578384.310397686 ; 2.0359477387963092E8 ; 1.2047273324776132E9 ; 3.1965904210074207E10 ; 0.0
167 ; 6563916.062781514 ; 2.0361005783980614E8 ; 1.2113057167880108E9 ; 3.216949898395384E10 ; 0.0
168 ; 6552905.31568947 ; 2.0362529852448526E8 ; 1.2178696328507924E9 ; 3.2373109041793644E10 ; 0.0
169 ; 6536907.840253475 ; 2.0364049537327957E8 ; 1.224422538166482E9 ; 3.257673434031813E10 ; 0.0
170 ; 6524062.706741686 ; 2.036556478323003E8 ; 1.2309594460067356E9 ; 3.278037483569141E10 ; 0.0
171 ; 6512810.916087574 ; 2.0367075535402665E8 ; 1.2374835087134771E9 ; 3.2984030483523712E10 ; 0.0
172 ; 6499643.022395305 ; 2.0368581739717796E8 ; 1.2439963196295648E9 ; 3.318770123887774E10 ; 0.0
173 ; 6489272.830964352 ; 2.0370083342658994E8 ; 1.2504959626519601E9 ; 3.3391387056274918E10 ; 0.0
174 ; 6473694.350712262 ; 2.0371580291309446E8 ; 1.2569852354829245E9 ; 3.3595087889701508E10 ; 0.0
175 ; 6462350.431843319 ; 2.0373072533340305E8 ; 1.2634589298336368E9 ; 3.37988036926146E10 ; 0.0
176 ; 6456472.702871343 ; 2.03745600169994E8 ; 1.26992128026548E9 ; 3.4002534417948006E10 ; 0.0
177 ; 6443748.1100912215 ; 2.037604269110029E8 ; 1.2763777529683514E9 ; 3.4206280018118E10 ; 0.0
178 ; 6432486.592629025 ; 2.0377520505011645E8 ; 1.2828215010784426E9 ; 3.4410040445029E10 ; 0.0
179 ; 6423045.946703371 ; 2.0378993408646935E8 ; 1.2892539876710715E9 ; 3.461381565007912E10 ; 0.0
180 ; 6411266.749854308 ; 2.0380461352454466E8 ; 1.295677033617775E9 ; 3.481760558416559E10 ; 0.0
181 ; 6401521.912051216 ; 2.038192428740767E8 ; 1.3020883003676293E9 ; 3.502141019769013E10 ; 0.0
182 ; 6391178.488188638 ; 2.0383382164995718E8 ; 1.3084898222796805E9 ; 3.522522944056421E10 ; 0.0
183 ; 6381821.582099433 ; 2.0384834937214413E8 ; 1.3148810007678692E9 ; 3.5429063262214165E10 ; 0.0
184 ; 6368686.572756835 ; 2.0386282556557333E8 ; 1.3212628223499687E9 ; 3.563291161158631E10 ; 0.0
185 ; 6357214.281778087 ; 2.038772497600726E8 ; 1.3276315089227254E9 ; 3.5836774437151886E10 ; 0.0
186 ; 6347912.248018593 ; 2.0389162149027848E8 ; 1.3339887232045035E9 ; 3.604065168691196E10 ; 0.0
187 ; 6336606.914771881 ; 2.0390594029555562E8 ; 1.340336635452522E9 ; 3.624454330840224E10 ; 0.0
188 ; 6327689.49271235 ; 2.039202057199183E8 ; 1.3466732423672938E9 ; 3.644844924869779E10 ; 0.0
189 ; 6318717.395832965 ; 2.039344173119544E8 ; 1.353000931860006E9 ; 3.665236945441771E10 ; 0.0
190 ; 6303655.379216978 ; 2.039485746247516E8 ; 1.359319649255839E9 ; 3.685630387172966E10 ; 0.0
191 ; 6296536.343933381 ; 2.0396267721582568E8 ; 1.365623304635056E9 ; 3.706025244635441E10 ; 0.0
192 ; 6283578.963051807 ; 2.039767246470511E8 ; 1.3719198409789894E9 ; 3.726421512357024E10 ; 0.0
193 ; 6272635.974626422 ; 2.0399071648459357E8 ; 1.3782034199420412E9 ; 3.7468191848217285E10 ; 0.0
194 ; 6262341.19052088 ; 2.0400465229884428E8 ; 1.3844760559166675E9 ; 3.767218256470188E10 ; 0.0
195 ; 6256878.351233372 ; 2.0401853166435665E8 ; 1.3907383971071882E9 ; 3.7876187217000725E10 ; 0.0
196 ; 6242910.731589663 ; 2.0403235415978435E8 ; 1.3969952754584217E9 ; 3.8080205748665085E10 ; 0.0
197 ; 6233778.925232286 ; 2.0404611936782143E8 ; 1.4032381861900113E9 ; 3.828423810282487E10 ; 0.0
198 ; 6225412.603764847 ; 2.0405982687514415E8 ; 1.4094719651152434E9 ; 3.848828422219269E10 ; 0.0
199 ; 6213574.66972487 ; 2.0407347627235457E8 ; 1.4156973777190082E9 ; 3.869234404906783E10 ; 0.0
200 ; 6201323.699012344 ; 1.6328557670701346E8 ; 1.4219109523887331E9 ; 3.889641752534019E10 ; 0.0
201 ; 6193783.859531094 ; 1.5526060589929128E8 ; 1.4281122760877454E9 ; 3.90597031020472E10 ; 0.0
