CSV File for the City 1 on Day 177
1 - Minute m 
2 - Power Consumed at minute m 
3 - Power Produced at minute m 
4 - Energy Consumed since the beginning of the day 
5 - Energy Produced since the beginning of the day 
6 - Energy Lost since the beginning of the day on lines starting from the city
 
0 ; 4161014.493562361 ; 1.0549586785009822E8 ; 0.0 ; 0.0 ; 0.0
1 ; 4177257.2627595956 ; 1.0564878797519714E8 ; 4161014.493562361 ; 1.0549586785009822E8 ; 0.0
2 ; 4187626.468988656 ; 1.0611049223430875E8 ; 8338271.756321957 ; 2.1114465582529536E8 ; 0.0
3 ; 4209620.90663116 ; 1.0688098234678978E8 ; 1.2525898225310612E7 ; 3.172551480596041E8 ; 0.0
4 ; 4228696.657667195 ; 1.0796025985707045E8 ; 1.6735519131941773E7 ; 4.241361304063939E8 ; 0.0
5 ; 4259874.348738396 ; 1.0934832612489712E8 ; 2.096421578960897E7 ; 5.3209639026346433E8 ; 0.0
6 ; 4292056.610240895 ; 1.110451823165519E8 ; 2.5224090138347365E7 ; 6.414447163883615E8 ; 0.0
7 ; 4346528.096745493 ; 1.1305082939717978E8 ; 2.951614674858826E7 ; 7.524898987049134E8 ; 0.0
8 ; 4421499.329588825 ; 1.1536526812433928E8 ; 3.3862674845333755E7 ; 8.655407281020932E8 ; 0.0
9 ; 4540942.964205106 ; 1.179884990428769E8 ; 3.828417417492258E7 ; 9.809059962264326E8 ; 0.0
10 ; 4721495.809449983 ; 1.20920522481206E8 ; 4.282511713912769E7 ; 1.0988944952693095E9 ; 0.0
11 ; 5007570.259699807 ; 1.2416133854904976E8 ; 4.754661294857767E7 ; 1.2198150177505155E9 ; 0.0
12 ; 5466441.4769707965 ; 1.2771094713668498E8 ; 5.255418320827748E7 ; 1.3439763562995653E9 ; 0.0
13 ; 5910389.605154843 ; 1.3156934791569829E8 ; 5.802062468524828E7 ; 1.4716873034362502E9 ; 0.0
14 ; 5961548.5047498895 ; 1.3573654034124327E8 ; 6.393101429040312E7 ; 1.6032566513519485E9 ; 0.0
15 ; 5981921.343836134 ; 1.402125236557613E8 ; 6.9892562795153E7 ; 1.7389931916931918E9 ; 0.0
16 ; 5995636.61263185 ; 1.449972968941075E8 ; 7.587448413898914E7 ; 1.879205715348953E9 ; 0.0
17 ; 6019014.098176798 ; 1.5009085888999966E8 ; 8.187012075162098E7 ; 2.0242030122430606E9 ; 0.0
18 ; 6039212.672386154 ; 1.5549320828369147E8 ; 8.788913484979777E7 ; 2.1742938711330605E9 ; 0.0
19 ; 6057569.557889529 ; 1.612043435307527E8 ; 9.392834752218392E7 ; 2.329787079416752E9 ; 0.0
20 ; 6080853.4755824 ; 1.6722426291182658E8 ; 9.998591708007345E7 ; 2.4909914229475045E9 ; 0.0
21 ; 6100776.514533528 ; 1.7355296454322562E8 ; 1.0606677055565585E8 ; 2.658215685859331E9 ; 0.0
22 ; 6121174.821795113 ; 1.8019044638821894E8 ; 1.1216754707018939E8 ; 2.831768650402557E9 ; 0.0
23 ; 6135837.291340415 ; 1.871367062688622E8 ; 1.1828872189198449E8 ; 3.011959096790776E9 ; 0.0
24 ; 6159361.595408968 ; 1.9439174187822127E8 ; 1.244245591833249E8 ; 3.199095803059638E9 ; 0.0
25 ; 6176599.634177381 ; 2.0064359169102767E8 ; 1.3058392077873386E8 ; 3.3934875449378595E9 ; 0.0
26 ; 6201359.067955186 ; 2.0064580101315367E8 ; 1.3676052041291124E8 ; 3.594131136628887E9 ; 0.0
27 ; 6215741.108399965 ; 2.006481365190722E8 ; 1.4296187948086643E8 ; 3.7947769376420407E9 ; 0.0
28 ; 6237837.2036120165 ; 2.0065059551104066E8 ; 1.491776205892664E8 ; 3.995425074161113E9 ; 0.0
29 ; 6255245.803498357 ; 2.0065317522450304E8 ; 1.5541545779287842E8 ; 4.1960756696721535E9 ; 0.0
30 ; 6275320.516622178 ; 2.0065587283989516E8 ; 1.6167070359637678E8 ; 4.396728844896656E9 ; 0.0
31 ; 6293122.434375034 ; 2.0065868549401417E8 ; 1.6794602411299896E8 ; 4.597384717736551E9 ; 0.0
32 ; 6313997.207875291 ; 2.00661610290882E8 ; 1.74239146547374E8 ; 4.798043403230565E9 ; 0.0
33 ; 6329419.399932032 ; 2.0066464431204522E8 ; 1.805531437552493E8 ; 4.998705013521447E9 ; 0.0
34 ; 6348178.944577786 ; 2.006677846262676E8 ; 1.8688256315518132E8 ; 5.199369657833492E9 ; 0.0
35 ; 6364714.099175936 ; 2.0067102829858267E8 ; 1.932307420997591E8 ; 5.40003744245976E9 ; 0.0
36 ; 6384064.216236733 ; 2.0067437239868572E8 ; 1.9959545619893503E8 ; 5.600708470758343E9 ; 0.0
37 ; 6397034.533065952 ; 2.0067781400865522E8 ; 2.0597952041517177E8 ; 5.801382843157028E9 ; 0.0
38 ; 6409913.939944787 ; 2.0068135023000184E8 ; 2.1237655494823772E8 ; 6.002060657165684E9 ; 0.0
39 ; 6420697.438190603 ; 2.0068497819005245E8 ; 2.187864688881825E8 ; 6.202742007395685E9 ; 0.0
40 ; 6437409.006540391 ; 2.0068869504768297E8 ; 2.252071663263731E8 ; 6.403426985585737E9 ; 0.0
41 ; 6450148.515991355 ; 2.0069249799841973E8 ; 2.316445753329135E8 ; 6.60411568063342E9 ; 0.0
42 ; 6462827.156582994 ; 2.0069638427893376E8 ; 2.3809472384890485E8 ; 6.80480817863184E9 ; 0.0
43 ; 6475002.653533468 ; 2.0070035117095673E8 ; 2.4455755100548783E8 ; 7.005504562910773E9 ; 0.0
44 ; 6484824.723811744 ; 2.0070439600464904E8 ; 2.510325536590213E8 ; 7.20620491408173E9 ; 0.0
45 ; 6497643.902620893 ; 2.0070851616145363E8 ; 2.5751737838283303E8 ; 7.406909310086379E9 ; 0.0
46 ; 6506354.924084249 ; 2.0071270907646963E8 ; 2.6401502228545392E8 ; 7.607617826247832E9 ; 0.0
47 ; 6513499.702778033 ; 2.0071697224038085E8 ; 2.7052137720953816E8 ; 7.808330535324302E9 ; 0.0
48 ; 6522796.947240187 ; 2.0072130320097387E8 ; 2.770348769123162E8 ; 8.009047507564683E9 ; 0.0
49 ; 6531793.828478622 ; 2.007256995642806E8 ; 2.835576738595564E8 ; 8.209768810765656E9 ; 0.0
50 ; 6535146.807231504 ; 2.0073015899537876E8 ; 2.90089467688035E8 ; 8.410494510329937E9 ; 0.0
51 ; 6540244.745608076 ; 2.0073467921888265E8 ; 2.966246144952665E8 ; 8.611224669325315E9 ; 0.0
52 ; 6547347.300945747 ; 2.007392580191559E8 ; 3.031648592408746E8 ; 8.811959348544199E9 ; 0.0
53 ; 6555320.587953927 ; 2.0074389324027532E8 ; 3.0971220654182035E8 ; 9.012698606563354E9 ; 0.0
54 ; 6560389.260577539 ; 2.0074858278577417E8 ; 3.162675271297743E8 ; 9.213442499803629E9 ; 0.0
55 ; 6561242.458690482 ; 2.0075332461819082E8 ; 3.2282791639035183E8 ; 9.414191082589403E9 ; 0.0
56 ; 6570593.39223949 ; 2.0075811675844714E8 ; 3.293891588490423E8 ; 9.614944407207594E9 ; 0.0
57 ; 6569701.485882719 ; 2.007629572850796E8 ; 3.359597522412818E8 ; 9.815702523966042E9 ; 0.0
58 ; 6576679.641285101 ; 2.007678443333434E8 ; 3.425294537271645E8 ; 1.0016465481251122E10 ; 0.0
59 ; 6581070.572005523 ; 2.0077277609420913E8 ; 3.491061333684496E8 ; 1.0217233325584465E10 ; 0.0
60 ; 6581703.658412856 ; 2.0077775081326908E8 ; 3.5568720394045514E8 ; 1.0418006101678675E10 ; 0.0
61 ; 6592336.199364151 ; 2.0078276678956917E8 ; 3.62268907598868E8 ; 1.0618783852491943E10 ; 0.0
62 ; 6598103.394460575 ; 2.0078782237438053E8 ; 3.6886124379823214E8 ; 1.0819566619281513E10 ; 0.0
63 ; 6597759.905814527 ; 2.0079291596992406E8 ; 3.754593471926927E8 ; 1.1020354441655893E10 ; 0.0
64 ; 6601850.167916259 ; 2.007980460280589E8 ; 3.820571070985072E8 ; 1.1221147357625818E10 ; 0.0
65 ; 6607158.666270262 ; 2.0080321104894516E8 ; 3.8865895726642346E8 ; 1.1421945403653877E10 ; 0.0
66 ; 6607029.106433143 ; 2.008084095796906E8 ; 3.952661159326937E8 ; 1.1622748614702822E10 ; 0.0
67 ; 6611600.969237956 ; 2.0081364021298826E8 ; 4.018731450391269E8 ; 1.1823557024282513E10 ; 0.0
68 ; 6616958.948469883 ; 2.0081890158575267E8 ; 4.0848474600836486E8 ; 1.20243706644955E10 ; 0.0
69 ; 6622147.614198537 ; 2.0082419237776095E8 ; 4.1510170495683473E8 ; 1.2225189566081253E10 ; 0.0
70 ; 6624204.2436199635 ; 2.0082951131030345E8 ; 4.217238525710333E8 ; 1.2426013758459015E10 ; 0.0
71 ; 6627011.933330241 ; 2.0083485714484903E8 ; 4.283480568146533E8 ; 1.2626843269769318E10 ; 0.0
72 ; 6627290.433016404 ; 2.0084022868172863E8 ; 4.349750687479835E8 ; 1.2827678126914167E10 ; 0.0
73 ; 6631556.124493657 ; 2.008456247588404E8 ; 4.4160235918099993E8 ; 1.3028518355595896E10 ; 0.0
74 ; 6636347.707056547 ; 2.0085104425037938E8 ; 4.482339153054936E8 ; 1.3229363980354736E10 ; 0.0
75 ; 6639171.832201392 ; 2.008564860655935E8 ; 4.548702630125501E8 ; 1.3430215024605116E10 ; 0.0
76 ; 6642771.0077965325 ; 2.0086194914756843E8 ; 4.6150943484475154E8 ; 1.363107151067071E10 ; 0.0
77 ; 6640969.79673783 ; 2.008674324720419E8 ; 4.6815220585254806E8 ; 1.3831933459818277E10 ; 0.0
78 ; 6637897.386455877 ; 2.0087293504624933E8 ; 4.747931756492859E8 ; 1.403280089229032E10 ; 0.0
79 ; 6637019.029715905 ; 2.0087845590780115E8 ; 4.814310730357418E8 ; 1.4233673827336569E10 ; 0.0
80 ; 6632291.867824566 ; 2.008839941235925E8 ; 4.880680920654577E8 ; 1.443455228324437E10 ; 0.0
81 ; 6633429.078384253 ; 2.0088954878874546E8 ; 4.9470038393328226E8 ; 1.4635436277367962E10 ; 0.0
82 ; 6626664.352855515 ; 2.008951190255845E8 ; 5.0133381301166654E8 ; 1.4836325826156708E10 ; 0.0
83 ; 6620625.520798008 ; 2.0090070398264405E8 ; 5.0796047736452204E8 ; 1.5037220945182293E10 ; 0.0
84 ; 6615427.291009914 ; 2.0090630283370924E8 ; 5.1458110288532007E8 ; 1.5238121649164936E10 ; 0.0
85 ; 6611858.427832859 ; 2.0091191477688837E8 ; 5.2119653017633E8 ; 1.5439027951998646E10 ; 0.0
86 ; 6607634.936281354 ; 2.0091753903371754E8 ; 5.278083886041628E8 ; 1.5639939866775534E10 ; 0.0
87 ; 6609591.559743121 ; 2.0092317484829634E8 ; 5.344160235404442E8 ; 1.5840857405809252E10 ; 0.0
88 ; 6603414.00510711 ; 2.0092882148645428E8 ; 5.410256151001873E8 ; 1.6041780580657549E10 ; 0.0
89 ; 6595882.986965052 ; 2.009344782349473E8 ; 5.476290291052945E8 ; 1.6242709402144003E10 ; 0.0
90 ; 6590521.70827908 ; 2.009401444006836E8 ; 5.542249120922595E8 ; 1.644364388037895E10 ; 0.0
91 ; 6584712.4522893615 ; 2.0094581930997807E8 ; 5.608154338005387E8 ; 1.6644584024779634E10 ; 0.0
92 ; 6582734.544434348 ; 2.009515023078344E8 ; 5.67400146252828E8 ; 1.6845529844089613E10 ; 0.0
93 ; 6572970.355259097 ; 2.0095719275725445E8 ; 5.739828807972623E8 ; 1.7046481346397448E10 ; 0.0
94 ; 6571298.30457467 ; 2.009628900385738E8 ; 5.805558511525214E8 ; 1.72474385391547E10 ; 0.0
95 ; 6572371.087871207 ; 2.009685935488226E8 ; 5.871271494570961E8 ; 1.7448401429193275E10 ; 0.0
96 ; 6560600.369402511 ; 2.0097430270111114E8 ; 5.936995205449673E8 ; 1.76493700227421E10 ; 0.0
97 ; 6551347.882085918 ; 2.009800169240391E8 ; 6.002601209143698E8 ; 1.785034432544321E10 ; 0.0
98 ; 6554112.11098657 ; 2.0098573566112804E8 ; 6.068114687964557E8 ; 1.805132434236725E10 ; 0.0
99 ; 6543699.939990204 ; 2.0099145837027577E8 ; 6.133655809074423E8 ; 1.8252310078028378E10 ; 0.0
100 ; 6538711.051219972 ; 2.0099718452323234E8 ; 6.199092808474325E8 ; 1.8453301536398655E10 ; 0.0
101 ; 6528843.616151818 ; 2.0100291360509655E8 ; 6.264479918986524E8 ; 1.8654298720921886E10 ; 0.0
102 ; 6525694.064892002 ; 2.0100864511383238E8 ; 6.329768355148042E8 ; 1.885530163452698E10 ; 0.0
103 ; 6520979.818224859 ; 2.0101437855980453E8 ; 6.395025295796963E8 ; 1.9056310279640812E10 ; 0.0
104 ; 6515179.019809399 ; 2.0102011346533242E8 ; 6.460235093979212E8 ; 1.9257324658200615E10 ; 0.0
105 ; 6507751.691574508 ; 2.010258493642618E8 ; 6.525386884177306E8 ; 1.9458344771665947E10 ; 0.0
106 ; 6500802.649550845 ; 2.010315858015535E8 ; 6.59046440109305E8 ; 1.965937062103021E10 ; 0.0
107 ; 6492423.475717087 ; 2.0103732233288836E8 ; 6.655472427588558E8 ; 1.986040220683176E10 ; 0.0
108 ; 6487845.496025956 ; 2.0104305852428812E8 ; 6.720396662345729E8 ; 2.006143952916465E10 ; 0.0
109 ; 6476204.181603112 ; 2.010487939517511E8 ; 6.785275117305988E8 ; 2.026248258768894E10 ; 0.0
110 ; 6472730.419425387 ; 2.0105452820090273E8 ; 6.850037159122019E8 ; 2.046353138164069E10 ; 0.0
111 ; 6462234.257810249 ; 2.0106026086665958E8 ; 6.914764463316272E8 ; 2.066458590984159E10 ; 0.0
112 ; 6456031.452999023 ; 2.010659915529071E8 ; 6.979386805894375E8 ; 2.0865646170708252E10 ; 0.0
113 ; 6448007.611773857 ; 2.0107171987218997E8 ; 7.043947120424365E8 ; 2.1066712162261158E10 ; 0.0
114 ; 6439688.81362612 ; 2.010774454454146E8 ; 7.108427196542103E8 ; 2.1267783882133347E10 ; 0.0
115 ; 6431261.468781096 ; 2.0108316790156394E8 ; 7.172824084678365E8 ; 2.1468861327578762E10 ; 0.0
116 ; 6423971.316202612 ; 2.0108888687742284E8 ; 7.237136699366176E8 ; 2.1669944495480328E10 ; 0.0
117 ; 6413227.393547156 ; 2.010946020173149E8 ; 7.301376412528203E8 ; 2.187103338235775E10 ; 0.0
118 ; 6406178.5907670045 ; 2.0110031297284943E8 ; 7.365508686463674E8 ; 2.2072127984375065E10 ; 0.0
119 ; 6402434.026408911 ; 2.011060194026782E8 ; 7.429570472371345E8 ; 2.2273228297347916E10 ; 0.0
120 ; 6387743.646134263 ; 2.011117209722622E8 ; 7.493594812635434E8 ; 2.2474334316750595E10 ; 0.0
121 ; 6376259.412302272 ; 2.0111741735364705E8 ; 7.557472249096776E8 ; 2.267544603772286E10 ; 0.0
122 ; 6371976.949472025 ; 2.0112310822524765E8 ; 7.621234843219799E8 ; 2.2876563455076504E10 ; 0.0
123 ; 6365058.278490222 ; 2.011287932716408E8 ; 7.68495461271452E8 ; 2.307768656330175E10 ; 0.0
124 ; 6354505.228411202 ; 2.0113447218336636E8 ; 7.748605195499421E8 ; 2.327881535657339E10 ; 0.0
125 ; 6341755.883274734 ; 2.0114014465673566E8 ; 7.812150247783533E8 ; 2.3479949828756756E10 ; 0.0
126 ; 6337839.284583726 ; 2.011458103936477E8 ; 7.87556780661628E8 ; 2.368108997341349E10 ; 0.0
127 ; 6325545.561456235 ; 2.0115146910141233E8 ; 7.938946199462117E8 ; 2.3882235783807137E10 ; 0.0
128 ; 6315089.837932749 ; 2.011571204925802E8 ; 8.002201655076679E8 ; 2.408338725290855E10 ; 0.0
129 ; 6307431.374278643 ; 2.0116276428477925E8 ; 8.065352553456006E8 ; 2.428454437340113E10 ; 0.0
130 ; 6292258.577856018 ; 2.0116840020055762E8 ; 8.128426867198793E8 ; 2.448570713768591E10 ; 0.0
131 ; 6280256.197444208 ; 2.0117402796723226E8 ; 8.191349452977353E8 ; 2.4686875537886467E10 ; 0.0
132 ; 6262395.441826305 ; 2.0117964731674367E8 ; 8.254152014951795E8 ; 2.48880495658537E10 ; 0.0
133 ; 6241978.589240887 ; 2.0118525798551586E8 ; 8.316775969370059E8 ; 2.508922921317044E10 ; 0.0
134 ; 6225324.615905435 ; 2.0119085971432185E8 ; 8.379195755262468E8 ; 2.5290414471155956E10 ; 0.0
135 ; 6211878.143671416 ; 2.0119645224815395E8 ; 8.441449001421522E8 ; 2.5491605330870277E10 ; 0.0
136 ; 6194601.756876071 ; 2.0120203533609936E8 ; 8.503567782858236E8 ; 2.569280178311843E10 ; 0.0
137 ; 6181137.101566529 ; 2.0120760873121992E8 ; 8.565513800426997E8 ; 2.589400381845453E10 ; 0.0
138 ; 6162118.590767497 ; 2.0121317219043678E8 ; 8.627325171442662E8 ; 2.609521142718575E10 ; 0.0
139 ; 6149170.43862885 ; 2.012187254744192E8 ; 8.688946357350338E8 ; 2.6296424599376186E10 ; 0.0
140 ; 6127408.889745786 ; 2.0122426834747744E8 ; 8.750438061736625E8 ; 2.6497643324850605E10 ; 0.0
141 ; 6114803.73404109 ; 2.012298005774597E8 ; 8.811712150634084E8 ; 2.6698867593198082E10 ; 0.0
142 ; 6096171.145427451 ; 2.0123532193565276E8 ; 8.872860187974495E8 ; 2.6900097393775543E10 ; 0.0
143 ; 6076292.919257529 ; 2.012408321966865E8 ; 8.933821899428769E8 ; 2.7101332715711197E10 ; 0.0
144 ; 6058474.251703198 ; 2.012463311384417E8 ; 8.994584828621345E8 ; 2.7302573547907883E10 ; 0.0
145 ; 6052837.761644666 ; 2.0125181854196116E8 ; 9.055169571138376E8 ; 2.7503819879046326E10 ; 0.0
146 ; 6041703.878232984 ; 2.0125729419136444E8 ; 9.115697948754823E8 ; 2.7705071697588287E10 ; 0.0
147 ; 6033728.049257808 ; 2.012627578737651E8 ; 9.176114987537153E8 ; 2.790632899177965E10 ; 0.0
148 ; 6018561.172560015 ; 2.0126820937919167E8 ; 9.23645226802973E8 ; 2.8107591749653416E10 ; 0.0
149 ; 6009875.611052399 ; 2.0127364850051066E8 ; 9.29663787975533E8 ; 2.8308859959032608E10 ; 0.0
150 ; 6002761.419484634 ; 2.0127907503335312E8 ; 9.356736635865854E8 ; 2.851013360753312E10 ; 0.0
151 ; 5993394.246724233 ; 2.012844887760432E8 ; 9.4167642500607E8 ; 2.871141268256647E10 ; 0.0
152 ; 5981369.976636675 ; 2.0128988952952966E8 ; 9.476698192527943E8 ; 2.8912697171342514E10 ; 0.0
153 ; 5966180.634478324 ; 2.0129527709731957E8 ; 9.536511892294309E8 ; 2.9113987060872044E10 ; 0.0
154 ; 5955620.9004081 ; 2.0130065128541467E8 ; 9.596173698639092E8 ; 2.9315282337969364E10 ; 0.0
155 ; 5949442.331396991 ; 2.0130601190224954E8 ; 9.655729907643174E8 ; 2.951658298925478E10 ; 0.0
156 ; 5934679.266356021 ; 2.0131135875863242E8 ; 9.715224330957143E8 ; 2.971788900115703E10 ; 0.0
157 ; 5927387.127408372 ; 2.013166916676877E8 ; 9.774571123620703E8 ; 2.991920035991566E10 ; 0.0
158 ; 5916149.268650894 ; 2.0132201044480076E8 ; 9.833844994894787E8 ; 3.0120517051583347E10 ; 0.0
159 ; 5908734.350081279 ; 2.0132731490756443E8 ; 9.893006487581296E8 ; 3.032183906202815E10 ; 0.0
160 ; 5897606.256320325 ; 2.0133260487572762E8 ; 9.952093831082109E8 ; 3.0523166376935715E10 ; 0.0
161 ; 5884113.108288267 ; 2.0133788017114547E8 ; 1.0011069893645313E9 ; 3.0724498981811443E10 ; 0.0
162 ; 5879601.7013138225 ; 2.013431406177314E8 ; 1.0069911024728196E9 ; 3.092583686198259E10 ; 0.0
163 ; 5864379.945600348 ; 2.0134838604141065E8 ; 1.0128707041741334E9 ; 3.1127180002600323E10 ; 0.0
164 ; 5857697.190904401 ; 2.013536162700757E8 ; 1.0187350841197338E9 ; 3.1328528388641735E10 ; 0.0
165 ; 5843529.647543174 ; 2.0135883113354278E8 ; 1.0245927813106382E9 ; 3.152988200491181E10 ; 0.0
166 ; 5834140.094439125 ; 2.013640304635103E8 ; 1.0304363109581814E9 ; 3.1731240836045353E10 ; 0.0
167 ; 5817293.523585696 ; 2.0136921409351844E8 ; 1.0362704510526205E9 ; 3.193260486650886E10 ; 0.0
168 ; 5810355.722149993 ; 2.0137438185891014E8 ; 1.0420877445762062E9 ; 3.213397408060238E10 ; 0.0
169 ; 5798563.974446252 ; 2.0137953359679356E8 ; 1.0478981002983562E9 ; 3.233534846246129E10 ; 0.0
170 ; 5787025.934357688 ; 2.0138466914600563E8 ; 1.0536966642728025E9 ; 3.2536727996058083E10 ; 0.0
171 ; 5777365.469050923 ; 2.0138978834707683E8 ; 1.0594836902071601E9 ; 3.2738112665204086E10 ; 0.0
172 ; 5762768.079175972 ; 2.0139489104219738E8 ; 1.065261055676211E9 ; 3.2939502453551163E10 ; 0.0
173 ; 5757475.083898091 ; 2.0139997707518423E8 ; 1.071023823755387E9 ; 3.314089734459336E10 ; 0.0
174 ; 5743637.057228053 ; 2.0140504629144937E8 ; 1.0767812988392851E9 ; 3.3342297321668545E10 ; 0.0
175 ; 5737017.805364265 ; 2.0141009853796923E8 ; 1.0825249358965132E9 ; 3.3543702367959995E10 ; 0.0
176 ; 5730339.681778815 ; 2.0141513366325486E8 ; 1.0882619537018776E9 ; 3.3745112466497963E10 ; 0.0
177 ; 5721845.482172639 ; 2.0142015151732332E8 ; 1.0939922933836565E9 ; 3.3946527600161217E10 ; 0.0
178 ; 5707270.77157971 ; 2.0142515195167E8 ; 1.0997141388658292E9 ; 3.414794775167854E10 ; 0.0
179 ; 5701378.578242157 ; 2.014301348192416E8 ; 1.105421409637409E9 ; 3.434937290363021E10 ; 0.0
180 ; 5695167.016928263 ; 2.0143509997441044E8 ; 1.111122788215651E9 ; 3.4550803038449455E10 ; 0.0
181 ; 5689330.163649445 ; 2.0144004727294913E8 ; 1.1168179552325792E9 ; 3.475223813842387E10 ; 0.0
182 ; 5682785.624871129 ; 2.0144497657200634E8 ; 1.1225072853962288E9 ; 3.4953678185696815E10 ; 0.0
183 ; 5672434.0590259 ; 2.0144988773008347E8 ; 1.1281900710210998E9 ; 3.515512316226882E10 ; 0.0
184 ; 5664566.586723373 ; 2.0145478060701165E8 ; 1.1338625050801258E9 ; 3.53565730499989E10 ; 0.0
185 ; 5656688.43967716 ; 2.0145965506393006E8 ; 1.1395270716668491E9 ; 3.555802783060591E10 ; 0.0
186 ; 5645580.925455931 ; 2.0146451096326438E8 ; 1.1451837601065264E9 ; 3.575948748566984E10 ; 0.0
187 ; 5636661.067990661 ; 2.0146934816870633E8 ; 1.1508293410319824E9 ; 3.59609519966331E10 ; 0.0
188 ; 5629570.874426487 ; 2.0147416654519376E8 ; 1.1564660020999732E9 ; 3.616242134480181E10 ; 0.0
189 ; 5623703.7464765655 ; 2.014789659588913E8 ; 1.1620955729743998E9 ; 3.636389551134701E10 ; 0.0
190 ; 5612115.816672103 ; 2.014837462771717E8 ; 1.1677192767208765E9 ; 3.65653744773059E10 ; 0.0
191 ; 5605515.1354923025 ; 2.014885073685978E8 ; 1.1733313925375485E9 ; 3.676685822358307E10 ; 0.0
192 ; 5597291.486428707 ; 2.0149324910290498E8 ; 1.1789369076730409E9 ; 3.696834673095167E10 ; 0.0
193 ; 5592040.834158366 ; 2.0149797135098422E8 ; 1.1845341991594696E9 ; 3.716983998005457E10 ; 0.0
194 ; 5582360.699434495 ; 2.0150267398486575E8 ; 1.190126239993628E9 ; 3.7371337951405556E10 ; 0.0
195 ; 5572306.910772099 ; 2.0150735687770316E8 ; 1.1957086006930625E9 ; 3.757284062539042E10 ; 0.0
196 ; 5565635.480555695 ; 2.0151201990375802E8 ; 1.2012809076038346E9 ; 3.777434798226812E10 ; 0.0
197 ; 5556522.854063338 ; 2.0151666293838486E8 ; 1.2068465430843904E9 ; 3.7975860002171875E10 ; 0.0
198 ; 5549859.345194249 ; 2.0152128585801703E8 ; 1.2124030659384537E9 ; 3.817737666511026E10 ; 0.0
199 ; 5540195.965530904 ; 2.0152588854015243E8 ; 1.217952925283648E9 ; 3.837889795096828E10 ; 0.0
200 ; 5527526.075318507 ; 2.015304708633402E8 ; 1.223493121249179E9 ; 3.858042383950843E10 ; 0.0
201 ; 5523349.363330184 ; 1.8970566392941588E8 ; 1.2290206473244975E9 ; 3.878195431037177E10 ; 0.0
