CSV File for the City 1 on Day 261
1 - Minute m 
2 - Power Consumed at minute m 
3 - Power Produced at minute m 
4 - Energy Consumed since the beginning of the day 
5 - Energy Produced since the beginning of the day 
6 - Energy Lost since the beginning of the day on lines starting from the city
 
0 ; 5393277.920133443 ; 1.0549240708204123E8 ; 0.0 ; 0.0 ; 0.0
1 ; 5405263.301459406 ; 1.0564532367063522E8 ; 5393277.920133443 ; 1.0549240708204123E8 ; 0.0
2 ; 5419114.169644386 ; 1.0610702468622515E8 ; 1.0798541221592847E7 ; 2.1113773075267646E8 ; 0.0
3 ; 5431503.333009712 ; 1.0687751187324876E8 ; 1.6217655391237233E7 ; 3.172447554389016E8 ; 0.0
4 ; 5455898.364883003 ; 1.07956786799034E8 ; 2.1649158724246945E7 ; 4.2412226731215036E8 ; 0.0
5 ; 5483185.553319566 ; 1.0934485084377468E8 ; 2.7105057089129947E7 ; 5.3207905411118436E8 ; 0.0
6 ; 5516189.065908259 ; 1.1104170519150516E8 ; 3.2588242642449513E7 ; 6.41423904954959E8 ; 0.0
7 ; 5564393.75082692 ; 1.1304735082221061E8 ; 3.810443170835777E7 ; 7.524656101464642E8 ; 0.0
8 ; 5640839.119313058 ; 1.1536178850519228E8 ; 4.366882545918469E7 ; 8.655129609686749E8 ; 0.0
9 ; 5760049.116190916 ; 1.179850187937935E8 ; 4.930966457849775E7 ; 9.808747494738672E8 ; 0.0
10 ; 5938556.194049722 ; 1.2091704202156997E8 ; 5.506971369468867E7 ; 1.0988597682676606E9 ; 0.0
11 ; 6218317.534818488 ; 1.2415785829996637E8 ; 6.1008269888738394E7 ; 1.2197768102892306E9 ; 0.0
12 ; 6683039.783698705 ; 1.2770746751753798E8 ; 6.722658742355688E7 ; 1.343934668589197E9 ; 0.0
13 ; 7119838.247057658 ; 1.3156586934072912E8 ; 7.390962720725559E7 ; 1.471642136106735E9 ; 0.0
14 ; 7172125.824428612 ; 1.3573306321619654E8 ; 8.102946545431325E7 ; 1.603208005447464E9 ; 0.0
15 ; 7187693.084974943 ; 1.4020904837463886E8 ; 8.820159127874187E7 ; 1.7389410686636605E9 ; 0.0
16 ; 7205742.70136312 ; 1.4499382383607104E8 ; 9.538928436371681E7 ; 1.8791501170382993E9 ; 0.0
17 ; 7224593.645381628 ; 1.5008738841645864E8 ; 1.0259502706507993E8 ; 2.0241439408743703E9 ; 0.0
18 ; 7240370.913450344 ; 1.5548974073560786E8 ; 1.0981962071046156E8 ; 2.174231329290829E9 ; 0.0
19 ; 7259883.145964656 ; 1.6120087922619078E8 ; 1.170599916239119E8 ; 2.329721070026437E9 ; 0.0
20 ; 7278160.319664018 ; 1.672208021437696E8 ; 1.2431987476987655E8 ; 2.4909219492526274E9 ; 0.0
21 ; 7296833.133884804 ; 1.7354950757767627E8 ; 1.3159803508954057E8 ; 2.658142751396397E9 ; 0.0
22 ; 7317917.567726732 ; 1.8018699346259475E8 ; 1.388948682234254E8 ; 2.8316922589740734E9 ; 0.0
23 ; 7337207.482785401 ; 1.8713325759069163E8 ; 1.4621278579115212E8 ; 3.0118792524366684E9 ; 0.0
24 ; 7351873.863918205 ; 1.9438829762414074E8 ; 1.5354999327393752E8 ; 3.19901251002736E9 ; 0.0
25 ; 7377190.180627866 ; 2.0064015200607508E8 ; 1.6090186713785574E8 ; 3.3934008076515007E9 ; 0.0
26 ; 7390951.816100611 ; 2.0064236601034984E8 ; 1.682790573184836E8 ; 3.5940409596575756E9 ; 0.0
27 ; 7406567.987173446 ; 2.006447062792766E8 ; 1.756700091345842E8 ; 3.7946833256679254E9 ; 0.0
28 ; 7423412.551650032 ; 2.0064717008306608E8 ; 1.8307657712175763E8 ; 3.9953280319472017E9 ; 0.0
29 ; 7444800.812430461 ; 2.0064975462546977E8 ; 1.9049998967340767E8 ; 4.1959752020302677E9 ; 0.0
30 ; 7457174.956465975 ; 2.0065245705580416E8 ; 1.9794479048583815E8 ; 4.396624956655738E9 ; 0.0
31 ; 7476443.434479129 ; 2.0065527448051685E8 ; 2.0540196544230413E8 ; 4.597277413711542E9 ; 0.0
32 ; 7494268.867728287 ; 2.0065820397422317E8 ; 2.1287840887678325E8 ; 4.797932688192059E9 ; 0.0
33 ; 7510197.532136148 ; 2.0066124259015638E8 ; 2.2037267774451154E8 ; 4.998590892166282E9 ; 0.0
34 ; 7521143.432853993 ; 2.0066438736998656E8 ; 2.278828752766477E8 ; 5.199252134756438E9 ; 0.0
35 ; 7538116.103992298 ; 2.0066763535297728E8 ; 2.3540401870950168E8 ; 5.399916522126425E9 ; 0.0
36 ; 7557663.10854365 ; 2.0067098358445978E8 ; 2.4294213481349397E8 ; 5.600584157479403E9 ; 0.0
37 ; 7569387.837776829 ; 2.0067442912361595E8 ; 2.5049979792203763E8 ; 5.801255141063862E9 ; 0.0
38 ; 7584978.121935947 ; 2.006779690505697E8 ; 2.5806918575981447E8 ; 6.001929570187478E9 ; 0.0
39 ; 7594747.433179351 ; 2.006816004727959E8 ; 2.656541638817504E8 ; 6.202607539238048E9 ; 0.0
40 ; 7605444.806595879 ; 2.006853205308619E8 ; 2.732489113149298E8 ; 6.403289139710843E9 ; 0.0
41 ; 7619582.849556936 ; 2.006891264035236E8 ; 2.8085435612152565E8 ; 6.603974460241705E9 ; 0.0
42 ; 7629910.407200543 ; 2.006930153122019E8 ; 2.8847393897108257E8 ; 6.804663586645228E9 ; 0.0
43 ; 7640782.874542349 ; 2.0069698452486962E8 ; 2.961038493782831E8 ; 7.00535660195743E9 ; 0.0
44 ; 7649233.539542322 ; 2.0070103135938188E8 ; 3.0374463225282544E8 ; 7.2060535864823E9 ; 0.0
45 ; 7662028.802007397 ; 2.00705153186284E8 ; 3.1139386579236776E8 ; 7.4067546178416815E9 ; 0.0
46 ; 7662592.9963074615 ; 2.007093474311333E8 ; 3.1905589459437513E8 ; 7.607459771027966E9 ; 0.0
47 ; 7672291.696288455 ; 2.0071361157637054E8 ; 3.2671848759068257E8 ; 7.808169118459099E9 ; 0.0
48 ; 7676523.481538034 ; 2.0071794316277754E8 ; 3.3439077928697103E8 ; 8.008882730035469E9 ; 0.0
49 ; 7688673.117048662 ; 2.0072233979055643E8 ; 3.420673027685091E8 ; 8.209600673198247E9 ; 0.0
50 ; 7686268.797728609 ; 2.00726799120065E8 ; 3.497559758855578E8 ; 8.410323012988804E9 ; 0.0
51 ; 7695090.219500831 ; 2.0073131887224185E8 ; 3.5744224468328637E8 ; 8.61104981210887E9 ; 0.0
52 ; 7697938.592265082 ; 2.0073589682875323E8 ; 3.651373349027872E8 ; 8.811781130981112E9 ; 0.0
53 ; 7699140.9512290815 ; 2.007405308318915E8 ; 3.728352734950523E8 ; 9.012517027809864E9 ; 0.0
54 ; 7703427.718985588 ; 2.007452187842542E8 ; 3.805344144462814E8 ; 9.213257558641756E9 ; 0.0
55 ; 7710224.276109729 ; 2.007499586482297E8 ; 3.88237842165267E8 ; 9.41400277742601E9 ; 0.0
56 ; 7710377.444816898 ; 2.00754748445315E8 ; 3.9594806644137675E8 ; 9.61475273607424E9 ; 0.0
57 ; 7714335.228506744 ; 2.007595862552879E8 ; 4.0365844388619363E8 ; 9.815507484519554E9 ; 0.0
58 ; 7721606.368954732 ; 2.0076447021525472E8 ; 4.113727791147004E8 ; 1.0016267070774841E10 ; 0.0
59 ; 7719105.707326201 ; 2.007693985185932E8 ; 4.190943854836551E8 ; 1.0217031540990095E10 ; 0.0
60 ; 7723874.4917796 ; 2.0077436941380742E8 ; 4.2681349119098127E8 ; 1.0417800939508688E10 ; 0.0
61 ; 7722669.362449971 ; 2.007793812033113E8 ; 4.345373656827609E8 ; 1.0618575308922495E10 ; 0.0
62 ; 7731478.197416442 ; 2.0078443224215442E8 ; 4.4226003504521084E8 ; 1.0819354690125807E10 ; 0.0
63 ; 7733280.650424274 ; 2.0078952093670338E8 ; 4.4999151324262726E8 ; 1.1020139122367962E10 ; 0.0
64 ; 7732512.034489784 ; 2.007946457432898E8 ; 4.5772479389305156E8 ; 1.1220928643304665E10 ; 0.0
65 ; 7736358.651450584 ; 2.0079980516683558E8 ; 4.654573059275414E8 ; 1.1421723289047955E10 ; 0.0
66 ; 7736946.486640739 ; 2.0080499775946394E8 ; 4.7319366457899195E8 ; 1.162252309421479E10 ; 0.0
67 ; 7738986.143601849 ; 2.0081022211910465E8 ; 4.809306110656327E8 ; 1.1823328091974255E10 ; 0.0
68 ; 7740924.689427485 ; 2.0081547688809988E8 ; 4.8866959720923454E8 ; 1.2024138314093359E10 ; 0.0
69 ; 7743493.431346254 ; 2.0082076075181708E8 ; 4.9641052189866203E8 ; 1.2224953790981459E10 ; 0.0
70 ; 7743319.729542501 ; 2.008260724372739E8 ; 5.0415401533000827E8 ; 1.2425774551733276E10 ; 0.0
71 ; 7746842.33240412 ; 2.008314107117795E8 ; 5.1189733505955076E8 ; 1.262660062417055E10 ; 0.0
72 ; 7747770.154869934 ; 2.0083677438159657E8 ; 5.196441773919549E8 ; 1.2827432034882328E10 ; 0.0
73 ; 7748548.348415446 ; 2.008421622906261E8 ; 5.273919475468248E8 ; 1.3028268809263924E10 ; 0.0
74 ; 7749740.245016002 ; 2.0084757331911913E8 ; 5.3514049589524025E8 ; 1.322911097155455E10 ; 0.0
75 ; 7752010.596764636 ; 2.0085300638241586E8 ; 5.428902361402563E8 ; 1.3429958544873669E10 ; 0.0
76 ; 7754273.48881782 ; 2.0085846042971557E8 ; 5.50642246737021E8 ; 1.3630811551256084E10 ; 0.0
77 ; 7753254.284813746 ; 2.0086393444287717E8 ; 5.583965202258388E8 ; 1.38316700116858E10 ; 0.0
78 ; 7746999.93304678 ; 2.0086942743525246E8 ; 5.661497745106525E8 ; 1.4032533946128677E10 ; 0.0
79 ; 7740688.108191606 ; 2.0087493845055237E8 ; 5.738967744436994E8 ; 1.423340337356393E10 ; 0.0
80 ; 7740484.316074944 ; 2.0088046656174657E8 ; 5.81637462551891E8 ; 1.4434278312014482E10 ; 0.0
81 ; 7728837.474151201 ; 2.00886010869997E8 ; 5.893779468679659E8 ; 1.463515877857623E10 ; 0.0
82 ; 7725565.524912581 ; 2.0089157050362492E8 ; 5.971067843421172E8 ; 1.4836044789446226E10 ; 0.0
83 ; 7722855.851757056 ; 2.008971446171119E8 ; 6.048323498670298E8 ; 1.5036936359949852E10 ; 0.0
84 ; 7714574.297670417 ; 2.00902732390134E8 ; 6.125552057187868E8 ; 1.5237833504566963E10 ; 0.0
85 ; 7710565.43984328 ; 2.0090833302662888E8 ; 6.202697800164572E8 ; 1.5438736236957098E10 ; 0.0
86 ; 7702800.2984006815 ; 2.0091394575389564E8 ; 6.279803454563005E8 ; 1.5639644569983727E10 ; 0.0
87 ; 7702281.077582296 ; 2.0091956982172632E8 ; 6.356831457547011E8 ; 1.5840558515737621E10 ; 0.0
88 ; 7692475.753980647 ; 2.0092520450156885E8 ; 6.433854268322834E8 ; 1.6041478085559347E10 ; 0.0
89 ; 7684662.4034140045 ; 2.0093084908572054E8 ; 6.51077902586264E8 ; 1.6242403290060917E10 ; 0.0
90 ; 7679839.990662048 ; 2.009365028865512E8 ; 6.58762564989678E8 ; 1.6443334139146637E10 ; 0.0
91 ; 7671344.4839790845 ; 2.009421652357557E8 ; 6.664424049803401E8 ; 1.6644270642033188E10 ; 0.0
92 ; 7667663.55897493 ; 2.0094783548363426E8 ; 6.741137494643192E8 ; 1.6845212807268944E10 ; 0.0
93 ; 7655192.723375302 ; 2.0095351299840057E8 ; 6.817814130232942E8 ; 1.7046160642752579E10 ; 0.0
94 ; 7654643.568453612 ; 2.009591971655162E8 ; 6.894366057466695E8 ; 1.724711415575098E10 ; 0.0
95 ; 7644564.179937946 ; 2.009648873870508E8 ; 6.970912493151232E8 ; 1.7448073352916496E10 ; 0.0
96 ; 7639895.294551206 ; 2.0097058308106735E8 ; 7.047358134950612E8 ; 1.7649038240303547E10 ; 0.0
97 ; 7629382.7491346095 ; 2.0097628368103114E8 ; 7.123757087896124E8 ; 1.7850008823384613E10 ; 0.0
98 ; 7619051.593474288 ; 2.0098198863524213E8 ; 7.200050915387471E8 ; 1.8050985107065643E10 ; 0.0
99 ; 7616848.621147819 ; 2.0098769740628976E8 ; 7.276241431322213E8 ; 1.8251967095700886E10 ; 0.0
100 ; 7603791.190154745 ; 2.009934094705292E8 ; 7.352409917533692E8 ; 1.8452954793107174E10 ; 0.0
101 ; 7601463.198976815 ; 2.0099912431757843E8 ; 7.42844782943524E8 ; 1.86539482025777E10 ; 0.0
102 ; 7590293.155977854 ; 2.010048414498353E8 ; 7.504462461425009E8 ; 1.885494732689528E10 ; 0.0
103 ; 7583509.274496742 ; 2.010105603820139E8 ; 7.580365392984787E8 ; 1.9055952168345116E10 ; 0.0
104 ; 7575352.559588208 ; 2.0101628064069948E8 ; 7.656200485729755E8 ; 1.925696272872713E10 ; 0.0
105 ; 7566306.809170998 ; 2.0102200176392096E8 ; 7.731954011325637E8 ; 1.9457979009367832E10 ; 0.0
106 ; 7554606.171856711 ; 2.0102772330074078E8 ; 7.807617079417347E8 ; 1.9659001011131752E10 ; 0.0
107 ; 7548873.582291563 ; 2.0103344481086102E8 ; 7.883163141135914E8 ; 1.986002873443249E10 ; 0.0
108 ; 7539443.5798217915 ; 2.010391658642454E8 ; 7.95865187695883E8 ; 2.006106217924335E10 ; 0.0
109 ; 7523888.2545177685 ; 2.010448860407563E8 ; 8.034046312757049E8 ; 2.0262101345107597E10 ; 0.0
110 ; 7521010.101016056 ; 2.0105060492980626E8 ; 8.109285195302227E8 ; 2.0463146231148354E10 ; 0.0
111 ; 7508963.879870041 ; 2.010563221300239E8 ; 8.184495296312387E8 ; 2.066419683607816E10 ; 0.0
112 ; 7500970.470618524 ; 2.0106203724893236E8 ; 8.259584935111088E8 ; 2.0865253158208183E10 ; 0.0
113 ; 7492902.5006506685 ; 2.010677499026414E8 ; 8.334594639817272E8 ; 2.1066315195457115E10 ; 0.0
114 ; 7483634.561341453 ; 2.0107345971555123E8 ; 8.409523664823779E8 ; 2.1267382945359756E10 ; 0.0
115 ; 7472593.413848411 ; 2.0107916632006854E8 ; 8.484360010437193E8 ; 2.1468456405075306E10 ; 0.0
116 ; 7463227.0081506595 ; 2.010848693563334E8 ; 8.559085944575677E8 ; 2.1669535571395374E10 ; 0.0
117 ; 7451592.818674345 ; 2.0109056847195745E8 ; 8.633718214657184E8 ; 2.187062044075171E10 ; 0.0
118 ; 7442979.892049414 ; 2.0109626332177213E8 ; 8.708234142843927E8 ; 2.2071711009223667E10 ; 0.0
119 ; 7433085.498687822 ; 2.011019535675871E8 ; 8.782663941764421E8 ; 2.227280727254544E10 ; 0.0
120 ; 7420972.830015958 ; 2.01107638877958E8 ; 8.8569947967513E8 ; 2.247390922611303E10 ; 0.0
121 ; 7409588.66358655 ; 2.0111331892796353E8 ; 8.93120452505146E8 ; 2.2675016864990986E10 ; 0.0
122 ; 7399848.447937412 ; 2.0111899339899123E8 ; 9.005300411687325E8 ; 2.287613018391895E10 ; 0.0
123 ; 7390509.15464214 ; 2.0112466197853166E8 ; 9.079298896166699E8 ; 2.307724917731794E10 ; 0.0
124 ; 7377594.180378327 ; 2.011303243599806E8 ; 9.15320398771312E8 ; 2.327837383929647E10 ; 0.0
125 ; 7371818.4986296045 ; 2.01135980242449E8 ; 9.226979929516903E8 ; 2.3479504163656452E10 ; 0.0
126 ; 7355675.294455221 ; 2.0114162933058035E8 ; 9.300698114503199E8 ; 2.3680640143898903E10 ; 0.0
127 ; 7343316.275045112 ; 2.0114727133437514E8 ; 9.37425486744775E8 ; 2.3881781773229485E10 ; 0.0
128 ; 7335169.5767965065 ; 2.01152905969022E8 ; 9.447688030198202E8 ; 2.4082929044563858E10 ; 0.0
129 ; 7322270.435815779 ; 2.0115853295473555E8 ; 9.521039725966167E8 ; 2.428408195053288E10 ; 0.0
130 ; 7308655.020611209 ; 2.011641520166003E8 ; 9.594262430324326E8 ; 2.4485240483487614E10 ; 0.0
131 ; 7289092.49073416 ; 2.0116976288442066E8 ; 9.667348980530437E8 ; 2.4686404635504215E10 ; 0.0
132 ; 7269933.384237722 ; 2.0117536529257664E8 ; 9.74023990543778E8 ; 2.4887574398388638E10 ; 0.0
133 ; 7255251.251583982 ; 2.011809589798851E8 ; 9.812939239280157E8 ; 2.5088749763681213E10 ; 0.0
134 ; 7234235.580851763 ; 2.0118654368946612E8 ; 9.885491751795996E8 ; 2.52899307226611E10 ; 0.0
135 ; 7219035.409857948 ; 2.0119211916861477E8 ; 9.957834107604514E8 ; 2.5491117266350563E10 ; 0.0
136 ; 7202610.429189704 ; 2.011976851686772E8 ; 1.0030024461703094E9 ; 2.5692309385519176E10 ; 0.0
137 ; 7181959.938390224 ; 2.0120324144493204E8 ; 1.0102050565994991E9 ; 2.5893507070687855E10 ; 0.0
138 ; 7164434.440770152 ; 2.012087877564756E8 ; 1.0173870165378894E9 ; 2.6094710312132786E10 ; 0.0
139 ; 7141567.850963272 ; 2.0121432386611181E8 ; 1.0245514509786595E9 ; 2.6295919099889263E10 ; 0.0
140 ; 7122881.603551406 ; 2.0121984954024625E8 ; 1.0316930188296227E9 ; 2.6497133423755375E10 ; 0.0
141 ; 7108770.455650022 ; 2.0122536454878378E8 ; 1.0388159004331741E9 ; 2.669835327329562E10 ; 0.0
142 ; 7088435.80807932 ; 2.0123086866503027E8 ; 1.0459246708888241E9 ; 2.6899578637844402E10 ; 0.0
143 ; 7073593.009221744 ; 2.012363616655979E8 ; 1.0530131066969035E9 ; 2.7100809506509434E10 ; 0.0
144 ; 7050718.864825231 ; 2.0124184333031383E8 ; 1.0600866997061253E9 ; 2.730204586817503E10 ; 0.0
145 ; 7033892.827475689 ; 2.0124731344213244E8 ; 1.0671374185709505E9 ; 2.7503287711505344E10 ; 0.0
146 ; 7027065.678641178 ; 2.0125277178705046E8 ; 1.0741713113984263E9 ; 2.7704535024947475E10 ; 0.0
147 ; 7015231.865910478 ; 2.0125821815402544E8 ; 1.0811983770770674E9 ; 2.7905787796734528E10 ; 0.0
148 ; 6999604.280470505 ; 2.0126365233489716E8 ; 1.088213608942978E9 ; 2.8107046014888554E10 ; 0.0
149 ; 6988237.226008689 ; 2.012690741243118E8 ; 1.0952132132234485E9 ; 2.830830966722345E10 ; 0.0
150 ; 6978022.535880262 ; 2.0127448331964877E8 ; 1.1022014504494572E9 ; 2.8509578741347763E10 ; 0.0
151 ; 6964220.697126713 ; 2.0127987972095048E8 ; 1.1091794729853375E9 ; 2.871085322466741E10 ; 0.0
152 ; 6952763.094330962 ; 2.0128526313085422E8 ; 1.1161436936824641E9 ; 2.8912133104388363E10 ; 0.0
153 ; 6936728.592347275 ; 2.0129063335452676E8 ; 1.1230964567767951E9 ; 2.911341836751922E10 ; 0.0
154 ; 6929162.233435227 ; 2.0129599019960123E8 ; 1.1300331853691425E9 ; 2.9314709000873745E10 ; 0.0
155 ; 6914056.772719331 ; 2.0130133347611612E8 ; 1.1369623476025777E9 ; 2.9516004991073345E10 ; 0.0
156 ; 6905932.781007538 ; 2.0130666299645653E8 ; 1.143876404375297E9 ; 2.971730632454946E10 ; 0.0
157 ; 6889977.926138846 ; 2.0131197857529747E8 ; 1.1507823371563046E9 ; 2.9918612987545918E10 ; 0.0
158 ; 6877520.2428263165 ; 2.0131728002954924E8 ; 1.1576723150824435E9 ; 3.0119924966121216E10 ; 0.0
159 ; 6865028.970046472 ; 2.013225671783045E8 ; 1.1645498353252697E9 ; 3.0321242246150764E10 ; 0.0
160 ; 6853475.151505209 ; 2.0132783984278736E8 ; 1.1714148642953162E9 ; 3.0522564813329067E10 ; 0.0
161 ; 6840358.738336208 ; 2.013330978463043E8 ; 1.1782683394468215E9 ; 3.0723892653171856E10 ; 0.0
162 ; 6826807.231133626 ; 2.0133834101419657E8 ; 1.1851086981851578E9 ; 3.092522575101816E10 ; 0.0
163 ; 6813779.939313209 ; 2.0134356917379442E8 ; 1.1919355054162915E9 ; 3.112656409203236E10 ; 0.0
164 ; 6805770.757165556 ; 2.0134878215437284E8 ; 1.1987492853556046E9 ; 3.1327907661206154E10 ; 0.0
165 ; 6790977.416503091 ; 2.0135397978710878E8 ; 1.2055550561127703E9 ; 3.1529256443360527E10 ; 0.0
166 ; 6777270.665460103 ; 2.0135916190503997E8 ; 1.2123460335292735E9 ; 3.1730610423147636E10 ; 0.0
167 ; 6765537.541623965 ; 2.0136432834302497E8 ; 1.2191233041947336E9 ; 3.1931969585052677E10 ; 0.0
168 ; 6750334.693431789 ; 2.0136947893770468E8 ; 1.2258888417363577E9 ; 3.2133333913395702E10 ; 0.0
169 ; 6742776.705109958 ; 2.0137461352746516E8 ; 1.2326391764297895E9 ; 3.233470339233341E10 ; 0.0
170 ; 6725423.473278896 ; 2.0137973195240176E8 ; 1.2393819531348996E9 ; 3.2536078005860874E10 ; 0.0
171 ; 6711981.281134103 ; 2.0138483405428416E8 ; 1.2461073766081786E9 ; 3.2737457737813274E10 ; 0.0
172 ; 6700935.848444176 ; 2.013899196765231E8 ; 1.2528193578893127E9 ; 3.2938842571867558E10 ; 0.0
173 ; 6689003.5169831235 ; 2.0139498866413772E8 ; 1.259520293737757E9 ; 3.314023249154408E10 ; 0.0
174 ; 6680579.659977822 ; 2.0140004086372432E8 ; 1.26620929725474E9 ; 3.3341627480208218E10 ; 0.0
175 ; 6664763.945052554 ; 2.0140507612342602E8 ; 1.272889876914718E9 ; 3.354302752107194E10 ; 0.0
176 ; 6660921.00784333 ; 2.0141009429290345E8 ; 1.2795546408597705E9 ; 3.3744432597195366E10 ; 0.0
177 ; 6647246.222536523 ; 2.0141509522330645E8 ; 1.2862155618676138E9 ; 3.394584269148827E10 ; 0.0
178 ; 6635903.76335895 ; 2.0142007876724666E8 ; 1.2928628080901504E9 ; 3.4147257786711575E10 ; 0.0
179 ; 6624988.930487238 ; 2.01425044778771E8 ; 1.2994987118535092E9 ; 3.434867786547882E10 ; 0.0
180 ; 6620282.532066712 ; 2.0142999311333615E8 ; 1.3061237007839963E9 ; 3.455010291025759E10 ; 0.0
181 ; 6607611.116776044 ; 2.014349236277837E8 ; 1.3127439833160632E9 ; 3.4751532903370926E10 ; 0.0
182 ; 6597327.758944118 ; 2.0143983618031612E8 ; 1.3193515944328392E9 ; 3.495296782699871E10 ; 0.0
183 ; 6589303.159075586 ; 2.0144473063047373E8 ; 1.3259489221917832E9 ; 3.515440766317902E10 ; 0.0
184 ; 6578682.433662671 ; 2.0144960683911225E8 ; 1.3325382253508587E9 ; 3.5355852393809494E10 ; 0.0
185 ; 6568763.147419262 ; 2.0145446466838092E8 ; 1.3391169077845213E9 ; 3.5557302000648605E10 ; 0.0
186 ; 6554256.320194362 ; 2.0145930398170176E8 ; 1.3456856709319406E9 ; 3.5758756465316986E10 ; 0.0
187 ; 6546331.676625815 ; 2.01464124643749E8 ; 1.3522399272521348E9 ; 3.596021576929869E10 ; 0.0
188 ; 6544905.277326927 ; 2.0146892652042967E8 ; 1.3587862589287605E9 ; 3.616167989394244E10 ; 0.0
189 ; 6528343.378590501 ; 2.014737094788644E8 ; 1.3653311642060874E9 ; 3.636314882046287E10 ; 0.0
190 ; 6521248.981774018 ; 2.0147847338736904E8 ; 1.371859507584678E9 ; 3.6564622529941734E10 ; 0.0
191 ; 6508420.553451207 ; 2.0148321811543685E8 ; 1.378380756566452E9 ; 3.67661010033291E10 ; 0.0
192 ; 6495069.851061107 ; 2.014879435337213E8 ; 1.3848891771199033E9 ; 3.696758422144454E10 ; 0.0
193 ; 6488301.904975919 ; 2.0149264951401925E8 ; 1.3913842469709644E9 ; 3.7169072164978264E10 ; 0.0
194 ; 6478623.46783271 ; 2.0149733592925486E8 ; 1.3978725488759403E9 ; 3.737056481449229E10 ; 0.0
195 ; 6464947.0180923315 ; 2.0150200265346387E8 ; 1.4043511723437731E9 ; 3.757206215042154E10 ; 0.0
196 ; 6455761.09981606 ; 2.0150664956177858E8 ; 1.4108161193618655E9 ; 3.7773564153075005E10 ; 0.0
197 ; 6442830.781509814 ; 2.0151127653041297E8 ; 1.4172718804616816E9 ; 3.797507080263678E10 ; 0.0
198 ; 6441007.4136072835 ; 2.0151588343664864E8 ; 1.4237147112431915E9 ; 3.817658207916719E10 ; 0.0
199 ; 6427852.212429939 ; 2.0152047015882096E8 ; 1.4301557186567988E9 ; 3.8378097962603836E10 ; 0.0
200 ; 6420020.625749414 ; 2.0152503657630578E8 ; 1.4365835708692288E9 ; 3.857961843276266E10 ; 0.0
