CSV File for the City 4 on Day 115
1 - Minute m 
2 - Power Consumed at minute m 
3 - Power Produced at minute m 
4 - Energy Consumed since the beginning of the day 
5 - Energy Produced since the beginning of the day 
6 - Energy Lost since the beginning of the day on lines starting from the city
 
0 ; 6890587.060870449 ; 1.062583070519943E8 ; 0.0 ; 0.0 ; 0.0
1 ; 6894647.4836776685 ; 1.0640887739746106E8 ; 6890587.060870449 ; 1.062583070519943E8 ; 0.0
2 ; 6905403.290427116 ; 1.0686847281088719E8 ; 1.3785234544548117E7 ; 2.1266718444945535E8 ; 0.0
3 ; 6913652.208069262 ; 1.0763709711075765E8 ; 2.069063783497523E7 ; 3.1953565726034254E8 ; 0.0
4 ; 6923598.069726371 ; 1.0871475371573609E8 ; 2.7604290043044493E7 ; 4.271727543711002E8 ; 0.0
5 ; 6936475.768032446 ; 1.1010144562686968E8 ; 3.452788811277086E7 ; 5.358875080868363E8 ; 0.0
6 ; 6953796.887953564 ; 1.1179717541168752E8 ; 4.146436388080331E7 ; 6.45988953713706E8 ; 0.0
7 ; 6977065.368798848 ; 1.1380194519038802E8 ; 4.8418160768756874E7 ; 7.577861291253935E8 ; 0.0
8 ; 7012021.608784168 ; 1.1611575662428719E8 ; 5.539522613755572E7 ; 8.715880743157816E8 ; 0.0
9 ; 7058101.640610132 ; 1.187386109066748E8 ; 6.240724774633989E7 ; 9.877038309400687E8 ; 0.0
10 ; 7140479.528870317 ; 1.2167050875619644E8 ; 6.946534938695002E7 ; 1.1064424418467436E9 ; 0.0
11 ; 7264017.363274193 ; 1.2491145041284767E8 ; 7.660582891582033E7 ; 1.22811295060294E9 ; 0.0
12 ; 7463033.875201335 ; 1.2846143563663289E8 ; 8.386984627909452E7 ; 1.3530244010157878E9 ; 0.0
13 ; 7652212.190424456 ; 1.3232046370890653E8 ; 9.133288015429585E7 ; 1.4814858366524208E9 ; 0.0
14 ; 7674110.884996732 ; 1.364885334363789E8 ; 9.89850923447203E7 ; 1.6138063003613272E9 ; 0.0
15 ; 7681726.7976843575 ; 1.4096564315773386E8 ; 1.0665920322971703E8 ; 1.7502948337977061E9 ; 0.0
16 ; 7691220.926679532 ; 1.4575179075277314E8 ; 1.1434093002740139E8 ; 1.89126047695544E9 ; 0.0
17 ; 7702037.889287993 ; 1.5084697365396753E8 ; 1.2203215095408092E8 ; 2.037012267708213E9 ; 0.0
18 ; 7711537.54248267 ; 1.562511888602699E8 ; 1.2973418884336892E8 ; 2.1878592413621807E9 ; 0.0
19 ; 7721108.372774999 ; 1.619644329530166E8 ; 1.374457263858516E8 ; 2.3441104302224507E9 ; 0.0
20 ; 7728874.228250396 ; 1.6798670211372265E8 ; 1.4516683475862658E8 ; 2.5060748631754675E9 ; 0.0
21 ; 7739180.959458104 ; 1.7431799214356008E8 ; 1.5289570898687696E8 ; 2.6740615652891903E9 ; 0.0
22 ; 7746626.547281333 ; 1.8095829848429257E8 ; 1.6063488994633508E8 ; 2.84837955743275E9 ; 0.0
23 ; 7755991.058134069 ; 1.87907616240434E8 ; 1.683815164936164E8 ; 3.0293378559170427E9 ; 0.0
24 ; 7766770.6988206655 ; 1.9516594020239115E8 ; 1.7613750755175048E8 ; 3.217245472157477E9 ; 0.0
25 ; 7773753.271361901 ; 2.0142130576853707E8 ; 1.8390427825057113E8 ; 3.412411412359868E9 ; 0.0
26 ; 7783412.656613515 ; 2.014272550065081E8 ; 1.9167803152193302E8 ; 3.613832718128405E9 ; 0.0
27 ; 7793339.011796511 ; 2.0143355120279366E8 ; 1.9946144417854655E8 ; 3.8152599731349134E9 ; 0.0
28 ; 7803230.392573127 ; 2.0144018813426378E8 ; 2.0725478319034305E8 ; 4.016693524337707E9 ; 0.0
29 ; 7810138.522560433 ; 2.0144715938603532E8 ; 2.1505801358291617E8 ; 4.218133712471971E9 ; 0.0
30 ; 7818425.068642663 ; 2.014544583757715E8 ; 2.2286815210547662E8 ; 4.4195808718580065E9 ; 0.0
31 ; 7828910.856968801 ; 2.014620783774902E8 ; 2.306865771741193E8 ; 4.621035330233778E9 ; 0.0
32 ; 7837921.523955456 ; 2.0147001254472917E8 ; 2.3851548803108808E8 ; 4.822497408611268E9 ; 0.0
33 ; 7844937.062310568 ; 2.0147825393293586E8 ; 2.4635340955504355E8 ; 5.023967421155997E9 ; 0.0
34 ; 7855812.694206072 ; 2.0148679552096888E8 ; 2.5419834661735412E8 ; 5.225445675088933E9 ; 0.0
35 ; 7862380.93694518 ; 2.0149563023161718E8 ; 2.6205415931156018E8 ; 5.426932470609901E9 ; 0.0
36 ; 7870650.05044102 ; 2.0150475095106187E8 ; 2.6991654024850535E8 ; 5.628428100841518E9 ; 0.0
37 ; 7874849.826248781 ; 2.0151415054722312E8 ; 2.777871902989464E8 ; 5.829932851792581E9 ; 0.0
38 ; 7888366.519678981 ; 2.015238218869519E8 ; 2.8566204012519515E8 ; 6.031447002339804E9 ; 0.0
39 ; 7892391.023676954 ; 2.0153375785204163E8 ; 2.9355040664487416E8 ; 6.232970824226755E9 ; 0.0
40 ; 7900171.9310076125 ; 2.0154395135404894E8 ; 3.014427976685511E8 ; 6.434504582078796E9 ; 0.0
41 ; 7904849.975589292 ; 2.0155439534792548E8 ; 3.093429695995587E8 ; 6.636048533432845E9 ; 0.0
42 ; 7909120.600862108 ; 2.0156508284447443E8 ; 3.17247819575148E8 ; 6.83760292878077E9 ; 0.0
43 ; 7915591.685999085 ; 2.0157600692165476E8 ; 3.251569401760101E8 ; 7.039168011625245E9 ; 0.0
44 ; 7919477.50324932 ; 2.0158716073476434E8 ; 3.3307253186200917E8 ; 7.2407440185469E9 ; 0.0
45 ; 7926548.012971624 ; 2.0159853752554095E8 ; 3.409920093652585E8 ; 7.442331179281664E9 ; 0.0
46 ; 7930021.359527049 ; 2.0161013063022476E8 ; 3.4891855737823015E8 ; 7.643929716807205E9 ; 0.0
47 ; 7933509.969562961 ; 2.0162193348663098E8 ; 3.568485787377572E8 ; 7.84553984743743E9 ; 0.0
48 ; 7937879.196469047 ; 2.0163393964028394E8 ; 3.6478208870732015E8 ; 8.047161780924062E9 ; 0.0
49 ; 7943279.221354826 ; 2.016461427496673E8 ; 3.727199679037892E8 ; 8.248795720564345E9 ; 0.0
50 ; 7947679.247847115 ; 2.0165853659064493E8 ; 3.8066324712514406E8 ; 8.450441863314013E9 ; 0.0
51 ; 7949371.871156417 ; 2.0167111506010875E8 ; 3.886109263729912E8 ; 8.652100399904657E9 ; 0.0
52 ; 7953665.740053126 ; 2.0168387217890906E8 ; 3.965602982441476E8 ; 8.853771514964766E9 ; 0.0
53 ; 7955710.329543824 ; 2.016968020941223E8 ; 4.045139639842007E8 ; 9.055455387143675E9 ; 0.0
54 ; 7959105.140241552 ; 2.017098990807102E8 ; 4.1246967431374454E8 ; 9.257152189237797E9 ; 0.0
55 ; 7961871.807371012 ; 2.017231575426222E8 ; 4.204287794539861E8 ; 9.458862088318506E9 ; 0.0
56 ; 7963741.820133308 ; 2.0173657201339152E8 ; 4.283906512613571E8 ; 9.660585245861128E9 ; 0.0
57 ; 7967014.312352673 ; 2.017501371562728E8 ; 4.3635439308149046E8 ; 9.86232181787452E9 ; 0.0
58 ; 7969184.666621061 ; 2.0176384776396704E8 ; 4.443214073938431E8 ; 1.0064071955030792E10 ; 0.0
59 ; 7970971.548867607 ; 2.0177769875797707E8 ; 4.522905920604642E8 ; 1.026583580279476E10 ; 0.0
60 ; 7973425.254151036 ; 2.0179168518763393E8 ; 4.602615636093318E8 ; 1.0467613501552736E10 ; 0.0
61 ; 7977163.805402149 ; 2.018058022288327E8 ; 4.6823498886348283E8 ; 1.066940518674037E10 ; 0.0
62 ; 7978961.439219335 ; 2.018200451825124E8 ; 4.76212152668885E8 ; 1.0871210988969202E10 ; 0.0
63 ; 7981448.756517943 ; 2.0183440947291383E8 ; 4.8419111410810435E8 ; 1.1073031034151714E10 ; 0.0
64 ; 7982360.273918222 ; 2.018488906456449E8 ; 4.921725628646223E8 ; 1.1274865443624628E10 ; 0.0
65 ; 7984523.445954575 ; 2.0186348436558217E8 ; 5.001549231385405E8 ; 1.1476714334270273E10 ; 0.0
66 ; 7987690.476872387 ; 2.0187818641463336E8 ; 5.0813944658449507E8 ; 1.1678577818635855E10 ; 0.0
67 ; 7987729.120742533 ; 2.0189299268938556E8 ; 5.1612713706136745E8 ; 1.1880456005050488E10 ; 0.0
68 ; 7988310.676928604 ; 2.0190789919865894E8 ; 5.2411486618211E8 ; 1.2082348997739874E10 ; 0.0
69 ; 7992045.468275081 ; 2.0192290206098664E8 ; 5.321031768590386E8 ; 1.2284256896938534E10 ; 0.0
70 ; 7994719.054664694 ; 2.0193799750203747E8 ; 5.400952223273137E8 ; 1.2486179798999521E10 ; 0.0
71 ; 7997205.182455716 ; 2.019531818519976E8 ; 5.480899413819784E8 ; 1.2688117796501558E10 ; 0.0
72 ; 8000950.114137536 ; 2.0196845154292506E8 ; 5.56087146564434E8 ; 1.2890070978353556E10 ; 0.0
73 ; 8003041.201089566 ; 2.0198380310608956E8 ; 5.640880966785716E8 ; 1.309203942989648E10 ; 0.0
74 ; 8002213.916588318 ; 2.019992331693092E8 ; 5.720911378796612E8 ; 1.329402323300257E10 ; 0.0
75 ; 8002019.429346659 ; 2.0201473845429352E8 ; 5.800933517962495E8 ; 1.3496022466171879E10 ; 0.0
76 ; 8003869.46975024 ; 2.0203031577400163E8 ; 5.880953712255962E8 ; 1.3698037204626173E10 ; 0.0
77 ; 8004267.841647069 ; 2.0204596203002325E8 ; 5.960992406953465E8 ; 1.3900067520400175E10 ; 0.0
78 ; 8004226.882375419 ; 2.0206167420998892E8 ; 6.041035085369935E8 ; 1.4102113482430199E10 ; 0.0
79 ; 8001878.548461109 ; 2.0207744938501543E8 ; 6.12107735419369E8 ; 1.4304175156640188E10 ; 0.0
80 ; 8001476.633424775 ; 2.020932847071909E8 ; 6.201096139678301E8 ; 1.4506252606025204E10 ; 0.0
81 ; 7998439.276314577 ; 2.0210917740710402E8 ; 6.281110906012548E8 ; 1.4708345890732395E10 ; 0.0
82 ; 8000983.663554509 ; 2.0212512479142064E8 ; 6.361095298775694E8 ; 1.49104550681395E10 ; 0.0
83 ; 7998612.752482761 ; 2.0214112424051058E8 ; 6.44110513541124E8 ; 1.511258019293092E10 ; 0.0
84 ; 7994681.241997604 ; 2.021571732061273E8 ; 6.521091262936068E8 ; 1.531472131717143E10 ; 0.0
85 ; 7992903.257440764 ; 2.0217326920914134E8 ; 6.601038075356044E8 ; 1.5516878490377558E10 ; 0.0
86 ; 7994829.481433132 ; 2.021894098373302E8 ; 6.680967107930452E8 ; 1.5719051759586699E10 ; 0.0
87 ; 7992254.124585422 ; 2.0220559274322426E8 ; 6.760915402744783E8 ; 1.5921241169424028E10 ; 0.0
88 ; 7988231.253318975 ; 2.0222181564201072E8 ; 6.840837943990637E8 ; 1.6123446762167253E10 ; 0.0
89 ; 7989701.7708243625 ; 2.0223807630949455E8 ; 6.920720256523827E8 ; 1.6325668577809265E10 ; 0.0
90 ; 7988270.864993525 ; 2.0225437258011782E8 ; 7.00061727423207E8 ; 1.652790665411876E10 ; 0.0
91 ; 7983576.960205671 ; 2.022707023450362E8 ; 7.080499982882006E8 ; 1.6730161026698877E10 ; 0.0
92 ; 7982282.491404624 ; 2.02287063550253E8 ; 7.160335752484063E8 ; 1.6932431729043913E10 ; 0.0
93 ; 7985385.96282578 ; 2.0230345419480982E8 ; 7.24015857739811E8 ; 1.7134718792594166E10 ; 0.0
94 ; 7977922.784246502 ; 2.0231987232903314E8 ; 7.320012437026367E8 ; 1.7337022246788975E10 ; 0.0
95 ; 7976352.114259002 ; 2.023363160528363E8 ; 7.399791664868832E8 ; 1.7539342119118008E10 ; 0.0
96 ; 7976315.587176186 ; 2.0235278351407582E8 ; 7.479555186011422E8 ; 1.7741678435170845E10 ; 0.0
97 ; 7972168.526895574 ; 2.0236927290696073E8 ; 7.559318341883184E8 ; 1.794403121868492E10 ; 0.0
98 ; 7968120.0590702 ; 2.023857824705143E8 ; 7.639040027152139E8 ; 1.814640049159188E10 ; 0.0
99 ; 7971236.393288848 ; 2.0240231048708704E8 ; 7.718721227742841E8 ; 1.8348786274062393E10 ; 0.0
100 ; 7966325.018991945 ; 2.0241885528091905E8 ; 7.79843359167573E8 ; 1.855118858454948E10 ; 0.0
101 ; 7962781.9793479545 ; 2.0243541521675143E8 ; 7.878096841865649E8 ; 1.87536074398304E10 ; 0.0
102 ; 7960877.76164592 ; 2.02451988698485E8 ; 7.957724661659129E8 ; 1.895604285504715E10 ; 0.0
103 ; 7958684.065093083 ; 2.0246857416788486E8 ; 8.037333439275588E8 ; 1.9158494843745636E10 ; 0.0
104 ; 7957121.237516144 ; 2.024851701033301E8 ; 8.116920279926518E8 ; 1.936096341791352E10 ; 0.0
105 ; 7951754.786817404 ; 2.0250177501860675E8 ; 8.19649149230168E8 ; 1.956344858801685E10 ; 0.0
106 ; 7949202.114907311 ; 2.0251838746174318E8 ; 8.276009040169854E8 ; 1.9765950363035458E10 ; 0.0
107 ; 7948432.5870599635 ; 2.0253500601388624E8 ; 8.355501061318927E8 ; 1.99684687504972E10 ; 0.0
108 ; 7945406.142113772 ; 2.025516292882172E8 ; 8.434985387189527E8 ; 2.0171003756511086E10 ; 0.0
109 ; 7941248.839040805 ; 2.02568255928906E8 ; 8.514439448610665E8 ; 2.03735553857993E10 ; 0.0
110 ; 7933824.311369143 ; 2.0258488461010286E8 ; 8.593851937001072E8 ; 2.0576123641728207E10 ; 0.0
111 ; 7920131.098802361 ; 2.026015140349656E8 ; 8.673190180114764E8 ; 2.077870852633831E10 ; 0.0
112 ; 7908923.135450651 ; 2.026181429347218E8 ; 8.752391491102787E8 ; 2.0981310040373276E10 ; 0.0
113 ; 7894621.236666067 ; 2.0263477006776467E8 ; 8.831480722457293E8 ; 2.1183928183308E10 ; 0.0
114 ; 7884244.528854094 ; 2.0265139421878105E8 ; 8.910426934823954E8 ; 2.1386562953375763E10 ; 0.0
115 ; 7872218.44884983 ; 2.0266801419791117E8 ; 8.989269380112495E8 ; 2.1589214347594543E10 ; 0.0
116 ; 7856777.582732862 ; 2.0268462883993813E8 ; 9.067991564600993E8 ; 2.1791882361792454E10 ; 0.0
117 ; 7844851.341626117 ; 2.0270123700350693E8 ; 9.146559340428323E8 ; 2.1994566990632393E10 ; 0.0
118 ; 7829734.778108429 ; 2.0271783757037142E8 ; 9.225007853844584E8 ; 2.21972682276359E10 ; 0.0
119 ; 7815849.760939053 ; 2.0273442944466847E8 ; 9.303305201625669E8 ; 2.239998606520627E10 ; 0.0
120 ; 7803304.613609163 ; 2.0275101155221826E8 ; 9.381463699235059E8 ; 2.2602720494650936E10 ; 0.0
121 ; 7787309.022187882 ; 2.027675828398497E8 ; 9.459496745371151E8 ; 2.2805471506203156E10 ; 0.0
122 ; 7775240.058532393 ; 2.0278414227475035E8 ; 9.537369835593029E8 ; 2.3008239089043007E10 ; 0.0
123 ; 7765939.260193186 ; 2.028006888438394E8 ; 9.615122236178353E8 ; 2.3211023231317757E10 ; 0.0
124 ; 7748412.793718107 ; 2.0281722155316365E8 ; 9.692781628780285E8 ; 2.3413823920161594E10 ; 0.0
125 ; 7735262.48761557 ; 2.0283373942731467E8 ; 9.770265756717466E8 ; 2.361664114171476E10 ; 0.0
126 ; 7721819.664126564 ; 2.028502415088675E8 ; 9.847618381593622E8 ; 2.3819474881142075E10 ; 0.0
127 ; 7707817.069122455 ; 2.0286672685783893E8 ; 9.924836578234887E8 ; 2.4022325122650944E10 ; 0.0
128 ; 7693899.807843238 ; 2.0288319455116546E8 ; 1.0001914748926111E9 ; 2.422519184950878E10 ; 0.0
129 ; 7680432.351331389 ; 2.0289964368219998E8 ; 1.0078853747004544E9 ; 2.4428075044059948E10 ; 0.0
130 ; 7665012.181313437 ; 2.029160733602263E8 ; 1.0155658070517857E9 ; 2.463097468774215E10 ; 0.0
131 ; 7650463.726593257 ; 2.02932482709991E8 ; 1.0232308192330991E9 ; 2.4833890761102375E10 ; 0.0
132 ; 7634614.678829444 ; 2.0294887087125212E8 ; 1.0308812829596924E9 ; 2.5036823243812366E10 ; 0.0
133 ; 7617566.277638841 ; 2.0296523699834356E8 ; 1.0385158976385218E9 ; 2.523977211468362E10 ; 0.0
134 ; 7599783.935608705 ; 2.0298158025975543E8 ; 1.0461334639161606E9 ; 2.5442737351681965E10 ; 0.0
135 ; 7580469.519144609 ; 2.0299789983772877E8 ; 1.0537332478517693E9 ; 2.564571893194172E10 ; 0.0
136 ; 7561326.507558111 ; 2.0301419492786488E8 ; 1.061313717370914E9 ; 2.584871683177945E10 ; 0.0
137 ; 7549605.158437124 ; 2.0303046473874834E8 ; 1.0688750438784721E9 ; 2.6051731026707314E10 ; 0.0
138 ; 7532801.210085433 ; 2.030467084915833E8 ; 1.076424649036909E9 ; 2.625476149144606E10 ; 0.0
139 ; 7519704.261379484 ; 2.030629254198426E8 ; 1.0839574502469945E9 ; 2.6457808199937645E10 ; 0.0
140 ; 7498493.250259758 ; 2.030791147689291E8 ; 1.091477154508374E9 ; 2.6660871125357487E10 ; 0.0
141 ; 7480375.275870073 ; 2.030952757958489E8 ; 1.0989756477586339E9 ; 2.6863950240126415E10 ; 0.0
142 ; 7464571.194699113 ; 2.0311140776889592E8 ; 1.106456023034504E9 ; 2.7067045515922264E10 ; 0.0
143 ; 7447219.054821585 ; 2.0312750996734753E8 ; 1.113920594229203E9 ; 2.727015692369116E10 ; 0.0
144 ; 7432464.189353423 ; 2.0314358168117064E8 ; 1.1213678132840245E9 ; 2.7473284433658504E10 ; 0.0
145 ; 7414850.882446297 ; 2.0315962221073806E8 ; 1.128800277473378E9 ; 2.7676428015339676E10 ; 0.0
146 ; 7400455.16247417 ; 2.031756308665546E8 ; 1.1362151283558242E9 ; 2.7879587637550415E10 ; 0.0
147 ; 7387075.368419128 ; 2.031916069689925E8 ; 1.1436155835182984E9 ; 2.808276326841697E10 ; 0.0
148 ; 7375453.580856084 ; 2.0320754984803635E8 ; 1.1510026588867176E9 ; 2.8285954875385963E10 ; 0.0
149 ; 7357309.515839242 ; 2.0322345884303614E8 ; 1.1583781124675736E9 ; 2.8489162425234E10 ; 0.0
150 ; 7341618.232409597 ; 2.0323933330246928E8 ; 1.165735421983413E9 ; 2.8692385884077038E10 ; 0.0
151 ; 7327861.55666828 ; 2.0325517258371046E8 ; 1.1730770402158227E9 ; 2.889562521737951E10 ; 0.0
152 ; 7315583.560062272 ; 2.0327097605280945E8 ; 1.180404901772491E9 ; 2.909888038996322E10 ; 0.0
153 ; 7303237.086276017 ; 2.0328674308427626E8 ; 1.1877204853325531E9 ; 2.930215136601603E10 ; 0.0
154 ; 7285980.157402731 ; 2.0330247306087387E8 ; 1.1950237224188292E9 ; 2.9505438109100307E10 ; 0.0
155 ; 7271703.595910329 ; 2.0331816537341762E8 ; 1.202309702576232E9 ; 2.9708740582161182E10 ; 0.0
156 ; 7254922.867914239 ; 2.0333381942058155E8 ; 1.2095814061721423E9 ; 2.99120587475346E10 ; 0.0
157 ; 7244743.556227929 ; 2.0334943460871118E8 ; 1.2168363290400565E9 ; 3.011539256695518E10 ; 0.0
158 ; 7227957.411638853 ; 2.0336501035164258E8 ; 1.2240810725962844E9 ; 3.0318742001563892E10 ; 0.0
159 ; 7212238.465730692 ; 2.0338054607052737E8 ; 1.2313090300079231E9 ; 3.0522107011915535E10 ; 0.0
160 ; 7196874.037992459 ; 2.0339604119366372E8 ; 1.2385212684736538E9 ; 3.072548755798606E10 ; 0.0
161 ; 7183255.088207704 ; 2.034114951563327E8 ; 1.2457181425116463E9 ; 3.0928883599179726E10 ; 0.0
162 ; 7169324.132765395 ; 2.034269074006404E8 ; 1.252901397599854E9 ; 3.113229509433606E10 ; 0.0
163 ; 7153441.354771044 ; 2.034422773753649E8 ; 1.2600707217326193E9 ; 3.13357220017367E10 ; 0.0
164 ; 7141964.285113457 ; 2.034576045358085E8 ; 1.2672241630873904E9 ; 3.1539164279112064E10 ; 0.0
165 ; 7123772.626015737 ; 2.0347288834365472E8 ; 1.274366127372504E9 ; 3.1742621883647873E10 ; 0.0
166 ; 7110451.818409011 ; 2.0348812826682997E8 ; 1.2814898999985197E9 ; 3.1946094771991528E10 ; 0.0
167 ; 7095304.232602125 ; 2.0350332377936983E8 ; 1.2886003518169286E9 ; 3.2149582900258358E10 ; 0.0
168 ; 7078570.49371316 ; 2.0351847436128947E8 ; 1.2956956560495307E9 ; 3.2353086224037727E10 ; 0.0
169 ; 7066885.968327106 ; 2.0353357949845856E8 ; 1.302774226543244E9 ; 3.2556604698399017E10 ; 0.0
170 ; 7051287.78344981 ; 2.0354863868248004E8 ; 1.309841112511571E9 ; 3.2760138277897476E10 ; 0.0
171 ; 7037884.531966504 ; 2.035636514105728E8 ; 1.3168924002950208E9 ; 3.2963686916579956E10 ; 0.0
172 ; 7021101.074023016 ; 2.0357861718545827E8 ; 1.3239302848269873E9 ; 3.316725056799053E10 ; 0.0
173 ; 7007756.621165416 ; 2.035935355152505E8 ; 1.3309513859010103E9 ; 3.3370829185175987E10 ; 0.0
174 ; 6994540.328853883 ; 2.0360840591334987E8 ; 1.3379591425221758E9 ; 3.357442272069124E10 ; 0.0
175 ; 6979970.6229519835 ; 2.0362322789834017E8 ; 1.3449536828510296E9 ; 3.3778031126604588E10 ; 0.0
176 ; 6968000.666068947 ; 2.0363800099388894E8 ; 1.3519336534739816E9 ; 3.3981654354502926E10 ; 0.0
177 ; 6952060.719823737 ; 2.0365272472865105E8 ; 1.3589016541400506E9 ; 3.4185292355496815E10 ; 0.0
178 ; 6941800.72679714 ; 2.0366739863617513E8 ; 1.3658537148598745E9 ; 3.4388945080225464E10 ; 0.0
179 ; 6928746.027652984 ; 2.0368202225481325E8 ; 1.3727955155866716E9 ; 3.459261247886164E10 ; 0.0
180 ; 6918024.014883891 ; 2.0369659512763336E8 ; 1.3797242616143246E9 ; 3.4796294501116455E10 ; 0.0
181 ; 6903116.925394452 ; 2.037111168023342E8 ; 1.3866422856292086E9 ; 3.499999109624409E10 ; 0.0
182 ; 6891232.222330853 ; 2.0372558683116338E8 ; 1.393545402554603E9 ; 3.5203702213046425E10 ; 0.0
183 ; 6876786.01629825 ; 2.0374000477083763E8 ; 1.400436634776934E9 ; 3.540742779987759E10 ; 0.0
184 ; 6866786.742416016 ; 2.0375437018246573E8 ; 1.4073134207932322E9 ; 3.561116780464842E10 ; 0.0
185 ; 6849114.949686962 ; 2.0376868263147378E8 ; 1.414180207535648E9 ; 3.581492217483089E10 ; 0.0
186 ; 6838230.976435339 ; 2.0378294168753278E8 ; 1.421029322485335E9 ; 3.6018690857462364E10 ; 0.0
187 ; 6822619.732179517 ; 2.0379714692448857E8 ; 1.4278675534617705E9 ; 3.6222473799149895E10 ; 0.0
188 ; 6809418.839206115 ; 2.0381129792029387E8 ; 1.43469017319395E9 ; 3.642627094607439E10 ; 0.0
189 ; 6799688.4636925785 ; 2.0382539425694224E8 ; 1.4414995920331562E9 ; 3.663008224399468E10 ; 0.0
190 ; 6788388.390553547 ; 2.038394355204045E8 ; 1.4482992804968488E9 ; 3.6833907638251625E10 ; 0.0
191 ; 6774682.117327969 ; 2.038534213005666E8 ; 1.4550876688874023E9 ; 3.7037747073772026E10 ; 0.0
192 ; 6762461.623176912 ; 2.0386735119116998E8 ; 1.4618623510047302E9 ; 3.724160049507259E10 ; 0.0
193 ; 6747362.5743377255 ; 2.0388122478975305E8 ; 1.468624812627907E9 ; 3.744546784626376E10 ; 0.0
194 ; 6734749.900618565 ; 2.038950416975952E8 ; 1.4753721752022448E9 ; 3.764934907105352E10 ; 0.0
195 ; 6721491.65695561 ; 2.039088015196619E8 ; 1.4821069251028633E9 ; 3.7853244112751114E10 ; 0.0
196 ; 6708784.646185981 ; 2.039225038645519E8 ; 1.488828416759819E9 ; 3.8057152914270775E10 ; 0.0
197 ; 6695333.902088271 ; 2.0393614834444582E8 ; 1.495537201406005E9 ; 3.826107541813533E10 ; 0.0
198 ; 6684312.413829263 ; 2.0394973457505637E8 ; 1.502232535308093E9 ; 3.8465011566479774E10 ; 0.0
199 ; 6673038.327207534 ; 2.0396326217558E8 ; 1.5089168477219224E9 ; 3.866896130105483E10 ; 0.0
200 ; 6660209.708040131 ; 1.73234766486103E8 ; 1.51558988604913E9 ; 3.8872924563230415E10 ; 0.0
201 ; 6643516.970729789 ; 1.5515014676143605E8 ; 1.5222500957571702E9 ; 3.9046159329716515E10 ; 0.0
