CSV File for the City 3 on Day 353
1 - Minute m 
2 - Power Consumed at minute m 
3 - Power Produced at minute m 
4 - Energy Consumed since the beginning of the day 
5 - Energy Produced since the beginning of the day 
6 - Energy Lost since the beginning of the day on lines starting from the city
 
0 ; 2381962.866830992 ; 1.055241959178038E8 ; 0.0 ; 0.0 ; 0.0
1 ; 2385792.3715661415 ; 1.0567713846156985E8 ; 2381962.866830992 ; 1.055241959178038E8 ; 0.0
2 ; 2387774.102536915 ; 1.0613886332561496E8 ; 4767755.238397134 ; 2.1120133437937364E8 ; 0.0
3 ; 2390433.0810102765 ; 1.0690937205614865E8 ; 7155529.340934048 ; 3.173401977049886E8 ; 0.0
4 ; 2394706.2599756108 ; 1.0798866603974468E8 ; 9545962.421944324 ; 4.2424956976113725E8 ; 0.0
5 ; 2398642.759292904 ; 1.093767464953571E8 ; 1.1940668681919934E7 ; 5.322382358008819E8 ; 0.0
6 ; 2404668.4862336195 ; 1.110736144671621E8 ; 1.4339311441212839E7 ; 6.41614982296239E8 ; 0.0
7 ; 2411334.008492427 ; 1.1307927081832123E8 ; 1.6743979927446458E7 ; 7.526885967634012E8 ; 0.0
8 ; 2423707.0496504903 ; 1.1539371622575271E8 ; 1.9155313935938887E7 ; 8.657678675817224E8 ; 0.0
9 ; 2439366.1945607783 ; 1.180169511759845E8 ; 2.1579020985589378E7 ; 9.811615838074751E8 ; 0.0
10 ; 2467352.7052162522 ; 1.2094897596214807E8 ; 2.4018387180150155E7 ; 1.0991785349834595E9 ; 0.0
11 ; 2506507.9468553048 ; 1.2418979068215737E8 ; 2.6485739885366406E7 ; 1.2201275109456077E9 ; 0.0
12 ; 2573919.1449234597 ; 1.2773939523809841E8 ; 2.899224783222171E7 ; 1.344317301627765E9 ; 0.0
13 ; 2636954.8898392403 ; 1.3159778933683974E8 ; 3.156616697714517E7 ; 1.4720566968658633E9 ; 0.0
14 ; 2644779.1081103273 ; 1.3576497249185348E8 ; 3.420312186698441E7 ; 1.603654486202703E9 ; 0.0
15 ; 2647245.7253556233 ; 1.4024094402622128E8 ; 3.6847900975094736E7 ; 1.7394194586945565E9 ; 0.0
16 ; 2649529.017289416 ; 1.4502570307678172E8 ; 3.949514670045036E7 ; 1.8796604027207778E9 ; 0.0
17 ; 2653847.1228873474 ; 1.5011924859935853E8 ; 4.2144675717739776E7 ; 2.0246861057975595E9 ; 0.0
18 ; 2655720.7089974796 ; 1.5552157937499768E8 ; 4.479852284062713E7 ; 2.174805354396918E9 ; 0.0
19 ; 2659835.948562264 ; 1.612326940171254E8 ; 4.745424354962461E7 ; 2.3303269337719154E9 ; 0.0
20 ; 2664387.076500607 ; 1.6725259097953215E8 ; 5.011407949818687E7 ; 2.491559627789041E9 ; 0.0
21 ; 2666270.764308644 ; 1.7358126856507668E8 ; 5.277846657468748E7 ; 2.6588122187685733E9 ; 0.0
22 ; 2669446.4951405544 ; 1.8021872493500036E8 ; 5.544473733899613E7 ; 2.83239348733365E9 ; 0.0
23 ; 2672447.807940868 ; 1.871649581187384E8 ; 5.811418383413668E7 ; 3.0126122122686505E9 ; 0.0
24 ; 2675233.4529967327 ; 1.9441996602411252E8 ; 6.078663164207755E7 ; 3.199777170387389E9 ; 0.0
25 ; 2679007.2835319885 ; 2.0067178734597605E8 ; 6.346186509507428E7 ; 3.394197136411502E9 ; 0.0
26 ; 2681674.1309860717 ; 2.0067396761372876E8 ; 6.614087237860627E7 ; 3.5948689237574778E9 ; 0.0
27 ; 2684589.420070457 ; 2.0067627372689283E8 ; 6.882254650959234E7 ; 3.7955428913712063E9 ; 0.0
28 ; 2687819.510635119 ; 2.0067870321251133E8 ; 7.15071359296628E7 ; 3.996219165098099E9 ; 0.0
29 ; 2691367.606228259 ; 2.0068125352888322E8 ; 7.419495544029792E7 ; 4.196897868310611E9 ; 0.0
30 ; 2693285.8104528934 ; 2.006839220758334E8 ; 7.688632304652618E7 ; 4.397579121839494E9 ; 0.0
31 ; 2696374.6739967675 ; 2.006867062046906E8 ; 7.957960885697907E7 ; 4.598263043915327E9 ; 0.0
32 ; 2697819.3649559524 ; 2.006896032279096E8 ; 8.227598353097583E7 ; 4.798949750120018E9 ; 0.0
33 ; 2702307.5796425366 ; 2.0069261042828393E8 ; 8.497380289593178E7 ; 4.999639353347928E9 ; 0.0
34 ; 2705018.8130033812 ; 2.0069572506770566E8 ; 8.767611047557431E7 ; 5.200331963776212E9 ; 0.0
35 ; 2706307.022175255 ; 2.006989443954374E8 ; 9.038112928857769E7 ; 5.401027688843918E9 ; 0.0
36 ; 2708597.098793212 ; 2.007022656558712E8 ; 9.308743631075294E7 ; 5.601726633239355E9 ; 0.0
37 ; 2711659.5062970174 ; 2.0070568609575737E8 ; 9.579603340954615E7 ; 5.8024288988952265E9 ; 0.0
38 ; 2713443.3448449625 ; 2.0070920297089338E8 ; 9.850769291584317E7 ; 6.003134584990984E9 ; 0.0
39 ; 2716229.888541417 ; 2.007128135522706E8 ; 1.0122113626068814E8 ; 6.203843787961878E9 ; 0.0
40 ; 2719089.2655625837 ; 2.0071651513168222E8 ; 1.0393736614922956E8 ; 6.404556601514149E9 ; 0.0
41 ; 2719709.2862881254 ; 2.0072030502680176E8 ; 1.0665645541479214E8 ; 6.605273116645831E9 ; 0.0
42 ; 2722469.1728223828 ; 2.0072418058574498E8 ; 1.0937616470108026E8 ; 6.805993421672633E9 ; 0.0
43 ; 2722177.4637155333 ; 2.007281391911332E8 ; 1.1209863387390265E8 ; 7.006717602258378E9 ; 0.0
44 ; 2724556.604635238 ; 2.0073217826367775E8 ; 1.1482081133761819E8 ; 7.207445741449512E9 ; 0.0
45 ; 2726606.3603212507 ; 2.0073629526530895E8 ; 1.1754536794225343E8 ; 7.408177919713189E9 ; 0.0
46 ; 2728331.5907733566 ; 2.0074048770187372E8 ; 1.2027197430257468E8 ; 7.608914214978498E9 ; 0.0
47 ; 2730219.5726959906 ; 2.0074475312542772E8 ; 1.2300030589334804E8 ; 7.809654702680372E9 ; 0.0
48 ; 2729440.0682717767 ; 2.0074908913614863E8 ; 1.2573052546604402E8 ; 8.0103994558057995E9 ; 0.0
49 ; 2732076.450945976 ; 2.0075349338389742E8 ; 1.284599655343158E8 ; 8.211148544941948E9 ; 0.0
50 ; 2732894.0667359643 ; 2.00757963569454E8 ; 1.3119204198526177E8 ; 8.411902038325846E9 ; 0.0
51 ; 2734317.800431477 ; 2.0076249744545436E8 ; 1.3392493605199774E8 ; 8.6126600018953E9 ; 0.0
52 ; 2734770.2515985426 ; 2.0076709281705388E8 ; 1.366592538524292E8 ; 8.813422499340754E9 ; 0.0
53 ; 2734396.8070048275 ; 2.007717475423429E8 ; 1.3939402410402775E8 ; 9.014189592157808E9 ; 0.0
54 ; 2736017.5971473414 ; 2.007764595325374E8 ; 1.421284209110326E8 ; 9.214961339700151E9 ; 0.0
55 ; 2736680.108589982 ; 2.0078122675196812E8 ; 1.4486443850817993E8 ; 9.415737799232689E9 ; 0.0
56 ; 2737614.4726512306 ; 2.007860472178895E8 ; 1.476011186167699E8 ; 9.616519025984657E9 ; 0.0
57 ; 2738206.2180187623 ; 2.007909190001285E8 ; 1.5033873308942115E8 ; 9.817305073202547E9 ; 0.0
58 ; 2738658.351345551 ; 2.0079584022059286E8 ; 1.5307693930743992E8 ; 1.0018095992202675E10 ; 0.0
59 ; 2739211.064181717 ; 2.008008090526554E8 ; 1.5581559765878546E8 ; 1.0218891832423267E10 ; 0.0
60 ; 2741730.259494757 ; 2.0080582372043163E8 ; 1.5855480872296718E8 ; 1.0419692641475924E10 ; 0.0
61 ; 2741844.4744560444 ; 2.008108824979654E8 ; 1.6129653898246193E8 ; 1.0620498465196356E10 ; 0.0
62 ; 2741302.526135755 ; 2.0081598370833614E8 ; 1.6403838345691797E8 ; 1.082130934769432E10 ; 0.0
63 ; 2740794.1711679674 ; 2.008211257227007E8 ; 1.667796859830537E8 ; 1.1022125331402657E10 ; 0.0
64 ; 2741776.3918948197 ; 2.00826306959281E8 ; 1.6952048015422168E8 ; 1.1222946457125357E10 ; 0.0
65 ; 2743853.4434751784 ; 2.0083152588230807E8 ; 1.722622565461165E8 ; 1.1423772764084639E10 ; 0.0
66 ; 2743494.873177013 ; 2.0083678100093174E8 ; 1.750061099895917E8 ; 1.1624604289966948E10 ; 0.0
67 ; 2744707.7665187013 ; 2.0084207086810437E8 ; 1.777496048627687E8 ; 1.182544107096788E10 ; 0.0
68 ; 2743581.841250239 ; 2.008473940794464E8 ; 1.8049431262928742E8 ; 1.2026283141835985E10 ; 0.0
69 ; 2745498.017311225 ; 2.0085274927210012E8 ; 1.8323789447053766E8 ; 1.2227130535915432E10 ; 0.0
70 ; 2745406.104171416 ; 2.008581351235777E8 ; 1.8598339248784888E8 ; 1.2427983285187532E10 ; 0.0
71 ; 2745334.9745776313 ; 2.008635503506091E8 ; 1.887287985920203E8 ; 1.262884142031111E10 ; 0.0
72 ; 2745537.0009414833 ; 2.0086899370799363E8 ; 1.9147413356659794E8 ; 1.2829704970661718E10 ; 0.0
73 ; 2745586.729122039 ; 2.0087446398746017E8 ; 1.9421967056753942E8 ; 1.3030573964369713E10 ; 0.0
74 ; 2746944.861295637 ; 2.0087996001653865E8 ; 1.9696525729666147E8 ; 1.3231448428357174E10 ; 0.0
75 ; 2746780.0585650485 ; 2.008854806574464E8 ; 1.997122021579571E8 ; 1.3432328388373713E10 ; 0.0
76 ; 2747698.9623980355 ; 2.008910248059915E8 ; 2.0245898221652216E8 ; 1.3633213869031158E10 ; 0.0
77 ; 2746887.157325414 ; 2.0089659139049545E8 ; 2.0520668117892018E8 ; 1.383410489383715E10 ; 0.0
78 ; 2745901.2458572416 ; 2.00902179370737E8 ; 2.079535683362456E8 ; 1.4035001485227646E10 ; 0.0
79 ; 2746821.1383989886 ; 2.009077877369185E8 ; 2.1069946958210284E8 ; 1.4235903664598383E10 ; 0.0
80 ; 2745584.0429404415 ; 2.0091341550865608E8 ; 2.134462907205018E8 ; 1.4436811452335302E10 ; 0.0
81 ; 2745340.0458731716 ; 2.0091906173399416E8 ; 2.1619187476344225E8 ; 1.4637724867843958E10 ; 0.0
82 ; 2742618.997354698 ; 2.0092472548844573E8 ; 2.189372148093154E8 ; 1.4838643929577951E10 ; 0.0
83 ; 2743462.7033356414 ; 2.0093040587405828E8 ; 2.216798338066701E8 ; 1.5039568655066397E10 ; 0.0
84 ; 2742459.9659412005 ; 2.0093610201850578E8 ; 2.2442329651000574E8 ; 1.5240499060940454E10 ; 0.0
85 ; 2741108.3649262595 ; 2.0094181307420734E8 ; 2.2716575647594693E8 ; 1.544143516295896E10 ; 0.0
86 ; 2741232.202627173 ; 2.0094753821747187E8 ; 2.2990686484087318E8 ; 1.5642376976033167E10 ; 0.0
87 ; 2740223.9924814496 ; 2.0095327664766932E8 ; 2.3264809704350036E8 ; 1.5843324514250639E10 ; 0.0
88 ; 2738357.9739879193 ; 2.0095902758642772E8 ; 2.353883210359818E8 ; 1.6044277790898308E10 ; 0.0
89 ; 2739499.032621159 ; 2.009647902768565E8 ; 2.381266790099697E8 ; 1.6245236818484735E10 ; 0.0
90 ; 2736581.8897742257 ; 2.0097056398279476E8 ; 2.4086617804259086E8 ; 1.6446201608761593E10 ; 0.0
91 ; 2738185.1528388457 ; 2.0097634798808503E8 ; 2.436027599323651E8 ; 1.6647172172744389E10 ; 0.0
92 ; 2734500.724368105 ; 2.009821415958714E8 ; 2.4634094508520395E8 ; 1.6848148520732473E10 ; 0.0
93 ; 2735421.6918569044 ; 2.0098794412792188E8 ; 2.4907544580957204E8 ; 1.7049130662328344E10 ; 0.0
94 ; 2732337.0222014724 ; 2.009937549239743E8 ; 2.5181086750142893E8 ; 1.7250118606456264E10 ; 0.0
95 ; 2733004.1039910447 ; 2.0099957334110525E8 ; 2.545432045236304E8 ; 1.7451112361380238E10 ; 0.0
96 ; 2730999.072328795 ; 2.0100539875312135E8 ; 2.5727620862762144E8 ; 1.7652111934721344E10 ; 0.0
97 ; 2730997.8042777367 ; 2.0101123054997236E8 ; 2.6000720769995025E8 ; 1.7853117333474464E10 ; 0.0
98 ; 2730163.2595759504 ; 2.010170681371857E8 ; 2.62738205504228E8 ; 1.8054128564024437E10 ; 0.0
99 ; 2728410.248711094 ; 2.0102291093532115E8 ; 2.6546836876380396E8 ; 1.825514563216162E10 ; 0.0
100 ; 2727529.7900206787 ; 2.0102875837944594E8 ; 2.6819677901251504E8 ; 1.8456168543096943E10 ; 0.0
101 ; 2725046.373902883 ; 2.0103460991862887E8 ; 2.709243088025357E8 ; 1.8657197301476387E10 ; 0.0
102 ; 2724854.388099431 ; 2.0104046501545337E8 ; 2.7364935517643857E8 ; 1.8858231911395016E10 ; 0.0
103 ; 2722913.56454363 ; 2.0104632314554846E8 ; 2.76374209564538E8 ; 1.905927237641047E10 ; 0.0
104 ; 2723114.901290746 ; 2.0105218379713735E8 ; 2.790971231290816E8 ; 1.926031869955602E10 ; 0.0
105 ; 2722020.8555480093 ; 2.01058046470603E8 ; 2.818202380303724E8 ; 1.9461370883353157E10 ; 0.0
106 ; 2718797.54816704 ; 2.0106391067806974E8 ; 2.845422588859204E8 ; 1.966242892982376E10 ; 0.0
107 ; 2717169.1960504544 ; 2.0106977594300106E8 ; 2.8726105643408746E8 ; 1.986349284050183E10 ; 0.0
108 ; 2717425.629550285 ; 2.010756417998121E8 ; 2.899782256301379E8 ; 2.006456261644483E10 ; 0.0
109 ; 2715551.2282612678 ; 2.0108150779349706E8 ; 2.926956512596882E8 ; 2.0265638258244644E10 ; 0.0
110 ; 2715121.298756733 ; 2.0108737347927073E8 ; 2.954112024879495E8 ; 2.046671976603814E10 ; 0.0
111 ; 2712164.437733625 ; 2.0109323842222348E8 ; 2.981263237867062E8 ; 2.066780713951741E10 ; 0.0
112 ; 2711429.962173583 ; 2.010991021969894E8 ; 3.0083848822443986E8 ; 2.0868900377939632E10 ; 0.0
113 ; 2710169.8324805684 ; 2.0110496438742685E8 ; 3.0354991818661344E8 ; 2.1069999480136623E10 ; 0.0
114 ; 2710089.15825111 ; 2.0111082458631155E8 ; 3.06260088019094E8 ; 2.127110444452405E10 ; 0.0
115 ; 2707869.9587048413 ; 2.0111668239504072E8 ; 3.089701771773451E8 ; 2.1472215269110363E10 ; 0.0
116 ; 2705095.529145125 ; 2.0112253742334896E8 ; 3.116780471360499E8 ; 2.1673331951505405E10 ; 0.0
117 ; 2702020.368383997 ; 2.0112838928903458E8 ; 3.1438314266519505E8 ; 2.1874454488928753E10 ; 0.0
118 ; 2700949.54800841 ; 2.011342376176964E8 ; 3.1708516303357905E8 ; 2.207558287821779E10 ; 0.0
119 ; 2700776.2640258237 ; 2.011400820424806E8 ; 3.1978611258158743E8 ; 2.2276717115835484E10 ; 0.0
120 ; 2700137.8727651546 ; 2.011459222038368E8 ; 3.2248688884561324E8 ; 2.2477857197877964E10 ; 0.0
121 ; 2697471.446881836 ; 2.011517577492839E8 ; 3.251870267183784E8 ; 2.2679003120081802E10 ; 0.0
122 ; 2697173.039340241 ; 2.0115758833318418E8 ; 3.2788449816526026E8 ; 2.2880154877831085E10 ; 0.0
123 ; 2695306.7239130023 ; 2.0116341361652628E8 ; 3.305816712046005E8 ; 2.308131246616427E10 ; 0.0
124 ; 2692773.25555055 ; 2.0116923326671615E8 ; 3.332769779285135E8 ; 2.3282475879780796E10 ; 0.0
125 ; 2690720.260255945 ; 2.0117504695737594E8 ; 3.359697511840641E8 ; 2.3483645113047512E10 ; 0.0
126 ; 2688328.4678683616 ; 2.0118085436815035E8 ; 3.3866047144432E8 ; 2.3684820160004887E10 ; 0.0
127 ; 2686789.0223388737 ; 2.011866551845203E8 ; 3.413487999121884E8 ; 2.3886001014373035E10 ; 0.0
128 ; 2684682.907597986 ; 2.0119244909762344E8 ; 3.440355889345273E8 ; 2.4087187669557556E10 ; 0.0
129 ; 2682684.3051043022 ; 2.0119823580408138E8 ; 3.4672027184212524E8 ; 2.4288380118655178E10 ; 0.0
130 ; 2680589.113225677 ; 2.0120401500583348E8 ; 3.4940295614722955E8 ; 2.448957835445926E10 ; 0.0
131 ; 2676613.442388214 ; 2.012097864099765E8 ; 3.5208354526045525E8 ; 2.469078236946509E10 ; 0.0
132 ; 2675314.4880096335 ; 2.012155497286105E8 ; 3.547601587028435E8 ; 2.489199215587507E10 ; 0.0
133 ; 2673948.6432035896 ; 2.0122130467869005E8 ; 3.574354731908531E8 ; 2.509320770560368E10 ; 0.0
134 ; 2669194.465314274 ; 2.0122705098188144E8 ; 3.6010942183405674E8 ; 2.529442901028237E10 ; 0.0
135 ; 2667455.589442024 ; 2.0123278836442453E8 ; 3.62778616299371E8 ; 2.549565606126425E10 ; 0.0
136 ; 2663423.950269652 ; 2.0123851655700007E8 ; 3.65446071888813E8 ; 2.5696888849628677E10 ; 0.0
137 ; 2660494.21226708 ; 2.012442352946017E8 ; 3.6810949583908266E8 ; 2.5898127366185677E10 ; 0.0
138 ; 2657845.109226674 ; 2.012499443164127E8 ; 3.7076999005134976E8 ; 2.6099371601480278E10 ; 0.0
139 ; 2655476.5207311613 ; 2.0125564336568695E8 ; 3.7342783516057646E8 ; 2.630062154579669E10 ; 0.0
140 ; 2655110.1068841107 ; 2.0126133218963465E8 ; 3.760833116813076E8 ; 2.650187718916238E10 ; 0.0
141 ; 2649155.910287258 ; 2.0126701053931177E8 ; 3.7873842178819174E8 ; 2.6703138521352016E10 ; 0.0
142 ; 2647701.9576911386 ; 2.012726781695136E8 ; 3.81387577698479E8 ; 2.6904405531891327E10 ; 0.0
143 ; 2645150.809480881 ; 2.012783348386722E8 ; 3.840352796561701E8 ; 2.710567821006084E10 ; 0.0
144 ; 2641581.97902964 ; 2.0128398030875736E8 ; 3.8668043046565104E8 ; 2.7306956544899513E10 ; 0.0
145 ; 2639621.0410223203 ; 2.012896143451813E8 ; 3.893220124446807E8 ; 2.750824052520827E10 ; 0.0
146 ; 2637351.841920647 ; 2.0129523671670654E8 ; 3.91961633485703E8 ; 2.770953013955345E10 ; 0.0
147 ; 2635172.61992854 ; 2.0130084719535723E8 ; 3.9459898532762367E8 ; 2.7910825376270157E10 ; 0.0
148 ; 2631578.187656443 ; 2.0130644555633342E8 ; 3.972341579475522E8 ; 2.8112126223465515E10 ; 0.0
149 ; 2631677.6665585623 ; 2.013120315779285E8 ; 3.9986573613520867E8 ; 2.8313432669021847E10 ; 0.0
150 ; 2628388.270281597 ; 2.0131760504144952E8 ; 4.0249741380176723E8 ; 2.8514744700599773E10 ; 0.0
151 ; 2628113.559126765 ; 2.0132316573114023E8 ; 4.0512580207204884E8 ; 2.8716062305641224E10 ; 0.0
152 ; 2626043.266936606 ; 2.013287134341069E8 ; 4.0775391563117564E8 ; 2.8917385471372364E10 ; 0.0
153 ; 2622110.8984176256 ; 2.0133424794024655E8 ; 4.1037995889811224E8 ; 2.9118714184806473E10 ; 0.0
154 ; 2618784.866408102 ; 2.0133976904217803E8 ; 4.130020697965299E8 ; 2.932004843274672E10 ; 0.0
155 ; 2617853.342196234 ; 2.01345276535175E8 ; 4.15620854662938E8 ; 2.95213882017889E10 ; 0.0
156 ; 2616110.978462254 ; 2.0135077021710157E8 ; 4.182387080051342E8 ; 2.9722733478324074E10 ; 0.0
157 ; 2614492.889147325 ; 2.0135624988835013E8 ; 4.208548189835965E8 ; 2.9924084248541176E10 ; 0.0
158 ; 2612942.7121950598 ; 2.0136171535178113E8 ; 4.2346931187274384E8 ; 3.0125440498429527E10 ; 0.0
159 ; 2609724.4642820735 ; 2.013671664126651E8 ; 4.260822545849389E8 ; 3.0326802213781307E10 ; 0.0
160 ; 2608839.0423029433 ; 2.0137260287862644E8 ; 4.28691979049221E8 ; 3.0528169380193974E10 ; 0.0
161 ; 2603883.7311716806 ; 2.0137802455958948E8 ; 4.3130081809152395E8 ; 3.07295419830726E10 ; 0.0
162 ; 2602341.6743235523 ; 2.013834312677259E8 ; 4.339047018226956E8 ; 3.093092000763219E10 ; 0.0
163 ; 2602185.6240734044 ; 2.0138882281740433E8 ; 4.365070434970192E8 ; 3.1132303438899918E10 ; 0.0
164 ; 2600065.963852772 ; 2.0139419902514145E8 ; 4.3910922912109256E8 ; 3.1333692261717323E10 ; 0.0
165 ; 2597542.7038898985 ; 2.0139955970955467E8 ; 4.417092950849453E8 ; 3.1535086460742466E10 ; 0.0
166 ; 2595163.388908771 ; 2.0140490469131663E8 ; 4.443068377888352E8 ; 3.173648602045202E10 ; 0.0
167 ; 2592501.0004066494 ; 2.0141023379311103E8 ; 4.46902001177744E8 ; 3.1937890925143337E10 ; 0.0
168 ; 2591227.142653281 ; 2.0141554683958983E8 ; 4.494945021781506E8 ; 3.2139301158936447E10 ; 0.0
169 ; 2590312.239356098 ; 2.0142084365733236E8 ; 4.520857293208039E8 ; 3.2340716705776035E10 ; 0.0
170 ; 2585089.6318456726 ; 2.0142612407480508E8 ; 4.5467604156016E8 ; 3.254213754943337E10 ; 0.0
171 ; 2585162.360310731 ; 2.014313879223233E8 ; 4.5726113119200563E8 ; 3.2743563673508175E10 ; 0.0
172 ; 2581412.8557455805 ; 2.0143663503201368E8 ; 4.5984629355231637E8 ; 3.29449950614305E10 ; 0.0
173 ; 2578878.1221849727 ; 2.014418652377784E8 ; 4.624277064080619E8 ; 3.3146431696462513E10 ; 0.0
174 ; 2578387.7419521613 ; 2.0144707837526006E8 ; 4.650065845302469E8 ; 3.334787356170029E10 ; 0.0
175 ; 2577902.25381378 ; 2.0145227428180814E8 ; 4.675849722721991E8 ; 3.354932064007555E10 ; 0.0
176 ; 2575804.868324322 ; 2.014574527964462E8 ; 4.701628745260129E8 ; 3.3750772914357357E10 ; 0.0
177 ; 2573196.9682957595 ; 2.0146261375984037E8 ; 4.7273867939433724E8 ; 3.3952230367153805E10 ; 0.0
178 ; 2571125.4693710236 ; 2.014677570142688E8 ; 4.75311876362633E8 ; 3.4153692980913647E10 ; 0.0
179 ; 2571871.286845469 ; 2.0147288240359205E8 ; 4.77883001832004E8 ; 3.4355160737927914E10 ; 0.0
180 ; 2571818.0347792367 ; 2.0147798977322456E8 ; 4.8045487311884946E8 ; 3.4556633620331505E10 ; 0.0
181 ; 2569344.696681033 ; 2.014830789701068E8 ; 4.830266911536287E8 ; 3.475811161010473E10 ; 0.0
182 ; 2567609.429430923 ; 2.0148814984267864E8 ; 4.855960358503097E8 ; 3.495959468907484E10 ; 0.0
183 ; 2566441.3612174056 ; 2.0149320224085325E8 ; 4.8816364527974063E8 ; 3.516108283891752E10 ; 0.0
184 ; 2565191.2059619324 ; 2.0149823601599202E8 ; 4.90730086640958E8 ; 3.536257604115837E10 ; 0.0
185 ; 2563974.992984271 ; 2.0150325102088037E8 ; 4.9329527784691995E8 ; 3.556407427717436E10 ; 0.0
186 ; 2563257.462908427 ; 2.0150824710970393E8 ; 4.9585925283990425E8 ; 3.5765577528195244E10 ; 0.0
187 ; 2562205.466772446 ; 2.01513224138026E8 ; 4.984225103028127E8 ; 3.596708577530495E10 ; 0.0
188 ; 2559283.7581519876 ; 2.0151818196276534E8 ; 5.0098471576958513E8 ; 3.616859899944297E10 ; 0.0
189 ; 2558864.157409682 ; 2.0152312044217473E8 ; 5.0354399952773714E8 ; 3.637011718140574E10 ; 0.0
190 ; 2557784.290908616 ; 2.0152803943582043E8 ; 5.061028636851468E8 ; 3.6571640301847916E10 ; 0.0
191 ; 2554951.4050373174 ; 2.015329388045619E8 ; 5.0866064797605544E8 ; 3.677316834128374E10 ; 0.0
192 ; 2553599.582036454 ; 2.0153781841053262E8 ; 5.112155993810928E8 ; 3.69747012800883E10 ; 0.0
193 ; 2553863.30919317 ; 2.0154267811712098E8 ; 5.137691989631292E8 ; 3.717623909849883E10 ; 0.0
194 ; 2550862.053618338 ; 2.015475177889523E8 ; 5.163230622723224E8 ; 3.737778177661595E10 ; 0.0
195 ; 2549916.4388854844 ; 2.0155233729187095E8 ; 5.188739243259407E8 ; 3.757932929440491E10 ; 0.0
196 ; 2548613.1834279783 ; 2.0155713649292344E8 ; 5.2142384076482624E8 ; 3.778088163169678E10 ; 0.0
197 ; 2546809.0689754193 ; 2.0156191526034164E8 ; 5.239724539482542E8 ; 3.79824387681897E10 ; 0.0
198 ; 2546382.824532939 ; 2.0156667346352682E8 ; 5.265192630172297E8 ; 3.818400068345004E10 ; 0.0
199 ; 2545822.61654713 ; 2.0157141097303402E8 ; 5.290656458417626E8 ; 3.838556735691357E10 ; 0.0
200 ; 2543890.463200266 ; 2.0157612766055697E8 ; 5.316114684583097E8 ; 3.8587138767886604E10 ; 0.0
