CSV File for the City 4 on Day 40
1 - Minute m 
2 - Power Consumed at minute m 
3 - Power Produced at minute m 
4 - Energy Consumed since the beginning of the day 
5 - Energy Produced since the beginning of the day 
6 - Energy Lost since the beginning of the day on lines starting from the city
 
0 ; 6795159.878321417 ; 1.0563308547185859E8 ; 0.0 ; 0.0 ; 0.0
1 ; 6801550.040888836 ; 1.0578199229549861E8 ; 6795159.878321417 ; 1.0563308547185859E8 ; 0.0
2 ; 6806510.637232944 ; 1.0624005603598222E8 ; 1.3596709919210251E7 ; 2.114150777673572E8 ; 0.0
3 ; 6817679.516294997 ; 1.0700729363113934E8 ; 2.0403220556443196E7 ; 3.176551338033394E8 ; 0.0
4 ; 6825697.848593022 ; 1.0808372079342568E8 ; 2.7220900072738193E7 ; 4.2466242743447876E8 ; 0.0
5 ; 6840320.542753865 ; 1.0946935176218367E8 ; 3.404659792133121E7 ; 5.3274614822790444E8 ; 0.0
6 ; 6855059.782364466 ; 1.1116419906436911E8 ; 4.088691846408508E7 ; 6.422154999900881E8 ; 0.0
7 ; 6878584.583766765 ; 1.1316827329227042E8 ; 4.7741978246449545E7 ; 7.533796990544572E8 ; 0.0
8 ; 6913347.117919691 ; 1.1548158290683818E8 ; 5.462056283021631E7 ; 8.665479723467276E8 ; 0.0
9 ; 6962555.888053537 ; 1.1810413407478756E8 ; 6.1533909948136E7 ; 9.820295552535658E8 ; 0.0
10 ; 7041327.848317292 ; 1.2103593054659855E8 ; 6.849646583618954E7 ; 1.1001336893283534E9 ; 0.0
11 ; 7163935.505355336 ; 1.2427697358096042E8 ; 7.553779368450683E7 ; 1.2211696198749518E9 ; 0.0
12 ; 7362184.285934752 ; 1.2782726191918388E8 ; 8.270172918986216E7 ; 1.3454465934559124E9 ; 0.0
13 ; 7554583.82499076 ; 1.3168679181078893E8 ; 9.006391347579691E7 ; 1.4732738553750963E9 ; 0.0
14 ; 7575420.529399058 ; 1.358555570890605E8 ; 9.761849730078767E7 ; 1.6049606471858852E9 ; 0.0
15 ; 7584249.590471554 ; 1.4033354929304785E8 ; 1.0519391783018672E8 ; 1.7408162042749457E9 ; 0.0
16 ; 7592993.391161131 ; 1.4512075783046272E8 ; 1.1277816742065828E8 ; 1.8811497535679936E9 ; 0.0
17 ; 7600429.355762106 ; 1.5021717017434922E8 ; 1.203711608118194E8 ; 2.0262705113984563E9 ; 0.0
18 ; 7611043.60120574 ; 1.5562277208536494E8 ; 1.2797159016758151E8 ; 2.1764876815728054E9 ; 0.0
19 ; 7616534.737937663 ; 1.6133754785105416E8 ; 1.3558263376878726E8 ; 2.33211045365817E9 ; 0.0
20 ; 7626253.517597764 ; 1.6736148053358695E8 ; 1.4319916850672492E8 ; 2.4934480015092244E9 ; 0.0
21 ; 7633839.127235966 ; 1.736945522180157E8 ; 1.508254220243227E8 ; 2.6608094820428114E9 ; 0.0
22 ; 7646743.11225207 ; 1.8033674425404054E8 ; 1.5845926115155867E8 ; 2.834504034260827E9 ; 0.0
23 ; 7653391.088148812 ; 1.8728803748546797E8 ; 1.6610600426381072E8 ; 3.014840778514868E9 ; 0.0
24 ; 7663153.275659346 ; 1.9454841246285486E8 ; 1.7375939535195953E8 ; 3.2021288160003357E9 ; 0.0
25 ; 7670605.111033829 ; 2.00805890534337E8 ; 1.8142254862761888E8 ; 3.3966772284631906E9 ; 0.0
26 ; 7681937.234776916 ; 2.008140000532287E8 ; 1.890931537386527E8 ; 3.5974831189975276E9 ; 0.0
27 ; 7690616.562991032 ; 2.008224910508494E8 ; 1.9677509097342962E8 ; 3.7982971190507565E9 ; 0.0
28 ; 7698096.659229132 ; 2.0083134460852566E8 ; 2.0446570753642064E8 ; 3.999119610101606E9 ; 0.0
29 ; 7703465.247213754 ; 2.0084054225418875E8 ; 2.1216380419564977E8 ; 4.1999509547101316E9 ; 0.0
30 ; 7714619.009344167 ; 2.0085006604520878E8 ; 2.1986726944286352E8 ; 4.40079149696432E9 ; 0.0
31 ; 7721936.308408101 ; 2.008598986324367E8 ; 2.2758188845220768E8 ; 4.601641563009529E9 ; 0.0
32 ; 7729579.5978954835 ; 2.0087002330739367E8 ; 2.353038247606158E8 ; 4.802501461641966E9 ; 0.0
33 ; 7736399.147696025 ; 2.0088042403463927E8 ; 2.4303340435851127E8 ; 5.00337148494936E9 ; 0.0
34 ; 7745481.878151486 ; 2.008910854713414E8 ; 2.507698035062073E8 ; 5.204251908983999E9 ; 0.0
35 ; 7751291.411692839 ; 2.0090199297599223E8 ; 2.5851528538435876E8 ; 5.40514299445534E9 ; 0.0
36 ; 7760017.566137962 ; 2.0091313260808504E8 ; 2.662665767960516E8 ; 5.606044987431333E9 ; 0.0
37 ; 7767173.749483092 ; 2.0092449112040734E8 ; 2.7402659436218953E8 ; 5.806958120039417E9 ; 0.0
38 ; 7769908.636110037 ; 2.0093605594543043E8 ; 2.8179376811167264E8 ; 6.007882611159824E9 ; 0.0
39 ; 7776906.692651425 ; 2.0094781517709523E8 ; 2.8956367674778265E8 ; 6.208818667105255E9 ; 0.0
40 ; 7785964.092501934 ; 2.0095975754911897E8 ; 2.973405834404341E8 ; 6.409766482282351E9 ; 0.0
41 ; 7789760.641931449 ; 2.0097187241078103E8 ; 3.0512654753293604E8 ; 6.61072623983147E9 ; 0.0
42 ; 7794749.3890243415 ; 2.0098414970099336E8 ; 3.129163081748675E8 ; 6.81169811224225E9 ; 0.0
43 ; 7800434.390117315 ; 2.0099657992132315E8 ; 3.207110575638918E8 ; 7.012682261943244E9 ; 0.0
44 ; 7805834.08324874 ; 2.0100915410851294E8 ; 3.285114919540091E8 ; 7.213678841864567E9 ; 0.0
45 ; 7810616.192390086 ; 2.01021863806938E8 ; 3.3631732603725785E8 ; 7.41468799597308E9 ; 0.0
46 ; 7811092.081766902 ; 2.0103470104134768E8 ; 3.4412794222964793E8 ; 7.615709859780018E9 ; 0.0
47 ; 7815978.610273387 ; 2.010476582901611E8 ; 3.5193903431141484E8 ; 7.816744560821365E9 ; 0.0
48 ; 7818423.069347987 ; 2.0106072845952064E8 ; 3.597550129216882E8 ; 8.0177922191115265E9 ; 0.0
49 ; 7820991.450964987 ; 2.0107390485825306E8 ; 3.675734359910362E8 ; 8.218852947571047E9 ; 0.0
50 ; 7826228.441900337 ; 2.0108718117384303E8 ; 3.7539442744200116E8 ; 8.4199268524293E9 ; 0.0
51 ; 7825043.107769973 ; 2.011005514494868E8 ; 3.832206558839015E8 ; 8.621014033603144E9 ; 0.0
52 ; 7828767.27835017 ; 2.0111401006226495E8 ; 3.9104569899167144E8 ; 8.822114585052631E9 ; 0.0
53 ; 7828734.072425178 ; 2.0112755170244962E8 ; 3.988744662700216E8 ; 9.023228595114897E9 ; 0.0
54 ; 7833780.805476239 ; 2.0114117135394257E8 ; 4.067032003424468E8 ; 9.224356146817347E9 ; 0.0
55 ; 7834966.821022981 ; 2.011548642758275E8 ; 4.1453698114792305E8 ; 9.42549731817129E9 ; 0.0
56 ; 7837442.514420887 ; 2.0116862598500812E8 ; 4.2237194796894604E8 ; 9.626652182447117E9 ; 0.0
57 ; 7837621.204840018 ; 2.0118245223989668E8 ; 4.302093904833669E8 ; 9.827820808432125E9 ; 0.0
58 ; 7840581.170888441 ; 2.0119633902511156E8 ; 4.380470116882069E8 ; 1.0029003260672022E10 ; 0.0
59 ; 7842073.0168133015 ; 2.012102825371386E8 ; 4.4588759285909534E8 ; 1.0230199599697134E10 ; 0.0
60 ; 7842052.89253193 ; 2.0122427917090997E8 ; 4.537296658759086E8 ; 1.0431409882234272E10 ; 0.0
61 ; 7846499.736489752 ; 2.0123832550725108E8 ; 4.6157171876844054E8 ; 1.0632634161405182E10 ; 0.0
62 ; 7846432.205005783 ; 2.012524183011488E8 ; 4.694182185049303E8 ; 1.0833872486912434E10 ; 0.0
63 ; 7846615.212663673 ; 2.012665544707919E8 ; 4.772646507099361E8 ; 1.1035124905213583E10 ; 0.0
64 ; 7845990.97578698 ; 2.0128073108733824E8 ; 4.8511126592259973E8 ; 1.1236391459684376E10 ; 0.0
65 ; 7847387.863134728 ; 2.0129494536536282E8 ; 4.929572568983867E8 ; 1.1437672190771713E10 ; 0.0
66 ; 7849349.438835037 ; 2.0130919465394375E8 ; 5.0080464476152146E8 ; 1.1638967136137075E10 ; 0.0
67 ; 7849698.3053945955 ; 2.0132347642834473E8 ; 5.086539942003565E8 ; 1.184027633079102E10 ; 0.0
68 ; 7851145.055220096 ; 2.0133778828225437E8 ; 5.165036925057511E8 ; 1.2041599807219364E10 ; 0.0
69 ; 7850938.290199263 ; 2.0135212792054558E8 ; 5.2435483756097114E8 ; 1.224293759550162E10 ; 0.0
70 ; 7853234.606994551 ; 2.013664931525192E8 ; 5.322057758511704E8 ; 1.2444289723422165E10 ; 0.0
71 ; 7854139.4751947755 ; 2.013808818855995E8 ; 5.400590104581649E8 ; 1.2645656216574684E10 ; 0.0
72 ; 7852779.69324403 ; 2.0139529211944988E8 ; 5.479131499333597E8 ; 1.2847037098460283E10 ; 0.0
73 ; 7855455.200341321 ; 2.0140972194048032E8 ; 5.557659296266037E8 ; 1.3048432390579733E10 ; 0.0
74 ; 7855647.489024204 ; 2.0142416951671872E8 ; 5.636213848269451E8 ; 1.3249842112520214E10 ; 0.0
75 ; 7854567.543819209 ; 2.0143863309302136E8 ; 5.714770323159692E8 ; 1.3451266282036932E10 ; 0.0
76 ; 7857307.053652555 ; 2.014531109865985E8 ; 5.793315998597884E8 ; 1.3652704915129953E10 ; 0.0
77 ; 7855064.781730694 ; 2.0146760158283335E8 ; 5.87188906913441E8 ; 1.3854158026116552E10 ; 0.0
78 ; 7853309.456028182 ; 2.014821033313736E8 ; 5.950439716951716E8 ; 1.4055625627699387E10 ; 0.0
79 ; 7851093.032845579 ; 2.0149661474247682E8 ; 6.028972811511998E8 ; 1.425710773103076E10 ; 0.0
80 ; 7849662.750759456 ; 2.015111343835917E8 ; 6.107483741840454E8 ; 1.4458604345773237E10 ; 0.0
81 ; 7846781.53073198 ; 2.015256608761592E8 ; 6.185980369348049E8 ; 1.466011548015683E10 ; 0.0
82 ; 7845023.182243258 ; 2.0154019289261755E8 ; 6.26444818465537E8 ; 1.486164114103299E10 ; 0.0
83 ; 7841599.137465346 ; 2.0155472915359798E8 ; 6.342898416477802E8 ; 1.5063181333925608E10 ; 0.0
84 ; 7839948.333045873 ; 2.0156926842529705E8 ; 6.421314407852455E8 ; 1.5264736063079206E10 ; 0.0
85 ; 7835641.29989579 ; 2.015838095170141E8 ; 6.499713891182914E8 ; 1.5466305331504503E10 ; 0.0
86 ; 7835828.289647223 ; 2.0159835127884206E8 ; 6.578070304181871E8 ; 1.5667889141021517E10 ; 0.0
87 ; 7832657.827695578 ; 2.0161289259950164E8 ; 6.656428587078344E8 ; 1.586948749230036E10 ; 0.0
88 ; 7827021.365096851 ; 2.0162743240430856E8 ; 6.7347551653553E8 ; 1.6071100384899862E10 ; 0.0
89 ; 7826720.262617484 ; 2.0164196965326524E8 ; 6.813025379006268E8 ; 1.627272781730417E10 ; 0.0
90 ; 7821329.245800544 ; 2.0165650333926845E8 ; 6.891292581632442E8 ; 1.6474369786957436E10 ; 0.0
91 ; 7819190.421300008 ; 2.01671032486425E8 ; 6.969505874090447E8 ; 1.6676026290296703E10 ; 0.0
92 ; 7817443.18588674 ; 2.016855561484688E8 ; 7.047697778303448E8 ; 1.6877697322783129E10 ; 0.0
93 ; 7813321.531408586 ; 2.0170007340727153E8 ; 7.125872210162315E8 ; 1.7079382878931597E10 ; 0.0
94 ; 7808775.400187799 ; 2.0171458337144205E8 ; 7.204005425476401E8 ; 1.7281082952338867E10 ; 0.0
95 ; 7801511.711135482 ; 2.017290851750076E8 ; 7.282093179478279E8 ; 1.7482797535710308E10 ; 0.0
96 ; 7802563.792273402 ; 2.0174357797617224E8 ; 7.360108296589634E8 ; 1.7684526620885315E10 ; 0.0
97 ; 7797801.734518909 ; 2.0175806095614693E8 ; 7.438133934512368E8 ; 1.788627019886149E10 ; 0.0
98 ; 7793261.400499612 ; 2.0177253331804717E8 ; 7.516111951857557E8 ; 1.8088028259817635E10 ; 0.0
99 ; 7794679.354273319 ; 2.0178699428585356E8 ; 7.594044565862553E8 ; 1.828980079313568E10 ; 0.0
100 ; 7786705.036180351 ; 2.0180144310343114E8 ; 7.671991359405286E8 ; 1.8491587787421535E10 ; 0.0
101 ; 7780614.61219173 ; 2.018158790336042E8 ; 7.74985840976709E8 ; 1.8693389230524967E10 ; 0.0
102 ; 7778125.20110178 ; 2.018303013572829E8 ; 7.827664555889007E8 ; 1.889520510955857E10 ; 0.0
103 ; 7776683.693121951 ; 2.0184470937263814E8 ; 7.905445807900025E8 ; 1.9097035410915855E10 ; 0.0
104 ; 7769832.405027133 ; 2.0185910239432222E8 ; 7.983212644831244E8 ; 1.9298880120288494E10 ; 0.0
105 ; 7764876.95615704 ; 2.018734797527321E8 ; 8.060910968881515E8 ; 1.9500739222682816E10 ; 0.0
106 ; 7762935.986271123 ; 2.0188784079331285E8 ; 8.138559738443086E8 ; 1.9702612702435547E10 ; 0.0
107 ; 7757333.251016252 ; 2.0190218487589863E8 ; 8.216189098305798E8 ; 1.990450054322886E10 ; 0.0
108 ; 7754709.63212387 ; 2.019165113740891E8 ; 8.29376243081596E8 ; 2.010640272810476E10 ; 0.0
109 ; 7751292.978985247 ; 2.0193081967465904E8 ; 8.371309527137198E8 ; 2.0308319239478848E10 ; 0.0
110 ; 7743955.459551348 ; 2.0194510917699948E8 ; 8.44882245692705E8 ; 2.0510250059153507E10 ; 0.0
111 ; 7736160.363414836 ; 2.0195937929258782E8 ; 8.526262011522564E8 ; 2.0712195168330505E10 ; 0.0
112 ; 7734311.002494592 ; 2.0197362944448587E8 ; 8.603623615156713E8 ; 2.0914154547623093E10 ; 0.0
113 ; 7732987.644374253 ; 2.0198785906686413E8 ; 8.680966725181658E8 ; 2.1116128177067577E10 ; 0.0
114 ; 7724542.59791759 ; 2.0200206760455015E8 ; 8.758296601625401E8 ; 2.131811603613444E10 ; 0.0
115 ; 7719596.14615084 ; 2.0201625451260036E8 ; 8.835542027604576E8 ; 2.152011810373899E10 ; 0.0
116 ; 7714293.967428402 ; 2.020304192558936E8 ; 8.912737989066085E8 ; 2.172213435825159E10 ; 0.0
117 ; 7708660.930971357 ; 2.020445613087452E8 ; 8.989880928740369E8 ; 2.1924164777507484E10 ; 0.0
118 ; 7704982.657453251 ; 2.020586801545404E8 ; 9.066967538050083E8 ; 2.212620933881623E10 ; 0.0
119 ; 7697988.643434271 ; 2.0207277528538615E8 ; 9.144017364624616E8 ; 2.232826801897077E10 ; 0.0
120 ; 7694466.620646154 ; 2.0208684620178002E8 ; 9.220997251058959E8 ; 2.2530340794256157E10 ; 0.0
121 ; 7690211.450198467 ; 2.0210089241229576E8 ; 9.29794191726542E8 ; 2.2732427640457935E10 ; 0.0
122 ; 7684714.682781631 ; 2.0211491343328372E8 ; 9.374844031767404E8 ; 2.293452853287023E10 ; 0.0
123 ; 7677844.132786399 ; 2.021289087885864E8 ; 9.45169117859522E8 ; 2.3136643446303516E10 ; 0.0
124 ; 7669219.275965782 ; 2.021428780092675E8 ; 9.528469619923084E8 ; 2.3338772355092102E10 ; 0.0
125 ; 7666495.924920702 ; 2.0215682063335386E8 ; 9.605161812682742E8 ; 2.3540915233101368E10 ; 0.0
126 ; 7660997.79700873 ; 2.0217073620559007E8 ; 9.681826771931949E8 ; 2.3743072053734722E10 ; 0.0
127 ; 7652929.944300484 ; 2.0218462427720445E8 ; 9.758436749902036E8 ; 2.394524278994031E10 ; 0.0
128 ; 7649504.490945157 ; 2.0219848440568617E8 ; 9.834966049345042E8 ; 2.4147427414217514E10 ; 0.0
129 ; 7640700.800896748 ; 2.02212316154573E8 ; 9.911461094254493E8 ; 2.43496258986232E10 ; 0.0
130 ; 7635227.56724735 ; 2.0222611909324855E8 ; 9.98786810226346E8 ; 2.455183821477777E10 ; 0.0
131 ; 7625792.326895379 ; 2.0223989279674947E8 ; 1.0064220377935934E9 ; 2.475406433387102E10 ; 0.0
132 ; 7615799.80942096 ; 2.0225363684558108E8 ; 1.0140478301204888E9 ; 2.495630422666777E10 ; 0.0
133 ; 7607191.8117181165 ; 2.0226735082554168E8 ; 1.0216636299299097E9 ; 2.515855786351335E10 ; 0.0
134 ; 7601979.131184704 ; 2.0228103432755482E8 ; 1.0292708217416278E9 ; 2.5360825214338894E10 ; 0.0
135 ; 7588687.795024959 ; 2.0229468694750935E8 ; 1.0368728008728125E9 ; 2.556310624866645E10 ; 0.0
136 ; 7582099.414648073 ; 2.0230830828610626E8 ; 1.0444614886678375E9 ; 2.576540093561396E10 ; 0.0
137 ; 7574913.52099638 ; 2.02321897948713E8 ; 1.0520435880824856E9 ; 2.5967709243900066E10 ; 0.0
138 ; 7562924.725491587 ; 2.0233545554522374E8 ; 1.0596185016034819E9 ; 2.6170031141848778E10 ; 0.0
139 ; 7555922.34144046 ; 2.0234898068992624E8 ; 1.0671814263289735E9 ; 2.6372366597394E10 ; 0.0
140 ; 7545418.526735879 ; 2.0236247300137436E8 ; 1.074737348670414E9 ; 2.6574715578083927E10 ; 0.0
141 ; 7537336.79473126 ; 2.0237593210226634E8 ; 1.0822827671971498E9 ; 2.67770780510853E10 ; 0.0
142 ; 7528961.7719897805 ; 2.0238935761932838E8 ; 1.0898201039918811E9 ; 2.697945398318757E10 ; 0.0
143 ; 7515264.1778938975 ; 2.0240274918320307E8 ; 1.097349065763871E9 ; 2.7181843340806896E10 ; 0.0
144 ; 7506805.010045455 ; 2.0241610642834312E8 ; 1.1048643299417648E9 ; 2.73842460899901E10 ; 0.0
145 ; 7503618.666460438 ; 2.024294289929092E8 ; 1.1123711349518104E9 ; 2.7586662196418446E10 ; 0.0
146 ; 7495789.831038342 ; 2.0244271651867238E8 ; 1.1198747536182709E9 ; 2.7789091625411354E10 ; 0.0
147 ; 7488211.665414464 ; 2.024559686509209E8 ; 1.127370543449309E9 ; 2.7991534341930027E10 ; 0.0
148 ; 7480965.961095053 ; 2.0246918503837055E8 ; 1.1348587551147237E9 ; 2.8193990310580948E10 ; 0.0
149 ; 7474698.206546314 ; 2.0248236533307916E8 ; 1.1423397210758188E9 ; 2.839645949561932E10 ; 0.0
150 ; 7465364.632836843 ; 2.0249550919036457E8 ; 1.149814419282365E9 ; 2.85989418609524E10 ; 0.0
151 ; 7461813.054300508 ; 2.0250861626872596E8 ; 1.157279783915202E9 ; 2.8801437370142765E10 ; 0.0
152 ; 7453161.530927342 ; 2.0252168622976878E8 ; 1.1647415969695024E9 ; 2.900394598641149E10 ; 0.0
153 ; 7444610.45992059 ; 2.0253471873813242E8 ; 1.1721947585004299E9 ; 2.9206467672641262E10 ; 0.0
154 ; 7439206.656463385 ; 2.025477134614212E8 ; 1.1796393689603505E9 ; 2.9409002391379395E10 ; 0.0
155 ; 7434094.712301023 ; 2.0256067007013798E8 ; 1.187078575616814E9 ; 2.9611550104840816E10 ; 0.0
156 ; 7424769.178582618 ; 2.0257358823762074E8 ; 1.194512670329115E9 ; 2.9814110774910954E10 ; 0.0
157 ; 7417718.0654514255 ; 2.025864676399816E8 ; 1.2019374395076976E9 ; 3.0016684363148575E10 ; 0.0
158 ; 7410166.639816321 ; 2.025993079560483E8 ; 1.209355157573149E9 ; 3.0219270830788555E10 ; 0.0
159 ; 7403992.233806762 ; 2.026121088673083E8 ; 1.2167653242129653E9 ; 3.0421870138744602E10 ; 0.0
160 ; 7398709.496861222 ; 2.0262487005785486E8 ; 1.224169316446772E9 ; 3.062448224761191E10 ; 0.0
161 ; 7388275.789332317 ; 2.0263759121433562E8 ; 1.2315680259436333E9 ; 3.0827107117669765E10 ; 0.0
162 ; 7383556.137612395 ; 2.0265027202590293E8 ; 1.2389563017329657E9 ; 3.10297447088841E10 ; 0.0
163 ; 7373501.201076913 ; 2.026629121841664E8 ; 1.246339857870578E9 ; 3.1232394980910004E10 ; 0.0
164 ; 7368702.8061151495 ; 2.026755113831474E8 ; 1.253713359071655E9 ; 3.143505789309417E10 ; 0.0
165 ; 7360479.576014899 ; 2.026880693192351E8 ; 1.2610820618777702E9 ; 3.1637733404477318E10 ; 0.0
166 ; 7352966.661535512 ; 2.0270058569114468E8 ; 1.2684425414537852E9 ; 3.1840421473796555E10 ; 0.0
167 ; 7343695.591331735 ; 2.0271306019987676E8 ; 1.2757955081153207E9 ; 3.2043122059487698E10 ; 0.0
168 ; 7337984.704265708 ; 2.0272549254867882E8 ; 1.2831392037066524E9 ; 3.2245835119687572E10 ; 0.0
169 ; 7328703.333626295 ; 2.0273788244300795E8 ; 1.290477188410918E9 ; 3.244856061223625E10 ; 0.0
170 ; 7322314.696264689 ; 2.0275022959049514E8 ; 1.2978058917445443E9 ; 3.265129849467926E10 ; 0.0
171 ; 7311816.530916035 ; 2.0276253370091093E8 ; 1.305128206440809E9 ; 3.2854048724269756E10 ; 0.0
172 ; 7309842.8108310085 ; 2.0277479448613247E8 ; 1.312440022971725E9 ; 3.305681125797067E10 ; 0.0
173 ; 7300034.943771932 ; 2.027870116601119E8 ; 1.319749865782556E9 ; 3.3259586052456802E10 ; 0.0
174 ; 7295399.442536312 ; 2.0279918493884593E8 ; 1.327049900726328E9 ; 3.3462373064116913E10 ; 0.0
175 ; 7290886.077825595 ; 2.0281131404034653E8 ; 1.3343453001688643E9 ; 3.366517224905576E10 ; 0.0
176 ; 7287410.273224412 ; 2.0282339868461302E8 ; 1.3416361862466898E9 ; 3.3867983563096107E10 ; 0.0
177 ; 7279341.085526707 ; 2.0283543859360495E8 ; 1.3489235965199142E9 ; 3.407080696178072E10 ; 0.0
178 ; 7277807.537736361 ; 2.0284743349121627E8 ; 1.3562029376054409E9 ; 3.4273642400374325E10 ; 0.0
179 ; 7271839.327255154 ; 2.028593831032504E8 ; 1.3634807451431773E9 ; 3.447648983386554E10 ; 0.0
180 ; 7268222.979602959 ; 2.0287128715739638E8 ; 1.3707525844704325E9 ; 3.467934921696879E10 ; 0.0
181 ; 7265597.960655698 ; 2.0288314538320565E8 ; 1.3780208074500356E9 ; 3.488222050412618E10 ; 0.0
182 ; 7259935.749942811 ; 2.028949575120703E8 ; 1.3852864054106913E9 ; 3.508510364950939E10 ; 0.0
183 ; 7255526.534685145 ; 2.0290672327720156E8 ; 1.392546341160634E9 ; 3.528799860702146E10 ; 0.0
184 ; 7248895.115407774 ; 2.0291844241360947E8 ; 1.3998018676953192E9 ; 3.549090533029866E10 ; 0.0
185 ; 7244878.711912505 ; 2.0293011465808338E8 ; 1.407050762810727E9 ; 3.569382377271227E10 ; 0.0
186 ; 7239682.956164743 ; 2.02941739749173E8 ; 1.4142956415226393E9 ; 3.589675388737035E10 ; 0.0
187 ; 7237112.800893911 ; 2.0295331742717025E8 ; 1.421535324478804E9 ; 3.609969562711953E10 ; 0.0
188 ; 7230964.3980568545 ; 2.0296484743409204E8 ; 1.4287724372796981E9 ; 3.63026489445467E10 ; 0.0
189 ; 7226447.338499542 ; 2.0297632951366344E8 ; 1.4360034016777549E9 ; 3.650561379198079E10 ; 0.0
190 ; 7221549.457143069 ; 2.0298776341130158E8 ; 1.4432298490162544E9 ; 3.670859012149445E10 ; 0.0
191 ; 7216221.519454127 ; 2.0299914887410033E8 ; 1.4504513984733975E9 ; 3.6911577884905754E10 ; 0.0
192 ; 7213110.693688977 ; 2.0301048565081537E8 ; 1.4576676199928517E9 ; 3.7114577033779854E10 ; 0.0
193 ; 7210635.695642802 ; 2.0302177349185008E8 ; 1.4648807306865406E9 ; 3.731758751943067E10 ; 0.0
194 ; 7207098.848889841 ; 2.0303301214924166E8 ; 1.4720913663821833E9 ; 3.752060929292252E10 ; 0.0
195 ; 7198788.844666389 ; 2.0304420137664822E8 ; 1.4792984652310731E9 ; 3.772364230507176E10 ; 0.0
196 ; 7193489.817429339 ; 2.0305534092933598E8 ; 1.4864972540757396E9 ; 3.792668650644841E10 ; 0.0
197 ; 7188116.071842439 ; 2.0306643056416723E8 ; 1.493690743893169E9 ; 3.812974184737775E10 ; 0.0
198 ; 7183845.472050518 ; 2.0307747003958872E8 ; 1.5008788599650114E9 ; 3.833280827794192E10 ; 0.0
199 ; 7179204.172181896 ; 2.0308845911562037E8 ; 1.5080627054370618E9 ; 3.853588574798151E10 ; 0.0
200 ; 7177093.909648452 ; 2.030993975538447E8 ; 1.5152419096092436E9 ; 3.873897420709713E10 ; 0.0
201 ; 7172739.9159363415 ; 1.688767399374243E8 ; 1.522419003518892E9 ; 3.894207360465098E10 ; 0.0
