CSV File for the City 4 on Day 352
1 - Minute m 
2 - Power Consumed at minute m 
3 - Power Produced at minute m 
4 - Energy Consumed since the beginning of the day 
5 - Energy Produced since the beginning of the day 
6 - Energy Lost since the beginning of the day on lines starting from the city
 
0 ; 6828452.88683283 ; 1.0618756121147272E8 ; 0.0 ; 0.0 ; 0.0
1 ; 6833851.979317999 ; 1.0633810688229126E8 ; 6828452.88683283 ; 1.0618756121147272E8 ; 0.0
2 ; 6841104.204005325 ; 1.0679767929852048E8 ; 1.366230486615083E7 ; 2.1252566809376398E8 ; 0.0
3 ; 6848182.589940975 ; 1.0756628257147819E8 ; 2.0503409070156157E7 ; 3.1932334739228445E8 ; 0.0
4 ; 6859722.068271348 ; 1.0864392038611162E8 ; 2.7351591660097133E7 ; 4.2688962996376264E8 ; 0.0
5 ; 6869934.384501512 ; 1.1003059598042166E8 ; 3.421131372836848E7 ; 5.3553355034987426E8 ; 0.0
6 ; 6885557.692271609 ; 1.117263121270338E8 ; 4.108124811286999E7 ; 6.455641463302959E8 ; 0.0
7 ; 6910692.822101412 ; 1.1373107111715722E8 ; 4.79668058051416E7 ; 7.572904584573298E8 ; 0.0
8 ; 6943672.161307803 ; 1.1604487474714696E8 ; 5.487749862724301E7 ; 8.71021529574487E8 ; 0.0
9 ; 6993995.824832999 ; 1.1866772430785275E8 ; 6.182117078855082E7 ; 9.870664043216339E8 ; 0.0
10 ; 7071529.422408604 ; 1.2159962057690197E8 ; 6.881516661338381E7 ; 1.1057341286294866E9 ; 0.0
11 ; 7195098.7792220805 ; 1.2484056381402561E8 ; 7.588669603579243E7 ; 1.2273337492063885E9 ; 0.0
12 ; 7392554.782598067 ; 1.2839055375949267E8 ; 8.308179481501451E7 ; 1.352174313020414E9 ; 0.0
13 ; 7582191.036634625 ; 1.3224958963567573E8 ; 9.047434959761257E7 ; 1.4805648667799067E9 ; 0.0
14 ; 7605045.719826204 ; 1.3641767015172517E8 ; 9.80565406342472E7 ; 1.6128144564155824E9 ; 0.0
15 ; 7616325.248034516 ; 1.4089479351128584E8 ; 1.056615863540734E8 ; 1.7492321265673075E9 ; 0.0
16 ; 7624665.0511302445 ; 1.4568095742314866E8 ; 1.1327791160210793E8 ; 1.8901269200785933E9 ; 0.0
17 ; 7633063.248448535 ; 1.5077615911468807E8 ; 1.2090257665323818E8 ; 2.035807877501742E9 ; 0.0
18 ; 7643231.350794675 ; 1.561803953479032E8 ; 1.2853563990168671E8 ; 2.18658403661643E9 ; 0.0
19 ; 7651442.083357967 ; 1.618936624378468E8 ; 1.361788712524814E8 ; 2.342764431964333E9 ; 0.0
20 ; 7658971.856605271 ; 1.6791595627320108E8 ; 1.4383031333583936E8 ; 2.5046580944021797E9 ; 0.0
21 ; 7666929.583873931 ; 1.742472723387384E8 ; 1.5148928519244462E8 ; 2.6725740506753807E9 ; 0.0
22 ; 7677021.604955082 ; 1.808876057393905E8 ; 1.5915621477631855E8 ; 2.846821323014119E9 ; 0.0
23 ; 7683244.740811045 ; 1.8783695122563916E8 ; 1.6683323638127363E8 ; 3.0277089287535095E9 ; 0.0
24 ; 7693545.9067878015 ; 1.9509530321993983E8 ; 1.7451648112208468E8 ; 3.215545879979149E9 ; 0.0
25 ; 7703951.1585951 ; 2.0135069674207425E8 ; 1.822100270288725E8 ; 3.4106411831990886E9 ; 0.0
26 ; 7712980.614277556 ; 2.013566734736795E8 ; 1.8991397818746758E8 ; 3.611991879941163E9 ; 0.0
27 ; 7723640.177685025 ; 2.0136299631098145E8 ; 1.9762695880174512E8 ; 3.8133485534148426E9 ; 0.0
28 ; 7730447.869871985 ; 2.0136965863933924E8 ; 2.0535059897943014E8 ; 4.014711549725824E9 ; 0.0
29 ; 7739025.610025412 ; 2.0137665365397063E8 ; 2.130810468493021E8 ; 4.2160812083651633E9 ; 0.0
30 ; 7747111.7431028215 ; 2.0138397438692567E8 ; 2.2082007245932752E8 ; 4.417457862019134E9 ; 0.0
31 ; 7753401.398303822 ; 2.0139161373336262E8 ; 2.2856718420243034E8 ; 4.618841836406059E9 ; 0.0
32 ; 7761398.447201539 ; 2.013995644769592E8 ; 2.3632058560073417E8 ; 4.820233450139421E9 ; 0.0
33 ; 7769297.795538928 ; 2.0140781931431556E8 ; 2.4408198404793572E8 ; 5.021633014616381E9 ; 0.0
34 ; 7777774.481831696 ; 2.0141637087823042E8 ; 2.5185128184347466E8 ; 5.2230408339306965E9 ; 0.0
35 ; 7783170.874875932 ; 2.0142521175975543E8 ; 2.5962905632530636E8 ; 5.424457204808927E9 ; 0.0
36 ; 7792670.340241905 ; 2.0143433452895474E8 ; 2.674122272001823E8 ; 5.625882416568682E9 ; 0.0
37 ; 7799468.874286166 ; 2.0144373175431922E8 ; 2.7520489754042417E8 ; 5.827316751097636E9 ; 0.0
38 ; 7807334.142602194 ; 2.014533960208034E8 ; 2.8300436641471034E8 ; 6.028760482851955E9 ; 0.0
39 ; 7813135.072195989 ; 2.0146331994647208E8 ; 2.9081170055731255E8 ; 6.230213878872759E9 ; 0.0
40 ; 7818797.977119916 ; 2.0147349619775903E8 ; 2.9862483562950855E8 ; 6.431677198819231E9 ; 0.0
41 ; 7822735.117367979 ; 2.0148391750335452E8 ; 3.064436336066285E8 ; 6.63315069501699E9 ; 0.0
42 ; 7828906.646817387 ; 2.014945766667508E8 ; 3.1426636872399646E8 ; 6.834634612520344E9 ; 0.0
43 ; 7833338.028718457 ; 2.0150546657748482E8 ; 3.2209527537081385E8 ; 7.036129189187095E9 ; 0.0
44 ; 7839199.19677766 ; 2.0151658022112587E8 ; 3.299286133995323E8 ; 7.23763465576458E9 ; 0.0
45 ; 7842705.967134951 ; 2.0152791068806264E8 ; 3.3776781259630996E8 ; 7.439151235985705E9 ; 0.0
46 ; 7847005.826607815 ; 2.015394511811498E8 ; 3.456105185634449E8 ; 7.640679146673768E9 ; 0.0
47 ; 7852480.399220781 ; 2.015511950222772E8 ; 3.5345752439005274E8 ; 7.842218597854918E9 ; 0.0
48 ; 7856783.852581842 ; 2.0156313565792802E8 ; 3.613100047892735E8 ; 8.043769792877194E9 ; 0.0
49 ; 7855749.944391846 ; 2.0157526666379324E8 ; 3.6916678864185536E8 ; 8.245332928535123E9 ; 0.0
50 ; 7860881.054239782 ; 2.0158758174850994E8 ; 3.770225385862472E8 ; 8.446908195198916E9 ; 0.0
51 ; 7862703.189027901 ; 2.0160007475659084E8 ; 3.84883419640487E8 ; 8.648495776947426E9 ; 0.0
52 ; 7866398.247631702 ; 2.0161273967061093E8 ; 3.927461228295149E8 ; 8.850095851704018E9 ; 0.0
53 ; 7867160.054176007 ; 2.0162557061271587E8 ; 4.0061252107714665E8 ; 9.051708591374628E9 ; 0.0
54 ; 7868308.310995781 ; 2.0163856184551325E8 ; 4.084796811313227E8 ; 9.253334161987345E9 ; 0.0
55 ; 7872255.13212775 ; 2.016517077724073E8 ; 4.1634798944231844E8 ; 9.454972723832857E9 ; 0.0
56 ; 7877106.105602611 ; 2.0166500293743226E8 ; 4.242202445744462E8 ; 9.656624431605265E9 ; 0.0
57 ; 7878914.35091949 ; 2.016784420246389E8 ; 4.320973506800488E8 ; 9.858289434542696E9 ; 0.0
58 ; 7881358.65779983 ; 2.0169201985708338E8 ; 4.399762650309683E8 ; 1.0059967876567335E10 ; 0.0
59 ; 7876793.93237615 ; 2.017057313954666E8 ; 4.4785762368876815E8 ; 1.026165989642442E10 ; 0.0
60 ; 7882156.893882168 ; 2.017195717364662E8 ; 4.557344176211443E8 ; 1.0463365627819885E10 ; 0.0
61 ; 7884383.890710352 ; 2.017335361108034E8 ; 4.6361657451502645E8 ; 1.066508519955635E10 ; 0.0
62 ; 7887627.8103144895 ; 2.017476198810803E8 ; 4.715009584057368E8 ; 1.0866818735667154E10 ; 0.0
63 ; 7888633.255747176 ; 2.0176181853942335E8 ; 4.793885862160513E8 ; 1.1068566355548235E10 ; 0.0
64 ; 7889947.841636897 ; 2.0177612770496333E8 ; 4.872772194717985E8 ; 1.1270328174087658E10 ; 0.0
65 ; 7887255.133767579 ; 2.0179054312118074E8 ; 4.951671673134354E8 ; 1.1472104301792622E10 ; 0.0
66 ; 7892592.872425024 ; 2.0180506065314245E8 ; 5.03054422447203E8 ; 1.1673894844913803E10 ; 0.0
67 ; 7892109.223633062 ; 2.018196762846531E8 ; 5.10947015319628E8 ; 1.1875699905566946E10 ; 0.0
68 ; 7893140.162578754 ; 2.0183438611534175E8 ; 5.1883912454326105E8 ; 1.2077519581851599E10 ; 0.0
69 ; 7895798.873613426 ; 2.0184918635770342E8 ; 5.267322647058398E8 ; 1.227935396796694E10 ; 0.0
70 ; 7895717.206447646 ; 2.0186407333411124E8 ; 5.3462806357945323E8 ; 1.2481203154324644E10 ; 0.0
71 ; 7901531.236998108 ; 2.0187904347381535E8 ; 5.425237807859008E8 ; 1.2683067227658756E10 ; 0.0
72 ; 7898906.4993658895 ; 2.018940933099405E8 ; 5.504253120228989E8 ; 1.2884946271132572E10 ; 0.0
73 ; 7897618.094158587 ; 2.0190921947649467E8 ; 5.583242185222648E8 ; 1.3086840364442513E10 ; 0.0
74 ; 7900227.126691863 ; 2.0192441870539877E8 ; 5.662218366164234E8 ; 1.3288749583919006E10 ; 0.0
75 ; 7900120.473211371 ; 2.019396878235457E8 ; 5.741220637431152E8 ; 1.3490674002624405E10 ; 0.0
76 ; 7903060.296788509 ; 2.019550237498968E8 ; 5.820221842163266E8 ; 1.369261369044795E10 ; 0.0
77 ; 7902390.873985408 ; 2.0197042349262202E8 ; 5.89925244513115E8 ; 1.3894568714197847E10 ; 0.0
78 ; 7900223.198951541 ; 2.0198588414628908E8 ; 5.978276353871005E8 ; 1.409653913769047E10 ; 0.0
79 ; 7900059.688340049 ; 2.020014028891065E8 ; 6.05727858586052E8 ; 1.429852502183676E10 ; 0.0
80 ; 7897497.152012508 ; 2.02016976980224E8 ; 6.13627918274392E8 ; 1.4500526424725866E10 ; 0.0
81 ; 7896524.862786333 ; 2.0203260375709352E8 ; 6.215254154264045E8 ; 1.470254340170609E10 ; 0.0
82 ; 7893875.708772443 ; 2.0204828063289297E8 ; 6.294219402891908E8 ; 1.4904576005463184E10 ; 0.0
83 ; 7892142.99156706 ; 2.0206400509401497E8 ; 6.373158159979632E8 ; 1.5106624286096077E10 ; 0.0
84 ; 7889100.47218223 ; 2.0207977469762158E8 ; 6.452079589895302E8 ; 1.5308688291190092E10 ; 0.0
85 ; 7885504.386346681 ; 2.0209558706926602E8 ; 6.530970594617125E8 ; 1.5510768065887714E10 ; 0.0
86 ; 7886760.644311145 ; 2.0211143990058166E8 ; 6.609825638480592E8 ; 1.571286365295698E10 ; 0.0
87 ; 7880923.286525092 ; 2.0212733094703904E8 ; 6.688693244923704E8 ; 1.5914975092857561E10 ; 0.0
88 ; 7878362.0479974905 ; 2.0214325802576986E8 ; 6.767502477788955E8 ; 1.61171024238046E10 ; 0.0
89 ; 7876731.766000819 ; 2.0215921901345843E8 ; 6.84628609826893E8 ; 1.631924568183037E10 ; 0.0
90 ; 7874881.318580895 ; 2.021752118442992E8 ; 6.925053415928938E8 ; 1.6521404900843828E10 ; 0.0
91 ; 7871590.10787584 ; 2.0219123450802004E8 ; 7.003802229114747E8 ; 1.6723580112688128E10 ; 0.0
92 ; 7867124.435908389 ; 2.0220728504797024E8 ; 7.082518130193505E8 ; 1.6925771347196148E10 ; 0.0
93 ; 7865556.971207969 ; 2.0222336155927154E8 ; 7.16118937455259E8 ; 1.7127978632244118E10 ; 0.0
94 ; 7861796.539186186 ; 2.0223946218703204E8 ; 7.23984494426467E8 ; 1.733020199380339E10 ; 0.0
95 ; 7858697.611388411 ; 2.0225558512462032E8 ; 7.318462909656532E8 ; 1.753244145599042E10 ; 0.0
96 ; 7858045.321776971 ; 2.022717286119996E8 ; 7.397049885770416E8 ; 1.773469704111504E10 ; 0.0
97 ; 7855560.254515216 ; 2.0228789093411976E8 ; 7.475630338988186E8 ; 1.793696876972704E10 ; 0.0
98 ; 7850176.0134829 ; 2.023040704193657E8 ; 7.554185941533338E8 ; 1.813925666066116E10 ; 0.0
99 ; 7849923.508903631 ; 2.0232026543806112E8 ; 7.632687701668167E8 ; 1.8341560731080524E10 ; 0.0
100 ; 7846673.319493412 ; 2.0233647440102524E8 ; 7.711186936757203E8 ; 1.8543880996518585E10 ; 0.0
101 ; 7841460.95002838 ; 2.0235269575818184E8 ; 7.789653669952137E8 ; 1.874621747091961E10 ; 0.0
102 ; 7834781.459213522 ; 2.0236892799721834E8 ; 7.868068279452422E8 ; 1.894857016667779E10 ; 0.0
103 ; 7835551.766840976 ; 2.0238516964229375E8 ; 7.946416094044557E8 ; 1.915093909467501E10 ; 0.0
104 ; 7831009.94059616 ; 2.024014192527936E8 ; 8.024771611712966E8 ; 1.9353324264317303E10 ; 0.0
105 ; 7828720.146280432 ; 2.024176754221309E8 ; 8.103081711118927E8 ; 1.9555725683570095E10 ; 0.0
106 ; 7823757.671169534 ; 2.0243393677659085E8 ; 8.181368912581731E8 ; 1.9758143358992226E10 ; 0.0
107 ; 7819416.924137799 ; 2.024502019742183E8 ; 8.259606489293426E8 ; 1.9960577295768818E10 ; 0.0
108 ; 7816266.750948304 ; 2.0246646970374653E8 ; 8.337800658534805E8 ; 2.0163027497743034E10 ; 0.0
109 ; 7814153.477835494 ; 2.0248273868356556E8 ; 8.415963326044288E8 ; 2.036549396744678E10 ; 0.0
110 ; 7805939.577207949 ; 2.0249900766072893E8 ; 8.494104860822643E8 ; 2.056797670613035E10 ; 0.0
111 ; 7805658.91039341 ; 2.025152754099975E8 ; 8.572164256594722E8 ; 2.0770475713791077E10 ; 0.0
112 ; 7800274.012634878 ; 2.0253154073291856E8 ; 8.650220845698656E8 ; 2.0972990989201073E10 ; 0.0
113 ; 7795714.809048039 ; 2.0254780245693967E8 ; 8.728223585825005E8 ; 2.117552252993399E10 ; 0.0
114 ; 7792442.095142953 ; 2.0256405943455538E8 ; 8.806180733915485E8 ; 2.137807033239093E10 ; 0.0
115 ; 7786813.2812397955 ; 2.025803105424858E8 ; 8.884105154866915E8 ; 2.1580634391825485E10 ; 0.0
116 ; 7780358.390388924 ; 2.025965546808859E8 ; 8.961973287679312E8 ; 2.178321470236797E10 ; 0.0
117 ; 7780509.116654244 ; 2.0261279077258423E8 ; 9.039776871583202E8 ; 2.1985811257048855E10 ; 0.0
118 ; 7773381.387247445 ; 2.0262901776235014E8 ; 9.117581962749745E8 ; 2.2188424047821438E10 ; 0.0
119 ; 7769296.816135335 ; 2.0264523461618835E8 ; 9.195315776622219E8 ; 2.239105306558379E10 ; 0.0
120 ; 7767319.581633074 ; 2.026614403206596E8 ; 9.273008744783572E8 ; 2.2593698300199978E10 ; 0.0
121 ; 7761741.40698396 ; 2.0267763388222706E8 ; 9.350681940599903E8 ; 2.2796359740520638E10 ; 0.0
122 ; 7754101.887470134 ; 2.0269381432662636E8 ; 9.428299354669743E8 ; 2.2999037374402866E10 ; 0.0
123 ; 7749532.457026601 ; 2.027099806982597E8 ; 9.505840373544444E8 ; 2.3201731188729492E10 ; 0.0
124 ; 7745420.014327094 ; 2.027261320596121E8 ; 9.58333569811471E8 ; 2.3404441169427753E10 ; 0.0
125 ; 7740502.03688012 ; 2.0274226749068922E8 ; 9.66078989825798E8 ; 2.3607167301487366E10 ; 0.0
126 ; 7733796.2580384035 ; 2.027583860884762E8 ; 9.738194918626782E8 ; 2.3809909568978054E10 ; 0.0
127 ; 7730309.59550813 ; 2.0277448696641633E8 ; 9.815532881207166E8 ; 2.4012667955066532E10 ; 0.0
128 ; 7724123.032156277 ; 2.02790569253909E8 ; 9.892835977162247E8 ; 2.4215442442032948E10 ; 0.0
129 ; 7717078.337169666 ; 2.02806632095826E8 ; 9.970077207483809E8 ; 2.4418233011286858E10 ; 0.0
130 ; 7715027.072212597 ; 2.0282267465204585E8 ; 1.0047247990855505E9 ; 2.4621039643382683E10 ; 0.0
131 ; 7706893.321262049 ; 2.028386960970048E8 ; 1.0124398261577631E9 ; 2.482386231803473E10 ; 0.0
132 ; 7694757.559986243 ; 2.0285469561926466E8 ; 1.0201467194790251E9 ; 2.5026701014131733E10 ; 0.0
133 ; 7690147.969942979 ; 2.0287067242109606E8 ; 1.0278414770390114E9 ; 2.5229555709751E10 ; 0.0
134 ; 7680353.656354494 ; 2.02886625718077E8 ; 1.0355316250089543E9 ; 2.5432426382172096E10 ; 0.0
135 ; 7672393.130435289 ; 2.0290255473870617E8 ; 1.0432119786653088E9 ; 2.5635313007890175E10 ; 0.0
136 ; 7666376.37523633 ; 2.0291845872402978E8 ; 1.0508843717957442E9 ; 2.583821556262888E10 ; 0.0
137 ; 7655941.83756517 ; 2.0293433692728245E8 ; 1.0585507481709805E9 ; 2.604113402135291E10 ; 0.0
138 ; 7648520.163945965 ; 2.0295018861354062E8 ; 1.0662066900085456E9 ; 2.6244068358280193E10 ; 0.0
139 ; 7641193.482747352 ; 2.029660130593886E8 ; 1.0738552101724916E9 ; 2.6447018546893734E10 ; 0.0
140 ; 7630937.253753199 ; 2.0298180955259654E8 ; 1.0814964036552389E9 ; 2.664998455995312E10 ; 0.0
141 ; 7621115.752501062 ; 2.0299757739180997E8 ; 1.089127340908992E9 ; 2.685296636950572E10 ; 0.0
142 ; 7613473.592687244 ; 2.030133158862503E8 ; 1.096748456661493E9 ; 2.705596394689753E10 ; 0.0
143 ; 7607046.485002565 ; 2.0302902435542598E8 ; 1.1043619302541802E9 ; 2.725897726278378E10 ; 0.0
144 ; 7598056.3941106815 ; 2.0304470212885413E8 ; 1.1119689767391827E9 ; 2.7462006287139206E10 ; 0.0
145 ; 7592287.047477534 ; 2.0306034854579163E8 ; 1.1195670331332934E9 ; 2.766505098926806E10 ; 0.0
146 ; 7586638.988567674 ; 2.0307596295497602E8 ; 1.1271593201807709E9 ; 2.786811133781385E10 ; 0.0
147 ; 7580915.79380829 ; 2.030915447143753E8 ; 1.1347459591693385E9 ; 2.8071187300768826E10 ; 0.0
148 ; 7575468.354948988 ; 2.031070931909466E8 ; 1.1423268749631467E9 ; 2.82742788454832E10 ; 0.0
149 ; 7567680.193209164 ; 2.0312260776040334E8 ; 1.1499023433180957E9 ; 2.847738593867415E10 ; 0.0
150 ; 7562300.947611711 ; 2.0313808780699027E8 ; 1.1574700235113049E9 ; 2.868050854643455E10 ; 0.0
151 ; 7556561.6060955655 ; 2.031535327232665E8 ; 1.1650323244589167E9 ; 2.8883646634241543E10 ; 0.0
152 ; 7549166.336311718 ; 2.031689419098963E8 ; 1.1725888860650122E9 ; 2.908680016696481E10 ; 0.0
153 ; 7542531.213210897 ; 2.0318431477544644E8 ; 1.180138052401324E9 ; 2.9289969108874706E10 ; 0.0
154 ; 7535954.603738014 ; 2.0319965073619124E8 ; 1.1876805836145349E9 ; 2.9493153423650154E10 ; 0.0
155 ; 7531885.26455626 ; 2.0321494921592385E8 ; 1.195216538218273E9 ; 2.9696353074386345E10 ; 0.0
156 ; 7525193.117702313 ; 2.0323020964577413E8 ; 1.202748423482829E9 ; 2.989956802360227E10 ; 0.0
157 ; 7521877.463695608 ; 2.0324543146403292E8 ; 1.2102736166005313E9 ; 3.0102798233248043E10 ; 0.0
158 ; 7513319.12750075 ; 2.0326061411598194E8 ; 1.2177954940642269E9 ; 3.0306043664712074E10 ; 0.0
159 ; 7507614.657616096 ; 2.0327575705372977E8 ; 1.2253088131917276E9 ; 3.0509304278828056E10 ; 0.0
160 ; 7501098.042950149 ; 2.032908597360532E8 ; 1.2328164278493438E9 ; 3.0712580035881786E10 ; 0.0
161 ; 7495342.405025037 ; 2.0330592162824404E8 ; 1.240317525892294E9 ; 3.091587089561784E10 ; 0.0
162 ; 7488834.039523634 ; 2.0332094220196104E8 ; 1.247812868297319E9 ; 3.1119176817246082E10 ; 0.0
163 ; 7480573.342254049 ; 2.0333592093508673E8 ; 1.2553017023368425E9 ; 3.1322497759448044E10 ; 0.0
164 ; 7475460.041715322 ; 2.0335085731158918E8 ; 1.2627822756790967E9 ; 3.152583368038313E10 ; 0.0
165 ; 7469915.080471185 ; 2.0336575082138824E8 ; 1.270257735720812E9 ; 3.1729184537694717E10 ; 0.0
166 ; 7461340.990209145 ; 2.0338060096022627E8 ; 1.2777276508012834E9 ; 3.1932550288516106E10 ; 0.0
167 ; 7457809.680630319 ; 2.0339540722954318E8 ; 1.2851889917914925E9 ; 3.2135930889476334E10 ; 0.0
168 ; 7448069.838038042 ; 2.034101691363556E8 ; 1.2926468014721227E9 ; 3.2339326296705875E10 ; 0.0
169 ; 7444074.109746138 ; 2.0342488619314E8 ; 1.3000948713101606E9 ; 3.254273646584223E10 ; 0.0
170 ; 7439559.760369365 ; 2.034395579177197E8 ; 1.3075389454199069E9 ; 3.274616135203537E10 ; 0.0
171 ; 7429511.486184461 ; 2.0345418383315554E8 ; 1.3149785051802762E9 ; 3.294960090995309E10 ; 0.0
172 ; 7424828.861592364 ; 2.034687634676402E8 ; 1.3224080166664605E9 ; 3.3153055093786247E10 ; 0.0
173 ; 7418618.129304847 ; 2.0348329635439584E8 ; 1.3298328455280528E9 ; 3.3356523857253887E10 ; 0.0
174 ; 7415232.040223918 ; 2.0349778203157517E8 ; 1.3372514636573577E9 ; 3.3560007153608284E10 ; 0.0
175 ; 7411815.259561842 ; 2.0351222004216576E8 ; 1.3446666956975815E9 ; 3.376350493563986E10 ; 0.0
176 ; 7405471.869360758 ; 2.0352660993389738E8 ; 1.3520785109571433E9 ; 3.3967017155682022E10 ; 0.0
177 ; 7401500.202504564 ; 2.035409512591522E8 ; 1.359483982826504E9 ; 3.417054376561592E10 ; 0.0
178 ; 7397334.8788642455 ; 2.0355524357487828E8 ; 1.3668854830290086E9 ; 3.437408471687508E10 ; 0.0
179 ; 7389945.31242706 ; 2.0356948644250536E8 ; 1.374282817907873E9 ; 3.457763996044995E10 ; 0.0
180 ; 7389120.518341801 ; 2.0358367942786366E8 ; 1.3816727632203E9 ; 3.4781209446892456E10 ; 0.0
181 ; 7386937.347973021 ; 2.0359782210110518E8 ; 1.3890618837386417E9 ; 3.498479312632032E10 ; 0.0
182 ; 7378715.0453098165 ; 2.0361191403662753E8 ; 1.3964488210866148E9 ; 3.5188390948421425E10 ; 0.0
183 ; 7375740.739146404 ; 2.0362595481300014E8 ; 1.4038275361319246E9 ; 3.539200286245805E10 ; 0.0
184 ; 7374246.693657398 ; 2.0363994401289278E8 ; 1.411203276871071E9 ; 3.559562881727106E10 ; 0.0
185 ; 7370073.912393524 ; 2.0365388122300652E8 ; 1.4185775235647285E9 ; 3.579926876128395E10 ; 0.0
186 ; 7363956.325501976 ; 2.0366776603400663E8 ; 1.425947597477122E9 ; 3.600292264250696E10 ; 0.0
187 ; 7360401.8710591355 ; 2.0368159804045776E8 ; 1.433311553802624E9 ; 3.620659040854096E10 ; 0.0
188 ; 7356395.647639235 ; 2.0369537684076113E8 ; 1.4406719556736832E9 ; 3.641027200658142E10 ; 0.0
189 ; 7355419.128674833 ; 2.0370910203709364E8 ; 1.4480283513213224E9 ; 3.661396738342218E10 ; 0.0
190 ; 7348748.94190187 ; 2.0372277323534885E8 ; 1.4553837704499972E9 ; 3.6817676485459274E10 ; 0.0
191 ; 7346010.870586704 ; 2.0373639004508E8 ; 1.462732519391899E9 ; 3.7021399258694626E10 ; 0.0
192 ; 7339814.206194855 ; 2.0374995207944456E8 ; 1.4700785302624857E9 ; 3.722513564873971E10 ; 0.0
193 ; 7335370.403779633 ; 2.0376345895515063E8 ; 1.4774183444686806E9 ; 3.742888560081915E10 ; 0.0
194 ; 7330302.406542176 ; 2.0377691029240507E8 ; 1.4847537148724604E9 ; 3.763264905977431E10 ; 0.0
195 ; 7328374.580873116 ; 2.03790305714863E8 ; 1.4920840172790024E9 ; 3.783642597006671E10 ; 0.0
196 ; 7325156.49631818 ; 2.0380364484957916E8 ; 1.4994123918598754E9 ; 3.804021627578158E10 ; 0.0
197 ; 7317430.481021255 ; 2.038169273269606E8 ; 1.5067375483561935E9 ; 3.824401992063116E10 ; 0.0
198 ; 7314969.728213928 ; 2.0383015278072074E8 ; 1.5140549788372147E9 ; 3.8447836847958115E10 ; 0.0
199 ; 7311757.225151038 ; 2.0384332084783512E8 ; 1.5213699485654287E9 ; 3.865166700073884E10 ; 0.0
200 ; 7306298.867012452 ; 1.7849723192470935E8 ; 1.5286817057905798E9 ; 3.885551032158667E10 ; 0.0
201 ; 7303424.938176962 ; 1.550294901672259E8 ; 1.5359880046575923E9 ; 3.903400755351138E10 ; 0.0
