CSV File for the City 2 on Day 230
1 - Minute m 
2 - Power Consumed at minute m 
3 - Power Produced at minute m 
4 - Energy Consumed since the beginning of the day 
5 - Energy Produced since the beginning of the day 
6 - Energy Lost since the beginning of the day on lines starting from the city
 
0 ; 162595.18617154798 ; 1.0517833475270292E8 ; 0.0 ; 0.0 ; 0.0
1 ; 164861.00965024426 ; 1.0533152920106387E8 ; 162595.18617154798 ; 1.0517833475270292E8 ; 0.0
2 ; 166692.20953807308 ; 1.0579341137535533E8 ; 327456.19582179224 ; 2.105098639537668E8 ; 0.0
3 ; 168590.38579984993 ; 1.065639921509493E8 ; 494148.4053598653 ; 3.163032753291221E8 ; 0.0
4 ; 171905.303298169 ; 1.0764328520641774E8 ; 662738.7911597153 ; 4.228672674800714E8 ; 0.0
5 ; 175719.04267161913 ; 1.0903130748260951E8 ; 834644.0944578843 ; 5.3051055268648916E8 ; 0.0
6 ; 180801.01652557508 ; 1.1072807935589364E8 ; 1010363.1371295034 ; 6.395418601690986E8 ; 0.0
7 ; 186793.67407170884 ; 1.1273362413436073E8 ; 1191164.1536550785 ; 7.502699395249922E8 ; 0.0
8 ; 196131.21022684698 ; 1.1504796637000573E8 ; 1377957.8277267874 ; 8.63003563659353E8 ; 0.0
9 ; 210305.43502082076 ; 1.1767112865020776E8 ; 1574089.0379536343 ; 9.780515300293587E8 ; 0.0
10 ; 232628.6244926725 ; 1.2060312725349963E8 ; 1784394.472974455 ; 1.0957226586795664E9 ; 0.0
11 ; 265677.03872103157 ; 1.2384396815638062E8 ; 2017023.0974671275 ; 1.216325785933066E9 ; 0.0
12 ; 320111.61340670346 ; 1.2739364538235143E8 ; 2282700.136188159 ; 1.3401697540894465E9 ; 0.0
13 ; 371584.83510724764 ; 1.3125214265287924E8 ; 2602811.7495948626 ; 1.467563399471798E9 ; 0.0
14 ; 378418.0240852067 ; 1.35419437380585E8 ; 2974396.5847021104 ; 1.5988155421246772E9 ; 0.0
15 ; 381594.4645593948 ; 1.398955050134737E8 ; 3352814.608787317 ; 1.7342349795052621E9 ; 0.0
16 ; 385053.32503145456 ; 1.4468032224345478E8 ; 3734409.0733467117 ; 1.874130484518736E9 ; 0.0
17 ; 386501.55671243946 ; 1.4977386869415918E8 ; 4119462.3983781664 ; 2.0188108067621906E9 ; 0.0
18 ; 389622.2347211165 ; 1.5517612742473805E8 ; 4505963.955090606 ; 2.16858467545635E9 ; 0.0
19 ; 391797.99543713615 ; 1.6088708475661942E8 ; 4895586.189811722 ; 2.323760802881088E9 ; 0.0
20 ; 395934.0261541505 ; 1.6690672981443128E8 ; 5287384.185248858 ; 2.484647887637707E9 ; 0.0
21 ; 398068.2467659476 ; 1.7323505400670102E8 ; 5683318.211403009 ; 2.6515546174521384E9 ; 0.0
22 ; 401496.326924914 ; 1.7987205055018276E8 ; 6081386.458168956 ; 2.8247896714588394E9 ; 0.0
23 ; 403117.35776968603 ; 1.868177140727173E8 ; 6482882.78509387 ; 3.004661722009022E9 ; 0.0
24 ; 406644.4287732715 ; 1.9407204029689902E8 ; 6886000.142863556 ; 3.1914794360817394E9 ; 0.0
25 ; 409151.72906136507 ; 2.003230666923928E8 ; 7292644.571636828 ; 3.3855514763786383E9 ; 0.0
26 ; 411977.30633827654 ; 2.0032433832400325E8 ; 7701796.300698193 ; 3.585874543071031E9 ; 0.0
27 ; 414617.0190798598 ; 2.0032562223221356E8 ; 8113773.6070364695 ; 3.7861988813950343E9 ; 0.0
28 ; 417957.83502550493 ; 2.0032691656958127E8 ; 8528390.62611633 ; 3.986524503627248E9 ; 0.0
29 ; 421224.8549947575 ; 2.0032821980935186E8 ; 8946348.461141834 ; 4.186851420196829E9 ; 0.0
30 ; 422990.65994386724 ; 2.003295306802664E8 ; 9367573.316136591 ; 4.387179640006181E9 ; 0.0
31 ; 424996.85920279555 ; 2.003308481160581E8 ; 9790563.976080459 ; 4.587509170686447E9 ; 0.0
32 ; 427066.36545763316 ; 2.0033217121608207E8 ; 1.0215560835283253E7 ; 4.7878400188025055E9 ; 0.0
33 ; 430631.15791748324 ; 2.0033349921442077E8 ; 1.0642627200740887E7 ; 4.988172190018587E9 ; 0.0
34 ; 434016.14853529737 ; 2.0033483145547876E8 ; 1.107325835865837E7 ; 5.188505689233007E9 ; 0.0
35 ; 435996.5092612492 ; 2.0033616737457392E8 ; 1.1507274507193668E7 ; 5.388840520688486E9 ; 0.0
36 ; 438349.95922724967 ; 2.0033750648240128E8 ; 1.1943271016454916E7 ; 5.58917668806306E9 ; 0.0
37 ; 439147.7059728228 ; 2.0033884835251698E8 ; 1.2381620975682165E7 ; 5.789514194545461E9 ; 0.0
38 ; 442841.65295460774 ; 2.0034019261119246E8 ; 1.2820768681654988E7 ; 5.989853042897978E9 ; 0.0
39 ; 444699.9546234473 ; 2.0034153892914137E8 ; 1.3263610334609596E7 ; 6.190193235509171E9 ; 0.0
40 ; 446976.4587262624 ; 2.0034288701473403E8 ; 1.3708310289233044E7 ; 6.390534774438312E9 ; 0.0
41 ; 448767.24475969 ; 2.003442366084018E8 ; 1.4155286747959306E7 ; 6.590877661453046E9 ; 0.0
42 ; 451527.115532331 ; 2.00345587477998E8 ; 1.4604053992718996E7 ; 6.791221898061448E9 ; 0.0
43 ; 452883.78378166514 ; 2.0034693941493252E8 ; 1.5055581108251328E7 ; 6.991567485539446E9 ; 0.0
44 ; 453660.2253880117 ; 2.0034829223093557E8 ; 1.5508464892032992E7 ; 7.191914424954378E9 ; 0.0
45 ; 456078.61670568347 ; 2.0034964575533548E8 ; 1.5962125117421003E7 ; 7.392262717185314E9 ; 0.0
46 ; 457147.32209151384 ; 2.003509998327588E8 ; 1.6418203734126687E7 ; 7.59261236294065E9 ; 0.0
47 ; 458970.56422333734 ; 2.0035235432117915E8 ; 1.68753510562182E7 ; 7.792963362773409E9 ; 0.0
48 ; 459941.22620744485 ; 2.003537090902548E8 ; 1.7334321620441537E7 ; 7.993315717094588E9 ; 0.0
49 ; 461566.325281414 ; 2.003550640199076E8 ; 1.7794262846648984E7 ; 8.193669426184843E9 ; 0.0
50 ; 463473.54877746355 ; 2.003564189991025E8 ; 1.82558291719304E7 ; 8.394024490204751E9 ; 0.0
51 ; 465358.0583652739 ; 2.00357773924797E8 ; 1.8719302720707864E7 ; 8.594380909203854E9 ; 0.0
52 ; 465580.68791729026 ; 2.003591287010325E8 ; 1.9184660779073138E7 ; 8.79473868312865E9 ; 0.0
53 ; 467496.7034142301 ; 2.0036048323814693E8 ; 1.9650241466990426E7 ; 8.995097811829683E9 ; 0.0
54 ; 467647.8408817038 ; 2.0036183745208964E8 ; 2.0117738170404658E7 ; 9.195458295067831E9 ; 0.0
55 ; 469454.0227023137 ; 2.0036319126382357E8 ; 2.0585386011286363E7 ; 9.39582013251992E9 ; 0.0
56 ; 468396.2092540907 ; 2.003645445988025E8 ; 2.1054840033988677E7 ; 9.596183323783745E9 ; 0.0
57 ; 470254.23588237254 ; 2.0036589738651213E8 ; 2.1523236243242767E7 ; 9.796547868382547E9 ; 0.0
58 ; 471737.86571214214 ; 2.0036724956006652E8 ; 2.199349047912514E7 ; 9.99691376576906E9 ; 0.0
59 ; 473361.5844250037 ; 2.0036860105585223E8 ; 2.246522834483728E7 ; 1.0197281015329126E10 ; 0.0
60 ; 474357.5345015235 ; 2.0036995181321353E8 ; 2.2938589929262284E7 ; 1.039764961638498E10 ; 0.0
61 ; 473978.52240581205 ; 2.0037130177417362E8 ; 2.3412947463763807E7 ; 1.0598019568198193E10 ; 0.0
62 ; 477281.3763997179 ; 2.0037265088318685E8 ; 2.3886925986169618E7 ; 1.0798390869972366E10 ; 0.0
63 ; 476129.79410894174 ; 2.003739990869184E8 ; 2.4364207362569336E7 ; 1.0998763520855553E10 ; 0.0
64 ; 477251.7043201018 ; 2.0037534633404756E8 ; 2.4840337156678278E7 ; 1.119913751994247E10 ; 0.0
65 ; 478739.8632371815 ; 2.003766925750918E8 ; 2.531758886099838E7 ; 1.1399512866276518E10 ; 0.0
66 ; 480206.5896197643 ; 2.003780377622496E8 ; 2.579632872423556E7 ; 1.159988955885161E10 ; 0.0
67 ; 480258.9891822199 ; 2.0037938184925905E8 ; 2.6276535313855324E7 ; 1.180026759661386E10 ; 0.0
68 ; 482897.31656628795 ; 2.0038072479127085E8 ; 2.6756794303037543E7 ; 1.2000646978463118E10 ; 0.0
69 ; 481711.37027186604 ; 2.0038206654473415E8 ; 2.723969161960383E7 ; 1.2201027703254389E10 ; 0.0
70 ; 483772.20611131686 ; 2.003834070672931E8 ; 2.7721402989875697E7 ; 1.2401409769799124E10 ; 0.0
71 ; 484629.1818212782 ; 2.0038474631769404E8 ; 2.8205175195987012E7 ; 1.2601793176866417E10 ; 0.0
72 ; 484265.82428646256 ; 2.003860842557009E8 ; 2.868980437780829E7 ; 1.280217792318411E10 ; 0.0
73 ; 486786.75674423936 ; 2.0038742084201884E8 ; 2.9174070202094752E7 ; 1.3002564007439812E10 ; 0.0
74 ; 487133.1215120166 ; 2.0038875603822494E8 ; 2.966085695883899E7 ; 1.320295142828183E10 ; 0.0
75 ; 487397.07566323446 ; 2.0039008980670512E8 ; 3.014799008035101E7 ; 1.3403340184320055E10 ; 0.0
76 ; 487653.47934053524 ; 2.003914221105967E8 ; 3.0635387156014245E7 ; 1.360373027412676E10 ; 0.0
77 ; 489641.38887288416 ; 2.0039275291373605E8 ; 3.112304063535478E7 ; 1.3804121696237358E10 ; 0.0
78 ; 489723.576491551 ; 2.0039408218061104E8 ; 3.1612682024227664E7 ; 1.4004514449151094E10 ; 0.0
79 ; 488635.16060401744 ; 2.0039540987631714E8 ; 3.2102405600719213E7 ; 1.4204908531331705E10 ; 0.0
80 ; 489574.78742732434 ; 2.0039673596651775E8 ; 3.2591040761323232E7 ; 1.4405303941208023E10 ; 0.0
81 ; 489476.35227381036 ; 2.0039806041740742E8 ; 3.3080615548750557E7 ; 1.4605700677174541E10 ; 0.0
82 ; 489292.6064022095 ; 2.0039938319567856E8 ; 3.3570091901024364E7 ; 1.480609873759195E10 ; 0.0
83 ; 489613.8184444396 ; 2.004007042684904E8 ; 3.4059384507426575E7 ; 1.5006498120787628E10 ; 0.0
84 ; 490412.20110594877 ; 2.0040202360344097E8 ; 3.454899832587101E7 ; 1.5206898825056118E10 ; 0.0
85 ; 489236.5216388415 ; 2.004033411685408E8 ; 3.5039410526976965E7 ; 1.540730084865956E10 ; 0.0
86 ; 489441.25713153987 ; 2.0040465693218926E8 ; 3.5528647048615806E7 ; 1.56077041898281E10 ; 0.0
87 ; 491017.35715177155 ; 2.0040597086315227E8 ; 3.6018088305747345E7 ; 1.580810884676029E10 ; 0.0
88 ; 489412.1365069395 ; 2.004072829305419E8 ; 3.6509105662899114E7 ; 1.6008514817623442E10 ; 0.0
89 ; 489997.35508188355 ; 2.004085931037978E8 ; 3.699851779940605E7 ; 1.6208922100553984E10 ; 0.0
90 ; 488466.1458947752 ; 2.0040990135266954E8 ; 3.748851515448794E7 ; 1.6409330693657782E10 ; 0.0
91 ; 490612.37524636544 ; 2.0041120764720067E8 ; 3.797698130038271E7 ; 1.660974059501045E10 ; 0.0
92 ; 490690.257525704 ; 2.004125119577138E8 ; 3.846759367562908E7 ; 1.6810151802657652E10 ; 0.0
93 ; 489145.370553099 ; 2.0041381425479686E8 ; 3.8958283933154784E7 ; 1.7010564314615366E10 ; 0.0
94 ; 488792.55352286337 ; 2.0041511450929022E8 ; 3.944742930370788E7 ; 1.7210978128870163E10 ; 0.0
95 ; 488710.8427899534 ; 2.004164126922749E8 ; 3.9936221857230745E7 ; 1.741139324337945E10 ; 0.0
96 ; 489598.33328852645 ; 2.0041770877506152E8 ; 4.04249327000207E7 ; 1.7611809656071728E10 ; 0.0
97 ; 489534.9945293428 ; 2.0041900272918016E8 ; 4.091453103330923E7 ; 1.781222736484679E10 ; 0.0
98 ; 488648.34499691695 ; 2.0042029452637067E8 ; 4.140406602783857E7 ; 1.801264636757597E10 ; 0.0
99 ; 489197.76945645723 ; 2.0042158413857406E8 ; 4.189271437283549E7 ; 1.821306666210234E10 ; 0.0
100 ; 489023.8305184101 ; 2.0042287153792408E8 ; 4.238191214229194E7 ; 1.8413488246240913E10 ; 0.0
101 ; 488316.70851395023 ; 2.004241566967396E8 ; 4.287093597281035E7 ; 1.861391111777884E10 ; 0.0
102 ; 488759.62325400626 ; 2.004254395875176E8 ; 4.33592526813243E7 ; 1.881433527447558E10 ; 0.0
103 ; 487744.31505633506 ; 2.0042672018292624E8 ; 4.384801230457831E7 ; 1.9014760714063095E10 ; 0.0
104 ; 488034.7659597218 ; 2.00427998455799E8 ; 4.433575661963464E7 ; 1.921518743424602E10 ; 0.0
105 ; 486763.1532169434 ; 2.0042927437912866E8 ; 4.482379138559437E7 ; 1.941561543270182E10 ; 0.0
106 ; 486006.1323404428 ; 2.0043054792606193E8 ; 4.531055453881131E7 ; 1.9616044707080948E10 ; 0.0
107 ; 486136.68097852706 ; 2.004318190698944E8 ; 4.579656067115176E7 ; 1.981647525500701E10 ; 0.0
108 ; 486035.1988702131 ; 2.0043308778406593E8 ; 4.628269735213029E7 ; 2.0016907074076904E10 ; 0.0
109 ; 485770.0842248983 ; 2.004343540421562E8 ; 4.67687325510005E7 ; 2.021734016186097E10 ; 0.0
110 ; 485810.03372563625 ; 2.0043561781788048E8 ; 4.725450263522539E7 ; 2.0417774515903126E10 ; 0.0
111 ; 485422.1072320993 ; 2.00436879085086E8 ; 4.774031266895103E7 ; 2.0618210133721004E10 ; 0.0
112 ; 484065.10738436464 ; 2.0043813781774813E8 ; 4.822573477618313E7 ; 2.081864701280609E10 ; 0.0
113 ; 484246.80749156076 ; 2.0043939398996723E8 ; 4.870979988356749E7 ; 2.101908515062384E10 ; 0.0
114 ; 484063.7899018703 ; 2.0044064757596534E8 ; 4.919404669105905E7 ; 2.1219524544613808E10 ; 0.0
115 ; 484349.78287950926 ; 2.0044189855008334E8 ; 4.967811048096092E7 ; 2.1419965192189774E10 ; 0.0
116 ; 483662.2483262492 ; 2.0044314688677818E8 ; 5.016246026384043E7 ; 2.1620407090739857E10 ; 0.0
117 ; 483265.9578377856 ; 2.0044439256062028E8 ; 5.064612251216668E7 ; 2.1820850237626637E10 ; 0.0
118 ; 483600.49858261907 ; 2.0044563554629117E8 ; 5.112938847000446E7 ; 2.2021294630187256E10 ; 0.0
119 ; 483792.4618449718 ; 2.0044687581858113E8 ; 5.161298896858708E7 ; 2.2221740265733547E10 ; 0.0
120 ; 481055.9614387971 ; 2.004481133523873E8 ; 5.209678143043205E7 ; 2.2422187141552128E10 ; 0.0
121 ; 481910.2170506931 ; 2.0044934812271142E8 ; 5.257783739187085E7 ; 2.2622635254904514E10 ; 0.0
122 ; 481926.1300976761 ; 2.0045058010465828E8 ; 5.305974760892154E7 ; 2.2823084603027225E10 ; 0.0
123 ; 480516.06183846004 ; 2.0045180927343377E8 ; 5.354167373901922E7 ; 2.3023535183131886E10 ; 0.0
124 ; 479236.7383501674 ; 2.004530356043434E8 ; 5.4022189800857686E7 ; 2.322398699240532E10 ; 0.0
125 ; 478908.8038725411 ; 2.004542590727908E8 ; 5.450142653920785E7 ; 2.3424440028009663E10 ; 0.0
126 ; 478670.729980396 ; 2.0045547965427616E8 ; 5.4980335343080394E7 ; 2.3624894287082455E10 ; 0.0
127 ; 477351.5067642492 ; 2.0045669732439515E8 ; 5.545900607306079E7 ; 2.3825349766736732E10 ; 0.0
128 ; 477462.73449468135 ; 2.004579120588375E8 ; 5.5936357579825036E7 ; 2.4025806464061127E10 ; 0.0
129 ; 477922.30094675743 ; 2.00459123833386E8 ; 5.6413820314319715E7 ; 2.4226264376119965E10 ; 0.0
130 ; 477327.47236718825 ; 2.0046033262391534E8 ; 5.689174261526647E7 ; 2.442672349995335E10 ; 0.0
131 ; 475029.70187393716 ; 2.0046153840639117E8 ; 5.736907008763366E7 ; 2.4627183832577267E10 ; 0.0
132 ; 471973.8347646065 ; 2.004627411568691E8 ; 5.78440997895076E7 ; 2.4827645370983658E10 ; 0.0
133 ; 472989.61976674496 ; 2.0046394085149404E8 ; 5.8316073624272205E7 ; 2.5028108112140526E10 ; 0.0
134 ; 470194.7735651781 ; 2.0046513746649912E8 ; 5.878906324403895E7 ; 2.522857205299202E10 ; 0.0
135 ; 471079.22792267665 ; 2.0046633097820517E8 ; 5.925925801760413E7 ; 2.542903719045852E10 ; 0.0
136 ; 468622.9563201173 ; 2.0046752136302E8 ; 5.9730337245526806E7 ; 2.5629503521436726E10 ; 0.0
137 ; 465368.35206004407 ; 2.004687085974377E8 ; 6.019896020184692E7 ; 2.5829971042799747E10 ; 0.0
138 ; 465626.4991534546 ; 2.004698926580381E8 ; 6.066432855390696E7 ; 2.6030439751397186E10 ; 0.0
139 ; 464321.5409897735 ; 2.004710735214862E8 ; 6.112995505306042E7 ; 2.6230909644055225E10 ; 0.0
140 ; 462366.8455777186 ; 2.0047225116453174E8 ; 6.159427659405019E7 ; 2.643138071757671E10 ; 0.0
141 ; 462088.7055160839 ; 2.004734255640087E8 ; 6.205664343962791E7 ; 2.663185296874124E10 ; 0.0
142 ; 460583.62024590565 ; 2.004745966968349E8 ; 6.251873214514399E7 ; 2.6832326394305252E10 ; 0.0
143 ; 459852.16185029293 ; 2.0047576454001155E8 ; 6.29793157653899E7 ; 2.7032800991002087E10 ; 0.0
144 ; 457756.7011083424 ; 2.0047692907062307E8 ; 6.343916792724019E7 ; 2.72332767555421E10 ; 0.0
145 ; 457340.1669723024 ; 2.0047809026583663E8 ; 6.389692462834854E7 ; 2.743375368461272E10 ; 0.0
146 ; 455238.37718071643 ; 2.004792481029019E8 ; 6.435426479532084E7 ; 2.7634231774878555E10 ; 0.0
147 ; 454779.6769115599 ; 2.004804025591509E8 ; 6.480950317250156E7 ; 2.7834711022981457E10 ; 0.0
148 ; 455693.8101102066 ; 2.004815536119976E8 ; 6.526428284941312E7 ; 2.8035191425540607E10 ; 0.0
149 ; 453645.321197345 ; 2.004827012389379E8 ; 6.571997665952332E7 ; 2.8235672979152603E10 ; 0.0
150 ; 453584.5400021293 ; 2.0048384541754937E8 ; 6.617362198072067E7 ; 2.843615568039154E10 ; 0.0
151 ; 452027.97597033094 ; 2.0048498612549108E8 ; 6.66272065207228E7 ; 2.863663952580909E10 ; 0.0
152 ; 452595.88118224463 ; 2.004861233405035E8 ; 6.707923449669313E7 ; 2.883712451193458E10 ; 0.0
153 ; 450882.37218304514 ; 2.0048725704040852E8 ; 6.753183037787537E7 ; 2.9037610635275085E10 ; 0.0
154 ; 451329.6367568675 ; 2.0048838720310912E8 ; 6.798271275005841E7 ; 2.9238097892315495E10 ; 0.0
155 ; 450998.1351084156 ; 2.0048951380658948E8 ; 6.843404238681528E7 ; 2.9438586279518604E10 ; 0.0
156 ; 450048.0211342831 ; 2.0049063682891497E8 ; 6.888504052192369E7 ; 2.9639075793325195E10 ; 0.0
157 ; 448201.2180333983 ; 2.0049175624823195E8 ; 6.933508854305798E7 ; 2.983956643015411E10 ; 0.0
158 ; 449159.6169305544 ; 2.0049287204276788E8 ; 6.978328976109138E7 ; 3.0040058186402344E10 ; 0.0
159 ; 447504.76863511046 ; 2.0049398419083133E8 ; 7.023244937802194E7 ; 3.024055105844511E10 ; 0.0
160 ; 448223.13223714445 ; 2.0049509267081195E8 ; 7.067995414665705E7 ; 3.044104504263594E10 ; 0.0
161 ; 445770.0628090516 ; 2.0049619746118048E8 ; 7.11281772788942E7 ; 3.064154013530675E10 ; 0.0
162 ; 446968.3143462623 ; 2.0049729854048887E8 ; 7.157394734170325E7 ; 3.0842036332767933E10 ; 0.0
163 ; 445330.5705422325 ; 2.0049839588737032E8 ; 7.202091565604952E7 ; 3.1042533631308422E10 ; 0.0
164 ; 445242.85094573756 ; 2.0049948948053926E8 ; 7.246624622659175E7 ; 3.1243032027195793E10 ; 0.0
165 ; 444252.6182340032 ; 2.0050057929879156E8 ; 7.291148907753749E7 ; 3.144353151667633E10 ; 0.0
166 ; 444051.8329637132 ; 2.0050166532100457E8 ; 7.33557416957715E7 ; 3.164403209597512E10 ; 0.0
167 ; 442351.83286233415 ; 2.0050274752613714E8 ; 7.379979352873522E7 ; 3.1844533761296124E10 ; 0.0
168 ; 441762.85164538625 ; 2.0050382589322993E8 ; 7.424214536159755E7 ; 3.204503650882226E10 ; 0.0
169 ; 440279.384287241 ; 2.0050490040140527E8 ; 7.468390821324293E7 ; 3.2245540334715492E10 ; 0.0
170 ; 440293.6143978521 ; 2.0050597102986756E8 ; 7.512418759753017E7 ; 3.2446045235116898E10 ; 0.0
171 ; 439560.8124401373 ; 2.005070377579032E8 ; 7.556448121192802E7 ; 3.2646551206146767E10 ; 0.0
172 ; 439289.1323594296 ; 2.005081005648808E8 ; 7.600404202436817E7 ; 3.284705824390467E10 ; 0.0
173 ; 439312.27008639515 ; 2.0050915943025136E8 ; 7.64433311567276E7 ; 3.304756634446955E10 ; 0.0
174 ; 437844.4030464815 ; 2.005102143335485E8 ; 7.688264342681399E7 ; 3.3248075503899803E10 ; 0.0
175 ; 437473.4386020074 ; 2.0051126525438845E8 ; 7.732048782986048E7 ; 3.3448585718233353E10 ; 0.0
176 ; 437669.2909606922 ; 2.0051231217247033E8 ; 7.775796126846248E7 ; 3.364909698348774E10 ; 0.0
177 ; 436558.8186708299 ; 2.0051335506757635E8 ; 7.819563055942318E7 ; 3.384960929566021E10 ; 0.0
178 ; 437120.6269382395 ; 2.0051439391957197E8 ; 7.8632189378094E7 ; 3.4050122650727787E10 ; 0.0
179 ; 436729.9955257164 ; 2.0051542870840603E8 ; 7.906931000503224E7 ; 3.4250637044647358E10 ; 0.0
180 ; 436035.08029456984 ; 2.0051645941411108E8 ; 7.950604000055796E7 ; 3.445115247335577E10 ; 0.0
181 ; 434664.5219789521 ; 2.0051748601680344E8 ; 7.994207508085252E7 ; 3.4651668932769875E10 ; 0.0
182 ; 433906.4127116612 ; 2.0051850849668348E8 ; 8.037673960283148E7 ; 3.4852186418786674E10 ; 0.0
183 ; 433737.3213291006 ; 2.0051952683403584E8 ; 8.081064601554315E7 ; 3.5052704927283356E10 ; 0.0
184 ; 433898.15829877474 ; 2.0052054100922963E8 ; 8.124438333687225E7 ; 3.525322445411739E10 ; 0.0
185 ; 434219.70589333004 ; 2.005215510027186E8 ; 8.167828149517103E7 ; 3.5453744995126625E10 ; 0.0
186 ; 433021.47956420336 ; 2.005225567950414E8 ; 8.211250120106435E7 ; 3.565426654612934E10 ; 0.0
187 ; 432791.14141574816 ; 2.0052355836682191E8 ; 8.254552268062855E7 ; 3.5854789102924385E10 ; 0.0
188 ; 431926.8406105326 ; 2.0052455569876918E8 ; 8.29783138220443E7 ; 3.605531266129121E10 ; 0.0
189 ; 429999.63451253524 ; 2.0052554877167803E8 ; 8.341024066265483E7 ; 3.6255837216989975E10 ; 0.0
190 ; 431382.0526139111 ; 2.00526537566429E8 ; 8.384024029716736E7 ; 3.645636276576165E10 ; 0.0
191 ; 430882.3161476238 ; 2.005275220639887E8 ; 8.427162234978127E7 ; 3.665688930332808E10 ; 0.0
192 ; 430220.0419038955 ; 2.0052850224541003E8 ; 8.47025046659289E7 ; 3.685741682539207E10 ; 0.0
193 ; 429740.1793413702 ; 2.0052947809183246E8 ; 8.51327247078328E7 ; 3.7057945327637474E10 ; 0.0
194 ; 428593.24953078566 ; 2.0053044958448222E8 ; 8.556246488717417E7 ; 3.725847480572931E10 ; 0.0
195 ; 428800.2705463742 ; 2.005314167046726E8 ; 8.599105813670497E7 ; 3.745900525531379E10 ; 0.0
196 ; 429136.44583187875 ; 2.005323794338041E8 ; 8.641985840725134E7 ; 3.765953667201846E10 ; 0.0
197 ; 427432.0636223184 ; 2.005333377533648E8 ; 8.684899485308322E7 ; 3.786006905145227E10 ; 0.0
198 ; 427058.7284250058 ; 2.0053429164493057E8 ; 8.727642691670555E7 ; 3.8060602389205635E10 ; 0.0
199 ; 427176.57264533226 ; 2.0053524109016523E8 ; 8.770348564513056E7 ; 3.826113668085056E10 ; 0.0
200 ; 426567.5218904177 ; 2.0053618607082093E8 ; 8.81306622177759E7 ; 3.846167192194073E10 ; 0.0
201 ; 426150.91645905795 ; 2.005371265687384E8 ; 8.855722973966631E7 ; 3.866220810801155E10 ; 0.0
