CSV File for the City 1 on Day 164
1 - Minute m 
2 - Power Consumed at minute m 
3 - Power Produced at minute m 
4 - Energy Consumed since the beginning of the day 
5 - Energy Produced since the beginning of the day 
6 - Energy Lost since the beginning of the day on lines starting from the city
 
0 ; 6553440.849489115 ; 1.055280439692587E8 ; 0.0 ; 0.0 ; 0.0
1 ; 6566118.294104583 ; 1.056809887482487E8 ; 6553440.849489115 ; 1.055280439692587E8 ; 0.0
2 ; 6573111.272680583 ; 1.0614271567434916E8 ; 1.3119559143593699E7 ; 2.112090327175074E8 ; 0.0
3 ; 6593442.767198912 ; 1.0691322627403414E8 ; 1.9692670416274283E7 ; 3.1735174839185655E8 ; 0.0
4 ; 6611804.375084761 ; 1.079925219159084E8 ; 2.6286113183473196E7 ; 4.242649746658907E8 ; 0.0
5 ; 6635146.791034921 ; 1.0938060380291861E8 ; 3.2897917558557957E7 ; 5.322574965817991E8 ; 0.0
6 ; 6671118.75050338 ; 1.1107747296537217E8 ; 3.953306434959288E7 ; 6.416381003847177E8 ; 0.0
7 ; 6718395.380013235 ; 1.1308313025485742E8 ; 4.6204183100096256E7 ; 7.527155733500899E8 ; 0.0
8 ; 6793330.929782214 ; 1.1539757633914769E8 ; 5.292257848010949E7 ; 8.657987036049473E8 ; 0.0
9 ; 6904014.327296263 ; 1.1802081169816083E8 ; 5.97159094098917E7 ; 9.81196279944095E8 ; 0.0
10 ; 7082103.037291989 ; 1.2095283662103081E8 ; 6.661992373718797E7 ; 1.0992170916422558E9 ; 0.0
11 ; 7364097.265849024 ; 1.241936512043337E8 ; 7.370202677447996E7 ; 1.2201699282632866E9 ; 0.0
12 ; 7817851.218161219 ; 1.2774325535149339E8 ; 8.106612404032898E7 ; 1.3443635794676204E9 ; 0.0
13 ; 8262884.130797369 ; 1.3160164877337593E8 ; 8.88839752584902E7 ; 1.4721068348191137E9 ; 0.0
14 ; 8309569.025610691 ; 1.3576883099006355E8 ; 9.714685938928758E7 ; 1.6037084835924897E9 ; 0.0
15 ; 8324933.05739643 ; 1.402448013337828E8 ; 1.0545642841489826E8 ; 1.7394773145825534E9 ; 0.0
16 ; 8341311.706386795 ; 1.4502955895294544E8 ; 1.1378136147229469E8 ; 1.879722115916336E9 ; 0.0
17 ; 8355025.321474232 ; 1.5012310281724402E8 ; 1.2212267317868148E8 ; 2.0247516748692815E9 ; 0.0
18 ; 8372243.221095316 ; 1.5552543172373188E8 ; 1.3047769850015572E8 ; 2.1748747776865253E9 ; 0.0
19 ; 8391268.336692538 ; 1.6123654430380425E8 ; 1.3884994172125104E8 ; 2.3304002094102573E9 ; 0.0
20 ; 8407108.620834747 ; 1.6725643903098705E8 ; 1.4724121005794358E8 ; 2.4916367537140617E9 ; 0.0
21 ; 8423148.821689192 ; 1.7358511422943327E8 ; 1.5564831867877832E8 ; 2.658893192745049E9 ; 0.0
22 ; 8437883.874170693 ; 1.8022256808301932E8 ; 1.640714675004675E8 ; 2.832478306974482E9 ; 0.0
23 ; 8454986.971961744 ; 1.871687986449324E8 ; 1.725093513746382E8 ; 3.0127008750575013E9 ; 0.0
24 ; 8474566.746140197 ; 1.9442380384763694E8 ; 1.8096433834659994E8 ; 3.1998696737024336E9 ; 0.0
25 ; 8491599.807144338 ; 2.0067562241129476E8 ; 1.8943890509274012E8 ; 3.394293477550071E9 ; 0.0
26 ; 8507539.811822996 ; 2.0067779989105943E8 ; 1.9793050489988446E8 ; 3.5949690999613657E9 ; 0.0
27 ; 8521328.784165163 ; 2.0068010321243876E8 ; 2.0643804471170747E8 ; 3.795646899852425E9 ; 0.0
28 ; 8539764.256479844 ; 2.006825299284903E8 ; 2.1495937349587265E8 ; 3.9963270030648637E9 ; 0.0
29 ; 8554945.225966549 ; 2.006850775233645E8 ; 2.2349913775235248E8 ; 4.197009532993354E9 ; 0.0
30 ; 8569239.323488828 ; 2.0068774342239764E8 ; 2.3205408297831902E8 ; 4.397694610516718E9 ; 0.0
31 ; 8587804.126891656 ; 2.0069052500192696E8 ; 2.4062332230180785E8 ; 4.598382353939116E9 ; 0.0
32 ; 8597817.520533036 ; 2.0069341959876668E8 ; 2.492111264286995E8 ; 4.799072878941043E9 ; 0.0
33 ; 8616606.344269818 ; 2.0069642451929095E8 ; 2.5780894394923252E8 ; 4.999766298539809E9 ; 0.0
34 ; 8627288.28653422 ; 2.0069953704808062E8 ; 2.6642555029350233E8 ; 5.2004627230591E9 ; 0.0
35 ; 8642120.437127324 ; 2.0070275445609927E8 ; 2.750528385800365E8 ; 5.401162260107181E9 ; 0.0
36 ; 8651820.503645018 ; 2.0070607400837246E8 ; 2.836949590171639E8 ; 5.60186501456328E9 ; 0.0
37 ; 8663087.397781778 ; 2.007094929711525E8 ; 2.923467795208089E8 ; 5.802571088571652E9 ; 0.0
38 ; 8677126.461052068 ; 2.007130086185588E8 ; 3.0100986691859066E8 ; 6.003280581542805E9 ; 0.0
39 ; 8688295.028275406 ; 2.007166182386895E8 ; 3.096869933796427E8 ; 6.203993590161364E9 ; 0.0
40 ; 8697194.040797113 ; 2.0072031913920826E8 ; 3.1837528840791816E8 ; 6.404710208400053E9 ; 0.0
41 ; 8706565.5761702 ; 2.007241086524126E8 ; 3.2707248244871527E8 ; 6.605430527539261E9 ; 0.0
42 ; 8718731.606965758 ; 2.0072798413979727E8 ; 3.357790480248855E8 ; 6.806154636191673E9 ; 0.0
43 ; 8727421.644348979 ; 2.0073194299612808E8 ; 3.4449777963185126E8 ; 7.0068826203314705E9 ; 0.0
44 ; 8732192.400099678 ; 2.0073598265304568E8 ; 3.5322520127620023E8 ; 7.207614563327599E9 ; 0.0
45 ; 8740554.07945702 ; 2.0074010058222088E8 ; 3.619573936762999E8 ; 7.408350545980644E9 ; 0.0
46 ; 8746312.932812648 ; 2.0074429429808512E8 ; 3.70697947755757E8 ; 7.609090646562865E9 ; 0.0
47 ; 8752677.120970333 ; 2.0074856136016044E8 ; 3.794442606885696E8 ; 7.80983494086095E9 ; 0.0
48 ; 8756832.658630196 ; 2.0075289937501484E8 ; 3.881969378095399E8 ; 8.010583502221111E9 ; 0.0
49 ; 8757452.18453461 ; 2.00757305997869E8 ; 3.969537704681701E8 ; 8.211336401596127E9 ; 0.0
50 ; 8763712.968645407 ; 2.0076177893388006E8 ; 4.057112226527047E8 ; 8.412093707593996E9 ; 0.0
51 ; 8763459.495132351 ; 2.007663159391282E8 ; 4.144749356213501E8 ; 8.612855486527876E9 ; 0.0
52 ; 8771891.198486986 ; 2.0077091482133096E8 ; 4.2323839511648244E8 ; 8.813621802467005E9 ; 0.0
53 ; 8768224.693772774 ; 2.0077557344031018E8 ; 4.320102863149694E8 ; 9.014392717288336E9 ; 0.0
54 ; 8770293.773021646 ; 2.0078028970823398E8 ; 4.407785110087422E8 ; 9.215168290728645E9 ; 0.0
55 ; 8769708.449583055 ; 2.0078506158965683E8 ; 4.4954880478176385E8 ; 9.41594858043688E9 ; 0.0
56 ; 8781316.990773244 ; 2.0078988710137874E8 ; 4.583185132313469E8 ; 9.616733642026537E9 ; 0.0
57 ; 8773466.503370665 ; 2.007947643121432E8 ; 4.6709983022212017E8 ; 9.817523529127916E9 ; 0.0
58 ; 8776934.741617601 ; 2.0079969134219286E8 ; 4.758732967254908E8 ; 1.001831829344006E10 ; 0.0
59 ; 8777577.265152648 ; 2.0080466636270016E8 ; 4.846502314671084E8 ; 1.0219117984782253E10 ; 0.0
60 ; 8778110.37763542 ; 2.0080968759508944E8 ; 4.9342780873226106E8 ; 1.0419922651144953E10 ; 0.0
61 ; 8780365.47214676 ; 2.008147533102648E8 ; 5.022059191098965E8 ; 1.0620732338740042E10 ; 0.0
62 ; 8781013.09054002 ; 2.0081986182775813E8 ; 5.1098628458204323E8 ; 1.0821547092050306E10 ; 0.0
63 ; 8780714.627123818 ; 2.008250115148096E8 ; 5.197672976725832E8 ; 1.1022366953878065E10 ; 0.0
64 ; 8784167.786292633 ; 2.0083020078539166E8 ; 5.2854801229970706E8 ; 1.1223191965392876E10 ; 0.0
65 ; 8782507.799109453 ; 2.0083542809918776E8 ; 5.373321800859997E8 ; 1.1424022166178267E10 ; 0.0
66 ; 8779930.218542434 ; 2.0084069196053445E8 ; 5.461146878851092E8 ; 1.1624857594277454E10 ; 0.0
67 ; 8783927.671354631 ; 2.008459909173357E8 ; 5.548946181036516E8 ; 1.182569828623799E10 ; 0.0
68 ; 8782461.57619694 ; 2.0085132355995685E8 ; 5.636785457750063E8 ; 1.2026544277155325E10 ; 0.0
69 ; 8783114.473930936 ; 2.008566885201052E8 ; 5.724610073512032E8 ; 1.2227395600715282E10 ; 0.0
70 ; 8783633.521217959 ; 2.0086208446970296E8 ; 5.812441218251342E8 ; 1.2428252289235388E10 ; 0.0
71 ; 8778425.650476703 ; 2.008675101197578E8 ; 5.900277553463521E8 ; 1.2629114373705091E10 ; 0.0
72 ; 8780183.49407968 ; 2.0087296421923625E8 ; 5.988061809968288E8 ; 1.282998188382485E10 ; 0.0
73 ; 8778080.88646162 ; 2.008784455539433E8 ; 6.075863644909085E8 ; 1.3030854848044086E10 ; 0.0
74 ; 8781697.797662575 ; 2.008839529454124E8 ; 6.163644453773701E8 ; 1.323173329359803E10 ; 0.0
75 ; 8779109.894014686 ; 2.0088948524980822E8 ; 6.251461431750327E8 ; 1.3432617246543442E10 ; 0.0
76 ; 8780177.855971877 ; 2.0089504135684565E8 ; 6.339252530690475E8 ; 1.363350673179325E10 ; 0.0
77 ; 8773691.107005838 ; 2.0090062018872645E8 ; 6.427054309250194E8 ; 1.3834401773150095E10 ; 0.0
78 ; 8767968.689619035 ; 2.0090622069909593E8 ; 6.514791220320252E8 ; 1.4035302393338821E10 ; 0.0
79 ; 8765159.172939694 ; 2.009118418720209E8 ; 6.602470907216443E8 ; 1.4236208614037918E10 ; 0.0
80 ; 8758204.041444346 ; 2.009174827209905E8 ; 6.69012249894584E8 ; 1.4437120455909939E10 ; 0.0
81 ; 8748740.598756915 ; 2.009231422879405E8 ; 6.777704539360282E8 ; 1.463803793863093E10 ; 0.0
82 ; 8744339.300115 ; 2.009288196423021E8 ; 6.865191945347852E8 ; 1.483896108091887E10 ; 0.0
83 ; 8729687.35345666 ; 2.0093451388007554E8 ; 6.952635338349001E8 ; 1.5039889900561172E10 ; 0.0
84 ; 8725866.045985114 ; 2.0094022412292942E8 ; 7.039932211883568E8 ; 1.5240824414441248E10 ; 0.0
85 ; 8718653.47413437 ; 2.0094594951732528E8 ; 7.127190872343419E8 ; 1.5441764638564177E10 ; 0.0
86 ; 8710025.997420272 ; 2.0095168923366797E8 ; 7.214377407084762E8 ; 1.5642710588081501E10 ; 0.0
87 ; 8702750.407871151 ; 2.0095744246548176E8 ; 7.301477667058965E8 ; 1.5843662277315168E10 ; 0.0
88 ; 8694609.646979965 ; 2.009632084286118E8 ; 7.388505171137676E8 ; 1.6044619719780651E10 ; 0.0
89 ; 8682555.666230615 ; 2.0096898636045083E8 ; 7.475451267607476E8 ; 1.6245582928209263E10 ; 0.0
90 ; 8679605.428859128 ; 2.009747755191913E8 ; 7.562276824269781E8 ; 1.6446551914569714E10 ; 0.0
91 ; 8667290.435936272 ; 2.0098057518310145E8 ; 7.649072878558372E8 ; 1.6647526690088905E10 ; 0.0
92 ; 8657667.21636141 ; 2.0098638464982596E8 ; 7.735745782917736E8 ; 1.6848507265272007E10 ; 0.0
93 ; 8647992.556337927 ; 2.009922032357105E8 ; 7.82232245508135E8 ; 1.7049493649921833E10 ; 0.0
94 ; 8641121.941558305 ; 2.0099803027514896E8 ; 7.908802380644729E8 ; 1.7250485853157543E10 ; 0.0
95 ; 8634536.34472153 ; 2.0100386511995387E8 ; 7.995213600060313E8 ; 1.7451483883432693E10 ; 0.0
96 ; 8621636.330053033 ; 2.0100970713874874E8 ; 8.081558963507528E8 ; 1.7652487748552647E10 ; 0.0
97 ; 8615699.663055303 ; 2.0101555571638188E8 ; 8.167775326808059E8 ; 1.7853497455691395E10 ; 0.0
98 ; 8608259.937396532 ; 2.0102141025336128E8 ; 8.253932323438612E8 ; 1.8054513011407776E10 ; 0.0
99 ; 8593305.23488971 ; 2.0102727016530994E8 ; 8.340014922812577E8 ; 1.8255534421661137E10 ; 0.0
100 ; 8584827.116108757 ; 2.0103313488244072E8 ; 8.425947975161475E8 ; 1.8456561691826447E10 ; 0.0
101 ; 8574595.984097121 ; 2.010390038490506E8 ; 8.511796246322563E8 ; 1.865759482670889E10 ; 0.0
102 ; 8564504.174076272 ; 2.010448765230334E8 ; 8.597542206163534E8 ; 1.885863383055794E10 ; 0.0
103 ; 8556843.34805642 ; 2.0105075237541044E8 ; 8.683187247904297E8 ; 1.9059678707080975E10 ; 0.0
104 ; 8543668.71611932 ; 2.010566308898785E8 ; 8.768755681384861E8 ; 1.9260729459456387E10 ; 0.0
105 ; 8535544.461310945 ; 2.0106251156237492E8 ; 8.854192368546054E8 ; 1.9461786090346264E10 ; 0.0
106 ; 8523052.098383835 ; 2.010683939006584E8 ; 8.939547813159164E8 ; 1.9662848601908638E10 ; 0.0
107 ; 8510207.498254413 ; 2.0107427742390594E8 ; 9.024778334143002E8 ; 1.9863916995809296E10 ; 0.0
108 ; 8498465.619615937 ; 2.010801616623245E8 ; 9.109880409125546E8 ; 2.00649912732332E10 ; 0.0
109 ; 8495114.545616891 ; 2.010860461567775E8 ; 9.194865065321705E8 ; 2.0266071434895523E10 ; 0.0
110 ; 8482352.804347435 ; 2.0109193045842525E8 ; 9.279816210777874E8 ; 2.04671574810523E10 ; 0.0
111 ; 8471083.244491657 ; 2.010978141283789E8 ; 9.364639738821348E8 ; 2.0668249411510723E10 ; 0.0
112 ; 8459566.09264218 ; 2.011036967373674E8 ; 9.449350571266265E8 ; 2.0869347225639103E10 ; 0.0
113 ; 8445880.2508375 ; 2.011095778654171E8 ; 9.533946232192687E8 ; 2.107045092237647E10 ; 0.0
114 ; 8432475.885430757 ; 2.0111545710154337E8 ; 9.618405034701061E8 ; 2.1271560500241886E10 ; 0.0
115 ; 8422044.800121875 ; 2.0112133404345387E8 ; 9.702729793555369E8 ; 2.147267595734343E10 ; 0.0
116 ; 8411482.050521707 ; 2.0112720829726297E8 ; 9.786950241556588E8 ; 2.1673797291386883E10 ; 0.0
117 ; 8398169.401961625 ; 2.0113307947721687E8 ; 9.871065062061806E8 ; 2.1874924499684147E10 ; 0.0
118 ; 8389434.26810689 ; 2.0113894720542932E8 ; 9.955046756081421E8 ; 2.2076057579161366E10 ; 0.0
119 ; 8373824.821772648 ; 2.0114481111162695E8 ; 1.0038941098762491E9 ; 2.2277196526366795E10 ; 0.0
120 ; 8363507.494283553 ; 2.0115067083290443E8 ; 1.0122679346980218E9 ; 2.247834133747842E10 ; 0.0
121 ; 8348273.005598875 ; 2.0115652601348874E8 ; 1.0206314421923053E9 ; 2.2679492008311325E10 ; 0.0
122 ; 8341108.100935809 ; 2.011623763045122E8 ; 1.0289797151979042E9 ; 2.2880648534324814E10 ; 0.0
123 ; 8322093.769763651 ; 2.011682213637942E8 ; 1.03732082329884E9 ; 2.3081810910629326E10 ; 0.0
124 ; 8309096.072621064 ; 2.0117406085563087E8 ; 1.0456429170686038E9 ; 2.328297913199312E10 ; 0.0
125 ; 8300015.802811646 ; 2.011798944505927E8 ; 1.0539520131412249E9 ; 2.3484153192848747E10 ; 0.0
126 ; 8284803.9072873695 ; 2.011857218253298E8 ; 1.0622520289440365E9 ; 2.368533308729934E10 ; 0.0
127 ; 8271378.490374066 ; 2.0119154266238427E8 ; 1.0705368328513238E9 ; 2.388651880912467E10 ; 0.0
128 ; 8259028.418515523 ; 2.011973566500095E8 ; 1.078808211341698E9 ; 2.4087710351787052E10 ; 0.0
129 ; 8245674.100356774 ; 2.012031634819964E8 ; 1.0870672397602134E9 ; 2.428890770843706E10 ; 0.0
130 ; 8231488.505986644 ; 2.0120896285750574E8 ; 1.0953129138605702E9 ; 2.4490110871919056E10 ; 0.0
131 ; 8204278.039463239 ; 2.0121475448090696E8 ; 1.103544402366557E9 ; 2.469131983477656E10 ; 0.0
132 ; 8186310.656144081 ; 2.012205380616227E8 ; 1.1117486804060202E9 ; 2.489253458925747E10 ; 0.0
133 ; 8164290.913921906 ; 2.0122631331397927E8 ; 1.1199349910621643E9 ; 2.509375512731909E10 ; 0.0
134 ; 8148161.654312635 ; 2.0123207995706218E8 ; 1.1280992819760861E9 ; 2.529498144063307E10 ; 0.0
135 ; 8129179.528419844 ; 2.0123783771457753E8 ; 1.1362474436303988E9 ; 2.5496213520590134E10 ; 0.0
136 ; 8106549.878307636 ; 2.0124358631471795E8 ; 1.1443766231588185E9 ; 2.569745135830471E10 ; 0.0
137 ; 8086286.315767599 ; 2.0124932549003372E8 ; 1.152483173037126E9 ; 2.5898694944619427E10 ; 0.0
138 ; 8066867.971320843 ; 2.012550549773083E8 ; 1.1605694593528936E9 ; 2.609994427010946E10 ; 0.0
139 ; 8045124.959122828 ; 2.0126077451743868E8 ; 1.1686363273242145E9 ; 2.630119932508677E10 ; 0.0
140 ; 8025279.455045752 ; 2.0126648385531977E8 ; 1.1766814522833374E9 ; 2.6502460099604206E10 ; 0.0
141 ; 8000544.620559891 ; 2.0127218273973304E8 ; 1.184706731738383E9 ; 2.6703726583459526E10 ; 0.0
142 ; 7986392.467304947 ; 2.0127787092323926E8 ; 1.192707276358943E9 ; 2.690499876619926E10 ; 0.0
143 ; 7961922.59163984 ; 2.012835481620749E8 ; 1.200693668826248E9 ; 2.71062766371225E10 ; 0.0
144 ; 7939662.747172504 ; 2.0128921421605223E8 ; 1.2086555914178877E9 ; 2.7307560185284576E10 ; 0.0
145 ; 7928576.788039319 ; 2.0129486884846324E8 ; 1.2165952541650603E9 ; 2.750884939950063E10 ; 0.0
146 ; 7914007.197088083 ; 2.0130051182598656E8 ; 1.2245238309530995E9 ; 2.7710144268349094E10 ; 0.0
147 ; 7896269.005302 ; 2.0130614291859803E8 ; 1.2324378381501875E9 ; 2.791144478017508E10 ; 0.0
148 ; 7886111.284761754 ; 2.0131176189948416E8 ; 1.2403341071554894E9 ; 2.8112750923093678E10 ; 0.0
149 ; 7871889.156186777 ; 2.013173685449588E8 ; 1.248220218440251E9 ; 2.831406268499316E10 ; 0.0
150 ; 7853089.909387878 ; 2.013229626343826E8 ; 1.256092107596438E9 ; 2.851538005353812E10 ; 0.0
151 ; 7840555.8119806945 ; 2.0132854395008543E8 ; 1.2639451975058258E9 ; 2.8716703016172504E10 ; 0.0
152 ; 7826008.051125266 ; 2.013341122772914E8 ; 1.2717857533178065E9 ; 2.891803156012259E10 ; 0.0
153 ; 7813826.782508168 ; 2.0133966740404642E8 ; 1.2796117613689318E9 ; 2.911936567239988E10 ; 0.0
154 ; 7796458.520915005 ; 2.0134520912114844E8 ; 1.28742558815144E9 ; 2.9320705339803925E10 ; 0.0
155 ; 7783839.461297012 ; 2.0135073722208E8 ; 1.295222046672355E9 ; 2.952205054892507E10 ; 0.0
156 ; 7770866.757373417 ; 2.0135625150294298E8 ; 1.303005886133652E9 ; 2.9723401286147152E10 ; 0.0
157 ; 7756008.503450556 ; 2.0136175176239595E8 ; 1.3107767528910253E9 ; 2.9924757537650093E10 ; 0.0
158 ; 7743189.126771703 ; 2.0136723780159318E8 ; 1.318532761394476E9 ; 3.012611928941249E10 ; 0.0
159 ; 7725258.468245745 ; 2.0137270942412618E8 ; 1.3262759505212476E9 ; 3.0327486527214085E10 ; 0.0
160 ; 7712507.328314841 ; 2.0137816643596682E8 ; 1.3340012089894934E9 ; 3.052885923663821E10 ; 0.0
161 ; 7696586.430219571 ; 2.0138360864541277E8 ; 1.3417137163178082E9 ; 3.0730237403074177E10 ; 0.0
162 ; 7682027.305645391 ; 2.0138903586303446E8 ; 1.3494103027480278E9 ; 3.093162101171959E10 ; 0.0
163 ; 7664797.546702107 ; 2.0139444790162405E8 ; 1.3570923300536733E9 ; 3.1133010047582623E10 ; 0.0
164 ; 7655888.26602897 ; 2.01399844576146E8 ; 1.3647571276003754E9 ; 3.1334404495484245E10 ; 0.0
165 ; 7637157.110300797 ; 2.0140522570368928E8 ; 1.3724130158664043E9 ; 3.153580434006039E10 ; 0.0
166 ; 7625558.456785683 ; 2.0141059110342124E8 ; 1.380050172976705E9 ; 3.173720956576408E10 ; 0.0
167 ; 7606885.475374524 ; 2.0141594059654307E8 ; 1.3876757314334908E9 ; 3.19386201568675E10 ; 0.0
168 ; 7596059.654022281 ; 2.014212740062465E8 ; 1.3952826169088652E9 ; 3.2140036097464043E10 ; 0.0
169 ; 7573863.279306503 ; 2.014265911576723E8 ; 1.4028786765628874E9 ; 3.2341457371470287E10 ; 0.0
170 ; 7560555.481776385 ; 2.0143189187786976E8 ; 1.4104525398421938E9 ; 3.254288396262796E10 ; 0.0
171 ; 7548690.767134961 ; 2.014371759957578E8 ; 1.4180130953239703E9 ; 3.274431585450583E10 ; 0.0
172 ; 7533171.7614789605 ; 2.0144244334208724E8 ; 1.4255617860911052E9 ; 3.2945753030501587E10 ; 0.0
173 ; 7519484.928686452 ; 2.014476937494043E8 ; 1.4330949578525841E9 ; 3.3147195473843674E10 ; 0.0
174 ; 7505778.940486404 ; 2.014529270520153E8 ; 1.4406144427812705E9 ; 3.334864316759308E10 ; 0.0
175 ; 7495466.309347109 ; 2.0145814308595252E8 ; 1.448120221721757E9 ; 3.3550096094645096E10 ; 0.0
176 ; 7483552.36190261 ; 2.0146334168894118E8 ; 1.455615688031104E9 ; 3.375155423773105E10 ; 0.0
177 ; 7472830.5990487505 ; 2.0146852270036745E8 ; 1.4630992403930068E9 ; 3.395301757941999E10 ; 0.0
178 ; 7459169.026295926 ; 2.0147368596124753E8 ; 1.4705720709920557E9 ; 3.4154486102120358E10 ; 0.0
179 ; 7449683.035214225 ; 2.0147883131419778E8 ; 1.4780312400183516E9 ; 3.4355959788081604E10 ; 0.0
180 ; 7437087.5726574045 ; 2.0148395860340562E8 ; 1.4854809230535657E9 ; 3.4557438619395805E10 ; 0.0
181 ; 7422731.711082059 ; 2.014890676746016E8 ; 1.492918010626223E9 ; 3.4758922577999214E10 ; 0.0
182 ; 7411197.631542033 ; 2.0149415837503225E8 ; 1.500340742337305E9 ; 3.496041164567381E10 ; 0.0
183 ; 7399883.963788847 ; 2.014992305534337E8 ; 1.507751939968847E9 ; 3.516190580404884E10 ; 0.0
184 ; 7385095.510907295 ; 2.015042840600063E8 ; 1.5151518239326358E9 ; 3.536340503460228E10 ; 0.0
185 ; 7375145.2439105585 ; 2.0150931874639E8 ; 1.5225369194435432E9 ; 3.5564909318662285E10 ; 0.0
186 ; 7362958.772299477 ; 2.0151433446564066E8 ; 1.5299120646874537E9 ; 3.5766418637408676E10 ; 0.0
187 ; 7353058.388016324 ; 2.015193310722065E8 ; 1.5372750234597533E9 ; 3.596793297187431E10 ; 0.0
188 ; 7337918.358052741 ; 2.015243084219062E8 ; 1.5446280818477695E9 ; 3.616945230294652E10 ; 0.0
189 ; 7329407.585109019 ; 2.01529266371907E8 ; 1.5519660002058222E9 ; 3.637097661136842E10 ; 0.0
190 ; 7315732.485165394 ; 2.0153420478070375E8 ; 1.5592954077909312E9 ; 3.657250587774033E10 ; 0.0
191 ; 7303797.854653941 ; 2.015391235080986E8 ; 1.5666111402760966E9 ; 3.6774040082521034E10 ; 0.0
192 ; 7293971.5173668265 ; 2.015440224151813E8 ; 1.5739149381307504E9 ; 3.697557920602913E10 ; 0.0
193 ; 7281650.8427194 ; 2.0154890136431015E8 ; 1.5812089096481173E9 ; 3.717712322844431E10 ; 0.0
194 ; 7270645.0047189575 ; 2.015537602190934E8 ; 1.5884905604908366E9 ; 3.7378672129808624E10 ; 0.0
195 ; 7260408.777474976 ; 2.0155859884437165E8 ; 1.5957612054955556E9 ; 3.758022589002772E10 ; 0.0
196 ; 7242237.031183813 ; 2.0156341710619998E8 ; 1.6030216142730305E9 ; 3.7781784488872086E10 ; 0.0
197 ; 7233339.735512808 ; 2.0156821487183172E8 ; 1.6102638513042142E9 ; 3.798334790597829E10 ; 0.0
198 ; 7218717.646394874 ; 2.0157299200970167E8 ; 1.617497191039727E9 ; 3.818491612085012E10 ; 0.0
199 ; 7207270.941299331 ; 2.0157774838941061E8 ; 1.624715908686122E9 ; 3.8386489112859825E10 ; 0.0
200 ; 7195574.120405473 ; 2.0158248388170993E8 ; 1.6319231796274214E9 ; 3.858806686124924E10 ; 0.0
201 ; 7188866.777159634 ; 1.8725632853223497E8 ; 1.6391187537478268E9 ; 3.878964934513094E10 ; 0.0
