CSV File for the City 6 on Day 191
1 - Minute m 
2 - Power Consumed at minute m 
3 - Power Produced at minute m 
4 - Energy Consumed since the beginning of the day 
5 - Energy Produced since the beginning of the day 
6 - Energy Lost since the beginning of the day on lines starting from the city
 
0 ; 1572634.5831435197 ; 1.0586915391076723E8 ; 0.0 ; 0.0 ; 0.0
1 ; 1583811.7602232017 ; 1.0601978410092938E8 ; 1572634.5831435197 ; 1.0586915391076723E8 ; 0.0
2 ; 1598623.6631196565 ; 1.0647942753490695E8 ; 3156446.3433667216 ; 2.118889380116966E8 ; 0.0
3 ; 1609539.1454804302 ; 1.0724808976525927E8 ; 4755070.006486379 ; 3.1836836554660356E8 ; 0.0
4 ; 1627873.289450007 ; 1.0832577580185783E8 ; 6364609.151966808 ; 4.256164553118628E8 ; 0.0
5 ; 1646995.482925499 ; 1.0971249007295096E8 ; 7992482.441416815 ; 5.3394223111372066E8 ; 0.0
6 ; 1675544.992791101 ; 1.1140823638979563E8 ; 9639477.924342314 ; 6.436547211866716E8 ; 0.0
7 ; 1714566.1179371157 ; 1.1341301791549683E8 ; 1.1315022917133415E7 ; 7.550629575764673E8 ; 0.0
8 ; 1765513.1691519169 ; 1.1572683713863558E8 ; 1.3029589035070531E7 ; 8.684759754919641E8 ; 0.0
9 ; 1845807.2550579843 ; 1.183496958521955E8 ; 1.4795102204222448E7 ; 9.842028126305997E8 ; 0.0
10 ; 1973172.6031748205 ; 1.2128159513819987E8 ; 1.6640909459280433E7 ; 1.1025525084827952E9 ; 0.0
11 ; 2170109.113089642 ; 1.2452253535836837E8 ; 1.861408206245525E7 ; 1.223834103620995E9 ; 0.0
12 ; 2486146.256698285 ; 1.2807251615098128E8 ; 2.0784191175544895E7 ; 1.3483566389793634E9 ; 0.0
13 ; 2794237.868449401 ; 1.3193153643401533E8 ; 2.327033743224318E7 ; 1.4764291551303446E9 ; 0.0
14 ; 2830460.2703477493 ; 1.36099594414487E8 ; 2.606457530069258E7 ; 1.60836069156436E9 ; 0.0
15 ; 2847425.276660888 ; 1.4057668760381514E8 ; 2.889503557104033E7 ; 1.744460285978847E9 ; 0.0
16 ; 2859735.766622335 ; 1.4536281283889487E8 ; 3.1742460847701218E7 ; 1.885036973582662E9 ; 0.0
17 ; 2875592.3349269074 ; 1.5045796630846915E8 ; 3.460219661432356E7 ; 2.030399786421557E9 ; 0.0
18 ; 2889228.5548074003 ; 1.5586214358428967E8 ; 3.747778894925047E7 ; 2.1808577527300262E9 ; 0.0
19 ; 2902991.9435779755 ; 1.6157533965648493E8 ; 4.036701750405787E7 ; 2.336719896314316E9 ; 0.0
20 ; 2920033.8361221896 ; 1.675975489724956E8 ; 4.3270009447635844E7 ; 2.498295235970801E9 ; 0.0
21 ; 2936396.385508142 ; 1.7392876547890064E8 ; 4.619004328375804E7 ; 2.6658927849432964E9 ; 0.0
22 ; 2949567.0390516114 ; 1.8056898266544217E8 ; 4.912643966926618E7 ; 2.839821550422197E9 ; 0.0
23 ; 2966523.808956837 ; 1.8751819361055768E8 ; 5.2076006708317794E7 ; 3.020390533087639E9 ; 0.0
24 ; 2983285.00545865 ; 1.9477639102774906E8 ; 5.504253051727463E7 ; 3.2079087266981964E9 ; 0.0
25 ; 3002125.898855237 ; 2.0103160821033645E8 ; 5.8025815522733286E7 ; 3.4026851177259455E9 ; 0.0
26 ; 3009869.852074288 ; 2.010373851145367E8 ; 6.1027941421588525E7 ; 3.603716725936282E9 ; 0.0
27 ; 3029191.541746958 ; 2.0104348292963102E8 ; 6.403781127366281E7 ; 3.804754111050819E9 ; 0.0
28 ; 3045364.173187094 ; 2.010498933686165E8 ; 6.706700281540977E7 ; 4.00579759398045E9 ; 0.0
29 ; 3062033.365761244 ; 2.0105660800354674E8 ; 7.011236698859687E7 ; 4.2068474873490667E9 ; 0.0
30 ; 3075318.9973082975 ; 2.0106361830551538E8 ; 7.317440035435812E7 ; 4.407904095352613E9 ; 0.0
31 ; 3089379.4286285555 ; 2.010709156822675E8 ; 7.624971935166642E7 ; 4.608967713658129E9 ; 0.0
32 ; 3102709.93159231 ; 2.0107849151324713E8 ; 7.933909878029497E7 ; 4.810038629340396E9 ; 0.0
33 ; 3116199.025146195 ; 2.0108633718194932E8 ; 8.244180871188729E7 ; 5.011117120853643E9 ; 0.0
34 ; 3130765.490442447 ; 2.0109444410550377E8 ; 8.555800773703349E7 ; 5.212203458035593E9 ; 0.0
35 ; 3144081.516102515 ; 2.0110280376146746E8 ; 8.868877322747593E7 ; 5.413297902141097E9 ; 0.0
36 ; 3158787.0592223494 ; 2.0111140771184745E8 ; 9.183285474357843E7 ; 5.614400705902565E9 ; 0.0
37 ; 3166701.33782905 ; 2.011202476244142E8 ; 9.499164180280079E7 ; 5.815512113614412E9 ; 0.0
38 ; 3182792.969716008 ; 2.011293152913948E8 ; 9.815834314062984E7 ; 6.016632361238827E9 ; 0.0
39 ; 3192038.49603817 ; 2.0113860264566243E8 ; 1.0134113611034586E8 ; 6.217761676530222E9 ; 0.0
40 ; 3205513.0086995484 ; 2.011481017745557E8 ; 1.0453317460638402E8 ; 6.418900279175884E9 ; 0.0
41 ; 3216913.1506986097 ; 2.0115780493147597E8 ; 1.0773868761508358E8 ; 6.62004838095044E9 ; 0.0
42 ; 3228087.4355052607 ; 2.0116770454541922E8 ; 1.1095560076578218E8 ; 6.821206185881916E9 ; 0.0
43 ; 3235944.5589057426 ; 2.0117779322860426E8 ; 1.1418368820128743E8 ; 7.022373890427336E9 ; 0.0
44 ; 3246664.4064935516 ; 2.0118806378235966E8 ; 1.1741963276019317E8 ; 7.22355168365594E9 ; 0.0
45 ; 3254899.10241113 ; 2.011985092014308E8 ; 1.2066629716668671E8 ; 7.4247397474383E9 ; 0.0
46 ; 3261997.0793454484 ; 2.0120912267686403E8 ; 1.2392119626909785E8 ; 7.62593825663973E9 ; 0.0
47 ; 3271386.2335455786 ; 2.0121989759761897E8 ; 1.271831933484433E8 ; 7.827147379316594E9 ; 0.0
48 ; 3278406.6745491424 ; 2.0123082755105332E8 ; 1.3045457958198887E8 ; 8.028367276914213E9 ; 0.0
49 ; 3282333.5210031616 ; 2.012419063224155E8 ; 1.3373298625653802E8 ; 8.229598104465266E9 ; 0.0
50 ; 3291031.2892200067 ; 2.0125312789347234E8 ; 1.370153197775412E8 ; 8.430840010787682E9 ; 0.0
51 ; 3297715.4699225617 ; 2.012644864403889E8 ; 1.403063510667612E8 ; 8.632093138681154E9 ; 0.0
52 ; 3303841.9055274627 ; 2.012759763309692E8 ; 1.4360406653668377E8 ; 8.833357625121544E9 ; 0.0
53 ; 3311395.300617559 ; 2.0128759212135628E8 ; 1.4690790844221124E8 ; 9.034633601452513E9 ; 0.0
54 ; 3314133.738454252 ; 2.0129932855228138E8 ; 1.502193037428288E8 ; 9.23592119357387E9 ; 0.0
55 ; 3318855.092147795 ; 2.0131118054494345E8 ; 1.5353343748128304E8 ; 9.437220522126152E9 ; 0.0
56 ; 3322714.0979983127 ; 2.013231431965915E8 ; 1.5685229257343084E8 ; 9.638531702671095E9 ; 0.0
57 ; 3331122.9226301196 ; 2.0133521177587458E8 ; 1.6017500667142916E8 ; 9.839854845867687E9 ; 0.0
58 ; 3336731.7980174506 ; 2.0134738171801665E8 ; 1.635061295940593E8 ; 1.0041190057643562E10 ; 0.0
59 ; 3340524.4990244806 ; 2.0135964861986735E8 ; 1.6684286139207673E8 ; 1.024253743936158E10 ; 0.0
60 ; 3344985.630913547 ; 2.0137200823487243E8 ; 1.701833858911012E8 ; 1.0443897087981447E10 ; 0.0
61 ; 3350763.518393528 ; 2.013844564680029E8 ; 1.7352837152201477E8 ; 1.064526909621632E10 ; 0.0
62 ; 3356283.8312798496 ; 2.0139698937067586E8 ; 1.7687913504040828E8 ; 1.0846653552684322E10 ; 0.0
63 ; 3361736.735436273 ; 2.014096031356961E8 ; 1.8023541887168813E8 ; 1.1048050542054998E10 ; 0.0
64 ; 3366269.1104904804 ; 2.0142229409224212E8 ; 1.835971556071244E8 ; 1.1249460145190695E10 ; 0.0
65 ; 3368568.1091037323 ; 2.014350587009177E8 ; 1.8696342471761486E8 ; 1.1450882439282936E10 ; 0.0
66 ; 3375779.6193827684 ; 2.0144789354888597E8 ; 1.903319928267186E8 ; 1.1652317497983854E10 ; 0.0
67 ; 3379879.491722588 ; 2.0146079534510002E8 ; 1.9370777244610137E8 ; 1.185376539153274E10 ; 0.0
68 ; 3384567.071483602 ; 2.014737609156415E8 ; 1.9708765193782395E8 ; 1.205522618687784E10 ; 0.0
69 ; 3385666.066793674 ; 2.0148678719917625E8 ; 2.0047221900930756E8 ; 1.2256699947793482E10 ; 0.0
70 ; 3393505.148830877 ; 2.0149987124253428E8 ; 2.0385788507610124E8 ; 1.2458186734992659E10 ; 0.0
71 ; 3395104.953888272 ; 2.015130101964189E8 ; 2.0725139022493213E8 ; 1.2659686606235193E10 ; 0.0
72 ; 3401894.737321968 ; 2.0152620131124902E8 ; 2.106464951788204E8 ; 1.2861199616431612E10 ; 0.0
73 ; 3402461.5916034733 ; 2.015394419331367E8 ; 2.1404838991614237E8 ; 1.306272581774286E10 ; 0.0
74 ; 3406548.81032274 ; 2.0155272950000146E8 ; 2.1745085150774586E8 ; 1.3264265259675997E10 ; 0.0
75 ; 3412590.1395682553 ; 2.0156606153782123E8 ; 2.208574003180686E8 ; 1.3465817989175999E10 ; 0.0
76 ; 3416000.331848892 ; 2.0157943565701938E8 ; 2.2426999045763686E8 ; 1.366738405071382E10 ; 0.0
77 ; 3418021.899000209 ; 2.0159284954898667E8 ; 2.2768599078948575E8 ; 1.3868963486370838E10 ; 0.0
78 ; 3420202.2477651695 ; 2.0160630098273614E8 ; 2.3110401268848595E8 ; 1.4070556335919825E10 ; 0.0
79 ; 3417228.015067726 ; 2.016197878016882E8 ; 2.3452421493625113E8 ; 1.4272162636902561E10 ; 0.0
80 ; 3417192.803255505 ; 2.0163330792058387E8 ; 2.3794144295131886E8 ; 1.447378242470425E10 ; 0.0
81 ; 3419639.063422459 ; 2.0164685932252228E8 ; 2.4135863575457436E8 ; 1.4675415732624834E10 ; 0.0
82 ; 3415575.06564768 ; 2.0166044005611974E8 ; 2.4477827481799683E8 ; 1.4877062591947357E10 ; 0.0
83 ; 3417914.2902261424 ; 2.0167404823278645E8 ; 2.4819384988364452E8 ; 1.5078723032003477E10 ; 0.0
84 ; 3414605.8680838007 ; 2.016876820241173E8 ; 2.5161176417387065E8 ; 1.5280397080236263E10 ; 0.0
85 ; 3417946.276786867 ; 2.017013396593934E8 ; 2.5502637004195446E8 ; 1.548208476226038E10 ; 0.0
86 ; 3412230.9749687365 ; 2.017150194231898E8 ; 2.5844431631874132E8 ; 1.5683786101919773E10 ; 0.0
87 ; 3411029.0399428317 ; 2.0172871965308627E8 ; 2.6185654729371005E8 ; 1.5885501121342962E10 ; 0.0
88 ; 3410909.2289403756 ; 2.0174243873747733E8 ; 2.6526757633365288E8 ; 1.6087229840996048E10 ; 0.0
89 ; 3410223.2313924646 ; 2.0175617511347687E8 ; 2.686784855625933E8 ; 1.6288972279733526E10 ; 0.0
90 ; 3408855.737687701 ; 2.0176992726491514E8 ; 2.720887087939857E8 ; 1.6490728454847004E10 ; 0.0
91 ; 3412339.2187852394 ; 2.0178369372042295E8 ; 2.7549756453167343E8 ; 1.669249838211192E10 ; 0.0
92 ; 3411008.683643442 ; 2.017974730516005E8 ; 2.7890990375045866E8 ; 1.6894282075832342E10 ; 0.0
93 ; 3404744.457225397 ; 2.01811263871267E8 ; 2.823209124341021E8 ; 1.7096079548883944E10 ; 0.0
94 ; 3406709.455660274 ; 2.0182506483178768E8 ; 2.857256568913275E8 ; 1.729789081275521E10 ; 0.0
95 ; 3401751.6987941135 ; 2.0183887462347475E8 ; 2.891323663469878E8 ; 1.7499715877586998E10 ; 0.0
96 ; 3400806.6019372 ; 2.0185269197305948E8 ; 2.925341180457819E8 ; 1.7701554752210472E10 ; 0.0
97 ; 3396265.7134070517 ; 2.01866515642232E8 ; 2.959349246477191E8 ; 1.7903407444183533E10 ; 0.0
98 ; 3397927.3413591664 ; 2.0188034442624587E8 ; 2.993311903611261E8 ; 1.8105273959825764E10 ; 0.0
99 ; 3393216.688183746 ; 2.0189417715258467E8 ; 3.0272911770248526E8 ; 1.830715430425201E10 ; 0.0
100 ; 3394054.919739756 ; 2.0190801267968774E8 ; 3.06122334390669E8 ; 1.8509048481404594E10 ; 0.0
101 ; 3390538.961109822 ; 2.0192184989573237E8 ; 3.095163893104088E8 ; 1.8710956494084282E10 ; 0.0
102 ; 3390698.1061489857 ; 2.0193568771747014E8 ; 3.129069282715186E8 ; 1.8912878343980015E10 ; 0.0
103 ; 3389154.269069097 ; 2.0194952508911437E8 ; 3.1629762637766755E8 ; 1.9114814031697483E10 ; 0.0
104 ; 3385137.3739581173 ; 2.0196336098127732E8 ; 3.196867806467366E8 ; 1.93167635567866E10 ; 0.0
105 ; 3384301.0307870717 ; 2.0197719438995364E8 ; 3.2307191802069473E8 ; 1.9518726917767876E10 ; 0.0
106 ; 3384086.3639812684 ; 2.0199102433554912E8 ; 3.264562190514818E8 ; 1.972070411215783E10 ; 0.0
107 ; 3377083.0424000556 ; 2.0200484986195168E8 ; 3.2984030541546303E8 ; 1.9922695136493378E10 ; 0.0
108 ; 3374996.7585996324 ; 2.0201867003564352E8 ; 3.332173884578631E8 ; 2.0124699986355328E10 ; 0.0
109 ; 3375361.263722026 ; 2.020324839448518E8 ; 3.3659238521646273E8 ; 2.0326718656390972E10 ; 0.0
110 ; 3366921.6862443066 ; 2.0204629069873646E8 ; 3.3996774648018473E8 ; 2.0528751140335823E10 ; 0.0
111 ; 3365532.4939512843 ; 2.020600894266135E8 ; 3.4333466816642904E8 ; 2.073079743103456E10 ; 0.0
112 ; 3362338.7962750853 ; 2.020738792772118E8 ; 3.467002006603803E8 ; 2.0932857520461174E10 ; 0.0
113 ; 3357980.7346856035 ; 2.020876594179621E8 ; 3.500625394566554E8 ; 2.1134931399738384E10 ; 0.0
114 ; 3357068.590888438 ; 2.0210142903431696E8 ; 3.53420520191341E8 ; 2.1337019059156345E10 ; 0.0
115 ; 3354974.96783731 ; 2.0211518732909954E8 ; 3.567775887822294E8 ; 2.1539120488190662E10 ; 0.0
116 ; 3351352.946534893 ; 2.0212893352188048E8 ; 3.6013256375006676E8 ; 2.174123567551976E10 ; 0.0
117 ; 3348458.14259563 ; 2.0214266684838158E8 ; 3.634839166966016E8 ; 2.194336460904164E10 ; 0.0
118 ; 3341223.799214437 ; 2.0215638655990443E8 ; 3.668323748391973E8 ; 2.2145507275890022E10 ; 0.0
119 ; 3339053.075492116 ; 2.0217009192278385E8 ; 3.701735986384117E8 ; 2.234766366244993E10 ; 0.0
120 ; 3336784.09961312 ; 2.0218378221786395E8 ; 3.7351265171390384E8 ; 2.254983375437271E10 ; 0.0
121 ; 3332200.095307643 ; 2.021974567399965E8 ; 3.76849435813517E8 ; 2.2752017536590576E10 ; 0.0
122 ; 3327168.551704942 ; 2.0221111479756027E8 ; 3.801816359088246E8 ; 2.2954214993330574E10 ; 0.0
123 ; 3324611.951901271 ; 2.0222475571200073E8 ; 3.8350880446052957E8 ; 2.3156426108128136E10 ; 0.0
124 ; 3319047.641744535 ; 2.022383788173884E8 ; 3.868334164124308E8 ; 2.3358650863840137E10 ; 0.0
125 ; 3312462.3070439906 ; 2.02251983459996E8 ; 3.901524640541754E8 ; 2.3560889242657524E10 ; 0.0
126 ; 3312780.6403799294 ; 2.0226556899789312E8 ; 3.9346492636121935E8 ; 2.376314122611752E10 ; 0.0
127 ; 3304900.024500394 ; 2.0227913480055702E8 ; 3.9677770700159925E8 ; 2.3965406795115414E10 ; 0.0
128 ; 3304620.819275233 ; 2.0229268024850005E8 ; 4.000826070260996E8 ; 2.416768592991597E10 ; 0.0
129 ; 3298915.1779296254 ; 2.023062047329119E8 ; 4.033872278453749E8 ; 2.436997861016447E10 ; 0.0
130 ; 3293058.9403524287 ; 2.0231970765531665E8 ; 4.066861430233045E8 ; 2.457228481489738E10 ; 0.0
131 ; 3282131.429533961 ; 2.0233318842724353E8 ; 4.0997920196365696E8 ; 2.4774604522552696E10 ; 0.0
132 ; 3274831.966500214 ; 2.02346646469911E8 ; 4.132613333931909E8 ; 2.497693771097994E10 ; 0.0
133 ; 3269109.331808041 ; 2.023600812139238E8 ; 4.1653616535969114E8 ; 2.517928435744985E10 ; 0.0
134 ; 3258514.7585370084 ; 2.0237349209898177E8 ; 4.198052746914992E8 ; 2.5381644438663773E10 ; 0.0
135 ; 3245582.6304118265 ; 2.0238687857360047E8 ; 4.2306378945003617E8 ; 2.5584017930762753E10 ; 0.0
136 ; 3239554.2685012105 ; 2.02400240094843E8 ; 4.26309372080448E8 ; 2.5786404809336353E10 ; 0.0
137 ; 3231014.807400644 ; 2.0241357612806225E8 ; 4.295489263489492E8 ; 2.59888050494312E10 ; 0.0
138 ; 3223674.2578738932 ; 2.0242688614665335E8 ; 4.3277994115634984E8 ; 2.619121862555926E10 ; 0.0
139 ; 3210033.8642196376 ; 2.024401696318161E8 ; 4.3600361541422373E8 ; 2.6393645511705914E10 ; 0.0
140 ; 3203571.7536006705 ; 2.0245342607232618E8 ; 4.392136492784434E8 ; 2.659608568133773E10 ; 0.0
141 ; 3193461.875798105 ; 2.024666549643158E8 ; 4.4241722103204405E8 ; 2.6798539107410057E10 ; 0.0
142 ; 3187159.5607389486 ; 2.024798558110626E8 ; 4.4561068290784216E8 ; 2.7001005762374374E10 ; 0.0
143 ; 3175607.773968725 ; 2.024930281227867E8 ; 4.487978424685811E8 ; 2.7203485618185436E10 ; 0.0
144 ; 3166253.1335153705 ; 2.0250617141645557E8 ; 4.519734502425498E8 ; 2.7405978646308224E10 ; 0.0
145 ; 3164137.250467783 ; 2.0251928521559656E8 ; 4.5513970337606514E8 ; 2.7608484817724678E10 ; 0.0
146 ; 3156575.456218165 ; 2.0253236905011636E8 ; 4.583038406265329E8 ; 2.7811004102940273E10 ; 0.0
147 ; 3154778.576660244 ; 2.0254542245612743E8 ; 4.614604160827511E8 ; 2.801353647199039E10 ; 0.0
148 ; 3146493.430537673 ; 2.0255844497578108E8 ; 4.646151946594113E8 ; 2.8216081894446518E10 ; 0.0
149 ; 3141410.3518958734 ; 2.0257143615710667E8 ; 4.67761688089949E8 ; 2.84186403394223E10 ; 0.0
150 ; 3135600.0308680367 ; 2.0258439555385706E8 ; 4.709030984418449E8 ; 2.8621211775579407E10 ; 0.0
151 ; 3127753.4528436004 ; 2.0259732272535965E8 ; 4.7403869847271293E8 ; 2.8823796171133263E10 ; 0.0
152 ; 3126474.542966834 ; 2.0261021723637328E8 ; 4.7716645192555654E8 ; 2.9026393493858624E10 ; 0.0
153 ; 3121817.9974639076 ; 2.0262307865695E8 ; 4.802929264685234E8 ; 2.9229003711094997E10 ; 0.0
154 ; 3114830.2029784485 ; 2.0263590656230244E8 ; 4.8341474446598727E8 ; 2.9431626789751945E10 ; 0.0
155 ; 3116500.398367041 ; 2.0264870053267577E8 ; 4.865295746689657E8 ; 2.9634262696314247E10 ; 0.0
156 ; 3108376.7836229354 ; 2.0266146015322447E8 ; 4.8964607506733274E8 ; 2.9836911396846924E10 ; 0.0
157 ; 3103294.6634646254 ; 2.026741850138935E8 ; 4.9275445185095567E8 ; 3.003957285700015E10 ; 0.0
158 ; 3102049.370000903 ; 2.0268687470930415E8 ; 4.958577465144203E8 ; 3.024224704201404E10 ; 0.0
159 ; 3094330.529366007 ; 2.0269952883864355E8 ; 4.9895979588442117E8 ; 3.0444933916723347E10 ; 0.0
160 ; 3086111.141221497 ; 2.0271214700555858E8 ; 5.020541264137872E8 ; 3.064763344556199E10 ; 0.0
161 ; 3080533.550701393 ; 2.0272472881805342E8 ; 5.051402375550087E8 ; 3.0850345592567547E10 ; 0.0
162 ; 3080487.896034088 ; 2.0273727388839087E8 ; 5.082207711057101E8 ; 3.10530703213856E10 ; 0.0
163 ; 3073110.338355198 ; 2.027497818329972E8 ; 5.1130125900174415E8 ; 3.125580759527399E10 ; 0.0
164 ; 3069166.6944594085 ; 2.0276225227237034E8 ; 5.1437436934009933E8 ; 3.1458557377106987E10 ; 0.0
165 ; 3061733.852995145 ; 2.0277468483099133E8 ; 5.174435360345588E8 ; 3.1661319629379356E10 ; 0.0
166 ; 3056582.9952171864 ; 2.0278707913723913E8 ; 5.2050526988755393E8 ; 3.1864094314210346E10 ; 0.0
167 ; 3054809.5734246904 ; 2.0279943482330817E8 ; 5.2356185288277113E8 ; 3.2066881393347584E10 ; 0.0
168 ; 3052215.3120424785 ; 2.0281175152512893E8 ; 5.2661666245619583E8 ; 3.226968082817089E10 ; 0.0
169 ; 3040198.7373226574 ; 2.0282402888229138E8 ; 5.296688777682383E8 ; 3.247249257969602E10 ; 0.0
170 ; 3039381.778176762 ; 2.02836266537971E8 ; 5.3270907650556093E8 ; 3.267531660857831E10 ; 0.0
171 ; 3029899.906825933 ; 2.0284846413885733E8 ; 5.357484582837377E8 ; 3.287815287511628E10 ; 0.0
172 ; 3028495.247820046 ; 2.0286062133508533E8 ; 5.387783581905637E8 ; 3.308100133925514E10 ; 0.0
173 ; 3022420.306397798 ; 2.0287273778016868E8 ; 5.418068534383837E8 ; 3.3283861960590225E10 ; 0.0
174 ; 3018325.8405227484 ; 2.0288481313093573E8 ; 5.448292737447815E8 ; 3.3486734698370396E10 ; 0.0
175 ; 3017572.5817758064 ; 2.0289684704746747E8 ; 5.478475995853043E8 ; 3.368961951150133E10 ; 0.0
176 ; 3008640.7101843734 ; 2.0290883919303787E8 ; 5.5086517216708E8 ; 3.3892516358548798E10 ; 0.0
177 ; 3006287.365276164 ; 2.0292078923405585E8 ; 5.538738128772644E8 ; 3.4095425197741837E10 ; 0.0
178 ; 3005830.548783889 ; 2.029326968400098E8 ; 5.568801002425406E8 ; 3.429834598697589E10 ; 0.0
179 ; 3004157.9916507453 ; 2.029445616834135E8 ; 5.598859307913245E8 ; 3.45012786838159E10 ; 0.0
180 ; 2999656.5214639367 ; 2.029563834397541E8 ; 5.628900887829752E8 ; 3.470422324549931E10 ; 0.0
181 ; 2995579.9090348016 ; 2.0296816178744197E8 ; 5.658897453044392E8 ; 3.4907179628939064E10 ; 0.0
182 ; 2992295.209434234 ; 2.02979896407762E8 ; 5.68885325213474E8 ; 3.511014779072651E10 ; 0.0
183 ; 2991669.051778286 ; 2.0299158698482677E8 ; 5.718776204229083E8 ; 3.531312768713427E10 ; 0.0
184 ; 2979242.191112109 ; 2.0300323320553115E8 ; 5.748692894746866E8 ; 3.5516119274119095E10 ; 0.0
185 ; 2978849.6502527366 ; 2.0301483475950858E8 ; 5.778485316657988E8 ; 3.571912250732462E10 ; 0.0
186 ; 2977069.132882823 ; 2.030263913390886E8 ; 5.808273813160515E8 ; 3.592213734208413E10 ; 0.0
187 ; 2973703.0737972874 ; 2.030379026392561E8 ; 5.838044504489343E8 ; 3.612516373342322E10 ; 0.0
188 ; 2969228.7220921377 ; 2.030493683576116E8 ; 5.867781535227317E8 ; 3.632820163606248E10 ; 0.0
189 ; 2965699.208173091 ; 2.030607881943332E8 ; 5.897473822448238E8 ; 3.653125100442009E10 ; 0.0
190 ; 2960768.825611348 ; 2.0307216185213944E8 ; 5.927130814529969E8 ; 3.6734311792614426E10 ; 0.0
191 ; 2958786.0256202603 ; 2.0308348903625375E8 ; 5.956738502786082E8 ; 3.693738395446657E10 ; 0.0
192 ; 2954809.0881788908 ; 2.030947694543698E8 ; 5.986326363042284E8 ; 3.714046744350282E10 ; 0.0
193 ; 2950322.6256125807 ; 2.0310600281661814E8 ; 6.015874453924073E8 ; 3.734356221295719E10 ; 0.0
194 ; 2948860.3296066653 ; 2.0311718883553395E8 ; 6.045377680180199E8 ; 3.754666821577381E10 ; 0.0
195 ; 2942639.2570395498 ; 2.0312832722602576E8 ; 6.074866283476266E8 ; 3.7749785404609344E10 ; 0.0
196 ; 2940237.1457701894 ; 2.0313941770534527E8 ; 6.104292676046661E8 ; 3.795291373183537E10 ; 0.0
197 ; 2937419.033285489 ; 2.0315045999305826E8 ; 6.133695047504363E8 ; 3.815605314954072E10 ; 0.0
198 ; 2931373.00162759 ; 2.0316145381101614E8 ; 6.163069237837218E8 ; 3.8359203609533775E10 ; 0.0
199 ; 2932320.0331453765 ; 2.0317239888332886E8 ; 6.192382967853494E8 ; 3.8562365063344795E10 ; 0.0
200 ; 2923772.3245254997 ; 2.0305373542668605E8 ; 6.221706168184948E8 ; 3.876553746222813E10 ; 0.0
