CSV File for the City 4 on Day 89
1 - Minute m 
2 - Power Consumed at minute m 
3 - Power Produced at minute m 
4 - Energy Consumed since the beginning of the day 
5 - Energy Produced since the beginning of the day 
6 - Energy Lost since the beginning of the day on lines starting from the city
 
0 ; 6837745.730012755 ; 1.0617844814365676E8 ; 0.0 ; 0.0 ; 0.0
1 ; 6844911.936997406 ; 1.0632898923743343E8 ; 6837745.730012755 ; 1.0617844814365676E8 ; 0.0
2 ; 6851933.38697708 ; 1.0678855742132923E8 ; 1.3682657667010162E7 ; 2.125074373810902E8 ; 0.0
3 ; 6861218.433699385 ; 1.0755715685024643E8 ; 2.0534591053987242E7 ; 3.192959948024194E8 ; 0.0
4 ; 6869128.946284136 ; 1.0863479124879694E8 ; 2.7395809487686627E7 ; 4.2685315165266585E8 ; 0.0
5 ; 6882023.652221844 ; 1.1002146389030284E8 ; 3.4264938433970764E7 ; 5.354879429014628E8 ; 0.0
6 ; 6898850.559275431 ; 1.1171717757798073E8 ; 4.114696208619261E7 ; 6.455094067917657E8 ; 0.0
7 ; 6922016.487908831 ; 1.1372193462856025E8 ; 4.804581264546804E7 ; 7.572265843697464E8 ; 0.0
8 ; 6957293.816284925 ; 1.1603573685855728E8 ; 5.4967829133376874E7 ; 8.709485189983068E8 ; 0.0
9 ; 7004018.839964473 ; 1.1865858557339156E8 ; 6.19251229496618E7 ; 9.86984255856864E8 ; 0.0
10 ; 7084096.634521659 ; 1.2159048155950081E8 ; 6.892914178962627E7 ; 1.1056428414302554E9 ; 0.0
11 ; 7204723.826399438 ; 1.2483142507956442E8 ; 7.601323842414793E7 ; 1.227233322989756E9 ; 0.0
12 ; 7405534.274860003 ; 1.2838141587090299E8 ; 8.321796225054738E7 ; 1.3520647480693204E9 ; 0.0
13 ; 7598019.186881399 ; 1.3224045314707875E8 ; 9.062349652540739E7 ; 1.4804461639402235E9 ; 0.0
14 ; 7620264.573752358 ; 1.364085356026721E8 ; 9.822151571228878E7 ; 1.6126866170873022E9 ; 0.0
15 ; 7626856.560021418 ; 1.4088566142116702E8 ; 1.0584178028604114E8 ; 1.7490951526899743E9 ; 0.0
16 ; 7635150.248791938 ; 1.4567182828583398E8 ; 1.1346863684606256E8 ; 1.8899808141111412E9 ; 0.0
17 ; 7644519.887868211 ; 1.507670333934563E8 ; 1.2110378709485449E8 ; 2.0356526423969753E9 ; 0.0
18 ; 7651364.350999723 ; 1.5617127347071195E8 ; 1.287483069827227E8 ; 2.1864196757904315E9 ; 0.0
19 ; 7659780.209547567 ; 1.61884544792989E8 ; 1.363996713337224E8 ; 2.3425909492611437E9 ; 0.0
20 ; 7670732.932774428 ; 1.6790684320538512E8 ; 1.4405945154327E8 ; 2.5044754940541325E9 ; 0.0
21 ; 7681385.173071171 ; 1.742381641456227E8 ; 1.5173018447604442E8 ; 2.6723823372595177E9 ; 0.0
22 ; 7691173.859089767 ; 1.8087850266859347E8 ; 1.594115696491156E8 ; 2.8466205014051404E9 ; 0.0
23 ; 7701867.996084988 ; 1.8782785347223896E8 ; 1.6710274350820535E8 ; 3.027499004073734E9 ; 0.0
24 ; 7705596.527928883 ; 1.9508621092446965E8 ; 1.7480461150429034E8 ; 3.215326857545973E9 ; 0.0
25 ; 7713110.85987663 ; 2.0134160998901084E8 ; 1.8251020803221923E8 ; 3.4104130684704423E9 ; 0.0
26 ; 7725218.572269708 ; 2.0134759229041722E8 ; 1.9022331889209586E8 ; 3.611754678459453E9 ; 0.0
27 ; 7733164.744069169 ; 2.013539206672756E8 ; 1.9794853746436557E8 ; 3.8131022707498703E9 ; 0.0
28 ; 7743210.327796958 ; 2.0136058844719866E8 ; 2.0568170220843473E8 ; 4.0144561914171457E9 ; 0.0
29 ; 7748887.2845060425 ; 2.0136758876797378E8 ; 2.134249125362317E8 ; 4.2158167798643446E9 ; 0.0
30 ; 7758291.532072619 ; 2.013749146049309E8 ; 2.2117379982073775E8 ; 4.4171843686323185E9 ; 0.0
31 ; 7770364.324939391 ; 2.013825587975801E8 ; 2.2893209135281038E8 ; 4.618559283237249E9 ; 0.0
32 ; 7775970.475943774 ; 2.0139051407534993E8 ; 2.3670245567774978E8 ; 4.819941842034829E9 ; 0.0
33 ; 7779571.3319394 ; 2.013987730822814E8 ; 2.4447842615369356E8 ; 5.021332356110179E9 ; 0.0
34 ; 7791197.453028189 ; 2.0140732840055862E8 ; 2.5225799748563296E8 ; 5.22273112919246E9 ; 0.0
35 ; 7798139.780954093 ; 2.0141617257278094E8 ; 2.6004919493866116E8 ; 5.424138457593019E9 ; 0.0
36 ; 7806040.110364281 ; 2.0142529812290448E8 ; 2.6784733471961525E8 ; 5.625554630165799E9 ; 0.0
37 ; 7814314.529244152 ; 2.014346975758036E8 ; 2.7565337482997954E8 ; 5.826979928288704E9 ; 0.0
38 ; 7817125.999086622 ; 2.0144436347542182E8 ; 2.8346768935922366E8 ; 6.028414625864508E9 ; 0.0
39 ; 7826266.107016625 ; 2.0145428840150112E8 ; 2.912848153583103E8 ; 6.22985898933993E9 ; 0.0
40 ; 7832811.5103419805 ; 2.014644649848946E8 ; 2.991110814653269E8 ; 6.43131327774143E9 ; 0.0
41 ; 7837302.297445178 ; 2.01474885921481E8 ; 3.069438929756689E8 ; 6.632777742726325E9 ; 0.0
42 ; 7841561.267577786 ; 2.014855439847132E8 ; 3.147811952731141E8 ; 6.834252628647806E9 ; 0.0
43 ; 7846638.394979418 ; 2.0149643203684214E8 ; 3.2262275654069185E8 ; 7.03573817263252E9 ; 0.0
44 ; 7852194.191737045 ; 2.0150754303886667E8 ; 3.3046939493567127E8 ; 7.237234604669362E9 ; 0.0
45 ; 7857333.630604007 ; 2.0151887005926618E8 ; 3.383215891274083E8 ; 7.438742147708229E9 ; 0.0
46 ; 7864139.654688015 ; 2.0153040628157833E8 ; 3.4617892275801235E8 ; 7.640261017767495E9 ; 0.0
47 ; 7864633.4917977 ; 2.015421450108877E8 ; 3.5404306241270036E8 ; 7.841791424049073E9 ; 0.0
48 ; 7871056.664718156 ; 2.015540796792933E8 ; 3.6190769590449804E8 ; 8.043333569059961E9 ; 0.0
49 ; 7872207.554510066 ; 2.0156620385042468E8 ; 3.697787525692162E8 ; 8.244887648739255E9 ; 0.0
50 ; 7876356.666720098 ; 2.0157851122307575E8 ; 3.7765096012372625E8 ; 8.44645385258968E9 ; 0.0
51 ; 7878803.1567957625 ; 2.0159099563402545E8 ; 3.8552731679044634E8 ; 8.648032363812756E9 ; 0.0
52 ; 7879198.515943562 ; 2.0160365106011292E8 ; 3.934061199472421E8 ; 8.849623359446781E9 ; 0.0
53 ; 7882333.762338125 ; 2.0161647161963218E8 ; 4.0128531846318567E8 ; 9.051227010506893E9 ; 0.0
54 ; 7883282.5376138445 ; 2.016294515731101E8 ; 4.0916765222552377E8 ; 9.252843482126526E9 ; 0.0
55 ; 7884409.415011403 ; 2.016425853235277E8 ; 4.1705093476313764E8 ; 9.454472933699636E9 ; 0.0
56 ; 7891785.267371029 ; 2.0165586741604197E8 ; 4.2493534417814904E8 ; 9.656115519023165E9 ; 0.0
57 ; 7891305.839697862 ; 2.0166929253726277E8 ; 4.3282712944552004E8 ; 9.857771386439207E9 ; 0.0
58 ; 7894017.364706503 ; 2.0168285551413527E8 ; 4.407184352852179E8 ; 1.0059440678976469E10 ; 0.0
59 ; 7898912.080247984 ; 2.0169655131247535E8 ; 4.486124526499244E8 ; 1.0261123534490604E10 ; 0.0
60 ; 7898169.579655771 ; 2.017103750352025E8 ; 4.565113647301724E8 ; 1.046282008580308E10 ; 0.0
61 ; 7897111.056474937 ; 2.0172432192031017E8 ; 4.6440953430982816E8 ; 1.0664530460838282E10 ; 0.0
62 ; 7903455.217450573 ; 2.0173838733861208E8 ; 4.723066453663031E8 ; 1.0866254782758593E10 ; 0.0
63 ; 7903406.082617864 ; 2.01752566791298E8 ; 4.8021010058375365E8 ; 1.1067993170097204E10 ; 0.0
64 ; 7906339.893558703 ; 2.0176685590733105E8 ; 4.881135066663715E8 ; 1.1269745736888502E10 ; 0.0
65 ; 7905655.538530149 ; 2.0178125044071472E8 ; 4.960198465599302E8 ; 1.1471512592795834E10 ; 0.0
66 ; 7908301.020901717 ; 2.0179574626765573E8 ; 5.039255020984604E8 ; 1.1673293843236547E10 ; 0.0
67 ; 7908188.102164817 ; 2.018103393836456E8 ; 5.118338031193621E8 ; 1.1875089589504204E10 ; 0.0
68 ; 7910003.768012755 ; 2.0182502590048248E8 ; 5.197419912215269E8 ; 1.207689992888785E10 ; 0.0
69 ; 7909295.646236357 ; 2.018398020432514E8 ; 5.276519949895397E8 ; 1.2278724954788332E10 ; 0.0
70 ; 7912394.942925011 ; 2.0185466414727992E8 ; 5.3556129063577604E8 ; 1.2480564756831583E10 ; 0.0
71 ; 7915631.088175206 ; 2.0186960865508378E8 ; 5.43473685578701E8 ; 1.2682419420978863E10 ; 0.0
72 ; 7915818.680717691 ; 2.0188463211331555E8 ; 5.513893166668762E8 ; 1.2884289029633947E10 ; 0.0
73 ; 7918198.709967606 ; 2.0189973116972795E8 ; 5.593051353475939E8 ; 1.3086173661747263E10 ; 0.0
74 ; 7917243.722650568 ; 2.0191490257016128E8 ; 5.672233340575615E8 ; 1.328807339291699E10 ; 0.0
75 ; 7917285.7556115 ; 2.0193014315556386E8 ; 5.75140577780212E8 ; 1.3489988295487152E10 ; 0.0
76 ; 7918808.751240108 ; 2.019454498590531E8 ; 5.830578635358236E8 ; 1.3691918438642715E10 ; 0.0
77 ; 7920255.992324473 ; 2.0196081970302275E8 ; 5.909766722870637E8 ; 1.3893863888501768E10 ; 0.0
78 ; 7917643.471365266 ; 2.0197624979630253E8 ; 5.988969282793882E8 ; 1.409582470820479E10 ; 0.0
79 ; 7912673.442386136 ; 2.0199173733137375E8 ; 6.068145717507534E8 ; 1.4297800958001093E10 ; 0.0
80 ; 7914490.183134785 ; 2.02007279581645E8 ; 6.147272451931396E8 ; 1.4499792695332466E10 ; 0.0
81 ; 7911109.15343632 ; 2.0202287389879078E8 ; 6.226417353762743E8 ; 1.4701799974914112E10 ; 0.0
82 ; 7911171.2601399245 ; 2.020385177101548E8 ; 6.305528445297107E8 ; 1.4903822848812902E10 ; 0.0
83 ; 7909325.742375567 ; 2.0205420851622063E8 ; 6.384640157898506E8 ; 1.5105861366523058E10 ; 0.0
84 ; 7907329.504715292 ; 2.0206994388814974E8 ; 6.463733415322262E8 ; 1.5307915575039278E10 ; 0.0
85 ; 7905307.02281021 ; 2.0208572146538854E8 ; 6.542806710369415E8 ; 1.5509985518927427E10 ; 0.0
86 ; 7900989.588163499 ; 2.021015389533445E8 ; 6.621859780597517E8 ; 1.5712071240392817E10 ; 0.0
87 ; 7900763.360627119 ; 2.0211739412113118E8 ; 6.700869676479152E8 ; 1.591417277934616E10 ; 0.0
88 ; 7900798.968774526 ; 2.021332847993823E8 ; 6.779877310085424E8 ; 1.6116290173467293E10 ; 0.0
89 ; 7897870.016974605 ; 2.0214920887813383E8 ; 6.85888529977317E8 ; 1.6318423458266676E10 ; 0.0
90 ; 7895616.608901363 ; 2.0216516430477408E8 ; 6.937863999942915E8 ; 1.652057266714481E10 ; 0.0
91 ; 7894850.668590689 ; 2.0218114908205998E8 ; 7.016820166031929E8 ; 1.6722737831449583E10 ; 0.0
92 ; 7887739.75296373 ; 2.021971612661993E8 ; 7.095768672717836E8 ; 1.6924918980531643E10 ; 0.0
93 ; 7884479.068658872 ; 2.02213198964997E8 ; 7.174646070247474E8 ; 1.7127116141797842E10 ; 0.0
94 ; 7883817.769652056 ; 2.0222926033606482E8 ; 7.253490860934062E8 ; 1.732932934076284E10 ; 0.0
95 ; 7881816.467494586 ; 2.0224534358509246E8 ; 7.332329038630582E8 ; 1.7531558601098904E10 ; 0.0
96 ; 7877782.883735201 ; 2.0226144696417883E8 ; 7.411147203305528E8 ; 1.7733803944683994E10 ; 0.0
97 ; 7875263.468749564 ; 2.0227756877022225E8 ; 7.48992503214288E8 ; 1.7936065391648174E10 ; 0.0
98 ; 7871414.304861547 ; 2.022937073433674E8 ; 7.568677666830375E8 ; 1.8138342960418396E10 ; 0.0
99 ; 7866663.500725554 ; 2.0230986106550813E8 ; 7.647391809878991E8 ; 1.8340636667761765E10 ; 0.0
100 ; 7864176.087342238 ; 2.0232602835884392E8 ; 7.726058444886246E8 ; 1.8542946528827274E10 ; 0.0
101 ; 7861258.550983489 ; 2.0234220768448877E8 ; 7.804700205759668E8 ; 1.874527255718612E10 ; 0.0
102 ; 7859085.8013025 ; 2.0235839754113072E8 ; 7.883312791269503E8 ; 1.894761476487061E10 ; 0.0
103 ; 7857844.285650738 ; 2.023745964637405E8 ; 7.961903649282528E8 ; 1.914997316241174E10 ; 0.0
104 ; 7851518.054168074 ; 2.0239080302232757E8 ; 8.040482092139035E8 ; 1.935234775887548E10 ; 0.0
105 ; 7850165.681413045 ; 2.0240701582074228E8 ; 8.118997272680717E8 ; 1.9554738561897808E10 ; 0.0
106 ; 7843878.836893783 ; 2.024232334955221E8 ; 8.197498929494847E8 ; 1.975714557771855E10 ; 0.0
107 ; 7841122.868025118 ; 2.0243945471478102E8 ; 8.275937717863785E8 ; 1.9959568811214073E10 ; 0.0
108 ; 7835614.882392704 ; 2.0245567817714003E8 ; 8.354348946544036E8 ; 2.0162008265928856E10 ; 0.0
109 ; 7835214.545355783 ; 2.024719026106977E8 ; 8.432705095367962E8 ; 2.0364463944105995E10 ; 0.0
110 ; 7831154.475881218 ; 2.0248812677203918E8 ; 8.51105724082152E8 ; 2.0566935846716694E10 ; 0.0
111 ; 7828526.132589414 ; 2.025043494452823E8 ; 8.589368785580332E8 ; 2.076942397348873E10 ; 0.0
112 ; 7822527.748847481 ; 2.025205694411593E8 ; 8.667654046906227E8 ; 2.0971928322934013E10 ; 0.0
113 ; 7819050.257276464 ; 2.0253678559613314E8 ; 8.745879324394702E8 ; 2.117444889237517E10 ; 0.0
114 ; 7814611.182090643 ; 2.025529967715469E8 ; 8.824069826967466E8 ; 2.1376985677971306E10 ; 0.0
115 ; 7809176.334907791 ; 2.0256920185280505E8 ; 8.902215938788372E8 ; 2.157953867474285E10 ; 0.0
116 ; 7806852.136537226 ; 2.0258539974858546E8 ; 8.98030770213745E8 ; 2.1782107876595657E10 ; 0.0
117 ; 7801068.348016273 ; 2.0260158939008105E8 ; 9.058376223502822E8 ; 2.1984693276344242E10 ; 0.0
118 ; 7798588.497115565 ; 2.0261776973026976E8 ; 9.136386906982985E8 ; 2.218729486573432E10 ; 0.0
119 ; 7792851.550547059 ; 2.026339397432119E8 ; 9.214372791954141E8 ; 2.2389912635464592E10 ; 0.0
120 ; 7790459.228777784 ; 2.026500984233738E8 ; 9.292301307459611E8 ; 2.2592546575207806E10 ; 0.0
121 ; 7782867.217141303 ; 2.0266624478497684E8 ; 9.370205899747388E8 ; 2.279519667363118E10 ; 0.0
122 ; 7782491.608182559 ; 2.0268237786137068E8 ; 9.448034571918801E8 ; 2.2997862918416157E10 ; 0.0
123 ; 7774559.769623812 ; 2.0269849670442995E8 ; 9.525859488000627E8 ; 2.3200545296277527E10 ; 0.0
124 ; 7768833.361332522 ; 2.027146003839734E8 ; 9.603605085696864E8 ; 2.3403243792981956E10 ; 0.0
125 ; 7766018.16877214 ; 2.027306879872045E8 ; 9.68129341931019E8 ; 2.360595839336593E10 ; 0.0
126 ; 7760147.71286394 ; 2.027467586181732E8 ; 9.75895360099791E8 ; 2.3808689081353134E10 ; 0.0
127 ; 7757930.394715823 ; 2.0276281139725727E8 ; 9.83655507812655E8 ; 2.4011435839971306E10 ; 0.0
128 ; 7749166.706874927 ; 2.0277884546066293E8 ; 9.914134382073708E8 ; 2.4214198651368565E10 ; 0.0
129 ; 7744772.678773267 ; 2.02794859959944E8 ; 9.991626049142457E8 ; 2.4416977496829227E10 ; 0.0
130 ; 7736744.72668344 ; 2.028108540615387E8 ; 1.006907377593019E9 ; 2.4619772356789173E10 ; 0.0
131 ; 7732172.504761034 ; 2.0282682694632345E8 ; 1.0146441223197025E9 ; 2.482258321085071E10 ; 0.0
132 ; 7723440.929477653 ; 2.0284277780918318E8 ; 1.0223762948244635E9 ; 2.5025410037797035E10 ; 0.0
133 ; 7717480.076444988 ; 2.0285870585859725E8 ; 1.0300997357539412E9 ; 2.522825281560622E10 ; 0.0
134 ; 7707588.517995014 ; 2.0287461031624037E8 ; 1.0378172158303862E9 ; 2.5431111521464817E10 ; 0.0
135 ; 7700388.133091039 ; 2.028904904165984E8 ; 1.0455248043483812E9 ; 2.563398613178106E10 ; 0.0
136 ; 7693521.688568855 ; 2.0290634540659773E8 ; 1.0532251924814723E9 ; 2.583687662219766E10 ; 0.0
137 ; 7687345.2070236895 ; 2.029221745452484E8 ; 1.0609187141700411E9 ; 2.6039782967604256E10 ; 0.0
138 ; 7675697.491048648 ; 2.0293797710329986E8 ; 1.0686060593770648E9 ; 2.6242705142149506E10 ; 0.0
139 ; 7669573.700532583 ; 2.0295375236290935E8 ; 1.0762817568681135E9 ; 2.6445643119252804E10 ; 0.0
140 ; 7660460.008960051 ; 2.0296949961732212E8 ; 1.0839513305686462E9 ; 2.6648596871615715E10 ; 0.0
141 ; 7652542.034961058 ; 2.0298521817056298E8 ; 1.0916117905776062E9 ; 2.6851566371233036E10 ; 0.0
142 ; 7644318.980124281 ; 2.030009073371392E8 ; 1.0992643326125672E9 ; 2.70545515894036E10 ; 0.0
143 ; 7636903.62627645 ; 2.030165664417536E8 ; 1.1069086515926914E9 ; 2.7257552496740738E10 ; 0.0
144 ; 7628435.671930835 ; 2.0303219481902832E8 ; 1.114545555218968E9 ; 2.746056906318249E10 ; 0.0
145 ; 7621876.116765741 ; 2.0304779181323776E8 ; 1.1221739908908987E9 ; 2.766360125800152E10 ; 0.0
146 ; 7615817.447116336 ; 2.0306335677805164E8 ; 1.1297958670076644E9 ; 2.7866649049814754E10 ; 0.0
147 ; 7611672.966851168 ; 2.030788890762866E8 ; 1.1374116844547808E9 ; 2.8069712406592808E10 ; 0.0
148 ; 7603563.611066699 ; 2.030943880796668E8 ; 1.145023357421632E9 ; 2.8272791295669094E10 ; 0.0
149 ; 7598826.762132558 ; 2.0310985316859272E8 ; 1.1526269210326986E9 ; 2.847588568374876E10 ; 0.0
150 ; 7595806.344955958 ; 2.031252837319183E8 ; 1.1602257477948313E9 ; 2.8678995536917355E10 ; 0.0
151 ; 7585311.69406124 ; 2.0314067916673562E8 ; 1.1678215541397872E9 ; 2.8882120820649273E10 ; 0.0
152 ; 7581158.894679909 ; 2.0315603887816706E8 ; 1.1754068658338485E9 ; 2.908526149981601E10 ; 0.0
153 ; 7576603.420549458 ; 2.0317136227916482E8 ; 1.1829880247285285E9 ; 2.9288417538694176E10 ; 0.0
154 ; 7570294.583339139 ; 2.031866487903172E8 ; 1.190564628149078E9 ; 2.949158890097334E10 ; 0.0
155 ; 7563873.894471473 ; 2.032018978396617E8 ; 1.198134922732417E9 ; 2.9694775549763657E10 ; 0.0
156 ; 7558336.357049159 ; 2.0321710886250433E8 ; 1.2056987966268885E9 ; 2.9897977447603317E10 ; 0.0
157 ; 7551462.613313584 ; 2.0323228130124536E8 ; 1.2132571329839377E9 ; 3.010119455646582E10 ; 0.0
158 ; 7546810.372698023 ; 2.0324741460521075E8 ; 1.2208085955972514E9 ; 3.0304426837767067E10 ; 0.0
159 ; 7541316.817752069 ; 2.0326250823048952E8 ; 1.2283554059699495E9 ; 3.0507674252372276E10 ; 0.0
160 ; 7535548.018094361 ; 2.032775616397766E8 ; 1.2358967227877016E9 ; 3.0710936760602764E10 ; 0.0
161 ; 7527477.78752747 ; 2.0329257430222073E8 ; 1.243432270805796E9 ; 3.0914214322242542E10 ; 0.0
162 ; 7525019.5009987205 ; 2.033075456932781E8 ; 1.2509597485933235E9 ; 3.111750689654476E10 ; 0.0
163 ; 7516511.451677491 ; 2.0332247529457018E8 ; 1.2584847680943222E9 ; 3.132081444223804E10 ; 0.0
164 ; 7508923.033161586 ; 2.0333736259374678E8 ; 1.2660012795459998E9 ; 3.152413691753261E10 ; 0.0
165 ; 7505072.555185585 ; 2.033522070843536E8 ; 1.2735102025791614E9 ; 3.1727474280126358E10 ; 0.0
166 ; 7497711.442670049 ; 2.0336700826570415E8 ; 1.281015275134347E9 ; 3.1930826487210712E10 ; 0.0
167 ; 7491856.667157242 ; 2.0338176564275593E8 ; 1.288512986577017E9 ; 3.2134193495476418E10 ; 0.0
168 ; 7484355.070725435 ; 2.0339647872599065E8 ; 1.2960048432441742E9 ; 3.2337575261119175E10 ; 0.0
169 ; 7478333.878883296 ; 2.0341114703129864E8 ; 1.3034891983148997E9 ; 3.2540971739845165E10 ; 0.0
170 ; 7475087.806221324 ; 2.0342577007986677E8 ; 1.310967532193783E9 ; 3.2744382886876465E10 ; 0.0
171 ; 7465959.175953809 ; 2.034403473980703E8 ; 1.3184426200000043E9 ; 3.2947808656956333E10 ; 0.0
172 ; 7459635.385590904 ; 2.0345487851736808E8 ; 1.3259085791759582E9 ; 3.3151249004354404E10 ; 0.0
173 ; 7451702.882867782 ; 2.0346936297420126E8 ; 1.333368214561549E9 ; 3.3354703882871773E10 ; 0.0
174 ; 7452391.495056196 ; 2.034838003098955E8 ; 1.3408199174444168E9 ; 3.3558173245845974E10 ; 0.0
175 ; 7446964.706678439 ; 2.0349819007056582E8 ; 1.348272308939473E9 ; 3.376165704615587E10 ; 0.0
176 ; 7446365.862178944 ; 2.0351253180702525E8 ; 1.3557192736461513E9 ; 3.3965155236226433E10 ; 0.0
177 ; 7437359.463120394 ; 2.0352682507469583E8 ; 1.3631656395083303E9 ; 3.416866776803346E10 ; 0.0
178 ; 7434875.478509656 ; 2.0354106943352276E8 ; 1.3706029989714508E9 ; 3.4372194593108154E10 ; 0.0
179 ; 7431467.425412874 ; 2.0355526444789132E8 ; 1.3780378744499605E9 ; 3.457573566254168E10 ; 0.0
180 ; 7428176.086921436 ; 2.0356940968654642E8 ; 1.3854693418753734E9 ; 3.477929092698957E10 ; 0.0
181 ; 7424823.124665318 ; 2.035835047225146E8 ; 1.3928975179622948E9 ; 3.498286033667612E10 ; 0.0
182 ; 7420272.906970001 ; 2.0359754913302872E8 ; 1.40032234108696E9 ; 3.518644384139863E10 ; 0.0
183 ; 7413382.850730439 ; 2.0361154249945495E8 ; 1.40774261399393E9 ; 3.5390041390531654E10 ; 0.0
184 ; 7413323.928559579 ; 2.036254844072221E8 ; 1.4151559968446605E9 ; 3.559365293303111E10 ; 0.0
185 ; 7407348.407193935 ; 2.0363937444575313E8 ; 1.42256932077322E9 ; 3.579727841743833E10 ; 0.0
186 ; 7405497.473694872 ; 2.0365321220839894E8 ; 1.429976669180414E9 ; 3.600091779188409E10 ; 0.0
187 ; 7399216.237985378 ; 2.0366699729237416E8 ; 1.4373821666541088E9 ; 3.620457100409248E10 ; 0.0
188 ; 7396828.699981156 ; 2.03680729298695E8 ; 1.4447813828920941E9 ; 3.640823800138486E10 ; 0.0
189 ; 7392424.161490738 ; 2.0369440783211896E8 ; 1.4521782115920753E9 ; 3.6611918730683556E10 ; 0.0
190 ; 7386346.555564064 ; 2.0370803250108668E8 ; 1.459570635753566E9 ; 3.681561313851567E10 ; 0.0
191 ; 7383932.445174331 ; 2.037216029176653E8 ; 1.4669569823091302E9 ; 3.7019321171016754E10 ; 0.0
192 ; 7380561.110620282 ; 2.0373511869749382E8 ; 1.4743409147543044E9 ; 3.722304277393442E10 ; 0.0
193 ; 7375520.356598619 ; 2.0374857945972994E8 ; 1.4817214758649247E9 ; 3.742677789263191E10 ; 0.0
194 ; 7372272.965801941 ; 2.037619848269989E8 ; 1.4890969962215233E9 ; 3.7630526472091644E10 ; 0.0
195 ; 7368835.672598158 ; 2.0377533442534345E8 ; 1.4964692691873252E9 ; 3.783428845691864E10 ; 0.0
196 ; 7364264.858432356 ; 2.037886278841758E8 ; 1.5038381048599234E9 ; 3.803806379134399E10 ; 0.0
197 ; 7360426.440945869 ; 2.0380186483623084E8 ; 1.5112023697183557E9 ; 3.8241852419228165E10 ; 0.0
198 ; 7355381.428837695 ; 2.0381504491752067E8 ; 1.5185627961593015E9 ; 3.844565428406439E10 ; 0.0
199 ; 7352563.607554429 ; 2.0382816776729092E8 ; 1.5259181775881393E9 ; 3.864946932898191E10 ; 0.0
200 ; 7352520.658656875 ; 1.79177285589425E8 ; 1.5332707411956937E9 ; 3.88532974967492E10 ; 0.0
201 ; 7346157.469175882 ; 1.5501424712631217E8 ; 1.5406232618543506E9 ; 3.903247478233862E10 ; 0.0
