CSV File for the City 1 on Day 313
1 - Minute m 
2 - Power Consumed at minute m 
3 - Power Produced at minute m 
4 - Energy Consumed since the beginning of the day 
5 - Energy Produced since the beginning of the day 
6 - Energy Lost since the beginning of the day on lines starting from the city
 
0 ; 1.623084069744516E7 ; 1.0579626849066499E8 ; 0.0 ; 0.0 ; 0.0
1 ; 1.6247830698919678E7 ; 1.0594911802525371E8 ; 1.623084069744516E7 ; 1.0579626849066499E8 ; 0.0
2 ; 1.626512600374684E7 ; 1.0641076121969905E8 ; 3.2478671396364838E7 ; 2.117453865159187E8 ; 0.0
3 ; 1.6285656054835724E7 ; 1.0718119912661374E8 ; 4.8743797400111675E7 ; 3.1815614773561776E8 ; 0.0
4 ; 1.6306313752061501E7 ; 1.0826043268396336E8 ; 6.50294534549474E7 ; 4.253373468622315E8 ; 0.0
5 ; 1.6340035125556208E7 ; 1.0964846271171248E8 ; 8.13357672070089E7 ; 5.3359777954619485E8 ; 0.0
6 ; 1.63805259265462E7 ; 1.1134528990885767E8 ; 9.76758023325651E7 ; 6.432462422579074E8 ; 0.0
7 ; 1.6433366100521848E7 ; 1.1335091485087192E8 ; 1.140563282591113E8 ; 7.545915321667651E8 ; 0.0
8 ; 1.6509237670319913E7 ; 1.1566533798758215E8 ; 1.3048969435963315E8 ; 8.67942447017637E8 ; 0.0
9 ; 1.6629507132259607E7 ; 1.1828855964149934E8 ; 1.4699893202995306E8 ; 9.836077850052192E8 ; 0.0
10 ; 1.681391247161845E7 ; 1.212205800066145E8 ; 1.6362843916221267E8 ; 1.1018963446467185E9 ; 0.0
11 ; 1.7101121301819384E7 ; 1.244613991476722E8 ; 1.804423516338311E8 ; 1.223116924653333E9 ; 0.0
12 ; 1.756722323749116E7 ; 1.2801101699992785E8 ; 1.975434729356505E8 ; 1.3475783238010051E9 ; 0.0
13 ; 1.8010479416742172E7 ; 1.3186943336939043E8 ; 2.1511069617314166E8 ; 1.475589340800933E9 ; 0.0
14 ; 1.806950039201271E7 ; 1.3603664793354905E8 ; 2.3312117558988383E8 ; 1.6074587741703234E9 ; 0.0
15 ; 1.8086660197306696E7 ; 1.4051266024257666E8 ; 2.5119067598189655E8 ; 1.7434954221038723E9 ; 0.0
16 ; 1.8105396930534028E7 ; 1.452974697210004E8 ; 2.692773361792033E8 ; 1.884008082346449E9 ; 0.0
17 ; 1.8131529242106345E7 ; 1.5039107566982362E8 ; 2.873827331097373E8 ; 2.0293055520674493E9 ; 0.0
18 ; 1.8154926804905113E7 ; 1.5579347726908177E8 ; 3.055142623518436E8 ; 2.1796966277372727E9 ; 0.0
19 ; 1.817886936551747E7 ; 1.6150467358080927E8 ; 3.236691891567487E8 ; 2.3354901050063543E9 ; 0.0
20 ; 1.819993767581496E7 ; 1.6752466355239335E8 ; 3.418480585222662E8 ; 2.4969947785871634E9 ; 0.0
21 ; 1.8224670355852284E7 ; 1.738534460202861E8 ; 3.600479961980812E8 ; 2.664519442139557E9 ; 0.0
22 ; 1.8245075431971338E7 ; 1.80491019714045E8 ; 3.782726665539335E8 ; 2.838372888159843E9 ; 0.0
23 ; 1.8268691637894005E7 ; 1.8743738326066935E8 ; 3.965177419859048E8 ; 3.018863907873888E9 ; 0.0
24 ; 1.8287119914803125E7 ; 1.9469253518919915E8 ; 4.1478643362379885E8 ; 3.2063012911345572E9 ; 0.0
25 ; 1.8312111198130753E7 ; 2.0094451483372533E8 ; 4.33073553538602E8 ; 3.400993826323756E9 ; 0.0
26 ; 1.832922774753019E7 ; 2.0094686837530398E8 ; 4.513856647367327E8 ; 3.6019383411574817E9 ; 0.0
27 ; 1.8353749449938327E7 ; 2.0094936337203532E8 ; 4.697148924842629E8 ; 3.8028852095327854E9 ; 0.0
28 ; 1.837678698786487E7 ; 2.0095199801113287E8 ; 4.8806864193420124E8 ; 4.003834572904821E9 ; 0.0
29 ; 1.8396368178850338E7 ; 2.0095477040755236E8 ; 5.064454289220661E8 ; 4.2047865709159536E9 ; 0.0
30 ; 1.8419326738597028E7 ; 2.0095767860942864E8 ; 5.2484179710091645E8 ; 4.405741341323506E9 ; 0.0
31 ; 1.844047708899631E7 ; 2.0096072060353312E8 ; 5.432611238395134E8 ; 4.606699019932935E9 ; 0.0
32 ; 1.8458590056389812E7 ; 2.009638943207212E8 ; 5.617016009285097E8 ; 4.807659740536468E9 ; 0.0
33 ; 1.848496939355744E7 ; 2.009671976413409E8 ; 5.801601909848995E8 ; 5.008623634857189E9 ; 0.0
34 ; 1.8505836528457735E7 ; 2.0097062840057498E8 ; 5.98645160378457E8 ; 5.20959083249853E9 ; 0.0
35 ; 1.8520268478245102E7 ; 2.0097418439369255E8 ; 6.171509969069147E8 ; 5.410561460899105E9 ; 0.0
36 ; 1.8533859237718284E7 ; 2.0097786338118723E8 ; 6.356712653851599E8 ; 5.611535645292798E9 ; 0.0
37 ; 1.856077859860162E7 ; 2.0098166309378138E8 ; 6.542051246228781E8 ; 5.8125135086739855E9 ; 0.0
38 ; 1.8570843715390626E7 ; 2.0098558123727918E8 ; 6.727659032214797E8 ; 6.013495171767767E9 ; 0.0
39 ; 1.8590065380765125E7 ; 2.009896154972524E8 ; 6.913367469368703E8 ; 6.214480753005046E9 ; 0.0
40 ; 1.8603317033064656E7 ; 2.0099376354354623E8 ; 7.099268123176354E8 ; 6.415470368502298E9 ; 0.0
41 ; 1.8621519165618636E7 ; 2.009980230345936E8 ; 7.285301293507E8 ; 6.616464132045845E9 ; 0.0
42 ; 1.863115276957865E7 ; 2.0100239162153026E8 ; 7.471516485163187E8 ; 6.817462155080439E9 ; 0.0
43 ; 1.8646672919335E7 ; 2.0100686695210275E8 ; 7.657828012858974E8 ; 7.018464546701969E9 ; 0.0
44 ; 1.8663289023119E7 ; 2.010114466743656E8 ; 7.844294742052324E8 ; 7.219471413654072E9 ; 0.0
45 ; 1.8672855996417493E7 ; 2.010161284401645E8 ; 8.030927632283514E8 ; 7.420482860328438E9 ; 0.0
46 ; 1.86861344165847E7 ; 2.0102090990840375E8 ; 8.217656192247689E8 ; 7.621498988768602E9 ; 0.0
47 ; 1.8694305862326354E7 ; 2.0102578874809945E8 ; 8.404517536413536E8 ; 7.822519898677006E9 ; 0.0
48 ; 1.8702889655298498E7 ; 2.0103076264121914E8 ; 8.5914605950368E8 ; 8.023545687425105E9 ; 0.0
49 ; 1.871331832817877E7 ; 2.0103582928531134E8 ; 8.778489491589785E8 ; 8.224576450066324E9 ; 0.0
50 ; 1.8715945287395723E7 ; 2.0104098639592907E8 ; 8.965622674871572E8 ; 8.425612279351636E9 ; 0.0
51 ; 1.8731173895808555E7 ; 2.0104623170885208E8 ; 9.15278212774553E8 ; 8.626653265747564E9 ; 0.0
52 ; 1.8737392488229968E7 ; 2.0105156298211417E8 ; 9.340093866703615E8 ; 8.827699497456417E9 ; 0.0
53 ; 1.8744466545042377E7 ; 2.0105697799784124E8 ; 9.527467791585915E8 ; 9.028751060438532E9 ; 0.0
54 ; 1.8752172671770293E7 ; 2.0106247456390807E8 ; 9.714912457036339E8 ; 9.229808038436373E9 ; 0.0
55 ; 1.8757270378971078E7 ; 2.010680505154206E8 ; 9.902434183754042E8 ; 9.43087051300028E9 ; 0.0
56 ; 1.8766158363972537E7 ; 2.0107370371603182E8 ; 1.0090006887543753E9 ; 9.631938563515701E9 ; 0.0
57 ; 1.877426222273442E7 ; 2.010794320590996E8 ; 1.0277668471183479E9 ; 9.833012267231733E9 ; 0.0
58 ; 1.87747623202271E7 ; 2.010852334686941E8 ; 1.0465411093410823E9 ; 1.0034091699290833E10 ; 0.0
59 ; 1.8783407124001835E7 ; 2.0109110590046322E8 ; 1.0653158716613095E9 ; 1.0235176932759527E10 ; 0.0
60 ; 1.8790431773032933E7 ; 2.0109704734236506E8 ; 1.0840992787853112E9 ; 1.043626803865999E10 ; 0.0
61 ; 1.8794334830968365E7 ; 2.0110305581527433E8 ; 1.1028897105583441E9 ; 1.0637365086002356E10 ; 0.0
62 ; 1.8800250801752977E7 ; 2.0110912937347192E8 ; 1.1216840453893125E9 ; 1.083846814181763E10 ; 0.0
63 ; 1.880790866637574E7 ; 2.011152661050251E8 ; 1.1404842961910655E9 ; 1.1039577271191103E10 ; 0.0
64 ; 1.8813631152634263E7 ; 2.0112146413206592E8 ; 1.1592922048574412E9 ; 1.1240692537296127E10 ; 0.0
65 ; 1.8815665295521405E7 ; 2.0112772161097577E8 ; 1.1781058360100756E9 ; 1.1441814001428194E10 ; 0.0
66 ; 1.8823480797372904E7 ; 2.0113403673248288E8 ; 1.196921501305597E9 ; 1.164294172303917E10 ; 0.0
67 ; 1.8828067275126893E7 ; 2.011404077216802E8 ; 1.21574498210297E9 ; 1.1844075759771652E10 ; 0.0
68 ; 1.8829246370572377E7 ; 2.0114683283796966E8 ; 1.2345730493780968E9 ; 1.2045216167493332E10 ; 0.0
69 ; 1.8839016722735364E7 ; 2.011533103749401E8 ; 1.2534022957486691E9 ; 1.22463630003313E10 ; 0.0
70 ; 1.88427498339817E7 ; 2.0115983866018385E8 ; 1.2722413124714046E9 ; 1.2447516310706242E10 ; 0.0
71 ; 1.8845863701922547E7 ; 2.0116641605505878E8 ; 1.2910840623053863E9 ; 1.2648676149366425E10 ; 0.0
72 ; 1.8846644677172203E7 ; 2.011730409544003E8 ; 1.309929926007309E9 ; 1.2849842565421484E10 ; 0.0
73 ; 1.88541318689322E7 ; 2.0117971178618908E8 ; 1.3287765706844811E9 ; 1.3051015606375885E10 ; 0.0
74 ; 1.886237927860676E7 ; 2.01186427011179E8 ; 1.3476307025534134E9 ; 1.3252195318162075E10 ; 0.0
75 ; 1.886142871189533E7 ; 2.0119318512248972E8 ; 1.36649308183202E9 ; 1.3453381745173254E10 ; 0.0
76 ; 1.8868235798372466E7 ; 2.011999846451685E8 ; 1.3853545105439153E9 ; 1.3654574930295744E10 ; 0.0
77 ; 1.8866994104060367E7 ; 2.012068241357247E8 ; 1.4042227463422878E9 ; 1.3855774914940912E10 ; 0.0
78 ; 1.8860917556635544E7 ; 2.0121370218164083E8 ; 1.4230897404463482E9 ; 1.4056981739076637E10 ; 0.0
79 ; 1.8831846404191658E7 ; 2.0122061740086374E8 ; 1.4419506580029838E9 ; 1.4258195441258278E10 ; 0.0
80 ; 1.8810581532420736E7 ; 2.0122756844127846E8 ; 1.4607825044071755E9 ; 1.4459416058659142E10 ; 0.0
81 ; 1.878794579162046E7 ; 2.0123455398016834E8 ; 1.4795930859395962E9 ; 1.466064362710042E10 ; 0.0
82 ; 1.876492711323852E7 ; 2.012415727236636E8 ; 1.4983810317312167E9 ; 1.486187818108059E10 ; 0.0
83 ; 1.873751113145589E7 ; 2.012486234061807E8 ; 1.5171459588444552E9 ; 1.5063119753804253E10 ; 0.0
84 ; 1.8713969567502502E7 ; 2.012557047898554E8 ; 1.5358834699759111E9 ; 1.5264368377210434E10 ; 0.0
85 ; 1.8690978711135823E7 ; 2.0126281566397053E8 ; 1.5545974395434136E9 ; 1.546562408200029E10 ; 0.0
86 ; 1.8663834677646685E7 ; 2.0126995484438145E8 ; 1.5732884182545495E9 ; 1.566688689766426E10 ; 0.0
87 ; 1.8638462671059716E7 ; 2.0127712117293978E8 ; 1.5919522529321961E9 ; 1.5868156852508642E10 ; 0.0
88 ; 1.861477719626018E7 ; 2.0128431351691782E8 ; 1.6105907156032557E9 ; 1.6069433973681581E10 ; 0.0
89 ; 1.858857805310522E7 ; 2.0129153076843446E8 ; 1.629205492799516E9 ; 1.62707182871985E10 ; 0.0
90 ; 1.8561685229317777E7 ; 2.012987718438842E8 ; 1.647794070852621E9 ; 1.6472009817966934E10 ; 0.0
91 ; 1.8539738571304694E7 ; 2.013060356833699E8 ; 1.6663557560819387E9 ; 1.6673308589810818E10 ; 0.0
92 ; 1.8510268620410264E7 ; 2.0131332125014082E8 ; 1.6848954946532435E9 ; 1.6874614625494188E10 ; 0.0
93 ; 1.8481994075276926E7 ; 2.0132062753003633E8 ; 1.7034057632736537E9 ; 1.707592794674433E10 ; 0.0
94 ; 1.845982012659795E7 ; 2.013279535309365E8 ; 1.7218877573489306E9 ; 1.7277248574274364E10 ; 0.0
95 ; 1.8430743613966987E7 ; 2.0133529828221968E8 ; 1.7403475774755285E9 ; 1.74785765278053E10 ; 0.0
96 ; 1.841020682579624E7 ; 2.013426608342282E8 ; 1.7587783210894954E9 ; 1.767991182608752E10 ; 0.0
97 ; 1.838079289633973E7 ; 2.013500402577424E8 ; 1.7771885279152915E9 ; 1.788125448692175E10 ; 0.0
98 ; 1.8354680327992126E7 ; 2.0135743564346352E8 ; 1.7955693208116312E9 ; 1.8082604527179493E10 ; 0.0
99 ; 1.83279033980948E7 ; 2.0136484610150582E8 ; 1.8139240011396234E9 ; 1.8283961962822956E10 ; 0.0
100 ; 1.8302714972771604E7 ; 2.0137227076089796E8 ; 1.8322519045377183E9 ; 1.848532680892446E10 ; 0.0
101 ; 1.8268822562922448E7 ; 2.013797087690945E8 ; 1.85055461951049E9 ; 1.868669907968536E10 ; 0.0
102 ; 1.8242436987360008E7 ; 2.01387159291497E8 ; 1.8688234420734124E9 ; 1.8888078788454456E10 ; 0.0
103 ; 1.821336454155145E7 ; 2.0139462151098534E8 ; 1.8870658790607724E9 ; 1.9089465947745953E10 ; 0.0
104 ; 1.8189684195824105E7 ; 2.0140209462745935E8 ; 1.9052792436023238E9 ; 1.929086056925694E10 ; 0.0
105 ; 1.8168004761726256E7 ; 2.0140957785739037E8 ; 1.923468927798148E9 ; 1.94922626638844E10 ; 0.0
106 ; 1.8139261183757495E7 ; 2.014170704333834E8 ; 1.941636932559874E9 ; 1.969367224174179E10 ; 0.0
107 ; 1.811081778787824E7 ; 2.014245716037495E8 ; 1.9597761937436316E9 ; 1.9895089312175175E10 ; 0.0
108 ; 1.808426712754997E7 ; 2.014320806320882E8 ; 1.9778870115315099E9 ; 2.0096513883778923E10 ; 0.0
109 ; 1.8049087396013506E7 ; 2.014395967968805E8 ; 1.9959712786590598E9 ; 2.029794596441101E10 ; 0.0
110 ; 1.8023692813869834E7 ; 2.0144711939109182E8 ; 2.0140203660550733E9 ; 2.049938556120789E10 ; 0.0
111 ; 1.79918833975396E7 ; 2.014546477217849E8 ; 2.0320440588689432E9 ; 2.070083268059898E10 ; 0.0
112 ; 1.796350467425277E7 ; 2.014621811097429E8 ; 2.0500359422664828E9 ; 2.0902287328320766E10 ; 0.0
113 ; 1.7935434405617166E7 ; 2.014697188891022E8 ; 2.0679994469407356E9 ; 2.1103749509430508E10 ; 0.0
114 ; 1.7906773090574984E7 ; 2.0147726040699485E8 ; 2.0859348813463528E9 ; 2.130521922831961E10 ; 0.0
115 ; 1.787991868363833E7 ; 2.0148480502320066E8 ; 2.1038416544369278E9 ; 2.1506696488726604E10 ; 0.0
116 ; 1.7843253443700913E7 ; 2.0149235210980874E8 ; 2.1217215731205661E9 ; 2.1708181293749805E10 ; 0.0
117 ; 1.7817524279381666E7 ; 2.01499901050888E8 ; 2.1395648265642672E9 ; 2.1909673645859615E10 ; 0.0
118 ; 1.7786527668713477E7 ; 2.0150745124216706E8 ; 2.157382350843649E9 ; 2.2111173546910503E10 ; 0.0
119 ; 1.7762634450315922E7 ; 2.0151500209072277E8 ; 2.1751688785123625E9 ; 2.231268099815267E10 ; 0.0
120 ; 1.7725096754781015E7 ; 2.0152255301467767E8 ; 2.1929315129626784E9 ; 2.2514196000243393E10 ; 0.0
121 ; 1.769516067990924E7 ; 2.0153010344290578E8 ; 2.2106566097174597E9 ; 2.271571855325807E10 ; 0.0
122 ; 1.7667456150176454E7 ; 2.015376528147468E8 ; 2.228351770397369E9 ; 2.2917248656700977E10 ; 0.0
123 ; 1.7636549396899052E7 ; 2.0154520057972848E8 ; 2.2460192265475454E9 ; 2.3118786309515724E10 ; 0.0
124 ; 1.7608840340992887E7 ; 2.0155274619729698E8 ; 2.2636557759444447E9 ; 2.332033151009545E10 ; 0.0
125 ; 1.757490348339371E7 ; 2.0156028913655484E8 ; 2.2812646162854376E9 ; 2.3521884256292747E10 ; 0.0
126 ; 1.754253560600415E7 ; 2.0156782887600678E8 ; 2.2988395197688313E9 ; 2.3723444545429302E10 ; 0.0
127 ; 1.751411025378732E7 ; 2.0157536490331268E8 ; 2.3163820553748355E9 ; 2.392501237430531E10 ; 0.0
128 ; 1.7481703703754317E7 ; 2.015828967150479E8 ; 2.333896165628623E9 ; 2.4126587739208622E10 ; 0.0
129 ; 1.7448698320375714E7 ; 2.0159042381647047E8 ; 2.3513778693323774E9 ; 2.432817063592367E10 ; 0.0
130 ; 1.7414536799947847E7 ; 2.0159794572129536E8 ; 2.3688265676527534E9 ; 2.4529761059740143E10 ; 0.0
131 ; 1.7377651534262728E7 ; 2.016054619514752E8 ; 2.386241104452701E9 ; 2.4731359005461437E10 ; 0.0
132 ; 1.7341760565753795E7 ; 2.016129720369875E8 ; 2.4036187559869637E9 ; 2.4932964467412914E10 ; 0.0
133 ; 1.7306428397896953E7 ; 2.0162047551562828E8 ; 2.4209605165527177E9 ; 2.51345774394499E10 ; 0.0
134 ; 1.7266197996130016E7 ; 2.0162797193281165E8 ; 2.4382669449506145E9 ; 2.533619791496553E10 ; 0.0
135 ; 1.7227692304534093E7 ; 2.0163546084137556E8 ; 2.4555331429467444E9 ; 2.5537825886898342E10 ; 0.0
136 ; 1.7191903028421424E7 ; 2.0164294180139315E8 ; 2.4727608352512784E9 ; 2.573946134773972E10 ; 0.0
137 ; 1.715146798166896E7 ; 2.0165041437998983E8 ; 2.4899527382797E9 ; 2.594110428954111E10 ; 0.0
138 ; 1.7110776592882004E7 ; 2.0165787815116578E8 ; 2.5071042062613688E9 ; 2.61427547039211E10 ; 0.0
139 ; 1.707578530269757E7 ; 2.0166533269562373E8 ; 2.524214982854251E9 ; 2.6344412582072266E10 ; 0.0
140 ; 1.7038432850196864E7 ; 2.0167277760060194E8 ; 2.5412907681569486E9 ; 2.654607791476789E10 ; 0.0
141 ; 1.6999752420817975E7 ; 2.0168021245971218E8 ; 2.5583292010071454E9 ; 2.6747750692368492E10 ; 0.0
142 ; 1.6961602331735596E7 ; 2.016876368727825E8 ; 2.5753289534279633E9 ; 2.6949430904828205E10 ; 0.0
143 ; 1.6924505069221593E7 ; 2.0169505044570476E8 ; 2.592290555759699E9 ; 2.715111854170099E10 ; 0.0
144 ; 1.688332272226494E7 ; 2.0170245279028672E8 ; 2.6092150608289204E9 ; 2.7352813592146694E10 ; 0.0
145 ; 1.684845407855143E7 ; 2.017098435241085E8 ; 2.626098383551185E9 ; 2.755451604493698E10 ; 0.0
146 ; 1.6817141783917844E7 ; 2.017172222703835E8 ; 2.6429468376297364E9 ; 2.775622588846109E10 ; 0.0
147 ; 1.678323411652894E7 ; 2.0172458865782332E8 ; 2.6597639794136543E9 ; 2.7957943110731472E10 ; 0.0
148 ; 1.675045765802955E7 ; 2.0173194232050672E8 ; 2.6765472135301833E9 ; 2.8159667699389294E10 ; 0.0
149 ; 1.6717926032512926E7 ; 2.017392828977527E8 ; 2.693297671188213E9 ; 2.83613996417098E10 ; 0.0
150 ; 1.6687513915167335E7 ; 2.0174661003399718E8 ; 2.710015597220726E9 ; 2.856313892460755E10 ; 0.0
151 ; 1.6655644712600958E7 ; 2.0175392337867337E8 ; 2.7267031111358933E9 ; 2.876488553464155E10 ; 0.0
152 ; 1.6621791941267498E7 ; 2.0176122258609593E8 ; 2.7433587558484945E9 ; 2.896663945802022E10 ; 0.0
153 ; 1.659190430832596E7 ; 2.0176850731534827E8 ; 2.759980547789762E9 ; 2.916840068060632E10 ; 0.0
154 ; 1.6559652235961135E7 ; 2.017757772301735E8 ; 2.776572452098088E9 ; 2.937016918792167E10 ; 0.0
155 ; 1.6527292087001456E7 ; 2.0178303199886847E8 ; 2.7931321043340487E9 ; 2.9571944965151844E10 ; 0.0
156 ; 1.649210607123411E7 ; 2.0179027129418102E8 ; 2.80965939642105E9 ; 2.977372799715071E10 ; 0.0
157 ; 1.6459667001364447E7 ; 2.017974947932103E8 ; 2.8261515024922843E9 ; 2.9975518268444893E10 ; 0.0
158 ; 1.6423388678519463E7 ; 2.018047021773099E8 ; 2.8426111694936485E9 ; 3.0177315763238102E10 ; 0.0
159 ; 1.6393241506191967E7 ; 2.0181189313199425E8 ; 2.859034558172168E9 ; 3.0379120465415413E10 ; 0.0
160 ; 1.636135623289085E7 ; 2.0181906734684718E8 ; 2.8754277996783595E9 ; 3.058093235854741E10 ; 0.0
161 ; 1.632620199755115E7 ; 2.0182622451543388E8 ; 2.8917891559112506E9 ; 3.0782751425894257E10 ; 0.0
162 ; 1.6292728141769808E7 ; 2.0183336433521488E8 ; 2.9081153579088016E9 ; 3.098457765040969E10 ; 0.0
163 ; 1.6263579568776103E7 ; 2.0184048650746298E8 ; 2.9244080860505714E9 ; 3.1186411014744907E10 ; 0.0
164 ; 1.6229368010529157E7 ; 2.0184759073718238E8 ; 2.9406716656193476E9 ; 3.138825150125237E10 ; 0.0
165 ; 1.6193262263013886E7 ; 2.0185467673303026E8 ; 2.9569010336298766E9 ; 3.159009909198955E10 ; 0.0
166 ; 1.6161273366240652E7 ; 2.0186174420724076E8 ; 2.9730942958928905E9 ; 3.179195376872258E10 ; 0.0
167 ; 1.6125678164705465E7 ; 2.018687928755511E8 ; 2.989255569259131E9 ; 3.199381551292982E10 ; 0.0
168 ; 1.6089284914108055E7 ; 2.018758224571299E8 ; 3.005381247423836E9 ; 3.219568430580537E10 ; 0.0
169 ; 1.6059326120783305E7 ; 2.0188283267450747E8 ; 3.0214705323379445E9 ; 3.23975601282625E10 ; 0.0
170 ; 1.6027627135338532E7 ; 2.0188982325350848E8 ; 3.037529858458728E9 ; 3.2599442960937008E10 ; 0.0
171 ; 1.5995738536655653E7 ; 2.0189679392318615E8 ; 3.053557485594066E9 ; 3.2801332784190517E10 ; 0.0
172 ; 1.5965180232234197E7 ; 2.019E8 ; 3.0695532241307216E9 ; 3.3003229578113705E10 ; 0.0
173 ; 1.5930249183576271E7 ; 2.019E8 ; 3.0855184043629556E9 ; 3.3205129578113705E10 ; 0.0
174 ; 1.5895697135266256E7 ; 2.019E8 ; 3.1014486535465317E9 ; 3.3407029578113705E10 ; 0.0
175 ; 1.5869291190683052E7 ; 2.019E8 ; 3.117344350681798E9 ; 3.3608929578113705E10 ; 0.0
176 ; 1.5840695392345935E7 ; 2.019E8 ; 3.133213641872481E9 ; 3.3810829578113705E10 ; 0.0
177 ; 1.5811003608627543E7 ; 2.019E8 ; 3.149054337264827E9 ; 3.4012729578113705E10 ; 0.0
178 ; 1.5785344772490323E7 ; 2.019E8 ; 3.164865340873454E9 ; 3.4214629578113705E10 ; 0.0
179 ; 1.5755784682987746E7 ; 2.019E8 ; 3.1806506856459446E9 ; 3.441652957811371E10 ; 0.0
180 ; 1.5723920443646332E7 ; 2.019E8 ; 3.1964064703289323E9 ; 3.461842957811371E10 ; 0.0
181 ; 1.569781068680884E7 ; 2.019E8 ; 3.2121303907725787E9 ; 3.482032957811371E10 ; 0.0
182 ; 1.5664713459665122E7 ; 2.019E8 ; 3.227828201459388E9 ; 3.502222957811371E10 ; 0.0
183 ; 1.5640490603446832E7 ; 2.019E8 ; 3.243492914919053E9 ; 3.522412957811371E10 ; 0.0
184 ; 1.560788736491901E7 ; 2.019E8 ; 3.2591334055225E9 ; 3.542602957811371E10 ; 0.0
185 ; 1.5580697059487477E7 ; 2.019E8 ; 3.274741292887419E9 ; 3.562792957811371E10 ; 0.0
186 ; 1.5553524840189887E7 ; 2.019E8 ; 3.2903219899469066E9 ; 3.582982957811371E10 ; 0.0
187 ; 1.5520985190268276E7 ; 2.019E8 ; 3.3058755147870965E9 ; 3.603172957811371E10 ; 0.0
188 ; 1.5494735153352147E7 ; 2.019E8 ; 3.3213964999773645E9 ; 3.623362957811371E10 ; 0.0
189 ; 1.5468967239235306E7 ; 2.019E8 ; 3.336891235130717E9 ; 3.643552957811371E10 ; 0.0
190 ; 1.5441486707218073E7 ; 2.019E8 ; 3.352360202369952E9 ; 3.663742957811371E10 ; 0.0
191 ; 1.5408687343092186E7 ; 2.019E8 ; 3.3678016890771704E9 ; 3.683932957811371E10 ; 0.0
192 ; 1.537730367179705E7 ; 2.019E8 ; 3.3832103764202623E9 ; 3.704122957811371E10 ; 0.0
193 ; 1.535069616039496E7 ; 2.019E8 ; 3.3985876800920596E9 ; 3.724312957811371E10 ; 0.0
194 ; 1.5320062852971723E7 ; 2.019E8 ; 3.4139383762524548E9 ; 3.744502957811371E10 ; 0.0
195 ; 1.529236813102054E7 ; 2.019E8 ; 3.4292584391054263E9 ; 3.764692957811371E10 ; 0.0
196 ; 1.5263962321090313E7 ; 2.019E8 ; 3.444550807236447E9 ; 3.784882957811371E10 ; 0.0
197 ; 1.5235493148512185E7 ; 2.019E8 ; 3.459814769557537E9 ; 3.805072957811371E10 ; 0.0
198 ; 1.5203091365720509E7 ; 2.019E8 ; 3.4750502627060494E9 ; 3.825262957811371E10 ; 0.0
199 ; 1.5176293059384685E7 ; 2.019E8 ; 3.4902533540717697E9 ; 3.845452957811371E10 ; 0.0
