CSV File for the City 4 on Day 257
1 - Minute m 
2 - Power Consumed at minute m 
3 - Power Produced at minute m 
4 - Energy Consumed since the beginning of the day 
5 - Energy Produced since the beginning of the day 
6 - Energy Lost since the beginning of the day on lines starting from the city
 
0 ; 1989272.2651924454 ; 1.0595544419965968E8 ; 0.0 ; 0.0 ; 0.0
1 ; 1996315.5475159942 ; 1.0610573565527743E8 ; 1989272.2651924454 ; 1.0595544419965968E8 ; 0.0
2 ; 2000971.7471468765 ; 1.0656507491705313E8 ; 3985587.8127084393 ; 2.120611798549371E8 ; 0.0
3 ; 2009339.6519606537 ; 1.0733346789555162E8 ; 5986559.559855316 ; 3.1862625477199024E8 ; 0.0
4 ; 2018391.3734590872 ; 1.0841091992041725E8 ; 7995899.21181597 ; 4.2595972266754186E8 ; 0.0
5 ; 2029362.8066680564 ; 1.0979743569999838E8 ; 1.0014290585275058E7 ; 5.343706425879591E8 ; 0.0
6 ; 2044913.8342438925 ; 1.1149301928471825E8 ; 1.2043653391943114E7 ; 6.441680782879574E8 ; 0.0
7 ; 2065955.912743847 ; 1.1349767403483981E8 ; 1.4088567226187006E7 ; 7.556610975726757E8 ; 0.0
8 ; 2098673.559008152 ; 1.1581140259321022E8 ; 1.6154523138930853E7 ; 8.691587716075156E8 ; 0.0
9 ; 2147416.1010183915 ; 1.1843420686349696E8 ; 1.8253196697939005E7 ; 9.849701742007258E8 ; 0.0
10 ; 2223902.7571172947 ; 1.2136608799433172E8 ; 2.0400612798957396E7 ; 1.1034043810642228E9 ; 0.0
11 ; 2345684.0586562166 ; 1.2460704636966982E8 ; 2.262451555607469E7 ; 1.2247704690585546E9 ; 0.0
12 ; 2545802.9793571057 ; 1.2815708160555592E8 ; 2.4970199614730906E7 ; 1.3493775154282246E9 ; 0.0
13 ; 2731642.9734261553 ; 1.3201619255335832E8 ; 2.751600259408801E7 ; 1.4775345970337806E9 ; 0.0
14 ; 2756740.8432591883 ; 1.3618437730940962E8 ; 3.0247645567514166E7 ; 1.609550789587139E9 ; 0.0
15 ; 2764286.224110497 ; 1.4066163323086256E8 ; 3.3004386410773356E7 ; 1.7457351668965485E9 ; 0.0
16 ; 2771563.186182613 ; 1.454479569574543E8 ; 3.576867263488385E7 ; 1.8863968001274111E9 ; 0.0
17 ; 2778273.4416635297 ; 1.505433444387615E8 ; 3.854023582106646E7 ; 2.0318447570848653E9 ; 0.0
18 ; 2786468.9824221074 ; 1.5594779096643585E8 ; 4.131850926272999E7 ; 2.182388101523627E9 ; 0.0
19 ; 2794608.5999471922 ; 1.6166129121083298E8 ; 4.410497824515209E7 ; 2.3383358924900627E9 ; 0.0
20 ; 2805249.3708436573 ; 1.6768383926138803E8 ; 4.6899586845099285E7 ; 2.499997183700896E9 ; 0.0
21 ; 2811830.146700838 ; 1.7401542867005315E8 ; 4.970483621594294E7 ; 2.6676810229622836E9 ; 0.0
22 ; 2820618.263674337 ; 1.8065605249709386E8 ; 5.251666636264378E7 ; 2.8416964516323366E9 ; 0.0
23 ; 2832338.329655798 ; 1.8760570335853988E8 ; 5.533728462631811E7 ; 3.0223525041294303E9 ; 0.0
24 ; 2836063.604296568 ; 1.948643734746048E8 ; 5.816962295597391E7 ; 3.2099582074879704E9 ; 0.0
25 ; 2846650.872225234 ; 2.0112009561660388E8 ; 6.100568656027047E7 ; 3.404822580962575E9 ; 0.0
26 ; 2852081.38902222 ; 2.0112640919229195E8 ; 6.3852337432495706E7 ; 3.605942676579179E9 ; 0.0
27 ; 2861559.9291955275 ; 2.0113307481836438E8 ; 6.670441882151793E7 ; 3.8070690857714705E9 ; 0.0
28 ; 2869945.036803998 ; 2.011400836134942E8 ; 6.956597875071345E7 ; 4.008202160589835E9 ; 0.0
29 ; 2880446.5758394673 ; 2.0114742653608876E8 ; 7.243592378751746E7 ; 4.2093422442033296E9 ; 0.0
30 ; 2885025.117813383 ; 2.0115509442669716E8 ; 7.531637036335692E7 ; 4.410489670739418E9 ; 0.0
31 ; 2892379.9240204385 ; 2.0116307804803246E8 ; 7.82013954811703E7 ; 4.611644765166115E9 ; 0.0
32 ; 2898175.959196334 ; 2.0117136812239578E8 ; 8.109377540519074E7 ; 4.812807843214148E9 ; 0.0
33 ; 2908928.2058222173 ; 2.0117995536635208E8 ; 8.399195136438707E7 ; 5.013979211336543E9 ; 0.0
34 ; 2915846.019862182 ; 2.0118883052256724E8 ; 8.690087957020928E7 ; 5.215159166702895E9 ; 0.0
35 ; 2923380.8539752625 ; 2.011979843887679E8 ; 8.981672559007145E7 ; 5.416347997225462E9 ; 0.0
36 ; 2928055.436952566 ; 2.0120740784383327E8 ; 9.274010644404672E7 ; 5.61754598161423E9 ; 0.0
37 ; 2935375.2693249886 ; 2.012170918710667E8 ; 9.566816188099928E7 ; 5.818753389458063E9 ; 0.0
38 ; 2938937.5848695925 ; 2.012270275787296E8 ; 9.860353715032427E7 ; 6.01997048132913E9 ; 0.0
39 ; 2948416.6234479654 ; 2.0123720621794605E8 ; 1.0154247473519386E8 ; 6.22119750890786E9 ; 0.0
40 ; 2953267.134932922 ; 2.0124761919810843E8 ; 1.0449089135864183E8 ; 6.422434715125806E9 ; 0.0
41 ; 2959789.2459966736 ; 2.0125825809992963E8 ; 1.0744415849357475E8 ; 6.623682334323915E9 ; 0.0
42 ; 2963250.728208806 ; 2.0126911468629795E8 ; 1.1040394773957142E8 ; 6.824940592423844E9 ; 0.0
43 ; 2964962.9009987456 ; 2.0128018091109776E8 ; 1.1336719846778023E8 ; 7.026209707110143E9 ; 0.0
44 ; 2972200.2783822576 ; 2.0129144892616096E8 ; 1.1633216136877897E8 ; 7.22748988802124E9 ; 0.0
45 ; 2975436.1174658667 ; 2.0130291108651403E8 ; 1.1930436164716123E8 ; 7.428781336947401E9 ; 0.0
46 ; 2978893.865805584 ; 2.0131455995408297E8 ; 1.222797977646271E8 ; 7.6300842480339155E9 ; 0.0
47 ; 2982971.7218434704 ; 2.0132638830001253E8 ; 1.2525869163043268E8 ; 7.831398807987999E9 ; 0.0
48 ; 2983738.462799504 ; 2.0133838910574993E8 ; 1.2824166335227615E8 ; 8.032725196288012E9 ; 0.0
49 ; 2988203.3620884935 ; 2.0135055556303576E8 ; 1.3122540181507565E8 ; 8.234063585393762E9 ; 0.0
50 ; 2990647.1214210535 ; 2.013628810729349E8 ; 1.3421360517716414E8 ; 8.435414140956798E9 ; 0.0
51 ; 2993304.274967991 ; 2.013753592440332E8 ; 1.3720425229858518E8 ; 8.636777022029732E9 ; 0.0
52 ; 2993086.97674727 ; 2.013879838899138E8 ; 1.4019755657355317E8 ; 8.838152381273766E9 ; 0.0
53 ; 2995931.816092629 ; 2.0140074902602017E8 ; 1.4319064355030045E8 ; 9.03954036516368E9 ; 0.0
54 ; 2999132.528083983 ; 2.014136488660012E8 ; 1.461865753663931E8 ; 9.2409411141897E9 ; 0.0
55 ; 3001345.575867898 ; 2.014266778176266E8 ; 1.4918570789447707E8 ; 9.4423547630557E9 ; 0.0
56 ; 3002030.0877166423 ; 2.0143983047835156E8 ; 1.5218705347034496E8 ; 9.643781440873327E9 ; 0.0
57 ; 3002117.8100320026 ; 2.014531016306007E8 ; 1.551890835580616E8 ; 9.845221271351679E9 ; 0.0
58 ; 3003249.935873555 ; 2.014664862368349E8 ; 1.581912013680936E8 ; 1.0046674372982279E10 ; 0.0
59 ; 3008995.9944172353 ; 2.0147997943445694E8 ; 1.6119445130396718E8 ; 1.0248140859219114E10 ; 0.0
60 ; 3008941.8617215897 ; 2.014935765306044E8 ; 1.6420344729838443E8 ; 1.0449620838653572E10 ; 0.0
61 ; 3009373.560896095 ; 2.015072729968738E8 ; 1.67212389160106E8 ; 1.0651114415184177E10 ; 0.0
62 ; 3013041.0790512455 ; 2.0152106446401274E8 ; 1.702217627210021E8 ; 1.0852621688181051E10 ; 0.0
63 ; 3014119.276470503 ; 2.01534946716613E8 ; 1.7323480380005336E8 ; 1.1054142752645063E10 ; 0.0
64 ; 3014145.6070546177 ; 2.015489156878318E8 ; 1.7624892307652387E8 ; 1.1255677699361677E10 ; 0.0
65 ; 3017357.63026121 ; 2.0156296745416534E8 ; 1.792630686835785E8 ; 1.145722661504951E10 ; 0.0
66 ; 3018817.606109403 ; 2.015770982302947E8 ; 1.822804263138397E8 ; 1.1658789582503674E10 ; 0.0
67 ; 3018779.558025393 ; 2.0159130436401984E8 ; 1.852992439199491E8 ; 1.1860366680733969E10 ; 0.0
68 ; 3021321.201985822 ; 2.0160558233129656E8 ; 1.883180234779745E8 ; 1.2061957985097988E10 ; 0.0
69 ; 3023300.2783559533 ; 2.0161992873138654E8 ; 1.9133934467996034E8 ; 1.2263563567429285E10 ; 0.0
70 ; 3025399.801511294 ; 2.0163434028212994E8 ; 1.943626449583163E8 ; 1.2465183496160671E10 ; 0.0
71 ; 3022845.9531602585 ; 2.0164881381534684E8 ; 1.9738804475982758E8 ; 1.26668178364428E10 ; 0.0
72 ; 3023689.074208905 ; 2.0166334627237293E8 ; 2.0041089071298784E8 ; 1.2868466650258148E10 ; 0.0
73 ; 3026510.860424276 ; 2.0167793469973263E8 ; 2.0343457978719676E8 ; 1.3070129996530521E10 ; 0.0
74 ; 3028247.4348979467 ; 2.0169257624495208E8 ; 2.0646109064762104E8 ; 1.3271807931230253E10 ; 0.0
75 ; 3023943.8061780464 ; 2.0170726815251312E8 ; 2.09489338082519E8 ; 1.3473500507475204E10 ; 0.0
76 ; 3026239.2881561774 ; 2.0172200775994784E8 ; 2.1251328188869703E8 ; 1.3675207775627718E10 ; 0.0
77 ; 3029093.1394572817 ; 2.0173679249407393E8 ; 2.155395211768532E8 ; 1.3876929783387667E10 ; 0.0
78 ; 3025676.2715610103 ; 2.017516198673682E8 ; 2.185686143163105E8 ; 1.407866657588174E10 ; 0.0
79 ; 3025278.9920189823 ; 2.0176648747447753E8 ; 2.215942905878715E8 ; 1.428041819574911E10 ; 0.0
80 ; 3021260.5405878318 ; 2.017813929888638E8 ; 2.2461956957989046E8 ; 1.4482184683223587E10 ; 0.0
81 ; 3023461.7884500674 ; 2.017963341595806E8 ; 2.276408301204783E8 ; 1.468396607621245E10 ; 0.0
82 ; 3020214.555888226 ; 2.0181130880817822E8 ; 2.3066429190892836E8 ; 1.488576241037203E10 ; 0.0
83 ; 3019468.6803527595 ; 2.0182631482573366E8 ; 2.336845064648166E8 ; 1.5087573719180208E10 ; 0.0
84 ; 3014674.141003258 ; 2.0184135017000213E8 ; 2.3670397514516935E8 ; 1.5289400034005941E10 ; 0.0
85 ; 3013615.8869275535 ; 2.0185641286268634E8 ; 2.397186492861726E8 ; 1.5491241384175943E10 ; 0.0
86 ; 3009887.5646558404 ; 2.0187150098681948E8 ; 2.4273226517310014E8 ; 1.569309779703863E10 ; 0.0
87 ; 3012846.0093994616 ; 2.0188661268425858E8 ; 2.4574215273775598E8 ; 1.589496929802545E10 ; 0.0
88 ; 3010245.339607474 ; 2.01901746153284E8 ; 2.4875499874715546E8 ; 1.609685591070971E10 ; 0.0
89 ; 3008590.7501763185 ; 2.019168996463013E8 ; 2.5176524408676293E8 ; 1.6298757656862993E10 ; 0.0
90 ; 3004660.103569131 ; 2.0193207146764147E8 ; 2.5477383483693925E8 ; 1.6500674556509295E10 ; 0.0
91 ; 3004447.146658567 ; 2.0194725997145635E8 ; 2.5777849494050837E8 ; 1.6702606627976936E10 ; 0.0
92 ; 2998920.6426202515 ; 2.0196246355970457E8 ; 2.6078294208716694E8 ; 1.6904553887948393E10 ; 0.0
93 ; 2996904.9585474744 ; 2.0197768068022522E8 ; 2.637818627297872E8 ; 1.7106516351508097E10 ; 0.0
94 ; 2994941.6066142265 ; 2.0199290982489532E8 ; 2.6677876768833467E8 ; 1.730849403218832E10 ; 0.0
95 ; 2989464.2455043714 ; 2.0200814952786738E8 ; 2.697737092949489E8 ; 1.7510486942013214E10 ; 0.0
96 ; 2990605.0389502565 ; 2.0202339836388418E8 ; 2.7276317354045326E8 ; 1.771249509154108E10 ; 0.0
97 ; 2985020.9864775618 ; 2.0203865494666722E8 ; 2.757537785794035E8 ; 1.7914518489904964E10 ; 0.0
98 ; 2985838.2754639667 ; 2.020539179273756E8 ; 2.787387995658811E8 ; 1.811655714485163E10 ; 0.0
99 ; 2981997.839040759 ; 2.0206918599313247E8 ; 2.81724637841345E8 ; 1.8318611062779007E10 ; 0.0
100 ; 2979568.3417618037 ; 2.0208445786561596E8 ; 2.8470663568038577E8 ; 1.852068024877214E10 ; 0.0
101 ; 2978439.361597535 ; 2.0209973229971182E8 ; 2.876862040221476E8 ; 1.8722764706637756E10 ; 0.0
102 ; 2972915.4788165684 ; 2.021150080822249E8 ; 2.9066464338374513E8 ; 1.892486443893747E10 ; 0.0
103 ; 2971157.2395818857 ; 2.021302840306473E8 ; 2.936375588625617E8 ; 1.9126979447019695E10 ; 0.0
104 ; 2968052.1300058886 ; 2.021455589919798E8 ; 2.966087161021436E8 ; 1.9329109731050343E10 ; 0.0
105 ; 2962936.8164609787 ; 2.021608318416052E8 ; 2.995767682321495E8 ; 1.9531255290042324E10 ; 0.0
106 ; 2960000.4127680343 ; 2.0217610148221028E8 ; 3.0253970504861045E8 ; 1.973341612188393E10 ; 0.0
107 ; 2958747.5493889498 ; 2.02191366842755E8 ; 3.0549970546137846E8 ; 1.9935592223366142E10 ; 0.0
108 ; 2956723.057853798 ; 2.022066268774862E8 ; 3.084584530107674E8 ; 2.0137783590208897E10 ; 0.0
109 ; 2951387.4249633066 ; 2.0222188056499398E8 ; 3.114151760686212E8 ; 2.0339990217086384E10 ; 0.0
110 ; 2948866.8045163965 ; 2.0223712690730897E8 ; 3.143665634935845E8 ; 2.054221209765138E10 ; 0.0
111 ; 2944241.914511485 ; 2.022523649290384E8 ; 3.173154302981009E8 ; 2.074444922455869E10 ; 0.0
112 ; 2939901.5779100177 ; 2.0226759367653942E8 ; 3.202596722126124E8 ; 2.094670158948773E10 ; 0.0
113 ; 2935344.2494705585 ; 2.0228281221712765E8 ; 3.231995737905224E8 ; 2.114896918316427E10 ; 0.0
114 ; 2933518.222633827 ; 2.0229801963831976E8 ; 3.261349180399929E8 ; 2.1351251995381397E10 ; 0.0
115 ; 2930156.687428238 ; 2.0231321504710814E8 ; 3.2906843626262677E8 ; 2.155355001501972E10 ; 0.0
116 ; 2926420.4088734435 ; 2.0232839756926674E8 ; 3.31998592950055E8 ; 2.1755863230066826E10 ; 0.0
117 ; 2922732.5524508064 ; 2.0234356634868568E8 ; 3.3492501335892844E8 ; 2.1958191627636093E10 ; 0.0
118 ; 2918379.339221491 ; 2.0235872054673475E8 ; 3.378477459113793E8 ; 2.216053519398478E10 ; 0.0
119 ; 2916812.1945747696 ; 2.0237385934165296E8 ; 3.4076612525060076E8 ; 2.2362893914531513E10 ; 0.0
120 ; 2911412.3579919087 ; 2.023889819279642E8 ; 3.436829374451755E8 ; 2.2565267773873165E10 ; 0.0
121 ; 2907610.1615055227 ; 2.024040875159171E8 ; 3.4659434980316746E8 ; 2.276765675580113E10 ; 0.0
122 ; 2904243.2686218247 ; 2.0241917533094817E8 ; 3.49501959964673E8 ; 2.2970060843317047E10 ; 0.0
123 ; 2899551.836769293 ; 2.0243424461316746E8 ; 3.524062032332948E8 ; 2.3172480018647995E10 ; 0.0
124 ; 2894463.388110518 ; 2.0244929461686522E8 ; 3.5530575507006407E8 ; 2.337491426326116E10 ; 0.0
125 ; 2893246.103767329 ; 2.0246432461003903E8 ; 3.582002184581746E8 ; 2.357736355787803E10 ; 0.0
126 ; 2887128.891859752 ; 2.024793338739404E8 ; 3.610934645619419E8 ; 2.3779827882488068E10 ; 0.0
127 ; 2882272.280569453 ; 2.024943217026397E8 ; 3.639805934538017E8 ; 2.3982307216362007E10 ; 0.0
128 ; 2881282.104422834 ; 2.0250928740260905E8 ; 3.668628657343711E8 ; 2.4184801538064648E10 ; 0.0
129 ; 2870571.16135731 ; 2.0252423029232195E8 ; 3.6974414783879393E8 ; 2.438731082546726E10 ; 0.0
130 ; 2867148.7105550687 ; 2.025391497018693E8 ; 3.726147190001512E8 ; 2.458983505575958E10 ; 0.0
131 ; 2861415.10288334 ; 2.0255404497259074E8 ; 3.754818677107063E8 ; 2.479237420546145E10 ; 0.0
132 ; 2855218.3999471916 ; 2.0256891545672068E8 ; 3.7834328281358963E8 ; 2.499492825043404E10 ; 0.0
133 ; 2847420.5266865892 ; 2.0258376051704887E8 ; 3.811985012135368E8 ; 2.5197497165890762E10 ; 0.0
134 ; 2840591.41519743 ; 2.0259857952659392E8 ; 3.840459217402234E8 ; 2.540008092640781E10 ; 0.0
135 ; 2834127.1377729867 ; 2.0261337186829045E8 ; 3.8688651315542084E8 ; 2.5602679505934402E10 ; 0.0
136 ; 2826537.1367060053 ; 2.0262813693468785E8 ; 3.897206402931938E8 ; 2.5805292877802692E10 ; 0.0
137 ; 2818421.1281025982 ; 2.0264287412766156E8 ; 3.925471774298998E8 ; 2.600792101473738E10 ; 0.0
138 ; 2811432.990648798 ; 2.026575828581352E8 ; 3.953655985580024E8 ; 2.6210563888865044E10 ; 0.0
139 ; 2804481.6643949347 ; 2.0267226254581386E8 ; 3.981770315486512E8 ; 2.641322147172318E10 ; 0.0
140 ; 2793641.8813651274 ; 2.026869126189275E8 ; 4.0098151321304613E8 ; 2.6615893734268993E10 ; 0.0
141 ; 2790333.581629254 ; 2.0270153251398456E8 ; 4.0377515509441125E8 ; 2.681858064688792E10 ; 0.0
142 ; 2783228.8186135828 ; 2.0271612167553478E8 ; 4.0656548867604053E8 ; 2.7021282179401905E10 ; 0.0
143 ; 2774863.4625381716 ; 2.0273067955594152E8 ; 4.093487174946541E8 ; 2.722399830107744E10 ; 0.0
144 ; 2767441.8485463783 ; 2.0274520561516228E8 ; 4.121235809571923E8 ; 2.742672898063338E10 ; 0.0
145 ; 2761414.701690216 ; 2.027596993205382E8 ; 4.148910228057387E8 ; 2.7629474186248543E10 ; 0.0
146 ; 2758306.7719655074 ; 2.0277416014659098E8 ; 4.176524375074289E8 ; 2.783223388556908E10 ; 0.0
147 ; 2753222.5815904127 ; 2.0278858757482794E8 ; 4.204107442793944E8 ; 2.803500804571567E10 ; 0.0
148 ; 2749321.0375403115 ; 2.0280298109355414E8 ; 4.231639668609848E8 ; 2.82377966332905E10 ; 0.0
149 ; 2744836.3867911687 ; 2.0281734019769165E8 ; 4.259132878985251E8 ; 2.8440599614384056E10 ; 0.0
150 ; 2736996.1617249325 ; 2.0283166438860565E8 ; 4.286581242853163E8 ; 2.864341695458175E10 ; 0.0
151 ; 2735849.437153962 ; 2.02845953173937E8 ; 4.313951204470412E8 ; 2.8846248618970356E10 ; 0.0
152 ; 2731522.1416161354 ; 2.028602060674408E8 ; 4.3413096988419515E8 ; 2.9049094572144295E10 ; 0.0
153 ; 2726657.417916831 ; 2.0287442258883128E8 ; 4.3686249202581125E8 ; 2.9251954778211735E10 ; 0.0
154 ; 2720616.4750101767 ; 2.0288860226363215E8 ; 4.395891494437281E8 ; 2.9454829200800568E10 ; 0.0
155 ; 2717516.5162846535 ; 2.0290274462303257E8 ; 4.4230976591873825E8 ; 2.96577178030642E10 ; 0.0
156 ; 2711453.2954992685 ; 2.0291684920374838E8 ; 4.450272824350229E8 ; 2.9860620547687233E10 ; 0.0
157 ; 2704960.490451903 ; 2.0293091554788822E8 ; 4.4773873573052216E8 ; 3.006353739689098E10 ; 0.0
158 ; 2700043.6774566616 ; 2.0294494320282486E8 ; 4.504436962209741E8 ; 3.026646831243887E10 ; 0.0
159 ; 2696016.619183251 ; 2.0295893172107083E8 ; 4.5314373989843076E8 ; 3.0469413255641693E10 ; 0.0
160 ; 2691894.797140886 ; 2.0297288066015878E8 ; 4.55839756517614E8 ; 3.0672372187362762E10 ; 0.0
161 ; 2686785.8548796135 ; 2.0298678958252603E8 ; 4.585316513147549E8 ; 3.0875345068022923E10 ; 0.0
162 ; 2683846.1365154907 ; 2.030006580554033E8 ; 4.612184371696345E8 ; 3.107833185760545E10 ; 0.0
163 ; 2678867.3151724692 ; 2.0301448565070733E8 ; 4.6390228330615E8 ; 3.1281332515660854E10 ; 0.0
164 ; 2669540.5477528265 ; 2.0302827194493747E8 ; 4.665811506213225E8 ; 3.148434700131156E10 ; 0.0
165 ; 2666678.031057041 ; 2.030420165190759E8 ; 4.692506911690753E8 ; 3.16873752732565E10 ; 0.0
166 ; 2662861.5644397107 ; 2.0305571895849115E8 ; 4.7191736920013237E8 ; 3.1890417289775578E10 ; 0.0
167 ; 2657625.6559439823 ; 2.0306937885284543E8 ; 4.745802307645721E8 ; 3.209347300873407E10 ; 0.0
168 ; 2653460.10738491 ; 2.030829957960048E8 ; 4.772378564205161E8 ; 3.2296542387586914E10 ; 0.0
169 ; 2645959.1559381727 ; 2.030965693859529E8 ; 4.79891316527901E8 ; 3.249962538338292E10 ; 0.0
170 ; 2643466.487954745 ; 2.0311009922470716E8 ; 4.8253727568383914E8 ; 3.270272195276887E10 ; 0.0
171 ; 2640205.3893800885 ; 2.0312358491823855E8 ; 4.851807421717939E8 ; 3.290583205199358E10 ; 0.0
172 ; 2632598.6334440587 ; 2.031370260763937E8 ; 4.87820947561174E8 ; 3.310895563691182E10 ; 0.0
173 ; 2628605.6483591576 ; 2.0315042231281963E8 ; 4.9045354619461805E8 ; 3.3312092662988213E10 ; 0.0
174 ; 2624285.218805332 ; 2.031637732448916E8 ; 4.930821518429772E8 ; 3.3515243085301033E10 ; 0.0
175 ; 2622595.2314370405 ; 2.0317707849364287E8 ; 4.9570643706178254E8 ; 3.3718406858545925E10 ; 0.0
176 ; 2615077.634704424 ; 2.0319033768369707E8 ; 4.9832903229321957E8 ; 3.392158393703957E10 ; 0.0
177 ; 2614806.4500045576 ; 2.032035504432032E8 ; 5.00944109927924E8 ; 3.4124774274723267E10 ; 0.0
178 ; 2608114.5432521766 ; 2.0321671640377223E8 ; 5.0355891637792856E8 ; 3.432797782516647E10 ; 0.0
179 ; 2605075.0508866957 ; 2.0322983520041648E8 ; 5.061670309211807E8 ; 3.4531194541570244E10 ; 0.0
180 ; 2602203.2123690196 ; 2.032429064714905E8 ; 5.087721059720674E8 ; 3.473442437677066E10 ; 0.0
181 ; 2595760.0436935923 ; 2.032559298586345E8 ; 5.1137430918443644E8 ; 3.493766728324215E10 ; 0.0
182 ; 2594970.5108980844 ; 2.0326890500671923E8 ; 5.1397006922813004E8 ; 3.5140923213100784E10 ; 0.0
183 ; 2591365.0509784627 ; 2.0328183156379297E8 ; 5.1656503973902816E8 ; 3.5344192118107506E10 ; 0.0
184 ; 2586911.598645939 ; 2.0329470918103015E8 ; 5.1915640479000664E8 ; 3.5547473949671295E10 ; 0.0
185 ; 2582603.579385783 ; 2.0330753751268196E8 ; 5.2174331638865256E8 ; 3.5750768658852325E10 ; 0.0
186 ; 2576781.417314594 ; 2.0332031621602818E8 ; 5.243259199680383E8 ; 3.5954076196365005E10 ; 0.0
187 ; 2576245.2520648674 ; 2.0333304495133114E8 ; 5.269027013853529E8 ; 3.615739651258103E10 ; 0.0
188 ; 2571795.4552031364 ; 2.0334572338179067E8 ; 5.294789466374178E8 ; 3.6360729557532364E10 ; 0.0
189 ; 2568654.907763428 ; 2.03358351173501E8 ; 5.320507420926209E8 ; 3.6564075280914154E10 ; 0.0
190 ; 2562981.8411581083 ; 2.0337092799540886E8 ; 5.3461939700038433E8 ; 3.6767433632087654E10 ; 0.0
191 ; 2561108.724523885 ; 2.0338345351927295E8 ; 5.371823788415425E8 ; 3.697080456008306E10 ; 0.0
192 ; 2555491.989574052 ; 2.033959274196249E8 ; 5.397434875660664E8 ; 3.717418801360233E10 ; 0.0
193 ; 2550576.673757146 ; 2.034083493737314E8 ; 5.422989795556405E8 ; 3.737758394102196E10 ; 0.0
194 ; 2550934.5440558265 ; 2.034207190615576E8 ; 5.448495562293977E8 ; 3.758099229039569E10 ; 0.0
195 ; 2545125.7085094354 ; 2.0343303616573167E8 ; 5.474004907734535E8 ; 3.7784413009457245E10 ; 0.0
196 ; 2539685.5377446073 ; 2.034453003715107E8 ; 5.499456164819629E8 ; 3.798784604562298E10 ; 0.0
197 ; 2537241.653080071 ; 2.0345751136674753E8 ; 5.524853020197076E8 ; 3.819129134599449E10 ; 0.0
198 ; 2533441.278765651 ; 2.034696688418586E8 ; 5.550225436727877E8 ; 3.839474885736124E10 ; 0.0
199 ; 2528544.827795896 ; 2.0348177248979318E8 ; 5.575559849515533E8 ; 3.8598218526203094E10 ; 0.0
200 ; 2525731.770533126 ; 1.9554053758244774E8 ; 5.600845297793492E8 ; 3.880170029869289E10 ; 0.0
