CSV File for the City 1 on Day 24
1 - Minute m 
2 - Power Consumed at minute m 
3 - Power Produced at minute m 
4 - Energy Consumed since the beginning of the day 
5 - Energy Produced since the beginning of the day 
6 - Energy Lost since the beginning of the day on lines starting from the city
 
0 ; 1.5975956603367604E7 ; 1.0523455035950872E8 ; 0.0 ; 0.0 ; 0.0
1 ; 1.5993381899687015E7 ; 1.053846906955939E8 ; 1.5975956603367604E7 ; 1.0523455035950872E8 ; 0.0
2 ; 1.6012911911609454E7 ; 1.0584368482484588E8 ; 3.196933850305462E7 ; 2.1061924105510262E8 ; 0.0
3 ; 1.6036510012785409E7 ; 1.0661157420450729E8 ; 4.7982250414664075E7 ; 3.164629258799485E8 ; 0.0
4 ; 1.6055258065664183E7 ; 1.0768840789807719E8 ; 6.401876042744948E7 ; 4.230745000844558E8 ; 0.0
5 ; 1.6083377006635137E7 ; 1.0907424263250118E8 ; 8.007401849311367E7 ; 5.30762907982533E8 ; 0.0
6 ; 1.6123793326593487E7 ; 1.107691416691257E8 ; 9.61573954997488E7 ; 6.398371506150341E8 ; 0.0
7 ; 1.6174424908907091E7 ; 1.1277317182100421E8 ; 1.1228118882634228E8 ; 7.506062922841598E8 ; 0.0
8 ; 1.6258033668161811E7 ; 1.1508639811567545E8 ; 1.2845561373524937E8 ; 8.63379464105164E8 ; 0.0
9 ; 1.6372064539004417E7 ; 1.1770887626926756E8 ; 1.4471364740341118E8 ; 9.784658622208395E8 ; 0.0
10 ; 1.6552477509865748E7 ; 1.2064064430558532E8 ; 1.610857119424156E8 ; 1.096174738490107E9 ; 0.0
11 ; 1.6842876361227855E7 ; 1.2388171577544042E8 ; 1.7763818945228136E8 ; 1.2168153827956924E9 ; 0.0
12 ; 1.7301607150483344E7 ; 1.2743207712802115E8 ; 1.9448106581350923E8 ; 1.340697098571133E9 ; 0.0
13 ; 1.775035567274288E7 ; 1.3129169033952272E8 ; 2.1178267296399257E8 ; 1.4681291756991541E9 ; 0.0
14 ; 1.78032825825251E7 ; 1.3546049969381708E8 ; 2.2953302863673544E8 ; 1.5994208660386767E9 ; 0.0
15 ; 1.7825171546233844E7 ; 1.3993844016336536E8 ; 2.4733631121926054E8 ; 1.7348813657324939E9 ; 0.0
16 ; 1.7844539810548667E7 ; 1.4472544493511423E8 ; 2.6516148276549438E8 ; 1.8748198058958592E9 ; 0.0
17 ; 1.7862707165920053E7 ; 1.4982145074771717E8 ; 2.8300602257604307E8 ; 2.0195452508309734E9 ; 0.0
18 ; 1.7880944333925582E7 ; 1.552264008742286E8 ; 3.0086872974196315E8 ; 2.1693667015786905E9 ; 0.0
19 ; 1.7907154290047873E7 ; 1.6094024625114945E8 ; 3.1874967407588875E8 ; 2.324593102452919E9 ; 0.0
20 ; 1.7926897109252244E7 ; 1.6696294542123708E8 ; 3.3665682836593664E8 ; 2.4855333487040687E9 ; 0.0
21 ; 1.7951085957667273E7 ; 1.7329446385081288E8 ; 3.5458372547518885E8 ; 2.6524962941253057E9 ; 0.0
22 ; 1.7970829379798E7 ; 1.7993477299959475E8 ; 3.7253481143285614E8 ; 2.8257907579761186E9 ; 0.0
23 ; 1.7992528038322113E7 ; 1.8688384936098558E8 ; 3.9050564081265414E8 ; 3.0057255309757133E9 ; 0.0
24 ; 1.801404848856898E7 ; 1.9414167358031893E8 ; 4.084981688509762E8 ; 3.192609380336699E9 ; 0.0
25 ; 1.8032948620492235E7 ; 2.0039627059075013E8 ; 4.265122173395452E8 ; 3.386751053917018E9 ; 0.0
26 ; 1.805413086611366E7 ; 2.0040117501368883E8 ; 4.445451659600374E8 ; 3.587147324507768E9 ; 0.0
27 ; 1.8075116440300826E7 ; 2.004061451630374E8 ; 4.625992968261511E8 ; 3.787548499521457E9 ; 0.0
28 ; 1.8096231150222592E7 ; 2.0041117187098086E8 ; 4.806744132664519E8 ; 3.9879546446844945E9 ; 0.0
29 ; 1.8111664062926106E7 ; 2.0041624744293413E8 ; 4.987706444166745E8 ; 4.188365816555475E9 ; 0.0
30 ; 1.8136313816857316E7 ; 2.004213653863633E8 ; 5.168823084796006E8 ; 4.388782063998409E9 ; 0.0
31 ; 1.815491629823498E7 ; 2.0042652019341856E8 ; 5.3501862229645795E8 ; 4.589203429384772E9 ; 0.0
32 ; 1.8171875461457066E7 ; 2.004317071664178E8 ; 5.53173538594693E8 ; 4.789629949578191E9 ; 0.0
33 ; 1.8187081200236138E7 ; 2.0043692227734968E8 ; 5.7134541405615E8 ; 4.990061656744609E9 ; 0.0
34 ; 1.8206674742495522E7 ; 2.0044216205437002E8 ; 5.89532495256386E8 ; 5.190498579021958E9 ; 0.0
35 ; 1.8225573434063546E7 ; 2.004474234897403E8 ; 6.077391699988816E8 ; 5.390940741076328E9 ; 0.0
36 ; 1.824170804654922E7 ; 2.004527039648385E8 ; 6.259647434329451E8 ; 5.591388164566069E9 ; 0.0
37 ; 1.8256356939086884E7 ; 2.0045800118880382E8 ; 6.442064514794943E8 ; 5.791840868530907E9 ; 0.0
38 ; 1.827053585252454E7 ; 2.0046331314810988E8 ; 6.624628084185812E8 ; 5.99229886971971E9 ; 0.0
39 ; 1.8289894220643327E7 ; 2.004686380649311E8 ; 6.807333442711058E8 ; 6.19276218286782E9 ; 0.0
40 ; 1.8299377716561608E7 ; 2.0047397436261508E8 ; 6.99023238491749E8 ; 6.393230820932751E9 ; 0.0
41 ; 1.8313762204123773E7 ; 2.0047932063692075E8 ; 7.173226162083106E8 ; 6.593704795295365E9 ; 0.0
42 ; 1.8325566369111486E7 ; 2.004846756319561E8 ; 7.356363784124343E8 ; 6.794184115932286E9 ; 0.0
43 ; 1.8335946773911234E7 ; 2.0049003821996245E8 ; 7.539619447815459E8 ; 6.994668791564242E9 ; 0.0
44 ; 1.8349858716943346E7 ; 2.0049540738426086E8 ; 7.722978915554571E8 ; 7.1951588297842045E9 ; 0.0
45 ; 1.8357974835885473E7 ; 2.005007822048088E8 ; 7.906477502724005E8 ; 7.395654237168466E9 ; 0.0
46 ; 1.8368247342430085E7 ; 2.0050616184592068E8 ; 8.09005725108286E8 ; 7.596155019373275E9 ; 0.0
47 ; 1.8374813009243783E7 ; 2.005115455457892E8 ; 8.273739724507161E8 ; 7.796661181219195E9 ; 0.0
48 ; 1.838111801514166E7 ; 2.005169326075114E8 ; 8.457487854599599E8 ; 7.997172726764984E9 ; 0.0
49 ; 1.8385447659256637E7 ; 2.0052232239137673E8 ; 8.641299034751015E8 ; 8.197689659372496E9 ; 0.0
50 ; 1.8397924958036922E7 ; 2.0052771430821773E8 ; 8.825153511343582E8 ; 8.398211981763872E9 ; 0.0
51 ; 1.839590164614065E7 ; 2.005331078136583E8 ; 9.009132760923951E8 ; 8.59873969607209E9 ; 0.0
52 ; 1.8403738412190113E7 ; 2.005385024031231E8 ; 9.193091777385358E8 ; 8.799272803885748E9 ; 0.0
53 ; 1.840704427394742E7 ; 2.0054389760749453E8 ; 9.377129161507258E8 ; 8.999811306288872E9 ; 0.0
54 ; 1.8418801981709648E7 ; 2.00549292989322E8 ; 9.561199604246733E8 ; 9.200355203896366E9 ; 0.0
55 ; 1.842108225673886E7 ; 2.005546881395047E8 ; 9.745387624063829E8 ; 9.400904496885689E9 ; 0.0
56 ; 1.8420950110181864E7 ; 2.005600826743804E8 ; 9.929598446631218E8 ; 9.601459185025194E9 ; 0.0
57 ; 1.8433441111189805E7 ; 2.005654762331644E8 ; 1.0113807947733036E9 ; 9.802019267699575E9 ; 0.0
58 ; 1.843285824396336E7 ; 2.0057086847569072E8 ; 1.0298142358844935E9 ; 1.000258474393274E10 ; 0.0
59 ; 1.8437491432841957E7 ; 2.00576259080415E8 ; 1.0482470941284568E9 ; 1.020315561240843E10 ; 0.0
60 ; 1.8438366124750823E7 ; 2.0058164774264506E8 ; 1.0666845855612988E9 ; 1.0403731871488846E10 ; 0.0
61 ; 1.844387177142531E7 ; 2.0058703417296922E8 ; 1.0851229516860497E9 ; 1.0604313519231491E10 ; 0.0
62 ; 1.844395764071136E7 ; 2.0059241809585765E8 ; 1.103566823457475E9 ; 1.080490055340446E10 ; 0.0
63 ; 1.8447225346987303E7 ; 2.0059779924841496E8 ; 1.1220107810981863E9 ; 1.1005492971500319E10 ; 0.0
64 ; 1.8451192136314925E7 ; 2.0060317737926528E8 ; 1.1404580064451735E9 ; 1.1206090770748734E10 ; 0.0
65 ; 1.845498919885668E7 ; 2.00608552247554E8 ; 1.1589091985814884E9 ; 1.1406693948127998E10 ; 0.0
66 ; 1.845640498958684E7 ; 2.0061392362205255E8 ; 1.177364187780345E9 ; 1.1607302500375553E10 ; 0.0
67 ; 1.846070984017655E7 ; 2.006192912803534E8 ; 1.1958205927699318E9 ; 1.1807916423997606E10 ; 0.0
68 ; 1.846059330642269E7 ; 2.0062465500814554E8 ; 1.2142813026101084E9 ; 1.200853571527796E10 ; 0.0
69 ; 1.846296646534637E7 ; 2.006300145985613E8 ; 1.232741895916531E9 ; 1.2209160370286106E10 ; 0.0
70 ; 1.8466810440207846E7 ; 2.0063536985158587E8 ; 1.2512048623818774E9 ; 1.2409790384884666E10 ; 0.0
71 ; 1.846679701027637E7 ; 2.0064072057352355E8 ; 1.2696716728220854E9 ; 1.2610425754736252E10 ; 0.0
72 ; 1.8471965031964984E7 ; 2.0064606657651374E8 ; 1.2881384698323617E9 ; 1.2811066475309776E10 ; 0.0
73 ; 1.8469496623026174E7 ; 2.0065140767809182E8 ; 1.3066104348643267E9 ; 1.301171254188629E10 ; 0.0
74 ; 1.8472139130271662E7 ; 2.0065674370079026E8 ; 1.3250799314873528E9 ; 1.321236394956438E10 ; 0.0
75 ; 1.847385010228234E7 ; 2.0066207447177526E8 ; 1.3435520706176245E9 ; 1.3413020693265171E10 ; 0.0
76 ; 1.847049975299167E7 ; 2.0066739982251585E8 ; 1.3620259207199068E9 ; 1.3613682767736946E10 ; 0.0
77 ; 1.8471532480560225E7 ; 2.0067271958848193E8 ; 1.3804964204728985E9 ; 1.3814350167559462E10 ; 0.0
78 ; 1.846807034767054E7 ; 2.0067803360886827E8 ; 1.3989679529534588E9 ; 1.4015022887147943E10 ; 0.0
79 ; 1.8463437533640977E7 ; 2.0068334172634208E8 ; 1.4174360233011293E9 ; 1.4215700920756811E10 ; 0.0
80 ; 1.845732820107828E7 ; 2.0068864378681186E8 ; 1.4358994608347702E9 ; 1.4416384262483152E10 ; 0.0
81 ; 1.8449817647422735E7 ; 2.0069393963921532E8 ; 1.4543567890358484E9 ; 1.4617072906269964E10 ; 0.0
82 ; 1.844268247628669E7 ; 2.0069922913532484E8 ; 1.4728066066832712E9 ; 1.481776684590918E10 ; 0.0
83 ; 1.8438487645397343E7 ; 2.007045121295685E8 ; 1.4912492891595578E9 ; 1.5018466075044504E10 ; 0.0
84 ; 1.8431340862825967E7 ; 2.0070978847886562E8 ; 1.5096877768049552E9 ; 1.5219170587174072E10 ; 0.0
85 ; 1.8426157099795025E7 ; 2.0071505804247525E8 ; 1.528119117667781E9 ; 1.5419880375652939E10 ; 0.0
86 ; 1.841900962210314E7 ; 2.0072032068185636E8 ; 1.5465452747675762E9 ; 1.5620595433695414E10 ; 0.0
87 ; 1.8415468065712057E7 ; 2.0072557626053905E8 ; 1.5649642843896794E9 ; 1.582131575437727E10 ; 0.0
88 ; 1.8408903674339846E7 ; 2.0073082464400545E8 ; 1.5833797524553914E9 ; 1.602204133063781E10 ; 0.0
89 ; 1.839808292035685E7 ; 2.0073606569957966E8 ; 1.6017886561297312E9 ; 1.6222772155281815E10 ; 0.0
90 ; 1.839233207010211E7 ; 2.0074129929632592E8 ; 1.620186739050088E9 ; 1.6423508220981394E10 ; 0.0
91 ; 1.8382900166223045E7 ; 2.0074652530495435E8 ; 1.6385790711201901E9 ; 1.662424952027772E10 ; 0.0
92 ; 1.8377702405208766E7 ; 2.0075174359773356E8 ; 1.6569619712864132E9 ; 1.6824996045582674E10 ; 0.0
93 ; 1.8368543781066358E7 ; 2.0075695404840946E8 ; 1.675339673691622E9 ; 1.7025747789180408E10 ; 0.0
94 ; 1.8362104538520988E7 ; 2.0076215653213027E8 ; 1.6937082174726884E9 ; 1.7226504743228817E10 ; 0.0
95 ; 1.8356417096191183E7 ; 2.007673509253763E8 ; 1.7120703220112095E9 ; 1.742726689976095E10 ; 0.0
96 ; 1.834494945743238E7 ; 2.0077253710589522E8 ; 1.7304267391074007E9 ; 1.7628034250686325E10 ; 0.0
97 ; 1.8334950419422917E7 ; 2.0077771495264155E8 ; 1.748771688564833E9 ; 1.782880678779222E10 ; 0.0
98 ; 1.832834547383276E7 ; 2.0078288434572026E8 ; 1.7671066389842558E9 ; 1.802958450274486E10 ; 0.0
99 ; 1.8318509392433297E7 ; 2.007880451663345E8 ; 1.7854349844580886E9 ; 1.823036738709058E10 ; 0.0
100 ; 1.831084915887348E7 ; 2.0079319729673678E8 ; 1.803753493850522E9 ; 1.8431155432256916E10 ; 0.0
101 ; 1.8303792414415255E7 ; 2.0079834062018314E8 ; 1.8220643430093956E9 ; 1.8631948629553654E10 ; 0.0
102 ; 1.829093169871752E7 ; 2.0080347502089092E8 ; 1.840368135423811E9 ; 1.8832746970173836E10 ; 0.0
103 ; 1.8279779848634265E7 ; 2.0080860038399893E8 ; 1.8586590671225286E9 ; 1.9033550445194725E10 ; 0.0
104 ; 1.8271128236535784E7 ; 2.0081371659553033E8 ; 1.8769388469711628E9 ; 1.9234359045578724E10 ; 0.0
105 ; 1.825534501119338E7 ; 2.0081882354235798E8 ; 1.8952099752076986E9 ; 1.9435172762174255E10 ; 0.0
106 ; 1.8250616056864105E7 ; 2.0082392111217213E8 ; 1.9134653202188919E9 ; 1.9635991585716614E10 ; 0.0
107 ; 1.8238571234757267E7 ; 2.0082900919344983E8 ; 1.931715936275756E9 ; 1.9836815506828785E10 ; 0.0
108 ; 1.8229043517224927E7 ; 2.0083408767542684E8 ; 1.949954507510513E9 ; 2.0037644516022236E10 ; 0.0
109 ; 1.8218730988605358E7 ; 2.0083915644807085E8 ; 1.968183551027738E9 ; 2.0238478603697662E10 ; 0.0
110 ; 1.8208254076133274E7 ; 2.008442154020566E8 ; 1.9864022820163434E9 ; 2.0439317760145733E10 ; 0.0
111 ; 1.8197930011712935E7 ; 2.008492644287426E8 ; 2.0046105360924766E9 ; 2.064016197554779E10 ; 0.0
112 ; 1.818990727743E7 ; 2.0085430342014915E8 ; 2.0228084661041896E9 ; 2.0841011239976532E10 ; 0.0
113 ; 1.817708163995417E7 ; 2.0085933226893798E8 ; 2.0409983733816197E9 ; 2.1041865543396683E10 ; 0.0
114 ; 1.816331694110868E7 ; 2.0086435086839285E8 ; 2.0591754550215738E9 ; 2.124272487566562E10 ; 0.0
115 ; 1.8148281285982605E7 ; 2.0086935911240157E8 ; 2.0773387719626825E9 ; 2.144358922653401E10 ; 0.0
116 ; 1.813871700701182E7 ; 2.0087435689543906E8 ; 2.095487053248665E9 ; 2.164445858564641E10 ; 0.0
117 ; 1.8128059610608354E7 ; 2.0087934411255127E8 ; 2.113625770255677E9 ; 2.184533294254185E10 ; 0.0
118 ; 1.8111135628673084E7 ; 2.0088432065934053E8 ; 2.1317538298662853E9 ; 2.2046212286654404E10 ; 0.0
119 ; 1.8100717262687027E7 ; 2.0088928643195125E8 ; 2.1498649654949584E9 ; 2.2247096607313744E10 ; 0.0
120 ; 1.80835747513479E7 ; 2.008942413270569E8 ; 2.1679656827576456E9 ; 2.2447985893745693E10 ; 0.0
121 ; 1.807319036142867E7 ; 2.0089918524184752E8 ; 2.1860492575089936E9 ; 2.264888013507275E10 ; 0.0
122 ; 1.806381654073884E7 ; 2.0090411807401815E8 ; 2.2041224478704224E9 ; 2.2849779320314598E10 ; 0.0
123 ; 1.8051027761269715E7 ; 2.0090903972175786E8 ; 2.2221862644111614E9 ; 2.3050683438388615E10 ; 0.0
124 ; 1.803732172177731E7 ; 2.009139500837395E8 ; 2.240237292172431E9 ; 2.325159247811037E10 ; 0.0
125 ; 1.8020469609784815E7 ; 2.0091884905911005E8 ; 2.2582746138942084E9 ; 2.345250642819411E10 ; 0.0
126 ; 1.800693141892056E7 ; 2.0092373654748148E8 ; 2.276295083503993E9 ; 2.365342527725322E10 ; 0.0
127 ; 1.7994868362543542E7 ; 2.0092861244892234E8 ; 2.2943020149229136E9 ; 2.38543490138007E10 ; 0.0
128 ; 1.798067065221735E7 ; 2.009334766639496E8 ; 2.312296883285457E9 ; 2.4055277626249622E10 ; 0.0
129 ; 1.7965763931036003E7 ; 2.0093832909352133E8 ; 2.3302775539376745E9 ; 2.425621110291357E10 ; 0.0
130 ; 1.794590275660262E7 ; 2.0094316963902938E8 ; 2.3482433178687105E9 ; 2.445714943200709E10 ; 0.0
131 ; 1.7925756410169613E7 ; 2.0094799820229295E8 ; 2.3661892206253133E9 ; 2.4658092601646122E10 ; 0.0
132 ; 1.7906204228430443E7 ; 2.0095281468555224E8 ; 2.384114977035483E9 ; 2.4859040599848415E10 ; 0.0
133 ; 1.788423266645686E7 ; 2.0095761899146265E8 ; 2.402021181263913E9 ; 2.5059993414533966E10 ; 0.0
134 ; 1.786789439227746E7 ; 2.0096241102308923E8 ; 2.41990541393037E9 ; 2.526095103352543E10 ; 0.0
135 ; 1.7846661158804942E7 ; 2.0096719068390167E8 ; 2.437773308322647E9 ; 2.546191344454852E10 ; 0.0
136 ; 1.7825968728243478E7 ; 2.0097195787776923E8 ; 2.455619969481452E9 ; 2.566288063523242E10 ; 0.0
137 ; 1.7804296358100396E7 ; 2.0097671250895652E8 ; 2.4734459382096953E9 ; 2.586385259311019E10 ; 0.0
138 ; 1.7781625425037146E7 ; 2.0098145448211896E8 ; 2.4912502345677958E9 ; 2.606482930561915E10 ; 0.0
139 ; 1.7756688165041912E7 ; 2.00986183702299E8 ; 2.509031859992833E9 ; 2.626581076010127E10 ; 0.0
140 ; 1.773951475606742E7 ; 2.0099090007492235E8 ; 2.526788548157875E9 ; 2.6466796943803566E10 ; 0.0
141 ; 1.7716502512938857E7 ; 2.0099560350579455E8 ; 2.5445280629139423E9 ; 2.6667787843878487E10 ; 0.0
142 ; 1.769436845912835E7 ; 2.0100029390109763E8 ; 2.5622445654268813E9 ; 2.686878344738428E10 ; 0.0
143 ; 1.7669815055574443E7 ; 2.0100497116738725E8 ; 2.5799389338860097E9 ; 2.7069783741285378E10 ; 0.0
144 ; 1.7648911698105164E7 ; 2.0100963521158966E8 ; 2.597608748941584E9 ; 2.7270788712452766E10 ; 0.0
145 ; 1.763193765041464E7 ; 2.010142859409993E8 ; 2.6152576606396894E9 ; 2.7471798347664356E10 ; 0.0
146 ; 1.761433507985123E7 ; 2.0101892326327625E8 ; 2.632889598290104E9 ; 2.7672812633605354E10 ; 0.0
147 ; 1.7601450201914076E7 ; 2.0102354708644396E8 ; 2.650503933369955E9 ; 2.787383155686863E10 ; 0.0
148 ; 1.7583530241489217E7 ; 2.0102815731888717E8 ; 2.6681053835718694E9 ; 2.8074855103955074E10 ; 0.0
149 ; 1.756614460432844E7 ; 2.0103275386935002E8 ; 2.685688913813359E9 ; 2.827588326127396E10 ; 0.0
150 ; 1.755212013626811E7 ; 2.0103733664693415E8 ; 2.7032550584176874E9 ; 2.847691601514331E10 ; 0.0
151 ; 1.7538224166968994E7 ; 2.0104190556109715E8 ; 2.7208071785539556E9 ; 2.8677953351790245E10 ; 0.0
152 ; 1.7522496728280507E7 ; 2.0104646052165103E8 ; 2.7383454027209244E9 ; 2.887899525735134E10 ; 0.0
153 ; 1.7501358026034795E7 ; 2.010510014387608E8 ; 2.755867899449205E9 ; 2.9080041717872993E10 ; 0.0
154 ; 1.749080920670111E7 ; 2.0105552822294316E8 ; 2.7733692574752398E9 ; 2.9281092719311756E10 ; 0.0
155 ; 1.7470915075985257E7 ; 2.0106004078506544E8 ; 2.790860066681941E9 ; 2.94821482475347E10 ; 0.0
156 ; 1.745364406886869E7 ; 2.0106453903634462E8 ; 2.8083309817579265E9 ; 2.9683208288319763E10 ; 0.0
157 ; 1.743779882375769E7 ; 2.010690228883461E8 ; 2.825784625826795E9 ; 2.988427282735611E10 ; 0.0
158 ; 1.742267946981498E7 ; 2.010734922529832E8 ; 2.8432224246505527E9 ; 3.0085341850244457E10 ; 0.0
159 ; 1.7402819820881728E7 ; 2.0107794704251626E8 ; 2.8606451041203675E9 ; 3.028641534249744E10 ; 0.0
160 ; 1.7390259490705386E7 ; 2.010823871695519E8 ; 2.8780479239412494E9 ; 3.0487493289539955E10 ; 0.0
161 ; 1.7367337857124418E7 ; 2.0108681254704267E8 ; 2.895438183431955E9 ; 3.0688575676709507E10 ; 0.0
162 ; 1.7357683018139962E7 ; 2.010912230882863E8 ; 2.912805521289079E9 ; 3.088966248925655E10 ; 0.0
163 ; 1.7333482328762524E7 ; 2.0109561870692548E8 ; 2.930163204307219E9 ; 3.1090753712344837E10 ; 0.0
164 ; 1.7322033976904348E7 ; 2.0109999931694746E8 ; 2.9474966866359816E9 ; 3.129184933105176E10 ; 0.0
165 ; 1.730063301660631E7 ; 2.0110436483268377E8 ; 2.964818720612886E9 ; 3.149294933036871E10 ; 0.0
166 ; 1.727940682101162E7 ; 2.0110871516880998E8 ; 2.9821193536294923E9 ; 3.1694053695201393E10 ; 0.0
167 ; 1.7268833213421345E7 ; 2.011130502403456E8 ; 2.999398760450504E9 ; 3.1895162410370205E10 ; 0.0
168 ; 1.725045534011914E7 ; 2.0111736996265402E8 ; 3.016667593663925E9 ; 3.209627546061055E10 ; 0.0
169 ; 1.7233226403143242E7 ; 2.0112167425144243E8 ; 3.0339180490040445E9 ; 3.2297392830573204E10 ; 0.0
170 ; 1.7216036712244257E7 ; 2.0112596302276188E8 ; 3.051151275407188E9 ; 3.2498514504824646E10 ; 0.0
171 ; 1.719336762396382E7 ; 2.011302361930073E8 ; 3.068367312119432E9 ; 3.269964046784741E10 ; 0.0
172 ; 1.7179645646999877E7 ; 2.0113449367891774E8 ; 3.085560679743396E9 ; 3.2900770704040417E10 ; 0.0
173 ; 1.7161588638086602E7 ; 2.0113873539757645E8 ; 3.1027403253903956E9 ; 3.3101905197719334E10 ; 0.0
174 ; 1.7152622034627404E7 ; 2.0114296126641116E8 ; 3.1199019140284824E9 ; 3.330304393311691E10 ; 0.0
175 ; 1.7138330103656173E7 ; 2.0114717120319423E8 ; 3.13705453606311E9 ; 3.350418689438332E10 ; 0.0
176 ; 1.7129796665153723E7 ; 2.0115136512604314E8 ; 3.154192866166766E9 ; 3.3705334065586514E10 ; 0.0
177 ; 1.712142962660696E7 ; 2.0115554295342064E8 ; 3.1713226628319197E9 ; 3.3906485430712555E10 ; 0.0
178 ; 1.7111049351832356E7 ; 2.0115970460413527E8 ; 3.1884440924585266E9 ; 3.4107640973665977E10 ; 0.0
179 ; 1.7098121252579987E7 ; 2.011638499973417E8 ; 3.205555141810359E9 ; 3.430880067827011E10 ; 0.0
180 ; 1.7090552672666434E7 ; 2.0116797905254114E8 ; 3.222653263062939E9 ; 3.4509964528267456E10 ; 0.0
181 ; 1.7076954961009767E7 ; 2.011720916895819E8 ; 3.2397438157356057E9 ; 3.471113250732E10 ; 0.0
182 ; 1.7065852374821052E7 ; 2.0117618782865986E8 ; 3.2568207706966157E9 ; 3.491230459900958E10 ; 0.0
183 ; 1.7056222201104946E7 ; 2.01180267390319E8 ; 3.273886623071437E9 ; 3.511348078683824E10 ; 0.0
184 ; 1.7048569075552724E7 ; 2.011843302954519E8 ; 3.290942845272542E9 ; 3.531466105422856E10 ; 0.0
185 ; 1.7035887660217848E7 ; 2.0118837646530056E8 ; 3.307991414348095E9 ; 3.551584538452401E10 ; 0.0
186 ; 1.7023121309910506E7 ; 2.011924058214566E8 ; 3.3250273020083127E9 ; 3.571703376098931E10 ; 0.0
187 ; 1.701534666251748E7 ; 2.0119641828586236E8 ; 3.342050423318223E9 ; 3.591822616681077E10 ; 0.0
188 ; 1.700135566098382E7 ; 2.0120041378081116E8 ; 3.3590657699807405E9 ; 3.6119422585096634E10 ; 0.0
189 ; 1.699213568933105E7 ; 2.0120439222894824E8 ; 3.3760671256417246E9 ; 3.632062299887744E10 ; 0.0
190 ; 1.698208060800022E7 ; 2.012083535532713E8 ; 3.3930592613310556E9 ; 3.652182739110639E10 ; 0.0
191 ; 1.6971910163329367E7 ; 2.0121229767713135E8 ; 3.410041341939056E9 ; 3.672303574465966E10 ; 0.0
192 ; 1.695932813608821E7 ; 2.012162245242333E8 ; 3.4270132521023855E9 ; 3.692424804233679E10 ; 0.0
193 ; 1.694830860594154E7 ; 2.0122013401863685E8 ; 3.443972580238474E9 ; 3.712546426686102E10 ; 0.0
194 ; 1.6937436710994124E7 ; 2.012240260847571E8 ; 3.4609208888444157E9 ; 3.732668440087966E10 ; 0.0
195 ; 1.69292200997121E7 ; 2.0122790064736548E8 ; 3.47785832555541E9 ; 3.752790842696442E10 ; 0.0
