CSV File for the City 6 on Day 16
1 - Minute m 
2 - Power Consumed at minute m 
3 - Power Produced at minute m 
4 - Energy Consumed since the beginning of the day 
5 - Energy Produced since the beginning of the day 
6 - Energy Lost since the beginning of the day on lines starting from the city
 
0 ; 1.1118675805418417E7 ; 1.0537139292474034E8 ; 0.0 ; 0.0 ; 0.0
1 ; 1.1131210452338723E7 ; 1.0551658814805806E8 ; 1.1118675805418417E7 ; 1.0537139292474034E8 ; 0.0
2 ; 1.114136313642171E7 ; 1.059710173970811E8 ; 2.2249886257757142E7 ; 2.108879810727984E8 ; 0.0
3 ; 1.1155167924532227E7 ; 1.0673476352103996E8 ; 3.3391249394178852E7 ; 3.168589984698795E8 ; 0.0
4 ; 1.117279523698725E7 ; 1.078079168528505E8 ; 4.454641731871108E7 ; 4.235937619909195E8 ; 0.0
5 ; 1.1190840006781075E7 ; 1.091905731076839E8 ; 5.571921255569833E7 ; 5.3140167884376997E8 ; 0.0
6 ; 1.1218453125055335E7 ; 1.1088282982772335E8 ; 6.691005256247941E7 ; 6.405922519514539E8 ; 0.0
7 ; 1.1252292747091526E7 ; 1.1288478124146211E8 ; 7.812850568753475E7 ; 7.514750817791773E8 ; 0.0
8 ; 1.1308325834586067E7 ; 1.1519651174920958E8 ; 8.938079843462628E7 ; 8.643598630206394E8 ; 0.0
9 ; 1.138746130971021E7 ; 1.1781808873066944E8 ; 1.0068912426921235E8 ; 9.795563747698491E8 ; 0.0
10 ; 1.1510615253730655E7 ; 1.2074955584721214E8 ; 1.1207658557892255E8 ; 1.0973744635005186E9 ; 0.0
11 ; 1.170923724304052E7 ; 1.239909282368423E8 ; 1.2358720083265321E8 ; 1.2181240193477306E9 ; 0.0
12 ; 1.2025850796181232E7 ; 1.2754219076155528E8 ; 1.3529643807569373E8 ; 1.342114947584573E9 ; 0.0
13 ; 1.2332590034954442E7 ; 1.3140329975998062E8 ; 1.4732228887187496E8 ; 1.4696571383461282E9 ; 0.0
14 ; 1.2365803161069684E7 ; 1.3557418785241473E8 ; 1.596548789068294E8 ; 1.601060438106109E9 ; 0.0
15 ; 1.2377953956206474E7 ; 1.4005477063854808E8 ; 1.7202068206789908E8 ; 1.7366346259585238E9 ; 0.0
16 ; 1.2394330727977656E7 ; 1.4484495388988754E8 ; 1.8439863602410555E8 ; 1.876689396597072E9 ; 0.0
17 ; 1.2408603230557654E7 ; 1.4994464006424984E8 ; 1.967929667520832E8 ; 2.0215343504869595E9 ; 0.0
18 ; 1.2424264508324938E7 ; 1.5535373344646382E8 ; 2.0920156998264086E8 ; 2.1714789905512094E9 ; 0.0
19 ; 1.244110199124358E7 ; 1.610721437036136E8 ; 2.216258344909658E8 ; 2.326832723997673E9 ; 0.0
20 ; 1.2455865164022008E7 ; 1.670997879864687E8 ; 2.3406693648220938E8 ; 2.487904867701287E9 ; 0.0
21 ; 1.2467004393458469E7 ; 1.7343659187908116E8 ; 2.4652280164623138E8 ; 2.6550046556877556E9 ; 0.0
22 ; 1.2481238126705939E7 ; 1.8008248953473276E8 ; 2.5898980603968984E8 ; 2.828441247566837E9 ; 0.0
23 ; 1.249578296802702E7 ; 1.8703742329644805E8 ; 2.714710441663958E8 ; 3.0085237371015697E9 ; 0.0
24 ; 1.2513444086062059E7 ; 1.943013430313754E8 ; 2.839668271344228E8 ; 3.195561160398018E9 ; 0.0
25 ; 1.2523923392528653E7 ; 2.005622462369994E8 ; 2.9648027122048485E8 ; 3.3898625034293933E9 ; 0.0
26 ; 1.253676148396682E7 ; 2.0057364326200476E8 ; 3.090041946130135E8 ; 3.590424749666393E9 ; 0.0
27 ; 1.2550786095639987E7 ; 2.0058527105097413E8 ; 3.2154095609698033E8 ; 3.7909983929283977E9 ; 0.0
28 ; 1.2566863263207907E7 ; 2.0059710167779887E8 ; 3.3409174219262034E8 ; 3.991583663979372E9 ; 0.0
29 ; 1.2576566231777363E7 ; 2.0060911100503552E8 ; 3.4665860545582825E8 ; 4.192180765657171E9 ; 0.0
30 ; 1.2595675950394565E7 ; 2.0062127813115355E8 ; 3.592351716876056E8 ; 4.392789876662207E9 ; 0.0
31 ; 1.2606633454881009E7 ; 2.0063358491455576E8 ; 3.718308476380002E8 ; 4.59341115479336E9 ; 0.0
32 ; 1.261740240430407E7 ; 2.006460155670998E8 ; 3.844374810928812E8 ; 4.794044739707915E9 ; 0.0
33 ; 1.2629494831428736E7 ; 2.006585563088102E8 ; 3.970548834971853E8 ; 4.994690755275015E9 ; 0.0
34 ; 1.264204946826266E7 ; 2.0067119507549438E8 ; 4.09684378328614E8 ; 5.195349311583825E9 ; 0.0
35 ; 1.2652353089562263E7 ; 2.0068392127154836E8 ; 4.2232642779687667E8 ; 5.39602050665932E9 ; 0.0
36 ; 1.2665630978201114E7 ; 2.006967255610562E8 ; 4.349787808864389E8 ; 5.596704427930868E9 ; 0.0
37 ; 1.2678090368959615E7 ; 2.0070959969117376E8 ; 4.4764441186464E8 ; 5.797401153491924E9 ; 0.0
38 ; 1.2686294414673662E7 ; 2.007225363426463E8 ; 4.603225022335996E8 ; 5.998110753183098E9 ; 0.0
39 ; 1.2696025068003347E7 ; 2.0073552900309467E8 ; 4.730087966482733E8 ; 6.198833289525744E9 ; 0.0
40 ; 1.2703022045940695E7 ; 2.0074857185939762E8 ; 4.8570482171627665E8 ; 6.399568818528839E9 ; 0.0
41 ; 1.2716094510405816E7 ; 2.0076165970609504E8 ; 4.9840784376221734E8 ; 6.600317390388237E9 ; 0.0
42 ; 1.2724994420276128E7 ; 2.0077478786724463E8 ; 5.111239382726232E8 ; 6.801079050094332E9 ; 0.0
43 ; 1.2733289366654566E7 ; 2.0078795212959185E8 ; 5.238489326928993E8 ; 7.001853837961576E9 ; 0.0
44 ; 1.2740567761668617E7 ; 2.0080114868526936E8 ; 5.3658222205955386E8 ; 7.202641790091168E9 ; 0.0
45 ; 1.2743997358086567E7 ; 2.0081437408254033E8 ; 5.493227898212224E8 ; 7.403442938776438E9 ; 0.0
46 ; 1.2751308959059557E7 ; 2.008276251833452E8 ; 5.62066787179309E8 ; 7.604257312858978E9 ; 0.0
47 ; 1.2756613441091595E7 ; 2.0084089912661672E8 ; 5.748180961383686E8 ; 7.805084938042323E9 ; 0.0
48 ; 1.2762688022695342E7 ; 2.008541932964971E8 ; 5.875747095794601E8 ; 8.00592583716894E9 ; 0.0
49 ; 1.27690776626583E7 ; 2.0086750529473183E8 ; 6.003373976021554E8 ; 8.206780030465437E9 ; 0.0
50 ; 1.2771339855390485E7 ; 2.008808329166294E8 ; 6.131064752648138E8 ; 8.407647535760169E9 ; 0.0
51 ; 1.2778171804740587E7 ; 2.008941741300757E8 ; 6.258778151202042E8 ; 8.608528368676798E9 ; 0.0
52 ; 1.2780537741186075E7 ; 2.0090752705716866E8 ; 6.386559869249448E8 ; 8.809422542806873E9 ; 0.0
53 ; 1.2783348608193537E7 ; 2.0092088995810866E8 ; 6.514365246661308E8 ; 9.010330069864042E9 ; 0.0
54 ; 1.278857559917383E7 ; 2.009342612170341E8 ; 6.642198732743243E8 ; 9.211250959822151E9 ; 0.0
55 ; 1.2788267254243594E7 ; 2.009476393295388E8 ; 6.770084488734981E8 ; 9.412185221039185E9 ; 0.0
56 ; 1.2792008969289273E7 ; 2.009610228916474E8 ; 6.897967161277417E8 ; 9.613132860368723E9 ; 0.0
57 ; 1.2795495069985932E7 ; 2.009744105900571E8 ; 7.02588725097031E8 ; 9.81409388326037E9 ; 0.0
58 ; 1.279704120756993E7 ; 2.009878011934821E8 ; 7.15384220167017E8 ; 1.0015068293850428E10 ; 0.0
59 ; 1.2796849759405626E7 ; 2.0100119354496038E8 ; 7.281812613745869E8 ; 1.021605609504391E10 ; 0.0
60 ; 1.280613643371423E7 ; 2.0101458655500236E8 ; 7.409781111339926E8 ; 1.041705728858887E10 ; 0.0
61 ; 1.2802010476783339E7 ; 2.010279791954772E8 ; 7.537842475677068E8 ; 1.0618071875143871E10 ; 0.0
62 ; 1.2806273698692955E7 ; 2.0104137049414685E8 ; 7.665862580444902E8 ; 1.0819099854339348E10 ; 0.0
63 ; 1.2808961289356079E7 ; 2.0105475952977115E8 ; 7.793925317431831E8 ; 1.1020141224833494E10 ; 0.0
64 ; 1.2812313506575424E7 ; 2.0106814542771503E8 ; 7.922014930325392E8 ; 1.1221195984363266E10 ; 0.0
65 ; 1.2817445998522438E7 ; 2.0108152735600114E8 ; 8.050138065391147E8 ; 1.1422264129790981E10 ; 0.0
66 ; 1.2813417071470922E7 ; 2.0109490452175522E8 ; 8.178312525376371E8 ; 1.1623345657146982E10 ; 0.0
67 ; 1.281605552756365E7 ; 2.0110827616800103E8 ; 8.306446696091081E8 ; 1.1824440561668737E10 ; 0.0
68 ; 1.2817398780136885E7 ; 2.0112164157076526E8 ; 8.434607251366718E8 ; 1.2025548837836739E10 ; 0.0
69 ; 1.2818614847341001E7 ; 2.011350000364586E8 ; 8.562781239168087E8 ; 1.2226670479407503E10 ; 0.0
70 ; 1.2819209200753244E7 ; 2.0114835089950305E8 ; 8.690967387641497E8 ; 1.2427805479443962E10 ; 0.0
71 ; 1.281811214843375E7 ; 2.0116169352017897E8 ; 8.819159479649029E8 ; 1.2628953830343466E10 ; 0.0
72 ; 1.2823532787258845E7 ; 2.0117502728266922E8 ; 8.947340601133367E8 ; 1.2830115523863646E10 ; 0.0
73 ; 1.282344669561991E7 ; 2.011883515932792E8 ; 9.075575929005955E8 ; 1.3031290551146315E10 ; 0.0
74 ; 1.2822112737296194E7 ; 2.0120166587881574E8 ; 9.203810395962155E8 ; 1.3232478902739594E10 ; 0.0
75 ; 1.2823724320908112E7 ; 2.0121496958510742E8 ; 9.332031523335117E8 ; 1.343368056861841E10 ; 0.0
76 ; 1.2824580370466614E7 ; 2.012282621756537E8 ; 9.460268766544198E8 ; 1.3634895538203518E10 ; 0.0
77 ; 1.282886982277118E7 ; 2.0124154313038912E8 ; 9.588514570248864E8 ; 1.3836123800379171E10 ; 0.0
78 ; 1.2822547446174689E7 ; 2.012548119445517E8 ; 9.716803268476576E8 ; 1.403736534350956E10 ; 0.0
79 ; 1.2819370432529442E7 ; 2.012680681276457E8 ; 9.845028742938323E8 ; 1.4238620155454111E10 ; 0.0
80 ; 1.2815281005731065E7 ; 2.0128131120248953E8 ; 9.973222447263618E8 ; 1.4439888223581757E10 ; 0.0
81 ; 1.2811698602464998E7 ; 2.0129454070434108E8 ; 1.0101375257320929E9 ; 1.4641169534784246E10 ; 0.0
82 ; 1.2806628984949645E7 ; 2.0130775618009317E8 ; 1.0229492243345579E9 ; 1.4842464075488588E10 ; 0.0
83 ; 1.2805503215936268E7 ; 2.0132095718753272E8 ; 1.0357558533195075E9 ; 1.5043771831668682E10 ; 0.0
84 ; 1.2799989964584548E7 ; 2.01334143294658E8 ; 1.0485613565354438E9 ; 1.5245092788856215E10 ; 0.0
85 ; 1.2793518636543278E7 ; 2.013473140790486E8 ; 1.0613613465000284E9 ; 1.5446426932150873E10 ; 0.0
86 ; 1.2788991692073144E7 ; 2.0136046912728375E8 ; 1.0741548651365716E9 ; 1.5647774246229921E10 ; 0.0
87 ; 1.2786783168142915E7 ; 2.0137360803440455E8 ; 1.0869438568286448E9 ; 1.5849134715357204E10 ; 0.0
88 ; 1.2784860915972872E7 ; 2.0138673040341637E8 ; 1.0997306399967875E9 ; 1.605050832339161E10 ; 0.0
89 ; 1.278000530211575E7 ; 2.013998358448281E8 ; 1.1125155009127605E9 ; 1.6251895053795025E10 ; 0.0
90 ; 1.2770463173186954E7 ; 2.0141292397622517E8 ; 1.1252955062148762E9 ; 1.6453294889639853E10 ; 0.0
91 ; 1.276672568995281E7 ; 2.0142599442187324E8 ; 1.1380659693880632E9 ; 1.6654707813616077E10 ; 0.0
92 ; 1.2760220115240015E7 ; 2.014390468123507E8 ; 1.150832695078016E9 ; 1.685613380803795E10 ; 0.0
93 ; 1.2758541190463215E7 ; 2.014520807842066E8 ; 1.1635929151932561E9 ; 1.7057572854850302E10 ; 0.0
94 ; 1.2751949480500488E7 ; 2.0146509597964317E8 ; 1.1763514563837194E9 ; 1.725902493563451E10 ; 0.0
95 ; 1.2747641345795197E7 ; 2.0147809204622003E8 ; 1.18910340586422E9 ; 1.7460490031614155E10 ; 0.0
96 ; 1.2735830288088156E7 ; 2.014910686365788E8 ; 1.201851047210015E9 ; 1.7661968123660374E10 ; 0.0
97 ; 1.273479292656758E7 ; 2.0150402540818655E8 ; 1.2145868774981031E9 ; 1.786345919229695E10 ; 0.0
98 ; 1.2726847429264445E7 ; 2.0151696202309644E8 ; 1.2273216704246707E9 ; 1.806496321770514E10 ; 0.0
99 ; 1.2724137918667668E7 ; 2.0152987814772442E8 ; 1.2400485178539352E9 ; 1.8266480179728237E10 ; 0.0
100 ; 1.2714221252054673E7 ; 2.0154277345264065E8 ; 1.2527726557726028E9 ; 1.846801005787596E10 ; 0.0
101 ; 1.2712602881614815E7 ; 2.0155564761237478E8 ; 1.2654868770246575E9 ; 1.86695528313286E10 ; 0.0
102 ; 1.2699418799369197E7 ; 2.015685003052335E8 ; 1.2781994799062724E9 ; 1.8871108478940975E10 ; 0.0
103 ; 1.2700019917174807E7 ; 2.0158133121313035E8 ; 1.2908988987056415E9 ; 1.907267697924621E10 ; 0.0
104 ; 1.2692231132424604E7 ; 2.0159414002142602E8 ; 1.3035989186228163E9 ; 1.927425831045934E10 ; 0.0
105 ; 1.267699425244379E7 ; 2.0160692641877887E8 ; 1.316291149755241E9 ; 1.9475852450480766E10 ; 0.0
106 ; 1.2676609803402793E7 ; 2.01619690097005E8 ; 1.3289681440076847E9 ; 1.9677459376899544E10 ; 0.0
107 ; 1.2668450116015665E7 ; 2.0163243075094685E8 ; 1.3416447538110876E9 ; 1.9879079066996548E10 ; 0.0
108 ; 1.2663239792399092E7 ; 2.0164514807835E8 ; 1.3543132039271033E9 ; 2.0080711497747494E10 ; 0.0
109 ; 1.2655185706739282E7 ; 2.0165784177974758E8 ; 1.3669764437195024E9 ; 2.0282356645825844E10 ; 0.0
110 ; 1.2648343624707628E7 ; 2.016705115583517E8 ; 1.3796316294262416E9 ; 2.048401448760559E10 ; 0.0
111 ; 1.264063437811216E7 ; 2.0168315711995134E8 ; 1.3922799730509493E9 ; 2.0685684999163944E10 ; 0.0
112 ; 1.2631776124946363E7 ; 2.0169577817281663E8 ; 1.4049206074290614E9 ; 2.0887368156283897E10 ; 0.0
113 ; 1.262422323537146E7 ; 2.017083744276086E8 ; 1.4175523835540078E9 ; 2.1089063934456715E10 ; 0.0
114 ; 1.2619355292841088E7 ; 2.0172094559729433E8 ; 1.4301766067893791E9 ; 2.1290772308884323E10 ; 0.0
115 ; 1.260699163334025E7 ; 2.0173349139706728E8 ; 1.4427959620822203E9 ; 2.1492493254481617E10 ; 0.0
116 ; 1.2598036665605864E7 ; 2.01746011544272E8 ; 1.4554029537155607E9 ; 2.1694226745878685E10 ; 0.0
117 ; 1.2589626741667133E7 ; 2.0175850575833347E8 ; 1.4680009903811665E9 ; 2.189597275742296E10 ; 0.0
118 ; 1.2584454969040109E7 ; 2.0177097376069048E8 ; 1.4805906171228335E9 ; 2.2097731263181293E10 ; 0.0
119 ; 1.2576732310241465E7 ; 2.017834152747326E8 ; 1.4931750720918736E9 ; 2.2299502236941982E10 ; 0.0
120 ; 1.2568713185299855E7 ; 2.017958300257412E8 ; 1.505751804402115E9 ; 2.2501285652216713E10 ; 0.0
121 ; 1.2555223346567782E7 ; 2.0180821774083343E8 ; 1.518320517587415E9 ; 2.2703081482242455E10 ; 0.0
122 ; 1.2551412103201188E7 ; 2.018205781489096E8 ; 1.5308757409339828E9 ; 2.2904889699983288E10 ; 0.0
123 ; 1.2539637738921093E7 ; 2.0183291098060352E8 ; 1.543427153037184E9 ; 2.31067102781322E10 ; 0.0
124 ; 1.2528393999060718E7 ; 2.0184521596823543E8 ; 1.5559667907761052E9 ; 2.33085431891128E10 ; 0.0
125 ; 1.2521232898299137E7 ; 2.0185749284576792E8 ; 1.5684951847751658E9 ; 2.3510388405081036E10 ; 0.0
126 ; 1.2515420963244984E7 ; 2.0186974134876397E8 ; 1.581016417673465E9 ; 2.3712245897926804E10 ; 0.0
127 ; 1.25032095055825E7 ; 2.0188196121434748E8 ; 1.59353183863671E9 ; 2.3914115639275566E10 ; 0.0
128 ; 1.2493360977181766E7 ; 2.0189415218116608E8 ; 1.6060350481422925E9 ; 2.4115997600489914E10 ; 0.0
129 ; 1.2481801497028556E7 ; 2.019063139893557E8 ; 1.6185284091194742E9 ; 2.431789175267108E10 ; 0.0
130 ; 1.246971582844702E7 ; 2.019184463805075E8 ; 1.6310102106165028E9 ; 2.451979806666044E10 ; 0.0
131 ; 1.2458841174442446E7 ; 2.019305490976362E8 ; 1.6434799264449499E9 ; 2.4721716513040947E10 ; 0.0
132 ; 1.2446665408675535E7 ; 2.0194262188515052E8 ; 1.6559387676193924E9 ; 2.4923647062138584E10 ; 0.0
133 ; 1.243058776035914E7 ; 2.01954664488825E8 ; 1.6683854330280678E9 ; 2.5125589684023735E10 ; 0.0
134 ; 1.2415960896175057E7 ; 2.0196667665577337E8 ; 1.6808160207884269E9 ; 2.532754434851256E10 ; 0.0
135 ; 1.2401763376787644E7 ; 2.019786581344236E8 ; 1.693231981684602E9 ; 2.5529511025168335E10 ; 0.0
136 ; 1.2386539611230677E7 ; 2.0199060867449406E8 ; 1.7056337450613897E9 ; 2.5731489683302757E10 ; 0.0
137 ; 1.2372484108468654E7 ; 2.02002528026971E8 ; 1.7180202846726203E9 ; 2.5933480291977253E10 ; 0.0
138 ; 1.2358636328630371E7 ; 2.0201441594408762E8 ; 1.730392768781089E9 ; 2.6135482820004223E10 ; 0.0
139 ; 1.234296317918377E7 ; 2.0202627217930368E8 ; 1.7427514051097195E9 ; 2.633749723594831E10 ; 0.0
140 ; 1.2332040047741273E7 ; 2.0203809648728684E8 ; 1.7550943682889032E9 ; 2.6539523508127613E10 ; 0.0
141 ; 1.2313153974579118E7 ; 2.0204988862389457E8 ; 1.7674264083366444E9 ; 2.67415616046149E10 ; 0.0
142 ; 1.2298383130060151E7 ; 2.0206164834615734E8 ; 1.7797395623112235E9 ; 2.6943611493238792E10 ; 0.0
143 ; 1.2284901550053967E7 ; 2.020733754122625E8 ; 1.7920379454412837E9 ; 2.714567314158495E10 ; 0.0
144 ; 1.2268398659268709E7 ; 2.0208506958153936E8 ; 1.8043228469913378E9 ; 2.734774651699721E10 ; 0.0
145 ; 1.22580008618368E7 ; 2.0209673061444476E8 ; 1.8165912456506064E9 ; 2.754983158657875E10 ; 0.0
146 ; 1.2245942890822176E7 ; 2.0210835827254972E8 ; 1.8288492465124433E9 ; 2.7751928317193195E10 ; 0.0
147 ; 1.2239289629957557E7 ; 2.021199523185267E8 ; 1.8410951894032655E9 ; 2.7954036675465744E10 ; 0.0
148 ; 1.2227352213620532E7 ; 2.0213151251613745E8 ; 1.8533344790332232E9 ; 2.815615662778427E10 ; 0.0
149 ; 1.2216830118418748E7 ; 2.02143038630222E8 ; 1.8655618312468436E9 ; 2.8358288140300407E10 ; 0.0
150 ; 1.2205361698420959E7 ; 2.0215453042668772E8 ; 1.8777786613652623E9 ; 2.856043117893063E10 ; 0.0
151 ; 1.21927672810069E7 ; 2.021659876724994E8 ; 1.8899840230636833E9 ; 2.876258570935732E10 ; 0.0
152 ; 1.2183153609222544E7 ; 2.021774101356697E8 ; 1.90217679034469E9 ; 2.896475169702982E10 ; 0.0
153 ; 1.2173635464008542E7 ; 2.0218879758525032E8 ; 1.9143599439539127E9 ; 2.916692910716549E10 ; 0.0
154 ; 1.2158843944374388E7 ; 2.022001497913235E8 ; 1.9265335794179213E9 ; 2.936911790475074E10 ; 0.0
155 ; 1.2152072833500115E7 ; 2.0221146652499428E8 ; 1.9386924233622956E9 ; 2.9571318054542065E10 ; 0.0
156 ; 1.2138634135913547E7 ; 2.022227475583829E8 ; 1.9508444961957958E9 ; 2.977352952106706E10 ; 0.0
157 ; 1.2127196682755785E7 ; 2.0223399266461796E8 ; 1.9629831303317094E9 ; 2.9975752268625443E10 ; 0.0
158 ; 1.2115571194508001E7 ; 2.022452016178299E8 ; 1.975110327014465E9 ; 3.0177986261290062E10 ; 0.0
159 ; 1.2102602220078975E7 ; 2.0225637419314474E8 ; 1.9872258982089732E9 ; 3.038023146290789E10 ; 0.0
160 ; 1.2094291548325332E7 ; 2.022675101666786E8 ; 1.999328500429052E9 ; 3.0582487837101036E10 ; 0.0
161 ; 1.2083933775147613E7 ; 2.022786093155321E8 ; 2.0114227919773774E9 ; 3.0784755347267715E10 ; 0.0
162 ; 1.2068826052930512E7 ; 2.0228967141778544E8 ; 2.023506725752525E9 ; 3.098703395658325E10 ; 0.0
163 ; 1.205792709688503E7 ; 2.0230069625249386E8 ; 2.0355755518054557E9 ; 3.1189323628001034E10 ; 0.0
164 ; 1.2046225072791843E7 ; 2.0231168359968314E8 ; 2.0476334789023407E9 ; 3.139162432425353E10 ; 0.0
165 ; 1.203477537007453E7 ; 2.023226332403456E8 ; 2.0596797039751325E9 ; 3.159393600785321E10 ; 0.0
166 ; 1.2021401210997956E7 ; 2.0233354495643643E8 ; 2.071714479345207E9 ; 3.1796258641093555E10 ; 0.0
167 ; 1.2009461938333847E7 ; 2.0234441853087014E8 ; 2.083735880556205E9 ; 3.199859218604999E10 ; 0.0
168 ; 1.1995911031263776E7 ; 2.023552537475175E8 ; 2.0957453424945388E9 ; 3.220093660458086E10 ; 0.0
169 ; 1.1986985553618513E7 ; 2.023660503912024E8 ; 2.1077412535258026E9 ; 3.2403291858328377E10 ; 0.0
170 ; 1.1975388012242358E7 ; 2.0237680824769935E8 ; 2.119728239079421E9 ; 3.2605657908719578E10 ; 0.0
171 ; 1.1964670710248644E7 ; 2.023875271037309E8 ; 2.1317036270916634E9 ; 3.2808034716967278E10 ; 0.0
172 ; 1.1952250951067153E7 ; 2.023982067469654E8 ; 2.143668297801912E9 ; 3.3010422244071007E10 ; 0.0
173 ; 1.194103122330888E7 ; 2.02408846966015E8 ; 2.1556205487529793E9 ; 3.321282045081797E10 ; 0.0
174 ; 1.1933651637138152E7 ; 2.0241944755043387E8 ; 2.1675615799762883E9 ; 3.3415229297783985E10 ; 0.0
175 ; 1.1925077650808346E7 ; 2.024300082907164E8 ; 2.1794952316134267E9 ; 3.361764874533442E10 ; 0.0
176 ; 1.1917843049160024E7 ; 2.024405289782959E8 ; 2.191420309264235E9 ; 3.3820078753625137E10 ; 0.0
177 ; 1.1917121752585957E7 ; 2.0245100940554315E8 ; 2.203338152313395E9 ; 3.402251928260343E10 ; 0.0
178 ; 1.1907561205469225E7 ; 2.0246144936576548E8 ; 2.215255274065981E9 ; 3.4224970292008976E10 ; 0.0
179 ; 1.1900045954253426E7 ; 2.024718486532057E8 ; 2.22716283527145E9 ; 3.442743174137474E10 ; 0.0
180 ; 1.1890507511990525E7 ; 2.024822070630413E8 ; 2.2390628812257032E9 ; 3.462990359002795E10 ; 0.0
181 ; 1.1885014150236972E7 ; 2.0249252439138377E8 ; 2.250953388737694E9 ; 3.483238579709099E10 ; 0.0
182 ; 1.1874232605168415E7 ; 2.0250280043527815E8 ; 2.262838402887931E9 ; 3.503487832148237E10 ; 0.0
183 ; 1.1871053799245426E7 ; 2.0251303499270254E8 ; 2.274712635493099E9 ; 3.523738112191765E10 ; 0.0
184 ; 1.1862092935267007E7 ; 2.0252322786256802E8 ; 2.2865836892923446E9 ; 3.5439894156910355E10 ; 0.0
185 ; 1.1853404100613514E7 ; 2.0253337884471828E8 ; 2.2984457822276115E9 ; 3.564241738477293E10 ; 0.0
186 ; 1.1844770894679908E7 ; 2.025434877399297E8 ; 2.310299186328225E9 ; 3.5844950763617645E10 ; 0.0
187 ; 1.1839434809072817E7 ; 2.0255355434991154E8 ; 2.322143957222905E9 ; 3.6047494251357574E10 ; 0.0
188 ; 1.1832623843864478E7 ; 2.0256357847730595E8 ; 2.333983392031978E9 ; 3.625004780570749E10 ; 0.0
189 ; 1.1826026117575938E7 ; 2.0257355992568836E8 ; 2.3458160158758426E9 ; 3.645261138418479E10 ; 0.0
190 ; 1.181783750837941E7 ; 2.0258349849956784E8 ; 2.3576420419934187E9 ; 3.665518494411048E10 ; 0.0
191 ; 1.1809042265046872E7 ; 2.0259339400438765E8 ; 2.369459879501798E9 ; 3.685776844261005E10 ; 0.0
192 ; 1.1801239802395113E7 ; 2.0260324624652565E8 ; 2.381268921766845E9 ; 3.706036183661443E10 ; 0.0
193 ; 1.179413569767011E7 ; 2.0261305503329512E8 ; 2.3930701615692406E9 ; 3.726296508286096E10 ; 0.0
194 ; 1.1787505919980604E7 ; 2.0262282017294544E8 ; 2.4048642972669106E9 ; 3.746557813789426E10 ; 0.0
195 ; 1.1782113483117716E7 ; 2.0263254147466278E8 ; 2.416651803186891E9 ; 3.76682009580672E10 ; 0.0
