CSV File for the City 6 on Day 189
1 - Minute m 
2 - Power Consumed at minute m 
3 - Power Produced at minute m 
4 - Energy Consumed since the beginning of the day 
5 - Energy Produced since the beginning of the day 
6 - Energy Lost since the beginning of the day on lines starting from the city
 
0 ; 1728261.838069426 ; 1.0589051982957813E8 ; 0.0 ; 0.0 ; 0.0
1 ; 1742180.2002620627 ; 1.0604119106328523E8 ; 1728261.838069426 ; 1.0589051982957813E8 ; 0.0
2 ; 1753669.907161723 ; 1.0650087207188496E8 ; 3470442.0383314886 ; 2.1193171089286336E8 ; 0.0
3 ; 1768359.5082471413 ; 1.0726956814113307E8 ; 5224111.945493212 ; 3.184325829647483E8 ; 0.0
4 ; 1782337.8494095134 ; 1.0834728403584677E8 ; 6992471.453740353 ; 4.257021511058814E8 ; 0.0
5 ; 1806655.7312061621 ; 1.0973402396426964E8 ; 8774809.303149866 ; 5.3404943514172816E8 ; 0.0
6 ; 1825665.967733685 ; 1.1142979154576406E8 ; 1.0581465034356028E7 ; 6.437834591059978E8 ; 0.0
7 ; 1869698.9662036675 ; 1.1343458978239477E8 ; 1.2407131002089713E7 ; 7.552132506517619E8 ; 0.0
8 ; 1919936.1398898643 ; 1.1574842103491288E8 ; 1.427682996829338E7 ; 8.686478404341567E8 ; 0.0
9 ; 1998260.3470369517 ; 1.1837128700358665E8 ; 1.6196766108183244E7 ; 9.843962614690695E8 ; 0.0
10 ; 2124213.4432172757 ; 1.2130318871423882E8 ; 1.8195026455220196E7 ; 1.1027675484726562E9 ; 0.0
11 ; 2322002.980337595 ; 1.2454412650975952E8 ; 2.031923989843747E7 ; 1.2240707371868951E9 ; 0.0
12 ; 2638986.3820753726 ; 1.2809410004725859E8 ; 2.2641242878775064E7 ; 1.3486148636966546E9 ; 0.0
13 ; 2947243.919080613 ; 1.3195310830091327E8 ; 2.5280229260850437E7 ; 1.4767089637439132E9 ; 0.0
14 ; 2983163.107995178 ; 1.3612114957045543E8 ; 2.8227473179931052E7 ; 1.6086620720448265E9 ; 0.0
15 ; 2998683.4099750486 ; 1.4059822149513382E8 ; 3.121063628792623E7 ; 1.744783221615282E9 ; 0.0
16 ; 3011855.989422769 ; 1.453843210728838E8 ; 3.420931969790128E7 ; 1.885381443110416E9 ; 0.0
17 ; 3030726.2203924023 ; 1.5047944468434295E8 ; 3.722117568732405E7 ; 2.0307657641832998E9 ; 0.0
18 ; 3043020.457644194 ; 1.5588358812126768E8 ; 4.025190190771645E7 ; 2.181245208867643E9 ; 0.0
19 ; 3061480.8526612455 ; 1.6159674661884078E8 ; 4.329492236536065E7 ; 2.3371287969889107E9 ; 0.0
20 ; 3072040.895077562 ; 1.676189148913065E8 ; 4.635640321802189E7 ; 2.4987255436077514E9 ; 0.0
21 ; 3088526.8636155855 ; 1.739500871703358E8 ; 4.9428444113099456E7 ; 2.666344458499058E9 ; 0.0
22 ; 3108299.341430915 ; 1.8059025724550807E8 ; 5.251697097671504E7 ; 2.8402945456693935E9 ; 0.0
23 ; 3121833.777163073 ; 1.8753941850629252E8 ; 5.562527031814596E7 ; 3.0208848029149017E9 ; 0.0
24 ; 3132632.0499923173 ; 1.947975639849292E8 ; 5.8747104095309034E7 ; 3.208424221421194E9 ; 0.0
25 ; 3146828.511533793 ; 2.0105272729781798E8 ; 6.187973614530135E7 ; 3.403221785406123E9 ; 0.0
26 ; 3162515.352294389 ; 2.0105844872541004E8 ; 6.502656465683514E7 ; 3.6042745127039413E9 ; 0.0
27 ; 3177878.69453259 ; 2.0106448977940932E8 ; 6.818908000912952E7 ; 3.8053329614293513E9 ; 0.0
28 ; 3195061.6080012694 ; 2.0107084249071303E8 ; 7.136695870366211E7 ; 4.0063974512087607E9 ; 0.0
29 ; 3208600.068211625 ; 2.010774987423203E8 ; 7.456202031166339E7 ; 4.207468293699474E9 ; 0.0
30 ; 3223495.9003679403 ; 2.0108445030717766E8 ; 7.777062037987502E7 ; 4.408545792441794E9 ; 0.0
31 ; 3238536.71875267 ; 2.010916888839532E8 ; 8.099411628024296E7 ; 4.609630242748972E9 ; 0.0
32 ; 3250860.9480999773 ; 2.0109920613054565E8 ; 8.423265299899563E7 ; 4.810721931632925E9 ; 0.0
33 ; 3266669.628222803 ; 2.011069936951894E8 ; 8.74835139470956E7 ; 5.011821137763471E9 ; 0.0
34 ; 3279955.2157268054 ; 2.0111504324506998E8 ; 9.075018357531841E7 ; 5.21292813145866E9 ; 0.0
35 ; 3294323.4364847955 ; 2.011233464924091E8 ; 9.403013879104522E7 ; 5.41404317470373E9 ; 0.0
36 ; 3301876.261281106 ; 2.011318952180209E8 ; 9.732446222753002E7 ; 5.615166521196138E9 ; 0.0
37 ; 3317162.924681492 ; 2.0114068129237667E8 ; 1.0062633848881112E8 ; 5.816298416414159E9 ; 0.0
38 ; 3329543.1466743196 ; 2.011496966942447E8 ; 1.0394350141349262E8 ; 6.017439097706535E9 ; 0.0
39 ; 3343342.659165127 ; 2.0115893352699658E8 ; 1.0727304456016694E8 ; 6.21858879440078E9 ; 0.0
40 ; 3350675.9956819913 ; 2.011683840326904E8 ; 1.1061638721933207E8 ; 6.419747727927776E9 ; 0.0
41 ; 3365984.2093449617 ; 2.0117804060405615E8 ; 1.1396706321501406E8 ; 6.620916111960466E9 ; 0.0
42 ; 3370721.113260171 ; 2.01187895794518E8 ; 1.1733304742435902E8 ; 6.822094152564523E9 ; 0.0
43 ; 3382263.1108329985 ; 2.011979423263949E8 ; 1.2070376853761919E8 ; 7.023282048359041E9 ; 0.0
44 ; 3393793.1275007897 ; 2.0120817309742376E8 ; 1.2408603164845219E8 ; 7.224479990685436E9 ; 0.0
45 ; 3404696.1925661457 ; 2.0121858118574983E8 ; 1.2747982477595298E8 ; 7.42568816378286E9 ; 0.0
46 ; 3411494.378866641 ; 2.0122915985352585E8 ; 1.3088452096851912E8 ; 7.62690674496861E9 ; 0.0
47 ; 3418268.3966324204 ; 2.012399025492592E8 ; 1.3429601534738576E8 ; 7.828135904822136E9 ; 0.0
48 ; 3421039.822782299 ; 2.012508029090389E8 ; 1.377142837440182E8 ; 8.029375807371395E9 ; 0.0
49 ; 3429776.87312431 ; 2.0126185475676927E8 ; 1.411353235668005E8 ; 8.230626610280434E9 ; 0.0
50 ; 3436790.430935161 ; 2.012730521035285E8 ; 1.445651004399248E8 ; 8.431888465037203E9 ; 0.0
51 ; 3442490.3392265467 ; 2.012843891461639E8 ; 1.4800189087085998E8 ; 8.633161517140732E9 ; 0.0
52 ; 3446692.5735347946 ; 2.01295860265226E8 ; 1.5144438121008652E8 ; 8.834445906286896E9 ; 0.0
53 ; 3454993.8203765936 ; 2.0130746002233663E8 ; 1.548910737836213E8 ; 9.035741766552122E9 ; 0.0
54 ; 3458303.5797318798 ; 2.013191831570778E8 ; 1.5834606760399792E8 ; 9.23704922657446E9 ; 0.0
55 ; 3463161.136050095 ; 2.0133102458347964E8 ; 1.618043711837298E8 ; 9.438368409731537E9 ; 0.0
56 ; 3468174.3678621044 ; 2.0134297938617918E8 ; 1.652675323197799E8 ; 9.639699434315016E9 ; 0.0
57 ; 3473024.6560820495 ; 2.013550428163134E8 ; 1.68735706687642E8 ; 9.841042413701195E9 ; 0.0
58 ; 3480270.7188801873 ; 2.0136721028720403E8 ; 1.7220873134372407E8 ; 1.0042397456517508E10 ; 0.0
59 ; 3483397.0443929 ; 2.01379477369885E8 ; 1.7568900206260425E8 ; 1.0243764666804712E10 ; 0.0
60 ; 3487048.7275132285 ; 2.0139183978851685E8 ; 1.7917239910699716E8 ; 1.0445144144174597E10 ; 0.0
61 ; 3496375.708066323 ; 2.0140429341572794E8 ; 1.826594478345104E8 ; 1.0646535983963114E10 ; 0.0
62 ; 3497442.0110788103 ; 2.0141683426791698E8 ; 1.861558235425767E8 ; 1.0847940277378841E10 ; 0.0
63 ; 3504217.0455853334 ; 2.0142945850054604E8 ; 1.896532655536555E8 ; 1.1049357111646759E10 ; 0.0
64 ; 3507556.197854218 ; 2.0144216240345055E8 ; 1.9315748259924084E8 ; 1.1250786570147305E10 ; 0.0
65 ; 3510410.550491925 ; 2.0145494239618757E8 ; 1.9666503879709506E8 ; 1.1452228732550755E10 ; 0.0
66 ; 3517767.44737265 ; 2.0146779502344137E8 ; 2.00175449347587E8 ; 1.1653683674946941E10 ; 0.0
67 ; 3521975.87205131 ; 2.0148071695050177E8 ; 2.0369321679495963E8 ; 1.1855151469970383E10 ; 0.0
68 ; 3526150.726076846 ; 2.0149370495882785E8 ; 2.0721519266701093E8 ; 1.2056632186920885E10 ; 0.0
69 ; 3527265.5530928853 ; 2.015067559417084E8 ; 2.1074134339308777E8 ; 1.2258125891879713E10 ; 0.0
70 ; 3533782.717926327 ; 2.0151986690002635E8 ; 2.1426860894618067E8 ; 1.245963264782142E10 ; 0.0
71 ; 3534737.65037192 ; 2.015330349381353E8 ; 2.17802391664107E8 ; 1.2661152514721447E10 ; 0.0
72 ; 3544374.585361103 ; 2.015462572598517E8 ; 2.213371293144789E8 ; 1.2862685549659582E10 ; 0.0
73 ; 3543123.8129174216 ; 2.0155953116456714E8 ; 2.2488150389984E8 ; 1.3064231806919434E10 ; 0.0
74 ; 3550264.143620317 ; 2.0157285404348314E8 ; 2.284246277127574E8 ; 1.3265791338084002E10 ; 0.0
75 ; 3549077.6224199296 ; 2.0158622337596932E8 ; 2.3197489185637772E8 ; 1.3467364192127485E10 ; 0.0
76 ; 3555664.2897721324 ; 2.0159963672604582E8 ; 2.3552396947879764E8 ; 1.3668950415503454E10 ; 0.0
77 ; 3557983.2382687256 ; 2.0161309173898944E8 ; 2.3907963376856977E8 ; 1.38705500522295E10 ; 0.0
78 ; 3555819.1124432245 ; 2.0162658613806263E8 ; 2.426376170068385E8 ; 1.4072163143968489E10 ; 0.0
79 ; 3560071.567399535 ; 2.016401177213637E8 ; 2.4619343611928174E8 ; 1.4273789730106552E10 ; 0.0
80 ; 3554358.815781646 ; 2.016536843587964E8 ; 2.4975350768668127E8 ; 1.4475429847827915E10 ; 0.0
81 ; 3555345.3132897248 ; 2.0166728398915657E8 ; 2.5330786650246292E8 ; 1.4677083532186712E10 ; 0.0
82 ; 3559312.9321538075 ; 2.0168091461733323E8 ; 2.5686321181575266E8 ; 1.4878750816175869E10 ; 0.0
83 ; 3556267.6502170186 ; 2.0169457431162083E8 ; 2.6042252474790648E8 ; 1.5080431730793201E10 ; 0.0
84 ; 3554106.988226228 ; 2.0170826120114046E8 ; 2.639787923981235E8 ; 1.5282126305104822E10 ; 0.0
85 ; 3554449.3754648054 ; 2.0172197347336605E8 ; 2.6753289938634974E8 ; 1.5483834566305964E10 ; 0.0
86 ; 3553452.8796920185 ; 2.017357093717527E8 ; 2.7108734876181453E8 ; 1.568555653977933E10 ; 0.0
87 ; 3547632.173869258 ; 2.0174946719346362E8 ; 2.7464080164150655E8 ; 1.5887292249151081E10 ; 0.0
88 ; 3549093.341273637 ; 2.0176324528719229E8 ; 2.781884338153758E8 ; 1.6089041716344545E10 ; 0.0
89 ; 3545537.6969328914 ; 2.017770420510769E8 ; 2.817375271566495E8 ; 1.6290804961631737E10 ; 0.0
90 ; 3547515.5147815878 ; 2.0179085593070287E8 ; 2.852830648535824E8 ; 1.6492582003682814E10 ; 0.0
91 ; 3544806.1292841374 ; 2.018046854171911E8 ; 2.88830580368364E8 ; 1.6694372859613516E10 ; 0.0
92 ; 3543366.121937636 ; 2.0181852904536757E8 ; 2.923753864976481E8 ; 1.6896177545030706E10 ; 0.0
93 ; 3541261.2761257924 ; 2.018323853920124E8 ; 2.9591875261958575E8 ; 1.7097996074076075E10 ; 0.0
94 ; 3542719.0030524903 ; 2.0184625307418367E8 ; 2.9946001389571154E8 ; 1.7299828459468086E10 ; 0.0
95 ; 3537481.500763741 ; 2.018601307476145E8 ; 3.03002732898764E8 ; 1.750167471254227E10 ; 0.0
96 ; 3535139.366849841 ; 2.018740171051789E8 ; 3.065402143995277E8 ; 1.7703534843289886E10 ; 0.0
97 ; 3536291.018263542 ; 2.0188791087542477E8 ; 3.1007535376637757E8 ; 1.7905408860395065E10 ; 0.0
98 ; 3533814.2910421495 ; 2.019018108211703E8 ; 3.136116447846411E8 ; 1.810729677127049E10 ; 0.0
99 ; 3531510.0144863026 ; 2.019157157381615E8 ; 3.1714545907568324E8 ; 1.830919858209166E10 ; 0.0
100 ; 3529425.155892743 ; 2.019296244537881E8 ; 3.2067696909016955E8 ; 1.8511114297829823E10 ; 0.0
101 ; 3526666.9097461426 ; 2.0194353582585528E8 ; 3.242063942460623E8 ; 1.871304392228361E10 ; 0.0
102 ; 3519858.471501998 ; 2.0195744874140888E8 ; 3.2773306115580845E8 ; 1.8914987458109467E10 ; 0.0
103 ; 3521185.3942241957 ; 2.0197136211561152E8 ; 3.3125291962731045E8 ; 1.9116944906850876E10 ; 0.0
104 ; 3517470.2171905083 ; 2.0198527489066756E8 ; 3.347741050215346E8 ; 1.9318916268966488E10 ; 0.0
105 ; 3514077.8773598494 ; 2.019991860347946E8 ; 3.382915752387251E8 ; 1.9520901543857155E10 ; 0.0
106 ; 3513886.440002519 ; 2.0201309454123968E8 ; 3.41805653116085E8 ; 1.972290072989195E10 ; 0.0
107 ; 3511391.9421080095 ; 2.020269994273379E8 ; 3.453195395560875E8 ; 1.992491382443319E10 ; 0.0
108 ; 3510817.6198142595 ; 2.020408997336115E8 ; 3.488309314981955E8 ; 2.0126940823860527E10 ; 0.0
109 ; 3504915.6908753733 ; 2.0205479452290797E8 ; 3.523417491180098E8 ; 2.032898172359414E10 ; 0.0
110 ; 3502270.68162999 ; 2.0206868287957516E8 ; 3.5584666480888516E8 ; 2.0531036518117046E10 ; 0.0
111 ; 3496980.385226303 ; 2.020825639086716E8 ; 3.593489354905152E8 ; 2.073310520099662E10 ; 0.0
112 ; 3494074.5986041273 ; 2.0209643673521075E8 ; 3.628459158757415E8 ; 2.0935187764905293E10 ; 0.0
113 ; 3490170.0943291658 ; 2.021103005034374E8 ; 3.663399904743456E8 ; 2.1137284201640503E10 ; 0.0
114 ; 3489164.174168733 ; 2.0212415437613484E8 ; 3.698301605686748E8 ; 2.133939450214394E10 ; 0.0
115 ; 3488263.70424481 ; 2.021379975339616E8 ; 3.733193247428435E8 ; 2.1541518656520073E10 ; 0.0
116 ; 3481149.7875893596 ; 2.0215182917481583E8 ; 3.768075884470883E8 ; 2.1743656654054035E10 ; 0.0
117 ; 3476597.3290108447 ; 2.0216564851322705E8 ; 3.802887382346777E8 ; 2.194580848322885E10 ; 0.0
118 ; 3473618.9440256837 ; 2.02179454779773E8 ; 3.837653355636885E8 ; 2.2147974131742077E10 ; 0.0
119 ; 3470192.098110455 ; 2.0219324722052103E8 ; 3.872389545077142E8 ; 2.235015358652185E10 ; 0.0
120 ; 3464099.2628245675 ; 2.022070250964931E8 ; 3.9070914660582465E8 ; 2.255234683374237E10 ; 0.0
121 ; 3460536.3552694935 ; 2.022207876831526E8 ; 3.9417324586864924E8 ; 2.2754553858838863E10 ; 0.0
122 ; 3455357.77005597 ; 2.0223453426991287E8 ; 3.9763378222391874E8 ; 2.2956774646522015E10 ; 0.0
123 ; 3453271.3270245385 ; 2.0224826415966576E8 ; 4.010891399939747E8 ; 2.3159009180791927E10 ; 0.0
124 ; 3447905.834839659 ; 2.0226197666832972E8 ; 4.045424113209992E8 ; 2.336125744495159E10 ; 0.0
125 ; 3439975.367138909 ; 2.0227567112441644E8 ; 4.0799031715583885E8 ; 2.3563519421619923E10 ; 0.0
126 ; 3438659.894630191 ; 2.0228934686861524E8 ; 4.1143029252297777E8 ; 2.376579509274434E10 ; 0.0
127 ; 3433712.424523653 ; 2.0230300325339428E8 ; 4.1486895241760796E8 ; 2.3968084439612953E10 ; 0.0
128 ; 3430467.9701151014 ; 2.0231663964261806E8 ; 4.183026648421316E8 ; 2.417038744286635E10 ; 0.0
129 ; 3425264.649543573 ; 2.023302554111805E8 ; 4.2173313281224674E8 ; 2.4372704082508965E10 ; 0.0
130 ; 3415152.229244988 ; 2.0234384994465238E8 ; 4.251583974617903E8 ; 2.4575034337920143E10 ; 0.0
131 ; 3407266.7438720963 ; 2.0235742263894358E8 ; 4.2857354969103533E8 ; 2.4777378187864796E10 ; 0.0
132 ; 3403800.8594300947 ; 2.023709728999782E8 ; 4.3198081643490744E8 ; 2.497973561050374E10 ; 0.0
133 ; 3390825.43023546 ; 2.0238450014338303E8 ; 4.353846172943375E8 ; 2.5182106583403717E10 ; 0.0
134 ; 3382429.574886972 ; 2.0239800379418817E8 ; 4.3877544272457296E8 ; 2.53844910835471E10 ; 0.0
135 ; 3372396.220883408 ; 2.0241148328653973E8 ; 4.4215787229945993E8 ; 2.558688908734129E10 ; 0.0
136 ; 3366109.7589077693 ; 2.0242493806342345E8 ; 4.4553026852034336E8 ; 2.578930057062783E10 ; 0.0
137 ; 3352794.0023679347 ; 2.0243836757639956E8 ; 4.4889637827925116E8 ; 2.5991725508691254E10 ; 0.0
138 ; 3344454.8181779906 ; 2.024517712853478E8 ; 4.522491722816191E8 ; 2.6194163876267654E10 ; 0.0
139 ; 3339308.307001579 ; 2.0246514865822232E8 ; 4.5559362709979707E8 ; 2.6396615647553E10 ; 0.0
140 ; 3328001.2505168575 ; 2.0247849917081627E8 ; 4.5893293540679866E8 ; 2.6599080796211224E10 ; 0.0
141 ; 3319470.1651704167 ; 2.0249182230653533E8 ; 4.622609366573155E8 ; 2.680155929538204E10 ; 0.0
142 ; 3305367.911604349 ; 2.0250511755618E8 ; 4.655804068224859E8 ; 2.7004051117688572E10 ; 0.0
143 ; 3304412.2576932935 ; 2.0251838441773617E8 ; 4.6888577473409027E8 ; 2.720655623524475E10 ; 0.0
144 ; 3291060.492150665 ; 2.0253162239617392E8 ; 4.7219018699178356E8 ; 2.7409074619662487E10 ; 0.0
145 ; 3286528.331373713 ; 2.0254483100325364E8 ; 4.754812474839342E8 ; 2.7611606242058662E10 ; 0.0
146 ; 3279089.2645090306 ; 2.0255800975733972E8 ; 4.787677758153079E8 ; 2.7814151073061916E10 ; 0.0
147 ; 3275445.956295317 ; 2.0257115818322125E8 ; 4.8204686507981694E8 ; 2.8016709082819256E10 ; 0.0
148 ; 3268989.3532643295 ; 2.0258427581193936E8 ; 4.8532231103611225E8 ; 2.8219280241002476E10 ; 0.0
149 ; 3264033.037709885 ; 2.0259736218062112E8 ; 4.885913003893766E8 ; 2.8421864516814415E10 ; 0.0
150 ; 3262282.0668327566 ; 2.0261041683231965E8 ; 4.918553334270865E8 ; 2.8624461878995037E10 ; 0.0
151 ; 3254300.285472414 ; 2.026234393158601E8 ; 4.9511761549391925E8 ; 2.882707229582736E10 ; 0.0
152 ; 3250970.0348317814 ; 2.0263642918569136E8 ; 4.9837191577939165E8 ; 2.902969573514322E10 ; 0.0
153 ; 3242913.809390874 ; 2.0264938600174326E8 ; 5.016228858142234E8 ; 2.923233216432891E10 ; 0.0
154 ; 3238351.2318423213 ; 2.0266230932928908E8 ; 5.048657996236143E8 ; 2.9434981550330654E10 ; 0.0
155 ; 3233277.1160821975 ; 2.0267519873881295E8 ; 5.0810415085545665E8 ; 2.9637643859659943E10 ; 0.0
156 ; 3225752.1685161195 ; 2.0268805380588225E8 ; 5.1133742797153884E8 ; 2.9840319058398754E10 ; 0.0
157 ; 3221479.6033196975 ; 2.0270087411102453E8 ; 5.1456318014005494E8 ; 3.0043007112204636E10 ; 0.0
158 ; 3219140.366056081 ; 2.0271365923960894E8 ; 5.1778465974337465E8 ; 3.024570798631566E10 ; 0.0
159 ; 3217046.231164587 ; 2.02726408781732E8 ; 5.2100380010943073E8 ; 3.0448421645555267E10 ; 0.0
160 ; 3209938.5910800747 ; 2.0273912233210734E8 ; 5.242208463405953E8 ; 3.0651148054336998E10 ; 0.0
161 ; 3199354.6389042255 ; 2.027517994899595E8 ; 5.274307849316754E8 ; 3.0853887176669106E10 ; 0.0
162 ; 3197088.2004995756 ; 2.0276443985892162E8 ; 5.306301395705796E8 ; 3.1056638976159065E10 ; 0.0
163 ; 3190193.513569677 ; 2.0277704304693648E8 ; 5.338272277710792E8 ; 3.1259403416017986E10 ; 0.0
164 ; 3186476.1819413225 ; 2.0278960866616136E8 ; 5.370174212846489E8 ; 3.1462180459064922E10 ; 0.0
165 ; 3180846.0951083987 ; 2.028021363328761E8 ; 5.402038974665902E8 ; 3.1664970067731083E10 ; 0.0
166 ; 3177215.2405246063 ; 2.0281462566739443E8 ; 5.433847435616986E8 ; 3.1867772204063957E10 ; 0.0
167 ; 3167586.394590404 ; 2.028270762939785E8 ; 5.465619588022232E8 ; 3.207058682973135E10 ; 0.0
168 ; 3160884.348309546 ; 2.028394878407563E8 ; 5.497295451968136E8 ; 3.227341390602533E10 ; 0.0
169 ; 3155553.758563851 ; 2.0285185993964195E8 ; 5.528904295451231E8 ; 3.2476253393866085E10 ; 0.0
170 ; 3152840.1033833995 ; 2.028641922262589E8 ; 5.56045983303687E8 ; 3.2679105253805725E10 ; 0.0
171 ; 3151684.5594571265 ; 2.0287648433986568E8 ; 5.591988234070704E8 ; 3.2881969446031982E10 ; 0.0
172 ; 3143856.7197977677 ; 2.0288873592328432E8 ; 5.623505079665276E8 ; 3.308484593037185E10 ; 0.0
173 ; 3139839.3874849905 ; 2.0290094662283108E8 ; 5.654943646863253E8 ; 3.328773466629513E10 ; 0.0
174 ; 3134819.9318100167 ; 2.0291311608824974E8 ; 5.686342040738103E8 ; 3.349063561291796E10 ; 0.0
175 ; 3127922.1656005397 ; 2.0292524397264707E8 ; 5.717690240056204E8 ; 3.369354872900621E10 ; 0.0
176 ; 3124932.802803919 ; 2.029373299324306E8 ; 5.748969461712209E8 ; 3.389647397297886E10 ; 0.0
177 ; 3122481.537513026 ; 2.0294937362724832E8 ; 5.780218789740248E8 ; 3.409941130291129E10 ; 0.0
178 ; 3118848.9222261035 ; 2.029613747199308E8 ; 5.811443605115378E8 ; 3.4302360676538536E10 ; 0.0
179 ; 3114350.104762976 ; 2.0297333287643477E8 ; 5.842632094337639E8 ; 3.450532205125847E10 ; 0.0
180 ; 3112140.716861785 ; 2.0298524776578915E8 ; 5.873775595385269E8 ; 3.47082953841349E10 ; 0.0
181 ; 3105282.612017006 ; 2.0299711906004244E8 ; 5.904897002553887E8 ; 3.4911280631900696E10 ; 0.0
182 ; 3105482.0988864442 ; 2.0300894643421218E8 ; 5.935949828674058E8 ; 3.511427775096074E10 ; 0.0
183 ; 3097831.377655773 ; 2.0302072956623596E8 ; 5.967004649662923E8 ; 3.531728669739495E10 ; 0.0
184 ; 3096632.9715586803 ; 2.030324681369242E8 ; 5.99798296343948E8 ; 3.552030742696119E10 ; 0.0
185 ; 3088835.2200383525 ; 2.0304416182991433E8 ; 6.028949293155067E8 ; 3.5723339895098114E10 ; 0.0
186 ; 3088306.188996204 ; 2.0305581033162668E8 ; 6.05983764535545E8 ; 3.592638405692803E10 ; 0.0
187 ; 3085379.332144782 ; 2.030674133312217E8 ; 6.090720707245412E8 ; 3.612943986725966E10 ; 0.0
188 ; 3081305.951073978 ; 2.030789705205587E8 ; 6.121574500566859E8 ; 3.633250728059088E10 ; 0.0
189 ; 3075838.701450887 ; 2.0309048159415597E8 ; 6.152387560077599E8 ; 3.653558625111144E10 ; 0.0
190 ; 3072856.2889685896 ; 2.0310194624915203E8 ; 6.183145947092109E8 ; 3.67386767327056E10 ; 0.0
191 ; 3069283.4813297656 ; 2.0311336418526843E8 ; 6.213874509981794E8 ; 3.694177867895475E10 ; 0.0
192 ; 3062953.4308018526 ; 2.0312473510477355E8 ; 6.244567344795092E8 ; 3.714489204314002E10 ; 0.0
193 ; 3060238.897046413 ; 2.0313605871244776E8 ; 6.275196879103111E8 ; 3.73480167782448E10 ; 0.0
194 ; 3058303.41693846 ; 2.0314733471554962E8 ; 6.305799268073575E8 ; 3.7551152836957245E10 ; 0.0
195 ; 3053628.4619997204 ; 2.0315856282378325E8 ; 6.33638230224296E8 ; 3.77543001716728E10 ; 0.0
196 ; 3051176.493794206 ; 2.0316974274926662E8 ; 6.366918586862957E8 ; 3.795745873449658E10 ; 0.0
197 ; 3040713.3553083846 ; 2.031808742065012E8 ; 6.3974303518009E8 ; 3.816062847724585E10 ; 0.0
198 ; 3038790.9521253416 ; 2.0319195691234213E8 ; 6.427837485353984E8 ; 3.8363809351452354E10 ; 0.0
199 ; 3036479.062841887 ; 2.0320299058596992E8 ; 6.458225394875237E8 ; 3.85670013083647E10 ; 0.0
200 ; 3031887.2129765293 ; 2.015180506495679E8 ; 6.488590185503656E8 ; 3.877020429895067E10 ; 0.0
