CSV File for the City 4 on Day 361
1 - Minute m 
2 - Power Consumed at minute m 
3 - Power Produced at minute m 
4 - Energy Consumed since the beginning of the day 
5 - Energy Produced since the beginning of the day 
6 - Energy Lost since the beginning of the day on lines starting from the city
 
0 ; 6813152.90598758 ; 1.0592756512891081E8 ; 0.0 ; 0.0 ; 0.0
1 ; 6821099.57009662 ; 1.0607780042652667E8 ; 6813152.90598758 ; 1.0592756512891081E8 ; 0.0
2 ; 6828993.585835176 ; 1.0653708827475026E8 ; 1.36342524760842E7 ; 2.1200536555543748E8 ; 0.0
3 ; 6836217.70677322 ; 1.0730543494942307E8 ; 2.0463246061919376E7 ; 3.1854245383018774E8 ; 0.0
4 ; 6846789.025158023 ; 1.0838284611590892E8 ; 2.7299463768692598E7 ; 4.258478887796108E8 ; 0.0
5 ; 6857870.602575729 ; 1.0976932678413314E8 ; 3.414625279385062E7 ; 5.3423073489551973E8 ; 0.0
6 ; 6875894.760769824 ; 1.1146488126769564E8 ; 4.100412339642635E7 ; 6.440000616796529E8 ; 0.0
7 ; 6897233.117274379 ; 1.1346951314781362E8 ; 4.788001815719617E7 ; 7.554649429473486E8 ; 0.0
8 ; 6931054.402111465 ; 1.1578322524278253E8 ; 5.477725127447055E7 ; 8.689344560951622E8 ; 0.0
9 ; 6983646.425144797 ; 1.184060195835554E8 ; 6.1708305676582016E7 ; 9.847176813379447E8 ; 0.0
10 ; 7055195.322658268 ; 1.2133789739593315E8 ; 6.869195210172682E7 ; 1.1031237009215002E9 ; 0.0
11 ; 7180158.807102385 ; 1.2457885908972827E8 ; 7.574714742438509E7 ; 1.2244615983174334E9 ; 0.0
12 ; 7377824.819180534 ; 1.2812890425512823E8 ; 8.292730623148747E7 ; 1.3490404574071617E9 ; 0.0
13 ; 7569348.114097608 ; 1.3198803166633213E8 ; 9.0305131050668E7 ; 1.4771693616622899E9 ; 0.0
14 ; 7594334.922116405 ; 1.36156239292387E8 ; 9.787447916476561E7 ; 1.6091573933286219E9 ; 0.0
15 ; 7600695.391550188 ; 1.4063352431499732E8 ; 1.0546881408688201E8 ; 1.7453136326210089E9 ; 0.0
16 ; 7609959.216430041 ; 1.4541988315294597E8 ; 1.130695094784322E8 ; 1.885947156936006E9 ; 0.0
17 ; 7618268.039141744 ; 1.5051531149263296E8 ; 1.2067946869486223E8 ; 2.031367040088952E9 ; 0.0
18 ; 7625637.668380598 ; 1.5591980432413298E8 ; 1.2829773673400398E8 ; 2.181882351581585E9 ; 0.0
19 ; 7634747.833636735 ; 1.6163335598208222E8 ; 1.3592337440238458E8 ; 2.337802155905718E9 ; 0.0
20 ; 7644622.715533476 ; 1.6765596019063917E8 ; 1.435581222360213E8 ; 2.4994355118878E9 ; 0.0
21 ; 7653178.943783995 ; 1.739876101117246E8 ; 1.5120274495155478E8 ; 2.667091472078439E9 ; 0.0
22 ; 7663041.167648213 ; 1.8062829839572555E8 ; 1.5885592389533877E8 ; 2.8410790821901636E9 ; 0.0
23 ; 7669438.040641936 ; 1.8757801723385614E8 ; 1.66518965062987E8 ; 3.0217073805858893E9 ; 0.0
24 ; 7681455.772371953 ; 1.9483675841139E8 ; 1.7418840310362893E8 ; 3.2092853978197455E9 ; 0.0
25 ; 7689813.677680271 ; 2.0109255425921088E8 ; 1.8186985887600088E8 ; 3.4041221562311354E9 ; 0.0
26 ; 7696145.155635453 ; 2.0109894374352658E8 ; 1.8955967255368116E8 ; 3.6052147104903464E9 ; 0.0
27 ; 7705729.422419429 ; 2.0110568704243165E8 ; 1.972558177093166E8 ; 3.806313654233873E9 ; 0.0
28 ; 7714509.1364661325 ; 2.0111277484264457E8 ; 2.0496154713173604E8 ; 4.0074193412763047E9 ; 0.0
29 ; 7722688.790052222 ; 2.0112019768057135E8 ; 2.126760562682022E8 ; 4.2085321161189494E9 ; 0.0
30 ; 7731691.098430813 ; 2.0112794598760745E8 ; 2.2039874505825442E8 ; 4.4096523137995205E9 ; 0.0
31 ; 7740622.619501016 ; 2.0113601013263497E8 ; 2.2813043615668523E8 ; 4.6107802597871275E9 ; 0.0
32 ; 7747624.3593525095 ; 2.011443804615053E8 ; 2.3587105877618626E8 ; 4.811916269919763E9 ; 0.0
33 ; 7753672.529026994 ; 2.0115304733336997E8 ; 2.4361868313553876E8 ; 5.013060650381268E9 ; 0.0
34 ; 7764700.601144879 ; 2.0116200115378824E8 ; 2.5137235566456574E8 ; 5.214213697714638E9 ; 0.0
35 ; 7769055.528930586 ; 2.011712324045988E8 ; 2.5913705626571062E8 ; 5.415375698868426E9 ; 0.0
36 ; 7776049.685204664 ; 2.0118073167059356E8 ; 2.669061117946412E8 ; 5.6165469312730255E9 ; 0.0
37 ; 7784206.275016257 ; 2.01190489663074E8 ; 2.746821614798459E8 ; 5.817727662943619E9 ; 0.0
38 ; 7789370.367376909 ; 2.0120049724040553E8 ; 2.824663677548621E8 ; 6.018918152606692E9 ; 0.0
39 ; 7794851.863669178 ; 2.012107454257125E8 ; 2.9025573812223905E8 ; 6.220118649847097E9 ; 0.0
40 ; 7803272.818709311 ; 2.0122122542187676E8 ; 2.980505899859082E8 ; 6.42132939527281E9 ; 0.0
41 ; 7807782.007297951 ; 2.0123192862401772E8 ; 3.058538628046175E8 ; 6.622550620694687E9 ; 0.0
42 ; 7814799.2417249745 ; 2.012428466296397E8 ; 3.1366164481191546E8 ; 6.823782549318705E9 ; 0.0
43 ; 7821141.948893276 ; 2.0125397124663758E8 ; 3.214764440536404E8 ; 7.025025395948344E9 ; 0.0
44 ; 7824376.516129439 ; 2.0126529449935105E8 ; 3.292975860025337E8 ; 7.226279367194982E9 ; 0.0
45 ; 7826751.072895796 ; 2.0127680863285506E8 ; 3.371219625186631E8 ; 7.427544661694333E9 ; 0.0
46 ; 7831503.50965112 ; 2.0128850611566874E8 ; 3.4494871359155893E8 ; 7.6288214703271885E9 ; 0.0
47 ; 7832594.908132193 ; 2.013003796410569E8 ; 3.5278021710121006E8 ; 7.830109976442857E9 ; 0.0
48 ; 7836092.715069953 ; 2.013124221270892E8 ; 3.6061281200934225E8 ; 8.031410356083914E9 ; 0.0
49 ; 7839787.610379878 ; 2.013246267156123E8 ; 3.684489047244122E8 ; 8.232722778211003E9 ; 0.0
50 ; 7845676.0165582625 ; 2.0133698677027893E8 ; 3.762886923347921E8 ; 8.434047404926616E9 ; 0.0
51 ; 7846388.221917778 ; 2.0134949587376717E8 ; 3.8413436835135037E8 ; 8.635384391696896E9 ; 0.0
52 ; 7845716.861501108 ; 2.0136214782431197E8 ; 3.919807565732682E8 ; 8.836733887570663E9 ; 0.0
53 ; 7849945.025151254 ; 2.0137493663165992E8 ; 3.998264734347693E8 ; 9.038096035394976E9 ; 0.0
54 ; 7851654.969051962 ; 2.013878565125476E8 ; 4.076764184599205E8 ; 9.239470972026636E9 ; 0.0
55 ; 7854313.359709383 ; 2.0140090188579378E8 ; 4.155280734289725E8 ; 9.440858828539185E9 ; 0.0
56 ; 7857088.890439069 ; 2.0141406736708608E8 ; 4.2338238678868186E8 ; 9.642259730424978E9 ; 0.0
57 ; 7859069.9292539535 ; 2.014273477635336E8 ; 4.3123947567912096E8 ; 9.843673797792065E9 ; 0.0
58 ; 7862723.129648729 ; 2.0144073806804863E8 ; 4.390985456083749E8 ; 1.00451011455556E10 ; 0.0
59 ; 7862219.45402375 ; 2.014542334536128E8 ; 4.4696126873802364E8 ; 1.0246541883623648E10 ; 0.0
60 ; 7862121.425546714 ; 2.0146782926747602E8 ; 4.548234881920474E8 ; 1.0447996117077261E10 ; 0.0
61 ; 7863881.523193902 ; 2.0148152102532965E8 ; 4.626856096175941E8 ; 1.0649463946344736E10 ; 0.0
62 ; 7864577.858609812 ; 2.0149530440549052E8 ; 4.70549491140788E8 ; 1.0850945467370066E10 ; 0.0
63 ; 7868301.656172948 ; 2.0150917524312535E8 ; 4.784140689993978E8 ; 1.1052440771775557E10 ; 0.0
64 ; 7870749.29129746 ; 2.0152312952454248E8 ; 4.8628237065557075E8 ; 1.1253949947018682E10 ; 0.0
65 ; 7872334.232720509 ; 2.0153716338157186E8 ; 4.941531199468682E8 ; 1.1455473076543224E10 ; 0.0
66 ; 7874869.806242463 ; 2.015512730860514E8 ; 5.020254541795887E8 ; 1.1657010239924797E10 ; 0.0
67 ; 7873220.671771411 ; 2.015654550444342E8 ; 5.0990032398583114E8 ; 1.1858561513010849E10 ; 0.0
68 ; 7876792.596760066 ; 2.0157970579252818E8 ; 5.1777354465760255E8 ; 1.2060126968055283E10 ; 0.0
69 ; 7879084.4266711185 ; 2.015940219903774E8 ; 5.2565033725436264E8 ; 1.226170667384781E10 ; 0.0
70 ; 7877231.9839542 ; 2.0160840041729173E8 ; 5.335294216810338E8 ; 1.2463300695838188E10 ; 0.0
71 ; 7876544.057932083 ; 2.016228379670295E8 ; 5.41406653664988E8 ; 1.266490909625548E10 ; 0.0
72 ; 7878928.158288155 ; 2.01637331643137E8 ; 5.492831977229202E8 ; 1.286653193422251E10 ; 0.0
73 ; 7879245.367790243 ; 2.0165187855444577E8 ; 5.571621258812083E8 ; 1.3068169265865646E10 ; 0.0
74 ; 7881933.650825256 ; 2.01666475910729E8 ; 5.650413712489985E8 ; 1.3269821144420092E10 ; 0.0
75 ; 7877432.3715608455 ; 2.016811210185159E8 ; 5.729233048998238E8 ; 1.347148762033082E10 ; 0.0
76 ; 7882575.717977958 ; 2.0169581127706343E8 ; 5.808007372713846E8 ; 1.3673168741349337E10 ; 0.0
77 ; 7881557.26445117 ; 2.0171054417448223E8 ; 5.886833129893626E8 ; 1.38748645526264E10 ; 0.0
78 ; 7880913.548362405 ; 2.0172531728401527E8 ; 5.965648702538137E8 ; 1.4076575096800882E10 ; 0.0
79 ; 7875440.553961106 ; 2.0174012826046515E8 ; 6.044457838021761E8 ; 1.4278300414084898E10 ; 0.0
80 ; 7876015.756810733 ; 2.01754974836767E8 ; 6.123212243561373E8 ; 1.4480040542345364E10 ; 0.0
81 ; 7873397.700784366 ; 2.0176985482070273E8 ; 6.201972401129481E8 ; 1.468179551718213E10 ; 0.0
82 ; 7872578.79672124 ; 2.0178476609175304E8 ; 6.280706378137324E8 ; 1.4883565372002834E10 ; 0.0
83 ; 7870090.966326952 ; 2.0179970659808242E8 ; 6.359432166104536E8 ; 1.5085350138094587E10 ; 0.0
84 ; 7866907.982314729 ; 2.018146743536532E8 ; 6.438133075767806E8 ; 1.5287149844692669E10 ; 0.0
85 ; 7864645.249157443 ; 2.0182966743546364E8 ; 6.516802155590953E8 ; 1.5488964519046322E10 ; 0.0
86 ; 7863153.546713631 ; 2.0184468398090655E8 ; 6.595448608082527E8 ; 1.5690794186481785E10 ; 0.0
87 ; 7861334.522573858 ; 2.0185972218524286E8 ; 6.674080143549663E8 ; 1.5892638870462692E10 ; 0.0
88 ; 7856070.848177909 ; 2.0187478029918656E8 ; 6.752693488775401E8 ; 1.6094498592647936E10 ; 0.0
89 ; 7853542.601380235 ; 2.0188985662659615E8 ; 6.83125419725718E8 ; 1.6296373372947123E10 ; 0.0
90 ; 7851163.263946053 ; 2.0190494952226868E8 ; 6.909789623270983E8 ; 1.6498263229573719E10 ; 0.0
91 ; 7849939.396257056 ; 2.019200573898317E8 ; 6.988301255910443E8 ; 1.6700168179095987E10 ; 0.0
92 ; 7847126.751894171 ; 2.0193517867972946E8 ; 7.066800649873013E8 ; 1.6902088236485819E10 ; 0.0
93 ; 7840912.088631302 ; 2.0195031188729915E8 ; 7.145271917391955E8 ; 1.7104023415165548E10 ; 0.0
94 ; 7840199.303237567 ; 2.019654555509332E8 ; 7.223681038278267E8 ; 1.730597372705285E10 ; 0.0
95 ; 7835551.812189474 ; 2.0198060825032416E8 ; 7.302083031310643E8 ; 1.7507939182603783E10 ; 0.0
96 ; 7835598.829109009 ; 2.0199576860478818E8 ; 7.380438549432538E8 ; 1.7709919790854107E10 ; 0.0
97 ; 7832284.988140918 ; 2.0201093527166387E8 ; 7.458794537723627E8 ; 1.7911915559458897E10 ; 0.0
98 ; 7829510.209027698 ; 2.02026106944783E8 ; 7.537117387605036E8 ; 1.811392649473056E10 ; 0.0
99 ; 7824392.460268 ; 2.0204128235300982E8 ; 7.615412489695313E8 ; 1.8315952601675343E10 ; 0.0
100 ; 7821267.550786896 ; 2.0205646025884598E8 ; 7.693656414297993E8 ; 1.851799388402835E10 ; 0.0
101 ; 7818280.547410937 ; 2.0207163945709783E8 ; 7.771869089805862E8 ; 1.8720050344287197E10 ; 0.0
102 ; 7814242.965224916 ; 2.0208681877360344E8 ; 7.850051895279971E8 ; 1.8922121983744293E10 ; 0.0
103 ; 7809896.105037879 ; 2.021019970640165E8 ; 7.92819432493222E8 ; 1.91242088025179E10 ; 0.0
104 ; 7802824.609009698 ; 2.0211717321264446E8 ; 8.006293285982599E8 ; 1.9326310799581917E10 ; 0.0
105 ; 7803369.1890049055 ; 2.0213234613133842E8 ; 8.084321532072697E8 ; 1.952842797279456E10 ; 0.0
106 ; 7798872.192426658 ; 2.0214751475843227E8 ; 8.162355223962746E8 ; 1.97305603189259E10 ; 0.0
107 ; 7795686.992650985 ; 2.0216267805772895E8 ; 8.240343945887012E8 ; 1.993270783368433E10 ; 0.0
108 ; 7788624.856111336 ; 2.0217783501753154E8 ; 8.318300815813522E8 ; 2.0134870511742058E10 ; 0.0
109 ; 7786622.886524929 ; 2.021929846497171E8 ; 8.396187064374635E8 ; 2.033704834675959E10 ; 0.0
110 ; 7781170.076130352 ; 2.022081259888511E8 ; 8.474053293239884E8 ; 2.0539241331409306E10 ; 0.0
111 ; 7777707.688475024 ; 2.0222325809134087E8 ; 8.551864994001188E8 ; 2.0741449457398155E10 ; 0.0
112 ; 7775362.347255978 ; 2.0223838003462607E8 ; 8.629642070885938E8 ; 2.0943672715489494E10 ; 0.0
113 ; 7768829.2403895175 ; 2.022534909164043E8 ; 8.707395694358498E8 ; 2.114591109552412E10 ; 0.0
114 ; 7764697.5891936375 ; 2.0226858985389054E8 ; 8.785083986762393E8 ; 2.1348164586440525E10 ; 0.0
115 ; 7760345.011358307 ; 2.022836759831085E8 ; 8.862730962654328E8 ; 2.1550433176294415E10 ; 0.0
116 ; 7755315.813604381 ; 2.0229874845821276E8 ; 8.940334412767911E8 ; 2.1752716852277523E10 ; 0.0
117 ; 7750763.304071047 ; 2.0231380645083988E8 ; 9.017887570903955E8 ; 2.1955015600735737E10 ; 0.0
118 ; 7743898.353592787 ; 2.023288491494875E8 ; 9.095395203944665E8 ; 2.2157329407186577E10 ; 0.0
119 ; 7739011.760235374 ; 2.0234387575891975E8 ; 9.172834187480593E8 ; 2.2359658256336063E10 ; 0.0
120 ; 7737298.177709461 ; 2.0235888549959818E8 ; 9.250224305082947E8 ; 2.2562002132094982E10 ; 0.0
121 ; 7731917.751846461 ; 2.023738776071367E8 ; 9.327597286860042E8 ; 2.276436101759458E10 ; 0.0
122 ; 7725280.26636322 ; 2.0238885133177957E8 ; 9.404916464378506E8 ; 2.2966734895201717E10 ; 0.0
123 ; 7720947.960947904 ; 2.0240380593790135E8 ; 9.482169267042139E8 ; 2.3169123746533497E10 ; 0.0
124 ; 7715011.002042871 ; 2.024187407035278E8 ; 9.559378746651617E8 ; 2.3371527552471397E10 ; 0.0
125 ; 7709305.503810377 ; 2.024336549198769E8 ; 9.636528856672046E8 ; 2.3573946293174927E10 ; 0.0
126 ; 7705340.798341763 ; 2.0244854789091864E8 ; 9.71362191171015E8 ; 2.3776379948094803E10 ; 0.0
127 ; 7701523.391560776 ; 2.0246341893295348E8 ; 9.790675319693568E8 ; 2.397882849598572E10 ; 0.0
128 ; 7693784.043969648 ; 2.0247826737420797E8 ; 9.867690553609176E8 ; 2.4181291914918674E10 ; 0.0
129 ; 7688967.458854841 ; 2.0249309255444682E8 ; 9.944628394048872E8 ; 2.438377018229288E10 ; 0.0
130 ; 7682615.510480762 ; 2.0250789382460123E8 ; 1.002151806863742E9 ; 2.458626327484733E10 ; 0.0
131 ; 7673612.748452962 ; 2.0252267054641214E8 ; 1.0098344223742228E9 ; 2.478877116867193E10 ; 0.0
132 ; 7668118.656706268 ; 2.0253742209208786E8 ; 1.0175080351226758E9 ; 2.499129383921834E10 ; 0.0
133 ; 7658474.515226933 ; 2.0255214784397593E8 ; 1.025176153779382E9 ; 2.519383126131043E10 ; 0.0
134 ; 7650161.971774993 ; 2.0256684719424763E8 ; 1.032834628294609E9 ; 2.5396383409154404E10 ; 0.0
135 ; 7641560.702018979 ; 2.0258151954459584E8 ; 1.0404847902663839E9 ; 2.559895025634865E10 ; 0.0
136 ; 7633503.91415954 ; 2.0259616430594423E8 ; 1.0481263509684029E9 ; 2.580153177589325E10 ; 0.0
137 ; 7625560.448548265 ; 2.026107808981686E8 ; 1.0557598548825624E9 ; 2.6004127940199192E10 ; 0.0
138 ; 7616484.901483237 ; 2.0262536874982902E8 ; 1.0633854153311107E9 ; 2.6206738721097363E10 ; 0.0
139 ; 7607626.981492359 ; 2.0263992729791248E8 ; 1.0710019002325939E9 ; 2.640936408984719E10 ; 0.0
140 ; 7598181.477482848 ; 2.026544559875858E8 ; 1.0786095272140863E9 ; 2.6612004017145103E10 ; 0.0
141 ; 7591558.604648813 ; 2.026689542719581E8 ; 1.086207708691569E9 ; 2.681465847313269E10 ; 0.0
142 ; 7580931.996514828 ; 2.0268342161185268E8 ; 1.093799267296218E9 ; 2.7017327427404648E10 ; 0.0
143 ; 7570911.514245761 ; 2.0269785747558743E8 ; 1.1013801992927327E9 ; 2.7220010849016502E10 ; 0.0
144 ; 7564282.356698106 ; 2.0271226133876425E8 ; 1.1089511108069785E9 ; 2.742270870649209E10 ; 0.0
145 ; 7561763.337345153 ; 2.0272663268406606E8 ; 1.1165153931636765E9 ; 2.7625420967830853E10 ; 0.0
146 ; 7550797.437857229 ; 2.0274097100106195E8 ; 1.1240771565010216E9 ; 2.782814760051492E10 ; 0.0
147 ; 7548351.465716868 ; 2.0275527578601953E8 ; 1.1316279539388788E9 ; 2.803088857151598E10 ; 0.0
148 ; 7540912.552980899 ; 2.0276954654172474E8 ; 1.1391763054045956E9 ; 2.8233643847302E10 ; 0.0
149 ; 7534050.009224088 ; 2.0278378277730808E8 ; 1.1467172179575765E9 ; 2.8436413393843723E10 ; 0.0
150 ; 7527949.937198343 ; 2.0279798400807774E8 ; 1.1542512679668007E9 ; 2.8639197176621033E10 ; 0.0
151 ; 7522554.795788784 ; 2.0281214975535884E8 ; 1.161779217903999E9 ; 2.8841995160629112E10 ; 0.0
152 ; 7514953.162010303 ; 2.0282627954633883E8 ; 1.1693017726997879E9 ; 2.904480731038447E10 ; 0.0
153 ; 7508679.093395814 ; 2.0284037291391847E8 ; 1.176816725861798E9 ; 2.924763358993081E10 ; 0.0
154 ; 7502392.261746652 ; 2.0285442939656845E8 ; 1.1843254049551938E9 ; 2.9450473962844727E10 ; 0.0
155 ; 7496345.610182134 ; 2.0286844853819147E8 ; 1.1918277972169404E9 ; 2.9653328392241295E10 ; 0.0
156 ; 7489403.001326662 ; 2.0288242988798916E8 ; 1.1993241428271224E9 ; 2.9856196840779488E10 ; 0.0
157 ; 7480686.695312523 ; 2.02896373000334E8 ; 1.206813545828449E9 ; 3.0059079270667477E10 ; 0.0
158 ; 7477208.011512675 ; 2.02910277434646E8 ; 1.2142942325237615E9 ; 3.0261975643667812E10 ; 0.0
159 ; 7469251.236243318 ; 2.0292414275527385E8 ; 1.2217714405352743E9 ; 3.046488592110246E10 ; 0.0
160 ; 7463030.901434777 ; 2.0293796853138027E8 ; 1.2292406917715175E9 ; 3.0667810063857735E10 ; 0.0
161 ; 7457640.871142338 ; 2.0295175433683172E8 ; 1.2367037226729522E9 ; 3.0870748032389114E10 ; 0.0
162 ; 7447501.704559461 ; 2.02965499750092E8 ; 1.2441613635440946E9 ; 3.1073699786725945E10 ; 0.0
163 ; 7441842.70003418 ; 2.029792043541196E8 ; 1.2516088652486541E9 ; 3.1276665286476036E10 ; 0.0
164 ; 7439381.400943906 ; 2.0299286773626888E8 ; 1.2590507079486883E9 ; 3.1479644490830154E10 ; 0.0
165 ; 7432553.207424452 ; 2.0300648948819467E8 ; 1.2664900893496323E9 ; 3.168263735856642E10 ; 0.0
166 ; 7425174.5698321415 ; 2.0302006920576042E8 ; 1.2739226425570567E9 ; 3.1885643848054615E10 ; 0.0
167 ; 7416813.64907757 ; 2.0303360648894936E8 ; 1.2813478171268888E9 ; 3.2088663917260376E10 ; 0.0
168 ; 7410208.746133545 ; 2.0304710094177914E8 ; 1.2887646307759664E9 ; 3.2291697523749325E10 ; 0.0
169 ; 7401451.221049965 ; 2.0306055217221916E8 ; 1.2961748395221E9 ; 3.2494744624691105E10 ; 0.0
170 ; 7396519.5533474535 ; 2.0307395979211104E8 ; 1.30357629074315E9 ; 3.2697805176863323E10 ; 0.0
171 ; 7388042.962349101 ; 2.0308732341709182E8 ; 1.3109728102964973E9 ; 3.2900879136655434E10 ; 0.0
172 ; 7383958.459750247 ; 2.0310064266651964E8 ; 1.3183608532588465E9 ; 3.3103966460072525E10 ; 0.0
173 ; 7373477.838228244 ; 2.0311391716340253E8 ; 1.3257448117185967E9 ; 3.3307067102739044E10 ; 0.0
174 ; 7372626.203096521 ; 2.0312714653432906E8 ; 1.333118289556825E9 ; 3.3510181019902447E10 ; 0.0
175 ; 7366671.495995192 ; 2.031403304094017E8 ; 1.3404909157599216E9 ; 3.3713308166436775E10 ; 0.0
176 ; 7361148.589823616 ; 2.0315346842217278E8 ; 1.3478575872559168E9 ; 3.3916448496846176E10 ; 0.0
177 ; 7359810.744943596 ; 2.0316656020958185E8 ; 1.3552187358457406E9 ; 3.411960196526835E10 ; 0.0
178 ; 7354245.829386265 ; 2.0317960541189614E8 ; 1.3625785465906842E9 ; 3.4322768525477932E10 ; 0.0
179 ; 7348872.135910076 ; 2.0319260367265233E8 ; 1.3699327924200704E9 ; 3.452594813088983E10 ; 0.0
180 ; 7345909.248370081 ; 2.0320555463860074E8 ; 1.3772816645559804E9 ; 3.4729140734562485E10 ; 0.0
181 ; 7341429.897237214 ; 2.032184579596512E8 ; 1.3846275738043506E9 ; 3.493234628920109E10 ; 0.0
182 ; 7338115.44428633 ; 2.0323131328882092E8 ; 1.391969003701588E9 ; 3.5135564747160736E10 ; 0.0
183 ; 7335350.672877853 ; 2.03244120282184E8 ; 1.3993071191458743E9 ; 3.5338796060449554E10 ; 0.0
184 ; 7329181.273576991 ; 2.032568785988227E8 ; 1.406642469818752E9 ; 3.5542040180731735E10 ; 0.0
185 ; 7324257.357711902 ; 2.0326958790078044E8 ; 1.413971651092329E9 ; 3.574529705933056E10 ; 0.0
186 ; 7318920.496098979 ; 2.032822478530162E8 ; 1.4212959084500408E9 ; 3.594856664723134E10 ; 0.0
187 ; 7317860.114656777 ; 2.0329485812336066E8 ; 1.4286148289461398E9 ; 3.615184889508436E10 ; 0.0
188 ; 7312995.468740622 ; 2.0330741838247365E8 ; 1.4359326890607965E9 ; 3.635514375320772E10 ; 0.0
189 ; 7306738.278783591 ; 2.0331992830380315E8 ; 1.4432456845295372E9 ; 3.6558451171590195E10 ; 0.0
190 ; 7304280.617354293 ; 2.0333238756354555E8 ; 1.4505524228083208E9 ; 3.6761771099894E10 ; 0.0
191 ; 7299909.849210716 ; 2.0334479584060743E8 ; 1.4578567034256752E9 ; 3.696510348745754E10 ; 0.0
192 ; 7293061.329102627 ; 2.0335715281656826E8 ; 1.465156613274886E9 ; 3.716844828329815E10 ; 0.0
193 ; 7291326.175329254 ; 2.0336945817564473E8 ; 1.4724496746039884E9 ; 3.7371805436114716E10 ; 0.0
194 ; 7288464.186401236 ; 2.0338171160465604E8 ; 1.4797410007793176E9 ; 3.757517489429036E10 ; 0.0
195 ; 7283254.285853253 ; 2.0339391279299045E8 ; 1.4870294649657187E9 ; 3.777855660589501E10 ; 0.0
196 ; 7277987.380396826 ; 2.0340606143257272E8 ; 1.494312719251572E9 ; 3.7981950518688E10 ; 0.0
197 ; 7273530.625392555 ; 2.0341815721783304E8 ; 1.5015907066319687E9 ; 3.8185356580120575E10 ; 0.0
198 ; 7269883.485948385 ; 2.0343019984567654E8 ; 1.5088642372573612E9 ; 3.838877473733841E10 ; 0.0
199 ; 7265787.778410895 ; 2.0344218901545405E8 ; 1.5161341207433095E9 ; 3.859220493718409E10 ; 0.0
200 ; 7262026.828762854 ; 1.9753987428376153E8 ; 1.5233999085217204E9 ; 3.879564712619955E10 ; 0.0
