CSV File for the City 2 on Day 19
1 - Minute m 
2 - Power Consumed at minute m 
3 - Power Produced at minute m 
4 - Energy Consumed since the beginning of the day 
5 - Energy Produced since the beginning of the day 
6 - Energy Lost since the beginning of the day on lines starting from the city
 
0 ; 1.0282976137438383E7 ; 1.2210493257893037E7 ; 0.0 ; 0.0 ; 0.0
1 ; 1.029145009449471E7 ; 1.2210493257893037E7 ; 1.0282976137438383E7 ; 1.2210493257893037E7 ; 0.0
2 ; 1.030582535006047E7 ; 1.2210493257893037E7 ; 2.0574426231933095E7 ; 2.4420986515786074E7 ; 0.0
3 ; 1.0319931365456797E7 ; 1.2210493257893037E7 ; 3.0880251581993565E7 ; 3.663147977367911E7 ; 0.0
4 ; 1.0330163601439249E7 ; 1.2210493257893037E7 ; 4.120018294745036E7 ; 4.884197303157215E7 ; 0.0
5 ; 1.035446279283652E7 ; 1.2210493257893037E7 ; 5.153034654888961E7 ; 6.105246628946519E7 ; 0.0
6 ; 1.0376939071086504E7 ; 1.2210493257893037E7 ; 6.1884809341726124E7 ; 7.326295954735823E7 ; 0.0
7 ; 1.0412664089917323E7 ; 1.2210493257893037E7 ; 7.226174841281262E7 ; 8.547345280525127E7 ; 0.0
8 ; 1.0464186985182503E7 ; 1.2210493257893037E7 ; 8.267441250272994E7 ; 9.768394606314431E7 ; 0.0
9 ; 1.0537850681837171E7 ; 1.2210493257893037E7 ; 9.313859948791245E7 ; 1.0989443932103735E8 ; 0.0
10 ; 1.0654766963113237E7 ; 1.2210493257893037E7 ; 1.0367645016974962E8 ; 1.221049325789304E8 ; 0.0
11 ; 1.083800612063631E7 ; 1.2210493257893037E7 ; 1.1433121713286285E8 ; 1.3431542583682343E8 ; 0.0
12 ; 1.1141504741161946E7 ; 1.2210493257893037E7 ; 1.2516922325349917E8 ; 1.4652591909471646E8 ; 0.0
13 ; 1.1427588816898124E7 ; 1.2210493257893037E7 ; 1.3631072799466112E8 ; 1.587364123526095E8 ; 0.0
14 ; 1.1465833058791554E7 ; 1.2210493257893037E7 ; 1.4773831681155926E8 ; 1.709469056105025E8 ; 0.0
15 ; 1.1479317991188789E7 ; 1.2210493257893037E7 ; 1.592041498703508E8 ; 1.8315739886839554E8 ; 0.0
16 ; 1.149314165935539E7 ; 1.2210493257893037E7 ; 1.706834678615396E8 ; 1.9536789212628856E8 ; 0.0
17 ; 1.1504404459690865E7 ; 1.2210493257893037E7 ; 1.82176609520895E8 ; 2.075783853841816E8 ; 0.0
18 ; 1.1518035829309758E7 ; 1.2210493257893037E7 ; 1.9368101398058587E8 ; 2.197888786420746E8 ; 0.0
19 ; 1.1531152395655787E7 ; 1.2210493257893037E7 ; 2.0519904980989563E8 ; 2.3199937189996764E8 ; 0.0
20 ; 1.1545041318109065E7 ; 1.2210493257893037E7 ; 2.1673020220555142E8 ; 2.4420986515786067E8 ; 0.0
21 ; 1.155777986126037E7 ; 1.2210493257893037E7 ; 2.2827524352366048E8 ; 2.564203584157537E8 ; 0.0
22 ; 1.1571697744739287E7 ; 1.2210493257893037E7 ; 2.3983302338492084E8 ; 2.6863085167364675E8 ; 0.0
23 ; 1.158539316193452E7 ; 1.2210493257893037E7 ; 2.5140472112966013E8 ; 2.808413449315398E8 ; 0.0
24 ; 1.1598579384142421E7 ; 1.2210493257893037E7 ; 2.6299011429159465E8 ; 2.930518381894328E8 ; 0.0
25 ; 1.1610703091458099E7 ; 1.2210493257893037E7 ; 2.745886936757371E8 ; 3.052623314473258E8 ; 0.0
26 ; 1.1623564895093648E7 ; 1.2210493257893037E7 ; 2.8619939676719517E8 ; 3.1747282470521885E8 ; 0.0
27 ; 1.1638323573008973E7 ; 1.2210493257893037E7 ; 2.978229616622888E8 ; 3.296833179631119E8 ; 0.0
28 ; 1.1651065753626253E7 ; 1.2210493257893037E7 ; 3.0946128523529774E8 ; 3.418938112210049E8 ; 0.0
29 ; 1.166246014888908E7 ; 1.2210493257893037E7 ; 3.2111235098892397E8 ; 3.541043044788979E8 ; 0.0
30 ; 1.1676486515914775E7 ; 1.2210493257893037E7 ; 3.3277481113781303E8 ; 3.6631479773679096E8 ; 0.0
31 ; 1.1690886609532585E7 ; 1.2210493257893037E7 ; 3.444512976537278E8 ; 3.78525290994684E8 ; 0.0
32 ; 1.1700993344976313E7 ; 1.2210493257893037E7 ; 3.561421842632604E8 ; 3.90735784252577E8 ; 0.0
33 ; 1.1711525535819408E7 ; 1.2210493257893037E7 ; 3.6784317760823673E8 ; 4.0294627751047003E8 ; 0.0
34 ; 1.1723617402231641E7 ; 1.2210493257893037E7 ; 3.7955470314405614E8 ; 4.1515677076836306E8 ; 0.0
35 ; 1.1735071676340196E7 ; 1.2210493257893037E7 ; 3.912783205462878E8 ; 4.273672640262561E8 ; 0.0
36 ; 1.1745402558698138E7 ; 1.2210493257893037E7 ; 4.03013392222628E8 ; 4.395777572841491E8 ; 0.0
37 ; 1.175448759499859E7 ; 1.2210493257893037E7 ; 4.147587947813261E8 ; 4.5178825054204214E8 ; 0.0
38 ; 1.1763827928386083E7 ; 1.2210493257893037E7 ; 4.265132823763247E8 ; 4.6399874379993516E8 ; 0.0
39 ; 1.1774068264356976E7 ; 1.2210493257893037E7 ; 4.382771103047108E8 ; 4.762092370578282E8 ; 0.0
40 ; 1.1783790745823175E7 ; 1.2210493257893037E7 ; 4.500511785690678E8 ; 4.884197303157212E8 ; 0.0
41 ; 1.1789973118157584E7 ; 1.2210493257893037E7 ; 4.61834969314891E8 ; 5.0063022357361424E8 ; 0.0
42 ; 1.1800072758036714E7 ; 1.2210493257893037E7 ; 4.7362494243304855E8 ; 5.1284071683150727E8 ; 0.0
43 ; 1.1806191693137104E7 ; 1.2210493257893037E7 ; 4.854250151910853E8 ; 5.250512100894003E8 ; 0.0
44 ; 1.1811499109268347E7 ; 1.2210493257893037E7 ; 4.972312068842224E8 ; 5.372617033472934E8 ; 0.0
45 ; 1.181897781847658E7 ; 1.2210493257893037E7 ; 5.0904270599349076E8 ; 5.494721966051865E8 ; 0.0
46 ; 1.1824498183968918E7 ; 1.2210493257893037E7 ; 5.208616838119673E8 ; 5.616826898630795E8 ; 0.0
47 ; 1.1831116903486319E7 ; 1.2210493257893037E7 ; 5.326861819959362E8 ; 5.738931831209726E8 ; 0.0
48 ; 1.183637591429839E7 ; 1.2210493257893037E7 ; 5.445172988994225E8 ; 5.861036763788657E8 ; 0.0
49 ; 1.1838622757011944E7 ; 1.2210493257893037E7 ; 5.56353674813721E8 ; 5.983141696367588E8 ; 0.0
50 ; 1.1841800531901926E7 ; 1.2210493257893037E7 ; 5.681922975707328E8 ; 6.105246628946519E8 ; 0.0
51 ; 1.184575830294088E7 ; 1.2210493257893037E7 ; 5.800340981026348E8 ; 6.22735156152545E8 ; 0.0
52 ; 1.1849643932687804E7 ; 1.2210493257893037E7 ; 5.918798564055756E8 ; 6.349456494104381E8 ; 0.0
53 ; 1.1851556440310322E7 ; 1.2210493257893037E7 ; 6.037295003382634E8 ; 6.471561426683311E8 ; 0.0
54 ; 1.1853988166536266E7 ; 1.2210493257893037E7 ; 6.155810567785738E8 ; 6.593666359262242E8 ; 0.0
55 ; 1.18575196447457E7 ; 1.2210493257893037E7 ; 6.2743504494511E8 ; 6.715771291841173E8 ; 0.0
56 ; 1.1862415123790149E7 ; 1.2210493257893037E7 ; 6.392925645898557E8 ; 6.837876224420104E8 ; 0.0
57 ; 1.1861680213218648E7 ; 1.2210493257893037E7 ; 6.511549797136458E8 ; 6.959981156999035E8 ; 0.0
58 ; 1.186356165015147E7 ; 1.2210493257893037E7 ; 6.630166599268645E8 ; 7.082086089577966E8 ; 0.0
59 ; 1.1870803874680435E7 ; 1.2210493257893037E7 ; 6.74880221577016E8 ; 7.204191022156897E8 ; 0.0
60 ; 1.1872421354235426E7 ; 1.2210493257893037E7 ; 6.867510254516964E8 ; 7.326295954735827E8 ; 0.0
61 ; 1.187355399073749E7 ; 1.2210493257893037E7 ; 6.986234468059318E8 ; 7.448400887314758E8 ; 0.0
62 ; 1.1875967580959007E7 ; 1.2210493257893037E7 ; 7.104970007966692E8 ; 7.570505819893689E8 ; 0.0
63 ; 1.1880333722926034E7 ; 1.2210493257893037E7 ; 7.223729683776282E8 ; 7.69261075247262E8 ; 0.0
64 ; 1.1875120675217269E7 ; 1.2210493257893037E7 ; 7.342533021005542E8 ; 7.814715685051551E8 ; 0.0
65 ; 1.1882775636419872E7 ; 1.2210493257893037E7 ; 7.461284227757715E8 ; 7.936820617630482E8 ; 0.0
66 ; 1.18809575905421E7 ; 1.2210493257893037E7 ; 7.580111984121914E8 ; 8.058925550209413E8 ; 0.0
67 ; 1.1884573007131593E7 ; 1.2210493257893037E7 ; 7.698921560027335E8 ; 8.181030482788343E8 ; 0.0
68 ; 1.1886628416689292E7 ; 1.2210493257893037E7 ; 7.81776729009865E8 ; 8.303135415367274E8 ; 0.0
69 ; 1.1884757731517177E7 ; 1.2210493257893037E7 ; 7.936633574265543E8 ; 8.425240347946205E8 ; 0.0
70 ; 1.1884026002399933E7 ; 1.2210493257893037E7 ; 8.055481151580715E8 ; 8.547345280525136E8 ; 0.0
71 ; 1.1888268173096921E7 ; 1.2210493257893037E7 ; 8.174321411604714E8 ; 8.669450213104067E8 ; 0.0
72 ; 1.1888757176697848E7 ; 1.2210493257893037E7 ; 8.293204093335683E8 ; 8.791555145682998E8 ; 0.0
73 ; 1.1890448896124009E7 ; 1.2210493257893037E7 ; 8.412091665102662E8 ; 8.913660078261929E8 ; 0.0
74 ; 1.1890130578793146E7 ; 1.2210493257893037E7 ; 8.530996154063902E8 ; 9.03576501084086E8 ; 0.0
75 ; 1.1890431101241276E7 ; 1.2210493257893037E7 ; 8.649897459851834E8 ; 9.15786994341979E8 ; 0.0
76 ; 1.1892001080744E7 ; 1.2210493257893037E7 ; 8.768801770864246E8 ; 9.279974875998721E8 ; 0.0
77 ; 1.189174234027348E7 ; 1.2210493257893037E7 ; 8.887721781671686E8 ; 9.402079808577652E8 ; 0.0
78 ; 1.1887790744447041E7 ; 1.2210493257893037E7 ; 9.006639205074421E8 ; 9.524184741156583E8 ; 0.0
79 ; 1.188596658124769E7 ; 1.2210493257893037E7 ; 9.125517112518891E8 ; 9.646289673735514E8 ; 0.0
80 ; 1.1880894202564102E7 ; 1.2210493257893037E7 ; 9.244376778331368E8 ; 9.768394606314445E8 ; 0.0
81 ; 1.1877965649289122E7 ; 1.2210493257893037E7 ; 9.363185720357009E8 ; 9.890499538893375E8 ; 0.0
82 ; 1.1875015050255394E7 ; 1.2210493257893037E7 ; 9.4819653768499E8 ; 1.0012604471472306E9 ; 0.0
83 ; 1.1870183878932007E7 ; 1.2210493257893037E7 ; 9.600715527352455E8 ; 1.0134709404051237E9 ; 0.0
84 ; 1.1865440636456639E7 ; 1.2210493257893037E7 ; 9.719417366141775E8 ; 1.0256814336630168E9 ; 0.0
85 ; 1.1864671210974177E7 ; 1.2210493257893037E7 ; 9.838071772506341E8 ; 1.0378919269209099E9 ; 0.0
86 ; 1.186049546507232E7 ; 1.2210493257893037E7 ; 9.956718484616083E8 ; 1.050102420178803E9 ; 0.0
87 ; 1.1854848037693737E7 ; 1.2210493257893037E7 ; 1.0075323439266806E9 ; 1.062312913436696E9 ; 0.0
88 ; 1.1850913590983246E7 ; 1.2210493257893037E7 ; 1.0193871919643743E9 ; 1.0745234066945891E9 ; 0.0
89 ; 1.1846501136195043E7 ; 1.2210493257893037E7 ; 1.0312381055553576E9 ; 1.0867338999524822E9 ; 0.0
90 ; 1.1839328936362507E7 ; 1.2210493257893037E7 ; 1.0430846066915526E9 ; 1.0989443932103753E9 ; 0.0
91 ; 1.1835893320113212E7 ; 1.2210493257893037E7 ; 1.0549239356279151E9 ; 1.1111548864682684E9 ; 0.0
92 ; 1.1830056370349187E7 ; 1.2210493257893037E7 ; 1.0667598289480283E9 ; 1.1233653797261615E9 ; 0.0
93 ; 1.1825368746098908E7 ; 1.2210493257893037E7 ; 1.0785898853183775E9 ; 1.1355758729840546E9 ; 0.0
94 ; 1.1818977593348112E7 ; 1.2210493257893037E7 ; 1.0904152540644765E9 ; 1.1477863662419477E9 ; 0.0
95 ; 1.181467595592241E7 ; 1.2210493257893037E7 ; 1.1022342316578245E9 ; 1.1599968594998407E9 ; 0.0
96 ; 1.1808356301703E7 ; 1.2210493257893037E7 ; 1.114048907613747E9 ; 1.1722073527577338E9 ; 0.0
97 ; 1.1802711354977597E7 ; 1.2210493257893037E7 ; 1.1258572639154499E9 ; 1.184417846015627E9 ; 0.0
98 ; 1.179582467173122E7 ; 1.2210493257893037E7 ; 1.1376599752704275E9 ; 1.19662833927352E9 ; 0.0
99 ; 1.179527354346139E7 ; 1.2210493257893037E7 ; 1.1494557999421587E9 ; 1.208838832531413E9 ; 0.0
100 ; 1.1788732870672889E7 ; 1.2210493257893037E7 ; 1.16125107348562E9 ; 1.2210493257893062E9 ; 0.0
101 ; 1.1783914678384712E7 ; 1.2210493257893037E7 ; 1.173039806356293E9 ; 1.2332598190471992E9 ; 0.0
102 ; 1.1776755872554276E7 ; 1.2210493257893037E7 ; 1.1848237210346777E9 ; 1.2454703123050923E9 ; 0.0
103 ; 1.1770272336948723E7 ; 1.2210493257893037E7 ; 1.196600476907232E9 ; 1.2576808055629854E9 ; 0.0
104 ; 1.1764626594418146E7 ; 1.2210493257893037E7 ; 1.2083707492441807E9 ; 1.2698912988208785E9 ; 0.0
105 ; 1.1756008284676094E7 ; 1.2210493257893037E7 ; 1.2201353758385987E9 ; 1.2821017920787716E9 ; 0.0
106 ; 1.1752044551596802E7 ; 1.2210493257893037E7 ; 1.2318913841232748E9 ; 1.2943122853366647E9 ; 0.0
107 ; 1.1744781342358362E7 ; 1.2210493257893037E7 ; 1.2436434286748717E9 ; 1.3065227785945578E9 ; 0.0
108 ; 1.1737723034047855E7 ; 1.2210493257893037E7 ; 1.25538821001723E9 ; 1.3187332718524508E9 ; 0.0
109 ; 1.1728113228828244E7 ; 1.2210493257893037E7 ; 1.2671259330512779E9 ; 1.330943765110344E9 ; 0.0
110 ; 1.1726782262174195E7 ; 1.2210493257893037E7 ; 1.278854046280106E9 ; 1.343154258368237E9 ; 0.0
111 ; 1.1717753901180403E7 ; 1.2210493257893037E7 ; 1.2905808285422802E9 ; 1.35536475162613E9 ; 0.0
112 ; 1.1709197334200764E7 ; 1.2210493257893037E7 ; 1.3022985824434607E9 ; 1.3675752448840232E9 ; 0.0
113 ; 1.1698879987682711E7 ; 1.2210493257893037E7 ; 1.3140077797776616E9 ; 1.3797857381419163E9 ; 0.0
114 ; 1.169383331693779E7 ; 1.2210493257893037E7 ; 1.3257066597653444E9 ; 1.3919962313998094E9 ; 0.0
115 ; 1.1689373989453617E7 ; 1.2210493257893037E7 ; 1.337400493082282E9 ; 1.4042067246577024E9 ; 0.0
116 ; 1.1679945227953587E7 ; 1.2210493257893037E7 ; 1.3490898670717356E9 ; 1.4164172179155955E9 ; 0.0
117 ; 1.1671925772915341E7 ; 1.2210493257893037E7 ; 1.3607698122996893E9 ; 1.4286277111734886E9 ; 0.0
118 ; 1.1664752816066941E7 ; 1.2210493257893037E7 ; 1.3724417380726047E9 ; 1.4408382044313817E9 ; 0.0
119 ; 1.1653405530542132E7 ; 1.2210493257893037E7 ; 1.3841064908886716E9 ; 1.4530486976892748E9 ; 0.0
120 ; 1.1646220660790121E7 ; 1.2210493257893037E7 ; 1.3957598964192138E9 ; 1.4652591909471679E9 ; 0.0
121 ; 1.1638418143701997E7 ; 1.2210493257893037E7 ; 1.407406117080004E9 ; 1.477469684205061E9 ; 0.0
122 ; 1.1630569240798563E7 ; 1.2210493257893037E7 ; 1.419044535223706E9 ; 1.489680177462954E9 ; 0.0
123 ; 1.1624351962029956E7 ; 1.2210493257893037E7 ; 1.4306751044645045E9 ; 1.5018906707208471E9 ; 0.0
124 ; 1.1615259105546746E7 ; 1.2210493257893037E7 ; 1.4422994564265344E9 ; 1.5141011639787402E9 ; 0.0
125 ; 1.1607544191242006E7 ; 1.2210493257893037E7 ; 1.4539147155320811E9 ; 1.5263116572366333E9 ; 0.0
126 ; 1.1597894969865618E7 ; 1.2210493257893037E7 ; 1.465522259723323E9 ; 1.5385221504945264E9 ; 0.0
127 ; 1.1587171958166618E7 ; 1.2210493257893037E7 ; 1.4771201546931887E9 ; 1.5507326437524195E9 ; 0.0
128 ; 1.1579136225267971E7 ; 1.2210493257893037E7 ; 1.4887073266513553E9 ; 1.5629431370103126E9 ; 0.0
129 ; 1.1571387716178216E7 ; 1.2210493257893037E7 ; 1.5002864628766232E9 ; 1.5751536302682056E9 ; 0.0
130 ; 1.1557655691471104E7 ; 1.2210493257893037E7 ; 1.5118578505928013E9 ; 1.5873641235260987E9 ; 0.0
131 ; 1.1546117748891488E7 ; 1.2210493257893037E7 ; 1.5234155062842724E9 ; 1.5995746167839918E9 ; 0.0
132 ; 1.1532851423857039E7 ; 1.2210493257893037E7 ; 1.534961624033164E9 ; 1.611785110041885E9 ; 0.0
133 ; 1.152120456887195E7 ; 1.2210493257893037E7 ; 1.546494475457021E9 ; 1.623995603299778E9 ; 0.0
134 ; 1.150805804514342E7 ; 1.2210493257893037E7 ; 1.558015680025893E9 ; 1.636206096557671E9 ; 0.0
135 ; 1.148882150899578E7 ; 1.2210493257893037E7 ; 1.5695237380710363E9 ; 1.6484165898155642E9 ; 0.0
136 ; 1.1479617887535017E7 ; 1.2210493257893037E7 ; 1.581012559580032E9 ; 1.6606270830734572E9 ; 0.0
137 ; 1.1464954542169522E7 ; 1.2210493257893037E7 ; 1.5924921774675672E9 ; 1.6728375763313503E9 ; 0.0
138 ; 1.1451814662409142E7 ; 1.2210493257893037E7 ; 1.6039571320097368E9 ; 1.6850480695892434E9 ; 0.0
139 ; 1.1438035679185946E7 ; 1.2210493257893037E7 ; 1.6154089466721458E9 ; 1.6972585628471365E9 ; 0.0
140 ; 1.1420753806712728E7 ; 1.2210493257893037E7 ; 1.6268469823513317E9 ; 1.7094690561050296E9 ; 0.0
141 ; 1.1411833024336347E7 ; 1.2210493257893037E7 ; 1.6382677361580443E9 ; 1.7216795493629227E9 ; 0.0
142 ; 1.1396957561733369E7 ; 1.2210493257893037E7 ; 1.6496795691823807E9 ; 1.7338900426208158E9 ; 0.0
143 ; 1.1381081940244112E7 ; 1.2210493257893037E7 ; 1.6610765267441142E9 ; 1.7461005358787088E9 ; 0.0
144 ; 1.1363946151391387E7 ; 1.2210493257893037E7 ; 1.6724576086843584E9 ; 1.758311029136602E9 ; 0.0
145 ; 1.1354469839512594E7 ; 1.2210493257893037E7 ; 1.6838215548357496E9 ; 1.770521522394495E9 ; 0.0
146 ; 1.1346722481234506E7 ; 1.2210493257893037E7 ; 1.6951760246752622E9 ; 1.782732015652388E9 ; 0.0
147 ; 1.1334734655928582E7 ; 1.2210493257893037E7 ; 1.7065227471564968E9 ; 1.7949425089102812E9 ; 0.0
148 ; 1.1324001955916049E7 ; 1.2210493257893037E7 ; 1.7178574818124254E9 ; 1.8071530021681743E9 ; 0.0
149 ; 1.1316161071528602E7 ; 1.2210493257893037E7 ; 1.7291814837683415E9 ; 1.8193634954260674E9 ; 0.0
150 ; 1.1306913521931613E7 ; 1.2210493257893037E7 ; 1.7404976448398702E9 ; 1.8315739886839604E9 ; 0.0
151 ; 1.1296570393598402E7 ; 1.2210493257893037E7 ; 1.7518045583618019E9 ; 1.8437844819418535E9 ; 0.0
152 ; 1.1287134772822639E7 ; 1.2210493257893037E7 ; 1.7631011287554002E9 ; 1.8559949751997466E9 ; 0.0
153 ; 1.1274151792463453E7 ; 1.2210493257893037E7 ; 1.7743882635282228E9 ; 1.8682054684576397E9 ; 0.0
154 ; 1.126374805049125E7 ; 1.2210493257893037E7 ; 1.7856624153206863E9 ; 1.8804159617155328E9 ; 0.0
155 ; 1.1254058635481767E7 ; 1.2210493257893037E7 ; 1.7969261633711777E9 ; 1.8926264549734259E9 ; 0.0
156 ; 1.1245364588263605E7 ; 1.2210493257893037E7 ; 1.8081802220066595E9 ; 1.904836948231319E9 ; 0.0
157 ; 1.123219899101037E7 ; 1.2210493257893037E7 ; 1.819425586594923E9 ; 1.917047441489212E9 ; 0.0
158 ; 1.1225522803425228E7 ; 1.2210493257893037E7 ; 1.8306577855859334E9 ; 1.9292579347471051E9 ; 0.0
159 ; 1.1212235089301592E7 ; 1.2210493257893037E7 ; 1.8418833083893588E9 ; 1.9414684280049982E9 ; 0.0
160 ; 1.1204326992852557E7 ; 1.2210493257893037E7 ; 1.8530955434786603E9 ; 1.9536789212628913E9 ; 0.0
161 ; 1.119045114136242E7 ; 1.2210493257893037E7 ; 1.8642998704715128E9 ; 1.9658894145207844E9 ; 0.0
162 ; 1.1180721853572551E7 ; 1.2210493257893037E7 ; 1.8754903216128752E9 ; 1.9780999077786775E9 ; 0.0
163 ; 1.1172059564867606E7 ; 1.2210493257893037E7 ; 1.8866710434664478E9 ; 1.9903104010365705E9 ; 0.0
164 ; 1.1155856887462055E7 ; 1.2210493257893037E7 ; 1.8978431030313153E9 ; 2.0025208942944636E9 ; 0.0
165 ; 1.1146485379795795E7 ; 1.2210493257893037E7 ; 1.9089989599187775E9 ; 2.0147313875523567E9 ; 0.0
166 ; 1.1134613574004665E7 ; 1.2210493257893037E7 ; 1.9201454452985733E9 ; 2.0269418808102498E9 ; 0.0
167 ; 1.1122938256491296E7 ; 1.2210493257893037E7 ; 1.931280058872578E9 ; 2.039152374068143E9 ; 0.0
168 ; 1.1115466693403283E7 ; 1.2210493257893037E7 ; 1.942402997129069E9 ; 2.051362867326036E9 ; 0.0
169 ; 1.1104946521385517E7 ; 1.2210493257893037E7 ; 1.9535184638224723E9 ; 2.063573360583929E9 ; 0.0
170 ; 1.1092363552869387E7 ; 1.2210493257893037E7 ; 1.9646234103438578E9 ; 2.0757838538418221E9 ; 0.0
171 ; 1.1080600526505798E7 ; 1.2210493257893037E7 ; 1.975715773896727E9 ; 2.0879943470997152E9 ; 0.0
172 ; 1.1068152505007522E7 ; 1.2210493257893037E7 ; 1.9867963744232328E9 ; 2.1002048403576083E9 ; 0.0
173 ; 1.1058297595460106E7 ; 1.2210493257893037E7 ; 1.9978645269282403E9 ; 2.1124153336155014E9 ; 0.0
174 ; 1.105340056628731E7 ; 1.2210493257893037E7 ; 2.0089228245237005E9 ; 2.1246258268733945E9 ; 0.0
175 ; 1.1046147018179204E7 ; 1.2210493257893037E7 ; 2.0199762250899878E9 ; 2.1368363201312876E9 ; 0.0
176 ; 1.1037220262728365E7 ; 1.2210493257893037E7 ; 2.031022372108167E9 ; 2.1490468133891807E9 ; 0.0
177 ; 1.1031250060501628E7 ; 1.2210493257893037E7 ; 2.0420595923708954E9 ; 2.1612573066470737E9 ; 0.0
178 ; 1.1025198031914042E7 ; 1.2210493257893037E7 ; 2.053090842431397E9 ; 2.173467799904967E9 ; 0.0
179 ; 1.10173381883559E7 ; 1.2210493257893037E7 ; 2.064116040463311E9 ; 2.18567829316286E9 ; 0.0
180 ; 1.1009273589972699E7 ; 1.2210493257893037E7 ; 2.0751333786516669E9 ; 2.197888786420753E9 ; 0.0
181 ; 1.1001417090865621E7 ; 1.2210493257893037E7 ; 2.0861426522416396E9 ; 2.210099279678646E9 ; 0.0
182 ; 1.0996723166971857E7 ; 1.2210493257893037E7 ; 2.0971440693325052E9 ; 2.222309772936539E9 ; 0.0
183 ; 1.0989772572464395E7 ; 1.2210493257893037E7 ; 2.1081407924994771E9 ; 2.2345202661944323E9 ; 0.0
184 ; 1.0982390264222233E7 ; 1.2210493257893037E7 ; 2.1191305650719416E9 ; 2.2467307594523253E9 ; 0.0
185 ; 1.0977110542013722E7 ; 1.2210493257893037E7 ; 2.1301129553361638E9 ; 2.2589412527102184E9 ; 0.0
186 ; 1.0973315904940126E7 ; 1.2210493257893037E7 ; 2.1410900658781774E9 ; 2.2711517459681115E9 ; 0.0
187 ; 1.096424782189159E7 ; 1.2210493257893037E7 ; 2.1520633817831173E9 ; 2.2833622392260046E9 ; 0.0
188 ; 1.0958030387025425E7 ; 1.2210493257893037E7 ; 2.163027629605009E9 ; 2.2955727324838977E9 ; 0.0
189 ; 1.0948881971050667E7 ; 1.2210493257893037E7 ; 2.1739856599920344E9 ; 2.307783225741791E9 ; 0.0
190 ; 1.0943747385216752E7 ; 1.2210493257893037E7 ; 2.184934541963085E9 ; 2.319993718999684E9 ; 0.0
191 ; 1.0937656078959495E7 ; 1.2210493257893037E7 ; 2.195878289348302E9 ; 2.332204212257577E9 ; 0.0
192 ; 1.0928717037262449E7 ; 1.2210493257893037E7 ; 2.2068159454272614E9 ; 2.34441470551547E9 ; 0.0
193 ; 1.0922107855372353E7 ; 1.2210493257893037E7 ; 2.217744662464524E9 ; 2.356625198773363E9 ; 0.0
194 ; 1.091180122876895E7 ; 1.2210493257893037E7 ; 2.228666770319896E9 ; 2.368835692031256E9 ; 0.0
195 ; 1.0907649505082281E7 ; 1.2210493257893037E7 ; 2.239578571548665E9 ; 2.3810461852891493E9 ; 0.0
196 ; 1.0900495934101127E7 ; 1.2210493257893037E7 ; 2.250486221053747E9 ; 2.3932566785470424E9 ; 0.0
