CSV File for the City 1 on Day 331
1 - Minute m 
2 - Power Consumed at minute m 
3 - Power Produced at minute m 
4 - Energy Consumed since the beginning of the day 
5 - Energy Produced since the beginning of the day 
6 - Energy Lost since the beginning of the day on lines starting from the city
 
0 ; 1.6138064495318884E7 ; 1.0571993153465644E8 ; 0.0 ; 0.0 ; 0.0
1 ; 1.6156082290799685E7 ; 1.0587284086897552E8 ; 1.6138064495318884E7 ; 1.0571993153465644E8 ; 0.0
2 ; 1.6176839502041664E7 ; 1.0633453744542542E8 ; 3.2294146786118567E7 ; 2.1159277240363196E8 ; 0.0
3 ; 1.618915138712632E7 ; 1.071050223555255E8 ; 4.8470986288160235E7 ; 3.179273098490574E8 ; 0.0
4 ; 1.6216539048644543E7 ; 1.0818429657278025E8 ; 6.4660137675286554E7 ; 4.2503233220458287E8 ; 0.0
5 ; 1.6249141903332876E7 ; 1.0957236094889408E8 ; 8.08766767239311E7 ; 5.332166287773631E8 ; 0.0
6 ; 1.6286273956926921E7 ; 1.1126921621041504E8 ; 9.712581862726398E7 ; 6.427889897262572E8 ; 0.0
7 ; 1.6342121612980746E7 ; 1.1327486295584053E8 ; 1.134120925841909E8 ; 7.540582059366722E8 ; 0.0
8 ; 1.6417912086335354E7 ; 1.1558930165320939E8 ; 1.2975421419717166E8 ; 8.673330688925128E8 ; 0.0
9 ; 1.653829301890025E7 ; 1.1821253263820595E8 ; 1.4617212628350702E8 ; 9.829223705457222E8 ; 0.0
10 ; 1.6721302466995643E7 ; 1.211445561127916E8 ; 1.6271041930240726E8 ; 1.1011349031839283E9 ; 0.0
11 ; 1.700666976053833E7 ; 1.2438537214437881E8 ; 1.7943172176940292E8 ; 1.2222794592967198E9 ; 0.0
12 ; 1.7471285766941894E7 ; 1.2793498066555509E8 ; 1.9643839152994126E8 ; 1.3466648314410987E9 ; 0.0
13 ; 1.7915619518892895E7 ; 1.3179338147435904E8 ; 2.1390967729688317E8 ; 1.4745998121066537E9 ; 0.0
14 ; 1.7970319118639294E7 ; 1.359605742351064E8 ; 2.3182529681577605E8 ; 1.6063931935810127E9 ; 0.0
15 ; 1.7996239371586617E7 ; 1.4043655847975826E8 ; 2.4979561593441534E8 ; 1.7423537678161192E9 ; 0.0
16 ; 1.8013927455822594E7 ; 1.452213336098173E8 ; 2.6779185530600196E8 ; 1.8827903262958775E9 ; 0.0
17 ; 1.803608960012659E7 ; 1.5031489889873537E8 ; 2.8580578276182455E8 ; 2.0280116599056947E9 ; 0.0
18 ; 1.8056744725916933E7 ; 1.5571725349480814E8 ; 3.038418723619511E8 ; 2.17832655880443E9 ; 0.0
19 ; 1.807558547534175E7 ; 1.6142839642453107E8 ; 3.2189861708786803E8 ; 2.334043812299238E9 ; 0.0
20 ; 1.8093630850398332E7 ; 1.674483265963848E8 ; 3.399742025632098E8 ; 2.495472208723769E9 ; 0.0
21 ; 1.812170628305538E7 ; 1.737770428050172E8 ; 3.580678334136081E8 ; 2.662920535320154E9 ; 0.0
22 ; 1.814691223738472E7 ; 1.8041454373578334E8 ; 3.7618953969666344E8 ; 2.836697578125171E9 ; 0.0
23 ; 1.816506268767291E7 ; 1.8736082796960634E8 ; 3.943364519340482E8 ; 3.0171121218609543E9 ; 0.0
24 ; 1.8186050266677488E7 ; 1.9461589398811644E8 ; 4.125015146217211E8 ; 3.2044729498305607E9 ; 0.0
25 ; 1.8210046733423043E7 ; 2.008677810772122E8 ; 4.306875648883986E8 ; 3.399088843818677E9 ; 0.0
26 ; 1.8230464065096498E7 ; 2.0087003536952797E8 ; 4.4889761162182164E8 ; 3.5999566248958893E9 ; 0.0
27 ; 1.8251877009330012E7 ; 2.0087242437506303E8 ; 4.6712807568691814E8 ; 3.800826660265417E9 ; 0.0
28 ; 1.827136447016175E7 ; 2.00874946233791E8 ; 4.853799526962482E8 ; 4.00169908464048E9 ; 0.0
29 ; 1.8291410973340336E7 ; 2.0087759901481357E8 ; 5.036513171664099E8 ; 4.202574030874271E9 ; 0.0
30 ; 1.831381312156765E7 ; 2.0088038072230142E8 ; 5.2194272813975024E8 ; 4.403451629889085E9 ; 0.0
31 ; 1.8337390413065985E7 ; 2.0088328930143034E8 ; 5.402565412613178E8 ; 4.604332010611386E9 ; 0.0
32 ; 1.8351811777333833E7 ; 2.0088632264427802E8 ; 5.585939316743839E8 ; 4.805215299912817E9 ; 0.0
33 ; 1.837174063442214E7 ; 2.0088947859564874E8 ; 5.769457434517177E8 ; 5.006101622557095E9 ; 0.0
34 ; 1.8385786786399603E7 ; 2.0089275495879662E8 ; 5.953174840861399E8 ; 5.206991101152743E9 ; 0.0
35 ; 1.8408627842743013E7 ; 2.0089614950102028E8 ; 6.137032708725395E8 ; 5.40788385611154E9 ; 0.0
36 ; 1.8426764148063116E7 ; 2.008996599591047E8 ; 6.321118987152826E8 ; 5.60878000561256E9 ; 0.0
37 ; 1.8442856495272387E7 ; 2.0090328404458964E8 ; 6.505386628633456E8 ; 5.809679665571665E9 ; 0.0
38 ; 1.84582284537436E7 ; 2.009070194488461E8 ; 6.68981519358618E8 ; 6.010582949616255E9 ; 0.0
39 ; 1.8475425182455722E7 ; 2.0091086384794557E8 ; 6.874397478123616E8 ; 6.211489969065101E9 ; 0.0
40 ; 1.849442489750575E7 ; 2.0091481490730956E8 ; 7.059151729948174E8 ; 6.412400832913046E9 ; 0.0
41 ; 1.850363894469118E7 ; 2.009188702861298E8 ; 7.244095978923231E8 ; 6.613315647820355E9 ; 0.0
42 ; 1.851915729981441E7 ; 2.0092302764155167E8 ; 7.429132368370143E8 ; 6.814234518106485E9 ; 0.0
43 ; 1.8532047259734094E7 ; 2.0092728463261575E8 ; 7.614323941368288E8 ; 7.015157545748037E9 ; 0.0
44 ; 1.8544842047431692E7 ; 2.0093163892395544E8 ; 7.799644413965628E8 ; 7.216084830380653E9 ; 0.0
45 ; 1.8555273274622492E7 ; 2.009360881892492E8 ; 7.985092834439945E8 ; 7.417016469304609E9 ; 0.0
46 ; 1.8564301994086426E7 ; 2.009406301144293E8 ; 8.17064556718617E8 ; 7.617952557493858E9 ; 0.0
47 ; 1.857254200821516E7 ; 2.009452624006493E8 ; 8.356288587127033E8 ; 7.818893187608288E9 ; 0.0
48 ; 1.8583448688326113E7 ; 2.009499827670151E8 ; 8.542014007209185E8 ; 8.019838450008937E9 ; 0.0
49 ; 1.8593229153222762E7 ; 2.009547889530842E8 ; 8.727848494092447E8 ; 8.220788432775952E9 ; 0.0
50 ; 1.8595559934759226E7 ; 2.0095967872114095E8 ; 8.913780785624675E8 ; 8.421743221729036E9 ; 0.0
51 ; 1.860702318022898E7 ; 2.009646498582541E8 ; 9.099736384972267E8 ; 8.622702900450178E9 ; 0.0
52 ; 1.8611522767677695E7 ; 2.0096970017812553E8 ; 9.285806616774557E8 ; 8.823667550308432E9 ; 0.0
53 ; 1.8618419316742484E7 ; 2.0097482752273875E8 ; 9.471921844451333E8 ; 9.024637250486557E9 ; 0.0
54 ; 1.8625962636359107E7 ; 2.009800297638166E8 ; 9.658106037618759E8 ; 9.225612078009296E9 ; 0.0
55 ; 1.8634801778017987E7 ; 2.0098530480409712E8 ; 9.84436566398235E8 ; 9.426592107773113E9 ; 0.0
56 ; 1.8641411314112134E7 ; 2.0099065057843828E8 ; 1.003071368176253E9 ; 9.62757741257721E9 ; 0.0
57 ; 1.864411512929229E7 ; 2.009960650547605E8 ; 1.0217127794903651E9 ; 9.828568063155647E9 ; 0.0
58 ; 1.864495151970615E7 ; 2.010015462348372E8 ; 1.0403568946196574E9 ; 1.0029564128210407E10 ; 0.0
59 ; 1.865472191815882E7 ; 2.010070921549434E8 ; 1.0590018461393635E9 ; 1.0230565674445244E10 ; 0.0
60 ; 1.865959242057375E7 ; 2.0101270088637134E8 ; 1.0776565680575223E9 ; 1.0431572766600187E10 ; 0.0
61 ; 1.86655913562002E7 ; 2.0101837053582317E8 ; 1.096316160478096E9 ; 1.0632585467486559E10 ; 0.0
62 ; 1.86672023985358E7 ; 2.0102409924568936E8 ; 1.1149817518342962E9 ; 1.0833603838022383E10 ; 0.0
63 ; 1.8671618264611907E7 ; 2.0102988519422224E8 ; 1.133648954232832E9 ; 1.1034627937268072E10 ; 0.0
64 ; 1.8679589262298215E7 ; 2.0103572659561253E8 ; 1.152320572497444E9 ; 1.1235657822462294E10 ; 0.0
65 ; 1.8678778774915244E7 ; 2.0104162169997755E8 ; 1.171000161759742E9 ; 1.1436693549057907E10 ; 0.0
66 ; 1.8690446348925747E7 ; 2.0104756879326883E8 ; 1.1896789405346572E9 ; 1.1637735170757885E10 ; 0.0
67 ; 1.8689286454102945E7 ; 2.010535661971064E8 ; 1.208369386883583E9 ; 1.1838782739551153E10 ; 0.0
68 ; 1.8692977457589034E7 ; 2.0105961226854685E8 ; 1.227058673337686E9 ; 1.203983630574826E10 ; 0.0
69 ; 1.8695275848956555E7 ; 2.0106570539979187E8 ; 1.2457516507952752E9 ; 1.2240895918016808E10 ; 0.0
70 ; 1.8702644256645467E7 ; 2.010718440178436E8 ; 1.2644469266442318E9 ; 1.24419616234166E10 ; 0.0
71 ; 1.870777418459024E7 ; 2.0107802658411238E8 ; 1.2831495709008772E9 ; 1.2643033467434443E10 ; 0.0
72 ; 1.8709427596319154E7 ; 2.010842515939827E8 ; 1.3018573450854676E9 ; 1.2844111494018555E10 ; 0.0
73 ; 1.871110146657599E7 ; 2.010905175763422E8 ; 1.3205667726817868E9 ; 1.3045195745612537E10 ; 0.0
74 ; 1.871590716175885E7 ; 2.0109682309307888E8 ; 1.3392778741483629E9 ; 1.3246286263188879E10 ; 0.0
75 ; 1.8720515177769635E7 ; 2.011031667385503E8 ; 1.3579937813101218E9 ; 1.3447383086281958E10 ; 0.0
76 ; 1.87194066558538E7 ; 2.0110954713902965E8 ; 1.3767142964878914E9 ; 1.3648486253020508E10 ; 0.0
77 ; 1.8720585420581896E7 ; 2.011159629521316E8 ; 1.3954337031437452E9 ; 1.3849595800159538E10 ; 0.0
78 ; 1.872048606709165E7 ; 2.0112241286622223E8 ; 1.414154288564327E9 ; 1.405071176311167E10 ; 0.0
79 ; 1.871764191734827E7 ; 2.0112889559981558E8 ; 1.4328747746314187E9 ; 1.4251834175977892E10 ; 0.0
80 ; 1.871184274368507E7 ; 2.011354099009599E8 ; 1.451592416548767E9 ; 1.4452963071577707E10 ; 0.0
81 ; 1.8710742803303488E7 ; 2.0114195454661673E8 ; 1.470304259292452E9 ; 1.4654098481478666E10 ; 0.0
82 ; 1.8706612833261706E7 ; 2.011485283420341E8 ; 1.4890150020957556E9 ; 1.4855240436025284E10 ; 0.0
83 ; 1.8702323086206727E7 ; 2.011551301201174E8 ; 1.5077216149290173E9 ; 1.5056388964367317E10 ; 0.0
84 ; 1.8697724010939684E7 ; 2.011617587407989E8 ; 1.526423938015224E9 ; 1.5257544094487434E10 ; 0.0
85 ; 1.869903909284247E7 ; 2.0116841309040794E8 ; 1.5451216620261636E9 ; 1.5458705853228233E10 ; 0.0
86 ; 1.8687298893219113E7 ; 2.0117509208104366E8 ; 1.5638207011190062E9 ; 1.5659874266318642E10 ; 0.0
87 ; 1.868408305809852E7 ; 2.0118179464995146E8 ; 1.5825080000122252E9 ; 1.5861049358399685E10 ; 0.0
88 ; 1.868108664788476E7 ; 2.011885197589042E8 ; 1.6011920830703237E9 ; 1.6062231153049637E10 ; 0.0
89 ; 1.867233321738749E7 ; 2.0119526639358994E8 ; 1.6198731697182086E9 ; 1.626341967280854E10 ; 0.0
90 ; 1.867082378678406E7 ; 2.0120203356300652E8 ; 1.638545502935596E9 ; 1.646461493920213E10 ; 0.0
91 ; 1.866681763779608E7 ; 2.0120882029886428E8 ; 1.6572163267223802E9 ; 1.6665816972765137E10 ; 0.0
92 ; 1.86555565904495E7 ; 2.0121562565499723E8 ; 1.6758831443601763E9 ; 1.6867025793064001E10 ; 0.0
93 ; 1.8655746300057225E7 ; 2.0122244870678407E8 ; 1.694538700950626E9 ; 1.7068241418718998E10 ; 0.0
94 ; 1.864949794020951E7 ; 2.0122928855057856E8 ; 1.713194447250683E9 ; 1.726946386742578E10 ; 0.0
95 ; 1.864044648678631E7 ; 2.012361443031507E8 ; 1.7318439451908927E9 ; 1.747069315597636E10 ; 0.0
96 ; 1.864250494622017E7 ; 2.012430151011385E8 ; 1.750484391677679E9 ; 1.767192930027951E10 ; 0.0
97 ; 1.863501510597431E7 ; 2.012499001005107E8 ; 1.7691268966238992E9 ; 1.787317231538065E10 ; 0.0
98 ; 1.8627976692364432E7 ; 2.0125679847604096E8 ; 1.7877619117298734E9 ; 1.807442221548116E10 ; 0.0
99 ; 1.862065532112231E7 ; 2.0126370942079356E8 ; 1.8063898884222379E9 ; 1.82756790139572E10 ; 0.0
100 ; 1.861421517707122E7 ; 2.012706321456206E8 ; 1.8250105437433603E9 ; 1.8476942723377995E10 ; 0.0
101 ; 1.860865744653877E7 ; 2.0127756587867096E8 ; 1.8436247589204316E9 ; 1.8678213355523617E10 ; 0.0
102 ; 1.8595685308946062E7 ; 2.01284509864911E8 ; 1.8622334163669703E9 ; 1.8879490921402287E10 ; 0.0
103 ; 1.8589982023677126E7 ; 2.0129146336565697E8 ; 1.8808291016759164E9 ; 1.9080775431267197E10 ; 0.0
104 ; 1.8581645769459948E7 ; 2.0129842565811947E8 ; 1.8994190836995935E9 ; 1.9282066894632854E10 ; 0.0
105 ; 1.8580917922995396E7 ; 2.0130539603495893E8 ; 1.9180007294690535E9 ; 1.9483365320290974E10 ; 0.0
106 ; 1.857129404401344E7 ; 2.013123738038533E8 ; 1.9365816473920488E9 ; 1.968467071632593E10 ; 0.0
107 ; 1.8562338136340994E7 ; 2.0131935828707683E8 ; 1.9551529414360623E9 ; 1.9885983090129784E10 ; 0.0
108 ; 1.8554077749698605E7 ; 2.0132634882109037E8 ; 1.9737152795724034E9 ; 2.008730244841686E10 ; 0.0
109 ; 1.8545007154402938E7 ; 2.013333447561427E8 ; 1.992269357322102E9 ; 2.028862879723795E10 ; 0.0
110 ; 1.854093907145057E7 ; 2.01340345455883E8 ; 2.010814364476505E9 ; 2.048996214199409E10 ; 0.0
111 ; 1.8531505774279863E7 ; 2.0134735029698405E8 ; 2.0293553035479555E9 ; 2.0691302487449974E10 ; 0.0
112 ; 1.851864712147076E7 ; 2.0135435866877633E8 ; 2.0478868093222353E9 ; 2.089264983774696E10 ; 0.0
113 ; 1.850959028952586E7 ; 2.013613699728922E8 ; 2.066405456443706E9 ; 2.1094004196415737E10 ; 0.0
114 ; 1.8502726028897338E7 ; 2.0136838362292054E8 ; 2.0849150467332318E9 ; 2.129536556638863E10 ; 0.0
115 ; 1.849384200098073E7 ; 2.0137539904407158E8 ; 2.103417772762129E9 ; 2.149673395001155E10 ; 0.0
116 ; 1.8488656670502137E7 ; 2.0138241567285118E8 ; 2.1219116147631097E9 ; 2.1698109349055622E10 ; 0.0
117 ; 1.847615417228421E7 ; 2.013894329567449E8 ; 2.1404002714336119E9 ; 2.1899491764728474E10 ; 0.0
118 ; 1.84684509906946E7 ; 2.013964503539116E8 ; 2.158876425605896E9 ; 2.210088119768522E10 ; 0.0
119 ; 1.84576620915938E7 ; 2.0140346733288598E8 ; 2.1773448765965905E9 ; 2.230227764803913E10 ; 0.0
120 ; 1.8445108616097808E7 ; 2.014104833722899E8 ; 2.1958025386881843E9 ; 2.2503681115372017E10 ; 0.0
121 ; 1.8433118005582336E7 ; 2.0141749796055287E8 ; 2.214247647304282E9 ; 2.270509159874431E10 ; 0.0
122 ; 1.8428548919205066E7 ; 2.0142451059564057E8 ; 2.2326807653098645E9 ; 2.290650909670486E10 ; 0.0
123 ; 1.8415263919027146E7 ; 2.0143152078479183E8 ; 2.2511093142290697E9 ; 2.3107933607300503E10 ; 0.0
124 ; 1.8405466265189834E7 ; 2.0143852804426354E8 ; 2.269524578148097E9 ; 2.3309365128085293E10 ; 0.0
125 ; 1.839441373526695E7 ; 2.0144553189908352E8 ; 2.2879300444132867E9 ; 2.3510803656129555E10 ; 0.0
126 ; 1.838698602888419E7 ; 2.0145253188281077E8 ; 2.306324458148554E9 ; 2.3712249188028637E10 ; 0.0
127 ; 1.8370618901849985E7 ; 2.0145952753730324E8 ; 2.3247114441774383E9 ; 2.391370171991145E10 ; 0.0
128 ; 1.83615411732563E7 ; 2.0146651841249278E8 ; 2.3430820630792885E9 ; 2.4115161247448753E10 ; 0.0
129 ; 1.835398666323511E7 ; 2.0147350406616694E8 ; 2.361443604252545E9 ; 2.4316627765861248E10 ; 0.0
130 ; 1.8336186045607805E7 ; 2.0148048406375754E8 ; 2.37979759091578E9 ; 2.4518101269927414E10 ; 0.0
131 ; 1.832783756949866E7 ; 2.0148745797813603E8 ; 2.3981337769613876E9 ; 2.4719581753991173E10 ; 0.0
132 ; 1.8306644309520487E7 ; 2.0149442538941485E8 ; 2.416461614530886E9 ; 2.4921069211969307E10 ; 0.0
133 ; 1.8284121992160857E7 ; 2.0150138588475513E8 ; 2.434768258840407E9 ; 2.5122563637358723E10 ; 0.0
134 ; 1.827012203962303E7 ; 2.0150833905818057E8 ; 2.4530523808325677E9 ; 2.5324065023243477E10 ; 0.0
135 ; 1.8250051819112647E7 ; 2.0151528451039675E8 ; 2.471322502872191E9 ; 2.552557336230166E10 ; 0.0
136 ; 1.82324963776411E7 ; 2.015222218486163E8 ; 2.4895725546913037E9 ; 2.5727088646812054E10 ; 0.0
137 ; 1.821552410164661E7 ; 2.0152915068638954E8 ; 2.507805051068945E9 ; 2.592861086866067E10 ; 0.0
138 ; 1.8198223369593047E7 ; 2.015360706434403E8 ; 2.5260205751705914E9 ; 2.613014001934706E10 ; 0.0
139 ; 1.818163536677311E7 ; 2.0154298134550685E8 ; 2.5442187985401845E9 ; 2.63316760899905E10 ; 0.0
140 ; 1.8161647752637435E7 ; 2.0154988242418793E8 ; 2.5624004339069576E9 ; 2.653321907133601E10 ; 0.0
141 ; 1.814493536077268E7 ; 2.0155677351679337E8 ; 2.580562081659595E9 ; 2.6734768953760197E10 ; 0.0
142 ; 1.811992528780157E7 ; 2.0156365426619968E8 ; 2.5987070170203676E9 ; 2.693632572727699E10 ; 0.0
143 ; 1.8105139726065468E7 ; 2.015705243207097E8 ; 2.6168269423081694E9 ; 2.713788938154319E10 ; 0.0
144 ; 1.8084328461829454E7 ; 2.0157738333391708E8 ; 2.634932082034235E9 ; 2.73394599058639E10 ; 0.0
145 ; 1.8074136261995617E7 ; 2.0158423096457464E8 ; 2.6530164104960647E9 ; 2.7541037289197815E10 ; 0.0
146 ; 1.8059717201781288E7 ; 2.0159106687646696E8 ; 2.6710905467580605E9 ; 2.7742621520162388E10 ; 0.0
147 ; 1.8047913916949302E7 ; 2.0159789073828703E8 ; 2.6891502639598417E9 ; 2.7944212587038857E10 ; 0.0
148 ; 1.8040356369937077E7 ; 2.0160470222351643E8 ; 2.707198177876791E9 ; 2.8145810477777145E10 ; 0.0
149 ; 1.801966866192379E7 ; 2.016115010103096E8 ; 2.725238534246728E9 ; 2.834741518000066E10 ; 0.0
150 ; 1.801100619202987E7 ; 2.0161828678138137E8 ; 2.743258202908652E9 ; 2.854902668101097E10 ; 0.0
151 ; 1.799767514700964E7 ; 2.0162505922389814E8 ; 2.761269209100682E9 ; 2.875064496779235E10 ; 0.0
152 ; 1.7990218560935702E7 ; 2.0163181802937248E8 ; 2.7792668842476916E9 ; 2.895227002701625E10 ; 0.0
153 ; 1.797409331558879E7 ; 2.016385628935608E8 ; 2.797257102808627E9 ; 2.9153901845045624E10 ; 0.0
154 ; 1.796244558812143E7 ; 2.0164529351636425E8 ; 2.815231196124216E9 ; 2.9355540407939186E10 ; 0.0
155 ; 1.794949545025369E7 ; 2.016520096017328E8 ; 2.8331936417123375E9 ; 2.955718570145555E10 ; 0.0
156 ; 1.7935421402033735E7 ; 2.0165871085757208E8 ; 2.851143137162591E9 ; 2.9758837711057285E10 ; 0.0
157 ; 1.792258197852968E7 ; 2.0166539699565315E8 ; 2.869078558564625E9 ; 2.9960496421914856E10 ; 0.0
158 ; 1.790601054479599E7 ; 2.0167206773152512E8 ; 2.8870011405431542E9 ; 3.0162161818910507E10 ; 0.0
159 ; 1.789889339711239E7 ; 2.016787227844303E8 ; 2.90490715108795E9 ; 3.0363833886642033E10 ; 0.0
160 ; 1.7881914364942864E7 ; 2.01685361877222E8 ; 2.9228060444850626E9 ; 3.0565512609426464E10 ; 0.0
161 ; 1.787648921229251E7 ; 2.016919847362849E8 ; 2.9406879588500056E9 ; 3.0767197971303684E10 ; 0.0
162 ; 1.7853872852019783E7 ; 2.0169859109145784E8 ; 2.9585644480622983E9 ; 3.096888995603997E10 ; 0.0
163 ; 1.784452540382398E7 ; 2.017051806759587E8 ; 2.976418320914318E9 ; 3.1170588547131428E10 ; 0.0
164 ; 1.783317836941703E7 ; 2.01711753226312E8 ; 2.994262846318142E9 ; 3.137229372780739E10 ; 0.0
165 ; 1.7820317782801464E7 ; 2.017183084822784E8 ; 3.012096024687559E9 ; 3.15740054810337E10 ; 0.0
166 ; 1.7803818439745326E7 ; 2.0172484618678626E8 ; 3.0299163424703608E9 ; 3.1775723789515976E10 ; 0.0
167 ; 1.778646975169394E7 ; 2.0173136608586562E8 ; 3.047720160910106E9 ; 3.1977448635702763E10 ; 0.0
168 ; 1.7774463764360685E7 ; 2.0173786792858368E8 ; 3.0655066306618E9 ; 3.2179180001788628E10 ; 0.0
169 ; 1.7765700493236754E7 ; 2.0174435146698284E8 ; 3.083281094426161E9 ; 3.2380917869717213E10 ; 0.0
170 ; 1.775478887213888E7 ; 2.0175081645601985E8 ; 3.1010467949193974E9 ; 3.2582662221184196E10 ; 0.0
171 ; 1.773430392960193E7 ; 2.0175726265350753E8 ; 3.1188015837915363E9 ; 3.2784413037640217E10 ; 0.0
172 ; 1.772600650943172E7 ; 2.0176368982005763E8 ; 3.1365358877211385E9 ; 3.2986170300293724E10 ; 0.0
173 ; 1.7711174581913546E7 ; 2.017700977190258E8 ; 3.1542618942305703E9 ; 3.318793399011378E10 ; 0.0
174 ; 1.7703366385384835E7 ; 2.01776486116458E8 ; 3.171973068812484E9 ; 3.3389704087832806E10 ; 0.0
175 ; 1.7695002000341635E7 ; 2.0178285478103852E8 ; 3.189676435197869E9 ; 3.3591480573949265E10 ; 0.0
176 ; 1.768619938566497E7 ; 2.017892034840397E8 ; 3.2073714371982102E9 ; 3.3793263428730305E10 ; 0.0
177 ; 1.767831888062355E7 ; 2.0179553199927276E8 ; 3.225057636583875E9 ; 3.3995052632214344E10 ; 0.0
178 ; 1.7668259722941075E7 ; 2.018018401030407E8 ; 3.2427359554644985E9 ; 3.4196848164213615E10 ; 0.0
179 ; 1.766200459054431E7 ; 2.0180812757409182E8 ; 3.2604042151874394E9 ; 3.439865000431666E10 ; 0.0
180 ; 1.765405624198821E7 ; 2.0181439419357535E8 ; 3.2780662197779837E9 ; 3.460045813189075E10 ; 0.0
181 ; 1.764387450336233E7 ; 2.0182063974499792E8 ; 3.295720276019972E9 ; 3.480227252608432E10 ; 0.0
182 ; 1.764005086031901E7 ; 2.018268640141814E8 ; 3.313364150523334E9 ; 3.5004093165829315E10 ; 0.0
183 ; 1.7629160740286596E7 ; 2.0183306678922206E8 ; 3.331004201383653E9 ; 3.52059200298435E10 ; 0.0
184 ; 1.76187347419503E7 ; 2.018392478604509E8 ; 3.34863336212394E9 ; 3.540775309663272E10 ; 0.0
185 ; 1.7611473551647704E7 ; 2.01845407020395E8 ; 3.3662520968658905E9 ; 3.560959234449317E10 ; 0.0
186 ; 1.760288512896602E7 ; 2.0185154406374028E8 ; 3.383863570417538E9 ; 3.5811437751513565E10 ; 0.0
187 ; 1.759555158624286E7 ; 2.0185765878729507E8 ; 3.401466455546504E9 ; 3.601328929557731E10 ; 0.0
188 ; 1.7587543251664955E7 ; 2.018637509899548E8 ; 3.4190620071327467E9 ; 3.62151469543646E10 ; 0.0
189 ; 1.757899392503077E7 ; 2.0186982047266778E8 ; 3.436649550384412E9 ; 3.641701070535455E10 ; 0.0
190 ; 1.7572644375679348E7 ; 2.0187586703840208E8 ; 3.4542285443094425E9 ; 3.6618880525827225E10 ; 0.0
191 ; 1.756493250623003E7 ; 2.0188189049211293E8 ; 3.471801188685122E9 ; 3.682075639286562E10 ; 0.0
192 ; 1.754954120323308E7 ; 2.0188789064071164E8 ; 3.489366121191352E9 ; 3.7022638283357735E10 ; 0.0
193 ; 1.7543496966433764E7 ; 2.0189386729303497E8 ; 3.506915662394585E9 ; 3.722452617399844E10 ; 0.0
194 ; 1.753915030900746E7 ; 2.018998202598156E8 ; 3.524459159361019E9 ; 3.742642004129148E10 ; 0.0
195 ; 1.7525429839158703E7 ; 2.019E8 ; 3.541998309670027E9 ; 3.76283198615513E10 ; 0.0
196 ; 1.7519784314746164E7 ; 2.019E8 ; 3.5595237395091853E9 ; 3.78302198615513E10 ; 0.0
