CSV File for the City 4 on Day 248
1 - Minute m 
2 - Power Consumed at minute m 
3 - Power Produced at minute m 
4 - Energy Consumed since the beginning of the day 
5 - Energy Produced since the beginning of the day 
6 - Energy Lost since the beginning of the day on lines starting from the city
 
0 ; 1391411.6203640033 ; 1.0569618506175753E8 ; 0.0 ; 0.0 ; 0.0
1 ; 1396174.058864096 ; 1.0584554519653821E8 ; 1391411.6203640033 ; 1.0569618506175753E8 ; 0.0
2 ; 1403163.4442984548 ; 1.0630402877119198E8 ; 2787585.679228099 ; 2.1154173025829574E8 ; 0.0
3 ; 1408953.1009862737 ; 1.0707164853954518E8 ; 4190749.1235265536 ; 3.178457590294877E8 ; 0.0
4 ; 1421712.1745345374 ; 1.0814841621640188E8 ; 5599702.224512828 ; 4.249174075690329E8 ; 0.0
5 ; 1434869.993947154 ; 1.095343423236776E8 ; 7021414.399047365 ; 5.330658237854348E8 ; 0.0
6 ; 1446095.3408095732 ; 1.1122943604506978E8 ; 8456284.39299452 ; 6.426001661091124E8 ; 0.0
7 ; 1471945.0215241662 ; 1.1323370509362882E8 ; 9902379.733804092 ; 7.538296021541822E8 ; 0.0
8 ; 1506111.7736772948 ; 1.1554715559647179E8 ; 1.1374324755328258E7 ; 8.670633072478111E8 ; 0.0
9 ; 1555315.2310630516 ; 1.1816979200053525E8 ; 1.2880436529005554E7 ; 9.826104628442829E8 ; 0.0
10 ; 1632058.1821972546 ; 1.2110161700268316E8 ; 1.4435751760068605E7 ; 1.100780254844818E9 ; 0.0
11 ; 1756412.8418282368 ; 1.2434263150670812E8 ; 1.6067809942265859E7 ; 1.2218818718475013E9 ; 0.0
12 ; 1950410.590922756 ; 1.2789283460881749E8 ; 1.7824222784094095E7 ; 1.3462245033542094E9 ; 0.0
13 ; 2143430.3906559227 ; 1.3175222361214733E8 ; 1.977463337501685E7 ; 1.474117337963027E9 ; 0.0
14 ; 2169185.2480403646 ; 1.3592079406976116E8 ; 2.1918063765672773E7 ; 1.6058695615751743E9 ; 0.0
15 ; 2174836.876093579 ; 1.4039853985454178E8 ; 2.4087249013713136E7 ; 1.7417903556449356E9 ; 0.0
16 ; 2185059.179758835 ; 1.4518545325343892E8 ; 2.6262085889806714E7 ; 1.8821888954994774E9 ; 0.0
17 ; 2192194.7218623194 ; 1.5028152508275506E8 ; 2.844714506956555E7 ; 2.0273743487529163E9 ; 0.0
18 ; 2202438.779091889 ; 1.556867448205747E8 ; 3.063933979142787E7 ; 2.1776558738356714E9 ; 0.0
19 ; 2214060.0614851243 ; 1.6140110075209376E8 ; 3.284177857051976E7 ; 2.333342618656246E9 ; 0.0
20 ; 2221811.295417485 ; 1.674245801234859E8 ; 3.505583863200489E7 ; 2.49474371940834E9 ; 0.0
21 ; 2229454.2398937666 ; 1.7375716930003932E8 ; 3.7277649927422374E7 ; 2.662168299531826E9 ; 0.0
22 ; 2235433.289934936 ; 1.8039885392457682E8 ; 3.950710416731614E7 ; 2.8359254688318653E9 ; 0.0
23 ; 2246915.2358403234 ; 1.8734961907259732E8 ; 4.174253745725107E7 ; 3.016324322756442E9 ; 0.0
24 ; 2254540.7519132486 ; 1.9460944940110213E8 ; 4.398945269309139E7 ; 3.2036739418290396E9 ; 0.0
25 ; 2264596.9900047 ; 2.0086637018683434E8 ; 4.624399344500464E7 ; 3.3982833912301416E9 ; 0.0
26 ; 2273552.1486036032 ; 2.008739134926009E8 ; 4.8508590435009345E7 ; 3.599149761416976E9 ; 0.0
27 ; 2282239.1795844273 ; 2.008818328096912E8 ; 5.078214258361295E7 ; 3.800023674909577E9 ; 0.0
28 ; 2289548.183354827 ; 2.0089011240950426E8 ; 5.306438176319738E7 ; 4.000905507719268E9 ; 0.0
29 ; 2300165.586921048 ; 2.008987367287077E8 ; 5.53539299465522E7 ; 4.2017956201287723E9 ; 0.0
30 ; 2306399.991729409 ; 2.0090769044832417E8 ; 5.765409553347325E7 ; 4.40269435685748E9 ; 0.0
31 ; 2317429.8274701824 ; 2.0091695856042242E8 ; 5.996049552520266E7 ; 4.603602047305804E9 ; 0.0
32 ; 2326262.04821346 ; 2.0092652642308632E8 ; 6.2277925352672845E7 ; 4.804519005866226E9 ; 0.0
33 ; 2334759.735045549 ; 2.0093637980450726E8 ; 6.4604187400886305E7 ; 5.005445532289312E9 ; 0.0
34 ; 2341817.956365296 ; 2.009465049171551E8 ; 6.693894713593186E7 ; 5.20638191209382E9 ; 0.0
35 ; 2346847.1680518216 ; 2.009568884430395E8 ; 6.928076509229715E7 ; 5.407328417010975E9 ; 0.0
36 ; 2354183.840424886 ; 2.0096751755108872E8 ; 7.162761226034898E7 ; 5.608285305454015E9 ; 0.0
37 ; 2363089.9453489687 ; 2.009783799076522E8 ; 7.398179610077386E7 ; 5.809252823005103E9 ; 0.0
38 ; 2368897.0261361916 ; 2.0098946368109018E8 ; 7.634488604612282E7 ; 6.010231202912755E9 ; 0.0
39 ; 2377633.059049333 ; 2.0100075754135174E8 ; 7.871378307225901E7 ; 6.211220666593845E9 ; 0.0
40 ; 2381082.3730411194 ; 2.010122506553691E8 ; 8.109141613130835E7 ; 6.412221424135197E9 ; 0.0
41 ; 2388387.792868496 ; 2.0102393267901862E8 ; 8.347249850434947E7 ; 6.6132336747905655E9 ; 0.0
42 ; 2395419.78170948 ; 2.010357937463173E8 ; 8.586088629721797E7 ; 6.814257607469584E9 ; 0.0
43 ; 2402585.9124377286 ; 2.0104782445644546E8 ; 8.825630607892744E7 ; 7.015293401215901E9 ; 0.0
44 ; 2407624.330960798 ; 2.0106001585910887E8 ; 9.065889199136516E7 ; 7.216341225672347E9 ; 0.0
45 ; 2412825.2354536117 ; 2.0107235943868375E8 ; 9.306651632232596E7 ; 7.417401241531456E9 ; 0.0
46 ; 2417812.9770424096 ; 2.010848470975218E8 ; 9.547934155777957E7 ; 7.6184736009701395E9 ; 0.0
47 ; 2420451.652369668 ; 2.010974711387334E8 ; 9.789715453482197E7 ; 7.819558448067661E9 ; 0.0
48 ; 2423900.0562714185 ; 2.0111022424871403E8 ; 1.0031760618719164E8 ; 8.020655919206394E9 ; 0.0
49 ; 2426363.5933361608 ; 2.011230994796324E8 ; 1.0274150624346305E8 ; 8.221766143455109E9 ; 0.0
50 ; 2429946.7572784955 ; 2.011360902320574E8 ; 1.0516786983679922E8 ; 8.422889242934741E9 ; 0.0
51 ; 2434719.1786223534 ; 2.011491902378656E8 ; 1.0759781659407772E8 ; 8.624025333166798E9 ; 0.0
52 ; 2434893.478150654 ; 2.0116239354354113E8 ; 1.1003253577270007E8 ; 8.825174523404663E9 ; 0.0
53 ; 2438292.840078398 ; 2.011756944939528E8 ; 1.1246742925085072E8 ; 9.026336916948204E9 ; 0.0
54 ; 2439214.6281455564 ; 2.011890877166723E8 ; 1.1490572209092912E8 ; 9.227512611442158E9 ; 0.0
55 ; 2443371.2853700155 ; 2.0120256810687846E8 ; 1.1734493671907468E8 ; 9.42870169915883E9 ; 0.0
56 ; 2446806.8897187025 ; 2.0121613081287777E8 ; 1.197883080044447E8 ; 9.629904267265709E9 ; 0.0
57 ; 2448902.8642044677 ; 2.0122977122225815E8 ; 1.222351148941634E8 ; 9.831120398078587E9 ; 0.0
58 ; 2453484.1388934534 ; 2.0124348494868365E8 ; 1.2468401775836787E8 ; 1.0032350169300844E10 ; 0.0
59 ; 2453842.256282435 ; 2.012572678193286E8 ; 1.2713750189726132E8 ; 1.0233593654249527E10 ; 0.0
60 ; 2458373.3907090854 ; 2.0127111586294428E8 ; 1.2959134415354376E8 ; 1.0434850922068855E10 ; 0.0
61 ; 2459687.9321324886 ; 2.0128502529854473E8 ; 1.3204971754425284E8 ; 1.0636122037931799E10 ; 0.0
62 ; 2466695.982993096 ; 2.0129899252469608E8 ; 1.3450940547638533E8 ; 1.0837407063230343E10 ; 0.0
63 ; 2464019.022134271 ; 2.0131301410938907E8 ; 1.3697610145937842E8 ; 1.103870605575504E10 ; 0.0
64 ; 2469345.336885561 ; 2.0132708678047413E8 ; 1.394401204815127E8 ; 1.1240019069864428E10 ; 0.0
65 ; 2468238.4119979423 ; 2.0134120741663525E8 ; 1.4190946581839827E8 ; 1.1441346156644901E10 ; 0.0
66 ; 2471746.569889735 ; 2.0135537303887972E8 ; 1.443777042303962E8 ; 1.1642687364061537E10 ; 0.0
67 ; 2472842.6332288194 ; 2.0136958080251887E8 ; 1.4684945080028594E8 ; 1.1844042737100416E10 ; 0.0
68 ; 2477482.307757824 ; 2.0138382798961583E8 ; 1.4932229343351474E8 ; 1.2045412317902935E10 ; 0.0
69 ; 2479592.838578831 ; 2.0139811200187662E8 ; 1.5179977574127257E8 ; 1.2246796145892551E10 ; 0.0
70 ; 2480075.0452037374 ; 2.014124303539604E8 ; 1.542793685798514E8 ; 1.2448194257894428E10 ; 0.0
71 ; 2482045.8742129966 ; 2.0142678066718626E8 ; 1.5675944362505513E8 ; 1.2649606688248388E10 ; 0.0
72 ; 2484786.6061997577 ; 2.0144116066361445E8 ; 1.5924148949926814E8 ; 1.2851033468915575E10 ; 0.0
73 ; 2489769.716868537 ; 2.0145556816048035E8 ; 1.6172627610546792E8 ; 1.305247462957919E10 ; 0.0
74 ; 2487477.4471640363 ; 2.0147000106496078E8 ; 1.6421604582233647E8 ; 1.325393019773967E10 ; 0.0
75 ; 2491410.364581366 ; 2.0148445736925313E8 ; 1.667035232695005E8 ; 1.345540019880463E10 ; 0.0
76 ; 2493171.0022599935 ; 2.0149893514594835E8 ; 1.6919493363408187E8 ; 1.3656884656173883E10 ; 0.0
77 ; 2491819.186275599 ; 2.015134325436807E8 ; 1.7168810463634187E8 ; 1.3858383591319832E10 ; 0.0
78 ; 2492099.7816211525 ; 2.0152794778303644E8 ; 1.7417992382261747E8 ; 1.4059897023863512E10 ; 0.0
79 ; 2490838.7770593623 ; 2.015424791527067E8 ; 1.7667202360423863E8 ; 1.426142497164655E10 ; 0.0
80 ; 2488983.7639359212 ; 2.0155702500586885E8 ; 1.79162862381298E8 ; 1.4462967450799255E10 ; 0.0
81 ; 2488791.069684954 ; 2.0157158375678205E8 ; 1.8165184614523393E8 ; 1.4664524475805124E10 ; 0.0
82 ; 2490583.5783856562 ; 2.0158615387758476E8 ; 1.8414063721491888E8 ; 1.4866096059561907E10 ; 0.0
83 ; 2489794.8404015666 ; 2.0160073389528015E8 ; 1.8663122079330453E8 ; 1.5067682213439491E10 ; 0.0
84 ; 2486771.30955905 ; 2.0161532238889924E8 ; 1.891210156337061E8 ; 1.5269282947334772E10 ; 0.0
85 ; 2483350.3627628516 ; 2.016299179868293E8 ; 1.9160778694326514E8 ; 1.5470898269723671E10 ; 0.0
86 ; 2485379.2740331176 ; 2.0164451936429858E8 ; 1.9409113730602798E8 ; 1.56725281877105E10 ; 0.0
87 ; 2484287.821562746 ; 2.0165912524100626E8 ; 1.965765165800611E8 ; 1.5874172707074799E10 ; 0.0
88 ; 2479873.087636203 ; 2.0167373437888974E8 ; 1.9906080440162385E8 ; 1.6075831832315805E10 ; 0.0
89 ; 2481161.7508713477 ; 2.016883455800202E8 ; 2.0154067748926005E8 ; 1.6277505566694695E10 ; 0.0
90 ; 2480863.547516272 ; 2.0170295768461815E8 ; 2.040218392401314E8 ; 1.6479193912274715E10 ; 0.0
91 ; 2477336.216206306 ; 2.0171756956918254E8 ; 2.065027027876477E8 ; 1.6680896869959333E10 ; 0.0
92 ; 2476737.578634707 ; 2.017321801447252E8 ; 2.08980039003854E8 ; 1.6882614439528517E10 ; 0.0
93 ; 2474954.271647299 ; 2.017467883551052E8 ; 2.1145677658248872E8 ; 1.7084346619673243E10 ; 0.0
94 ; 2475658.5149411685 ; 2.017613931754561E8 ; 2.1393173085413602E8 ; 1.7286093408028347E10 ; 0.0
95 ; 2472150.404607071 ; 2.0177599361070135E8 ; 2.1640738936907718E8 ; 1.7487854801203804E10 ; 0.0
96 ; 2467433.5898050372 ; 2.0179058869415137E8 ; 2.1887953977368423E8 ; 1.7689630794814507E10 ; 0.0
97 ; 2468954.771917271 ; 2.0180517748617834E8 ; 2.2134697336348927E8 ; 1.789142138350866E10 ; 0.0
98 ; 2467387.4727341966 ; 2.0181975907296348E8 ; 2.2381592813540655E8 ; 1.809322656099484E10 ; 0.0
99 ; 2463521.0648652194 ; 2.018343325653125E8 ; 2.2628331560814074E8 ; 1.8295046320067802E10 ; 0.0
100 ; 2463411.2980866525 ; 2.0184889709753516E8 ; 2.2874683667300597E8 ; 1.8496880652633114E10 ; 0.0
101 ; 2463124.340802238 ; 2.0186345182638538E8 ; 2.312102479710926E8 ; 1.8698729549730648E10 ; 0.0
102 ; 2458102.658741948 ; 2.018779959300578E8 ; 2.3367337231189486E8 ; 1.8900593001557034E10 ; 0.0
103 ; 2457601.1631122874 ; 2.0189252860723782E8 ; 2.361314749706368E8 ; 1.910247099748709E10 ; 0.0
104 ; 2455924.776595898 ; 2.0190704907620198E8 ; 2.385890761337491E8 ; 1.930436352609433E10 ; 0.0
105 ; 2453290.430301087 ; 2.0192155657396546E8 ; 2.41045000910345E8 ; 1.9506270575170532E10 ; 0.0
106 ; 2450914.2816536045 ; 2.0193605035547426E8 ; 2.434982913406461E8 ; 1.97081921317445E10 ; 0.0
107 ; 2447983.374038881 ; 2.0195052969283915E8 ; 2.459492056222997E8 ; 1.991012818209997E10 ; 0.0
108 ; 2445162.0201620297 ; 2.0196499387460944E8 ; 2.4839718899633858E8 ; 2.0112078711792812E10 ; 0.0
109 ; 2443622.9061661 ; 2.019794422050838E8 ; 2.508423510165006E8 ; 2.0314043705667423E10 ; 0.0
110 ; 2441081.852521119 ; 2.0199387400365612E8 ; 2.532859739226667E8 ; 2.0516023147872505E10 ; 0.0
111 ; 2438740.815923985 ; 2.0200828860419506E8 ; 2.5572705577518782E8 ; 2.071801702187616E10 ; 0.0
112 ; 2437412.7690075734 ; 2.020226853544541E8 ; 2.581657965911118E8 ; 2.0920025310480354E10 ; 0.0
113 ; 2435226.8046626374 ; 2.020370636155118E8 ; 2.6060320936011937E8 ; 2.112204799583481E10 ; 0.0
114 ; 2432340.6294602784 ; 2.020514227612396E8 ; 2.6303843616478202E8 ; 2.132408505945032E10 ; 0.0
115 ; 2428933.0139978165 ; 2.020657621777958E8 ; 2.654707767942423E8 ; 2.152613648221156E10 ; 0.0
116 ; 2426005.7090141266 ; 2.0208008126314506E8 ; 2.6789970980824012E8 ; 2.1728202244389355E10 ; 0.0
117 ; 2422691.0989461797 ; 2.0209437942660058E8 ; 2.7032571551725423E8 ; 2.19302823256525E10 ; 0.0
118 ; 2423168.772742599 ; 2.021086560883891E8 ; 2.727484066162004E8 ; 2.21323767050791E10 ; 0.0
119 ; 2418804.039453278 ; 2.0212291067923677E8 ; 2.7517157538894296E8 ; 2.2334485361167492E10 ; 0.0
120 ; 2413499.9092357336 ; 2.021371426399748E8 ; 2.775903794283962E8 ; 2.253660827184673E10 ; 0.0
121 ; 2411447.3142680614 ; 2.0215135142116413E8 ; 2.8000387933763194E8 ; 2.2738745414486706E10 ; 0.0
122 ; 2405766.584530345 ; 2.021655364827377E8 ; 2.824153266519E8 ; 2.294089676590787E10 ; 0.0
123 ; 2403056.8014603253 ; 2.0217969729365978E8 ; 2.8482109323643035E8 ; 2.314306230239061E10 ; 0.0
124 ; 2401686.6377418414 ; 2.0219383333160126E8 ; 2.872241500378907E8 ; 2.334524199968427E10 ; 0.0
125 ; 2399459.358468645 ; 2.0220794408262995E8 ; 2.8962583667563254E8 ; 2.354743583301587E10 ; 0.0
126 ; 2398453.9910418354 ; 2.0222202904091552E8 ; 2.920252960341012E8 ; 2.37496437770985E10 ; 0.0
127 ; 2395413.500560579 ; 2.022360877084477E8 ; 2.94423750025143E8 ; 2.3951865806139416E10 ; 0.0
128 ; 2386645.9795373166 ; 2.0225011959476775E8 ; 2.968191635257036E8 ; 2.4154101893847862E10 ; 0.0
129 ; 2389669.467631536 ; 2.022641242167119E8 ; 2.992058095052409E8 ; 2.435635201344263E10 ; 0.0
130 ; 2381146.0634070425 ; 2.0227810109816664E8 ; 3.0159547897287244E8 ; 2.4558616137659344E10 ; 0.0
131 ; 2378344.855448608 ; 2.0229204976983494E8 ; 3.039766250362795E8 ; 2.476089423875751E10 ; 0.0
132 ; 2366777.24514311 ; 2.0230596976901293E8 ; 3.063549698917281E8 ; 2.4963186288527348E10 ; 0.0
133 ; 2362771.698077482 ; 2.0231986063937673E8 ; 3.087217471368712E8 ; 2.516549225829636E10 ; 0.0
134 ; 2359930.009839576 ; 2.023337219307785E8 ; 3.110845188349487E8 ; 2.5367812118935738E10 ; 0.0
135 ; 2353806.602396424 ; 2.0234755319905162E8 ; 3.134444488447883E8 ; 2.5570145840866516E10 ; 0.0
136 ; 2345508.2993695294 ; 2.0236135400582454E8 ; 3.1579825544718474E8 ; 2.5772493394065567E10 ; 0.0
137 ; 2338932.782917984 ; 2.0237512391834244E8 ; 3.1814376374655426E8 ; 2.5974854748071392E10 ; 0.0
138 ; 2329201.712799864 ; 2.0238886250929713E8 ; 3.2048269652947223E8 ; 2.6177229871989735E10 ; 0.0
139 ; 2326637.65621121 ; 2.0240256935666376E8 ; 3.228118982422721E8 ; 2.637961873449903E10 ; 0.0
140 ; 2321113.0761850937 ; 2.0241624404354507E8 ; 3.251385358984833E8 ; 2.6582021303855694E10 ; 0.0
141 ; 2313209.561471423 ; 2.0242988615802184E8 ; 3.274596489746684E8 ; 2.678443754789924E10 ; 0.0
142 ; 2308557.521220759 ; 2.0244349529301018E8 ; 3.297728585361398E8 ; 2.698686743405726E10 ; 0.0
143 ; 2297242.208931872 ; 2.024570710461245E8 ; 3.3208141605736053E8 ; 2.718931092935027E10 ; 0.0
144 ; 2293180.684297095 ; 2.0247061301954642E8 ; 3.343786582662924E8 ; 2.7391768000396393E10 ; 0.0
145 ; 2292672.161364523 ; 2.024841208198993E8 ; 3.366718389505895E8 ; 2.759423861341594E10 ; 0.0
146 ; 2287456.542463859 ; 2.0249759405812773E8 ; 3.38964511111954E8 ; 2.779672273423584E10 ; 0.0
147 ; 2282580.8619988626 ; 2.0251103234938234E8 ; 3.412519676544178E8 ; 2.799922032829397E10 ; 0.0
148 ; 2281611.338959282 ; 2.0252443531290916E8 ; 3.4353454851641667E8 ; 2.820173136064335E10 ; 0.0
149 ; 2274392.0018217675 ; 2.0253780257194373E8 ; 3.4581615985537595E8 ; 2.8404255795956257E10 ; 0.0
150 ; 2271141.5448090215 ; 2.0255113375360936E8 ; 3.480905518571977E8 ; 2.8606793598528202E10 ; 0.0
151 ; 2270905.6572542577 ; 2.0256442848881984E8 ; 3.5036169340200675E8 ; 2.880934473228181E10 ; 0.0
152 ; 2264467.950016369 ; 2.025776864121857E8 ; 3.52632599059261E8 ; 2.901190916077063E10 ; 0.0
153 ; 2261972.4049656615 ; 2.0259090716192472E8 ; 3.548970670092774E8 ; 2.9214486847182816E10 ; 0.0
154 ; 2256735.6580705387 ; 2.0260409037977576E8 ; 3.5715903941424304E8 ; 2.941707775434474E10 ; 0.0
155 ; 2254287.535923699 ; 2.026172357109162E8 ; 3.594157750723136E8 ; 2.9619681844724518E10 ; 0.0
156 ; 2249089.6787937847 ; 2.0263034280388248E8 ; 3.616700626082373E8 ; 2.9822299080435432E10 ; 0.0
157 ; 2247368.385834897 ; 2.0264341131049424E8 ; 3.639191522870311E8 ; 3.0024929423239315E10 ; 0.0
158 ; 2244077.8970751856 ; 2.0265644088578102E8 ; 3.66166520672866E8 ; 3.022757283454981E10 ; 0.0
159 ; 2241728.405142556 ; 2.026694311879121E8 ; 3.6841059856994116E8 ; 3.043022927543559E10 ; 0.0
160 ; 2236325.8546264595 ; 2.026823818781291E8 ; 3.706523269750837E8 ; 3.06328987066235E10 ; 0.0
161 ; 2233165.2461200915 ; 2.0269529262068117E8 ; 3.728886528297102E8 ; 3.083558108850163E10 ; 0.0
162 ; 2227979.8143467754 ; 2.0270816308276284E8 ; 3.751218180758303E8 ; 3.103827638112231E10 ; 0.0
163 ; 2221756.738259524 ; 2.027209929344541E8 ; 3.773497978901771E8 ; 3.1240984544205074E10 ; 0.0
164 ; 2221369.241048194 ; 2.0273378184866312E8 ; 3.7957155462843657E8 ; 3.144370553713953E10 ; 0.0
165 ; 2215755.687518749 ; 2.027465295010708E8 ; 3.817929238694848E8 ; 3.1646439318988194E10 ; 0.0
166 ; 2209067.928765279 ; 2.0275923557007778E8 ; 3.8400867955700356E8 ; 3.1849185848489265E10 ; 0.0
167 ; 2206640.0031828904 ; 2.0277189973675346E8 ; 3.8621774748576885E8 ; 3.205194508405934E10 ; 0.0
168 ; 2203949.800246984 ; 2.0278452168478686E8 ; 3.8842438748895174E8 ; 3.2254716983796097E10 ; 0.0
169 ; 2198980.25283668 ; 2.0279710110043943E8 ; 3.9062833728919876E8 ; 3.2457501505480885E10 ; 0.0
170 ; 2196885.689962097 ; 2.028096376724997E8 ; 3.9282731754203546E8 ; 3.2660298606581326E10 ; 0.0
171 ; 2193223.412314359 ; 2.028221310922396E8 ; 3.9502420323199755E8 ; 3.2863108244253826E10 ; 0.0
172 ; 2188165.473906775 ; 2.028345810533725E8 ; 3.972174266443119E8 ; 3.3065930375346066E10 ; 0.0
173 ; 2184494.45260926 ; 2.0284698725201285E8 ; 3.9940559211821866E8 ; 3.3268764956399437E10 ; 0.0
174 ; 2180711.843776055 ; 2.028593493866373E8 ; 4.015900865708279E8 ; 3.347161194365145E10 ; 0.0
175 ; 2177649.1840699804 ; 2.028716671580473E8 ; 4.0377079841460395E8 ; 3.367447129303809E10 ; 0.0
176 ; 2175024.8102368484 ; 2.0288394026933315E8 ; 4.0594844759867394E8 ; 3.3877342960196136E10 ; 0.0
177 ; 2173060.565607196 ; 2.0289616842583945E8 ; 4.081234724089108E8 ; 3.408022690046547E10 ; 0.0
178 ; 2168546.909663927 ; 2.029083513351317E8 ; 4.10296532974518E8 ; 3.4283123068891308E10 ; 0.0
179 ; 2165871.298825028 ; 2.0292048870696425E8 ; 4.124650798841819E8 ; 3.448603142022644E10 ; 0.0
180 ; 2163948.739539321 ; 2.0293258025324956E8 ; 4.1463095118300694E8 ; 3.46889519089334E10 ; 0.0
181 ; 2159752.1743245814 ; 2.0294462568802834E8 ; 4.1679489992254627E8 ; 3.489188448918665E10 ; 0.0
182 ; 2159109.8919934123 ; 2.029566247274411E8 ; 4.1895465209687084E8 ; 3.509482911487468E10 ; 0.0
183 ; 2156459.277586482 ; 2.029685770897006E8 ; 4.2111376198886424E8 ; 3.529778573960212E10 ; 0.0
184 ; 2155518.277235437 ; 2.029804824950653E8 ; 4.232702212664507E8 ; 3.550075431669182E10 ; 0.0
185 ; 2149282.329051042 ; 2.029923406658139E8 ; 4.2542573954368615E8 ; 3.570373479918688E10 ; 0.0
186 ; 2146856.3247922813 ; 2.0300415132622084E8 ; 4.2757502187273717E8 ; 3.59067271398527E10 ; 0.0
187 ; 2142949.306647766 ; 2.0301591420253253E8 ; 4.2972187819752944E8 ; 3.610973129117892E10 ; 0.0
188 ; 2140757.224182841 ; 2.0302762902294478E8 ; 4.318648275041772E8 ; 3.631274720538145E10 ; 0.0
189 ; 2138725.654269856 ; 2.0303929551758072E8 ; 4.3400558472836006E8 ; 3.651577483440439E10 ; 0.0
190 ; 2135128.480785747 ; 2.0305091341846976E8 ; 4.3614431038262993E8 ; 3.671881412992197E10 ; 0.0
191 ; 2132447.401391792 ; 2.0306248245952734E8 ; 4.3827943886341566E8 ; 3.692186504334044E10 ; 0.0
192 ; 2129609.2617569556 ; 2.0307400237653527E8 ; 4.4041188626480746E8 ; 3.7124927525799965E10 ; 0.0
193 ; 2124105.9595191125 ; 2.0308547290712297E8 ; 4.425414955265644E8 ; 3.73280015281765E10 ; 0.0
194 ; 2121605.062204189 ; 2.030968937907493E8 ; 4.446656014860835E8 ; 3.753108700108362E10 ; 0.0
195 ; 2121515.2339933324 ; 2.0310826476868525E8 ; 4.467872065482877E8 ; 3.773418389487437E10 ; 0.0
196 ; 2116482.423268769 ; 2.031195855839968E8 ; 4.4890872178228104E8 ; 3.793729215964305E10 ; 0.0
197 ; 2113991.5356703806 ; 2.031308559815291E8 ; 4.5102520420554984E8 ; 3.814041174522705E10 ; 0.0
198 ; 2113822.5583247924 ; 2.0314207570789072E8 ; 4.5313919574122024E8 ; 3.834354260120858E10 ; 0.0
199 ; 2108966.6245647613 ; 2.0315324451143864E8 ; 4.5525301829954505E8 ; 3.854668467691647E10 ; 0.0
200 ; 2103676.071733133 ; 2.031643621422639E8 ; 4.573619849241098E8 ; 3.874983792142791E10 ; 0.0
