CSV File for the City 5 on Day 6
1 - Minute m 
2 - Power Consumed at minute m 
3 - Power Produced at minute m 
4 - Energy Consumed since the beginning of the day 
5 - Energy Produced since the beginning of the day 
6 - Energy Lost since the beginning of the day on lines starting from the city
 
0 ; 8488235.664418763 ; 1.012636704410717E7 ; 0.0 ; 0.0 ; 0.0
1 ; 8498217.386146624 ; 1.012636704410717E7 ; 8488235.664418763 ; 1.012636704410717E7 ; 0.0
2 ; 8506114.737564553 ; 1.012636704410717E7 ; 1.6986453050565384E7 ; 2.025273408821434E7 ; 0.0
3 ; 8518858.607728155 ; 1.012636704410717E7 ; 2.5492567788129937E7 ; 3.0379101132321514E7 ; 0.0
4 ; 8528356.872172039 ; 1.012636704410717E7 ; 3.4011426395858094E7 ; 4.050546817642868E7 ; 0.0
5 ; 8543963.358080652 ; 1.012636704410717E7 ; 4.253978326803014E7 ; 5.063183522053585E7 ; 0.0
6 ; 8562981.038329452 ; 1.012636704410717E7 ; 5.108374662611079E7 ; 6.075820226464302E7 ; 0.0
7 ; 8595590.734890494 ; 1.012636704410717E7 ; 5.9646727664440244E7 ; 7.08845693087502E7 ; 0.0
8 ; 8634440.739264304 ; 1.012636704410717E7 ; 6.824231839933074E7 ; 8.101093635285737E7 ; 0.0
9 ; 8697552.684693573 ; 1.012636704410717E7 ; 7.687675913859504E7 ; 9.113730339696454E7 ; 0.0
10 ; 8797885.546825442 ; 1.012636704410717E7 ; 8.557431182328862E7 ; 1.012636704410717E8 ; 0.0
11 ; 8949707.765740972 ; 1.012636704410717E7 ; 9.437219737011406E7 ; 1.1139003748517887E8 ; 0.0
12 ; 9201971.233296402 ; 1.012636704410717E7 ; 1.0332190513585503E8 ; 1.2151640452928604E8 ; 0.0
13 ; 9439672.716668047 ; 1.012636704410717E7 ; 1.1252387636915144E8 ; 1.3164277157339321E8 ; 0.0
14 ; 9465733.894578997 ; 1.012636704410717E7 ; 1.2196354908581948E8 ; 1.417691386175004E8 ; 0.0
15 ; 9478379.041927444 ; 1.012636704410717E7 ; 1.3142928298039848E8 ; 1.5189550566160756E8 ; 0.0
16 ; 9489183.903661797 ; 1.012636704410717E7 ; 1.4090766202232593E8 ; 1.6202187270571473E8 ; 0.0
17 ; 9500223.718997736 ; 1.012636704410717E7 ; 1.5039684592598772E8 ; 1.721482397498219E8 ; 0.0
18 ; 9508669.893948684 ; 1.012636704410717E7 ; 1.5989706964498547E8 ; 1.8227460679392907E8 ; 0.0
19 ; 9521181.856406031 ; 1.012636704410717E7 ; 1.6940573953893414E8 ; 1.9240097383803624E8 ; 0.0
20 ; 9535979.861195022 ; 1.012636704410717E7 ; 1.7892692139534017E8 ; 2.025273408821434E8 ; 0.0
21 ; 9546285.824797275 ; 1.012636704410717E7 ; 1.884629012565352E8 ; 2.1265370792625058E8 ; 0.0
22 ; 9557098.336556753 ; 1.012636704410717E7 ; 1.9800918708133247E8 ; 2.2278007497035775E8 ; 0.0
23 ; 9568469.306819756 ; 1.012636704410717E7 ; 2.0756628541788924E8 ; 2.329064420144649E8 ; 0.0
24 ; 9576836.022797048 ; 1.012636704410717E7 ; 2.17134754724709E8 ; 2.4303280905857208E8 ; 0.0
25 ; 9590202.980000969 ; 1.012636704410717E7 ; 2.2671159074750605E8 ; 2.5315917610267925E8 ; 0.0
26 ; 9601627.618031893 ; 1.012636704410717E7 ; 2.3630179372750703E8 ; 2.6328554314678642E8 ; 0.0
27 ; 9612551.780024974 ; 1.012636704410717E7 ; 2.459034213455389E8 ; 2.734119101908936E8 ; 0.0
28 ; 9622083.141807029 ; 1.012636704410717E7 ; 2.555159731255639E8 ; 2.835382772350008E8 ; 0.0
29 ; 9633600.268661244 ; 1.012636704410717E7 ; 2.651380562673709E8 ; 2.93664644279108E8 ; 0.0
30 ; 9644210.475905498 ; 1.012636704410717E7 ; 2.7477165653603214E8 ; 3.037910113232152E8 ; 0.0
31 ; 9655681.236176163 ; 1.012636704410717E7 ; 2.844158670119376E8 ; 3.139173783673224E8 ; 0.0
32 ; 9665941.643550945 ; 1.012636704410717E7 ; 2.9407154824811375E8 ; 3.240437454114296E8 ; 0.0
33 ; 9672924.390441075 ; 1.012636704410717E7 ; 3.037374898916647E8 ; 3.341701124555368E8 ; 0.0
34 ; 9681473.726966275 ; 1.012636704410717E7 ; 3.1341041428210574E8 ; 3.44296479499644E8 ; 0.0
35 ; 9690669.07863259 ; 1.012636704410717E7 ; 3.23091888009072E8 ; 3.544228465437512E8 ; 0.0
36 ; 9699653.12679893 ; 1.012636704410717E7 ; 3.327825570877046E8 ; 3.645492135878584E8 ; 0.0
37 ; 9710630.761047356 ; 1.012636704410717E7 ; 3.424822102145035E8 ; 3.746755806319656E8 ; 0.0
38 ; 9719360.270505099 ; 1.012636704410717E7 ; 3.521928409755509E8 ; 3.848019476760728E8 ; 0.0
39 ; 9726535.547560787 ; 1.012636704410717E7 ; 3.6191220124605596E8 ; 3.9492831472018E8 ; 0.0
40 ; 9732680.149033198 ; 1.012636704410717E7 ; 3.716387367936168E8 ; 4.050546817642872E8 ; 0.0
41 ; 9742428.614463227 ; 1.012636704410717E7 ; 3.8137141694264996E8 ; 4.151810488083944E8 ; 0.0
42 ; 9749417.495335614 ; 1.012636704410717E7 ; 3.911138455571132E8 ; 4.253074158525016E8 ; 0.0
43 ; 9755857.218614032 ; 1.012636704410717E7 ; 4.008632630524488E8 ; 4.3543378289660877E8 ; 0.0
44 ; 9759465.745595362 ; 1.012636704410717E7 ; 4.1061912027106285E8 ; 4.4556014994071597E8 ; 0.0
45 ; 9765713.315465268 ; 1.012636704410717E7 ; 4.203785860166582E8 ; 4.5568651698482317E8 ; 0.0
46 ; 9768235.530216374 ; 1.012636704410717E7 ; 4.3014429933212346E8 ; 4.6581288402893037E8 ; 0.0
47 ; 9775263.505817 ; 1.012636704410717E7 ; 4.3991253486233985E8 ; 4.7593925107303756E8 ; 0.0
48 ; 9777349.7151726 ; 1.012636704410717E7 ; 4.4968779836815685E8 ; 4.8606561811714476E8 ; 0.0
49 ; 9782756.650659047 ; 1.012636704410717E7 ; 4.5946514808332944E8 ; 4.9619198516125196E8 ; 0.0
50 ; 9782523.117239203 ; 1.012636704410717E7 ; 4.6924790473398846E8 ; 5.0631835220535916E8 ; 0.0
51 ; 9787080.713498155 ; 1.012636704410717E7 ; 4.7903042785122764E8 ; 5.1644471924946636E8 ; 0.0
52 ; 9789741.707409754 ; 1.012636704410717E7 ; 4.888175085647258E8 ; 5.2657108629357356E8 ; 0.0
53 ; 9794921.343099367 ; 1.012636704410717E7 ; 4.9860725027213556E8 ; 5.3669745333768076E8 ; 0.0
54 ; 9799159.80554476 ; 1.012636704410717E7 ; 5.084021716152349E8 ; 5.468238203817879E8 ; 0.0
55 ; 9800826.700289067 ; 1.012636704410717E7 ; 5.1820133142077965E8 ; 5.569501874258951E8 ; 0.0
56 ; 9799468.651729584 ; 1.012636704410717E7 ; 5.280021581210687E8 ; 5.670765544700023E8 ; 0.0
57 ; 9806928.509445647 ; 1.012636704410717E7 ; 5.378016267727983E8 ; 5.772029215141095E8 ; 0.0
58 ; 9805411.05156878 ; 1.012636704410717E7 ; 5.47608555282244E8 ; 5.873292885582167E8 ; 0.0
59 ; 9808290.89153886 ; 1.012636704410717E7 ; 5.574139663338127E8 ; 5.974556556023239E8 ; 0.0
60 ; 9808946.384461837 ; 1.012636704410717E7 ; 5.672222572253516E8 ; 6.075820226464311E8 ; 0.0
61 ; 9814235.835887881 ; 1.012636704410717E7 ; 5.770312036098135E8 ; 6.177083896905383E8 ; 0.0
62 ; 9810154.19022658 ; 1.012636704410717E7 ; 5.868454394457014E8 ; 6.278347567346455E8 ; 0.0
63 ; 9814797.5206104 ; 1.012636704410717E7 ; 5.966555936359279E8 ; 6.379611237787527E8 ; 0.0
64 ; 9817330.311397238 ; 1.012636704410717E7 ; 6.064703911565384E8 ; 6.480874908228599E8 ; 0.0
65 ; 9820330.45849974 ; 1.012636704410717E7 ; 6.162877214679356E8 ; 6.582138578669671E8 ; 0.0
66 ; 9820266.04895022 ; 1.012636704410717E7 ; 6.261080519264354E8 ; 6.683402249110743E8 ; 0.0
67 ; 9821319.687777402 ; 1.012636704410717E7 ; 6.359283179753855E8 ; 6.784665919551815E8 ; 0.0
68 ; 9822424.387242189 ; 1.012636704410717E7 ; 6.45749637663163E8 ; 6.885929589992887E8 ; 0.0
69 ; 9822458.543638539 ; 1.012636704410717E7 ; 6.555720620504051E8 ; 6.987193260433959E8 ; 0.0
70 ; 9822956.231490664 ; 1.012636704410717E7 ; 6.653945205940437E8 ; 7.088456930875031E8 ; 0.0
71 ; 9824712.254304772 ; 1.012636704410717E7 ; 6.752174768255343E8 ; 7.189720601316103E8 ; 0.0
72 ; 9826742.082846614 ; 1.012636704410717E7 ; 6.850421890798391E8 ; 7.290984271757175E8 ; 0.0
73 ; 9826594.399404872 ; 1.012636704410717E7 ; 6.948689311626858E8 ; 7.392247942198247E8 ; 0.0
74 ; 9830589.956230246 ; 1.012636704410717E7 ; 7.046955255620906E8 ; 7.493511612639319E8 ; 0.0
75 ; 9824734.601381183 ; 1.012636704410717E7 ; 7.145261155183209E8 ; 7.594775283080391E8 ; 0.0
76 ; 9828884.400389146 ; 1.012636704410717E7 ; 7.243508501197021E8 ; 7.696038953521463E8 ; 0.0
77 ; 9834165.040333161 ; 1.012636704410717E7 ; 7.341797345200913E8 ; 7.797302623962535E8 ; 0.0
78 ; 9825963.114478758 ; 1.012636704410717E7 ; 7.440138995604244E8 ; 7.898566294403607E8 ; 0.0
79 ; 9824669.552441098 ; 1.012636704410717E7 ; 7.538398626749032E8 ; 7.999829964844679E8 ; 0.0
80 ; 9822670.36796733 ; 1.012636704410717E7 ; 7.636645322273443E8 ; 8.101093635285751E8 ; 0.0
81 ; 9817988.884332426 ; 1.012636704410717E7 ; 7.734872025953116E8 ; 8.202357305726823E8 ; 0.0
82 ; 9818037.089598794 ; 1.012636704410717E7 ; 7.833051914796441E8 ; 8.303620976167895E8 ; 0.0
83 ; 9814036.69826303 ; 1.012636704410717E7 ; 7.931232285692428E8 ; 8.404884646608967E8 ; 0.0
84 ; 9811558.161878364 ; 1.012636704410717E7 ; 8.029372652675059E8 ; 8.506148317050039E8 ; 0.0
85 ; 9804122.624365138 ; 1.012636704410717E7 ; 8.127488234293842E8 ; 8.60741198749111E8 ; 0.0
86 ; 9803501.174705774 ; 1.012636704410717E7 ; 8.225529460537493E8 ; 8.708675657932183E8 ; 0.0
87 ; 9798902.896996547 ; 1.012636704410717E7 ; 8.323564472284551E8 ; 8.809939328373255E8 ; 0.0
88 ; 9798320.418680651 ; 1.012636704410717E7 ; 8.421553501254516E8 ; 8.911202998814327E8 ; 0.0
89 ; 9791665.326744663 ; 1.012636704410717E7 ; 8.519536705441322E8 ; 9.012466669255399E8 ; 0.0
90 ; 9789384.05801424 ; 1.012636704410717E7 ; 8.617453358708769E8 ; 9.11373033969647E8 ; 0.0
91 ; 9787089.41738953 ; 1.012636704410717E7 ; 8.715347199288912E8 ; 9.214994010137542E8 ; 0.0
92 ; 9781533.64675887 ; 1.012636704410717E7 ; 8.813218093462807E8 ; 9.316257680578614E8 ; 0.0
93 ; 9777381.700612096 ; 1.012636704410717E7 ; 8.911033429930396E8 ; 9.417521351019686E8 ; 0.0
94 ; 9774048.848897954 ; 1.012636704410717E7 ; 9.008807246936517E8 ; 9.518785021460758E8 ; 0.0
95 ; 9768480.794014392 ; 1.012636704410717E7 ; 9.106547735425496E8 ; 9.62004869190183E8 ; 0.0
96 ; 9766013.918870708 ; 1.012636704410717E7 ; 9.20423254336564E8 ; 9.721312362342902E8 ; 0.0
97 ; 9761159.635519603 ; 1.012636704410717E7 ; 9.301892682554346E8 ; 9.822576032783974E8 ; 0.0
98 ; 9757809.99650662 ; 1.012636704410717E7 ; 9.399504278909543E8 ; 9.923839703225046E8 ; 0.0
99 ; 9753104.60776054 ; 1.012636704410717E7 ; 9.497082378874608E8 ; 1.0025103373666118E9 ; 0.0
100 ; 9748794.995138405 ; 1.012636704410717E7 ; 9.594613424952214E8 ; 1.012636704410719E9 ; 0.0
101 ; 9741364.553061279 ; 1.012636704410717E7 ; 9.692101374903598E8 ; 1.0227630714548262E9 ; 0.0
102 ; 9734530.872400114 ; 1.012636704410717E7 ; 9.78951502043421E8 ; 1.0328894384989334E9 ; 0.0
103 ; 9732880.762880381 ; 1.012636704410717E7 ; 9.886860329158212E8 ; 1.0430158055430406E9 ; 0.0
104 ; 9728266.267943759 ; 1.012636704410717E7 ; 9.984189136787015E8 ; 1.0531421725871478E9 ; 0.0
105 ; 9723881.603294335 ; 1.012636704410717E7 ; 1.0081471799466453E9 ; 1.063268539631255E9 ; 0.0
106 ; 9715595.125682479 ; 1.012636704410717E7 ; 1.0178710615499396E9 ; 1.0733949066753622E9 ; 0.0
107 ; 9709590.88314937 ; 1.012636704410717E7 ; 1.0275866566756221E9 ; 1.0835212737194693E9 ; 0.0
108 ; 9705845.677349245 ; 1.012636704410717E7 ; 1.0372962475587715E9 ; 1.0936476407635765E9 ; 0.0
109 ; 9701019.6399797 ; 1.012636704410717E7 ; 1.0470020932361207E9 ; 1.1037740078076837E9 ; 0.0
110 ; 9694713.0440734 ; 1.012636704410717E7 ; 1.0567031128761004E9 ; 1.113900374851791E9 ; 0.0
111 ; 9689380.715476664 ; 1.012636704410717E7 ; 1.0663978259201738E9 ; 1.124026741895898E9 ; 0.0
112 ; 9683726.722725231 ; 1.012636704410717E7 ; 1.0760872066356504E9 ; 1.1341531089400053E9 ; 0.0
113 ; 9679145.313390825 ; 1.012636704410717E7 ; 1.0857709333583755E9 ; 1.1442794759841125E9 ; 0.0
114 ; 9673567.356104748 ; 1.012636704410717E7 ; 1.0954500786717663E9 ; 1.1544058430282197E9 ; 0.0
115 ; 9666147.675475879 ; 1.012636704410717E7 ; 1.1051236460278711E9 ; 1.164532210072327E9 ; 0.0
116 ; 9657278.444029693 ; 1.012636704410717E7 ; 1.114789793703347E9 ; 1.174658577116434E9 ; 0.0
117 ; 9650310.085074838 ; 1.012636704410717E7 ; 1.1244470721473768E9 ; 1.1847849441605413E9 ; 0.0
118 ; 9647670.03362854 ; 1.012636704410717E7 ; 1.1340973822324517E9 ; 1.1949113112046485E9 ; 0.0
119 ; 9639611.598594481 ; 1.012636704410717E7 ; 1.1437450522660801E9 ; 1.2050376782487557E9 ; 0.0
120 ; 9633485.937791662 ; 1.012636704410717E7 ; 1.1533846638646746E9 ; 1.215164045292863E9 ; 0.0
121 ; 9626561.230625851 ; 1.012636704410717E7 ; 1.1630181498024662E9 ; 1.22529041233697E9 ; 0.0
122 ; 9619329.660195932 ; 1.012636704410717E7 ; 1.172644711033092E9 ; 1.2354167793810773E9 ; 0.0
123 ; 9611502.75900192 ; 1.012636704410717E7 ; 1.1822640406932878E9 ; 1.2455431464251845E9 ; 0.0
124 ; 9606010.967469992 ; 1.012636704410717E7 ; 1.1918755434522898E9 ; 1.2556695134692917E9 ; 0.0
125 ; 9599033.890144544 ; 1.012636704410717E7 ; 1.2014815544197598E9 ; 1.265795880513399E9 ; 0.0
126 ; 9592833.925405178 ; 1.012636704410717E7 ; 1.2110805883099043E9 ; 1.275922247557506E9 ; 0.0
127 ; 9585308.217951706 ; 1.012636704410717E7 ; 1.2206734222353096E9 ; 1.2860486146016133E9 ; 0.0
128 ; 9577428.232761513 ; 1.012636704410717E7 ; 1.2302587304532614E9 ; 1.2961749816457205E9 ; 0.0
129 ; 9569113.23050123 ; 1.012636704410717E7 ; 1.239836158686023E9 ; 1.3063013486898277E9 ; 0.0
130 ; 9561993.809002403 ; 1.012636704410717E7 ; 1.2494052719165242E9 ; 1.3164277157339349E9 ; 0.0
131 ; 9550438.56508151 ; 1.012636704410717E7 ; 1.2589672657255266E9 ; 1.326554082778042E9 ; 0.0
132 ; 9537793.859435381 ; 1.012636704410717E7 ; 1.2685177042906082E9 ; 1.3366804498221493E9 ; 0.0
133 ; 9527912.78107071 ; 1.012636704410717E7 ; 1.2780554981500435E9 ; 1.3468068168662565E9 ; 0.0
134 ; 9519536.017186677 ; 1.012636704410717E7 ; 1.2875834109311142E9 ; 1.3569331839103637E9 ; 0.0
135 ; 9505603.115231022 ; 1.012636704410717E7 ; 1.2971029469483008E9 ; 1.3670595509544709E9 ; 0.0
136 ; 9497569.67246277 ; 1.012636704410717E7 ; 1.3066085500635319E9 ; 1.377185917998578E9 ; 0.0
137 ; 9485244.00674739 ; 1.012636704410717E7 ; 1.3161061197359946E9 ; 1.3873122850426853E9 ; 0.0
138 ; 9475513.233039765 ; 1.012636704410717E7 ; 1.325591363742742E9 ; 1.3974386520867925E9 ; 0.0
139 ; 9463300.621703245 ; 1.012636704410717E7 ; 1.335066876975782E9 ; 1.4075650191308997E9 ; 0.0
140 ; 9449738.814242095 ; 1.012636704410717E7 ; 1.344530177597485E9 ; 1.4176913861750069E9 ; 0.0
141 ; 9437426.178325443 ; 1.012636704410717E7 ; 1.3539799164117272E9 ; 1.427817753219114E9 ; 0.0
142 ; 9430146.743928907 ; 1.012636704410717E7 ; 1.3634173425900526E9 ; 1.4379441202632213E9 ; 0.0
143 ; 9416698.570505206 ; 1.012636704410717E7 ; 1.3728474893339815E9 ; 1.4480704873073285E9 ; 0.0
144 ; 9407224.27202007 ; 1.012636704410717E7 ; 1.3822641879044867E9 ; 1.4581968543514357E9 ; 0.0
145 ; 9398819.16401719 ; 1.012636704410717E7 ; 1.3916714121765068E9 ; 1.4683232213955429E9 ; 0.0
146 ; 9386813.354569893 ; 1.012636704410717E7 ; 1.401070231340524E9 ; 1.47844958843965E9 ; 0.0
147 ; 9382634.478476007 ; 1.012636704410717E7 ; 1.4104570446950939E9 ; 1.4885759554837573E9 ; 0.0
148 ; 9373395.480238628 ; 1.012636704410717E7 ; 1.41983967917357E9 ; 1.4987023225278645E9 ; 0.0
149 ; 9368921.369641416 ; 1.012636704410717E7 ; 1.4292130746538086E9 ; 1.5088286895719717E9 ; 0.0
150 ; 9354254.504551712 ; 1.012636704410717E7 ; 1.43858199602345E9 ; 1.5189550566160789E9 ; 0.0
151 ; 9349433.435534151 ; 1.012636704410717E7 ; 1.4479362505280015E9 ; 1.529081423660186E9 ; 0.0
152 ; 9340212.190782791 ; 1.012636704410717E7 ; 1.4572856839635358E9 ; 1.5392077907042933E9 ; 0.0
153 ; 9331344.332134057 ; 1.012636704410717E7 ; 1.4666258961543186E9 ; 1.5493341577484004E9 ; 0.0
154 ; 9322924.834704434 ; 1.012636704410717E7 ; 1.4759572404864526E9 ; 1.5594605247925076E9 ; 0.0
155 ; 9312816.298227036 ; 1.012636704410717E7 ; 1.485280165321157E9 ; 1.5695868918366148E9 ; 0.0
156 ; 9307264.606154812 ; 1.012636704410717E7 ; 1.494592981619384E9 ; 1.579713258880722E9 ; 0.0
157 ; 9298320.422678765 ; 1.012636704410717E7 ; 1.503900246225539E9 ; 1.5898396259248292E9 ; 0.0
158 ; 9290221.551654363 ; 1.012636704410717E7 ; 1.5131985666482177E9 ; 1.5999659929689364E9 ; 0.0
159 ; 9283920.212929245 ; 1.012636704410717E7 ; 1.522488788199872E9 ; 1.6100923600130436E9 ; 0.0
160 ; 9273452.2127204 ; 1.012636704410717E7 ; 1.5317727084128013E9 ; 1.6202187270571508E9 ; 0.0
161 ; 9262661.84484834 ; 1.012636704410717E7 ; 1.5410461606255217E9 ; 1.630345094101258E9 ; 0.0
162 ; 9257045.945668098 ; 1.012636704410717E7 ; 1.55030882247037E9 ; 1.6404714611453652E9 ; 0.0
163 ; 9243578.417540697 ; 1.012636704410717E7 ; 1.559565868416038E9 ; 1.6505978281894724E9 ; 0.0
164 ; 9238481.287056927 ; 1.012636704410717E7 ; 1.5688094468335788E9 ; 1.6607241952335796E9 ; 0.0
165 ; 9230358.610215522 ; 1.012636704410717E7 ; 1.5780479281206357E9 ; 1.6708505622776868E9 ; 0.0
166 ; 9222498.092668436 ; 1.012636704410717E7 ; 1.5872782867308512E9 ; 1.680976929321794E9 ; 0.0
167 ; 9210239.32833343 ; 1.012636704410717E7 ; 1.5965007848235197E9 ; 1.6911032963659012E9 ; 0.0
168 ; 9200084.683959365 ; 1.012636704410717E7 ; 1.605711024151853E9 ; 1.7012296634100084E9 ; 0.0
169 ; 9194019.252490986 ; 1.012636704410717E7 ; 1.6149111088358126E9 ; 1.7113560304541156E9 ; 0.0
170 ; 9185848.870075557 ; 1.012636704410717E7 ; 1.6241051280883036E9 ; 1.7214823974982228E9 ; 0.0
171 ; 9176376.644690923 ; 1.012636704410717E7 ; 1.633290976958379E9 ; 1.73160876454233E9 ; 0.0
172 ; 9166796.47098716 ; 1.012636704410717E7 ; 1.64246735360307E9 ; 1.7417351315864372E9 ; 0.0
173 ; 9159785.4935938 ; 1.012636704410717E7 ; 1.651634150074057E9 ; 1.7518614986305444E9 ; 0.0
174 ; 9150915.140088836 ; 1.012636704410717E7 ; 1.6607939355676508E9 ; 1.7619878656746516E9 ; 0.0
175 ; 9151630.22173936 ; 1.012636704410717E7 ; 1.6699448507077396E9 ; 1.7721142327187588E9 ; 0.0
176 ; 9142149.320834326 ; 1.012636704410717E7 ; 1.679096480929479E9 ; 1.782240599762866E9 ; 0.0
177 ; 9136043.114947906 ; 1.012636704410717E7 ; 1.6882386302503133E9 ; 1.7923669668069732E9 ; 0.0
178 ; 9134640.09440438 ; 1.012636704410717E7 ; 1.697374673365261E9 ; 1.8024933338510804E9 ; 0.0
179 ; 9124755.870509328 ; 1.012636704410717E7 ; 1.7065093134596655E9 ; 1.8126197008951876E9 ; 0.0
180 ; 9118369.404433059 ; 1.012636704410717E7 ; 1.715634069330175E9 ; 1.8227460679392948E9 ; 0.0
181 ; 9114934.042304203 ; 1.012636704410717E7 ; 1.724752438734608E9 ; 1.832872434983402E9 ; 0.0
182 ; 9107741.025069889 ; 1.012636704410717E7 ; 1.7338673727769122E9 ; 1.8429988020275092E9 ; 0.0
183 ; 9103210.555474496 ; 1.012636704410717E7 ; 1.7429751138019822E9 ; 1.8531251690716164E9 ; 0.0
184 ; 9095272.412097542 ; 1.012636704410717E7 ; 1.7520783243574567E9 ; 1.8632515361157236E9 ; 0.0
185 ; 9092062.93860196 ; 1.012636704410717E7 ; 1.7611735967695541E9 ; 1.8733779031598308E9 ; 0.0
186 ; 9085040.154233927 ; 1.012636704410717E7 ; 1.770265659708156E9 ; 1.883504270203938E9 ; 0.0
187 ; 9082820.692719508 ; 1.012636704410717E7 ; 1.77935069986239E9 ; 1.8936306372480452E9 ; 0.0
188 ; 9075755.207620474 ; 1.012636704410717E7 ; 1.7884335205551095E9 ; 1.9037570042921524E9 ; 0.0
189 ; 9072159.78550634 ; 1.012636704410717E7 ; 1.79750927576273E9 ; 1.9138833713362596E9 ; 0.0
190 ; 9065342.990733897 ; 1.012636704410717E7 ; 1.8065814355482361E9 ; 1.9240097383803668E9 ; 0.0
191 ; 9058305.955069525 ; 1.012636704410717E7 ; 1.81564677853897E9 ; 1.934136105424474E9 ; 0.0
192 ; 9051436.412051896 ; 1.012636704410717E7 ; 1.8247050844940395E9 ; 1.9442624724685812E9 ; 0.0
193 ; 9049786.326791558 ; 1.012636704410717E7 ; 1.8337565209060915E9 ; 1.9543888395126884E9 ; 0.0
194 ; 9043570.045937585 ; 1.012636704410717E7 ; 1.842806307232883E9 ; 1.9645152065567956E9 ; 0.0
195 ; 9036690.794893386 ; 1.012636704410717E7 ; 1.8518498772788205E9 ; 1.9746415736009028E9 ; 0.0
196 ; 9031580.92510109 ; 1.012636704410717E7 ; 1.860886568073714E9 ; 1.98476794064501E9 ; 0.0
197 ; 9026051.685676955 ; 1.012636704410717E7 ; 1.869918148998815E9 ; 1.9948943076891172E9 ; 0.0
198 ; 9022078.800264485 ; 1.012636704410717E7 ; 1.878944200684492E9 ; 2.0050206747332244E9 ; 0.0
199 ; 9016491.421522608 ; 1.012636704410717E7 ; 1.8879662794847567E9 ; 2.0151470417773316E9 ; 0.0
200 ; 9010932.229268039 ; 1.012636704410717E7 ; 1.8969827709062793E9 ; 2.0252734088214388E9 ; 0.0
201 ; 9004772.218092695 ; 1.012636704410717E7 ; 1.9059937031355474E9 ; 2.035399775865546E9 ; 0.0
202 ; 8999044.485744521 ; 1.012636704410717E7 ; 1.91499847535364E9 ; 2.0455261429096532E9 ; 0.0
203 ; 8993158.296823876 ; 1.012636704410717E7 ; 1.9239975198393846E9 ; 2.0556525099537604E9 ; 0.0
204 ; 8988274.03991645 ; 1.012636704410717E7 ; 1.9329906781362085E9 ; 2.0657788769978676E9 ; 0.0
