CSV File for the City 4 on Day 158
1 - Minute m 
2 - Power Consumed at minute m 
3 - Power Produced at minute m 
4 - Energy Consumed since the beginning of the day 
5 - Energy Produced since the beginning of the day 
6 - Energy Lost since the beginning of the day on lines starting from the city
 
0 ; 3331739.2031810954 ; 1.061991770977628E8 ; 0.0 ; 0.0 ; 0.0
1 ; 3339267.7535709473 ; 1.0634972811345643E8 ; 3331739.2031810954 ; 1.061991770977628E8 ; 0.0
2 ; 3341520.7431786475 ; 1.068093054799883E8 ; 6671006.956752043 ; 2.1254890521121922E8 ; 0.0
3 ; 3347909.59250598 ; 1.0757791325522858E8 ; 1.001252769993069E7 ; 3.193582106912075E8 ; 0.0
4 ; 3353387.885920472 ; 1.0865555507549495E8 ; 1.336043729243667E7 ; 4.269361239464361E8 ; 0.0
5 ; 3363272.912518254 ; 1.1004223413549322E8 ; 1.6713825178357143E7 ; 5.3559167902193105E8 ; 0.0
6 ; 3375188.366216417 ; 1.1173795317035815E8 ; 2.00770980908754E7 ; 6.456339131574242E8 ; 0.0
7 ; 3396064.918190893 ; 1.1374271444002748E8 ; 2.3452286457091816E7 ; 7.573718663277824E8 ; 0.0
8 ; 3426122.2854546374 ; 1.1605651971615523E8 ; 2.684835137528271E7 ; 8.711145807678099E8 ; 0.0
9 ; 3473223.8653311115 ; 1.1867937027174187E8 ; 3.0274473660737347E7 ; 9.871711004839652E8 ; 0.0
10 ; 3549993.1689882716 ; 1.2161126687362188E8 ; 3.374769752606846E7 ; 1.105850470755707E9 ; 0.0
11 ; 3668981.0335450047 ; 1.2485220977791473E8 ; 3.729769069505673E7 ; 1.227461737629329E9 ; 0.0
12 ; 3863621.969396754 ; 1.2840219872850093E8 ; 4.096667172860173E7 ; 1.3523139474072437E9 ; 0.0
13 ; 4052936.0207463596 ; 1.3226123295854598E8 ; 4.483029369799849E7 ; 1.4807161461357446E9 ; 0.0
14 ; 4071321.6773012416 ; 1.3642931119504946E8 ; 4.8883229718744844E7 ; 1.6129773790942905E9 ; 0.0
15 ; 4078368.9028870943 ; 1.409064316663574E8 ; 5.295455139604609E7 ; 1.74940669028934E9 ; 0.0
16 ; 4085451.5358676617 ; 1.45692592112532E8 ; 5.703292029893318E7 ; 1.8903131219556975E9 ; 0.0
17 ; 4090971.922441043 ; 1.5078778979843846E8 ; 6.111837183480084E7 ; 2.0360057140682294E9 ; 0.0
18 ; 4095313.759839665 ; 1.5619202152937102E8 ; 6.520934375724188E7 ; 2.1867935038666677E9 ; 0.0
19 ; 4101157.1620614054 ; 1.6190528366901198E8 ; 6.930465751708154E7 ; 2.342985525396039E9 ; 0.0
20 ; 4108110.01377283 ; 1.6792757215949115E8 ; 7.340581467914295E7 ; 2.504890809065051E9 ; 0.0
21 ; 4112729.9229800277 ; 1.7425888254329404E8 ; 7.751392469291578E7 ; 2.672818381224542E9 ; 0.0
22 ; 4121295.1758946343 ; 1.8089920998674995E8 ; 8.162665461589581E7 ; 2.847077263767836E9 ; 0.0
23 ; 4128565.4997297945 ; 1.8784854930482632E8 ; 8.574794979179044E7 ; 3.027976473754586E9 ; 0.0
24 ; 4134190.8481988 ; 1.9510689498694664E8 ; 8.987651529152024E7 ; 3.2158250230594125E9 ; 0.0
25 ; 4138371.1376250237 ; 2.0136228212174007E8 ; 9.401070613971904E7 ; 3.410931918046359E9 ; 0.0
26 ; 4142886.970877567 ; 2.013682524609773E8 ; 9.814907727734406E7 ; 3.612294200168099E9 ; 0.0
27 ; 4152259.326025371 ; 2.0137456897172832E8 ; 1.0229196424822164E8 ; 3.813662452629076E9 ; 0.0
28 ; 4159023.7073603324 ; 2.0138122511035675E8 ; 1.06444223574247E8 ; 4.0150370216008043E9 ; 0.0
29 ; 4162624.001856101 ; 2.013882141427247E8 ; 1.1060324728160733E8 ; 4.216418246711161E9 ; 0.0
30 ; 4169623.038982823 ; 2.0139552917068195E8 ; 1.1476587128346343E8 ; 4.417806460853886E9 ; 0.0
31 ; 4176763.666196861 ; 2.0140316315789652E8 ; 1.1893549432244626E8 ; 4.619201990024568E9 ; 0.0
32 ; 4179849.3602104574 ; 2.0141110895486212E8 ; 1.2311225798864312E8 ; 4.820605153182465E9 ; 0.0
33 ; 4184733.762698739 ; 2.014193593229413E8 ; 1.2729210734885359E8 ; 5.022016262137327E9 ; 0.0
34 ; 4190185.5796726584 ; 2.0142790695732632E8 ; 1.3147684111155233E8 ; 5.223435621460268E9 ; 0.0
35 ; 4196516.945529957 ; 2.014367445088225E8 ; 1.35667026691225E8 ; 5.424863528417594E9 ; 0.0
36 ; 4200051.089386496 ; 2.0144586460438082E8 ; 1.3986354363675496E8 ; 5.626300272926416E9 ; 0.0
37 ; 4209352.619892759 ; 2.0145525986632773E8 ; 1.4406359472614145E8 ; 5.827746137530797E9 ; 0.0
38 ; 4208407.24737723 ; 2.0146492293025798E8 ; 1.482729473460342E8 ; 6.029201397397124E9 ; 0.0
39 ; 4215547.3929635845 ; 2.0147484646157584E8 ; 1.5248135459341142E8 ; 6.230666320327382E9 ; 0.0
40 ; 4218522.004482767 ; 2.0148502317068365E8 ; 1.56696901986375E8 ; 6.432141166788958E9 ; 0.0
41 ; 4219682.3610665435 ; 2.0149544582683262E8 ; 1.6091542399085778E8 ; 6.633626189959641E9 ; 0.0
42 ; 4221244.78271888 ; 2.015061072706609E8 ; 1.6513510635192433E8 ; 6.835121635786474E9 ; 0.0
43 ; 4226645.517660494 ; 2.0151700042545614E8 ; 1.693563511346432E8 ; 7.036627743057136E9 ; 0.0
44 ; 4228821.952576173 ; 2.015281183071863E8 ; 1.735829966523037E8 ; 7.238144743482592E9 ; 0.0
45 ; 4227399.510503441 ; 2.0153945403335106E8 ; 1.7781181860487986E8 ; 7.439672861789778E9 ; 0.0
46 ; 4232672.049226203 ; 2.0155100083071017E8 ; 1.820392181153833E8 ; 7.641212315823129E9 ; 0.0
47 ; 4235223.561688177 ; 2.015627520419497E8 ; 1.862718901646095E8 ; 7.842763316653839E9 ; 0.0
48 ; 4234849.490051316 ; 2.0157470113134962E8 ; 1.9050711372629768E8 ; 8.044326068695788E9 ; 0.0
49 ; 4236405.093117262 ; 2.0158684168951756E8 ; 1.94741963216349E8 ; 8.245900769827138E9 ; 0.0
50 ; 4236908.788089538 ; 2.0159916743725416E8 ; 1.9897836830946627E8 ; 8.447487611516656E9 ; 0.0
51 ; 4235842.661255814 ; 2.016116722286155E8 ; 2.0321527709755582E8 ; 8.64908677895391E9 ; 0.0
52 ; 4235084.326124788 ; 2.0162435005323637E8 ; 2.0745111975881162E8 ; 8.850698451182526E9 ; 0.0
53 ; 4234754.161699422 ; 2.0163719503797737E8 ; 2.116862040849364E8 ; 9.052322801235762E9 ; 0.0
54 ; 4238078.703120181 ; 2.0165020144795603E8 ; 2.1592095824663582E8 ; 9.253959996273739E9 ; 0.0
55 ; 4234176.1660859715 ; 2.0166336368702033E8 ; 2.20159036949756E8 ; 9.455610197721695E9 ; 0.0
56 ; 4235482.442286316 ; 2.0167667629771993E8 ; 2.2439321311584195E8 ; 9.657273561408716E9 ; 0.0
57 ; 4234221.248699342 ; 2.0169013396082744E8 ; 2.2862869555812827E8 ; 9.858950237706436E9 ; 0.0
58 ; 4235642.338099081 ; 2.0170373149445942E8 ; 2.328629168068276E8 ; 1.0060640371667263E10 ; 0.0
59 ; 4235379.838590553 ; 2.017174638528432E8 ; 2.370985591449267E8 ; 1.0262344103161722E10 ; 0.0
60 ; 4237195.2054810235 ; 2.017313261247729E8 ; 2.4133393898351726E8 ; 1.0464061567014565E10 ; 0.0
61 ; 4234926.471965896 ; 2.0174531353179458E8 ; 2.4557113418899828E8 ; 1.0665792893139338E10 ; 0.0
62 ; 4232501.949546025 ; 2.0175942142615747E8 ; 2.498060606609642E8 ; 1.0867538206671133E10 ; 0.0
63 ; 4233833.319149547 ; 2.017736452885658E8 ; 2.5403856261051023E8 ; 1.106929762809729E10 ; 0.0
64 ; 4232003.3159615835 ; 2.0178798072576168E8 ; 2.5827239592965978E8 ; 1.1271071273385857E10 ; 0.0
65 ; 4229941.855428156 ; 2.018024234679681E8 ; 2.6250439924562135E8 ; 1.1472859254111618E10 ; 0.0
66 ; 4227763.927701313 ; 2.0181696936621782E8 ; 2.667343411010495E8 ; 1.1674661677579586E10 ; 0.0
67 ; 4229620.107817388 ; 2.0183161438959122E8 ; 2.7096210502875084E8 ; 1.1876478646945805E10 ; 0.0
68 ; 4228930.601093172 ; 2.018463546223846E8 ; 2.7519172513656825E8 ; 1.2078310261335396E10 ; 0.0
69 ; 4229789.442340562 ; 2.0186118626122752E8 ; 2.794206557376614E8 ; 1.228015661595778E10 ; 0.0
70 ; 4226262.245757951 ; 2.0187610561216652E8 ; 2.83650445180002E8 ; 1.2482017802219007E10 ; 0.0
71 ; 4225657.393434246 ; 2.0189110908772984E8 ; 2.878767074257599E8 ; 1.2683893907831175E10 ; 0.0
72 ; 4225481.171063907 ; 2.0190619320398682E8 ; 2.9210236481919414E8 ; 1.2885785016918905E10 ; 0.0
73 ; 4223120.102469405 ; 2.019213545776135E8 ; 2.9632784599025804E8 ; 1.3087691210122892E10 ; 0.0
74 ; 4221956.12238011 ; 2.0193658992297485E8 ; 3.005509660927274E8 ; 1.3289612564700506E10 ; 0.0
75 ; 4222567.570097293 ; 2.0195189604923272E8 ; 3.0477292221510756E8 ; 1.3491549154623482E10 ; 0.0
76 ; 4219587.143951056 ; 2.019672698574868E8 ; 3.089954897852048E8 ; 1.3693501050672714E10 ; 0.0
77 ; 4220069.650567544 ; 2.0198270833795598E8 ; 3.132150769291559E8 ; 1.3895468320530201E10 ; 0.0
78 ; 4214861.181209396 ; 2.01998208567205E8 ; 3.174351465797234E8 ; 1.4097451028868156E10 ; 0.0
79 ; 4212096.575217641 ; 2.0201376770542198E8 ; 3.216500077609328E8 ; 1.4299449237435362E10 ; 0.0
80 ; 4206606.489090697 ; 2.0202938299374983E8 ; 3.2586210433615047E8 ; 1.4501463005140783E10 ; 0.0
81 ; 4208199.305124847 ; 2.020450517516758E8 ; 3.3006871082524115E8 ; 1.4703492388134533E10 ; 0.0
82 ; 4201106.169560473 ; 2.02060771374481E8 ; 3.3427691013036597E8 ; 1.490553743988621E10 ; 0.0
83 ; 4197876.21537687 ; 2.020765393307522E8 ; 3.3847801629992646E8 ; 1.510759821126069E10 ; 0.0
84 ; 4189009.8176733907 ; 2.0209235315995744E8 ; 3.426758925153033E8 ; 1.5309674750591442E10 ; 0.0
85 ; 4189000.0392921995 ; 2.0210821047008646E8 ; 3.468649023329767E8 ; 1.55117671037514E10 ; 0.0
86 ; 4184934.0824691276 ; 2.0212410893535656E8 ; 3.510539023722689E8 ; 1.5713875314221487E10 ; 0.0
87 ; 4178205.674210348 ; 2.02140046293984E8 ; 3.55238836454738E8 ; 1.5915999423156843E10 ; 0.0
88 ; 4173727.230168228 ; 2.021560203460216E8 ; 3.594170421289484E8 ; 1.6118139469450827E10 ; 0.0
89 ; 4169835.9124529655 ; 2.0217202895126116E8 ; 3.635907693591166E8 ; 1.6320295489796848E10 ; 0.0
90 ; 4167292.316674333 ; 2.0218807002720153E8 ; 3.6776060527156955E8 ; 1.652246751874811E10 ; 0.0
91 ; 4163033.4316571304 ; 2.022041415470802E8 ; 3.719278975882439E8 ; 1.672465558877531E10 ; 0.0
92 ; 4160711.613258041 ; 2.0222024153796878E8 ; 3.7609093101990104E8 ; 1.6926859730322392E10 ; 0.0
93 ; 4154730.0007764497 ; 2.0223636807893056E8 ; 3.802516426331591E8 ; 1.7129079971860361E10 ; 0.0
94 ; 4149859.2625241065 ; 2.022525192992393E8 ; 3.844063726339356E8 ; 1.7331316339939293E10 ; 0.0
95 ; 4144349.8522464 ; 2.0226869337665802E8 ; 3.885562318964597E8 ; 1.7533568859238533E10 ; 0.0
96 ; 4135992.058654889 ; 2.022848885357763E8 ; 3.927005817487061E8 ; 1.7735837552615192E10 ; 0.0
97 ; 4133846.07586758 ; 2.0230110304640496E8 ; 3.96836573807361E8 ; 1.793812244115097E10 ; 0.0
98 ; 4128422.5223288955 ; 2.0231733522202653E8 ; 4.009704198832286E8 ; 1.8140423544197376E10 ; 0.0
99 ; 4126609.7338719177 ; 2.0233358341829994E8 ; 4.050988424055575E8 ; 1.8342740879419403E10 ; 0.0
100 ; 4121159.3575127884 ; 2.0234984603161833E8 ; 4.0922545213942945E8 ; 1.8545074462837704E10 ; 0.0
101 ; 4117712.7118600057 ; 2.0236612149771774E8 ; 4.133466114969422E8 ; 1.8747424308869324E10 ; 0.0
102 ; 4109822.7245490276 ; 2.0238240829033613E8 ; 4.174643242088022E8 ; 1.8949790430367043E10 ; 0.0
103 ; 4108379.1355584566 ; 2.023987049199204E8 ; 4.215741469333513E8 ; 1.915217283865738E10 ; 0.0
104 ; 4101226.806416178 ; 2.0241500993238032E8 ; 4.2568252606890976E8 ; 1.93545715435773E10 ; 0.0
105 ; 4096260.0333972676 ; 2.0243132190788752E8 ; 4.297837528753259E8 ; 1.955698655350968E10 ; 0.0
106 ; 4090513.684840105 ; 2.0244763945971882E8 ; 4.338800129087232E8 ; 1.975941787541757E10 ; 0.0
107 ; 4084304.840465706 ; 2.0246396123314136E8 ; 4.3797052659356326E8 ; 1.996186551487729E10 ; 0.0
108 ; 4078832.8409149335 ; 2.0248028590433893E8 ; 4.42054831434029E8 ; 2.016432947611043E10 ; 0.0
109 ; 4071975.8471883126 ; 2.024966121793779E8 ; 4.461336642749439E8 ; 2.036680976201477E10 ; 0.0
110 ; 4067977.446459498 ; 2.025129387932111E8 ; 4.502056401221322E8 ; 2.056930637419415E10 ; 0.0
111 ; 4063712.834629274 ; 2.0252926450871858E8 ; 4.5427361756859165E8 ; 2.0771819312987362E10 ; 0.0
112 ; 4057064.2955981204 ; 2.0254558811578396E8 ; 4.5833733040322095E8 ; 2.0974348577496082E10 ; 0.0
113 ; 4049973.4322193908 ; 2.0256190843040487E8 ; 4.623943946988191E8 ; 2.1176894165611866E10 ; 0.0
114 ; 4044431.5133435815 ; 2.025782242938364E8 ; 4.664443681310385E8 ; 2.137945607404227E10 ; 0.0
115 ; 4039525.218772095 ; 2.025945345717664E8 ; 4.7048879964438206E8 ; 2.1582034298336105E10 ; 0.0
116 ; 4032074.368245179 ; 2.0261083815352118E8 ; 4.745283248631542E8 ; 2.178462883290787E10 ; 0.0
117 ; 4031445.7933514644 ; 2.0262713395130098E8 ; 4.7856039923139936E8 ; 2.1987239671061394E10 ; 0.0
118 ; 4021792.3700857256 ; 2.026434208994435E8 ; 4.825918450247508E8 ; 2.2189866805012695E10 ; 0.0
119 ; 4014491.9978740206 ; 2.0265969795371497E8 ; 4.8661363739483654E8 ; 2.239251022591214E10 ; 0.0
120 ; 4009242.6494641616 ; 2.0267596409062728E8 ; 4.9062812939271057E8 ; 2.2595169923865856E10 ; 0.0
121 ; 4003556.71623358 ; 2.0269221830678064E8 ; 4.9463737204217476E8 ; 2.2797845887956482E10 ; 0.0
122 ; 3997707.1662221337 ; 2.0270845961823037E8 ; 4.986409287584083E8 ; 2.3000538106263264E10 ; 0.0
123 ; 3990587.2272421983 ; 2.0272468705987713E8 ; 5.0263863592463046E8 ; 2.3203246565881493E10 ; 0.0
124 ; 3985672.859432454 ; 2.0274089968487975E8 ; 5.0662922315187263E8 ; 2.340597125294137E10 ; 0.0
125 ; 3979439.4907384524 ; 2.0275709656408954E8 ; 5.106148960113051E8 ; 2.3608712152626247E10 ; 0.0
126 ; 3971790.220273924 ; 2.0277327678550568E8 ; 5.1459433550204355E8 ; 2.381146924919034E10 ; 0.0
127 ; 3965864.023041968 ; 2.0278943945375025E8 ; 5.1856612572231746E8 ; 2.4014242525975845E10 ; 0.0
128 ; 3958296.213623117 ; 2.0280558368956295E8 ; 5.225319897453594E8 ; 2.4217031965429596E10 ; 0.0
129 ; 3952923.703237348 ; 2.028217086293139E8 ; 5.264902859589825E8 ; 2.441983754911916E10 ; 0.0
130 ; 3945081.6400928586 ; 2.028378134245346E8 ; 5.304432096622199E8 ; 2.4622659257748474E10 ; 0.0
131 ; 3934566.5494225766 ; 2.0285389724146575E8 ; 5.3438829130231273E8 ; 2.4825497071173008E10 ; 0.0
132 ; 3927966.908879468 ; 2.0286995926062176E8 ; 5.383228578517354E8 ; 2.5028350968414474E10 ; 0.0
133 ; 3918515.0272753085 ; 2.028859986763707E8 ; 5.422508247606149E8 ; 2.5231220927675095E10 ; 0.0
134 ; 3907525.994146311 ; 2.0290201469653E8 ; 5.461693397878902E8 ; 2.5434106926351467E10 ; 0.0
135 ; 3899308.9809340285 ; 2.0291800654197627E8 ; 5.500768657820365E8 ; 2.5637008941047997E10 ; 0.0
136 ; 3887783.3563644984 ; 2.0293397344626945E8 ; 5.539761747629706E8 ; 2.5839926947589973E10 ; 0.0
137 ; 3880802.333225758 ; 2.029499146552905E8 ; 5.57863958119335E8 ; 2.6042860921036243E10 ; 0.0
138 ; 3869037.603933943 ; 2.0296582942689198E8 ; 5.617447604525608E8 ; 2.6245810835691532E10 ; 0.0
139 ; 3859025.330573712 ; 2.029817170305612E8 ; 5.656137980564947E8 ; 2.6448776665118423E10 ; 0.0
140 ; 3850871.929605187 ; 2.0299757674709538E8 ; 5.694728233870684E8 ; 2.6651758382148983E10 ; 0.0
141 ; 3840630.8226795965 ; 2.0301340786828837E8 ; 5.733236953166736E8 ; 2.685475595889608E10 ; 0.0
142 ; 3832719.6720509618 ; 2.030292096966285E8 ; 5.771643261393533E8 ; 2.705776936676437E10 ; 0.0
143 ; 3822622.9177255575 ; 2.0304498154500726E8 ; 5.809970458114042E8 ; 2.7260798576461E10 ; 0.0
144 ; 3813856.1309790052 ; 2.0306072273643798E8 ; 5.848196687291298E8 ; 2.7463843558006004E10 ; 0.0
145 ; 3805958.8697467777 ; 2.0307643260378474E8 ; 5.886335248601089E8 ; 2.7666904280742443E10 ; 0.0
146 ; 3801183.9855688764 ; 2.0309211048950055E8 ; 5.924394837298557E8 ; 2.786998071334623E10 ; 0.0
147 ; 3791629.0733394194 ; 2.0310775574537498E8 ; 5.962406677154245E8 ; 2.807307282383573E10 ; 0.0
148 ; 3785024.912831575 ; 2.0312336773229015E8 ; 6.00032296788764E8 ; 2.827618057958111E10 ; 0.0
149 ; 3777637.135890779 ; 2.0313894581998587E8 ; 6.038173217015955E8 ; 2.8479303947313396E10 ; 0.0
150 ; 3769579.8098652596 ; 2.0315448938683227E8 ; 6.075949588374863E8 ; 2.868244289313338E10 ; 0.0
151 ; 3763482.4462346667 ; 2.0316999781961071E8 ; 6.113645386473515E8 ; 2.8885597382520214E10 ; 0.0
152 ; 3758568.482688051 ; 2.0318547051330233E8 ; 6.151280210935862E8 ; 2.9088767380339825E10 ; 0.0
153 ; 3748990.2461845167 ; 2.0320090687088338E8 ; 6.188865895762743E8 ; 2.9291952850853127E10 ; 0.0
154 ; 3745042.657693073 ; 2.0321630630312818E8 ; 6.226355798224587E8 ; 2.949515375772401E10 ; 0.0
155 ; 3736903.942015599 ; 2.0323166822841847E8 ; 6.263806224801518E8 ; 2.9698370064027138E10 ; 0.0
156 ; 3730963.405532438 ; 2.0324699207255924E8 ; 6.301175264221674E8 ; 2.9901601732255558E10 ; 0.0
157 ; 3722563.0974486433 ; 2.0326227726860112E8 ; 6.338484898276999E8 ; 3.0104848724328117E10 ; 0.0
158 ; 3713167.460333003 ; 2.0327752325666848E8 ; 6.375710529251485E8 ; 3.0308111001596718E10 ; 0.0
159 ; 3706692.970710455 ; 2.032927294837936E8 ; 6.412842203854815E8 ; 3.0511388524853386E10 ; 0.0
160 ; 3702547.8940276527 ; 2.0330789540375614E8 ; 6.449909133561919E8 ; 3.071468125433718E10 ; 0.0
161 ; 3693576.9230832253 ; 2.033230204769284E8 ; 6.486934612502196E8 ; 3.0917989149740936E10 ; 0.0
162 ; 3685790.944259369 ; 2.0333810417012548E8 ; 6.523870381733028E8 ; 3.1121312170217865E10 ; 0.0
163 ; 3679203.4333001734 ; 2.0335314595646045E8 ; 6.560728291175622E8 ; 3.132465027438799E10 ; 0.0
164 ; 3671580.776118096 ; 2.0336814531520453E8 ; 6.597520325508623E8 ; 3.1528003420344448E10 ; 0.0
165 ; 3664097.3308692947 ; 2.033831017316518E8 ; 6.634236133269804E8 ; 3.1731371565659653E10 ; 0.0
166 ; 3655834.3641220448 ; 2.0339801469698852E8 ; 6.670877106578497E8 ; 3.1934754667391304E10 ; 0.0
167 ; 3649875.237787962 ; 2.0341288370816648E8 ; 6.707435450219717E8 ; 3.213815268208829E10 ; 0.0
168 ; 3642467.7896887613 ; 2.0342770826778087E8 ; 6.743934202597597E8 ; 3.234156556579646E10 ; 0.0
169 ; 3634515.621612398 ; 2.0344248788395196E8 ; 6.780358880494484E8 ; 3.254499327406424E10 ; 0.0
170 ; 3628535.8478410766 ; 2.034572220702108E8 ; 6.816704036710608E8 ; 3.2748435761948193E10 ; 0.0
171 ; 3620219.3406070326 ; 2.034719103453885E8 ; 6.852989395189018E8 ; 3.2951892984018402E10 ; 0.0
172 ; 3612150.2206312898 ; 2.034865522335092E8 ; 6.889191588595089E8 ; 3.3155364894363792E10 ; 0.0
173 ; 3608373.718106573 ; 2.0350114726368663E8 ; 6.925313090801401E8 ; 3.33588514465973E10 ; 0.0
174 ; 3600341.0686082793 ; 2.035156949700238E8 ; 6.961396827982467E8 ; 3.356235259386099E10 ; 0.0
175 ; 3594215.413639964 ; 2.0353019489151612E8 ; 6.99740023866855E8 ; 3.3765868288831013E10 ; 0.0
176 ; 3589441.8801981234 ; 2.0354464657195756E8 ; 7.03334239280495E8 ; 3.396939848372253E10 ; 0.0
177 ; 3583409.9940278702 ; 2.0355904955984992E8 ; 7.069236811606932E8 ; 3.4172943130294487E10 ; 0.0
178 ; 3576797.7621592553 ; 2.0357340340831482E8 ; 7.10507091154721E8 ; 3.437650217985434E10 ; 0.0
179 ; 3573232.30236351 ; 2.035877076750088E8 ; 7.140838889168802E8 ; 3.458007558326266E10 ; 0.0
180 ; 3565313.143037371 ; 2.0360196192204085E8 ; 7.176571212192438E8 ; 3.478366329093767E10 ; 0.0
181 ; 3560332.5063309087 ; 2.0361616571589276E8 ; 7.212224343622811E8 ; 3.498726525285971E10 ; 0.0
182 ; 3553687.9921469186 ; 2.036303186273419E8 ; 7.24782766868612E8 ; 3.51908814185756E10 ; 0.0
183 ; 3545238.75499836 ; 2.0364442023138648E8 ; 7.28336454860759E8 ; 3.539451173720294E10 ; 0.0
184 ; 3542634.791608951 ; 2.0365847010717314E8 ; 7.318816936157573E8 ; 3.5598156157434326E10 ; 0.0
185 ; 3537274.80712194 ; 2.03672467837927E8 ; 7.354243284073663E8 ; 3.58018146275415E10 ; 0.0
186 ; 3528642.6177745042 ; 2.0368641301088363E8 ; 7.389616032144883E8 ; 3.6005487095379425E10 ; 0.0
187 ; 3525187.3963547647 ; 2.0370030521722332E8 ; 7.424902458322628E8 ; 3.620917350839031E10 ; 0.0
188 ; 3517209.8883188926 ; 2.037141440520075E8 ; 7.460154332286175E8 ; 3.641287381360754E10 ; 0.0
189 ; 3511969.05865745 ; 2.0372792911411694E8 ; 7.495326431169364E8 ; 3.6616587957659546E10 ; 0.0
190 ; 3506072.758064129 ; 2.03741660006192E8 ; 7.530446121755939E8 ; 3.682031588677367E10 ; 0.0
191 ; 3497636.9887648076 ; 2.0375533633457473E8 ; 7.56550684933658E8 ; 3.702405754677986E10 ; 0.0
192 ; 3494980.656742126 ; 2.0376895770925283E8 ; 7.600483219224228E8 ; 3.722781288311443E10 ; 0.0
193 ; 3487281.7399917715 ; 2.0378252374380517E8 ; 7.635433025791649E8 ; 3.7431581840823685E10 ; 0.0
194 ; 3481589.8331420394 ; 2.0379603405534914E8 ; 7.670305843191566E8 ; 3.763536436456749E10 ; 0.0
195 ; 3480088.270047794 ; 2.0380948826448968E8 ; 7.705121741522987E8 ; 3.783916039862284E10 ; 0.0
196 ; 3470086.27922041 ; 2.038228859952697E8 ; 7.739922624223465E8 ; 3.804296988688733E10 ; 0.0
197 ; 3466034.493044404 ; 2.038362268751221E8 ; 7.774623487015669E8 ; 3.82467927728826E10 ; 0.0
198 ; 3459143.849762455 ; 2.0384951053482342E8 ; 7.809283831946113E8 ; 3.845062899975772E10 ; 0.0
199 ; 3454549.1581030414 ; 2.0386273660844865E8 ; 7.843875270443738E8 ; 3.865447851029254E10 ; 0.0
200 ; 3443362.02969603 ; 1.776293452647758E8 ; 7.878420762024767E8 ; 3.885834124690099E10 ; 0.0
