CSV File for the City 4 on Day 221
1 - Minute m 
2 - Power Consumed at minute m 
3 - Power Produced at minute m 
4 - Energy Consumed since the beginning of the day 
5 - Energy Produced since the beginning of the day 
6 - Energy Lost since the beginning of the day on lines starting from the city
 
0 ; 452708.6109850458 ; 1.0545643879901943E8 ; 0.0 ; 0.0 ; 0.0
1 ; 458726.20896556793 ; 1.0560278025000507E8 ; 452708.6109850458 ; 1.0545643879901943E8 ; 0.0
2 ; 466268.56550950336 ; 1.0605840909022012E8 ; 911434.8199506137 ; 2.110592190490245E8 ; 0.0
3 ; 472734.5517386516 ; 1.0682337789326113E8 ; 1377703.385460117 ; 3.171176281392446E8 ; 0.0
4 ; 485169.3511507176 ; 1.0789773918039006E8 ; 1850437.9371987684 ; 4.2394100603250575E8 ; 0.0
5 ; 500826.59936018713 ; 1.0928154396306133E8 ; 2335607.288349486 ; 5.318387452128958E8 ; 0.0
6 ; 515184.42334082705 ; 1.1097484003746608E8 ; 2836433.887709673 ; 6.411202891759572E8 ; 0.0
7 ; 542660.3622608965 ; 1.1297767011693555E8 ; 3351618.3110505003 ; 7.520951292134233E8 ; 0.0
8 ; 576072.3217089853 ; 1.1529006993477452E8 ; 3894278.6733113965 ; 8.650727993303587E8 ; 0.0
9 ; 627487.5521795207 ; 1.1791206648713428E8 ; 4470350.995020382 ; 9.803628692651333E8 ; 0.0
10 ; 705485.5740817225 ; 1.2084367660065103E8 ; 5097838.547199903 ; 1.0982749357522676E9 ; 0.0
11 ; 829510.3313471572 ; 1.2408490599330714E8 ; 5803324.121281626 ; 1.2191186123529186E9 ; 0.0
12 ; 1028486.0602681069 ; 1.2763574894712022E8 ; 6632834.452628783 ; 1.3432035183462257E9 ; 0.0
13 ; 1217427.4542161177 ; 1.3149618863545406E8 ; 7661320.51289689 ; 1.470839267293346E9 ; 0.0
14 ; 1244670.1908980547 ; 1.3566619806215745E8 ; 8878747.967113007 ; 1.6023354559288E9 ; 0.0
15 ; 1252297.7027134625 ; 1.401457414939255E8 ; 1.0123418158011062E7 ; 1.7380016539909575E9 ; 0.0
16 ; 1265448.8176644915 ; 1.449347762174271E8 ; 1.1375715860724524E7 ; 1.878147395484883E9 ; 0.0
17 ; 1273329.469607328 ; 1.5003325443647096E8 ; 1.2641164678389015E7 ; 2.02308217170231E9 ; 0.0
18 ; 1282351.0026263657 ; 1.5544112513960284E8 ; 1.3914494147996344E7 ; 2.173115426138781E9 ; 0.0
19 ; 1293611.4486853415 ; 1.6115833580556062E8 ; 1.5196845150622709E7 ; 2.3285565512783837E9 ; 0.0
20 ; 1304083.2173053722 ; 1.6718483386074778E8 ; 1.6490456599308051E7 ; 2.4897148870839443E9 ; 0.0
21 ; 1316316.7867243022 ; 1.7352056784844598E8 ; 1.7794539816613425E7 ; 2.656899720944692E9 ; 0.0
22 ; 1323095.4343348162 ; 1.801654883067571E8 ; 1.9110856603337727E7 ; 2.830420288793138E9 ; 0.0
23 ; 1337619.9027279182 ; 1.8711954837822866E8 ; 2.0433952037672542E7 ; 3.010585777099895E9 ; 0.0
24 ; 1344346.1555420905 ; 1.9438270418897706E8 ; 2.177157194040046E7 ; 3.1977053254781237E9 ; 0.0
25 ; 1355355.9138199948 ; 2.0064295593913016E8 ; 2.311591809594255E7 ; 3.392088029667101E9 ; 0.0
26 ; 1365394.526593692 ; 2.0065381398823288E8 ; 2.4471274009762544E7 ; 3.592730985606231E9 ; 0.0
27 ; 1375214.5785871018 ; 2.0066501332371294E8 ; 2.5836668536356237E7 ; 3.7933847995944643E9 ; 0.0
28 ; 1384233.3254615206 ; 2.0067652267896175E8 ; 2.721188311494334E7 ; 3.994049812918177E9 ; 0.0
29 ; 1394112.9514819148 ; 2.006883136518075E8 ; 2.8596116440404862E7 ; 4.194726335597139E9 ; 0.0
30 ; 1405059.5120338185 ; 2.007003605037243E8 ; 2.999022939188678E7 ; 4.395414649248946E9 ; 0.0
31 ; 1411197.1145756457 ; 2.0071263994779766E8 ; 3.13952889039206E7 ; 4.59611500975267E9 ; 0.0
32 ; 1423537.053383213 ; 2.0072513093588853E8 ; 3.2806486018496245E7 ; 4.796827649700468E9 ; 0.0
33 ; 1433639.022316215 ; 2.0073781445204177E8 ; 3.423002307187946E7 ; 4.997552780636356E9 ; 0.0
34 ; 1441629.3569292806 ; 2.007506733166075E8 ; 3.566366209419568E7 ; 5.198290595088398E9 ; 0.0
35 ; 1450966.348169118 ; 2.0076369200365317E8 ; 3.710529145112496E7 ; 5.399041268405005E9 ; 0.0
36 ; 1459124.0755470798 ; 2.0077685647289628E8 ; 3.855625779929408E7 ; 5.599804960408659E9 ; 0.0
37 ; 1467064.6515781283 ; 2.0079015401646003E8 ; 4.001538187484115E7 ; 5.800581816881556E9 ; 0.0
38 ; 1475800.835851626 ; 2.008035731201386E8 ; 4.148244652641928E7 ; 6.001371970898016E9 ; 0.0
39 ; 1483534.9514249829 ; 2.0081710333847243E8 ; 4.295824736227091E7 ; 6.202175544018154E9 ; 0.0
40 ; 1491342.6067118745 ; 2.008307351827121E8 ; 4.444178231369589E7 ; 6.4029926473566265E9 ; 0.0
41 ; 1499174.8775420066 ; 2.008444600206386E8 ; 4.5933124920407765E7 ; 6.603823382539339E9 ; 0.0
42 ; 1506565.6453166993 ; 2.0085826998717624E8 ; 4.743229979794977E7 ; 6.804667842559978E9 ; 0.0
43 ; 1511822.594745275 ; 2.008721579047524E8 ; 4.8938865443266466E7 ; 7.005526112547153E9 ; 0.0
44 ; 1516967.1324530258 ; 2.0088611721240613E8 ; 5.0450688038011745E7 ; 7.206398270451906E9 ; 0.0
45 ; 1526103.449932809 ; 2.0090014190271595E8 ; 5.196765517046477E7 ; 7.407284387664312E9 ; 0.0
46 ; 1530653.8336332086 ; 2.009142264656911E8 ; 5.3493758620397575E7 ; 7.608184529567028E9 ; 0.0
47 ; 1536689.7527473094 ; 2.0092836583885032E8 ; 5.502441245403078E7 ; 7.809098756032719E9 ; 0.0
48 ; 1542908.3777948758 ; 2.009425553627883E8 ; 5.6561102206778094E7 ; 8.010027121871569E9 ; 0.0
49 ; 1547134.2983694866 ; 2.0095679074160337E8 ; 5.810401058457297E7 ; 8.210969677234357E9 ; 0.0
50 ; 1552392.270264089 ; 2.0097106800762948E8 ; 5.965114488294246E7 ; 8.41192646797596E9 ; 0.0
51 ; 1557532.2165714914 ; 2.009853834899761E8 ; 6.120353715320655E7 ; 8.61289753598359E9 ; 0.0
52 ; 1560060.9641725577 ; 2.009997337864392E8 ; 6.2761069369778045E7 ; 8.813882919473566E9 ; 0.0
53 ; 1564777.6964595248 ; 2.0101411573839498E8 ; 6.43211303339506E7 ; 9.014882653260006E9 ; 0.0
54 ; 1570242.8350821922 ; 2.0102852640833527E8 ; 6.5885908030410126E7 ; 9.215896768998402E9 ; 0.0
55 ; 1573706.6456937324 ; 2.010429630597437E8 ; 6.745615086549231E7 ; 9.416925295406736E9 ; 0.0
56 ; 1577321.604830879 ; 2.010574231390466E8 ; 6.902985751118605E7 ; 9.61796825846648E9 ; 0.0
57 ; 1581504.2923949778 ; 2.010719042594056E8 ; 7.060717911601692E7 ; 9.819025681605526E9 ; 0.0
58 ; 1584858.756851472 ; 2.0108640418614578E8 ; 7.21886834084119E7 ; 1.0020097585864931E10 ; 0.0
59 ; 1587692.05989742 ; 2.0110092082363763E8 ; 7.377354216526338E7 ; 1.0221183990051077E10 ; 0.0
60 ; 1593456.0658978326 ; 2.011154522034736E8 ; 7.53612342251608E7 ; 1.0422284910874714E10 ; 0.0
61 ; 1595743.8848898516 ; 2.0112999647379753E8 ; 7.695469029105864E7 ; 1.0623400363078188E10 ; 0.0
62 ; 1600987.03854231 ; 2.0114455188966244E8 ; 7.85504341759485E7 ; 1.0824530359551985E10 ; 0.0
63 ; 1603111.9714507947 ; 2.0115911680430716E8 ; 8.015142121449082E7 ; 1.1025674911441647E10 ; 0.0
64 ; 1609194.5401087303 ; 2.011736896612538E8 ; 8.17545331859416E7 ; 1.1226834028245955E10 ; 0.0
65 ; 1611123.6509775207 ; 2.0118826898714072E8 ; 8.336372772605033E7 ; 1.1428007717907207E10 ; 0.0
66 ; 1615658.575251981 ; 2.012028533852137E8 ; 8.497485137702785E7 ; 1.1629195986894348E10 ; 0.0
67 ; 1617001.1133462756 ; 2.0121744152940905E8 ; 8.659050995227984E7 ; 1.1830398840279562E10 ; 0.0
68 ; 1621865.5266689376 ; 2.012320321589669E8 ; 8.820751106562611E7 ; 1.2031616281808971E10 ; 0.0
69 ; 1624030.1537808967 ; 2.012466240735229E8 ; 8.982937659229505E7 ; 1.2232848313967937E10 ; 0.0
70 ; 1629099.9677938912 ; 2.0126121612862948E8 ; 9.145340674607594E7 ; 1.243409493804146E10 ; 0.0
71 ; 1632129.6106970527 ; 2.0127580723166534E8 ; 9.308250671386984E7 ; 1.263535615417009E10 ; 0.0
72 ; 1635834.6001383383 ; 2.0129039633809483E8 ; 9.471463632456689E7 ; 1.2836631961401754E10 ; 0.0
73 ; 1638036.649164135 ; 2.0130498244804364E8 ; 9.635047092470522E7 ; 1.303792235773985E10 ; 0.0
74 ; 1641710.6827910373 ; 2.013195646031608E8 ; 9.798850757386936E7 ; 1.3239227340187893E10 ; 0.0
75 ; 1645361.3118020147 ; 2.0133414188374004E8 ; 9.96302182566604E7 ; 1.3440546904791054E10 ; 0.0
76 ; 1647582.0084253054 ; 2.013487134060759E8 ; 1.0127557956846242E8 ; 1.3641881046674793E10 ; 0.0
77 ; 1653917.3257968228 ; 2.0136327832003385E8 ; 1.0292316157688773E8 ; 1.384322976008087E10 ; 0.0
78 ; 1652119.6050776665 ; 2.0137783580681372E8 ; 1.0457707890268455E8 ; 1.4044593038400904E10 ; 0.0
79 ; 1652174.6820817792 ; 2.013923850768902E8 ; 1.0622919850776222E8 ; 1.4245970874207718E10 ; 0.0
80 ; 1650939.5711497134 ; 2.0140692536811358E8 ; 1.07881373189844E8 ; 1.4447363259284609E10 ; 0.0
81 ; 1652909.663530349 ; 2.0142145594395745E8 ; 1.095323127609937E8 ; 1.4648770184652723E10 ; 0.0
82 ; 1655391.272299463 ; 2.0143597609189984E8 ; 1.1118522242452405E8 ; 1.4850191640596682E10 ; 0.0
83 ; 1655090.970200423 ; 2.014504851219266E8 ; 1.1284061369682352E8 ; 1.5051627616688581E10 ; 0.0
84 ; 1656632.0157842028 ; 2.0146498236514673E8 ; 1.1449570466702394E8 ; 1.5253078101810509E10 ; 0.0
85 ; 1657042.3363176268 ; 2.014794671725097E8 ; 1.1615233668280815E8 ; 1.5454543084175655E10 ; 0.0
86 ; 1656430.0493383966 ; 2.014939389136167E8 ; 1.1780937901912577E8 ; 1.5656022551348166E10 ; 0.0
87 ; 1655705.3165475663 ; 2.0150839697561777E8 ; 1.1946580906846417E8 ; 1.5857516490261782E10 ; 0.0
88 ; 1655783.331977524 ; 2.0152284076218787E8 ; 1.2112151438501175E8 ; 1.60590248872374E10 ; 0.0
89 ; 1654896.0799206446 ; 2.0153726969257545E8 ; 1.2277729771698928E8 ; 1.6260547727999588E10 ; 0.0
90 ; 1657795.721673999 ; 2.0155168320071772E8 ; 1.2443219379690993E8 ; 1.6462084997692163E10 ; 0.0
91 ; 1658245.3040925788 ; 2.015660807344172E8 ; 1.2608998951858392E8 ; 1.6663636680892881E10 ; 0.0
92 ; 1657515.4905030518 ; 2.0158046175457504E8 ; 1.2774823482267651E8 ; 1.6865202761627298E10 ; 0.0
93 ; 1655755.118522809 ; 2.015948257344763E8 ; 1.2940575031317957E8 ; 1.7066783223381874E10 ; 0.0
94 ; 1658427.7240986384 ; 2.0160917215912342E8 ; 1.3106150543170238E8 ; 1.7268378049116352E10 ; 0.0
95 ; 1656960.2318996822 ; 2.0162350052461416E8 ; 1.3271993315580101E8 ; 1.7469987221275475E10 ; 0.0
96 ; 1656244.1834940542 ; 2.0163781033756047E8 ; 1.343768933877007E8 ; 1.7671610721800087E10 ; 0.0
97 ; 1657030.080713105 ; 2.0165210111454576E8 ; 1.3603313757119477E8 ; 1.7873248532137646E10 ; 0.0
98 ; 1657498.2858061465 ; 2.0166637238161686E8 ; 1.3769016765190786E8 ; 1.807490063325219E10 ; 0.0
99 ; 1655351.8394887045 ; 2.0168062367380893E8 ; 1.39347665937714E8 ; 1.827656700563381E10 ; 0.0
100 ; 1654403.5250537074 ; 2.0169485453470057E8 ; 1.4100301777720273E8 ; 1.8478247629307617E10 ; 0.0
101 ; 1655160.5560036032 ; 2.0170906451599672E8 ; 1.4265742130225644E8 ; 1.867994248384232E10 ; 0.0
102 ; 1654267.600164645 ; 2.0172325317713806E8 ; 1.4431258185826004E8 ; 1.8881651548358315E10 ; 0.0
103 ; 1654752.5136496683 ; 2.0173742008493412E8 ; 1.459668494584247E8 ; 1.9083374801535454E10 ; 0.0
104 ; 1652363.7082485831 ; 2.0175156481321937E8 ; 1.4762160197207436E8 ; 1.9285112221620388E10 ; 0.0
105 ; 1653188.923806287 ; 2.0176568694252986E8 ; 1.4927396568032295E8 ; 1.948686378643361E10 ; 0.0
106 ; 1651218.4142355167 ; 2.0177978605979964E8 ; 1.5092715460412923E8 ; 1.968862947337614E10 ; 0.0
107 ; 1648894.827431719 ; 2.017938617580753E8 ; 1.5257837301836473E8 ; 1.989040925943594E10 ; 0.0
108 ; 1651597.1234656665 ; 2.0180791363624728E8 ; 1.5422726784579644E8 ; 2.0092203121194016E10 ; 0.0
109 ; 1648954.3083744678 ; 2.018219412987973E8 ; 1.558788649692621E8 ; 2.029401103483026E10 ; 0.0
110 ; 1648715.599006174 ; 2.0183594435556024E8 ; 1.5752781927763656E8 ; 2.049583297612906E10 ; 0.0
111 ; 1648892.9166434729 ; 2.0184992242150015E8 ; 1.5917653487664273E8 ; 2.069766892048462E10 ; 0.0
112 ; 1646742.4316692643 ; 2.0186387511649868E8 ; 1.608254277932862E8 ; 2.089951884290612E10 ; 0.0
113 ; 1646609.2339453911 ; 2.0187780206515622E8 ; 1.6247217022495547E8 ; 2.1101382718022617E10 ; 0.0
114 ; 1646008.876111448 ; 2.0189170289660364E8 ; 1.6411877945890087E8 ; 2.1303260520087772E10 ; 0.0
115 ; 1645105.9414715741 ; 2.0190557724432516E8 ; 1.6576478833501232E8 ; 2.1505152222984375E10 ; 0.0
116 ; 1643370.7983122973 ; 2.0191942474599066E8 ; 1.674098942764839E8 ; 2.17070578002287E10 ; 0.0
117 ; 1642695.7454713539 ; 2.0193324504329774E8 ; 1.690532650747962E8 ; 2.190897722497469E10 ; 0.0
118 ; 1638905.5332316046 ; 2.01947037781822E8 ; 1.7069596082026756E8 ; 2.2110910470017986E10 ; 0.0
119 ; 1639971.963442659 ; 2.0196080261087596E8 ; 1.7233486635349917E8 ; 2.231285750779981E10 ; 0.0
120 ; 1637819.6426586371 ; 2.0197453918337533E8 ; 1.7397483831694183E8 ; 2.2514818310410683E10 ; 0.0
121 ; 1636827.64480151 ; 2.0198824715571252E8 ; 1.7561265795960048E8 ; 2.271679284959406E10 ; 0.0
122 ; 1636801.5109398218 ; 2.0200192618763715E8 ; 1.7724948560440198E8 ; 2.291878109674977E10 ; 0.0
123 ; 1633558.9754739185 ; 2.0201557594214267E8 ; 1.788862871153418E8 ; 2.312078302293741E10 ; 0.0
124 ; 1632454.5027766598 ; 2.0202919608535916E8 ; 1.8051984609081572E8 ; 2.332279859887955E10 ; 0.0
125 ; 1628810.3204376572 ; 2.0204278628645167E8 ; 1.8215230059359238E8 ; 2.352482779496491E10 ; 0.0
126 ; 1627426.147867897 ; 2.020563462175239E8 ; 1.8378111091403005E8 ; 2.372687058125136E10 ; 0.0
127 ; 1626505.6551598825 ; 2.0206987555352706E8 ; 1.8540853706189793E8 ; 2.3928926927468887E10 ; 0.0
128 ; 1625924.1896395474 ; 2.0208337397217298E8 ; 1.8703504271705782E8 ; 2.4130996803022415E10 ; 0.0
129 ; 1624230.9876275158 ; 2.020968411538524E8 ; 1.8866096690669736E8 ; 2.4333080176994587E10 ; 0.0
130 ; 1620111.3593578327 ; 2.0211027678155673E8 ; 1.9028519789432487E8 ; 2.4535177018148438E10 ; 0.0
131 ; 1618304.385665064 ; 2.0212368054080427E8 ; 1.919053092536827E8 ; 2.4737287294929993E10 ; 0.0
132 ; 1612134.2861822601 ; 2.0213705211957002E8 ; 1.9352361363934776E8 ; 2.49394109754708E10 ; 0.0
133 ; 1608746.2814440404 ; 2.02150391208219E8 ; 1.9513574792553002E8 ; 2.514154802759037E10 ; 0.0
134 ; 1603071.5374750788 ; 2.0216369749944293E8 ; 1.9674449420697406E8 ; 2.5343698418798588E10 ; 0.0
135 ; 1598986.761221138 ; 2.021769706882002E8 ; 1.9834756574444914E8 ; 2.554586211629803E10 ; 0.0
136 ; 1593797.1273333684 ; 2.0219021047165856E8 ; 1.9994655250567028E8 ; 2.5748039086986233E10 ; 0.0
137 ; 1591279.3629461767 ; 2.0220341654914096E8 ; 2.0154034963300365E8 ; 2.595022929745789E10 ; 0.0
138 ; 1586000.5668531177 ; 2.022165886220739E8 ; 2.0313162899594983E8 ; 2.615243271400703E10 ; 0.0
139 ; 1582553.9561215574 ; 2.022297263939383E8 ; 2.0471762956280294E8 ; 2.6354649302629105E10 ; 0.0
140 ; 1576325.3175015738 ; 2.022428295702229E8 ; 2.063001835189245E8 ; 2.6556879029023045E10 ; 0.0
141 ; 1572264.9741627676 ; 2.0225589785837993E8 ; 2.0787650883642608E8 ; 2.675912185859327E10 ; 0.0
142 ; 1567879.6315055694 ; 2.0226893096778262E8 ; 2.0944877381058884E8 ; 2.696137775645165E10 ; 0.0
143 ; 1562151.144396071 ; 2.0228192860968533E8 ; 2.1101665344209442E8 ; 2.716364668741943E10 ; 0.0
144 ; 1557051.0722452726 ; 2.0229489049718526E8 ; 2.1257880458649048E8 ; 2.7365928616029114E10 ; 0.0
145 ; 1556614.4864383936 ; 2.0230781634518597E8 ; 2.1413585565873575E8 ; 2.75682235065263E10 ; 0.0
146 ; 1552455.6288860023 ; 2.0232070587036282E8 ; 2.1569247014517415E8 ; 2.7770531322871483E10 ; 0.0
147 ; 1550150.9522339595 ; 2.0233355879113016E8 ; 2.1724492577406016E8 ; 2.7972852028741844E10 ; 0.0
148 ; 1550378.252502589 ; 2.0234637482760972E8 ; 2.1879507672629413E8 ; 2.8175185587532974E10 ; 0.0
149 ; 1547779.7407133223 ; 2.0235915370160103E8 ; 2.2034545497879672E8 ; 2.8377531962360584E10 ; 0.0
150 ; 1546586.103187159 ; 2.0237189513655275E8 ; 2.2189323471951005E8 ; 2.8579891116062187E10 ; 0.0
151 ; 1541885.5561001897 ; 2.023845988575358E8 ; 2.2343982082269722E8 ; 2.878226301119874E10 ; 0.0
152 ; 1542687.0784774218 ; 2.0239726459121755E8 ; 2.249817063787974E8 ; 2.8984647610056274E10 ; 0.0
153 ; 1540400.9976651256 ; 2.024098920658372E8 ; 2.2652439345727482E8 ; 2.918704487464749E10 ; 0.0
154 ; 1539519.190992085 ; 2.024224810111826E8 ; 2.2806479445493996E8 ; 2.938945476671333E10 ; 0.0
155 ; 1536471.7326292468 ; 2.0243503115856782E8 ; 2.2960431364593205E8 ; 2.959187724772451E10 ; 0.0
156 ; 1534003.819520712 ; 2.0244754224081215E8 ; 2.311407853785613E8 ; 2.979431227888308E10 ; 0.0
157 ; 1531641.6201369015 ; 2.0246001399221992E8 ; 2.32674789198082E8 ; 2.999675982112389E10 ; 0.0
158 ; 1531219.5443629096 ; 2.0247244614856124E8 ; 2.342064308182189E8 ; 3.019921983511611E10 ; 0.0
159 ; 1525638.5275913747 ; 2.0248483844705376E8 ; 2.357376503625818E8 ; 3.040169228126467E10 ; 0.0
160 ; 1523039.2015556446 ; 2.024971906263453E8 ; 2.3726328889017317E8 ; 3.0604177119711723E10 ; 0.0
161 ; 1523534.7260803627 ; 2.0250950242649743E8 ; 2.387863280917288E8 ; 3.080667431033807E10 ; 0.0
162 ; 1521982.1379013127 ; 2.025217735889695E8 ; 2.4030986281780916E8 ; 3.100918381276457E10 ; 0.0
163 ; 1521612.0575677413 ; 2.0253400385660383E8 ; 2.4183184495571047E8 ; 3.121170558635354E10 ; 0.0
164 ; 1515537.5382539819 ; 2.0254619297361135E8 ; 2.4335345701327822E8 ; 3.1414239590210144E10 ; 0.0
165 ; 1516754.0521784828 ; 2.0255834068555823E8 ; 2.448689945515322E8 ; 3.1616785783183754E10 ; 0.0
166 ; 1513021.105502092 ; 2.0257044673935273E8 ; 2.4638574860371068E8 ; 3.1819344123869312E10 ; 0.0
167 ; 1511558.1535665663 ; 2.025825108832332E8 ; 2.4789876970921278E8 ; 3.2021914570608665E10 ; 0.0
168 ; 1509022.337698263 ; 2.0259453286675623E8 ; 2.4941032786277935E8 ; 3.2224497081491898E10 ; 0.0
169 ; 1507036.0527688337 ; 2.0260651244078577E8 ; 2.509193502004776E8 ; 3.2427091614358654E10 ; 0.0
170 ; 1505369.1344154736 ; 2.0261844935748246E8 ; 2.5242638625324643E8 ; 3.262969812679944E10 ; 0.0
171 ; 1501985.4832479085 ; 2.0263034337029377E8 ; 2.539317553876619E8 ; 3.283231657615692E10 ; 0.0
172 ; 1501691.0552334439 ; 2.026421942339444E8 ; 2.554337408709098E8 ; 3.3034946919527214E10 ; 0.0
173 ; 1498332.0228516946 ; 2.0265400170442742E8 ; 2.5693543192614326E8 ; 3.3237589113761158E10 ; 0.0
174 ; 1496889.8463140652 ; 2.026657655389957E8 ; 2.5843376394899496E8 ; 3.3440243115465584E10 ; 0.0
175 ; 1495231.1187426697 ; 2.026774854961538E8 ; 2.5993065379530904E8 ; 3.3642908881004578E10 ; 0.0
176 ; 1494009.8638244031 ; 2.026891613356503E8 ; 2.614258849140517E8 ; 3.3845586366500732E10 ; 0.0
177 ; 1490364.6394355579 ; 2.0270079281847063E8 ; 2.629198947778761E8 ; 3.4048275527836384E10 ; 0.0
178 ; 1493099.0223757837 ; 2.0271237970683008E8 ; 2.6441025941731167E8 ; 3.4250976320654854E10 ; 0.0
179 ; 1489330.8578517293 ; 2.027239217641675E8 ; 2.6590335843968746E8 ; 3.445368870036169E10 ; 0.0
180 ; 1487150.0996041773 ; 2.0273541875513896E8 ; 2.673926892975392E8 ; 3.4656412622125854E10 ; 0.0
181 ; 1487538.2996544135 ; 2.027468704456121E8 ; 2.6887983939714336E8 ; 3.4859148040881E10 ; 0.0
182 ; 1483552.5938926653 ; 2.0275827660266063E8 ; 2.703673776967978E8 ; 3.506189491132661E10 ; 0.0
183 ; 1484046.4864742744 ; 2.027696369945591E8 ; 2.718509302906905E8 ; 3.526465318792927E10 ; 0.0
184 ; 1482227.3332092057 ; 2.0278095139077824E8 ; 2.7333497677716476E8 ; 3.546742282492383E10 ; 0.0
185 ; 1481113.9014326152 ; 2.0279221956198016E8 ; 2.74817204110374E8 ; 3.5670203776314606E10 ; 0.0
186 ; 1481125.3979482604 ; 2.0280344128001425E8 ; 2.762983180118066E8 ; 3.587299599587659E10 ; 0.0
187 ; 1478212.065646461 ; 2.0281461631791306E8 ; 2.777794434097549E8 ; 3.60757994371566E10 ; 0.0
188 ; 1478597.5437567462 ; 2.0282574444988856E8 ; 2.7925765547540134E8 ; 3.627861405347452E10 ; 0.0
189 ; 1474849.4234622216 ; 2.0283682545132864E8 ; 2.8073625301915807E8 ; 3.648143979792441E10 ; 0.0
190 ; 1473739.7748198218 ; 2.0284785909879375E8 ; 2.822111024426203E8 ; 3.668427662337574E10 ; 0.0
191 ; 1472738.9480734395 ; 2.0285884517001387E8 ; 2.836848422174401E8 ; 3.688712448247453E10 ; 0.0
192 ; 1472233.5767713932 ; 2.028697834438857E8 ; 2.851575811655136E8 ; 3.708998332764455E10 ; 0.0
193 ; 1470556.811899378 ; 2.0288067370046997E8 ; 2.8662981474228495E8 ; 3.729285311108843E10 ; 0.0
194 ; 1469576.08878034 ; 2.028915157209889E8 ; 2.881003715541843E8 ; 3.74957337847889E10 ; 0.0
195 ; 1467074.5952231642 ; 2.0290230928782406E8 ; 2.8956994764296466E8 ; 3.769862530050989E10 ; 0.0
196 ; 1465841.2230770958 ; 2.0291305418451425E8 ; 2.9103702223818785E8 ; 3.7901527609797714E10 ; 0.0
197 ; 1464754.299469413 ; 2.029237501957536E8 ; 2.9250286346126497E8 ; 3.810444066398223E10 ; 0.0
198 ; 1463376.3331467605 ; 2.0293439710738972E8 ; 2.939676177607344E8 ; 3.8307364414177986E10 ; 0.0
199 ; 1461490.9605336268 ; 2.029449947064223E8 ; 2.9543099409388113E8 ; 3.851029881128538E10 ; 0.0
