CSV File for the City 6 on Day 71
1 - Minute m 
2 - Power Consumed at minute m 
3 - Power Produced at minute m 
4 - Energy Consumed since the beginning of the day 
5 - Energy Produced since the beginning of the day 
6 - Energy Lost since the beginning of the day on lines starting from the city
 
0 ; 1.1138861253693314E7 ; 1.0597110384836033E8 ; 0.0 ; 0.0 ; 0.0
1 ; 1.1150212425673004E7 ; 1.0612189400023884E8 ; 1.1138861253693314E7 ; 1.0597110384836033E8 ; 0.0
2 ; 1.1164688095444212E7 ; 1.065816839089137E8 ; 2.228907367936632E7 ; 2.1209299784859917E8 ; 0.0
3 ; 1.1180245957253462E7 ; 1.0735047807327521E8 ; 3.345376177481053E7 ; 3.1867468175751287E8 ; 0.0
4 ; 1.118862703908302E7 ; 1.0842828053751475E8 ; 4.4634007732063994E7 ; 4.260251598307881E8 ; 0.0
5 ; 1.1211527284250725E7 ; 1.0981509486457413E8 ; 5.582263477114701E7 ; 5.344534403683028E8 ; 0.0
6 ; 1.123930539998371E7 ; 1.115109241122168E8 ; 6.7034162055397734E7 ; 6.44268535232877E8 ; 0.0
7 ; 1.127356174515664E7 ; 1.1351577081208813E8 ; 7.827346745538144E7 ; 7.557794593450938E8 ; 0.0
8 ; 1.13287294875697E7 ; 1.158296369520945E8 ; 8.954702920053808E7 ; 8.69295230157182E8 ; 0.0
9 ; 1.1410272123744436E7 ; 1.1845252396238673E8 ; 1.0087575868810779E8 ; 9.851248671092765E8 ; 0.0
10 ; 1.153278797716477E7 ; 1.2138443270517695E8 ; 1.1228603081185222E8 ; 1.1035773910716634E9 ; 0.0
11 ; 1.1728284154071659E7 ; 1.246253634685596E8 ; 1.2381881878901699E8 ; 1.2249618237768402E9 ; 0.0
12 ; 1.2048182170400484E7 ; 1.281753159644402E8 ; 1.3554710294308865E8 ; 1.3495871872453997E9 ; 0.0
13 ; 1.2351499095853735E7 ; 1.3203428933060664E8 ; 1.4759528511348912E8 ; 1.4777625032098398E9 ; 0.0
14 ; 1.238403544535305E7 ; 1.3620228213690817E8 ; 1.5994678420934287E8 ; 1.6097967925404465E9 ; 0.0
15 ; 1.2400114228961036E7 ; 1.406792923954383E8 ; 1.7233081965469593E8 ; 1.7459990746773548E9 ; 0.0
16 ; 1.2414130527480116E7 ; 1.454653175745518E8 ; 1.8473093388365698E8 ; 1.886678367072793E9 ; 0.0
17 ; 1.2427530803631902E7 ; 1.505603546164851E8 ; 1.971450644111371E8 ; 2.0321436846473448E9 ; 0.0
18 ; 1.2443358087080877E7 ; 1.5596439995829642E8 ; 2.09572595214769E8 ; 2.1827040392638297E9 ; 0.0
19 ; 1.2460785668086782E7 ; 1.616774495557944E8 ; 2.2201595330184987E8 ; 2.338668439222126E9 ; 0.0
20 ; 1.2471277744741447E7 ; 1.676994989100887E8 ; 2.3447673896993667E8 ; 2.5003458887779202E9 ; 0.0
21 ; 1.2483446622561952E7 ; 1.740305430963696E8 ; 2.469480167146781E8 ; 2.668045387688009E9 ; 0.0
22 ; 1.2501679545082578E7 ; 1.8067057679450363E8 ; 2.5943146333724007E8 ; 2.8420759307843785E9 ; 0.0
23 ; 1.2515559573072456E7 ; 1.8761959432103056E8 ; 2.7193314288232267E8 ; 3.022746507578882E9 ; 0.0
24 ; 1.2528895648325162E7 ; 1.948775896621433E8 ; 2.844487024553951E8 ; 3.210366101899913E9 ; 0.0
25 ; 1.2546004453027504E7 ; 2.0113259740543318E8 ; 2.9697759810372025E8 ; 3.405243691562056E9 ; 0.0
26 ; 1.2558451932174787E7 ; 2.0113815881054136E8 ; 3.0952360255674773E8 ; 3.6063762889674892E9 ; 0.0
27 ; 1.2571865404350653E7 ; 2.0114403636765298E8 ; 3.2208205448892254E8 ; 3.8075144477780304E9 ; 0.0
28 ; 1.2592486172105232E7 ; 2.0115022307736483E8 ; 3.346539198932732E8 ; 4.0086584841456833E9 ; 0.0
29 ; 1.2600807123795778E7 ; 2.0115671177623528E8 ; 3.472464060653784E8 ; 4.209808707223048E9 ; 0.0
30 ; 1.2614536093412593E7 ; 2.0116349516803876E8 ; 3.598472131891742E8 ; 4.410965418999284E9 ; 0.0
31 ; 1.2627978381268134E7 ; 2.011705658537496E8 ; 3.7246174928258675E8 ; 4.612128914167322E9 ; 0.0
32 ; 1.2641187987774909E7 ; 2.0117791636007255E8 ; 3.850897276638549E8 ; 4.813299480021071E9 ; 0.0
33 ; 1.2653172884476703E7 ; 2.0118553916637492E8 ; 3.977309156516298E8 ; 5.014477396381144E9 ; 0.0
34 ; 1.2665371154249318E7 ; 2.0119342672991174E8 ; 4.103840885361065E8 ; 5.215662935547519E9 ; 0.0
35 ; 1.2676123166949242E7 ; 2.012015715092685E8 ; 4.2304945969035584E8 ; 5.416856362277431E9 ; 0.0
36 ; 1.2690449331788875E7 ; 2.0120996598597765E8 ; 4.3572558285730505E8 ; 5.618057933786699E9 ; 0.0
37 ; 1.2701497115403457E7 ; 2.0121860268429318E8 ; 4.4841603218909395E8 ; 5.819267899772676E9 ; 0.0
38 ; 1.2708924982128995E7 ; 2.012274741891315E8 ; 4.611175293044974E8 ; 6.020486502456969E9 ; 0.0
39 ; 1.2719853397633312E7 ; 2.0123657316220963E8 ; 4.738264542866264E8 ; 6.221713976646101E9 ; 0.0
40 ; 1.2729644726117121E7 ; 2.0124589235642847E8 ; 4.865463076842597E8 ; 6.4229505498083105E9 ; 0.0
41 ; 1.2741175246349275E7 ; 2.012554246285649E8 ; 4.9927595241037685E8 ; 6.624196442164739E9 ; 0.0
42 ; 1.275021732843887E7 ; 2.012651629503478E8 ; 5.120171276567261E8 ; 6.8254518667933035E9 ; 0.0
43 ; 1.2753258996127611E7 ; 2.0127510041800234E8 ; 5.24767344985165E8 ; 7.026717029743651E9 ; 0.0
44 ; 1.2761475154813474E7 ; 2.0128523026035294E8 ; 5.375206039812926E8 ; 7.2279921301616535E9 ; 0.0
45 ; 1.2774643873118758E7 ; 2.0129554584558067E8 ; 5.502820791361061E8 ; 7.429277360422007E9 ; 0.0
46 ; 1.2775091492801646E7 ; 2.013060406867319E8 ; 5.630567230092249E8 ; 7.630572906267588E9 ; 0.0
47 ; 1.2781791669896608E7 ; 2.0131670844607627E8 ; 5.758318145020266E8 ; 7.83187894695432E9 ; 0.0
48 ; 1.2787002586151699E7 ; 2.013275429384108E8 ; 5.886136061719232E8 ; 8.033195655400396E9 ; 0.0
49 ; 1.2792009684334358E7 ; 2.0133853813340518E8 ; 6.014006087580749E8 ; 8.234523198338807E9 ; 0.0
50 ; 1.279614359113875E7 ; 2.0134968815708026E8 ; 6.141926184424093E8 ; 8.435861736472212E9 ; 0.0
51 ; 1.2800609565491738E7 ; 2.0136098729250732E8 ; 6.26988762033548E8 ; 8.637211424629292E9 ; 0.0
52 ; 1.2802782520185541E7 ; 2.013724299798122E8 ; 6.397893715990398E8 ; 8.838572411921799E9 ; 0.0
53 ; 1.2805493372498518E7 ; 2.0138401081556326E8 ; 6.525921541192254E8 ; 9.039944841901611E9 ; 0.0
54 ; 1.281160952306057E7 ; 2.013957245516171E8 ; 6.653976474917239E8 ; 9.241328852717175E9 ; 0.0
55 ; 1.281371789133976E7 ; 2.014075660934905E8 ; 6.782092570147845E8 ; 9.442724577268791E9 ; 0.0
56 ; 1.2814787854849719E7 ; 2.0141953049832356E8 ; 6.910229749061242E8 ; 9.644132143362282E9 ; 0.0
57 ; 1.2823199384091051E7 ; 2.0143161297249073E8 ; 7.038377627609739E8 ; 9.845551673860605E9 ; 0.0
58 ; 1.2824720064030923E7 ; 2.014438088689155E8 ; 7.16660962145065E8 ; 1.0046983286833096E10 ; 0.0
59 ; 1.282629307667313E7 ; 2.014561136841359E8 ; 7.294856822090958E8 ; 1.0248427095702011E10 ; 0.0
60 ; 1.2829385138211638E7 ; 2.0146852305516627E8 ; 7.42311975285769E8 ; 1.0449883209386147E10 ; 0.0
61 ; 1.2831211090385314E7 ; 2.014810327561944E8 ; 7.551413604239806E8 ; 1.0651351732441313E10 ; 0.0
62 ; 1.2833958832322907E7 ; 2.0149363869515046E8 ; 7.679725715143659E8 ; 1.0852832765197508E10 ; 0.0
63 ; 1.2833595275113966E7 ; 2.0150633691017926E8 ; 7.808065303466889E8 ; 1.1054326403892658E10 ; 0.0
64 ; 1.2836435525936348E7 ; 2.0151912356604442E8 ; 7.936401256218028E8 ; 1.1255832740802837E10 ; 0.0
65 ; 1.2841410205599716E7 ; 2.0153199495048982E8 ; 8.064765611477392E8 ; 1.1457351864368881E10 ; 0.0
66 ; 1.2840889562637674E7 ; 2.0154494747057977E8 ; 8.193179713533388E8 ; 1.165888385931937E10 ; 0.0
67 ; 1.2841435458115268E7 ; 2.0155797764903784E8 ; 8.321588609159765E8 ; 1.186042880678995E10 ; 0.0
68 ; 1.2845798117132334E7 ; 2.0157108212060076E8 ; 8.450002963740917E8 ; 1.2061986784438988E10 ; 0.0
69 ; 1.2845515181049718E7 ; 2.015842576284019E8 ; 8.57846094491224E8 ; 1.226355786655959E10 ; 0.0
70 ; 1.2850937107722731E7 ; 2.0159750102039668E8 ; 8.706916096722738E8 ; 1.2465142124187992E10 ; 0.0
71 ; 1.2851111709554268E7 ; 2.0161080924584073E8 ; 8.835425467799965E8 ; 1.266673962520839E10 ; 0.0
72 ; 1.2853273055280093E7 ; 2.0162417935182884E8 ; 8.963936584895508E8 ; 1.286835043445423E10 ; 0.0
73 ; 1.2854069058633791E7 ; 2.0163760847990313E8 ; 9.092469315448309E8 ; 1.3069974613806059E10 ; 0.0
74 ; 1.2852910404308358E7 ; 2.0165109386273524E8 ; 9.221010006034647E8 ; 1.3271612222285961E10 ; 0.0
75 ; 1.2856011042559948E7 ; 2.0166463282088816E8 ; 9.34953911007773E8 ; 1.3473263316148697E10 ; 0.0
76 ; 1.2854412078339372E7 ; 2.016782227596611E8 ; 9.47809922050333E8 ; 1.3674927948969585E10 ; 0.0
77 ; 1.2857226165543849E7 ; 2.016918611660202E8 ; 9.606643341286724E8 ; 1.3876606171729246E10 ; 0.0
78 ; 1.2855641828710046E7 ; 2.017055456056171E8 ; 9.735215602942162E8 ; 1.4078298032895266E10 ; 0.0
79 ; 1.285211772291493E7 ; 2.0171927371989653E8 ; 9.863772021229262E8 ; 1.4280003578500883E10 ; 0.0
80 ; 1.2847398566114243E7 ; 2.017330432232939E8 ; 9.992293198458412E8 ; 1.448172285222078E10 ; 0.0
81 ; 1.2844372284844475E7 ; 2.017468519005227E8 ; 1.0120767184119554E9 ; 1.4683455895444073E10 ; 0.0
82 ; 1.2837703339430453E7 ; 2.017606976039514E8 ; 1.0249210906967999E9 ; 1.4885202747344595E10 ; 0.0
83 ; 1.2836041680689199E7 ; 2.0177457825106928E8 ; 1.0377587940362303E9 ; 1.5086963444948545E10 ; 0.0
84 ; 1.2828890177145556E7 ; 2.017884918220401E8 ; 1.0505948357169195E9 ; 1.5288738023199615E10 ; 0.0
85 ; 1.2829078744159564E7 ; 2.018024363573422E8 ; 1.0634237258940651E9 ; 1.5490526515021656E10 ; 0.0
86 ; 1.282471317256268E7 ; 2.0181640995549333E8 ; 1.0762528046382246E9 ; 1.5692328951378998E10 ; 0.0
87 ; 1.2816534850593748E7 ; 2.0183041077085897E8 ; 1.0890775178107872E9 ; 1.5894145361334492E10 ; 0.0
88 ; 1.2817492120199276E7 ; 2.0184443701154152E8 ; 1.101894052661381E9 ; 1.609597577210535E10 ; 0.0
89 ; 1.280858082478096E7 ; 2.0185848693734893E8 ; 1.1147115447815802E9 ; 1.6297820209116892E10 ; 0.0
90 ; 1.280808763949048E7 ; 2.018725588578404E8 ; 1.1275201256063612E9 ; 1.6499678696054241E10 ; 0.0
91 ; 1.2803947189804938E7 ; 2.018866511304467E8 ; 1.1403282132458515E9 ; 1.670155125491208E10 ; 0.0
92 ; 1.2799204962063152E7 ; 2.019007621586636E8 ; 1.1531321604356565E9 ; 1.6903437906042528E10 ; 0.0
93 ; 1.2793087004363773E7 ; 2.0191489039031526E8 ; 1.1659313653977196E9 ; 1.710533866820119E10 ; 0.0
94 ; 1.278900975830394E7 ; 2.01929034315886E8 ; 1.1787244524020834E9 ; 1.7307253558591507E10 ; 0.0
95 ; 1.2783837695833404E7 ; 2.0194319246691763E8 ; 1.1915134621603873E9 ; 1.7509182592907394E10 ; 0.0
96 ; 1.2778443638593918E7 ; 2.0195736341447085E8 ; 1.2042972998562207E9 ; 1.7711125785374313E10 ; 0.0
97 ; 1.2770128822935779E7 ; 2.0197154576764736E8 ; 1.2170757434948146E9 ; 1.7913083148788784E10 ; 0.0
98 ; 1.2768471045529315E7 ; 2.0198573817217144E8 ; 1.2298458723177505E9 ; 1.811505469455643E10 ; 0.0
99 ; 1.2761128966540068E7 ; 2.0199993930902857E8 ; 1.2426143433632798E9 ; 1.8317040432728603E10 ; 0.0
100 ; 1.2755817002524884E7 ; 2.0201414789315847E8 ; 1.25537547232982E9 ; 1.8519040372037632E10 ; 0.0
101 ; 1.2748837586229565E7 ; 2.0202836267220128E8 ; 1.2681312893323448E9 ; 1.872105451993079E10 ; 0.0
102 ; 1.2745006790159723E7 ; 2.0204258242529422E8 ; 1.2808801269185743E9 ; 1.8923082882602993E10 ; 0.0
103 ; 1.2737906727903396E7 ; 2.02056805961917E8 ; 1.293625133708734E9 ; 1.9125125465028286E10 ; 0.0
104 ; 1.2737906823246527E7 ; 2.0207103212078404E8 ; 1.3063630404366374E9 ; 1.9327182270990204E10 ; 0.0
105 ; 1.2725769705474777E7 ; 2.0208525976878172E8 ; 1.3191009472598839E9 ; 1.952925330311099E10 ; 0.0
106 ; 1.2717773396237927E7 ; 2.0209948779994857E8 ; 1.3318267169653587E9 ; 1.9731338562879772E10 ; 0.0
107 ; 1.271422100846882E7 ; 2.021137151344972E8 ; 1.3445444903615966E9 ; 1.993343805067972E10 ; 0.0
108 ; 1.270794020292497E7 ; 2.0212794071787542E8 ; 1.3572587113700655E9 ; 2.013555176581422E10 ; 0.0
109 ; 1.2699097644417861E7 ; 2.0214216351986602E8 ; 1.3699666515729904E9 ; 2.0337679706532097E10 ; 0.0
110 ; 1.2693263616303775E7 ; 2.021563825337226E8 ; 1.3826657492174082E9 ; 2.0539821870051964E10 ; 0.0
111 ; 1.2682335256201124E7 ; 2.0217059677534068E8 ; 1.3953590128337119E9 ; 2.0741978252585686E10 ; 0.0
112 ; 1.2676910192103336E7 ; 2.0218480528246218E8 ; 1.408041348089913E9 ; 2.0944148849361027E10 ; 0.0
113 ; 1.2672032764124181E7 ; 2.0219900711391222E8 ; 1.4207182582820163E9 ; 2.114633365464349E10 ; 0.0
114 ; 1.2664165147324013E7 ; 2.0221320134886664E8 ; 1.4333902910461404E9 ; 2.13485326617574E10 ; 0.0
115 ; 1.2657898978024865E7 ; 2.022273870861489E8 ; 1.4460544561934645E9 ; 2.1550745863106266E10 ; 0.0
116 ; 1.2651302114336645E7 ; 2.022415634435556E8 ; 1.4587123551714895E9 ; 2.1752973250192413E10 ; 0.0
117 ; 1.26410508424575E7 ; 2.0225572955720872E8 ; 1.4713636572858262E9 ; 2.1955214813635967E10 ; 0.0
118 ; 1.2634512109127335E7 ; 2.0226988458093405E8 ; 1.4840047081282837E9 ; 2.2157470543193176E10 ; 0.0
119 ; 1.2626433412614545E7 ; 2.022840276856644E8 ; 1.496639220237411E9 ; 2.235974042777411E10 ; 0.0
120 ; 1.2618464733872298E7 ; 2.022981580588665E8 ; 1.5092656536500256E9 ; 2.2562024455459774E10 ; 0.0
121 ; 1.2611009680766296E7 ; 2.0231227490399098E8 ; 1.521884118383898E9 ; 2.276432261351864E10 ; 0.0
122 ; 1.260277238534831E7 ; 2.0232637743994385E8 ; 1.5344951280646644E9 ; 2.296663488842263E10 ; 0.0
123 ; 1.2592878338439401E7 ; 2.0234046490057918E8 ; 1.5470979004500127E9 ; 2.3168961265862576E10 ; 0.0
124 ; 1.2583159943091176E7 ; 2.0235453653421167E8 ; 1.5596907787884521E9 ; 2.3371301730763153E10 ; 0.0
125 ; 1.257225300400272E7 ; 2.023685916031484E8 ; 1.5722739387315433E9 ; 2.3573656267297363E10 ; 0.0
126 ; 1.2567258670088599E7 ; 2.0238262938323906E8 ; 1.584846191735546E9 ; 2.3776024858900513E10 ; 0.0
127 ; 1.2556707368170029E7 ; 2.0239664916344368E8 ; 1.5974134504056346E9 ; 2.3978407488283752E10 ; 0.0
128 ; 1.254580908190316E7 ; 2.0241065024541745E8 ; 1.6099701577738047E9 ; 2.4180804137447197E10 ; 0.0
129 ; 1.2542192811571548E7 ; 2.0242463194311124E8 ; 1.622515966855708E9 ; 2.4383214787692616E10 ; 0.0
130 ; 1.2528573192076674E7 ; 2.0243859358238828E8 ; 1.6350581596672795E9 ; 2.4585639419635727E10 ; 0.0
131 ; 1.2514274553772628E7 ; 2.02452534500655E8 ; 1.6475867328593562E9 ; 2.4788078013218117E10 ; 0.0
132 ; 1.2502681641423559E7 ; 2.0246645404650655E8 ; 1.6601010074131289E9 ; 2.4990530547718773E10 ; 0.0
133 ; 1.2486091442361383E7 ; 2.0248035157938585E8 ; 1.6726036890545523E9 ; 2.5192997001765278E10 ; 0.0
134 ; 1.247487562161062E7 ; 2.024942264692555E8 ; 1.6850897804969137E9 ; 2.5395477353344666E10 ; 0.0
135 ; 1.246421254188454E7 ; 2.0250807809628245E8 ; 1.6975646561185243E9 ; 2.5597971579813923E10 ; 0.0
136 ; 1.2448290213269603E7 ; 2.0252190585053462E8 ; 1.7100288686604087E9 ; 2.5800479657910206E10 ; 0.0
137 ; 1.2431875735910526E7 ; 2.0253570913168895E8 ; 1.7224771588736784E9 ; 2.6003001563760742E10 ; 0.0
138 ; 1.2421192604920747E7 ; 2.0254948734875047E8 ; 1.7349090346095889E9 ; 2.620553727289243E10 ; 0.0
139 ; 1.241034359646691E7 ; 2.0256323991978216E8 ; 1.7473302272145097E9 ; 2.640808676024118E10 ; 0.0
140 ; 1.2391347564355534E7 ; 2.0257696627164468E8 ; 1.7597405708109767E9 ; 2.661065000016096E10 ; 0.0
141 ; 1.2380929951277263E7 ; 2.0259066583974597E8 ; 1.7721319183753324E9 ; 2.6813226966432606E10 ; 0.0
142 ; 1.236461271827501E7 ; 2.0260433806780028E8 ; 1.7845128483266096E9 ; 2.701581763227235E10 ; 0.0
143 ; 1.2349686529313378E7 ; 2.0261798240759596E8 ; 1.7968774610448847E9 ; 2.721842197034015E10 ; 0.0
144 ; 1.2338774642770525E7 ; 2.0263159831877196E8 ; 1.809227147574198E9 ; 2.7421039952747746E10 ; 0.0
145 ; 1.2325723897235908E7 ; 2.026451852686026E8 ; 1.8215659222169685E9 ; 2.7623671551066517E10 ; 0.0
146 ; 1.2314791954295166E7 ; 2.026587427317902E8 ; 1.8338916461142044E9 ; 2.782631673633512E10 ; 0.0
147 ; 1.2306439580317087E7 ; 2.0267227019026536E8 ; 1.8462064380684996E9 ; 2.802897547906691E10 ; 0.0
148 ; 1.2294989642982436E7 ; 2.0268576713299444E8 ; 1.8585128776488166E9 ; 2.8231647749257175E10 ; 0.0
149 ; 1.2285087621256577E7 ; 2.0269923305579415E8 ; 1.870807867291799E9 ; 2.843433351639017E10 ; 0.0
150 ; 1.2272287245748794E7 ; 2.027126674611529E8 ; 1.8830929549130557E9 ; 2.8637032749445965E10 ; 0.0
151 ; 1.2265794618120106E7 ; 2.0272606985805845E8 ; 1.8953652421588044E9 ; 2.8839745416907116E10 ; 0.0
152 ; 1.2252736467331413E7 ; 2.0273943976183185E8 ; 1.9076310367769246E9 ; 2.9042471486765175E10 ; 0.0
153 ; 1.2246483719313212E7 ; 2.0275277669396746E8 ; 1.919883773244256E9 ; 2.9245210926527008E10 ; 0.0
154 ; 1.2236958196868688E7 ; 2.027660801819785E8 ; 1.9321302569635692E9 ; 2.9447963703220974E10 ; 0.0
155 ; 1.2225322590348171E7 ; 2.0277934975924823E8 ; 1.9443672151604378E9 ; 2.9650729783402954E10 ; 0.0
156 ; 1.2212470808683049E7 ; 2.0279258496488637E8 ; 1.956592537750786E9 ; 2.98535091331622E10 ; 0.0
157 ; 1.2202844096908705E7 ; 2.0280578534359062E8 ; 1.9688050085594692E9 ; 3.0056301718127087E10 ; 0.0
158 ; 1.2193098417182114E7 ; 2.0281895044551316E8 ; 1.981007852656378E9 ; 3.0259107503470676E10 ; 0.0
159 ; 1.2183962901212463E7 ; 2.028320798261316E8 ; 1.9932009510735602E9 ; 3.046192645391619E10 ; 0.0
160 ; 1.2171359788398718E7 ; 2.0284517304612482E8 ; 2.0053849139747727E9 ; 3.066475853374232E10 ; 0.0
161 ; 1.2163289103117445E7 ; 2.0285822967125276E8 ; 2.0175562737631714E9 ; 3.0867603706788445E10 ; 0.0
162 ; 1.215285237336E7 ; 2.028712492722407E8 ; 2.029719562866289E9 ; 3.1070461936459698E10 ; 0.0
163 ; 1.2135801903100837E7 ; 2.0288423142466745E8 ; 2.0418724152396488E9 ; 3.1273333185731937E10 ; 0.0
164 ; 1.2128664768527862E7 ; 2.0289717570885736E8 ; 2.0540082171427495E9 ; 3.1476217417156605E10 ; 0.0
165 ; 1.2116851122872148E7 ; 2.029100817097762E8 ; 2.0661368819112773E9 ; 3.1679114592865463E10 ; 0.0
166 ; 1.2108552502864577E7 ; 2.0292294901693037E8 ; 2.0782537330341494E9 ; 3.188202467457524E10 ; 0.0
167 ; 1.2096703859897442E7 ; 2.0293577722427E8 ; 2.090362285537014E9 ; 3.208494762359217E10 ; 0.0
168 ; 1.2086884660411395E7 ; 2.0294856593009475E8 ; 2.1024589893969114E9 ; 3.228788340081644E10 ; 0.0
169 ; 1.2078844824070618E7 ; 2.0296131473696348E8 ; 2.1145458740573227E9 ; 3.2490831966746536E10 ; 0.0
170 ; 1.2065062541666545E7 ; 2.0297402325160652E8 ; 2.1266247188813934E9 ; 3.26937932814835E10 ; 0.0
171 ; 1.2055540237727951E7 ; 2.0298669108484113E8 ; 2.13868978142306E9 ; 3.2896767304735107E10 ; 0.0
172 ; 1.2043895523446823E7 ; 2.0299931785148966E8 ; 2.150745321660788E9 ; 3.309975399581995E10 ; 0.0
173 ; 1.2028140787499655E7 ; 2.0301190317030072E8 ; 2.162789217184235E9 ; 3.330275331367144E10 ; 0.0
174 ; 1.2020524835814364E7 ; 2.0302444666387272E8 ; 2.1748173579717345E9 ; 3.350576521684174E10 ; 0.0
175 ; 1.2015746472800234E7 ; 2.030369479585802E8 ; 2.186837882807549E9 ; 3.370878966350561E10 ; 0.0
176 ; 1.2012527718867958E7 ; 2.030494066845024E8 ; 2.1988536292803493E9 ; 3.391182661146419E10 ; 0.0
177 ; 1.2002537009849878E7 ; 2.0306182247535443E8 ; 2.210866156999217E9 ; 3.4114876018148693E10 ; 0.0
178 ; 1.1998020957760558E7 ; 2.0307419496842065E8 ; 2.222868694009067E9 ; 3.4317937840624046E10 ; 0.0
179 ; 1.1988084969434686E7 ; 2.0308652380449015E8 ; 2.2348667149668274E9 ; 3.452101203559247E10 ; 0.0
180 ; 1.1984189284950057E7 ; 2.0309880862779444E8 ; 2.246854799936262E9 ; 3.472409855939696E10 ; 0.0
181 ; 1.1974093770428788E7 ; 2.0311104908594733E8 ; 2.2588389892212124E9 ; 3.492719736802475E10 ; 0.0
182 ; 1.1965274433513494E7 ; 2.0312324482988656E8 ; 2.270813082991641E9 ; 3.5130308417110695E10 ; 0.0
183 ; 1.1963446529419173E7 ; 2.031353955138174E8 ; 2.2827783574251547E9 ; 3.533343166194058E10 ; 0.0
184 ; 1.1954721611320522E7 ; 2.031475007951583E8 ; 2.2947418039545736E9 ; 3.55365670574544E10 ; 0.0
185 ; 1.195109312578009E7 ; 2.0315956033448803E8 ; 2.306696525565894E9 ; 3.573971455824956E10 ; 0.0
186 ; 1.1944596251446059E7 ; 2.0317157379549477E8 ; 2.318647618691674E9 ; 3.5942874118584045E10 ; 0.0
187 ; 1.1932913392717488E7 ; 2.0318354084492663E8 ; 2.3305922149431205E9 ; 3.614604569237954E10 ; 0.0
188 ; 1.1931224091277987E7 ; 2.0319546115254396E8 ; 2.342525128335838E9 ; 3.6349229233224464E10 ; 0.0
189 ; 1.1925190898552205E7 ; 2.0320733439107323E8 ; 2.354456352427116E9 ; 3.655242469437701E10 ; 0.0
190 ; 1.1916563764283862E7 ; 2.0321916023616213E8 ; 2.3663815433256683E9 ; 3.675563202876808E10 ; 0.0
191 ; 1.1905642961045844E7 ; 2.0323093836633646E8 ; 2.378298107089952E9 ; 3.695885118900424E10 ; 0.0
192 ; 1.1899799381933141E7 ; 2.0324266846295825E8 ; 2.3902037500509977E9 ; 3.7162082127370575E10 ; 0.0
193 ; 1.1892677558853483E7 ; 2.03254350210185E8 ; 2.402103549432931E9 ; 3.7365324795833534E10 ; 0.0
194 ; 1.1890558564896198E7 ; 2.032659832949307E8 ; 2.4139962269917846E9 ; 3.756857914604372E10 ; 0.0
195 ; 1.188267280616931E7 ; 2.0327756740682775E8 ; 2.4258867855566807E9 ; 3.7771845129338646E10 ; 0.0
