CSV File for the City 4 on Day 364
1 - Minute m 
2 - Power Consumed at minute m 
3 - Power Produced at minute m 
4 - Energy Consumed since the beginning of the day 
5 - Energy Produced since the beginning of the day 
6 - Energy Lost since the beginning of the day on lines starting from the city
 
0 ; 6809333.673935639 ; 1.0584028986257091E8 ; 0.0 ; 0.0 ; 0.0
1 ; 6816211.400866651 ; 1.0599029550780326E8 ; 6809333.673935639 ; 1.0584028986257091E8 ; 0.0
2 ; 6823841.090123145 ; 1.0644937295135924E8 ; 1.362554507480229E7 ; 2.1183058537037417E8 ; 0.0
3 ; 6835043.882810362 ; 1.0721752999983293E8 ; 2.0449386164925434E7 ; 3.182799583217334E8 ; 0.0
4 ; 6842371.827973918 ; 1.082947737319749E8 ; 2.7284430047735795E7 ; 4.2549748832156634E8 ; 0.0
5 ; 6851493.241165635 ; 1.0968111043255764E8 ; 3.412680187570971E7 ; 5.3379226205354124E8 ; 0.0
6 ; 6869937.743476839 ; 1.1137654553165296E8 ; 4.097829511687535E7 ; 6.434733724860989E8 ; 0.0
7 ; 6893480.31897194 ; 1.1338108355063605E8 ; 4.784823286035219E7 ; 7.548499180177518E8 ; 0.0
8 ; 6927880.88180148 ; 1.1569472805613434E8 ; 5.474171317932413E7 ; 8.682310015683879E8 ; 0.0
9 ; 6976216.818293281 ; 1.183174816229971E8 ; 6.166959406112561E7 ; 9.839257296245222E8 ; 0.0
10 ; 7054443.359967591 ; 1.2124934580717432E8 ; 6.864581087941888E7 ; 1.1022432112475193E9 ; 0.0
11 ; 7174817.538638898 ; 1.2449032112916997E8 ; 7.570025423938647E7 ; 1.2234925570546937E9 ; 0.0
12 ; 7377628.34950815 ; 1.2804040706848004E8 ; 8.287507177802537E7 ; 1.3479828781838636E9 ; 0.0
13 ; 7567242.008905362 ; 1.3189960206915456E8 ; 9.025270012753353E7 ; 1.4760232852523437E9 ; 0.0
14 ; 7587216.6143287 ; 1.3606790355634433E8 ; 9.781994213643889E7 ; 1.6079228873214982E9 ; 0.0
15 ; 7597980.463274651 ; 1.4054530796342182E8 ; 1.0540715875076759E8 ; 1.7439907908778424E9 ; 0.0
16 ; 7606132.229295343 ; 1.4533181076901194E8 ; 1.1300513921404225E8 ; 1.8845360988412642E9 ; 0.0
17 ; 7612635.021841259 ; 1.504274065430428E8 ; 1.2061127144333759E8 ; 2.0298679096102762E9 ; 0.0
18 ; 7623144.97699753 ; 1.5583208900074196E8 ; 1.2822390646517885E8 ; 2.180295316153319E9 ; 0.0
19 ; 7631293.740311315 ; 1.615458510633588E8 ; 1.3584705144217637E8 ; 2.336127405154061E9 ; 0.0
20 ; 7640438.965309636 ; 1.6756868492429927E8 ; 1.434783451824877E8 ; 2.4976732562174196E9 ; 0.0
21 ; 7650286.345289744 ; 1.7390058211931393E8 ; 1.5111878414779735E8 ; 2.665241941141719E9 ; 0.0
22 ; 7660139.616839688 ; 1.8054153359937757E8 ; 1.5876907049308708E8 ; 2.8391425232610326E9 ; 0.0
23 ; 7669753.2611945085 ; 1.8749152980494422E8 ; 1.6642921010992676E8 ; 3.01968405686041E9 ; 0.0
24 ; 7676472.122716142 ; 1.9475056074033648E8 ; 1.7409896337112126E8 ; 3.2071755866653543E9 ; 0.0
25 ; 7686499.113672324 ; 2.0100665694532442E8 ; 1.817754354938374E8 ; 3.4019261474056907E9 ; 0.0
26 ; 7694295.528283442 ; 2.0101335560342062E8 ; 1.894619346075097E8 ; 3.602932804351015E9 ; 0.0
27 ; 7700960.372807436 ; 2.0102041513533267E8 ; 1.9715623013579315E8 ; 3.803946159954436E9 ; 0.0
28 ; 7709936.84730535 ; 2.0102782451072985E8 ; 2.048571905086006E8 ; 4.0049665750897684E9 ; 0.0
29 ; 7718597.937640698 ; 2.010355726023764E8 ; 2.1256712735590595E8 ; 4.205994399600498E9 ; 0.0
30 ; 7727204.5308299735 ; 2.0104364824250853E8 ; 2.2028572529354665E8 ; 4.407029972202874E9 ; 0.0
31 ; 7735042.2340464005 ; 2.010520402744328E8 ; 2.280129298243766E8 ; 4.608073620445383E9 ; 0.0
32 ; 7742913.957253825 ; 2.0106073759920385E8 ; 2.35747972058423E8 ; 4.809125660719816E9 ; 0.0
33 ; 7751471.061814339 ; 2.0106972921734905E8 ; 2.4349088601567683E8 ; 5.01018639831902E9 ; 0.0
34 ; 7760012.450162224 ; 2.0107900426570213E8 ; 2.5124235707749116E8 ; 5.211256127536369E9 ; 0.0
35 ; 7765925.64607346 ; 2.0108855204948577E8 ; 2.590023695276534E8 ; 5.412335131802072E9 ; 0.0
36 ; 7773551.919716576 ; 2.010983620698454E8 ; 2.6676829517372686E8 ; 5.613423683851558E9 ; 0.0
37 ; 7779774.762176074 ; 2.011084240470838E8 ; 2.7454184709344345E8 ; 5.814522045921403E9 ; 0.0
38 ; 7784193.363519262 ; 2.0111872793988067E8 ; 2.8232162185561955E8 ; 6.015630469968487E9 ; 0.0
39 ; 7791765.963761059 ; 2.011292639608024E8 ; 2.901058152191388E8 ; 6.216749197908367E9 ; 0.0
40 ; 7795692.194351501 ; 2.0114002258842006E8 ; 2.9789758118289983E8 ; 6.417878461869169E9 ; 0.0
41 ; 7804344.43129437 ; 2.0115099457635576E8 ; 3.056932733772513E8 ; 6.619018484457589E9 ; 0.0
42 ; 7809151.690993172 ; 2.011621709595744E8 ; 3.134976178085457E8 ; 6.820169479033945E9 ; 0.0
43 ; 7812725.808859087 ; 2.011735430582276E8 ; 3.213067694995389E8 ; 7.02133164999352E9 ; 0.0
44 ; 7820226.9586729435 ; 2.0118510247934368E8 ; 3.29119495308398E8 ; 7.222505193051747E9 ; 0.0
45 ; 7824169.608972855 ; 2.011968411166395E8 ; 3.3693972226707095E8 ; 7.423690295531091E9 ; 0.0
46 ; 7828788.04310554 ; 2.0120875114871275E8 ; 3.447638918760438E8 ; 7.62488713664773E9 ; 0.0
47 ; 7830855.905976359 ; 2.0122082503585202E8 ; 3.5259267991914934E8 ; 7.826095887796443E9 ; 0.0
48 ; 7836026.526023546 ; 2.012330555156817E8 ; 3.604235358251257E8 ; 8.027316712832295E9 ; 0.0
49 ; 7836775.336266363 ; 2.0124543559783942E8 ; 3.6825956235114926E8 ; 8.228549768347977E9 ; 0.0
50 ; 7836522.226261202 ; 2.012579585578619E8 ; 3.760963376874156E8 ; 8.429795203945816E9 ; 0.0
51 ; 7841174.0409053005 ; 2.0127061793043765E8 ; 3.839328599136768E8 ; 8.631053162503677E9 ; 0.0
52 ; 7843368.763104274 ; 2.012834075021662E8 ; 3.917740339545821E8 ; 8.832323780434114E9 ; 0.0
53 ; 7848288.113012645 ; 2.0129632130394632E8 ; 3.9961740271768636E8 ; 9.033607187936281E9 ; 0.0
54 ; 7847459.74598506 ; 2.0130935360310054E8 ; 4.07465690830699E8 ; 9.234903509240227E9 ; 0.0
55 ; 7849756.568118391 ; 2.0132249889532885E8 ; 4.1531315057668406E8 ; 9.436212862843327E9 ; 0.0
56 ; 7852263.197899069 ; 2.0133575189657137E8 ; 4.2316290714480245E8 ; 9.637535361738655E9 ; 0.0
57 ; 7854847.4209033055 ; 2.0134910753484765E8 ; 4.310151703427015E8 ; 9.838871113635227E9 ; 0.0
58 ; 7856005.367851268 ; 2.013625609421305E8 ; 4.388700177636048E8 ; 1.0040220221170074E10 ; 0.0
59 ; 7857679.688354548 ; 2.0137610744630212E8 ; 4.467260231314561E8 ; 1.0241582782112206E10 ; 0.0
60 ; 7859358.636840707 ; 2.013897425632325E8 ; 4.545837028198106E8 ; 1.0442958889558508E10 ; 0.0
61 ; 7859411.040071173 ; 2.0140346198901245E8 ; 4.6244306145665133E8 ; 1.064434863212174E10 ; 0.0
62 ; 7859215.440341782 ; 2.014172615923671E8 ; 4.703024724967225E8 ; 1.0845752094110752E10 ; 0.0
63 ; 7863522.383370275 ; 2.014311374072708E8 ; 4.781616879370643E8 ; 1.104716935570312E10 ; 0.0
64 ; 7865705.633088337 ; 2.014450856257785E8 ; 4.860252103204346E8 ; 1.124860049311039E10 ; 0.0
65 ; 7863972.221916201 ; 2.0145910259108576E8 ; 4.938909159535229E8 ; 1.1450045578736168E10 ; 0.0
66 ; 7868999.031320757 ; 2.0147318479082447E8 ; 5.017548881754391E8 ; 1.1651504681327253E10 ; 0.0
67 ; 7866144.75756022 ; 2.0148732885060006E8 ; 5.0962388720675987E8 ; 1.1852977866118078E10 ; 0.0
68 ; 7871407.316187356 ; 2.0150153152777195E8 ; 5.1749003196432006E8 ; 1.2054465194968678E10 ; 0.0
69 ; 7868367.795716128 ; 2.015157897054775E8 ; 5.2536143928050745E8 ; 1.2255966726496449E10 ; 0.0
70 ; 7874140.85794394 ; 2.0153010038689858E8 ; 5.3322980707622355E8 ; 1.2457482516201925E10 ; 0.0
71 ; 7871796.61744006 ; 2.0154446068976644E8 ; 5.411039479341675E8 ; 1.2659012616588823E10 ; 0.0
72 ; 7873491.5984556135 ; 2.015588678411021E8 ; 5.489757445516076E8 ; 1.286055707727859E10 ; 0.0
73 ; 7874103.60774739 ; 2.01573319172186E8 ; 5.568492361500633E8 ; 1.3062115945119692E10 ; 0.0
74 ; 7874057.695809426 ; 2.0158781211375168E8 ; 5.647233397578107E8 ; 1.3263689264291878E10 ; 0.0
75 ; 7874346.62886343 ; 2.016023441913965E8 ; 5.725973974536202E8 ; 1.346527707640563E10 ; 0.0
76 ; 7877422.467397487 ; 2.0161691302120286E8 ; 5.804717440824836E8 ; 1.3666879420597027E10 ; 0.0
77 ; 7878583.415217517 ; 2.0163151630556273E8 ; 5.883491665498811E8 ; 1.3868496333618229E10 ; 0.0
78 ; 7875150.050634465 ; 2.0164615182919765E8 ; 5.962277499650986E8 ; 1.4070127849923792E10 ; 0.0
79 ; 7870846.6876524845 ; 2.0166081745536715E8 ; 6.041029000157331E8 ; 1.4271774001752989E10 ; 0.0
80 ; 7869366.4114798615 ; 2.0167551112225813E8 ; 6.119737467033856E8 ; 1.4473434819208357E10 ; 0.0
81 ; 7865240.758570513 ; 2.0169023083954713E8 ; 6.198431131148654E8 ; 1.4675110330330614E10 ; 0.0
82 ; 7867759.655076275 ; 2.0170497468512872E8 ; 6.27708353873436E8 ; 1.487680056117016E10 ; 0.0
83 ; 7863731.1668812875 ; 2.0171974080200237E8 ; 6.355761135285122E8 ; 1.507850553585529E10 ; 0.0
84 ; 7862268.3085930385 ; 2.0173452739531085E8 ; 6.434398446953936E8 ; 1.5280225276657291E10 ; 0.0
85 ; 7859253.867578434 ; 2.0174933272952303E8 ; 6.513021130039866E8 ; 1.5481959804052603E10 ; 0.0
86 ; 7856629.135727964 ; 2.0176415512575468E8 ; 6.59161366871565E8 ; 1.5683709136782125E10 ; 0.0
87 ; 7854103.738479619 ; 2.017789929592203E8 ; 6.67017996007293E8 ; 1.588547329190788E10 ; 0.0
88 ; 7847576.387802396 ; 2.0179384465681008E8 ; 6.748720997457726E8 ; 1.6087252284867102E10 ; 0.0
89 ; 7848579.189511948 ; 2.018087086947859E8 ; 6.82719676133575E8 ; 1.6289046129523912E10 ; 0.0
90 ; 7843312.976735646 ; 2.0182358359659E8 ; 6.905682553230869E8 ; 1.6490854838218699E10 ; 0.0
91 ; 7842353.49569025 ; 2.0183846793076193E8 ; 6.984115682998224E8 ; 1.6692678421815289E10 ; 0.0
92 ; 7841653.155348284 ; 2.0185336030895674E8 ; 7.062539217955127E8 ; 1.689451688974605E10 ; 0.0
93 ; 7836970.655337236 ; 2.0186825938406113E8 ; 7.14095574950861E8 ; 1.7096370250055006E10 ; 0.0
94 ; 7833636.686033314 ; 2.0188316384840122E8 ; 7.219325456061982E8 ; 1.7298238509439068E10 ; 0.0
95 ; 7832014.13605252 ; 2.018980724320381E8 ; 7.297661822922316E8 ; 1.7500121673287468E10 ; 0.0
96 ; 7824933.45832202 ; 2.019129839011464E8 ; 7.37598196428284E8 ; 1.7702019745719505E10 ; 0.0
97 ; 7824443.335702689 ; 2.019278970564719E8 ; 7.454231298866061E8 ; 1.790393272962065E10 ; 0.0
98 ; 7820184.8540063985 ; 2.019428107318637E8 ; 7.532475732223088E8 ; 1.8105860626677124E10 ; 0.0
99 ; 7817788.99407189 ; 2.019577237928778E8 ; 7.610677580763152E8 ; 1.830780343740899E10 ; 0.0
100 ; 7813752.139867283 ; 2.0197263513544777E8 ; 7.68885547070387E8 ; 1.8509761161201866E10 ; 0.0
101 ; 7812458.665649778 ; 2.0198754368461964E8 ; 7.766992992102543E8 ; 1.8711733796337315E10 ; 0.0
102 ; 7804281.573945566 ; 2.020024483933473E8 ; 7.845117578759041E8 ; 1.8913721340021935E10 ; 0.0
103 ; 7803552.7457664255 ; 2.020173482413457E8 ; 7.923160394498496E8 ; 1.9115723788415283E10 ; 0.0
104 ; 7797991.021678581 ; 2.020322422339985E8 ; 8.00119592195616E8 ; 1.9317741136656628E10 ; 0.0
105 ; 7794963.951072543 ; 2.0204712940131766E8 ; 8.079175832172946E8 ; 1.9519773378890625E10 ; 0.0
106 ; 7791137.474469268 ; 2.020620087969523E8 ; 8.157125471683671E8 ; 1.9721820508291943E10 ; 0.0
107 ; 7787389.636691523 ; 2.0207687949724427E8 ; 8.235036846428365E8 ; 1.9923882517088894E10 ; 0.0
108 ; 7784383.229202603 ; 2.020917406003279E8 ; 8.31291074279528E8 ; 2.012595939658614E10 ; 0.0
109 ; 7779625.39893411 ; 2.0210659122527206E8 ; 8.390754575087306E8 ; 2.0328051137186466E10 ; 0.0
110 ; 7775258.397151109 ; 2.02121430511262E8 ; 8.468550829076648E8 ; 2.053015772841174E10 ; 0.0
111 ; 7769508.118089008 ; 2.0213625761681923E8 ; 8.546303413048159E8 ; 2.0732279158923E10 ; 0.0
112 ; 7763439.159081621 ; 2.021510717190574E8 ; 8.623998494229048E8 ; 2.0934415416539818E10 ; 0.0
113 ; 7760225.4471873 ; 2.021658720129723E8 ; 8.701632885819864E8 ; 2.1136566488258877E10 ; 0.0
114 ; 7755821.532321497 ; 2.0218065771076456E8 ; 8.779235140291737E8 ; 2.133873236027185E10 ; 0.0
115 ; 7752653.805653248 ; 2.0219542804119298E8 ; 8.856793355614952E8 ; 2.1540913017982616E10 ; 0.0
116 ; 7747815.666903658 ; 2.0221018224895746E8 ; 8.934319893671484E8 ; 2.1743108446023808E10 ; 0.0
117 ; 7739854.698576607 ; 2.0222491959410954E8 ; 9.01179805034052E8 ; 2.1945318628272766E10 ; 0.0
118 ; 7738943.607798855 ; 2.022396393514897E8 ; 9.089196597326286E8 ; 2.2147543547866875E10 ; 0.0
119 ; 7733264.707456817 ; 2.0225434081018955E8 ; 9.166586033404274E8 ; 2.2349783187218365E10 ; 0.0
120 ; 7725524.334969166 ; 2.0226902327303842E8 ; 9.243918680478842E8 ; 2.2552037528028553E10 ; 0.0
121 ; 7723198.296275688 ; 2.0228368605611226E8 ; 9.321173923828534E8 ; 2.275430655130159E10 ; 0.0
122 ; 7715720.5070189 ; 2.0229832848826447E8 ; 9.398405906791291E8 ; 2.29565902373577E10 ; 0.0
123 ; 7710319.698306746 ; 2.0231294991067734E8 ; 9.47556311186148E8 ; 2.3158888565845966E10 ; 0.0
124 ; 7707601.963939539 ; 2.0232754967643315E8 ; 9.552666308844548E8 ; 2.3361201515756645E10 ; 0.0
125 ; 7705092.108647924 ; 2.0234212715010366E8 ; 9.629742328483944E8 ; 2.356352906543308E10 ; 0.0
126 ; 7695719.472739695 ; 2.0235668170735785E8 ; 9.706793249570423E8 ; 2.3765871192583183E10 ; 0.0
127 ; 7690599.249756655 ; 2.0237121273458618E8 ; 9.78375044429782E8 ; 2.3968227874290543E10 ; 0.0
128 ; 7686136.708678266 ; 2.023857196285412E8 ; 9.860656436795387E8 ; 2.4170599087025127E10 ; 0.0
129 ; 7680406.623797082 ; 2.0240020179599345E8 ; 9.93751780388217E8 ; 2.4372984806653667E10 ; 0.0
130 ; 7671663.693092039 ; 2.0241465865340197E8 ; 1.001432187012014E9 ; 2.457538500844966E10 ; 0.0
131 ; 7667492.026716481 ; 2.0242908962659886E8 ; 1.009103850705106E9 ; 2.477779966710306E10 ; 0.0
132 ; 7658057.849357792 ; 2.024434941504871E8 ; 1.0167713427318225E9 ; 2.498022875672966E10 ; 0.0
133 ; 7649332.982805585 ; 2.0245787166875085E8 ; 1.0244294005811803E9 ; 2.5182672250880146E10 ; 0.0
134 ; 7640092.703142899 ; 2.024722216335782E8 ; 1.032078733563986E9 ; 2.5385130122548897E10 ; 0.0
135 ; 7631982.851131134 ; 2.024865435053952E8 ; 1.0397188262671288E9 ; 2.5587602344182476E10 ; 0.0
136 ; 7623072.326229073 ; 2.0250083675261092E8 ; 1.0473508091182599E9 ; 2.579008888768787E10 ; 0.0
137 ; 7617027.972781096 ; 2.025151008513731E8 ; 1.054973881444489E9 ; 2.599258972444048E10 ; 0.0
138 ; 7606255.674930753 ; 2.0252933528533375E8 ; 1.0625909094172701E9 ; 2.619510482529185E10 ; 0.0
139 ; 7598308.420192714 ; 2.0254353954542434E8 ; 1.0701971650922009E9 ; 2.6397634160577187E10 ; 0.0
140 ; 7589050.304323868 ; 2.0255771312964007E8 ; 1.0777954735123935E9 ; 2.6600177700122612E10 ; 0.0
141 ; 7579563.184923548 ; 2.02571855542833E8 ; 1.0853845238167174E9 ; 2.680273541325225E10 ; 0.0
142 ; 7574763.306458351 ; 2.025859662965134E8 ; 1.092964087001641E9 ; 2.7005307268795082E10 ; 0.0
143 ; 7562779.056654263 ; 2.026000449086591E8 ; 1.1005388503080993E9 ; 2.7207893235091595E10 ; 0.0
144 ; 7554906.172442783 ; 2.0261409090353245E8 ; 1.1081016293647535E9 ; 2.7410493280000256E10 ; 0.0
145 ; 7547904.520666752 ; 2.026281038115045E8 ; 1.1156565355371962E9 ; 2.761310737090379E10 ; 0.0
146 ; 7541451.553894791 ; 2.0264208316888636E8 ; 1.123204440057863E9 ; 2.7815735474715294E10 ; 0.0
147 ; 7536401.586029114 ; 2.026560285177668E8 ; 1.1307458916117578E9 ; 2.8018377557884182E10 ; 0.0
148 ; 7528927.212788118 ; 2.026699394058567E8 ; 1.1382822931977868E9 ; 2.8221033586401947E10 ; 0.0
149 ; 7519398.11140003 ; 2.026838153863392E8 ; 1.145811220410575E9 ; 2.8423703525807804E10 ; 0.0
150 ; 7515865.318373636 ; 2.0269765601772588E8 ; 1.153330618521975E9 ; 2.8626387341194145E10 ; 0.0
151 ; 7511923.206392776 ; 2.0271146086371857E8 ; 1.1608464838403487E9 ; 2.8829084997211872E10 ; 0.0
152 ; 7499860.769150593 ; 2.0272522949307615E8 ; 1.1683584070467415E9 ; 2.9031796458075592E10 ; 0.0
153 ; 7496644.440826937 ; 2.0273896147948694E8 ; 1.175858267815892E9 ; 2.923452168756867E10 ; 0.0
154 ; 7491677.274636659 ; 2.0275265640144563E8 ; 1.1833549122567189E9 ; 2.9437260649048157E10 ; 0.0
155 ; 7484787.880115239 ; 2.0276631384213507E8 ; 1.1908465895313556E9 ; 2.9640013305449604E10 ; 0.0
156 ; 7480216.229516802 ; 2.027799333893125E8 ; 1.198331377411471E9 ; 2.984277961929174E10 ; 0.0
157 ; 7472413.239320454 ; 2.0279351463520017E8 ; 1.2058115936409876E9 ; 3.0045559552681053E10 ; 0.0
158 ; 7465801.866145302 ; 2.0280705717637986E8 ; 1.2132840068803082E9 ; 3.0248353067316254E10 ; 0.0
159 ; 7458652.426478873 ; 2.0282056061369163E8 ; 1.2207498087464535E9 ; 3.0451160124492634E10 ; 0.0
160 ; 7452633.21070177 ; 2.0283402455213618E8 ; 1.2282084611729324E9 ; 3.0653980685106327E10 ; 0.0
161 ; 7443677.77604511 ; 2.02847448600781E8 ; 1.235661094383634E9 ; 3.0856814709658463E10 ; 0.0
162 ; 7438656.772586339 ; 2.028608323726699E8 ; 1.2431047721596792E9 ; 3.1059662158259243E10 ; 0.0
163 ; 7428658.242582123 ; 2.0287417548473585E8 ; 1.2505434289322655E9 ; 3.1262522990631912E10 ; 0.0
164 ; 7427874.936600334 ; 2.028874775577172E8 ; 1.2579720871748476E9 ; 3.146539716611665E10 ; 0.0
165 ; 7420654.264033621 ; 2.0290073821607682E8 ; 1.265399962111448E9 ; 3.1668284643674366E10 ; 0.0
166 ; 7409626.498967744 ; 2.0291395708792427E8 ; 1.2728206163754816E9 ; 3.187118538189044E10 ; 0.0
167 ; 7406064.945316208 ; 2.029271338049409E8 ; 1.2802302428744493E9 ; 3.2074099338978367E10 ; 0.0
168 ; 7398847.959464011 ; 2.0294026800230756E8 ; 1.2876363078197656E9 ; 3.2277026472783306E10 ; 0.0
169 ; 7390423.187444999 ; 2.0295335931863487E8 ; 1.2950351557792296E9 ; 3.2479966740785614E10 ; 0.0
170 ; 7383665.841778061 ; 2.029664073958962E8 ; 1.3024255789666746E9 ; 3.2682920100104248E10 ; 0.0
171 ; 7377734.428392369 ; 2.0297941187936306E8 ; 1.3098092448084526E9 ; 3.2885886507500145E10 ; 0.0
172 ; 7368384.739798433 ; 2.0299237241754258E8 ; 1.317186979236845E9 ; 3.308886591937951E10 ; 0.0
173 ; 7363060.584700779 ; 2.030052886621175E8 ; 1.3245553639766436E9 ; 3.329185829179705E10 ; 0.0
174 ; 7359214.600746735 ; 2.0301816026788813E8 ; 1.3319184245613444E9 ; 3.3494863580459167E10 ; 0.0
175 ; 7354175.90310202 ; 2.030309868927165E8 ; 1.339277639162091E9 ; 3.3697881740727055E10 ; 0.0
176 ; 7350520.229137733 ; 2.0304376819747245E8 ; 1.346631815065193E9 ; 3.390091272761977E10 ; 0.0
177 ; 7346650.837816334 ; 2.0305650384598157E8 ; 1.3539823352943306E9 ; 3.410395649581724E10 ; 0.0
178 ; 7344806.101461381 ; 2.0306919350497505E8 ; 1.3613289861321468E9 ; 3.4307012999663223E10 ; 0.0
179 ; 7336262.718253858 ; 2.030818368440414E8 ; 1.3686737922336082E9 ; 3.45100821931682E10 ; 0.0
180 ; 7336190.188756658 ; 2.0309443353557962E8 ; 1.376010054951862E9 ; 3.471316403001224E10 ; 0.0
181 ; 7328288.968213432 ; 2.0310698325475425E8 ; 1.3833462451406188E9 ; 3.491625846354781E10 ; 0.0
182 ; 7324256.785865683 ; 2.0311948567945182E8 ; 1.3906745341088321E9 ; 3.511936544680257E10 ; 0.0
183 ; 7321381.661866873 ; 2.0313194049023902E8 ; 1.397998790894698E9 ; 3.532248493248202E10 ; 0.0
184 ; 7314219.089122987 ; 2.0314434737032208E8 ; 1.4053201725565648E9 ; 3.552561687297226E10 ; 0.0
185 ; 7312074.418689773 ; 2.031567060055079E8 ; 1.4126343916456878E9 ; 3.572876122034258E10 ; 0.0
186 ; 7306585.884009114 ; 2.0316901608416608E8 ; 1.4199464660643775E9 ; 3.593191792634809E10 ; 0.0
187 ; 7303213.684118167 ; 2.0318127729719272E8 ; 1.4272530519483867E9 ; 3.613508694243226E10 ; 0.0
188 ; 7298341.83931608 ; 2.0319348933797523E8 ; 1.434556265632505E9 ; 3.6338268219729454E10 ; 0.0
189 ; 7292915.971573394 ; 2.0320565190235832E8 ; 1.441854607471821E9 ; 3.654146170906743E10 ; 0.0
190 ; 7289037.396548172 ; 2.0321776468861136E8 ; 1.4491475234433944E9 ; 3.674466736096979E10 ; 0.0
191 ; 7285432.041797203 ; 2.0322982739739668E8 ; 1.4564365608399427E9 ; 3.69478851256584E10 ; 0.0
192 ; 7282896.813079751 ; 2.0324183973173904E8 ; 1.4637219928817399E9 ; 3.71511149530558E10 ; 0.0
193 ; 7276928.806737156 ; 2.0325380139699617E8 ; 1.4710048896948197E9 ; 3.735435679278754E10 ; 0.0
194 ; 7271489.351359044 ; 2.0326571210083026E8 ; 1.4782818185015569E9 ; 3.755761059418453E10 ; 0.0
195 ; 7268040.995405061 ; 2.0327757155318052E8 ; 1.485553307852916E9 ; 3.776087630628536E10 ; 0.0
196 ; 7262931.182665704 ; 2.032893794662365E8 ; 1.492821348848321E9 ; 3.796415387783854E10 ; 0.0
197 ; 7261341.840309599 ; 2.0330113555441263E8 ; 1.5000842800309865E9 ; 3.816744325730478E10 ; 0.0
198 ; 7255999.06994056 ; 2.033128395343232E8 ; 1.5073456218712962E9 ; 3.837074439285919E10 ; 0.0
199 ; 7254619.264414315 ; 2.0332449112475866E8 ; 1.5146016209412367E9 ; 3.857405723239352E10 ; 0.0
200 ; 7249325.60301386 ; 2.0333609004666242E8 ; 1.521856240205651E9 ; 3.877738172351827E10 ; 0.0
201 ; 7243470.806674269 ; 1.548827134113814E8 ; 1.5291055658086648E9 ; 3.898071781356493E10 ; 0.0
