CSV File for the City 6 on Day 73
1 - Minute m 
2 - Power Consumed at minute m 
3 - Power Produced at minute m 
4 - Energy Consumed since the beginning of the day 
5 - Energy Produced since the beginning of the day 
6 - Energy Lost since the beginning of the day on lines starting from the city
 
0 ; 1.1146867769911537E7 ; 1.0598720471295443E8 ; 0.0 ; 0.0 ; 0.0
1 ; 1.1152441141641306E7 ; 1.0613801280332297E8 ; 1.1146867769911537E7 ; 1.0598720471295443E8 ; 0.0
2 ; 1.1168077894717056E7 ; 1.0659781915594599E8 ; 2.2299308911552843E7 ; 2.121252175162774E8 ; 0.0
3 ; 1.118431213442113E7 ; 1.0736662814527434E8 ; 3.34673868062699E7 ; 3.187230366722234E8 ; 0.0
4 ; 1.1199031287712125E7 ; 1.0844444370182455E8 ; 4.465169894069103E7 ; 4.2608966481749773E8 ; 0.0
5 ; 1.1216153896501265E7 ; 1.0983126928697437E8 ; 5.585073022840316E7 ; 5.345341085193223E8 ; 0.0
6 ; 1.1240865667028107E7 ; 1.1152710787026909E8 ; 6.7066884124904424E7 ; 6.443653778062966E8 ; 0.0
7 ; 1.1278897868112296E7 ; 1.1353196190957987E8 ; 7.830774979193252E7 ; 7.558924856765656E8 ; 0.0
8 ; 1.1332888833584158E7 ; 1.1584583333441842E8 ; 8.958664766004482E7 ; 8.694244475861455E8 ; 0.0
9 ; 1.1409896136487214E7 ; 1.184687235326721E8 ; 1.0091953649362898E8 ; 9.852702809205639E8 ; 0.0
10 ; 1.153748007108055E7 ; 1.2140063334097105E8 ; 1.123294326301162E8 ; 1.103739004453236E9 ; 0.0
11 ; 1.1734764391332245E7 ; 1.2464156303884497E8 ; 1.2386691270119675E8 ; 1.225139637794207E9 ; 0.0
12 ; 1.2050274222252496E7 ; 1.2819151234676412E8 ; 1.35601677092529E8 ; 1.3497812008330522E9 ; 0.0
13 ; 1.235458458503894E7 ; 1.3205048042809838E8 ; 1.476519513147815E8 ; 1.4779727131798162E9 ; 0.0
14 ; 1.239082104702887E7 ; 1.3621846589496046E8 ; 1.6000653589982042E8 ; 1.6100231936079147E9 ; 0.0
15 ; 1.2403564354146317E7 ; 1.4069546681783855E8 ; 1.723973569468493E8 ; 1.746241659502875E9 ; 0.0
16 ; 1.2418449242878297E7 ; 1.454814807388616E8 ; 1.848009213009956E8 ; 1.8869371263207135E9 ; 0.0
17 ; 1.2432871949566832E7 ; 1.5057650468848422E8 ; 1.9721937054387388E8 ; 2.032418607059575E9 ; 0.0
18 ; 1.2449452565822301E7 ; 1.559805352053287E8 ; 2.0965224249344072E8 ; 2.1829951117480593E9 ; 0.0
19 ; 1.246049157396143E7 ; 1.6169356835887852E8 ; 2.2210169505926302E8 ; 2.338975646953388E9 ; 0.0
20 ; 1.247571113863754E7 ; 1.677155997746828E8 ; 2.3456218663322446E8 ; 2.500669215312267E9 ; 0.0
21 ; 1.2493171149175052E7 ; 1.740466246617066E8 ; 2.47037897771862E8 ; 2.66838481508695E9 ; 0.0
22 ; 1.2505997907836905E7 ; 1.8068663784144455E8 ; 2.5953106892103705E8 ; 2.8424314397486563E9 ; 0.0
23 ; 1.2520330066869175E7 ; 1.8763563377840835E8 ; 2.7203706682887393E8 ; 3.023118077590101E9 ; 0.0
24 ; 1.2536002122285623E7 ; 1.9489360661159915E8 ; 2.8455739689574313E8 ; 3.2107537113685093E9 ; 0.0
25 ; 1.2549388413470896E7 ; 2.011485910847704E8 ; 2.9709339901802874E8 ; 3.4056473179801083E9 ; 0.0
26 ; 1.256303313567051E7 ; 2.0115412861564496E8 ; 3.0964278743149966E8 ; 3.6067959090648785E9 ; 0.0
27 ; 1.2575011018730232E7 ; 2.0115998185304272E8 ; 3.2220582056717014E8 ; 3.8079500376805234E9 ; 0.0
28 ; 1.2589019146854317E7 ; 2.0116614395546612E8 ; 3.3478083158590037E8 ; 4.009110019533566E9 ; 0.0
29 ; 1.2603900049257651E7 ; 2.011726079154644E8 ; 3.473698507327547E8 ; 4.2102761634890323E9 ; 0.0
30 ; 1.2617823533856938E7 ; 2.011793665898102E8 ; 3.5997375078201234E8 ; 4.411448771404497E9 ; 0.0
31 ; 1.2633340122005088E7 ; 2.011864127285189E8 ; 3.725915743158693E8 ; 4.6126281379943075E9 ; 0.0
32 ; 1.2644499127243845E7 ; 2.0119373900253272E8 ; 3.852249144378744E8 ; 4.813814550722826E9 ; 0.0
33 ; 1.265592696102432E7 ; 2.0120133802992454E8 ; 3.978694135651182E8 ; 5.015008289725359E9 ; 0.0
34 ; 1.2670964220900051E7 ; 2.0120920240051258E8 ; 4.1052534052614254E8 ; 5.216209627755283E9 ; 0.0
35 ; 1.2680969857743386E7 ; 2.0121732469880638E8 ; 4.231963047470426E8 ; 5.417418830155796E9 ; 0.0
36 ; 1.2691185182373855E7 ; 2.0122569752523544E8 ; 4.35877274604786E8 ; 5.618636154854603E9 ; 0.0
37 ; 1.2699074231178379E7 ; 2.0123431351563853E8 ; 4.4856845978715986E8 ; 5.819861852379838E9 ; 0.0
38 ; 1.2715080371020325E7 ; 2.0124316535901394E8 ; 4.6126753401833826E8 ; 6.021096165895476E9 ; 0.0
39 ; 1.272118248189456E7 ; 2.0125224581355435E8 ; 4.739826143893586E8 ; 6.22233933125449E9 ; 0.0
40 ; 1.2734247469115168E7 ; 2.0126154772100472E8 ; 4.8670379687125313E8 ; 6.423591577068045E9 ; 0.0
41 ; 1.2740421844258511E7 ; 2.0127106401939866E8 ; 4.994380443403683E8 ; 6.624853124789049E9 ; 0.0
42 ; 1.275087684301374E7 ; 2.0128078775423956E8 ; 5.1217846618462676E8 ; 6.826124188808448E9 ; 0.0
43 ; 1.2757263799351616E7 ; 2.0129071208820212E8 ; 5.249293430276405E8 ; 7.027404976562687E9 ; 0.0
44 ; 1.2766700859748518E7 ; 2.0130083030943716E8 ; 5.376866068269922E8 ; 7.228695688650889E9 ; 0.0
45 ; 1.2774442713214826E7 ; 2.0131113583856705E8 ; 5.504533076867406E8 ; 7.429996518960326E9 ; 0.0
46 ; 1.2776271159378998E7 ; 2.0132162223446172E8 ; 5.632277503999555E8 ; 7.631307654798893E9 ; 0.0
47 ; 1.2786534103025861E7 ; 2.0133228319888705E8 ; 5.760040215593345E8 ; 7.832629277033355E9 ; 0.0
48 ; 1.2792118307024049E7 ; 2.0134311258011615E8 ; 5.887905556623604E8 ; 8.033961560232242E9 ; 0.0
49 ; 1.2795659370701643E7 ; 2.0135410437559357E8 ; 6.015826739693844E8 ; 8.235304672812358E9 ; 0.0
50 ; 1.280046140710502E7 ; 2.01365252733739E8 ; 6.143783333400861E8 ; 8.436658777187951E9 ; 0.0
51 ; 1.2803217395188618E7 ; 2.0137655195497522E8 ; 6.271787947471911E8 ; 8.63802402992169E9 ; 0.0
52 ; 1.280722326365903E7 ; 2.0138799649205977E8 ; 6.399820121423796E8 ; 8.839400581876665E9 ; 0.0
53 ; 1.2812617418943455E7 ; 2.0139958094979647E8 ; 6.527892354060386E8 ; 9.040788578368725E9 ; 0.0
54 ; 1.2815819952794498E7 ; 2.014113000841988E8 ; 6.65601852824982E8 ; 9.242188159318521E9 ; 0.0
55 ; 1.2818552376528632E7 ; 2.01423148801171E8 ; 6.784176727777766E8 ; 9.44359945940272E9 ; 0.0
56 ; 1.2822424995665517E7 ; 2.0143512215476996E8 ; 6.912362251543052E8 ; 9.64502260820389E9 ; 0.0
57 ; 1.2825804014694652E7 ; 2.0144721534510443E8 ; 7.040586501499708E8 ; 9.84645773035866E9 ; 0.0
58 ; 1.2827814694182819E7 ; 2.0145942371592483E8 ; 7.168844541646655E8 ; 1.0047904945703764E10 ; 0.0
59 ; 1.2829385940260323E7 ; 2.014717427519515E8 ; 7.297122688588483E8 ; 1.024936436941969E10 ; 0.0
60 ; 1.2832999905253947E7 ; 2.0148416807598546E8 ; 7.425416547991086E8 ; 1.045083611217164E10 ; 0.0
61 ; 1.2833637895115586E7 ; 2.0149669544584107E8 ; 7.553746547043626E8 ; 1.0652320280247625E10 ; 0.0
62 ; 1.2839690394632498E7 ; 2.015093207511366E8 ; 7.682082925994782E8 ; 1.0853816975693466E10 ; 0.0
63 ; 1.2841259654007792E7 ; 2.0152204000997478E8 ; 7.810479829941107E8 ; 1.1055326296444603E10 ; 0.0
64 ; 1.2845218727684837E7 ; 2.0153484936554176E8 ; 7.938892426481185E8 ; 1.1256848336454578E10 ; 0.0
65 ; 1.2846967190143904E7 ; 2.0154774508265E8 ; 8.067344613758034E8 ; 1.145838318582012E10 ; 0.0
66 ; 1.2848809829748604E7 ; 2.015607235442478E8 ; 8.195814285659473E8 ; 1.165993093090277E10 ; 0.0
67 ; 1.2848700645404851E7 ; 2.015737812479146E8 ; 8.324302383956959E8 ; 1.1861491654447018E10 ; 0.0
68 ; 1.2851257322453115E7 ; 2.0158691480236018E8 ; 8.452789390411007E8 ; 1.2063065435694933E10 ; 0.0
69 ; 1.2855798673194751E7 ; 2.0160012092394173E8 ; 8.581301963635539E8 ; 1.2264652350497293E10 ; 0.0
70 ; 1.285349996488382E7 ; 2.016133964332129E8 ; 8.709859950367486E8 ; 1.2466252471421236E10 ; 0.0
71 ; 1.285409017387991E7 ; 2.0162673825151455E8 ; 8.838394950016325E8 ; 1.2667865867854448E10 ; 0.0
72 ; 1.2854139993861048E7 ; 2.0164014339761788E8 ; 8.966935851755123E8 ; 1.2869492606105963E10 ; 0.0
73 ; 1.2855966357440803E7 ; 2.0165360898442674E8 ; 9.095477251693734E8 ; 1.307113274950358E10 ; 0.0
74 ; 1.286164269471847E7 ; 2.0166713221574643E8 ; 9.224036915268142E8 ; 1.3272786358488007E10 ; 0.0
75 ; 1.2859789383383548E7 ; 2.0168071038312393E8 ; 9.352653342215327E8 ; 1.3474453490703753E10 ; 0.0
76 ; 1.286328307016694E7 ; 2.016943408627636E8 ; 9.481251236049162E8 ; 1.3676134201086876E10 ; 0.0
77 ; 1.2864976736831777E7 ; 2.017080211125224E8 ; 9.609884066750832E8 ; 1.387782854194964E10 ; 0.0
78 ; 1.2859832369993875E7 ; 2.0172174866898605E8 ; 9.73853383411915E8 ; 1.4079536563062162E10 ; 0.0
79 ; 1.285859989075408E7 ; 2.0173552114462894E8 ; 9.867132157819089E8 ; 1.4281258311731148E10 ; 0.0
80 ; 1.2852368336797897E7 ; 2.0174933622505814E8 ; 9.99571815672663E8 ; 1.4482993832875776E10 ; 0.0
81 ; 1.2846503732364897E7 ; 2.0176319166634217E8 ; 1.0124241840094609E9 ; 1.4684743169100834E10 ; 0.0
82 ; 1.2848058802816171E7 ; 2.0177708529242504E8 ; 1.0252706877418258E9 ; 1.4886506360767176E10 ; 0.0
83 ; 1.2841797963643597E7 ; 2.0179101499262455E8 ; 1.038118746544642E9 ; 1.50882834460596E10 ; 0.0
84 ; 1.2839506463155346E7 ; 2.0180497871921474E8 ; 1.0509605445082855E9 ; 1.5290074461052225E10 ; 0.0
85 ; 1.2833874707108766E7 ; 2.0181897448509088E8 ; 1.0638000509714409E9 ; 1.549187943977144E10 ; 0.0
86 ; 1.282849831611075E7 ; 2.0183300036151642E8 ; 1.0766339256785498E9 ; 1.569369841425653E10 ; 0.0
87 ; 1.2829746800974645E7 ; 2.018470544759498E8 ; 1.0894624239946606E9 ; 1.5895531414618048E10 ; 0.0
88 ; 1.282387701426771E7 ; 2.0186113500994986E8 ; 1.1022921707956352E9 ; 1.6097378469093998E10 ; 0.0
89 ; 1.281922537137938E7 ; 2.0187524019715804E8 ; 1.115116047809903E9 ; 1.6299239604103949E10 ; 0.0
90 ; 1.2815258679798387E7 ; 2.0188936832135502E8 ; 1.1279352731812823E9 ; 1.6501114844301107E10 ; 0.0
91 ; 1.2807075836098151E7 ; 2.0190351771459067E8 ; 1.1407505318610806E9 ; 1.6703004212622463E10 ; 0.0
92 ; 1.2802831997664133E7 ; 2.0191768675538442E8 ; 1.1535576076971788E9 ; 1.6904907730337053E10 ; 0.0
93 ; 1.2800735017206945E7 ; 2.0193187386699453E8 ; 1.166360439694843E9 ; 1.7106825417092438E10 ; 0.0
94 ; 1.279788846642187E7 ; 2.019460775157537E8 ; 1.17916117471205E9 ; 1.730875729095943E10 ; 0.0
95 ; 1.279098805623025E7 ; 2.019602962094694E8 ; 1.1919590631784718E9 ; 1.7510703368475185E10 ; 0.0
96 ; 1.2786279155307595E7 ; 2.0197452849588647E8 ; 1.204750051234702E9 ; 1.7712663664684654E10 ; 0.0
97 ; 1.2777618290229468E7 ; 2.019887729612097E8 ; 1.2175363303900096E9 ; 1.7914638193180542E10 ; 0.0
98 ; 1.2773099445763845E7 ; 2.020030282286849E8 ; 1.2303139486802392E9 ; 1.811662696614175E10 ; 0.0
99 ; 1.2770917053798374E7 ; 2.0201729295723566E8 ; 1.243087048126003E9 ; 1.8318629994370434E10 ; 0.0
100 ; 1.276176238728434E7 ; 2.0203156584015453E8 ; 1.2558579651798015E9 ; 1.852064728732767E10 ; 0.0
101 ; 1.2756411637170516E7 ; 2.0204584560384578E8 ; 1.2686197275670857E9 ; 1.8722678853167824E10 ; 0.0
102 ; 1.2751960140129382E7 ; 2.020601310066187E8 ; 1.2813761392042563E9 ; 1.892472469877167E10 ; 0.0
103 ; 1.2746462906948717E7 ; 2.0207442083752885E8 ; 1.2941280993443856E9 ; 1.912678482977829E10 ; 0.0
104 ; 1.2741497761990389E7 ; 2.0208871391526553E8 ; 1.3068745622513344E9 ; 1.9328859250615818E10 ; 0.0
105 ; 1.2735620648652047E7 ; 2.0210300908708405E8 ; 1.3196160600133247E9 ; 1.9530947964531082E10 ; 0.0
106 ; 1.27281544215229E7 ; 2.021173052277807E8 ; 1.3323516806619768E9 ; 1.9733050973618168E10 ; 0.0
107 ; 1.2721081736901062E7 ; 2.0213160123870865E8 ; 1.3450798350834997E9 ; 1.9935168278845947E10 ; 0.0
108 ; 1.2714612129572779E7 ; 2.0214589604683352E8 ; 1.3578009168204007E9 ; 2.0137299880084656E10 ; 0.0
109 ; 1.2707442190465733E7 ; 2.0216018860382676E8 ; 1.3705155289499736E9 ; 2.033944577613149E10 ; 0.0
110 ; 1.2698258771291403E7 ; 2.0217447788519526E8 ; 1.3832229711404393E9 ; 2.0541605964735317E10 ; 0.0
111 ; 1.2695195916257551E7 ; 2.0218876288944602E8 ; 1.3959212299117308E9 ; 2.0743780442620514E10 ; 0.0
112 ; 1.2688940667280016E7 ; 2.0220304263728404E8 ; 1.4086164258279884E9 ; 2.094596920550996E10 ; 0.0
113 ; 1.2683675035297887E7 ; 2.0221731617084247E8 ; 1.4213053664952683E9 ; 2.1148172248147243E10 ; 0.0
114 ; 1.2669140969686903E7 ; 2.0223158255294347E8 ; 1.4339890415305662E9 ; 2.1350389564318085E10 ; 0.0
115 ; 1.266641367292937E7 ; 2.022458408663884E8 ; 1.4466581825002532E9 ; 2.155262114687103E10 ; 0.0
116 ; 1.2656348910980394E7 ; 2.0226009021327657E8 ; 1.4593245961731825E9 ; 2.175486698773742E10 ; 0.0
117 ; 1.2649924695082659E7 ; 2.0227432971435073E8 ; 1.471980945084163E9 ; 2.1957127077950695E10 ; 0.0
118 ; 1.2639679532971151E7 ; 2.0228855850836885E8 ; 1.4846308697792456E9 ; 2.2159401407665047E10 ; 0.0
119 ; 1.2636419277084915E7 ; 2.023027757515006E8 ; 1.4972705493122168E9 ; 2.2361689966173416E10 ; 0.0
120 ; 1.2624147957316844E7 ; 2.0231698061674777E8 ; 1.5099069685893016E9 ; 2.2563992741924915E10 ; 0.0
121 ; 1.2618183285972405E7 ; 2.0233117229338744E8 ; 1.5225311165466185E9 ; 2.2766309722541664E10 ; 0.0
122 ; 1.2611038174117105E7 ; 2.0234534998643723E8 ; 1.5351492998325908E9 ; 2.2968640894835052E10 ; 0.0
123 ; 1.2601308083653226E7 ; 2.0235951291614142E8 ; 1.547760338006708E9 ; 2.317098624482149E10 ; 0.0
124 ; 1.2595059556226395E7 ; 2.0237366031747717E8 ; 1.560361646090361E9 ; 2.3373345757737633E10 ; 0.0
125 ; 1.258026455657103E7 ; 2.0238779143968013E8 ; 1.5729567056465876E9 ; 2.357571941805511E10 ; 0.0
126 ; 1.2573423928829232E7 ; 2.024019055457885E8 ; 1.5855369702031586E9 ; 2.3778107209494793E10 ; 0.0
127 ; 1.2566240453819152E7 ; 2.0241600191220474E8 ; 1.5981103941319878E9 ; 2.398050911504058E10 ; 0.0
128 ; 1.255707875635562E7 ; 2.0243007982827425E8 ; 1.6106766345858068E9 ; 2.4182925116952785E10 ; 0.0
129 ; 1.2548886656751245E7 ; 2.0244413859588045E8 ; 1.6232337133421624E9 ; 2.438535519678106E10 ; 0.0
130 ; 1.2537488213238856E7 ; 2.024581775290554E8 ; 1.6357825999989135E9 ; 2.4587799335376938E10 ; 0.0
131 ; 1.2524832548980705E7 ; 2.0247219595360512E8 ; 1.6483200882121525E9 ; 2.4790257512905994E10 ; 0.0
132 ; 1.2512014900594419E7 ; 2.0248619320674983E8 ; 1.6608449207611332E9 ; 2.49927297088596E10 ; 0.0
133 ; 1.24996678327832E7 ; 2.0250016863677722E8 ; 1.6733569356617277E9 ; 2.519521590206635E10 ; 0.0
134 ; 1.2485339117044324E7 ; 2.025141216027095E8 ; 1.685856603494511E9 ; 2.5397716070703125E10 ; 0.0
135 ; 1.2470380914043324E7 ; 2.0252805147398272E8 ; 1.698341942611555E9 ; 2.5600230192305836E10 ; 0.0
136 ; 1.2456621379926564E7 ; 2.0254195763013828E8 ; 1.7108123235255985E9 ; 2.580275824377982E10 ; 0.0
137 ; 1.2442012854128601E7 ; 2.0255583946052623E8 ; 1.7232689449055252E9 ; 2.6005300201409958E10 ; 0.0
138 ; 1.2428834673784828E7 ; 2.0256969636401948E8 ; 1.7357109577596538E9 ; 2.6207856040870483E10 ; 0.0
139 ; 1.2419080332467068E7 ; 2.025835277487389E8 ; 1.7481397924334385E9 ; 2.6410425737234505E10 ; 0.0
140 ; 1.2402529073813757E7 ; 2.0259733303178862E8 ; 1.7605588727659056E9 ; 2.6613009264983242E10 ; 0.0
141 ; 1.2390206752695318E7 ; 2.0261111163900092E8 ; 1.7729614018397193E9 ; 2.681560659801503E10 ; 0.0
142 ; 1.2374125695746157E7 ; 2.026248630046911E8 ; 1.7853516085924146E9 ; 2.701821770965403E10 ; 0.0
143 ; 1.235835167114601E7 ; 2.0263858657142094E8 ; 1.7977257342881608E9 ; 2.7220842572658722E10 ; 0.0
144 ; 1.2346045827270024E7 ; 2.026522817897711E8 ; 1.8100840859593067E9 ; 2.7423481159230145E10 ; 0.0
145 ; 1.2338189752193863E7 ; 2.0266594811812177E8 ; 1.8224301317865767E9 ; 2.7626133441019917E10 ; 0.0
146 ; 1.2328093584879983E7 ; 2.0267958502244136E8 ; 1.8347683215387707E9 ; 2.782879938913804E10 ; 0.0
147 ; 1.2314093925385296E7 ; 2.02693191976083E8 ; 1.8470964151236506E9 ; 2.803147897416048E10 ; 0.0
148 ; 1.230759614283319E7 ; 2.0270676845958826E8 ; 1.8594105090490358E9 ; 2.8234172166136562E10 ; 0.0
149 ; 1.2298345656192008E7 ; 2.027203139604981E8 ; 1.871718105191869E9 ; 2.843687893459615E10 ; 0.0
150 ; 1.2285339420738766E7 ; 2.0273382797317058E8 ; 1.884016450848061E9 ; 2.863959924855665E10 ; 0.0
151 ; 1.2277353508184632E7 ; 2.0274730999860513E8 ; 1.8963017902687998E9 ; 2.884233307652982E10 ; 0.0
152 ; 1.226608896781915E7 ; 2.0276075954427326E8 ; 1.9085791437769845E9 ; 2.9045080386528423E10 ; 0.0
153 ; 1.2257524178152693E7 ; 2.027741761239549E8 ; 1.9208452327448037E9 ; 2.9247841146072697E10 ; 0.0
154 ; 1.2247189791974666E7 ; 2.0278755925758123E8 ; 1.9331027569229565E9 ; 2.945061532219665E10 ; 0.0
155 ; 1.2234857883124264E7 ; 2.0280090847108242E8 ; 1.9453499467149312E9 ; 2.965340288145423E10 ; 0.0
156 ; 1.222396885119877E7 ; 2.0281422329624116E8 ; 1.9575848045980556E9 ; 2.9856203789925312E10 ; 0.0
157 ; 1.221646996709184E7 ; 2.028275032705513E8 ; 1.9698087734492543E9 ; 3.0059018013221554E10 ; 0.0
158 ; 1.2208873564755147E7 ; 2.0284074793708125E8 ; 1.982025243416346E9 ; 3.0261845516492104E10 ; 0.0
159 ; 1.2195512893581303E7 ; 2.028539568443424E8 ; 1.9942341169811013E9 ; 3.0464686264429184E10 ; 0.0
160 ; 1.218427594986138E7 ; 2.0286712954616213E8 ; 2.0064296298746827E9 ; 3.0667540221273525E10 ; 0.0
161 ; 1.2171245671854107E7 ; 2.0288026560156095E8 ; 2.018613905824544E9 ; 3.0870407350819687E10 ; 0.0
162 ; 1.2164664798656872E7 ; 2.0289336457463425E8 ; 2.030785151496398E9 ; 3.107328761642125E10 ; 0.0
163 ; 1.2156003143353965E7 ; 2.0290642603443798E8 ; 2.042949816295055E9 ; 3.1276180980995884E10 ; 0.0
164 ; 1.2140487550910648E7 ; 2.029194495548782E8 ; 2.0551058194384089E9 ; 3.1479087407030323E10 ; 0.0
165 ; 1.2131576049457496E7 ; 2.0293243471460462E8 ; 2.0672463069893196E9 ; 3.16820068565852E10 ; 0.0
166 ; 1.211876235230364E7 ; 2.029453810969076E8 ; 2.079377883038777E9 ; 3.1884939291299805E10 ; 0.0
167 ; 1.2107116460287718E7 ; 2.0295828828961873E8 ; 2.0914966453910809E9 ; 3.2087884672396713E10 ; 0.0
168 ; 1.2097707977989206E7 ; 2.029711558850149E8 ; 2.1036037618513687E9 ; 3.2290842960686333E10 ; 0.0
169 ; 1.208751274047627E7 ; 2.029839834797254E8 ; 2.1157014698293579E9 ; 3.2493814116571346E10 ; 0.0
170 ; 1.2075953427628692E7 ; 2.0299677067464232E8 ; 2.1277889825698342E9 ; 3.269679810005107E10 ; 0.0
171 ; 1.206347047073949E7 ; 2.0300951707483417E8 ; 2.139864935997463E9 ; 3.289979487072571E10 ; 0.0
172 ; 1.2053496723067136E7 ; 2.0302222228946176E8 ; 2.1519284064682026E9 ; 3.3102804387800545E10 ; 0.0
173 ; 1.2047403942263532E7 ; 2.0303488593169776E8 ; 2.16398190319127E9 ; 3.3305826610090008E10 ; 0.0
174 ; 1.2038258813278155E7 ; 2.0304750761864823E8 ; 2.1760293071335335E9 ; 3.3508861496021706E10 ; 0.0
175 ; 1.2028928366377044E7 ; 2.0306008697127718E8 ; 2.1880675659468117E9 ; 3.3711909003640354E10 ; 0.0
176 ; 1.2024414398397326E7 ; 2.0307262361433348E8 ; 2.2000964943131886E9 ; 3.391496909061163E10 ; 0.0
177 ; 1.2017440548142798E7 ; 2.0308511717628023E8 ; 2.212120908711586E9 ; 3.4118041714225964E10 ; 0.0
178 ; 1.2011606267593209E7 ; 2.0309756728922644E8 ; 2.224138349259729E9 ; 3.4321126831402245E10 ; 0.0
179 ; 1.2001988039543593E7 ; 2.031099735888611E8 ; 2.2361499555273223E9 ; 3.452422439869147E10 ; 0.0
180 ; 1.1995923166761208E7 ; 2.0312233571438918E8 ; 2.248151943566866E9 ; 3.472733437228033E10 ; 0.0
181 ; 1.1991696396775207E7 ; 2.031346533084699E8 ; 2.2601478667336273E9 ; 3.493045670799471E10 ; 0.0
182 ; 1.1983805898321193E7 ; 2.03146926017157E8 ; 2.2721395631304026E9 ; 3.5133591361303185E10 ; 0.0
183 ; 1.19753765795158E7 ; 2.0315915348984095E8 ; 2.2841233690287237E9 ; 3.533673828732034E10 ; 0.0
184 ; 1.1968960096382743E7 ; 2.0317133537919307E8 ; 2.2960987456082397E9 ; 3.553989744081018E10 ; 0.0
185 ; 1.195984913224109E7 ; 2.0318347134111133E8 ; 2.3080677057046223E9 ; 3.574306877618938E10 ; 0.0
186 ; 1.1958676367281439E7 ; 2.0319556103466812E8 ; 2.3200275548368635E9 ; 3.594625224753049E10 ; 0.0
187 ; 1.1949595271045756E7 ; 2.0320760412205952E8 ; 2.331986231204145E9 ; 3.6149447808565155E10 ; 0.0
188 ; 1.1943712766008304E7 ; 2.0321960026855633E8 ; 2.3439358264751906E9 ; 3.635265541268722E10 ; 0.0
189 ; 1.1936422301508138E7 ; 2.0323154914245668E8 ; 2.355879539241199E9 ; 3.655587501295577E10 ; 0.0
190 ; 1.1930687076789541E7 ; 2.0324345041504002E8 ; 2.367815961542707E9 ; 3.675910656209823E10 ; 0.0
191 ; 1.1925966328516083E7 ; 2.0325530376052278E8 ; 2.3797466486194963E9 ; 3.696235001251327E10 ; 0.0
192 ; 1.191397037019838E7 ; 2.032671088560153E8 ; 2.3916726149480124E9 ; 3.716560531627379E10 ; 0.0
193 ; 1.1908582677705284E7 ; 2.032788653814802E8 ; 2.4035865853182106E9 ; 3.736887242512981E10 ; 0.0
194 ; 1.190291984026832E7 ; 2.032905730196921E8 ; 2.415495167995916E9 ; 3.7572151290511284E10 ; 0.0
195 ; 1.1896383492632914E7 ; 2.0330223145619857E8 ; 2.427398087836184E9 ; 3.7775441863530975E10 ; 0.0
