CSV File for the City 3 on Day 30
1 - Minute m 
2 - Power Consumed at minute m 
3 - Power Produced at minute m 
4 - Energy Consumed since the beginning of the day 
5 - Energy Produced since the beginning of the day 
6 - Energy Lost since the beginning of the day on lines starting from the city
 
0 ; 2371441.6107789553 ; 1.0526631283951995E8 ; 0.0 ; 0.0 ; 0.0
1 ; 2375560.0505804177 ; 1.0541767349418736E8 ; 2371441.6107789553 ; 1.0526631283951995E8 ; 0.0
2 ; 2376625.176608291 ; 1.0587791231791571E8 ; 4747001.6613593735 ; 2.106839863337073E8 ; 0.0
3 ; 2380172.519562595 ; 1.066470494654463E8 ; 7123626.837967664 ; 3.16561898651623E8 ; 0.0
4 ; 2383817.4310661205 ; 1.0772510518960434E8 ; 9503799.357530259 ; 4.232089481170693E8 ; 0.0
5 ; 2389050.6784433136 ; 1.0911209927224839E8 ; 1.1887616788596379E7 ; 5.3093405330667365E8 ; 0.0
6 ; 2395341.768755665 ; 1.108080503464233E8 ; 1.4276667467039693E7 ; 6.40046152578922E8 ; 0.0
7 ; 2402635.114554228 ; 1.1281297514291126E8 ; 1.6672009235795358E7 ; 7.508542029253453E8 ; 0.0
8 ; 2413047.38500131 ; 1.1512688771529359E8 ; 1.9074644350349586E7 ; 8.636671780682566E8 ; 0.0
9 ; 2429394.367907213 ; 1.1774979871498317E8 ; 2.1487691735350896E7 ; 9.787940657835503E8 ; 0.0
10 ; 2456257.701254685 ; 1.2068171479572803E8 ; 2.391708610325811E7 ; 1.0965438644985335E9 ; 0.0
11 ; 2496336.207565334 ; 1.2392263822115603E8 ; 2.6373343804512795E7 ; 1.2172255792942615E9 ; 0.0
12 ; 2564003.6969785825 ; 1.2747256672763929E8 ; 2.886968001207813E7 ; 1.3411482175154176E9 ; 0.0
13 ; 2626719.651907183 ; 1.3133149366142976E8 ; 3.1433683709056713E7 ; 1.4686207842430568E9 ; 0.0
14 ; 2633062.3837966397 ; 1.3549940837111467E8 ; 3.4060403360963896E7 ; 1.5999522779044867E9 ; 0.0
15 ; 2637309.1032188563 ; 1.3997629680311257E8 ; 3.6693465744760536E7 ; 1.7354516862756014E9 ; 0.0
16 ; 2640533.791938644 ; 1.447621422266414E8 ; 3.933077484797939E7 ; 1.875427983078714E9 ; 0.0
17 ; 2644119.8993607564 ; 1.4985692600865617E8 ; 4.197130863991803E7 ; 2.0201901253053553E9 ; 0.0
18 ; 2645603.2932201666 ; 1.5526062836729842E8 ; 4.461542853927878E7 ; 2.1700470513140116E9 ; 0.0
19 ; 2650477.7677192353 ; 1.609732290497429E8 ; 4.726103183249895E7 ; 2.32530767968131E9 ; 0.0
20 ; 2653257.1584631056 ; 1.669947079012483E8 ; 4.991150960021819E7 ; 2.486280908731053E9 ; 0.0
21 ; 2656665.882982893 ; 1.7332504531186834E8 ; 5.25647667586813E7 ; 2.6532756166323013E9 ; 0.0
22 ; 2658683.6770270136 ; 1.7996422254271823E8 ; 5.522143264166419E7 ; 2.8266006619441695E9 ; 0.0
23 ; 2660559.6815797705 ; 1.8691222194388658E8 ; 5.788011631869121E7 ; 3.006564884486888E9 ; 0.0
24 ; 2665154.916266902 ; 1.9416902708141744E8 ; 6.054067600027098E7 ; 3.1934771064307747E9 ; 0.0
25 ; 2669657.0328725036 ; 2.00422663690536E8 ; 6.320583091653788E7 ; 3.3876461335121922E9 ; 0.0
26 ; 2673259.1237463756 ; 2.004266657137122E8 ; 6.587548794941039E7 ; 3.5880687972027283E9 ; 0.0
27 ; 2673746.98198068 ; 2.0043078978862244E8 ; 6.854874707315676E7 ; 3.7884954629164405E9 ; 0.0
28 ; 2677303.871297714 ; 2.0043502443279415E8 ; 7.122249405513744E7 ; 3.988926252705063E9 ; 0.0
29 ; 2680201.5442530992 ; 2.004393592596123E8 ; 7.389979792643516E7 ; 4.189361277137857E9 ; 0.0
30 ; 2683832.7475848217 ; 2.0044378489348662E8 ; 7.657999947068825E7 ; 4.3898006363974695E9 ; 0.0
31 ; 2686761.462159238 ; 2.0044829288280076E8 ; 7.926383221827307E7 ; 4.5902444212909565E9 ; 0.0
32 ; 2688932.3211670923 ; 2.004528756143155E8 ; 8.19505936804323E7 ; 4.790692714173758E9 ; 0.0
33 ; 2690748.14092942 ; 2.0045752623139748E8 ; 8.46395260015994E7 ; 4.991145589788073E9 ; 0.0
34 ; 2695052.764910194 ; 2.0046223855748406E8 ; 8.733027414252882E7 ; 5.19160311601947E9 ; 0.0
35 ; 2696169.8151574796 ; 2.0046700702550972E8 ; 9.002532690743901E7 ; 5.392065354576954E9 ; 0.0
36 ; 2699812.7029605885 ; 2.0047182661354467E8 ; 9.272149672259648E7 ; 5.592532361602464E9 ; 0.0
37 ; 2701615.002937948 ; 2.0047669278658217E8 ; 9.542130942555708E7 ; 5.793004188216008E9 ; 0.0
38 ; 2702461.155246123 ; 2.0048160144421187E8 ; 9.812292442849502E7 ; 5.99348088100259E9 ; 0.0
39 ; 2706213.8443618803 ; 2.004865488738001E8 ; 1.0082538558374114E8 ; 6.193962482446802E9 ; 0.0
40 ; 2707662.6861146893 ; 2.0049153170873883E8 ; 1.0353159942810303E8 ; 6.394449031320602E9 ; 0.0
41 ; 2709604.302177743 ; 2.0049654689130476E8 ; 1.0623926211421771E8 ; 6.594940563029342E9 ; 0.0
42 ; 2711694.6771446215 ; 2.005015916396738E8 ; 1.0894886641639546E8 ; 6.795437109920647E9 ; 0.0
43 ; 2713345.523262032 ; 2.0050666341865736E8 ; 1.1166056109354007E8 ; 6.995938701560321E9 ; 0.0
44 ; 2715263.4162523723 ; 2.005117599137543E8 ; 1.1437390661680211E8 ; 7.196445364978978E9 ; 0.0
45 ; 2715784.2424793877 ; 2.0051687900814757E8 ; 1.1708917003305449E8 ; 7.396957124892733E9 ; 0.0
46 ; 2717085.4646767816 ; 2.0052201876230752E8 ; 1.1980495427553387E8 ; 7.59747400390088E9 ; 0.0
47 ; 2718938.7969071465 ; 2.0052717739589974E8 ; 1.2252203974021065E8 ; 7.797996022663187E9 ; 0.0
48 ; 2718988.8279611636 ; 2.0053235327172658E8 ; 1.252409785371178E8 ; 7.998523200059087E9 ; 0.0
49 ; 2720459.806949985 ; 2.005375448814632E8 ; 1.2795996736507896E8 ; 8.199055553330813E9 ; 0.0
50 ; 2721993.9221019777 ; 2.0054275083297542E8 ; 1.3068042717202894E8 ; 8.399593098212276E9 ; 0.0
51 ; 2722400.795056912 ; 2.0054796983903265E8 ; 1.3340242109413092E8 ; 8.600135849045252E9 ; 0.0
52 ; 2723619.9109998425 ; 2.005532007072512E8 ; 1.3612482188918784E8 ; 8.800683818884285E9 ; 0.0
53 ; 2724024.868723718 ; 2.0055844233112326E8 ; 1.3884844180018768E8 ; 9.001237019591536E9 ; 0.0
54 ; 2725254.6898388886 ; 2.0056369368200454E8 ; 1.415724666689114E8 ; 9.201795461922659E9 ; 0.0
55 ; 2726774.6001154277 ; 2.005689538019489E8 ; 1.4429772135875028E8 ; 9.402359155604664E9 ; 0.0
56 ; 2724894.776960567 ; 2.0057422179729244E8 ; 1.470244959588657E8 ; 9.602928109406612E9 ; 0.0
57 ; 2728210.7570445975 ; 2.0057949683290055E8 ; 1.4974939073582628E8 ; 9.803502331203905E9 ; 0.0
58 ; 2728627.440735885 ; 2.0058477812700322E8 ; 1.5247760149287087E8 ; 1.0004081828036806E10 ; 0.0
59 ; 2728316.7000577957 ; 2.0059006494655174E8 ; 1.5520622893360674E8 ; 1.0204666606163809E10 ; 0.0
60 ; 2727812.5088044163 ; 2.0059535660303885E8 ; 1.5793454563366455E8 ; 1.0405256671110361E10 ; 0.0
61 ; 2728021.816038029 ; 2.0060065244873103E8 ; 1.6066235814246896E8 ; 1.06058520277134E10 ; 0.0
62 ; 2729634.453210378 ; 2.006059518732678E8 ; 1.63390379958507E8 ; 1.080645268016213E10 ; 0.0
63 ; 2729638.1285000755 ; 2.006112543005882E8 ; 1.6612001441171739E8 ; 1.1007058632035398E10 ; 0.0
64 ; 2730341.948774462 ; 2.006165591861494E8 ; 1.6884965254021746E8 ; 1.1207669886335987E10 ; 0.0
65 ; 2730074.1437575473 ; 2.0062186601440665E8 ; 1.7157999448899192E8 ; 1.1408286445522137E10 ; 0.0
66 ; 2731429.0253436742 ; 2.0062717429652664E8 ; 1.7431006863274947E8 ; 1.1608908311536543E10 ; 0.0
67 ; 2730997.7436381173 ; 2.0063248356831056E8 ; 1.7704149765809315E8 ; 1.1809535485833069E10 ; 0.0
68 ; 2732407.029555099 ; 2.0063779338830492E8 ; 1.7977249540173128E8 ; 1.2010167969401379E10 ; 0.0
69 ; 2732040.389301309 ; 2.0064310333608153E8 ; 1.825049024312864E8 ; 1.2210805762789684E10 ; 0.0
70 ; 2732319.900455108 ; 2.0064841301066908E8 ; 1.852369428205877E8 ; 1.2411448866125767E10 ; 0.0
71 ; 2732333.1451516487 ; 2.006537220291217E8 ; 1.879692627210428E8 ; 1.2612097279136436E10 ; 0.0
72 ; 2731824.537924876 ; 2.006590300252108E8 ; 1.9070159586619446E8 ; 1.2812751001165558E10 ; 0.0
73 ; 2732399.1877783737 ; 2.006643366482285E8 ; 1.9343342040411934E8 ; 1.301341003119077E10 ; 0.0
74 ; 2733354.1108630425 ; 2.0066964156189156E8 ; 1.9616581959189773E8 ; 1.3214074367838997E10 ; 0.0
75 ; 2734132.3956801454 ; 2.0067494444333664E8 ; 1.9889917370276076E8 ; 1.3414744009400888E10 ; 0.0
76 ; 2735235.264154482 ; 2.0068024498219788E8 ; 2.0163330609844092E8 ; 1.3615418953844225E10 ; 0.0
77 ; 2733409.381155165 ; 2.006855428797597E8 ; 2.043685413625954E8 ; 1.3816099198826424E10 ; 0.0
78 ; 2733157.9743514624 ; 2.0069083784817743E8 ; 2.0710195074375057E8 ; 1.4016784741706182E10 ; 0.0
79 ; 2732832.0134926634 ; 2.0069612960975993E8 ; 2.0983510871810204E8 ; 1.421747557955436E10 ; 0.0
80 ; 2730992.3821987202 ; 2.0070141789630833E8 ; 2.125679407315947E8 ; 1.441817170916412E10 ; 0.0
81 ; 2730963.190719665 ; 2.007067024485063E8 ; 2.1529893311379343E8 ; 1.4618873127060429E10 ; 0.0
82 ; 2729015.950728737 ; 2.007119830153569E8 ; 2.180298963045131E8 ; 1.4819579829508934E10 ; 0.0
83 ; 2729116.9654823914 ; 2.0071725935366222E8 ; 2.2075891225524184E8 ; 1.502029181252429E10 ; 0.0
84 ; 2727744.0245586373 ; 2.0072253122754228E8 ; 2.2348802922072423E8 ; 1.5221009071877953E10 ; 0.0
85 ; 2726226.568815496 ; 2.0072779840798917E8 ; 2.2621577324528286E8 ; 1.5421731603105495E10 ; 0.0
86 ; 2726629.9868199583 ; 2.0073306067245445E8 ; 2.2894199981409836E8 ; 1.5622459401513485E10 ; 0.0
87 ; 2726110.4280686146 ; 2.0073831780446622E8 ; 2.316686298009183E8 ; 1.582319246218594E10 ; 0.0
88 ; 2723280.2731252233 ; 2.0074356959327367E8 ; 2.3439474022898692E8 ; 1.6023930779990406E10 ; 0.0
89 ; 2722282.3886254947 ; 2.0074881583351722E8 ; 2.3711802050211215E8 ; 1.622467434958368E10 ; 0.0
90 ; 2721364.6481868997 ; 2.0075405632492158E8 ; 2.3984030289073765E8 ; 1.6425423165417196E10 ; 0.0
91 ; 2719568.410032619 ; 2.007592908720103E8 ; 2.4256166753892455E8 ; 1.6626177221742117E10 ; 0.0
92 ; 2719485.135067849 ; 2.0076451928384006E8 ; 2.4528123594895718E8 ; 1.6826936512614128E10 ; 0.0
93 ; 2717630.8961129086 ; 2.007697413737531E8 ; 2.4800072108402503E8 ; 1.7027701031897968E10 ; 0.0
94 ; 2717244.5321465945 ; 2.0077495695914632E8 ; 2.5071835198013794E8 ; 1.722847077327172E10 ; 0.0
95 ; 2716687.5119654844 ; 2.007801658612558E8 ; 2.5343559651228455E8 ; 1.7429245730230865E10 ; 0.0
96 ; 2714576.869602347 ; 2.0078536790495583E8 ; 2.5615228402425003E8 ; 1.763002589609212E10 ; 0.0
97 ; 2712838.7535503237 ; 2.0079056291857097E8 ; 2.5886686089385238E8 ; 1.7830811263997078E10 ; 0.0
98 ; 2712823.818225708 ; 2.0079575073370016E8 ; 2.615796996474027E8 ; 1.803160182691565E10 ; 0.0
99 ; 2710728.785115681 ; 2.0080093118505272E8 ; 2.6429252346562842E8 ; 1.823239757764935E10 ; 0.0
100 ; 2708963.712543316 ; 2.0080610411029416E8 ; 2.670032522507441E8 ; 1.84331985088344E10 ; 0.0
101 ; 2707990.2713273023 ; 2.0081126934990224E8 ; 2.697122159632874E8 ; 1.8634004612944695E10 ; 0.0
102 ; 2706834.155389122 ; 2.0081642674703184E8 ; 2.7242020623461473E8 ; 1.8834815882294598E10 ; 0.0
103 ; 2705480.603582711 ; 2.0082157614738825E8 ; 2.7512704039000386E8 ; 1.903563230904163E10 ; 0.0
104 ; 2703303.270809517 ; 2.008267173991083E8 ; 2.778325209935866E8 ; 1.923645388518902E10 ; 0.0
105 ; 2702830.1037962856 ; 2.0083185035264874E8 ; 2.8053582426439613E8 ; 1.9437280602588127E10 ; 0.0
106 ; 2700867.3568520173 ; 2.008369748606814E8 ; 2.8323865436819243E8 ; 1.9638112452940777E10 ; 0.0
107 ; 2698137.027095477 ; 2.0084209077799466E8 ; 2.859395217250444E8 ; 1.9838949427801456E10 ; 0.0
108 ; 2698063.792742518 ; 2.008471979614007E8 ; 2.886376587521399E8 ; 2.0039791518579453E10 ; 0.0
109 ; 2696477.324813732 ; 2.0085229626964834E8 ; 2.913357225448824E8 ; 2.024063871654085E10 ; 0.0
110 ; 2695394.6663645552 ; 2.008573855633409E8 ; 2.9403219986969614E8 ; 2.04414910128105E10 ; 0.0
111 ; 2691583.5161723094 ; 2.0086246570485902E8 ; 2.967275945360607E8 ; 2.064234839837384E10 ; 0.0
112 ; 2691080.711599652 ; 2.008675365582876E8 ; 2.99419178052233E8 ; 2.08432108640787E10 ; 0.0
113 ; 2689552.681217913 ; 2.0087259798934725E8 ; 3.021102587638326E8 ; 2.104407840063699E10 ; 0.0
114 ; 2687569.2641531937 ; 2.008776498653295E8 ; 3.0479981144505054E8 ; 2.1244950998626335E10 ; 0.0
115 ; 2686378.9890483385 ; 2.0088269205503574E8 ; 3.074873807092037E8 ; 2.1445828648491665E10 ; 0.0
116 ; 2683413.9729572134 ; 2.0088772442871937E8 ; 3.101737596982521E8 ; 2.16467113405467E10 ; 0.0
117 ; 2682821.7848435203 ; 2.0089274685803142E8 ; 3.128571736712093E8 ; 2.1847599064975418E10 ; 0.0
118 ; 2680997.3604619605 ; 2.0089775921596912E8 ; 3.155399954560528E8 ; 2.204849181183345E10 ; 0.0
119 ; 2677998.7858276246 ; 2.0090276137682712E8 ; 3.1822099281651473E8 ; 2.224938957104942E10 ; 0.0
120 ; 2676255.738003822 ; 2.0090775321615165E8 ; 3.2089899160234237E8 ; 2.2450292332426247E10 ; 0.0
121 ; 2674570.5971788564 ; 2.0091273461069688E8 ; 3.235752473403462E8 ; 2.26512000856424E10 ; 0.0
122 ; 2672373.9674009825 ; 2.0091770543838388E8 ; 3.262498179375251E8 ; 2.2852112820253098E10 ; 0.0
123 ; 2671060.067033532 ; 2.0092266557826155E8 ; 3.2892219190492606E8 ; 2.3053030525691483E10 ; 0.0
124 ; 2670591.6408640402 ; 2.0092761491046986E8 ; 3.315932519719596E8 ; 2.3253953191269745E10 ; 0.0
125 ; 2666911.575661522 ; 2.009325533162048E8 ; 3.342638436128236E8 ; 2.3454880806180214E10 ; 0.0
126 ; 2663915.738719813 ; 2.0093748067768523E8 ; 3.3693075518848515E8 ; 2.3655813359496418E10 ; 0.0
127 ; 2663392.1818509717 ; 2.0094239687812182E8 ; 3.3959467092720497E8 ; 2.3856750840174103E10 ; 0.0
128 ; 2659921.9817961548 ; 2.009473018016869E8 ; 3.4225806310905594E8 ; 2.4057693237052223E10 ; 0.0
129 ; 2656658.371845474 ; 2.0095219533348656E8 ; 3.449179850908521E8 ; 2.425864053885391E10 ; 0.0
130 ; 2656045.3103055623 ; 2.0095707735953376E8 ; 3.4757464346269757E8 ; 2.4459592734187393E10 ; 0.0
131 ; 2652944.4847713113 ; 2.0096194776672298E8 ; 3.502306887730031E8 ; 2.466054981154693E10 ; 0.0
132 ; 2648684.239399168 ; 2.0096680644280615E8 ; 3.528836332577744E8 ; 2.4861511759313652E10 ; 0.0
133 ; 2645587.8619151386 ; 2.0097165327636978E8 ; 3.555323174971736E8 ; 2.506247856575646E10 ; 0.0
134 ; 2644289.3665604386 ; 2.0097648815681326E8 ; 3.581779053590887E8 ; 2.526345021903283E10 ; 0.0
135 ; 2639924.79216018 ; 2.0098131097432822E8 ; 3.608221947256492E8 ; 2.5464426707189644E10 ; 0.0
136 ; 2637149.2563103954 ; 2.0098612161987895E8 ; 3.6346211951780933E8 ; 2.566540801816397E10 ; 0.0
137 ; 2635296.59509564 ; 2.0099091998518378E8 ; 3.6609926877411973E8 ; 2.586639413978385E10 ; 0.0
138 ; 2632428.563137053 ; 2.0099570596269745E8 ; 3.6873456536921537E8 ; 2.6067385059769035E10 ; 0.0
139 ; 2628181.3024088764 ; 2.0100047944559428E8 ; 3.713669939323524E8 ; 2.626838076573173E10 ; 0.0
140 ; 2625062.60761366 ; 2.0100524032775217E8 ; 3.739951752347613E8 ; 2.6469381245177326E10 ; 0.0
141 ; 2622494.632458975 ; 2.0100998850373745E8 ; 3.76620237842375E8 ; 2.6670386485505077E10 ; 0.0
142 ; 2618310.3380310927 ; 2.0101472386879042E8 ; 3.7924273247483397E8 ; 2.6871396474008816E10 ; 0.0
143 ; 2613888.7326229066 ; 2.010194463188116E8 ; 3.818610428128651E8 ; 2.7072411197877605E10 ; 0.0
144 ; 2612590.515928239 ; 2.0102415575034866E8 ; 3.84474931545488E8 ; 2.727343064419642E10 ; 0.0
145 ; 2608275.9011700763 ; 2.010288520605841E8 ; 3.8708752206141627E8 ; 2.7474454799946766E10 ; 0.0
146 ; 2607544.8367481 ; 2.0103353514732328E8 ; 3.8969579796258634E8 ; 2.767548365200735E10 ; 0.0
147 ; 2605122.168903537 ; 2.0103820490898326E8 ; 3.9230334279933447E8 ; 2.7876517187154675E10 ; 0.0
148 ; 2602514.9500566265 ; 2.010428612445821E8 ; 3.94908464968238E8 ; 2.807755539206366E10 ; 0.0
149 ; 2601466.062955195 ; 2.010475040537286E8 ; 3.975109799182946E8 ; 2.8278598253308243E10 ; 0.0
150 ; 2597240.413039128 ; 2.0105213323661283E8 ; 4.001124459812498E8 ; 2.8479645757361973E10 ; 0.0
151 ; 2595493.723968587 ; 2.0105674869399655E8 ; 4.0270968639428896E8 ; 2.8680697890598587E10 ; 0.0
152 ; 2594026.3596776286 ; 2.010613503272048E8 ; 4.053051801182575E8 ; 2.8881754639292583E10 ; 0.0
153 ; 2590687.8616804103 ; 2.0106593803811732E8 ; 4.0789920647793514E8 ; 2.908281598961979E10 ; 0.0
154 ; 2588428.722089032 ; 2.0107051172916073E8 ; 4.104898943396155E8 ; 2.9283881927657906E10 ; 0.0
155 ; 2586260.787566895 ; 2.0107507130330092E8 ; 4.130783230617046E8 ; 2.9484952439387066E10 ; 0.0
156 ; 2583431.9277904145 ; 2.0107961666403586E8 ; 4.156645838492715E8 ; 2.968602751069037E10 ; 0.0
157 ; 2582071.3532370874 ; 2.0108414771538875E8 ; 4.182480157770619E8 ; 2.9887107127354404E10 ; 0.0
158 ; 2580139.4109746753 ; 2.0108866436190152E8 ; 4.20830087130299E8 ; 3.0088191275069794E10 ; 0.0
159 ; 2577011.5975433486 ; 2.0109316650862867E8 ; 4.2341022654127365E8 ; 3.0289279939431694E10 ; 0.0
160 ; 2574305.2612352297 ; 2.0109765406113136E8 ; 4.25987238138817E8 ; 3.0490373105940323E10 ; 0.0
161 ; 2571445.694471312 ; 2.0110212692547178E8 ; 4.2856154340005225E8 ; 3.0691470760001453E10 ; 0.0
162 ; 2569382.9003349114 ; 2.011065850082079E8 ; 4.3113298909452355E8 ; 3.0892572886926926E10 ; 0.0
163 ; 2565997.570507685 ; 2.0111102821638823E8 ; 4.3370237199485844E8 ; 3.1093679471935135E10 ; 0.0
164 ; 2564100.44343544 ; 2.011154564575473E8 ; 4.3626836956536615E8 ; 3.1294790500151524E10 ; 0.0
165 ; 2562530.536787411 ; 2.011198696397008E8 ; 4.388324700088016E8 ; 3.149590595660907E10 ; 0.0
166 ; 2557216.960686436 ; 2.0112426767134145E8 ; 4.4139500054558897E8 ; 3.169702582624877E10 ; 0.0
167 ; 2556614.6885874085 ; 2.011286504614347E8 ; 4.439522175062754E8 ; 3.1898150093920113E10 ; 0.0
168 ; 2554899.3813271415 ; 2.011330179194149E8 ; 4.4650883219486284E8 ; 3.2099278744381546E10 ; 0.0
169 ; 2550404.1319883564 ; 2.011373699551817E8 ; 4.4906373157619E8 ; 3.230041176230096E10 ; 0.0
170 ; 2548977.5164643093 ; 2.0114170647909623E8 ; 4.5161413570817834E8 ; 3.250154913225614E10 ; 0.0
171 ; 2545531.9258173327 ; 2.0114602740197802E8 ; 4.5416311322464263E8 ; 3.2702690838735237E10 ; 0.0
172 ; 2544209.3942585997 ; 2.0115033263510177E8 ; 4.5670864515045995E8 ; 3.2903836866137215E10 ; 0.0
173 ; 2539547.507568218 ; 2.0115462209019423E8 ; 4.5925285454471856E8 ; 3.3104987198772316E10 ; 0.0
174 ; 2540112.72211991 ; 2.0115889567943144E8 ; 4.617924020522868E8 ; 3.330614182086251E10 ; 0.0
175 ; 2538218.6412035287 ; 2.0116315331543607E8 ; 4.6433251477440673E8 ; 3.3507300716541943E10 ; 0.0
176 ; 2537162.1611178885 ; 2.0116739491127485E8 ; 4.6687073341561025E8 ; 3.370846386985738E10 ; 0.0
177 ; 2536081.8058314617 ; 2.0117162038045606E8 ; 4.6940789557672817E8 ; 3.3909631264768654E10 ; 0.0
178 ; 2533679.924816035 ; 2.0117582963692746E8 ; 4.719439773825596E8 ; 3.411080288514911E10 ; 0.0
179 ; 2532136.855711454 ; 2.011800225950739E8 ; 4.744776573073756E8 ; 3.4311978714786037E10 ; 0.0
180 ; 2530041.909137398 ; 2.0118419916971552E8 ; 4.7700979416308707E8 ; 3.451315873738111E10 ; 0.0
181 ; 2529040.7970657106 ; 2.0118835927610567E8 ; 4.795398360722245E8 ; 3.471434293655083E10 ; 0.0
182 ; 2527070.3459026795 ; 2.0119250282992923E8 ; 4.8206887686929023E8 ; 3.4915531295826935E10 ; 0.0
183 ; 2526579.347525217 ; 2.0119662974730086E8 ; 4.845959472151929E8 ; 3.511672379865686E10 ; 0.0
184 ; 2525443.030886802 ; 2.0120073994476345E8 ; 4.8712252656271815E8 ; 3.531792042840416E10 ; 0.0
185 ; 2523804.7056922447 ; 2.0120483333928663E8 ; 4.89647969593605E8 ; 3.551912116834892E10 ; 0.0
186 ; 2520070.388172345 ; 2.012089098482653E8 ; 4.921717742992972E8 ; 3.572032600168821E10 ; 0.0
187 ; 2519310.7606272358 ; 2.0121296938951847E8 ; 4.9469184468746954E8 ; 3.5921534911536476E10 ; 0.0
188 ; 2519011.0622014045 ; 2.0121701188128793E8 ; 4.9721115544809675E8 ; 3.6122747880925995E10 ; 0.0
189 ; 2518116.6337677063 ; 2.0122103724223718E8 ; 4.9973016651029813E8 ; 3.632396489280728E10 ; 0.0
190 ; 2516738.6473484146 ; 2.0122504539145038E8 ; 5.0224828314406586E8 ; 3.652518593004952E10 ; 0.0
191 ; 2514172.7336874097 ; 2.0122903624843127E8 ; 5.0476502179141426E8 ; 3.672641097544097E10 ; 0.0
192 ; 2511093.540113386 ; 2.0123300973310247E8 ; 5.0727919452510166E8 ; 3.69276400116894E10 ; 0.0
193 ; 2511964.5385545283 ; 2.012369657658044E8 ; 5.0979028806521505E8 ; 3.71288730214225E10 ; 0.0
194 ; 2510332.23312859 ; 2.0124090426729476E8 ; 5.123022526037696E8 ; 3.733010998718831E10 ; 0.0
195 ; 2508411.1434071716 ; 2.0124482515874767E8 ; 5.148125848368982E8 ; 3.7531350891455605E10 ; 0.0
196 ; 2507113.1696885666 ; 2.0124872836175308E8 ; 5.173209959803054E8 ; 3.773259571661435E10 ; 0.0
197 ; 2504321.5679026665 ; 2.0125261379831615E8 ; 5.1982810914999396E8 ; 3.7933844444976105E10 ; 0.0
198 ; 2503157.4726329837 ; 2.0125648139085686E8 ; 5.2233243071789664E8 ; 3.813509705877442E10 ; 0.0
199 ; 2500698.790850434 ; 2.0126033106220937E8 ; 5.2483558819052964E8 ; 3.8336353540165276E10 ; 0.0
