CSV File for the City 4 on Day 326
1 - Minute m 
2 - Power Consumed at minute m 
3 - Power Produced at minute m 
4 - Energy Consumed since the beginning of the day 
5 - Energy Produced since the beginning of the day 
6 - Energy Lost since the beginning of the day on lines starting from the city
 
0 ; 6875817.937490341 ; 1.0678174890192184E8 ; 0.0 ; 0.0 ; 0.0
1 ; 6883467.5622310005 ; 1.0693212715913624E8 ; 6875817.937490341 ; 1.0678174890192184E8 ; 0.0
2 ; 6890258.049523357 ; 1.0739155343734911E8 ; 1.375928549972134E7 ; 2.1371387606105807E8 ; 0.0
3 ; 6897573.017983902 ; 1.0816003068292707E8 ; 2.0649543549244698E7 ; 3.211054294984072E8 ; 0.0
4 ; 6906081.070224923 ; 1.0923756152262282E8 ; 2.75471165672286E7 ; 4.2926546018133426E8 ; 0.0
5 ; 6922632.757291336 ; 1.1062414825372899E8 ; 3.4453197637453526E7 ; 5.385030217039571E8 ; 0.0
6 ; 6936872.700055564 ; 1.1231979283535752E8 ; 4.137583039474486E7 ; 6.491271699576861E8 ; 0.0
7 ; 6959832.776634194 ; 1.1432449688092214E8 ; 4.831270309480042E7 ; 7.614469627930436E8 ; 0.0
8 ; 6996743.475639929 ; 1.166382616518907E8 ; 5.5272535871434614E7 ; 8.757714596739657E8 ; 0.0
9 ; 7044226.542031121 ; 1.1926108805286562E8 ; 6.2269279347074546E7 ; 9.924097213258564E8 ; 0.0
10 ; 7122190.230713885 ; 1.2219297662803644E8 ; 6.931350588910566E7 ; 1.1116708093787222E9 ; 0.0
11 ; 7244531.388824451 ; 1.2543392755903849E8 ; 7.643569611981955E7 ; 1.2338637860067587E9 ; 0.0
12 ; 7442312.468290604 ; 1.289839406642364E8 ; 8.3680227508644E7 ; 1.359297713565797E9 ; 0.0
13 ; 7634268.423197766 ; 1.3284301539944065E8 ; 9.11225399769346E7 ; 1.4882816542300334E9 ; 0.0
14 ; 7655051.434705773 ; 1.370111508600489E8 ; 9.875680840013236E7 ; 1.6211246696294742E9 ; 0.0
15 ; 7666403.457531548 ; 1.4148834578459316E8 ; 1.0641185983483814E8 ; 1.758135820489523E9 ; 0.0
16 ; 7677912.546695633 ; 1.4627459855965987E8 ; 1.1407826329236968E8 ; 1.899624166274116E9 ; 0.0
17 ; 7685035.72611348 ; 1.5136990722613695E8 ; 1.2175617583906531E8 ; 2.045898764833776E9 ; 0.0
18 ; 7697743.591218616 ; 1.5677426948673183E8 ; 1.294412115651788E8 ; 2.197268672059913E9 ; 0.0
19 ; 7703049.494550389 ; 1.624876827146918E8 ; 1.371389551563974E8 ; 2.354042941546645E9 ; 0.0
20 ; 7712861.827496279 ; 1.685101439636502E8 ; 1.4484200465094778E8 ; 2.516530624261337E9 ; 0.0
21 ; 7720732.949346787 ; 1.748416499785128E8 ; 1.5255486647844407E8 ; 2.685040768224987E9 ; 0.0
22 ; 7733250.066167153 ; 1.8148219720729095E8 ; 1.6027559942779085E8 ; 2.8598824182035E9 ; 0.0
23 ; 7740665.478278378 ; 1.8843178181378347E8 ; 1.68008849493958E8 ; 3.041364615410791E9 ; 0.0
24 ; 7751580.480953894 ; 1.956903996910045E8 ; 1.7574951497223637E8 ; 3.2297963972245746E9 ; 0.0
25 ; 7760424.299977564 ; 2.019460873734354E8 ; 1.8350109545319027E8 ; 3.425486796915579E9 ; 0.0
26 ; 7770157.559036934 ; 2.0195238808852103E8 ; 1.9126151975316784E8 ; 3.6274328842890143E9 ; 0.0
27 ; 7778544.5188763505 ; 2.0195906629660055E8 ; 1.9903167731220478E8 ; 3.8293852723775353E9 ; 0.0
28 ; 7785127.1537128035 ; 2.0196611695302624E8 ; 2.0681022183108112E8 ; 4.0313443386741357E9 ; 0.0
29 ; 7795718.850824134 ; 2.0197353481697163E8 ; 2.1459534898479393E8 ; 4.233310455627162E9 ; 0.0
30 ; 7803393.623895175 ; 2.0198131446711028E8 ; 2.2239106783561808E8 ; 4.435283990444134E9 ; 0.0
31 ; 7815874.444556377 ; 2.0198945031731436E8 ; 2.3019446145951325E8 ; 4.637265304911244E9 ; 0.0
32 ; 7824455.649204876 ; 2.0199793663228264E8 ; 2.3801033590406963E8 ; 4.839254755228559E9 ; 0.0
33 ; 7826978.319052441 ; 2.0200676754301324E8 ; 2.458347915532745E8 ; 5.041252691860841E9 ; 0.0
34 ; 7839187.272754202 ; 2.020159370620425E8 ; 2.5366176987232694E8 ; 5.243259459403854E9 ; 0.0
35 ; 7844515.967644258 ; 2.0202543909837893E8 ; 2.6150095714508113E8 ; 5.445275396465897E9 ; 0.0
36 ; 7851132.33040435 ; 2.020352674720678E8 ; 2.693454731127254E8 ; 5.647300835564276E9 ; 0.0
37 ; 7858549.181881034 ; 2.0204541592832947E8 ; 2.771966054431297E8 ; 5.849336103036344E9 ; 0.0
38 ; 7866676.458929934 ; 2.0205587815122163E8 ; 2.850551546250107E8 ; 6.051381518964673E9 ; 0.0
39 ; 7871448.156631357 ; 2.0206664777678335E8 ; 2.929218310839407E8 ; 6.253437397115894E9 ; 0.0
40 ; 7879311.61103791 ; 2.020777184056254E8 ; 3.0079327924057204E8 ; 6.455504044892677E9 ; 0.0
41 ; 7886271.973533355 ; 2.0208908361493862E8 ; 3.0867259085160995E8 ; 6.657581763298303E9 ; 0.0
42 ; 7893786.230277776 ; 2.021007369698979E8 ; 3.165588628251433E8 ; 6.859670846913241E9 ; 0.0
43 ; 7899277.6683783 ; 2.0211267203444678E8 ; 3.2445264905542105E8 ; 7.06177158388314E9 ; 0.0
44 ; 7901328.231634401 ; 2.0212488238145223E8 ; 3.3235192672379935E8 ; 7.263884255917586E9 ; 0.0
45 ; 7910606.784347519 ; 2.0213736160222468E8 ; 3.402532549554337E8 ; 7.466009138299039E9 ; 0.0
46 ; 7911808.474121132 ; 2.021501033154042E8 ; 3.4816386173978126E8 ; 7.668146499901263E9 ; 0.0
47 ; 7916383.644584285 ; 2.0216310117521673E8 ; 3.560756702139024E8 ; 7.870296603216667E9 ; 0.0
48 ; 7919478.783457361 ; 2.0217634887910914E8 ; 3.639920538584867E8 ; 8.072459704391884E9 ; 0.0
49 ; 7923738.061307829 ; 2.0218984017477506E8 ; 3.7191153264194405E8 ; 8.274636053270993E9 ; 0.0
50 ; 7926442.568982708 ; 2.0220356886658618E8 ; 3.798352707032519E8 ; 8.476825893445768E9 ; 0.0
51 ; 7928830.003330887 ; 2.0221752882144663E8 ; 3.877617132722346E8 ; 8.679029462312355E9 ; 0.0
52 ; 7934250.892833598 ; 2.0223171397408986E8 ; 3.956905432755655E8 ; 8.881246991133802E9 ; 0.0
53 ; 7934896.859643225 ; 2.0224611833183956E8 ; 4.036247941683991E8 ; 9.083478705107893E9 ; 0.0
54 ; 7937795.553787611 ; 2.0226073597885674E8 ; 4.115596910280423E8 ; 9.285724823439732E9 ; 0.0
55 ; 7941566.577160157 ; 2.022755610798974E8 ; 4.194974865818299E8 ; 9.487985559418589E9 ; 0.0
56 ; 7941400.268279997 ; 2.0229058788360438E8 ; 4.274390531589901E8 ; 9.690261120498486E9 ; 0.0
57 ; 7944454.707728341 ; 2.02305810725359E8 ; 4.3538045342727005E8 ; 9.89255170838209E9 ; 0.0
58 ; 7948667.276115518 ; 2.0232122402971688E8 ; 4.433249081349984E8 ; 1.0094857519107449E10 ; 0.0
59 ; 7951381.818081666 ; 2.0233682231245333E8 ; 4.512735754111139E8 ; 1.0297178743137165E10 ; 0.0
60 ; 7954126.928379921 ; 2.023526001822429E8 ; 4.592249572291956E8 ; 1.049951556544962E10 ; 0.0
61 ; 7955986.8113949075 ; 2.023685523419976E8 ; 4.671790841575755E8 ; 1.0701868165631863E10 ; 0.0
62 ; 7957955.724123143 ; 2.0238467358988762E8 ; 4.751350709689704E8 ; 1.090423671797386E10 ; 0.0
63 ; 7958340.455943587 ; 2.0240095882006776E8 ; 4.8309302669309354E8 ; 1.1106621391563747E10 ; 0.0
64 ; 7961375.452811735 ; 2.0241740302313218E8 ; 4.910513671490371E8 ; 1.1309022350383816E10 ; 0.0
65 ; 7960754.162156976 ; 2.0243400128631866E8 ; 4.9901274260184884E8 ; 1.1511439753406948E10 ; 0.0
66 ; 7966400.094301181 ; 2.024507487934841E8 ; 5.0697349676400584E8 ; 1.1713873754693266E10 ; 0.0
67 ; 7966114.361541422 ; 2.0246764082487002E8 ; 5.14939896858307E8 ; 1.191632450348675E10 ; 0.0
68 ; 7969676.26665315 ; 2.0248467275667796E8 ; 5.2290601121984845E8 ; 1.2118792144311619E10 ; 0.0
69 ; 7970964.125268251 ; 2.0250184006047183E8 ; 5.308756874865016E8 ; 1.2321276817068296E10 ; 0.0
70 ; 7970475.074261886 ; 2.0251913830242497E8 ; 5.388466516117698E8 ; 1.2523778657128769E10 ; 0.0
71 ; 7972601.943633318 ; 2.0253656314242744E8 ; 5.468171266860317E8 ; 1.2726297795431194E10 ; 0.0
72 ; 7973465.473203784 ; 2.0255411033306864E8 ; 5.54789728629665E8 ; 1.2928834358573622E10 ; 0.0
73 ; 7976728.408423106 ; 2.0257177571850938E8 ; 5.627631941028688E8 ; 1.313138846890669E10 ; 0.0
74 ; 7978965.527119157 ; 2.0258955523325667E8 ; 5.707399225112919E8 ; 1.33339602446252E10 ; 0.0
75 ; 7979150.92120479 ; 2.0260744490085322E8 ; 5.78718888038411E8 ; 1.3536549799858458E10 ; 0.0
76 ; 7981836.444575564 ; 2.0262544083249334E8 ; 5.866980389596158E8 ; 1.3739157244759312E10 ; 0.0
77 ; 7984702.030555364 ; 2.026435392255753E8 ; 5.946798754041914E8 ; 1.3941782685591805E10 ; 0.0
78 ; 7980550.859721752 ; 2.0266173636220068E8 ; 6.026645774347467E8 ; 1.4144426224817379E10 ; 0.0
79 ; 7979178.605473396 ; 2.0268002860762882E8 ; 6.106451282944685E8 ; 1.4347087961179579E10 ; 0.0
80 ; 7976006.718029295 ; 2.0269841240869528E8 ; 6.186243068999419E8 ; 1.4549767989787209E10 ; 0.0
81 ; 7978421.317262026 ; 2.0271688429220158E8 ; 6.266003136179712E8 ; 1.4752466402195904E10 ; 0.0
82 ; 7975398.138072773 ; 2.0273544086328307E8 ; 6.345787349352332E8 ; 1.4955183286488106E10 ; 0.0
83 ; 7974562.855724202 ; 2.0275407880376163E8 ; 6.42554133073306E8 ; 1.5157918727351389E10 ; 0.0
84 ; 7971042.026179824 ; 2.027727948704884E8 ; 6.505286959290302E8 ; 1.5360672806155151E10 ; 0.0
85 ; 7972038.476356465 ; 2.0279158589368227E8 ; 6.5849973795521E8 ; 1.556344560102564E10 ; 0.0
86 ; 7971733.795104224 ; 2.028104487752682E8 ; 6.664717764315665E8 ; 1.5766237186919323E10 ; 0.0
87 ; 7969010.906335718 ; 2.0282938048722038E8 ; 6.744435102266707E8 ; 1.5969047635694592E10 ; 0.0
88 ; 7965849.572991024 ; 2.0284837806991324E8 ; 6.824125211330065E8 ; 1.6171877016181812E10 ; 0.0
89 ; 7963591.841470087 ; 2.0286743863048413E8 ; 6.903783707059975E8 ; 1.6374725394251726E10 ; 0.0
90 ; 7962101.556208435 ; 2.0288655934121072E8 ; 6.983419625474676E8 ; 1.657759283288221E10 ; 0.0
91 ; 7960100.29156555 ; 2.0290573743790537E8 ; 7.063040641036761E8 ; 1.6780479392223421E10 ; 0.0
92 ; 7961016.945282547 ; 2.0292497021832925E8 ; 7.142641643952416E8 ; 1.6983385129661327E10 ; 0.0
93 ; 7953597.40273415 ; 2.0294425504062793E8 ; 7.222251813405242E8 ; 1.7186310099879658E10 ; 0.0
94 ; 7953909.990287432 ; 2.0296358932179055E8 ; 7.301787787432584E8 ; 1.7389254354920284E10 ; 0.0
95 ; 7949084.127470653 ; 2.0298297053613356E8 ; 7.381326887335458E8 ; 1.7592217944242073E10 ; 0.0
96 ; 7947394.334513035 ; 2.0300239621381092E8 ; 7.460817728610164E8 ; 1.7795200914778206E10 ; 0.0
97 ; 7946985.77193654 ; 2.0302186393935144E8 ; 7.540291671955295E8 ; 1.7998203310992016E10 ; 0.0
98 ; 7946655.874530546 ; 2.0304137135022414E8 ; 7.61976152967466E8 ; 1.8201225174931366E10 ; 0.0
99 ; 7939210.040570646 ; 2.0306091613543284E8 ; 7.699228088419966E8 ; 1.840426654628159E10 ; 0.0
100 ; 7936721.021396587 ; 2.030804960341398E8 ; 7.778620188825672E8 ; 1.8607327462417023E10 ; 0.0
101 ; 7936769.264386271 ; 2.0310010883431947E8 ; 7.857987399039638E8 ; 1.8810407958451164E10 ; 0.0
102 ; 7935178.342384787 ; 2.031197523714423E8 ; 7.937355091683501E8 ; 1.9013508067285484E10 ; 0.0
103 ; 7933085.065421044 ; 2.0313942452718884E8 ; 8.016706875107349E8 ; 1.9216627819656925E10 ; 0.0
104 ; 7926633.35951235 ; 2.031591232281945E8 ; 8.096037725761559E8 ; 1.9419767244184113E10 ; 0.0
105 ; 7923679.309281524 ; 2.0317884644482437E8 ; 8.175304059356682E8 ; 1.9622926367412308E10 ; 0.0
106 ; 7921234.566228301 ; 2.0319859218997857E8 ; 8.254540852449497E8 ; 1.9826105213857132E10 ; 0.0
107 ; 7918743.862438679 ; 2.0321835851792768E8 ; 8.33375319811178E8 ; 2.002930380604711E10 ; 0.0
108 ; 7916213.7745974865 ; 2.032381435231781E8 ; 8.412940636736166E8 ; 2.023252216456504E10 ; 0.0
109 ; 7913481.930479786 ; 2.0325794533936688E8 ; 8.492102774482142E8 ; 2.043576030808822E10 ; 0.0
110 ; 7907370.507011698 ; 2.03277762138186E8 ; 8.571237593786939E8 ; 2.0639018253427586E10 ; 0.0
111 ; 7904875.640301141 ; 2.032975921283355E8 ; 8.650311298857056E8 ; 2.0842296015565773E10 ; 0.0
112 ; 7900945.576592378 ; 2.0331743355450487E8 ; 8.729360055260067E8 ; 2.1045593607694107E10 ; 0.0
113 ; 7898030.5741851395 ; 2.033372846963827E8 ; 8.80836951102599E8 ; 2.124891104124861E10 ; 0.0
114 ; 7896838.043183143 ; 2.033571438676937E8 ; 8.887349816767842E8 ; 2.1452248325944996E10 ; 0.0
115 ; 7892455.19869734 ; 2.033770094152628E8 ; 8.966318197199672E8 ; 2.165560546981269E10 ; 0.0
116 ; 7884884.664659161 ; 2.0339687971810564E8 ; 9.045242749186646E8 ; 2.1858982479227955E10 ; 0.0
117 ; 7885235.086776273 ; 2.0341675318654522E8 ; 9.124091595833237E8 ; 2.206237935894606E10 ; 0.0
118 ; 7880614.57559446 ; 2.034366282613537E8 ; 9.202943946701E8 ; 2.2265796112132607E10 ; 0.0
119 ; 7876367.536209831 ; 2.034565034129192E8 ; 9.281750092456944E8 ; 2.246923274039396E10 ; 0.0
120 ; 7872700.484135379 ; 2.0347637714043677E8 ; 9.360513767819042E8 ; 2.2672689243806877E10 ; 0.0
121 ; 7867061.182257452 ; 2.034962479711233E8 ; 9.439240772660396E8 ; 2.2876165620947315E10 ; 0.0
122 ; 7865013.982216978 ; 2.035161144594551E8 ; 9.51791138448297E8 ; 2.3079661868918438E10 ; 0.0
123 ; 7859148.502192423 ; 2.0353597518642852E8 ; 9.59656152430514E8 ; 2.328317798337789E10 ; 0.0
124 ; 7856794.878510132 ; 2.0355582875884232E8 ; 9.675153009327064E8 ; 2.348671395856432E10 ; 0.0
125 ; 7850802.264873704 ; 2.0357567380860138E8 ; 9.753720958112165E8 ; 2.3690269787323162E10 ; 0.0
126 ; 7847124.581827773 ; 2.0359550899204144E8 ; 9.832228980760902E8 ; 2.3893845461131763E10 ; 0.0
127 ; 7845100.000695257 ; 2.036153329892741E8 ; 9.91070022657918E8 ; 2.4097440970123806E10 ; 0.0
128 ; 7837006.758412472 ; 2.0363514450355142E8 ; 9.989151226586132E8 ; 2.430105630311308E10 ; 0.0
129 ; 7833374.00862591 ; 2.0365494226064986E8 ; 1.0067521294170257E9 ; 2.450469144761663E10 ; 0.0
130 ; 7829522.400934465 ; 2.0367472500827292E8 ; 1.0145855034256516E9 ; 2.470834638987728E10 ; 0.0
131 ; 7821859.858242516 ; 2.0369449151547167E8 ; 1.022415025826586E9 ; 2.4912021114885555E10 ; 0.0
132 ; 7811843.077211018 ; 2.0371424057208318E8 ; 1.0302368856848285E9 ; 2.5115715606401028E10 ; 0.0
133 ; 7806984.62289392 ; 2.0373397098818594E8 ; 1.0380487287620395E9 ; 2.531942984697311E10 ; 0.0
134 ; 7800779.678215878 ; 2.0375368159357187E8 ; 1.0458557133849335E9 ; 2.5523163817961296E10 ; 0.0
135 ; 7792286.355242757 ; 2.0377337123723444E8 ; 1.0536564930631493E9 ; 2.5726917499554867E10 ; 0.0
136 ; 7785530.742398972 ; 2.037930387868725E8 ; 1.0614487794183921E9 ; 2.5930690870792103E10 ; 0.0
137 ; 7779446.123997763 ; 2.0381268312840927E8 ; 1.069234310160791E9 ; 2.6134483909578976E10 ; 0.0
138 ; 7772702.179806591 ; 2.03832303165526E8 ; 1.0770137562847888E9 ; 2.6338296592707386E10 ; 0.0
139 ; 7761977.309230485 ; 2.0385189781921008E8 ; 1.0847864584645956E9 ; 2.6542128895872913E10 ; 0.0
140 ; 7756429.22804807 ; 2.0387146602731666E8 ; 1.0925484357738261E9 ; 2.6745980793692123E10 ; 0.0
141 ; 7749233.318658272 ; 2.038910067441441E8 ; 1.1003048650018742E9 ; 2.694985225971944E10 ; 0.0
142 ; 7741608.534881945 ; 2.0391051894002223E8 ; 1.1080540983205326E9 ; 2.7153743266463585E10 ; 0.0
143 ; 7730278.48632598 ; 2.0393000160091305E8 ; 1.1157957068554144E9 ; 2.7357653785403606E10 ; 0.0
144 ; 7723487.794909024 ; 2.0394945372802407E8 ; 1.1235259853417404E9 ; 2.756158378700452E10 ; 0.0
145 ; 7719412.183335843 ; 2.0396887433743316E8 ; 1.1312494731366494E9 ; 2.7765533240732544E10 ; 0.0
146 ; 7714367.336454945 ; 2.0398826245972502E8 ; 1.1389688853199852E9 ; 2.7969502115069977E10 ; 0.0
147 ; 7706918.937384948 ; 2.0400761713963875E8 ; 1.14668325265644E9 ; 2.81734903775297E10 ; 0.0
148 ; 7703597.051129329 ; 2.040269374357262E8 ; 1.1543901715938249E9 ; 2.837749799466934E10 ; 0.0
149 ; 7698087.202951061 ; 2.040462224200206E8 ; 1.1620937686449542E9 ; 2.8581524932105064E10 ; 0.0
150 ; 7694270.618761654 ; 2.0406547117771575E8 ; 1.1697918558479052E9 ; 2.8785571154525085E10 ; 0.0
151 ; 7687511.62280607 ; 2.040846828068544E8 ; 1.1774861264666667E9 ; 2.89896366257028E10 ; 0.0
152 ; 7684358.185407282 ; 2.0410385641802657E8 ; 1.1851736380894728E9 ; 2.9193721308509655E10 ; 0.0
153 ; 7678147.959725094 ; 2.0412299113407686E8 ; 1.1928579962748802E9 ; 2.939782516492768E10 ; 0.0
154 ; 7673570.39829111 ; 2.0414208608982077E8 ; 1.2005361442346053E9 ; 2.9601948156061756E10 ; 0.0
155 ; 7670471.356816061 ; 2.0416114043176943E8 ; 1.2082097146328964E9 ; 2.9806090242151577E10 ; 0.0
156 ; 7664090.6846020715 ; 2.04180153317863E8 ; 1.2158801859897125E9 ; 3.0010251382583347E10 ; 0.0
157 ; 7656901.040377922 ; 2.0419912391721174E8 ; 1.2235442766743145E9 ; 3.021443153590121E10 ; 0.0
158 ; 7652477.803209176 ; 2.0421805140984532E8 ; 1.2312011777146924E9 ; 3.0418630659818424E10 ; 0.0
159 ; 7647461.749045398 ; 2.0423693498646948E8 ; 1.2388536555179014E9 ; 3.0622848711228268E10 ; 0.0
160 ; 7643903.426531082 ; 2.0425577384822994E8 ; 1.2465011172669468E9 ; 3.0827085646214737E10 ; 0.0
161 ; 7637933.388852048 ; 2.0427456720648378E8 ; 1.2541450206934779E9 ; 3.1031341420062965E10 ; 0.0
162 ; 7629857.597293268 ; 2.0429331428257722E8 ; 1.26178295408233E9 ; 3.1235615987269447E10 ; 0.0
163 ; 7627450.571460791 ; 2.0431201430763048E8 ; 1.2694128116796234E9 ; 3.1439909301552025E10 ; 0.0
164 ; 7623360.637933319 ; 2.043306665223289E8 ; 1.277040262251084E9 ; 3.1644221315859653E10 ; 0.0
165 ; 7615455.318042387 ; 2.0434927017672035E8 ; 1.2846636228890173E9 ; 3.184855198238198E10 ; 0.0
166 ; 7612359.246102902 ; 2.043678245300186E8 ; 1.2922790782070596E9 ; 3.20529012525587E10 ; 0.0
167 ; 7604721.343191973 ; 2.0438632885041276E8 ; 1.2998914374531624E9 ; 3.225726907708872E10 ; 0.0
168 ; 7601242.366790348 ; 2.0440478241488224E8 ; 1.3074961587963543E9 ; 3.2461655405939133E10 ; 0.0
169 ; 7592779.490795508 ; 2.044231845090173E8 ; 1.3150974011631446E9 ; 3.2666060188354015E10 ; 0.0
170 ; 7586659.784277609 ; 2.0444153442684466E8 ; 1.3226901806539402E9 ; 3.2870483372863033E10 ; 0.0
171 ; 7585845.127306121 ; 2.044598314706589E8 ; 1.3302768404382179E9 ; 3.307492490728988E10 ; 0.0
172 ; 7576621.485613363 ; 2.0447807495085803E8 ; 1.337862685565524E9 ; 3.3279384738760536E10 ; 0.0
173 ; 7570611.40602301 ; 2.0449626418578464E8 ; 1.3454393070511374E9 ; 3.3483862813711395E10 ; 0.0
174 ; 7566716.615854255 ; 2.045143985015712E8 ; 1.3530099184571605E9 ; 3.368835907789718E10 ; 0.0
175 ; 7566333.898611692 ; 2.0453247723199037E8 ; 1.3605766350730147E9 ; 3.389287347639875E10 ; 0.0
176 ; 7562813.940150187 ; 2.045504997183092E8 ; 1.3681429689716265E9 ; 3.409740595363074E10 ; 0.0
177 ; 7557711.032180825 ; 2.0456846530914813E8 ; 1.3757057829117768E9 ; 3.430195645334905E10 ; 0.0
178 ; 7553482.345550986 ; 2.0458637336034366E8 ; 1.3832634939439576E9 ; 3.4506524918658195E10 ; 0.0
179 ; 7553998.699980974 ; 2.0460422323481542E8 ; 1.3908169762895086E9 ; 3.471111129201854E10 ; 0.0
180 ; 7547490.747476875 ; 2.0462201430243677E8 ; 1.3983709749894896E9 ; 3.491571551525336E10 ; 0.0
181 ; 7543183.212111801 ; 2.046397459399094E8 ; 1.4059184657369664E9 ; 3.512033752955579E10 ; 0.0
182 ; 7537357.3526102 ; 2.046574175306415E8 ; 1.413461648949078E9 ; 3.5324977275495705E10 ; 0.0
183 ; 7534645.941146934 ; 2.046750284646295E8 ; 1.4209990063016882E9 ; 3.5529634693026344E10 ; 0.0
184 ; 7535269.792345156 ; 2.0469257813834313E8 ; 1.428533652242835E9 ; 3.5734309721490974E10 ; 0.0
185 ; 7531645.858570351 ; 2.047E8 ; 1.43606892203518E9 ; 3.593900229962932E10 ; 0.0
186 ; 7523994.149705676 ; 2.047E8 ; 1.4436005678937504E9 ; 3.614370229962932E10 ; 0.0
187 ; 7521353.645100188 ; 2.047E8 ; 1.451124562043456E9 ; 3.634840229962932E10 ; 0.0
188 ; 7519781.23269026 ; 2.047E8 ; 1.4586459156885562E9 ; 3.655310229962932E10 ; 0.0
189 ; 7518777.774770892 ; 2.047E8 ; 1.4661656969212465E9 ; 3.675780229962932E10 ; 0.0
190 ; 7512993.624764485 ; 2.047E8 ; 1.4736844746960175E9 ; 3.696250229962932E10 ; 0.0
191 ; 7509446.5604825495 ; 2.047E8 ; 1.481197468320782E9 ; 3.716720229962932E10 ; 0.0
192 ; 7504915.302268213 ; 2.047E8 ; 1.4887069148812644E9 ; 3.737190229962932E10 ; 0.0
193 ; 7501693.147614032 ; 2.047E8 ; 1.4962118301835327E9 ; 3.757660229962932E10 ; 0.0
194 ; 7497005.728646552 ; 2.047E8 ; 1.5037135233311467E9 ; 3.778130229962932E10 ; 0.0
195 ; 7494486.879728326 ; 2.047E8 ; 1.5112105290597932E9 ; 3.798600229962932E10 ; 0.0
196 ; 7490855.599263722 ; 2.047E8 ; 1.5187050159395216E9 ; 3.819070229962932E10 ; 0.0
197 ; 7479714.32791846 ; 2.047E8 ; 1.5261958715387852E9 ; 3.839540229962932E10 ; 0.0
198 ; 7468997.774805855 ; 2.047E8 ; 1.5336755858667037E9 ; 3.860010229962932E10 ; 0.0
199 ; 7453023.912600357 ; 1.8207311822121605E8 ; 1.5411445836415095E9 ; 3.880480229962932E10 ; 0.0
200 ; 7436908.517994927 ; 1.5620807492166224E8 ; 1.5485976075541098E9 ; 3.898687541785053E10 ; 0.0
201 ; 7421742.985860297 ; 1.5586000678114402E8 ; 1.5560345160721047E9 ; 3.9143083492772194E10 ; 0.0
202 ; 7406422.654261595 ; 1.555127382774142E8 ; 1.563456259057965E9 ; 3.929894349955334E10 ; 0.0
203 ; 7395226.296499615 ; 1.5516626757342157E8 ; 1.5708626817122266E9 ; 3.945445623783075E10 ; 0.0
