CSV File for the City 6 on Day 244
1 - Minute m 
2 - Power Consumed at minute m 
3 - Power Produced at minute m 
4 - Energy Consumed since the beginning of the day 
5 - Energy Produced since the beginning of the day 
6 - Energy Lost since the beginning of the day on lines starting from the city
 
0 ; 1904394.8557954486 ; 1.0554835060370645E8 ; 0.0 ; 0.0 ; 0.0
1 ; 1911363.4372240803 ; 1.0569735317375368E8 ; 1904394.8557954486 ; 1.0554835060370645E8 ; 0.0
2 ; 1923975.8019307638 ; 1.0615549282917234E8 ; 3815758.293019529 ; 2.1124570377746013E8 ; 0.0
3 ; 1938807.2148773014 ; 1.0692278917416233E8 ; 5739734.094950292 ; 3.174011966066325E8 ; 0.0
4 ; 1954703.1199355414 ; 1.0799926058322024E8 ; 7678541.309827594 ; 4.243239857807948E8 ; 0.0
5 ; 1975163.9829092408 ; 1.0938492386561894E8 ; 9633244.429763135 ; 5.3232324636401504E8 ; 0.0
6 ; 2002629.6347155839 ; 1.1107979393350783E8 ; 1.1608408412672374E7 ; 6.41708170229634E8 ; 0.0
7 ; 2036240.2828804262 ; 1.1308388348713607E8 ; 1.3611038047387958E7 ; 7.527879641631418E8 ; 0.0
8 ; 2093153.2598026535 ; 1.1539720273145145E8 ; 1.5647278330268383E7 ; 8.658718476502779E8 ; 0.0
9 ; 2171029.1358748456 ; 1.1801975913804156E8 ; 1.7740431590071037E7 ; 9.812690503817294E8 ; 0.0
10 ; 2301274.212950394 ; 1.2095155726493686E8 ; 1.9911460725945882E7 ; 1.0992888095197709E9 ; 0.0
11 ; 2494520.595631858 ; 1.2419259864421442E8 ; 2.2212734938896276E7 ; 1.2202403667847078E9 ; 0.0
12 ; 2813223.01543843 ; 1.2774288174379715E8 ; 2.4707255534528133E7 ; 1.3444329654289222E9 ; 0.0
13 ; 3114276.9646237707 ; 1.3160240200565457E8 ; 2.7520478549966563E7 ; 1.4721758471727192E9 ; 0.0
14 ; 3152472.2895574523 ; 1.357711519581992E8 ; 3.0634755514590334E7 ; 1.6037782491783738E9 ; 0.0
15 ; 3166429.295791239 ; 1.4024912139648312E8 ; 3.378722780414779E7 ; 1.739549401136573E9 ; 0.0
16 ; 3183424.288946197 ; 1.450362976202573E8 ; 3.6953657099939026E7 ; 1.8797985225330563E9 ; 0.0
17 ; 3195935.3096491573 ; 1.501326657173722E8 ; 4.013708138888522E7 ; 2.0248348201533136E9 ; 0.0
18 ; 3209916.7816515095 ; 1.5553820887855506E8 ; 4.333301669853438E7 ; 2.174967485870686E9 ; 0.0
19 ; 3226485.66913557 ; 1.6125290872930923E8 ; 4.654293348018589E7 ; 2.330505694749241E9 ; 0.0
20 ; 3241187.602738357 ; 1.672767456654348E8 ; 4.976941914932146E7 ; 2.49175860347855E9 ; 0.0
21 ; 3257316.6292561525 ; 1.736096991802427E8 ; 5.301060675205982E7 ; 2.659035349143985E9 ; 0.0
22 ; 3276166.399813111 ; 1.8025174817365652E8 ; 5.626792338131597E7 ; 2.8326450483242273E9 ; 0.0
23 ; 3289530.413636653 ; 1.8720287123578656E8 ; 5.954408978112908E7 ; 3.012896796497884E9 ; 0.0
24 ; 3304370.665028027 ; 1.9446304689997226E8 ; 6.283362019476573E7 ; 3.20009966773367E9 ; 0.0
25 ; 3316341.1083467817 ; 2.007202947607102E8 ; 6.613799085979376E7 ; 3.3945627146336427E9 ; 0.0
26 ; 3334171.5838401816 ; 2.0072814169615793E8 ; 6.945433196814054E7 ; 3.595283009394353E9 ; 0.0
27 ; 3345158.150111301 ; 2.0073633654523107E8 ; 7.278850355198072E7 ; 3.796011151090511E9 ; 0.0
28 ; 3362850.517144085 ; 2.0074485947503847E8 ; 7.613366170209202E7 ; 3.9967474876357417E9 ; 0.0
29 ; 3376729.2227590713 ; 2.0075369136593845E8 ; 7.94965122192361E7 ; 4.1974923471107802E9 ; 0.0
30 ; 3391994.985474259 ; 2.0076281387764543E8 ; 8.287324144199517E7 ; 4.398246038476719E9 ; 0.0
31 ; 3407124.151040473 ; 2.007722094929841E8 ; 8.626523642746943E7 ; 4.599008852354364E9 ; 0.0
32 ; 3418075.454899346 ; 2.0078186154264003E8 ; 8.967236057850991E7 ; 4.799781061847348E9 ; 0.0
33 ; 3429459.958291156 ; 2.0079175421410838E8 ; 9.309043603340925E7 ; 5.000562923389988E9 ; 0.0
34 ; 3443776.0614047307 ; 2.0080187254779455E8 ; 9.651989599170041E7 ; 5.201354677604096E9 ; 0.0
35 ; 3457637.2930946415 ; 2.0081220242292026E8 ; 9.996367205310515E7 ; 5.402156550151891E9 ; 0.0
36 ; 3471334.7480317936 ; 2.00822730535561E8 ; 1.0342130934619978E8 ; 5.602968752574811E9 ; 0.0
37 ; 3483168.7745457534 ; 2.0083344437081394E8 ; 1.0689264409423158E8 ; 5.803791483110372E9 ; 0.0
38 ; 3496179.5527915363 ; 2.0084433217078158E8 ; 1.1037581286877733E8 ; 6.004624927481186E9 ; 0.0
39 ; 3508598.7856333866 ; 2.0085538289976886E8 ; 1.1387199242156887E8 ; 6.205469259651967E9 ; 0.0
40 ; 3517928.9836165234 ; 2.0086658620783165E8 ; 1.1738059120720226E8 ; 6.406324642551736E9 ; 0.0
41 ; 3534008.8514468353 ; 2.0087793239358914E8 ; 1.2089852019081879E8 ; 6.607191228759567E9 ; 0.0
42 ; 3539716.378645815 ; 2.0088941236701596E8 ; 1.2443252904226562E8 ; 6.808069161153156E9 ; 0.0
43 ; 3548245.950513862 ; 2.0090101761276647E8 ; 1.2797224542091143E8 ; 7.008958573520172E9 ; 0.0
44 ; 3556582.795058999 ; 2.0091274015444452E8 ; 1.315204913714253E8 ; 7.209859591132938E9 ; 0.0
45 ; 3565152.094215314 ; 2.0092457252011976E8 ; 1.350770741664843E8 ; 7.410772331287383E9 ; 0.0
46 ; 3574993.5177581506 ; 2.009365077092993E8 ; 1.386422262606996E8 ; 7.611696903807503E9 ; 0.0
47 ; 3582018.8807839956 ; 2.0094853916148928E8 ; 1.4221721977845776E8 ; 7.812633411516802E9 ; 0.0
48 ; 3589280.578227509 ; 2.0096066072642362E8 ; 1.4579923865924177E8 ; 8.013581950678291E9 ; 0.0
49 ; 3594968.831391306 ; 2.0097286663599098E8 ; 1.493885192374693E8 ; 8.214542611404715E9 ; 0.0
50 ; 3601147.334312079 ; 2.0098515147785643E8 ; 1.529834880688606E8 ; 8.415515478040706E9 ; 0.0
51 ; 3606617.785920722 ; 2.0099751017074856E8 ; 1.5658463540317267E8 ; 8.616500629518562E9 ; 0.0
52 ; 3613654.5674746144 ; 2.0100993794136345E8 ; 1.6019125318909338E8 ; 8.81749813968931E9 ; 0.0
53 ; 3618399.1189502403 ; 2.0102243030282295E8 ; 1.6380490775656798E8 ; 9.018508077630674E9 ; 0.0
54 ; 3618520.372596802 ; 2.0103498303461677E8 ; 1.6742330687551823E8 ; 9.219530507933496E9 ; 0.0
55 ; 3626093.457992461 ; 2.010475921639516E8 ; 1.7104182724811503E8 ; 9.420565490968113E9 ; 0.0
56 ; 3634123.371674281 ; 2.010602539484276E8 ; 1.746679207061075E8 ; 9.621613083132065E9 ; 0.0
57 ; 3637341.9979322418 ; 2.010729648599625E8 ; 1.7830204407778177E8 ; 9.822673337080492E9 ; 0.0
58 ; 3643593.7248564344 ; 2.010857215698834E8 ; 1.8193938607571402E8 ; 1.0023746301940454E10 ; 0.0
59 ; 3647586.7895955583 ; 2.0109852093510932E8 ; 1.8558297980057046E8 ; 1.0224832023510338E10 ; 0.0
60 ; 3651338.591058889 ; 2.0111135998534897E8 ; 1.89230566590166E8 ; 1.0425930544445448E10 ; 0.0
61 ; 3654438.5318127107 ; 2.0112423591124296E8 ; 1.9288190518122488E8 ; 1.0627041904430798E10 ; 0.0
62 ; 3662513.153153258 ; 2.011371460533818E8 ; 1.9653634371303758E8 ; 1.0828166140342041E10 ; 0.0
63 ; 3664623.2716800985 ; 2.0115008789213607E8 ; 2.0019885686619085E8 ; 1.1029303286395422E10 ; 0.0
64 ; 3671960.1395844393 ; 2.0116305903823802E8 ; 2.0386348013787094E8 ; 1.1230453374287558E10 ; 0.0
65 ; 3670510.4381559417 ; 2.0117605722405842E8 ; 2.075354402774554E8 ; 1.1431616433325796E10 ; 0.0
66 ; 3675990.5753513374 ; 2.0118908029552612E8 ; 2.1120595071561134E8 ; 1.1632792490549854E10 ; 0.0
67 ; 3681172.5828813515 ; 2.0120212620464095E8 ; 2.1488194129096267E8 ; 1.183398157084538E10 ; 0.0
68 ; 3684921.9989937386 ; 2.012151930025349E8 ; 2.1856311387384403E8 ; 1.2035183697050022E10 ; 0.0
69 ; 3688490.78935874 ; 2.012282788330391E8 ; 2.2224803587283775E8 ; 1.2236398890052557E10 ; 0.0
70 ; 3691721.2684355965 ; 2.012413819267181E8 ; 2.259365266621965E8 ; 1.2437627168885595E10 ; 0.0
71 ; 3697402.498989205 ; 2.0125450059533477E8 ; 2.2962824793063208E8 ; 1.2638868550812313E10 ; 0.0
72 ; 3699984.5976892924 ; 2.012676332267134E8 ; 2.3332565042962128E8 ; 1.2840123051407648E10 ; 0.0
73 ; 3704058.7568334835 ; 2.012807782799696E8 ; 2.3702563502731058E8 ; 1.3041390684634361E10 ; 0.0
74 ; 3709705.7024834077 ; 2.0129393428107926E8 ; 2.4072969378414407E8 ; 1.3242671462914331E10 ; 0.0
75 ; 3710621.810089736 ; 2.013070998187604E8 ; 2.444393994866275E8 ; 1.344396539719541E10 ; 0.0
76 ; 3714848.0537968515 ; 2.0132027354064387E8 ; 2.4815002129671723E8 ; 1.364527249701417E10 ; 0.0
77 ; 3719083.0211670552 ; 2.0133345414971116E8 ; 2.5186486935051408E8 ; 1.3846592770554813E10 ; 0.0
78 ; 3715877.862914135 ; 2.013466404009786E8 ; 2.5558395237168115E8 ; 1.4047926224704525E10 ; 0.0
79 ; 3714988.348798341 ; 2.013598310984098E8 ; 2.592998302345953E8 ; 1.4249272865105503E10 ; 0.0
80 ; 3717469.631473447 ; 2.0137302509203857E8 ; 2.6301481858339363E8 ; 1.4450632696203913E10 ; 0.0
81 ; 3715334.4761162666 ; 2.0138622127528715E8 ; 2.667322882148671E8 ; 1.4652005721295952E10 ; 0.0
82 ; 3712938.635898516 ; 2.013994185824647E8 ; 2.7044762269098336E8 ; 1.485339194257124E10 ; 0.0
83 ; 3713614.5760205183 ; 2.0141261598643294E8 ; 2.741605613268819E8 ; 1.5054791361153704E10 ; 0.0
84 ; 3711499.562140734 ; 2.0142581249642655E8 ; 2.778741759029024E8 ; 1.5256203977140137E10 ; 0.0
85 ; 3709668.4127579243 ; 2.0143900715601695E8 ; 2.815856754650432E8 ; 1.5457629789636562E10 ; 0.0
86 ; 3710190.9540073406 ; 2.01452199041209E8 ; 2.852953438778011E8 ; 1.565906879679258E10 ; 0.0
87 ; 3707236.1829799195 ; 2.0146538725866115E8 ; 2.8900553483180845E8 ; 1.5860520995833788E10 ; 0.0
88 ; 3705202.077053081 ; 2.0147857094401988E8 ; 2.927127710147884E8 ; 1.606198638309245E10 ; 0.0
89 ; 3704495.0748339477 ; 2.0149174926036054E8 ; 2.9641797309184146E8 ; 1.6263464954036469E10 ; 0.0
90 ; 3704594.9304518057 ; 2.0150492139672688E8 ; 3.001224681666754E8 ; 1.646495670329683E10 ; 0.0
91 ; 3702451.8275208506 ; 2.0151808656676224E8 ; 3.038270630971272E8 ; 1.6666461624693556E10 ; 0.0
92 ; 3701685.109500095 ; 2.0153124400742617E8 ; 3.0752951492464805E8 ; 1.6867979711260319E10 ; 0.0
93 ; 3696131.3430679603 ; 2.0154439297779045E8 ; 3.1123120003414816E8 ; 1.7069510955267744E10 ; 0.0
94 ; 3694213.142853957 ; 2.0155753275790882E8 ; 3.149273313772161E8 ; 1.7271055348245533E10 ; 0.0
95 ; 3695086.4396801447 ; 2.0157066264775586E8 ; 3.186215445200701E8 ; 1.747261288100344E10 ; 0.0
96 ; 3693943.6361446176 ; 2.0158378196622962E8 ; 3.2231663095975024E8 ; 1.7674183543651196E10 ; 0.0
97 ; 3689062.329521528 ; 2.0159689005021438E8 ; 3.260105745958949E8 ; 1.7875767325617424E10 ; 0.0
98 ; 3686982.5736666126 ; 2.0160998625369892E8 ; 3.296996369254164E8 ; 1.8077364215667637E10 ; 0.0
99 ; 3684576.5102820047 ; 2.016230699469471E8 ; 3.3338661949908304E8 ; 1.8278974201921337E10 ; 0.0
100 ; 3680863.049299531 ; 2.0163614051571682E8 ; 3.37071196009365E8 ; 1.8480597271868286E10 ; 0.0
101 ; 3679753.8382098377 ; 2.0164919736052448E8 ; 3.4075205905866456E8 ; 1.8682233412384003E10 ; 0.0
102 ; 3679548.458479837 ; 2.01662239895952E8 ; 3.444318128968744E8 ; 1.8883882609744526E10 ; 0.0
103 ; 3676145.403983899 ; 2.016752675499932E8 ; 3.4811136135535425E8 ; 1.9085544849640476E10 ; 0.0
104 ; 3672116.2755260775 ; 2.016882797634378E8 ; 3.5178750675933814E8 ; 1.9287220117190468E10 ; 0.0
105 ; 3666342.9842921104 ; 2.0170127598928976E8 ; 3.5545962303486425E8 ; 1.9488908396953907E10 ; 0.0
106 ; 3667314.3070643316 ; 2.0171425569221845E8 ; 3.5912596601915634E8 ; 1.9690609672943195E10 ; 0.0
107 ; 3663259.7412243984 ; 2.0172721834804013E8 ; 3.627932803262207E8 ; 1.9892323928635414E10 ; 0.0
108 ; 3659026.162892901 ; 2.0174016344322821E8 ; 3.664565400674451E8 ; 2.0094051146983456E10 ; 0.0
109 ; 3655374.1822513095 ; 2.0175309047445026E8 ; 3.70115566230338E8 ; 2.0295791310426685E10 ; 0.0
110 ; 3655023.351956045 ; 2.0176599894813025E8 ; 3.737709404125893E8 ; 2.0497544400901134E10 ; 0.0
111 ; 3647572.2643530816 ; 2.017788883800343E8 ; 3.774259637645454E8 ; 2.0699310399849266E10 ; 0.0
112 ; 3650457.2246156754 ; 2.0179175829487872E8 ; 3.810735360288985E8 ; 2.09010892882293E10 ; 0.0
113 ; 3644934.788909962 ; 2.01804608225959E8 ; 3.847239932535142E8 ; 2.110288104652418E10 ; 0.0
114 ; 3639393.0724447863 ; 2.018174377147983E8 ; 3.8836892804242414E8 ; 2.130468565475014E10 ; 0.0
115 ; 3635594.634416637 ; 2.018302463108143E8 ; 3.9200832111486894E8 ; 2.150650309246494E10 ; 0.0
116 ; 3632542.3002212085 ; 2.0184303357100365E8 ; 3.956439157492856E8 ; 2.1708333338775753E10 ; 0.0
117 ; 3626066.9184006434 ; 2.018557990596426E8 ; 3.992764580495068E8 ; 2.1910176372346756E10 ; 0.0
118 ; 3620869.2464515804 ; 2.018685423480031E8 ; 4.029025249679074E8 ; 2.21120321714064E10 ; 0.0
119 ; 3620156.2854691716 ; 2.0188126301408315E8 ; 4.06523394214359E8 ; 2.2313900713754402E10 ; 0.0
120 ; 3614029.078036404 ; 2.0189396064235136E8 ; 4.1014355049982816E8 ; 2.2515781976768486E10 ; 0.0
121 ; 3608810.334534581 ; 2.0190663482350388E8 ; 4.137575795778646E8 ; 2.271767593741084E10 ; 0.0
122 ; 3605888.188144153 ; 2.0191928515423366E8 ; 4.173663899123992E8 ; 2.2919582572234344E10 ; 0.0
123 ; 3603476.807724174 ; 2.019319112370113E8 ; 4.209722781005433E8 ; 2.3121501857388577E10 ; 0.0
124 ; 3598943.7039003107 ; 2.0194451267987677E8 ; 4.245757549082675E8 ; 2.3323433768625587E10 ; 0.0
125 ; 3595533.8680094527 ; 2.019570890962409E8 ; 4.2817469861216784E8 ; 2.3525378281305466E10 ; 0.0
126 ; 3588629.445673086 ; 2.0196964010469732E8 ; 4.317702324801773E8 ; 2.3727335370401707E10 ; 0.0
127 ; 3582267.3257260537 ; 2.0198216532884282E8 ; 4.353588619258504E8 ; 2.3929305010506405E10 ; 0.0
128 ; 3577681.9002333833 ; 2.019946643971069E8 ; 4.389411292515764E8 ; 2.4131287175835247E10 ; 0.0
129 ; 3571561.510105623 ; 2.0200713694258907E8 ; 4.425188111518098E8 ; 2.4333281840232353E10 ; 0.0
130 ; 3567990.1093071513 ; 2.0201958260290432E8 ; 4.460903726619154E8 ; 2.4535288977174942E10 ; 0.0
131 ; 3560660.5634416747 ; 2.0203200102003545E8 ; 4.496583627712226E8 ; 2.4737308559777847E10 ; 0.0
132 ; 3549744.3966245656 ; 2.0204439184019285E8 ; 4.532190233346643E8 ; 2.4939340560797882E10 ; 0.0
133 ; 3540545.185586935 ; 2.0205675471368045E8 ; 4.5676876773128885E8 ; 2.5141384952638077E10 ; 0.0
134 ; 3529011.1649030996 ; 2.0206908929476815E8 ; 4.603093129168758E8 ; 2.5343441707351757E10 ; 0.0
135 ; 3521298.4556678515 ; 2.0208139524157003E8 ; 4.638383240817789E8 ; 2.5545510796646526E10 ; 0.0
136 ; 3513994.340569454 ; 2.0209367221592835E8 ; 4.6735962253744674E8 ; 2.5747592191888096E10 ; 0.0
137 ; 3501040.0819228482 ; 2.0210591988330257E8 ; 4.708736168780162E8 ; 2.5949685864104023E10 ; 0.0
138 ; 3492594.0191585794 ; 2.0211813791266376E8 ; 4.74374656959939E8 ; 2.6151791783987324E10 ; 0.0
139 ; 3481724.9850315508 ; 2.021303259763936E8 ; 4.778672509790976E8 ; 2.6353909921899986E10 ; 0.0
140 ; 3474681.1229272345 ; 2.0214248375018802E8 ; 4.8134897596412915E8 ; 2.655604024787638E10 ; 0.0
141 ; 3463703.4359801416 ; 2.0215461091296506E8 ; 4.848236570870564E8 ; 2.6758182731626568E10 ; 0.0
142 ; 3453844.4144077515 ; 2.0216670714677703E8 ; 4.8828736052303654E8 ; 2.696033734253953E10 ; 0.0
143 ; 3441638.406793073 ; 2.0217877213672647E8 ; 4.9174120493744427E8 ; 2.716250404968631E10 ; 0.0
144 ; 3435281.727462702 ; 2.0219080557088575E8 ; 4.951828433442373E8 ; 2.7364682821823036E10 ; 0.0
145 ; 3428767.2254665396 ; 2.022028071402205E8 ; 4.9861812507170004E8 ; 2.756687362739392E10 ; 0.0
146 ; 3426551.0310658254 ; 2.0221477653851593E8 ; 5.020468922971666E8 ; 2.776907643453414E10 ; 0.0
147 ; 3416921.768859495 ; 2.02226713462307E8 ; 5.054734433282324E8 ; 2.797129121107266E10 ; 0.0
148 ; 3409278.78843245 ; 2.0223861761081097E8 ; 5.088903650970919E8 ; 2.8173517924534966E10 ; 0.0
149 ; 3407015.8552374467 ; 2.0225048868586338E8 ; 5.122996438855244E8 ; 2.8375756542145775E10 ; 0.0
150 ; 3404096.2058813586 ; 2.022623263918565E8 ; 5.157066597407618E8 ; 2.857800703083164E10 ; 0.0
151 ; 3397334.714469267 ; 2.0227413043568063E8 ; 5.191107559466432E8 ; 2.8780269357223495E10 ; 0.0
152 ; 3394035.4970086226 ; 2.0228590052666765E8 ; 5.225080906611124E8 ; 2.8982543487659176E10 ; 0.0
153 ; 3388886.3905685223 ; 2.0229763637653735E8 ; 5.2590212615812105E8 ; 2.9184829388185844E10 ; 0.0
154 ; 3382826.621716844 ; 2.023093376993457E8 ; 5.2929101254868954E8 ; 2.938712702456238E10 ; 0.0
155 ; 3378356.8633718914 ; 2.023210042114354E8 ; 5.326738391704064E8 ; 2.9589436362261726E10 ; 0.0
156 ; 3369395.1364806257 ; 2.023326356313888E8 ; 5.360521960337783E8 ; 2.9791757366473164E10 ; 0.0
157 ; 3363616.4127074373 ; 2.0234423167998227E8 ; 5.394215911702589E8 ; 2.9994090002104553E10 ; 0.0
158 ; 3360289.7900562966 ; 2.0235579208014306E8 ; 5.427852075829663E8 ; 3.0196434233784534E10 ; 0.0
159 ; 3351928.569882365 ; 2.0236731655690747E8 ; 5.461454973730227E8 ; 3.0398790025864677E10 ; 0.0
160 ; 3348296.484797822 ; 2.0237880483738118E8 ; 5.494974259429051E8 ; 3.0601157342421585E10 ; 0.0
161 ; 3343196.4080875996 ; 2.0239025665070093E8 ; 5.528457224277029E8 ; 3.0803536147258965E10 ; 0.0
162 ; 3335672.422022344 ; 2.0240167172799787E8 ; 5.561889188357905E8 ; 3.1005926403909664E10 ; 0.0
163 ; 3331320.10606633 ; 2.0241304980236265E8 ; 5.595245912578129E8 ; 3.120832807563766E10 ; 0.0
164 ; 3328797.759180815 ; 2.0242439060881153E8 ; 5.628559113638792E8 ; 3.1410741125440025E10 ; 0.0
165 ; 3320605.5206312896 ; 2.0243569388425428E8 ; 5.6618470912306E8 ; 3.1613165516048836E10 ; 0.0
166 ; 3314318.3625089317 ; 2.024469593674632E8 ; 5.695053146436913E8 ; 3.181560120993309E10 ; 0.0
167 ; 3314049.2506868276 ; 2.0245818679904345E8 ; 5.728196330062002E8 ; 3.2018048169300552E10 ; 0.0
168 ; 3305389.227444826 ; 2.024693759214046E8 ; 5.761336822568871E8 ; 3.2220506356099594E10 ; 0.0
169 ; 3298918.3552937387 ; 2.0248052647873342E8 ; 5.794390714843318E8 ; 3.2422975732021E10 ; 0.0
170 ; 3293458.7185252067 ; 2.024916382169676E8 ; 5.827379898396256E8 ; 3.2625456258499733E10 ; 0.0
171 ; 3285521.5021564257 ; 2.0250271088377076E8 ; 5.860314485581508E8 ; 3.28279478967167E10 ; 0.0
172 ; 3281793.8367670025 ; 2.0251374422850832E8 ; 5.893169700603071E8 ; 3.303045060760047E10 ; 0.0
173 ; 3279690.5052003097 ; 2.0252473800222442E8 ; 5.925987638970741E8 ; 3.323296435182898E10 ; 0.0
174 ; 3269777.586985799 ; 2.0253569195761982E8 ; 5.958784544022744E8 ; 3.3435489089831203E10 ; 0.0
175 ; 3267686.2027226277 ; 2.0254660584903055E8 ; 5.991482319892602E8 ; 3.3638024781788822E10 ; 0.0
176 ; 3265047.5609229207 ; 2.0255747943240774E8 ; 6.024159181919829E8 ; 3.384057138763785E10 ; 0.0
177 ; 3261035.91733463 ; 2.0256831246529773E8 ; 6.056809657529058E8 ; 3.404312886707026E10 ; 0.0
178 ; 3255747.7220845213 ; 2.0257910470682365E8 ; 6.089420016702405E8 ; 3.4245697179535557E10 ; 0.0
179 ; 3249852.3957485235 ; 2.0258985591766727E8 ; 6.12197749392325E8 ; 3.444827628424238E10 ; 0.0
180 ; 3246453.921495353 ; 2.0260056586005172E8 ; 6.154476017880735E8 ; 3.465086614016004E10 ; 0.0
181 ; 3243271.5294870776 ; 2.02611234297725E8 ; 6.186940557095689E8 ; 3.4853466706020096E10 ; 0.0
182 ; 3240451.494163288 ; 2.0262186099594408E8 ; 6.21937327239056E8 ; 3.505607794031782E10 ; 0.0
183 ; 3237022.8684242433 ; 2.0263244572145966E8 ; 6.251777787332193E8 ; 3.525869980131376E10 ; 0.0
184 ; 3231257.809133116 ; 2.026429882425016E8 ; 6.284148016016436E8 ; 3.546133224703522E10 ; 0.0
185 ; 3227243.7571415817 ; 2.026534883287648E8 ; 6.316460594107767E8 ; 3.566397523527772E10 ; 0.0
186 ; 3224221.5121569205 ; 2.0266394575139588E8 ; 6.348733031679183E8 ; 3.586662872360648E10 ; 0.0
187 ; 3219334.0188777307 ; 2.0267436028298026E8 ; 6.380975246800753E8 ; 3.606929266935788E10 ; 0.0
188 ; 3217759.8674666733 ; 2.0268473169752982E8 ; 6.41316858698953E8 ; 3.627196702964086E10 ; 0.0
189 ; 3213296.409708951 ; 2.0269505977047095E8 ; 6.445346185664197E8 ; 3.6474651761338394E10 ; 0.0
190 ; 3209067.706956614 ; 2.027053442786334E8 ; 6.477479149761287E8 ; 3.6677346821108864E10 ; 0.0
191 ; 3206004.3702422953 ; 2.0271558500023913E8 ; 6.509569826830853E8 ; 3.68800521653875E10 ; 0.0
192 ; 3200536.492890512 ; 2.027257817148922E8 ; 6.541629870533276E8 ; 3.708276775038773E10 ; 0.0
193 ; 3197229.841780991 ; 2.0273593420356843E8 ; 6.57363523546218E8 ; 3.728549353210262E10 ; 0.0
194 ; 3191754.162016197 ; 2.0274604224860612E8 ; 6.60560753387999E8 ; 3.748822946630619E10 ; 0.0
195 ; 3187351.005289801 ; 2.027561056336967E8 ; 6.637525075500152E8 ; 3.7690975508554794E10 ; 0.0
196 ; 3184570.102845007 ; 2.02766124143876E8 ; 6.66939858555305E8 ; 3.789373161418849E10 ; 0.0
197 ; 3181920.8491495745 ; 2.027760975655158E8 ; 6.7012442865815E8 ; 3.809649773833237E10 ; 0.0
198 ; 3176445.4873154047 ; 2.0278602568631586E8 ; 6.733063495072995E8 ; 3.829927383589788E10 ; 0.0
199 ; 3169776.02413221 ; 2.027959082952962E8 ; 6.76482794994615E8 ; 3.85020598615842E10 ; 0.0
200 ; 3167432.501181572 ; 2.028057451827896E8 ; 6.796525710187472E8 ; 3.870485576987949E10 ; 0.0
