CSV File for the City 1 on Day 38
1 - Minute m 
2 - Power Consumed at minute m 
3 - Power Produced at minute m 
4 - Energy Consumed since the beginning of the day 
5 - Energy Produced since the beginning of the day 
6 - Energy Lost since the beginning of the day on lines starting from the city
 
0 ; 1.5974750955017954E7 ; 1.0531973492923E8 ; 0.0 ; 0.0 ; 0.0
1 ; 1.5993674330129929E7 ; 1.0547196591257608E8 ; 1.5974750955017954E7 ; 1.0531973492923E8 ; 0.0
2 ; 1.6014197375699429E7 ; 1.0593303445870587E8 ; 3.1968425285147883E7 ; 2.1079170084180608E8 ; 0.0
3 ; 1.6029579680555563E7 ; 1.0670294799318963E8 ; 4.798262266084731E7 ; 3.1672473530051196E8 ; 0.0
4 ; 1.6056854785866337E7 ; 1.0778171345839745E8 ; 6.401220234140287E7 ; 4.234276832937016E8 ; 0.0
5 ; 1.6085022439485213E7 ; 1.0916933719076866E8 ; 8.006905712726921E7 ; 5.3120939675209904E8 ; 0.0
6 ; 1.6123190528012846E7 ; 1.1086582480011591E8 ; 9.615407956675442E7 ; 6.403787339428678E8 ; 0.0
7 ; 1.6174904071437838E7 ; 1.128711810557375E8 ; 1.1227727009476726E8 ; 7.512445587429837E8 ; 0.0
8 ; 1.6254922343926344E7 ; 1.1518540978431779E8 ; 1.284521741662051E8 ; 8.641157397987212E8 ; 0.0
9 ; 1.637323571751692E7 ; 1.1780851378446007E8 ; 1.4470709651013145E8 ; 9.79301149583039E8 ; 0.0
10 ; 1.655167700133595E7 ; 1.2074049476216072E8 ; 1.6108033222764838E8 ; 1.097109663367499E9 ; 0.0
11 ; 1.6842209463417232E7 ; 1.2398135329063293E8 ; 1.7763200922898433E8 ; 1.21785015812966E9 ; 0.0
12 ; 1.73018227101511E7 ; 1.275310887966635E8 ; 1.9447421869240156E8 ; 1.3418315114202929E9 ; 0.0
13 ; 1.774691394658356E7 ; 1.31389699574256E8 ; 2.1177604140255266E8 ; 1.4693626002169564E9 ; 0.0
14 ; 1.7802008000169802E7 ; 1.355571828248073E8 ; 2.2952295534913623E8 ; 1.6007522997912123E9 ; 0.0
15 ; 1.781986362131055E7 ; 1.4003353472163284E8 ; 2.4732496334930605E8 ; 1.7363094826160197E9 ; 0.0
16 ; 1.7844286640457604E7 ; 1.448187504954345E8 ; 2.651448269706166E8 ; 1.8763430173376527E9 ; 0.0
17 ; 1.7863459236614756E7 ; 1.499128245363995E8 ; 2.829891136110742E8 ; 2.0211617678330872E9 ; 0.0
18 ; 1.788478859114996E7 ; 1.553157505080886E8 ; 3.00852572847689E8 ; 2.171074592369487E9 ; 0.0
19 ; 1.7908796854488708E7 ; 1.6102752146813163E8 ; 3.1873736143883896E8 ; 2.3263903428775754E9 ; 0.0
20 ; 1.792678379031916E7 ; 1.6704812999095836E8 ; 3.366461582933277E8 ; 2.487417864345707E9 ; 0.0
21 ; 1.794843868516106E7 ; 1.7337756828829232E8 ; 3.5457294208364683E8 ; 2.654465994336665E9 ; 0.0
22 ; 1.7969450231338117E7 ; 1.8001582832383168E8 ; 3.725213807688079E8 ; 2.8278435626249576E9 ; 0.0
23 ; 1.7987700055074263E7 ; 1.8696290191934443E8 ; 3.9049083100014603E8 ; 3.007859390948789E9 ; 0.0
24 ; 1.8009561651326466E7 ; 1.9421878085023367E8 ; 4.084785310552203E8 ; 3.1948222928681335E9 ; 0.0
25 ; 1.80317866659525E7 ; 2.0047149782759413E8 ; 4.264880927065468E8 ; 3.389041073718367E9 ; 0.0
26 ; 1.8054393436307155E7 ; 2.0047459260681644E8 ; 4.445198793724993E8 ; 3.5895125715459614E9 ; 0.0
27 ; 1.8073143185038432E7 ; 2.0047782657213348E8 ; 4.625742728088064E8 ; 3.7899871641527777E9 ; 0.0
28 ; 1.8092776782939464E7 ; 2.004811920315064E8 ; 4.8064741599384487E8 ; 3.990464990724911E9 ; 0.0
29 ; 1.8110721229730174E7 ; 2.0048468154730535E8 ; 4.987401927767843E8 ; 4.1909461827564178E9 ; 0.0
30 ; 1.8135271360981368E7 ; 2.0048828796411481E8 ; 5.168509140065145E8 ; 4.391430864303723E9 ; 0.0
31 ; 1.8151481179615702E7 ; 2.0049200442805913E8 ; 5.3498618536749583E8 ; 4.5919191522678385E9 ; 0.0
32 ; 1.81681092003829E7 ; 2.0049582439882454E8 ; 5.531376665471115E8 ; 4.792411156695898E9 ; 0.0
33 ; 1.8191346723286852E7 ; 2.0049974165552276E8 ; 5.713057757474945E8 ; 4.992906981094723E9 ; 0.0
34 ; 1.820666509174463E7 ; 2.0050375029747036E8 ; 5.894971224707813E8 ; 5.193406722750245E9 ; 0.0
35 ; 1.8225103202033293E7 ; 2.00507844740863E8 ; 6.07703787562526E8 ; 5.393910473047715E9 ; 0.0
36 ; 1.824240324105329E7 ; 2.0051201971221542E8 ; 6.259288907645593E8 ; 5.594418317788578E9 ; 0.0
37 ; 1.825453612372313E7 ; 2.005162702393256E8 ; 6.441712940056126E8 ; 5.794930337500793E9 ; 0.0
38 ; 1.827088020970646E7 ; 2.0052059164041194E8 ; 6.624258301293358E8 ; 5.995446607740119E9 ; 0.0
39 ; 1.828733848994698E7 ; 2.0052497951196817E8 ; 6.806967103390422E8 ; 6.195967199380531E9 ; 0.0
40 ; 1.8302327975390475E7 ; 2.0052942971578732E8 ; 6.989840488289891E8 ; 6.3964921788925E9 ; 0.0
41 ; 1.8312109690256897E7 ; 2.0053393836552104E8 ; 7.172863768043796E8 ; 6.597021608608287E9 ; 0.0
42 ; 1.8327578504044272E7 ; 2.00538501813068E8 ; 7.355984864946365E8 ; 6.797555546973808E9 ; 0.0
43 ; 1.8337276923669446E7 ; 2.0054311663502124E8 ; 7.539260649986808E8 ; 6.998094048786877E9 ; 0.0
44 ; 1.834995830042655E7 ; 2.0054777961935213E8 ; 7.722633419223503E8 ; 7.198637165421898E9 ; 0.0
45 ; 1.835894370066608E7 ; 2.0055248775246352E8 ; 7.906133002227769E8 ; 7.39918494504125E9 ; 0.0
46 ; 1.836658416442044E7 ; 2.0055723820670786E8 ; 8.08972243923443E8 ; 7.599737432793714E9 ; 0.0
47 ; 1.8376767898342464E7 ; 2.0056202832843727E8 ; 8.273388280878634E8 ; 7.800294671000422E9 ; 0.0
48 ; 1.838282530031186E7 ; 2.0056685562662756E8 ; 8.457155959862059E8 ; 8.000856699328858E9 ; 0.0
49 ; 1.838994592150709E7 ; 2.005717177621003E8 ; 8.640984212865177E8 ; 8.201423554955486E9 ; 0.0
50 ; 1.839571022216064E7 ; 2.0057661253735116E8 ; 8.824883672080249E8 ; 8.4019952727175865E9 ; 0.0
51 ; 1.8403962060253907E7 ; 2.0058153788698235E8 ; 9.008840774301856E8 ; 8.602571885254938E9 ; 0.0
52 ; 1.8402563403466318E7 ; 2.0058649186872786E8 ; 9.192880394904394E8 ; 8.80315342314192E9 ; 0.0
53 ; 1.8412161127790034E7 ; 2.00591472655054E8 ; 9.376906028939058E8 ; 9.003739915010649E9 ; 0.0
54 ; 1.8417510490120735E7 ; 2.0059647852531362E8 ; 9.561027640216959E8 ; 9.204331387665703E9 ; 0.0
55 ; 1.8417935153764687E7 ; 2.0060150785842872E8 ; 9.745202745118166E8 ; 9.404927866191017E9 ; 0.0
56 ; 1.84235470209702E7 ; 2.0060655912607512E8 ; 9.929382096655813E8 ; 9.605529374049446E9 ; 0.0
57 ; 1.842955449008554E7 ; 2.006116308863412E8 ; 1.0113617566865516E9 ; 9.806135933175522E9 ; 0.0
58 ; 1.8433490182958994E7 ; 2.006167217778332E8 ; 1.029791311176637E9 ; 1.0006747564061863E10 ; 0.0
59 ; 1.843801115645969E7 ; 2.0062183051419836E8 ; 1.048224801359596E9 ; 1.0207364285839697E10 ; 0.0
60 ; 1.8439899776481766E7 ; 2.0062695587904048E8 ; 1.0666628125160557E9 ; 1.0407986116353895E10 ; 0.0
61 ; 1.844303110101732E7 ; 2.0063209672119987E8 ; 1.0851027122925375E9 ; 1.0608613072232935E10 ; 0.0
62 ; 1.8445870910968576E7 ; 2.00637251950374E8 ; 1.1035457433935547E9 ; 1.0809245168954134E10 ; 0.0
63 ; 1.8447985843325272E7 ; 2.0064242053305432E8 ; 1.1219916143045232E9 ; 1.1009882420904509E10 ; 0.0
64 ; 1.8451863476620074E7 ; 2.0064760148875666E8 ; 1.1404396001478486E9 ; 1.1210524841437563E10 ; 0.0
65 ; 1.845519162633627E7 ; 2.0065279388652432E8 ; 1.1588914636244686E9 ; 1.141117244292632E10 ; 0.0
66 ; 1.845492221825944E7 ; 2.0065799684168342E8 ; 1.177346655250805E9 ; 1.1611825236812843E10 ; 0.0
67 ; 1.8457610805738345E7 ; 2.006632095128321E8 ; 1.1958015774690642E9 ; 1.1812483233654528E10 ; 0.0
68 ; 1.846287507896629E7 ; 2.0066843109904638E8 ; 1.2142591882748027E9 ; 1.201314644316736E10 ; 0.0
69 ; 1.846412502987708E7 ; 2.0067366083728582E8 ; 1.232722063353769E9 ; 1.2213814874266407E10 ; 0.0
70 ; 1.8465731379732423E7 ; 2.0067889799998483E8 ; 1.2511861883836462E9 ; 1.2414488535103693E10 ; 0.0
71 ; 1.8470000154099017E7 ; 2.0068414189281484E8 ; 1.2696519197633786E9 ; 1.2615167433103678E10 ; 0.0
72 ; 1.846723997685675E7 ; 2.0068939185260522E8 ; 1.2881219199174776E9 ; 1.2815851574996492E10 ; 0.0
73 ; 1.846913232672156E7 ; 2.0069464724541023E8 ; 1.3065891598943343E9 ; 1.3016540966849098E10 ; 0.0
74 ; 1.847163768893087E7 ; 2.0069990746471164E8 ; 1.325058292221056E9 ; 1.321723561409451E10 ; 0.0
75 ; 1.8468935365151964E7 ; 2.0070517192974636E8 ; 1.343529929909987E9 ; 1.3417935521559221E10 ; 0.0
76 ; 1.8475896901678104E7 ; 2.0071044008395004E8 ; 1.3619988652751389E9 ; 1.3618640693488968E10 ; 0.0
77 ; 1.847519588742112E7 ; 2.0071571139350754E8 ; 1.380474762176817E9 ; 1.3819351133572918E10 ; 0.0
78 ; 1.846554104500747E7 ; 2.007209853460028E8 ; 1.398949958064238E9 ; 1.4020066844966425E10 ; 0.0
79 ; 1.846325230211597E7 ; 2.0072626144916016E8 ; 1.4174154991092455E9 ; 1.4220787830312428E10 ; 0.0
80 ; 1.845757553740957E7 ; 2.0073153922967094E8 ; 1.4358787514113615E9 ; 1.4421514091761587E10 ; 0.0
81 ; 1.8450545547360614E7 ; 2.0073681823209834E8 ; 1.454336326948771E9 ; 1.4622245630991259E10 ; 0.0
82 ; 1.8445562000413265E7 ; 2.007420980178554E8 ; 1.4727868724961317E9 ; 1.4822982449223356E10 ; 0.0
83 ; 1.844089671566842E7 ; 2.007473781642506E8 ; 1.4912324344965448E9 ; 1.502372454724121E10 ; 0.0
84 ; 1.8436271533734117E7 ; 2.0075265826359588E8 ; 1.5096733312122133E9 ; 1.5224471925405462E10 ; 0.0
85 ; 1.8425378799030963E7 ; 2.0075793792237294E8 ; 1.5281096027459474E9 ; 1.5425224583669058E10 ; 0.0
86 ; 1.841670530779684E7 ; 2.0076321676045328E8 ; 1.5465349815449784E9 ; 1.562598252159143E10 ; 0.0
87 ; 1.8413266116796535E7 ; 2.0076849441036856E8 ; 1.5649516868527753E9 ; 1.5826745738351885E10 ; 0.0
88 ; 1.840569264985074E7 ; 2.0077377051662725E8 ; 1.5833649529695718E9 ; 1.6027514232762253E10 ; 0.0
89 ; 1.8396467223630626E7 ; 2.007790447350745E8 ; 1.6017706456194227E9 ; 1.622828800327888E10 ; 0.0
90 ; 1.8392228470785916E7 ; 2.0078431673229235E8 ; 1.6201671128430533E9 ; 1.6429067048013954E10 ; 0.0
91 ; 1.8382699519795522E7 ; 2.0078958618503717E8 ; 1.6385593413138392E9 ; 1.6629851364746246E10 ; 0.0
92 ; 1.8378840113114282E7 ; 2.0079485277971184E8 ; 1.6569420408336346E9 ; 1.6830640950931284E10 ; 0.0
93 ; 1.8368947888601113E7 ; 2.0080011621187052E8 ; 1.675320880946749E9 ; 1.7031435803710997E10 ; 0.0
94 ; 1.835827449388297E7 ; 2.0080537618575343E8 ; 1.69368982883535E9 ; 1.7232235919922867E10 ; 0.0
95 ; 1.8354600614429817E7 ; 2.0081063241384968E8 ; 1.712048103329233E9 ; 1.743304129610862E10 ; 0.0
96 ; 1.8343078095940873E7 ; 2.0081588461648652E8 ; 1.7304027039436626E9 ; 1.763385192852247E10 ; 0.0
97 ; 1.8335764450129006E7 ; 2.008211325214429E8 ; 1.7487457820396035E9 ; 1.7834667813138954E10 ; 0.0
98 ; 1.8325091876080915E7 ; 2.008263758635859E8 ; 1.7670815464897325E9 ; 1.8035488945660397E10 ; 0.0
99 ; 1.8319165773528554E7 ; 2.008316143845285E8 ; 1.7854066383658135E9 ; 1.8236315321523983E10 ; 0.0
100 ; 1.8311163595567834E7 ; 2.008368478323072E8 ; 1.803725804139342E9 ; 1.8437146935908512E10 ; 0.0
101 ; 1.829962005749868E7 ; 2.0084207596107838E8 ; 1.82203696773491E9 ; 1.8637983783740818E10 ; 0.0
102 ; 1.8288862370155398E7 ; 2.0084729853083196E8 ; 1.8403365877924087E9 ; 1.8838825859701897E10 ; 0.0
103 ; 1.8282732583905973E7 ; 2.0085251530712134E8 ; 1.858625450162564E9 ; 1.9039673158232727E10 ; 0.0
104 ; 1.8271491494278464E7 ; 2.0085772606080875E8 ; 1.87690818274647E9 ; 1.924052567353985E10 ; 0.0
105 ; 1.826177576364477E7 ; 2.0086293056782472E8 ; 1.8951796742407484E9 ; 1.944138339960066E10 ; 0.0
106 ; 1.825430007087157E7 ; 2.0086812860894093E8 ; 1.913441450004393E9 ; 1.9642246330168484E10 ; 0.0
107 ; 1.8242292219466224E7 ; 2.0087331996955588E8 ; 1.9316957500752647E9 ; 1.9843114458777424E10 ; 0.0
108 ; 1.8232758837572847E7 ; 2.008785044394919E8 ; 1.949938042294731E9 ; 2.004398777874698E10 ; 0.0
109 ; 1.821728608030788E7 ; 2.008836818128035E8 ; 1.9681708011323037E9 ; 2.024486628318647E10 ; 0.0
110 ; 1.820401569876207E7 ; 2.0088885188759607E8 ; 1.9863880872126117E9 ; 2.0445749964999275E10 ; 0.0
111 ; 1.819478066188196E7 ; 2.0089401446585426E8 ; 2.0045921029113739E9 ; 2.064663881688687E10 ; 0.0
112 ; 1.8184963125254963E7 ; 2.0089916935327938E8 ; 2.0227868835732558E9 ; 2.0847532831352726E10 ; 0.0
113 ; 1.8169190840363733E7 ; 2.0090431635913572E8 ; 2.0409718466985106E9 ; 2.1048432000706005E10 ; 0.0
114 ; 1.8161098032225817E7 ; 2.009094552961046E8 ; 2.0591410375388744E9 ; 2.124933631706514E10 ; 0.0
115 ; 1.8149520935825277E7 ; 2.009145859801464E8 ; 2.0773021355711002E9 ; 2.1450245772361244E10 ; 0.0
116 ; 1.8139070638200086E7 ; 2.009197082303694E8 ; 2.0954516565069256E9 ; 2.1651160358341393E10 ; 0.0
117 ; 1.812518952024922E7 ; 2.0092482186890548E8 ; 2.1135907271451256E9 ; 2.1852080066571762E10 ; 0.0
118 ; 1.8108675142320644E7 ; 2.009299267207925E8 ; 2.1317159166653748E9 ; 2.2053004888440666E10 ; 0.0
119 ; 1.8097667325864054E7 ; 2.0093502261386216E8 ; 2.1498245918076954E9 ; 2.2253934815161457E10 ; 0.0
120 ; 1.8085716143183082E7 ; 2.009401093786337E8 ; 2.167922259133559E9 ; 2.245486983777532E10 ; 0.0
121 ; 1.8073607417298455E7 ; 2.0094518684821332E8 ; 2.1860079752767425E9 ; 2.2655809947153954E10 ; 0.0
122 ; 1.806225998832282E7 ; 2.0095025485819784E8 ; 2.204081582694041E9 ; 2.2856755134002167E10 ; 0.0
123 ; 1.8045055187747307E7 ; 2.0095531324658388E8 ; 2.2221438426823635E9 ; 2.3057705388860363E10 ; 0.0
124 ; 1.803111295106533E7 ; 2.0096036185368115E8 ; 2.240188897870111E9 ; 2.3258660702106945E10 ; 0.0
125 ; 1.8020815472758222E7 ; 2.009654005220299E8 ; 2.2582200108211765E9 ; 2.3459621063960625E10 ; 0.0
126 ; 1.80065085558674E7 ; 2.0097042909632263E8 ; 2.276240826293935E9 ; 2.3660586464482655E10 ; 0.0
127 ; 1.7990731172050174E7 ; 2.0097544742332938E8 ; 2.294247334849802E9 ; 2.3861556893578976E10 ; 0.0
128 ; 1.79786730156977E7 ; 2.009804553518268E8 ; 2.312238066021852E9 ; 2.4062532341002304E10 ; 0.0
129 ; 1.795804107997096E7 ; 2.0098545273253033E8 ; 2.3302167390375495E9 ; 2.426351279635413E10 ; 0.0
130 ; 1.794442460057829E7 ; 2.0099043941803E8 ; 2.3481747801175203E9 ; 2.446449824908666E10 ; 0.0
131 ; 1.792148366004814E7 ; 2.0099541526272875E8 ; 2.3661192047180986E9 ; 2.466548868850469E10 ; 0.0
132 ; 1.7903754681528162E7 ; 2.0100038012278414E8 ; 2.3840406883781466E9 ; 2.4866484103767418E10 ; 0.0
133 ; 1.7882413721880946E7 ; 2.010053338560524E8 ; 2.4019444430596747E9 ; 2.50674844838902E10 ; 0.0
134 ; 1.7865131563412216E7 ; 2.0101027632203534E8 ; 2.4198268567815557E9 ; 2.5268489817746254E10 ; 0.0
135 ; 1.784248817794275E7 ; 2.0101520738182956E8 ; 2.437691988344968E9 ; 2.546950009406829E10 ; 0.0
136 ; 1.7822654645241745E7 ; 2.01020126898078E8 ; 2.4555344765229106E9 ; 2.567051530145012E10 ; 0.0
137 ; 1.779869974506179E7 ; 2.0102503473492372E8 ; 2.4733571311681523E9 ; 2.5871535428348198E10 ; 0.0
138 ; 1.7778153386723895E7 ; 2.0102993075796586E8 ; 2.491155830913214E9 ; 2.6072560463083122E10 ; 0.0
139 ; 1.775804292943807E7 ; 2.0103481483421752E8 ; 2.508933984299938E9 ; 2.6273590393841087E10 ; 0.0
140 ; 1.7735361525229137E7 ; 2.010396868320654E8 ; 2.5266920272293763E9 ; 2.6474625208675304E10 ; 0.0
141 ; 1.7710927610799547E7 ; 2.0104454662123156E8 ; 2.5444273887546053E9 ; 2.667566489550737E10 ; 0.0
142 ; 1.7688902835934278E7 ; 2.0104939407273656E8 ; 2.5621383163654046E9 ; 2.68767094421286E10 ; 0.0
143 ; 1.7664380441597234E7 ; 2.010542290588644E8 ; 2.579827219201339E9 ; 2.7077758836201336E10 ; 0.0
144 ; 1.763955136421727E7 ; 2.010590514531291E8 ; 2.597491599642936E9 ; 2.72788130652602E10 ; 0.0
145 ; 1.762909011329549E7 ; 2.0106386113024238E8 ; 2.6151311510071535E9 ; 2.747987211671333E10 ; 0.0
146 ; 1.7610542023525264E7 ; 2.0106865796608323E8 ; 2.632760241120449E9 ; 2.768093597784357E10 ; 0.0
147 ; 1.7593891373156082E7 ; 2.0107344183766842E8 ; 2.6503707831439743E9 ; 2.7882004635809654E10 ; 0.0
148 ; 1.7575580368315984E7 ; 2.0107821262312454E8 ; 2.6679646745171304E9 ; 2.8083078077647324E10 ; 0.0
149 ; 1.756430683012626E7 ; 2.0108297020166108E8 ; 2.6855402548854465E9 ; 2.8284156290270447E10 ; 0.0
150 ; 1.7547835763801266E7 ; 2.010877144535447E8 ; 2.703104561715573E9 ; 2.8485239260472107E10 ; 0.0
151 ; 1.753293513907763E7 ; 2.0109244526007476E8 ; 2.720652397479374E9 ; 2.868632697492565E10 ; 0.0
152 ; 1.7514867631696638E7 ; 2.0109716250355956E8 ; 2.7381853326184516E9 ; 2.8887419420185726E10 ; 0.0
153 ; 1.74972031929813E7 ; 2.0110186606729403E8 ; 2.7557002002501483E9 ; 2.9088516582689285E10 ; 0.0
154 ; 1.7481583978393517E7 ; 2.0110655583553794E8 ; 2.7731974034431295E9 ; 2.928961844875658E10 ; 0.0
155 ; 1.746667641128699E7 ; 2.0111123169349524E8 ; 2.790678987421523E9 ; 2.9490725004592117E10 ; 0.0
156 ; 1.7448397597801317E7 ; 2.0111589352729437E8 ; 2.80814566383281E9 ; 2.9691836236285614E10 ; 0.0
157 ; 1.7433513434800483E7 ; 2.0112054122396913E8 ; 2.825594061430611E9 ; 2.989295212981291E10 ; 0.0
158 ; 1.741592630333544E7 ; 2.0112517467144054E8 ; 2.8430275748654118E9 ; 3.0094072671036877E10 ; 0.0
159 ; 1.739603337852947E7 ; 2.011297937584994E8 ; 2.8604435011687474E9 ; 3.0295197845708317E10 ; 0.0
160 ; 1.7380056325551618E7 ; 2.011343983747896E8 ; 2.877839534547277E9 ; 3.0496327639466816E10 ; 0.0
161 ; 1.7367329510331407E7 ; 2.01138988410792E8 ; 2.8952195908728285E9 ; 3.0697462037841606E10 ; 0.0
162 ; 1.7348828264003895E7 ; 2.011435637578092E8 ; 2.91258692038316E9 ; 3.08986010262524E10 ; 0.0
163 ; 1.733006100028043E7 ; 2.0114812430795068E8 ; 2.929935748647164E9 ; 3.109974459001021E10 ; 0.0
164 ; 1.7313336144869186E7 ; 2.0115266995411885E8 ; 2.9472658096474442E9 ; 3.1300892714318157E10 ; 0.0
165 ; 1.7297839622559175E7 ; 2.0115720058999532E8 ; 2.9645791457923136E9 ; 3.1502045384272278E10 ; 0.0
166 ; 1.728183316397218E7 ; 2.01161716110028E8 ; 2.9818769854148726E9 ; 3.1703202584862274E10 ; 0.0
167 ; 1.7260653445244458E7 ; 2.011662164094186E8 ; 2.999158818578845E9 ; 3.19043643009723E10 ; 0.0
168 ; 1.7241265033846438E7 ; 2.011707013841108E8 ; 3.0164194720240893E9 ; 3.210553051738172E10 ; 0.0
169 ; 1.7221734584598612E7 ; 2.0117517093077853E8 ; 3.0336607370579357E9 ; 3.230670121876583E10 ; 0.0
170 ; 1.7208406238411155E7 ; 2.0117962494681525E8 ; 3.0508824716425343E9 ; 3.250787638969661E10 ; 0.0
171 ; 1.7187178475188408E7 ; 2.0118406333032316E8 ; 3.068090877880945E9 ; 3.2709056014643425E10 ; 0.0
172 ; 1.7172398752802588E7 ; 2.011884859801033E8 ; 3.0852780563561335E9 ; 3.2910240077973747E10 ; 0.0
173 ; 1.715644392733073E7 ; 2.0119289279564562E8 ; 3.102450455108936E9 ; 3.311142856395385E10 ; 0.0
174 ; 1.7143887174716175E7 ; 2.0119728367711973E8 ; 3.1196068990362663E9 ; 3.3312621456749496E10 ; 0.0
175 ; 1.713346905700965E7 ; 2.0120165852536604E8 ; 3.1367507862109823E9 ; 3.3513818740426617E10 ; 0.0
176 ; 1.7122355805424448E7 ; 2.0120601724188697E8 ; 3.153884255267992E9 ; 3.3715020398951984E10 ; 0.0
177 ; 1.711277923657075E7 ; 2.0121035972883898E8 ; 3.171006611073416E9 ; 3.391622641619387E10 ; 0.0
178 ; 1.7103746229147155E7 ; 2.012146858890244E8 ; 3.188119390309987E9 ; 3.411743677592271E10 ; 0.0
179 ; 1.709046715559568E7 ; 2.0121899562588397E8 ; 3.205223136539134E9 ; 3.4318651461811733E10 ; 0.0
180 ; 1.7076992819926985E7 ; 2.012232888434896E8 ; 3.22231360369473E9 ; 3.4519870457437614E10 ; 0.0
181 ; 1.707296371785284E7 ; 2.0122756544653723E8 ; 3.239390596514657E9 ; 3.4721093746281105E10 ; 0.0
182 ; 1.7057011911767855E7 ; 2.0123182534034023E8 ; 3.25646356023251E9 ; 3.4922321311727646E10 ; 0.0
183 ; 1.7048621003016934E7 ; 2.01236068430823E8 ; 3.273520572144278E9 ; 3.5123553137067986E10 ; 0.0
184 ; 1.7039055059528954E7 ; 2.0124029462451464E8 ; 3.290569193147295E9 ; 3.532478920549881E10 ; 0.0
185 ; 1.7024509431146488E7 ; 2.012445038285432E8 ; 3.307608248206824E9 ; 3.552602950012332E10 ; 0.0
186 ; 1.701503067537133E7 ; 2.0124869595062983E8 ; 3.3246327576379704E9 ; 3.5727274003951866E10 ; 0.0
187 ; 1.700789857112324E7 ; 2.0125287089908344E8 ; 3.3416477883133416E9 ; 3.59285226999025E10 ; 0.0
188 ; 1.6996013918309387E7 ; 2.012570285827954E8 ; 3.3586556868844647E9 ; 3.612977557080158E10 ; 0.0
189 ; 1.6982740670216728E7 ; 2.0126116891123465E8 ; 3.375651700802774E9 ; 3.633103259938438E10 ; 0.0
190 ; 1.6970123134875912E7 ; 2.012652917944426E8 ; 3.3926344414729905E9 ; 3.653229376829561E10 ; 0.0
191 ; 1.696197589922489E7 ; 2.0126939714302883E8 ; 3.4096045646078663E9 ; 3.673355906009005E10 ; 0.0
192 ; 1.6955161825779665E7 ; 2.0127348486816642E8 ; 3.426566540507091E9 ; 3.693482845723308E10 ; 0.0
193 ; 1.6943524510876637E7 ; 2.012775548815879E8 ; 3.4435217023328705E9 ; 3.713610194210124E10 ; 0.0
194 ; 1.692476031780614E7 ; 2.0128160709558102E8 ; 3.460465226843747E9 ; 3.733737949698283E10 ; 0.0
195 ; 1.692087379919872E7 ; 2.0128564142298487E8 ; 3.4773899871615534E9 ; 3.753866110407841E10 ; 0.0
