CSV File for the City 4 on Day 268
1 - Minute m 
2 - Power Consumed at minute m 
3 - Power Produced at minute m 
4 - Energy Consumed since the beginning of the day 
5 - Energy Produced since the beginning of the day 
6 - Energy Lost since the beginning of the day on lines starting from the city
 
0 ; 2883548.8968483265 ; 1.0627008067089644E8 ; 0.0 ; 0.0 ; 0.0
1 ; 2885502.47815678 ; 1.0642065341052294E8 ; 2883548.8968483265 ; 1.0627008067089644E8 ; 0.0
2 ; 2891790.2559217596 ; 1.0688025109741727E8 ; 5769051.375005106 ; 2.1269073408141938E8 ; 0.0
3 ; 2899979.0422512507 ; 1.0764887750820774E8 ; 8660841.630926866 ; 3.1957098517883664E8 ; 0.0
4 ; 2906762.026684694 ; 1.0872653602352583E8 ; 1.1560820673178118E7 ; 4.272198626870444E8 ; 0.0
5 ; 2916680.2265381725 ; 1.101132296105985E8 ; 1.4467582699862812E7 ; 5.359463987105702E8 ; 0.0
6 ; 2931757.8941997006 ; 1.118089608076993E8 ; 1.7384262926400986E7 ; 6.460596283211687E8 ; 0.0
7 ; 2950633.306601956 ; 1.1381373171064508E8 ; 2.0316020820600685E7 ; 7.57868589128868E8 ; 0.0
8 ; 2980113.6380833266 ; 1.1612754396150696E8 ; 2.326665412720264E7 ; 8.716823208395131E8 ; 0.0
9 ; 3029809.0449484177 ; 1.1875039873967516E8 ; 2.624676776528597E7 ; 9.8780986480102E8 ; 0.0
10 ; 3104820.429875406 ; 1.2168229675539398E8 ; 2.9276576810234386E7 ; 1.1065602635406952E9 ; 0.0
11 ; 3226735.1032952745 ; 1.2492323824584803E8 ; 3.2381397240109794E7 ; 1.2282425602960892E9 ; 0.0
12 ; 3420378.5665303185 ; 1.2847322297385266E8 ; 3.560813234340507E7 ; 1.353165798541937E9 ; 0.0
13 ; 3610392.373053546 ; 1.3233225022916359E8 ; 3.9028510909935385E7 ; 1.4816390215157897E9 ; 0.0
14 ; 3630192.2659444497 ; 1.3650031883239067E8 ; 4.263890328298893E7 ; 1.6139712717449534E9 ; 0.0
15 ; 3639828.667429915 ; 1.4097742714146268E8 ; 4.626909554893338E7 ; 1.750471590577344E9 ; 0.0
16 ; 3644060.4128248226 ; 1.4576357306056288E8 ; 4.9908924216363296E7 ; 1.8914490177188067E9 ; 0.0
17 ; 3650882.5028140927 ; 1.5085875405141762E8 ; 5.355298462918812E7 ; 2.0372125907793696E9 ; 0.0
18 ; 3660783.3308853526 ; 1.5626296714679998E8 ; 5.720386713200221E7 ; 2.188071344830787E9 ; 0.0
19 ; 3666544.0005000723 ; 1.619762089660785E8 ; 6.086465046288756E7 ; 2.344334311977587E9 ; 0.0
20 ; 3674939.9709830703 ; 1.679984757326248E8 ; 6.453119446338764E7 ; 2.5063105209436655E9 ; 0.0
21 ; 3681030.0503023984 ; 1.743297632928743E8 ; 6.820613443437071E7 ; 2.6743089966762905E9 ; 0.0
22 ; 3687040.4813667503 ; 1.809700671368218E8 ; 7.188716448467311E7 ; 2.848638759969165E9 ; 0.0
23 ; 3692602.7756712786 ; 1.8791938241972548E8 ; 7.557420496603987E7 ; 3.0296088271059866E9 ; 0.0
24 ; 3703059.128094008 ; 1.951777039847873E8 ; 7.926680774171114E7 ; 3.217528209525712E9 ; 0.0
25 ; 3705827.9945933055 ; 2.0143306728476235E8 ; 8.296986686980514E7 ; 3.4127059135104995E9 ; 0.0
26 ; 3712665.486030611 ; 2.0143901444279754E8 ; 8.667569486439845E7 ; 3.614138980795262E9 ; 0.0
27 ; 3720698.30622801 ; 2.0144530880157343E8 ; 9.038836035042906E7 ; 3.8155779952380595E9 ; 0.0
28 ; 3726274.6989434063 ; 2.0145194419440013E8 ; 9.410905865665707E7 ; 4.017023304039633E9 ; 0.0
29 ; 3733328.407434752 ; 2.0145891426267278E8 ; 9.783533335560048E7 ; 4.218475248234033E9 ; 0.0
30 ; 3744787.9368154383 ; 2.0146621247978482E8 ; 1.0156866176303522E8 ; 4.419934162496706E9 ; 0.0
31 ; 3748380.2448191387 ; 2.0147383217457786E8 ; 1.0531344969985066E8 ; 4.621400374976491E9 ; 0.0
32 ; 3753686.0971814734 ; 2.0148176655417874E8 ; 1.090618299446698E8 ; 4.822874207151069E9 ; 0.0
33 ; 3760135.5075432654 ; 2.0149000872609302E8 ; 1.1281551604185127E8 ; 5.024355973705248E9 ; 0.0
34 ; 3763581.0694427295 ; 2.0149855171944323E8 ; 1.1657565154939453E8 ; 5.225845982431341E9 ; 0.0
35 ; 3768571.81364745 ; 2.0150738850525805E8 ; 1.2033923261883727E8 ; 5.4273445341507845E9 ; 0.0
36 ; 3775340.8072452666 ; 2.0151651201573756E8 ; 1.2410780443248472E8 ; 5.628851922656042E9 ; 0.0
37 ; 3778039.2559211627 ; 2.015259151624361E8 ; 1.2788314523972999E8 ; 5.83036843467178E9 ; 0.0
38 ; 3784546.7915387126 ; 2.0153559085332152E8 ; 1.3166118449565116E8 ; 6.031894349834216E9 ; 0.0
39 ; 3787686.7950691083 ; 2.0154553200868458E8 ; 1.3544573128718987E8 ; 6.233429940687537E9 ; 0.0
40 ; 3794198.522215874 ; 2.0155573157588562E8 ; 1.3923341808225897E8 ; 6.434975472696221E9 ; 0.0
41 ; 3800341.834592239 ; 2.0156618254293922E8 ; 1.4302761660447484E8 ; 6.636531204272107E9 ; 0.0
42 ; 3802883.209960246 ; 2.0157687795094767E8 ; 1.468279584390671E8 ; 6.838097386815046E9 ; 0.0
43 ; 3807694.2348403893 ; 2.0158781090540445E8 ; 1.5063084164902735E8 ; 7.039674264765994E9 ; 0.0
44 ; 3806329.1452516774 ; 2.015989745863968E8 ; 1.5443853588386774E8 ; 7.241262075671398E9 ; 0.0
45 ; 3812872.530692833 ; 2.0161036225774392E8 ; 1.5824486502911943E8 ; 7.442861050257795E9 ; 0.0
46 ; 3815676.0772216753 ; 2.0162196727511185E8 ; 1.6205773755981228E8 ; 7.644471412515539E9 ; 0.0
47 ; 3816400.262565845 ; 2.0163378309315255E8 ; 1.6587341363703394E8 ; 7.846093379790651E9 ; 0.0
48 ; 3819584.6164290044 ; 2.016458032717156E8 ; 1.696898138995998E8 ; 8.047727162883804E9 ; 0.0
49 ; 3819547.625703375 ; 2.0165802148118544E8 ; 1.735093985160288E8 ; 8.2493729661555195E9 ; 0.0
50 ; 3821290.9735645107 ; 2.01670431506997E8 ; 1.7732894614173216E8 ; 8.451030987636705E9 ; 0.0
51 ; 3822383.261357226 ; 2.016830272533844E8 ; 1.8115023711529666E8 ; 8.652701419143702E9 ; 0.0
52 ; 3821791.4787202976 ; 2.016958027464168E8 ; 1.8497262037665388E8 ; 8.854384446397085E9 ; 0.0
53 ; 3821411.9389318433 ; 2.0170875213637426E8 ; 1.887944118553742E8 ; 9.056080249143501E9 ; 0.0
54 ; 3823768.332773399 ; 2.0172186969951758E8 ; 1.9261582379430604E8 ; 9.257789001279875E9 ; 0.0
55 ; 3824019.3359089885 ; 2.0173514983930156E8 ; 1.9643959212707943E8 ; 9.459510870979393E9 ; 0.0
56 ; 3823595.8844703166 ; 2.0174858708708212E8 ; 2.002636114629884E8 ; 9.661246020818695E9 ; 0.0
57 ; 3825768.6859753355 ; 2.017621761023639E8 ; 2.0408720734745872E8 ; 9.862994607905777E9 ; 0.0
58 ; 3825763.2777091963 ; 2.0177591167263332E8 ; 2.0791297603343406E8 ; 1.006475678400814E10 ; 0.0
59 ; 3825755.301542238 ; 2.0178978871281978E8 ; 2.1173873931114325E8 ; 1.0266532695680775E10 ; 0.0
60 ; 3831542.8606364704 ; 2.0180380226442522E8 ; 2.155644946126855E8 ; 1.0468322484393595E10 ; 0.0
61 ; 3827468.881931382 ; 2.0181794749435937E8 ; 2.1939603747332197E8 ; 1.067012628665802E10 ; 0.0
62 ; 3824147.965839208 ; 2.0183221969351608E8 ; 2.2322350635525337E8 ; 1.087194423415238E10 ; 0.0
63 ; 3826011.079065447 ; 2.018466142751231E8 ; 2.2704765432109258E8 ; 1.1073776453845896E10 ; 0.0
64 ; 3828679.176257148 ; 2.0186112677289602E8 ; 2.3087366540015802E8 ; 1.127562306812102E10 ; 0.0
65 ; 3826957.349692101 ; 2.0187575283902353E8 ; 2.3470234457641515E8 ; 1.1477484194893915E10 ; 0.0
66 ; 3828452.4992993698 ; 2.0189048824201033E8 ; 2.3852930192610726E8 ; 1.1679359947732939E10 ; 0.0
67 ; 3827146.248276354 ; 2.019053288644004E8 ; 2.4235775442540663E8 ; 1.1881250435974949E10 ; 0.0
68 ; 3826843.3196355794 ; 2.0192027070040265E8 ; 2.46184900673683E8 ; 1.208315576483935E10 ; 0.0
69 ; 3830335.4123534 ; 2.0193530985343784E8 ; 2.5001174399331856E8 ; 1.2285076035539753E10 ; 0.0
70 ; 3826811.3783498392 ; 2.019504425336245E8 ; 2.5384207940567195E8 ; 1.248701134539319E10 ; 0.0
71 ; 3830472.587410686 ; 2.0196566505521974E8 ; 2.576688907840218E8 ; 1.2688961787926815E10 ; 0.0
72 ; 3825688.603742262 ; 2.0198097383402893E8 ; 2.6149936337143248E8 ; 1.2890927452982035E10 ; 0.0
73 ; 3827007.6693307557 ; 2.0199636538479725E8 ; 2.6532505197517475E8 ; 1.3092908426816063E10 ; 0.0
74 ; 3825290.1839390774 ; 2.0201183631859404E8 ; 2.691520596445055E8 ; 1.3294904792200861E10 ; 0.0
75 ; 3825662.942371018 ; 2.020273833402003E8 ; 2.729773498284446E8 ; 1.3496916628519455E10 ; 0.0
76 ; 3825395.106858993 ; 2.0204300324550807E8 ; 2.768030127708156E8 ; 1.3698944011859655E10 ; 0.0
77 ; 3823656.974621826 ; 2.0205869291893905E8 ; 2.806284078776746E8 ; 1.3900987015105164E10 ; 0.0
78 ; 3822684.272683918 ; 2.0207444933089012E8 ; 2.844520648522964E8 ; 1.4103045708024103E10 ; 0.0
79 ; 3819643.057176309 ; 2.0209026953521046E8 ; 2.8827474912498033E8 ; 1.4305120157354994E10 ; 0.0
80 ; 3813328.4971024366 ; 2.0210615066671625E8 ; 2.920943921821566E8 ; 1.4507210426890203E10 ; 0.0
81 ; 3809609.146149147 ; 2.0212208993874666E8 ; 2.9590772067925906E8 ; 1.470931657755692E10 ; 0.0
82 ; 3808272.0474789217 ; 2.0213808464076483E8 ; 2.997173298254082E8 ; 1.4911438667495667E10 ; 0.0
83 ; 3806347.033270022 ; 2.0215413213600713E8 ; 3.0352560187288713E8 ; 1.511357675213643E10 ; 0.0
84 ; 3800882.0687927064 ; 2.021702298591825E8 ; 3.0733194890615714E8 ; 1.5315730884272438E10 ; 0.0
85 ; 3800588.4579634494 ; 2.021863753142246E8 ; 3.1113283097494984E8 ; 1.551790111413162E10 ; 0.0
86 ; 3796299.147313271 ; 2.022025660720975E8 ; 3.149334194329133E8 ; 1.5720087489445845E10 ; 0.0
87 ; 3793040.111111337 ; 2.0221879976865667E8 ; 3.187297185802266E8 ; 1.5922290055517942E10 ; 0.0
88 ; 3788884.6030580867 ; 2.0223507410256553E8 ; 3.2252275869133794E8 ; 1.6124508855286598E10 ; 0.0
89 ; 3785885.5032078302 ; 2.0225138683326828E8 ; 3.2631164329439604E8 ; 1.6326743929389164E10 ; 0.0
90 ; 3782577.685040997 ; 2.022677357790193E8 ; 3.3009752879760385E8 ; 1.6528995316222433E10 ; 0.0
91 ; 3779951.5042690453 ; 2.0228411881496868E8 ; 3.3388010648264486E8 ; 1.6731263052001451E10 ; 0.0
92 ; 3775144.9420433184 ; 2.0230053387130383E8 ; 3.376600579869139E8 ; 1.693354717081642E10 ; 0.0
93 ; 3770191.547393284 ; 2.0231697893144706E8 ; 3.414352029289572E8 ; 1.7135847704687723E10 ; 0.0
94 ; 3767313.4364330787 ; 2.023334520303077E8 ; 3.452053944763505E8 ; 1.733816468361917E10 ; 0.0
95 ; 3761383.0428205463 ; 2.023499512525891E8 ; 3.4897270791278356E8 ; 1.754049813564948E10 ; 0.0
96 ; 3758159.451068122 ; 2.0236647473114848E8 ; 3.5273409095560414E8 ; 1.774284808690207E10 ; 0.0
97 ; 3754991.0197778963 ; 2.023830206454099E8 ; 3.5649225040667224E8 ; 1.7945214561633217E10 ; 0.0
98 ; 3749759.6728142635 ; 2.0239958721982837E8 ; 3.6024724142645013E8 ; 1.8147597582278625E10 ; 0.0
99 ; 3747660.4173953277 ; 2.024161727224044E8 ; 3.639970010992644E8 ; 1.8349997169498455E10 ; 0.0
100 ; 3745171.8227121737 ; 2.0243277546324804E8 ; 3.6774466151665974E8 ; 1.855241334222086E10 ; 0.0
101 ; 3739228.324108608 ; 2.0244939379319078E8 ; 3.714898333393719E8 ; 1.875484611768411E10 ; 0.0
102 ; 3733041.104521823 ; 2.0246602610244447E8 ; 3.752290616634805E8 ; 1.89572955114773E10 ; 0.0
103 ; 3729748.8442698033 ; 2.02482670819306E8 ; 3.7896210276800233E8 ; 1.9159761537579742E10 ; 0.0
104 ; 3726908.9567245804 ; 2.0249932640890604E8 ; 3.8269185161227214E8 ; 1.9362244208399048E10 ; 0.0
105 ; 3720340.6810606085 ; 2.025159913720014E8 ; 3.864187605689967E8 ; 1.9564743534807953E10 ; 0.0
106 ; 3716270.186930945 ; 2.0253266424380895E8 ; 3.9013910125005734E8 ; 1.9767259526179955E10 ; 0.0
107 ; 3714380.0046896785 ; 2.0254934359288034E8 ; 3.938553714369883E8 ; 1.9969792190423763E10 ; 0.0
108 ; 3705710.9348664884 ; 2.0256602802001616E8 ; 3.97569751441678E8 ; 2.0172341534016644E10 ; 0.0
109 ; 3703660.244255593 ; 2.0258271615721816E8 ; 4.012754623765445E8 ; 2.037490756203666E10 ; 0.0
110 ; 3698337.821575521 ; 2.0259940666667852E8 ; 4.049791226208001E8 ; 2.057749027819388E10 ; 0.0
111 ; 3696459.1418026215 ; 2.02616098239805E8 ; 4.086774604423756E8 ; 2.0780089684860558E10 ; 0.0
112 ; 3690294.3860122613 ; 2.0263278959628046E8 ; 4.123739195841782E8 ; 2.098270578310036E10 ; 0.0
113 ; 3681852.266345674 ; 2.026494794831559E8 ; 4.1606421397019047E8 ; 2.118533857269664E10 ; 0.0
114 ; 3677437.2653915104 ; 2.0266616667397606E8 ; 4.1974606623653615E8 ; 2.1387988052179794E10 ; 0.0
115 ; 3674264.2302186238 ; 2.0268284996793583E8 ; 4.234235035019277E8 ; 2.159065421885377E10 ; 0.0
116 ; 3667933.8222234254 ; 2.026995281890671E8 ; 4.270977677321463E8 ; 2.179333706882171E10 ; 0.0
117 ; 3663533.6186389066 ; 2.0271620018545458E8 ; 4.3076570155436975E8 ; 2.1996036597010777E10 ; 0.0
118 ; 3659459.842785319 ; 2.0273286482847977E8 ; 4.344292351730087E8 ; 2.219875279719623E10 ; 0.0
119 ; 3651888.1649445407 ; 2.0274952101209193E8 ; 4.38088695015794E8 ; 2.240148566202471E10 ; 0.0
120 ; 3649970.8058866803 ; 2.0276616765210515E8 ; 4.417405831807385E8 ; 2.2604235183036804E10 ; 0.0
121 ; 3641559.502580763 ; 2.0278280368552077E8 ; 4.453905539866252E8 ; 2.2807001350688908E10 ; 0.0
122 ; 3638287.837143214 ; 2.0279942806987384E8 ; 4.4903211348920596E8 ; 2.3009784154374428E10 ; 0.0
123 ; 3630328.9470306975 ; 2.028160397826031E8 ; 4.526704013263492E8 ; 2.32125835824443E10 ; 0.0
124 ; 3627679.088690644 ; 2.028326378204437E8 ; 4.563007302733799E8 ; 2.3415399622226906E10 ; 0.0
125 ; 3619435.7206545398 ; 2.0284922119884112E8 ; 4.5992840936207056E8 ; 2.3618232260047348E10 ; 0.0
126 ; 3615067.7183044483 ; 2.0286578895138666E8 ; 4.635478450827251E8 ; 2.382108148124619E10 ; 0.0
127 ; 3609419.873906814 ; 2.0288234012927267E8 ; 4.6716291280102956E8 ; 2.4023947270197575E10 ; 0.0
128 ; 3604920.146603101 ; 2.028988738007673E8 ; 4.7077233267493635E8 ; 2.4226829610326847E10 ; 0.0
129 ; 3600775.4065112234 ; 2.02915389050708E8 ; 4.7437725282153946E8 ; 2.4429728484127613E10 ; 0.0
130 ; 3593743.5016390756 ; 2.0293188498001304E8 ; 4.779780282280507E8 ; 2.463264387317832E10 ; 0.0
131 ; 3579320.3475961634 ; 2.0294836070521042E8 ; 4.815717717296898E8 ; 2.4835575758158337E10 ; 0.0
132 ; 3573414.0991175235 ; 2.0296481535798323E8 ; 4.8515109207728595E8 ; 2.503852411886355E10 ; 0.0
133 ; 3564790.644713864 ; 2.029812480847315E8 ; 4.8872450617640346E8 ; 2.524148893422153E10 ; 0.0
134 ; 3557783.6732333917 ; 2.0299765804614925E8 ; 4.9228929682111734E8 ; 2.5444470182306263E10 ; 0.0
135 ; 3547995.7984163086 ; 2.0301404441681653E8 ; 4.9584708049435073E8 ; 2.5647467840352413E10 ; 0.0
136 ; 3540619.142734248 ; 2.0303040638480583E8 ; 4.9939507629276705E8 ; 2.585048188476923E10 ; 0.0
137 ; 3533218.799122698 ; 2.0304674315130234E8 ; 5.029356954355013E8 ; 2.6053512291154037E10 ; 0.0
138 ; 3523458.7534483946 ; 2.030630539302375E8 ; 5.0646891423462397E8 ; 2.625655903430534E10 ; 0.0
139 ; 3514675.115308163 ; 2.030793379479354E8 ; 5.0999237298807234E8 ; 2.6459622088235577E10 ; 0.0
140 ; 3507577.7635850436 ; 2.0309559444277146E8 ; 5.135070481033805E8 ; 2.6662701426183514E10 ; 0.0
141 ; 3499263.757369869 ; 2.0311182266484302E8 ; 5.1701462586696553E8 ; 2.6865797020626286E10 ; 0.0
142 ; 3487034.209274886 ; 2.0312802187565148E8 ; 5.205138896243354E8 ; 2.706890884329113E10 ; 0.0
143 ; 3478845.856175799 ; 2.031441913477953E8 ; 5.240009238336103E8 ; 2.7272036865166782E10 ; 0.0
144 ; 3470780.1357590687 ; 2.0316033036467376E8 ; 5.274797696897861E8 ; 2.7475181056514576E10 ; 0.0
145 ; 3465894.2725614402 ; 2.031764382202008E8 ; 5.3095054982554513E8 ; 2.767834138687925E10 ; 0.0
146 ; 3460019.959845165 ; 2.0319251421852884E8 ; 5.3441644409810656E8 ; 2.788151782509945E10 ; 0.0
147 ; 3451786.336392404 ; 2.03208557673782E8 ; 5.378764640579517E8 ; 2.8084710339317978E10 ; 0.0
148 ; 3446027.938110129 ; 2.0322456790979847E8 ; 5.413282503943441E8 ; 2.828791889699176E10 ; 0.0
149 ; 3438058.469360348 ; 2.0324054425988176E8 ; 5.447742783324542E8 ; 2.8491143464901558E10 ; 0.0
150 ; 3431734.586955491 ; 2.0325648606656033E8 ; 5.482123368018146E8 ; 2.8694384009161438E10 ; 0.0
151 ; 3427567.4592897915 ; 2.032723926813553E8 ; 5.516440713887701E8 ; 2.8897640495227997E10 ; 0.0
152 ; 3420497.4220131873 ; 2.0328826346455634E8 ; 5.550716388480599E8 ; 2.910091288790935E10 ; 0.0
153 ; 3413400.3018463375 ; 2.0330409778500482E8 ; 5.58492136270073E8 ; 2.930420115137391E10 ; 0.0
154 ; 3406669.436784657 ; 2.0331989501988438E8 ; 5.619055365719194E8 ; 2.9507505249158913E10 ; 0.0
155 ; 3404387.819279153 ; 2.0333565455451864E8 ; 5.653122060087041E8 ; 2.97108251441788E10 ; 0.0
156 ; 3394078.0419609733 ; 2.0335137578217554E8 ; 5.687165938279833E8 ; 2.991416079873332E10 ; 0.0
157 ; 3389481.533908114 ; 2.0336705810387835E8 ; 5.721106718699442E8 ; 3.0117512174515495E10 ; 0.0
158 ; 3384294.6387016536 ; 2.0338270092822286E8 ; 5.755001534038523E8 ; 3.0320879232619373E10 ; 0.0
159 ; 3376466.2550391727 ; 2.0339830367120072E8 ; 5.78884448042554E8 ; 3.0524261933547596E10 ; 0.0
160 ; 3370032.0385125265 ; 2.0341386575602874E8 ; 5.822609142975932E8 ; 3.0727660237218796E10 ; 0.0
161 ; 3364767.8676925395 ; 2.0342938661298355E8 ; 5.856309463361057E8 ; 3.0931074102974823E10 ; 0.0
162 ; 3360074.346350067 ; 2.034448656792421E8 ; 5.889957142037983E8 ; 3.1134503489587807E10 ; 0.0
163 ; 3352256.7813118612 ; 2.0346030239872703E8 ; 5.923557885501484E8 ; 3.1337948355267048E10 ; 0.0
164 ; 3345455.965255395 ; 2.0347569622195745E8 ; 5.957080453314602E8 ; 3.1541408657665775E10 ; 0.0
165 ; 3339127.93407477 ; 2.0349104660590428E8 ; 5.990535012967156E8 ; 3.1744884353887733E10 ; 0.0
166 ; 3334495.849628131 ; 2.0350635301385066E8 ; 6.023926292307904E8 ; 3.1948375400493637E10 ; 0.0
167 ; 3327327.1921160854 ; 2.0352161491525653E8 ; 6.057271250804185E8 ; 3.215188175350749E10 ; 0.0
168 ; 3320838.3082194203 ; 2.03536831785628E8 ; 6.090544522725346E8 ; 3.2355403368422745E10 ; 0.0
169 ; 3312161.956225766 ; 2.035520031063905E8 ; 6.12375290580754E8 ; 3.2558940200208374E10 ; 0.0
170 ; 3305123.314834588 ; 2.035671283647666E8 ; 6.156874525369798E8 ; 3.2762492203314766E10 ; 0.0
171 ; 3300195.8286063015 ; 2.0358220705365708E8 ; 6.189925758518144E8 ; 3.296605933167953E10 ; 0.0
172 ; 3292738.714452883 ; 2.0359723867152652E8 ; 6.222927716804206E8 ; 3.316964153873319E10 ; 0.0
173 ; 3289637.281988873 ; 2.0361222272229198E8 ; 6.255855103948735E8 ; 3.3373238777404716E10 ; 0.0
174 ; 3281977.037690288 ; 2.0362715871521553E8 ; 6.288751476768624E8 ; 3.357685100012701E10 ; 0.0
175 ; 3277712.1823167987 ; 2.036420461648003E8 ; 6.321571247145526E8 ; 3.3780478158842224E10 ; 0.0
176 ; 3273729.887626646 ; 2.0365688459068945E8 ; 6.354348368968694E8 ; 3.3984120205007023E10 ; 0.0
177 ; 3268809.1482128673 ; 2.036716735175688E8 ; 6.387085667844961E8 ; 3.4187777089597713E10 ; 0.0
178 ; 3262008.376609753 ; 2.036864124750722E8 ; 6.41977375932709E8 ; 3.439144876311528E10 ; 0.0
179 ; 3254534.1448681634 ; 2.0370110099769008E8 ; 6.452393843093188E8 ; 3.4595135175590355E10 ; 0.0
180 ; 3249779.939558462 ; 2.0371573862468076E8 ; 6.484939184541869E8 ; 3.479883627658804E10 ; 0.0
181 ; 3246445.8301578118 ; 2.037303248999846E8 ; 6.517436983937454E8 ; 3.500255201521272E10 ; 0.0
182 ; 3241956.512303362 ; 2.0374485937214094E8 ; 6.549901442239032E8 ; 3.520628234011271E10 ; 0.0
183 ; 3234304.6698444765 ; 2.0375934159420738E8 ; 6.582321007362065E8 ; 3.541002719948485E10 ; 0.0
184 ; 3230798.713687741 ; 2.037737711236819E8 ; 6.61466405406051E8 ; 3.5613786541079056E10 ; 0.0
185 ; 3226620.1534447246 ; 2.0378814752242708E8 ; 6.646972041197388E8 ; 3.5817560312202736E10 ; 0.0
186 ; 3217595.1178495223 ; 2.0380247035659698E8 ; 6.679238242731836E8 ; 3.602134845972517E10 ; 0.0
187 ; 3212434.345165557 ; 2.0381673919656602E8 ; 6.71141419391033E8 ; 3.6225150930081764E10 ; 0.0
188 ; 3210447.8009601315 ; 2.0383095361686024E8 ; 6.743538537361987E8 ; 3.642896766927833E10 ; 0.0
189 ; 3204415.5333049353 ; 2.038451131960906E8 ; 6.775643015371588E8 ; 3.663279862289519E10 ; 0.0
190 ; 3198467.838864353 ; 2.0385921751688838E8 ; 6.807687170704638E8 ; 3.683664373609128E10 ; 0.0
191 ; 3196095.1402527494 ; 2.0387326616584244E8 ; 6.839671849093281E8 ; 3.704050295360817E10 ; 0.0
192 ; 3190737.0014398913 ; 2.0388725873343864E8 ; 6.871632800495808E8 ; 3.724437621977401E10 ; 0.0
193 ; 3184180.869607058 ; 2.0390119481400082E8 ; 6.903540170510207E8 ; 3.744826347850745E10 ; 0.0
194 ; 3180274.3234297987 ; 2.0391507400563386E8 ; 6.935381979206278E8 ; 3.765216467332145E10 ; 0.0
195 ; 3175565.31425036 ; 2.0392889591016826E8 ; 6.967184722440577E8 ; 3.785607974732708E10 ; 0.0
196 ; 3169887.8073679185 ; 2.039426601331066E8 ; 6.99894037558308E8 ; 3.806000864323725E10 ; 0.0
197 ; 3163894.471224099 ; 2.039563662835713E8 ; 7.030639253656759E8 ; 3.826395130337036E10 ; 0.0
198 ; 3158188.012146763 ; 2.0397001397425446E8 ; 7.062278198369E8 ; 3.846790766965393E10 ; 0.0
199 ; 3152751.8321230444 ; 2.0398360282136875E8 ; 7.093860078490467E8 ; 3.867187768362818E10 ; 0.0
200 ; 3147492.985323535 ; 1.7236100581448147E8 ; 7.125387596811697E8 ; 3.887586128644955E10 ; 0.0
