CSV File for the City 1 on Day 154
1 - Minute m 
2 - Power Consumed at minute m 
3 - Power Produced at minute m 
4 - Energy Consumed since the beginning of the day 
5 - Energy Produced since the beginning of the day 
6 - Energy Lost since the beginning of the day on lines starting from the city
 
0 ; 8729099.316832278 ; 1.0554460513949081E8 ; 0.0 ; 0.0 ; 0.0
1 ; 8738157.643423112 ; 1.0569755760932112E8 ; 8729099.316832278 ; 1.0554460513949081E8 ; 0.0
2 ; 8750300.650290478 ; 1.061592916573579E8 ; 1.7467256960255392E7 ; 2.1124216274881193E8 ; 0.0
3 ; 8761180.839388477 ; 1.0692980873353761E8 ; 2.621755761054587E7 ; 3.1740145440616983E8 ; 0.0
4 ; 8774647.864036249 ; 1.0800911013682449E8 ; 3.497873844993435E7 ; 4.2433126313970745E8 ; 0.0
5 ; 8798611.458736263 ; 1.0939719700816172E8 ; 4.3753386313970596E7 ; 5.3234037327653193E8 ; 0.0
6 ; 8828383.4636005 ; 1.1109407032416418E8 ; 5.255199777270686E7 ; 6.417375702846937E8 ; 0.0
7 ; 8873112.487623116 ; 1.1309973089163327E8 ; 6.138038123630736E7 ; 7.528316406088579E8 ; 0.0
8 ; 8945154.34021353 ; 1.15414179342965E8 ; 7.025349372393048E7 ; 8.659313715004911E8 ; 0.0
9 ; 9057262.689986655 ; 1.1803741613251245E8 ; 7.919864806414402E7 ; 9.813455508434561E8 ; 0.0
10 ; 9227012.623479644 ; 1.2096944153395146E8 ; 8.825591075413068E7 ; 1.0993829669759686E9 ; 0.0
11 ; 9507530.749969263 ; 1.2421025563868532E8 ; 9.748292337761033E7 ; 1.2203524085099201E9 ; 0.0
12 ; 9963069.48252475 ; 1.2775985835531071E8 ; 1.0699045412757958E8 ; 1.3445626641486053E9 ; 0.0
13 ; 1.0400507422627686E7 ; 1.3161824941015178E8 ; 1.1695352361010434E8 ; 1.472322522503916E9 ; 0.0
14 ; 1.0443739359460482E7 ; 1.3578542834885556E8 ; 1.2735403103273202E8 ; 1.6039407719140677E9 ; 0.0
15 ; 1.0460433203901561E7 ; 1.402613945390259E8 ; 1.377977703921925E8 ; 1.7397262002629232E9 ; 0.0
16 ; 1.0468006481210897E7 ; 1.4504614717386153E8 ; 1.4825820359609407E8 ; 1.879987594801949E9 ; 0.0
17 ; 1.0483083222608909E7 ; 1.501396852767475E8 ; 1.5872621007730496E8 ; 2.0250337419758105E9 ; 0.0
18 ; 1.0496407499949308E7 ; 1.5554200770674062E8 ; 1.6920929329991388E8 ; 2.175173427252558E9 ; 0.0
19 ; 1.0511859903837418E7 ; 1.6125311316487667E8 ; 1.797057007998632E8 ; 2.330715434959299E9 ; 0.0
20 ; 1.0521488803766293E7 ; 1.6727300020121917E8 ; 1.902175607037006E8 ; 2.4919685481241755E9 ; 0.0
21 ; 1.0537213733322436E7 ; 1.736016672225624E8 ; 2.0073904950746688E8 ; 2.6592415483253946E9 ; 0.0
22 ; 1.0553076121429622E7 ; 1.8023911250069666E8 ; 2.1127626324078932E8 ; 2.832843215547957E9 ; 0.0
23 ; 1.0564581675977087E7 ; 1.8718533418113917E8 ; 2.2182933936221895E8 ; 3.0130823280486536E9 ; 0.0
24 ; 1.0581065633254696E7 ; 1.9444033029223365E8 ; 2.3239392103819603E8 ; 3.2002676622297926E9 ; 0.0
25 ; 1.0592626909835499E7 ; 2.0069213965270612E8 ; 2.4297498667145073E8 ; 3.394707992522026E9 ; 0.0
26 ; 1.060476886148743E7 ; 2.0069430791810918E8 ; 2.5356761358128622E8 ; 3.595400132174732E9 ; 0.0
27 ; 1.0620207005733626E7 ; 2.006966021153606E8 ; 2.6417238244277364E8 ; 3.796094440092841E9 ; 0.0
28 ; 1.063357881935673E7 ; 2.0069901989915004E8 ; 2.7479258944850725E8 ; 3.996791042208202E9 ; 0.0
29 ; 1.064664596749461E7 ; 2.0070155885473794E8 ; 2.85426168267864E8 ; 4.197490062107352E9 ; 0.0
30 ; 1.065897926348114E7 ; 2.0070421650735435E8 ; 2.960728142353586E8 ; 4.39819162096209E9 ; 0.0
31 ; 1.0668106176391883E7 ; 2.00706990331377E8 ; 3.0673179349883974E8 ; 4.598895837469444E9 ; 0.0
32 ; 1.0680977328770896E7 ; 2.0070987775922945E8 ; 3.1739989967523164E8 ; 4.799602827800821E9 ; 0.0
33 ; 1.0695095620382138E7 ; 2.0071287618994975E8 ; 3.280808770040025E8 ; 5.000312705560051E9 ; 0.0
34 ; 1.0702637144164488E7 ; 2.007159829973862E8 ; 3.3877597262438464E8 ; 5.201025581750001E9 ; 0.0
35 ; 1.070932471307413E7 ; 2.0071919553798625E8 ; 3.4947860976854914E8 ; 5.401741564747387E9 ; 0.0
36 ; 1.0727859456785684E7 ; 2.0072251115815172E8 ; 3.601879344816233E8 ; 5.602460760285373E9 ; 0.0
37 ; 1.0732965953535583E7 ; 2.0072592720114017E8 ; 3.70915793938409E8 ; 5.803183271443524E9 ; 0.0
38 ; 1.0739769799429914E7 ; 2.0072944101349995E8 ; 3.816487598919445E8 ; 6.003909198644665E9 ; 0.0
39 ; 1.0752595913354421E7 ; 2.007330499510318E8 ; 3.923885296913744E8 ; 6.204638639658165E9 ; 0.0
40 ; 1.0753381214419411E7 ; 2.0073675138427615E8 ; 4.031411256047288E8 ; 6.405371689609197E9 ; 0.0
41 ; 1.0764712920455081E7 ; 2.0074054270352945E8 ; 4.1389450681914824E8 ; 6.606108440993473E9 ; 0.0
42 ; 1.0770124100150615E7 ; 2.0074442132339796E8 ; 4.2465921973960334E8 ; 6.806848983697002E9 ; 0.0
43 ; 1.0775126008400975E7 ; 2.007483846869006E8 ; 4.35429343839754E8 ; 7.0075934050204E9 ; 0.0
44 ; 1.0775200953181976E7 ; 2.007524302691353E8 ; 4.4620446984815496E8 ; 7.2083417897073E9 ; 0.0
45 ; 1.0783713472418841E7 ; 2.00756555580527E8 ; 4.5697967080133694E8 ; 7.409094219976436E9 ; 0.0
46 ; 1.0783460868665865E7 ; 2.0076075816967568E8 ; 4.677633842737558E8 ; 7.609850775556963E9 ; 0.0
47 ; 1.0786590804237178E7 ; 2.0076503562582582E8 ; 4.7854684514242166E8 ; 7.810611533726639E9 ; 0.0
48 ; 1.0786875887116814E7 ; 2.0076938558097878E8 ; 4.8933343594665885E8 ; 8.011376569352465E9 ; 0.0
49 ; 1.0787165022279998E7 ; 2.0077380571167058E8 ; 5.0012031183377564E8 ; 8.212145954933443E9 ; 0.0
50 ; 1.0787332026911033E7 ; 2.0077829374043804E8 ; 5.109074768560556E8 ; 8.412919760645114E9 ; 0.0
51 ; 1.0787832170994261E7 ; 2.0078284743699548E8 ; 5.2169480888296664E8 ; 8.613698054385551E9 ; 0.0
52 ; 1.07877124636402E7 ; 2.007874646191451E8 ; 5.324826410539609E8 ; 8.814480901822546E9 ; 0.0
53 ; 1.0788894881248204E7 ; 2.0079214315344232E8 ; 5.432703535176011E8 ; 9.01526836644169E9 ; 0.0
54 ; 1.0782678312253904E7 ; 2.0079688095563808E8 ; 5.540592483988494E8 ; 9.216060509595133E9 ; 0.0
55 ; 1.0778955776718501E7 ; 2.008016759909178E8 ; 5.648419267111033E8 ; 9.416857390550772E9 ; 0.0
56 ; 1.0778086387376508E7 ; 2.0080652627395746E8 ; 5.756208824878218E8 ; 9.617659066541689E9 ; 0.0
57 ; 1.077241117122141E7 ; 2.0081142986881483E8 ; 5.863989688751984E8 ; 9.818465592815647E9 ; 0.0
58 ; 1.0775415219966222E7 ; 2.0081638488867363E8 ; 5.971713800464197E8 ; 1.0019277022684462E10 ; 0.0
59 ; 1.0776083253174456E7 ; 2.008213894954572E8 ; 6.079467952663859E8 ; 1.0220093407573135E10 ; 0.0
60 ; 1.0771496653860614E7 ; 2.008264418993271E8 ; 6.187228785195603E8 ; 1.0420914797068592E10 ; 0.0
61 ; 1.0770904657777712E7 ; 2.008315403580809E8 ; 6.294943751734209E8 ; 1.0621741238967918E10 ; 0.0
62 ; 1.076521613805435E7 ; 2.0083668317646262E8 ; 6.402652798311986E8 ; 1.0822572779326E10 ; 0.0
63 ; 1.0763133661147658E7 ; 2.0084186870539823E8 ; 6.51030495969253E8 ; 1.1023409462502462E10 ; 0.0
64 ; 1.0764293161711918E7 ; 2.0084709534116682E8 ; 6.617936296304007E8 ; 1.122425133120786E10 ; 0.0
65 ; 1.075797648149771E7 ; 2.008523615245188E8 ; 6.725579227921126E8 ; 1.1425098426549028E10 ; 0.0
66 ; 1.0753511265354125E7 ; 2.008576657397495E8 ; 6.833158992736104E8 ; 1.1625950788073547E10 ; 0.0
67 ; 1.0753611649212835E7 ; 2.008630065137374E8 ; 6.940694105389645E8 ; 1.1826808453813297E10 ; 0.0
68 ; 1.0749549748236248E7 ; 2.008683824149544E8 ; 7.048230221881773E8 ; 1.2027671460327034E10 ; 0.0
69 ; 1.0743461613645762E7 ; 2.0087379205245504E8 ; 7.155725719364136E8 ; 1.222853984274199E10 ; 0.0
70 ; 1.0740334781643175E7 ; 2.0087923407485104E8 ; 7.263160335500594E8 ; 1.2429413634794445E10 ; 0.0
71 ; 1.0734281209071994E7 ; 2.0088470716927657E8 ; 7.370563683317026E8 ; 1.2630292868869297E10 ; 0.0
72 ; 1.0734462262842443E7 ; 2.008902100603494E8 ; 7.477906495407746E8 ; 1.2831177576038574E10 ; 0.0
73 ; 1.0731963888753682E7 ; 2.008957415091319E8 ; 7.58525111803617E8 ; 1.3032067786098923E10 ; 0.0
74 ; 1.0727550796116581E7 ; 2.0090130031209633E8 ; 7.692570756923707E8 ; 1.3232963527608055E10 ; 0.0
75 ; 1.0720405711186267E7 ; 2.0090688530009693E8 ; 7.799846264884872E8 ; 1.343386482792015E10 ; 0.0
76 ; 1.0719714438181859E7 ; 2.009124953373528E8 ; 7.907050321996735E8 ; 1.3634771713220247E10 ; 0.0
77 ; 1.070986039369793E7 ; 2.0091812932044318E8 ; 8.014247466378554E8 ; 1.38356842085576E10 ; 0.0
78 ; 1.070173240814134E7 ; 2.0092378617731762E8 ; 8.121346070315534E8 ; 1.4036602337878044E10 ; 0.0
79 ; 1.0695457850394187E7 ; 2.009294648663231E8 ; 8.228363394396948E8 ; 1.4237526124055363E10 ; 0.0
80 ; 1.0681226286377467E7 ; 2.0093516437524933E8 ; 8.335317972900889E8 ; 1.4438455588921686E10 ; 0.0
81 ; 1.066749573734322E7 ; 2.0094088372039342E8 ; 8.442130235764663E8 ; 1.4639390753296936E10 ; 0.0
82 ; 1.0662254416441163E7 ; 2.0094662194564557E8 ; 8.548805193138095E8 ; 1.484033163701733E10 ; 0.0
83 ; 1.0649374401084416E7 ; 2.0095237812159568E8 ; 8.655427737302507E8 ; 1.5041278258962976E10 ; 0.0
84 ; 1.0639091402038828E7 ; 2.0095815134466222E8 ; 8.761921481313351E8 ; 1.5242230637084572E10 ; 0.0
85 ; 1.062903057948326E7 ; 2.0096394073624375E8 ; 8.86831239533374E8 ; 1.5443188788429234E10 ; 0.0
86 ; 1.062132857286403E7 ; 2.0096974544189286E8 ; 8.974602701128572E8 ; 1.5644152729165478E10 ; 0.0
87 ; 1.0603322363702882E7 ; 2.0097556463051346E8 ; 9.080815986857213E8 ; 1.584512247460737E10 ; 0.0
88 ; 1.05950628764688E7 ; 2.0098139749358082E8 ; 9.186849210494242E8 ; 1.6046098039237885E10 ; 0.0
89 ; 1.0582448557543106E7 ; 2.0098724324438486E8 ; 9.29279983925893E8 ; 1.6247079436731464E10 ; 0.0
90 ; 1.0571368797549246E7 ; 2.0099310111729622E8 ; 9.398624324834361E8 ; 1.644806667997585E10 ; 0.0
91 ; 1.0560968174225189E7 ; 2.0099897036705497E8 ; 9.504338012809854E8 ; 1.6649059781093145E10 ; 0.0
92 ; 1.0545831486886868E7 ; 2.0100485026808172E8 ; 9.609947694552106E8 ; 1.6850058751460201E10 ; 0.0
93 ; 1.053444441301954E7 ; 2.0101074011381105E8 ; 9.715406009420974E8 ; 1.7051063601728283E10 ; 0.0
94 ; 1.0523422441538395E7 ; 2.010166392160464E8 ; 9.82075045355117E8 ; 1.7252074341842094E10 ; 0.0
95 ; 1.0509986138832172E7 ; 2.0102254690433633E8 ; 9.925984677966554E8 ; 1.745309098105814E10 ; 0.0
96 ; 1.0497684459546445E7 ; 2.010284625253719E8 ; 1.0031084539354876E9 ; 1.7654113527962475E10 ; 0.0
97 ; 1.0487686693976719E7 ; 2.0103438544240415E8 ; 1.0136061383950341E9 ; 1.7855141990487846E10 ; 0.0
98 ; 1.0472101514812743E7 ; 2.0104031503468168E8 ; 1.0240938250890108E9 ; 1.8056176375930252E10 ; 0.0
99 ; 1.0455918157235572E7 ; 2.0104625069690764E8 ; 1.0345659266038235E9 ; 1.8257216690964935E10 ; 0.0
100 ; 1.044216838488935E7 ; 2.010521918387157E8 ; 1.0450218447610592E9 ; 1.8458262941661842E10 ; 0.0
101 ; 1.0432221887817945E7 ; 2.0105813788416427E8 ; 1.0554640131459485E9 ; 1.8659315133500557E10 ; 0.0
102 ; 1.0417129784581188E7 ; 2.010640882712487E8 ; 1.0658962350337665E9 ; 1.886037327138472E10 ; 0.0
103 ; 1.0404740105245348E7 ; 2.010700424514308E8 ; 1.0763133648183477E9 ; 1.9061437359655968E10 ; 0.0
104 ; 1.0391752801962692E7 ; 2.010759998891852E8 ; 1.086718104923593E9 ; 1.92625074021074E10 ; 0.0
105 ; 1.0375876219528427E7 ; 2.0108196006156194E8 ; 1.0971098577255557E9 ; 1.9463583401996586E10 ; 0.0
106 ; 1.0364532216211118E7 ; 2.0108792245776492E8 ; 1.107485733945084E9 ; 1.9664665362058147E10 ; 0.0
107 ; 1.0352446815668361E7 ; 2.0109388657874563E8 ; 1.1178502661612952E9 ; 1.986575328451591E10 ; 0.0
108 ; 1.0333895849991983E7 ; 2.0109985193681142E8 ; 1.1282027129769635E9 ; 2.0066847171094658E10 ; 0.0
109 ; 1.0323198360318465E7 ; 2.011058180552484E8 ; 1.1385366088269556E9 ; 2.0267947023031467E10 ; 0.0
110 ; 1.0304811245008027E7 ; 2.0111178446795776E8 ; 1.148859807187274E9 ; 2.0469052841086716E10 ; 0.0
111 ; 1.028960642859905E7 ; 2.0111775071910563E8 ; 1.159164618432282E9 ; 2.0670164625554672E10 ; 0.0
112 ; 1.0275437352944864E7 ; 2.0112371636278564E8 ; 1.169454224860881E9 ; 2.0871282376273777E10 ; 0.0
113 ; 1.0266255198739503E7 ; 2.01129680962694E8 ; 1.179729662213826E9 ; 2.1072406092636562E10 ; 0.0
114 ; 1.025192553474039E7 ; 2.0113564409181634E8 ; 1.1899959174125655E9 ; 2.1273535773599255E10 ; 0.0
115 ; 1.02349121254745E7 ; 2.0114160533212617E8 ; 1.200247842947306E9 ; 2.147467141769107E10 ; 0.0
116 ; 1.0219341322849311E7 ; 2.011475642742945E8 ; 1.2104827550727804E9 ; 2.1675813023023197E10 ; 0.0
117 ; 1.020347164749763E7 ; 2.011535205174099E8 ; 1.2207020963956296E9 ; 2.1876960587297493E10 ; 0.0
118 ; 1.0186219203357631E7 ; 2.0115947366870922E8 ; 1.2309055680431273E9 ; 2.2078114107814903E10 ; 0.0
119 ; 1.0171889900978278E7 ; 2.011654233433178E8 ; 1.241091787246485E9 ; 2.2279273581483612E10 ; 0.0
120 ; 1.0153156146328473E7 ; 2.0117136916399968E8 ; 1.2512636771474633E9 ; 2.248043900482693E10 ; 0.0
121 ; 1.0137375177726643E7 ; 2.0117731076091653E8 ; 1.2614168332937918E9 ; 2.2681610373990932E10 ; 0.0
122 ; 1.0126234979058333E7 ; 2.0118324777139583E8 ; 1.2715542084715185E9 ; 2.288278768475185E10 ; 0.0
123 ; 1.0105042084283985E7 ; 2.0118917983970731E8 ; 1.2816804434505768E9 ; 2.3083970932523247E10 ; 0.0
124 ; 1.0091159654120738E7 ; 2.0119510661684763E8 ; 1.2917854855348608E9 ; 2.3285160112362953E10 ; 0.0
125 ; 1.0072415407629145E7 ; 2.012010277603331E8 ; 1.3018766451889815E9 ; 2.34863552189798E10 ; 0.0
126 ; 1.005298538578438E7 ; 2.0120694293399966E8 ; 1.3119490605966108E9 ; 2.3687556246740135E10 ; 0.0
127 ; 1.004013977435924E7 ; 2.0121285180781054E8 ; 1.3220020459823952E9 ; 2.3888763189674133E10 ; 0.0
128 ; 1.0022243864454914E7 ; 2.0121875405767062E8 ; 1.3320421857567544E9 ; 2.4089976041481945E10 ; 0.0
129 ; 1.000483660634258E7 ; 2.0122464936524773E8 ; 1.3420644296212094E9 ; 2.4291194795539616E10 ; 0.0
130 ; 9984736.85580109 ; 2.0123053741780028E8 ; 1.352069266227552E9 ; 2.449241944490486E10 ; 0.0
131 ; 9958587.221967958 ; 2.0123641790801138E8 ; 1.362054003083353E9 ; 2.4693649982322662E10 ; 0.0
132 ; 9938947.435400855 ; 2.0124229053382865E8 ; 1.372012590305321E9 ; 2.4894886400230675E10 ; 0.0
133 ; 9915434.413181683 ; 2.0124815499831015E8 ; 1.381951537740722E9 ; 2.5096128690764503E10 ; 0.0
134 ; 9888999.607623227 ; 2.0125401100947556E8 ; 1.3918669721539037E9 ; 2.5297376845762814E10 ; 0.0
135 ; 9865855.46008968 ; 2.0125985828016287E8 ; 1.401755971761527E9 ; 2.549863085677229E10 ; 0.0
136 ; 9840616.769823473 ; 2.012656965278902E8 ; 1.4116218272216167E9 ; 2.5699890715052452E10 ; 0.0
137 ; 9820674.429247517 ; 2.0127152547472256E8 ; 1.4214624439914403E9 ; 2.590115641158034E10 ; 0.0
138 ; 9797311.246826904 ; 2.012773448471433E8 ; 1.431283118420688E9 ; 2.6102427937055065E10 ; 0.0
139 ; 9772065.159540176 ; 2.012831543759302E8 ; 1.4410804296675148E9 ; 2.630370528190221E10 ; 0.0
140 ; 9744557.270082366 ; 2.0128895379603595E8 ; 1.450852494827055E9 ; 2.650498843627814E10 ; 0.0
141 ; 9724961.581599316 ; 2.0129474284647295E8 ; 1.4605970520971375E9 ; 2.6706277390074177E10 ; 0.0
142 ; 9701681.298407944 ; 2.013005212702019E8 ; 1.4703220136787367E9 ; 2.690757213292065E10 ; 0.0
143 ; 9674065.773098007 ; 2.0130628881402472E8 ; 1.4800236949771447E9 ; 2.7108872654190853E10 ; 0.0
144 ; 9650170.461200785 ; 2.013120452284809E8 ; 1.4896977607502427E9 ; 2.731017894300488E10 ; 0.0
145 ; 9634687.403627815 ; 2.013177902677476E8 ; 1.4993479312114434E9 ; 2.751149098823336E10 ; 0.0
146 ; 9616360.583606182 ; 2.013235236895434E8 ; 1.5089826186150713E9 ; 2.7712808778501106E10 ; 0.0
147 ; 9597701.143138546 ; 2.0132924525503504E8 ; 1.5185989791986775E9 ; 2.791413230219065E10 ; 0.0
148 ; 9580832.67893686 ; 2.0133495472874779E8 ; 1.5281966803418162E9 ; 2.8115461547445686E10 ; 0.0
149 ; 9563770.612173967 ; 2.0134065187847868E8 ; 1.5377775130207531E9 ; 2.8316796502174435E10 ; 0.0
150 ; 9545340.202876676 ; 2.0134633647521284E8 ; 1.5473412836329272E9 ; 2.8518137154052914E10 ; 0.0
151 ; 9529406.04626108 ; 2.0135200829304266E8 ; 1.5568866238358037E9 ; 2.8719483490528126E10 ; 0.0
152 ; 9511521.107794052 ; 2.0135766710908985E8 ; 1.5664160298820648E9 ; 2.8920835498821167E10 ; 0.0
153 ; 9488216.021854252 ; 2.0136331270342994E8 ; 1.5759275509898589E9 ; 2.9122193165930256E10 ; 0.0
154 ; 9470317.342879307 ; 2.0136894485901967E8 ; 1.585415767011713E9 ; 2.9323556478633686E10 ; 0.0
155 ; 9454812.13200431 ; 2.0137456336162654E8 ; 1.5948860843545923E9 ; 2.9524925423492706E10 ; 0.0
156 ; 9437237.691575652 ; 2.0138016799976104E8 ; 1.6043408964865966E9 ; 2.9726299986854332E10 ; 0.0
157 ; 9420938.176474262 ; 2.0138575856461096E8 ; 1.6137781341781723E9 ; 2.992768015485409E10 ; 0.0
158 ; 9400588.51226582 ; 2.0139133484997803E8 ; 1.6231990723546467E9 ; 3.01290659134187E10 ; 0.0
159 ; 9381044.099737292 ; 2.0139689665221664E8 ; 1.6325996608669126E9 ; 3.033045724826868E10 ; 0.0
160 ; 9360845.280552292 ; 2.0140244377017474E8 ; 1.64198070496665E9 ; 3.05318541449209E10 ; 0.0
161 ; 9345478.17746933 ; 2.0140797600513658E8 ; 1.6513415502472024E9 ; 3.0733256588691074E10 ; 0.0
162 ; 9327733.35286997 ; 2.0141349316076732E8 ; 1.6606870284246716E9 ; 3.0934664564696213E10 ; 0.0
163 ; 9309638.615077069 ; 2.0141899504305977E8 ; 1.6700147617775416E9 ; 3.113607805785698E10 ; 0.0
164 ; 9289934.319910066 ; 2.0142448146028253E8 ; 1.6793244003926187E9 ; 3.133749705290004E10 ; 0.0
165 ; 9270700.20591968 ; 2.0142995222293016E8 ; 1.6886143347125287E9 ; 3.153892153436032E10 ; 0.0
166 ; 9256237.655988237 ; 2.0143540714367482E8 ; 1.6978850349184484E9 ; 3.1740351486583252E10 ; 0.0
167 ; 9234774.306885486 ; 2.0144084603731948E8 ; 1.7071412725744367E9 ; 3.1941786893726925E10 ; 0.0
168 ; 9216702.98362189 ; 2.0144626872075287E8 ; 1.7163760468813221E9 ; 3.2143227739764244E10 ; 0.0
169 ; 9198445.428839196 ; 2.0145167501290566E8 ; 1.725592749864944E9 ; 3.2344674008484997E10 ; 0.0
170 ; 9181426.285601374 ; 2.0145706473470822E8 ; 1.7347911952937832E9 ; 3.2546125683497902E10 ; 0.0
171 ; 9158155.93011087 ; 2.0146243770904982E8 ; 1.7439726215793846E9 ; 3.274758274823261E10 ; 0.0
172 ; 9142965.35550212 ; 2.0146779376073885E8 ; 1.7531307775094955E9 ; 3.2949045185941658E10 ; 0.0
173 ; 9125068.24831577 ; 2.0147313271646473E8 ; 1.7622737428649976E9 ; 3.3150512979702396E10 ; 0.0
174 ; 9105869.156596143 ; 2.0147845440476075E8 ; 1.7713988111133134E9 ; 3.335198611241886E10 ; 0.0
175 ; 9088354.537578417 ; 2.0148375865596834E8 ; 1.7805046802699096E9 ; 3.3553464566823624E10 ; 0.0
176 ; 9075121.967250222 ; 2.0148904530220217E8 ; 1.789593034807488E9 ; 3.375494832547959E10 ; 0.0
177 ; 9062332.625180205 ; 2.0149431417731673E8 ; 1.798668156774738E9 ; 3.395643737078179E10 ; 0.0
178 ; 9047075.589312296 ; 2.0149956511687383E8 ; 1.8077304893999183E9 ; 3.415793168495911E10 ; 0.0
179 ; 9034021.622277642 ; 2.0150479795811096E8 ; 1.8167775649892306E9 ; 3.4359431250075985E10 ; 0.0
180 ; 9019628.111580197 ; 2.0151001253991097E8 ; 1.8258115866115084E9 ; 3.4560936048034096E10 ; 0.0
181 ; 8998462.690278431 ; 2.0151520870277253E8 ; 1.8348312147230885E9 ; 3.4762446060574005E10 ; 0.0
182 ; 8982358.30607539 ; 2.0152038628878155E8 ; 1.843829677413367E9 ; 3.496396126927678E10 ; 0.0
183 ; 8967197.223257005 ; 2.015255451415835E8 ; 1.8528120357194424E9 ; 3.516548165556556E10 ; 0.0
184 ; 8955896.59421786 ; 2.0153068510635662E8 ; 1.8617792329426994E9 ; 3.5367007200707146E10 ; 0.0
185 ; 8939230.255607039 ; 2.0153580602978602E8 ; 1.8707351295369172E9 ; 3.55685378858135E10 ; 0.0
186 ; 8929361.916962547 ; 2.015409077600385E8 ; 1.8796743597925243E9 ; 3.5770073691843285E10 ; 0.0
187 ; 8909174.211467618 ; 2.015459901467381E8 ; 1.888603721709487E9 ; 3.5971614599603325E10 ; 0.0
188 ; 8897256.405021828 ; 2.0155105304094282E8 ; 1.8975128959209545E9 ; 3.617316058975006E10 ; 0.0
189 ; 8878808.809407577 ; 2.0155609629512137E8 ; 1.9064101523259764E9 ; 3.6374711642791E10 ; 0.0
190 ; 8861299.949895596 ; 2.0156111976313138E8 ; 1.9152889611353838E9 ; 3.657626773908612E10 ; 0.0
191 ; 8849222.579633981 ; 2.0156612330019763E8 ; 1.9241502610852795E9 ; 3.677782885884925E10 ; 0.0
192 ; 8835087.468723025 ; 2.015711067628916E8 ; 1.9329994836649134E9 ; 3.697939498214945E10 ; 0.0
193 ; 8822697.822549285 ; 2.01576070009111E8 ; 1.9418345711336365E9 ; 3.7180966088912346E10 ; 0.0
194 ; 8802062.849222098 ; 2.0158101289806047E8 ; 1.9506572689561858E9 ; 3.7382542158921455E10 ; 0.0
195 ; 8788929.060306994 ; 2.0158593529023257E8 ; 1.959459331805408E9 ; 3.758412317181952E10 ; 0.0
196 ; 8771962.766079905 ; 2.015908370473894E8 ; 1.968248260865715E9 ; 3.778570910710975E10 ; 0.0
197 ; 8758461.78307101 ; 2.0159571803254494E8 ; 1.977020223631795E9 ; 3.7987299944157135E10 ; 0.0
