CSV File for the City 4 on Day 323
1 - Minute m 
2 - Power Consumed at minute m 
3 - Power Produced at minute m 
4 - Energy Consumed since the beginning of the day 
5 - Energy Produced since the beginning of the day 
6 - Energy Lost since the beginning of the day on lines starting from the city
 
0 ; 6881937.476778816 ; 1.0682325138588437E8 ; 0.0 ; 0.0 ; 0.0
1 ; 6888814.32448533 ; 1.0697359699486506E8 ; 6881937.476778816 ; 1.0682325138588437E8 ; 0.0
2 ; 6895302.23275263 ; 1.0743299412703201E8 ; 1.3770751801264146E7 ; 2.1379684838074943E8 ; 0.0
3 ; 6904005.738482406 ; 1.0820144570803124E8 ; 2.0666054034016777E7 ; 3.2122984250778145E8 ; 0.0
4 ; 6912435.129637629 ; 1.0927895434568512E8 ; 2.757005977249918E7 ; 4.294312882158127E8 ; 0.0
5 ; 6928945.032034605 ; 1.1066552232037765E8 ; 3.448249490213681E7 ; 5.387102425614978E8 ; 0.0
6 ; 6942953.427946804 ; 1.1236115157654151E8 ; 4.1411439934171416E7 ; 6.493757648818755E8 ; 0.0
7 ; 6970940.053206747 ; 1.143658437153222E8 ; 4.835439336211822E7 ; 7.61736916458417E8 ; 0.0
8 ; 7000621.294734786 ; 1.1667959998848283E8 ; 5.532533341532497E7 ; 8.761027601737392E8 ; 0.0
9 ; 7051528.821908543 ; 1.1930242129360592E8 ; 6.2325954710059755E7 ; 9.92782360162222E8 ; 0.0
10 ; 7129347.381106719 ; 1.2223430817063338E8 ; 6.93774835319683E7 ; 1.112084781455828E9 ; 0.0
11 ; 7252871.887214812 ; 1.2547526079977879E8 ; 7.650683091307501E7 ; 1.2343190896264613E9 ; 0.0
12 ; 7454283.689756394 ; 1.2902527900082853E8 ; 8.375970280028982E7 ; 1.35979435042624E9 ; 0.0
13 ; 7641053.384856868 ; 1.328843622338407E8 ; 9.121398649004622E7 ; 1.4888196294270685E9 ; 0.0
14 ; 7665667.754675158 ; 1.370525096012329E8 ; 9.885503987490308E7 ; 1.6217039916609092E9 ; 0.0
15 ; 7675577.647731606 ; 1.4152971985124183E8 ; 1.0652070762957825E8 ; 1.7587565012621422E9 ; 0.0
16 ; 7683839.416258661 ; 1.4631599138272217E8 ; 1.1419628527730985E8 ; 1.900286221113384E9 ; 0.0
17 ; 7690534.091277236 ; 1.5141132225124112E8 ; 1.2188012469356851E8 ; 2.0466022124961061E9 ; 0.0
18 ; 7700452.865009463 ; 1.5681571017641473E8 ; 1.2957065878484575E8 ; 2.1980135347473474E9 ; 0.0
19 ; 7711221.9671230875 ; 1.625291525504206E8 ; 1.3727111164985523E8 ; 2.3548292449237623E9 ; 0.0
20 ; 7720126.101334322 ; 1.685516464476128E8 ; 1.4498233361697832E8 ; 2.517358397474183E9 ; 0.0
21 ; 7727318.703496463 ; 1.7488318863515672E8 ; 1.5270245971831265E8 ; 2.685910043921796E9 ; 0.0
22 ; 7738318.748706317 ; 1.8152377558459473E8 ; 1.604297784218091E8 ; 2.8607932325569525E9 ; 0.0
23 ; 7750603.796115694 ; 1.8847340348424786E8 ; 1.6816809717051542E8 ; 3.042317008141547E9 ; 0.0
24 ; 7755639.1890237965 ; 1.9573206825235355E8 ; 1.759187009666311E8 ; 3.230790411625795E9 ; 0.0
25 ; 7769014.149771162 ; 2.019878064490231E8 ; 1.836743401556549E8 ; 3.4265224798781486E9 ; 0.0
26 ; 7775505.475281641 ; 2.019941613274415E8 ; 1.9144335430542606E8 ; 3.628510286327172E9 ; 0.0
27 ; 7782789.485005926 ; 2.0200089737350324E8 ; 1.9921885978070772E8 ; 3.8305044476546135E9 ; 0.0
28 ; 7792115.382995475 ; 2.020080095676418E8 ; 2.0700164926571363E8 ; 4.0325053450281167E9 ; 0.0
29 ; 7803329.684083684 ; 2.0201549269335648E8 ; 2.1479376464870912E8 ; 4.2345133545957584E9 ; 0.0
30 ; 7811164.825945306 ; 2.0202334135262087E8 ; 2.225970943327928E8 ; 4.436528847289115E9 ; 0.0
31 ; 7820844.728837812 ; 2.020315499813248E8 ; 2.304082591587381E8 ; 4.638552188641736E9 ; 0.0
32 ; 7827650.807805596 ; 2.0204011286466137E8 ; 2.3822910388757592E8 ; 4.840583738623061E9 ; 0.0
33 ; 7837387.065858144 ; 2.0204902415237623E8 ; 2.4605675469538152E8 ; 5.042623851487722E9 ; 0.0
34 ; 7845638.889756353 ; 2.020582778738022E8 ; 2.5389414176123968E8 ; 5.244672875640099E9 ; 0.0
35 ; 7853983.86450636 ; 2.0206786795260897E8 ; 2.6173978065099603E8 ; 5.446731153513901E9 ; 0.0
36 ; 7858843.104736901 ; 2.0207778822120437E8 ; 2.695937645155024E8 ; 5.64879902146651E9 ; 0.0
37 ; 7868274.225076425 ; 2.0208803243473104E8 ; 2.774526076202393E8 ; 5.850876809687715E9 ; 0.0
38 ; 7874160.125715939 ; 2.020985942846085E8 ; 2.8532088184531575E8 ; 6.052964842122446E9 ; 0.0
39 ; 7883702.9983924115 ; 2.0210946741157874E8 ; 2.9319504197103167E8 ; 6.255063436407055E9 ; 0.0
40 ; 7886215.575056191 ; 2.021206454182189E8 ; 3.0107874496942407E8 ; 6.457172903818634E9 ; 0.0
41 ; 7897363.007788819 ; 2.0213212188089287E8 ; 3.0896496054448026E8 ; 6.659293549236853E9 ; 0.0
42 ; 7899478.430680504 ; 2.0214389036111838E8 ; 3.168623235522691E8 ; 6.861425671117745E9 ; 0.0
43 ; 7906707.166355256 ; 2.0215594441633356E8 ; 3.247618019829496E8 ; 7.063569561478864E9 ; 0.0
44 ; 7910352.820835765 ; 2.021682776100511E8 ; 3.3266850914930487E8 ; 7.265725505895197E9 ; 0.0
45 ; 7916536.770882064 ; 2.021808835213951E8 ; 3.4057886197014064E8 ; 7.467893783505248E9 ; 0.0
46 ; 7919906.885244038 ; 2.021937557540185E8 ; 3.484953987410227E8 ; 7.670074667026643E9 ; 0.0
47 ; 7923599.18252121 ; 2.0220688794440556E8 ; 3.564153056262667E8 ; 7.872268422780662E9 ; 0.0
48 ; 7929118.093425072 ; 2.0222027376956514E8 ; 3.6433890480878794E8 ; 8.074475310725067E9 ; 0.0
49 ; 7932762.677768267 ; 2.0223390695412648E8 ; 3.7226802290221304E8 ; 8.276695584494633E9 ; 0.0
50 ; 7934437.242305416 ; 2.0224778127685043E8 ; 3.802007855799813E8 ; 8.478929491448759E9 ; 0.0
51 ; 7936913.656095628 ; 2.0226189057657242E8 ; 3.881352228222867E8 ; 8.681177272725609E9 ; 0.0
52 ; 7941829.513857455 ; 2.0227622875759533E8 ; 3.9607213647838235E8 ; 8.883439163302181E9 ; 0.0
53 ; 7943073.594095069 ; 2.0229078979455253E8 ; 4.0401396599223983E8 ; 9.085715392059776E9 ; 0.0
54 ; 7946612.518299252 ; 2.0230556773676232E8 ; 4.119570395863349E8 ; 9.288006181854328E9 ; 0.0
55 ; 7950871.37849947 ; 2.023205567120965E8 ; 4.1990365210463417E8 ; 9.490311749591091E9 ; 0.0
56 ; 7949459.116639053 ; 2.0233575093038642E8 ; 4.278545234831336E8 ; 9.692632306303188E9 ; 0.0
57 ; 7953388.49276816 ; 2.0235114468639025E8 ; 4.358039825997727E8 ; 9.894968057233574E9 ; 0.0
58 ; 7957021.900550601 ; 2.0236673236234593E8 ; 4.4375737109254086E8 ; 1.0097319201919964E10 ; 0.0
59 ; 7960201.549910461 ; 2.0238250843013355E8 ; 4.5171439299309146E8 ; 1.029968593428231E10 ; 0.0
60 ; 7962692.785594319 ; 2.023984674530717E8 ; 4.5967459454300195E8 ; 1.0502068442712444E10 ; 0.0
61 ; 7964088.850031838 ; 2.0241460408737117E8 ; 4.676372873285963E8 ; 1.0704466910165516E10 ; 0.0
62 ; 7967437.923300593 ; 2.0243091308326942E8 ; 4.7560137617862815E8 ; 1.0906881514252888E10 ; 0.0
63 ; 7966572.983955946 ; 2.0244738928586867E8 ; 4.835688141019287E8 ; 1.1109312427336157E10 ; 0.0
64 ; 7970732.673528523 ; 2.0246402763569954E8 ; 4.9153538708588463E8 ; 1.1311759816622026E10 ; 0.0
65 ; 7974292.34137473 ; 2.024808231690315E8 ; 4.995061197594132E8 ; 1.1514223844257727E10 ; 0.0
66 ; 7974394.216278973 ; 2.0249777101795074E8 ; 5.0748041210078794E8 ; 1.1716704667426758E10 ; 0.0
67 ; 7978757.289666078 ; 2.0251486641022485E8 ; 5.154548063170669E8 ; 1.1919202438444708E10 ; 0.0
68 ; 7979756.865923156 ; 2.025321046689735E8 ; 5.2343356360673296E8 ; 1.2121717304854933E10 ; 0.0
69 ; 7979007.166963478 ; 2.025494812121622E8 ; 5.3141332047265613E8 ; 1.2324249409523907E10 ; 0.0
70 ; 7981208.053403812 ; 2.0256699155193663E8 ; 5.393923276396196E8 ; 1.2526798890736069E10 ; 0.0
71 ; 7982590.11067263 ; 2.0258463129381317E8 ; 5.473735356930234E8 ; 1.2729365882288006E10 ; 0.0
72 ; 7982466.554736404 ; 2.026023961357406E8 ; 5.55356125803696E8 ; 1.293195051358182E10 ; 0.0
73 ; 7986572.655809394 ; 2.026202818670472E8 ; 5.633385923584324E8 ; 1.313455290971756E10 ; 0.0
74 ; 7987499.639794649 ; 2.0263828436728597E8 ; 5.713251650142418E8 ; 1.3337173191584606E10 ; 0.0
75 ; 7988575.0142776165 ; 2.0265639960499126E8 ; 5.793126646540365E8 ; 1.3539811475951893E10 ; 0.0
76 ; 7992914.680321994 ; 2.026746236363569E8 ; 5.873012396683141E8 ; 1.3742467875556885E10 ; 0.0
77 ; 7991593.518592864 ; 2.026929526038476E8 ; 5.952941543486362E8 ; 1.3945142499193241E10 ; 0.0
78 ; 7991833.168116626 ; 2.0271138273475292E8 ; 6.03285747867229E8 ; 1.4147835451797089E10 ; 0.0
79 ; 7987855.911888208 ; 2.027299103396929E8 ; 6.112775810353456E8 ; 1.4350546834531841E10 ; 0.0
80 ; 7986795.3400554545 ; 2.0274853181108397E8 ; 6.192654369472338E8 ; 1.4553276744871534E10 ; 0.0
81 ; 7987166.525232309 ; 2.027672436215726E8 ; 6.272522322872893E8 ; 1.475602527668262E10 ; 0.0
82 ; 7986037.458156026 ; 2.0278604232244387E8 ; 6.352393988125216E8 ; 1.4958792520304192E10 ; 0.0
83 ; 7985800.928567236 ; 2.0280492454201132E8 ; 6.432254362706776E8 ; 1.5161578562626635E10 ; 0.0
84 ; 7984590.54235456 ; 2.0282388698399407E8 ; 6.512112371992449E8 ; 1.5364383487168646E10 ; 0.0
85 ; 7979634.911275131 ; 2.028429264258865E8 ; 6.591958277415994E8 ; 1.556720737415264E10 ; 0.0
86 ; 7981909.774462244 ; 2.028620397173252E8 ; 6.671754626528746E8 ; 1.5770050300578526E10 ; 0.0
87 ; 7975405.665616458 ; 2.0288122377845758E8 ; 6.751573724273368E8 ; 1.597291234029585E10 ; 0.0
88 ; 7978308.166225445 ; 2.0290047559831637E8 ; 6.831327780929533E8 ; 1.6175793564074308E10 ; 0.0
89 ; 7975022.351273242 ; 2.0291979223320314E8 ; 6.911110862591788E8 ; 1.6378694039672625E10 ; 0.0
90 ; 7972552.198578818 ; 2.02939170805084E8 ; 6.99086108610452E8 ; 1.6581613831905828E10 ; 0.0
91 ; 7971371.8355064355 ; 2.029586085000007E8 ; 7.070586608090309E8 ; 1.6784553002710913E10 ; 0.0
92 ; 7972162.269088827 ; 2.0297810256649885E8 ; 7.150300326445373E8 ; 1.6987511611210913E10 ; 0.0
93 ; 7966312.8663824005 ; 2.029976503140763E8 ; 7.230021949136262E8 ; 1.7190489713777412E10 ; 0.0
94 ; 7964213.711637306 ; 2.0301724911165282E8 ; 7.309685077800086E8 ; 1.7393487364091488E10 ; 0.0
95 ; 7962257.276829022 ; 2.0303689638606298E8 ; 7.389327214916458E8 ; 1.759650461320314E10 ; 0.0
96 ; 7958098.163930931 ; 2.0305658962057397E8 ; 7.468949787684748E8 ; 1.7799541509589203E10 ; 0.0
97 ; 7959309.566002084 ; 2.030763263534288E8 ; 7.548530769324057E8 ; 1.8002598099209778E10 ; 0.0
98 ; 7956288.926658295 ; 2.0309610417641675E8 ; 7.628123864984078E8 ; 1.8205674425563206E10 ; 0.0
99 ; 7954038.389765886 ; 2.03115920733471E8 ; 7.707686754250661E8 ; 1.8408770529739624E10 ; 0.0
100 ; 7952841.971298837 ; 2.0313577371929502E8 ; 7.78722713814832E8 ; 1.8611886450473095E10 ; 0.0
101 ; 7947857.654300455 ; 2.031556608780174E8 ; 7.866755557861308E8 ; 1.881502222419239E10 ; 0.0
102 ; 7947406.191290082 ; 2.031755800018759E8 ; 7.946234134404312E8 ; 1.9018177885070408E10 ; 0.0
103 ; 7942937.063122095 ; 2.0319552892993113E8 ; 8.025708196317214E8 ; 1.9221353465072285E10 ; 0.0
104 ; 7942232.631268048 ; 2.0321550554680964E8 ; 8.105137566948435E8 ; 1.9424548994002216E10 ; 0.0
105 ; 7936766.663512732 ; 2.032355077814766E8 ; 8.184559893261116E8 ; 1.9627764499549026E10 ; 0.0
106 ; 7934738.559600404 ; 2.032555336060383E8 ; 8.263927559896243E8 ; 1.98310000073305E10 ; 0.0
107 ; 7931208.196366746 ; 2.03275581034574E8 ; 8.343274945492246E8 ; 2.003425554093654E10 ; 0.0
108 ; 7926736.641297806 ; 2.0329564812199703E8 ; 8.422587027455914E8 ; 2.023753112197111E10 ; 0.0
109 ; 7924724.405954518 ; 2.033157329629452E8 ; 8.501854393868892E8 ; 2.044082677009311E10 ; 0.0
110 ; 7922319.917586017 ; 2.033358336906998E8 ; 8.581101637928437E8 ; 2.0644142503056053E10 ; 0.0
111 ; 7917922.948118676 ; 2.0335594847613314E8 ; 8.660324837104297E8 ; 2.0847478336746754E10 ; 0.0
112 ; 7915434.068512084 ; 2.033760755266842E8 ; 8.739504066585484E8 ; 2.1050834285222885E10 ; 0.0
113 ; 7911144.671724707 ; 2.033962130853618E8 ; 8.818658407270604E8 ; 2.125421036074957E10 ; 0.0
114 ; 7905989.323948373 ; 2.034163594297753E8 ; 8.897769853987851E8 ; 2.145760657383493E10 ; 0.0
115 ; 7906331.88012397 ; 2.034365128711915E8 ; 8.976829747227335E8 ; 2.1661022933264706E10 ; 0.0
116 ; 7900345.665287588 ; 2.0345667175361854E8 ; 9.055893066028575E8 ; 2.18644594461359E10 ; 0.0
117 ; 7895716.225086472 ; 2.0347683445291486E8 ; 9.134896522681451E8 ; 2.206791611788952E10 ; 0.0
118 ; 7893501.412470175 ; 2.0349699937592387E8 ; 9.213853684932315E8 ; 2.2271392952342434E10 ; 0.0
119 ; 7889707.188179072 ; 2.03517164959633E8 ; 9.292788699057018E8 ; 2.2474889951718357E10 ; 0.0
120 ; 7887061.198842653 ; 2.0353732967035714E8 ; 9.371685770938808E8 ; 2.267840711667799E10 ; 0.0
121 ; 7883218.188086593 ; 2.035574920029456E8 ; 9.450556382927234E8 ; 2.2881944446348347E10 ; 0.0
122 ; 7881528.480312494 ; 2.03577650480012E8 ; 9.5293885648081E8 ; 2.308550193835129E10 ; 0.0
123 ; 7876373.251582757 ; 2.0359780365118685E8 ; 9.608203849611225E8 ; 2.3289079588831303E10 ; 0.0
124 ; 7871850.384840144 ; 2.03617950092392E8 ; 9.686967582127053E8 ; 2.349267739248249E10 ; 0.0
125 ; 7868154.429072119 ; 2.0363808840513653E8 ; 9.765686085975454E8 ; 2.3696295342574883E10 ; 0.0
126 ; 7863798.670958637 ; 2.0365821721583328E8 ; 9.844367630266175E8 ; 2.389993343098002E10 ; 0.0
127 ; 7858828.757823239 ; 2.036783351751361E8 ; 9.923005616975762E8 ; 2.410359164819585E10 ; 0.0
128 ; 7854136.100949131 ; 2.0369844095729634E8 ; 1.0001593904553994E9 ; 2.4307269983370987E10 ; 0.0
129 ; 7850632.105181101 ; 2.037185332595391E8 ; 1.0080135265563486E9 ; 2.451096842432828E10 ; 0.0
130 ; 7845147.297045019 ; 2.0373861080145767E8 ; 1.0158641586615297E9 ; 2.4714686957587822E10 ; 0.0
131 ; 7835965.2640285175 ; 2.037586723244267E8 ; 1.0237093059585747E9 ; 2.491842556838928E10 ; 0.0
132 ; 7831059.116849372 ; 2.0377871659103248E8 ; 1.0315452712226032E9 ; 2.5122184240713707E10 ; 0.0
133 ; 7822533.040435729 ; 2.037987423845209E8 ; 1.0393763303394526E9 ; 2.532596295730474E10 ; 0.0
134 ; 7817935.985758689 ; 2.038187485082617E8 ; 1.0471988633798883E9 ; 2.5529761699689262E10 ; 0.0
135 ; 7809520.946269299 ; 2.0383873378522933E8 ; 1.055016799365647E9 ; 2.5733580448197525E10 ; 0.0
136 ; 7801401.720768682 ; 2.03858697057499E8 ; 1.0628263203119162E9 ; 2.5937419181982754E10 ; 0.0
137 ; 7794059.007406325 ; 2.038786371857586E8 ; 1.0706277220326849E9 ; 2.6141277879040253E10 ; 0.0
138 ; 7786436.971649821 ; 2.03898553048835E8 ; 1.0784217810400913E9 ; 2.6345156516226013E10 ; 0.0
139 ; 7777880.173474343 ; 2.0391844354323497E8 ; 1.0862082180117412E9 ; 2.654905506927485E10 ; 0.0
140 ; 7772725.759202323 ; 2.039383075826999E8 ; 1.0939860981852155E9 ; 2.6752973512818085E10 ; 0.0
141 ; 7763572.370318882 ; 2.0395814409777415E8 ; 1.1017588239444177E9 ; 2.6956911820400784E10 ; 0.0
142 ; 7758163.49497728 ; 2.039779520353865E8 ; 1.1095223963147366E9 ; 2.7160869964498558E10 ; 0.0
143 ; 7747367.433862697 ; 2.0399773035844427E8 ; 1.1172805598097138E9 ; 2.7364847916533943E10 ; 0.0
144 ; 7743222.743708746 ; 2.040174780454399E8 ; 1.1250279272435765E9 ; 2.7568845646892387E10 ; 0.0
145 ; 7738213.521062554 ; 2.0403719409006932E8 ; 1.1327711499872854E9 ; 2.7772863124937828E10 ; 0.0
146 ; 7729503.802557543 ; 2.0405687750086212E8 ; 1.140509363508348E9 ; 2.7976900319027897E10 ; 0.0
147 ; 7726953.95818033 ; 2.0407652730082273E8 ; 1.1482388673109055E9 ; 2.818095719652876E10 ; 0.0
148 ; 7721229.51088458 ; 2.0409614252708265E8 ; 1.155965821269086E9 ; 2.8385033723829582E10 ; 0.0
149 ; 7714850.423823953 ; 2.041157222305632E8 ; 1.1636870507799704E9 ; 2.8589129866356667E10 ; 0.0
150 ; 7714248.109252965 ; 2.0413526547564837E8 ; 1.1714019012037945E9 ; 2.879324558858723E10 ; 0.0
151 ; 7704330.156251246 ; 2.041547713398679E8 ; 1.1791161493130474E9 ; 2.8997380854062878E10 ; 0.0
152 ; 7698701.513668904 ; 2.0417423891358945E8 ; 1.1868204794692986E9 ; 2.9201535625402744E10 ; 0.0
153 ; 7696509.308535174 ; 2.0419366729972067E8 ; 1.1945191809829676E9 ; 2.9405709864316334E10 ; 0.0
154 ; 7693439.960913674 ; 2.0421305561341974E8 ; 1.2022156902915027E9 ; 2.9609903531616055E10 ; 0.0
155 ; 7686559.64590984 ; 2.0423240298181498E8 ; 1.2099091302524164E9 ; 2.9814116587229473E10 ; 0.0
156 ; 7682117.310529142 ; 2.0425170854373273E8 ; 1.2175956898983262E9 ; 3.001834899021129E10 ; 0.0
157 ; 7675757.330650187 ; 2.0427097144943362E8 ; 1.2252778072088554E9 ; 3.022260069875502E10 ; 0.0
158 ; 7669490.270220451 ; 2.0429019086035654E8 ; 1.2329535645395055E9 ; 3.0426871670204453E10 ; 0.0
159 ; 7666279.302788924 ; 2.043093659488704E8 ; 1.240623054809726E9 ; 3.0631161861064808E10 ; 0.0
160 ; 7657893.888346797 ; 2.0432849589803344E8 ; 1.248289334112515E9 ; 3.083547122701368E10 ; 0.0
161 ; 7653906.074652399 ; 2.0434757990135953E8 ; 1.255947228000862E9 ; 3.1039799722911713E10 ; 0.0
162 ; 7650059.583575023 ; 2.0436661716259167E8 ; 1.2636011340755143E9 ; 3.1244147302813072E10 ; 0.0
163 ; 7644639.508428397 ; 2.0438560689548215E8 ; 1.2712511936590893E9 ; 3.1448513919975662E10 ; 0.0
164 ; 7637430.063218035 ; 2.0440454832357925E8 ; 1.2788958331675177E9 ; 3.1652899526871143E10 ; 0.0
165 ; 7633256.865632211 ; 2.0442344068002024E8 ; 1.2865332632307358E9 ; 3.185730407519472E10 ; 0.0
166 ; 7629577.476581362 ; 2.0444228320733085E8 ; 1.294166520096368E9 ; 3.206172751587474E10 ; 0.0
167 ; 7624360.140839879 ; 2.044610751572302E8 ; 1.3017960975729494E9 ; 3.2266169799082073E10 ; 0.0
168 ; 7619530.355564514 ; 2.0447981579044187E8 ; 1.3094204577137892E9 ; 3.2470630874239304E10 ; 0.0
169 ; 7613544.948269585 ; 2.044985043765105E8 ; 1.3170399880693538E9 ; 3.2675110690029747E10 ; 0.0
170 ; 7606287.085695262 ; 2.045171401936237E8 ; 1.3246535330176234E9 ; 3.2879609194406258E10 ; 0.0
171 ; 7598311.049244561 ; 2.045357225284392E8 ; 1.3322598201033187E9 ; 3.308412633459988E10 ; 0.0
172 ; 7596622.107613014 ; 2.0455425067591733E8 ; 1.3398581311525633E9 ; 3.328866205712832E10 ; 0.0
173 ; 7592589.293266289 ; 2.045727239391581E8 ; 1.3474547532601764E9 ; 3.3493216307804237E10 ; 0.0
174 ; 7576245.134812247 ; 2.0459114162924334E8 ; 1.3550473425534427E9 ; 3.3697789031743397E10 ; 0.0
175 ; 7565538.00434174 ; 2.0460950306508318E8 ; 1.362623587688255E9 ; 3.390238017337264E10 ; 0.0
176 ; 7548163.099627557 ; 2.0462780757326725E8 ; 1.370189125692597E9 ; 3.410698967643772E10 ; 0.0
177 ; 7536331.318738422 ; 2.0464605448792022E8 ; 1.3777372887922244E9 ; 3.431161748401099E10 ; 0.0
178 ; 7523068.114823769 ; 2.0466424315056127E8 ; 1.3852736201109629E9 ; 3.451626353849891E10 ; 0.0
179 ; 7506836.499958475 ; 2.0468237290996802E8 ; 1.3927966882257867E9 ; 3.472092778164947E10 ; 0.0
180 ; 7493549.88325556 ; 2.047E8 ; 1.4003035247257452E9 ; 3.492561015455943E10 ; 0.0
181 ; 7480911.32660395 ; 2.047E8 ; 1.4077970746090007E9 ; 3.513031015455943E10 ; 0.0
182 ; 7465735.007203276 ; 2.047E8 ; 1.4152779859356046E9 ; 3.533501015455943E10 ; 0.0
183 ; 7451208.372188318 ; 2.047E8 ; 1.422743720942808E9 ; 3.553971015455943E10 ; 0.0
184 ; 7439983.034775401 ; 2.047E8 ; 1.4301949293149962E9 ; 3.574441015455943E10 ; 0.0
185 ; 7424944.392339901 ; 2.047E8 ; 1.4376349123497717E9 ; 3.594911015455943E10 ; 0.0
186 ; 7409694.010942829 ; 2.047E8 ; 1.4450598567421117E9 ; 3.615381015455943E10 ; 0.0
187 ; 7394280.643519874 ; 2.047E8 ; 1.4524695507530546E9 ; 3.635851015455943E10 ; 0.0
188 ; 7382325.778894619 ; 2.047E8 ; 1.4598638313965745E9 ; 3.656321015455943E10 ; 0.0
189 ; 7365083.664372366 ; 2.047E8 ; 1.4672461571754692E9 ; 3.676791015455943E10 ; 0.0
190 ; 7356224.304768815 ; 2.047E8 ; 1.4746112408398416E9 ; 3.697261015455943E10 ; 0.0
191 ; 7340930.232429573 ; 2.047E8 ; 1.4819674651446104E9 ; 3.717731015455943E10 ; 0.0
192 ; 7327713.897890727 ; 2.047E8 ; 1.48930839537704E9 ; 3.738201015455943E10 ; 0.0
193 ; 7312736.299360136 ; 2.047E8 ; 1.4966361092749307E9 ; 3.758671015455943E10 ; 0.0
194 ; 7296607.16610218 ; 2.047E8 ; 1.5039488455742908E9 ; 3.779141015455943E10 ; 0.0
195 ; 7284711.742445603 ; 2.047E8 ; 1.511245452740393E9 ; 3.799611015455943E10 ; 0.0
196 ; 7270681.149268569 ; 2.047E8 ; 1.5185301644828386E9 ; 3.820081015455943E10 ; 0.0
197 ; 7254638.270685498 ; 2.047E8 ; 1.5258008456321073E9 ; 3.840551015455943E10 ; 0.0
198 ; 7239641.106488937 ; 2.047E8 ; 1.5330554839027927E9 ; 3.861021015455943E10 ; 0.0
199 ; 7226448.826359621 ; 1.78860171261813E8 ; 1.5402951250092816E9 ; 3.881491015455943E10 ; 0.0
200 ; 7212171.166948029 ; 1.5620807492166224E8 ; 1.5475215738356411E9 ; 3.899377032582124E10 ; 0.0
201 ; 7198763.86360879 ; 1.5586000678114402E8 ; 1.5547337450025892E9 ; 3.9149978400742905E10 ; 0.0
202 ; 7189693.2765478 ; 1.555127382774142E8 ; 1.561932508866198E9 ; 3.930583840752405E10 ; 0.0
203 ; 7172569.982759331 ; 1.5516626757342157E8 ; 1.569122202142746E9 ; 3.946135114580146E10 ; 0.0
