CSV File for the City 6 on Day 331
1 - Minute m 
2 - Power Consumed at minute m 
3 - Power Produced at minute m 
4 - Energy Consumed since the beginning of the day 
5 - Energy Produced since the beginning of the day 
6 - Energy Lost since the beginning of the day on lines starting from the city
 
0 ; 1.1225673786649937E7 ; 1.0655781610984227E8 ; 0.0 ; 0.0 ; 0.0
1 ; 1.1240910742236441E7 ; 1.0670860796415842E8 ; 1.1225673786649937E7 ; 1.0655781610984227E8 ; 0.0
2 ; 1.1250905981060838E7 ; 1.0716840496083882E8 ; 2.2466584528886378E7 ; 2.132664240740007E8 ; 0.0
3 ; 1.1265340221632408E7 ; 1.0793720982868159E8 ; 3.371749050994722E7 ; 3.204348290348395E8 ; 0.0
4 ; 1.1281313206293784E7 ; 1.0901502500144815E8 ; 4.4982830731579624E7 ; 4.283720388635211E8 ; 0.0
5 ; 1.1303064016880827E7 ; 1.1040185260839927E8 ; 5.626414393787341E7 ; 5.373870638649693E8 ; 0.0
6 ; 1.1329729309141679E7 ; 1.1209769446590546E8 ; 6.756720795475423E7 ; 6.477889164733685E8 ; 0.0
7 ; 1.1364922919953221E7 ; 1.1410255207020986E8 ; 7.889693726389591E7 ; 7.59886610939274E8 ; 0.0
8 ; 1.14207293347299E7 ; 1.1641642659140986E8 ; 9.026186018384914E7 ; 8.739891630094838E8 ; 0.0
9 ; 1.1500411384331912E7 ; 1.19039318868716E8 ; 1.0168258951857904E8 ; 9.904055896008937E8 ; 0.0
10 ; 1.1626241424108358E7 ; 1.219712294070319E8 ; 1.1318300090291095E8 ; 1.1094449084696097E9 ; 0.0
11 ; 1.1824105856892454E7 ; 1.2521215837488887E8 ; 1.248092423270193E8 ; 1.2314161378766418E9 ; 0.0
12 ; 1.2140010725789843E7 ; 1.2876210560375556E8 ; 1.3663334818391177E8 ; 1.3566282962515306E9 ; 0.0
13 ; 1.2441170032584582E7 ; 1.3262107058872837E8 ; 1.4877335890970162E8 ; 1.4853904018552861E9 ; 0.0
14 ; 1.2483524938503087E7 ; 1.3678905249059683E8 ; 1.612145289422862E8 ; 1.6180114724440145E9 ; 0.0
15 ; 1.249514606274088E7 ; 1.4126605013926345E8 ; 1.7369805388078928E8 ; 1.7548005249346113E9 ; 0.0
16 ; 1.2511011903278276E7 ; 1.460520620384852E8 ; 1.8619319994353017E8 ; 1.8960665750738747E9 ; 0.0
17 ; 1.2524558166422138E7 ; 1.5114708637189147E8 ; 1.9870421184680843E8 ; 2.04211863711236E9 ; 0.0
18 ; 1.2539572345766246E7 ; 1.5655112101022154E8 ; 2.1122877001323056E8 ; 2.1932657234842515E9 ; 0.0
19 ; 1.255294751043583E7 ; 1.6226416351971397E8 ; 2.237683423589968E8 ; 2.349816844494473E9 ; 0.0
20 ; 1.2569225653763603E7 ; 1.6828621117157063E8 ; 2.3632128986943263E8 ; 2.512081008014187E9 ; 0.0
21 ; 1.258610743184758E7 ; 1.746172609524108E8 ; 2.4889051552319622E8 ; 2.6803672191857576E9 ; 0.0
22 ; 1.2600152218581533E7 ; 1.812573095756225E8 ; 2.614766229550438E8 ; 2.8549844801381683E9 ; 0.0
23 ; 1.261630908816555E7 ; 1.8820635349351317E8 ; 2.7407677517362535E8 ; 3.036241789713791E9 ; 0.0
24 ; 1.2629153345824085E7 ; 1.9546438891015893E8 ; 2.866930842617909E8 ; 3.224448143207304E9 ; 0.0
25 ; 1.2643845402397426E7 ; 2.0171945269303054E8 ; 2.9932223760761493E8 ; 3.419912532117463E9 ; 0.0
26 ; 1.265919828152141E7 ; 2.0172508842381996E8 ; 3.119660830100124E8 ; 3.6216319848104935E9 ; 0.0
27 ; 1.2676068136038428E7 ; 2.0173106093765756E8 ; 3.246252812915338E8 ; 3.8233570732343135E9 ; 0.0
28 ; 1.26907537457771E7 ; 2.0173736558447748E8 ; 3.3730134942757225E8 ; 4.025088134171971E9 ; 0.0
29 ; 1.2698405912854735E7 ; 2.0174399753703392E8 ; 3.499921031733494E8 ; 4.2268254997564483E9 ; 0.0
30 ; 1.2714870682015581E7 ; 2.0175095180575353E8 ; 3.626905090862041E8 ; 4.428569497293482E9 ; 0.0
31 ; 1.2734810876180513E7 ; 2.0175822325357586E8 ; 3.754053797682197E8 ; 4.630320449099236E9 ; 0.0
32 ; 1.2742379574733526E7 ; 2.0176580661069503E8 ; 3.8814019064440024E8 ; 4.832078672352812E9 ; 0.0
33 ; 1.2758196402713394E7 ; 2.0177369648912182E8 ; 4.0088257021913373E8 ; 5.033844478963507E9 ; 0.0
34 ; 1.2766961948394448E7 ; 2.0178188739699158E8 ; 4.1364076662184715E8 ; 5.235618175452628E9 ; 0.0
35 ; 1.2783027815665258E7 ; 2.017903737525507E8 ; 4.264077285702416E8 ; 5.43740006284962E9 ; 0.0
36 ; 1.279722986444787E7 ; 2.017991498977617E8 ; 4.391907563859068E8 ; 5.639190436602171E9 ; 0.0
37 ; 1.280977346482555E7 ; 2.018082101114741E8 ; 4.519879862503547E8 ; 5.840989586499932E9 ; 0.0
38 ; 1.2816981076595116E7 ; 2.0181754862211528E8 ; 4.647977597151803E8 ; 6.042797796611406E9 ; 0.0
39 ; 1.2829515403998397E7 ; 2.0182715961986393E8 ; 4.776147407917754E8 ; 6.244615345233521E9 ; 0.0
40 ; 1.283642423050078E7 ; 2.018370372682739E8 ; 4.904442561957738E8 ; 6.446442504853385E9 ; 0.0
41 ; 1.2849238484827338E7 ; 2.0184717571532452E8 ; 5.0328068042627454E8 ; 6.648279542121659E9 ; 0.0
42 ; 1.2857170184946943E7 ; 2.0185756910387915E8 ; 5.161299189111019E8 ; 6.850126717836984E9 ; 0.0
43 ; 1.286858419719777E7 ; 2.018682115815394E8 ; 5.2898708909604883E8 ; 7.051984286940863E9 ; 0.0
44 ; 1.2877308362897016E7 ; 2.018790973098886E8 ; 5.418556732932466E8 ; 7.253852498522402E9 ; 0.0
45 ; 1.2887436451089328E7 ; 2.01890220473123E8 ; 5.547329816561437E8 ; 7.455731595832291E9 ; 0.0
46 ; 1.2891986478617592E7 ; 2.0190157528607324E8 ; 5.67620418107233E8 ; 7.657621816305413E9 ; 0.0
47 ; 1.2897872579548774E7 ; 2.019131560016233E8 ; 5.805124045858506E8 ; 7.859523391591487E9 ; 0.0
48 ; 1.2906280122163724E7 ; 2.0192495691753772E8 ; 5.934102771653993E8 ; 8.06143654759311E9 ; 0.0
49 ; 1.2912399720756467E7 ; 2.019369723827105E8 ; 6.063165572875631E8 ; 8.263361504510648E9 ; 0.0
50 ; 1.29137653905911E7 ; 2.0194919680285236E8 ; 6.192289570083195E8 ; 8.465298476893358E9 ; 0.0
51 ; 1.2920938331878964E7 ; 2.0196162464563525E8 ; 6.321427223989106E8 ; 8.66724767369621E9 ; 0.0
52 ; 1.292536565733447E7 ; 2.019742504453138E8 ; 6.450636607307897E8 ; 8.869209298341846E9 ; 0.0
53 ; 1.2926276755649026E7 ; 2.0198706880684692E8 ; 6.579890263881241E8 ; 9.07118354878716E9 ; 0.0
54 ; 1.2932524589155354E7 ; 2.0200007440954146E8 ; 6.709153031437731E8 ; 9.273170617594007E9 ; 0.0
55 ; 1.2936871202758772E7 ; 2.020132620102428E8 ; 6.838478277329284E8 ; 9.47517069200355E9 ; 0.0
56 ; 1.2941940930402506E7 ; 2.0202662644609573E8 ; 6.967846989356872E8 ; 9.677183954013792E9 ; 0.0
57 ; 1.2943306529501956E7 ; 2.0204016263690123E8 ; 7.097266398660897E8 ; 9.879210580459888E9 ; 0.0
58 ; 1.2948927871477881E7 ; 2.0205386558709303E8 ; 7.226699463955916E8 ; 1.008125074309679E10 ; 0.0
59 ; 1.2951078392930446E7 ; 2.0206773038735852E8 ; 7.356188742670695E8 ; 1.0283304608683884E10 ; 0.0
60 ; 1.2954608810149666E7 ; 2.0208175221592838E8 ; 7.485699526599998E8 ; 1.0485372339071241E10 ; 0.0
61 ; 1.2959100029870758E7 ; 2.020959263395579E8 ; 7.615245614701495E8 ; 1.068745409128717E10 ; 0.0
62 ; 1.2965536285276681E7 ; 2.0211024811422342E8 ; 7.744836615000203E8 ; 1.0889550017626728E10 ; 0.0
63 ; 1.296678610694566E7 ; 2.0212471298555562E8 ; 7.874491977852969E8 ; 1.1091660265740952E10 ; 0.0
64 ; 1.2969056147950467E7 ; 2.021393164890313E8 ; 8.004159838922426E8 ; 1.1293784978726507E10 ; 0.0
65 ; 1.2973753526545884E7 ; 2.0215405424994385E8 ; 8.13385040040193E8 ; 1.1495924295215538E10 ; 0.0
66 ; 1.297685950603708E7 ; 2.021689219831721E8 ; 8.263587935667388E8 ; 1.1698078349465483E10 ; 0.0
67 ; 1.2975372759549953E7 ; 2.0218391549276602E8 ; 8.39335653072776E8 ; 1.1900247271448654E10 ; 0.0
68 ; 1.297979260020454E7 ; 2.021990306713671E8 ; 8.523110258323259E8 ; 1.210243118694142E10 ; 0.0
69 ; 1.2983637176789552E7 ; 2.0221426349947968E8 ; 8.652908184325305E8 ; 1.2304630217612787E10 ; 0.0
70 ; 1.2986375485020824E7 ; 2.02229610044609E8 ; 8.7827445560932E8 ; 1.2506844481112267E10 ; 0.0
71 ; 1.2987865792547721E7 ; 2.0224506646028095E8 ; 8.912608310943409E8 ; 1.2709074091156876E10 ; 0.0
72 ; 1.2993358682225704E7 ; 2.022606289849567E8 ; 9.042486968868886E8 ; 1.2911319157617157E10 ; 0.0
73 ; 1.2989968299326053E7 ; 2.022762939408555E8 ; 9.172420555691143E8 ; 1.3113579786602114E10 ; 0.0
74 ; 1.2992079195637567E7 ; 2.0229205773269716E8 ; 9.302320238684404E8 ; 1.3315856080542969E10 ; 0.0
75 ; 1.2997212767437806E7 ; 2.0230791684637576E8 ; 9.43224103064078E8 ; 1.3518148138275665E10 ; 0.0
76 ; 1.2998305827190246E7 ; 2.023238678475741E8 ; 9.562213158315158E8 ; 1.3720456055122042E10 ; 0.0
77 ; 1.299815553485911E7 ; 2.02339907380329E8 ; 9.692196216587061E8 ; 1.3922779922969616E10 ; 0.0
78 ; 1.2999002500333676E7 ; 2.023560321655556E8 ; 9.822177771935651E8 ; 1.4125119830349945E10 ; 0.0
79 ; 1.2994384059903989E7 ; 2.0237223899953893E8 ; 9.952167796938988E8 ; 1.4327475862515501E10 ; 0.0
80 ; 1.2993983594338648E7 ; 2.023885247523998E8 ; 1.0082111637538028E9 ; 1.452984810151504E10 ; 0.0
81 ; 1.299164037968491E7 ; 2.0240488636654183E8 ; 1.0212051473481414E9 ; 1.4732236626267439E10 ; 0.0
82 ; 1.2989704127155675E7 ; 2.0242132085508522E8 ; 1.0341967877278264E9 ; 1.493464151263398E10 ; 0.0
83 ; 1.2985172084308123E7 ; 2.024378253002935E8 ; 1.047186491854982E9 ; 1.5137062833489065E10 ; 0.0
84 ; 1.2982579211797722E7 ; 2.0245439685199723E8 ; 1.0601716639392902E9 ; 1.5339500658789358E10 ; 0.0
85 ; 1.2980315372939859E7 ; 2.0247103272601983E8 ; 1.0731542431510879E9 ; 1.5541955055641356E10 ; 0.0
86 ; 1.2974910116289193E7 ; 2.0248773020260918E8 ; 1.0861345585240278E9 ; 1.5744426088367374E10 ; 0.0
87 ; 1.2975984230013462E7 ; 2.0250448662487864E8 ; 1.099109468640317E9 ; 1.5946913818569984E10 ; 0.0
88 ; 1.2971205592369935E7 ; 2.025212993972605E8 ; 1.1120854528703303E9 ; 1.6149418305194862E10 ; 0.0
89 ; 1.2971503185962744E7 ; 2.0253816598397484E8 ; 1.1250566584627004E9 ; 1.6351939604592123E10 ; 0.0
90 ; 1.2962458879537076E7 ; 2.0255508390751633E8 ; 1.138028161648663E9 ; 1.6554477770576097E10 ; 0.0
91 ; 1.2962057604881393E7 ; 2.0257205074716067E8 ; 1.1509906205282001E9 ; 1.6757032854483614E10 ; 0.0
92 ; 1.2957428819474675E7 ; 2.025890641374931E8 ; 1.1639526781330814E9 ; 1.6959604905230774E10 ; 0.0
93 ; 1.2954349969395196E7 ; 2.0260612176696017E8 ; 1.1769101069525561E9 ; 1.7162193969368267E10 ; 0.0
94 ; 1.2951724198134506E7 ; 2.0262322137644643E8 ; 1.1898644569219513E9 ; 1.7364800091135227E10 ; 0.0
95 ; 1.294697424805611E7 ; 2.026403607578768E8 ; 1.2028161811200857E9 ; 1.7567423312511673E10 ; 0.0
96 ; 1.2945796860770537E7 ; 2.0265753775284627E8 ; 1.215763155368142E9 ; 1.777006367326955E10 ; 0.0
97 ; 1.2939632592816968E7 ; 2.0267475025127673E8 ; 1.2287089522289124E9 ; 1.7972721211022396E10 ; 0.0
98 ; 1.2932650078555217E7 ; 2.026919961901024E8 ; 1.2416485848217294E9 ; 1.8175395961273674E10 ; 0.0
99 ; 1.2928795701687794E7 ; 2.0270927355198392E8 ; 1.2545812349002845E9 ; 1.8378087957463776E10 ; 0.0
100 ; 1.2925885941119518E7 ; 2.0272658036405155E8 ; 1.2675100306019723E9 ; 1.858079723101576E10 ; 0.0
101 ; 1.2921073833744187E7 ; 2.0274391469667742E8 ; 1.2804359165430918E9 ; 1.878352381137981E10 ; 0.0
102 ; 1.291766438398896E7 ; 2.0276127466227743E8 ; 1.293356990376836E9 ; 1.898626772607649E10 ; 0.0
103 ; 1.2909731710361874E7 ; 2.0277865841414246E8 ; 1.306274654760825E9 ; 1.9189029000738766E10 ; 0.0
104 ; 1.290760957908909E7 ; 2.0279606414529866E8 ; 1.3191843864711869E9 ; 1.939180765915291E10 ; 0.0
105 ; 1.2902876159530442E7 ; 2.028134900873973E8 ; 1.332091996050276E9 ; 1.9594603723298206E10 ; 0.0
106 ; 1.289680841815766E7 ; 2.0283093450963324E8 ; 1.3449948722098064E9 ; 1.9797417213385605E10 ; 0.0
107 ; 1.2889410067857819E7 ; 2.028483957176921E8 ; 1.357891680627964E9 ; 2.0000248147895237E10 ; 0.0
108 ; 1.2888385348411506E7 ; 2.0286587205272597E8 ; 1.3707810906958218E9 ; 2.020309654361293E10 ; 0.0
109 ; 1.2883865915111814E7 ; 2.0288336189035678E8 ; 1.3836694760442333E9 ; 2.0405962415665657E10 ; 0.0
110 ; 1.287565388132954E7 ; 2.0290086363970745E8 ; 1.396553341959345E9 ; 2.0608845777556015E10 ; 0.0
111 ; 1.2867315255766142E7 ; 2.0291837574246013E8 ; 1.4094289958406746E9 ; 2.081174664119572E10 ; 0.0
112 ; 1.286293924089978E7 ; 2.0293589667194083E8 ; 1.4222963110964408E9 ; 2.101466501693818E10 ; 0.0
113 ; 1.28547060536749E7 ; 2.0295342493223047E8 ; 1.4351592503373406E9 ; 2.121760091361012E10 ; 0.0
114 ; 1.2849558260759307E7 ; 2.0297095905730137E8 ; 1.4480139563910155E9 ; 2.142055433854235E10 ; 0.0
115 ; 1.2844937793020375E7 ; 2.0298849761017898E8 ; 1.460863514651775E9 ; 2.162352529759965E10 ; 0.0
116 ; 1.2837932232141236E7 ; 2.0300603918212792E8 ; 1.4737084524447954E9 ; 2.182651379520983E10 ; 0.0
117 ; 1.2831904027932186E7 ; 2.0302358239186224E8 ; 1.4865463846769366E9 ; 2.202951983439196E10 ; 0.0
118 ; 1.2822882771746995E7 ; 2.0304112588477904E8 ; 1.4993782887048688E9 ; 2.223254341678382E10 ; 0.0
119 ; 1.2818989153177163E7 ; 2.0305866833221492E8 ; 1.512201171476616E9 ; 2.2435584542668602E10 ; 0.0
120 ; 1.2816147280568937E7 ; 2.0307620843072474E8 ; 1.5250201606297932E9 ; 2.2638643211000816E10 ; 0.0
121 ; 1.2807157100909835E7 ; 2.0309374490138218E8 ; 1.537836307910362E9 ; 2.284171941943154E10 ; 0.0
122 ; 1.2797510420328286E7 ; 2.0311127648910144E8 ; 1.550643465011272E9 ; 2.3044813164332924E10 ; 0.0
123 ; 1.27919736967593E7 ; 2.0312880196197957E8 ; 1.5634409754316003E9 ; 2.3247924440822025E10 ; 0.0
124 ; 1.278826752741857E7 ; 2.0314632011065888E8 ; 1.5762329491283596E9 ; 2.3451053242784004E10 ; 0.0
125 ; 1.277746812392805E7 ; 2.0316382974770883E8 ; 1.5890212166557782E9 ; 2.3654199562894665E10 ; 0.0
126 ; 1.277013662822427E7 ; 2.0318132970702693E8 ; 1.6017986847797062E9 ; 2.3857363392642372E10 ; 0.0
127 ; 1.276109930886991E7 ; 2.0319881884325814E8 ; 1.6145688214079306E9 ; 2.40605447223494E10 ; 0.0
128 ; 1.2754214906241598E7 ; 2.0321629603123197E8 ; 1.6273299207168005E9 ; 2.4263743541192657E10 ; 0.0
129 ; 1.2747941784453006E7 ; 2.032337601654173E8 ; 1.640084135623042E9 ; 2.446695983722389E10 ; 0.0
130 ; 1.2736966981894167E7 ; 2.0325121015939388E8 ; 1.652832077407495E9 ; 2.4670193597389305E10 ; 0.0
131 ; 1.2726354914988035E7 ; 2.032686449453401E8 ; 1.6655690443893893E9 ; 2.48734448075487E10 ; 0.0
132 ; 1.2715388006385626E7 ; 2.032860634735371E8 ; 1.6782953993043773E9 ; 2.5076713452494038E10 ; 0.0
133 ; 1.2703464429670805E7 ; 2.0330346471188784E8 ; 1.691010787310763E9 ; 2.5279999515967575E10 ; 0.0
134 ; 1.2691412207049694E7 ; 2.0332084764545143E8 ; 1.7037142517404337E9 ; 2.5483302980679462E10 ; 0.0
135 ; 1.267811745573877E7 ; 2.0333821127599186E8 ; 1.7164056639474833E9 ; 2.5686623828324913E10 ; 0.0
136 ; 1.2667654145493228E7 ; 2.0335555462154076E8 ; 1.729083781403222E9 ; 2.5889962039600906E10 ; 0.0
137 ; 1.2655729693814036E7 ; 2.0337287671597388E8 ; 1.7417514355487154E9 ; 2.6093317594222446E10 ; 0.0
138 ; 1.2640564406211548E7 ; 2.0339017660860077E8 ; 1.7544071652425294E9 ; 2.629669047093842E10 ; 0.0
139 ; 1.2627056980720416E7 ; 2.0340745336376715E8 ; 1.767047729648741E9 ; 2.650008064754702E10 ; 0.0
140 ; 1.2614151626070092E7 ; 2.034247060604698E8 ; 1.7796747866294615E9 ; 2.6703488100910786E10 ; 0.0
141 ; 1.2604488431472734E7 ; 2.0344193379198346E8 ; 1.7922889382555315E9 ; 2.6906912806971256E10 ; 0.0
142 ; 1.2587841945746396E7 ; 2.0345913566549918E8 ; 1.8048934266870043E9 ; 2.711035474076324E10 ; 0.0
143 ; 1.2580354248707289E7 ; 2.0347631080177426E8 ; 1.8174812686327507E9 ; 2.731381387642874E10 ; 0.0
144 ; 1.2564999073496731E7 ; 2.0349345833479267E8 ; 1.830061622881458E9 ; 2.7517290187230515E10 ; 0.0
145 ; 1.2558704255891819E7 ; 2.0351057741143656E8 ; 1.8426266219549549E9 ; 2.7720783645565308E10 ; 0.0
146 ; 1.2549919697842807E7 ; 2.035276671911674E8 ; 1.8551853262108467E9 ; 2.7924294222976746E10 ; 0.0
147 ; 1.254177421678915E7 ; 2.0354472684571755E8 ; 1.8677352459086895E9 ; 2.812782189016791E10 ; 0.0
148 ; 1.2535301079277948E7 ; 2.035617555587911E8 ; 1.8802770201254787E9 ; 2.833136661701363E10 ; 0.0
149 ; 1.2526021874942519E7 ; 2.03578752525774E8 ; 1.8928123212047567E9 ; 2.8534928372572422E10 ; 0.0
150 ; 1.2513607737481095E7 ; 2.0359571695345342E8 ; 1.9053383430796993E9 ; 2.8738507125098198E10 ; 0.0
151 ; 1.2503423134539157E7 ; 2.0361264805974537E8 ; 1.9178519508171804E9 ; 2.894210284205165E10 ; 0.0
152 ; 1.249950057909111E7 ; 2.0362954507343125E8 ; 1.9303553739517195E9 ; 2.9145715490111397E10 ; 0.0
153 ; 1.2491770126591768E7 ; 2.03646407233902E8 ; 1.9428548745308106E9 ; 2.934934503518483E10 ; 0.0
154 ; 1.2482506257192828E7 ; 2.0366323379091063E8 ; 1.9553466446574023E9 ; 2.955299144241873E10 ; 0.0
155 ; 1.2472222515442902E7 ; 2.03680024004332E8 ; 1.9678291509145951E9 ; 2.975665467620964E10 ; 0.0
156 ; 1.2466098284586836E7 ; 2.036967771439302E8 ; 1.980301373430038E9 ; 2.9960334700213974E10 ; 0.0
157 ; 1.2457186392616676E7 ; 2.0371349248913288E8 ; 1.992767471714625E9 ; 3.0164031477357903E10 ; 0.0
158 ; 1.2448144689268276E7 ; 2.037301693288128E8 ; 2.0052246581072416E9 ; 3.0367744969847034E10 ; 0.0
159 ; 1.2436798007272579E7 ; 2.0374680696107575E8 ; 2.01767280279651E9 ; 3.0571475139175846E10 ; 0.0
160 ; 1.2430907196705427E7 ; 2.03763404693055E8 ; 2.0301096008037825E9 ; 3.077522194613692E10 ; 0.0
161 ; 1.2417850152056132E7 ; 2.037799618407123E8 ; 2.0425405080004878E9 ; 3.0978985350829975E10 ; 0.0
162 ; 1.2413464543993536E7 ; 2.037964777286446E8 ; 2.054958358152544E9 ; 3.118276531267069E10 ; 0.0
163 ; 1.2403933693115778E7 ; 2.0381295168989676E8 ; 2.0673718226965375E9 ; 3.1386561790399334E10 ; 0.0
164 ; 1.2392769914071834E7 ; 2.0382938306578004E8 ; 2.0797757563896532E9 ; 3.159037474208923E10 ; 0.0
165 ; 1.2386186606902592E7 ; 2.0384577120569602E8 ; 2.092168526303725E9 ; 3.179420412515501E10 ; 0.0
166 ; 1.2374502301599596E7 ; 2.0386211546696568E8 ; 2.1045547129106276E9 ; 3.1998049896360706E10 ; 0.0
167 ; 1.2366768520858772E7 ; 2.03878415214664E8 ; 2.116929215212227E9 ; 3.220191201182767E10 ; 0.0
168 ; 1.2355728150903737E7 ; 2.0389466982145923E8 ; 2.1292959837330859E9 ; 3.2405790427042336E10 ; 0.0
169 ; 1.23490644172577E7 ; 2.0391087866745707E8 ; 2.1416517118839896E9 ; 3.2609685096863796E10 ; 0.0
170 ; 1.2338611904628158E7 ; 2.0392704114004964E8 ; 2.154000776301247E9 ; 3.2813595975531254E10 ; 0.0
171 ; 1.2328064065753762E7 ; 2.039431566337688E8 ; 2.1663393882058754E9 ; 3.3017523016671303E10 ; 0.0
172 ; 1.2315770352834119E7 ; 2.0395922455014405E8 ; 2.1786674522716293E9 ; 3.3221466173305073E10 ; 0.0
173 ; 1.2312027280734554E7 ; 2.0397524429756448E8 ; 2.1909832226244636E9 ; 3.3425425397855217E10 ; 0.0
174 ; 1.2304513362898855E7 ; 2.0399121529114497E8 ; 2.203295249905198E9 ; 3.3629400642152782E10 ; 0.0
175 ; 1.2296995230515355E7 ; 2.0400713695259634E8 ; 2.215599763268097E9 ; 3.3833391857443928E10 ; 0.0
176 ; 1.229388282426229E7 ; 2.0402300871009922E8 ; 2.2278967584986124E9 ; 3.4037398994396523E10 ; 0.0
177 ; 1.2288942531494023E7 ; 2.0403882999818194E8 ; 2.2401906413228745E9 ; 3.424142200310662E10 ; 0.0
178 ; 1.2279467190518128E7 ; 2.040546002576017E8 ; 2.2524795838543687E9 ; 3.4445460833104805E10 ; 0.0
179 ; 1.227656989309475E7 ; 2.040703189352295E8 ; 2.2647590510448866E9 ; 3.4649515433362404E10 ; 0.0
180 ; 1.2268467301164452E7 ; 2.040859854839384E8 ; 2.277035620937981E9 ; 3.485358575229763E10 ; 0.0
181 ; 1.2267745062533023E7 ; 2.041015993624948E8 ; 2.2893040882391458E9 ; 3.505767173778157E10 ; 0.0
182 ; 1.2261201397351516E7 ; 2.041171600354535E8 ; 2.3015718333016787E9 ; 3.5261773337144066E10 ; 0.0
183 ; 1.225476035170475E7 ; 2.0413266697305515E8 ; 2.3138330346990304E9 ; 3.546589049717952E10 ; 0.0
184 ; 1.224839204071099E7 ; 2.041481196511272E8 ; 2.326087795050735E9 ; 3.567002316415257E10 ; 0.0
185 ; 1.2241970162390672E7 ; 2.0416351755098748E8 ; 2.338336187091446E9 ; 3.58741712838037E10 ; 0.0
186 ; 1.2233935968865376E7 ; 2.0417886015935075E8 ; 2.3505781572538366E9 ; 3.607833480135469E10 ; 0.0
187 ; 1.2231986449291619E7 ; 2.041941469682377E8 ; 2.362812093222702E9 ; 3.628251366151404E10 ; 0.0
188 ; 1.222549476178026E7 ; 2.0420937747488698E8 ; 2.3750440796719937E9 ; 3.648670780848228E10 ; 0.0
189 ; 1.2217521875718957E7 ; 2.042245511816695E8 ; 2.387269574433774E9 ; 3.669091718595716E10 ; 0.0
190 ; 1.2211247806777498E7 ; 2.0423966759600517E8 ; 2.399487096309493E9 ; 3.689514173713883E10 ; 0.0
191 ; 1.22073960425252E7 ; 2.042547262302823E8 ; 2.4116983441162705E9 ; 3.709938140473484E10 ; 0.0
192 ; 1.2202330512064843E7 ; 2.0426972660177907E8 ; 2.423905740158796E9 ; 3.7303636130965126E10 ; 0.0
193 ; 1.2194982829518855E7 ; 2.0428466823258743E8 ; 2.436108070670861E9 ; 3.75079058575669E10 ; 0.0
194 ; 1.2187804552053213E7 ; 2.04299550649539E8 ; 2.4483030535003796E9 ; 3.771219052579949E10 ; 0.0
195 ; 1.2185266718082407E7 ; 2.043E8 ; 2.460490858052433E9 ; 3.791649007644903E10 ; 0.0
