CSV File for the City 2 on Day 324
1 - Minute m 
2 - Power Consumed at minute m 
3 - Power Produced at minute m 
4 - Energy Consumed since the beginning of the day 
5 - Energy Produced since the beginning of the day 
6 - Energy Lost since the beginning of the day on lines starting from the city
 
0 ; 1799042.4830166297 ; 1.0531123876897433E8 ; 0.0 ; 0.0 ; 0.0
1 ; 1801159.0534273197 ; 1.0546519930799854E8 ; 1799042.4830166297 ; 1.0531123876897433E8 ; 0.0
2 ; 1804206.8134301386 ; 1.0592783895226267E8 ; 3600201.5364439497 ; 2.1077643807697287E8 ; 0.0
3 ; 1806307.5445841912 ; 1.0669915796828824E8 ; 5404408.349874089 ; 3.1670427702923554E8 ; 0.0
4 ; 1809146.018794477 ; 1.0777915659365654E8 ; 7210715.89445828 ; 4.234034349975238E8 ; 0.0
5 ; 1812062.2163279313 ; 1.0916783503612787E8 ; 9019861.913252756 ; 5.311825915911803E8 ; 0.0
6 ; 1815711.6506061307 ; 1.108651934728621E8 ; 1.0831924129580688E7 ; 6.403504266273081E8 ; 0.0
7 ; 1823015.6338951634 ; 1.1287123204974663E8 ; 1.2647635780186819E7 ; 7.512156201001703E8 ; 0.0
8 ; 1833366.400773344 ; 1.151859508808384E8 ; 1.4470651414081983E7 ; 8.640868521499169E8 ; 0.0
9 ; 1846937.0568597903 ; 1.1780935004792404E8 ; 1.6304017814855328E7 ; 9.792728030307553E8 ; 0.0
10 ; 1868234.9266084032 ; 1.2074142960020316E8 ; 1.8150954871715117E7 ; 1.0970821530786793E9 ; 0.0
11 ; 1902452.495408553 ; 1.239821895540969E8 ; 2.001918979832352E7 ; 1.2178235826788826E9 ; 0.0
12 ; 1955901.0513536027 ; 1.275316298931841E8 ; 2.1921642293732073E7 ; 1.3418057722329795E9 ; 0.0
13 ; 2008519.4095711568 ; 1.3138975056826514E8 ; 2.3877543345085677E7 ; 1.4693374021261637E9 ; 0.0
14 ; 2014111.274130016 ; 1.3555655149755347E8 ; 2.5886062754656833E7 ; 1.600727152694429E9 ; 0.0
15 ; 2017406.9909505355 ; 1.4003203256699204E8 ; 2.790017402878685E7 ; 1.7362837041919823E9 ; 0.0
16 ; 2018587.5209705979 ; 1.4481619363069358E8 ; 2.9917581019737385E7 ; 1.8763157367589743E9 ; 0.0
17 ; 2021052.0726624245 ; 1.4990903451149812E8 ; 3.1936168540707983E7 ; 2.021131930389668E9 ; 0.0
18 ; 2023611.1340974483 ; 1.553105550016454E8 ; 3.395722061337041E7 ; 2.171040964901166E9 ; 0.0
19 ; 2026776.5730148272 ; 1.610207548635541E8 ; 3.598083174746786E7 ; 2.3263515199028115E9 ; 0.0
20 ; 2029756.4681566926 ; 1.670396338307027E8 ; 3.8007608320482686E7 ; 2.4873722747663655E9 ; 0.0
21 ; 2031514.100226918 ; 1.7336719160860267E8 ; 4.003736478863938E7 ; 2.6544119085970683E9 ; 0.0
22 ; 2036455.1167548678 ; 1.800034278758576E8 ; 4.20688788888663E7 ; 2.827779100205671E9 ; 0.0
23 ; 2039041.4516627816 ; 1.8694834228529817E8 ; 4.4105334005621165E7 ; 3.0077825280815287E9 ; 0.0
24 ; 2038684.7016141748 ; 1.9420193446518445E8 ; 4.6144375457283944E7 ; 3.194730870366827E9 ; 0.0
25 ; 2042027.7005775936 ; 2.0045224491864958E8 ; 4.8183060158898115E7 ; 3.388932804832011E9 ; 0.0
26 ; 2045749.5631622565 ; 2.0045282106190413E8 ; 5.022508785947571E7 ; 3.589385049750661E9 ; 0.0
27 ; 2048368.7895727674 ; 2.004534317504867E8 ; 5.227083742263797E7 ; 3.789837870812565E9 ; 0.0
28 ; 2050393.7002792554 ; 2.0045407652741298E8 ; 5.431920621221074E7 ; 3.9902913025630517E9 ; 0.0
29 ; 2053072.3348103808 ; 2.00454754917818E8 ; 5.6369599912489995E7 ; 4.1907453790904646E9 ; 0.0
30 ; 2054250.4862258644 ; 2.0045546643036416E8 ; 5.842267224730038E7 ; 4.391200134008283E9 ; 0.0
31 ; 2057256.1485244704 ; 2.0045621055865222E8 ; 6.0476922733526245E7 ; 4.591655600438647E9 ; 0.0
32 ; 2060257.606929182 ; 2.0045698678262663E8 ; 6.2534178882050715E7 ; 4.792111810997299E9 ; 0.0
33 ; 2064015.1114750456 ; 2.0045779456996793E8 ; 6.45944364889799E7 ; 4.992568797779926E9 ; 0.0
34 ; 2064004.4365997736 ; 2.0045863337746522E8 ; 6.665845160045494E7 ; 5.193026592349895E9 ; 0.0
35 ; 2066484.9708115824 ; 2.0045950265236202E8 ; 6.872245603705472E7 ; 5.39348522572736E9 ; 0.0
36 ; 2068432.5482314974 ; 2.004604018336699E8 ; 7.07889410078663E7 ; 5.593944728379722E9 ; 0.0
37 ; 2070374.620750416 ; 2.0046133035344487E8 ; 7.285737355609779E7 ; 5.794405130213391E9 ; 0.0
38 ; 2072903.8530458154 ; 2.0046228763802168E8 ; 7.49277481768482E7 ; 5.994866460566836E9 ; 0.0
39 ; 2074951.4416353237 ; 2.004632731092025E8 ; 7.700065202989402E7 ; 6.195328748204858E9 ; 0.0
40 ; 2076205.344502005 ; 2.0046428618539643E8 ; 7.907560347152935E7 ; 6.39579202131406E9 ; 0.0
41 ; 2077858.052670458 ; 2.0046532628270775E8 ; 8.115180881603135E7 ; 6.596256307499456E9 ; 0.0
42 ; 2079289.6869328571 ; 2.0046639281597003E8 ; 8.322966686870182E7 ; 6.796721633782165E9 ; 0.0
43 ; 2080029.8646782464 ; 2.004674851997255E8 ; 8.530895655563468E7 ; 6.997188026598135E9 ; 0.0
44 ; 2082177.8046591892 ; 2.0046860284914815E8 ; 8.738898642031293E7 ; 7.19765551179786E9 ; 0.0
45 ; 2084269.3317627679 ; 2.004697451809101E8 ; 8.947116422497211E7 ; 7.398124114647008E9 ; 0.0
46 ; 2084976.7974576848 ; 2.0047091161399153E8 ; 9.155543355673487E7 ; 7.598593859827918E9 ; 0.0
47 ; 2087549.7817982794 ; 2.004721015704339E8 ; 9.364041035419255E7 ; 7.79906477144191E9 ; 0.0
48 ; 2087872.296986727 ; 2.0047331447603798E8 ; 9.572796013599083E7 ; 7.999536873012343E9 ; 0.0
49 ; 2088424.8910286312 ; 2.0047454976100665E8 ; 9.781583243297756E7 ; 8.200010187488381E9 ; 0.0
50 ; 2090011.8910877442 ; 2.0047580686053482E8 ; 9.990425732400618E7 ; 8.400484737249388E9 ; 0.0
51 ; 2089683.3002568544 ; 2.0047708521534708E8 ; 1.0199426921509393E8 ; 8.600960544109922E9 ; 0.0
52 ; 2091577.4420930967 ; 2.0047838427218536E8 ; 1.0408395251535077E8 ; 8.80143762932527E9 ; 0.0
53 ; 2093426.290808935 ; 2.0047970348424795E8 ; 1.0617552995744386E8 ; 9.001916013597456E9 ; 0.0
54 ; 2092147.5229079842 ; 2.0048104231158268E8 ; 1.082689562482528E8 ; 9.202395717081703E9 ; 0.0
55 ; 2093405.1200185486 ; 2.004824002214352E8 ; 1.1036110377116078E8 ; 9.402876759393286E9 ; 0.0
56 ; 2093150.5687488331 ; 2.004837766885556E8 ; 1.1245450889117932E8 ; 9.603359159614721E9 ; 0.0
57 ; 2094039.984379737 ; 2.0048517119546485E8 ; 1.1454765945992815E8 ; 9.803842936303276E9 ; 0.0
58 ; 2096175.8513998678 ; 2.0048658323268363E8 ; 1.166416994443079E8 ; 1.0004328107498741E10 ; 0.0
59 ; 2096129.0057021922 ; 2.0048801229892564E8 ; 1.1873787529570776E8 ; 1.0204814690731424E10 ; 0.0
60 ; 2096169.8855178268 ; 2.004894579012576E8 ; 1.2083400430140996E8 ; 1.040530270303035E10 ; 0.0
61 ; 2099329.4663137887 ; 2.004909195552283E8 ; 1.2293017418692778E8 ; 1.0605792160931608E10 ; 0.0
62 ; 2098466.9342181487 ; 2.004923967849683E8 ; 1.2502950365324157E8 ; 1.0806283080486837E10 ; 0.0
63 ; 2098208.0521648442 ; 2.0049388912326324E8 ; 1.2712797058745973E8 ; 1.1006775477271805E10 ; 0.0
64 ; 2099719.834561405 ; 2.00495396111602E8 ; 1.2922617863962457E8 ; 1.1207269366395067E10 ; 0.0
65 ; 2100312.5355675635 ; 2.0049691730020177E8 ; 1.3132589847418597E8 ; 1.140776476250667E10 ; 0.0
66 ; 2100096.617309148 ; 2.0049845224801248E8 ; 1.3342621100975354E8 ; 1.1608261679806871E10 ; 0.0
67 ; 2102141.1276459135 ; 2.005000005227016E8 ; 1.3552630762706268E8 ; 1.1808760132054884E10 ; 0.0
68 ; 2099837.1100241453 ; 2.0050156170062155E8 ; 1.376284487547086E8 ; 1.2009260132577585E10 ; 0.0
69 ; 2102698.326266142 ; 2.0050313536676118E8 ; 1.3972828586473274E8 ; 1.2209761694278206E10 ; 0.0
70 ; 2102150.496657691 ; 2.0050472111468273E8 ; 1.4183098419099888E8 ; 1.2410264829644966E10 ; 0.0
71 ; 2104204.458711339 ; 2.00506318546446E8 ; 1.4393313468765658E8 ; 1.261076955075965E10 ; 0.0
72 ; 2103205.0182083915 ; 2.0050792727252078E8 ; 1.460373391463679E8 ; 1.2811275869306095E10 ; 0.0
73 ; 2102596.0094681634 ; 2.0050954691168895E8 ; 1.481405441645763E8 ; 1.3011783796578615E10 ; 0.0
74 ; 2104102.7498219116 ; 2.005111770909378E8 ; 1.5024314017404446E8 ; 1.3212293343490305E10 ; 0.0
75 ; 2104269.7111457596 ; 2.0051281744534478E8 ; 1.5234724292386636E8 ; 1.3412804520581244E10 ; 0.0
76 ; 2104402.538214379 ; 2.005144676179558E8 ; 1.5445151263501212E8 ; 1.3613317338026588E10 ; 0.0
77 ; 2105577.4985541743 ; 2.0051612725965735E8 ; 1.565559151732265E8 ; 1.3813831805644545E10 ; 0.0
78 ; 2104294.336897686 ; 2.0051779602904338E8 ; 1.5866149267178068E8 ; 1.4014347932904202E10 ; 0.0
79 ; 2103966.7662919457 ; 2.0051947359227812E8 ; 1.6076578700867838E8 ; 1.4214865728933245E10 ; 0.0
80 ; 2104540.698428657 ; 2.0052115962295523E8 ; 1.6286975377497032E8 ; 1.4415385202525522E10 ; 0.0
81 ; 2103972.66193438 ; 2.0052285380195427E8 ; 1.6497429447339898E8 ; 1.4615906362148478E10 ; 0.0
82 ; 2105389.179838569 ; 2.0052455581729475E8 ; 1.6707826713533336E8 ; 1.4816429215950432E10 ; 0.0
83 ; 2103605.875037347 ; 2.0052626536398885E8 ; 1.6918365631517193E8 ; 1.5016953771767727E10 ; 0.0
84 ; 2103062.746376242 ; 2.0052798214389285E8 ; 1.7128726219020927E8 ; 1.5217480037131716E10 ; 0.0
85 ; 2101930.7813926768 ; 2.0052970586555803E8 ; 1.7339032493658552E8 ; 1.5418008019275608E10 ; 0.0
86 ; 2101910.538901185 ; 2.0053143624408144E8 ; 1.7549225571797818E8 ; 1.5618537725141167E10 ; 0.0
87 ; 2102185.8581057563 ; 2.0053317300095695E8 ; 1.7759416625687936E8 ; 1.5819069161385248E10 ; 0.0
88 ; 2100492.9455072423 ; 2.0053491586392665E8 ; 1.796963521149851E8 ; 1.6019602334386206E10 ; 0.0
89 ; 2100467.7268240056 ; 2.0053666456683353E8 ; 1.8179684506049234E8 ; 1.6220137250250132E10 ; 0.0
90 ; 2100607.912596908 ; 2.005384188494749E8 ; 1.8389731278731635E8 ; 1.6420673914816965E10 ; 0.0
91 ; 2099734.5031702383 ; 2.005401784574577E8 ; 1.8599792069991326E8 ; 1.662121233366644E10 ; 0.0
92 ; 2099063.696160709 ; 2.0054194314205503E8 ; 1.8809765520308352E8 ; 1.6821752512123898E10 ; 0.0
93 ; 2098268.555483073 ; 2.0054371266006488E8 ; 1.9019671889924422E8 ; 1.7022294455265953E10 ; 0.0
94 ; 2099018.3994539343 ; 2.005454867736706E8 ; 1.922949874547273E8 ; 1.7222838167926018E10 ; 0.0
95 ; 2096575.2961636714 ; 2.005472652503038E8 ; 1.9439400585418123E8 ; 1.7423383654699688E10 ; 0.0
96 ; 2096662.0325337616 ; 2.005490478625092E8 ; 1.964905811503449E8 ; 1.7623930919949993E10 ; 0.0
97 ; 2095326.9756781268 ; 2.0055083438781208E8 ; 1.9858724318287867E8 ; 1.7824479967812504E10 ; 0.0
98 ; 2094408.56731479 ; 2.0055262460858837E8 ; 2.006825701585568E8 ; 1.8025030802200317E10 ; 0.0
99 ; 2095495.10668111 ; 2.0055441831193686E8 ; 2.027769787258716E8 ; 1.8225583426808907E10 ; 0.0
100 ; 2092929.4107153176 ; 2.0055621528955433E8 ; 2.048724738325527E8 ; 1.8426137845120842E10 ; 0.0
101 ; 2092830.3505909278 ; 2.0055801533761322E8 ; 2.06965403243268E8 ; 1.8626694060410397E10 ; 0.0
102 ; 2091844.4861231518 ; 2.0055981825664204E8 ; 2.0905823359385893E8 ; 1.882725207574801E10 ; 0.0
103 ; 2091640.4327717104 ; 2.0056162385140845E8 ; 2.1115007807998207E8 ; 1.902781189400465E10 ; 0.0
104 ; 2091380.0604867241 ; 2.0056343193080494E8 ; 2.1324171851275378E8 ; 1.922837351785606E10 ; 0.0
105 ; 2090233.6516134157 ; 2.0056524230773747E8 ; 2.1533309857324052E8 ; 1.9428936949786865E10 ; 0.0
106 ; 2087755.6891385177 ; 2.0056705479901657E8 ; 2.1742333222485393E8 ; 1.9629502192094604E10 ; 0.0
107 ; 2088183.29444694 ; 2.005688692252513E8 ; 2.1951108791399246E8 ; 1.983006924689362E10 ; 0.0
108 ; 2086173.032408832 ; 2.0057068541074583E8 ; 2.215992712084394E8 ; 2.003063811611887E10 ; 0.0
109 ; 2085493.005632371 ; 2.0057250318339872E8 ; 2.2368544424084824E8 ; 2.0231208801529617E10 ; 0.0
110 ; 2085128.4373360632 ; 2.005743223746048E8 ; 2.257709372464806E8 ; 2.0431781304713017E10 ; 0.0
111 ; 2085180.849459576 ; 2.0057614281915957E8 ; 2.2785606568381667E8 ; 2.063235562708762E10 ; 0.0
112 ; 2083509.433366131 ; 2.0057796435516632E8 ; 2.2994124653327626E8 ; 2.083293176990678E10 ; 0.0
113 ; 2082135.2143314648 ; 2.0057978682394573E8 ; 2.3202475596664238E8 ; 2.1033509734261948E10 ; 0.0
114 ; 2080808.771026152 ; 2.005816100699478E8 ; 2.3410689118097386E8 ; 2.123408952108589E10 ; 0.0
115 ; 2081878.2896878882 ; 2.005834339406665E8 ; 2.3618769995200002E8 ; 2.1434671131155838E10 ; 0.0
116 ; 2079967.1999647694 ; 2.005852582865565E8 ; 2.3826957824168792E8 ; 2.1635254565096504E10 ; 0.0
117 ; 2077363.8585079638 ; 2.005870829609525E8 ; 2.403495454416527E8 ; 2.183583982338306E10 ; 0.0
118 ; 2077890.440976066 ; 2.0058890781999072E8 ; 2.4242690930016065E8 ; 2.2036426906344013E10 ; 0.0
119 ; 2076390.5604178521 ; 2.005907327225327E8 ; 2.445047997411367E8 ; 2.2237015814164005E10 ; 0.0
120 ; 2074776.1217488942 ; 2.0059255753009123E8 ; 2.4658119030155456E8 ; 2.243760654688654E10 ; 0.0
121 ; 2073876.3344962439 ; 2.0059438210675856E8 ; 2.4865596642330346E8 ; 2.263819910441663E10 ; 0.0
122 ; 2073916.923296662 ; 2.0059620631913656E8 ; 2.5072984275779969E8 ; 2.2838793486523388E10 ; 0.0
123 ; 2072245.9296158345 ; 2.0059803003626904E8 ; 2.5280375968109635E8 ; 2.3039389692842525E10 ; 0.0
124 ; 2070149.6826667902 ; 2.005998531295759E8 ; 2.5487600561071217E8 ; 2.3239987722878796E10 ; 0.0
125 ; 2070118.4041492902 ; 2.0060167547278956E8 ; 2.5694615529337895E8 ; 2.3440587576008373E10 ; 0.0
126 ; 2067393.3286957107 ; 2.006034969418928E8 ; 2.5901627369752824E8 ; 2.3641189251481163E10 ; 0.0
127 ; 2067363.4180730188 ; 2.0060531741505897E8 ; 2.6108366702622396E8 ; 2.3841792748423058E10 ; 0.0
128 ; 2065608.6516066478 ; 2.0060713677259356E8 ; 2.63151030444297E8 ; 2.4042398065838116E10 ; 0.0
129 ; 2064339.574531287 ; 2.0060895489687777E8 ; 2.6521663909590364E8 ; 2.424300520261071E10 ; 0.0
130 ; 2063221.8422731257 ; 2.0061077167231372E8 ; 2.6728097867043492E8 ; 2.4443614157507587E10 ; 0.0
131 ; 2060117.729281364 ; 2.0061258698527125E8 ; 2.6934420051270807E8 ; 2.46442249291799E10 ; 0.0
132 ; 2058528.7799763563 ; 2.0061440072403643E8 ; 2.7140431824198943E8 ; 2.4844837516165173E10 ; 0.0
133 ; 2057745.8573394497 ; 2.006162127787615E8 ; 2.734628470219658E8 ; 2.504545191688921E10 ; 0.0
134 ; 2055807.6534101525 ; 2.006180230414165E8 ; 2.7552059287930524E8 ; 2.5246068129667973E10 ; 0.0
135 ; 2054141.015711535 ; 2.0061983140574217E8 ; 2.775764005327154E8 ; 2.544668615270939E10 ; 0.0
136 ; 2051490.0422252035 ; 2.0062163776720443E8 ; 2.796305415484269E8 ; 2.564730598411513E10 ; 0.0
137 ; 2050098.9074799167 ; 2.006234420229502E8 ; 2.816820315906521E8 ; 2.5847927621882336E10 ; 0.0
138 ; 2047900.1584819763 ; 2.006252440717645E8 ; 2.8373213049813205E8 ; 2.6048551063905285E10 ; 0.0
139 ; 2044288.0177310472 ; 2.0062704381402898E8 ; 2.85780030656614E8 ; 2.624917630797705E10 ; 0.0
140 ; 2042526.424627341 ; 2.0062884115168163E8 ; 2.878243186743451E8 ; 2.644980335179108E10 ; 0.0
141 ; 2041142.4874135633 ; 2.0063063598817766E8 ; 2.8986684509897244E8 ; 2.665043219294276E10 ; 0.0
142 ; 2038886.542895738 ; 2.0063242822845176E8 ; 2.91907987586386E8 ; 2.685106282893094E10 ; 0.0
143 ; 2037158.8095578132 ; 2.0063421777888134E8 ; 2.9394687412928176E8 ; 2.705169525715939E10 ; 0.0
144 ; 2034194.34467133 ; 2.0063600454725096E8 ; 2.9598403293883955E8 ; 2.725232947493827E10 ; 0.0
145 ; 2033162.1519935583 ; 2.0063778844271773E8 ; 2.9801822728351086E8 ; 2.7452965479485523E10 ; 0.0
146 ; 2032667.5499463547 ; 2.0063956937577802E8 ; 3.0005138943550444E8 ; 2.765360326792824E10 ; 0.0
147 ; 2030995.723486445 ; 2.00641347258235E8 ; 3.020840569854508E8 ; 2.785424283730402E10 ; 0.0
148 ; 2029301.6390336265 ; 2.006431220031671E8 ; 3.041150527089372E8 ; 2.8054884184562256E10 ; 0.0
149 ; 2028139.330273171 ; 2.0064489352489755E8 ; 3.0614435434797084E8 ; 2.8255527306565422E10 ; 0.0
150 ; 2026562.7760827427 ; 2.006466617389649E8 ; 3.08172493678244E8 ; 2.845617220009032E10 ; 0.0
151 ; 2025680.6287078934 ; 2.006484265620942E8 ; 3.1019905645432675E8 ; 2.8656818861829285E10 ; 0.0
152 ; 2024223.5521989397 ; 2.006501879121695E8 ; 3.1222473708303463E8 ; 2.885746728839138E10 ; 0.0
153 ; 2023164.1027982729 ; 2.0065194570820644E8 ; 3.142489606352336E8 ; 2.905811747630355E10 ; 0.0
154 ; 2020071.1138968912 ; 2.0065369987032658E8 ; 3.1627212473803186E8 ; 2.9258769422011757E10 ; 0.0
155 ; 2018249.7181141733 ; 2.0065545031973174E8 ; 3.182921958519288E8 ; 2.9459423121882084E10 ; 0.0
156 ; 2017726.3739079323 ; 2.006571969786796E8 ; 3.2031044557004297E8 ; 2.9660078572201817E10 ; 0.0
157 ; 2018009.1310661752 ; 2.0065893977045968E8 ; 3.223281719439509E8 ; 2.9860735769180496E10 ; 0.0
158 ; 2015789.4620114611 ; 2.006606786193704E8 ; 3.243461810750171E8 ; 3.0061394708950954E10 ; 0.0
159 ; 2015673.1832421834 ; 2.0066241345069653E8 ; 3.2636197053702855E8 ; 3.0262055387570324E10 ; 0.0
160 ; 2011909.42960641 ; 2.0066414419068757E8 ; 3.2837764372027075E8 ; 3.046271780102102E10 ; 0.0
161 ; 2010996.9774426545 ; 2.006658707665364E8 ; 3.303895531498772E8 ; 3.0663381945211708E10 ; 0.0
162 ; 2010371.9301141412 ; 2.0066759310635918E8 ; 3.324005501273199E8 ; 3.0864047815978245E10 ; 0.0
163 ; 2009086.2075981249 ; 2.0066931113917512E8 ; 3.34410922057434E8 ; 3.1064715409084602E10 ; 0.0
164 ; 2007111.0149145308 ; 2.0067102479488745E8 ; 3.364200082650322E8 ; 3.1265384720223778E10 ; 0.0
165 ; 2005188.8390656894 ; 2.0067273400426468E8 ; 3.384271192799467E8 ; 3.1466055745018665E10 ; 0.0
166 ; 2002658.920068425 ; 2.006744386989225E8 ; 3.4043230811901236E8 ; 3.166672847902293E10 ; 0.0
167 ; 2001698.6873968723 ; 2.0067613881130603E8 ; 3.424349670390808E8 ; 3.186740291772185E10 ; 0.0
168 ; 2000205.1357397633 ; 2.0067783427467296E8 ; 3.444366657264777E8 ; 3.2068079056533157E10 ; 0.0
169 ; 1997540.661580671 ; 2.006795250230769E8 ; 3.464368708622174E8 ; 3.226875689080783E10 ; 0.0
170 ; 1997128.253309694 ; 2.006812109913512E8 ; 3.484344115237981E8 ; 3.2469436415830906E10 ; 0.0
171 ; 1996305.90632018 ; 2.0068289211509356E8 ; 3.504315397771078E8 ; 3.2670117626822258E10 ; 0.0
172 ; 1995512.9361825048 ; 2.0068456833065072E8 ; 3.5242784568342793E8 ; 3.287080051893735E10 ; 0.0
173 ; 1994009.7589134076 ; 2.0068623957510382E8 ; 3.544233586196104E8 ; 3.3071485087268E10 ; 0.0
174 ; 1991870.022425585 ; 2.0068790578625417E8 ; 3.564173683785238E8 ; 3.3272171326843105E10 ; 0.0
175 ; 1991744.2832774206 ; 2.0068956690260935E8 ; 3.584092384009494E8 ; 3.347285923262936E10 ; 0.0
176 ; 1990031.0157539768 ; 2.006912228633698E8 ; 3.604009826842268E8 ; 3.367354879953197E10 ; 0.0
177 ; 1989089.477533391 ; 2.006928736084158E8 ; 3.623910136999808E8 ; 3.387424002239534E10 ; 0.0
178 ; 1989278.5685775215 ; 2.0069451907829475E8 ; 3.643801031775142E8 ; 3.4074932896003757E10 ; 0.0
179 ; 1987504.9012588745 ; 2.006961592142089E8 ; 3.663693817460917E8 ; 3.4275627415082054E10 ; 0.0
180 ; 1986527.8428886372 ; 2.006977939580034E8 ; 3.683568866473506E8 ; 3.4476323574296265E10 ; 0.0
181 ; 1984988.9588285617 ; 2.0069942325215477E8 ; 3.7034341449023926E8 ; 3.4677021368254265E10 ; 0.0
182 ; 1982328.0848355284 ; 2.007E8 ; 3.7232840344906783E8 ; 3.487772079150642E10 ; 0.0
183 ; 1978420.1487119691 ; 2.007E8 ; 3.7431073153390336E8 ; 3.507842079150642E10 ; 0.0
184 ; 1975423.959996577 ; 2.007E8 ; 3.7628915168261534E8 ; 3.527912079150642E10 ; 0.0
185 ; 1971675.667194823 ; 2.007E8 ; 3.782645756426119E8 ; 3.547982079150642E10 ; 0.0
186 ; 1966733.9583748148 ; 2.007E8 ; 3.8023625130980676E8 ; 3.568052079150642E10 ; 0.0
187 ; 1964305.3740753592 ; 2.007E8 ; 3.8220298526818156E8 ; 3.588122079150642E10 ; 0.0
188 ; 1959679.9687856268 ; 2.007E8 ; 3.841672906422569E8 ; 3.608192079150642E10 ; 0.0
189 ; 1956390.485257426 ; 2.007E8 ; 3.8612697061104256E8 ; 3.628262079150642E10 ; 0.0
190 ; 1951100.836719452 ; 2.007E8 ; 3.880833610963E8 ; 3.648332079150642E10 ; 0.0
191 ; 1948833.1212480932 ; 2.007E8 ; 3.9003446193301946E8 ; 3.668402079150642E10 ; 0.0
192 ; 1945119.9797637598 ; 2.007E8 ; 3.919832950542675E8 ; 3.688472079150642E10 ; 0.0
193 ; 1940214.0537794952 ; 2.007E8 ; 3.939284150340313E8 ; 3.708542079150642E10 ; 0.0
194 ; 1937558.7586284324 ; 2.007E8 ; 3.9586862908781075E8 ; 3.728612079150642E10 ; 0.0
195 ; 1933844.3704774706 ; 2.007E8 ; 3.978061878464392E8 ; 3.748682079150642E10 ; 0.0
196 ; 1929803.2253893225 ; 2.007E8 ; 3.997400322169167E8 ; 3.768752079150642E10 ; 0.0
197 ; 1925224.4094275474 ; 2.007E8 ; 4.01669835442306E8 ; 3.788822079150642E10 ; 0.0
198 ; 1922574.5936518877 ; 2.007E8 ; 4.035950598517335E8 ; 3.808892079150642E10 ; 0.0
199 ; 1917548.1292095366 ; 2.007E8 ; 4.055176344453854E8 ; 3.828962079150642E10 ; 0.0
200 ; 1915320.9237988426 ; 2.007E8 ; 4.074351825745949E8 ; 3.849032079150642E10 ; 0.0
201 ; 1911032.4057336962 ; 2.007E8 ; 4.093505034983938E8 ; 3.869102079150642E10 ; 0.0
202 ; 1908002.2048869554 ; 1.5820369859677333E8 ; 4.112615359041275E8 ; 3.889172079150642E10 ; 0.0
