CSV File for the City 1 on Day 76
1 - Minute m 
2 - Power Consumed at minute m 
3 - Power Produced at minute m 
4 - Energy Consumed since the beginning of the day 
5 - Energy Produced since the beginning of the day 
6 - Energy Lost since the beginning of the day on lines starting from the city
 
0 ; 1.6029175175682291E7 ; 1.0550067438753298E8 ; 0.0 ; 0.0 ; 0.0
1 ; 1.6044299749949869E7 ; 1.0565359911616504E8 ; 1.6029175175682291E7 ; 1.0550067438753298E8 ; 0.0
2 ; 1.6064928282096341E7 ; 1.0611530759930941E8 ; 3.207347492563216E7 ; 2.1115427350369802E8 ; 0.0
3 ; 1.6083188195937015E7 ; 1.06885801523058E8 ; 4.8138403207728505E7 ; 3.1726958110300744E8 ; 0.0
4 ; 1.6104329456583891E7 ; 1.0796508240148407E8 ; 6.422159140366552E7 ; 4.2415538262606543E8 ; 0.0
5 ; 1.6136862252160959E7 ; 1.0935315156723553E8 ; 8.032592086024942E7 ; 5.321204650275495E8 ; 0.0
6 ; 1.6173323794545017E7 ; 1.1105001016307488E8 ; 9.646278311241037E7 ; 6.41473616594785E8 ; 0.0
7 ; 1.6225446540442701E7 ; 1.130556591344912E8 ; 1.1263610690695539E8 ; 7.525236267578598E8 ; 0.0
8 ; 1.6306926480194455E7 ; 1.1537009922349286E8 ; 1.288615534473981E8 ; 8.65579285892351E8 ; 0.0
9 ; 1.6420486971036926E7 ; 1.1799333096367633E8 ; 1.4516847992759255E8 ; 9.809493851158439E8 ; 0.0
10 ; 1.6605855833943432E7 ; 1.2092535467664701E8 ; 1.615889668986295E8 ; 1.0989427160795202E9 ; 0.0
11 ; 1.6887749814058214E7 ; 1.241661704698492E8 ; 1.781948227325729E8 ; 1.2198680707561672E9 ; 0.0
12 ; 1.7352818403015923E7 ; 1.2771577823583856E8 ; 1.9508257254663113E8 ; 1.3440342412260163E9 ; 0.0
13 ; 1.78043167837321E7 ; 1.3157417765300971E8 ; 2.1243539094964704E8 ; 1.471750019461855E9 ; 0.0
14 ; 1.7852851262104854E7 ; 1.3574136818776625E8 ; 2.3023970773337913E8 ; 1.6033241971148646E9 ; 0.0
15 ; 1.7874120161781263E7 ; 1.402173490980997E8 ; 2.48092558995484E8 ; 1.739065565302631E9 ; 0.0
16 ; 1.7889001553874213E7 ; 1.4500211943852112E8 ; 2.6596667915726525E8 ; 1.8792829144007306E9 ; 0.0
17 ; 1.7915922136774294E7 ; 1.5009567806626788E8 ; 2.8385568071113944E8 ; 2.0242850338392518E9 ; 0.0
18 ; 1.7933704818224262E7 ; 1.5549802364869213E8 ; 3.0177160284791374E8 ; 2.1743807119055195E9 ; 0.0
19 ; 1.7955689847841438E7 ; 1.612091546717206E8 ; 3.19705307666138E8 ; 2.3298787355542116E9 ; 0.0
20 ; 1.7971266010792185E7 ; 1.6722906944926134E8 ; 3.3766099751397943E8 ; 2.491087890225932E9 ; 0.0
21 ; 1.7994191684282113E7 ; 1.7355776613342753E8 ; 3.5563226352477163E8 ; 2.6583169596751933E9 ; 0.0
22 ; 1.8021912755432688E7 ; 1.801952427254365E8 ; 3.7362645520905375E8 ; 2.831874725808621E9 ; 0.0
23 ; 1.8039657947924007E7 ; 1.8714149708704495E8 ; 3.916483679644864E8 ; 3.0120699685340576E9 ; 0.0
24 ; 1.8063495255897153E7 ; 1.9439652695237523E8 ; 4.0968802591241044E8 ; 3.1992114656211023E9 ; 0.0
25 ; 1.8078955883250315E7 ; 2.0064837083817992E8 ; 4.277515211683076E8 ; 3.3936079925734777E9 ; 0.0
26 ; 1.8099816006296657E7 ; 2.0065057409293678E8 ; 4.458304770515579E8 ; 3.594256363411658E9 ; 0.0
27 ; 1.8125024426632322E7 ; 2.0065290343394503E8 ; 4.6393029305785453E8 ; 3.794906937504595E9 ; 0.0
28 ; 1.814235013687979E7 ; 2.0065535620616603E8 ; 4.820553174844869E8 ; 3.99555984093854E9 ; 0.0
29 ; 1.8160950789108377E7 ; 2.0065792968730676E8 ; 5.001976676213667E8 ; 4.196215197144706E9 ; 0.0
30 ; 1.8179320423383474E7 ; 2.0066062109933344E8 ; 5.183586184104751E8 ; 4.396873126832012E9 ; 0.0
31 ; 1.8201808180316105E7 ; 2.0066342761957824E8 ; 5.3653793883385855E8 ; 4.597533747931346E9 ; 0.0
32 ; 1.821700111232465E7 ; 2.006663463913703E8 ; 5.547397470141747E8 ; 4.798197175550924E9 ; 0.0
33 ; 1.8241640484756846E7 ; 2.0066937453413382E8 ; 5.729567481264993E8 ; 4.998863521942295E9 ; 0.0
34 ; 1.82553820416831E7 ; 2.0067250915290922E8 ; 5.911983886112561E8 ; 5.199532896476429E9 ; 0.0
35 ; 1.827477187710321E7 ; 2.0067574734726435E8 ; 6.094537706529392E8 ; 5.400205405629338E9 ; 0.0
36 ; 1.8286764843551993E7 ; 2.00679086219574E8 ; 6.277285425300424E8 ; 5.600881152976603E9 ; 0.0
37 ; 1.8308573161873467E7 ; 2.0068252288265565E8 ; 6.460153073735944E8 ; 5.801560239196177E9 ; 0.0
38 ; 1.832296372318359E7 ; 2.006860544667588E8 ; 6.643238805354679E8 ; 6.002242762078833E9 ; 0.0
39 ; 1.8338181801311135E7 ; 2.0068967812591216E8 ; 6.826468442586515E8 ; 6.202928816545591E9 ; 0.0
40 ; 1.8349209841459103E7 ; 2.0069339104364157E8 ; 7.009850260599626E8 ; 6.403618494671503E9 ; 0.0
41 ; 1.8364305014829613E7 ; 2.0069719043807498E8 ; 7.193342359014218E8 ; 6.604311885715145E9 ; 0.0
42 ; 1.837506628277848E7 ; 2.007010735664576E8 ; 7.376985409162514E8 ; 6.80500907615322E9 ; 0.0
43 ; 1.8387196163489662E7 ; 2.0070503772910318E8 ; 7.560736071990299E8 ; 7.005710149719678E9 ; 0.0
44 ; 1.8400905027638156E7 ; 2.0070908027280998E8 ; 7.744608033625196E8 ; 7.206415187448781E9 ; 0.0
45 ; 1.840853262949296E7 ; 2.0071319859377325E8 ; 7.928617083901578E8 ; 7.407124267721591E9 ; 0.0
46 ; 1.8413572032786004E7 ; 2.007173901400256E8 ; 8.112702410196508E8 ; 7.607837466315364E9 ; 0.0
47 ; 1.842937515230385E7 ; 2.0072165241343972E8 ; 8.296838130524368E8 ; 7.808554856455389E9 ; 0.0
48 ; 1.8434936168412995E7 ; 2.007259829713256E8 ; 8.481131882047406E8 ; 8.009276508868829E9 ; 0.0
49 ; 1.844581773685805E7 ; 2.00730379427656E8 ; 8.665481243731537E8 ; 8.210002491840155E9 ; 0.0
50 ; 1.844919828504583E7 ; 2.0073483945395237E8 ; 8.849939421100117E8 ; 8.410732871267811E9 ; 0.0
51 ; 1.8457174013293285E7 ; 2.0073936077986276E8 ; 9.034431403950576E8 ; 8.611467710721764E9 ; 0.0
52 ; 1.8455853927111953E7 ; 2.0074394119346145E8 ; 9.219003144083508E8 ; 8.812207071501627E9 ; 0.0
53 ; 1.8466185646266013E7 ; 2.0074857854129976E8 ; 9.403561683354628E8 ; 9.01295101269509E9 ; 0.0
54 ; 1.847155715070586E7 ; 2.0075327072823474E8 ; 9.588223539817288E8 ; 9.21369959123639E9 ; 0.0
55 ; 1.8471272976695657E7 ; 2.007580157170614E8 ; 9.772939111324346E8 ; 9.414452861964624E9 ; 0.0
56 ; 1.8480783638995785E7 ; 2.0076281152797267E8 ; 9.957651841091303E8 ; 9.615210877681686E9 ; 0.0
57 ; 1.8483315028713025E7 ; 2.007676562378689E8 ; 1.014245967748126E9 ; 9.81597368920966E9 ; 0.0
58 ; 1.8488012348322872E7 ; 2.0077254797953779E8 ; 1.032729282776839E9 ; 1.0016741345447529E10 ; 0.0
59 ; 1.8496369141538292E7 ; 2.007774849407231E8 ; 1.0512172951251619E9 ; 1.0217513893427067E10 ; 0.0
60 ; 1.8502022958709158E7 ; 2.0078246536310014E8 ; 1.0697136642667001E9 ; 1.041829137836779E10 ; 0.0
61 ; 1.850416217137766E7 ; 2.0078748754117295E8 ; 1.0882156872254093E9 ; 1.061907384373089E10 ; 0.0
62 ; 1.850361752706226E7 ; 2.0079254982110775E8 ; 1.106719849396787E9 ; 1.0819861331272062E10 ; 0.0
63 ; 1.850811160595499E7 ; 2.0079765059951562E8 ; 1.125223466923849E9 ; 1.102065388109317E10 ; 0.0
64 ; 1.8511209249423593E7 ; 2.0080278832219568E8 ; 1.143731578529804E9 ; 1.1221451531692686E10 ; 0.0
65 ; 1.851776884840664E7 ; 2.0080796148284918E8 ; 1.1622427877792275E9 ; 1.1422254320014881E10 ; 0.0
66 ; 1.851712974821095E7 ; 2.0081316862177366E8 ; 1.180760556627634E9 ; 1.162306228149773E10 ; 0.0
67 ; 1.8518789160136934E7 ; 2.008184083245452E8 ; 1.199277686375845E9 ; 1.1823875450119503E10 ; 0.0
68 ; 1.8522440352910724E7 ; 2.00823679220696E8 ; 1.217796475535982E9 ; 1.2024693858444048E10 ; 0.0
69 ; 1.8524467309750803E7 ; 2.0082897998239356E8 ; 1.2363189158888927E9 ; 1.2225517537664743E10 ; 0.0
70 ; 1.8530286136230882E7 ; 2.0083430932312664E8 ; 1.2548433831986434E9 ; 1.2426346517647137E10 ; 0.0
71 ; 1.8529794866121985E7 ; 2.0083966599640307E8 ; 1.2733736693348744E9 ; 1.2627180826970263E10 ; 0.0
72 ; 1.8534785653766274E7 ; 2.008450487944633E8 ; 1.2919034642009964E9 ; 1.2828020492966665E10 ; 0.0
73 ; 1.8535867410360232E7 ; 2.0085045654701284E8 ; 1.3104382498547626E9 ; 1.302886554176113E10 ; 0.0
74 ; 1.853934327561912E7 ; 2.0085588811997688E8 ; 1.328974117265123E9 ; 1.3229715998308142E10 ; 0.0
75 ; 1.8535550129877124E7 ; 2.008613424142795E8 ; 1.347513460540742E9 ; 1.3430571886428118E10 ; 0.0
76 ; 1.8537349993223827E7 ; 2.0086681836464888E8 ; 1.366049010670619E9 ; 1.3631433228842398E10 ; 0.0
77 ; 1.8542778331776645E7 ; 2.008723149384508E8 ; 1.384586360663843E9 ; 1.3832300047207047E10 ; 0.0
78 ; 1.8538548232997872E7 ; 2.0087783113455126E8 ; 1.4031291389956195E9 ; 1.4033172362145496E10 ; 0.0
79 ; 1.8528369318017196E7 ; 2.0088336598220903E8 ; 1.4216676872286174E9 ; 1.4234050193280048E10 ; 0.0
80 ; 1.8525331455658786E7 ; 2.0088891853999937E8 ; 1.4401960565466347E9 ; 1.4434933559262257E10 ; 0.0
81 ; 1.852293559160093E7 ; 2.0089448789476877E8 ; 1.4587213880022933E9 ; 1.4635822477802256E10 ; 0.0
82 ; 1.851893478703729E7 ; 2.0090007316062117E8 ; 1.4772443235938942E9 ; 1.4836716965697025E10 ; 0.0
83 ; 1.8515315740355764E7 ; 2.0090567347793558E8 ; 1.4957632583809316E9 ; 1.5037617038857647E10 ; 0.0
84 ; 1.8508183211445477E7 ; 2.009112880124155E8 ; 1.5142785741212873E9 ; 1.5238522712335583E10 ; 0.0
85 ; 1.8500231392454136E7 ; 2.0091691595416906E8 ; 1.532786757332733E9 ; 1.5439434000347998E10 ; 0.0
86 ; 1.849468231135846E7 ; 2.009225565168204E8 ; 1.551286988725187E9 ; 1.5640350916302166E10 ; 0.0
87 ; 1.8490306001614574E7 ; 2.0092820893665108E8 ; 1.5697816710365455E9 ; 1.5841273472818987E10 ; 0.0
88 ; 1.8483976409528922E7 ; 2.009338724717717E8 ; 1.58827197703816E9 ; 1.6042201681755638E10 ; 0.0
89 ; 1.847831161997436E7 ; 2.009395464013226E8 ; 1.606755953447689E9 ; 1.624313555422741E10 ; 0.0
90 ; 1.8473541770867825E7 ; 2.0094523002470344E8 ; 1.6252342650676634E9 ; 1.6444075100628733E10 ; 0.0
91 ; 1.846999531636169E7 ; 2.009509226608304E8 ; 1.6437078068385313E9 ; 1.6645020330653437E10 ; 0.0
92 ; 1.8457594588032518E7 ; 2.0095662364742118E8 ; 1.662177802154893E9 ; 1.6845971253314266E10 ; 0.0
93 ; 1.8454982962982297E7 ; 2.009623323403059E8 ; 1.6806353967429254E9 ; 1.7046927876961687E10 ; 0.0
94 ; 1.8442168467277262E7 ; 2.009680481127644E8 ; 1.6990903797059078E9 ; 1.7247890209301994E10 ; 0.0
95 ; 1.8437912369692784E7 ; 2.0097377035488808E8 ; 1.717532548173185E9 ; 1.744885825741476E10 ; 0.0
96 ; 1.8430984194341462E7 ; 2.0097949847296625E8 ; 1.735970460542878E9 ; 1.764983202776965E10 ; 0.0
97 ; 1.8421082707483243E7 ; 2.009852318888958E8 ; 1.7544014447372193E9 ; 1.7850811526242615E10 ; 0.0
98 ; 1.8412556498227607E7 ; 2.009909700396137E8 ; 1.7728225274447026E9 ; 1.805179675813151E10 ; 0.0
99 ; 1.8410289712322745E7 ; 2.0099671237655112E8 ; 1.7912350839429302E9 ; 1.8252787728171124E10 ; 0.0
100 ; 1.8401221590304453E7 ; 2.0100245836510915E8 ; 1.809645373655253E9 ; 1.8453784440547676E10 ; 0.0
101 ; 1.8387721724397533E7 ; 2.010082074841546E8 ; 1.8280465952455573E9 ; 1.8654786898912785E10 ; 0.0
102 ; 1.8381863378628295E7 ; 2.010139592255356E8 ; 1.8464343169699547E9 ; 1.885579510639694E10 ; 0.0
103 ; 1.8370718478507783E7 ; 2.010197130936161E8 ; 1.864816180348583E9 ; 1.9056809065622475E10 ; 0.0
104 ; 1.8367235357361853E7 ; 2.0102546860482877E8 ; 1.8831868988270907E9 ; 1.925782877871609E10 ; 0.0
105 ; 1.8354694064429995E7 ; 2.0103122528724536E8 ; 1.9015541341844525E9 ; 1.945885424732092E10 ; 0.0
106 ; 1.8349859349338446E7 ; 2.01036982680164E8 ; 1.9199088282488825E9 ; 1.9659885472608166E10 ; 0.0
107 ; 1.8339263290103327E7 ; 2.0104274033371267E8 ; 1.938258687598221E9 ; 1.986092245528833E10 ; 0.0
108 ; 1.8329785096046884E7 ; 2.010484978084685E8 ; 1.9565979508883245E9 ; 2.0061965195622044E10 ; 0.0
109 ; 1.8312332073963825E7 ; 2.0105425467509192E8 ; 1.9749277359843714E9 ; 2.026301369343051E10 ; 0.0
110 ; 1.8310604402304724E7 ; 2.0106001051397526E8 ; 1.9932400680583353E9 ; 2.0464067948105602E10 ; 0.0
111 ; 1.8296075540877733E7 ; 2.0106576491490537E8 ; 2.01155067246064E9 ; 2.066512795861958E10 ; 0.0
112 ; 1.8288524383284554E7 ; 2.0107151747673923E8 ; 2.0298467480015178E9 ; 2.0866193723534485E10 ; 0.0
113 ; 1.827846735456559E7 ; 2.0107726780709264E8 ; 2.0481352723848023E9 ; 2.1067265241011223E10 ; 0.0
114 ; 1.8267485727899563E7 ; 2.0108301552204102E8 ; 2.066413739739368E9 ; 2.1268342508818314E10 ; 0.0
115 ; 1.8254272993339892E7 ; 2.0108876024583206E8 ; 2.0846812254672675E9 ; 2.1469425524340355E10 ; 0.0
116 ; 1.8244287668092806E7 ; 2.010945016106095E8 ; 2.1029354984606073E9 ; 2.1670514284586185E10 ; 0.0
117 ; 1.8236337214379318E7 ; 2.0110023925614792E8 ; 2.1211797861287E9 ; 2.1871608786196796E10 ; 0.0
118 ; 1.8222641112753015E7 ; 2.0110597282959792E8 ; 2.1394161233430793E9 ; 2.2072709025452946E10 ; 0.0
119 ; 1.8211300768390037E7 ; 2.0111170198524103E8 ; 2.1576387644558325E9 ; 2.2273814998282543E10 ; 0.0
120 ; 1.819865866907625E7 ; 2.0111742638425443E8 ; 2.1758500652242227E9 ; 2.2474926700267784E10 ; 0.0
121 ; 1.819127547251268E7 ; 2.011231456944849E8 ; 2.194048723893299E9 ; 2.267604412665204E10 ; 0.0
122 ; 1.8175740795333944E7 ; 2.0112885959023112E8 ; 2.212239999365812E9 ; 2.2877167272346523E10 ; 0.0
123 ; 1.816393535755924E7 ; 2.0113456775203502E8 ; 2.2304157401611457E9 ; 2.3078296131936756E10 ; 0.0
124 ; 1.8150610270820834E7 ; 2.011402698664807E8 ; 2.248579675518705E9 ; 2.327943069968879E10 ; 0.0
125 ; 1.8142205616793953E7 ; 2.0114596562600142E8 ; 2.2667302857895255E9 ; 2.348057096955527E10 ; 0.0
126 ; 1.8126945427650906E7 ; 2.011516547286938E8 ; 2.2848724914063196E9 ; 2.3681716935181274E10 ; 0.0
127 ; 1.811782924804135E7 ; 2.0115733687813947E8 ; 2.3029994368339705E9 ; 2.388286858990997E10 ; 0.0
128 ; 1.810312700263552E7 ; 2.0116301178323317E8 ; 2.3211172660820117E9 ; 2.408402592678811E10 ; 0.0
129 ; 1.8086444345932268E7 ; 2.0116867915801772E8 ; 2.339220393084647E9 ; 2.4285188938571342E10 ; 0.0
130 ; 1.807598808446603E7 ; 2.0117433872152525E8 ; 2.3573068374305797E9 ; 2.448635761772936E10 ; 0.0
131 ; 1.8060146111105703E7 ; 2.011799901976242E8 ; 2.3753828255150456E9 ; 2.4687531956450886E10 ; 0.0
132 ; 1.8035402938807163E7 ; 2.0118563331487247E8 ; 2.3934429716261516E9 ; 2.488871194664851E10 ; 0.0
133 ; 1.801586047089237E7 ; 2.0119126780637586E8 ; 2.4114783745649586E9 ; 2.5089897579963383E10 ; 0.0
134 ; 1.7997951711083874E7 ; 2.0119689340965205E8 ; 2.429494235035851E9 ; 2.529108884776976E10 ; 0.0
135 ; 1.798039528082854E7 ; 2.012025098664995E8 ; 2.447492186746935E9 ; 2.5492285741179413E10 ; 0.0
136 ; 1.795981225366778E7 ; 2.012081169228714E8 ; 2.4654725820277634E9 ; 2.5693488251045914E10 ; 0.0
137 ; 1.794019900036033E7 ; 2.012137143287542E8 ; 2.483432394281431E9 ; 2.5894696367968784E10 ; 0.0
138 ; 1.7917555006757516E7 ; 2.0121930183805078E8 ; 2.5013725932817917E9 ; 2.609591008229754E10 ; 0.0
139 ; 1.7901955419571884E7 ; 2.01224879208468E8 ; 2.5192901482885494E9 ; 2.629712938413559E10 ; 0.0
140 ; 1.7877639729864795E7 ; 2.012304462014081E8 ; 2.5371921037081213E9 ; 2.649835426334406E10 ; 0.0
141 ; 1.7854681986983847E7 ; 2.012360025818645E8 ; 2.555069743437986E9 ; 2.6699584709545467E10 ; 0.0
142 ; 1.784063050471551E7 ; 2.0124154811832127E8 ; 2.5729244254249697E9 ; 2.690082071212733E10 ; 0.0
143 ; 1.7815894857035443E7 ; 2.0124708258265612E8 ; 2.590765055929685E9 ; 2.710206226024565E10 ; 0.0
144 ; 1.7799075233804375E7 ; 2.0125260575004715E8 ; 2.6085809507867208E9 ; 2.730330934282831E10 ; 0.0
145 ; 1.7781915445343688E7 ; 2.01258117398883E8 ; 2.626380026020525E9 ; 2.7504561948578354E10 ; 0.0
146 ; 1.7767918805765998E7 ; 2.01263617310676E8 ; 2.6441619414658685E9 ; 2.7705820065977238E10 ; 0.0
147 ; 1.7756385698336642E7 ; 2.0126910526997885E8 ; 2.6619298602716346E9 ; 2.7907083683287914E10 ; 0.0
148 ; 1.774332065298978E7 ; 2.0127458106430393E8 ; 2.679686245969971E9 ; 2.810835278855789E10 ; 0.0
149 ; 1.7722732397807695E7 ; 2.0128004448404583E8 ; 2.697429566622961E9 ; 2.8309627369622196E10 ; 0.0
150 ; 1.771132927582844E7 ; 2.012854953224063E8 ; 2.7151522990207686E9 ; 2.8510907414106243E10 ; 0.0
151 ; 1.769726259730738E7 ; 2.0129093337532222E8 ; 2.732863628296597E9 ; 2.871219290942865E10 ; 0.0
152 ; 1.7683755375422142E7 ; 2.01296358441396E8 ; 2.750560890893904E9 ; 2.891348384280397E10 ; 0.0
153 ; 1.766882325854069E7 ; 2.013017703218284E8 ; 2.768244646269326E9 ; 2.9114780201245365E10 ; 0.0
154 ; 1.765315447115167E7 ; 2.0130716882035366E8 ; 2.785913469527867E9 ; 2.9316081971567192E10 ; 0.0
155 ; 1.76371345734528E7 ; 2.0131255374317726E8 ; 2.8035666239990187E9 ; 2.9517389140387547E10 ; 0.0
156 ; 1.7624829631137565E7 ; 2.0131792489891535E8 ; 2.8212037585724716E9 ; 2.9718701694130722E10 ; 0.0
157 ; 1.760871060741637E7 ; 2.0132328209853682E8 ; 2.838828588203609E9 ; 2.9920019619029636E10 ; 0.0
158 ; 1.7595942441690613E7 ; 2.013286251553069E8 ; 2.856437298811025E9 ; 3.0121342901128174E10 ; 0.0
159 ; 1.757732114004817E7 ; 2.0133395388473326E8 ; 2.8740332412527156E9 ; 3.032267152628348E10 ; 0.0
160 ; 1.7566451356740966E7 ; 2.0133926810451335E8 ; 2.8916105623927636E9 ; 3.0524005480168217E10 ; 0.0
161 ; 1.754713300723345E7 ; 2.0134456763448417E8 ; 2.9091770137495046E9 ; 3.072534474827273E10 ; 0.0
162 ; 1.7533603109813225E7 ; 2.013498522965734E8 ; 2.926724146756738E9 ; 3.0926689315907215E10 ; 0.0
163 ; 1.7514457164004803E7 ; 2.0135512191475227E8 ; 2.9442577498665514E9 ; 3.112803916820379E10 ; 0.0
164 ; 1.7505354685842566E7 ; 2.013603763149901E8 ; 2.961772207030556E9 ; 3.132939429011854E10 ; 0.0
165 ; 1.7489118030446887E7 ; 2.0136561532521042E8 ; 2.9792775617163987E9 ; 3.1530754666433533E10 ; 0.0
166 ; 1.7470809896015197E7 ; 2.013708387752485E8 ; 2.9967666797468457E9 ; 3.1732120281758743E10 ; 0.0
167 ; 1.7456675222167864E7 ; 2.0137604649681026E8 ; 3.014237489642861E9 ; 3.1933491120533993E10 ; 0.0
168 ; 1.7438508264384933E7 ; 2.0138123832343283E8 ; 3.031694164865029E9 ; 3.2134867167030804E10 ; 0.0
169 ; 1.742681036034033E7 ; 2.0138641409044623E8 ; 3.0491326731294136E9 ; 3.2336248405354237E10 ; 0.0
170 ; 1.7411957345430735E7 ; 2.0139157363493627E8 ; 3.0665594834897537E9 ; 3.2537634819444683E10 ; 0.0
171 ; 1.7393251461860273E7 ; 2.0139671679570892E8 ; 3.0839714408351846E9 ; 3.273902639307962E10 ; 0.0
172 ; 1.7379479790507358E7 ; 2.0140184341325578E8 ; 3.1013646922970448E9 ; 3.2940423109875328E10 ; 0.0
173 ; 1.7365550940340202E7 ; 2.014069533297206E8 ; 3.118744172087552E9 ; 3.3141824953288586E10 ; 0.0
174 ; 1.7356400631230038E7 ; 2.0141204638886696E8 ; 3.136109723027892E9 ; 3.3343231906618305E10 ; 0.0
175 ; 1.734373344976177E7 ; 2.0141712243604723E8 ; 3.153466123659122E9 ; 3.354464395300717E10 ; 0.0
176 ; 1.7336538835905828E7 ; 2.014221813181722E8 ; 3.170809857108884E9 ; 3.374606107544322E10 ; 0.0
177 ; 1.73249755304793E7 ; 2.0142722288368198E8 ; 3.18814639594479E9 ; 3.394748325676139E10 ; 0.0
178 ; 1.7314304489211548E7 ; 2.0143224698251775E8 ; 3.2054713714752693E9 ; 3.4148910479645073E10 ; 0.0
179 ; 1.7305278638816163E7 ; 2.0143725346609446E8 ; 3.222785675964481E9 ; 3.435034272662759E10 ; 0.0
180 ; 1.729371730976756E7 ; 2.0144224218727446E8 ; 3.240090954603297E9 ; 3.455177998009368E10 ; 0.0
181 ; 1.728166219754149E7 ; 2.0144721300034183E8 ; 3.257384671913065E9 ; 3.475322222228095E10 ; 0.0
182 ; 1.727435478429138E7 ; 2.0145216576097783E8 ; 3.2746663341106067E9 ; 3.4954669435281296E10 ; 0.0
183 ; 1.726714791783073E7 ; 2.0145710032623684E8 ; 3.291940688894898E9 ; 3.5156121601042274E10 ; 0.0
184 ; 1.725355813563626E7 ; 2.0146201655452332E8 ; 3.309207836812729E9 ; 3.5357578701368515E10 ; 0.0
185 ; 1.724883450548056E7 ; 2.0146691430556932E8 ; 3.326461394948365E9 ; 3.5559040717923035E10 ; 0.0
186 ; 1.723795349835849E7 ; 2.0147179344041294E8 ; 3.343710229453846E9 ; 3.576050763222861E10 ; 0.0
187 ; 1.7226327309113868E7 ; 2.0147665382137722E8 ; 3.3609481829522047E9 ; 3.596197942566902E10 ; 0.0
188 ; 1.7213615512615167E7 ; 2.0148149531204996E8 ; 3.3781745102613187E9 ; 3.61634560794904E10 ; 0.0
189 ; 1.7206816140930817E7 ; 2.0148631777726397E8 ; 3.395388125773934E9 ; 3.636493757480245E10 ; 0.0
190 ; 1.7198316102311395E7 ; 2.0149112108307812E8 ; 3.4125949419148645E9 ; 3.656642389257972E10 ; 0.0
191 ; 1.7185747211568363E7 ; 2.0149590509675884E8 ; 3.429793258017176E9 ; 3.6767915013662796E10 ; 0.0
192 ; 1.717909706073492E7 ; 2.0150066968676248E8 ; 3.4469790052287445E9 ; 3.696941091875955E10 ; 0.0
193 ; 1.7169506155670885E7 ; 2.0150541472271773E8 ; 3.4641581022894793E9 ; 3.717091158844631E10 ; 0.0
194 ; 1.7161372789070666E7 ; 2.0151014007540926E8 ; 3.4813276084451504E9 ; 3.737241700316903E10 ; 0.0
195 ; 1.7148728100314755E7 ; 2.0151484561676124E8 ; 3.498488981234221E9 ; 3.757392714324444E10 ; 0.0
