CSV File for the City 5 on Day 10
1 - Minute m 
2 - Power Consumed at minute m 
3 - Power Produced at minute m 
4 - Energy Consumed since the beginning of the day 
5 - Energy Produced since the beginning of the day 
6 - Energy Lost since the beginning of the day on lines starting from the city
 
0 ; 8484757.103794638 ; 1.010209504858628E7 ; 0.0 ; 0.0 ; 0.0
1 ; 8494489.618684564 ; 1.010209504858628E7 ; 8484757.103794638 ; 1.010209504858628E7 ; 0.0
2 ; 8504058.646840073 ; 1.010209504858628E7 ; 1.69792467224792E7 ; 2.020419009717256E7 ; 0.0
3 ; 8513607.313360214 ; 1.010209504858628E7 ; 2.5483305369319275E7 ; 3.0306285145758837E7 ; 0.0
4 ; 8526634.725717356 ; 1.010209504858628E7 ; 3.399691268267949E7 ; 4.040838019434512E7 ; 0.0
5 ; 8543231.89816556 ; 1.010209504858628E7 ; 4.252354740839685E7 ; 5.0510475242931396E7 ; 0.0
6 ; 8564716.156527912 ; 1.010209504858628E7 ; 5.106677930656241E7 ; 6.0612570291517675E7 ; 0.0
7 ; 8592125.253948158 ; 1.010209504858628E7 ; 5.963149546309032E7 ; 7.071466534010395E7 ; 0.0
8 ; 8636601.060566027 ; 1.010209504858628E7 ; 6.822362071703848E7 ; 8.081676038869023E7 ; 0.0
9 ; 8696116.147457711 ; 1.010209504858628E7 ; 7.68602217776045E7 ; 9.091885543727651E7 ; 0.0
10 ; 8791779.726207536 ; 1.010209504858628E7 ; 8.555633792506221E7 ; 1.0102095048586279E8 ; 0.0
11 ; 8947668.587239303 ; 1.010209504858628E7 ; 9.434811765126975E7 ; 1.1112304553444907E8 ; 0.0
12 ; 9199719.256827315 ; 1.010209504858628E7 ; 1.0329578623850906E8 ; 1.2122514058303535E8 ; 0.0
13 ; 9436261.065132786 ; 1.010209504858628E7 ; 1.1249550549533637E8 ; 1.3132723563162163E8 ; 0.0
14 ; 9466531.833417783 ; 1.010209504858628E7 ; 1.2193176656046915E8 ; 1.414293306802079E8 ; 0.0
15 ; 9473097.657623187 ; 1.010209504858628E7 ; 1.3139829839388694E8 ; 1.515314257287942E8 ; 0.0
16 ; 9488185.051078478 ; 1.010209504858628E7 ; 1.4087139605151013E8 ; 1.6163352077738047E8 ; 0.0
17 ; 9496472.49499462 ; 1.010209504858628E7 ; 1.503595811025886E8 ; 1.7173561582596675E8 ; 0.0
18 ; 9507339.750533145 ; 1.010209504858628E7 ; 1.598560535975832E8 ; 1.8183771087455302E8 ; 0.0
19 ; 9521452.342867384 ; 1.010209504858628E7 ; 1.6936339334811634E8 ; 1.919398059231393E8 ; 0.0
20 ; 9529260.346654192 ; 1.010209504858628E7 ; 1.788848456909837E8 ; 2.0204190097172558E8 ; 0.0
21 ; 9544533.179772558 ; 1.010209504858628E7 ; 1.884141060376379E8 ; 2.1214399602031186E8 ; 0.0
22 ; 9555165.217427842 ; 1.010209504858628E7 ; 1.9795863921741045E8 ; 2.2224609106889814E8 ; 0.0
23 ; 9564684.086785628 ; 1.010209504858628E7 ; 2.075138044348383E8 ; 2.3234818611748442E8 ; 0.0
24 ; 9576934.547517283 ; 1.010209504858628E7 ; 2.170784885216239E8 ; 2.424502811660707E8 ; 0.0
25 ; 9586064.84559894 ; 1.010209504858628E7 ; 2.2665542306914118E8 ; 2.5255237621465698E8 ; 0.0
26 ; 9600025.407366646 ; 1.010209504858628E7 ; 2.3624148791474012E8 ; 2.6265447126324326E8 ; 0.0
27 ; 9605339.076920005 ; 1.010209504858628E7 ; 2.4584151332210675E8 ; 2.7275656631182957E8 ; 0.0
28 ; 9619024.961107785 ; 1.010209504858628E7 ; 2.5544685239902675E8 ; 2.828586613604158E8 ; 0.0
29 ; 9629567.661119662 ; 1.010209504858628E7 ; 2.6506587736013454E8 ; 2.9296075640900207E8 ; 0.0
30 ; 9640502.85532557 ; 1.010209504858628E7 ; 2.746954450212542E8 ; 3.030628514575883E8 ; 0.0
31 ; 9652509.037967993 ; 1.010209504858628E7 ; 2.8433594787657976E8 ; 3.1316494650617456E8 ; 0.0
32 ; 9659855.497226072 ; 1.010209504858628E7 ; 2.9398845691454774E8 ; 3.232670415547608E8 ; 0.0
33 ; 9670266.18532449 ; 1.010209504858628E7 ; 3.036483124117738E8 ; 3.3336913660334706E8 ; 0.0
34 ; 9680878.751438973 ; 1.010209504858628E7 ; 3.133185785970983E8 ; 3.434712316519333E8 ; 0.0
35 ; 9690676.189656844 ; 1.010209504858628E7 ; 3.2299945734853727E8 ; 3.5357332670051956E8 ; 0.0
36 ; 9698796.598643394 ; 1.010209504858628E7 ; 3.326901335381941E8 ; 3.636754217491058E8 ; 0.0
37 ; 9709045.953386365 ; 1.010209504858628E7 ; 3.4238893013683754E8 ; 3.7377751679769206E8 ; 0.0
38 ; 9713629.62364735 ; 1.010209504858628E7 ; 3.520979760902239E8 ; 3.838796118462783E8 ; 0.0
39 ; 9720296.260100592 ; 1.010209504858628E7 ; 3.6181160571387124E8 ; 3.9398170689486456E8 ; 0.0
40 ; 9730996.285416257 ; 1.010209504858628E7 ; 3.7153190197397184E8 ; 4.040838019434508E8 ; 0.0
41 ; 9736555.52487006 ; 1.010209504858628E7 ; 3.812628982593881E8 ; 4.1418589699203706E8 ; 0.0
42 ; 9743700.866541075 ; 1.010209504858628E7 ; 3.909994537842581E8 ; 4.242879920406233E8 ; 0.0
43 ; 9751718.161108732 ; 1.010209504858628E7 ; 4.007431546507992E8 ; 4.3439008708920956E8 ; 0.0
44 ; 9753033.19817005 ; 1.010209504858628E7 ; 4.1049487281190795E8 ; 4.444921821377958E8 ; 0.0
45 ; 9764496.460206848 ; 1.010209504858628E7 ; 4.20247906010078E8 ; 4.5459427718638206E8 ; 0.0
46 ; 9764454.489837969 ; 1.010209504858628E7 ; 4.300124024702849E8 ; 4.646963722349683E8 ; 0.0
47 ; 9770801.838736493 ; 1.010209504858628E7 ; 4.397768569601228E8 ; 4.7479846728355455E8 ; 0.0
48 ; 9778755.227683458 ; 1.010209504858628E7 ; 4.495476587988593E8 ; 4.849005623321408E8 ; 0.0
49 ; 9778338.257114964 ; 1.010209504858628E7 ; 4.593264140265428E8 ; 4.9500265738072705E8 ; 0.0
50 ; 9781772.741468174 ; 1.010209504858628E7 ; 4.691047522836577E8 ; 5.051047524293133E8 ; 0.0
51 ; 9783489.491292894 ; 1.010209504858628E7 ; 4.788865250251259E8 ; 5.1520684747789955E8 ; 0.0
52 ; 9787127.930285152 ; 1.010209504858628E7 ; 4.886700145164188E8 ; 5.253089425264858E8 ; 0.0
53 ; 9791054.916451907 ; 1.010209504858628E7 ; 4.98457142446704E8 ; 5.3541103757507205E8 ; 0.0
54 ; 9792812.846158883 ; 1.010209504858628E7 ; 5.082481973631559E8 ; 5.455131326236583E8 ; 0.0
55 ; 9793899.127334375 ; 1.010209504858628E7 ; 5.1804101020931476E8 ; 5.556152276722445E8 ; 0.0
56 ; 9796187.341247996 ; 1.010209504858628E7 ; 5.278349093366491E8 ; 5.657173227208308E8 ; 0.0
57 ; 9797560.01279437 ; 1.010209504858628E7 ; 5.376310966778971E8 ; 5.75819417769417E8 ; 0.0
58 ; 9802309.016136086 ; 1.010209504858628E7 ; 5.474286566906915E8 ; 5.859215128180033E8 ; 0.0
59 ; 9804513.366448151 ; 1.010209504858628E7 ; 5.572309657068275E8 ; 5.960236078665895E8 ; 0.0
60 ; 9806521.828383313 ; 1.010209504858628E7 ; 5.670354790732757E8 ; 6.061257029151758E8 ; 0.0
61 ; 9805113.70473719 ; 1.010209504858628E7 ; 5.76842000901659E8 ; 6.16227797963762E8 ; 0.0
62 ; 9807482.58016915 ; 1.010209504858628E7 ; 5.866471146063962E8 ; 6.263298930123483E8 ; 0.0
63 ; 9809305.111557035 ; 1.010209504858628E7 ; 5.964545971865654E8 ; 6.364319880609345E8 ; 0.0
64 ; 9811265.156141086 ; 1.010209504858628E7 ; 6.062639022981224E8 ; 6.465340831095208E8 ; 0.0
65 ; 9814548.192910457 ; 1.010209504858628E7 ; 6.160751674542634E8 ; 6.56636178158107E8 ; 0.0
66 ; 9814230.904003687 ; 1.010209504858628E7 ; 6.258897156471739E8 ; 6.667382732066933E8 ; 0.0
67 ; 9813747.178018138 ; 1.010209504858628E7 ; 6.357039465511776E8 ; 6.768403682552795E8 ; 0.0
68 ; 9818825.65943162 ; 1.010209504858628E7 ; 6.455176937291957E8 ; 6.869424633038658E8 ; 0.0
69 ; 9820241.831706662 ; 1.010209504858628E7 ; 6.553365193886273E8 ; 6.97044558352452E8 ; 0.0
70 ; 9819577.612922749 ; 1.010209504858628E7 ; 6.651567612203339E8 ; 7.071466534010383E8 ; 0.0
71 ; 9820561.089062434 ; 1.010209504858628E7 ; 6.749763388332567E8 ; 7.172487484496245E8 ; 0.0
72 ; 9819701.748685842 ; 1.010209504858628E7 ; 6.847968999223192E8 ; 7.273508434982108E8 ; 0.0
73 ; 9821999.440692311 ; 1.010209504858628E7 ; 6.94616601671005E8 ; 7.37452938546797E8 ; 0.0
74 ; 9821721.869363409 ; 1.010209504858628E7 ; 7.044386011116973E8 ; 7.475550335953833E8 ; 0.0
75 ; 9825788.0990444 ; 1.010209504858628E7 ; 7.142603229810607E8 ; 7.576571286439695E8 ; 0.0
76 ; 9823987.562223427 ; 1.010209504858628E7 ; 7.240861110801052E8 ; 7.677592236925558E8 ; 0.0
77 ; 9823683.822982337 ; 1.010209504858628E7 ; 7.339100986423286E8 ; 7.77861318741142E8 ; 0.0
78 ; 9819965.301936343 ; 1.010209504858628E7 ; 7.437337824653109E8 ; 7.879634137897283E8 ; 0.0
79 ; 9820642.28152393 ; 1.010209504858628E7 ; 7.535537477672473E8 ; 7.980655088383145E8 ; 0.0
80 ; 9817383.20126723 ; 1.010209504858628E7 ; 7.633743900487713E8 ; 8.081676038869008E8 ; 0.0
81 ; 9814132.834819077 ; 1.010209504858628E7 ; 7.731917732500385E8 ; 8.18269698935487E8 ; 0.0
82 ; 9809700.91865396 ; 1.010209504858628E7 ; 7.830059060848576E8 ; 8.283717939840733E8 ; 0.0
83 ; 9806918.65254979 ; 1.010209504858628E7 ; 7.928156070035115E8 ; 8.384738890326595E8 ; 0.0
84 ; 9803983.027485246 ; 1.010209504858628E7 ; 8.026225256560613E8 ; 8.485759840812458E8 ; 0.0
85 ; 9801322.842573766 ; 1.010209504858628E7 ; 8.124265086835465E8 ; 8.58678079129832E8 ; 0.0
86 ; 9796819.570673447 ; 1.010209504858628E7 ; 8.222278315261203E8 ; 8.687801741784183E8 ; 0.0
87 ; 9793851.159010198 ; 1.010209504858628E7 ; 8.320246510967938E8 ; 8.788822692270045E8 ; 0.0
88 ; 9788362.145420978 ; 1.010209504858628E7 ; 8.41818502255804E8 ; 8.889843642755908E8 ; 0.0
89 ; 9787196.785250107 ; 1.010209504858628E7 ; 8.51606864401225E8 ; 8.99086459324177E8 ; 0.0
90 ; 9781730.993505647 ; 1.010209504858628E7 ; 8.61394061186475E8 ; 9.091885543727633E8 ; 0.0
91 ; 9779247.304040141 ; 1.010209504858628E7 ; 8.711757921799806E8 ; 9.192906494213495E8 ; 0.0
92 ; 9774232.05533029 ; 1.010209504858628E7 ; 8.809550394840208E8 ; 9.293927444699358E8 ; 0.0
93 ; 9769228.56790181 ; 1.010209504858628E7 ; 8.907292715393511E8 ; 9.39494839518522E8 ; 0.0
94 ; 9764880.17619505 ; 1.010209504858628E7 ; 9.00498500107253E8 ; 9.495969345671083E8 ; 0.0
95 ; 9762825.577124456 ; 1.010209504858628E7 ; 9.10263380283448E8 ; 9.596990296156945E8 ; 0.0
96 ; 9758426.526396522 ; 1.010209504858628E7 ; 9.200262058605725E8 ; 9.698011246642808E8 ; 0.0
97 ; 9752496.191633217 ; 1.010209504858628E7 ; 9.29784632386969E8 ; 9.79903219712867E8 ; 0.0
98 ; 9750658.786301095 ; 1.010209504858628E7 ; 9.395371285786022E8 ; 9.900053147614533E8 ; 0.0
99 ; 9742877.073256822 ; 1.010209504858628E7 ; 9.492877873649033E8 ; 1.0001074098100395E9 ; 0.0
100 ; 9742718.50333058 ; 1.010209504858628E7 ; 9.590306644381602E8 ; 1.0102095048586258E9 ; 0.0
101 ; 9735661.893689746 ; 1.010209504858628E7 ; 9.687733829414908E8 ; 1.020311599907212E9 ; 0.0
102 ; 9727342.9691614 ; 1.010209504858628E7 ; 9.785090448351805E8 ; 1.0304136949557983E9 ; 0.0
103 ; 9723332.9107245 ; 1.010209504858628E7 ; 9.882363878043419E8 ; 1.0405157900043845E9 ; 0.0
104 ; 9719646.287004825 ; 1.010209504858628E7 ; 9.979597207150664E8 ; 1.0506178850529708E9 ; 0.0
105 ; 9711315.67385128 ; 1.010209504858628E7 ; 1.0076793670020713E9 ; 1.060719980101557E9 ; 0.0
106 ; 9709852.592799226 ; 1.010209504858628E7 ; 1.0173906826759225E9 ; 1.0708220751501433E9 ; 0.0
107 ; 9700515.649896229 ; 1.010209504858628E7 ; 1.0271005352687217E9 ; 1.0809241701987295E9 ; 0.0
108 ; 9698789.952797124 ; 1.010209504858628E7 ; 1.036801050918618E9 ; 1.091026265247316E9 ; 0.0
109 ; 9690620.844541155 ; 1.010209504858628E7 ; 1.0464998408714151E9 ; 1.1011283602959023E9 ; 0.0
110 ; 9687163.652127722 ; 1.010209504858628E7 ; 1.0561904617159563E9 ; 1.1112304553444886E9 ; 0.0
111 ; 9681069.33735243 ; 1.010209504858628E7 ; 1.0658776253680841E9 ; 1.121332550393075E9 ; 0.0
112 ; 9674591.539785778 ; 1.010209504858628E7 ; 1.0755586947054365E9 ; 1.1314346454416614E9 ; 0.0
113 ; 9669540.348699862 ; 1.010209504858628E7 ; 1.0852332862452223E9 ; 1.1415367404902477E9 ; 0.0
114 ; 9662154.258227013 ; 1.010209504858628E7 ; 1.0949028265939221E9 ; 1.151638835538834E9 ; 0.0
115 ; 9654592.497848554 ; 1.010209504858628E7 ; 1.1045649808521492E9 ; 1.1617409305874205E9 ; 0.0
116 ; 9650361.628141373 ; 1.010209504858628E7 ; 1.1142195733499978E9 ; 1.1718430256360068E9 ; 0.0
117 ; 9641081.664144292 ; 1.010209504858628E7 ; 1.1238699349781392E9 ; 1.1819451206845932E9 ; 0.0
118 ; 9637970.721461622 ; 1.010209504858628E7 ; 1.1335110166422834E9 ; 1.1920472157331796E9 ; 0.0
119 ; 9631702.539565409 ; 1.010209504858628E7 ; 1.143148987363745E9 ; 1.202149310781766E9 ; 0.0
120 ; 9623218.7609929 ; 1.010209504858628E7 ; 1.1527806899033103E9 ; 1.2122514058303523E9 ; 0.0
121 ; 9617299.722941611 ; 1.010209504858628E7 ; 1.1624039086643033E9 ; 1.2223535008789387E9 ; 0.0
122 ; 9611069.14962905 ; 1.010209504858628E7 ; 1.172021208387245E9 ; 1.232455595927525E9 ; 0.0
123 ; 9603435.713454673 ; 1.010209504858628E7 ; 1.181632277536874E9 ; 1.2425576909761114E9 ; 0.0
124 ; 9594753.211890368 ; 1.010209504858628E7 ; 1.1912357132503288E9 ; 1.2526597860246978E9 ; 0.0
125 ; 9586292.422517939 ; 1.010209504858628E7 ; 1.2008304664622192E9 ; 1.2627618810732841E9 ; 0.0
126 ; 9581610.954953734 ; 1.010209504858628E7 ; 1.2104167588847373E9 ; 1.2728639761218705E9 ; 0.0
127 ; 9573722.5791994 ; 1.010209504858628E7 ; 1.219998369839691E9 ; 1.282966071170457E9 ; 0.0
128 ; 9568988.024537409 ; 1.010209504858628E7 ; 1.2295720924188902E9 ; 1.2930681662190433E9 ; 0.0
129 ; 9561043.073471615 ; 1.010209504858628E7 ; 1.2391410804434276E9 ; 1.3031702612676296E9 ; 0.0
130 ; 9549280.74473764 ; 1.010209504858628E7 ; 1.248702123516899E9 ; 1.313272356316216E9 ; 0.0
131 ; 9536716.649567654 ; 1.010209504858628E7 ; 1.2582514042616367E9 ; 1.3233744513648024E9 ; 0.0
132 ; 9527917.259781927 ; 1.010209504858628E7 ; 1.2677881209112043E9 ; 1.3334765464133887E9 ; 0.0
133 ; 9518224.511694247 ; 1.010209504858628E7 ; 1.2773160381709862E9 ; 1.343578641461975E9 ; 0.0
134 ; 9506371.119657133 ; 1.010209504858628E7 ; 1.2868342626826804E9 ; 1.3536807365105615E9 ; 0.0
135 ; 9497367.116956389 ; 1.010209504858628E7 ; 1.2963406338023374E9 ; 1.3637828315591478E9 ; 0.0
136 ; 9485855.809383744 ; 1.010209504858628E7 ; 1.3058380009192939E9 ; 1.3738849266077342E9 ; 0.0
137 ; 9473488.575343534 ; 1.010209504858628E7 ; 1.3153238567286775E9 ; 1.3839870216563206E9 ; 0.0
138 ; 9460823.681567904 ; 1.010209504858628E7 ; 1.3247973453040211E9 ; 1.394089116704907E9 ; 0.0
139 ; 9452752.916060477 ; 1.010209504858628E7 ; 1.334258168985589E9 ; 1.4041912117534933E9 ; 0.0
140 ; 9439944.870623985 ; 1.010209504858628E7 ; 1.3437109219016495E9 ; 1.4142933068020797E9 ; 0.0
141 ; 9429136.146114072 ; 1.010209504858628E7 ; 1.3531508667722735E9 ; 1.424395401850666E9 ; 0.0
142 ; 9416434.483649883 ; 1.010209504858628E7 ; 1.3625800029183877E9 ; 1.4344974968992524E9 ; 0.0
143 ; 9405528.508035773 ; 1.010209504858628E7 ; 1.3719964374020376E9 ; 1.4445995919478388E9 ; 0.0
144 ; 9392288.29423245 ; 1.010209504858628E7 ; 1.3814019659100733E9 ; 1.4547016869964252E9 ; 0.0
145 ; 9385676.6382464 ; 1.010209504858628E7 ; 1.3907942542043056E9 ; 1.4648037820450115E9 ; 0.0
146 ; 9374734.582483433 ; 1.010209504858628E7 ; 1.400179930842552E9 ; 1.474905877093598E9 ; 0.0
147 ; 9368738.323705949 ; 1.010209504858628E7 ; 1.4095546654250355E9 ; 1.4850079721421843E9 ; 0.0
148 ; 9363084.575186213 ; 1.010209504858628E7 ; 1.4189234037487414E9 ; 1.4951100671907706E9 ; 0.0
149 ; 9351645.39260646 ; 1.010209504858628E7 ; 1.4282864883239276E9 ; 1.505212162239357E9 ; 0.0
150 ; 9345435.023478549 ; 1.010209504858628E7 ; 1.4376381337165341E9 ; 1.5153142572879434E9 ; 0.0
151 ; 9335556.32283246 ; 1.010209504858628E7 ; 1.4469835687400126E9 ; 1.5254163523365297E9 ; 0.0
152 ; 9326205.767281193 ; 1.010209504858628E7 ; 1.456319125062845E9 ; 1.535518447385116E9 ; 0.0
153 ; 9316903.631450294 ; 1.010209504858628E7 ; 1.4656453308301263E9 ; 1.5456205424337025E9 ; 0.0
154 ; 9309034.606786909 ; 1.010209504858628E7 ; 1.4749622344615765E9 ; 1.5557226374822888E9 ; 0.0
155 ; 9301173.15875032 ; 1.010209504858628E7 ; 1.4842712690683634E9 ; 1.5658247325308752E9 ; 0.0
156 ; 9293542.591050832 ; 1.010209504858628E7 ; 1.4935724422271137E9 ; 1.5759268275794616E9 ; 0.0
157 ; 9285334.620659813 ; 1.010209504858628E7 ; 1.5028659848181646E9 ; 1.586028922628048E9 ; 0.0
158 ; 9275590.962968193 ; 1.010209504858628E7 ; 1.5121513194388244E9 ; 1.5961310176766343E9 ; 0.0
159 ; 9265036.024920594 ; 1.010209504858628E7 ; 1.5214269104017925E9 ; 1.6062331127252207E9 ; 0.0
160 ; 9261270.780367652 ; 1.010209504858628E7 ; 1.5306919464267132E9 ; 1.616335207773807E9 ; 0.0
161 ; 9248868.331193257 ; 1.010209504858628E7 ; 1.5399532172070808E9 ; 1.6264373028223934E9 ; 0.0
162 ; 9243181.303249875 ; 1.010209504858628E7 ; 1.549202085538274E9 ; 1.6365393978709798E9 ; 0.0
163 ; 9235159.678868352 ; 1.010209504858628E7 ; 1.558445266841524E9 ; 1.6466414929195662E9 ; 0.0
164 ; 9222562.487623876 ; 1.010209504858628E7 ; 1.5676804265203922E9 ; 1.6567435879681525E9 ; 0.0
165 ; 9212542.577939002 ; 1.010209504858628E7 ; 1.576902989008016E9 ; 1.666845683016739E9 ; 0.0
166 ; 9206434.315918772 ; 1.010209504858628E7 ; 1.5861155315859551E9 ; 1.6769477780653253E9 ; 0.0
167 ; 9195772.654104937 ; 1.010209504858628E7 ; 1.5953219659018738E9 ; 1.6870498731139116E9 ; 0.0
168 ; 9185823.197602686 ; 1.010209504858628E7 ; 1.6045177385559788E9 ; 1.697151968162498E9 ; 0.0
169 ; 9178078.857128533 ; 1.010209504858628E7 ; 1.6137035617535815E9 ; 1.7072540632110844E9 ; 0.0
170 ; 9172558.307306562 ; 1.010209504858628E7 ; 1.6228816406107101E9 ; 1.7173561582596707E9 ; 0.0
171 ; 9161794.489997793 ; 1.010209504858628E7 ; 1.6320541989180167E9 ; 1.727458253308257E9 ; 0.0
172 ; 9148261.486994354 ; 1.010209504858628E7 ; 1.6412159934080145E9 ; 1.7375603483568435E9 ; 0.0
173 ; 9141243.64448207 ; 1.010209504858628E7 ; 1.6503642548950088E9 ; 1.7476624434054298E9 ; 0.0
174 ; 9138478.044482585 ; 1.010209504858628E7 ; 1.659505498539491E9 ; 1.7577645384540162E9 ; 0.0
175 ; 9133078.131837174 ; 1.010209504858628E7 ; 1.6686439765839734E9 ; 1.7678666335026026E9 ; 0.0
176 ; 9127016.649833491 ; 1.010209504858628E7 ; 1.6777770547158105E9 ; 1.777968728551189E9 ; 0.0
177 ; 9122460.51705458 ; 1.010209504858628E7 ; 1.686904071365644E9 ; 1.7880708235997753E9 ; 0.0
178 ; 9117833.588338897 ; 1.010209504858628E7 ; 1.6960265318826985E9 ; 1.7981729186483617E9 ; 0.0
179 ; 9110652.101595806 ; 1.010209504858628E7 ; 1.7051443654710374E9 ; 1.808275013696948E9 ; 0.0
180 ; 9103361.490933081 ; 1.010209504858628E7 ; 1.7142550175726333E9 ; 1.8183771087455344E9 ; 0.0
181 ; 9095315.366512496 ; 1.010209504858628E7 ; 1.7233583790635664E9 ; 1.8284792037941208E9 ; 0.0
182 ; 9094860.307005204 ; 1.010209504858628E7 ; 1.732453694430079E9 ; 1.8385812988427072E9 ; 0.0
183 ; 9087713.083996922 ; 1.010209504858628E7 ; 1.7415485547370842E9 ; 1.8486833938912935E9 ; 0.0
184 ; 9080709.910843877 ; 1.010209504858628E7 ; 1.7506362678210812E9 ; 1.85878548893988E9 ; 0.0
185 ; 9073248.70971029 ; 1.010209504858628E7 ; 1.759716977731925E9 ; 1.8688875839884663E9 ; 0.0
186 ; 9071203.367257997 ; 1.010209504858628E7 ; 1.7687902264416354E9 ; 1.8789896790370526E9 ; 0.0
187 ; 9065780.475295 ; 1.010209504858628E7 ; 1.7778614298088934E9 ; 1.889091774085639E9 ; 0.0
188 ; 9060062.04755452 ; 1.010209504858628E7 ; 1.7869272102841885E9 ; 1.8991938691342254E9 ; 0.0
189 ; 9051554.166921599 ; 1.010209504858628E7 ; 1.795987272331743E9 ; 1.9092959641828117E9 ; 0.0
190 ; 9048283.663632374 ; 1.010209504858628E7 ; 1.8050388264986646E9 ; 1.919398059231398E9 ; 0.0
191 ; 9044052.27681699 ; 1.010209504858628E7 ; 1.814087110162297E9 ; 1.9295001542799845E9 ; 0.0
192 ; 9037640.300864004 ; 1.010209504858628E7 ; 1.823131162439114E9 ; 1.9396022493285708E9 ; 0.0
193 ; 9030155.030923927 ; 1.010209504858628E7 ; 1.832168802739978E9 ; 1.9497043443771572E9 ; 0.0
194 ; 9025146.659787709 ; 1.010209504858628E7 ; 1.841198957770902E9 ; 1.9598064394257436E9 ; 0.0
195 ; 9019613.741854949 ; 1.010209504858628E7 ; 1.8502241044306896E9 ; 1.96990853447433E9 ; 0.0
196 ; 9016074.977673445 ; 1.010209504858628E7 ; 1.8592437181725445E9 ; 1.9800106295229163E9 ; 0.0
197 ; 9010192.008857112 ; 1.010209504858628E7 ; 1.868259793150218E9 ; 1.9901127245715027E9 ; 0.0
198 ; 9004807.47974252 ; 1.010209504858628E7 ; 1.877269985159075E9 ; 2.000214819620089E9 ; 0.0
199 ; 8999491.478203788 ; 1.010209504858628E7 ; 1.8862747926388175E9 ; 2.0103169146686754E9 ; 0.0
200 ; 8993593.72182832 ; 1.010209504858628E7 ; 1.8952742841170213E9 ; 2.0204190097172618E9 ; 0.0
201 ; 8987323.20112584 ; 1.010209504858628E7 ; 1.9042678778388495E9 ; 2.0305211047658482E9 ; 0.0
202 ; 8982575.81571209 ; 1.010209504858628E7 ; 1.9132552010399754E9 ; 2.0406231998144345E9 ; 0.0
203 ; 8975405.068907002 ; 1.010209504858628E7 ; 1.9222377768556874E9 ; 2.050725294863021E9 ; 0.0
204 ; 8969453.288873486 ; 1.010209504858628E7 ; 1.9312131819245944E9 ; 2.0608273899116073E9 ; 0.0
