CSV File for the City 6 on Day 334
1 - Minute m 
2 - Power Consumed at minute m 
3 - Power Produced at minute m 
4 - Energy Consumed since the beginning of the day 
5 - Energy Produced since the beginning of the day 
6 - Energy Lost since the beginning of the day on lines starting from the city
 
0 ; 1.1217000899115726E7 ; 1.0650427027459487E8 ; 0.0 ; 0.0 ; 0.0
1 ; 1.1228000378212987E7 ; 1.0665509610765016E8 ; 1.1217000899115726E7 ; 1.0650427027459487E8 ; 0.0
2 ; 1.123937118146311E7 ; 1.0711492336063567E8 ; 2.2445001277328715E7 ; 2.1315936638224503E8 ; 0.0
3 ; 1.1253525782027835E7 ; 1.0788375480877209E8 ; 3.368437245879182E7 ; 3.202742897428807E8 ; 0.0
4 ; 1.1272570235981058E7 ; 1.0896159292802203E8 ; 4.4937898240819655E7 ; 4.281580445516528E8 ; 0.0
5 ; 1.1292598793860406E7 ; 1.103484398851834E8 ; 5.621046847680071E7 ; 5.371196374796748E8 ; 0.0
6 ; 1.1316042357194575E7 ; 1.120442975291017E8 ; 6.750306727066112E7 ; 6.474680773648582E8 ; 0.0
7 ; 1.1357160275229946E7 ; 1.140491673830849E8 ; 7.881910962785569E7 ; 7.595123748939599E8 ; 0.0
8 ; 1.141270160087754E7 ; 1.1636305063859332E8 ; 9.017626990308563E7 ; 8.735615422770448E8 ; 0.0
9 ; 1.1491984201044232E7 ; 1.1898594815026546E8 ; 1.0158897150396317E8 ; 9.899245929156381E8 ; 0.0
10 ; 1.161623965276229E7 ; 1.2191786043233013E8 ; 1.130809557050074E8 ; 1.1089105410659037E9 ; 0.0
11 ; 1.1809593934456334E7 ; 1.2515878765643832E8 ; 1.246971953577697E8 ; 1.2308284014982338E9 ; 0.0
12 ; 1.213255730940373E7 ; 1.2870872965093902E8 ; 1.3650678929222602E8 ; 1.3559871891546721E9 ; 0.0
13 ; 1.2435067310485976E7 ; 1.325676859016034E8 ; 1.4863934660162973E8 ; 1.4846959188056111E9 ; 0.0
14 ; 1.2471784970241532E7 ; 1.3673565555379307E8 ; 1.6107441391211572E8 ; 1.6172636047072146E9 ; 0.0
15 ; 1.2484543111528516E7 ; 1.4121263741604757E8 ; 1.7354619888235724E8 ; 1.7539992602610078E9 ; 0.0
16 ; 1.2501759292370135E7 ; 1.4599862996505907E8 ; 1.8603074199388576E8 ; 1.8952118976770554E9 ; 0.0
17 ; 1.2515756036225434E7 ; 1.5109363135198197E8 ; 1.985325012862559E8 ; 2.0412105276421144E9 ; 0.0
18 ; 1.2532996430204477E7 ; 1.5649763941001838E8 ; 2.1104825732248133E8 ; 2.1923041589940963E9 ; 0.0
19 ; 1.2546528630006064E7 ; 1.622106516632057E8 ; 2.2358125375268582E8 ; 2.3488017984041147E9 ; 0.0
20 ; 1.2557581017681634E7 ; 1.6823266533632323E8 ; 2.361277823826919E8 ; 2.5110124500673203E9 ; 0.0
21 ; 1.2572700242852658E7 ; 1.7456367736582664E8 ; 2.4868536340037352E8 ; 2.6792451154036436E9 ; 0.0
22 ; 1.2584960983436977E7 ; 1.8120368441171014E8 ; 2.6125806364322618E8 ; 2.85380879276947E9 ; 0.0
23 ; 1.2604966103280853E7 ; 1.8815268287019348E8 ; 2.7384302462666315E8 ; 3.0350124771811805E9 ; 0.0
24 ; 1.2618651882213065E7 ; 1.9541066888712227E8 ; 2.86447990729944E8 ; 3.223165160051374E9 ; 0.0
25 ; 1.2635005112968756E7 ; 2.0166567927015656E8 ; 2.9906664261215705E8 ; 3.418575828938496E9 ; 0.0
26 ; 1.2651027863116745E7 ; 2.0167125754016137E8 ; 3.117016477251258E8 ; 3.6202415082086525E9 ; 0.0
27 ; 1.2663823047444021E7 ; 2.0167716847098473E8 ; 3.2435267558824253E8 ; 3.8219127657488136E9 ; 0.0
28 ; 1.2681355147059167E7 ; 2.0168340735137308E8 ; 3.370164986356866E8 ; 4.0235899342197986E9 ; 0.0
29 ; 1.2694318596077854E7 ; 2.0168996929352218E8 ; 3.496978537827457E8 ; 4.2252733415711718E9 ; 0.0
30 ; 1.2703629374807432E7 ; 2.0169684924844265E8 ; 3.623921723788236E8 ; 4.426963310864694E9 ; 0.0
31 ; 1.2719714189403258E7 ; 2.0170404202128756E8 ; 3.75095801753631E8 ; 4.628660160113136E9 ; 0.0
32 ; 1.272863752161301E7 ; 2.0171154228655216E8 ; 3.8781551594303423E8 ; 4.830364202134424E9 ; 0.0
33 ; 1.2746285082317827E7 ; 2.0171934460306028E8 ; 4.0054415346464723E8 ; 5.032075744420977E9 ; 0.0
34 ; 1.2760335784731744E7 ; 2.0172744342866153E8 ; 4.1329043854696506E8 ; 5.233795089024037E9 ; 0.0
35 ; 1.2773553874643842E7 ; 2.0173583313456905E8 ; 4.260507743316968E8 ; 5.435522532452699E9 ; 0.0
36 ; 1.2780901528767277E7 ; 2.0174450801927742E8 ; 4.388243282063407E8 ; 5.637258365587268E9 ; 0.0
37 ; 1.279710988298576E7 ; 2.0175346232200617E8 ; 4.5160522973510796E8 ; 5.839002873606545E9 ; 0.0
38 ; 1.2807120948791053E7 ; 2.0176269023562437E8 ; 4.644023396180937E8 ; 6.040756335928552E9 ; 0.0
39 ; 1.281877436563439E7 ; 2.0177218591901764E8 ; 4.7720946056688476E8 ; 6.242519026164176E9 ; 0.0
40 ; 1.2827743088740962E7 ; 2.017819435088674E8 ; 4.9002823493251914E8 ; 6.444291212083194E9 ; 0.0
41 ; 1.2838634033388196E7 ; 2.0179195713081947E8 ; 5.028559780212601E8 ; 6.646073155592061E9 ; 0.0
42 ; 1.2845461563237136E7 ; 2.018022209100244E8 ; 5.156946120546483E8 ; 6.84786511272288E9 ; 0.0
43 ; 1.285762203855192E7 ; 2.018127289810405E8 ; 5.285400736178854E8 ; 7.049667333632905E9 ; 0.0
44 ; 1.2865284189456524E7 ; 2.0182347549709368E8 ; 5.413976956564373E8 ; 7.251480062613946E9 ; 0.0
45 ; 1.2870019382586505E7 ; 2.018344546386953E8 ; 5.542629798458939E8 ; 7.45330353811104E9 ; 0.0
46 ; 1.2877103475509437E7 ; 2.0184566062162364E8 ; 5.671329992284803E8 ; 7.655137992749736E9 ; 0.0
47 ; 1.2884837539022129E7 ; 2.0185708770427763E8 ; 5.800101027039897E8 ; 7.85698365337136E9 ; 0.0
48 ; 1.2886394857573539E7 ; 2.0186873019441658E8 ; 5.928949402430118E8 ; 8.058840741075638E9 ; 0.0
49 ; 1.2895067886460653E7 ; 2.018805824553019E8 ; 6.057813351005853E8 ; 8.260709471270055E9 ; 0.0
50 ; 1.2905100867878478E7 ; 2.018926389112598E8 ; 6.18676402987046E8 ; 8.462590053725357E9 ; 0.0
51 ; 1.290442644212683E7 ; 2.0190489405268577E8 ; 6.315815038549244E8 ; 8.664482692636618E9 ; 0.0
52 ; 1.2910501909948856E7 ; 2.0191734244051406E8 ; 6.444859302970513E8 ; 8.866387586689304E9 ; 0.0
53 ; 1.2911662503002582E7 ; 2.0192997871017596E8 ; 6.573964322070001E8 ; 9.068304929129818E9 ; 0.0
54 ; 1.2917109196972948E7 ; 2.0194279757507214E8 ; 6.703080947100027E8 ; 9.270234907839994E9 ; 0.0
55 ; 1.292223308249514E7 ; 2.01955793829585E8 ; 6.832252039069756E8 ; 9.472177705415066E9 ; 0.0
56 ; 1.292957119586487E7 ; 2.0196896235165668E8 ; 6.961474369894707E8 ; 9.67413349924465E9 ; 0.0
57 ; 1.2928123020963347E7 ; 2.019822981049599E8 ; 7.090770081853356E8 ; 9.876102461596306E9 ; 0.0
58 ; 1.293410535722328E7 ; 2.019957961406866E8 ; 7.22005131206299E8 ; 1.0078084759701265E10 ; 0.0
59 ; 1.2935627221238384E7 ; 2.0200945159898093E8 ; 7.349392365635222E8 ; 1.0280080555841951E10 ; 0.0
60 ; 1.2942134061026094E7 ; 2.0202325971004158E8 ; 7.478748637847606E8 ; 1.0482090007440933E10 ; 0.0
61 ; 1.2943759132795356E7 ; 2.0203721579491812E8 ; 7.608169978457867E8 ; 1.0684113267150974E10 ; 0.0
62 ; 1.2947609102581656E7 ; 2.0205131526602495E8 ; 7.73760756978582E8 ; 1.0886150482945892E10 ; 0.0
63 ; 1.2950724711227633E7 ; 2.0206555362739614E8 ; 7.867083660811636E8 ; 1.1088201798211918E10 ; 0.0
64 ; 1.2956267265137868E7 ; 2.0207992647470295E8 ; 7.996590907923913E8 ; 1.1290267351839314E10 ; 0.0
65 ; 1.2955868550360285E7 ; 2.0209442949505538E8 ; 8.126153580575292E8 ; 1.1492347278314016E10 ; 0.0
66 ; 1.2962012701717837E7 ; 2.021090584666071E8 ; 8.255712266078895E8 ; 1.1694441707809072E10 ; 0.0
67 ; 1.2960085009010546E7 ; 2.0212380925798365E8 ; 8.385332393096074E8 ; 1.189655076627568E10 ; 0.0
68 ; 1.2964611191445421E7 ; 2.0213867782755113E8 ; 8.514933243186179E8 ; 1.2098674575533665E10 ; 0.0
69 ; 1.2969027122571426E7 ; 2.0215366022254232E8 ; 8.644579355100634E8 ; 1.2300813253361216E10 ; 0.0
70 ; 1.2970773034915304E7 ; 2.021687525780563E8 ; 8.774269626326349E8 ; 1.2502966913583757E10 ; 0.0
71 ; 1.2974228991803367E7 ; 2.021839511159461E8 ; 8.903977356675502E8 ; 1.2705135666161814E10 ; 0.0
72 ; 1.297219614888879E7 ; 2.021992521436083E8 ; 9.033719646593536E8 ; 1.290731961727776E10 ; 0.0
73 ; 1.2978201914796302E7 ; 2.0221465205268717E8 ; 9.163441608082424E8 ; 1.3109518869421368E10 ; 0.0
74 ; 1.298013840792983E7 ; 2.0223014731770542E8 ; 9.293223627230388E8 ; 1.3311733521474054E10 ; 0.0
75 ; 1.2981108507782614E7 ; 2.0224573449463233E8 ; 9.423025011309686E8 ; 1.351396366879176E10 ; 0.0
76 ; 1.2981921115439294E7 ; 2.0226141021939957E8 ; 9.552836096387511E8 ; 1.3716209403286392E10 ; 0.0
77 ; 1.2984421354742909E7 ; 2.0227717120637375E8 ; 9.682655307541904E8 ; 1.3918470813505793E10 ; 0.0
78 ; 1.298080779845733E7 ; 2.0229301424679422E8 ; 9.812499521089333E8 ; 1.4120747984712166E10 ; 0.0
79 ; 1.297824599035361E7 ; 2.0230893620718405E8 ; 9.942307599073907E8 ; 1.432304099895896E10 ; 0.0
80 ; 1.2977071883128466E7 ; 2.0232493402774104E8 ; 1.0072090058977443E9 ; 1.4525349935166143E10 ; 0.0
81 ; 1.2970760060366802E7 ; 2.023410047207154E8 ; 1.0201860777808728E9 ; 1.4727674869193884E10 ; 0.0
82 ; 1.2974141470189042E7 ; 2.0235714536877954E8 ; 1.0331568378412396E9 ; 1.4930015873914598E10 ; 0.0
83 ; 1.2970624324012497E7 ; 2.0237335312339565E8 ; 1.0461309793114287E9 ; 1.5132373019283379E10 ; 0.0
84 ; 1.2966218862574674E7 ; 2.023896252031854E8 ; 1.0591016036354412E9 ; 1.5334746372406775E10 ; 0.0
85 ; 1.2963604016792458E7 ; 2.024059588923061E8 ; 1.0720678224980159E9 ; 1.553713599760996E10 ; 0.0
86 ; 1.2960394510868097E7 ; 2.0242235153883713E8 ; 1.0850314265148084E9 ; 1.5739541956502266E10 ; 0.0
87 ; 1.2955978650158027E7 ; 2.0243880055318E8 ; 1.0979918210256765E9 ; 1.5941964308041103E10 ; 0.0
88 ; 1.2954080006275143E7 ; 2.0245530340647456E8 ; 1.1109477996758344E9 ; 1.6144403108594284E10 ; 0.0
89 ; 1.2950691979694275E7 ; 2.0247185762903467E8 ; 1.1239018796821096E9 ; 1.634685841200076E10 ; 0.0
90 ; 1.2950935881372243E7 ; 2.0248846080880487E8 ; 1.136852571661804E9 ; 1.6549330269629793E10 ; 0.0
91 ; 1.2942432966824336E7 ; 2.0250511058984032E8 ; 1.1498035075431762E9 ; 1.6751818730438599E10 ; 0.0
92 ; 1.2942517415474944E7 ; 2.0252180467081183E8 ; 1.1627459405100005E9 ; 1.6954323841028439E10 ; 0.0
93 ; 1.2937945348168906E7 ; 2.0253854080353695E8 ; 1.1756884579254754E9 ; 1.7156845645699251E10 ; 0.0
94 ; 1.293265099713579E7 ; 2.0255531679153866E8 ; 1.1886264032736442E9 ; 1.735938418650279E10 ; 0.0
95 ; 1.2926646192268886E7 ; 2.025721304886326E8 ; 1.20155905427078E9 ; 1.7561939503294327E10 ; 0.0
96 ; 1.2923468211496182E7 ; 2.0258897979754338E8 ; 1.214485700463049E9 ; 1.776451163378296E10 ; 0.0
97 ; 1.2916880269816842E7 ; 2.0260586266855082E8 ; 1.227409168674545E9 ; 1.79671006135805E10 ; 0.0
98 ; 1.2915612707887076E7 ; 2.0262277709816658E8 ; 1.240326048944362E9 ; 1.8169706476249054E10 ; 0.0
99 ; 1.2914623839829052E7 ; 2.0263972112784123E8 ; 1.253241661652249E9 ; 1.837232925334722E10 ; 0.0
100 ; 1.2907280171369756E7 ; 2.0265669284270224E8 ; 1.266156285492078E9 ; 1.8574968974475063E10 ; 0.0
101 ; 1.2903835421233393E7 ; 2.0267369037032285E8 ; 1.2790635656634479E9 ; 1.8777625667317764E10 ; 0.0
102 ; 1.289855278566156E7 ; 2.0269071187952185E8 ; 1.2919674010846813E9 ; 1.8980299357688087E10 ; 0.0
103 ; 1.2891689580039458E7 ; 2.0270775557919395E8 ; 1.3048659538703427E9 ; 1.9182990069567608E10 ; 0.0
104 ; 1.2890536453128483E7 ; 2.0272481971717092E8 ; 1.3177576434503822E9 ; 1.93856978251468E10 ; 0.0
105 ; 1.288087573944675E7 ; 2.0274190257911292E8 ; 1.3306481799035108E9 ; 1.958842264486397E10 ; 0.0
106 ; 1.2872989547191119E7 ; 2.027590024874298E8 ; 1.3435290556429574E9 ; 1.9791164547443085E10 ; 0.0
107 ; 1.287204346830031E7 ; 2.0277611780023214E8 ; 1.3564020451901486E9 ; 1.9993923549930515E10 ; 0.0
108 ; 1.286425304292757E7 ; 2.027932469103114E8 ; 1.369274088658449E9 ; 2.0196699667730747E10 ; 0.0
109 ; 1.286060179868497E7 ; 2.028103882441488E8 ; 1.3821383417013764E9 ; 2.039949291464106E10 ; 0.0
110 ; 1.2856198722525297E7 ; 2.0282754026095247E8 ; 1.3949989435000615E9 ; 2.060230330288521E10 ; 0.0
111 ; 1.284801848935714E7 ; 2.0284470145172253E8 ; 1.4078551422225869E9 ; 2.080513084314616E10 ; 0.0
112 ; 1.2843135619411249E7 ; 2.028618703383431E8 ; 1.420703160711944E9 ; 2.100797554459788E10 ; 0.0
113 ; 1.283739310339394E7 ; 2.0287904547270104E8 ; 1.4335462963313553E9 ; 2.1210837414936226E10 ; 0.0
114 ; 1.2833127579110643E7 ; 2.0289622543583086E8 ; 1.4463836894347494E9 ; 2.1413716460408928E10 ; 0.0
115 ; 1.2823156597480955E7 ; 2.029134088370851E8 ; 1.45921681701386E9 ; 2.1616612685844757E10 ; 0.0
116 ; 1.2817966508818666E7 ; 2.0293059431332943E8 ; 1.472039973611341E9 ; 2.1819526094681843E10 ; 0.0
117 ; 1.2812507299424892E7 ; 2.0294778052816236E8 ; 1.4848579401201596E9 ; 2.202245668899517E10 ; 0.0
118 ; 1.280090561155584E7 ; 2.029649661711583E8 ; 1.4976704474195845E9 ; 2.2225404469523335E10 ; 0.0
119 ; 1.279917161440578E7 ; 2.0298214995713398E8 ; 1.5104713530311403E9 ; 2.2428369435694492E10 ; 0.0
120 ; 1.2791612279182252E7 ; 2.0299933062543723E8 ; 1.5232705246455462E9 ; 2.2631351585651627E10 ; 0.0
121 ; 1.2781063191729782E7 ; 2.0301650693925768E8 ; 1.5360621369247284E9 ; 2.2834350916277065E10 ; 0.0
122 ; 1.2780425815820295E7 ; 2.0303367768495885E8 ; 1.5488432001164582E9 ; 2.3037367423216324E10 ; 0.0
123 ; 1.277176519136169E7 ; 2.030508416714308E8 ; 1.5616236259322784E9 ; 2.3240401100901283E10 ; 0.0
124 ; 1.2762368315336522E7 ; 2.0306799772946304E8 ; 1.57439539112364E9 ; 2.3443451942572716E10 ; 0.0
125 ; 1.2755024501890192E7 ; 2.0308514471113688E8 ; 1.5871577594389765E9 ; 2.3646519940302177E10 ; 0.0
126 ; 1.2751935680417195E7 ; 2.03102281489237E8 ; 1.5999127839408667E9 ; 2.3849605085013313E10 ; 0.0
127 ; 1.2739383535016935E7 ; 2.0311940695668122E8 ; 1.612664719621284E9 ; 2.4052707366502552E10 ; 0.0
128 ; 1.2733611398945563E7 ; 2.0313652002596825E8 ; 1.625404103156301E9 ; 2.4255826773459232E10 ; 0.0
129 ; 1.2724212500404745E7 ; 2.031536196286429E8 ; 1.6381377145552466E9 ; 2.44589632934852E10 ; 0.0
130 ; 1.271701540466682E7 ; 2.0317070471477792E8 ; 1.6508619270556514E9 ; 2.4662116913113842E10 ; 0.0
131 ; 1.2703632323440393E7 ; 2.0318777425247252E8 ; 1.6635789424603183E9 ; 2.486528761782862E10 ; 0.0
132 ; 1.2691704212519884E7 ; 2.0320482722736636E8 ; 1.6762825747837586E9 ; 2.5068475392081093E10 ; 0.0
133 ; 1.2680946001713462E7 ; 2.03221862642169E8 ; 1.6889742789962785E9 ; 2.527168021930846E10 ; 0.0
134 ; 1.2666112638831912E7 ; 2.0323887951620436E8 ; 1.701655224997992E9 ; 2.547490208195063E10 ; 0.0
135 ; 1.2655340906346615E7 ; 2.0325587688496944E8 ; 1.714321337636824E9 ; 2.5678140961466835E10 ; 0.0
136 ; 1.2647047040103327E7 ; 2.03272853799707E8 ; 1.7269766785431705E9 ; 2.5881396838351803E10 ; 0.0
137 ; 1.2630016582461758E7 ; 2.0328980932699174E8 ; 1.739623725583274E9 ; 2.608466969215151E10 ; 0.0
138 ; 1.2617972230492145E7 ; 2.0330674254832977E8 ; 1.7522537421657357E9 ; 2.62879595014785E10 ; 0.0
139 ; 1.2605872203006348E7 ; 2.0332365255977032E8 ; 1.7648717143962278E9 ; 2.649126624402683E10 ; 0.0
140 ; 1.2592618210424218E7 ; 2.033405384715302E8 ; 1.777477586599234E9 ; 2.6694589896586597E10 ; 0.0
141 ; 1.257506440978762E7 ; 2.0335739940762982E8 ; 1.7900702048096583E9 ; 2.689793043505813E10 ; 0.0
142 ; 1.2566284057103725E7 ; 2.0337423450554073E8 ; 1.802645269219446E9 ; 2.710128783446576E10 ; 0.0
143 ; 1.2551936695016697E7 ; 2.0339104291584438E8 ; 1.8152115532765496E9 ; 2.73046620689713E10 ; 0.0
144 ; 1.2540582002455467E7 ; 2.0340782380190167E8 ; 1.8277634899715662E9 ; 2.7508053111887142E10 ; 0.0
145 ; 1.253312211028957E7 ; 2.034245763395326E8 ; 1.8403040719740217E9 ; 2.7711460935689045E10 ; 0.0
146 ; 1.2525971597820485E7 ; 2.034412997167065E8 ; 1.8528371940843112E9 ; 2.7914885512028576E10 ; 0.0
147 ; 1.251406915443872E7 ; 2.0345799313324156E8 ; 1.8653631656821318E9 ; 2.811832681174528E10 ; 0.0
148 ; 1.2505438303439297E7 ; 2.0347465580051395E8 ; 1.8778772348365705E9 ; 2.832178480487852E10 ; 0.0
149 ; 1.249701925403717E7 ; 2.034912869411762E8 ; 1.8903826731400099E9 ; 2.8525259460679035E10 ; 0.0
150 ; 1.2488714537396112E7 ; 2.035078857888842E8 ; 1.902879692394047E9 ; 2.8728750747620213E10 ; 0.0
151 ; 1.2479157330223413E7 ; 2.0352445158803275E8 ; 1.9153684069314432E9 ; 2.8932258633409096E10 ; 0.0
152 ; 1.2471988773117214E7 ; 2.035409835934996E8 ; 1.9278475642616665E9 ; 2.9135783084997128E10 ; 0.0
153 ; 1.246236499119942E7 ; 2.0355748107039717E8 ; 1.9403195530347838E9 ; 2.9339324068590626E10 ; 0.0
154 ; 1.2456788612539817E7 ; 2.0357394329383224E8 ; 1.9527819180259833E9 ; 2.9542881549661022E10 ; 0.0
155 ; 1.2444373623301782E7 ; 2.0359036954867294E8 ; 1.965238706638523E9 ; 2.9746455492954853E10 ; 0.0
156 ; 1.243642940078225E7 ; 2.0360675912932315E8 ; 1.9776830802618248E9 ; 2.9950045862503525E10 ; 0.0
157 ; 1.24277763997887E7 ; 2.036231113395037E8 ; 1.9901195096626072E9 ; 3.0153652621632847E10 ; 0.0
158 ; 1.2419236384537773E7 ; 2.0363942549204054E8 ; 2.0025472860623958E9 ; 3.035727573297235E10 ; 0.0
159 ; 1.2410826781362318E7 ; 2.0365570090865925E8 ; 2.0149665224469335E9 ; 3.056091515846439E10 ; 0.0
160 ; 1.2398145305153525E7 ; 2.036719369197861E8 ; 2.0273773492282958E9 ; 3.076457085937305E10 ; 0.0
161 ; 1.2392210441373007E7 ; 2.0368813286435503E8 ; 2.0397754945334494E9 ; 3.0968242796292835E10 ; 0.0
162 ; 1.2379756390787385E7 ; 2.037042880896207E8 ; 2.0521677049748225E9 ; 3.117193092915719E10 ; 0.0
163 ; 1.2370062398777401E7 ; 2.0372040195097736E8 ; 2.06454746136561E9 ; 3.137563521724681E10 ; 0.0
164 ; 1.2363211559200086E7 ; 2.0373647381178284E8 ; 2.0769175237643874E9 ; 3.157935561919779E10 ; 0.0
165 ; 1.23567358371846E7 ; 2.0375250304318848E8 ; 2.0892807353235874E9 ; 3.178309209300957E10 ; 0.0
166 ; 1.2347416212786978E7 ; 2.0376848902397397E8 ; 2.101637471160772E9 ; 3.198684459605276E10 ; 0.0
167 ; 1.2333714433566216E7 ; 2.0378443114038703E8 ; 2.113984887373559E9 ; 3.2190613085076736E10 ; 0.0
168 ; 1.2324304775916807E7 ; 2.0380032878598842E8 ; 2.1263186018071253E9 ; 3.2394397516217125E10 ; 0.0
169 ; 1.2316769538648052E7 ; 2.038161813615012E8 ; 2.1386429065830421E9 ; 3.2598197845003113E10 ; 0.0
170 ; 1.2306217446119668E7 ; 2.0383198827466485E8 ; 2.1509596761216903E9 ; 3.2802014026364613E10 ; 0.0
171 ; 1.2295533696589623E7 ; 2.0384774894009373E8 ; 2.16326589356781E9 ; 3.300584601463928E10 ; 0.0
172 ; 1.2292032913284713E7 ; 2.0386346277913958E8 ; 2.1755614272643995E9 ; 3.3209693763579372E10 ; 0.0
173 ; 1.227850652497562E7 ; 2.0387912921975863E8 ; 2.1878534601776843E9 ; 3.3413557226358513E10 ; 0.0
174 ; 1.227380499034887E7 ; 2.0389474769638214E8 ; 2.20013196670266E9 ; 3.361743635557827E10 ; 0.0
175 ; 1.226768103918407E7 ; 2.039103176497913E8 ; 2.212405771693009E9 ; 3.382133110327465E10 ; 0.0
176 ; 1.226360535792816E7 ; 2.0392583852699563E8 ; 2.224673452732193E9 ; 3.4025241420924442E10 ; 0.0
177 ; 1.2255301762848618E7 ; 2.0394130978111494E8 ; 2.2369370580901213E9 ; 3.422916725945144E10 ; 0.0
178 ; 1.2250872595091786E7 ; 2.0395673087126502E8 ; 2.24919235985297E9 ; 3.443310856923255E10 ; 0.0
179 ; 1.224548662842913E7 ; 2.039721012624466E8 ; 2.261443232448062E9 ; 3.463706530010381E10 ; 0.0
180 ; 1.2236274373030541E7 ; 2.039874204254377E8 ; 2.273688719076491E9 ; 3.484103740136626E10 ; 0.0
181 ; 1.2232970662208835E7 ; 2.0400268783668894E8 ; 2.2859249934495215E9 ; 3.5045024821791695E10 ; 0.0
182 ; 1.222615219217636E7 ; 2.040179029782222E8 ; 2.2981579641117306E9 ; 3.524902750962838E10 ; 0.0
183 ; 1.2221592489559542E7 ; 2.040330653375322E8 ; 2.310384116303907E9 ; 3.5453045412606606E10 ; 0.0
184 ; 1.2217184572451074E7 ; 2.0404817440749088E8 ; 2.3226057087934666E9 ; 3.565707847794414E10 ; 0.0
185 ; 1.2208034031946784E7 ; 2.040632296862547E8 ; 2.3348228933659177E9 ; 3.586112665235163E10 ; 0.0
186 ; 1.220121110464947E7 ; 2.0407823067717463E8 ; 2.3470309273978643E9 ; 3.606518988203789E10 ; 0.0
187 ; 1.2198911270556794E7 ; 2.0409317688870868E8 ; 2.359232138502514E9 ; 3.6269268112715065E10 ; 0.0
188 ; 1.2192074921031713E7 ; 2.0410806783433717E8 ; 2.371431049773071E9 ; 3.6473361289603775E10 ; 0.0
189 ; 1.2184881767608395E7 ; 2.041229030324803E8 ; 2.3836231246941023E9 ; 3.667746935743811E10 ; 0.0
190 ; 1.2176947179046653E7 ; 2.041376820064182E8 ; 2.3958080064617105E9 ; 3.688159226047059E10 ; 0.0
191 ; 1.2172365167442895E7 ; 2.041524042842133E8 ; 2.407984953640757E9 ; 3.7085729942477005E10 ; 0.0
192 ; 1.2171183553336967E7 ; 2.0416706939863494E8 ; 2.4201573188082E9 ; 3.7289882346761215E10 ; 0.0
193 ; 1.216004859675514E7 ; 2.041816768870861E8 ; 2.432328502361537E9 ; 3.749404941615985E10 ; 0.0
194 ; 1.2157387268803207E7 ; 2.0419622629153246E8 ; 2.444488550958292E9 ; 3.7698231093046936E10 ; 0.0
195 ; 1.2147966139513224E7 ; 2.0421071715843317E8 ; 2.456645938227095E9 ; 3.790242731933847E10 ; 0.0
