CSV File for the City 4 on Day 47
1 - Minute m 
2 - Power Consumed at minute m 
3 - Power Produced at minute m 
4 - Energy Consumed since the beginning of the day 
5 - Energy Produced since the beginning of the day 
6 - Energy Lost since the beginning of the day on lines starting from the city
 
0 ; 6797425.187205912 ; 1.0575220303052619E8 ; 0.0 ; 0.0 ; 0.0
1 ; 6802201.563537525 ; 1.0590186534428811E8 ; 6797425.187205912 ; 1.0575220303052619E8 ; 0.0
2 ; 6810906.275459768 ; 1.0636062744822308E8 ; 1.3599626750743438E7 ; 2.116540683748143E8 ; 0.0
3 ; 6819211.841183531 ; 1.0712849964300758E8 ; 2.0410533026203208E7 ; 3.180146958230374E8 ; 0.0
4 ; 6829365.858111864 ; 1.0820549133193183E8 ; 2.722974486738674E7 ; 4.2514319546604496E8 ; 0.0
5 ; 6839760.165798097 ; 1.0959161091398883E8 ; 3.40591107254986E7 ; 5.333486867979768E8 ; 0.0
6 ; 6857354.277445 ; 1.1128686568426457E8 ; 4.08988708912967E7 ; 6.429402977119656E8 ; 0.0
7 ; 6878972.086739836 ; 1.1329126174423534E8 ; 4.77562251687417E7 ; 7.542271633962301E8 ; 0.0
8 ; 6913981.242976951 ; 1.1560480392444712E8 ; 5.463519725548154E7 ; 8.675184251404655E8 ; 0.0
9 ; 6962923.512545915 ; 1.1822749572180808E8 ; 6.154917849845849E7 ; 9.831232290649126E8 ; 0.0
10 ; 7041124.919420168 ; 1.2115933925336516E8 ; 6.85121020110044E7 ; 1.1013507247867208E9 ; 0.0
11 ; 7163455.762470755 ; 1.2440033522798094E8 ; 7.555322693042457E7 ; 1.2225100640400858E9 ; 0.0
12 ; 7363053.884302585 ; 1.2795048293679282E8 ; 8.271668269289532E7 ; 1.3469103992680666E9 ; 0.0
13 ; 7552585.127312058 ; 1.3180978026275384E8 ; 9.007973657719791E7 ; 1.4748608822048595E9 ; 0.0
14 ; 7576275.092508367 ; 1.3597822370895594E8 ; 9.763232170450997E7 ; 1.6066706624676132E9 ; 0.0
15 ; 7583708.819152642 ; 1.40455808444853E8 ; 1.0520859679701833E8 ; 1.7426488861765692E9 ; 0.0
16 ; 7593357.616363364 ; 1.4524252836896887E8 ; 1.1279230561617097E8 ; 1.8831046946214223E9 ; 0.0
17 ; 7602567.246978251 ; 1.5033837618621746E8 ; 1.2038566323253433E8 ; 2.0283472229903913E9 ; 0.0
18 ; 7610317.285018636 ; 1.557433434976058E8 ; 1.2798823047951259E8 ; 2.1786855991766086E9 ; 0.0
19 ; 7618789.574474355 ; 1.6145742089984366E8 ; 1.3559854776453122E8 ; 2.3344289426742144E9 ; 0.0
20 ; 7628025.623660456 ; 1.6748059809225455E8 ; 1.432173373390056E8 ; 2.495886363574058E9 ; 0.0
21 ; 7635373.569998038 ; 1.7381286398836842E8 ; 1.5084536296266603E8 ; 2.6633669616663127E9 ; 0.0
22 ; 7645267.464045653 ; 1.804542068296644E8 ; 1.5848073653266406E8 ; 2.837179825654681E9 ; 0.0
23 ; 7653732.192509392 ; 1.8740461429910898E8 ; 1.661260039967097E8 ; 3.0176340324843454E9 ; 0.0
24 ; 7661342.430381656 ; 1.9466407363237858E8 ; 1.737797361892191E8 ; 3.2050386467834544E9 ; 0.0
25 ; 7671769.922544385 ; 2.0092061262313548E8 ; 1.8144107861960074E8 ; 3.399702720415833E9 ; 0.0
26 ; 7680956.685255448 ; 2.0092776576138723E8 ; 1.8911284854214513E8 ; 3.6006233330389686E9 ; 0.0
27 ; 7688500.331200874 ; 2.009352888530604E8 ; 1.9679380522740057E8 ; 3.801551098800356E9 ; 0.0
28 ; 7698792.55660755 ; 2.0094316835380277E8 ; 2.0448230555860144E8 ; 4.002486387653416E9 ; 0.0
29 ; 7705194.49500664 ; 2.0095139074107465E8 ; 2.1218109811520898E8 ; 4.203429556007219E9 ; 0.0
30 ; 7711596.693202842 ; 2.0095994258453777E8 ; 2.1988629261021563E8 ; 4.404380946748294E9 ; 0.0
31 ; 7722044.032688729 ; 2.009688106079493E8 ; 2.275978893034185E8 ; 4.605340889332831E9 ; 0.0
32 ; 7729175.518015694 ; 2.0097798174272057E8 ; 2.3531993333610722E8 ; 4.806309699940781E9 ; 0.0
33 ; 7734715.211550523 ; 2.00987443173458E8 ; 2.430491088541229E8 ; 5.007287681683501E9 ; 0.0
34 ; 7743139.859993144 ; 2.0099718237592325E8 ; 2.5078382406567344E8 ; 5.208275124856959E9 ; 0.0
35 ; 7754323.693419407 ; 2.0100718714793757E8 ; 2.5852696392566657E8 ; 5.4092723072328825E9 ; 0.0
36 ; 7757287.603361744 ; 2.0101744563380942E8 ; 2.6628128761908597E8 ; 5.61027949438082E9 ; 0.0
37 ; 7763175.761712719 ; 2.0102794634289473E8 ; 2.740385752224477E8 ; 5.811296940014629E9 ; 0.0
38 ; 7770553.724059809 ; 2.010386781629078E8 ; 2.818017509841604E8 ; 6.012324886357524E9 ; 0.0
39 ; 7777239.529434674 ; 2.010496303685908E8 ; 2.8957230470822024E8 ; 6.2133635645204315E9 ; 0.0
40 ; 7783093.788334665 ; 2.0106079262632868E8 ; 2.973495442376549E8 ; 6.414413194889022E9 ; 0.0
41 ; 7786995.366308056 ; 2.010721549952636E8 ; 3.051326380259896E8 ; 6.61547398751535E9 ; 0.0
42 ; 7793223.031180393 ; 2.010837079254258E8 ; 3.129196333922976E8 ; 6.816546142510614E9 ; 0.0
43 ; 7800321.051448393 ; 2.0109544225335425E8 ; 3.20712856423478E8 ; 7.01762985043604E9 ; 0.0
44 ; 7803082.541449456 ; 2.0110734919563797E8 ; 3.285131774749264E8 ; 7.218725292689394E9 ; 0.0
45 ; 7810398.504219585 ; 2.0111942034076318E8 ; 3.3631626001637584E8 ; 7.419832641885032E9 ; 0.0
46 ; 7812181.63622246 ; 2.011316476396091E8 ; 3.4412665852059543E8 ; 7.620952062225795E9 ; 0.0
47 ; 7812758.492791057 ; 2.0114402339489374E8 ; 3.519388401568179E8 ; 7.822083709865404E9 ; 0.0
48 ; 7816943.252188811 ; 2.0115654024983212E8 ; 3.5975159864960897E8 ; 8.023227733260298E9 ; 0.0
49 ; 7820993.652238514 ; 2.0116919117623326E8 ; 3.675685419017978E8 ; 8.22438427351013E9 ; 0.0
50 ; 7822942.765224353 ; 2.0118196946223035E8 ; 3.7538953555403626E8 ; 8.425553464686363E9 ; 0.0
51 ; 7822719.574040222 ; 2.0119486869980764E8 ; 3.832124783192606E8 ; 8.626735434148594E9 ; 0.0
52 ; 7827559.18817038 ; 2.0120788277226275E8 ; 3.9103519789330083E8 ; 8.827930302848402E9 ; 0.0
53 ; 7828538.7689318415 ; 2.0122100584171796E8 ; 3.988627570814712E8 ; 9.029138185620665E9 ; 0.0
54 ; 7830007.780046985 ; 2.0123423233677477E8 ; 4.066912958504031E8 ; 9.230359191462383E9 ; 0.0
55 ; 7830322.378822281 ; 2.0124755694038734E8 ; 4.1452130363045007E8 ; 9.431593423799158E9 ; 0.0
56 ; 7834554.000154351 ; 2.0126097457801482E8 ; 4.2235162600927234E8 ; 9.632840980739546E9 ; 0.0
57 ; 7838189.86711395 ; 2.0127448040609968E8 ; 4.301861800094267E8 ; 9.83410195531756E9 ; 0.0
58 ; 7839075.319111059 ; 2.012880698009069E8 ; 4.3802436987654066E8 ; 1.003537643572366E10 ; 0.0
59 ; 7838565.20766019 ; 2.0130173834775E8 ; 4.458634451956517E8 ; 1.0236664505524567E10 ; 0.0
60 ; 7842833.669173563 ; 2.0131548183062115E8 ; 4.537020104033119E8 ; 1.0437966243872316E10 ; 0.0
61 ; 7842901.085925641 ; 2.0132929622223568E8 ; 4.6154484407248545E8 ; 1.0639281725702938E10 ; 0.0
62 ; 7844778.4485949725 ; 2.0134317767449638E8 ; 4.693877451584111E8 ; 1.0840611021925175E10 ; 0.0
63 ; 7844352.703975122 ; 2.0135712250937718E8 ; 4.772325236070061E8 ; 1.104195419959967E10 ; 0.0
64 ; 7845933.340321052 ; 2.0137112721022347E8 ; 4.850768763109812E8 ; 1.1243311322109047E10 ; 0.0
65 ; 7849237.544204347 ; 2.0138518841346136E8 ; 4.929228096513023E8 ; 1.1444682449319271E10 ; 0.0
66 ; 7849434.294156959 ; 2.0139930290070838E8 ; 5.0077204719550663E8 ; 1.1646067637732733E10 ; 0.0
67 ; 7849469.745421512 ; 2.0141346759127325E8 ; 5.086214814896636E8 ; 1.1847466940633442E10 ; 0.0
68 ; 7848378.810017651 ; 2.0142767953503376E8 ; 5.164709512350851E8 ; 1.2048880408224714E10 ; 0.0
69 ; 7850625.030594642 ; 2.0144193590567905E8 ; 5.243193300451028E8 ; 1.2250308087759748E10 ; 0.0
70 ; 7850232.10315235 ; 2.014562339943021E8 ; 5.321699550756974E8 ; 1.2451750023665428E10 ; 0.0
71 ; 7855920.43557725 ; 2.0147057120332894E8 ; 5.400201871788498E8 ; 1.265320625765973E10 ; 0.0
72 ; 7851484.534595058 ; 2.0148494504076922E8 ; 5.478761076144271E8 ; 1.285467682886306E10 ; 0.0
73 ; 7851472.107054826 ; 2.0149935311477414E8 ; 5.557275921490221E8 ; 1.305616177390383E10 ; 0.0
74 ; 7853926.837226994 ; 2.0151379312848717E8 ; 5.635790642560769E8 ; 1.3257661127018604E10 ; 0.0
75 ; 7853895.122810701 ; 2.015282628751732E8 ; 5.714329910933039E8 ; 1.345917492014709E10 ; 0.0
76 ; 7854682.009295592 ; 2.015427602336125E8 ; 5.792868862161146E8 ; 1.3660703183022264E10 ; 0.0
77 ; 7853964.082955673 ; 2.0155728316374585E8 ; 5.871415682254102E8 ; 1.3862245943255877E10 ; 0.0
78 ; 7852240.347184739 ; 2.015718297025576E8 ; 5.94995532308366E8 ; 1.4063803226419622E10 ; 0.0
79 ; 7848366.874972606 ; 2.0158639796018454E8 ; 6.028477726555507E8 ; 1.426537505612218E10 ; 0.0
80 ; 7849193.14597101 ; 2.016009861162379E8 ; 6.106961395305233E8 ; 1.4466961454082365E10 ; 0.0
81 ; 7847068.1146044545 ; 2.016155924163274E8 ; 6.185453326764944E8 ; 1.4668562440198603E10 ; 0.0
82 ; 7842956.292779521 ; 2.0163021516877562E8 ; 6.263924007910988E8 ; 1.487017803261493E10 ; 0.0
83 ; 7838489.486407709 ; 2.016448527415131E8 ; 6.342353570838784E8 ; 1.5071808247783705E10 ; 0.0
84 ; 7836973.055654148 ; 2.0165950355914307E8 ; 6.420738465702862E8 ; 1.5273453100525217E10 ; 0.0
85 ; 7835059.508260127 ; 2.016741661001669E8 ; 6.499108196259403E8 ; 1.547511260408436E10 ; 0.0
86 ; 7832379.90002989 ; 2.016888388943611E8 ; 6.577458791342005E8 ; 1.5676786770184526E10 ; 0.0
87 ; 7828063.301013793 ; 2.017035205202971E8 ; 6.655782590342304E8 ; 1.5878475609078888E10 ; 0.0
88 ; 7827058.784836765 ; 2.0171820960299593E8 ; 6.734063223352442E8 ; 1.6080179129599186E10 ; 0.0
89 ; 7821421.79534865 ; 2.0173290481170976E8 ; 6.81233381120081E8 ; 1.6281897339202183E10 ; 0.0
90 ; 7821176.33828284 ; 2.0174760485782373E8 ; 6.890548029154296E8 ; 1.6483630244013893E10 ; 0.0
91 ; 7816903.492474983 ; 2.0176230849287027E8 ; 6.968759792537124E8 ; 1.6685377848871717E10 ; 0.0
92 ; 7814502.379469208 ; 2.017770145066502E8 ; 7.046928827461874E8 ; 1.6887140157364588E10 ; 0.0
93 ; 7811660.958087277 ; 2.0179172172545436E8 ; 7.125073851256566E8 ; 1.7088917171871239E10 ; 0.0
94 ; 7808895.276875774 ; 2.018064290103797E8 ; 7.203190460837439E8 ; 1.7290708893596695E10 ; 0.0
95 ; 7804102.368517893 ; 2.0182113525573477E8 ; 7.281279413606197E8 ; 1.7492515322607075E10 ; 0.0
96 ; 7801276.074014162 ; 2.0183583938752946E8 ; 7.359320437291375E8 ; 1.769433645786281E10 ; 0.0
97 ; 7796374.138538158 ; 2.018505403620441E8 ; 7.437333198031517E8 ; 1.789617229725034E10 ; 0.0
98 ; 7792933.909110123 ; 2.0186523716447333E8 ; 7.515296939416898E8 ; 1.8098022837612385E10 ; 0.0
99 ; 7790036.15880644 ; 2.0187992880764082E8 ; 7.593226278507999E8 ; 1.829988807477686E10 ; 0.0
100 ; 7787374.390190646 ; 2.0189461433078045E8 ; 7.671126640096064E8 ; 1.85017680035845E10 ; 0.0
101 ; 7782212.298092482 ; 2.019092927983805E8 ; 7.74900038399797E8 ; 1.870366261791528E10 ; 0.0
102 ; 7774834.20945278 ; 2.019239632990871E8 ; 7.826822506978894E8 ; 1.890557191071366E10 ; 0.0
103 ; 7772685.047959941 ; 2.0193862494466382E8 ; 7.904570849073422E8 ; 1.910749587401275E10 ; 0.0
104 ; 7769857.3206693595 ; 2.0195327686900392E8 ; 7.982297699553021E8 ; 1.9309434498957413E10 ; 0.0
105 ; 7766467.797328634 ; 2.019679182271928E8 ; 8.059996272759715E8 ; 1.9511387775826416E10 ; 0.0
106 ; 7763507.353586748 ; 2.0198254819461745E8 ; 8.137660950733001E8 ; 1.9713355694053608E10 ; 0.0
107 ; 7757370.657596619 ; 2.019971659661207E8 ; 8.215296024268869E8 ; 1.9915338242248226E10 ; 0.0
108 ; 7750017.664559785 ; 2.0201177075519717E8 ; 8.292869730844835E8 ; 2.0117335408214348E10 ; 0.0
109 ; 7750099.989339788 ; 2.0202636179322946E8 ; 8.370369907490433E8 ; 2.0319347178969543E10 ; 0.0
110 ; 7742881.840501211 ; 2.0204093832876167E8 ; 8.447870907383832E8 ; 2.052137354076277E10 ; 0.0
111 ; 7737022.374879711 ; 2.0205549962680876E8 ; 8.525299725788844E8 ; 2.0723414479091534E10 ; 0.0
112 ; 7735076.58121896 ; 2.0207004496819928E8 ; 8.602669949537641E8 ; 2.092546997871834E10 ; 0.0
113 ; 7729804.725741242 ; 2.0208457364895034E8 ; 8.68002071534983E8 ; 2.1127540023686543E10 ; 0.0
114 ; 7723171.8553452855 ; 2.0209908497967216E8 ; 8.757318762607243E8 ; 2.132962459733549E10 ; 0.0
115 ; 7719266.072980843 ; 2.0211357828500184E8 ; 8.834550481160696E8 ; 2.1531723682315163E10 ; 0.0
116 ; 7715998.911615963 ; 2.0212805290306357E8 ; 8.911743141890504E8 ; 2.1733837260600166E10 ; 0.0
117 ; 7713075.345815605 ; 2.0214250818495476E8 ; 8.988903131006664E8 ; 2.193596531350323E10 ; 0.0
118 ; 7704444.764019944 ; 2.0215694349425626E8 ; 9.066033884464821E8 ; 2.2138107821688187E10 ; 0.0
119 ; 7700607.164176855 ; 2.0217135820656568E8 ; 9.14307833210502E8 ; 2.234026476518244E10 ; 0.0
120 ; 7694756.68057545 ; 2.0218575170905235E8 ; 9.220084403746789E8 ; 2.2542436123389008E10 ; 0.0
121 ; 7687774.179651855 ; 2.022001234000331E8 ; 9.297031970552543E8 ; 2.274462187509806E10 ; 0.0
122 ; 7681249.537495974 ; 2.022144726885674E8 ; 9.373909712349062E8 ; 2.2946821998498093E10 ; 0.0
123 ; 7676090.550066759 ; 2.0222879899407136E8 ; 9.450722207724022E8 ; 2.314903647118666E10 ; 0.0
124 ; 7668998.088681708 ; 2.0224310174594915E8 ; 9.527483113224689E8 ; 2.3351265270180733E10 ; 0.0
125 ; 7666269.033927662 ; 2.022573803832412E8 ; 9.604173094111506E8 ; 2.355350837192668E10 ; 0.0
126 ; 7661367.434048477 ; 2.0227163435428843E8 ; 9.680835784450783E8 ; 2.375576575230992E10 ; 0.0
127 ; 7655178.700829125 ; 2.022858631164114E8 ; 9.757449458791268E8 ; 2.395803738666421E10 ; 0.0
128 ; 7645590.148156279 ; 2.023000661356038E8 ; 9.834001245799559E8 ; 2.4160323249780624E10 ; 0.0
129 ; 7643671.610359213 ; 2.0231424288623983E8 ; 9.910457147281122E8 ; 2.436262331591623E10 ; 0.0
130 ; 7635741.309405586 ; 2.0232839285079426E8 ; 9.986893863384714E8 ; 2.4564937558802467E10 ; 0.0
131 ; 7625231.700016775 ; 2.023425155195748E8 ; 1.006325127647877E9 ; 2.4767265951653263E10 ; 0.0
132 ; 7616173.027329937 ; 2.0235661039046642E8 ; 1.0139503593478937E9 ; 2.4969608467172836E10 ; 0.0
133 ; 7610777.489817806 ; 2.0237067696868667E8 ; 1.0215665323752236E9 ; 2.51719650775633E10 ; 0.0
134 ; 7599614.645127095 ; 2.0238471476655146E8 ; 1.0291773098650415E9 ; 2.5374335754531986E10 ; 0.0
135 ; 7593497.966658624 ; 2.0239872330325127E8 ; 1.0367769245101686E9 ; 2.557672046929854E10 ; 0.0
136 ; 7586339.0436622165 ; 2.0241270210463673E8 ; 1.0443704224768271E9 ; 2.577911919260179E10 ; 0.0
137 ; 7573477.133892952 ; 2.0242665070301327E8 ; 1.0519567615204893E9 ; 2.598153189470643E10 ; 0.0
138 ; 7564756.287704748 ; 2.0244056863694492E8 ; 1.0595302386543822E9 ; 2.6183958545409443E10 ; 0.0
139 ; 7554958.747961058 ; 2.0245445545106584E8 ; 1.0670949949420869E9 ; 2.6386399114046387E10 ; 0.0
140 ; 7547333.590983594 ; 2.024683106959002E8 ; 1.074649953690048E9 ; 2.658885356949745E10 ; 0.0
141 ; 7538412.307171698 ; 2.0248213392768943E8 ; 1.0821972872810316E9 ; 2.679132188019335E10 ; 0.0
142 ; 7526931.8968940815 ; 2.0249592470822677E8 ; 1.0897356995882032E9 ; 2.699380401412104E10 ; 0.0
143 ; 7518686.522683917 ; 2.0250968260469848E8 ; 1.0972626314850972E9 ; 2.7196299938829266E10 ; 0.0
144 ; 7509591.514625913 ; 2.0252340718953186E8 ; 1.104781318007781E9 ; 2.7398809621433964E10 ; 0.0
145 ; 7499239.366890253 ; 2.0253709804024938E8 ; 1.112290909522407E9 ; 2.7601333028623497E10 ; 0.0
146 ; 7496997.173132903 ; 2.0255075473932874E8 ; 1.1197901488892972E9 ; 2.7803870126663746E10 ; 0.0
147 ; 7489069.760662018 ; 2.025643768740688E8 ; 1.1272871460624301E9 ; 2.8006420881403076E10 ; 0.0
148 ; 7482394.370854239 ; 2.0257796403646073E8 ; 1.1347762158230922E9 ; 2.8208985258277145E10 ; 0.0
149 ; 7476308.193886333 ; 2.0259151582306448E8 ; 1.1422586101939464E9 ; 2.8411563222313606E10 ; 0.0
150 ; 7469302.169714179 ; 2.0260503183489028E8 ; 1.1497349183878326E9 ; 2.861415473813667E10 ; 0.0
151 ; 7461558.670581271 ; 2.0261851167728478E8 ; 1.1572042205575469E9 ; 2.8816759769971558E10 ; 0.0
152 ; 7456079.797634785 ; 2.0263195495982167E8 ; 1.1646657792281282E9 ; 2.901937828164884E10 ; 0.0
153 ; 7448337.8032984845 ; 2.0264536129619688E8 ; 1.172121859025763E9 ; 2.922201023660866E10 ; 0.0
154 ; 7442984.952587569 ; 2.0265873030412766E8 ; 1.1795701968290615E9 ; 2.9424655597904858E10 ; 0.0
155 ; 7433894.392810382 ; 2.0267206160525584E8 ; 1.187013181781649E9 ; 2.9627314328208984E10 ; 0.0
156 ; 7427700.188028829 ; 2.0268535482505465E8 ; 1.1944470761744595E9 ; 2.982998638981424E10 ; 0.0
157 ; 7422204.9605631 ; 2.026986095927395E8 ; 1.2018747763624883E9 ; 3.0032671744639294E10 ; 0.0
158 ; 7416004.201168251 ; 2.0271182554118195E8 ; 1.2092969813230515E9 ; 3.0235370354232033E10 ; 0.0
159 ; 7405796.390921607 ; 2.0272500230682716E8 ; 1.2167129855242198E9 ; 3.0438082179773216E10 ; 0.0
160 ; 7400248.050087342 ; 2.0273813952961442E8 ; 1.2241187819151413E9 ; 3.0640807182080044E10 ; 0.0
161 ; 7387898.673282534 ; 2.0275123685290098E8 ; 1.2315190299652288E9 ; 3.0843545321609657E10 ; 0.0
162 ; 7388135.46993249 ; 2.0276429392338848E8 ; 1.2389069286385114E9 ; 3.104629655846256E10 ; 0.0
163 ; 7377752.828145748 ; 2.027773103910524E8 ; 1.246295064108444E9 ; 3.124906085238595E10 ; 0.0
164 ; 7372431.677213065 ; 2.0279028590907413E8 ; 1.2536728169365897E9 ; 3.1451838162777E10 ; 0.0
165 ; 7361888.1962123355 ; 2.0280322013377568E8 ; 1.2610452486138027E9 ; 3.1654628448686073E10 ; 0.0
166 ; 7356583.229390799 ; 2.0281611272455677E8 ; 1.268407136810015E9 ; 3.1857431668819847E10 ; 0.0
167 ; 7348714.110443913 ; 2.028289633438344E8 ; 1.2757637200394058E9 ; 3.2060247781544403E10 ; 0.0
168 ; 7341205.693532591 ; 2.0284177165698457E8 ; 1.2831124341498497E9 ; 3.2263076744888237E10 ; 0.0
169 ; 7336684.681303563 ; 2.028545373322862E8 ; 1.2904536398433824E9 ; 3.2465918516545223E10 ; 0.0
170 ; 7324577.077424948 ; 2.0286726004086745E8 ; 1.2977903245246859E9 ; 3.266877305387751E10 ; 0.0
171 ; 7319277.550033909 ; 2.0287993945665342E8 ; 1.3051149016021109E9 ; 3.2871640313918377E10 ; 0.0
172 ; 7313875.698957107 ; 2.0289257525631645E8 ; 1.3124341791521447E9 ; 3.307452025337503E10 ; 0.0
173 ; 7303533.357117973 ; 2.0290516711922792E8 ; 1.3197480548511019E9 ; 3.3277412828631348E10 ; 0.0
174 ; 7300339.31065962 ; 2.0291771472741172E8 ; 1.3270515882082198E9 ; 3.3480317995750576E10 ; 0.0
175 ; 7295562.380878601 ; 2.0293021776549986E8 ; 1.3343519275188794E9 ; 3.368323571047799E10 ; 0.0
176 ; 7289105.949619488 ; 2.0294267592068925E8 ; 1.341647489899758E9 ; 3.388616592824349E10 ; 0.0
177 ; 7285295.598912857 ; 2.0295508888270047E8 ; 1.3489365958493776E9 ; 3.4089108604164177E10 ; 0.0
178 ; 7281101.775938605 ; 2.0296745634373763E8 ; 1.3562218914482906E9 ; 3.429206369304688E10 ; 0.0
179 ; 7276784.426925857 ; 2.0297977799845016E8 ; 1.363502993224229E9 ; 3.449503114939062E10 ; 0.0
180 ; 7274118.612332584 ; 2.0299205354389554E8 ; 1.370779777651155E9 ; 3.469801092738907E10 ; 0.0
181 ; 7266420.384416594 ; 2.0300428267950383E8 ; 1.3780538962634876E9 ; 3.490100298093296E10 ; 0.0
182 ; 7265793.632499985 ; 2.030164651070431E8 ; 1.3853203166479042E9 ; 3.5104007263612465E10 ; 0.0
183 ; 7256595.45469843 ; 2.030286005305863E8 ; 1.392586110280404E9 ; 3.5307023728719505E10 ; 0.0
184 ; 7255601.094559962 ; 2.0304068865647945E8 ; 1.3998427057351024E9 ; 3.551005232925009E10 ; 0.0
185 ; 7250364.494528553 ; 2.0305272919331068E8 ; 1.4070983068296623E9 ; 3.571309301790657E10 ; 0.0
186 ; 7245447.956779938 ; 2.0306472185188055E8 ; 1.4143486713241909E9 ; 3.5916145747099884E10 ; 0.0
187 ; 7240632.326504326 ; 2.0307666634517366E8 ; 1.4215941192809708E9 ; 3.611921046895177E10 ; 0.0
188 ; 7234411.204944568 ; 2.030885623883308E8 ; 1.428834751607475E9 ; 3.632228713529694E10 ; 0.0
189 ; 7230015.9504265515 ; 2.0310040969862247E8 ; 1.4360691628124197E9 ; 3.652537569768527E10 ; 0.0
190 ; 7228276.501005084 ; 2.031122079954233E8 ; 1.4432991787628462E9 ; 3.6728476107383896E10 ; 0.0
191 ; 7221147.83591855 ; 2.0312395700018728E8 ; 1.4505274552638514E9 ; 3.693158831537932E10 ; 0.0
192 ; 7217715.736650103 ; 2.031356564364239E8 ; 1.45774860309977E9 ; 3.713471227237951E10 ; 0.0
193 ; 7213373.347969666 ; 2.031473060296753E8 ; 1.46496631883642E9 ; 3.733784792881593E10 ; 0.0
194 ; 7205110.513932819 ; 2.03158905507494E8 ; 1.4721796921843898E9 ; 3.754099523484561E10 ; 0.0
195 ; 7204648.487467872 ; 2.0317045459942162E8 ; 1.4793848026983225E9 ; 3.77441541403531E10 ; 0.0
196 ; 7200073.595959841 ; 2.031819530369682E8 ; 1.4865894511857903E9 ; 3.794732459495252E10 ; 0.0
197 ; 7195819.077035952 ; 2.0319340055359253E8 ; 1.4937895247817502E9 ; 3.815050654798949E10 ; 0.0
198 ; 7190556.370027931 ; 2.0320479688468277E8 ; 1.500985343858786E9 ; 3.8353699948543076E10 ; 0.0
199 ; 7188013.3371293815 ; 2.0321614176753822E8 ; 1.5081759002288141E9 ; 3.855690474542776E10 ; 0.0
200 ; 7182262.710222302 ; 2.0322743494135135E8 ; 1.5153639135659435E9 ; 3.87601208871953E10 ; 0.0
201 ; 7176225.174168336 ; 1.609499911102365E8 ; 1.5225461762761657E9 ; 3.896334832213665E10 ; 0.0
