CSV File for the City 4 on Day 252
1 - Minute m 
2 - Power Consumed at minute m 
3 - Power Produced at minute m 
4 - Energy Consumed since the beginning of the day 
5 - Energy Produced since the beginning of the day 
6 - Energy Lost since the beginning of the day on lines starting from the city
 
0 ; 1640601.5221038728 ; 1.0581009642558953E8 ; 0.0 ; 0.0 ; 0.0
1 ; 1645564.3096529932 ; 1.05959999318694E8 ; 1640601.5221038728 ; 1.0581009642558953E8 ; 0.0
2 ; 1655168.79706526 ; 1.0641898249971911E8 ; 3286165.831756866 ; 2.1177009574428353E8 ; 0.0
3 ; 1661983.9366290295 ; 1.0718705449203044E8 ; 4941334.6288221255 ; 3.1818907824400264E8 ; 0.0
4 ; 1670014.833360707 ; 1.0826422303972054E8 ; 6603318.5654511545 ; 4.253761327360331E8 ; 0.0
5 ; 1681586.219545524 ; 1.0965049503052205E8 ; 8273333.398811862 ; 5.336403557757536E8 ; 0.0
6 ; 1697964.5517518276 ; 1.1134587642472377E8 ; 9954919.618357386 ; 6.432908508062756E8 ; 0.0
7 ; 1720248.8500238694 ; 1.133503721917252E8 ; 1.1652884170109214E7 ; 7.546367272309994E8 ; 0.0
8 ; 1753913.808864574 ; 1.156639862557568E8 ; 1.3373133020133084E7 ; 8.679870994227245E8 ; 0.0
9 ; 1800848.889977819 ; 1.1828672145212328E8 ; 1.5127046828997657E7 ; 9.836510856784813E8 ; 0.0
10 ; 1879162.4285217875 ; 1.2121857949509549E8 ; 1.6927895718975477E7 ; 1.1019378071306047E9 ; 0.0
11 ; 2004889.092669656 ; 1.2445956095829615E8 ; 1.8807058147497263E7 ; 1.2231563866257002E9 ; 0.0
12 ; 2201004.420311123 ; 1.280096652681025E8 ; 2.0811947240166917E7 ; 1.3476159475839963E9 ; 0.0
13 ; 2391953.5501947184 ; 1.318688907102437E8 ; 2.301295166047804E7 ; 1.4756256128520987E9 ; 0.0
14 ; 2412022.1343147275 ; 1.3603723444941515E8 ; 2.540490521067276E7 ; 1.6074945035623424E9 ; 0.0
15 ; 2421369.9348415066 ; 1.4051469256138623E8 ; 2.7816927344987486E7 ; 1.7435317380117576E9 ; 0.0
16 ; 2431561.166181116 ; 1.4530126007675758E8 ; 3.023829727982899E7 ; 1.884046430573144E9 ; 0.0
17 ; 2436624.833054633 ; 1.5039693103524032E8 ; 3.266985844601011E7 ; 2.0293476906499016E9 ; 0.0
18 ; 2446379.0203693747 ; 1.5580169854910183E8 ; 3.5106483279064745E7 ; 2.179744621685142E9 ; 0.0
19 ; 2454656.091315225 ; 1.6151555487424955E8 ; 3.755286229943412E7 ; 2.335546320234244E9 ; 0.0
20 ; 2463583.176361009 ; 1.675384914873179E8 ; 4.000751839074934E7 ; 2.4970618751084933E9 ; 0.0
21 ; 2471171.9875219543 ; 1.7387049916707978E8 ; 4.247110156711035E7 ; 2.6646003665958114E9 ; 0.0
22 ; 2482292.805254211 ; 1.8051156807851923E8 ; 4.4942273554632306E7 ; 2.8384708657628913E9 ; 0.0
23 ; 2491587.7993455823 ; 1.8746168785797536E8 ; 4.742456635988652E7 ; 3.0189824338414106E9 ; 0.0
24 ; 2498195.883706811 ; 1.9472084769787908E8 ; 4.99161541592321E7 ; 3.206444121699386E9 ; 0.0
25 ; 2506887.496784546 ; 2.009770773279436E8 ; 5.241435004293891E7 ; 3.4011649693972654E9 ; 0.0
26 ; 2516181.9101791633 ; 2.0098391313218576E8 ; 5.4921237539723456E7 ; 3.602142046725209E9 ; 0.0
27 ; 2522979.7159525356 ; 2.009911127501157E8 ; 5.743741944990262E7 ; 3.803125959857395E9 ; 0.0
28 ; 2531052.8002610044 ; 2.0099866439519033E8 ; 5.9960399165855154E7 ; 4.004117072607511E9 ; 0.0
29 ; 2541311.6555878897 ; 2.0100655621456188E8 ; 6.249145196611616E7 ; 4.2051157370027013E9 ; 0.0
30 ; 2550109.3733188603 ; 2.0101477635000974E8 ; 6.503276362170405E7 ; 4.406122293217263E9 ; 0.0
31 ; 2558859.0268126777 ; 2.01023312993075E8 ; 6.758287299502291E7 ; 4.607137069567273E9 ; 0.0
32 ; 2565692.254912597 ; 2.0103215443431702E8 ; 7.014173202183558E7 ; 4.8081603825603485E9 ; 0.0
33 ; 2575005.5974763264 ; 2.0104128910673863E8 ; 7.270742427674818E7 ; 5.009192536994665E9 ; 0.0
34 ; 2580696.7996132965 ; 2.0105070562353137E8 ; 7.528242987422451E7 ; 5.210233826101404E9 ; 0.0
35 ; 2589725.212205699 ; 2.010603928103758E8 ; 7.786312667383781E7 ; 5.411284531724936E9 ; 0.0
36 ; 2594250.056340637 ; 2.0107033973259562E8 ; 8.04528518860435E7 ; 5.612344924535312E9 ; 0.0
37 ; 2603737.9871571255 ; 2.0108053571751052E8 ; 8.304710194238414E7 ; 5.813415264267907E9 ; 0.0
38 ; 2611373.6430485826 ; 2.0109097037236246E8 ; 8.565083992954126E7 ; 6.014495799985417E9 ; 0.0
39 ; 2615380.6970234644 ; 2.0110163359820527E8 ; 8.826221357258984E7 ; 6.2155867703577795E9 ; 0.0
40 ; 2621225.9480682844 ; 2.011125156001524E8 ; 9.087759426961331E7 ; 6.416688403955985E9 ; 0.0
41 ; 2629232.721980145 ; 2.0112360689437234E8 ; 9.34988202176816E7 ; 6.617800919556137E9 ; 0.0
42 ; 2634296.1123820986 ; 2.011348983122086E8 ; 9.612805293966174E7 ; 6.818924526450509E9 ; 0.0
43 ; 2636716.3401474254 ; 2.011463810017836E8 ; 9.876234905204384E7 ; 7.020059424762717E9 ; 0.0
44 ; 2642345.05032623 ; 2.0115804642742413E8 ; 1.0139906539219126E8 ; 7.221205805764501E9 ; 0.0
45 ; 2646112.1645876057 ; 2.011698863672206E8 ; 1.0404141044251749E8 ; 7.422363852191925E9 ; 0.0
46 ; 2650309.122029098 ; 2.0118189290900883E8 ; 1.0668752260710509E8 ; 7.623533738559146E9 ; 0.0
47 ; 2656224.164010002 ; 2.01194058445034E8 ; 1.0933783172913419E8 ; 7.824715631468155E9 ; 0.0
48 ; 2657738.254120059 ; 2.012063756655334E8 ; 1.1199405589314419E8 ; 8.025909689913189E9 ; 0.0
49 ; 2659731.5035306783 ; 2.0121883755144697E8 ; 1.1465179414726424E8 ; 8.227116065578722E9 ; 0.0
50 ; 2664556.102135572 ; 2.0123143736644235E8 ; 1.1731152565079492E8 ; 8.428334903130169E9 ; 0.0
51 ; 2670130.560205627 ; 2.0124416864841756E8 ; 1.1997608175293049E8 ; 8.62956634049661E9 ; 0.0
52 ; 2669889.478176522 ; 2.0125702520062402E8 ; 1.2264621231313612E8 ; 8.83081050914503E9 ; 0.0
53 ; 2672571.8951441837 ; 2.0127000108253333E8 ; 1.2531610179131263E8 ; 9.032067534345654E9 ; 0.0
54 ; 2676100.779585892 ; 2.012830906005534E8 ; 1.2798867368645681E8 ; 9.233337535428186E9 ; 0.0
55 ; 2680380.9174502543 ; 2.0129628829868436E8 ; 1.3066477446604271E8 ; 9.43462062602874E9 ; 0.0
56 ; 2677240.4918176397 ; 2.013095889491899E8 ; 1.3334515538349296E8 ; 9.635916914327425E9 ; 0.0
57 ; 2684252.0446115746 ; 2.0132298754334754E8 ; 1.360223958753106E8 ; 9.837226503276615E9 ; 0.0
58 ; 2685923.891367482 ; 2.0133647928233027E8 ; 1.3870664791992217E8 ; 1.0038549490819963E10 ; 0.0
59 ; 2688090.895335333 ; 2.0135005956826165E8 ; 1.4139257181128967E8 ; 1.0239885970102293E10 ; 0.0
60 ; 2689649.121956502 ; 2.0136372399547896E8 ; 1.44080662706625E8 ; 1.0441236029670555E10 ; 0.0
61 ; 2691278.456716097 ; 2.0137746834203064E8 ; 1.467703118285815E8 ; 1.0642599753666035E10 ; 0.0
62 ; 2694058.5344020696 ; 2.013912885614288E8 ; 1.494615902852976E8 ; 1.0843977222008066E10 ; 0.0
63 ; 2695481.2303512134 ; 2.0140518077467075E8 ; 1.5215564881969967E8 ; 1.1045368510569494E10 ; 0.0
64 ; 2693460.1863273424 ; 2.0141914126254126E8 ; 1.5485113005005088E8 ; 1.1246773691344166E10 ; 0.0
65 ; 2698512.4167795805 ; 2.0143316645820007E8 ; 1.5754459023637822E8 ; 1.1448192832606707E10 ; 0.0
66 ; 2700136.204601496 ; 2.0144725294005927E8 ; 1.602431026531578E8 ; 1.1649625999064907E10 ; 0.0
67 ; 2701780.8235267783 ; 2.0146139742494977E8 ; 1.629432388577593E8 ; 1.1851073252004967E10 ; 0.0
68 ; 2703060.662945712 ; 2.0147559676157516E8 ; 1.6564501968128607E8 ; 1.2052534649429916E10 ; 0.0
69 ; 2706767.780810747 ; 2.0148984792424938E8 ; 1.6834808034423178E8 ; 1.2254010246191492E10 ; 0.0
70 ; 2708577.504053538 ; 2.0150414800691226E8 ; 1.7105484812504253E8 ; 1.2455500094115742E10 ; 0.0
71 ; 2710906.940757182 ; 2.0151849421741724E8 ; 1.7376342562909606E8 ; 1.2657004242122654E10 ; 0.0
72 ; 2709753.1112438287 ; 2.0153288387208292E8 ; 1.7647433256985325E8 ; 1.285852273634007E10 ; 0.0
73 ; 2711821.9739557575 ; 2.0154731439050102E8 ; 1.7918408568109706E8 ; 1.3060055620212154E10 ; 0.0
74 ; 2713952.2026716624 ; 2.015617832905919E8 ; 1.818959076550528E8 ; 1.3261602934602655E10 ; 0.0
75 ; 2716154.866607574 ; 2.0157628818389842E8 ; 1.846098598577245E8 ; 1.3463164717893248E10 ; 0.0
76 ; 2716042.054255788 ; 2.0159082677110955E8 ; 1.8732601472433206E8 ; 1.3664741006077147E10 ; 0.0
77 ; 2717647.317107797 ; 2.016053968378038E8 ; 1.9004205677858785E8 ; 1.3866331832848255E10 ; 0.0
78 ; 2715149.4369961703 ; 2.016199962504037E8 ; 1.9275970409569564E8 ; 1.4067937229686058E10 ; 0.0
79 ; 2716067.645543001 ; 2.0163462295233196E8 ; 1.954748535326918E8 ; 1.4269557225936462E10 ; 0.0
80 ; 2715325.369678055 ; 2.0164927496036038E8 ; 1.9819092117823482E8 ; 1.4471191848888794E10 ; 0.0
81 ; 2713561.2084471197 ; 2.016639503611422E8 ; 2.0090624654791287E8 ; 1.4672841123849154E10 ; 0.0
82 ; 2712307.6094049085 ; 2.0167864730791995E8 ; 2.0361980775636E8 ; 1.4874505074210297E10 ; 0.0
83 ; 2709979.5757029196 ; 2.016933640173998E8 ; 2.0633211536576492E8 ; 1.5076183721518217E10 ; 0.0
84 ; 2710844.0177703737 ; 2.017080987667846E8 ; 2.0904209494146782E8 ; 1.5277877085535618E10 ; 0.0
85 ; 2708580.212923189 ; 2.0172284989095753E8 ; 2.117529389592382E8 ; 1.5479585184302402E10 ; 0.0
86 ; 2706102.3326544347 ; 2.0173761577980915E8 ; 2.144615191721614E8 ; 1.568130803419336E10 ; 0.0
87 ; 2706317.151269147 ; 2.017523948757002E8 ; 2.1716762150481585E8 ; 1.588304564997317E10 ; 0.0
88 ; 2705343.717775643 ; 2.017671856710536E8 ; 2.1987393865608498E8 ; 1.608479804484887E10 ; 0.0
89 ; 2700745.6487260573 ; 2.017819867060686E8 ; 2.2257928237386063E8 ; 1.6286565230519922E10 ; 0.0
90 ; 2698622.545356847 ; 2.0179679656655133E8 ; 2.2528002802258667E8 ; 1.648834721722599E10 ; 0.0
91 ; 2699279.1813139105 ; 2.0181161388185492E8 ; 2.279786505679435E8 ; 1.6690144013792542E10 ; 0.0
92 ; 2692972.4643128524 ; 2.018264373229242E8 ; 2.3067792974925742E8 ; 1.6891955627674397E10 ; 0.0
93 ; 2697754.787544044 ; 2.0184126560043892E8 ; 2.3337090221357027E8 ; 1.709378206499732E10 ; 0.0
94 ; 2692434.7061804864 ; 2.0185609746305078E8 ; 2.360686570011143E8 ; 1.729562333059776E10 ; 0.0
95 ; 2690455.843630308 ; 2.01870931695709E8 ; 2.387610917072948E8 ; 1.749747942806081E10 ; 0.0
96 ; 2689723.055580575 ; 2.018857671180696E8 ; 2.414515475509251E8 ; 1.769935035975652E10 ; 0.0
97 ; 2686646.3190334146 ; 2.0190060258298466E8 ; 2.441412706065057E8 ; 1.7901236126874588E10 ; 0.0
98 ; 2684029.754607026 ; 2.0191543697506633E8 ; 2.468279169255391E8 ; 1.8103136729457573E10 ; 0.0
99 ; 2682585.463642061 ; 2.019302692093227E8 ; 2.4951194668014613E8 ; 1.830505216643264E10 ; 0.0
100 ; 2680640.0884618615 ; 2.019450982298605E8 ; 2.521945321437882E8 ; 1.8506982435641964E10 ; 0.0
101 ; 2677065.258882476 ; 2.0195992300865266E8 ; 2.5487517223225006E8 ; 1.8708927533871826E10 ; 0.0
102 ; 2676412.308457517 ; 2.0197474254436535E8 ; 2.5755223749113253E8 ; 1.8910887456880478E10 ; 0.0
103 ; 2674947.8399954257 ; 2.019895558612434E8 ; 2.6022864979959005E8 ; 1.9112862199424843E10 ; 0.0
104 ; 2668317.155628841 ; 2.0200436200804934E8 ; 2.6290359763958547E8 ; 1.9314851755286087E10 ; 0.0
105 ; 2668781.013792142 ; 2.020191600570543E8 ; 2.655719147952143E8 ; 1.9516856117294136E10 ; 0.0
106 ; 2663672.3488037167 ; 2.0203394910307762E8 ; 2.6824069580900642E8 ; 1.971887527735119E10 ; 0.0
107 ; 2663280.9685590495 ; 2.0204872826257244E8 ; 2.7090436815781015E8 ; 1.9920909226454266E10 ; 0.0
108 ; 2659356.2611202947 ; 2.0206349667275545E8 ; 2.735676491263692E8 ; 2.012295795471684E10 ; 0.0
109 ; 2654887.846137808 ; 2.0207825349077785E8 ; 2.762270053874895E8 ; 2.0325021451389595E10 ; 0.0
110 ; 2656963.4255051585 ; 2.0209299789293596E8 ; 2.788818932336273E8 ; 2.052709970488037E10 ; 0.0
111 ; 2649188.049942022 ; 2.0210772907391876E8 ; 2.815388566591325E8 ; 2.0729192702773308E10 ; 0.0
112 ; 2650279.752217151 ; 2.0212244624609125E8 ; 2.841880447090745E8 ; 2.0931300431847225E10 ; 0.0
113 ; 2642465.5113803535 ; 2.02137148638811E8 ; 2.868383244612917E8 ; 2.1133422878093315E10 ; 0.0
114 ; 2642380.1943335664 ; 2.0215183549777684E8 ; 2.8948078997267205E8 ; 2.1335560026732124E10 ; 0.0
115 ; 2639028.694211285 ; 2.0216650608440754E8 ; 2.921231701670056E8 ; 2.15377118622299E10 ; 0.0
116 ; 2636556.3467608416 ; 2.0218115967524934E8 ; 2.947621988612169E8 ; 2.173987836831431E10 ; 0.0
117 ; 2633157.376027154 ; 2.0219579556141055E8 ; 2.973987552079778E8 ; 2.194205952798956E10 ; 0.0
118 ; 2628259.88389197 ; 2.0221041304802206E8 ; 3.0003191258400494E8 ; 2.214425532355097E10 ; 0.0
119 ; 2628135.2698720046 ; 2.0222501145372254E8 ; 3.0266017246789694E8 ; 2.234646573659899E10 ; 0.0
120 ; 2622510.1169047016 ; 2.022395901101666E8 ; 3.0528830773776895E8 ; 2.2548690748052715E10 ; 0.0
121 ; 2620217.8516955394 ; 2.0225414836155555E8 ; 3.079108178546736E8 ; 2.2750930338162884E10 ; 0.0
122 ; 2615349.065681783 ; 2.022686855641887E8 ; 3.1053103570636916E8 ; 2.295318448652444E10 ; 0.0
123 ; 2611835.374298635 ; 2.022832010860352E8 ; 3.131463847720509E8 ; 2.315545317208863E10 ; 0.0
124 ; 2607677.5691115325 ; 2.0229769430632448E8 ; 3.1575822014634955E8 ; 2.3357736373174667E10 ; 0.0
125 ; 2607599.5138662443 ; 2.0231216461515498E8 ; 3.183658977154611E8 ; 2.356003406748099E10 ; 0.0
126 ; 2601757.885326451 ; 2.0232661141312006E8 ; 3.209734972293273E8 ; 2.3762346232096146E10 ; 0.0
127 ; 2598463.4347599964 ; 2.0234103411095023E8 ; 3.2357525511465377E8 ; 2.3964672843509266E10 ; 0.0
128 ; 2594091.2458961736 ; 2.0235543212917092E8 ; 3.2617371854941374E8 ; 2.4167013877620216E10 ; 0.0
129 ; 2591020.8043603986 ; 2.0236980489777532E8 ; 3.287678097953099E8 ; 2.4369369309749386E10 ; 0.0
130 ; 2583299.550742605 ; 2.0238415185591093E8 ; 3.313588305996703E8 ; 2.457173911464716E10 ; 0.0
131 ; 2580729.0517254686 ; 2.023984724515799E8 ; 3.339421301504129E8 ; 2.477412326650307E10 ; 0.0
132 ; 2570182.8363146423 ; 2.0241276614135203E8 ; 3.3652285920213836E8 ; 2.497652173895465E10 ; 0.0
133 ; 2567244.7488190667 ; 2.024270323900899E8 ; 3.39093042038453E8 ; 2.5178934505096004E10 ; 0.0
134 ; 2561597.5112110893 ; 2.024412706706858E8 ; 3.4166028678727204E8 ; 2.5381361537486095E10 ; 0.0
135 ; 2554834.582488078 ; 2.0245548046380958E8 ; 3.4422188429848313E8 ; 2.558380280815678E10 ; 0.0
136 ; 2544533.925989149 ; 2.0246966125766706E8 ; 3.467767188809712E8 ; 2.578625828862059E10 ; 0.0
137 ; 2540250.5075966846 ; 2.0248381254776874E8 ; 3.4932125280696034E8 ; 2.5988727949878258E10 ; 0.0
138 ; 2534140.399845882 ; 2.0249793383670774E8 ; 3.51861503314557E8 ; 2.6191211762426025E10 ; 0.0
139 ; 2526385.356748654 ; 2.0251202463394722E8 ; 3.543956437144029E8 ; 2.6393709696262733E10 ; 0.0
140 ; 2521383.6510416903 ; 2.025260844556164E8 ; 3.5692202907115155E8 ; 2.659622172089668E10 ; 0.0
141 ; 2513878.9682891113 ; 2.025401128243151E8 ; 3.5944341272219324E8 ; 2.6798747805352295E10 ; 0.0
142 ; 2506649.449840526 ; 2.0255410926892582E8 ; 3.619572916904824E8 ; 2.700128791817661E10 ; 0.0
143 ; 2498265.797137024 ; 2.0256807332443398E8 ; 3.644639411403229E8 ; 2.7203842027445534E10 ; 0.0
144 ; 2494055.6623970508 ; 2.0258200453175512E8 ; 3.6696220693745995E8 ; 2.7406410100769966E10 ; 0.0
145 ; 2489476.5599719277 ; 2.0259590243756902E8 ; 3.69456262599857E8 ; 2.760899210530172E10 ; 0.0
146 ; 2484017.6288991915 ; 2.0260976659416062E8 ; 3.719457391598289E8 ; 2.781158800773929E10 ; 0.0
147 ; 2484138.54269219 ; 2.026235965592671E8 ; 3.744297567887281E8 ; 2.801419777433345E10 ; 0.0
148 ; 2478724.635087367 ; 2.0263739189593127E8 ; 3.769138953314203E8 ; 2.821682137089272E10 ; 0.0
149 ; 2471868.3564148773 ; 2.0265115217236048E8 ; 3.793926199665077E8 ; 2.841945876278865E10 ; 0.0
150 ; 2467264.603472035 ; 2.0266487696179125E8 ; 3.818644883229225E8 ; 2.862210991496101E10 ; 0.0
151 ; 2465888.4400497987 ; 2.0267856584235924E8 ; 3.843317529263946E8 ; 2.8824774791922802E10 ; 0.0
152 ; 2461759.1513590296 ; 2.0269221839697406E8 ; 3.867976413664444E8 ; 2.902745335776516E10 ; 0.0
153 ; 2454259.257598632 ; 2.027058342131993E8 ; 3.8925940051780343E8 ; 2.9230145576162132E10 ; 0.0
154 ; 2452730.7197382785 ; 2.0271941288313684E8 ; 3.9171365977540207E8 ; 2.943285141037533E10 ; 0.0
155 ; 2445887.931038452 ; 2.027329540033159E8 ; 3.941663904951404E8 ; 2.963557082325847E10 ; 0.0
156 ; 2446297.272994486 ; 2.0274645717458618E8 ; 3.966122784261788E8 ; 2.9838303777261784E10 ; 0.0
157 ; 2439119.816775694 ; 2.0275992200201517E8 ; 3.990585756991733E8 ; 3.004105023443637E10 ; 0.0
158 ; 2434536.026030192 ; 2.0277334809478942E8 ; 4.0149769551594895E8 ; 3.0243810156438385E10 ; 0.0
159 ; 2429815.0164266014 ; 2.0278673506611934E8 ; 4.0393223154197913E8 ; 3.0446583504533173E10 ; 0.0
160 ; 2425664.1910448126 ; 2.0280008253314793E8 ; 4.0636204655840576E8 ; 3.0649370239599293E10 ; 0.0
161 ; 2422162.341939918 ; 2.0281339011686262E8 ; 4.0878771074945056E8 ; 3.0852170322132442E10 ; 0.0
162 ; 2419431.6431184965 ; 2.0282665744201067E8 ; 4.112098730913905E8 ; 3.1054983712249306E10 ; 0.0
163 ; 2413943.7227835534 ; 2.028398841370176E8 ; 4.13629304734509E8 ; 3.1257810369691315E10 ; 0.0
164 ; 2407829.9435960227 ; 2.028530698339088E8 ; 4.1604324845729256E8 ; 3.146065025382833E10 ; 0.0
165 ; 2405015.984328798 ; 2.0286621416823378E8 ; 4.1845107840088856E8 ; 3.166350332366224E10 ; 0.0
166 ; 2400487.1295950506 ; 2.0287931677899352E8 ; 4.2085609438521737E8 ; 3.186636953783047E10 ; 0.0
167 ; 2398714.3658016315 ; 2.0289237730857044E8 ; 4.232565815148124E8 ; 3.2069248854609463E10 ; 0.0
168 ; 2393391.3520253533 ; 2.0290539540266073E8 ; 4.2565529588061404E8 ; 3.2272141231918034E10 ; 0.0
169 ; 2389145.623891129 ; 2.0291837071020952E8 ; 4.280486872326394E8 ; 3.2475046627320694E10 ; 0.0
170 ; 2382160.601521972 ; 2.0293130288334805E8 ; 4.304378328565305E8 ; 3.2677964998030903E10 ; 0.0
171 ; 2379348.103408056 ; 2.0294419157733345E8 ; 4.3281999345805246E8 ; 3.288089630091425E10 ; 0.0
172 ; 2372605.6909257104 ; 2.029570364504905E8 ; 4.351993415614605E8 ; 3.3083840492491585E10 ; 0.0
173 ; 2366623.2775291405 ; 2.0296983716415557E8 ; 4.375719472523862E8 ; 3.3286797528942074E10 ; 0.0
174 ; 2369648.075273896 ; 2.0298259338262263E8 ; 4.3993857052991533E8 ; 3.3489767366106228E10 ; 0.0
175 ; 2365024.466007022 ; 2.0299530477309117E8 ; 4.423082186051892E8 ; 3.369274995948885E10 ; 0.0
176 ; 2359988.9688789807 ; 2.0300797100561595E8 ; 4.446732430711962E8 ; 3.389574526426194E10 ; 0.0
177 ; 2356643.6915339474 ; 2.0302059175305858E8 ; 4.470332320400752E8 ; 3.4098753235267555E10 ; 0.0
178 ; 2354064.636098999 ; 2.0303316669104093E8 ; 4.493898757316091E8 ; 3.4301773827020615E10 ; 0.0
179 ; 2350554.011305271 ; 2.0304569549790004E8 ; 4.517439403677081E8 ; 3.4504806993711655E10 ; 0.0
180 ; 2346309.619227565 ; 2.0305817785464478E8 ; 4.5409449437901336E8 ; 3.470785268920956E10 ; 0.0
181 ; 2342503.8007604363 ; 2.030706134449139E8 ; 4.5644080399824095E8 ; 3.49109108670642E10 ; 0.0
182 ; 2340957.559169102 ; 2.0308300195493573E8 ; 4.587833077990014E8 ; 3.511398148050912E10 ; 0.0
183 ; 2336297.879160683 ; 2.0309534307348925E8 ; 4.611242653581705E8 ; 3.531706448246405E10 ; 0.0
184 ; 2332169.7273712642 ; 2.031076364918664E8 ; 4.634605632373312E8 ; 3.552015982553754E10 ; 0.0
185 ; 2329371.3617067304 ; 2.0311988190383595E8 ; 4.657927329647025E8 ; 3.57232674620294E10 ; 0.0
186 ; 2328312.4793846626 ; 2.0313207900560847E8 ; 4.681221043264092E8 ; 3.592638734393324E10 ; 0.0
187 ; 2322433.006140432 ; 2.031442274958026E8 ; 4.704504168057939E8 ; 3.612951942293885E10 ; 0.0
188 ; 2320854.593950924 ; 2.0315632707541248E8 ; 4.727728498119343E8 ; 3.6332663650434654E10 ; 0.0
189 ; 2317781.845814103 ; 2.0316837744777635E8 ; 4.750937044058852E8 ; 3.653581997751006E10 ; 0.0
190 ; 2316340.454672099 ; 2.0318037831854612E8 ; 4.774114862516993E8 ; 3.673898835495784E10 ; 0.0
191 ; 2311972.805880385 ; 2.0319232939565834E8 ; 4.797278267063714E8 ; 3.694216873327638E10 ; 0.0
192 ; 2308203.1033103066 ; 2.032042303893057E8 ; 4.820397995122518E8 ; 3.714536106267204E10 ; 0.0
193 ; 2303825.3066531587 ; 2.0321608101190993E8 ; 4.843480026155621E8 ; 3.734856529306135E10 ; 0.0
194 ; 2302569.1243752306 ; 2.032278809780954E8 ; 4.866518279222152E8 ; 3.755178137407326E10 ; 0.0
195 ; 2297925.612759698 ; 2.032396300046638E8 ; 4.8895439704659045E8 ; 3.775500925505135E10 ; 0.0
196 ; 2293839.3974342644 ; 2.0325132781056955E8 ; 4.9125232265935016E8 ; 3.7958248885056015E10 ; 0.0
197 ; 2292081.402466265 ; 2.032629741168962E8 ; 4.935461620567844E8 ; 3.8161500212866585E10 ; 0.0
198 ; 2287841.753607295 ; 2.0327456864683354E8 ; 4.958382434592506E8 ; 3.836476318698348E10 ; 0.0
199 ; 2286300.758422804 ; 2.032861111256555E8 ; 4.981260852128579E8 ; 3.856803775563032E10 ; 0.0
200 ; 2281813.7742877356 ; 2.03297601280699E8 ; 5.004123859712807E8 ; 3.8771323866755974E10 ; 0.0
