CSV File for the City 4 on Day 240
1 - Minute m 
2 - Power Consumed at minute m 
3 - Power Produced at minute m 
4 - Energy Consumed since the beginning of the day 
5 - Energy Produced since the beginning of the day 
6 - Energy Lost since the beginning of the day on lines starting from the city
 
0 ; 966921.2732524772 ; 1.0548670574351898E8 ; 0.0 ; 0.0 ; 0.0
1 ; 969291.6654458981 ; 1.0563371286872852E8 ; 966921.2732524772 ; 1.0548670574351898E8 ; 0.0
2 ; 981827.6517052935 ; 1.0608998471018258E8 ; 1936212.9386983751 ; 2.111204186122475E8 ; 0.0
3 ; 990517.8800694987 ; 1.0685556273658925E8 ; 2918040.5904036686 ; 3.172104033224301E8 ; 0.0
4 ; 1000115.8242333343 ; 1.0793048745242578E8 ; 3908558.4704731675 ; 4.240659660590193E8 ; 0.0
5 ; 1014436.6099218488 ; 1.0931479736179298E8 ; 4908674.294706502 ; 5.319964535114451E8 ; 0.0
6 ; 1029174.4747453084 ; 1.1100852783131787E8 ; 5923110.90462835 ; 6.413112508732381E8 ; 0.0
7 ; 1054535.0865150706 ; 1.1301170991086417E8 ; 6952285.379373658 ; 7.52319778704556E8 ; 0.0
8 ; 1084514.578786138 ; 1.1532436918885243E8 ; 8006820.465888729 ; 8.653314886154201E8 ; 0.0
9 ; 1135947.874616745 ; 1.1794652477038395E8 ; 9091335.044674868 ; 9.806558578042725E8 ; 0.0
10 ; 1214317.7126909443 ; 1.2087818846721035E8 ; 1.0227282919291612E7 ; 1.0986023825746565E9 ; 0.0
11 ; 1336956.271357181 ; 1.2411936427655682E8 ; 1.1441600631982556E7 ; 1.2194805710418668E9 ; 0.0
12 ; 1536201.4155226503 ; 1.2767004820119813E8 ; 1.2778556903339736E7 ; 1.3435999353184235E9 ; 0.0
13 ; 1729309.334259852 ; 1.3153022842938268E8 ; 1.4314758318862386E7 ; 1.4712699835196216E9 ; 0.0
14 ; 1749584.7450530746 ; 1.3569988585600924E8 ; 1.6044067653122239E7 ; 1.6028002119490042E9 ; 0.0
15 ; 1760859.5230603716 ; 1.4017899489265716E8 ; 1.7793652398175314E7 ; 1.7385000978050134E9 ; 0.0
16 ; 1771368.4664626296 ; 1.4496752448946282E8 ; 1.9554511921235684E7 ; 1.8786790926976705E9 ; 0.0
17 ; 1778534.5948096435 ; 1.5006543927979913E8 ; 2.1325880387698315E7 ; 2.0236466171871333E9 ; 0.0
18 ; 1785613.8376947085 ; 1.554727007595653E8 ; 2.310441498250796E7 ; 2.1737120564669323E9 ; 0.0
19 ; 1796879.8589446447 ; 1.6118926842428407E8 ; 2.4890028820202667E7 ; 2.3291847572264977E9 ; 0.0
20 ; 1803039.7874579881 ; 1.6721510080524734E8 ; 2.668690867914731E7 ; 2.4903740256507816E9 ; 0.0
21 ; 1815976.9335206652 ; 1.7355015636645356E8 ; 2.84899484666053E7 ; 2.657589126456029E9 ; 0.0
22 ; 1826533.1940640458 ; 1.8019439424356157E8 ; 3.030592540012596E7 ; 2.8311392828224826E9 ; 0.0
23 ; 1836324.9692738124 ; 1.8714777482226133E8 ; 3.213245859419001E7 ; 3.0113336770660443E9 ; 0.0
24 ; 1847040.8482333026 ; 1.9441026016531515E8 ; 3.396878356346382E7 ; 3.1984814518883057E9 ; 0.0
25 ; 1857588.8429292568 ; 2.0066985520320383E8 ; 3.581582441169713E7 ; 3.392891712053621E9 ; 0.0
26 ; 1864838.5161180664 ; 2.0068007394941497E8 ; 3.7673413254626386E7 ; 3.5935615672568245E9 ; 0.0
27 ; 1873919.626492884 ; 2.0069065411107442E8 ; 3.953825177074445E7 ; 3.7942416412062397E9 ; 0.0
28 ; 1883249.2643384247 ; 2.0070156634915307E8 ; 4.141217139723733E7 ; 3.994932295317314E9 ; 0.0
29 ; 1891343.4946280918 ; 2.007127835310423E8 ; 4.329542066157576E7 ; 4.195633861666467E9 ; 0.0
30 ; 1903118.4213861253 ; 2.007242806512659E8 ; 4.518676415620385E7 ; 4.39634664519751E9 ; 0.0
31 ; 1911144.1023369082 ; 2.0073603472625124E8 ; 4.7089882577589974E7 ; 4.597070925848776E9 ; 0.0
32 ; 1917963.334755278 ; 2.0074802467319432E8 ; 4.900102667992688E7 ; 4.797806960575027E9 ; 0.0
33 ; 1929173.2456641884 ; 2.0076023118071514E8 ; 5.091899001468216E7 ; 4.998554985248221E9 ; 0.0
34 ; 1935990.2396458192 ; 2.0077263657702494E8 ; 5.2848163260346346E7 ; 5.199315216428937E9 ; 0.0
35 ; 1945609.3347316815 ; 2.0078522469971257E8 ; 5.478415349999216E7 ; 5.400087853005962E9 ; 0.0
36 ; 1952577.3482334649 ; 2.007979807699819E8 ; 5.6729762834723845E7 ; 5.600873077705675E9 ; 0.0
37 ; 1958690.4041231496 ; 2.008108912731826E8 ; 5.868234018295731E7 ; 5.801671058475657E9 ; 0.0
38 ; 1968003.4853185622 ; 2.0082394384673414E8 ; 6.064103058708046E7 ; 6.00248194974884E9 ; 0.0
39 ; 1974265.072925953 ; 2.008371271759936E8 ; 6.260903407239902E7 ; 6.203305893595574E9 ; 0.0
40 ; 1981820.525893339 ; 2.0085043089822468E8 ; 6.4583299145324975E7 ; 6.404143020771568E9 ; 0.0
41 ; 1990925.5981991868 ; 2.008638455145531E8 ; 6.656511967121831E7 ; 6.604993451669793E9 ; 0.0
42 ; 1995790.2977463037 ; 2.0087736230960953E8 ; 6.85560452694175E7 ; 6.805857297184346E9 ; 0.0
43 ; 2001764.9556515585 ; 2.0089097327844745E8 ; 7.05518355671638E7 ; 7.006734659493956E9 ; 0.0
44 ; 2006077.7940121267 ; 2.0090467106025758E8 ; 7.255360052281535E7 ; 7.207625632772403E9 ; 0.0
45 ; 2011891.2686211108 ; 2.0091844887836954E8 ; 7.455967831682748E7 ; 7.408530303832661E9 ; 0.0
46 ; 2017614.2696540516 ; 2.0093230048602718E8 ; 7.65715695854486E7 ; 7.60944875271103E9 ; 0.0
47 ; 2023451.9239733396 ; 2.0094622011743414E8 ; 7.858918385510264E7 ; 7.810381053197057E9 ; 0.0
48 ; 2027998.3529946276 ; 2.0096020244358882E8 ; 8.061263577907598E7 ; 8.011327273314491E9 ; 0.0
49 ; 2030826.884578919 ; 2.0097424253245613E8 ; 8.26406341320706E7 ; 8.2122874757580805E9 ; 0.0
50 ; 2035811.4792412934 ; 2.009883358130557E8 ; 8.467146101664951E7 ; 8.413261718290537E9 ; 0.0
51 ; 2039858.202122616 ; 2.0100247804307988E8 ; 8.670727249589081E7 ; 8.614250054103592E9 ; 0.0
52 ; 2043840.9526452022 ; 2.0101666527968732E8 ; 8.874713069801342E7 ; 8.815252532146671E9 ; 0.0
53 ; 2045737.5334134651 ; 2.0103089385315102E8 ; 9.079097165065862E7 ; 9.01626919742636E9 ; 0.0
54 ; 2046312.8363418395 ; 2.0104516034307042E8 ; 9.283670918407209E7 ; 9.21730009127951E9 ; 0.0
55 ; 2053429.796661325 ; 2.0105946155688426E8 ; 9.488302202041394E7 ; 9.418345251622581E9 ; 0.0
56 ; 2056501.5774016583 ; 2.0107379451044953E8 ; 9.693645181707527E7 ; 9.619404713179466E9 ; 0.0
57 ; 2059480.5438300814 ; 2.010881564104738E8 ; 9.899295339447692E7 ; 9.820478507689917E9 ; 0.0
58 ; 2065053.7050371496 ; 2.0110254463861167E8 ; 1.01052433938307E8 ; 1.002156666410039E10 ; 0.0
59 ; 2067470.7337027446 ; 2.011169567370554E8 ; 1.0311748764334415E8 ; 1.0222669208739E10 ; 0.0
60 ; 2069005.3596901875 ; 2.0113139039546758E8 ; 1.051849583770469E8 ; 1.0423786165476055E10 ; 0.0
61 ; 2071476.3722646441 ; 2.0114584343912002E8 ; 1.0725396373673709E8 ; 1.0624917555871523E10 ; 0.0
62 ; 2075630.506486987 ; 2.0116031381811756E8 ; 1.0932544010900173E8 ; 1.0826063399310642E10 ; 0.0
63 ; 2079627.922068403 ; 2.011747995975978E8 ; 1.1140107061548871E8 ; 1.102722371312876E10 ; 0.0
64 ; 2080878.0627642258 ; 2.0118929894881022E8 ; 1.1348069853755711E8 ; 1.1228398512726357E10 ; 0.0
65 ; 2085416.8134242017 ; 2.0120381014098743E8 ; 1.1556157660032134E8 ; 1.1429587811675167E10 ; 0.0
66 ; 2087955.3548796924 ; 2.012183315339311E8 ; 1.1764699341374554E8 ; 1.1630791621816154E10 ; 0.0
67 ; 2088866.3930910665 ; 2.012328615712433E8 ; 1.1973494876862523E8 ; 1.1832009953350086E10 ; 0.0
68 ; 2092086.6433852215 ; 2.0124739877414045E8 ; 1.218238151617163E8 ; 1.203324281492133E10 ; 0.0
69 ; 2096064.6139779848 ; 2.0126194173579496E8 ; 1.2391590180510151E8 ; 1.223449021369547E10 ; 0.0
70 ; 2096665.704392474 ; 2.0127648911615366E8 ; 1.260119664190795E8 ; 1.2435752155431265E10 ; 0.0
71 ; 2099926.7455204837 ; 2.0129103963718915E8 ; 1.2810863212347198E8 ; 1.2637028644547419E10 ; 0.0
72 ; 2099990.9107765774 ; 2.0130559207854286E8 ; 1.3020855886899246E8 ; 1.2838319684184608E10 ; 0.0
73 ; 2104049.8869806384 ; 2.0132014527352446E8 ; 1.3230854977976903E8 ; 1.3039625276263151E10 ; 0.0
74 ; 2106685.695693483 ; 2.0133469810543463E8 ; 1.344125996667497E8 ; 1.3240945421536676E10 ; 0.0
75 ; 2110895.1385702295 ; 2.013492495041818E8 ; 1.3651928536244318E8 ; 1.344228011964211E10 ; 0.0
76 ; 2111798.9898999385 ; 2.013637984431671E8 ; 1.386301805010134E8 ; 1.3643629369146292E10 ; 0.0
77 ; 2114909.450742795 ; 2.0137834393641293E8 ; 1.4074197949091333E8 ; 1.3844993167589458E10 ; 0.0
78 ; 2113776.9822324375 ; 2.0139288503591427E8 ; 1.428568889416561E8 ; 1.4046371511525871E10 ; 0.0
79 ; 2113864.4654115485 ; 2.0140742082919315E8 ; 1.4497066592388856E8 ; 1.4247764396561785E10 ; 0.0
80 ; 2118556.6366129075 ; 2.0142195043703866E8 ; 1.470845303893001E8 ; 1.4449171817390978E10 ; 0.0
81 ; 2113857.6132612675 ; 2.0143647301141673E8 ; 1.4920308702591303E8 ; 1.4650593767828016E10 ; 0.0
82 ; 2115861.6015171586 ; 2.014509877335354E8 ; 1.5131694463917428E8 ; 1.4852030240839434E10 ; 0.0
83 ; 2112570.3733995557 ; 2.014654938120524E8 ; 1.5343280624069145E8 ; 1.505348122857297E10 ; 0.0
84 ; 2110623.734886088 ; 2.014799904814131E8 ; 1.55545376614091E8 ; 1.5254946722385021E10 ; 0.0
85 ; 2113004.461283933 ; 2.0149447700030866E8 ; 1.576560003489771E8 ; 1.5456426712866434E10 ; 0.0
86 ; 2110822.2347745495 ; 2.0150895265024394E8 ; 1.59769004810261E8 ; 1.5657921189866743E10 ; 0.0
87 ; 2109915.826819577 ; 2.0152341673420665E8 ; 1.6187982704503557E8 ; 1.5859430142516987E10 ; 0.0
88 ; 2111883.5851464407 ; 2.0153786857542965E8 ; 1.6398974287185514E8 ; 1.6060953559251194E10 ; 0.0
89 ; 2107620.2379837884 ; 2.0155230751623908E8 ; 1.6610162645700157E8 ; 1.6262491427826624E10 ; 0.0
90 ; 2108468.9816453564 ; 2.0156673291698122E8 ; 1.6820924669498536E8 ; 1.6464043735342863E10 ; 0.0
91 ; 2110207.939352379 ; 2.0158114415502268E8 ; 1.703177156766307E8 ; 1.6665610468259844E10 ; 0.0
92 ; 2105386.8769738157 ; 2.0159554062381744E8 ; 1.724279236159831E8 ; 1.6867191612414867E10 ; 0.0
93 ; 2106888.9292753125 ; 2.0160992173203632E8 ; 1.745333104929569E8 ; 1.7068787153038685E10 ; 0.0
94 ; 2102593.5575663466 ; 2.0162428690275386E8 ; 1.766401994222322E8 ; 1.727039707477072E10 ; 0.0
95 ; 2105362.8353818147 ; 2.0163863557268837E8 ; 1.7874279297979856E8 ; 1.7472021361673477E10 ; 0.0
96 ; 2104299.516631997 ; 2.0165296719149116E8 ; 1.8084815581518036E8 ; 1.7673659997246166E10 ; 0.0
97 ; 2101388.707430155 ; 2.0166728122108155E8 ; 1.8295245533181235E8 ; 1.7875312964437656E10 ; 0.0
98 ; 2101621.6008043373 ; 2.01681577135024E8 ; 1.850538440392425E8 ; 1.8076980245658737E10 ; 0.0
99 ; 2101345.3307709666 ; 2.0169585441794473E8 ; 1.8715546564004683E8 ; 1.8278661822793762E10 ; 0.0
100 ; 2097756.7663299013 ; 2.017101125649845E8 ; 1.892568109708178E8 ; 1.8480357677211708E10 ; 0.0
101 ; 2099815.4129254576 ; 2.0172435108128563E8 ; 1.9135456773714772E8 ; 1.868206778977669E10 ; 0.0
102 ; 2097265.560615889 ; 2.0173856948151022E8 ; 1.9345438315007317E8 ; 1.888379214085798E10 ; 0.0
103 ; 2095790.2530716683 ; 2.0175276728938785E8 ; 1.9555164871068907E8 ; 1.908553071033949E10 ; 0.0
104 ; 2094875.4282640961 ; 2.0176694403729054E8 ; 1.9764743896376073E8 ; 1.9287283477628876E10 ; 0.0
105 ; 2093484.7864068695 ; 2.0178109926583314E8 ; 1.9974231439202482E8 ; 1.9489050421666164E10 ; 0.0
106 ; 2090568.4166957086 ; 2.017952325234975E8 ; 2.018357991784317E8 ; 1.9690831520932E10 ; 0.0
107 ; 2088890.2546820524 ; 2.018093433662786E8 ; 2.039263675951274E8 ; 1.9892626753455498E10 ; 0.0
108 ; 2087906.0912393657 ; 2.0182343135735145E8 ; 2.0601525784980947E8 ; 2.0094436096821777E10 ; 0.0
109 ; 2086300.6928619852 ; 2.0183749606675744E8 ; 2.0810316394104883E8 ; 2.029625952817913E10 ; 0.0
110 ; 2082493.2616772957 ; 2.0185153707110834E8 ; 2.101894646339108E8 ; 2.0498097024245888E10 ; 0.0
111 ; 2080098.002998487 ; 2.0186555395330742E8 ; 2.122719578955881E8 ; 2.0699948561316998E10 ; 0.0
112 ; 2082505.7375714895 ; 2.0187954630228642E8 ; 2.143520558985866E8 ; 2.0901814115270306E10 ; 0.0
113 ; 2080874.1154566212 ; 2.01893513712757E8 ; 2.1643456163615808E8 ; 2.1103693661572594E10 ; 0.0
114 ; 2075794.5611671368 ; 2.0190745578497636E8 ; 2.185154357516147E8 ; 2.130558717528535E10 ; 0.0
115 ; 2073698.661134054 ; 2.0192137212452555E8 ; 2.2059123031278184E8 ; 2.1507494631070328E10 ; 0.0
116 ; 2070555.28883142 ; 2.0193526234210014E8 ; 2.226649289739159E8 ; 2.1709416003194855E10 ; 0.0
117 ; 2072531.2201467233 ; 2.019491260533122E8 ; 2.2473548426274732E8 ; 2.1911351265536957E10 ; 0.0
118 ; 2068396.6853450136 ; 2.0196296287850308E8 ; 2.2680801548289403E8 ; 2.2113300391590267E10 ; 0.0
119 ; 2066660.607343252 ; 2.0197677244256607E8 ; 2.2887641216823906E8 ; 2.231526335446877E10 ; 0.0
120 ; 2061812.9516744204 ; 2.019905543747788E8 ; 2.309430727755823E8 ; 2.2517240126911335E10 ; 0.0
121 ; 2062720.3328380033 ; 2.0200430830864435E8 ; 2.3300488572725675E8 ; 2.2719230681286114E10 ; 0.0
122 ; 2060489.0880136695 ; 2.0201803388174072E8 ; 2.3506760606009474E8 ; 2.2921234989594757E10 ; 0.0
123 ; 2055978.3693828995 ; 2.0203173073557824E8 ; 2.3712809514810842E8 ; 2.3123253023476498E10 ; 0.0
124 ; 2053989.5044950594 ; 2.020453985154644E8 ; 2.391840735174913E8 ; 2.3325284754212074E10 ; 0.0
125 ; 2054152.1930165035 ; 2.020590368703756E8 ; 2.4123806302198637E8 ; 2.352733015272754E10 ; 0.0
126 ; 2048669.2913883196 ; 2.0207264545283568E8 ; 2.4329221521500286E8 ; 2.3729389189597916E10 ; 0.0
127 ; 2048959.7830123699 ; 2.020862239188002E8 ; 2.453408845063912E8 ; 2.393146183505075E10 ; 0.0
128 ; 2046528.9482394683 ; 2.0209977192754728E8 ; 2.4738984428940356E8 ; 2.413354805896955E10 ; 0.0
129 ; 2042597.3860368787 ; 2.0211328914157322E8 ; 2.4943637323764303E8 ; 2.43356478308971E10 ; 0.0
130 ; 2034518.4704869462 ; 2.021267752264939E8 ; 2.514789706236799E8 ; 2.4537761120038673E10 ; 0.0
131 ; 2030280.986399527 ; 2.021402298509509E8 ; 2.5351348909416685E8 ; 2.4739887895265167E10 ; 0.0
132 ; 2025881.5111457864 ; 2.0215365268652216E8 ; 2.5554377008056638E8 ; 2.494202812511612E10 ; 0.0
133 ; 2023153.384181312 ; 2.0216704340763733E8 ; 2.5756965159171218E8 ; 2.5144181777802643E10 ; 0.0
134 ; 2015426.0730521567 ; 2.0218040169149706E8 ; 2.595928049758935E8 ; 2.534634882121028E10 ; 0.0
135 ; 2011521.7496250966 ; 2.021937272179963E8 ; 2.6160823104894567E8 ; 2.554852922290178E10 ; 0.0
136 ; 2005980.1353271694 ; 2.022070196696513E8 ; 2.6361975279857075E8 ; 2.5750722950119774E10 ; 0.0
137 ; 1999825.0143449835 ; 2.022202787315303E8 ; 2.656257329338979E8 ; 2.5952929969789425E10 ; 0.0
138 ; 1996596.5456348697 ; 2.0223350409118736E8 ; 2.676255579482429E8 ; 2.6155150248520954E10 ; 0.0
139 ; 1988733.528206632 ; 2.022466954385994E8 ; 2.6962215449387777E8 ; 2.635738375261214E10 ; 0.0
140 ; 1982023.7125180669 ; 2.022598524661065E8 ; 2.716108880220844E8 ; 2.655963044805074E10 ; 0.0
141 ; 1980350.560852894 ; 2.0227297486835462E8 ; 2.735929117346025E8 ; 2.6761890300516846E10 ; 0.0
142 ; 1970303.8781464081 ; 2.0228606234224144E8 ; 2.755732622954554E8 ; 2.69641632753852E10 ; 0.0
143 ; 1967549.5168020842 ; 2.022991145868645E8 ; 2.775435661736018E8 ; 2.7166449337727444E10 ; 0.0
144 ; 1960836.4727487576 ; 2.023121313034719E8 ; 2.795111156904039E8 ; 2.736874845231431E10 ; 0.0
145 ; 1960799.6846976387 ; 2.0232511219541526E8 ; 2.8147195216315264E8 ; 2.757106058361778E10 ; 0.0
146 ; 1954302.2099919363 ; 2.0233805696810493E8 ; 2.8343275184785026E8 ; 2.7773385695813194E10 ; 0.0
147 ; 1950585.7991908547 ; 2.023509653289673E8 ; 2.853870540578422E8 ; 2.79757237527813E10 ; 0.0
148 ; 1948888.7623005311 ; 2.0236383698740396E8 ; 2.873376398570331E8 ; 2.8178074718110268E10 ; 0.0
149 ; 1948485.2250532303 ; 2.0237667165475297E8 ; 2.892865286193336E8 ; 2.838043855509767E10 ; 0.0
150 ; 1940864.609594671 ; 2.0238946904425174E8 ; 2.912350138443869E8 ; 2.8582815226752426E10 ; 0.0
151 ; 1940776.4589345856 ; 2.024022288710018E8 ; 2.931758784539815E8 ; 2.8785204695796677E10 ; 0.0
152 ; 1938030.0389964182 ; 2.0241495085193494E8 ; 2.951166549129161E8 ; 2.898760692466768E10 ; 0.0
153 ; 1933071.6722024875 ; 2.0242763470578116E8 ; 2.970546849519125E8 ; 2.9190021875519615E10 ; 0.0
154 ; 1932438.2146279803 ; 2.02440280153038E8 ; 2.98987756624115E8 ; 2.9392449510225395E10 ; 0.0
155 ; 1925604.18153778 ; 2.024528869159412E8 ; 3.00920194838743E8 ; 2.9594889790378433E10 ; 0.0
156 ; 1927925.4008146725 ; 2.024654547184369E8 ; 3.028457990202808E8 ; 2.9797342677294373E10 ; 0.0
157 ; 1920909.881134725 ; 2.0247798328615487E8 ; 3.0477372442109543E8 ; 2.999980813201281E10 ; 0.0
158 ; 1919128.7572870145 ; 2.0249047234638312E8 ; 3.066946343022302E8 ; 3.0202286115298965E10 ; 0.0
159 ; 1917853.5251548786 ; 2.0250292162804365E8 ; 3.086137630595172E8 ; 3.0404776587645348E10 ; 0.0
160 ; 1913050.034982292 ; 2.025153308616693E8 ; 3.105316165846721E8 ; 3.060727950927339E10 ; 0.0
161 ; 1909146.6519072307 ; 2.0252769977938163E8 ; 3.1244466661965436E8 ; 3.080979484013506E10 ; 0.0
162 ; 1907975.7812810189 ; 2.025400281148699E8 ; 3.1435381327156156E8 ; 3.101232253991444E10 ; 0.0
163 ; 1903910.7895586407 ; 2.0255231560337085E8 ; 3.1626178905284256E8 ; 3.121486256802931E10 ; 0.0
164 ; 1898694.5801937683 ; 2.0256456198164958E8 ; 3.181656998424012E8 ; 3.141741488363268E10 ; 0.0
165 ; 1897538.891662954 ; 2.025767669879812E8 ; 3.2006439442259496E8 ; 3.161997944561433E10 ; 0.0
166 ; 1893603.1977558082 ; 2.0258893036213335E8 ; 3.219619333142579E8 ; 3.182255621260231E10 ; 0.0
167 ; 1892116.7739360137 ; 2.0260105184534958E8 ; 3.2385553651201373E8 ; 3.2025145142964443E10 ; 0.0
168 ; 1887278.5491635012 ; 2.0261313118033338E8 ; 3.2574765328594977E8 ; 3.222774619480979E10 ; 0.0
169 ; 1883931.167014325 ; 2.026251681112331E8 ; 3.276349318351133E8 ; 3.2430359325990124E10 ; 0.0
170 ; 1880383.9391535444 ; 2.026371623836273E8 ; 3.295188630021276E8 ; 3.2632984494101357E10 ; 0.0
171 ; 1880283.9191908443 ; 2.0264911374451125E8 ; 3.3139924694128114E8 ; 3.2835621656484985E10 ; 0.0
172 ; 1874014.330053674 ; 2.026610219422835E8 ; 3.3327953086047196E8 ; 3.3038270770229496E10 ; 0.0
173 ; 1871913.2681437787 ; 2.0267288672673354E8 ; 3.3515354519052565E8 ; 3.324093179217178E10 ; 0.0
174 ; 1867344.3692226296 ; 2.0268470784902975E8 ; 3.370254584586694E8 ; 3.3443604678898514E10 ; 0.0
175 ; 1865969.0334602315 ; 2.0269648506170803E8 ; 3.3889280282789207E8 ; 3.3646289386747543E10 ; 0.0
176 ; 1866831.5065252138 ; 2.0270821811866108E8 ; 3.407587718613523E8 ; 3.384898587180925E10 ; 0.0
177 ; 1861142.4239379237 ; 2.0271990677512786E8 ; 3.4262560336787754E8 ; 3.405169408992791E10 ; 0.0
178 ; 1858603.378757144 ; 2.0273155078768396E8 ; 3.4448674579181546E8 ; 3.4254413996703037E10 ; 0.0
179 ; 1855806.2506250027 ; 2.027431499142322E8 ; 3.463453491705726E8 ; 3.445714554749072E10 ; 0.0
180 ; 1857498.802157477 ; 2.0275470391399363E8 ; 3.482011554211976E8 ; 3.465988869740495E10 ; 0.0
181 ; 1852525.9920428845 ; 2.0276621254749924E8 ; 3.5005865422335505E8 ; 3.486264340131895E10 ; 0.0
182 ; 1849026.2770965123 ; 2.0277767557658178E8 ; 3.5191118021539795E8 ; 3.506540961386645E10 ; 0.0
183 ; 1849217.2550812587 ; 2.0278909276436815E8 ; 3.5376020649249446E8 ; 3.526818728944303E10 ; 0.0
184 ; 1845983.7364038834 ; 2.028004638752722E8 ; 3.556094237475757E8 ; 3.54709763822074E10 ; 0.0
185 ; 1842856.6833960568 ; 2.0281178867498782E8 ; 3.574554074839796E8 ; 3.567377684608267E10 ; 0.0
186 ; 1843322.587256804 ; 2.028230669304823E8 ; 3.592982641673756E8 ; 3.587658863475766E10 ; 0.0
187 ; 1840316.2277481027 ; 2.0283429840999028E8 ; 3.611415867546324E8 ; 3.607941170168814E10 ; 0.0
188 ; 1837583.5977300736 ; 2.0284548288300782E8 ; 3.629819029823805E8 ; 3.628224600009813E10 ; 0.0
189 ; 1836902.096079998 ; 2.0285662012028682E8 ; 3.648194865801106E8 ; 3.648509148298114E10 ; 0.0
190 ; 1830487.545521422 ; 2.0286770989382973E8 ; 3.666563886761906E8 ; 3.6687948103101425E10 ; 0.0
191 ; 1832252.9764414157 ; 2.0287875197688472E8 ; 3.6848687622171205E8 ; 3.6890815812995255E10 ; 0.0
192 ; 1828283.9925156143 ; 2.0288974614394084E8 ; 3.703191291981535E8 ; 3.709369456497214E10 ; 0.0
193 ; 1825718.8115661978 ; 2.029006921707236E8 ; 3.721474131906691E8 ; 3.729658431111608E10 ; 0.0
194 ; 1822634.8578374663 ; 2.0291158983419082E8 ; 3.739731320022353E8 ; 3.7499485003286804E10 ; 0.0
195 ; 1821284.5312647186 ; 2.0292243891252878E8 ; 3.7579576686007273E8 ; 3.7702396593120995E10 ; 0.0
196 ; 1821161.9115742396 ; 2.029332391851484E8 ; 3.7761705139133745E8 ; 3.790531903203352E10 ; 0.0
197 ; 1814584.2408598787 ; 2.029439904326817E8 ; 3.794382133029117E8 ; 3.810825227121867E10 ; 0.0
198 ; 1813730.6836327708 ; 2.0295469243697882E8 ; 3.8125279754377156E8 ; 3.831119626165135E10 ; 0.0
199 ; 1813068.4658722838 ; 2.029653449811046E8 ; 3.8306652822740436E8 ; 3.851415095408833E10 ; 0.0
