CSV File for the City 6 on Day 8
1 - Minute m 
2 - Power Consumed at minute m 
3 - Power Produced at minute m 
4 - Energy Consumed since the beginning of the day 
5 - Energy Produced since the beginning of the day 
6 - Energy Lost since the beginning of the day on lines starting from the city
 
0 ; 8672385.429927303 ; 1.0310871938904403E7 ; 0.0 ; 0.0 ; 0.0
1 ; 8682331.929193478 ; 1.0310871938904403E7 ; 8672385.429927303 ; 1.0310871938904403E7 ; 0.0
2 ; 8692614.02449795 ; 1.0310871938904403E7 ; 1.735471735912078E7 ; 2.0621743877808806E7 ; 0.0
3 ; 8705101.93369558 ; 1.0310871938904403E7 ; 2.6047331383618727E7 ; 3.0932615816713206E7 ; 0.0
4 ; 8715244.9228318 ; 1.0310871938904403E7 ; 3.475243331731431E7 ; 4.124348775561761E7 ; 0.0
5 ; 8731303.85859548 ; 1.0310871938904403E7 ; 4.3467678240146115E7 ; 5.1554359694522016E7 ; 0.0
6 ; 8753053.575587567 ; 1.0310871938904403E7 ; 5.219898209874159E7 ; 6.186523163342642E7 ; 0.0
7 ; 8782963.498101331 ; 1.0310871938904403E7 ; 6.095203567432916E7 ; 7.217610357233082E7 ; 0.0
8 ; 8821450.663870776 ; 1.0310871938904403E7 ; 6.973499917243049E7 ; 8.248697551123522E7 ; 0.0
9 ; 8885668.149133185 ; 1.0310871938904403E7 ; 7.855644983630127E7 ; 9.279784745013963E7 ; 0.0
10 ; 8984453.447320497 ; 1.0310871938904403E7 ; 8.744211798543446E7 ; 1.0310871938904403E8 ; 0.0
11 ; 9138783.512419723 ; 1.0310871938904403E7 ; 9.642657143275495E7 ; 1.1341959132794844E8 ; 0.0
12 ; 9389276.755922703 ; 1.0310871938904403E7 ; 1.0556535494517466E8 ; 1.2373046326685284E8 ; 0.0
13 ; 9622729.060967231 ; 1.0310871938904403E7 ; 1.1495463170109737E8 ; 1.3404133520575725E8 ; 0.0
14 ; 9650828.713644974 ; 1.0310871938904403E7 ; 1.245773607620646E8 ; 1.4435220714466164E8 ; 0.0
15 ; 9661038.955778867 ; 1.0310871938904403E7 ; 1.342281894757096E8 ; 1.5466307908356604E8 ; 0.0
16 ; 9673366.152841086 ; 1.0310871938904403E7 ; 1.4388922843148845E8 ; 1.6497395102247044E8 ; 0.0
17 ; 9686334.330701103 ; 1.0310871938904403E7 ; 1.5356259458432955E8 ; 1.7528482296137485E8 ; 0.0
18 ; 9698865.707815215 ; 1.0310871938904403E7 ; 1.6324892891503066E8 ; 1.8559569490027925E8 ; 0.0
19 ; 9708083.515997421 ; 1.0310871938904403E7 ; 1.729477946228459E8 ; 1.9590656683918366E8 ; 0.0
20 ; 9717663.947471257 ; 1.0310871938904403E7 ; 1.826558781388433E8 ; 2.0621743877808806E8 ; 0.0
21 ; 9734032.98068163 ; 1.0310871938904403E7 ; 1.9237354208631456E8 ; 2.1652831071699247E8 ; 0.0
22 ; 9742322.646932753 ; 1.0310871938904403E7 ; 2.021075750669962E8 ; 2.2683918265589687E8 ; 0.0
23 ; 9752562.944345165 ; 1.0310871938904403E7 ; 2.1184989771392894E8 ; 2.3715005459480128E8 ; 0.0
24 ; 9765679.670991179 ; 1.0310871938904403E7 ; 2.216024606582741E8 ; 2.4746092653370568E8 ; 0.0
25 ; 9776315.488429485 ; 1.0310871938904403E7 ; 2.313681403292653E8 ; 2.577717984726101E8 ; 0.0
26 ; 9785622.374002814 ; 1.0310871938904403E7 ; 2.4114445581769478E8 ; 2.680826704115145E8 ; 0.0
27 ; 9800861.363827456 ; 1.0310871938904403E7 ; 2.509300781916976E8 ; 2.7839354235041887E8 ; 0.0
28 ; 9811506.407774935 ; 1.0310871938904403E7 ; 2.6073093955552506E8 ; 2.887044142893233E8 ; 0.0
29 ; 9819515.509363532 ; 1.0310871938904403E7 ; 2.705424459633E8 ; 2.990152862282277E8 ; 0.0
30 ; 9832742.68246481 ; 1.0310871938904403E7 ; 2.803619614726635E8 ; 3.093261581671321E8 ; 0.0
31 ; 9843793.738910198 ; 1.0310871938904403E7 ; 2.9019470415512836E8 ; 3.196370301060365E8 ; 0.0
32 ; 9850990.661738662 ; 1.0310871938904403E7 ; 3.0003849789403856E8 ; 3.299479020449409E8 ; 0.0
33 ; 9863810.59596178 ; 1.0310871938904403E7 ; 3.098894885557772E8 ; 3.402587739838453E8 ; 0.0
34 ; 9874539.06767493 ; 1.0310871938904403E7 ; 3.19753299151739E8 ; 3.505696459227497E8 ; 0.0
35 ; 9882956.011308528 ; 1.0310871938904403E7 ; 3.2962783821941394E8 ; 3.608805178616541E8 ; 0.0
36 ; 9889835.678329585 ; 1.0310871938904403E7 ; 3.395107942307225E8 ; 3.711913898005585E8 ; 0.0
37 ; 9899371.7319781 ; 1.0310871938904403E7 ; 3.494006299090521E8 ; 3.815022617394629E8 ; 0.0
38 ; 9904563.17750625 ; 1.0310871938904403E7 ; 3.593000016410302E8 ; 3.918131336783673E8 ; 0.0
39 ; 9912926.249699224 ; 1.0310871938904403E7 ; 3.6920456481853646E8 ; 4.021240056172717E8 ; 0.0
40 ; 9923815.90196943 ; 1.0310871938904403E7 ; 3.791174910682357E8 ; 4.124348775561761E8 ; 0.0
41 ; 9928758.13645554 ; 1.0310871938904403E7 ; 3.890413069702051E8 ; 4.2274574949508053E8 ; 0.0
42 ; 9936565.758855663 ; 1.0310871938904403E7 ; 3.9897006510666066E8 ; 4.3305662143398494E8 ; 0.0
43 ; 9944838.972814891 ; 1.0310871938904403E7 ; 4.089066308655163E8 ; 4.4336749337288934E8 ; 0.0
44 ; 9946889.973065343 ; 1.0310871938904403E7 ; 4.188514698383312E8 ; 4.5367836531179374E8 ; 0.0
45 ; 9954093.892496979 ; 1.0310871938904403E7 ; 4.2879835981139654E8 ; 4.6398923725069815E8 ; 0.0
46 ; 9959810.760018457 ; 1.0310871938904403E7 ; 4.3875245370389354E8 ; 4.7430010918960255E8 ; 0.0
47 ; 9966251.237234667 ; 1.0310871938904403E7 ; 4.48712264463912E8 ; 4.8461098112850696E8 ; 0.0
48 ; 9967414.016904505 ; 1.0310871938904403E7 ; 4.5867851570114666E8 ; 4.9492185306741136E8 ; 0.0
49 ; 9972216.720449844 ; 1.0310871938904403E7 ; 4.686459297180512E8 ; 5.0523272500631577E8 ; 0.0
50 ; 9975001.420745157 ; 1.0310871938904403E7 ; 4.7861814643850106E8 ; 5.155435969452202E8 ; 0.0
51 ; 9978698.01053517 ; 1.0310871938904403E7 ; 4.885931478592462E8 ; 5.258544688841246E8 ; 0.0
52 ; 9980616.937808726 ; 1.0310871938904403E7 ; 4.985718458697814E8 ; 5.36165340823029E8 ; 0.0
53 ; 9984962.757098664 ; 1.0310871938904403E7 ; 5.085524628075901E8 ; 5.464762127619333E8 ; 0.0
54 ; 9988848.018985918 ; 1.0310871938904403E7 ; 5.185374255646888E8 ; 5.567870847008377E8 ; 0.0
55 ; 9984193.464997552 ; 1.0310871938904403E7 ; 5.285262735836747E8 ; 5.670979566397421E8 ; 0.0
56 ; 9989107.794803137 ; 1.0310871938904403E7 ; 5.385104670486723E8 ; 5.774088285786465E8 ; 0.0
57 ; 9996231.832504947 ; 1.0310871938904403E7 ; 5.484995748434755E8 ; 5.87719700517551E8 ; 0.0
58 ; 9994260.32909601 ; 1.0310871938904403E7 ; 5.584958066759804E8 ; 5.980305724564553E8 ; 0.0
59 ; 9996177.613904318 ; 1.0310871938904403E7 ; 5.684900670050764E8 ; 6.083414443953598E8 ; 0.0
60 ; 1.0000971671318695E7 ; 1.0310871938904403E7 ; 5.784862446189808E8 ; 6.186523163342642E8 ; 0.0
61 ; 1.0003253447769212E7 ; 1.0310871938904403E7 ; 5.884872162902994E8 ; 6.289631882731686E8 ; 0.0
62 ; 1.0004339091745464E7 ; 1.0310871938904403E7 ; 5.984904697380686E8 ; 6.39274060212073E8 ; 0.0
63 ; 1.0006075261594422E7 ; 1.0310871938904403E7 ; 6.084948088298141E8 ; 6.495849321509774E8 ; 0.0
64 ; 1.0006878519675868E7 ; 1.0310871938904403E7 ; 6.185008840914085E8 ; 6.598958040898818E8 ; 0.0
65 ; 1.000685038100756E7 ; 1.0310871938904403E7 ; 6.285077626110843E8 ; 6.702066760287862E8 ; 0.0
66 ; 1.0010568078095071E7 ; 1.0310871938904403E7 ; 6.385146129920919E8 ; 6.805175479676906E8 ; 0.0
67 ; 1.001134475648309E7 ; 1.0310871938904403E7 ; 6.48525181070187E8 ; 6.90828419906595E8 ; 0.0
68 ; 1.0010619441608716E7 ; 1.0310871938904403E7 ; 6.5853652582667E8 ; 7.011392918454994E8 ; 0.0
69 ; 1.001149149946063E7 ; 1.0310871938904403E7 ; 6.685471452682787E8 ; 7.114501637844038E8 ; 0.0
70 ; 1.0014955062681278E7 ; 1.0310871938904403E7 ; 6.785586367677393E8 ; 7.217610357233082E8 ; 0.0
71 ; 1.0017122113153908E7 ; 1.0310871938904403E7 ; 6.885735918304206E8 ; 7.320719076622126E8 ; 0.0
72 ; 1.0016527084500015E7 ; 1.0310871938904403E7 ; 6.985907139435745E8 ; 7.42382779601117E8 ; 0.0
73 ; 1.0015849293558383E7 ; 1.0310871938904403E7 ; 7.086072410280745E8 ; 7.526936515400214E8 ; 0.0
74 ; 1.0017459308860412E7 ; 1.0310871938904403E7 ; 7.186230903216329E8 ; 7.630045234789258E8 ; 0.0
75 ; 1.0018927353718532E7 ; 1.0310871938904403E7 ; 7.286405496304933E8 ; 7.733153954178302E8 ; 0.0
76 ; 1.0022286405288216E7 ; 1.0310871938904403E7 ; 7.386594769842118E8 ; 7.836262673567346E8 ; 0.0
77 ; 1.0020075714328447E7 ; 1.0310871938904403E7 ; 7.486817633895E8 ; 7.93937139295639E8 ; 0.0
78 ; 1.001679906710747E7 ; 1.0310871938904403E7 ; 7.587018391038284E8 ; 8.042480112345434E8 ; 0.0
79 ; 1.001402933415636E7 ; 1.0310871938904403E7 ; 7.687186381709359E8 ; 8.145588831734478E8 ; 0.0
80 ; 1.0013016550256206E7 ; 1.0310871938904403E7 ; 7.787326675050923E8 ; 8.248697551123523E8 ; 0.0
81 ; 1.0010333782485424E7 ; 1.0310871938904403E7 ; 7.887456840553485E8 ; 8.351806270512567E8 ; 0.0
82 ; 1.000227459863543E7 ; 1.0310871938904403E7 ; 7.987560178378339E8 ; 8.454914989901611E8 ; 0.0
83 ; 1.0003323296349809E7 ; 1.0310871938904403E7 ; 8.087582924364693E8 ; 8.558023709290655E8 ; 0.0
84 ; 1.0002089624130521E7 ; 1.0310871938904403E7 ; 8.187616157328191E8 ; 8.661132428679699E8 ; 0.0
85 ; 9994443.044449883 ; 1.0310871938904403E7 ; 8.287637053569496E8 ; 8.764241148068743E8 ; 0.0
86 ; 9989413.073734626 ; 1.0310871938904403E7 ; 8.387581484013995E8 ; 8.867349867457787E8 ; 0.0
87 ; 9987698.589724122 ; 1.0310871938904403E7 ; 8.487475614751341E8 ; 8.970458586846831E8 ; 0.0
88 ; 9982225.680448879 ; 1.0310871938904403E7 ; 8.587352600648582E8 ; 9.073567306235875E8 ; 0.0
89 ; 9978900.60507407 ; 1.0310871938904403E7 ; 8.687174857453071E8 ; 9.176676025624919E8 ; 0.0
90 ; 9976287.715828894 ; 1.0310871938904403E7 ; 8.786963863503811E8 ; 9.279784745013963E8 ; 0.0
91 ; 9972044.781829724 ; 1.0310871938904403E7 ; 8.8867267406621E8 ; 9.382893464403007E8 ; 0.0
92 ; 9967245.656208988 ; 1.0310871938904403E7 ; 8.986447188480397E8 ; 9.486002183792051E8 ; 0.0
93 ; 9965517.24945811 ; 1.0310871938904403E7 ; 9.086119645042487E8 ; 9.589110903181095E8 ; 0.0
94 ; 9961531.429923037 ; 1.0310871938904403E7 ; 9.185774817537068E8 ; 9.692219622570139E8 ; 0.0
95 ; 9957999.637920484 ; 1.0310871938904403E7 ; 9.285390131836299E8 ; 9.795328341959183E8 ; 0.0
96 ; 9953138.607260965 ; 1.0310871938904403E7 ; 9.384970128215504E8 ; 9.898437061348227E8 ; 0.0
97 ; 9949938.051611682 ; 1.0310871938904403E7 ; 9.484501514288113E8 ; 1.0001545780737271E9 ; 0.0
98 ; 9946110.493865835 ; 1.0310871938904403E7 ; 9.58400089480423E8 ; 1.0104654500126315E9 ; 0.0
99 ; 9940378.315569095 ; 1.0310871938904403E7 ; 9.683461999742888E8 ; 1.0207763219515359E9 ; 0.0
100 ; 9933465.521049239 ; 1.0310871938904403E7 ; 9.782865782898579E8 ; 1.0310871938904403E9 ; 0.0
101 ; 9927902.498928621 ; 1.0310871938904403E7 ; 9.882200438109071E8 ; 1.0413980658293447E9 ; 0.0
102 ; 9926710.543102449 ; 1.0310871938904403E7 ; 9.981479463098358E8 ; 1.0517089377682492E9 ; 0.0
103 ; 9919860.431203267 ; 1.0310871938904403E7 ; 1.0080746568529383E9 ; 1.0620198097071536E9 ; 0.0
104 ; 9913691.82518035 ; 1.0310871938904403E7 ; 1.0179945172841415E9 ; 1.072330681646058E9 ; 0.0
105 ; 9908493.282701861 ; 1.0310871938904403E7 ; 1.0279082091093218E9 ; 1.0826415535849624E9 ; 0.0
106 ; 9903157.899609787 ; 1.0310871938904403E7 ; 1.0378167023920237E9 ; 1.0929524255238667E9 ; 0.0
107 ; 9896407.919832408 ; 1.0310871938904403E7 ; 1.0477198602916335E9 ; 1.103263297462771E9 ; 0.0
108 ; 9890561.026762154 ; 1.0310871938904403E7 ; 1.0576162682114658E9 ; 1.1135741694016752E9 ; 0.0
109 ; 9885748.942566454 ; 1.0310871938904403E7 ; 1.067506829238228E9 ; 1.1238850413405795E9 ; 0.0
110 ; 9880519.937251853 ; 1.0310871938904403E7 ; 1.0773925781807945E9 ; 1.1341959132794838E9 ; 0.0
111 ; 9873286.681647267 ; 1.0310871938904403E7 ; 1.0872730981180463E9 ; 1.144506785218388E9 ; 0.0
112 ; 9867989.186794529 ; 1.0310871938904403E7 ; 1.0971463847996936E9 ; 1.1548176571572924E9 ; 0.0
113 ; 9861152.48545814 ; 1.0310871938904403E7 ; 1.107014373986488E9 ; 1.1651285290961967E9 ; 0.0
114 ; 9857127.745225998 ; 1.0310871938904403E7 ; 1.1168755264719462E9 ; 1.175439401035101E9 ; 0.0
115 ; 9850663.512661103 ; 1.0310871938904403E7 ; 1.1267326542171721E9 ; 1.1857502729740052E9 ; 0.0
116 ; 9844305.064420639 ; 1.0310871938904403E7 ; 1.1365833177298334E9 ; 1.1960611449129095E9 ; 0.0
117 ; 9839844.601781456 ; 1.0310871938904403E7 ; 1.146427622794254E9 ; 1.2063720168518138E9 ; 0.0
118 ; 9833886.624586407 ; 1.0310871938904403E7 ; 1.1562674673960354E9 ; 1.216682888790718E9 ; 0.0
119 ; 9821587.722600957 ; 1.0310871938904403E7 ; 1.1661013540206218E9 ; 1.2269937607296224E9 ; 0.0
120 ; 9816350.033415653 ; 1.0310871938904403E7 ; 1.1759229417432227E9 ; 1.2373046326685266E9 ; 0.0
121 ; 9808528.949214946 ; 1.0310871938904403E7 ; 1.1857392917766383E9 ; 1.247615504607431E9 ; 0.0
122 ; 9803721.997387152 ; 1.0310871938904403E7 ; 1.1955478207258532E9 ; 1.2579263765463352E9 ; 0.0
123 ; 9797073.308338158 ; 1.0310871938904403E7 ; 1.2053515427232404E9 ; 1.2682372484852395E9 ; 0.0
124 ; 9790205.937158283 ; 1.0310871938904403E7 ; 1.2151486160315785E9 ; 1.2785481204241438E9 ; 0.0
125 ; 9781703.195842242 ; 1.0310871938904403E7 ; 1.224938821968737E9 ; 1.288858992363048E9 ; 0.0
126 ; 9775142.694195291 ; 1.0310871938904403E7 ; 1.2347205251645792E9 ; 1.2991698643019524E9 ; 0.0
127 ; 9768013.857561339 ; 1.0310871938904403E7 ; 1.2444956678587744E9 ; 1.3094807362408566E9 ; 0.0
128 ; 9759042.356011394 ; 1.0310871938904403E7 ; 1.2542636817163358E9 ; 1.319791608179761E9 ; 0.0
129 ; 9754023.563353054 ; 1.0310871938904403E7 ; 1.2640227240723472E9 ; 1.3301024801186652E9 ; 0.0
130 ; 9742199.137442295 ; 1.0310871938904403E7 ; 1.2737767476357002E9 ; 1.3404133520575695E9 ; 0.0
131 ; 9731918.32712986 ; 1.0310871938904403E7 ; 1.2835189467731426E9 ; 1.3507242239964738E9 ; 0.0
132 ; 9723293.465309514 ; 1.0310871938904403E7 ; 1.2932508651002724E9 ; 1.361035095935378E9 ; 0.0
133 ; 9711228.748262214 ; 1.0310871938904403E7 ; 1.302974158565582E9 ; 1.3713459678742824E9 ; 0.0
134 ; 9702416.321670914 ; 1.0310871938904403E7 ; 1.3126853873138442E9 ; 1.3816568398131866E9 ; 0.0
135 ; 9688217.919204937 ; 1.0310871938904403E7 ; 1.3223878036355152E9 ; 1.391967711752091E9 ; 0.0
136 ; 9677353.607507307 ; 1.0310871938904403E7 ; 1.3320760215547202E9 ; 1.4022785836909952E9 ; 0.0
137 ; 9665615.230388872 ; 1.0310871938904403E7 ; 1.3417533751622274E9 ; 1.4125894556298995E9 ; 0.0
138 ; 9654711.890042355 ; 1.0310871938904403E7 ; 1.3514189903926163E9 ; 1.4229003275688038E9 ; 0.0
139 ; 9645204.554864071 ; 1.0310871938904403E7 ; 1.3610737022826586E9 ; 1.433211199507708E9 ; 0.0
140 ; 9634018.222889187 ; 1.0310871938904403E7 ; 1.3707189068375227E9 ; 1.4435220714466124E9 ; 0.0
141 ; 9619768.062222322 ; 1.0310871938904403E7 ; 1.380352925060412E9 ; 1.4538329433855166E9 ; 0.0
142 ; 9609581.081127638 ; 1.0310871938904403E7 ; 1.3899726931226342E9 ; 1.464143815324421E9 ; 0.0
143 ; 9598078.997272735 ; 1.0310871938904403E7 ; 1.3995822742037618E9 ; 1.4744546872633252E9 ; 0.0
144 ; 9585103.107279543 ; 1.0310871938904403E7 ; 1.4091803532010345E9 ; 1.4847655592022295E9 ; 0.0
145 ; 9577061.34876383 ; 1.0310871938904403E7 ; 1.418765456308314E9 ; 1.4950764311411338E9 ; 0.0
146 ; 9568844.782249626 ; 1.0310871938904403E7 ; 1.428342517657078E9 ; 1.505387303080038E9 ; 0.0
147 ; 9563105.956003426 ; 1.0310871938904403E7 ; 1.4379113624393277E9 ; 1.5156981750189424E9 ; 0.0
148 ; 9554360.671917478 ; 1.0310871938904403E7 ; 1.4474744683953311E9 ; 1.5260090469578466E9 ; 0.0
149 ; 9541702.2417522 ; 1.0310871938904403E7 ; 1.4570288290672486E9 ; 1.536319918896751E9 ; 0.0
150 ; 9536609.225032473 ; 1.0310871938904403E7 ; 1.4665705313090007E9 ; 1.5466307908356552E9 ; 0.0
151 ; 9528949.78856443 ; 1.0310871938904403E7 ; 1.4761071405340333E9 ; 1.5569416627745595E9 ; 0.0
152 ; 9518134.936825624 ; 1.0310871938904403E7 ; 1.4856360903225977E9 ; 1.5672525347134638E9 ; 0.0
153 ; 9513012.349404735 ; 1.0310871938904403E7 ; 1.4951542252594233E9 ; 1.577563406652368E9 ; 0.0
154 ; 9501585.346118817 ; 1.0310871938904403E7 ; 1.504667237608828E9 ; 1.5878742785912724E9 ; 0.0
155 ; 9493652.186782725 ; 1.0310871938904403E7 ; 1.514168822954947E9 ; 1.5981851505301766E9 ; 0.0
156 ; 9485710.431150848 ; 1.0310871938904403E7 ; 1.5236624751417298E9 ; 1.608496022469081E9 ; 0.0
157 ; 9478660.53116919 ; 1.0310871938904403E7 ; 1.5331481855728807E9 ; 1.6188068944079852E9 ; 0.0
158 ; 9466215.437307226 ; 1.0310871938904403E7 ; 1.54262684610405E9 ; 1.6291177663468895E9 ; 0.0
159 ; 9460465.789482204 ; 1.0310871938904403E7 ; 1.552093061541357E9 ; 1.6394286382857938E9 ; 0.0
160 ; 9450863.867770946 ; 1.0310871938904403E7 ; 1.5615535273308392E9 ; 1.649739510224698E9 ; 0.0
161 ; 9439561.489840195 ; 1.0310871938904403E7 ; 1.57100439119861E9 ; 1.6600503821636024E9 ; 0.0
162 ; 9434478.867869515 ; 1.0310871938904403E7 ; 1.5804439526884503E9 ; 1.6703612541025066E9 ; 0.0
163 ; 9425201.98865903 ; 1.0310871938904403E7 ; 1.58987843155632E9 ; 1.680672126041411E9 ; 0.0
164 ; 9415791.64553903 ; 1.0310871938904403E7 ; 1.599303633544979E9 ; 1.6909829979803152E9 ; 0.0
165 ; 9407524.864416102 ; 1.0310871938904403E7 ; 1.6087194251905181E9 ; 1.7012938699192195E9 ; 0.0
166 ; 9397473.549271796 ; 1.0310871938904403E7 ; 1.6181269500549343E9 ; 1.7116047418581238E9 ; 0.0
167 ; 9390706.688574938 ; 1.0310871938904403E7 ; 1.627524423604206E9 ; 1.721915613797028E9 ; 0.0
168 ; 9381938.805905918 ; 1.0310871938904403E7 ; 1.636915130292781E9 ; 1.7322264857359324E9 ; 0.0
169 ; 9372959.143301947 ; 1.0310871938904403E7 ; 1.646297069098687E9 ; 1.7425373576748366E9 ; 0.0
170 ; 9362080.55925589 ; 1.0310871938904403E7 ; 1.655670028241989E9 ; 1.752848229613741E9 ; 0.0
171 ; 9355253.225278392 ; 1.0310871938904403E7 ; 1.6650321088012447E9 ; 1.7631591015526452E9 ; 0.0
172 ; 9344678.319839811 ; 1.0310871938904403E7 ; 1.674387362026523E9 ; 1.7734699734915495E9 ; 0.0
173 ; 9336537.778141322 ; 1.0310871938904403E7 ; 1.6837320403463628E9 ; 1.7837808454304538E9 ; 0.0
174 ; 9333357.227501478 ; 1.0310871938904403E7 ; 1.693068578124504E9 ; 1.794091717369358E9 ; 0.0
175 ; 9327330.812467173 ; 1.0310871938904403E7 ; 1.7024019353520055E9 ; 1.8044025893082623E9 ; 0.0
176 ; 9320676.93863929 ; 1.0310871938904403E7 ; 1.7117292661644726E9 ; 1.8147134612471666E9 ; 0.0
177 ; 9313443.0467502 ; 1.0310871938904403E7 ; 1.721049943103112E9 ; 1.825024333186071E9 ; 0.0
178 ; 9312126.622576643 ; 1.0310871938904403E7 ; 1.7303633861498623E9 ; 1.8353352051249752E9 ; 0.0
179 ; 9307100.773460755 ; 1.0310871938904403E7 ; 1.739675512772439E9 ; 1.8456460770638795E9 ; 0.0
180 ; 9294825.298202822 ; 1.0310871938904403E7 ; 1.7489826135458999E9 ; 1.8559569490027838E9 ; 0.0
181 ; 9291447.658332052 ; 1.0310871938904403E7 ; 1.7582774388441026E9 ; 1.866267820941688E9 ; 0.0
182 ; 9287728.920407657 ; 1.0310871938904403E7 ; 1.7675688865024347E9 ; 1.8765786928805923E9 ; 0.0
183 ; 9279871.822704088 ; 1.0310871938904403E7 ; 1.7768566154228425E9 ; 1.8868895648194966E9 ; 0.0
184 ; 9273022.28203882 ; 1.0310871938904403E7 ; 1.7861364872455466E9 ; 1.897200436758401E9 ; 0.0
185 ; 9270189.823079914 ; 1.0310871938904403E7 ; 1.7954095095275855E9 ; 1.9075113086973052E9 ; 0.0
186 ; 9265166.506297814 ; 1.0310871938904403E7 ; 1.8046796993506653E9 ; 1.9178221806362095E9 ; 0.0
187 ; 9260967.9034556 ; 1.0310871938904403E7 ; 1.8139448658569632E9 ; 1.9281330525751138E9 ; 0.0
188 ; 9254485.51006195 ; 1.0310871938904403E7 ; 1.8232058337604187E9 ; 1.938443924514018E9 ; 0.0
189 ; 9245397.296374349 ; 1.0310871938904403E7 ; 1.8324603192704806E9 ; 1.9487547964529223E9 ; 0.0
190 ; 9244444.154203014 ; 1.0310871938904403E7 ; 1.841705716566855E9 ; 1.9590656683918266E9 ; 0.0
191 ; 9235271.92873087 ; 1.0310871938904403E7 ; 1.850950160721058E9 ; 1.969376540330731E9 ; 0.0
192 ; 9228948.136665428 ; 1.0310871938904403E7 ; 1.8601854326497889E9 ; 1.9796874122696352E9 ; 0.0
193 ; 9227805.082476076 ; 1.0310871938904403E7 ; 1.8694143807864542E9 ; 1.9899982842085395E9 ; 0.0
194 ; 9219140.162654286 ; 1.0310871938904403E7 ; 1.8786421858689303E9 ; 2.0003091561474438E9 ; 0.0
195 ; 9216754.1812513 ; 1.0310871938904403E7 ; 1.8878613260315847E9 ; 2.010620028086348E9 ; 0.0
196 ; 9209710.44973607 ; 1.0310871938904403E7 ; 1.897078080212836E9 ; 2.0209309000252523E9 ; 0.0
197 ; 9204933.832932057 ; 1.0310871938904403E7 ; 1.9062877906625721E9 ; 2.0312417719641566E9 ; 0.0
198 ; 9199316.557528667 ; 1.0310871938904403E7 ; 1.9154927244955041E9 ; 2.041552643903061E9 ; 0.0
199 ; 9192525.31776747 ; 1.0310871938904403E7 ; 1.9246920410530329E9 ; 2.0518635158419652E9 ; 0.0
200 ; 9190948.484002387 ; 1.0310871938904403E7 ; 1.9338845663708003E9 ; 2.0621743877808695E9 ; 0.0
201 ; 9179891.273184367 ; 1.0310871938904403E7 ; 1.9430755148548026E9 ; 2.0724852597197738E9 ; 0.0
