CSV File for the City 2 on Day 54
1 - Minute m 
2 - Power Consumed at minute m 
3 - Power Produced at minute m 
4 - Energy Consumed since the beginning of the day 
5 - Energy Produced since the beginning of the day 
6 - Energy Lost since the beginning of the day on lines starting from the city
 
0 ; 1777938.3978547202 ; 1.0522460892600986E8 ; 0.0 ; 0.0 ; 0.0
1 ; 1777949.998646093 ; 1.053785423385315E8 ; 1777938.3978547202 ; 1.0522460892600986E8 ; 0.0
2 ; 1780158.3520087441 ; 1.0584115640756467E8 ; 3555888.3965008133 ; 2.1060315126454136E8 ; 0.0
3 ; 1782745.31084045 ; 1.0661245181058353E8 ; 5336046.748509558 ; 3.16444307672106E8 ; 0.0
4 ; 1786102.9396750317 ; 1.0769242916128111E8 ; 7118792.059350008 ; 4.2305675948268956E8 ; 0.0
5 ; 1789273.981485343 ; 1.0908108900402737E8 ; 8904894.99902504 ; 5.3074918864397067E8 ; 0.0
6 ; 1794190.019397355 ; 1.1077843180879208E8 ; 1.0694168980510382E7 ; 6.398302776479981E8 ; 0.0
7 ; 1800040.4021701866 ; 1.1278445796663862E8 ; 1.2488358999907738E7 ; 7.506087094567902E8 ; 0.0
8 ; 1807351.0037997647 ; 1.1509916778588647E8 ; 1.4288399402077924E7 ; 8.633931674234288E8 ; 0.0
9 ; 1823348.8897227598 ; 1.1772256148902982E8 ; 1.6095750405877689E7 ; 9.784923352093153E8 ; 0.0
10 ; 1843511.6214730337 ; 1.2065463921048236E8 ; 1.7919099295600448E7 ; 1.0962148966983452E9 ; 0.0
11 ; 1878657.71146912 ; 1.2389540099520269E8 ; 1.976261091707348E7 ; 1.2168695359088275E9 ; 0.0
12 ; 1932617.3988023638 ; 1.2744484679823217E8 ; 2.1641268628542602E7 ; 1.3407649369040303E9 ; 0.0
13 ; 1984733.7146720097 ; 1.3130297648515713E8 ; 2.3573886027344964E7 ; 1.4682097837022624E9 ; 0.0
14 ; 1989987.7646024313 ; 1.3546978983348346E8 ; 2.5558619742016975E7 ; 1.5995127601874194E9 ; 0.0
15 ; 1992865.9347887507 ; 1.3994528653489155E8 ; 2.7548607506619405E7 ; 1.7349825500209029E9 ; 0.0
16 ; 1994774.9185878497 ; 1.4472946619831815E8 ; 2.9541473441408157E7 ; 1.8749278365557945E9 ; 0.0
17 ; 1997383.1296523141 ; 1.498223283537934E8 ; 3.1536248359996006E7 ; 2.0196573027541127E9 ; 0.0
18 ; 1998482.059010168 ; 1.552238724569474E8 ; 3.353363148964832E7 ; 2.1694796311079063E9 ; 0.0
19 ; 2002777.9407853773 ; 1.6093409789408705E8 ; 3.553211354865849E7 ; 2.3247035035648537E9 ; 0.0
20 ; 2004549.3369512202 ; 1.6695300398773822E8 ; 3.753489148944387E7 ; 2.4856376014589405E9 ; 0.0
21 ; 2006847.7042978308 ; 1.732805900025415E8 ; 3.953944082639509E7 ; 2.6525906054466786E9 ; 0.0
22 ; 2010065.3561771766 ; 1.7991685515139103E8 ; 4.154628853069292E7 ; 2.82587119544922E9 ; 0.0
23 ; 2011927.5133880521 ; 1.8686179860170847E8 ; 4.355635388687009E7 ; 3.005788050600611E9 ; 0.0
24 ; 2014775.4704010321 ; 1.9411541948174876E8 ; 4.5568281400258146E7 ; 3.1926498492023196E9 ; 0.0
25 ; 2017495.9741269848 ; 2.003657577850283E8 ; 4.758305687065918E7 ; 3.386765268684068E9 ; 0.0
26 ; 2019242.263755344 ; 2.0036636041331878E8 ; 4.960055284478617E7 ; 3.5871310264690967E9 ; 0.0
27 ; 2020875.8479509747 ; 2.0036699570742968E8 ; 5.161979510854151E7 ; 3.7874973868824153E9 ; 0.0
28 ; 2024128.7156185973 ; 2.0036766269958064E8 ; 5.364067095649248E7 ; 3.987864382589845E9 ; 0.0
29 ; 2026930.6907208296 ; 2.0036836041191807E8 ; 5.566479967211108E7 ; 4.188232045289426E9 ; 0.0
30 ; 2029770.0605997834 ; 2.0036908786142167E8 ; 5.7691730362831905E7 ; 4.388600405701344E9 ; 0.0
31 ; 2031302.295014383 ; 2.0036984406442076E8 ; 5.972150042343169E7 ; 4.588969493562765E9 ; 0.0
32 ; 2033175.7550242038 ; 2.0037062804070473E8 ; 6.175280271844607E7 ; 4.789339337627186E9 ; 0.0
33 ; 2034795.7453116549 ; 2.0037143881722268E8 ; 6.378597847347027E7 ; 4.989709965667891E9 ; 0.0
34 ; 2037274.4521195467 ; 2.0037227543137354E8 ; 6.5820774218781926E7 ; 5.190081404485113E9 ; 0.0
35 ; 2039894.2914582759 ; 2.0037313693389603E8 ; 6.785804867090148E7 ; 5.390453679916487E9 ; 0.0
36 ; 2042376.9648061956 ; 2.003740223913731E8 ; 6.989794296235976E7 ; 5.590826816850383E9 ; 0.0
37 ; 2043438.7972702926 ; 2.00374930888369E8 ; 7.194031992716596E7 ; 5.7912008392417555E9 ; 0.0
38 ; 2043537.1374736712 ; 2.0037586152922145E8 ; 7.398375872443625E7 ; 5.991575770130124E9 ; 0.0
39 ; 2044959.5275888054 ; 2.0037681343951285E8 ; 7.602729586190993E7 ; 6.191951631659346E9 ; 0.0
40 ; 2048931.9092494699 ; 2.0037778576724598E8 ; 7.807225538949873E7 ; 6.392328445098859E9 ; 0.0
41 ; 2049132.6911126995 ; 2.003787776837501E8 ; 8.01211872987482E7 ; 6.592706230866105E9 ; 0.0
42 ; 2051609.9145913024 ; 2.0037978838434395E8 ; 8.217031998986089E7 ; 6.793085008549855E9 ; 0.0
43 ; 2053391.0763331593 ; 2.003808170887806E8 ; 8.422192990445219E7 ; 6.993464796934199E9 ; 0.0
44 ; 2053922.9458844038 ; 2.0038186304149917E8 ; 8.627532098078535E7 ; 7.19384561402298E9 ; 0.0
45 ; 2055394.2826597912 ; 2.0038292551170632E8 ; 8.832924392666976E7 ; 7.394227477064479E9 ; 0.0
46 ; 2056553.2582518256 ; 2.0038400379331034E8 ; 9.038463820932955E7 ; 7.594610402576185E9 ; 0.0
47 ; 2056825.1999397313 ; 2.0038509720472696E8 ; 9.244119146758138E7 ; 7.794994406369495E9 ; 0.0
48 ; 2057338.8640268056 ; 2.0038620508857715E8 ; 9.44980166675211E7 ; 7.995379503574223E9 ; 0.0
49 ; 2059425.717089414 ; 2.0038732681129274E8 ; 9.65553555315479E7 ; 8.1957657086628E9 ; 0.0
50 ; 2058785.1004425953 ; 2.0038846176264656E8 ; 9.861478124863732E7 ; 8.3961530354740925E9 ; 0.0
51 ; 2060219.8514544673 ; 2.0038960935522002E8 ; 1.006735663490799E8 ; 8.596541497236738E9 ; 0.0
52 ; 2060589.4457340394 ; 2.003907690238216E8 ; 1.0273378620053437E8 ; 8.796931106591959E9 ; 0.0
53 ; 2062169.7046577828 ; 2.0039194022486624E8 ; 1.0479437564626841E8 ; 8.99732187561578E9 ; 0.0
54 ; 2061769.0051594926 ; 2.0039312243572646E8 ; 1.0685654535092619E8 ; 9.197713815840647E9 ; 0.0
55 ; 2062406.6552281105 ; 2.0039431515406272E8 ; 1.0891831435608569E8 ; 9.398106938276373E9 ; 0.0
56 ; 2062831.375487169 ; 2.0039551789714086E8 ; 1.109807210113138E8 ; 9.598501253430435E9 ; 0.0
57 ; 2062536.2267148648 ; 2.0039673020114294E8 ; 1.1304355238680096E8 ; 9.798896771327576E9 ; 0.0
58 ; 2062863.7855485447 ; 2.0039795162047684E8 ; 1.1510608861351582E8 ; 9.999293501528719E9 ; 0.0
59 ; 2062814.8952615634 ; 2.0039918172708917E8 ; 1.1716895239906436E8 ; 1.0199691453149197E10 ; 0.0
60 ; 2064319.5445850235 ; 2.0040042010978514E8 ; 1.1923176729432592E8 ; 1.0400090634876286E10 ; 0.0
61 ; 2063601.218213993 ; 2.004016663735592E8 ; 1.2129608683891094E8 ; 1.060049105498607E10 ; 0.0
62 ; 2063612.8191285955 ; 2.004029201389382E8 ; 1.2335968805712493E8 ; 1.080089272135963E10 ; 0.0
63 ; 2065080.4418889815 ; 2.0040418104133987E8 ; 1.2542330087625353E8 ; 1.100129564149857E10 ; 0.0
64 ; 2065912.0845197053 ; 2.00405448730448E8 ; 1.2748838131814252E8 ; 1.120169982253991E10 ; 0.0
65 ; 2066549.227369445 ; 2.0040672286960548E8 ; 1.2955429340266222E8 ; 1.1402105271270357E10 ; 0.0
66 ; 2065562.5347096666 ; 2.004080031352263E8 ; 1.3162084263003166E8 ; 1.1602511994139963E10 ; 0.0
67 ; 2067458.1730842178 ; 2.0040928921622723E8 ; 1.3368640516474132E8 ; 1.180291999727519E10 ; 0.0
68 ; 2066840.3451362844 ; 2.0041058081347936E8 ; 1.3575386333782554E8 ; 1.2003329286491417E10 ; 0.0
69 ; 2067116.088989926 ; 2.0041187763927993E8 ; 1.3782070368296182E8 ; 1.2203739867304895E10 ; 0.0
70 ; 2067325.8603067184 ; 2.0041317941684437E8 ; 1.3988781977195174E8 ; 1.2404151744944176E10 ; 0.0
71 ; 2066703.1787173923 ; 2.0041448587981826E8 ; 1.4195514563225845E8 ; 1.260456492436102E10 ; 0.0
72 ; 2067033.128915551 ; 2.0041579677180964E8 ; 1.4402184881097585E8 ; 1.2804979410240837E10 ; 0.0
73 ; 2067681.4653936476 ; 2.0041711184594026E8 ; 1.460888819398914E8 ; 1.3005395207012648E10 ; 0.0
74 ; 2068942.52144649 ; 2.004184308644165E8 ; 1.4815656340528506E8 ; 1.3205812318858587E10 ; 0.0
75 ; 2067668.6556478413 ; 2.004197535981187E8 ; 1.5022550592673156E8 ; 1.3406230749723003E10 ; 0.0
76 ; 2068696.265312092 ; 2.004210798262086E8 ; 1.522931745823794E8 ; 1.3606650503321121E10 ; 0.0
77 ; 2067288.2354763541 ; 2.0042240933575454E8 ; 1.543618708476915E8 ; 1.380707158314733E10 ; 0.0
78 ; 2068659.5473833936 ; 2.0042374192137372E8 ; 1.5642915908316785E8 ; 1.4007493992483084E10 ; 0.0
79 ; 2066439.979359962 ; 2.004250773848906E8 ; 1.5849781863055125E8 ; 1.4207917734404457E10 ; 0.0
80 ; 2065865.0979669134 ; 2.0042641553501126E8 ; 1.605642586099112E8 ; 1.4408342811789349E10 ; 0.0
81 ; 2065514.8596443555 ; 2.0042775618701318E8 ; 1.626301237078781E8 ; 1.460876922732436E10 ; 0.0
82 ; 2065241.354630152 ; 2.0042909916244918E8 ; 1.6469563856752247E8 ; 1.4809196983511374E10 ; 0.0
83 ; 2063867.6775489617 ; 2.004304442888657E8 ; 1.667608799221526E8 ; 1.5009626082673822E10 ; 0.0
84 ; 2062894.7562372258 ; 2.0043179139953417E8 ; 1.6882474759970158E8 ; 1.5210056526962688E10 ; 0.0
85 ; 2062477.4864283372 ; 2.0043314033319563E8 ; 1.7088764235593882E8 ; 1.5410488318362223E10 ; 0.0
86 ; 2062095.3259404637 ; 2.0043449093381694E8 ; 1.7295011984236717E8 ; 1.5610921458695417E10 ; 0.0
87 ; 2061685.7781961106 ; 2.0043584305035928E8 ; 1.7501221516830763E8 ; 1.5811355949629234E10 ; 0.0
88 ; 2060838.9708909204 ; 2.004371965365573E8 ; 1.7707390094650373E8 ; 1.6011791792679594E10 ; 0.0
89 ; 2059164.309919946 ; 2.0043855125070924E8 ; 1.7913473991739464E8 ; 1.6212228989216152E10 ; 0.0
90 ; 2059104.6548619145 ; 2.0043990705547702E8 ; 1.811939042273146E8 ; 1.6412667540466862E10 ; 0.0
91 ; 2058002.4719517988 ; 2.0044126381769595E8 ; 1.8325300888217652E8 ; 1.6613107447522339E10 ; 0.0
92 ; 2056304.583536186 ; 2.0044262140819353E8 ; 1.8531101135412833E8 ; 1.6813548711340034E10 ; 0.0
93 ; 2055715.4536946279 ; 2.0044397970161718E8 ; 1.873673159376645E8 ; 1.7013991332748228E10 ; 0.0
94 ; 2055323.2170158995 ; 2.004453385762701E8 ; 1.8942303139135915E8 ; 1.7214435312449844E10 ; 0.0
95 ; 2054697.5168136721 ; 2.0044669791395503E8 ; 1.9147835460837504E8 ; 1.7414880651026115E10 ; 0.0
96 ; 2053577.9184797935 ; 2.0044805759982556E8 ; 1.935330521251887E8 ; 1.761532734894007E10 ; 0.0
97 ; 2051644.3901800525 ; 2.004494175222446E8 ; 1.955866300436685E8 ; 1.7815775406539898E10 ; 0.0
98 ; 2052189.5247804855 ; 2.0045077757264942E8 ; 1.9763827443384856E8 ; 1.801622482406214E10 ; 0.0
99 ; 2050595.2169728796 ; 2.004521376454234E8 ; 1.9969046395862904E8 ; 1.8216675601634792E10 ; 0.0
100 ; 2047998.1935356613 ; 2.0045349763777375E8 ; 2.0174105917560193E8 ; 1.8417127739280216E10 ; 0.0
101 ; 2047463.135913973 ; 2.0045485744961488E8 ; 2.037890573691376E8 ; 1.861758123691799E10 ; 0.0
102 ; 2047750.5809668205 ; 2.0045621698345762E8 ; 2.0583652050505155E8 ; 1.8818036094367607E10 ; 0.0
103 ; 2047253.9714142655 ; 2.0045757614430347E8 ; 2.0788427108601838E8 ; 1.9018492311351067E10 ; 0.0
104 ; 2044412.415762024 ; 2.004589348395437E8 ; 2.0993152505743265E8 ; 1.921894988749537E10 ; 0.0
105 ; 2043557.5434244396 ; 2.0046029297886357E8 ; 2.119759374731947E8 ; 1.941940882233491E10 ; 0.0
106 ; 2042665.3241469024 ; 2.0046165047415057E8 ; 2.1401949501661912E8 ; 1.9619869115313774E10 ; 0.0
107 ; 2041230.8152641854 ; 2.004630072394073E8 ; 2.16062160340766E8 ; 1.9820330765787926E10 ; 0.0
108 ; 2040052.8127157746 ; 2.0046436319066823E8 ; 2.181033911560302E8 ; 2.0020793773027332E10 ; 0.0
109 ; 2040230.819586433 ; 2.0046571824592015E8 ; 2.2014344396874598E8 ; 2.0221258136218002E10 ; 0.0
110 ; 2037607.883400353 ; 2.0046707232502678E8 ; 2.221836747883324E8 ; 2.042172385446392E10 ; 0.0
111 ; 2036680.0528637315 ; 2.004684253496562E8 ; 2.2422128267173275E8 ; 2.0622190926788948E10 ; 0.0
112 ; 2035705.933114809 ; 2.004697772432121E8 ; 2.2625796272459647E8 ; 2.0822659352138603E10 ; 0.0
113 ; 2032817.9985890002 ; 2.0047112793076792E8 ; 2.2829366865771127E8 ; 2.1023129129381817E10 ; 0.0
114 ; 2032169.8527378852 ; 2.00472477339004E8 ; 2.3032648665630028E8 ; 2.1223600257312584E10 ; 0.0
115 ; 2030514.4065909637 ; 2.0047382539614767E8 ; 2.3235865650903815E8 ; 2.142407273465159E10 ; 0.0
116 ; 2030766.2943157805 ; 2.0047517203191578E8 ; 2.3438917091562912E8 ; 2.1624546560047737E10 ; 0.0
117 ; 2027369.657031125 ; 2.0047651717746025E8 ; 2.364199372099449E8 ; 2.1825021732079655E10 ; 0.0
118 ; 2027045.0558376147 ; 2.0047786076531553E8 ; 2.3844730686697602E8 ; 2.2025498249257114E10 ; 0.0
119 ; 2024616.4035275404 ; 2.0047920272934875E8 ; 2.4047435192281362E8 ; 2.222597611002243E10 ; 0.0
120 ; 2023660.5081925518 ; 2.0048054300471187E8 ; 2.4249896832634115E8 ; 2.2426455312751778E10 ; 0.0
121 ; 2021969.3492490307 ; 2.0048188152779612E8 ; 2.445226288345337E8 ; 2.262693585575649E10 ; 0.0
122 ; 2019620.3418107273 ; 2.0048321823618832E8 ; 2.4654459818378273E8 ; 2.2827417737284286E10 ; 0.0
123 ; 2019096.1822992929 ; 2.00484553068629E8 ; 2.4856421852559346E8 ; 2.3027900955520473E10 ; 0.0
124 ; 2017697.590199879 ; 2.0048588596497256E8 ; 2.5058331470789275E8 ; 2.3228385508589104E10 ; 0.0
125 ; 2016234.5897591508 ; 2.0048721686614907E8 ; 2.5260101229809263E8 ; 2.3428871394554077E10 ; 0.0
126 ; 2014410.2920551568 ; 2.0048854571412757E8 ; 2.5461724688785177E8 ; 2.3629358611420227E10 ; 0.0
127 ; 2013155.2243473188 ; 2.0048987245188114E8 ; 2.5663165717990693E8 ; 2.3829847157134354E10 ; 0.0
128 ; 2011616.0661667467 ; 2.0049119702335334E8 ; 2.5864481240425426E8 ; 2.4030337029586235E10 ; 0.0
129 ; 2008822.5005224058 ; 2.0049251937342614E8 ; 2.6065642847042102E8 ; 2.423082822660959E10 ; 0.0
130 ; 2007496.3930554925 ; 2.004938394478891E8 ; 2.6266525097094342E8 ; 2.4431320745983013E10 ; 0.0
131 ; 2004883.087858731 ; 2.0049515719341004E8 ; 2.6467274736399892E8 ; 2.46318145854309E10 ; 0.0
132 ; 2001555.9470540166 ; 2.0049647255750668E8 ; 2.6667763045185766E8 ; 2.483230974262431E10 ; 0.0
133 ; 2001352.0176552155 ; 2.004977854885197E8 ; 2.6867918639891165E8 ; 2.5032806215181816E10 ; 0.0
134 ; 1998471.9707014912 ; 2.0049909593558675E8 ; 2.7068053841656685E8 ; 2.5233304000670338E10 ; 0.0
135 ; 1995240.863412573 ; 2.0050040384861755E8 ; 2.7267901038726836E8 ; 2.5433803096605923E10 ; 0.0
136 ; 1991464.9356133372 ; 2.0050170917827028E8 ; 2.746742512506809E8 ; 2.563430350045454E10 ; 0.0
137 ; 1991814.6160333136 ; 2.0050301187592834E8 ; 2.7666571618629426E8 ; 2.583480520963281E10 ; 0.0
138 ; 1988095.756319289 ; 2.0050431189367884E8 ; 2.786575308023276E8 ; 2.6035308221508736E10 ; 0.0
139 ; 1984370.7778128278 ; 2.0050560918429127E8 ; 2.8064562655864686E8 ; 2.6235812533402416E10 ; 0.0
140 ; 1982902.089390511 ; 2.0050690370119736E8 ; 2.826299973364597E8 ; 2.6436318142586708E10 ; 0.0
141 ; 1980876.710200419 ; 2.0050819539847183E8 ; 2.846128994258502E8 ; 2.6636825046287907E10 ; 0.0
142 ; 1978096.0493954998 ; 2.0050948423081365E8 ; 2.8659377613605064E8 ; 2.683733324168638E10 ; 0.0
143 ; 1974578.7171734867 ; 2.0051077015352824E8 ; 2.8857187218544614E8 ; 2.703784272591719E10 ; 0.0
144 ; 1972667.3602084531 ; 2.0051205312251028E8 ; 2.905464509026196E8 ; 2.723835349607072E10 ; 0.0
145 ; 1971448.3948629799 ; 2.005133330942273E8 ; 2.9251911826282805E8 ; 2.743886554919323E10 ; 0.0
146 ; 1969874.9070355566 ; 2.0051461002570382E8 ; 2.9449056665769106E8 ; 2.7639378882287457E10 ; 0.0
147 ; 1967073.4150794633 ; 2.0051588387450606E8 ; 2.964604415647266E8 ; 2.783989349231316E10 ; 0.0
148 ; 1965550.1763073902 ; 2.005171545987275E8 ; 2.9842751497980607E8 ; 2.8040409376187668E10 ; 0.0
149 ; 1963455.9901539483 ; 2.0051842215697464E8 ; 3.0039306515611345E8 ; 2.8240926530786396E10 ; 0.0
150 ; 1963209.6659647936 ; 2.0051968650835368E8 ; 3.023565211462674E8 ; 2.844144495294337E10 ; 0.0
151 ; 1961415.0435006057 ; 2.0052094761245736E8 ; 3.043197308122322E8 ; 2.8641964639451725E10 ; 0.0
152 ; 1958967.6037421466 ; 2.0052220542935267E8 ; 3.062811458557328E8 ; 2.8842485587064182E10 ; 0.0
153 ; 1956785.2287769816 ; 2.005234599195687E8 ; 3.082401134594749E8 ; 2.9043007792493534E10 ; 0.0
154 ; 1954781.3830652689 ; 2.0052471104408503E8 ; 3.101968986882519E8 ; 2.92435312524131E10 ; 0.0
155 ; 1953514.2621750226 ; 2.0052595876432088E8 ; 3.121516800713172E8 ; 2.9444055963457188E10 ; 0.0
156 ; 1951804.8617438897 ; 2.0052720304212415E8 ; 3.141051943334922E8 ; 2.9644581922221508E10 ; 0.0
157 ; 1948430.9732078784 ; 2.005284438397613E8 ; 3.160569991952361E8 ; 2.9845109125263634E10 ; 0.0
158 ; 1949098.823055785 ; 2.005296811199073E8 ; 3.18005430168444E8 ; 3.0045637569103394E10 ; 0.0
159 ; 1944972.9728553519 ; 2.0053091484563628E8 ; 3.199545289914998E8 ; 3.02461672502233E10 ; 0.0
160 ; 1943904.5749800617 ; 2.0053214498041221E8 ; 3.218995019643551E8 ; 3.0446698165068935E10 ; 0.0
161 ; 1941536.4408250172 ; 2.0053337148808005E8 ; 3.238434065393352E8 ; 3.0647230310049347E10 ; 0.0
162 ; 1939142.4898805227 ; 2.0053459433285743E8 ; 3.2578494298016024E8 ; 3.0847763681537426E10 ; 0.0
163 ; 1937697.9965075427 ; 2.005358134793262E8 ; 3.2772408547004074E8 ; 3.1048298275870285E10 ; 0.0
164 ; 1936134.6460890037 ; 2.005370288924246E8 ; 3.2966178346654826E8 ; 3.124883408934961E10 ; 0.0
165 ; 1933080.903144605 ; 2.005382405374399E8 ; 3.315979181126373E8 ; 3.1449371118242035E10 ; 0.0
166 ; 1932179.3457394291 ; 2.005394483800007E8 ; 3.335309990157819E8 ; 3.1649909358779476E10 ; 0.0
167 ; 1928643.4889295436 ; 2.0054065238607007E8 ; 3.354631783615213E8 ; 3.1850448807159477E10 ; 0.0
168 ; 1928102.4534947737 ; 2.0054185252193877E8 ; 3.373918218504509E8 ; 3.2050989459545547E10 ; 0.0
169 ; 1924568.6925979878 ; 2.0054304875421855E8 ; 3.3931992430394566E8 ; 3.2251531312067486E10 ; 0.0
170 ; 1924157.3293201406 ; 2.005442410498359E8 ; 3.4124449299654365E8 ; 3.2452074360821705E10 ; 0.0
171 ; 1921714.494153251 ; 2.00545429376026E8 ; 3.431686503258638E8 ; 3.265261860187154E10 ; 0.0
172 ; 1919526.2630362916 ; 2.0054661370032677E8 ; 3.4509036482001704E8 ; 3.2853164031247566E10 ; 0.0
173 ; 1918311.169853566 ; 2.0054779399057323E8 ; 3.4700989108305335E8 ; 3.305371064494789E10 ; 0.0
174 ; 1916763.5244756315 ; 2.0054897021489194E8 ; 3.489282022529069E8 ; 3.3254258438938465E10 ; 0.0
175 ; 1915276.385826591 ; 2.0055014234169587E8 ; 3.5084496577738255E8 ; 3.345480740915336E10 ; 0.0
176 ; 1914307.05896442 ; 2.0055131033967924E8 ; 3.5276024216320914E8 ; 3.3655357551495056E10 ; 0.0
177 ; 1914204.6570261943 ; 2.0055247417781258E8 ; 3.546745492221736E8 ; 3.3855908861834736E10 ; 0.0
178 ; 1910922.4785984901 ; 2.0055363382533807E8 ; 3.5658875387919974E8 ; 3.405646133601255E10 ; 0.0
179 ; 1909894.5227067408 ; 2.0055478925176486E8 ; 3.584996763577982E8 ; 3.4257014969837887E10 ; 0.0
180 ; 1909240.748952014 ; 2.005559404268648E8 ; 3.6040957088050497E8 ; 3.445756975908965E10 ; 0.0
181 ; 1907842.452748464 ; 2.0055708732066804E8 ; 3.62318811629457E8 ; 3.465812569951652E10 ; 0.0
182 ; 1906292.883325889 ; 2.00558229903459E8 ; 3.642266540822055E8 ; 3.485868278683719E10 ; 0.0
183 ; 1905121.8056639854 ; 2.0055936814577246E8 ; 3.6613294696553135E8 ; 3.505924101674065E10 ; 0.0
184 ; 1904978.2977350997 ; 2.005605020183896E8 ; 3.6803806877119535E8 ; 3.525980038488642E10 ; 0.0
185 ; 1902600.2024261863 ; 2.0056163149233437E8 ; 3.6994304706893045E8 ; 3.546036088690481E10 ; 0.0
186 ; 1903126.2958524888 ; 2.0056275653886998E8 ; 3.7184564727135664E8 ; 3.566092251839714E10 ; 0.0
187 ; 1899746.2762072608 ; 2.005638771294953E8 ; 3.737487735672091E8 ; 3.586148527493601E10 ; 0.0
188 ; 1899807.4605413042 ; 2.0056499323594174E8 ; 3.756485198434164E8 ; 3.6062049152065506E10 ; 0.0
189 ; 1898936.2605248448 ; 2.005661048301699E8 ; 3.775483273039577E8 ; 3.6262614145301445E10 ; 0.0
190 ; 1895499.382022273 ; 2.0056721188436642E8 ; 3.7944726356448257E8 ; 3.6463180250131615E10 ; 0.0
191 ; 1896412.4272384054 ; 2.005683143709412E8 ; 3.8134276294650483E8 ; 3.666374746201598E10 ; 0.0
192 ; 1896527.2395907799 ; 2.0056941226252425E8 ; 3.8323917537374324E8 ; 3.6864315776386925E10 ; 0.0
193 ; 1892821.402208275 ; 2.0057050553196308E8 ; 3.85135702613334E8 ; 3.706488518864945E10 ; 0.0
194 ; 1893358.838094194 ; 2.0057159415231994E8 ; 3.8702852401554227E8 ; 3.726545569418141E10 ; 0.0
195 ; 1891250.5974748458 ; 2.005726780968692E8 ; 3.8892188285363644E8 ; 3.746602728833373E10 ; 0.0
196 ; 1890404.1126673108 ; 2.005737573390948E8 ; 3.908131334511113E8 ; 3.76665999664306E10 ; 0.0
197 ; 1886778.4972288336 ; 2.005748318526879E8 ; 3.9270353756377864E8 ; 3.78671737237697E10 ; 0.0
198 ; 1887279.8154021658 ; 2.0057590161154452E8 ; 3.945903160610075E8 ; 3.806774855562239E10 ; 0.0
199 ; 1885697.9952406532 ; 2.005769665897632E8 ; 3.9647759587640965E8 ; 3.826832445723393E10 ; 0.0
