CSV File for the City 2 on Day 13
1 - Minute m 
2 - Power Consumed at minute m 
3 - Power Produced at minute m 
4 - Energy Consumed since the beginning of the day 
5 - Energy Produced since the beginning of the day 
6 - Energy Lost since the beginning of the day on lines starting from the city
 
0 ; 1.0286329069771813E7 ; 1.2225314083541341E7 ; 0.0 ; 0.0 ; 0.0
1 ; 1.0294423772368299E7 ; 1.2225314083541341E7 ; 1.0286329069771813E7 ; 1.2225314083541341E7 ; 0.0
2 ; 1.030868019662383E7 ; 1.2225314083541341E7 ; 2.0580752842140112E7 ; 2.4450628167082682E7 ; 0.0
3 ; 1.0320215240042102E7 ; 1.2225314083541341E7 ; 3.088943303876394E7 ; 3.667594225062402E7 ; 0.0
4 ; 1.0337584209123153E7 ; 1.2225314083541341E7 ; 4.1209648278806046E7 ; 4.8901256334165365E7 ; 0.0
5 ; 1.0352343868357046E7 ; 1.2225314083541341E7 ; 5.1547232487929195E7 ; 6.1126570417706706E7 ; 0.0
6 ; 1.0379806878726132E7 ; 1.2225314083541341E7 ; 6.189957635628624E7 ; 7.335188450124805E7 ; 0.0
7 ; 1.041533518653483E7 ; 1.2225314083541341E7 ; 7.227938323501238E7 ; 8.55771985847894E7 ; 0.0
8 ; 1.0463922781940103E7 ; 1.2225314083541341E7 ; 8.26947184215472E7 ; 9.780251266833073E7 ; 0.0
9 ; 1.0538269314673597E7 ; 1.2225314083541341E7 ; 9.31586412034873E7 ; 1.1002782675187206E8 ; 0.0
10 ; 1.0658064107242767E7 ; 1.2225314083541341E7 ; 1.0369691051816091E8 ; 1.222531408354134E8 ; 0.0
11 ; 1.0846904072812213E7 ; 1.2225314083541341E7 ; 1.1435497462540367E8 ; 1.3447845491895473E8 ; 0.0
12 ; 1.1145494576883994E7 ; 1.2225314083541341E7 ; 1.2520187869821589E8 ; 1.4670376900249606E8 ; 0.0
13 ; 1.1436855264818197E7 ; 1.2225314083541341E7 ; 1.3634737327509987E8 ; 1.589290830860374E8 ; 0.0
14 ; 1.1466058024984324E7 ; 1.2225314083541341E7 ; 1.4778422853991807E8 ; 1.7115439716957873E8 ; 0.0
15 ; 1.1482584810424292E7 ; 1.2225314083541341E7 ; 1.592502865649024E8 ; 1.8337971125312006E8 ; 0.0
16 ; 1.1490670038877785E7 ; 1.2225314083541341E7 ; 1.707328713753267E8 ; 1.956050253366614E8 ; 0.0
17 ; 1.1512344272532685E7 ; 1.2225314083541341E7 ; 1.8222354141420448E8 ; 2.0783033942020273E8 ; 0.0
18 ; 1.1523706175983433E7 ; 1.2225314083541341E7 ; 1.9373588568673715E8 ; 2.2005565350374407E8 ; 0.0
19 ; 1.1533598254656445E7 ; 1.2225314083541341E7 ; 2.0525959186272058E8 ; 2.322809675872854E8 ; 0.0
20 ; 1.15483771573825E7 ; 1.2225314083541341E7 ; 2.16793190117377E8 ; 2.4450628167082673E8 ; 0.0
21 ; 1.156135198024863E7 ; 1.2225314083541341E7 ; 2.283415672747595E8 ; 2.5673159575436807E8 ; 0.0
22 ; 1.1577343148090087E7 ; 1.2225314083541341E7 ; 2.3990291925500813E8 ; 2.689569098379094E8 ; 0.0
23 ; 1.158851914342262E7 ; 1.2225314083541341E7 ; 2.5148026240309823E8 ; 2.8118222392145073E8 ; 0.0
24 ; 1.159827877758355E7 ; 1.2225314083541341E7 ; 2.6306878154652086E8 ; 2.9340753800499207E8 ; 0.0
25 ; 1.1616574803852206E7 ; 1.2225314083541341E7 ; 2.746670603241044E8 ; 3.056328520885334E8 ; 0.0
26 ; 1.162782712685787E7 ; 1.2225314083541341E7 ; 2.862836351279566E8 ; 3.1785816617207474E8 ; 0.0
27 ; 1.1639603142834743E7 ; 1.2225314083541341E7 ; 2.979114622548145E8 ; 3.3008348025561607E8 ; 0.0
28 ; 1.1654322183564993E7 ; 1.2225314083541341E7 ; 3.095510653976492E8 ; 3.423087943391574E8 ; 0.0
29 ; 1.1663135153476132E7 ; 1.2225314083541341E7 ; 3.2120538758121425E8 ; 3.5453410842269874E8 ; 0.0
30 ; 1.16760892976568E7 ; 1.2225314083541341E7 ; 3.3286852273469037E8 ; 3.6675942250624007E8 ; 0.0
31 ; 1.1690700393048977E7 ; 1.2225314083541341E7 ; 3.4454461203234714E8 ; 3.789847365897814E8 ; 0.0
32 ; 1.170410328785966E7 ; 1.2225314083541341E7 ; 3.5623531242539614E8 ; 3.9121005067332274E8 ; 0.0
33 ; 1.171436572644438E7 ; 1.2225314083541341E7 ; 3.679394157132558E8 ; 4.034353647568641E8 ; 0.0
34 ; 1.1724809028532306E7 ; 1.2225314083541341E7 ; 3.796537814397002E8 ; 4.156606788404054E8 ; 0.0
35 ; 1.173892821183688E7 ; 1.2225314083541341E7 ; 3.913785904682325E8 ; 4.2788599292394674E8 ; 0.0
36 ; 1.174701797716347E7 ; 1.2225314083541341E7 ; 4.031175186800694E8 ; 4.401113070074881E8 ; 0.0
37 ; 1.1756333581212457E7 ; 1.2225314083541341E7 ; 4.148645366572329E8 ; 4.523366210910294E8 ; 0.0
38 ; 1.176992234249949E7 ; 1.2225314083541341E7 ; 4.2662087023844534E8 ; 4.6456193517457074E8 ; 0.0
39 ; 1.1776506660079712E7 ; 1.2225314083541341E7 ; 4.3839079258094484E8 ; 4.767872492581121E8 ; 0.0
40 ; 1.1786512403566154E7 ; 1.2225314083541341E7 ; 4.5016729924102455E8 ; 4.890125633416534E8 ; 0.0
41 ; 1.1793538885030573E7 ; 1.2225314083541341E7 ; 4.6195381164459074E8 ; 5.0123787742519474E8 ; 0.0
42 ; 1.1803164170772169E7 ; 1.2225314083541341E7 ; 4.737473505296213E8 ; 5.134631915087361E8 ; 0.0
43 ; 1.1811707382840822E7 ; 1.2225314083541341E7 ; 4.855505147003935E8 ; 5.256885055922774E8 ; 0.0
44 ; 1.1819574272050492E7 ; 1.2225314083541341E7 ; 4.973622220832343E8 ; 5.379138196758188E8 ; 0.0
45 ; 1.1823427395030385E7 ; 1.2225314083541341E7 ; 5.091817963552848E8 ; 5.501391337593602E8 ; 0.0
46 ; 1.1827266909199167E7 ; 1.2225314083541341E7 ; 5.210052237503152E8 ; 5.623644478429016E8 ; 0.0
47 ; 1.1832002098619994E7 ; 1.2225314083541341E7 ; 5.3283249065951437E8 ; 5.74589761926443E8 ; 0.0
48 ; 1.1836482975935576E7 ; 1.2225314083541341E7 ; 5.446644927581344E8 ; 5.868150760099844E8 ; 0.0
49 ; 1.1840169476371111E7 ; 1.2225314083541341E7 ; 5.5650097573407E8 ; 5.990403900935258E8 ; 0.0
50 ; 1.1846458930083893E7 ; 1.2225314083541341E7 ; 5.683411452104411E8 ; 6.112657041770672E8 ; 0.0
51 ; 1.184775840936013E7 ; 1.2225314083541341E7 ; 5.80187604140525E8 ; 6.234910182606086E8 ; 0.0
52 ; 1.185125944771E7 ; 1.2225314083541341E7 ; 5.920353625498852E8 ; 6.3571633234415E8 ; 0.0
53 ; 1.1854711108105952E7 ; 1.2225314083541341E7 ; 6.038866219975952E8 ; 6.479416464276913E8 ; 0.0
54 ; 1.1859496401554922E7 ; 1.2225314083541341E7 ; 6.157413331057011E8 ; 6.601669605112327E8 ; 0.0
55 ; 1.1856713954103088E7 ; 1.2225314083541341E7 ; 6.27600829507256E8 ; 6.723922745947741E8 ; 0.0
56 ; 1.1863648650702568E7 ; 1.2225314083541341E7 ; 6.394575434613591E8 ; 6.846175886783155E8 ; 0.0
57 ; 1.1866234611346303E7 ; 1.2225314083541341E7 ; 6.513211921120617E8 ; 6.968429027618569E8 ; 0.0
58 ; 1.1867384736368515E7 ; 1.2225314083541341E7 ; 6.63187426723408E8 ; 7.090682168453983E8 ; 0.0
59 ; 1.1870967799641944E7 ; 1.2225314083541341E7 ; 6.750548114597765E8 ; 7.212935309289397E8 ; 0.0
60 ; 1.187292704277475E7 ; 1.2225314083541341E7 ; 6.869257792594185E8 ; 7.335188450124811E8 ; 0.0
61 ; 1.1874035083407933E7 ; 1.2225314083541341E7 ; 6.987987063021933E8 ; 7.457441590960225E8 ; 0.0
62 ; 1.1878075330794964E7 ; 1.2225314083541341E7 ; 7.106727413856012E8 ; 7.579694731795639E8 ; 0.0
63 ; 1.1879600492057597E7 ; 1.2225314083541341E7 ; 7.225508167163961E8 ; 7.701947872631053E8 ; 0.0
64 ; 1.1877117177561097E7 ; 1.2225314083541341E7 ; 7.344304172084537E8 ; 7.824201013466467E8 ; 0.0
65 ; 1.1883633894293789E7 ; 1.2225314083541341E7 ; 7.463075343860147E8 ; 7.946454154301881E8 ; 0.0
66 ; 1.1882654671424493E7 ; 1.2225314083541341E7 ; 7.581911682803085E8 ; 8.068707295137295E8 ; 0.0
67 ; 1.1886727017170893E7 ; 1.2225314083541341E7 ; 7.70073822951733E8 ; 8.190960435972708E8 ; 0.0
68 ; 1.188886038123109E7 ; 1.2225314083541341E7 ; 7.819605499689039E8 ; 8.313213576808122E8 ; 0.0
69 ; 1.1888696596751222E7 ; 1.2225314083541341E7 ; 7.93849410350135E8 ; 8.435466717643536E8 ; 0.0
70 ; 1.1887892274177989E7 ; 1.2225314083541341E7 ; 8.057381069468862E8 ; 8.55771985847895E8 ; 0.0
71 ; 1.1892590708514662E7 ; 1.2225314083541341E7 ; 8.176259992210642E8 ; 8.679972999314364E8 ; 0.0
72 ; 1.1890987165322259E7 ; 1.2225314083541341E7 ; 8.295185899295789E8 ; 8.802226140149778E8 ; 0.0
73 ; 1.1889444755981859E7 ; 1.2225314083541341E7 ; 8.414095770949012E8 ; 8.924479280985192E8 ; 0.0
74 ; 1.1893085467946956E7 ; 1.2225314083541341E7 ; 8.53299021850883E8 ; 9.046732421820606E8 ; 0.0
75 ; 1.1891671109022282E7 ; 1.2225314083541341E7 ; 8.6519210731883E8 ; 9.16898556265602E8 ; 0.0
76 ; 1.1896300175652614E7 ; 1.2225314083541341E7 ; 8.770837784278523E8 ; 9.291238703491434E8 ; 0.0
77 ; 1.189157580576182E7 ; 1.2225314083541341E7 ; 8.889800786035049E8 ; 9.413491844326848E8 ; 0.0
78 ; 1.189110125052885E7 ; 1.2225314083541341E7 ; 9.008716544092667E8 ; 9.535744985162262E8 ; 0.0
79 ; 1.1890261348053547E7 ; 1.2225314083541341E7 ; 9.127627556597955E8 ; 9.657998125997676E8 ; 0.0
80 ; 1.18828107210256E7 ; 1.2225314083541341E7 ; 9.246530170078491E8 ; 9.78025126683309E8 ; 0.0
81 ; 1.18814834547551E7 ; 1.2225314083541341E7 ; 9.365358277288747E8 ; 9.902504407668504E8 ; 0.0
82 ; 1.1876108071327774E7 ; 1.2225314083541341E7 ; 9.484173111836298E8 ; 1.0024757548503917E9 ; 0.0
83 ; 1.187293469516367E7 ; 1.2225314083541341E7 ; 9.602934192549576E8 ; 1.0147010689339331E9 ; 0.0
84 ; 1.1869832833186217E7 ; 1.2225314083541341E7 ; 9.721663539501213E8 ; 1.0269263830174745E9 ; 0.0
85 ; 1.1864685864921773E7 ; 1.2225314083541341E7 ; 9.840361867833076E8 ; 1.0391516971010159E9 ; 0.0
86 ; 1.1862374368217327E7 ; 1.2225314083541341E7 ; 9.959008726482294E8 ; 1.0513770111845573E9 ; 0.0
87 ; 1.1857612181815537E7 ; 1.2225314083541341E7 ; 1.0077632470164467E9 ; 1.0636023252680987E9 ; 0.0
88 ; 1.1853145593192631E7 ; 1.2225314083541341E7 ; 1.0196208591982622E9 ; 1.07582763935164E9 ; 0.0
89 ; 1.184860094219179E7 ; 1.2225314083541341E7 ; 1.0314740047914548E9 ; 1.0880529534351814E9 ; 0.0
90 ; 1.1846221546235211E7 ; 1.2225314083541341E7 ; 1.0433226057336466E9 ; 1.1002782675187228E9 ; 0.0
91 ; 1.1840388932216216E7 ; 1.2225314083541341E7 ; 1.0551688272798818E9 ; 1.1125035816022642E9 ; 0.0
92 ; 1.1830873033971144E7 ; 1.2225314083541341E7 ; 1.067009216212098E9 ; 1.1247288956858056E9 ; 0.0
93 ; 1.1828863390604757E7 ; 1.2225314083541341E7 ; 1.0788400892460692E9 ; 1.136954209769347E9 ; 0.0
94 ; 1.1826273985122284E7 ; 1.2225314083541341E7 ; 1.090668952636674E9 ; 1.1491795238528883E9 ; 0.0
95 ; 1.1818161118530171E7 ; 1.2225314083541341E7 ; 1.1024952266217961E9 ; 1.1614048379364297E9 ; 0.0
96 ; 1.181222769293757E7 ; 1.2225314083541341E7 ; 1.1143133877403264E9 ; 1.1736301520199711E9 ; 0.0
97 ; 1.1809989325043814E7 ; 1.2225314083541341E7 ; 1.126125615433264E9 ; 1.1858554661035125E9 ; 0.0
98 ; 1.1805095746216489E7 ; 1.2225314083541341E7 ; 1.137935604758308E9 ; 1.198080780187054E9 ; 0.0
99 ; 1.1798888298270658E7 ; 1.2225314083541341E7 ; 1.1497407005045245E9 ; 1.2103060942705953E9 ; 0.0
100 ; 1.179469549047893E7 ; 1.2225314083541341E7 ; 1.1615395888027952E9 ; 1.2225314083541367E9 ; 0.0
101 ; 1.1787402795477726E7 ; 1.2225314083541341E7 ; 1.1733342842932742E9 ; 1.234756722437678E9 ; 0.0
102 ; 1.1781134227327893E7 ; 1.2225314083541341E7 ; 1.1851216870887518E9 ; 1.2469820365212195E9 ; 0.0
103 ; 1.1770264160742588E7 ; 1.2225314083541341E7 ; 1.1969028213160796E9 ; 1.259207350604761E9 ; 0.0
104 ; 1.1768145914343145E7 ; 1.2225314083541341E7 ; 1.2086730854768221E9 ; 1.2714326646883023E9 ; 0.0
105 ; 1.176305714866757E7 ; 1.2225314083541341E7 ; 1.2204412313911653E9 ; 1.2836579787718437E9 ; 0.0
106 ; 1.1755008881158508E7 ; 1.2225314083541341E7 ; 1.2322042885398328E9 ; 1.295883292855385E9 ; 0.0
107 ; 1.1748067514569912E7 ; 1.2225314083541341E7 ; 1.2439592974209914E9 ; 1.3081086069389265E9 ; 0.0
108 ; 1.1743952300561484E7 ; 1.2225314083541341E7 ; 1.2557073649355614E9 ; 1.3203339210224679E9 ; 0.0
109 ; 1.1737625982100196E7 ; 1.2225314083541341E7 ; 1.2674513172361228E9 ; 1.3325592351060092E9 ; 0.0
110 ; 1.1728287847715203E7 ; 1.2225314083541341E7 ; 1.279188943218223E9 ; 1.3447845491895506E9 ; 0.0
111 ; 1.1722653485429743E7 ; 1.2225314083541341E7 ; 1.2909172310659382E9 ; 1.357009863273092E9 ; 0.0
112 ; 1.1716619285511184E7 ; 1.2225314083541341E7 ; 1.302639884551368E9 ; 1.3692351773566334E9 ; 0.0
113 ; 1.1703566961378716E7 ; 1.2225314083541341E7 ; 1.3143565038368793E9 ; 1.3814604914401748E9 ; 0.0
114 ; 1.170281564701276E7 ; 1.2225314083541341E7 ; 1.326060070798258E9 ; 1.3936858055237162E9 ; 0.0
115 ; 1.1697539411991851E7 ; 1.2225314083541341E7 ; 1.3377628864452708E9 ; 1.4059111196072576E9 ; 0.0
116 ; 1.1682764616954744E7 ; 1.2225314083541341E7 ; 1.3494604258572626E9 ; 1.418136433690799E9 ; 0.0
117 ; 1.168024406992848E7 ; 1.2225314083541341E7 ; 1.3611431904742174E9 ; 1.4303617477743404E9 ; 0.0
118 ; 1.1670593645794164E7 ; 1.2225314083541341E7 ; 1.3728234345441458E9 ; 1.4425870618578818E9 ; 0.0
119 ; 1.1659994969694983E7 ; 1.2225314083541341E7 ; 1.38449402818994E9 ; 1.4548123759414232E9 ; 0.0
120 ; 1.1654414408942906E7 ; 1.2225314083541341E7 ; 1.396154023159635E9 ; 1.4670376900249646E9 ; 0.0
121 ; 1.1647222100550566E7 ; 1.2225314083541341E7 ; 1.407808437568578E9 ; 1.479263004108506E9 ; 0.0
122 ; 1.1639623786473766E7 ; 1.2225314083541341E7 ; 1.4194556596691287E9 ; 1.4914883181920474E9 ; 0.0
123 ; 1.163141211491425E7 ; 1.2225314083541341E7 ; 1.4310952834556024E9 ; 1.5037136322755888E9 ; 0.0
124 ; 1.1623661236619554E7 ; 1.2225314083541341E7 ; 1.4427266955705166E9 ; 1.5159389463591301E9 ; 0.0
125 ; 1.1616502803772047E7 ; 1.2225314083541341E7 ; 1.454350356807136E9 ; 1.5281642604426715E9 ; 0.0
126 ; 1.16048103406573E7 ; 1.2225314083541341E7 ; 1.465966859610908E9 ; 1.540389574526213E9 ; 0.0
127 ; 1.1596200736859053E7 ; 1.2225314083541341E7 ; 1.4775716699515653E9 ; 1.5526148886097543E9 ; 0.0
128 ; 1.1583715600156378E7 ; 1.2225314083541341E7 ; 1.4891678706884243E9 ; 1.5648402026932957E9 ; 0.0
129 ; 1.1581200289131846E7 ; 1.2225314083541341E7 ; 1.5007515862885807E9 ; 1.577065516776837E9 ; 0.0
130 ; 1.1566375525382655E7 ; 1.2225314083541341E7 ; 1.5123327865777125E9 ; 1.5892908308603785E9 ; 0.0
131 ; 1.1552348955463888E7 ; 1.2225314083541341E7 ; 1.5238991621030953E9 ; 1.60151614494392E9 ; 0.0
132 ; 1.1543604822098522E7 ; 1.2225314083541341E7 ; 1.5354515110585592E9 ; 1.6137414590274613E9 ; 0.0
133 ; 1.1526639586411217E7 ; 1.2225314083541341E7 ; 1.5469951158806577E9 ; 1.6259667731110027E9 ; 0.0
134 ; 1.1513296127024932E7 ; 1.2225314083541341E7 ; 1.558521755467069E9 ; 1.638192087194544E9 ; 0.0
135 ; 1.1499555258287791E7 ; 1.2225314083541341E7 ; 1.5700350515940938E9 ; 1.6504174012780855E9 ; 0.0
136 ; 1.148720453202435E7 ; 1.2225314083541341E7 ; 1.5815346068523817E9 ; 1.6626427153616269E9 ; 0.0
137 ; 1.1474573165067354E7 ; 1.2225314083541341E7 ; 1.593021811384406E9 ; 1.6748680294451683E9 ; 0.0
138 ; 1.1458793851720802E7 ; 1.2225314083541341E7 ; 1.6044963845494735E9 ; 1.6870933435287097E9 ; 0.0
139 ; 1.1447497296198774E7 ; 1.2225314083541341E7 ; 1.6159551784011943E9 ; 1.699318657612251E9 ; 0.0
140 ; 1.1436778438033124E7 ; 1.2225314083541341E7 ; 1.6274026756973932E9 ; 1.7115439716957924E9 ; 0.0
141 ; 1.1421118830501972E7 ; 1.2225314083541341E7 ; 1.6388394541354263E9 ; 1.7237692857793338E9 ; 0.0
142 ; 1.140496151588651E7 ; 1.2225314083541341E7 ; 1.6502605729659283E9 ; 1.7359945998628752E9 ; 0.0
143 ; 1.139165382174289E7 ; 1.2225314083541341E7 ; 1.6616655344818149E9 ; 1.7482199139464166E9 ; 0.0
144 ; 1.1374881109576603E7 ; 1.2225314083541341E7 ; 1.6730571883035576E9 ; 1.760445228029958E9 ; 0.0
145 ; 1.1366610097909132E7 ; 1.2225314083541341E7 ; 1.6844320694131343E9 ; 1.7726705421134994E9 ; 0.0
146 ; 1.1356570242986757E7 ; 1.2225314083541341E7 ; 1.6957986795110435E9 ; 1.7848958561970408E9 ; 0.0
147 ; 1.1349729962797737E7 ; 1.2225314083541341E7 ; 1.7071552497540302E9 ; 1.7971211702805822E9 ; 0.0
148 ; 1.1336713378577173E7 ; 1.2225314083541341E7 ; 1.7185049797168279E9 ; 1.8093464843641236E9 ; 0.0
149 ; 1.1329531652828738E7 ; 1.2225314083541341E7 ; 1.729841693095405E9 ; 1.821571798447665E9 ; 0.0
150 ; 1.1316258465401387E7 ; 1.2225314083541341E7 ; 1.7411712247482338E9 ; 1.8337971125312064E9 ; 0.0
151 ; 1.1309475340971176E7 ; 1.2225314083541341E7 ; 1.7524874832136352E9 ; 1.8460224266147478E9 ; 0.0
152 ; 1.129893642863254E7 ; 1.2225314083541341E7 ; 1.7637969585546064E9 ; 1.8582477406982892E9 ; 0.0
153 ; 1.1289987214562327E7 ; 1.2225314083541341E7 ; 1.775095894983239E9 ; 1.8704730547818305E9 ; 0.0
154 ; 1.1277425345775861E7 ; 1.2225314083541341E7 ; 1.7863858821978014E9 ; 1.882698368865372E9 ; 0.0
155 ; 1.1267156848641444E7 ; 1.2225314083541341E7 ; 1.7976633075435772E9 ; 1.8949236829489133E9 ; 0.0
156 ; 1.1259279813826537E7 ; 1.2225314083541341E7 ; 1.8089304643922186E9 ; 1.9071489970324547E9 ; 0.0
157 ; 1.1246179953469027E7 ; 1.2225314083541341E7 ; 1.8201897442060452E9 ; 1.9193743111159961E9 ; 0.0
158 ; 1.1238522133198395E7 ; 1.2225314083541341E7 ; 1.8314359241595142E9 ; 1.9315996251995375E9 ; 0.0
159 ; 1.1224403255913239E7 ; 1.2225314083541341E7 ; 1.8426744462927127E9 ; 1.943824939283079E9 ; 0.0
160 ; 1.1215342318880172E7 ; 1.2225314083541341E7 ; 1.853898849548626E9 ; 1.9560502533666203E9 ; 0.0
161 ; 1.1203050116286032E7 ; 1.2225314083541341E7 ; 1.865114191867506E9 ; 1.9682755674501617E9 ; 0.0
162 ; 1.119051833787125E7 ; 1.2225314083541341E7 ; 1.876317241983792E9 ; 1.980500881533703E9 ; 0.0
163 ; 1.1180753782792855E7 ; 1.2225314083541341E7 ; 1.8875077603216634E9 ; 1.9927261956172445E9 ; 0.0
164 ; 1.1171624970895505E7 ; 1.2225314083541341E7 ; 1.8986885141044562E9 ; 2.0049515097007859E9 ; 0.0
165 ; 1.1162812896874184E7 ; 1.2225314083541341E7 ; 1.9098601390753517E9 ; 2.0171768237843273E9 ; 0.0
166 ; 1.115255759606769E7 ; 1.2225314083541341E7 ; 1.921022951972226E9 ; 2.0294021378678687E9 ; 0.0
167 ; 1.1143377684102649E7 ; 1.2225314083541341E7 ; 1.9321755095682936E9 ; 2.04162745195141E9 ; 0.0
168 ; 1.1129468401458355E7 ; 1.2225314083541341E7 ; 1.943318887252396E9 ; 2.0538527660349514E9 ; 0.0
169 ; 1.1120228629125884E7 ; 1.2225314083541341E7 ; 1.9544483556538544E9 ; 2.0660780801184928E9 ; 0.0
170 ; 1.1105213217180042E7 ; 1.2225314083541341E7 ; 1.9655685842829802E9 ; 2.0783033942020342E9 ; 0.0
171 ; 1.1097602224450437E7 ; 1.2225314083541341E7 ; 1.9766737975001602E9 ; 2.0905287082855756E9 ; 0.0
172 ; 1.1084467820838617E7 ; 1.2225314083541341E7 ; 1.9877713997246106E9 ; 2.102754022369117E9 ; 0.0
173 ; 1.1074184999058563E7 ; 1.2225314083541341E7 ; 1.9988558675454493E9 ; 2.1149793364526584E9 ; 0.0
174 ; 1.1067232293259287E7 ; 1.2225314083541341E7 ; 2.0099300525445077E9 ; 2.1272046505361998E9 ; 0.0
175 ; 1.1060712673495647E7 ; 1.2225314083541341E7 ; 2.0209972848377671E9 ; 2.1394299646197412E9 ; 0.0
176 ; 1.105274937197564E7 ; 1.2225314083541341E7 ; 2.0320579975112627E9 ; 2.1516552787032824E9 ; 0.0
177 ; 1.1048709703671928E7 ; 1.2225314083541341E7 ; 2.0431107468832383E9 ; 2.1638805927868237E9 ; 0.0
178 ; 1.1039503065559208E7 ; 1.2225314083541341E7 ; 2.0541594565869102E9 ; 2.176105906870365E9 ; 0.0
179 ; 1.103407040003448E7 ; 1.2225314083541341E7 ; 2.0651989596524694E9 ; 2.1883312209539065E9 ; 0.0
180 ; 1.102834730357193E7 ; 1.2225314083541341E7 ; 2.0762330300525038E9 ; 2.200556535037448E9 ; 0.0
181 ; 1.1020169680081453E7 ; 1.2225314083541341E7 ; 2.0872613773560758E9 ; 2.2127818491209893E9 ; 0.0
182 ; 1.1015045388285972E7 ; 1.2225314083541341E7 ; 2.0982815470361571E9 ; 2.2250071632045307E9 ; 0.0
183 ; 1.1007868867688758E7 ; 1.2225314083541341E7 ; 2.109296592424443E9 ; 2.237232477288072E9 ; 0.0
184 ; 1.0998612844550794E7 ; 1.2225314083541341E7 ; 2.1203044612921317E9 ; 2.2494577913716135E9 ; 0.0
185 ; 1.0993757331054574E7 ; 1.2225314083541341E7 ; 2.1313030741366825E9 ; 2.261683105455155E9 ; 0.0
186 ; 1.098350871294092E7 ; 1.2225314083541341E7 ; 2.1422968314677372E9 ; 2.2739084195386963E9 ; 0.0
187 ; 1.0977032191677863E7 ; 1.2225314083541341E7 ; 2.153280340180678E9 ; 2.2861337336222377E9 ; 0.0
188 ; 1.0975633346266273E7 ; 1.2225314083541341E7 ; 2.164257372372356E9 ; 2.298359047705779E9 ; 0.0
189 ; 1.0964298559065487E7 ; 1.2225314083541341E7 ; 2.175233005718622E9 ; 2.3105843617893205E9 ; 0.0
190 ; 1.0962520056186445E7 ; 1.2225314083541341E7 ; 2.1861973042776875E9 ; 2.322809675872862E9 ; 0.0
191 ; 1.095370791364024E7 ; 1.2225314083541341E7 ; 2.197159824333874E9 ; 2.3350349899564033E9 ; 0.0
192 ; 1.0946320289170092E7 ; 1.2225314083541341E7 ; 2.2081135322475142E9 ; 2.3472603040399446E9 ; 0.0
193 ; 1.0938587595955834E7 ; 1.2225314083541341E7 ; 2.2190598525366845E9 ; 2.359485618123486E9 ; 0.0
194 ; 1.0935309730148576E7 ; 1.2225314083541341E7 ; 2.2299984401326404E9 ; 2.3717109322070274E9 ; 0.0
195 ; 1.0925799515904447E7 ; 1.2225314083541341E7 ; 2.240933749862789E9 ; 2.383936246290569E9 ; 0.0
196 ; 1.091774574749953E7 ; 1.2225314083541341E7 ; 2.2518595493786936E9 ; 2.39616156037411E9 ; 0.0
