CSV File for the City 3 on Day 16
1 - Minute m 
2 - Power Consumed at minute m 
3 - Power Produced at minute m 
4 - Energy Consumed since the beginning of the day 
5 - Energy Produced since the beginning of the day 
6 - Energy Lost since the beginning of the day on lines starting from the city
 
0 ; 5948255.192948935 ; 7041198.574856212 ; 0.0 ; 0.0 ; 0.0
1 ; 5954493.560249526 ; 7041198.574856212 ; 5948255.192948935 ; 7041198.574856212 ; 0.0
2 ; 5958880.227226082 ; 7041198.574856212 ; 1.190274875319846E7 ; 1.4082397149712425E7 ; 0.0
3 ; 5966997.659005737 ; 7041198.574856212 ; 1.7861628980424542E7 ; 2.1123595724568635E7 ; 0.0
4 ; 5979643.441979924 ; 7041198.574856212 ; 2.3828626639430277E7 ; 2.816479429942485E7 ; 0.0
5 ; 5987369.672063188 ; 7041198.574856212 ; 2.98082700814102E7 ; 3.520599287428106E7 ; 0.0
6 ; 6000988.010811934 ; 7041198.574856212 ; 3.5795639753473386E7 ; 4.224719144913728E7 ; 0.0
7 ; 6023235.714169719 ; 7041198.574856212 ; 4.179662776428532E7 ; 4.928839002399349E7 ; 0.0
8 ; 6048277.43542354 ; 7041198.574856212 ; 4.781986347845504E7 ; 5.632958859884971E7 ; 0.0
9 ; 6090322.483238234 ; 7041198.574856212 ; 5.3868140913878575E7 ; 6.337078717370592E7 ; 0.0
10 ; 6155848.335426929 ; 7041198.574856212 ; 5.995846339711681E7 ; 7.041198574856213E7 ; 0.0
11 ; 6259393.773135398 ; 7041198.574856212 ; 6.611431173254374E7 ; 7.745318432341833E7 ; 0.0
12 ; 6426975.419135071 ; 7041198.574856212 ; 7.237370550567913E7 ; 8.449438289827454E7 ; 0.0
13 ; 6580972.309272799 ; 7041198.574856212 ; 7.88006809248142E7 ; 9.153558147313075E7 ; 0.0
14 ; 6599661.4169793995 ; 7041198.574856212 ; 8.538165323408699E7 ; 9.857678004798695E7 ; 0.0
15 ; 6606315.783187817 ; 7041198.574856212 ; 9.19813146510664E7 ; 1.0561797862284316E8 ; 0.0
16 ; 6615684.8341957005 ; 7041198.574856212 ; 9.858763043425421E7 ; 1.1265917719769937E8 ; 0.0
17 ; 6622635.93905691 ; 7041198.574856212 ; 1.0520331526844992E8 ; 1.1970037577255557E8 ; 0.0
18 ; 6631493.519351691 ; 7041198.574856212 ; 1.1182595120750682E8 ; 1.2674157434741178E8 ; 0.0
19 ; 6641475.424806546 ; 7041198.574856212 ; 1.1845744472685851E8 ; 1.3378277292226799E8 ; 0.0
20 ; 6645375.387299702 ; 7041198.574856212 ; 1.2509892015166506E8 ; 1.408239714971242E8 ; 0.0
21 ; 6653933.83075359 ; 7041198.574856212 ; 1.3174429553896476E8 ; 1.4786517007198042E8 ; 0.0
22 ; 6662672.414380701 ; 7041198.574856212 ; 1.3839822936971834E8 ; 1.5490636864683664E8 ; 0.0
23 ; 6670664.280962971 ; 7041198.574856212 ; 1.4506090178409904E8 ; 1.6194756722169286E8 ; 0.0
24 ; 6676392.518021778 ; 7041198.574856212 ; 1.5173156606506202E8 ; 1.6898876579654908E8 ; 0.0
25 ; 6686588.268305083 ; 7041198.574856212 ; 1.584079585830838E8 ; 1.760299643714053E8 ; 0.0
26 ; 6694258.192508574 ; 7041198.574856212 ; 1.650945468513889E8 ; 1.8307116294626153E8 ; 0.0
27 ; 6702824.297227132 ; 7041198.574856212 ; 1.7178880504389748E8 ; 1.9011236152111775E8 ; 0.0
28 ; 6709890.4450960485 ; 7041198.574856212 ; 1.7849162934112462E8 ; 1.9715356009597397E8 ; 0.0
29 ; 6718034.962260168 ; 7041198.574856212 ; 1.8520151978622067E8 ; 2.041947586708302E8 ; 0.0
30 ; 6723639.300812192 ; 7041198.574856212 ; 1.9191955474848083E8 ; 2.112359572456864E8 ; 0.0
31 ; 6731801.968586779 ; 7041198.574856212 ; 1.98643194049293E8 ; 2.1827715582054263E8 ; 0.0
32 ; 6737695.5299274875 ; 7041198.574856212 ; 2.0537499601787978E8 ; 2.2531835439539886E8 ; 0.0
33 ; 6744233.186051833 ; 7041198.574856212 ; 2.1211269154780728E8 ; 2.3235955297025508E8 ; 0.0
34 ; 6752371.616927677 ; 7041198.574856212 ; 2.1885692473385912E8 ; 2.394007515451113E8 ; 0.0
35 ; 6758483.898814968 ; 7041198.574856212 ; 2.256092963507868E8 ; 2.4644195011996752E8 ; 0.0
36 ; 6765743.4954968775 ; 7041198.574856212 ; 2.3236778024960178E8 ; 2.5348314869482374E8 ; 0.0
37 ; 6772007.244367761 ; 7041198.574856212 ; 2.3913352374509865E8 ; 2.6052434726967996E8 ; 0.0
38 ; 6777219.924612327 ; 7041198.574856212 ; 2.459055309894664E8 ; 2.675655458445362E8 ; 0.0
39 ; 6782414.458097195 ; 7041198.574856212 ; 2.526827509140787E8 ; 2.746067444193924E8 ; 0.0
40 ; 6787738.621913617 ; 7041198.574856212 ; 2.594651653721759E8 ; 2.816479429942486E8 ; 0.0
41 ; 6792864.752715873 ; 7041198.574856212 ; 2.662529039940895E8 ; 2.8868914156910485E8 ; 0.0
42 ; 6797259.04556347 ; 7041198.574856212 ; 2.7304576874680537E8 ; 2.957303401439611E8 ; 0.0
43 ; 6802067.265954448 ; 7041198.574856212 ; 2.798430277923688E8 ; 3.027715387188173E8 ; 0.0
44 ; 6806052.981265186 ; 7041198.574856212 ; 2.8664509505832326E8 ; 3.098127372936735E8 ; 0.0
45 ; 6810342.004063375 ; 7041198.574856212 ; 2.9345114803958845E8 ; 3.1685393586852974E8 ; 0.0
46 ; 6811995.975743021 ; 7041198.574856212 ; 3.002614900436518E8 ; 3.2389513444338596E8 ; 0.0
47 ; 6813839.409606292 ; 7041198.574856212 ; 3.070734860193948E8 ; 3.309363330182422E8 ; 0.0
48 ; 6820144.707568851 ; 7041198.574856212 ; 3.138873254290011E8 ; 3.379775315930984E8 ; 0.0
49 ; 6820605.837391523 ; 7041198.574856212 ; 3.207074701365699E8 ; 3.450187301679546E8 ; 0.0
50 ; 6822582.283466249 ; 7041198.574856212 ; 3.275280759739614E8 ; 3.5205992874281085E8 ; 0.0
51 ; 6825363.668787427 ; 7041198.574856212 ; 3.3435065825742763E8 ; 3.5910112731766707E8 ; 0.0
52 ; 6829224.18397838 ; 7041198.574856212 ; 3.4117602192621505E8 ; 3.661423258925233E8 ; 0.0
53 ; 6830557.574891912 ; 7041198.574856212 ; 3.4800524611019343E8 ; 3.731835244673795E8 ; 0.0
54 ; 6830401.710306826 ; 7041198.574856212 ; 3.5483580368508536E8 ; 3.8022472304223573E8 ; 0.0
55 ; 6834254.810568156 ; 7041198.574856212 ; 3.616662053953922E8 ; 3.8726592161709195E8 ; 0.0
56 ; 6834609.337228019 ; 7041198.574856212 ; 3.6850046020596033E8 ; 3.943071201919482E8 ; 0.0
57 ; 6835043.415638281 ; 7041198.574856212 ; 3.7533506954318833E8 ; 4.013483187668044E8 ; 0.0
58 ; 6841247.221466349 ; 7041198.574856212 ; 3.821701129588266E8 ; 4.083895173416606E8 ; 0.0
59 ; 6839371.916940689 ; 7041198.574856212 ; 3.8901136018029296E8 ; 4.1543071591651684E8 ; 0.0
60 ; 6841018.810376961 ; 7041198.574856212 ; 3.9585073209723365E8 ; 4.2247191449137306E8 ; 0.0
61 ; 6838878.622824702 ; 7041198.574856212 ; 4.026917509076106E8 ; 4.295131130662293E8 ; 0.0
62 ; 6844513.75494658 ; 7041198.574856212 ; 4.095306295304353E8 ; 4.365543116410855E8 ; 0.0
63 ; 6844909.440265176 ; 7041198.574856212 ; 4.163751432853819E8 ; 4.435955102159417E8 ; 0.0
64 ; 6846017.759960099 ; 7041198.574856212 ; 4.232200527256471E8 ; 4.5063670879079795E8 ; 0.0
65 ; 6846927.902374646 ; 7041198.574856212 ; 4.300660704856072E8 ; 4.576779073656542E8 ; 0.0
66 ; 6846090.190525727 ; 7041198.574856212 ; 4.3691299838798183E8 ; 4.647191059405104E8 ; 0.0
67 ; 6848732.655629187 ; 7041198.574856212 ; 4.4375908857850754E8 ; 4.717603045153666E8 ; 0.0
68 ; 6848875.133772666 ; 7041198.574856212 ; 4.506078212341367E8 ; 4.7880150309022284E8 ; 0.0
69 ; 6850130.885998452 ; 7041198.574856212 ; 4.574566963679094E8 ; 4.8584270166507906E8 ; 0.0
70 ; 6853931.943143179 ; 7041198.574856212 ; 4.643068272539078E8 ; 4.928839002399353E8 ; 0.0
71 ; 6851693.284893505 ; 7041198.574856212 ; 4.71160759197051E8 ; 4.999250988147915E8 ; 0.0
72 ; 6849337.485342721 ; 7041198.574856212 ; 4.780124524819445E8 ; 5.069662973896477E8 ; 0.0
73 ; 6851646.5905287815 ; 7041198.574856212 ; 4.8486178996728724E8 ; 5.1400749596450394E8 ; 0.0
74 ; 6853691.753500548 ; 7041198.574856212 ; 4.91713436557816E8 ; 5.2104869453936017E8 ; 0.0
75 ; 6853565.418273124 ; 7041198.574856212 ; 4.9856712831131655E8 ; 5.280898931142164E8 ; 0.0
76 ; 6852095.490234279 ; 7041198.574856212 ; 5.054206937295897E8 ; 5.351310916890726E8 ; 0.0
77 ; 6852039.334396989 ; 7041198.574856212 ; 5.1227278921982396E8 ; 5.421722902639288E8 ; 0.0
78 ; 6850216.968393583 ; 7041198.574856212 ; 5.19124828554221E8 ; 5.492134888387849E8 ; 0.0
79 ; 6852194.039316099 ; 7041198.574856212 ; 5.2597504552261454E8 ; 5.562546874136411E8 ; 0.0
80 ; 6846128.511350185 ; 7041198.574856212 ; 5.3282723956193066E8 ; 5.632958859884973E8 ; 0.0
81 ; 6846915.573462451 ; 7041198.574856212 ; 5.396733680732808E8 ; 5.703370845633534E8 ; 0.0
82 ; 6843406.140986201 ; 7041198.574856212 ; 5.465202836467433E8 ; 5.773782831382096E8 ; 0.0
83 ; 6840617.174272534 ; 7041198.574856212 ; 5.533636897877295E8 ; 5.844194817130657E8 ; 0.0
84 ; 6839353.097884673 ; 7041198.574856212 ; 5.60204306962002E8 ; 5.914606802879219E8 ; 0.0
85 ; 6835033.443689708 ; 7041198.574856212 ; 5.670436600598867E8 ; 5.985018788627781E8 ; 0.0
86 ; 6832606.133983494 ; 7041198.574856212 ; 5.738786935035764E8 ; 6.055430774376342E8 ; 0.0
87 ; 6832430.056856642 ; 7041198.574856212 ; 5.807112996375599E8 ; 6.125842760124904E8 ; 0.0
88 ; 6828526.734765552 ; 7041198.574856212 ; 5.875437296944165E8 ; 6.196254745873466E8 ; 0.0
89 ; 6824644.55611867 ; 7041198.574856212 ; 5.94372256429182E8 ; 6.266666731622027E8 ; 0.0
90 ; 6823360.524389553 ; 7041198.574856212 ; 6.011969009853008E8 ; 6.337078717370589E8 ; 0.0
91 ; 6819559.659347923 ; 7041198.574856212 ; 6.080202615096903E8 ; 6.40749070311915E8 ; 0.0
92 ; 6817771.6686624875 ; 7041198.574856212 ; 6.148398211690382E8 ; 6.477902688867712E8 ; 0.0
93 ; 6815370.727226598 ; 7041198.574856212 ; 6.216575928377006E8 ; 6.548314674616274E8 ; 0.0
94 ; 6811486.312812243 ; 7041198.574856212 ; 6.284729635649272E8 ; 6.618726660364835E8 ; 0.0
95 ; 6808878.441815072 ; 7041198.574856212 ; 6.352844498777394E8 ; 6.689138646113397E8 ; 0.0
96 ; 6806655.204577294 ; 7041198.574856212 ; 6.420933283195544E8 ; 6.759550631861959E8 ; 0.0
97 ; 6805014.397376802 ; 7041198.574856212 ; 6.488999835241318E8 ; 6.82996261761052E8 ; 0.0
98 ; 6799713.954116494 ; 7041198.574856212 ; 6.557049979215086E8 ; 6.900374603359082E8 ; 0.0
99 ; 6797187.1261624275 ; 7041198.574856212 ; 6.62504711875625E8 ; 6.970786589107643E8 ; 0.0
100 ; 6792868.367285563 ; 7041198.574856212 ; 6.693018990017874E8 ; 7.041198574856205E8 ; 0.0
101 ; 6790898.6913019605 ; 7041198.574856212 ; 6.76094767369073E8 ; 7.111610560604767E8 ; 0.0
102 ; 6785225.556454478 ; 7041198.574856212 ; 6.82885666060375E8 ; 7.182022546353328E8 ; 0.0
103 ; 6783110.1812267555 ; 7041198.574856212 ; 6.896708916168294E8 ; 7.25243453210189E8 ; 0.0
104 ; 6779628.175986874 ; 7041198.574856212 ; 6.964540017980561E8 ; 7.322846517850451E8 ; 0.0
105 ; 6776607.336340629 ; 7041198.574856212 ; 7.03233629974043E8 ; 7.393258503599013E8 ; 0.0
106 ; 6770611.982525891 ; 7041198.574856212 ; 7.100102373103837E8 ; 7.463670489347575E8 ; 0.0
107 ; 6767647.715373424 ; 7041198.574856212 ; 7.167808492929096E8 ; 7.534082475096136E8 ; 0.0
108 ; 6764854.99367075 ; 7041198.574856212 ; 7.23548497008283E8 ; 7.604494460844698E8 ; 0.0
109 ; 6759658.956244068 ; 7041198.574856212 ; 7.303133520019537E8 ; 7.67490644659326E8 ; 0.0
110 ; 6754989.722363565 ; 7041198.574856212 ; 7.370730109581978E8 ; 7.745318432341821E8 ; 0.0
111 ; 6750429.569615054 ; 7041198.574856212 ; 7.438280006805614E8 ; 7.815730418090383E8 ; 0.0
112 ; 6745507.46982274 ; 7041198.574856212 ; 7.505784302501764E8 ; 7.886142403838944E8 ; 0.0
113 ; 6742242.731070505 ; 7041198.574856212 ; 7.573239377199992E8 ; 7.956554389587506E8 ; 0.0
114 ; 6739457.93751652 ; 7041198.574856212 ; 7.640661804510697E8 ; 8.026966375336068E8 ; 0.0
115 ; 6736107.28551562 ; 7041198.574856212 ; 7.708056383885863E8 ; 8.097378361084629E8 ; 0.0
116 ; 6730267.559383219 ; 7041198.574856212 ; 7.77541745674102E8 ; 8.167790346833191E8 ; 0.0
117 ; 6726007.621616837 ; 7041198.574856212 ; 7.842720132334852E8 ; 8.238202332581753E8 ; 0.0
118 ; 6720104.641709384 ; 7041198.574856212 ; 7.909980208551021E8 ; 8.308614318330314E8 ; 0.0
119 ; 6716875.350639155 ; 7041198.574856212 ; 7.977181254968114E8 ; 8.379026304078876E8 ; 0.0
120 ; 6710565.421857263 ; 7041198.574856212 ; 8.044350008474505E8 ; 8.449438289827437E8 ; 0.0
121 ; 6706846.38318607 ; 7041198.574856212 ; 8.111455662693077E8 ; 8.519850275575999E8 ; 0.0
122 ; 6699550.922740515 ; 7041198.574856212 ; 8.178524126524938E8 ; 8.590262261324561E8 ; 0.0
123 ; 6695391.156485142 ; 7041198.574856212 ; 8.245519635752343E8 ; 8.660674247073122E8 ; 0.0
124 ; 6691113.515797432 ; 7041198.574856212 ; 8.312473547317195E8 ; 8.731086232821684E8 ; 0.0
125 ; 6686340.874257412 ; 7041198.574856212 ; 8.379384682475169E8 ; 8.801498218570246E8 ; 0.0
126 ; 6682423.583170439 ; 7041198.574856212 ; 8.446248091217743E8 ; 8.871910204318807E8 ; 0.0
127 ; 6674844.6047303155 ; 7041198.574856212 ; 8.513072327049447E8 ; 8.942322190067369E8 ; 0.0
128 ; 6669911.927914224 ; 7041198.574856212 ; 8.579820773096751E8 ; 9.01273417581593E8 ; 0.0
129 ; 6665223.404038837 ; 7041198.574856212 ; 8.646519892375894E8 ; 9.083146161564492E8 ; 0.0
130 ; 6659799.481393482 ; 7041198.574856212 ; 8.713172126416281E8 ; 9.153558147313054E8 ; 0.0
131 ; 6653107.951379596 ; 7041198.574856212 ; 8.779770121230216E8 ; 9.223970133061615E8 ; 0.0
132 ; 6644147.571778704 ; 7041198.574856212 ; 8.846301200744011E8 ; 9.294382118810177E8 ; 0.0
133 ; 6639122.157070411 ; 7041198.574856212 ; 8.912742676461798E8 ; 9.364794104558738E8 ; 0.0
134 ; 6626898.328744403 ; 7041198.574856212 ; 8.979133898032502E8 ; 9.4352060903073E8 ; 0.0
135 ; 6621460.040805932 ; 7041198.574856212 ; 9.045402881319946E8 ; 9.505618076055862E8 ; 0.0
136 ; 6614910.810102191 ; 7041198.574856212 ; 9.111617481728005E8 ; 9.576030061804423E8 ; 0.0
137 ; 6606386.688874403 ; 7041198.574856212 ; 9.177766589829028E8 ; 9.646442047552985E8 ; 0.0
138 ; 6596496.695474681 ; 7041198.574856212 ; 9.243830456717771E8 ; 9.716854033301547E8 ; 0.0
139 ; 6590466.4195181355 ; 7041198.574856212 ; 9.309795423672518E8 ; 9.787266019050108E8 ; 0.0
140 ; 6582720.554517629 ; 7041198.574856212 ; 9.375700087867699E8 ; 9.85767800479867E8 ; 0.0
141 ; 6575981.170696266 ; 7041198.574856212 ; 9.441527293412875E8 ; 9.928089990547231E8 ; 0.0
142 ; 6567209.5697495695 ; 7041198.574856212 ; 9.507287105119838E8 ; 9.998501976295793E8 ; 0.0
143 ; 6557767.785307509 ; 7041198.574856212 ; 9.572959200817333E8 ; 1.0068913962044355E9 ; 0.0
144 ; 6551373.690021197 ; 7041198.574856212 ; 9.638536878670409E8 ; 1.0139325947792916E9 ; 0.0
145 ; 6545858.756770004 ; 7041198.574856212 ; 9.70405061557062E8 ; 1.0209737933541478E9 ; 0.0
146 ; 6539538.205930196 ; 7041198.574856212 ; 9.76950920313832E8 ; 1.028014991929004E9 ; 0.0
147 ; 6532770.827980206 ; 7041198.574856212 ; 9.834904585197623E8 ; 1.0350561905038601E9 ; 0.0
148 ; 6529683.13566697 ; 7041198.574856212 ; 9.900232293477424E8 ; 1.0420973890787163E9 ; 0.0
149 ; 6525639.446919826 ; 7041198.574856212 ; 9.965529124834094E8 ; 1.0491385876535724E9 ; 0.0
150 ; 6516913.104345338 ; 7041198.574856212 ; 1.0030785519303292E9 ; 1.0561797862284286E9 ; 0.0
151 ; 6511894.852725336 ; 7041198.574856212 ; 1.0095954650346745E9 ; 1.0632209848032848E9 ; 0.0
152 ; 6507193.1959505705 ; 7041198.574856212 ; 1.0161073598873999E9 ; 1.0702621833781409E9 ; 0.0
153 ; 6500873.327662782 ; 7041198.574856212 ; 1.0226145530833505E9 ; 1.0773033819529972E9 ; 0.0
154 ; 6494202.07223324 ; 7041198.574856212 ; 1.0291154264110134E9 ; 1.0843445805278535E9 ; 0.0
155 ; 6489617.505357374 ; 7041198.574856212 ; 1.0356096284832466E9 ; 1.0913857791027098E9 ; 0.0
156 ; 6482600.211239998 ; 7041198.574856212 ; 1.042099245988604E9 ; 1.098426977677566E9 ; 0.0
157 ; 6478561.719754453 ; 7041198.574856212 ; 1.048581846199844E9 ; 1.1054681762524223E9 ; 0.0
158 ; 6473313.632842079 ; 7041198.574856212 ; 1.0550604079195985E9 ; 1.1125093748272786E9 ; 0.0
159 ; 6464705.802459803 ; 7041198.574856212 ; 1.0615337215524405E9 ; 1.119550573402135E9 ; 0.0
160 ; 6456020.403782522 ; 7041198.574856212 ; 1.0679984273549004E9 ; 1.1265917719769912E9 ; 0.0
161 ; 6451860.230955059 ; 7041198.574856212 ; 1.074454447758683E9 ; 1.1336329705518475E9 ; 0.0
162 ; 6446841.415653294 ; 7041198.574856212 ; 1.080906307989638E9 ; 1.1406741691267037E9 ; 0.0
163 ; 6440244.558565887 ; 7041198.574856212 ; 1.0873531494052913E9 ; 1.14771536770156E9 ; 0.0
164 ; 6430863.619629025 ; 7041198.574856212 ; 1.0937933939638572E9 ; 1.1547565662764163E9 ; 0.0
165 ; 6429162.705262 ; 7041198.574856212 ; 1.100224257583486E9 ; 1.1617977648512726E9 ; 0.0
166 ; 6421087.319287389 ; 7041198.574856212 ; 1.106653420288748E9 ; 1.1688389634261289E9 ; 0.0
167 ; 6415532.721906532 ; 7041198.574856212 ; 1.1130745076080353E9 ; 1.1758801620009851E9 ; 0.0
168 ; 6407978.27065078 ; 7041198.574856212 ; 1.1194900403299417E9 ; 1.1829213605758414E9 ; 0.0
169 ; 6402318.614565738 ; 7041198.574856212 ; 1.1258980186005926E9 ; 1.1899625591506977E9 ; 0.0
170 ; 6397216.725533183 ; 7041198.574856212 ; 1.1323003372151585E9 ; 1.197003757725554E9 ; 0.0
171 ; 6390544.599645316 ; 7041198.574856212 ; 1.1386975539406917E9 ; 1.2040449563004103E9 ; 0.0
172 ; 6382077.252119339 ; 7041198.574856212 ; 1.145088098540337E9 ; 1.2110861548752666E9 ; 0.0
173 ; 6379962.120662485 ; 7041198.574856212 ; 1.1514701757924564E9 ; 1.2181273534501228E9 ; 0.0
174 ; 6372984.15158912 ; 7041198.574856212 ; 1.1578501379131188E9 ; 1.225168552024979E9 ; 0.0
175 ; 6370179.155856102 ; 7041198.574856212 ; 1.164223122064708E9 ; 1.2322097505998354E9 ; 0.0
176 ; 6365472.030717486 ; 7041198.574856212 ; 1.1705933012205641E9 ; 1.2392509491746917E9 ; 0.0
177 ; 6365034.676339769 ; 7041198.574856212 ; 1.1769587732512815E9 ; 1.246292147749548E9 ; 0.0
178 ; 6360947.656129617 ; 7041198.574856212 ; 1.1833238079276214E9 ; 1.2533333463244042E9 ; 0.0
179 ; 6355874.816354864 ; 7041198.574856212 ; 1.189684755583751E9 ; 1.2603745448992605E9 ; 0.0
180 ; 6351870.133617751 ; 7041198.574856212 ; 1.1960406304001057E9 ; 1.2674157434741168E9 ; 0.0
181 ; 6348602.275543263 ; 7041198.574856212 ; 1.2023925005337234E9 ; 1.274456942048973E9 ; 0.0
182 ; 6345401.2651626365 ; 7041198.574856212 ; 1.2087411028092666E9 ; 1.2814981406238294E9 ; 0.0
183 ; 6342117.479041407 ; 7041198.574856212 ; 1.2150865040744293E9 ; 1.2885393391986856E9 ; 0.0
184 ; 6338053.388744469 ; 7041198.574856212 ; 1.2214286215534706E9 ; 1.295580537773542E9 ; 0.0
185 ; 6335500.484325363 ; 7041198.574856212 ; 1.227766674942215E9 ; 1.3026217363483982E9 ; 0.0
186 ; 6332487.254889514 ; 7041198.574856212 ; 1.2341021754265404E9 ; 1.3096629349232545E9 ; 0.0
187 ; 6328122.665256148 ; 7041198.574856212 ; 1.2404346626814299E9 ; 1.3167041334981108E9 ; 0.0
188 ; 6323180.664791237 ; 7041198.574856212 ; 1.2467627853466861E9 ; 1.323745332072967E9 ; 0.0
189 ; 6319803.817690636 ; 7041198.574856212 ; 1.2530859660114775E9 ; 1.3307865306478233E9 ; 0.0
190 ; 6316760.952747539 ; 7041198.574856212 ; 1.259405769829168E9 ; 1.3378277292226796E9 ; 0.0
191 ; 6315176.0045931535 ; 7041198.574856212 ; 1.2657225307819157E9 ; 1.344868927797536E9 ; 0.0
192 ; 6308997.375776533 ; 7041198.574856212 ; 1.2720377067865088E9 ; 1.3519101263723922E9 ; 0.0
193 ; 6303469.974218256 ; 7041198.574856212 ; 1.2783467041622853E9 ; 1.3589513249472485E9 ; 0.0
194 ; 6300057.356363272 ; 7041198.574856212 ; 1.2846501741365037E9 ; 1.3659925235221047E9 ; 0.0
195 ; 6295340.918493288 ; 7041198.574856212 ; 1.290950231492867E9 ; 1.373033722096961E9 ; 0.0
196 ; 6291646.161739299 ; 7041198.574856212 ; 1.2972455724113603E9 ; 1.3800749206718173E9 ; 0.0
197 ; 6289588.508056237 ; 7041198.574856212 ; 1.3035372185730996E9 ; 1.3871161192466736E9 ; 0.0
198 ; 6285564.677360538 ; 7041198.574856212 ; 1.3098268070811558E9 ; 1.3941573178215299E9 ; 0.0
199 ; 6283589.881929119 ; 7041198.574856212 ; 1.3161123717585163E9 ; 1.4011985163963861E9 ; 0.0
200 ; 6276162.760441049 ; 7041198.574856212 ; 1.3223959616404455E9 ; 1.4082397149712424E9 ; 0.0
201 ; 6274805.2701999955 ; 7041198.574856212 ; 1.3286721244008865E9 ; 1.4152809135460987E9 ; 0.0
202 ; 6270434.030749199 ; 7041198.574856212 ; 1.3349469296710865E9 ; 1.422322112120955E9 ; 0.0
203 ; 6265674.420749608 ; 7041198.574856212 ; 1.3412173637018356E9 ; 1.4293633106958113E9 ; 0.0
204 ; 6262522.819960388 ; 7041198.574856212 ; 1.3474830381225853E9 ; 1.4364045092706676E9 ; 0.0
205 ; 6259748.692904256 ; 7041198.574856212 ; 1.3537455609425457E9 ; 1.4434457078455238E9 ; 0.0
206 ; 6257075.524303825 ; 7041198.574856212 ; 1.36000530963545E9 ; 1.45048690642038E9 ; 0.0
207 ; 6253315.8564702505 ; 7041198.574856212 ; 1.3662623851597538E9 ; 1.4575281049952364E9 ; 0.0
208 ; 6250003.3035411015 ; 7041198.574856212 ; 1.3725157010162241E9 ; 1.4645693035700927E9 ; 0.0
