CSV File for the City 1 on Day 363
1 - Minute m 
2 - Power Consumed at minute m 
3 - Power Produced at minute m 
4 - Energy Consumed since the beginning of the day 
5 - Energy Produced since the beginning of the day 
6 - Energy Lost since the beginning of the day on lines starting from the city
 
0 ; 1.6013224242609879E7 ; 1.0541878677257517E8 ; 0.0 ; 0.0 ; 0.0
1 ; 1.6031735602036063E7 ; 1.0557157001655889E8 ; 1.6013224242609879E7 ; 1.0541878677257517E8 ; 0.0
2 ; 1.6047163179689912E7 ; 1.0603314891149738E8 ; 3.204495984464594E7 ; 2.1099035678913406E8 ; 0.0
3 ; 1.6068338235947188E7 ; 1.0680352608276963E8 ; 4.8092123024335854E7 ; 3.1702350570063144E8 ; 0.0
4 ; 1.609065592346975E7 ; 1.0788270390699881E8 ; 6.416046126028304E7 ; 4.238270317834011E8 ; 0.0
5 ; 1.6119669582507305E7 ; 1.092706844910878E8 ; 8.025111718375279E7 ; 5.317097356903999E8 ; 0.0
6 ; 1.6159774885410722E7 ; 1.109674696530393E8 ; 9.637078676626009E7 ; 6.409804201814877E8 ; 0.0
7 ; 1.6212080367552884E7 ; 1.1297306090495414E8 ; 1.1253056165167081E8 ; 7.51947889834527E8 ; 0.0
8 ; 1.629179869491049E7 ; 1.1528745943856847E8 ; 1.2874264201922369E8 ; 8.649209507394812E8 ; 0.0
9 ; 1.640761132128271E7 ; 1.1791066611364877E8 ; 1.450344407141342E8 ; 9.802084101780497E8 ; 0.0
10 ; 1.6586436451936094E7 ; 1.2084268144950563E8 ; 1.614420520354169E8 ; 1.0981190762916985E9 ; 0.0
11 ; 1.687850330616839E7 ; 1.2408350561982164E8 ; 1.78028488487353E8 ; 1.218961757741204E9 ; 0.0
12 ; 1.733566354633956E7 ; 1.2763313845091417E8 ; 1.9490699179352137E8 ; 1.3430452633610256E9 ; 0.0
13 ; 1.778150581577022E7 ; 1.3149157942347264E8 ; 2.1224265533986095E8 ; 1.4706784018119397E9 ; 0.0
14 ; 1.783401286605135E7 ; 1.3565882767773068E8 ; 2.3002416115563115E8 ; 1.6021699812354124E9 ; 0.0
15 ; 1.785613340543209E7 ; 1.4013488202195197E8 ; 2.478581740216825E8 ; 1.7378288089131432E9 ; 0.0
16 ; 1.7878302790941503E7 ; 1.4491974094403586E8 ; 2.657143074271146E8 ; 1.877963690935095E9 ; 0.0
17 ; 1.7897099957651842E7 ; 1.500134026259795E8 ; 2.835926102180561E8 ; 2.0228834318791308E9 ; 0.0
18 ; 1.791635649414959E7 ; 1.554158649608801E8 ; 3.0148971017570794E8 ; 2.1728968345051103E9 ; 0.0
19 ; 1.7940028790901937E7 ; 1.6112712557211444E8 ; 3.194060666698575E8 ; 2.3283126994659905E9 ; 0.0
20 ; 1.796071997474975E7 ; 1.6714718183430353E8 ; 3.3734609546075946E8 ; 2.489439825038105E9 ; 0.0
21 ; 1.7981236958480522E7 ; 1.734760308956541E8 ; 3.553068154355092E8 ; 2.6565870068724084E9 ; 0.0
22 ; 1.8000831038400967E7 ; 1.8011366970126247E8 ; 3.7328805239398974E8 ; 2.8300630377680626E9 ; 0.0
23 ; 1.8021381120215826E7 ; 1.8706009501697898E8 ; 3.912888834323907E8 ; 3.010176707469325E9 ; 0.0
24 ; 1.8045759531749815E7 ; 1.943153034534483E8 ; 4.093102645526065E8 ; 3.1972368024863043E9 ; 0.0
25 ; 1.806180855854932E7 ; 2.0056733238815433E8 ; 4.273560240843563E8 ; 3.3915521059397526E9 ; 0.0
26 ; 1.808177621507214E7 ; 2.005697260256799E8 ; 4.4541783264290565E8 ; 3.592119438327907E9 ; 0.0
27 ; 1.8107034613879763E7 ; 2.005722499451981E8 ; 4.634996088579778E8 ; 3.792689164353587E9 ; 0.0
28 ; 1.812659943657474E7 ; 2.0057490036882302E8 ; 4.8160664347185755E8 ; 3.993261414298785E9 ; 0.0
29 ; 1.814943394512521E7 ; 2.005776734752335E8 ; 4.997332429084323E8 ; 4.1938363146676083E9 ; 0.0
30 ; 1.8163522058118377E7 ; 2.005805654187064E8 ; 5.178826768535575E8 ; 4.394413988142841E9 ; 0.0
31 ; 1.818553697848372E7 ; 2.005835723467011E8 ; 5.3604619891167593E8 ; 4.594994553561547E9 ; 0.0
32 ; 1.8205431945313275E7 ; 2.0058669041592935E8 ; 5.542317358901596E8 ; 4.795578125908248E9 ; 0.0
33 ; 1.8219015804761045E7 ; 2.0058991580688167E8 ; 5.724371678354728E8 ; 4.996164816324178E9 ; 0.0
34 ; 1.824244013617295E7 ; 2.0059324473680934E8 ; 5.906561836402339E8 ; 5.19675473213106E9 ; 0.0
35 ; 1.8257166230082083E7 ; 2.0059667347118974E8 ; 6.088986237764068E8 ; 5.397347976867869E9 ; 0.0
36 ; 1.827428148975604E7 ; 2.0060019833372232E8 ; 6.271557900064888E8 ; 5.597944650339059E9 ; 0.0
37 ; 1.8291847146676477E7 ; 2.006038157149204E8 ; 6.454300714962448E8 ; 5.798544848672781E9 ; 0.0
38 ; 1.8307927300673436E7 ; 2.0060752207937685E8 ; 6.637219186429212E8 ; 5.999148664387701E9 ; 0.0
39 ; 1.832105202254005E7 ; 2.006113139717907E8 ; 6.820298459435947E8 ; 6.199756186467078E9 ; 0.0
40 ; 1.833478728754374E7 ; 2.0061518802184808E8 ; 7.003508979661348E8 ; 6.4003675004388685E9 ; 0.0
41 ; 1.8346567998856485E7 ; 2.006191409480534E8 ; 7.186856852536786E8 ; 6.600982688460716E9 ; 0.0
42 ; 1.835878322170418E7 ; 2.006231695606077E8 ; 7.370322532525351E8 ; 6.80160182940877E9 ; 0.0
43 ; 1.837433825979052E7 ; 2.0062727076343006E8 ; 7.553910364742392E8 ; 7.0022249989693775E9 ; 0.0
44 ; 1.8381175008714613E7 ; 2.006314415554143E8 ; 7.737653747340298E8 ; 7.202852269732807E9 ; 0.0
45 ; 1.839243301876822E7 ; 2.0063567903101012E8 ; 7.921465497427443E8 ; 7.403483711288221E9 ; 0.0
46 ; 1.8404281274371427E7 ; 2.006399803802127E8 ; 8.105389827615125E8 ; 7.604119390319231E9 ; 0.0
47 ; 1.840966946309799E7 ; 2.006443428880382E8 ; 8.289432640358839E8 ; 7.804759370699444E9 ; 0.0
48 ; 1.842586341947066E7 ; 2.0064876393355888E8 ; 8.47352933498982E8 ; 8.005403713587482E9 ; 0.0
49 ; 1.8425758244557716E7 ; 2.0065324098856378E8 ; 8.657787969184526E8 ; 8.206052477521041E9 ; 0.0
50 ; 1.843165384646081E7 ; 2.006577716159053E8 ; 8.842045551630104E8 ; 8.406705718509604E9 ; 0.0
51 ; 1.8440911022370175E7 ; 2.0066235346758717E8 ; 9.026362090094712E8 ; 8.60736349012551E9 ; 0.0
52 ; 1.8441737721171703E7 ; 2.006669842826419E8 ; 9.210771200318414E8 ; 8.808025843593096E9 ; 0.0
53 ; 1.845046077540695E7 ; 2.0067166188484216E8 ; 9.395188577530131E8 ; 9.008692827875738E9 ; 0.0
54 ; 1.845570244884318E7 ; 2.0067638418028462E8 ; 9.579693185284201E8 ; 9.20936448976058E9 ; 0.0
55 ; 1.845722925399082E7 ; 2.0068114915487942E8 ; 9.764250209772632E8 ; 9.410040873940865E9 ; 0.0
56 ; 1.8461214354516067E7 ; 2.006859548717761E8 ; 9.94882250231254E8 ; 9.610722023095743E9 ; 0.0
57 ; 1.846605178172663E7 ; 2.0069079946875048E8 ; 1.01334346458577E9 ; 9.81140797796752E9 ; 0.0
58 ; 1.847013462326245E7 ; 2.006956811555753E8 ; 1.0318095163674966E9 ; 1.001209877743627E10 ; 0.0
59 ; 1.8476772726390556E7 ; 2.007005982113932E8 ; 1.050279650990759E9 ; 1.0212794458591845E10 ; 0.0
60 ; 1.8480681330412135E7 ; 2.007055489821078E8 ; 1.0687564237171496E9 ; 1.0413495056803238E10 ; 0.0
61 ; 1.8483359938981634E7 ; 2.0071053187780637E8 ; 1.0872371050475616E9 ; 1.0614200605785345E10 ; 0.0
62 ; 1.8485340699693345E7 ; 2.0071554537022507E8 ; 1.1057204649865432E9 ; 1.081491113766315E10 ; 0.0
63 ; 1.848616474116252E7 ; 2.0072058799026576E8 ; 1.1242058056862366E9 ; 1.1015626683033377E10 ; 0.0
64 ; 1.8493702123538416E7 ; 2.007256583255715E8 ; 1.1426919704273992E9 ; 1.1216347271023642E10 ; 0.0
65 ; 1.8500190661178928E7 ; 2.0073075501816657E8 ; 1.1611856725509377E9 ; 1.1417072929349213E10 ; 0.0
66 ; 1.8498452830350153E7 ; 2.0073587676216525E8 ; 1.1796858632121165E9 ; 1.161780368436738E10 ; 0.0
67 ; 1.8503734141420126E7 ; 2.0074102230155253E8 ; 1.1981843160424666E9 ; 1.1818539561129545E10 ; 0.0
68 ; 1.8504439179054953E7 ; 2.0074619042803878E8 ; 1.2166880501838868E9 ; 1.2019280583431097E10 ; 0.0
69 ; 1.8505561106428478E7 ; 2.0075137997899008E8 ; 1.2351924893629417E9 ; 1.2220026773859137E10 ; 0.0
70 ; 1.8510348353256095E7 ; 2.007565898354342E8 ; 1.2536980504693701E9 ; 1.2420778153838127E10 ; 0.0
71 ; 1.8510306870006636E7 ; 2.0076181892014298E8 ; 1.272208398822626E9 ; 1.2621534743673561E10 ; 0.0
72 ; 1.8516107612434186E7 ; 2.007670661957897E8 ; 1.2907187056926327E9 ; 1.2822296562593704E10 ; 0.0
73 ; 1.8517813710407317E7 ; 2.007723306631813E8 ; 1.3092348133050668E9 ; 1.3023063628789494E10 ; 0.0
74 ; 1.8522031350855026E7 ; 2.007776113595638E8 ; 1.327752627015474E9 ; 1.3223835959452675E10 ; 0.0
75 ; 1.8520049237720735E7 ; 2.00782907356999E8 ; 1.3462746583663292E9 ; 1.3424613570812239E10 ; 0.0
76 ; 1.8519237569756616E7 ; 2.0078821776081175E8 ; 1.36479470760405E9 ; 1.3625396478169237E10 ; 0.0
77 ; 1.8515550670368616E7 ; 2.0079354170810437E8 ; 1.3833139451738064E9 ; 1.3826184695930048E10 ; 0.0
78 ; 1.8518999819560308E7 ; 2.0079887836633754E8 ; 1.401829495844175E9 ; 1.4026978237638153E10 ; 0.0
79 ; 1.8510216552818473E7 ; 2.0080422693197456E8 ; 1.4203484956637354E9 ; 1.422777711600449E10 ; 0.0
80 ; 1.8508575436979026E7 ; 2.0080958662918723E8 ; 1.438858712216554E9 ; 1.4428581342936464E10 ; 0.0
81 ; 1.849754830531963E7 ; 2.0081495670862073E8 ; 1.457367287653533E9 ; 1.462939092956565E10 ; 0.0
82 ; 1.8496159826107368E7 ; 2.0082033644621566E8 ; 1.4758648359588525E9 ; 1.4830205886274271E10 ; 0.0
83 ; 1.8492707784637596E7 ; 2.008257251420847E8 ; 1.4943609957849598E9 ; 1.5031026222720488E10 ; 0.0
84 ; 1.848581449547405E7 ; 2.0083112211944148E8 ; 1.5128537035695975E9 ; 1.5231851947862572E10 ; 0.0
85 ; 1.848219981948934E7 ; 2.0083652672357997E8 ; 1.5313395180650716E9 ; 1.5432683069982014E10 ; 0.0
86 ; 1.847254813007124E7 ; 2.0084193832090172E8 ; 1.5498217178845608E9 ; 1.5633519596705593E10 ; 0.0
87 ; 1.846950437004334E7 ; 2.008473562979891E8 ; 1.568294266014632E9 ; 1.5834361535026495E10 ; 0.0
88 ; 1.846115968067634E7 ; 2.008527800607224E8 ; 1.5867637703846753E9 ; 1.6035208891324484E10 ; 0.0
89 ; 1.845521250375121E7 ; 2.0085820903343877E8 ; 1.6052249300653515E9 ; 1.6236061671385206E10 ; 0.0
90 ; 1.8448563027311433E7 ; 2.0086364265813112E8 ; 1.6236801425691028E9 ; 1.6436919880418646E10 ; 0.0
91 ; 1.8440226101435777E7 ; 2.0086908039368528E8 ; 1.642128705596414E9 ; 1.6637783523076777E10 ; 0.0
92 ; 1.8433188827723734E7 ; 2.00874521715153E8 ; 1.6605689316978498E9 ; 1.683865260347046E10 ; 0.0
93 ; 1.842550982845105E7 ; 2.0087996611306012E8 ; 1.6790021205255735E9 ; 1.7039527125185614E10 ; 0.0
94 ; 1.8418182583408676E7 ; 2.0088541309274697E8 ; 1.6974276303540246E9 ; 1.7240407091298676E10 ; 0.0
95 ; 1.8411254288254585E7 ; 2.0089086217374074E8 ; 1.7158458129374332E9 ; 1.7441292504391422E10 ; 0.0
96 ; 1.8404994157942154E7 ; 2.008963128891571E8 ; 1.7342570672256877E9 ; 1.7642183366565163E10 ; 0.0
97 ; 1.8401857200888913E7 ; 2.0090176478513053E8 ; 1.7526620613836298E9 ; 1.784307967945432E10 ; 0.0
98 ; 1.8388891015979864E7 ; 2.0090721742027143E8 ; 1.7710639185845187E9 ; 1.804398144423945E10 ; 0.0
99 ; 1.8383451025618233E7 ; 2.0091267036514887E8 ; 1.7894528096004984E9 ; 1.824488866165972E10 ; 0.0
100 ; 1.8374217796491496E7 ; 2.0091812320179784E8 ; 1.8078362606261168E9 ; 1.844580133202487E10 ; 0.0
101 ; 1.836522038832365E7 ; 2.0092357552324948E8 ; 1.8262104784226081E9 ; 1.864671945522667E10 ; 0.0
102 ; 1.835756871026013E7 ; 2.0092902693308342E8 ; 1.8445756988109317E9 ; 1.884764303074992E10 ; 0.0
103 ; 1.834957046350239E7 ; 2.0093447704500118E8 ; 1.8629332675211918E9 ; 1.9048572057683002E10 ; 0.0
104 ; 1.8341846800417773E7 ; 2.009399254824192E8 ; 1.8812828379846942E9 ; 1.9249506534728004E10 ; 0.0
105 ; 1.8331707744456947E7 ; 2.0094537187808096E8 ; 1.899624684785112E9 ; 1.9450446460210423E10 ; 0.0
106 ; 1.8321669682174202E7 ; 2.0095081587368715E8 ; 1.917956392529569E9 ; 1.9651391832088505E10 ; 0.0
107 ; 1.8307440292099606E7 ; 2.0095625711954263E8 ; 1.936278062211743E9 ; 1.9852342647962193E10 ; 0.0
108 ; 1.830373580621727E7 ; 2.0096169527422002E8 ; 1.9545855025038428E9 ; 2.0053298905081734E10 ; 0.0
109 ; 1.8294163128230203E7 ; 2.009671300042383E8 ; 1.97288923831006E9 ; 2.0254260600355953E10 ; 0.0
110 ; 1.828220305958781E7 ; 2.009725609837566E8 ; 1.99118340143829E9 ; 2.045522773036019E10 ; 0.0
111 ; 1.827336323474872E7 ; 2.0097798789428133E8 ; 2.0094656044978778E9 ; 2.065620029134395E10 ; 0.0
112 ; 1.825814012173901E7 ; 2.009834104243871E8 ; 2.0277389677326264E9 ; 2.0857178279238228E10 ; 0.0
113 ; 1.824965506915647E7 ; 2.0098882826945004E8 ; 2.0459971078543653E9 ; 2.1058161689662617E10 ; 0.0
114 ; 1.823781107382625E7 ; 2.0099424113139313E8 ; 2.0642467629235218E9 ; 2.1259150517932068E10 ; 0.0
115 ; 1.8230168337776188E7 ; 2.0099964871844292E8 ; 2.082484573997348E9 ; 2.146014475906346E10 ; 0.0
116 ; 1.8218411459836263E7 ; 2.010050507448971E8 ; 2.1007147423351243E9 ; 2.1661144407781906E10 ; 0.0
117 ; 1.820689629707259E7 ; 2.010104469309025E8 ; 2.1189331537949605E9 ; 2.1862149458526802E10 ; 0.0
118 ; 1.8196944129669446E7 ; 2.0101583700224292E8 ; 2.1371400500920331E9 ; 2.2063159905457706E10 ; 0.0
119 ; 1.8182095234815337E7 ; 2.0102122069013605E8 ; 2.1553369942217026E9 ; 2.226417574245995E10 ; 0.0
120 ; 1.8170964541514527E7 ; 2.0102659773103964E8 ; 2.1735190894565177E9 ; 2.2465196963150085E10 ; 0.0
121 ; 1.8157196230764795E7 ; 2.0103196786646605E8 ; 2.191690053998032E9 ; 2.2666223560881126E10 ; 0.0
122 ; 1.8146720750407886E7 ; 2.0103733084280455E8 ; 2.209847250228797E9 ; 2.2867255528747593E10 ; 0.0
123 ; 1.8133359369074762E7 ; 2.010426864111519E8 ; 2.2279939709792047E9 ; 2.3068292859590397E10 ; 0.0
124 ; 1.811956147483668E7 ; 2.0104803432714972E8 ; 2.2461273303482795E9 ; 2.326933554600155E10 ; 0.0
125 ; 1.8106545397559192E7 ; 2.0105337435082906E8 ; 2.2642468918231163E9 ; 2.3470383580328697E10 ; 0.0
126 ; 1.8098051586693607E7 ; 2.0105870624646172E8 ; 2.2823534372206755E9 ; 2.3671436954679527E10 ; 0.0
127 ; 1.808522536455075E7 ; 2.0106402978241754E8 ; 2.300451488807369E9 ; 2.3872495660925987E10 ; 0.0
128 ; 1.8072538165748928E7 ; 2.010693447310282E8 ; 2.31853671417192E9 ; 2.4073559690708405E10 ; 0.0
129 ; 1.805960404364048E7 ; 2.0107465086845645E8 ; 2.336609252337669E9 ; 2.4274629035439434E10 ; 0.0
130 ; 1.803589121669372E7 ; 2.010799479745708E8 ; 2.3546688563813095E9 ; 2.447570368630789E10 ; 0.0
131 ; 1.8021907348900247E7 ; 2.010852358328258E8 ; 2.3727047475980034E9 ; 2.4676783634282463E10 ; 0.0
132 ; 1.7999346004831303E7 ; 2.0109051423014683E8 ; 2.3907266549469037E9 ; 2.4877868870115288E10 ; 0.0
133 ; 1.7986415386345755E7 ; 2.0109578295682004E8 ; 2.408726000951735E9 ; 2.5078959384345436E10 ; 0.0
134 ; 1.7961423169119794E7 ; 2.0110104180638665E8 ; 2.426712416338081E9 ; 2.5280055167302258E10 ; 0.0
135 ; 1.7942587055827223E7 ; 2.0110629057554168E8 ; 2.4446738395072007E9 ; 2.5481156209108643E10 ; 0.0
136 ; 1.7925431733393256E7 ; 2.0111152906403664E8 ; 2.462616426563028E9 ; 2.5682262499684185E10 ; 0.0
137 ; 1.790225305898753E7 ; 2.0111675707458654E8 ; 2.480541858296421E9 ; 2.5883374028748222E10 ; 0.0
138 ; 1.7881878456397127E7 ; 2.0112197441278017E8 ; 2.4984441113554087E9 ; 2.6084490785822807E10 ; 0.0
139 ; 1.786330695533274E7 ; 2.0112718088699454E8 ; 2.5163259898118057E9 ; 2.6285612760235588E10 ; 0.0
140 ; 1.784134069974631E7 ; 2.011323763083123E8 ; 2.5341892967671385E9 ; 2.648673994112258E10 ; 0.0
141 ; 1.7817049302857626E7 ; 2.0113756049044275E8 ; 2.5520306374668846E9 ; 2.6687872317430893E10 ; 0.0
142 ; 1.7795834916759446E7 ; 2.0114273324964595E8 ; 2.569847686769742E9 ; 2.6889009877921337E10 ; 0.0
143 ; 1.7777704500386618E7 ; 2.0114789440465963E8 ; 2.5876435216865015E9 ; 2.7090152611170982E10 ; 0.0
144 ; 1.775973668350871E7 ; 2.0115304377662933E8 ; 2.605421226186888E9 ; 2.729130050557564E10 ; 0.0
145 ; 1.7746266442297082E7 ; 2.01158181189041E8 ; 2.623180962870397E9 ; 2.7492453549352272E10 ; 0.0
146 ; 1.7726175111287024E7 ; 2.011633064676564E8 ; 2.640927229312694E9 ; 2.7693611730541313E10 ; 0.0
147 ; 1.7711551436244432E7 ; 2.0116841944045097E8 ; 2.658653404423981E9 ; 2.789477503700897E10 ; 0.0
148 ; 1.77031861947155E7 ; 2.0117351993755406E8 ; 2.6763649558602257E9 ; 2.809594345644942E10 ; 0.0
149 ; 1.7686707176821128E7 ; 2.0117860779119158E8 ; 2.694068142054941E9 ; 2.8297116976386974E10 ; 0.0
150 ; 1.767088112568887E7 ; 2.0118368283563086E8 ; 2.7117548492317624E9 ; 2.8498295584178165E10 ; 0.0
151 ; 1.7654907171753477E7 ; 2.0118874490712738E8 ; 2.7294257303574514E9 ; 2.8699479267013798E10 ; 0.0
152 ; 1.7642279997063525E7 ; 2.0119379384387395E8 ; 2.747080637529205E9 ; 2.8900668011920925E10 ; 0.0
153 ; 1.7625822626903415E7 ; 2.0119882948595148E8 ; 2.7647229175262685E9 ; 2.9101861805764797E10 ; 0.0
154 ; 1.7610198828532048E7 ; 2.012038516752817E8 ; 2.782348740153172E9 ; 2.9303060635250748E10 ; 0.0
155 ; 1.7593249940732967E7 ; 2.012088602555819E8 ; 2.799958938981704E9 ; 2.950426448692603E10 ; 0.0
156 ; 1.7583127083767038E7 ; 2.0121385507232085E8 ; 2.817552188922437E9 ; 2.970547334718161E10 ; 0.0
157 ; 1.756559516075564E7 ; 2.012188359726771E8 ; 2.835135316006204E9 ; 2.990668720225393E10 ; 0.0
158 ; 1.754955227866984E7 ; 2.0122380280549815E8 ; 2.85270091116696E9 ; 3.0107906038226604E10 ; 0.0
159 ; 1.753515962315604E7 ; 2.0122875542126146E8 ; 2.8702504634456296E9 ; 3.0309129841032104E10 ; 0.0
160 ; 1.7515968935087215E7 ; 2.0123369367203704E8 ; 2.8877856230687857E9 ; 3.0510358596453365E10 ; 0.0
161 ; 1.7506094883648485E7 ; 2.0123861741145107E8 ; 2.905301592003873E9 ; 3.07115922901254E10 ; 0.0
162 ; 1.7491328263549756E7 ; 2.012435264946511E8 ; 2.9228076868875213E9 ; 3.091283090753685E10 ; 0.0
163 ; 1.747641649975673E7 ; 2.0124842077827263E8 ; 2.940299015151071E9 ; 3.11140744340315E10 ; 0.0
164 ; 1.745651957187261E7 ; 2.0125330012040642E8 ; 2.957775431650828E9 ; 3.1315322854809776E10 ; 0.0
165 ; 1.744097143094324E7 ; 2.0125816438056767E8 ; 2.9752319512227006E9 ; 3.1516576154930183E10 ; 0.0
166 ; 1.7426762183005083E7 ; 2.0126301341966575E8 ; 2.9926729226536436E9 ; 3.1717834319310753E10 ; 0.0
167 ; 1.741201080420882E7 ; 2.0126784709997538E8 ; 3.0100996848366485E9 ; 3.191909733273042E10 ; 0.0
168 ; 1.7396938269657847E7 ; 2.0127266528510863E8 ; 3.027511695640857E9 ; 3.2120365179830395E10 ; 0.0
169 ; 1.7374010658280905E7 ; 2.0127746783998802E8 ; 3.044908633910515E9 ; 3.2321637845115505E10 ; 0.0
170 ; 1.73652633184623E7 ; 2.012822546308207E8 ; 3.0622826445687957E9 ; 3.2522915312955494E10 ; 0.0
171 ; 1.7346427432852566E7 ; 2.0128702552507326E8 ; 3.079647907887258E9 ; 3.2724197567586315E10 ; 0.0
172 ; 1.7332594247081615E7 ; 2.0129178039144775E8 ; 3.096994335320111E9 ; 3.292548459311139E10 ; 0.0
173 ; 1.7317252401406106E7 ; 2.012965190998583E8 ; 3.1143269295671926E9 ; 3.312677637350284E10 ; 0.0
174 ; 1.730521500085465E7 ; 2.0130124152140883E8 ; 3.131644181968599E9 ; 3.3328072892602695E10 ; 0.0
175 ; 1.7292118766136836E7 ; 2.013059475283712E8 ; 3.1489493969694533E9 ; 3.3529374134124104E10 ; 0.0
176 ; 1.7283058090796996E7 ; 2.013106369941646E8 ; 3.16624151573559E9 ; 3.3730680081652473E10 ; 0.0
177 ; 1.7275040439912286E7 ; 2.0131530979333502E8 ; 3.183524573826387E9 ; 3.3931990718646637E10 ; 0.0
178 ; 1.7265757956861798E7 ; 2.013199658015362E8 ; 3.2007996142662992E9 ; 3.4133306028439972E10 ; 0.0
179 ; 1.7257048999262612E7 ; 2.0132460489551058E8 ; 3.218065372223161E9 ; 3.433462599424151E10 ; 0.0
180 ; 1.7247244170912698E7 ; 2.013292269530714E8 ; 3.235322421222424E9 ; 3.453595059913702E10 ; 0.0
181 ; 1.7234175012491643E7 ; 2.0133383185308495E8 ; 3.252569665393337E9 ; 3.473727982609009E10 ; 0.0
182 ; 1.7222204403399244E7 ; 2.0133841947545403E8 ; 3.2698038404058285E9 ; 3.493861365794318E10 ; 0.0
183 ; 1.7214442400772292E7 ; 2.013429897011014E8 ; 3.287026044809228E9 ; 3.513995207741863E10 ; 0.0
184 ; 1.7205426203497093E7 ; 2.013475424119541E8 ; 3.30424048721E9 ; 3.5341295067119736E10 ; 0.0
185 ; 1.7195186033319212E7 ; 2.013520774909284E8 ; 3.321445913413497E9 ; 3.554264260953169E10 ; 0.0
186 ; 1.718482136049439E7 ; 2.0135659482191503E8 ; 3.338641099446816E9 ; 3.574399468702262E10 ; 0.0
187 ; 1.7171333983385127E7 ; 2.013610942897649E8 ; 3.3558259208073106E9 ; 3.5945351281844536E10 ; 0.0
188 ; 1.716080192676691E7 ; 2.0136557578027576E8 ; 3.3729972547906957E9 ; 3.61467123761343E10 ; 0.0
189 ; 1.715315684222634E7 ; 2.0137003918017864E8 ; 3.3901580567174625E9 ; 3.634807795191457E10 ; 0.0
190 ; 1.714527171883487E7 ; 2.013744843771253E8 ; 3.407311213559689E9 ; 3.654944799109475E10 ; 0.0
191 ; 1.7132409085553844E7 ; 2.0137891125967583E8 ; 3.424456485278524E9 ; 3.675082247547188E10 ; 0.0
192 ; 1.7122124861761488E7 ; 2.013833197172868E8 ; 3.4415888943640776E9 ; 3.695220138673155E10 ; 0.0
193 ; 1.711470722217323E7 ; 2.013877096402997E8 ; 3.458711019225839E9 ; 3.715358470644884E10 ; 0.0
194 ; 1.7101714502363596E7 ; 2.0139208091992995E8 ; 3.4758257264480124E9 ; 3.7354972416089134E10 ; 0.0
195 ; 1.70932772240955E7 ; 2.0139643344825596E8 ; 3.492927440950376E9 ; 3.755636449700906E10 ; 0.0
