CSV File for the City 4 on Day 16
1 - Minute m 
2 - Power Consumed at minute m 
3 - Power Produced at minute m 
4 - Energy Consumed since the beginning of the day 
5 - Energy Produced since the beginning of the day 
6 - Energy Lost since the beginning of the day on lines starting from the city
 
0 ; 4718589.57203726 ; 5.145543509008816E7 ; 0.0 ; 0.0 ; 0.0
1 ; 4723986.601000631 ; 5.160975607774246E7 ; 4718589.57203726 ; 5.145543509008816E7 ; 613.6199999999999
2 ; 4727651.246919543 ; 5.207271904070541E7 ; 9442576.17303789 ; 1.0306519116783062E8 ; 1227.2399999999998
3 ; 4733833.038368387 ; 5.2844323978977025E7 ; 1.4170227419957433E7 ; 1.5513791020853603E8 ; 1840.8599999999997
4 ; 4740936.0963892555 ; 5.392457089255726E7 ; 1.890406045832582E7 ; 2.0798223418751305E8 ; 2454.4799999999996
5 ; 4748505.865938744 ; 5.531345978144616E7 ; 2.3644996554715075E7 ; 2.6190680508007032E8 ; 3068.0999999999995
6 ; 4760440.519339569 ; 5.701099064564368E7 ; 2.839350242065382E7 ; 3.172202648615165E8 ; 3681.7199999999993
7 ; 4774161.975090633 ; 5.901716348514986E7 ; 3.315394293999339E7 ; 3.742312555071602E8 ; 4295.339999999999
8 ; 4795223.93188872 ; 6.133197829996467E7 ; 3.792810491508402E7 ; 4.3324841899231005E8 ; 4908.959999999999
9 ; 4828860.59692622 ; 6.395543509008813E7 ; 4.272332884697274E7 ; 4.945803972922747E8 ; 5522.579999999999
10 ; 4880765.71374379 ; 6.688753385552025E7 ; 4.755218944389896E7 ; 5.585358323823628E8 ; 6136.199999999999
11 ; 4958572.440271554 ; 7.0128274596261E7 ; 5.243295515764275E7 ; 6.254233662378831E8 ; 6749.819999999999
12 ; 5088144.497741109 ; 7.367765731231037E7 ; 5.739152759791431E7 ; 6.955516408341441E8 ; 7363.439999999999
13 ; 5209872.157041246 ; 7.753568200366837E7 ; 6.247967209565542E7 ; 7.692292981464545E8 ; 7977.059999999999
14 ; 5224597.182391813 ; 8.170234867033505E7 ; 6.768954425269666E7 ; 8.467649801501229E8 ; 8590.679999999998
15 ; 5229753.895793963 ; 8.617765731231034E7 ; 7.291414143508847E7 ; 9.284673288204579E8 ; 9204.3
16 ; 5236257.452250601 ; 9.096160792959431E7 ; 7.814389533088243E7 ; 1.0146449861327683E9 ; 9817.919999999998
17 ; 5239936.4302164 ; 9.60542005221869E7 ; 8.338015278313303E7 ; 1.1056065940623627E9 ; 10431.539999999997
18 ; 5246692.340848862 ; 1.0145543509008813E8 ; 8.862008921334943E7 ; 1.2016607945845497E9 ; 11045.159999999996
19 ; 5250286.2576557575 ; 1.07165311633298E8 ; 9.38667815541983E7 ; 1.3031162296746378E9 ; 11658.779999999995
20 ; 5258460.229215818 ; 1.131838301518165E8 ; 9.911706781185405E7 ; 1.4102815413079357E9 ; 12272.399999999994
21 ; 5265784.650379964 ; 1.1951099064564365E8 ; 1.0437552804106987E8 ; 1.5234653714597523E9 ; 12886.019999999993
22 ; 5271272.281705731 ; 1.2614679311477943E8 ; 1.0964131269144984E8 ; 1.642976362105396E9 ; 13499.639999999992
23 ; 5277665.135057857 ; 1.330912375592239E8 ; 1.1491258497315557E8 ; 1.7691231552201755E9 ; 14113.259999999991
24 ; 5284133.288479339 ; 1.40344323978977E8 ; 1.2019025010821342E8 ; 1.9022143927793994E9 ; 14726.87999999999
25 ; 5289261.398945955 ; 1.465940932722222E8 ; 1.2547438339669277E8 ; 2.0425587167583764E9 ; 15340.499999999989
26 ; 5295185.712966024 ; 1.465940932722222E8 ; 1.3076364479563873E8 ; 2.1891528100305986E9 ; 15954.119999999988
27 ; 5298924.563668957 ; 1.465940932722222E8 ; 1.3605883050860474E8 ; 2.3357469033028207E9 ; 16567.739999999987
28 ; 5307228.82193978 ; 1.465940932722222E8 ; 1.413577550722737E8 ; 2.4823409965750427E9 ; 17181.359999999986
29 ; 5312736.613513027 ; 1.465940932722222E8 ; 1.4666498389421347E8 ; 2.628935089847265E9 ; 17794.979999999985
30 ; 5317655.945548399 ; 1.465940932722222E8 ; 1.519777205077265E8 ; 2.775529183119487E9 ; 18408.599999999984
31 ; 5322386.930660933 ; 1.465940932722222E8 ; 1.5729537645327488E8 ; 2.922123276391709E9 ; 19022.219999999983
32 ; 5328481.916680829 ; 1.465940932722222E8 ; 1.626177633839358E8 ; 3.068717369663931E9 ; 19635.839999999982
33 ; 5331618.062293114 ; 1.465940932722222E8 ; 1.6794624530061665E8 ; 3.215311462936153E9 ; 20249.45999999998
34 ; 5336980.762480379 ; 1.465940932722222E8 ; 1.7327786336290976E8 ; 3.361905556208375E9 ; 20863.07999999998
35 ; 5342841.756008612 ; 1.465940932722222E8 ; 1.7861484412539014E8 ; 3.508499649480597E9 ; 21476.69999999998
36 ; 5347347.267184001 ; 1.465940932722222E8 ; 1.8395768588139877E8 ; 3.655093742752819E9 ; 22090.319999999978
37 ; 5350384.529750421 ; 1.465940932722222E8 ; 1.8930503314858276E8 ; 3.801687836025041E9 ; 22703.939999999977
38 ; 5356512.8463109685 ; 1.465940932722222E8 ; 1.9465541767833316E8 ; 3.948281929297263E9 ; 23317.559999999976
39 ; 5361729.89949249 ; 1.465940932722222E8 ; 2.0001193052464414E8 ; 4.094876022569485E9 ; 23931.179999999975
40 ; 5364886.883479187 ; 1.465940932722222E8 ; 2.0537366042413664E8 ; 4.241470115841707E9 ; 24544.799999999974
41 ; 5368336.3067624895 ; 1.465940932722222E8 ; 2.1073854730761582E8 ; 4.38806420911393E9 ; 25158.419999999973
42 ; 5370178.966008762 ; 1.465940932722222E8 ; 2.161068836143783E8 ; 4.534658302386152E9 ; 25772.03999999997
43 ; 5373563.412786628 ; 1.465940932722222E8 ; 2.2147706258038706E8 ; 4.681252395658375E9 ; 26385.65999999997
44 ; 5374751.578613642 ; 1.465940932722222E8 ; 2.268506259931737E8 ; 4.827846488930597E9 ; 26999.27999999997
45 ; 5379175.838547771 ; 1.465940932722222E8 ; 2.3222537757178733E8 ; 4.97444058220282E9 ; 27612.89999999997
46 ; 5379953.086727494 ; 1.465940932722222E8 ; 2.376045534103351E8 ; 5.121034675475042E9 ; 28226.519999999968
47 ; 5384133.2444251515 ; 1.465940932722222E8 ; 2.429845064970626E8 ; 5.267628768747265E9 ; 28840.139999999967
48 ; 5386532.176337298 ; 1.465940932722222E8 ; 2.4836863974148774E8 ; 5.414222862019487E9 ; 29453.759999999966
49 ; 5390901.734384339 ; 1.465940932722222E8 ; 2.5375517191782504E8 ; 5.56081695529171E9 ; 30067.379999999965
50 ; 5390320.41040416 ; 1.465940932722222E8 ; 2.5914607365220937E8 ; 5.707411048563932E9 ; 30680.999999999964
51 ; 5393965.434451357 ; 1.465940932722222E8 ; 2.6453639406261352E8 ; 5.854005141836155E9 ; 31294.619999999963
52 ; 5391073.012811796 ; 1.465940932722222E8 ; 2.699303594970649E8 ; 6.000599235108377E9 ; 31908.23999999996
53 ; 5395641.999414277 ; 1.465940932722222E8 ; 2.7532143250987667E8 ; 6.1471933283806E9 ; 32521.85999999996
54 ; 5395825.989808249 ; 1.465940932722222E8 ; 2.8071707450929093E8 ; 6.2937874216528225E9 ; 33135.47999999996
55 ; 5397215.568834932 ; 1.465940932722222E8 ; 2.861129004990992E8 ; 6.440381514925045E9 ; 33749.09999999996
56 ; 5400301.583983863 ; 1.465940932722222E8 ; 2.9151011606793416E8 ; 6.586975608197268E9 ; 34362.719999999965
57 ; 5400499.824697598 ; 1.465940932722222E8 ; 2.96910417651918E8 ; 6.73356970146949E9 ; 34976.33999999997
58 ; 5398903.250008863 ; 1.465940932722222E8 ; 3.023109174766156E8 ; 6.880163794741713E9 ; 35589.95999999997
59 ; 5403383.922000694 ; 1.465940932722222E8 ; 3.077098207266245E8 ; 7.026757888013935E9 ; 36203.57999999997
60 ; 5406017.660431912 ; 1.465940932722222E8 ; 3.131132046486252E8 ; 7.173351981286158E9 ; 36817.199999999975
61 ; 5402537.37220208 ; 1.465940932722222E8 ; 3.185192223090571E8 ; 7.31994607455838E9 ; 37430.81999999998
62 ; 5404894.397151945 ; 1.465940932722222E8 ; 3.239217596812592E8 ; 7.466540167830603E9 ; 38044.43999999998
63 ; 5406081.030338772 ; 1.465940932722222E8 ; 3.2932665407841116E8 ; 7.613134261102825E9 ; 38658.05999999998
64 ; 5405721.6611818625 ; 1.465940932722222E8 ; 3.347327351087499E8 ; 7.759728354375048E9 ; 39271.679999999986
65 ; 5405842.116104806 ; 1.465940932722222E8 ; 3.401384567699318E8 ; 7.90632244764727E9 ; 39885.29999999999
66 ; 5409490.539116849 ; 1.465940932722222E8 ; 3.455442988860366E8 ; 8.052916540919493E9 ; 40498.91999999999
67 ; 5408786.858527778 ; 1.465940932722222E8 ; 3.5095378942515343E8 ; 8.199510634191715E9 ; 41112.53999999999
68 ; 5408873.919151969 ; 1.465940932722222E8 ; 3.563625762836812E8 ; 8.346104727463938E9 ; 41726.159999999996
69 ; 5410338.424758571 ; 1.465940932722222E8 ; 3.617714502028332E8 ; 8.49269882073616E9 ; 42339.78
70 ; 5411643.108177884 ; 1.465940932722222E8 ; 3.671817886275917E8 ; 8.639292914008383E9 ; 42953.4
71 ; 5409754.277285412 ; 1.465940932722222E8 ; 3.725934317357696E8 ; 8.785887007280605E9 ; 43567.020000000004
72 ; 5408954.25360053 ; 1.465940932722222E8 ; 3.78003186013055E8 ; 8.932481100552828E9 ; 44180.64000000001
73 ; 5409899.194205028 ; 1.465940932722222E8 ; 3.8341214026665556E8 ; 9.07907519382505E9 ; 44794.26000000001
74 ; 5412964.973846432 ; 1.465940932722222E8 ; 3.888220394608606E8 ; 9.225669287097273E9 ; 45407.88000000001
75 ; 5410195.8032000745 ; 1.465940932722222E8 ; 3.9423500443470705E8 ; 9.372263380369495E9 ; 46021.500000000015
76 ; 5410328.599753851 ; 1.465940932722222E8 ; 3.996452002379071E8 ; 9.518857473641718E9 ; 46635.12000000002
77 ; 5412544.959264905 ; 1.465940932722222E8 ; 4.0505552883766097E8 ; 9.66545156691394E9 ; 47248.74000000002
78 ; 5409424.778105824 ; 1.465940932722222E8 ; 4.104680737969259E8 ; 9.812045660186163E9 ; 47862.36000000002
79 ; 5408457.2429519 ; 1.465940932722222E8 ; 4.158774985750317E8 ; 9.958639753458385E9 ; 48475.980000000025
80 ; 5406887.665061459 ; 1.465940932722222E8 ; 4.212859558179836E8 ; 1.0105233846730608E10 ; 49089.60000000003
81 ; 5407038.803482311 ; 1.465940932722222E8 ; 4.266928434830451E8 ; 1.025182794000283E10 ; 49703.22000000003
82 ; 5404293.312414468 ; 1.465940932722222E8 ; 4.320998822865274E8 ; 1.0398422033275053E10 ; 50316.84000000003
83 ; 5403418.448997337 ; 1.465940932722222E8 ; 4.3750417559894186E8 ; 1.0545016126547276E10 ; 50930.460000000036
84 ; 5401345.764884291 ; 1.465940932722222E8 ; 4.429075940479392E8 ; 1.0691610219819498E10 ; 51544.08000000004
85 ; 5400249.171170695 ; 1.465940932722222E8 ; 4.483089398128235E8 ; 1.083820431309172E10 ; 52157.70000000004
86 ; 5397309.069340544 ; 1.465940932722222E8 ; 4.537091889839942E8 ; 1.0984798406363943E10 ; 52771.32000000004
87 ; 5396829.827844056 ; 1.465940932722222E8 ; 4.591064980533347E8 ; 1.1131392499636166E10 ; 53384.940000000046
88 ; 5393072.262669247 ; 1.465940932722222E8 ; 4.645033278811788E8 ; 1.1277986592908388E10 ; 53998.56000000005
89 ; 5390811.886750055 ; 1.465940932722222E8 ; 4.6989640014384806E8 ; 1.142458068618061E10 ; 54612.18000000005
90 ; 5391107.3743444765 ; 1.465940932722222E8 ; 4.752872120305981E8 ; 1.1571174779452833E10 ; 55225.800000000054
91 ; 5387878.850116709 ; 1.465940932722222E8 ; 4.806783194049426E8 ; 1.1717768872725056E10 ; 55839.42000000006
92 ; 5387415.174172446 ; 1.465940932722222E8 ; 4.860661982550593E8 ; 1.1864362965997278E10 ; 56453.04000000006
93 ; 5383389.262836376 ; 1.465940932722222E8 ; 4.9145361342923176E8 ; 1.20109570592695E10 ; 57066.66000000006
94 ; 5382763.616228571 ; 1.465940932722222E8 ; 4.9683700269206816E8 ; 1.2157551152541723E10 ; 57680.280000000064
95 ; 5379452.7011131765 ; 1.465940932722222E8 ; 5.0221976630829674E8 ; 1.2304145245813946E10 ; 58293.90000000007
96 ; 5375930.494828398 ; 1.465940932722222E8 ; 5.075992190094099E8 ; 1.2450739339086168E10 ; 58907.52000000007
97 ; 5373912.084278123 ; 1.465940932722222E8 ; 5.129751495042383E8 ; 1.259733343235839E10 ; 59521.14000000007
98 ; 5371473.88900612 ; 1.465940932722222E8 ; 5.183490615885164E8 ; 1.2743927525630613E10 ; 60134.760000000075
99 ; 5368676.507131575 ; 1.465940932722222E8 ; 5.2372053547752255E8 ; 1.2890521618902836E10 ; 60748.38000000008
100 ; 5366218.255562171 ; 1.465940932722222E8 ; 5.290892119846541E8 ; 1.3037115712175058E10 ; 61362.00000000008
101 ; 5364657.820476471 ; 1.465940932722222E8 ; 5.344554302402163E8 ; 1.318370980544728E10 ; 61975.62000000008
102 ; 5361275.968201434 ; 1.465940932722222E8 ; 5.398200880606928E8 ; 1.3330303898719503E10 ; 62589.240000000085
103 ; 5358463.275269345 ; 1.465940932722222E8 ; 5.451813640288942E8 ; 1.3476897991991726E10 ; 63202.86000000009
104 ; 5356748.906010812 ; 1.465940932722222E8 ; 5.505398273041636E8 ; 1.3623492085263948E10 ; 63816.48000000009
105 ; 5352819.5015929 ; 1.465940932722222E8 ; 5.558965762101744E8 ; 1.3770086178536171E10 ; 64430.10000000009
106 ; 5349546.540605283 ; 1.465940932722222E8 ; 5.612493957117673E8 ; 1.3916680271808393E10 ; 65043.720000000096
107 ; 5346789.857704876 ; 1.465940932722222E8 ; 5.665989422523726E8 ; 1.4063274365080616E10 ; 65657.3400000001
108 ; 5344450.874049835 ; 1.465940932722222E8 ; 5.719457321100775E8 ; 1.4209868458352839E10 ; 66270.9600000001
109 ; 5340706.8748566955 ; 1.465940932722222E8 ; 5.772901829841273E8 ; 1.4356462551625061E10 ; 66884.58000000009
110 ; 5339253.770624686 ; 1.465940932722222E8 ; 5.82630889858984E8 ; 1.4503056644897284E10 ; 67498.20000000008
111 ; 5335488.630285857 ; 1.465940932722222E8 ; 5.879701436296086E8 ; 1.4649650738169506E10 ; 68111.82000000008
112 ; 5332175.722012737 ; 1.465940932722222E8 ; 5.933056322598945E8 ; 1.4796244831441729E10 ; 68725.44000000008
113 ; 5328755.341341276 ; 1.465940932722222E8 ; 5.986378079819072E8 ; 1.4942838924713951E10 ; 69339.06000000007
114 ; 5324997.643270449 ; 1.465940932722222E8 ; 6.039665633232485E8 ; 1.5089433017986174E10 ; 69952.68000000007
115 ; 5322592.025289953 ; 1.465940932722222E8 ; 6.09291560966519E8 ; 1.5236027111258396E10 ; 70566.30000000006
116 ; 5320185.940497441 ; 1.465940932722222E8 ; 6.146141529918089E8 ; 1.5382621204530619E10 ; 71179.92000000006
117 ; 5317882.8808341175 ; 1.465940932722222E8 ; 6.199343389323063E8 ; 1.5529215297802841E10 ; 71793.54000000005
118 ; 5314282.266361034 ; 1.465940932722222E8 ; 6.252522218131404E8 ; 1.5675809391075064E10 ; 72407.16000000005
119 ; 5307653.021520758 ; 1.465940932722222E8 ; 6.305665040795014E8 ; 1.5822403484347286E10 ; 73020.78000000004
120 ; 5303111.3964997735 ; 1.465940932722222E8 ; 6.358741571010221E8 ; 1.5968997577619509E10 ; 73634.40000000004
121 ; 5301372.232182143 ; 1.465940932722222E8 ; 6.411772684975219E8 ; 1.6115591670891731E10 ; 74248.02000000003
122 ; 5298092.03510479 ; 1.465940932722222E8 ; 6.46478640729704E8 ; 1.6262185764163954E10 ; 74861.64000000003
123 ; 5294318.142150777 ; 1.465940932722222E8 ; 6.517767327648088E8 ; 1.6408779857436176E10 ; 75475.26000000002
124 ; 5290094.960333328 ; 1.465940932722222E8 ; 6.570710509069595E8 ; 1.6555373950708399E10 ; 76088.88000000002
125 ; 5286063.998011404 ; 1.465940932722222E8 ; 6.623611458672929E8 ; 1.6701968043980621E10 ; 76702.50000000001
126 ; 5282575.841666007 ; 1.465940932722222E8 ; 6.676472098653042E8 ; 1.6848562137252844E10 ; 77316.12000000001
127 ; 5278110.545108843 ; 1.465940932722222E8 ; 6.729297857069702E8 ; 1.6995156230525066E10 ; 77929.74
128 ; 5275829.4751152275 ; 1.465940932722222E8 ; 6.78207896252079E8 ; 1.7141750323797289E10 ; 78543.36
129 ; 5271008.134524399 ; 1.465940932722222E8 ; 6.834837257271942E8 ; 1.728834441706951E10 ; 79156.98
130 ; 5266004.974527794 ; 1.465940932722222E8 ; 6.887547338617185E8 ; 1.7434938510341732E10 ; 79770.59999999999
131 ; 5261667.066409651 ; 1.465940932722222E8 ; 6.940207388362464E8 ; 1.7581532603613953E10 ; 80384.21999999999
132 ; 5255063.455253367 ; 1.465940932722222E8 ; 6.992824059026561E8 ; 1.7728126696886173E10 ; 80997.83999999998
133 ; 5247571.327971655 ; 1.465940932722222E8 ; 7.045374693579094E8 ; 1.7874720790158394E10 ; 81611.45999999998
134 ; 5241665.149776775 ; 1.465940932722222E8 ; 7.097850406858811E8 ; 1.8021314883430614E10 ; 82225.07999999997
135 ; 5238108.612272897 ; 1.465940932722222E8 ; 7.15026705835658E8 ; 1.8167908976702835E10 ; 82838.69999999997
136 ; 5231279.796824175 ; 1.465940932722222E8 ; 7.202648144479308E8 ; 1.8314503069975056E10 ; 83452.31999999996
137 ; 5224312.070852764 ; 1.465940932722222E8 ; 7.25496094244755E8 ; 1.8461097163247276E10 ; 84065.93999999996
138 ; 5217852.11513899 ; 1.465940932722222E8 ; 7.307204063156078E8 ; 1.8607691256519497E10 ; 84679.55999999995
139 ; 5211505.310748143 ; 1.465940932722222E8 ; 7.359382584307468E8 ; 1.8754285349791718E10 ; 85293.17999999995
140 ; 5208012.114367116 ; 1.465940932722222E8 ; 7.411497637414949E8 ; 1.890087944306394E10 ; 85906.79999999994
141 ; 5201041.484808941 ; 1.465940932722222E8 ; 7.46357775855862E8 ; 1.904747353633616E10 ; 86520.41999999994
142 ; 5194525.04455041 ; 1.465940932722222E8 ; 7.51558817340671E8 ; 1.919406762960838E10 ; 87134.03999999994
143 ; 5188928.766998573 ; 1.465940932722222E8 ; 7.567533423852214E8 ; 1.93406617228806E10 ; 87747.65999999993
144 ; 5183344.239350997 ; 1.465940932722222E8 ; 7.619422711522199E8 ; 1.948725581615282E10 ; 88361.27999999993
145 ; 5177419.694676543 ; 1.465940932722222E8 ; 7.671256153915709E8 ; 1.963384990942504E10 ; 88974.89999999992
146 ; 5172797.124269957 ; 1.465940932722222E8 ; 7.723030350862474E8 ; 1.978044400269726E10 ; 89588.51999999992
147 ; 5170896.731602925 ; 1.465940932722222E8 ; 7.774758322105174E8 ; 1.9927038095969482E10 ; 90202.13999999991
148 ; 5165876.992708508 ; 1.465940932722222E8 ; 7.826467289421203E8 ; 2.0073632189241703E10 ; 90815.75999999991
149 ; 5161424.825041678 ; 1.465940932722222E8 ; 7.878126059348289E8 ; 2.0220226282513924E10 ; 91429.3799999999
150 ; 5156383.014455856 ; 1.465940932722222E8 ; 7.929740307598705E8 ; 2.0366820375786144E10 ; 92042.9999999999
151 ; 5152783.527046321 ; 1.465940932722222E8 ; 7.981304137743264E8 ; 2.0513414469058365E10 ; 92656.6199999999
152 ; 5148666.946787907 ; 1.465940932722222E8 ; 8.032831973013728E8 ; 2.0660008562330585E10 ; 93270.23999999989
153 ; 5143632.146395242 ; 1.465940932722222E8 ; 8.084318642481607E8 ; 2.0806602655602806E10 ; 93883.85999999988
154 ; 5140280.529743082 ; 1.465940932722222E8 ; 8.135754963945559E8 ; 2.0953196748875027E10 ; 94497.47999999988
155 ; 5133129.311496245 ; 1.465940932722222E8 ; 8.18715776924299E8 ; 2.1099790842147247E10 ; 95111.09999999987
156 ; 5129803.605103246 ; 1.465940932722222E8 ; 8.238489062357953E8 ; 2.1246384935419468E10 ; 95724.71999999987
157 ; 5126577.368585901 ; 1.465940932722222E8 ; 8.289787098408985E8 ; 2.139297902869169E10 ; 96338.33999999987
158 ; 5121286.585013306 ; 1.465940932722222E8 ; 8.341052872094845E8 ; 2.153957312196391E10 ; 96951.95999999986
159 ; 5117173.770471022 ; 1.465940932722222E8 ; 8.392265737944977E8 ; 2.168616721523613E10 ; 97565.57999999986
160 ; 5111894.579049498 ; 1.465940932722222E8 ; 8.443437475649687E8 ; 2.183276130850835E10 ; 98179.19999999985
161 ; 5106579.572163014 ; 1.465940932722222E8 ; 8.494556421440182E8 ; 2.197935540178057E10 ; 98792.81999999985
162 ; 5101548.622920108 ; 1.465940932722222E8 ; 8.545622217161812E8 ; 2.212594949505279E10 ; 99406.43999999984
163 ; 5100090.702124352 ; 1.465940932722222E8 ; 8.596637703391013E8 ; 2.2272543588325012E10 ; 100020.05999999984
164 ; 5093228.399442523 ; 1.465940932722222E8 ; 8.647638610412257E8 ; 2.2419137681597233E10 ; 100633.67999999983
165 ; 5088318.781639326 ; 1.465940932722222E8 ; 8.698570894406682E8 ; 2.2565731774869453E10 ; 101247.29999999983
166 ; 5084871.490113105 ; 1.465940932722222E8 ; 8.749454082223076E8 ; 2.2712325868141674E10 ; 101860.91999999982
167 ; 5076520.72453424 ; 1.465940932722222E8 ; 8.800302797124207E8 ; 2.2858919961413895E10 ; 102474.53999999982
168 ; 5074438.751331926 ; 1.465940932722222E8 ; 8.85106800436955E8 ; 2.3005514054686115E10 ; 103088.15999999981
169 ; 5067421.368578659 ; 1.465940932722222E8 ; 8.901812391882869E8 ; 2.3152108147958336E10 ; 103701.77999999981
170 ; 5064886.853352055 ; 1.465940932722222E8 ; 8.952486605568656E8 ; 2.3298702241230556E10 ; 104315.3999999998
171 ; 5060104.767571962 ; 1.465940932722222E8 ; 9.003135474102176E8 ; 2.3445296334502777E10 ; 104929.0199999998
172 ; 5052705.145122706 ; 1.465940932722222E8 ; 9.053736521777896E8 ; 2.3591890427774998E10 ; 105542.6399999998
173 ; 5049234.408926159 ; 1.465940932722222E8 ; 9.104263573229122E8 ; 2.373848452104722E10 ; 106156.25999999979
174 ; 5045908.891970899 ; 1.465940932722222E8 ; 9.154755917318383E8 ; 2.388507861431944E10 ; 106769.87999999979
175 ; 5043854.634699425 ; 1.465940932722222E8 ; 9.205215006238092E8 ; 2.403167270759166E10 ; 107383.49999999978
176 ; 5042128.627045314 ; 1.465940932722222E8 ; 9.255653552585087E8 ; 2.417826680086388E10 ; 107997.11999999978
177 ; 5037077.754373045 ; 1.465940932722222E8 ; 9.30607483885554E8 ; 2.43248608941361E10 ; 108610.73999999977
