CSV File for the City 4 on Day 54
1 - Minute m 
2 - Power Consumed at minute m 
3 - Power Produced at minute m 
4 - Energy Consumed since the beginning of the day 
5 - Energy Produced since the beginning of the day 
6 - Energy Lost since the beginning of the day on lines starting from the city
 
0 ; 6801780.9974540835 ; 1.0585728000744942E8 ; 0.0 ; 0.0 ; 0.0
1 ; 6803583.421039526 ; 1.0600733766864413E8 ; 6801780.9974540835 ; 1.0585728000744942E8 ; 0.0
2 ; 6811977.62749064 ; 1.0646646279837939E8 ; 1.360536441849361E7 ; 2.1186461767609355E8 ; 0.0
3 ; 6821759.998239796 ; 1.07234662848871E8 ; 2.041734204598425E7 ; 3.1833108047447294E8 ; 0.0
4 ; 6832748.292342926 ; 1.0831194457074171E8 ; 2.7239102044224046E7 ; 4.2556574332334393E8 ; 0.0
5 ; 6843578.458271894 ; 1.0969831395206147E8 ; 3.407185033656697E7 ; 5.3387768789408565E8 ; 0.0
6 ; 6858610.096535379 ; 1.113937761624982E8 ; 4.091542879483886E7 ; 6.435760018461471E8 ; 0.0
7 ; 6881679.788767048 ; 1.1339833550374836E8 ; 4.777403889137424E7 ; 7.549697780086453E8 ; 0.0
8 ; 6914587.658511315 ; 1.1571199536732686E8 ; 5.4655718680141285E7 ; 8.683681135123937E8 ; 0.0
9 ; 6965708.644168106 ; 1.1833475820066881E8 ; 6.1570306338652596E7 ; 9.840801088797206E8 ; 0.0
10 ; 7042966.223901805 ; 1.2126662548232561E8 ; 6.85360149828207E7 ; 1.1024148670803895E9 ; 0.0
11 ; 7165844.319704516 ; 1.2450759770684168E8 ; 7.557898120672251E7 ; 1.223681492562715E9 ; 0.0
12 ; 7363529.565002471 ; 1.2805767437967256E8 ; 8.274482552642703E7 ; 1.3481890902695568E9 ; 0.0
13 ; 7554643.142495402 ; 1.3191685402226686E8 ; 9.01083550914295E7 ; 1.4762467646492293E9 ; 0.0
14 ; 7577709.057820689 ; 1.3608513418718958E8 ; 9.766299823392491E7 ; 1.6081636186714962E9 ; 0.0
15 ; 7584725.3330915915 ; 1.4056251148292565E8 ; 1.052407072917456E8 ; 1.7442487528586857E9 ; 0.0
16 ; 7592582.690314795 ; 1.4534898160777876E8 ; 1.1282543262483719E8 ; 1.8848112643416114E9 ; 0.0
17 ; 7604332.899456878 ; 1.5044453939208087E8 ; 1.2041801531515199E8 ; 2.0301602459493902E9 ; 0.0
18 ; 7610270.45931662 ; 1.558491788477621E8 ; 1.2802234821460886E8 ; 2.180604785341471E9 ; 0.0
19 ; 7617878.858900356 ; 1.6156289322419968E8 ; 1.356326186739255E8 ; 2.3364539641892333E9 ; 0.0
20 ; 7627562.898424033 ; 1.6758567506917778E8 ; 1.4325049753282586E8 ; 2.498016857413433E9 ; 0.0
21 ; 7637120.513817032 ; 1.739175162937422E8 ; 1.508780604312499E8 ; 2.6656025324826107E9 ; 0.0
22 ; 7645233.271236311 ; 1.8055840823972905E8 ; 1.5851518094506693E8 ; 2.839520048776353E9 ; 0.0
23 ; 7654082.665524126 ; 1.8750834174877566E8 ; 1.6616041421630323E8 ; 3.020078457016082E9 ; 0.0
24 ; 7663856.981387063 ; 1.9476730723168808E8 ; 1.7381449688182735E8 ; 3.2075867987648573E9 ; 0.0
25 ; 7671962.41920848 ; 2.0102333563531145E8 ; 1.814783538632144E8 ; 3.4023541059965453E9 ; 0.0
26 ; 7681360.516103042 ; 2.0102996454650646E8 ; 1.8915031628242287E8 ; 3.603377441631857E9 ; 0.0
27 ; 7691632.5245082 ; 2.0103695278172642E8 ; 1.968316767985259E8 ; 3.8044074061783633E9 ; 0.0
28 ; 7698722.264375723 ; 2.010442896953871E8 ; 2.045233093230341E8 ; 4.0054443589600897E9 ; 0.0
29 ; 7705814.299971352 ; 2.0105196453109878E8 ; 2.1222203158740982E8 ; 4.2064886486554766E9 ; 0.0
30 ; 7714019.238566562 ; 2.0105996647563857E8 ; 2.1992784588738117E8 ; 4.407540613186575E9 ; 0.0
31 ; 7721725.04866302 ; 2.0106828470862827E8 ; 2.276418651259477E8 ; 4.608600579662213E9 ; 0.0
32 ; 7730854.796035001 ; 2.0107690844775203E8 ; 2.3536359017461073E8 ; 4.809668864370842E9 ; 0.0
33 ; 7739053.23512833 ; 2.0108582698944962E8 ; 2.4309444497064573E8 ; 5.010745772818594E9 ; 0.0
34 ; 7745445.359548581 ; 2.0109502974510896E8 ; 2.5083349820577407E8 ; 5.2118315998080435E9 ; 0.0
35 ; 7755012.367775724 ; 2.011045062728565E8 ; 2.5857894356532264E8 ; 5.412926629553152E9 ; 0.0
36 ; 7757510.454466002 ; 2.011142463051042E8 ; 2.6633395593309838E8 ; 5.614031135826009E9 ; 0.0
37 ; 7765531.334572656 ; 2.0112423977205887E8 ; 2.7409146638756436E8 ; 5.815145382131113E9 ; 0.0
38 ; 7771359.419129648 ; 2.0113447682143578E8 ; 2.8185699772213703E8 ; 6.016269621903172E9 ; 0.0
39 ; 7778151.224696282 ; 2.0114494783464137E8 ; 2.896283571412667E8 ; 6.217404098724607E9 ; 0.0
40 ; 7783727.02633504 ; 2.0115564343970564E8 ; 2.97406508365963E8 ; 6.418549046559249E9 ; 0.0
41 ; 7789389.481261222 ; 2.01166554521251E8 ; 3.0519023539229804E8 ; 6.619704689998955E9 ; 0.0
42 ; 7794200.147669793 ; 2.011776722277834E8 ; 3.1297962487355924E8 ; 6.8208712445202055E9 ; 0.0
43 ; 7799575.372092611 ; 2.0118898797658673E8 ; 3.20773825021229E8 ; 7.022048916747989E9 ; 0.0
44 ; 7806745.420047369 ; 2.012004934564907E8 ; 3.2857340039332163E8 ; 7.223237904724575E9 ; 0.0
45 ; 7808075.892170939 ; 2.012121806287697E8 ; 3.36380145813369E8 ; 7.424438398181066E9 ; 0.0
46 ; 7810365.191958731 ; 2.012240417264137E8 ; 3.4418822170553994E8 ; 7.625650578809835E9 ; 0.0
47 ; 7813380.283133141 ; 2.012360692519967E8 ; 3.5199858689749867E8 ; 7.826874620536249E9 ; 0.0
48 ; 7819948.094729021 ; 2.012482559743486E8 ; 3.598119671806318E8 ; 8.028110689788246E9 ; 0.0
49 ; 7824704.198563769 ; 2.0126059492422023E8 ; 3.676319152753608E8 ; 8.229358945762595E9 ; 0.0
50 ; 7823192.35531416 ; 2.0127307938911211E8 ; 3.754566194739246E8 ; 8.430619540686815E9 ; 0.0
51 ; 7825746.160476057 ; 2.0128570290742034E8 ; 3.832798118292387E8 ; 8.631892620075928E9 ; 0.0
52 ; 7830234.850446258 ; 2.012984592620374E8 ; 3.9110555798971474E8 ; 8.833178322983349E9 ; 0.0
53 ; 7829660.000102522 ; 2.013113424735286E8 ; 3.98935792840161E8 ; 9.034476782245386E9 ; 0.0
54 ; 7831695.613260039 ; 2.0132434679299122E8 ; 4.0676545284026355E8 ; 9.235788124718914E9 ; 0.0
55 ; 7831711.42511616 ; 2.0133746669469005E8 ; 4.145971484535236E8 ; 9.437112471511906E9 ; 0.0
56 ; 7835788.461327723 ; 2.013506968685494E8 ; 4.2242885987863976E8 ; 9.638449938206596E9 ; 0.0
57 ; 7839867.0883817505 ; 2.0136403221257228E8 ; 4.302646483399675E8 ; 9.839800635075146E9 ; 0.0
58 ; 7840381.893609952 ; 2.0137746782524535E8 ; 4.3810451542834926E8 ; 1.0041164667287718E10 ; 0.0
59 ; 7840263.303566741 ; 2.0139099899798077E8 ; 4.459448973219592E8 ; 1.0242542135112963E10 ; 0.0
60 ; 7841966.705837272 ; 2.0140462120763656E8 ; 4.5378516062552595E8 ; 1.0443933134110943E10 ; 0.0
61 ; 7842026.202675957 ; 2.0141833010915115E8 ; 4.616271273313632E8 ; 1.0645337755318579E10 ; 0.0
62 ; 7845779.6059600385 ; 2.0143212152832007E8 ; 4.6946915353403914E8 ; 1.084675608542773E10 ; 0.0
63 ; 7845381.31974737 ; 2.0144599145473865E8 ; 4.7731493313999915E8 ; 1.104818820695605E10 ; 0.0
64 ; 7847001.006016236 ; 2.014599360349282E8 ; 4.8516031445974654E8 ; 1.124963419841079E10 ; 0.0
65 ; 7849204.243471988 ; 2.014739515656604E8 ; 4.930073154657628E8 ; 1.1451094134445717E10 ; 0.0
66 ; 7848975.957509522 ; 2.0148803448748934E8 ; 5.008565197092348E8 ; 1.1652568086011377E10 ; 0.0
67 ; 7849861.88283861 ; 2.0150218137849945E8 ; 5.087054956667443E8 ; 1.1854056120498867E10 ; 0.0
68 ; 7851332.276265546 ; 2.015163889482729E8 ; 5.165553575495829E8 ; 1.2055558301877367E10 ; 0.0
69 ; 7851568.130293858 ; 2.015306540320793E8 ; 5.2440668982584846E8 ; 1.225707469082564E10 ; 0.0
70 ; 7851758.490696723 ; 2.0154497358528793E8 ; 5.322582579561423E8 ; 1.245860534485772E10 ; 0.0
71 ; 7856551.066241257 ; 2.0155934467800102E8 ; 5.40110016446839E8 ; 1.2660150318443007E10 ; 0.0
72 ; 7852696.979871834 ; 2.0157376448990607E8 ; 5.479665675130802E8 ; 1.2861709663121008E10 ; 0.0
73 ; 7851522.077440209 ; 2.0158823030534297E8 ; 5.558192644929521E8 ; 1.3063283427610914E10 ; 0.0
74 ; 7854207.405023129 ; 2.0160273950858173E8 ; 5.636707865703924E8 ; 1.3264871657916258E10 ; 0.0
75 ; 7854266.072434607 ; 2.0161728957930568E8 ; 5.715249939754155E8 ; 1.3466474397424839E10 ; 0.0
76 ; 7856828.175315943 ; 2.016318780882944E8 ; 5.793792600478501E8 ; 1.3668091687004145E10 ; 0.0
77 ; 7854412.319794665 ; 2.0164650269330004E8 ; 5.872360882231661E8 ; 1.386972356509244E10 ; 0.0
78 ; 7852348.62503754 ; 2.016611611351111E8 ; 5.950905005429608E8 ; 1.407137006778574E10 ; 0.0
79 ; 7849056.483517109 ; 2.0167585123379654E8 ; 6.029428491679983E8 ; 1.427303122892085E10 ; 0.0
80 ; 7850166.146776841 ; 2.0169057088512397E8 ; 6.107919056515154E8 ; 1.4474707080154648E10 ; 0.0
81 ; 7847361.154369231 ; 2.0170531805714503E8 ; 6.186420717982922E8 ; 1.4676397651039772E10 ; 0.0
82 ; 7845330.966442698 ; 2.0172009078694096E8 ; 6.264894329526614E8 ; 1.4878102969096916E10 ; 0.0
83 ; 7840758.827753498 ; 2.017348871775224E8 ; 6.343347639191041E8 ; 1.5079823059883858E10 ; 0.0
84 ; 7838524.54024068 ; 2.0174970539487594E8 ; 6.421755227468576E8 ; 1.528155794706138E10 ; 0.0
85 ; 7836882.624895518 ; 2.0176454366515195E8 ; 6.500140472870983E8 ; 1.5483307652456257E10 ; 0.0
86 ; 7833008.085792694 ; 2.0177940027198648E8 ; 6.578509299119939E8 ; 1.5685072196121408E10 ; 0.0
87 ; 7832084.673101689 ; 2.0179427355395195E8 ; 6.656839379977865E8 ; 1.5886851596393394E10 ; 0.0
88 ; 7829580.797001784 ; 2.0180916190213E8 ; 6.735160226708882E8 ; 1.6088645869947346E10 ; 0.0
89 ; 7827069.887219121 ; 2.0182406375780147E8 ; 6.8134560346789E8 ; 1.6290455031849476E10 ; 0.0
90 ; 7821662.102301159 ; 2.0183897761024728E8 ; 6.891726733551091E8 ; 1.6492279095607277E10 ; 0.0
91 ; 7821322.744104688 ; 2.0185390199465546E8 ; 6.969943354574102E8 ; 1.6694118073217524E10 ; 0.0
92 ; 7815387.744047637 ; 2.018688354901289E8 ; 7.04815658201515E8 ; 1.689597197521218E10 ; 0.0
93 ; 7812493.595774595 ; 2.018837767177891E8 ; 7.126310459455626E8 ; 1.7097840810702309E10 ; 0.0
94 ; 7810504.277206607 ; 2.0189872433897117E8 ; 7.204435395413373E8 ; 1.7299724587420097E10 ; 0.0
95 ; 7806191.836094516 ; 2.0191367705350533E8 ; 7.282540438185439E8 ; 1.7501623311759068E10 ; 0.0
96 ; 7801486.467711937 ; 2.0192863359808126E8 ; 7.360602356546384E8 ; 1.7703536988812572E10 ; 0.0
97 ; 7796830.537535454 ; 2.019435927446905E8 ; 7.438617221223503E8 ; 1.7905465622410652E10 ; 0.0
98 ; 7793995.547477129 ; 2.0195855329914358E8 ; 7.516585526598858E8 ; 1.8107409215155342E10 ; 0.0
99 ; 7791869.3669637265 ; 2.0197351409965757E8 ; 7.594525482073629E8 ; 1.8309367768454487E10 ; 0.0
100 ; 7789068.997094739 ; 2.0198847401551118E8 ; 7.672444175743266E8 ; 1.8511341282554146E10 ; 0.0
101 ; 7786348.116913933 ; 2.0200343194576362E8 ; 7.750334865714214E8 ; 1.8713329756569656E10 ; 0.0
102 ; 7783557.272745606 ; 2.020183868180339E8 ; 7.828198346883353E8 ; 1.891533318851542E10 ; 0.0
103 ; 7779666.223330213 ; 2.0203333758733803E8 ; 7.906033919610809E8 ; 1.9117351575333454E10 ; 0.0
104 ; 7772787.592507507 ; 2.020482832349807E8 ; 7.983830581844112E8 ; 1.931938491292079E10 ; 0.0
105 ; 7766642.388650923 ; 2.0206322276749918E8 ; 8.061558457769186E8 ; 1.9521433196155773E10 ; 0.0
106 ; 7766410.8652418405 ; 2.0207815521565625E8 ; 8.139224881655695E8 ; 1.972349641892327E10 ; 0.0
107 ; 7761022.895791491 ; 2.0209307963348043E8 ; 8.216888990308114E8 ; 1.9925574574138927E10 ; 0.0
108 ; 7753878.106842357 ; 2.0210799509735036E8 ; 8.29449921926603E8 ; 2.0127667653772408E10 ; 0.0
109 ; 7751359.861504134 ; 2.0212290070512176E8 ; 8.372038000334454E8 ; 2.032977564886976E10 ; 0.0
110 ; 7747469.844750192 ; 2.0213779557529455E8 ; 8.449551598949494E8 ; 2.053189854957488E10 ; 0.0
111 ; 7742880.039836473 ; 2.021526788462182E8 ; 8.527026297396996E8 ; 2.0734036345150173E10 ; 0.0
112 ; 7735980.415092651 ; 2.0216754967533314E8 ; 8.604455097795361E8 ; 2.093618902399639E10 ; 0.0
113 ; 7730338.733895805 ; 2.0218240723844713E8 ; 8.681814901946288E8 ; 2.1138356573671726E10 ; 0.0
114 ; 7725973.0988762155 ; 2.0219725072904408E8 ; 8.759118289285246E8 ; 2.134053898091017E10 ; 0.0
115 ; 7721937.888476802 ; 2.022120793576242E8 ; 8.836378020274009E8 ; 2.1542736231639217E10 ; 0.0
116 ; 7715093.883598137 ; 2.022268923510737E8 ; 8.913597399158777E8 ; 2.174494831099684E10 ; 0.0
117 ; 7710407.366999556 ; 2.0224168895206293E8 ; 8.990748337994758E8 ; 2.1947175203347916E10 ; 0.0
118 ; 7706094.807681369 ; 2.0225646841847098E8 ; 9.067852411664753E8 ; 2.214941689229998E10 ; 0.0
119 ; 7703150.675496915 ; 2.0227123002283615E8 ; 9.144913359741566E8 ; 2.2351673360718452E10 ; 0.0
120 ; 7697411.079982742 ; 2.0228597305183047E8 ; 9.221944866496536E8 ; 2.2553944590741287E10 ; 0.0
121 ; 7689538.112932142 ; 2.0230069680575737E8 ; 9.298918977296363E8 ; 2.2756230563793118E10 ; 0.0
122 ; 7686395.95048936 ; 2.023154005980714E8 ; 9.375814358425684E8 ; 2.2958531260598873E10 ; 0.0
123 ; 7681291.770588923 ; 2.0233008375491884E8 ; 9.452678317930578E8 ; 2.3160846661196945E10 ; 0.0
124 ; 7675411.769196201 ; 2.0234474561469823E8 ; 9.529491235636467E8 ; 2.3363176744951862E10 ; 0.0
125 ; 7669233.467035613 ; 2.0235938552763984E8 ; 9.606245353328428E8 ; 2.356552149056656E10 ; 0.0
126 ; 7663117.2045222875 ; 2.0237400285540333E8 ; 9.682937687998785E8 ; 2.37678808760942E10 ; 0.0
127 ; 7658435.31111883 ; 2.0238859697069257E8 ; 9.759568860044007E8 ; 2.3970254878949604E10 ; 0.0
128 ; 7650927.855447173 ; 2.0240316725688675E8 ; 9.836153213155196E8 ; 2.4172643475920296E10 ; 0.0
129 ; 7647949.162071489 ; 2.024177131076874E8 ; 9.912662491709667E8 ; 2.437504664317718E10 ; 0.0
130 ; 7638706.2958447635 ; 2.024322339267801E8 ; 9.989141983330382E8 ; 2.457746435628487E10 ; 0.0
131 ; 7631407.515980107 ; 2.0244672912751043E8 ; 1.006552904628883E9 ; 2.477989659021165E10 ; 0.0
132 ; 7623898.683521619 ; 2.0246119813257357E8 ; 1.0141843121448631E9 ; 2.498234331933916E10 ; 0.0
133 ; 7613400.893024539 ; 2.0247564037371677E8 ; 1.0218082108283848E9 ; 2.5184804517471733E10 ; 0.0
134 ; 7605987.014170245 ; 2.0249005529145414E8 ; 1.0294216117214093E9 ; 2.538728015784545E10 ; 0.0
135 ; 7598006.194377 ; 2.0250444233479324E8 ; 1.0370275987355796E9 ; 2.5589770213136906E10 ; 0.0
136 ; 7586287.227001315 ; 2.0251880096097293E8 ; 1.0446256049299566E9 ; 2.57922746554717E10 ; 0.0
137 ; 7577318.365408981 ; 2.0253313063521188E8 ; 1.0522118921569579E9 ; 2.599479345643267E10 ; 0.0
138 ; 7572853.670876404 ; 2.025474308304674E8 ; 1.0597892105223669E9 ; 2.6197326587067883E10 ; 0.0
139 ; 7561818.009370989 ; 2.0256170102720392E8 ; 1.0673620641932433E9 ; 2.639987401789835E10 ; 0.0
140 ; 7550646.153082905 ; 2.02575940713171E8 ; 1.0749238822026143E9 ; 2.6602435718925552E10 ; 0.0
141 ; 7543869.949394161 ; 2.0259014938319016E8 ; 1.0824745283556972E9 ; 2.6805011659638725E10 ; 0.0
142 ; 7535631.086419196 ; 2.0260432653895015E8 ; 1.0900183983050914E9 ; 2.7007601809021915E10 ; 0.0
143 ; 7523139.635988625 ; 2.0261847168881053E8 ; 1.0975540293915105E9 ; 2.7210206135560867E10 ; 0.0
144 ; 7514046.232104636 ; 2.0263258434761307E8 ; 1.1050771690274992E9 ; 2.741282460724968E10 ; 0.0
145 ; 7508256.470104078 ; 2.026466640365004E8 ; 1.1125912152596037E9 ; 2.7615457191597294E10 ; 0.0
146 ; 7500606.3658632 ; 2.0266071028274193E8 ; 1.1200994717297077E9 ; 2.7818103855633793E10 ; 0.0
147 ; 7496331.289878018 ; 2.0267472261956668E8 ; 1.1276000780955708E9 ; 2.8020764565916534E10 ; 0.0
148 ; 7490246.283937208 ; 2.0268870058600235E8 ; 1.135096409385449E9 ; 2.8223439288536102E10 ; 0.0
149 ; 7483307.687995161 ; 2.02702643726721E8 ; 1.1425866556693861E9 ; 2.8426127989122105E10 ; 0.0
150 ; 7474746.13503405 ; 2.0271655159189034E8 ; 1.1500699633573813E9 ; 2.8628830632848827E10 ; 0.0
151 ; 7469611.289500826 ; 2.0273042373703107E8 ; 1.1575447094924154E9 ; 2.883154718444072E10 ; 0.0
152 ; 7461998.007843081 ; 2.027442597228795E8 ; 1.1650143207819161E9 ; 2.903427760817775E10 ; 0.0
153 ; 7456813.300748604 ; 2.027580591152555E8 ; 1.1724763187897592E9 ; 2.923702186790063E10 ; 0.0
154 ; 7447550.082283026 ; 2.0277182148493534E8 ; 1.1799331320905077E9 ; 2.943977992701589E10 ; 0.0
155 ; 7440008.612789062 ; 2.0278554640752965E8 ; 1.1873806821727908E9 ; 2.9642551748500824E10 ; 0.0
156 ; 7435987.667475859 ; 2.0279923346336567E8 ; 1.19482069078558E9 ; 2.984533729490835E10 ; 0.0
157 ; 7427616.768996469 ; 2.0281288223737413E8 ; 1.2022566784530559E9 ; 3.004813652837172E10 ; 0.0
158 ; 7418227.936881939 ; 2.0282649231898028E8 ; 1.2096842952220523E9 ; 3.0250949410609093E10 ; 0.0
159 ; 7414685.265488256 ; 2.028400633019991E8 ; 1.2171025231589344E9 ; 3.0453775902928074E10 ; 0.0
160 ; 7404790.400267511 ; 2.0285359478453422E8 ; 1.2245172084244225E9 ; 3.0656615966230072E10 ; 0.0
161 ; 7399629.057971923 ; 2.0286708636888075E8 ; 1.23192199882469E9 ; 3.0859469561014606E10 ; 0.0
162 ; 7391562.951272569 ; 2.0288053766143176E8 ; 1.239321627882662E9 ; 3.1062336647383488E10 ; 0.0
163 ; 7384522.873222682 ; 2.0289394827258793E8 ; 1.2467131908339345E9 ; 3.1265217185044918E10 ; 0.0
164 ; 7380636.084204141 ; 2.0290731781667078E8 ; 1.2540977137071571E9 ; 3.1468111133317505E10 ; 0.0
165 ; 7370180.758413647 ; 2.02920645911839E8 ; 1.2614783497913613E9 ; 3.1671018451134174E10 ; 0.0
166 ; 7365520.704235613 ; 2.0293393218000773E8 ; 1.268848530549775E9 ; 3.1873939097046013E10 ; 0.0
167 ; 7357542.709243402 ; 2.0294717624677092E8 ; 1.2762140512540104E9 ; 3.207687302922602E10 ; 0.0
168 ; 7352543.617466756 ; 2.0296037774132645E8 ; 1.2835715939632537E9 ; 3.2279820205472794E10 ; 0.0
169 ; 7344706.117898554 ; 2.0297353629640388E8 ; 1.2909241375807204E9 ; 3.248278058321412E10 ; 0.0
170 ; 7337170.453867708 ; 2.0298665154819486E8 ; 1.298268843698619E9 ; 3.268575411951052E10 ; 0.0
171 ; 7328085.648739585 ; 2.0299972313628608E8 ; 1.3056060141524866E9 ; 3.2888740771058716E10 ; 0.0
172 ; 7320966.660992901 ; 2.0301275070359462E8 ; 1.3129340998012261E9 ; 3.3091740494195004E10 ; 0.0
173 ; 7313324.621294062 ; 2.030257338963054E8 ; 1.320255066462219E9 ; 3.3294753244898598E10 ; 0.0
174 ; 7308448.69399048 ; 2.030386723638112E8 ; 1.327568391083513E9 ; 3.3497778978794903E10 ; 0.0
175 ; 7303455.131674132 ; 2.0305156575865448E8 ; 1.3348768397775035E9 ; 3.3700817651158714E10 ; 0.0
176 ; 7302212.12305662 ; 2.0306441373647153E8 ; 1.3421802949091775E9 ; 3.390386921691737E10 ; 0.0
177 ; 7294985.737424576 ; 2.0307721595593837E8 ; 1.3494825070322342E9 ; 3.4106933630653843E10 ; 0.0
178 ; 7290416.113954335 ; 2.0308997207871866E8 ; 1.3567774927696588E9 ; 3.4310010846609783E10 ; 0.0
179 ; 7286638.912235006 ; 2.0310268176941347E8 ; 1.364067908883613E9 ; 3.45131008186885E10 ; 0.0
180 ; 7282183.280572464 ; 2.031153446955127E8 ; 1.3713545477958481E9 ; 3.471620350045792E10 ; 0.0
181 ; 7278151.6750103785 ; 2.031279605273483E8 ; 1.3786367310764205E9 ; 3.491931884515343E10 ; 0.0
182 ; 7274012.653696955 ; 2.031405289380491E8 ; 1.385914882751431E9 ; 3.512244680568078E10 ; 0.0
183 ; 7272242.194870865 ; 2.0315304960349715E8 ; 1.393188895405128E9 ; 3.532558733461883E10 ; 0.0
184 ; 7265354.375212284 ; 2.031655222022856E8 ; 1.400461137599999E9 ; 3.552874038422233E10 ; 0.0
185 ; 7259976.777695784 ; 2.031779464156781E8 ; 1.4077264919752111E9 ; 3.5731905906424614E10 ; 0.0
186 ; 7255913.636937159 ; 2.0319032192756963E8 ; 1.414986468752907E9 ; 3.5935083852840294E10 ; 0.0
187 ; 7250048.056724832 ; 2.032026484244483E8 ; 1.4222423823898442E9 ; 3.613827417476786E10 ; 0.0
188 ; 7249393.436610318 ; 2.032149255953592E8 ; 1.429492430446569E9 ; 3.634147682319231E10 ; 0.0
189 ; 7241919.078786686 ; 2.0322715313186875E8 ; 1.4367418238831792E9 ; 3.654469174878767E10 ; 0.0
190 ; 7239618.15163806 ; 2.032393307280307E8 ; 1.4439837429619658E9 ; 3.674791890191953E10 ; 0.0
191 ; 7233368.487619341 ; 2.0325145808035314E8 ; 1.4512233611136038E9 ; 3.695115823264756E10 ; 0.0
192 ; 7228273.712006464 ; 2.0326353488776675E8 ; 1.4584567296012232E9 ; 3.715440969072791E10 ; 0.0
193 ; 7226001.234832952 ; 2.0327556085159397E8 ; 1.4656850033132298E9 ; 3.735767322561568E10 ; 0.0
194 ; 7218037.46899889 ; 2.032875356755194E8 ; 1.4729110045480628E9 ; 3.756094878646727E10 ; 0.0
195 ; 7213296.262621599 ; 2.0329945906556106E8 ; 1.4801290420170617E9 ; 3.776423632214279E10 ; 0.0
196 ; 7210855.936007266 ; 2.0331133073004267E8 ; 1.4873423382796834E9 ; 3.796753578120835E10 ; 0.0
197 ; 7204104.159405857 ; 2.0332315037956694E8 ; 1.4945531942156906E9 ; 3.817084711193839E10 ; 0.0
198 ; 7200781.175033242 ; 2.0333491772698975E8 ; 1.5017572983750966E9 ; 3.837417026231796E10 ; 0.0
199 ; 7199447.935103039 ; 2.0334663248739505E8 ; 1.50895807955013E9 ; 3.857750518004495E10 ; 0.0
200 ; 7193632.412929319 ; 2.0252109857808566E8 ; 1.5161575274852328E9 ; 3.878085181253235E10 ; 0.0
201 ; 7188009.873882485 ; 1.5452990989962974E8 ; 1.5233511598981621E9 ; 3.8983372911110435E10 ; 0.0
