CSV File for the City 6 on Day 207
1 - Minute m 
2 - Power Consumed at minute m 
3 - Power Produced at minute m 
4 - Energy Consumed since the beginning of the day 
5 - Energy Produced since the beginning of the day 
6 - Energy Lost since the beginning of the day on lines starting from the city
 
0 ; 773550.498860998 ; 1.0565908337556884E8 ; 0.0 ; 0.0 ; 0.0
1 ; 786922.9706253423 ; 1.0580896309053898E8 ; 773550.498860998 ; 1.0565908337556884E8 ; 0.0
2 ; 801359.0504135936 ; 1.062679171932613E8 ; 1560473.4694863404 ; 2.1146804646610782E8 ; 0.0
3 ; 815139.7283042268 ; 1.0703595669918823E8 ; 2361832.519899934 ; 3.177359636593691E8 ; 0.0
4 ; 835392.4625710984 ; 1.0811309171050441E8 ; 3176972.248204161 ; 4.2477192035855734E8 ; 0.0
5 ; 856726.2647756815 ; 1.0949933128788543E8 ; 4012364.7107752594 ; 5.3288501206906176E8 ; 0.0
6 ; 882698.3293145455 ; 1.111946833297948E8 ; 4869090.975550941 ; 6.423843433569472E8 ; 0.0
7 ; 921890.1541536519 ; 1.1319915446282625E8 ; 5751789.304865487 ; 7.53579026686742E8 ; 0.0
8 ; 976107.786810381 ; 1.155127499464835E8 ; 6673679.4590191385 ; 8.667781811495682E8 ; 0.0
9 ; 1058973.7232113855 ; 1.181354735954951E8 ; 7649787.24582952 ; 9.822909310960517E8 ; 0.0
10 ; 1187199.5590109362 ; 1.2106732772229445E8 ; 8708760.969040906 ; 1.100426404691547E9 ; 0.0
11 ; 1381363.4199584224 ; 1.2430831310166797E8 ; 9895960.528051842 ; 1.2214937324138412E9 ; 0.0
12 ; 1705607.788689979 ; 1.278584289588292E8 ; 1.1277323948010264E7 ; 1.3458020455155091E9 ; 0.0
13 ; 2008291.9813483749 ; 1.3171767298134476E8 ; 1.2982931736700242E7 ; 1.4736604744743383E9 ; 0.0
14 ; 2044904.573423117 ; 1.3588604135448617E8 ; 1.4991223718048617E7 ; 1.605378147455683E9 ; 0.0
15 ; 2063430.8003075991 ; 1.403635288187496E8 ; 1.7036128291471735E7 ; 1.7412641888101692E9 ; 0.0
16 ; 2077318.1114881888 ; 1.4515012874754146E8 ; 1.9099559091779333E7 ; 1.881627717628919E9 ; 0.0
17 ; 2096054.0795210388 ; 1.502458332423981E8 ; 2.1176877203267522E7 ; 2.0267778463764603E9 ; 0.0
18 ; 2112135.3543706513 ; 1.55650633242644E8 ; 2.327293128278856E7 ; 2.1770236796188583E9 ; 0.0
19 ; 2126440.6125636054 ; 1.6136451864609453E8 ; 2.538506663715921E7 ; 2.332674312861502E9 ; 0.0
20 ; 2143355.772867943 ; 1.673874784372972E8 ; 2.7511507249722816E7 ; 2.4940388315075965E9 ; 0.0
21 ; 2160010.211081341 ; 1.7371950081985387E8 ; 2.965486302259076E7 ; 2.661426309944894E9 ; 0.0
22 ; 2175939.8674634127 ; 1.803605733495686E8 ; 3.18148732336721E7 ; 2.8351458107647476E9 ; 0.0
23 ; 2194037.4748598803 ; 1.873106830654781E8 ; 3.3990813101135515E7 ; 3.015506384114316E9 ; 0.0
24 ; 2208102.906870252 ; 1.9456981661622536E8 ; 3.618485057599539E7 ; 3.2028170671797943E9 ; 0.0
25 ; 2224484.3940509628 ; 2.0082600127787045E8 ; 3.839295348286565E7 ; 3.3973868837960196E9 ; 0.0
26 ; 2242066.104218158 ; 2.0083277110204566E8 ; 4.061743787691661E7 ; 3.59821288507389E9 ; 0.0
27 ; 2258777.8364430503 ; 2.0083988154259324E8 ; 4.2859503981134765E7 ; 3.7990456561759357E9 ; 0.0
28 ; 2275369.3367911982 ; 2.0084731879381856E8 ; 4.511828181757782E7 ; 3.9998855377185287E9 ; 0.0
29 ; 2289143.6908066724 ; 2.0085506916462165E8 ; 4.739365115436901E7 ; 4.200732856512347E9 ; 0.0
30 ; 2306993.605469977 ; 2.008631191487784E8 ; 4.968279484517568E7 ; 4.401587925676969E9 ; 0.0
31 ; 2321634.277101078 ; 2.0087145548487794E8 ; 5.198978845064566E7 ; 4.602451044825747E9 ; 0.0
32 ; 2338503.1175358365 ; 2.0088006520638987E8 ; 5.431142272774674E7 ; 4.803322500310624E9 ; 0.0
33 ; 2351973.4192426405 ; 2.0088893568249154E8 ; 5.664992584528258E7 ; 5.004202565517014E9 ; 0.0
34 ; 2366959.3671714836 ; 2.0089805465039185E8 ; 5.900189926452522E7 ; 5.205091501199505E9 ; 0.0
35 ; 2383844.2119479096 ; 2.009074102399495E8 ; 6.13688586316967E7 ; 5.405989555849896E9 ; 0.0
36 ; 2394036.6185963484 ; 2.009169909914104E8 ; 6.375270284364461E7 ; 5.606896966089846E9 ; 0.0
37 ; 2409567.0725150467 ; 2.0092678586708432E8 ; 6.614673946224096E7 ; 5.807813957081256E9 ; 0.0
38 ; 2421782.714375851 ; 2.0093678425775564E8 ; 6.8556306534756E7 ; 6.00874074294834E9 ; 0.0
39 ; 2436471.1651369124 ; 2.009469759845815E8 ; 7.097808924913186E7 ; 6.209677527206096E9 ; 0.0
40 ; 2448225.5964781134 ; 2.0095735129717603E8 ; 7.341456041426878E7 ; 6.410624503190678E9 ; 0.0
41 ; 2458376.657701001 ; 2.0096790086852133E8 ; 7.58627860107469E7 ; 6.611581854487854E9 ; 0.0
42 ; 2473297.5165892798 ; 2.0097861578728136E8 ; 7.83211626684479E7 ; 6.812549755356376E9 ; 0.0
43 ; 2484477.317333003 ; 2.0098948754803315E8 ; 8.079446018503718E7 ; 7.013528371143657E9 ; 0.0
44 ; 2492533.8022946836 ; 2.0100050803986686E8 ; 8.327893750237018E7 ; 7.2145178586916895E9 ; 0.0
45 ; 2501594.159745529 ; 2.010116695337482E8 ; 8.577147130466487E7 ; 7.415518366731556E9 ; 0.0
46 ; 2514346.5511674006 ; 2.0102296466898215E8 ; 8.82730654644104E7 ; 7.616530036265305E9 ; 0.0
47 ; 2523654.011783069 ; 2.0103438643906626E8 ; 9.07874120155778E7 ; 7.817553000934287E9 ; 0.0
48 ; 2530499.173170456 ; 2.0104592817717782E8 ; 9.331106602736086E7 ; 8.018587387373353E9 ; 0.0
49 ; 2536970.6757223727 ; 2.0105758354149693E8 ; 9.584156520053132E7 ; 8.21963331555053E9 ; 0.0
50 ; 2546443.569410971 ; 2.010693465005336E8 ; 9.83785358762537E7 ; 8.420690899092028E9 ; 0.0
51 ; 2554732.35600085 ; 2.0108121131859478E8 ; 1.0092497944566466E8 ; 8.621760245592562E9 ; 0.0
52 ; 2558375.0517473174 ; 2.010931725415E8 ; 1.0347971180166551E8 ; 8.822841456911156E9 ; 0.0
53 ; 2568170.0508425497 ; 2.011052249826317E8 ; 1.0603808685341284E8 ; 9.023934629452656E9 ; 0.0
54 ; 2573909.417076052 ; 2.0111736370938605E8 ; 1.0860625690425539E8 ; 9.225039854435287E9 ; 0.0
55 ; 2581833.4802415515 ; 2.0112958403007293E8 ; 1.1118016632133144E8 ; 9.426157218144674E9 ; 0.0
56 ; 2583844.123399416 ; 2.0114188148130003E8 ; 1.13761999801573E8 ; 9.627286802174747E9 ; 0.0
57 ; 2594431.927071234 ; 2.011542518158647E8 ; 1.1634584392497241E8 ; 9.828428683656048E9 ; 0.0
58 ; 2599451.4980352838 ; 2.011666909911659E8 ; 1.1894027585204364E8 ; 1.0029582935471912E10 ; 0.0
59 ; 2607991.4076328003 ; 2.011791951581428E8 ; 1.2153972735007893E8 ; 1.0230749626463078E10 ; 0.0
60 ; 2611384.4311060645 ; 2.0119176065073818E8 ; 1.2414771875771172E8 ; 1.043192882162122E10 ; 0.0
61 ; 2617375.1677529127 ; 2.0120438397588134E8 ; 1.2675910318881778E8 ; 1.0633120582271957E10 ; 0.0
62 ; 2625977.599849995 ; 2.0121706180397984E8 ; 1.2937647835657069E8 ; 1.0834324966247839E10 ; 0.0
63 ; 2628483.913469745 ; 2.0122979095990708E8 ; 1.3200245595642069E8 ; 1.1035542028051819E10 ; 0.0
64 ; 2638424.933839204 ; 2.0124256841447055E8 ; 1.3463093986989042E8 ; 1.1236771819011726E10 ; 0.0
65 ; 2640245.301535464 ; 2.01255391276343E8 ; 1.3726936480372962E8 ; 1.1438014387426197E10 ; 0.0
66 ; 2649341.4672175613 ; 2.012682567844387E8 ; 1.3990961010526508E8 ; 1.163926977870254E10 ; 0.0
67 ; 2655462.711810973 ; 2.0128116230071545E8 ; 1.4255895157248265E8 ; 1.1840538035486979E10 ; 0.0
68 ; 2659909.781741765 ; 2.012941053033831E8 ; 1.4521441428429362E8 ; 1.2041819197787693E10 ; 0.0
69 ; 2666215.9190082527 ; 2.01307083380499E8 ; 1.478743240660354E8 ; 1.2243113303091076E10 ; 0.0
70 ; 2671034.3371085506 ; 2.0132009422393107E8 ; 1.5054053998504364E8 ; 1.2444420386471575E10 ; 0.0
71 ; 2676693.465885815 ; 2.0133313562366927E8 ; 1.532115743221522E8 ; 1.2645740480695505E10 ; 0.0
72 ; 2681124.1937587173 ; 2.0134620546246746E8 ; 1.5588826778803802E8 ; 1.2847073616319174E10 ; 0.0
73 ; 2687451.133946132 ; 2.0135930171079674E8 ; 1.5856939198179674E8 ; 1.3048419821781641E10 ; 0.0
74 ; 2690895.0451889005 ; 2.0137242242209378E8 ; 1.6125684311574286E8 ; 1.3249779123492437E10 ; 0.0
75 ; 2695756.100708619 ; 2.0138556572828674E8 ; 1.6394773816093177E8 ; 1.3451151545914532E10 ; 0.0
76 ; 2703243.8962734356 ; 2.0139872983558324E8 ; 1.666434942616404E8 ; 1.3652537111642818E10 ; 0.0
77 ; 2703429.9848685246 ; 2.0141191302050492E8 ; 1.6934673815791383E8 ; 1.3853935841478401E10 ; 0.0
78 ; 2707746.7132935124 ; 2.0142511362615395E8 ; 1.7205016814278236E8 ; 1.4055347754498905E10 ; 0.0
79 ; 2706570.4089370877 ; 2.014383300586981E8 ; 1.7475791485607588E8 ; 1.425677286812506E10 ; 0.0
80 ; 2708054.803585874 ; 2.0145156078406084E8 ; 1.7746448526501298E8 ; 1.4458211198183758E10 ; 0.0
81 ; 2707650.613592357 ; 2.0146480432480457E8 ; 1.8017254006859887E8 ; 1.465966275896782E10 ; 0.0
82 ; 2709795.1009147386 ; 2.0147805925719488E8 ; 1.8288019068219122E8 ; 1.4861127563292624E10 ; 0.0
83 ; 2711803.2821921334 ; 2.014913242084353E8 ; 1.8558998578310597E8 ; 1.5062605622549818E10 ; 0.0
84 ; 2715526.2342535546 ; 2.015045978540617E8 ; 1.883017890652981E8 ; 1.5264096946758253E10 ; 0.0
85 ; 2712194.3382212333 ; 2.015178789154871E8 ; 1.9101731529955167E8 ; 1.5465601544612314E10 ; 0.0
86 ; 2713178.0584306307 ; 2.015311661576874E8 ; 1.937295096377729E8 ; 1.5667119423527802E10 ; 0.0
87 ; 2716071.085001169 ; 2.0154445838701934E8 ; 1.9644268769620353E8 ; 1.586865058968549E10 ; 0.0
88 ; 2713738.2150898473 ; 2.0155775444916308E8 ; 1.991587587812047E8 ; 1.607019504807251E10 ; 0.0
89 ; 2714150.443446097 ; 2.0157105322718123E8 ; 2.0187249699629456E8 ; 1.6271752802521673E10 ; 0.0
90 ; 2716383.718052248 ; 2.015843536396877E8 ; 2.0458664743974066E8 ; 1.6473323855748854E10 ; 0.0
91 ; 2717196.3973698355 ; 2.0159765463911936E8 ; 2.073030311577929E8 ; 1.6674908209388542E10 ; 0.0
92 ; 2711802.5747005977 ; 2.0161095521010453E8 ; 2.1002022755516273E8 ; 1.6876505864027662E10 ; 0.0
93 ; 2712793.746947221 ; 2.0162425436792213E8 ; 2.1273203012986332E8 ; 1.7078116819237766E10 ; 0.0
94 ; 2713377.4907300198 ; 2.0163755115704638E8 ; 2.1544482387681055E8 ; 1.727974107360569E10 ; 0.0
95 ; 2714670.4967536805 ; 2.016508446497716E8 ; 2.1815820136754057E8 ; 1.7481378624762737E10 ; 0.0
96 ; 2713256.659449453 ; 2.0166413394491234E8 ; 2.2087287186429426E8 ; 1.768302946941251E10 ; 0.0
97 ; 2712151.9461728493 ; 2.0167741816657454E8 ; 2.2358612852374372E8 ; 1.788469360335742E10 ; 0.0
98 ; 2713508.0560691953 ; 2.0169069646299314E8 ; 2.2629828046991658E8 ; 1.8086371021524E10 ; 0.0
99 ; 2711726.8492731676 ; 2.0170396800543258E8 ; 2.2901178852598578E8 ; 1.828806171798699E10 ; 0.0
100 ; 2713863.3268593224 ; 2.0171723198714605E8 ; 2.3172351537525895E8 ; 1.8489765685992424E10 ; 0.0
101 ; 2710144.360055732 ; 2.0173048762239048E8 ; 2.3443737870211828E8 ; 1.869148291797957E10 ; 0.0
102 ; 2708168.398046808 ; 2.0174373414549357E8 ; 2.3714752306217402E8 ; 1.889321340560196E10 ; 0.0
103 ; 2710592.0876548206 ; 2.0175697080996996E8 ; 2.3985569146022084E8 ; 1.909495713974745E10 ; 0.0
104 ; 2707061.0020193984 ; 2.0177019688768405E8 ; 2.4256628354787567E8 ; 1.9296714110557423E10 ; 0.0
105 ; 2708116.292114225 ; 2.017834116680561E8 ; 2.4527334454989508E8 ; 1.9498484307445107E10 ; 0.0
106 ; 2705663.7224320625 ; 2.017966144573096E8 ; 2.479814608420093E8 ; 1.9700267719113163E10 ; 0.0
107 ; 2701166.4684288283 ; 2.0180980457775742E8 ; 2.5068712456444138E8 ; 1.9902064333570473E10 ; 0.0
108 ; 2705307.0663353414 ; 2.0182298136712453E8 ; 2.533882910328702E8 ; 2.010387413814823E10 ; 0.0
109 ; 2703123.082233274 ; 2.0183614417790505E8 ; 2.5609359809920555E8 ; 2.0305697119515354E10 ; 0.0
110 ; 2700273.5568163362 ; 2.0184929237675217E8 ; 2.5879672118143883E8 ; 2.050753326369326E10 ; 0.0
111 ; 2698246.9877326293 ; 2.0186242534389824E8 ; 2.6149699473825517E8 ; 2.070938255607001E10 ; 0.0
112 ; 2698611.3713854174 ; 2.018755424726044E8 ; 2.641952417259878E8 ; 2.091124498141391E10 ; 0.0
113 ; 2697139.1946829916 ; 2.018886431686372E8 ; 2.6689385309737322E8 ; 2.1113120523886513E10 ; 0.0
114 ; 2695597.5162791205 ; 2.0190172684977126E8 ; 2.695909922920562E8 ; 2.131500916705515E10 ; 0.0
115 ; 2695320.5971758016 ; 2.0191479294531643E8 ; 2.722865898083353E8 ; 2.151691089390492E10 ; 0.0
116 ; 2688905.9509108476 ; 2.0192784089566776E8 ; 2.749819104055111E8 ; 2.1718825686850235E10 ; 0.0
117 ; 2687813.1476289714 ; 2.0194087015187758E8 ; 2.7767081635642195E8 ; 2.1920753527745903E10 ; 0.0
118 ; 2687827.9674108727 ; 2.0195388017524827E8 ; 2.803586295040509E8 ; 2.212269439789778E10 ; 0.0
119 ; 2685692.2821619045 ; 2.0196687043694434E8 ; 2.830464574714618E8 ; 2.232464827807303E10 ; 0.0
120 ; 2684368.994877053 ; 2.019798404176232E8 ; 2.8573214975362366E8 ; 2.252661514850997E10 ; 0.0
121 ; 2678669.714395075 ; 2.0199278960708344E8 ; 2.884165187485007E8 ; 2.2728594988927593E10 ; 0.0
122 ; 2677239.75421531 ; 2.0200571750392962E8 ; 2.9109518846289575E8 ; 2.2930587778534676E10 ; 0.0
123 ; 2674085.1179800937 ; 2.020186236152529E8 ; 2.9377242821711105E8 ; 2.3132593496038605E10 ; 0.0
124 ; 2669085.2545001064 ; 2.0203150745632645E8 ; 2.964465133350912E8 ; 2.333461211965386E10 ; 0.0
125 ; 2667936.776516557 ; 2.02044368550315E8 ; 2.9911559858959126E8 ; 2.3536643627110184E10 ; 0.0
126 ; 2665725.233423592 ; 2.0205720642799783E8 ; 3.017835353661078E8 ; 2.37386879956605E10 ; 0.0
127 ; 2662976.860245811 ; 2.0207002062750456E8 ; 3.044492605995314E8 ; 2.3940745202088497E10 ; 0.0
128 ; 2661975.3479307205 ; 2.0208281069406277E8 ; 3.0711223745977724E8 ; 2.4142815222716003E10 ; 0.0
129 ; 2656289.1099094334 ; 2.0209557617975724E8 ; 3.0977421280770797E8 ; 2.4344898033410065E10 ; 0.0
130 ; 2653744.8930891347 ; 2.0210831664329988E8 ; 3.124305019176174E8 ; 2.454699360958982E10 ; 0.0
131 ; 2645669.436413824 ; 2.0212103164981028E8 ; 3.150842468107065E8 ; 2.474910192623312E10 ; 0.0
132 ; 2639307.576431254 ; 2.021337207706057E8 ; 3.177299162471203E8 ; 2.495122295788293E10 ; 0.0
133 ; 2631401.11749585 ; 2.0214638358300066E8 ; 3.203692238235516E8 ; 2.5153356678653538E10 ; 0.0
134 ; 2621218.8744166354 ; 2.021590196701152E8 ; 3.2300062494104743E8 ; 2.5355503062236538E10 ; 0.0
135 ; 2617975.6575975544 ; 2.0217162862069166E8 ; 3.256218438154641E8 ; 2.5557662081906654E10 ; 0.0
136 ; 2610642.7896666983 ; 2.021842100289194E8 ; 3.282398194730616E8 ; 2.5759833710527348E10 ; 0.0
137 ; 2603645.9246928627 ; 2.0219676349426726E8 ; 3.3085046226272833E8 ; 2.5962017920556267E10 ; 0.0
138 ; 2593680.048227877 ; 2.022092886213231E8 ; 3.334541081874212E8 ; 2.6164214684050533E10 ; 0.0
139 ; 2587132.884051446 ; 2.0222178501964045E8 ; 3.360477882356491E8 ; 2.6366423972671856E10 ; 0.0
140 ; 2580322.02716557 ; 2.0223425230359137E8 ; 3.3863492111970055E8 ; 2.6568645757691498E10 ; 0.0
141 ; 2574366.4956899853 ; 2.022466900922261E8 ; 3.4121524314686614E8 ; 2.677088000999509E10 ; 0.0
142 ; 2565059.776523538 ; 2.022590980091382E8 ; 3.4378960964255613E8 ; 2.697312670008732E10 ; 0.0
143 ; 2556664.407702964 ; 2.0227147568233562E8 ; 3.4635466941907966E8 ; 2.717538579809646E10 ; 0.0
144 ; 2548962.0891017937 ; 2.0228382274411714E8 ; 3.4891133382678264E8 ; 2.7377657273778793E10 ; 0.0
145 ; 2545841.227066457 ; 2.0229613883095393E8 ; 3.5146029591588444E8 ; 2.757994109652291E10 ; 0.0
146 ; 2541131.7800840046 ; 2.0230842358337608E8 ; 3.540061371429509E8 ; 2.7782237235353867E10 ; 0.0
147 ; 2540185.973372395 ; 2.023206766458639E8 ; 3.565472689230349E8 ; 2.7984545658937244E10 ; 0.0
148 ; 2534145.01728437 ; 2.0233289766674352E8 ; 3.590874548964073E8 ; 2.8186866335583107E10 ; 0.0
149 ; 2530349.7174521917 ; 2.0234508629808688E8 ; 3.616215999136917E8 ; 2.838919923324985E10 ; 0.0
150 ; 2530837.409399334 ; 2.02357242195616E8 ; 3.6415194963114387E8 ; 2.859154431954794E10 ; 0.0
151 ; 2526047.7738321736 ; 2.0236936501861078E8 ; 3.666827870405432E8 ; 2.8793901561743557E10 ; 0.0
152 ; 2522006.7898239745 ; 2.023814544298207E8 ; 3.692088348143754E8 ; 2.899627092676217E10 ; 0.0
153 ; 2519701.7768092644 ; 2.0239351009538025E8 ; 3.7173084160419935E8 ; 2.919865238119199E10 ; 0.0
154 ; 2518088.6059013773 ; 2.0240553168472758E8 ; 3.742505433810086E8 ; 2.940104589128737E10 ; 0.0
155 ; 2515100.065758165 ; 2.024175188705263E8 ; 3.7676863198691E8 ; 2.9603451422972095E10 ; 0.0
156 ; 2512117.257005257 ; 2.0242947132859078E8 ; 3.7928373205266815E8 ; 2.980586894184262E10 ; 0.0
157 ; 2506124.310540194 ; 2.02441388737814E8 ; 3.817958493096734E8 ; 3.000829841317121E10 ; 0.0
158 ; 2501130.229233125 ; 2.0245327078009847E8 ; 3.843019736202136E8 ; 3.0210739801909027E10 ; 0.0
159 ; 2499977.069528473 ; 2.0246511714028993E8 ; 3.868031038494468E8 ; 3.0413193072689125E10 ; 0.0
160 ; 2496579.6198512227 ; 2.024769275061135E8 ; 3.8930308091897523E8 ; 3.0615658189829414E10 ; 0.0
161 ; 2496623.7084818482 ; 2.024887015681124E8 ; 3.9179966053882647E8 ; 3.081813511733553E10 ; 0.0
162 ; 2488145.2319439813 ; 2.0250043901958913E8 ; 3.942962842473083E8 ; 3.102062381890364E10 ; 0.0
163 ; 2483885.0490519116 ; 2.0251213955654874E8 ; 3.967844294792523E8 ; 3.122312425792323E10 ; 0.0
164 ; 2479884.6452289056 ; 2.0252380287764463E8 ; 3.992683145283042E8 ; 3.142563639747978E10 ; 0.0
165 ; 2482224.1274306104 ; 2.0253542868412602E8 ; 4.0174819917353314E8 ; 3.162816020035742E10 ; 0.0
166 ; 2474121.34744647 ; 2.0254701667978784E8 ; 4.0423042330096376E8 ; 3.183069562904155E10 ; 0.0
167 ; 2475073.538114366 ; 2.0255856657092237E8 ; 4.067045446484102E8 ; 3.2033242645721336E10 ; 0.0
168 ; 2467698.957051396 ; 2.0257007806627265E8 ; 4.0917961818652457E8 ; 3.223580121229226E10 ; 0.0
169 ; 2464611.4396898984 ; 2.0258155087698773E8 ; 4.1164731714357597E8 ; 3.2438371290358532E10 ; 0.0
170 ; 2462060.567630379 ; 2.0259298471657985E8 ; 4.1411192858326584E8 ; 3.264095284123552E10 ; 0.0
171 ; 2459498.365259202 ; 2.0260437930088285E8 ; 4.165739891508962E8 ; 3.28435458259521E10 ; 0.0
172 ; 2453741.471050165 ; 2.0261573434801242E8 ; 4.190334875161554E8 ; 3.3046150205252983E10 ; 0.0
173 ; 2450938.5681274035 ; 2.0262704957832786E8 ; 4.2148722898720556E8 ; 3.3248765939600994E10 ; 0.0
174 ; 2449113.02906342 ; 2.0263832471439514E8 ; 4.2393816755533296E8 ; 3.345139298917932E10 ; 0.0
175 ; 2449518.9917954835 ; 2.0264955948095137E8 ; 4.2638728058439636E8 ; 3.3654031313893715E10 ; 0.0
176 ; 2448569.3939491035 ; 2.026607536048708E8 ; 4.2883679957619184E8 ; 3.385668087337467E10 ; 0.0
177 ; 2443071.8736712537 ; 2.0267190681513178E8 ; 4.3128536897014093E8 ; 3.4059341626979538E10 ; 0.0
178 ; 2437766.2711563976 ; 2.0268301884278536E8 ; 4.3372844084381217E8 ; 3.426201353379467E10 ; 0.0
179 ; 2438792.057064261 ; 2.0269408942092454E8 ; 4.3616620711496854E8 ; 3.446469655263746E10 ; 0.0
180 ; 2433962.8089554473 ; 2.0270511828465518E8 ; 4.386049991720328E8 ; 3.466739064205838E10 ; 0.0
181 ; 2435077.6777331578 ; 2.0271610517106766E8 ; 4.410389619809882E8 ; 3.487009576034303E10 ; 0.0
182 ; 2432388.24579312 ; 2.0272704981920972E8 ; 4.434740396587214E8 ; 3.50728118655141E10 ; 0.0
183 ; 2429228.460020348 ; 2.0273795197006032E8 ; 4.459064279045145E8 ; 3.5275538915333305E10 ; 0.0
184 ; 2429269.088474274 ; 2.0274881136650443E8 ; 4.4833565636453485E8 ; 3.547827686730337E10 ; 0.0
185 ; 2424808.6375367297 ; 2.0275962775330862E8 ; 4.507649254530091E8 ; 3.568102567866987E10 ; 0.0
186 ; 2422130.3650994957 ; 2.02770400877098E8 ; 4.5318973409054583E8 ; 3.588378530642318E10 ; 0.0
187 ; 2418909.263464201 ; 2.0278113048633337E8 ; 4.556118644556453E8 ; 3.608655570730028E10 ; 0.0
188 ; 2417667.362170427 ; 2.027918163312897E8 ; 4.5803077371910954E8 ; 3.628933683778661E10 ; 0.0
189 ; 2416109.3113249782 ; 2.0280245816403538E8 ; 4.6044844108127993E8 ; 3.6492128654117905E10 ; 0.0
190 ; 2415230.189987204 ; 2.028130557384118E8 ; 4.628645503926049E8 ; 3.669493111228194E10 ; 0.0
191 ; 2409259.2730071964 ; 2.0282360881001428E8 ; 4.6527978058259207E8 ; 3.689774416802035E10 ; 0.0
192 ; 2407381.9831431345 ; 2.0283411713617325E8 ; 4.676890398555993E8 ; 3.710056777683036E10 ; 0.0
193 ; 2406322.9501770576 ; 2.028445804759363E8 ; 4.7009642183874243E8 ; 3.730340189396654E10 ; 0.0
194 ; 2403902.1681514 ; 2.0285499859005097E8 ; 4.725027447889195E8 ; 3.7506246474442474E10 ; 0.0
195 ; 2399897.9153313916 ; 2.0286537124094796E8 ; 4.749066469570709E8 ; 3.7709101473032524E10 ; 0.0
196 ; 2401108.3761636736 ; 2.0287569819272518E8 ; 4.7730654487240225E8 ; 3.7911966844273476E10 ; 0.0
197 ; 2397761.9397324417 ; 2.028859792111322E8 ; 4.797076532485659E8 ; 3.81148425424662E10 ; 0.0
198 ; 2395911.6375047765 ; 2.0289621406355545E8 ; 4.8210541518829834E8 ; 3.831772852167734E10 ; 0.0
199 ; 2392085.2725215238 ; 2.0290640251900375E8 ; 4.845013268258031E8 ; 3.852062473574089E10 ; 0.0
200 ; 2393241.9701032983 ; 2.029165443480947E8 ; 4.868934120983246E8 ; 3.8723531138259895E10 ; 0.0
