CSV File for the City 6 on Day 252
1 - Minute m 
2 - Power Consumed at minute m 
3 - Power Produced at minute m 
4 - Energy Consumed since the beginning of the day 
5 - Energy Produced since the beginning of the day 
6 - Energy Lost since the beginning of the day on lines starting from the city
 
0 ; 2681485.352240714 ; 1.057511187339783E8 ; 0.0 ; 0.0 ; 0.0
1 ; 2690020.2632173114 ; 1.059014232720418E8 ; 2681485.352240714 ; 1.057511187339783E8 ; 0.0
2 ; 2702169.1332615614 ; 1.0636076825142494E8 ; 5371505.615458025 ; 2.116525420060201E8 ; 0.0
3 ; 2713820.2201322205 ; 1.0712916142064178E8 ; 8073674.748719586 ; 3.1801331025744504E8 ; 0.0
4 ; 2730883.7886709278 ; 1.0820660981977642E8 ; 1.0787494968851807E7 ; 4.251424716780868E8 ; 0.0
5 ; 2748141.4854639005 ; 1.0959311971040404E8 ; 1.3518378757522734E7 ; 5.3334908149786323E8 ; 0.0
6 ; 2775103.420205647 ; 1.1128869651096901E8 ; 1.6266520242986634E7 ; 6.429422012082672E8 ; 0.0
7 ; 2809761.7598931463 ; 1.1329334473910725E8 ; 1.904162366319228E7 ; 7.542308977192363E8 ; 0.0
8 ; 2863902.1456593843 ; 1.1560706796230096E8 ; 2.1851385423085425E7 ; 8.675242424583435E8 ; 0.0
9 ; 2944904.863451675 ; 1.1822986875809991E8 ; 2.471528756874481E7 ; 9.831313104206445E8 ; 0.0
10 ; 3066489.09782558 ; 1.2116174868493211E8 ; 2.7660192432196483E7 ; 1.1013611791787443E9 ; 0.0
11 ; 3258648.9600938414 ; 1.2440270826427278E8 ; 3.0726681530022062E7 ; 1.2225229278636765E9 ; 0.0
12 ; 3578388.244084321 ; 1.2795274697464666E8 ; 3.39853304901159E7 ; 1.3469256361279492E9 ; 0.0
13 ; 3884911.778031837 ; 1.3181186325762576E8 ; 3.7563718734200224E7 ; 1.4748783831025958E9 ; 0.0
14 ; 3919473.877557086 ; 1.359800545356604E8 ; 4.1448630512232065E7 ; 1.6066902463602216E9 ; 0.0
15 ; 3931823.667695452 ; 1.4045731724126822E8 ; 4.536810438978915E7 ; 1.7426703008958821E9 ; 0.0
16 ; 3944551.2122384496 ; 1.4524364685681346E8 ; 4.9299928057484604E7 ; 1.8831276181371503E9 ; 0.0
17 ; 3958425.6984580504 ; 1.5033903796385166E8 ; 5.324447926972306E7 ; 2.0283712649939637E9 ; 0.0
18 ; 3975741.176338946 ; 1.5574348430080765E8 ; 5.720290496818111E7 ; 2.178710302957815E9 ; 0.0
19 ; 3986505.5465362375 ; 1.6145697882759735E8 ; 6.117864614452006E7 ; 2.3344537872586226E9 ; 0.0
20 ; 4003202.967731088 ; 1.6747951379570666E8 ; 6.5165151691056296E7 ; 2.49591076608622E9 ; 0.0
21 ; 4015698.4962514774 ; 1.738110808222017E8 ; 6.916835465878738E7 ; 2.6633902798819265E9 ; 0.0
22 ; 4028978.5658539007 ; 1.8045167096615905E8 ; 7.318405315503886E7 ; 2.8372013607041283E9 ; 0.0
23 ; 4039657.9469390367 ; 1.8740127480606866E8 ; 7.721303172089276E7 ; 3.017653031670287E9 ; 0.0
24 ; 4057971.2994928807 ; 1.9465988251686782E8 ; 8.12526896678318E7 ; 3.2050543064763556E9 ; 0.0
25 ; 4074078.5303599895 ; 2.009155248435851E8 ; 8.531066096732467E7 ; 3.399714188993223E9 ; 0.0
26 ; 4085072.715952504 ; 2.0092173921107796E8 ; 8.938473949768466E7 ; 3.600629713836808E9 ; 0.0
27 ; 4103246.876695144 ; 2.00928284318287E8 ; 9.346981221363716E7 ; 3.8015514530478864E9 ; 0.0
28 ; 4109662.3721237457 ; 2.0093514945017302E8 ; 9.75730590903323E7 ; 4.0024797373661733E9 ; 0.0
29 ; 4128750.831676587 ; 2.009423238314199E8 ; 1.0168272146245605E8 ; 4.203414886816346E9 ; 0.0
30 ; 4139949.6767470273 ; 2.0094979668182704E8 ; 1.0581147229413263E8 ; 4.404357210647766E9 ; 0.0
31 ; 4154197.094313816 ; 2.0095755726643184E8 ; 1.0995142197087966E8 ; 4.605307007329593E9 ; 0.0
32 ; 4168913.184954768 ; 2.0096559494028822E8 ; 1.1410561906519347E8 ; 4.8062645645960245E9 ; 0.0
33 ; 4180844.603922432 ; 2.009738991879442E8 ; 1.1827453225014824E8 ; 5.007230159536313E9 ; 0.0
34 ; 4189385.791584919 ; 2.009824596577558E8 ; 1.2245537685407066E8 ; 5.208204058724257E9 ; 0.0
35 ; 4203360.182858594 ; 2.0099126619125074E8 ; 1.2664476264565559E8 ; 5.409186518382013E9 ; 0.0
36 ; 4215996.191966561 ; 2.010003088478142E8 ; 1.3084812282851419E8 ; 5.610177784573264E9 ; 0.0
37 ; 4229296.818981332 ; 2.0100957792500958E8 ; 1.3506411902048075E8 ; 5.811178093421079E9 ; 0.0
38 ; 4238376.2069174545 ; 2.0101906397487497E8 ; 1.3929341583946207E8 ; 6.012187671346088E9 ; 0.0
39 ; 4245607.841868285 ; 2.0102875781655025E8 ; 1.4353179204637954E8 ; 6.213206735320963E9 ; 0.0
40 ; 4255570.100075039 ; 2.010386505455931E8 ; 1.4777739988824782E8 ; 6.414235493137513E9 ; 0.0
41 ; 4266715.132180896 ; 2.0104873354033852E8 ; 1.5203296998832285E8 ; 6.615274143683106E9 ; 0.0
42 ; 4273863.690645862 ; 2.0105899846564418E8 ; 1.5629968512050375E8 ; 6.816322877223445E9 ; 0.0
43 ; 4283503.363143521 ; 2.0106943727434874E8 ; 1.6057354881114963E8 ; 7.017381875689089E9 ; 0.0
44 ; 4290172.792592485 ; 2.010800422067492E8 ; 1.6485705217429316E8 ; 7.218451312963438E9 ; 0.0
45 ; 4302245.280355076 ; 2.0109080578838238E8 ; 1.6914722496688566E8 ; 7.419531355170187E9 ; 0.0
46 ; 4305230.524750786 ; 2.0110172082637167E8 ; 1.7344947024724072E8 ; 7.62062216095857E9 ; 0.0
47 ; 4307480.801685689 ; 2.0111278040457636E8 ; 1.7775470077199152E8 ; 7.821723881784941E9 ; 0.0
48 ; 4321321.167213016 ; 2.0112397787775764E8 ; 1.820621815736772E8 ; 8.022836662189517E9 ; 0.0
49 ; 4321799.585136811 ; 2.011353068649518E8 ; 1.8638350274089023E8 ; 8.223960640067275E9 ; 0.0
50 ; 4329830.112120493 ; 2.011467612422203E8 ; 1.9070530232602704E8 ; 8.425095946932227E9 ; 0.0
51 ; 4332809.341114459 ; 2.0115833513492507E8 ; 1.9503513243814752E8 ; 8.626242708174448E9 ; 0.0
52 ; 4334711.45009591 ; 2.0117002290965822E8 ; 1.9936794177926198E8 ; 8.827401043309374E9 ; 0.0
53 ; 4342344.162459144 ; 2.011818191659394E8 ; 2.037026532293579E8 ; 9.028571066219032E9 ; 0.0
54 ; 4343169.511326084 ; 2.011937187277758E8 ; 2.0804499739181703E8 ; 9.229752885384972E9 ; 0.0
55 ; 4349198.972120115 ; 2.012057166351676E8 ; 2.123881669031431E8 ; 9.430946604112747E9 ; 0.0
56 ; 4352267.271806985 ; 2.0121780813562718E8 ; 2.167373658752632E8 ; 9.632152320747915E9 ; 0.0
57 ; 4357591.871728715 ; 2.012299886757705E8 ; 2.210896331470702E8 ; 9.833370128883543E9 ; 0.0
58 ; 4361600.1920069475 ; 2.012422538930275E8 ; 2.2544722501879892E8 ; 1.0034600117559313E10 ; 0.0
59 ; 4364944.103549896 ; 2.012545996075106E8 ; 2.2980882521080586E8 ; 1.0235842371452341E10 ; 0.0
60 ; 4366282.314617923 ; 2.0126702181407177E8 ; 2.3417376931435576E8 ; 1.0437096971059853E10 ; 0.0
61 ; 4372893.520060723 ; 2.0127951667457333E8 ; 2.385400516289737E8 ; 1.0638363992873924E10 ; 0.0
62 ; 4373314.377055191 ; 2.012920805103898E8 ; 2.429129451490344E8 ; 1.0839643509548498E10 ; 0.0
63 ; 4375885.722078236 ; 2.0130470979515523E8 ; 2.472862595260896E8 ; 1.1040935590058887E10 ; 0.0
64 ; 4385196.343015761 ; 2.0131740114776477E8 ; 2.5166214524816784E8 ; 1.1242240299854042E10 ; 0.0
65 ; 4384247.8235101085 ; 2.0133015132563642E8 ; 2.560473415911836E8 ; 1.1443557701001806E10 ; 0.0
66 ; 4388492.7714397805 ; 2.013429572182357E8 ; 2.604315894146937E8 ; 1.1644887852327442E10 ; 0.0
67 ; 4389798.899958218 ; 2.0135581584086344E8 ; 2.648200821861335E8 ; 1.1846230809545677E10 ; 0.0
68 ; 4394779.531259483 ; 2.013687243287047E8 ; 2.692098810860917E8 ; 1.2047586625386541E10 ; 0.0
69 ; 4393167.284577828 ; 2.0138167993113577E8 ; 2.736046606173512E8 ; 1.2248955349715246E10 ; 0.0
70 ; 4399388.216413248 ; 2.0139468000628388E8 ; 2.77997827901929E8 ; 1.2450337029646381E10 ; 0.0
71 ; 4398611.564285389 ; 2.0140772201583385E8 ; 2.823972161183423E8 ; 1.2651731709652666E10 ; 0.0
72 ; 4405691.468904665 ; 2.0142080352007538E8 ; 2.867958276826277E8 ; 1.2853139431668499E10 ; 0.0
73 ; 4404956.653706716 ; 2.0143392217318276E8 ; 2.9120151915153235E8 ; 1.3054560235188574E10 ; 0.0
74 ; 4405068.3716225205 ; 2.014470757187199E8 ; 2.956064758052391E8 ; 1.3255994157361757E10 ; 0.0
75 ; 4413912.907229396 ; 2.014602619853622E8 ; 3.000115441768616E8 ; 1.3457441233080477E10 ; 0.0
76 ; 4411812.269001432 ; 2.0147347888282686E8 ; 3.04425457084091E8 ; 1.365890149506584E10 ; 0.0
77 ; 4414033.277943654 ; 2.0148672439800346E8 ; 3.0883726935309243E8 ; 1.3860374973948668E10 ; 0.0
78 ; 4414568.4691749485 ; 2.0149999659127608E8 ; 3.132513026310361E8 ; 1.406186169834667E10 ; 0.0
79 ; 4408260.223459821 ; 2.0151329359302905E8 ; 3.17665871100211E8 ; 1.4263361694937946E10 ; 0.0
80 ; 4411565.319874959 ; 2.015266136003276E8 ; 3.2207413132367086E8 ; 1.4464874988530975E10 ; 0.0
81 ; 4404601.65851056 ; 2.0153995487376562E8 ; 3.264856966435458E8 ; 1.4666401602131304E10 ; 0.0
82 ; 4404914.902200603 ; 2.0155331573447266E8 ; 3.308902983020564E8 ; 1.486794155700507E10 ; 0.0
83 ; 4404426.312812843 ; 2.0156669456127256E8 ; 3.3529521320425695E8 ; 1.5069494872739542E10 ; 0.0
84 ; 4400161.014969892 ; 2.01580089787986E8 ; 3.396996395170698E8 ; 1.5271061567300814E10 ; 0.0
85 ; 4396585.0860236 ; 2.015934999008705E8 ; 3.440998005320397E8 ; 1.54726416570888E10 ; 0.0
86 ; 4397548.533204965 ; 2.0160692343619016E8 ; 3.4849638561806333E8 ; 1.5674235156989672E10 ; 0.0
87 ; 4397555.591588349 ; 2.0162035897790927E8 ; 3.528939341512683E8 ; 1.5875842080425861E10 ; 0.0
88 ; 4391108.497839215 ; 2.0163380515550327E8 ; 3.572914897428567E8 ; 1.607746243940377E10 ; 0.0
89 ; 4389564.935077786 ; 2.0164726064188054E8 ; 3.616825982406959E8 ; 1.6279096244559273E10 ; 0.0
90 ; 4385611.1361748 ; 2.016607241514103E8 ; 3.660721631757737E8 ; 1.6480743505201153E10 ; 0.0
91 ; 4385142.718669611 ; 2.0167419443804994E8 ; 3.704577743119485E8 ; 1.6682404229352564E10 ; 0.0
92 ; 4378415.066270925 ; 2.0168767029356745E8 ; 3.748429170306181E8 ; 1.6884078423790613E10 ; 0.0
93 ; 4378369.061705191 ; 2.0170115054585356E8 ; 3.79221332096889E8 ; 1.708576609408418E10 ; 0.0
94 ; 4370335.324261649 ; 2.017146340573189E8 ; 3.835997011585942E8 ; 1.7287467244630035E10 ; 0.0
95 ; 4366734.86019937 ; 2.017281197233718E8 ; 3.8797003648285586E8 ; 1.7489181878687355E10 ; 0.0
96 ; 4367601.394373857 ; 2.0174160647097236E8 ; 3.9233677134305525E8 ; 1.769090999841073E10 ; 0.0
97 ; 4361957.774305186 ; 2.0175509325725877E8 ; 3.967043727374291E8 ; 1.7892651604881702E10 ; 0.0
98 ; 4359913.653705393 ; 2.0176857906824213E8 ; 4.0106633051173425E8 ; 1.809440669813896E10 ; 0.0
99 ; 4352993.692961036 ; 2.0178206291756606E8 ; 4.0542624416543967E8 ; 1.8296175277207203E10 ; 0.0
100 ; 4352184.149258782 ; 2.0179554384532776E8 ; 4.097792378584007E8 ; 1.8497957340124767E10 ; 0.0
101 ; 4350005.018547975 ; 2.0180902091695696E8 ; 4.141314220076595E8 ; 1.8699752883970097E10 ; 0.0
102 ; 4342772.345344677 ; 2.0182249322215033E8 ; 4.1848142702620745E8 ; 1.8901561904887054E10 ; 0.0
103 ; 4342662.874902745 ; 2.0183595987385762E8 ; 4.228241993715521E8 ; 1.9103384398109203E10 ; 0.0
104 ; 4338082.90854571 ; 2.0184942000731757E8 ; 4.2716686224645483E8 ; 1.9305220357983063E10 ; 0.0
105 ; 4336202.759633951 ; 2.018628727791403E8 ; 4.3150494515500057E8 ; 1.950706977799038E10 ; 0.0
106 ; 4331539.0758671425 ; 2.0187631736643422E8 ; 4.358411479146345E8 ; 1.970893265076952E10 ; 0.0
107 ; 4325098.715856541 ; 2.0188975296597496E8 ; 4.4017268699050164E8 ; 1.9910808968135956E10 ; 0.0
108 ; 4322398.085326785 ; 2.0190317879341403E8 ; 4.444977857063582E8 ; 2.0112698721101933E10 ; 0.0
109 ; 4318910.456826276 ; 2.0191659408252534E8 ; 4.48820183791685E8 ; 2.0314601899895348E10 ; 0.0
110 ; 4312230.279576903 ; 2.0192999808448723E8 ; 4.5313909424851125E8 ; 2.0516518493977875E10 ; 0.0
111 ; 4307279.150925912 ; 2.0194339006719887E8 ; 4.5745132452808815E8 ; 2.0718448492062363E10 ; 0.0
112 ; 4299966.138175314 ; 2.019567693146284E8 ; 4.617586036790141E8 ; 2.0920391882129562E10 ; 0.0
113 ; 4296308.606523082 ; 2.0197013512619182E8 ; 4.660585698171894E8 ; 2.112234865144419E10 ; 0.0
114 ; 4292387.7982776 ; 2.0198348681616077E8 ; 4.703548784237125E8 ; 2.132431878657038E10 ; 0.0
115 ; 4287842.150331414 ; 2.0199682371309778E8 ; 4.746472662219901E8 ; 2.1526302273386543E10 ; 0.0
116 ; 4281934.813121764 ; 2.0201014515931758E8 ; 4.7893510837232155E8 ; 2.172829909709964E10 ; 0.0
117 ; 4274514.555016269 ; 2.020234505103732E8 ; 4.832170431854433E8 ; 2.1930309242258957E10 ; 0.0
118 ; 4273840.516165164 ; 2.020367391345655E8 ; 4.8749155774045956E8 ; 2.213233269276933E10 ; 0.0
119 ; 4266837.38005778 ; 2.0205001041247505E8 ; 4.917653982566247E8 ; 2.2334369431903896E10 ; 0.0
120 ; 4261493.550292204 ; 2.020632637365151E8 ; 4.9603223563668245E8 ; 2.2536419442316372E10 ; 0.0
121 ; 4255083.177142487 ; 2.0207649851050502E8 ; 5.0029372918697464E8 ; 2.2738482706052887E10 ; 0.0
122 ; 4250794.829257033 ; 2.0208971414926246E8 ; 5.0454881236411715E8 ; 2.2940559204563393E10 ; 0.0
123 ; 4241937.271558437 ; 2.021029100782138E8 ; 5.0879960719337416E8 ; 2.3142648918712654E10 ; 0.0
124 ; 4238894.46728189 ; 2.0211608573302224E8 ; 5.130415444649326E8 ; 2.3344751828790867E10 ; 0.0
125 ; 4231912.553926014 ; 2.0212924055923182E8 ; 5.172804389322145E8 ; 2.3546867914523888E10 ; 0.0
126 ; 4224369.407030938 ; 2.0214237401192734E8 ; 5.215123514861405E8 ; 2.374899715508312E10 ; 0.0
127 ; 4222004.656546784 ; 2.0215548555540928E8 ; 5.257367208931714E8 ; 2.3951139529095047E10 ; 0.0
128 ; 4213397.52960992 ; 2.0216857466288266E8 ; 5.299587255497182E8 ; 2.4153295014650455E10 ; 0.0
129 ; 4208938.488779215 ; 2.021816408161594E8 ; 5.341721230793281E8 ; 2.435546358931334E10 ; 0.0
130 ; 4198241.587002909 ; 2.0219468350537357E8 ; 5.383810615681074E8 ; 2.4557645230129498E10 ; 0.0
131 ; 4187924.3429394905 ; 2.02207702228709E8 ; 5.425793031551102E8 ; 2.4759839913634872E10 ; 0.0
132 ; 4179766.898339694 ; 2.022206964921382E8 ; 5.467672274980497E8 ; 2.4962047615863583E10 ; 0.0
133 ; 4166320.552193753 ; 2.0223366580917263E8 ; 5.509469943963895E8 ; 2.516426831235572E10 ; 0.0
134 ; 4161952.023545024 ; 2.0224660970062345E8 ; 5.551133149485832E8 ; 2.5366501978164894E10 ; 0.0
135 ; 4149029.180640314 ; 2.0225952769437236E8 ; 5.592752669721283E8 ; 2.5568748587865517E10 ; 0.0
136 ; 4136716.311423773 ; 2.022724193251519E8 ; 5.634242961527686E8 ; 2.577100811555989E10 ; 0.0
137 ; 4129188.221200056 ; 2.0228528413433522E8 ; 5.675610124641924E8 ; 2.5973280534885044E10 ; 0.0
138 ; 4115711.903514838 ; 2.022981216697343E8 ; 5.716902006853925E8 ; 2.617556581901938E10 ; 0.0
139 ; 4107013.984880279 ; 2.0231093148540655E8 ; 5.758059125889074E8 ; 2.6377863940689114E10 ; 0.0
140 ; 4092927.1187594933 ; 2.0232371314146948E8 ; 5.799129265737877E8 ; 2.658017487217452E10 ; 0.0
141 ; 4085812.6985015967 ; 2.023364662039228E8 ; 5.840058536925472E8 ; 2.6782498585315987E10 ; 0.0
142 ; 4071958.13889228 ; 2.0234919024447802E8 ; 5.880916663910488E8 ; 2.698483505151991E10 ; 0.0
143 ; 4060250.1649247212 ; 2.0236188484039453E8 ; 5.921636245299411E8 ; 2.7187184241764385E10 ; 0.0
144 ; 4051336.2695885873 ; 2.0237454957432285E8 ; 5.962238746948658E8 ; 2.738954612660478E10 ; 0.0
145 ; 4041766.55126547 ; 2.0238718403415367E8 ; 6.002752109644544E8 ; 2.75919206761791E10 ; 0.0
146 ; 4037835.013403232 ; 2.023997878128733E8 ; 6.043169775157199E8 ; 2.7794307860213253E10 ; 0.0
147 ; 4031625.6533472585 ; 2.0241236050842464E8 ; 6.083548125291231E8 ; 2.7996707648026127E10 ; 0.0
148 ; 4022766.623862919 ; 2.024249017235739E8 ; 6.123864381824703E8 ; 2.819912000853455E10 ; 0.0
149 ; 4016050.9424333144 ; 2.0243741106578225E8 ; 6.164092048063332E8 ; 2.8401544910258125E10 ; 0.0
150 ; 4010165.9094848745 ; 2.0244988814708295E8 ; 6.204252557487665E8 ; 2.8603982321323906E10 ; 0.0
151 ; 4002772.8124011615 ; 2.0246233258396295E8 ; 6.244354216582514E8 ; 2.880643220947099E10 ; 0.0
152 ; 3997916.91348781 ; 2.0247474399724916E8 ; 6.284381944706526E8 ; 2.900889454205495E10 ; 0.0
153 ; 3990526.696457768 ; 2.0248712201199937E8 ; 6.324361113841404E8 ; 2.92113692860522E10 ; 0.0
154 ; 3983967.1487564864 ; 2.0249946625739712E8 ; 6.364266380805981E8 ; 2.94138564080642E10 ; 0.0
155 ; 3975698.2996793804 ; 2.0251177636665082E8 ; 6.404106052293546E8 ; 2.9616355874321598E10 ; 0.0
156 ; 3967584.3244086057 ; 2.0252405197689652E8 ; 6.44386303529034E8 ; 2.9818867650688248E10 ; 0.0
157 ; 3963383.962496091 ; 2.025362927291047E8 ; 6.483538878534427E8 ; 3.0021391702665146E10 ; 0.0
158 ; 3956310.9620882673 ; 2.0254849826799038E8 ; 6.523172718159387E8 ; 3.022392799539425E10 ; 0.0
159 ; 3949128.3771744096 ; 2.025606682419267E8 ; 6.562735827780269E8 ; 3.042647649366224E10 ; 0.0
160 ; 3941141.1225604964 ; 2.0257280230286175E8 ; 6.602227111552013E8 ; 3.0629037161904167E10 ; 0.0
161 ; 3934591.073007721 ; 2.0258490010623875E8 ; 6.641638522777618E8 ; 3.0831609964207027E10 ; 0.0
162 ; 3927749.868036538 ; 2.0259696131091878E8 ; 6.680984433507695E8 ; 3.1034194864313267E10 ; 0.0
163 ; 3923634.404599734 ; 2.0260898557910693E8 ; 6.72026193218806E8 ; 3.1236791825624184E10 ; 0.0
164 ; 3914828.187884011 ; 2.0262097257628074E8 ; 6.759498276234058E8 ; 3.143940081120329E10 ; 0.0
165 ; 3908897.115190099 ; 2.026329219711216E8 ; 6.798646558112898E8 ; 3.164202178377957E10 ; 0.0
166 ; 3900419.324289165 ; 2.0264483343544868E8 ; 6.837735529264799E8 ; 3.1844654705750694E10 ; 0.0
167 ; 3896674.178490411 ; 2.0265670664415494E8 ; 6.876739722507691E8 ; 3.2047299539186142E10 ; 0.0
168 ; 3888408.76710819 ; 2.0266854127514613E8 ; 6.915706464292595E8 ; 3.2249956245830296E10 ; 0.0
169 ; 3878925.5902319164 ; 2.026803370092814E8 ; 6.954590551963677E8 ; 3.2452624787105442E10 ; 0.0
170 ; 3872806.4692636714 ; 2.026920935303164E8 ; 6.993379807865996E8 ; 3.2655305124114723E10 ; 0.0
171 ; 3869832.028601177 ; 2.0270381052484858E8 ; 7.032107872558633E8 ; 3.285799721764504E10 ; 0.0
172 ; 3857821.9844212444 ; 2.027154876822641E8 ; 7.070806192844645E8 ; 3.3060701028169888E10 ; 0.0
173 ; 3854729.1731041716 ; 2.027271246946869E8 ; 7.109384412688857E8 ; 3.326341651585215E10 ; 0.0
174 ; 3849191.7603881587 ; 2.0273872125692967E8 ; 7.147931704419899E8 ; 3.3466143640546837E10 ; 0.0
175 ; 3842449.593836291 ; 2.027502770664465E8 ; 7.18642362202378E8 ; 3.366888236180377E10 ; 0.0
176 ; 3838528.865603333 ; 2.0276179182328722E8 ; 7.224848117962143E8 ; 3.3871632638870216E10 ; 0.0
177 ; 3830611.7717107763 ; 2.0277326523005325E8 ; 7.263233406618177E8 ; 3.4074394430693504E10 ; 0.0
178 ; 3830804.7702252874 ; 2.0278469699185538E8 ; 7.301539524335284E8 ; 3.4277167695923557E10 ; 0.0
179 ; 3822148.7976281177 ; 2.0279608681627277E8 ; 7.339847572037537E8 ; 3.447995239291541E10 ; 0.0
180 ; 3817262.740420867 ; 2.0280743441331342E8 ; 7.378069060013819E8 ; 3.468274847973169E10 ; 0.0
181 ; 3812050.0673657334 ; 2.0281873949537626E8 ; 7.416241687418027E8 ; 3.4885555914145004E10 ; 0.0
182 ; 3806348.637867132 ; 2.028300017772143E8 ; 7.454362188091685E8 ; 3.508837465364038E10 ; 0.0
183 ; 3803900.6705311206 ; 2.028412209758993E8 ; 7.492425674470356E8 ; 3.5291204655417595E10 ; 0.0
184 ; 3793360.04431963 ; 2.0285239681078765E8 ; 7.530464681175667E8 ; 3.549404587639349E10 ; 0.0
185 ; 3790363.5510575464 ; 2.0286352900348723E8 ; 7.568398281618863E8 ; 3.5696898273204285E10 ; 0.0
186 ; 3784478.305337063 ; 2.028746172778259E8 ; 7.606301917129439E8 ; 3.589976180220777E10 ; 0.0
187 ; 3777637.199357301 ; 2.0288566135982057E8 ; 7.64414670018281E8 ; 3.6102636419485596E10 ; 0.0
188 ; 3776989.578688946 ; 2.0289666097764772E8 ; 7.681923072176383E8 ; 3.630552208084541E10 ; 0.0
189 ; 3767179.9608381214 ; 2.0290761586161485E8 ; 7.719692967963272E8 ; 3.650841874182306E10 ; 0.0
190 ; 3764426.5322660212 ; 2.0291852574413285E8 ; 7.757364767571653E8 ; 3.671132635768468E10 ; 0.0
191 ; 3762344.7471426106 ; 2.0292939035968938E8 ; 7.795009032894313E8 ; 3.691424488342881E10 ; 0.0
192 ; 3754396.17235702 ; 2.0294020944482335E8 ; 7.832632480365739E8 ; 3.71171742737885E10 ; 0.0
193 ; 3747602.9491728954 ; 2.0295098273809993E8 ; 7.870176442089309E8 ; 3.732011448323332E10 ; 0.0
194 ; 3743424.6564921145 ; 2.029617099800867E8 ; 7.907652471581037E8 ; 3.752306546597142E10 ; 0.0
195 ; 3738235.5927453213 ; 2.0297239091333073E8 ; 7.945086718145958E8 ; 3.772602717595151E10 ; 0.0
196 ; 3733596.2105582794 ; 2.0298302528233597E8 ; 7.982469074073411E8 ; 3.792899956686484E10 ; 0.0
197 ; 3728937.3453660742 ; 2.0299361283354202E8 ; 8.019805036178994E8 ; 3.813198259214717E10 ; 0.0
198 ; 3723427.1070797965 ; 2.030041533153032E8 ; 8.057094409632655E8 ; 3.833497620498071E10 ; 0.0
199 ; 3718521.4375523464 ; 2.0301464647786865E8 ; 8.094328680703453E8 ; 3.853798035829601E10 ; 0.0
200 ; 3714579.31366109 ; 2.0302509207336274E8 ; 8.131513895078976E8 ; 3.874099500477388E10 ; 0.0
