CSV File for the City 6 on Day 261
1 - Minute m 
2 - Power Consumed at minute m 
3 - Power Produced at minute m 
4 - Energy Consumed since the beginning of the day 
5 - Energy Produced since the beginning of the day 
6 - Energy Lost since the beginning of the day on lines starting from the city
 
0 ; 3747806.635433248 ; 1.0598900497830418E8 ; 0.0 ; 0.0 ; 0.0
1 ; 3759735.8007968497 ; 1.0613981496830773E8 ; 3747806.635433248 ; 1.0598900497830418E8 ; 0.0
2 ; 3770395.0620637843 ; 1.065996230628381E8 ; 7507542.436230097 ; 2.121288199466119E8 ; 0.0
3 ; 3783842.580252792 ; 1.0736843362298971E8 ; 1.127793749829388E7 ; 3.1872844300945E8 ; 0.0
4 ; 3794055.8942259206 ; 1.0844625056708252E8 ; 1.5061780078546673E7 ; 4.2609687663243973E8 ; 0.0
5 ; 3810260.08944605 ; 1.0983307734560078E8 ; 1.8855835972772595E7 ; 5.3454312719952226E8 ; 0.0
6 ; 3838391.535702631 ; 1.1152891691863081E8 ; 2.2666096062218644E7 ; 6.443762045451231E8 ; 0.0
7 ; 3874176.557522662 ; 1.1353377173613513E8 ; 2.6504487597921275E7 ; 7.559051214637539E8 ; 0.0
8 ; 3920477.906750103 ; 1.1584764372136706E8 ; 3.0378664155443937E7 ; 8.694388931998891E8 ; 0.0
9 ; 4000547.0195148955 ; 1.1847053425768495E8 ; 3.429914206219404E7 ; 9.852865369212561E8 ; 0.0
10 ; 4123877.903236018 ; 1.214024441789779E8 ; 3.829968908170894E7 ; 1.103757071178941E9 ; 0.0
11 ; 4320549.739236329 ; 1.2464337376385781E8 ; 4.2423566984944955E7 ; 1.225159515357919E9 ; 0.0
12 ; 4632826.926935679 ; 1.2819332273371276E8 ; 4.674411672418128E7 ; 1.3498028891217768E9 ; 0.0
13 ; 4932734.619099405 ; 1.3205229025465363E8 ; 5.137694365111696E7 ; 1.4779962118554895E9 ; 0.0
14 ; 4969348.754053544 ; 1.3622027494332218E8 ; 5.630967827021636E7 ; 1.6100485021101432E9 ; 0.0
15 ; 4983040.583804031 ; 1.4069727487646496E8 ; 6.127902702426991E7 ; 1.7462687770534654E9 ; 0.0
16 ; 4993405.207107414 ; 1.4548328760411957E8 ; 6.626206760807394E7 ; 1.8869660519299302E9 ; 0.0
17 ; 5010468.807780028 ; 1.505783101661996E8 ; 7.125547281518136E7 ; 2.0324493395340497E9 ; 0.0
18 ; 5020723.214938375 ; 1.5598233911222082E8 ; 7.626594162296139E7 ; 2.183027649700249E9 ; 0.0
19 ; 5029779.2350571975 ; 1.616953705238633E8 ; 8.128666483789976E7 ; 2.33900998881247E9 ; 0.0
20 ; 5043646.677172437 ; 1.6771740004003254E8 ; 8.631644407295695E7 ; 2.5007053593363333E9 ; 0.0
21 ; 5056821.827011739 ; 1.740484228840585E8 ; 9.136009075012939E7 ; 2.6684227593763657E9 ; 0.0
22 ; 5068612.557268101 ; 1.8068843389265102E8 ; 9.641691257714112E7 ; 2.842471182260424E9 ; 0.0
23 ; 5079816.01370432 ; 1.8763742754622644E8 ; 1.0148552513440922E8 ; 3.023159616153075E9 ; 0.0
24 ; 5096646.909949811 ; 1.9489539800021958E8 ; 1.0656534114811353E8 ; 3.2107970436993017E9 ; 0.0
25 ; 5103283.723385301 ; 2.011503800151877E8 ; 1.1166198805806334E8 ; 3.405692441699521E9 ; 0.0
26 ; 5116146.371562372 ; 2.0115591502587456E8 ; 1.1676527178144865E8 ; 3.606842821714709E9 ; 0.0
27 ; 5132828.648236583 ; 2.0116176569819152E8 ; 1.2188141815301102E8 ; 3.8079987367405834E9 ; 0.0
28 ; 5141946.738026161 ; 2.011679252076652E8 ; 1.2701424680124761E8 ; 4.009160502438775E9 ; 0.0
29 ; 5157616.446155881 ; 2.0117438656367442E8 ; 1.3215619353927377E8 ; 4.2103284276464405E9 ; 0.0
30 ; 5168144.283285035 ; 2.0118114263951045E8 ; 1.3731380998542964E8 ; 4.4115028142101145E9 ; 0.0
31 ; 5180045.698012622 ; 2.011881862012921E8 ; 1.4248195426871467E8 ; 4.612683956849625E9 ; 0.0
32 ; 5191357.804714605 ; 2.0119550993555793E8 ; 1.476619999667273E8 ; 4.813872143050917E9 ; 0.0
33 ; 5203944.161539683 ; 2.0120310647539094E8 ; 1.5285335777144188E8 ; 5.015067652986475E9 ; 0.0
34 ; 5215482.795077915 ; 2.012109684249664E8 ; 1.5805730193298155E8 ; 5.216270759461866E9 ; 0.0
35 ; 5227486.588492603 ; 2.0121908838244316E8 ; 1.6327278472805947E8 ; 5.417481727886833E9 ; 0.0
36 ; 5234378.468729754 ; 2.0122745896114945E8 ; 1.6850027131655207E8 ; 5.618700816269277E9 ; 0.0
37 ; 5244495.712709391 ; 2.0123607280903986E8 ; 1.7373464978528184E8 ; 5.819928275230426E9 ; 0.0
38 ; 5253996.802520807 ; 2.0124492262642428E8 ; 1.7897914549799123E8 ; 6.021164348039466E9 ; 0.0
39 ; 5258727.018512098 ; 2.0125400118198976E8 ; 1.8423314230051205E8 ; 6.22240927066589E9 ; 0.0
40 ; 5271084.0407949 ; 2.0126330132715476E8 ; 1.8949186931902415E8 ; 6.423663271847879E9 ; 0.0
41 ; 5276206.34658631 ; 2.01272816008809E8 ; 1.9476295335981905E8 ; 6.6249265731750345E9 ; 0.0
42 ; 5286348.834414446 ; 2.012825382805047E8 ; 2.0003915970640537E8 ; 6.826199389183844E9 ; 0.0
43 ; 5291113.98103396 ; 2.0129246131217405E8 ; 2.0532550854081982E8 ; 7.027481927464348E9 ; 0.0
44 ; 5300017.008635007 ; 2.013025783984547E8 ; 2.1061662252185377E8 ; 7.228774388776522E9 ; 0.0
45 ; 5306061.519888434 ; 2.0131288296571004E8 ; 2.159166395304888E8 ; 7.430076967174976E9 ; 0.0
46 ; 5313346.867365783 ; 2.0132336857783327E8 ; 2.2122270105037722E8 ; 7.631389850140686E9 ; 0.0
47 ; 5314066.930835268 ; 2.0133402894092634E8 ; 2.26536047917743E8 ; 7.832713218718519E9 ; 0.0
48 ; 5320171.50156366 ; 2.013448579069439E8 ; 2.3185011484857827E8 ; 8.034047247659446E9 ; 0.0
49 ; 5321986.806080377 ; 2.013558494763911E8 ; 2.3717028635014194E8 ; 8.23539210556639E9 ; 0.0
50 ; 5324093.192375362 ; 2.0136699780016246E8 ; 2.424922731562223E8 ; 8.436747955042781E9 ; 0.0
51 ; 5328764.371671002 ; 2.013782971806046E8 ; 2.4781636634859768E8 ; 8.638114952842943E9 ; 0.0
52 ; 5332971.767342559 ; 2.0138974207188305E8 ; 2.5314513072026867E8 ; 8.839493250023548E9 ; 0.0
53 ; 5334036.650307016 ; 2.014013270797288E8 ; 2.5847810248761123E8 ; 9.04088299209543E9 ; 0.0
54 ; 5339140.130607864 ; 2.014130469606355E8 ; 2.6381213913791826E8 ; 9.24228431917516E9 ; 0.0
55 ; 5338142.504359085 ; 2.0142489662057427E8 ; 2.6915127926852614E8 ; 9.443697366135796E9 ; 0.0
56 ; 5341202.908166823 ; 2.0143687111328754E8 ; 2.744894217728852E8 ; 9.64512226275637E9 ; 0.0
57 ; 5341687.90810197 ; 2.0144896563821974E8 ; 2.79830624681052E8 ; 9.846559133869658E9 ; 0.0
58 ; 5346012.228918614 ; 2.0146117553813684E8 ; 2.85172312589154E8 ; 1.0048008099507877E10 ; 0.0
59 ; 5348012.8321798295 ; 2.0147349629648298E8 ; 2.905183248180726E8 ; 1.0249469275046015E10 ; 0.0
60 ; 5350274.39448887 ; 2.0148592353451854E8 ; 2.9586633765025246E8 ; 1.0450942771342497E10 ; 0.0
61 ; 5352841.326777385 ; 2.0149845300827822E8 ; 3.0121661204474133E8 ; 1.0652428694877016E10 ; 0.0
62 ; 5354359.387102644 ; 2.0151108060538608E8 ; 3.0656945337151873E8 ; 1.0853927147885294E10 ; 0.0
63 ; 5359930.358277451 ; 2.0152380234175846E8 ; 3.119238127586214E8 ; 1.105543822849068E10 ; 0.0
64 ; 5359726.631777954 ; 2.015366143582245E8 ; 3.1728374311689883E8 ; 1.125696203083244E10 ; 0.0
65 ; 5364188.873749418 ; 2.0154951291708893E8 ; 3.226434697486768E8 ; 1.1458498645190664E10 ; 0.0
66 ; 5361194.551097622 ; 2.0156249439865986E8 ; 3.280076586224262E8 ; 1.1660048158107754E10 ; 0.0
67 ; 5364453.950714163 ; 2.0157555529776165E8 ; 3.3336885317352384E8 ; 1.1861610652506414E10 ; 0.0
68 ; 5364302.703978169 ; 2.015886922202497E8 ; 3.38733307124238E8 ; 1.2063186207804176E10 ; 0.0
69 ; 5364299.219212066 ; 2.016019018795427E8 ; 3.440976098282162E8 ; 1.2264774900024426E10 ; 0.0
70 ; 5367269.099403472 ; 2.016151810931847E8 ; 3.4946190904742825E8 ; 1.2466376801903969E10 ; 0.0
71 ; 5371147.312336124 ; 2.0162852677944878E8 ; 3.5482917814683175E8 ; 1.2667991982997154E10 ; 0.0
72 ; 5367044.634632145 ; 2.0164193595399138E8 ; 3.602003254591679E8 ; 1.2869620509776604E10 ; 0.0
73 ; 5372017.935488812 ; 2.0165540572656527E8 ; 3.6556737009380007E8 ; 1.3071262445730595E10 ; 0.0
74 ; 5369203.358088059 ; 2.016689332977978E8 ; 3.709393880292889E8 ; 1.3272917851457159E10 ; 0.0
75 ; 5370779.206753982 ; 2.0168251595603967E8 ; 3.7630859138737696E8 ; 1.3474586784754957E10 ; 0.0
76 ; 5367249.303405839 ; 2.0169615107428896E8 ; 3.8167937059413093E8 ; 1.3676269300710997E10 ; 0.0
77 ; 5373460.370605934 ; 2.0170983610719293E8 ; 3.8704661989753675E8 ; 1.3877965451785286E10 ; 0.0
78 ; 5371082.377626214 ; 2.017235685881312E8 ; 3.924200802681427E8 ; 1.4079675287892479E10 ; 0.0
79 ; 5360929.751743625 ; 2.0173734612638092E8 ; 3.9779116264576894E8 ; 1.428139885648061E10 ; 0.0
80 ; 5356759.017759357 ; 2.0175116640436646E8 ; 4.0315209239751256E8 ; 1.448313620260699E10 ; 0.0
81 ; 5353880.910711068 ; 2.0176502717499247E8 ; 4.0850885141527194E8 ; 1.4684887369011356E10 ; 0.0
82 ; 5350909.566769805 ; 2.017789262590623E8 ; 4.13862732325983E8 ; 1.4886652396186348E10 ; 0.0
83 ; 5350602.689146595 ; 2.0179286154277977E8 ; 4.1921364189275277E8 ; 1.508843132244541E10 ; 0.0
84 ; 5343481.285918322 ; 2.01806830975335E8 ; 4.2456424458189934E8 ; 1.529022418398819E10 ; 0.0
85 ; 5339019.652497464 ; 2.0182083256657222E8 ; 4.2990772586781764E8 ; 1.5492031014963524E10 ; 0.0
86 ; 5337265.657465439 ; 2.018348643847391E8 ; 4.352467455203151E8 ; 1.5693851847530096E10 ; 0.0
87 ; 5334833.302100678 ; 2.018489245543158E8 ; 4.4058401117778057E8 ; 1.5895686711914835E10 ; 0.0
88 ; 5326308.790391604 ; 2.0186301125392213E8 ; 4.459188444798812E8 ; 1.609753563646915E10 ; 0.0
89 ; 5323180.9631422805 ; 2.0187712271430132E8 ; 4.5124515327027285E8 ; 1.6299398647723072E10 ; 0.0
90 ; 5320679.749571863 ; 2.0189125721637803E8 ; 4.565683342334151E8 ; 1.6501275770437374E10 ; 0.0
91 ; 5314449.05432028 ; 2.0190541308938926E8 ; 4.61889013982987E8 ; 1.6703167027653751E10 ; 0.0
92 ; 5307996.915054192 ; 2.0191958870908567E8 ; 4.6720346303730726E8 ; 1.6905072440743141E10 ; 0.0
93 ; 5304838.02232572 ; 2.0193378249600142E8 ; 4.7251145995236146E8 ; 1.7106992029452227E10 ; 0.0
94 ; 5298340.871926685 ; 2.0194799291379046E8 ; 4.7781629797468716E8 ; 1.7308925811948227E10 ; 0.0
95 ; 5299463.103277672 ; 2.0196221846762702E8 ; 4.831146388466138E8 ; 1.751087380486202E10 ; 0.0
96 ; 5291448.446135621 ; 2.019764577026684E8 ; 4.884141019498915E8 ; 1.7712836023329647E10 ; 0.0
97 ; 5288736.211698277 ; 2.0199070920257783E8 ; 4.9370555039602715E8 ; 1.7914812481032314E10 ; 0.0
98 ; 5282326.589359659 ; 2.0200497158810532E8 ; 4.9899428660772544E8 ; 1.8116803190234894E10 ; 0.0
99 ; 5279623.556412046 ; 2.0201924351572442E8 ; 5.042766131970851E8 ; 1.8318808161822998E10 ; 0.0
100 ; 5272246.236070017 ; 2.0203352367632303E8 ; 5.095562367534971E8 ; 1.8520827405338722E10 ; 0.0
101 ; 5269166.144649855 ; 2.0204781079394606E8 ; 5.1482848298956716E8 ; 1.8722860929015045E10 ; 0.0
102 ; 5263435.679384759 ; 2.0206210362458822E8 ; 5.20097649134217E8 ; 1.892490873980899E10 ; 0.0
103 ; 5252543.726865742 ; 2.0207640095503476E8 ; 5.253610848136018E8 ; 1.912697084343358E10 ; 0.0
104 ; 5248504.694923011 ; 2.0209070160174868E8 ; 5.3061362854046756E8 ; 1.9329047244388615E10 ; 0.0
105 ; 5244026.215703893 ; 2.0210500440980238E8 ; 5.3586213323539054E8 ; 1.9531137945990364E10 ; 0.0
106 ; 5237083.670300218 ; 2.0211930825185195E8 ; 5.411061594510944E8 ; 1.9733242950400166E10 ; 0.0
107 ; 5228599.390962721 ; 2.021336120271526E8 ; 5.463432431213946E8 ; 1.9935362258652016E10 ; 0.0
108 ; 5223476.529347302 ; 2.0214791466061354E8 ; 5.515718425123574E8 ; 2.013749587067917E10 ; 0.0
109 ; 5220517.214298574 ; 2.0216221510189068E8 ; 5.567953190417047E8 ; 2.0339643785339783E10 ; 0.0
110 ; 5215611.763135172 ; 2.021765123245157E8 ; 5.620158362560033E8 ; 2.0541806000441673E10 ; 0.0
111 ; 5207079.176766171 ; 2.0219080532505974E8 ; 5.672314480191385E8 ; 2.074398251276619E10 ; 0.0
112 ; 5199897.465581683 ; 2.0220509312233087E8 ; 5.724385271959046E8 ; 2.0946173318091248E10 ; 0.0
113 ; 5194434.375232465 ; 2.0221937475660345E8 ; 5.776384246614863E8 ; 2.1148378411213577E10 ; 0.0
114 ; 5188302.81568465 ; 2.0223364928887808E8 ; 5.828328590367187E8 ; 2.135059778597018E10 ; 0.0
115 ; 5180853.987959755 ; 2.0224791580017132E8 ; 5.880211618524034E8 ; 2.155283143525906E10 ; 0.0
116 ; 5176367.916683091 ; 2.022621733908335E8 ; 5.932020158403631E8 ; 2.175507935105923E10 ; 0.0
117 ; 5167461.219390489 ; 2.022764211798936E8 ; 5.983783837570462E8 ; 2.1957341524450066E10 ; 0.0
118 ; 5159228.608421913 ; 2.0229065830443037E8 ; 6.035458449764367E8 ; 2.215961794562996E10 ; 0.0
119 ; 5153034.803551476 ; 2.0230488391896775E8 ; 6.087050735848587E8 ; 2.236190860393439E10 ; 0.0
120 ; 5145094.684320085 ; 2.02319097194895E8 ; 6.138581083884101E8 ; 2.256421348785336E10 ; 0.0
121 ; 5136470.675336132 ; 2.0233329731990883E8 ; 6.190032030727302E8 ; 2.2766532585048256E10 ; 0.0
122 ; 5132020.577444787 ; 2.023474834974781E8 ; 6.241396737480663E8 ; 2.2968865882368164E10 ; 0.0
123 ; 5123613.283335555 ; 2.0236165494632918E8 ; 6.292716943255111E8 ; 2.3171213365865643E10 ; 0.0
124 ; 5117129.8223233605 ; 2.0237581089995152E8 ; 6.343953076088467E8 ; 2.3373575020811974E10 ; 0.0
125 ; 5107639.266533732 ; 2.023899506061225E8 ; 6.3951243743117E8 ; 2.3575950831711926E10 ; 0.0
126 ; 5099935.560651348 ; 2.0240407332645088E8 ; 6.446200766977037E8 ; 2.3778340782318047E10 ; 0.0
127 ; 5093259.358720423 ; 2.0241817833593786E8 ; 6.49720012258355E8 ; 2.3980744855644497E10 ; 0.0
128 ; 5084983.728637043 ; 2.0243226492255503E8 ; 6.548132716170754E8 ; 2.4183163033980434E10 ; 0.0
129 ; 5076984.598912392 ; 2.0244633238683888E8 ; 6.598982553457125E8 ; 2.438559529890299E10 ; 0.0
130 ; 5067886.731175309 ; 2.0246038004150075E8 ; 6.649752399446249E8 ; 2.4588041631289825E10 ; 0.0
131 ; 5054489.960065457 ; 2.0247440721105164E8 ; 6.700431266758002E8 ; 2.4790502011331326E10 ; 0.0
132 ; 5043198.671104406 ; 2.024884132314416E8 ; 6.750976166358657E8 ; 2.4992976418542377E10 ; 0.0
133 ; 5030465.991137784 ; 2.0250239744971272E8 ; 6.801408153069701E8 ; 2.519546483177382E10 ; 0.0
134 ; 5021563.927013035 ; 2.0251635922366533E8 ; 6.851712812981079E8 ; 2.539796722922353E10 ; 0.0
135 ; 5006625.949471767 ; 2.0253029792153692E8 ; 6.901928452251209E8 ; 2.5600483588447197E10 ; 0.0
136 ; 4993290.56154258 ; 2.0254421292169306E8 ; 6.951994711745926E8 ; 2.5803013886368732E10 ; 0.0
137 ; 4985441.708070062 ; 2.025581036123301E8 ; 7.001927617361352E8 ; 2.6005558099290424E10 ; 0.0
138 ; 4967793.024882864 ; 2.0257196939118895E8 ; 7.051782034442053E8 ; 2.6208116202902756E10 ; 0.0
139 ; 4957867.904010537 ; 2.0258580966527957E8 ; 7.101459964690882E8 ; 2.6410688172293945E10 ; 0.0
140 ; 4945782.309802464 ; 2.0259962385061565E8 ; 7.151038643730987E8 ; 2.6613273981959225E10 ; 0.0
141 ; 4929767.034830056 ; 2.0261341137195945E8 ; 7.200496466829011E8 ; 2.681587360580984E10 ; 0.0
142 ; 4919721.852940112 ; 2.0262717166257566E8 ; 7.249794137177312E8 ; 2.70184870171818E10 ; 0.0
143 ; 4906806.61715441 ; 2.0264090416399473E8 ; 7.298991355706713E8 ; 2.7221114188844376E10 ; 0.0
144 ; 4894603.5187718775 ; 2.026546083257846E8 ; 7.348059421878257E8 ; 2.742375509300837E10 ; 0.0
145 ; 4883509.726199063 ; 2.0266828360533112E8 ; 7.397005457065976E8 ; 2.7626409701334152E10 ; 0.0
146 ; 4876656.9592677085 ; 2.0268192946762612E8 ; 7.445840554327966E8 ; 2.7829077984939484E10 ; 0.0
147 ; 4868288.690118286 ; 2.026955453850636E8 ; 7.494607123920643E8 ; 2.803175991440711E10 ; 0.0
148 ; 4861932.100255961 ; 2.0270913083724293E8 ; 7.543290010821826E8 ; 2.823445545979217E10 ; 0.0
149 ; 4850877.754874672 ; 2.0272268531077948E8 ; 7.591909331824386E8 ; 2.8437164590629414E10 ; 0.0
150 ; 4846442.443010581 ; 2.0273620829912198E8 ; 7.640418109373133E8 ; 2.8639887275940193E10 ; 0.0
151 ; 4833193.41017579 ; 2.027496993023762E8 ; 7.688882533803239E8 ; 2.8842623484239315E10 ; 0.0
152 ; 4825151.1012889175 ; 2.0276315782713556E8 ; 7.737214467904997E8 ; 2.904537318354169E10 ; 0.0
153 ; 4822158.49952644 ; 2.0277658338631693E8 ; 7.785465978917886E8 ; 2.9248136341368828E10 ; 0.0
154 ; 4809123.222212253 ; 2.027899754990031E8 ; 7.83368756391315E8 ; 2.9450912924755146E10 ; 0.0
155 ; 4799918.173544977 ; 2.028033336902903E8 ; 7.881778796135272E8 ; 2.965370290025415E10 ; 0.0
156 ; 4792273.421009755 ; 2.0281665749114132E8 ; 7.929777977870722E8 ; 2.985650623394444E10 ; 0.0
157 ; 4784143.780990982 ; 2.0282994643824372E8 ; 7.97770071208082E8 ; 3.005932289143558E10 ; 0.0
158 ; 4774209.836295225 ; 2.028432000738731E8 ; 8.025542149890729E8 ; 3.0262152837873825E10 ; 0.0
159 ; 4770659.960656147 ; 2.0285641794576123E8 ; 8.073284248253682E8 ; 3.0464996037947697E10 ; 0.0
160 ; 4758748.302403394 ; 2.028695996069684E8 ; 8.120990847860243E8 ; 3.066785245589346E10 ; 0.0
161 ; 4751225.746783155 ; 2.0288274461576077E8 ; 8.168578330884278E8 ; 3.0870722055500427E10 ; 0.0
162 ; 4739719.902091061 ; 2.0289585253549144E8 ; 8.216090588352109E8 ; 3.1073604800116188E10 ; 0.0
163 ; 4728850.375399984 ; 2.029089229344861E8 ; 8.26348778737302E8 ; 3.127650065265168E10 ; 0.0
164 ; 4725496.674776811 ; 2.0292195538593212E8 ; 8.310776291127019E8 ; 3.1479409575586166E10 ; 0.0
165 ; 4714364.266624131 ; 2.0293494946777198E8 ; 8.358031257874787E8 ; 3.16823315309721E10 ; 0.0
166 ; 4706121.669477222 ; 2.0294790476259995E8 ; 8.405174900541028E8 ; 3.1885266480439873E10 ; 0.0
167 ; 4695442.437293428 ; 2.0296082085756242E8 ; 8.4522361172358E8 ; 3.2088214385202473E10 ; 0.0
168 ; 4690692.617614737 ; 2.0297369734426168E8 ; 8.499190541608734E8 ; 3.2291175206060036E10 ; 0.0
169 ; 4681966.115083199 ; 2.029865338186629E8 ; 8.546097467784882E8 ; 3.2494148903404297E10 ; 0.0
170 ; 4669334.8336713705 ; 2.0299932988100436E8 ; 8.592917128935714E8 ; 3.269713543722296E10 ; 0.0
171 ; 4661652.3075604085 ; 2.030120851357104E8 ; 8.639610477272427E8 ; 3.2900134767103966E10 ; 0.0
172 ; 4653160.196897813 ; 2.0302479919130772E8 ; 8.686227000348032E8 ; 3.3103146852239677E10 ; 0.0
173 ; 4644337.957425883 ; 2.030374716603443E8 ; 8.73275860231701E8 ; 3.3306171651430984E10 ; 0.0
174 ; 4637723.109186406 ; 2.0305010215931082E8 ; 8.779201981891268E8 ; 3.3509209123091328E10 ; 0.0
175 ; 4632255.218757958 ; 2.0306269030856505E8 ; 8.825579212983133E8 ; 3.3712259225250637E10 ; 0.0
176 ; 4626457.363577176 ; 2.0307523573225865E8 ; 8.871901765170712E8 ; 3.39153219155592E10 ; 0.0
177 ; 4618534.312983432 ; 2.0308773805826616E8 ; 8.918166338806484E8 ; 3.411839715129146E10 ; 0.0
178 ; 4612789.486251427 ; 2.0310019691811666E8 ; 8.964351681936318E8 ; 3.4321484889349724E10 ; 0.0
179 ; 4604587.282025589 ; 2.0311261194692752E8 ; 9.010479576798832E8 ; 3.452458508626784E10 ; 0.0
180 ; 4595663.244357063 ; 2.031249827833404E8 ; 9.056525449619088E8 ; 3.472769769821477E10 ; 0.0
181 ; 4590115.763113325 ; 2.031373090694592E8 ; 9.102482082062659E8 ; 3.493082268099811E10 ; 0.0
182 ; 4582923.087689306 ; 2.0314959045079026E8 ; 9.148383239693793E8 ; 3.5133959990067566E10 ; 0.0
183 ; 4576770.793649827 ; 2.0316182657618436E8 ; 9.194212470570686E8 ; 3.533710958051836E10 ; 0.0
184 ; 4569406.597168903 ; 2.0317401709778062E8 ; 9.239980178507184E8 ; 3.554027140709454E10 ; 0.0
185 ; 4564697.666946844 ; 2.0318616167095232E8 ; 9.285674244478873E8 ; 3.574344542419232E10 ; 0.0
186 ; 4554719.223755984 ; 2.0319825995425436E8 ; 9.331321221148342E8 ; 3.594663158586327E10 ; 0.0
187 ; 4550100.4524260415 ; 2.032103116093725E8 ; 9.376868413385901E8 ; 3.614982984581753E10 ; 0.0
188 ; 4538352.016036657 ; 2.032223163010742E8 ; 9.422369417910162E8 ; 3.63530401574269E10 ; 0.0
189 ; 4537480.149856894 ; 2.03234273697161E8 ; 9.467752938070529E8 ; 3.6556262473727974E10 ; 0.0
190 ; 4530461.866580767 ; 2.032461834684226E8 ; 9.513127739569098E8 ; 3.675949674742513E10 ; 0.0
191 ; 4522752.842133884 ; 2.0325804528859216E8 ; 9.558432358234905E8 ; 3.6962742930893555E10 ; 0.0
192 ; 4514366.450641506 ; 2.0326985883430326E8 ; 9.603659886656244E8 ; 3.7166000976182144E10 ; 0.0
193 ; 4504693.349062393 ; 2.0328162378504813E8 ; 9.648803551162659E8 ; 3.736927083501645E10 ; 0.0
194 ; 4505478.524796886 ; 2.0329333982313713E8 ; 9.693850484653283E8 ; 3.75725524588015E10 ; 0.0
195 ; 4492261.414189104 ; 2.033050066336597E8 ; 9.738905269901252E8 ; 3.777584579862463E10 ; 0.0
196 ; 4488594.673823503 ; 2.0331662390444645E8 ; 9.783827884043143E8 ; 3.797915080525829E10 ; 0.0
197 ; 4482572.240788674 ; 2.0332819132603243E8 ; 9.828713830781378E8 ; 3.818246742916274E10 ; 0.0
198 ; 4477371.385204751 ; 2.0333970859162158E8 ; 9.873539553189265E8 ; 3.838579562048878E10 ; 0.0
199 ; 4469019.531491595 ; 2.0335117539705238E8 ; 9.918313267041312E8 ; 3.85891353290804E10 ; 0.0
200 ; 4460919.491093376 ; 1.9434778193393305E8 ; 9.963003462356229E8 ; 3.879248650447745E10 ; 0.0
201 ; 4454675.10754956 ; 1.5453396320491025E8 ; 1.0007612657267163E9 ; 3.898683428641138E10 ; 0.0
