CSV File for the City 6 on Day 311
1 - Minute m 
2 - Power Consumed at minute m 
3 - Power Produced at minute m 
4 - Energy Consumed since the beginning of the day 
5 - Energy Produced since the beginning of the day 
6 - Energy Lost since the beginning of the day on lines starting from the city
 
0 ; 1.129711183243201E7 ; 1.0675437260757867E8 ; 0.0 ; 0.0 ; 0.0
1 ; 1.1307676460744137E7 ; 1.0690500991004622E8 ; 1.129711183243201E7 ; 1.0675437260757867E8 ; 0.0
2 ; 1.1319210145078527E7 ; 1.0736466893623134E8 ; 2.2604788293176144E7 ; 2.1365938251762488E8 ; 0.0
3 ; 1.1336138423941126E7 ; 1.0813335231604803E8 ; 3.392399843825467E7 ; 3.210240514538562E8 ; 0.0
4 ; 1.1354440486712791E7 ; 1.0921106239291704E8 ; 4.52601368621958E7 ; 4.2915740376990426E8 ; 0.0
5 ; 1.137485413831129E7 ; 1.1059780121540529E8 ; 5.661457734890859E7 ; 5.383684661628213E8 ; 0.0
6 ; 1.140185718274827E7 ; 1.1229357052982858E8 ; 6.798943148721987E7 ; 6.489662673782265E8 ; 0.0
7 ; 1.1440190360532643E7 ; 1.1429837177388138E8 ; 7.939128866996814E7 ; 7.612598379080551E8 ; 0.0
8 ; 1.1489519137466846E7 ; 1.166122060713464E8 ; 9.083147903050078E7 ; 8.755582096819365E8 ; 0.0
9 ; 1.1576434288453866E7 ; 1.1923507422793138E8 ; 1.0232099816796763E8 ; 9.921704157532829E8 ; 0.0
10 ; 1.1699122318333432E7 ; 1.2216697672826874E8 ; 1.138974324564215E8 ; 1.1114054899812143E9 ; 0.0
11 ; 1.1895727086125383E7 ; 1.2540791373410425E8 ; 1.2559655477475493E8 ; 1.2335724667094831E9 ; 0.0
12 ; 1.2214201742357258E7 ; 1.289578850836921E8 ; 1.3749228186088032E8 ; 1.3589803804435873E9 ; 0.0
13 ; 1.2520550972848874E7 ; 1.3281689029239988E8 ; 1.4970648360323757E8 ; 1.4879382655272794E9 ; 0.0
14 ; 1.2558993882998908E7 ; 1.3698492855451995E8 ; 1.6222703457608643E8 ; 1.6207551558196793E9 ; 0.0
15 ; 1.2572083372665709E7 ; 1.4146199874626946E8 ; 1.7478602845908535E8 ; 1.7577400843741992E9 ; 0.0
16 ; 1.2586893277803563E7 ; 1.4624809942995408E8 ; 1.8735811183175105E8 ; 1.8992020831204686E9 ; 0.0
17 ; 1.2604000092263794E7 ; 1.513432288592579E8 ; 1.9994500510955462E8 ; 2.0454501825504227E9 ; 0.0
18 ; 1.2616091236151405E7 ; 1.5674738498561406E8 ; 2.125490052018184E8 ; 2.1967934114096804E9 ; 0.0
19 ; 1.2633518035979513E7 ; 1.6246056546560177E8 ; 2.251650964379698E8 ; 2.353540796395294E9 ; 0.0
20 ; 1.2650223717186406E7 ; 1.6848276766930702E8 ; 2.377986144739493E8 ; 2.516001361860896E9 ; 0.0
21 ; 1.2664944383926202E7 ; 1.748139886895775E8 ; 2.504488381911357E8 ; 2.6844841295302033E9 ; 0.0
22 ; 1.2679587673534498E7 ; 1.8145422535209638E8 ; 2.6311378257506192E8 ; 2.859298118219781E9 ; 0.0
23 ; 1.2693656151654484E7 ; 1.8840347422619593E8 ; 2.7579337024859643E8 ; 3.0407523435718775E9 ; 0.0
24 ; 1.2709564286119856E7 ; 1.9566173163632482E8 ; 2.884870264002509E8 ; 3.2291558177980733E9 ; 0.0
25 ; 1.2727735153711163E7 ; 2.019170345722687E8 ; 3.011965906863708E8 ; 3.424817549434398E9 ; 0.0
26 ; 1.2740989286146823E7 ; 2.0192292673856258E8 ; 3.1392432584008193E8 ; 3.6267345840066667E9 ; 0.0
27 ; 1.2758015733205244E7 ; 2.019291730923034E8 ; 3.2666531512622875E8 ; 3.8286575107452292E9 ; 0.0
28 ; 1.2770485187201796E7 ; 2.019357691031354E8 ; 3.39423330859434E8 ; 4.0305866838375325E9 ; 0.0
29 ; 1.2786533053985665E7 ; 2.019427100599264E8 ; 3.521938160466358E8 ; 4.232522452940668E9 ; 0.0
30 ; 1.2802196913526386E7 ; 2.0194999108433276E8 ; 3.6498034910062146E8 ; 4.434465163000594E9 ; 0.0
31 ; 1.2816851117073106E7 ; 2.019576071444175E8 ; 3.777825460141479E8 ; 4.636415154084927E9 ; 0.0
32 ; 1.2828975870759608E7 ; 2.01965553068245E8 ; 3.90599397131221E8 ; 4.838372761229344E9 ; 0.0
33 ; 1.2845825963306429E7 ; 2.0197382355737987E8 ; 4.034283730019806E8 ; 5.040338314297589E9 ; 0.0
34 ; 1.2857359229621727E7 ; 2.0198241320022273E8 ; 4.16274198965287E8 ; 5.242312137854969E9 ; 0.0
35 ; 1.286986968127532E7 ; 2.019913164851208E8 ; 4.2913155819490874E8 ; 5.444294551055192E9 ; 0.0
36 ; 1.2881794441281931E7 ; 2.020005278131974E8 ; 4.4200142787618405E8 ; 5.646285867540313E9 ; 0.0
37 ; 1.2891335949048975E7 ; 2.020100415108495E8 ; 4.5488322231746596E8 ; 5.84828639535351E9 ; 0.0
38 ; 1.2907460436219942E7 ; 2.020198518418685E8 ; 4.6777455826651496E8 ; 6.05029643686436E9 ; 0.0
39 ; 1.2919150458814977E7 ; 2.0202995301914614E8 ; 4.806820187027349E8 ; 6.252316288706228E9 ; 0.0
40 ; 1.2926789850251438E7 ; 2.0204033921593204E8 ; 4.9360116916154987E8 ; 6.454346241725374E9 ; 0.0
41 ; 1.2940015977053473E7 ; 2.0205100457661542E8 ; 5.065279590118013E8 ; 6.656386580941306E9 ; 0.0
42 ; 1.2943162032152971E7 ; 2.0206194322700968E8 ; 5.1946797498885477E8 ; 6.858437585517921E9 ; 0.0
43 ; 1.295936718233948E7 ; 2.0207314928412262E8 ; 5.324111370210077E8 ; 7.060499528744931E9 ; 0.0
44 ; 1.2967523704160176E7 ; 2.020846168654006E8 ; 5.453705042033472E8 ; 7.262572678029054E9 ; 0.0
45 ; 1.297330523124074E7 ; 2.020963400974395E8 ; 5.583380279075074E8 ; 7.464657294894454E9 ; 0.0
46 ; 1.2982606432565978E7 ; 2.0210831312415886E8 ; 5.713113331387482E8 ; 7.666753634991894E9 ; 0.0
47 ; 1.299310808888066E7 ; 2.021205301144408E8 ; 5.842939395713141E8 ; 7.868861948116053E9 ; 0.0
48 ; 1.2996582610311175E7 ; 2.0213298526923704E8 ; 5.972870476601948E8 ; 8.070982478230494E9 ; 0.0
49 ; 1.3007225607521066E7 ; 2.0214567282815188E8 ; 6.102836302705059E8 ; 8.273115463499731E9 ; 0.0
50 ; 1.3009674335983736E7 ; 2.0215858707551086E8 ; 6.23290855878027E8 ; 8.475261136327883E9 ; 0.0
51 ; 1.301698305801837E7 ; 2.021717223459278E8 ; 6.363005302140107E8 ; 8.677419723403393E9 ; 0.0
52 ; 1.3022469005971616E7 ; 2.0218507302938417E8 ; 6.49317513272029E8 ; 8.879591445749321E9 ; 0.0
53 ; 1.3029296180697992E7 ; 2.021986335758374E8 ; 6.623399822780007E8 ; 9.081776518778706E9 ; 0.0
54 ; 1.303231356081652E7 ; 2.0221239849937537E8 ; 6.753692784586987E8 ; 9.283975152354544E9 ; 0.0
55 ; 1.302811381541929E7 ; 2.022263623819357E8 ; 6.884015920195153E8 ; 9.48618755085392E9 ; 0.0
56 ; 1.3016118320830218E7 ; 2.022405198766093E8 ; 7.014297058349346E8 ; 9.688413913235855E9 ; 0.0
57 ; 1.3006803693921525E7 ; 2.022548657105485E8 ; 7.144458241557648E8 ; 9.890654433112465E9 ; 0.0
58 ; 1.2999711609588847E7 ; 2.0226939468749958E8 ; 7.274526278496864E8 ; 1.0092909298823013E10 ; 0.0
59 ; 1.298943616054409E7 ; 2.0228410168998095E8 ; 7.404523394592752E8 ; 1.0295178693510513E10 ; 0.0
60 ; 1.2978239110198157E7 ; 2.022989816811273E8 ; 7.534417756198193E8 ; 1.0497462795200495E10 ; 0.0
61 ; 1.29675033992011E7 ; 2.0231402970622012E8 ; 7.664200147300174E8 ; 1.0699761776881622E10 ; 0.0
62 ; 1.2955745631740224E7 ; 2.0232924089392483E8 ; 7.793875181292186E8 ; 1.0902075806587843E10 ; 0.0
63 ; 1.294824336903472E7 ; 2.0234461045725444E8 ; 7.923432637609588E8 ; 1.1104405047481768E10 ; 0.0
64 ; 1.2935439376243347E7 ; 2.0236013369427875E8 ; 8.052915071299936E8 ; 1.1306749657939022E10 ; 0.0
65 ; 1.2921332529368356E7 ; 2.0237580598859814E8 ; 8.182269465062369E8 ; 1.15091097916333E10 ; 0.0
66 ; 1.291280923162517E7 ; 2.0239162280959973E8 ; 8.311482790356053E8 ; 1.1711485597621899E10 ; 0.0
67 ; 1.2905211178568762E7 ; 2.024075797125133E8 ; 8.440610882672305E8 ; 1.1913877220431498E10 ; 0.0
68 ; 1.2892035169622371E7 ; 2.0242367233828402E8 ; 8.569662994457992E8 ; 1.211628480014401E10 ; 0.0
69 ; 1.2883399809414925E7 ; 2.0243989641327727E8 ; 8.698583346154217E8 ; 1.2318708472482294E10 ; 0.0
70 ; 1.2869103478566118E7 ; 2.0245624774883124E8 ; 8.827417344248366E8 ; 1.252114836889557E10 ; 0.0
71 ; 1.2858001569419436E7 ; 2.024727222406712E8 ; 8.956108379034028E8 ; 1.2723604616644402E10 ; 0.0
72 ; 1.2844310018057996E7 ; 2.0248931586819938E8 ; 9.084688394728222E8 ; 1.2926077338885073E10 ; 0.0
73 ; 1.2838192206100345E7 ; 2.0250602469367287E8 ; 9.213131494908801E8 ; 1.3128566654753273E10 ; 0.0
74 ; 1.282458162314601E7 ; 2.025228448612818E8 ; 9.341513416969805E8 ; 1.3331072679446945E10 ; 0.0
75 ; 1.281354124349355E7 ; 2.025397725961391E8 ; 9.469759233201265E8 ; 1.3533595524308228E10 ; 0.0
76 ; 1.2801245624537375E7 ; 2.0255680420319185E8 ; 9.597894645636201E8 ; 1.3736135296904367E10 ; 0.0
77 ; 1.2787961231117506E7 ; 2.0257393606606483E8 ; 9.725907101881574E8 ; 1.393869210110756E10 ; 0.0
78 ; 1.276858406456014E7 ; 2.025911646458447E8 ; 9.853786714192749E8 ; 1.4141266037173624E10 ; 0.0
79 ; 1.2757929162000218E7 ; 2.0260848647981352E8 ; 9.981472554838351E8 ; 1.434385720181947E10 ; 0.0
80 ; 1.273854189460159E7 ; 2.0262589818013948E8 ; 1.0109051846458353E9 ; 1.4546465688299282E10 ; 0.0
81 ; 1.2726752085773846E7 ; 2.026433964325321E8 ; 1.0236437265404369E9 ; 1.4749091586479422E10 ; 0.0
82 ; 1.270801324847653E7 ; 2.026609779948683E8 ; 1.0363704786262107E9 ; 1.4951734982911953E10 ; 0.0
83 ; 1.2690302345756074E7 ; 2.0267863969579563E8 ; 1.0490784918746872E9 ; 1.5154395960906822E10 ; 0.0
84 ; 1.2673594009852957E7 ; 2.026963784333182E8 ; 1.0617687942204432E9 ; 1.5357074600602617E10 ; 0.0
85 ; 1.2659115711307254E7 ; 2.027141911733706E8 ; 1.0744423882302961E9 ; 1.5559770979035936E10 ; 0.0
86 ; 1.2642558887660267E7 ; 2.0273207494838393E8 ; 1.0871015039416034E9 ; 1.5762485170209307E10 ; 0.0
87 ; 1.2625570405622458E7 ; 2.027500268558489E8 ; 1.0997440628292637E9 ; 1.596521724515769E10 ; 0.0
88 ; 1.2610302219621213E7 ; 2.027680440568791E8 ; 1.1123696332348862E9 ; 1.6167967272013538E10 ; 0.0
89 ; 1.2593435772141684E7 ; 2.0278612377477828E8 ; 1.1249799354545074E9 ; 1.6370735316070417E10 ; 0.0
90 ; 1.2575188678669296E7 ; 2.0280426329361483E8 ; 1.137573371226649E9 ; 1.6573521439845196E10 ; 0.0
91 ; 1.2556757176460844E7 ; 2.0282245995680586E8 ; 1.1501485599053183E9 ; 1.6776325703138811E10 ; 0.0
92 ; 1.2539773874407297E7 ; 2.0284071116571358E8 ; 1.162705317081779E9 ; 1.6979148163095617E10 ; 0.0
93 ; 1.252265571248552E7 ; 2.0285901437825617E8 ; 1.1752450909561863E9 ; 1.718198887426133E10 ; 0.0
94 ; 1.2505626873142863E7 ; 2.02877367107535E8 ; 1.1877677466686718E9 ; 1.7384847888639587E10 ; 0.0
95 ; 1.248392240172614E7 ; 2.0289576692048004E8 ; 1.2002733735418148E9 ; 1.7587725255747124E10 ; 0.0
96 ; 1.2472383994715106E7 ; 2.0291421143651462E8 ; 1.212757295943541E9 ; 1.7790621022667603E10 ; 0.0
97 ; 1.2452164298290065E7 ; 2.0293269832624114E8 ; 1.2252296799382563E9 ; 1.799353523410412E10 ; 0.0
98 ; 1.243589865259216E7 ; 2.0295122531014866E8 ; 1.2376818442365463E9 ; 1.819646793243036E10 ; 0.0
99 ; 1.2414549635112848E7 ; 2.029697901573434E8 ; 1.2501177428891385E9 ; 1.839941915774051E10 ; 0.0
100 ; 1.2395245335230395E7 ; 2.0298839068430272E8 ; 1.2625322925242512E9 ; 1.8602388947897854E10 ; 0.0
101 ; 1.2380150484830705E7 ; 2.0300702475365335E8 ; 1.2749275378594816E9 ; 1.8805377338582157E10 ; 0.0
102 ; 1.2359742255837517E7 ; 2.0302569027297443E8 ; 1.2873076883443122E9 ; 1.900838436333581E10 ; 0.0
103 ; 1.2344208412602017E7 ; 2.0304438519362545E8 ; 1.2996674306001496E9 ; 1.9211410053608788E10 ; 0.0
104 ; 1.2324466480873968E7 ; 2.0306310750959975E8 ; 1.3120116390127516E9 ; 1.9414454438802414E10 ; 0.0
105 ; 1.230513603595223E7 ; 2.0308185525640348E8 ; 1.3243361054936256E9 ; 1.9617517546312016E10 ; 0.0
106 ; 1.2288807068808516E7 ; 2.0310062650996017E8 ; 1.336641241529578E9 ; 1.982059940156842E10 ; 0.0
107 ; 1.2269633994922098E7 ; 2.0311941938554105E8 ; 1.3489300485983865E9 ; 2.002370002807838E10 ; 0.0
108 ; 1.2250369567545246E7 ; 2.0313823203672087E8 ; 1.3611996825933087E9 ; 2.022681944746392E10 ; 0.0
109 ; 1.22343354855403E7 ; 2.0315706265435922E8 ; 1.3734500521608539E9 ; 2.042995767950064E10 ; 0.0
110 ; 1.2209038126054725E7 ; 2.0317590946560726E8 ; 1.3856843876463943E9 ; 2.0633114742155E10 ; 0.0
111 ; 1.2190498604971917E7 ; 2.0319477073293933E8 ; 1.397893425772449E9 ; 2.0836290651620605E10 ; 0.0
112 ; 1.2167680034497198E7 ; 2.0321364475320977E8 ; 1.410083924377421E9 ; 2.1039485422353546E10 ; 0.0
113 ; 1.2150998362795942E7 ; 2.032325298567338E8 ; 1.4222516044119182E9 ; 2.1242699067106754E10 ; 0.0
114 ; 1.2135017117768208E7 ; 2.0325142440639302E8 ; 1.434402602774714E9 ; 2.144593159696349E10 ; 0.0
115 ; 1.2111068362216167E7 ; 2.032703267967645E8 ; 1.4465376198924823E9 ; 2.164918302136988E10 ; 0.0
116 ; 1.2094241541676063E7 ; 2.0328923545327342E8 ; 1.4586486882546985E9 ; 2.1852453348166645E10 ; 0.0
117 ; 1.2071454079437925E7 ; 2.033081488313688E8 ; 1.4707429297963746E9 ; 2.205574258361992E10 ; 0.0
118 ; 1.205586004954368E7 ; 2.0332706541572186E8 ; 1.4828143838758125E9 ; 2.2259050732451286E10 ; 0.0
119 ; 1.2035130052156864E7 ; 2.0334598371944642E8 ; 1.4948702439253561E9 ; 2.246237779786701E10 ; 0.0
120 ; 1.2012377813453928E7 ; 2.0336490228334138E8 ; 1.506905373977513E9 ; 2.2665723781586456E10 ; 0.0
121 ; 1.199367651736647E7 ; 2.033838196751541E8 ; 1.518917751790967E9 ; 2.2869088683869797E10 ; 0.0
122 ; 1.1971650159419445E7 ; 2.03402734488865E8 ; 1.5309114283083334E9 ; 2.3072472503544952E10 ; 0.0
123 ; 1.1951457456098938E7 ; 2.034216453439922E8 ; 1.542883078467753E9 ; 2.3275875238033817E10 ; 0.0
124 ; 1.1929365707999662E7 ; 2.0344055088491642E8 ; 1.554834535923852E9 ; 2.3479296883377808E10 ; 0.0
125 ; 1.1911788148160506E7 ; 2.0345944978022483E8 ; 1.5667639016318517E9 ; 2.3682737434262726E10 ; 0.0
126 ; 1.1890726559469745E7 ; 2.0347834072207433E8 ; 1.5786756897800121E9 ; 2.388619688404295E10 ; 0.0
127 ; 1.1871147219339967E7 ; 2.0349722242557308E8 ; 1.5905664163394818E9 ; 2.4089675224765022E10 ; 0.0
128 ; 1.1848823251364317E7 ; 2.0351609362818003E8 ; 1.6024375635588217E9 ; 2.4293172447190594E10 ; 0.0
129 ; 1.1825534466573684E7 ; 2.0353495308912212E8 ; 1.614286386810186E9 ; 2.4496688540818775E10 ; 0.0
130 ; 1.1807521200307641E7 ; 2.0355379958882847E8 ; 1.6261119212767596E9 ; 2.4700223493907898E10 ; 0.0
131 ; 1.177661970365857E7 ; 2.035726319283814E8 ; 1.6379194424770672E9 ; 2.4903777293496727E10 ; 0.0
132 ; 1.175282701286811E7 ; 2.0359144892898333E8 ; 1.6496960621807258E9 ; 2.510734992542511E10 ; 0.0
133 ; 1.1727813626100281E7 ; 2.036102494314398E8 ; 1.661448889193594E9 ; 2.531094137435409E10 ; 0.0
134 ; 1.170375028709749E7 ; 2.0362903229565746E8 ; 1.6731767028196943E9 ; 2.551455162378553E10 ; 0.0
135 ; 1.1678762693010693E7 ; 2.0364779640015736E8 ; 1.6848804531067917E9 ; 2.571818065608119E10 ; 0.0
136 ; 1.165054230752889E7 ; 2.0366654064160237E8 ; 1.6965592157998025E9 ; 2.5921828452481346E10 ; 0.0
137 ; 1.1627905285461996E7 ; 2.0368526393433872E8 ; 1.7082097581073315E9 ; 2.6125494993122948E10 ; 0.0
138 ; 1.1598873217911033E7 ; 2.0370396520995143E8 ; 1.7198376633927934E9 ; 2.6329180257057285E10 ; 0.0
139 ; 1.1569918891371882E7 ; 2.0372264341683283E8 ; 1.7314365366107044E9 ; 2.653288422226724E10 ; 0.0
140 ; 1.155038173179462E7 ; 2.037412975197639E8 ; 1.7430064555020764E9 ; 2.673660686568407E10 ; 0.0
141 ; 1.1520889948597837E7 ; 2.037599264995083E8 ; 1.754556837233871E9 ; 2.6940348163203835E10 ; 0.0
142 ; 1.1494260461286629E7 ; 2.0377852935241845E8 ; 1.766077727182469E9 ; 2.7144108089703342E10 ; 0.0
143 ; 1.146848287860384E7 ; 2.0379710509005344E8 ; 1.7775719876437554E9 ; 2.734788661905576E10 ; 0.0
144 ; 1.1441848461581122E7 ; 2.0381565273880824E8 ; 1.7890404705223594E9 ; 2.7551683724145813E10 ; 0.0
145 ; 1.1422584881384024E7 ; 2.0383417133955425E8 ; 1.8004823189839406E9 ; 2.775549937688462E10 ; 0.0
146 ; 1.1397650110659242E7 ; 2.0385265994729027E8 ; 1.8119049038653247E9 ; 2.7959333548224174E10 ; 0.0
147 ; 1.1374425193165649E7 ; 2.0387111763080436E8 ; 1.823302553975984E9 ; 2.8163186208171463E10 ; 0.0
148 ; 1.1354246067908803E7 ; 2.0388954347234535E8 ; 1.8346769791691496E9 ; 2.836705732580227E10 ; 0.0
149 ; 1.13391615747019E7 ; 2.039079365673045E8 ; 1.8460312252370584E9 ; 2.8570946869274612E10 ; 0.0
150 ; 1.1309703245553354E7 ; 2.0392629602390647E8 ; 1.8573703868117602E9 ; 2.8774854805841915E10 ; 0.0
151 ; 1.1291268535217013E7 ; 2.0394462096290976E8 ; 1.8686800900573134E9 ; 2.897878110186582E10 ; 0.0
152 ; 1.1270903808892457E7 ; 2.0396291051731586E8 ; 1.8799713585925305E9 ; 2.918272572282873E10 ; 0.0
153 ; 1.1247858441243194E7 ; 2.0398116383208716E8 ; 1.891242262401423E9 ; 2.9386688633346046E10 ; 0.0
154 ; 1.1225996894911977E7 ; 2.0399938006387335E8 ; 1.9024901208426661E9 ; 2.9590669797178135E10 ; 0.0
155 ; 1.119954364483077E7 ; 2.040175583807458E8 ; 1.9137161177375782E9 ; 2.979466917724201E10 ; 0.0
156 ; 1.1177937252492845E7 ; 2.0403569796194005E8 ; 1.9249156613824089E9 ; 2.9998686735622753E10 ; 0.0
157 ; 1.115864520243924E7 ; 2.040537979976058E8 ; 1.9360935986349018E9 ; 3.0202722433584694E10 ; 0.0
158 ; 1.1138098622720905E7 ; 2.0407185768856442E8 ; 1.947252243837341E9 ; 3.04067762315823E10 ; 0.0
159 ; 1.1116080159079863E7 ; 2.0408987624607354E8 ; 1.958390342460062E9 ; 3.0610848089270863E10 ; 0.0
160 ; 1.1090617783619588E7 ; 2.0410785289159873E8 ; 1.9695064226191418E9 ; 3.0814937965516937E10 ; 0.0
161 ; 1.1070152511031423E7 ; 2.04125786856592E8 ; 1.9805970404027615E9 ; 3.1019045818408535E10 ; 0.0
162 ; 1.1047043275856214E7 ; 2.041436773822765E8 ; 1.9916671929137928E9 ; 3.1223171605265125E10 ; 0.0
163 ; 1.102248725828524E7 ; 2.0416152371943814E8 ; 2.002714236189649E9 ; 3.14273152826474E10 ; 0.0
164 ; 1.1001220245687284E7 ; 2.041793251282227E8 ; 2.0137367234479344E9 ; 3.1631476806366837E10 ; 0.0
165 ; 1.0979103520901557E7 ; 2.0419708087793952E8 ; 2.0247379436936216E9 ; 3.183565613149506E10 ; 0.0
166 ; 1.0955594263110237E7 ; 2.0421479024687064E8 ; 2.035717047214523E9 ; 3.2039853212373E10 ; 0.0
167 ; 1.0932168085405309E7 ; 2.0423245252208537E8 ; 2.0466726414776332E9 ; 3.2244068002619873E10 ; 0.0
168 ; 1.091462565793893E7 ; 2.0425006699926087E8 ; 2.0576048095630386E9 ; 3.244830045514196E10 ; 0.0
169 ; 1.0888375224591129E7 ; 2.042676329825074E8 ; 2.0685194352209775E9 ; 3.265255052214122E10 ; 0.0
170 ; 1.0869338943868365E7 ; 2.0428514978419894E8 ; 2.0794078104455686E9 ; 3.2856818155123726E10 ; 0.0
171 ; 1.0847201417851465E7 ; 2.043E8 ; 2.090277149389437E9 ; 3.3061103304907925E10 ; 0.0
172 ; 1.0822492431187129E7 ; 2.043E8 ; 2.1011243508072884E9 ; 3.3265403304907925E10 ; 0.0
173 ; 1.0800962944648154E7 ; 2.043E8 ; 2.1119468432384756E9 ; 3.3469703304907925E10 ; 0.0
174 ; 1.0781400636183925E7 ; 2.043E8 ; 2.1227478061831238E9 ; 3.3674003304907925E10 ; 0.0
175 ; 1.0762258104362762E7 ; 2.043E8 ; 2.1335292068193078E9 ; 3.3878303304907925E10 ; 0.0
176 ; 1.0742655859995443E7 ; 2.043E8 ; 2.1442914649236705E9 ; 3.4082603304907925E10 ; 0.0
177 ; 1.0722362439105691E7 ; 2.043E8 ; 2.155034120783666E9 ; 3.4286903304907925E10 ; 0.0
178 ; 1.0698680163667113E7 ; 2.043E8 ; 2.1657564832227716E9 ; 3.449120330490793E10 ; 0.0
179 ; 1.068314603621196E7 ; 2.043E8 ; 2.176455163386439E9 ; 3.469550330490793E10 ; 0.0
180 ; 1.0659928793428613E7 ; 2.043E8 ; 2.187138309422651E9 ; 3.489980330490793E10 ; 0.0
181 ; 1.0645290059299486E7 ; 2.043E8 ; 2.197798238216079E9 ; 3.510410330490793E10 ; 0.0
182 ; 1.0623548291629849E7 ; 2.043E8 ; 2.2084435282753787E9 ; 3.530840330490793E10 ; 0.0
183 ; 1.060682100930853E7 ; 2.043E8 ; 2.2190670765670085E9 ; 3.551270330490793E10 ; 0.0
184 ; 1.0589016331750423E7 ; 2.043E8 ; 2.229673897576317E9 ; 3.571700330490793E10 ; 0.0
185 ; 1.0567392453674596E7 ; 2.043E8 ; 2.240262913908067E9 ; 3.592130330490793E10 ; 0.0
186 ; 1.0546298605257723E7 ; 2.043E8 ; 2.250830306361742E9 ; 3.612560330490793E10 ; 0.0
187 ; 1.0530704509635834E7 ; 2.043E8 ; 2.2613766049669995E9 ; 3.632990330490793E10 ; 0.0
188 ; 1.0509931378325194E7 ; 2.043E8 ; 2.2719073094766355E9 ; 3.653420330490793E10 ; 0.0
189 ; 1.0485173618974784E7 ; 2.043E8 ; 2.2824172408549604E9 ; 3.673850330490793E10 ; 0.0
190 ; 1.047135529943933E7 ; 2.043E8 ; 2.292902414473935E9 ; 3.694280330490793E10 ; 0.0
191 ; 1.0451595286476133E7 ; 2.043E8 ; 2.3033737697733746E9 ; 3.714710330490793E10 ; 0.0
192 ; 1.0430477408497423E7 ; 2.043E8 ; 2.3138253650598507E9 ; 3.735140330490793E10 ; 0.0
193 ; 1.0412016676844127E7 ; 2.043E8 ; 2.324255842468348E9 ; 3.755570330490793E10 ; 0.0
194 ; 1.0394916607325487E7 ; 2.043E8 ; 2.334667859145192E9 ; 3.776000330490793E10 ; 0.0
195 ; 1.0373315421577599E7 ; 2.043E8 ; 2.3450627757525177E9 ; 3.796430330490793E10 ; 0.0
196 ; 1.0351145686567932E7 ; 2.043E8 ; 2.355436091174095E9 ; 3.816860330490793E10 ; 0.0
197 ; 1.0333285042696761E7 ; 2.043E8 ; 2.365787236860663E9 ; 3.837290330490793E10 ; 0.0
198 ; 1.0310841302238679E7 ; 2.043E8 ; 2.37612052190336E9 ; 3.857720330490793E10 ; 0.0
