CSV File for the City 1 on Day 328
1 - Minute m 
2 - Power Consumed at minute m 
3 - Power Produced at minute m 
4 - Energy Consumed since the beginning of the day 
5 - Energy Produced since the beginning of the day 
6 - Energy Lost since the beginning of the day on lines starting from the city
 
0 ; 1.6154236172549801E7 ; 1.0573911670023689E8 ; 0.0 ; 0.0 ; 0.0
1 ; 1.6171197666235805E7 ; 1.0589201255699337E8 ; 1.6154236172549801E7 ; 1.0573911670023689E8 ; 0.0
2 ; 1.6194299794900117E7 ; 1.0635369711670998E8 ; 3.2325433838785604E7 ; 2.1163112925723025E8 ; 0.0
3 ; 1.620916453414438E7 ; 1.0712417145751274E8 ; 4.851973363368572E7 ; 3.179848263739402E8 ; 0.0
4 ; 1.623402537765281E7 ; 1.082034365407123E8 ; 6.47288981678301E7 ; 4.2510899783145297E8 ; 0.0
5 ; 1.6263680872471064E7 ; 1.0959149320715302E8 ; 8.096292354548292E7 ; 5.3331243437216526E8 ; 0.0
6 ; 1.6297607374368928E7 ; 1.1128834217397764E8 ; 9.722660441795398E7 ; 6.429039275793183E8 ; 0.0
7 ; 1.6360611772794656E7 ; 1.1329398403183806E8 ; 1.135242117923229E8 ; 7.541922697532959E8 ; 0.0
8 ; 1.643326352577795E7 ; 1.1560841924257678E8 ; 1.2988482356511757E8 ; 8.67486253785134E8 ; 0.0
9 ; 1.6551164492825836E7 ; 1.1823164813740063E8 ; 1.4631808709089553E8 ; 9.830946730277107E8 ; 0.0
10 ; 1.6737596786946E7 ; 1.2116367091556394E8 ; 1.6286925158372137E8 ; 1.1013263211651113E9 ; 0.0
11 ; 1.7025102135933638E7 ; 1.244044876435735E8 ; 1.7960684837066737E8 ; 1.2224899920806751E9 ; 0.0
12 ; 1.748499152040485E7 ; 1.2795409825492248E8 ; 1.96631950506601E8 ; 1.3468944797242486E9 ; 0.0
13 ; 1.7934516422030903E7 ; 1.3181250255035657E8 ; 2.1411694202700585E8 ; 1.474848577979171E9 ; 0.0
14 ; 1.7986099032639943E7 ; 1.3597970019866902E8 ; 2.3205145844903675E8 ; 1.6066610805295277E9 ; 0.0
15 ; 1.8008422346108813E7 ; 1.404556907380172E8 ; 2.500375574816767E8 ; 1.7426407807281966E9 ; 0.0
16 ; 1.8025659861178707E7 ; 1.4524047357774934E8 ; 2.6804597982778552E8 ; 1.8830964714662137E9 ; 0.0
17 ; 1.8052648180362638E7 ; 1.5033404800072262E8 ; 2.8607163968896425E8 ; 2.028336945043963E9 ; 0.0
18 ; 1.8070878654183038E7 ; 1.557364131660927E8 ; 3.041242878693269E8 ; 2.1786709930446854E9 ; 0.0
19 ; 1.8089301146306783E7 ; 1.6144756811254892E8 ; 3.221951665235099E8 ; 2.334407406210778E9 ; 0.0
20 ; 1.81192251795993E7 ; 1.6746751176196525E8 ; 3.4028446766981673E8 ; 2.495854974323327E9 ; 0.0
21 ; 1.813747561681204E7 ; 1.7379624292343637E8 ; 3.58403692849416E8 ; 2.6633224860852923E9 ; 0.0
22 ; 1.8159595132988326E7 ; 1.8043376029766244E8 ; 3.7654116846622807E8 ; 2.8371187290087285E9 ; 0.0
23 ; 1.81787011274713E7 ; 1.87380062481647E8 ; 3.947007635992164E8 ; 3.017552489306391E9 ; 0.0
24 ; 1.8199499469592065E7 ; 1.946351479736684E8 ; 4.128794647266877E8 ; 3.204932551788038E9 ; 0.0
25 ; 1.8225906832809925E7 ; 2.0088705607666963E8 ; 4.3107896419627976E8 ; 3.3995676997617064E9 ; 0.0
26 ; 1.8243332688601937E7 ; 2.0088933294055417E8 ; 4.493048710290897E8 ; 3.600454755838376E9 ; 0.0
27 ; 1.8269708158170562E7 ; 2.008917460926442E8 ; 4.675482037176916E8 ; 3.80134408877893E9 ; 0.0
28 ; 1.82890359948574E7 ; 2.0089429369012234E8 ; 4.858179118758622E8 ; 4.0022358348715744E9 ; 0.0
29 ; 1.8313791243941143E7 ; 2.0089697381902215E8 ; 5.0410694787071955E8 ; 4.2031301285616965E9 ; 0.0
30 ; 1.832810006964413E7 ; 2.0089978450001267E8 ; 5.224207391146607E8 ; 4.404027102380718E9 ; 0.0
31 ; 1.8346567364760198E7 ; 2.0090272369418553E8 ; 5.407488391843048E8 ; 4.604926886880731E9 ; 0.0
32 ; 1.837127872881074E7 ; 2.0090578930881196E8 ; 5.59095406549065E8 ; 4.805829610574916E9 ; 0.0
33 ; 1.8388492719255377E7 ; 2.009089792030378E8 ; 5.774666852778758E8 ; 5.006735399883728E9 ; 0.0
34 ; 1.841005731732824E7 ; 2.009122911934878E8 ; 5.958551779971311E8 ; 5.207644379086766E9 ; 0.0
35 ; 1.843086017949498E7 ; 2.009157230597529E8 ; 6.142652353144593E8 ; 5.408556670280254E9 ; 0.0
36 ; 1.8443082041791096E7 ; 2.0091927254973674E8 ; 6.326960954939543E8 ; 5.609472393340007E9 ; 0.0
37 ; 1.84630957198203E7 ; 2.009229373848407E8 ; 6.511391775357454E8 ; 5.810391665889744E9 ; 0.0
38 ; 1.847804501623161E7 ; 2.0092671526496926E8 ; 6.696022732555656E8 ; 6.011314603274585E9 ; 0.0
39 ; 1.849530106927737E7 ; 2.0093060387334058E8 ; 6.880803182717973E8 ; 6.212241318539554E9 ; 0.0
40 ; 1.8506184005380403E7 ; 2.0093460088108903E8 ; 7.065756193410747E8 ; 6.413171922412894E9 ; 0.0
41 ; 1.851813050612955E7 ; 2.0093870395165E8 ; 7.250818033464551E8 ; 6.614106523293983E9 ; 0.0
42 ; 1.853559829073618E7 ; 2.00942910744919E8 ; 7.435999338525846E8 ; 6.815045227245633E9 ; 0.0
43 ; 1.855079781400756E7 ; 2.0094721892117995E8 ; 7.621355321433208E8 ; 7.015988137990552E9 ; 0.0
44 ; 1.8561089825459488E7 ; 2.0095162614479855E8 ; 7.806863299573283E8 ; 7.216935356911732E9 ; 0.0
45 ; 1.857723800024075E7 ; 2.009561300876806E8 ; 7.992474197827878E8 ; 7.41788698305653E9 ; 0.0
46 ; 1.858716463806947E7 ; 2.0096072843249458E8 ; 8.178246577830286E8 ; 7.618843113144211E9 ; 0.0
47 ; 1.859621701492824E7 ; 2.0096541887566108E8 ; 8.364118224210981E8 ; 7.819803841576705E9 ; 0.0
48 ; 1.8602594020253986E7 ; 2.009701991301129E8 ; 8.550080394360263E8 ; 8.020769260452366E9 ; 0.0
49 ; 1.861176808202578E7 ; 2.009750669278295E8 ; 8.736106334562804E8 ; 8.221739459582479E9 ; 0.0
50 ; 1.862262929382333E7 ; 2.0098002002215305E8 ; 8.922224015383061E8 ; 8.422714526510308E9 ; 0.0
51 ; 1.8623951525849827E7 ; 2.009850561898914E8 ; 9.108450308321295E8 ; 8.623694546532461E9 ; 0.0
52 ; 1.8633219745669417E7 ; 2.0099017323321655E8 ; 9.294689823579793E8 ; 8.824679602722353E9 ; 0.0
53 ; 1.864031353572101E7 ; 2.0099536898136613E8 ; 9.481022021036487E8 ; 9.02566977595557E9 ; 0.0
54 ; 1.8645206628240947E7 ; 2.010006412921567E8 ; 9.667425156393697E8 ; 9.226665144936935E9 ; 0.0
55 ; 1.8651150035002843E7 ; 2.0100598805331773E8 ; 9.853877222676107E8 ; 9.427665786229092E9 ; 0.0
56 ; 1.8655285027228933E7 ; 2.0101140718365556E8 ; 1.0040388723026135E9 ; 9.62867177428241E9 ; 0.0
57 ; 1.8663201229844004E7 ; 2.0101689663405645E8 ; 1.0226941573298424E9 ; 9.829683181466064E9 ; 0.0
58 ; 1.8672766436043758E7 ; 2.010224543883383E8 ; 1.0413573585596864E9 ; 1.003070007810012E10 ; 0.0
59 ; 1.867716531206375E7 ; 2.010280784639603E8 ; 1.0600301249957302E9 ; 1.0231722532488459E10 ; 0.0
60 ; 1.868497670532813E7 ; 2.0103376691259947E8 ; 1.0787072903077939E9 ; 1.043275061095242E10 ; 0.0
61 ; 1.8687188551678E7 ; 2.0103951782060385E8 ; 1.097392267013122E9 ; 1.0633784377865019E10 ; 0.0
62 ; 1.868647878775165E7 ; 2.0104532930933022E8 ; 1.1160794555648E9 ; 1.0834823895685623E10 ; 0.0
63 ; 1.869437081423711E7 ; 2.0105119953537586E8 ; 1.1347659343525517E9 ; 1.1035869224994953E10 ; 0.0
64 ; 1.8696015619720712E7 ; 2.0105712669071198E8 ; 1.1534603051667888E9 ; 1.1236920424530329E10 ; 0.0
65 ; 1.8703937151972044E7 ; 2.010631090027272E8 ; 1.1721563207865095E9 ; 1.143797755122104E10 ; 0.0
66 ; 1.8705794237733796E7 ; 2.010691447341887E8 ; 1.1908602579384816E9 ; 1.1639040660223768E10 ; 0.0
67 ; 1.8713636376535263E7 ; 2.0107523218312806E8 ; 1.2095660521762154E9 ; 1.1840109804957956E10 ; 0.0
68 ; 1.8720555327599734E7 ; 2.0108136968265894E8 ; 1.2282796885527506E9 ; 1.2041185037141085E10 ; 0.0
69 ; 1.872006940570748E7 ; 2.010875556007333E8 ; 1.2470002438803504E9 ; 1.2242266406823744E10 ; 0.0
70 ; 1.871934055909476E7 ; 2.0109378833984208E8 ; 1.265720313286058E9 ; 1.2443353962424477E10 ; 0.0
71 ; 1.872663471502772E7 ; 2.0110006633666632E8 ; 1.2844396538451526E9 ; 1.2644447750764318E10 ; 0.0
72 ; 1.8731445926460955E7 ; 2.0110638806168404E8 ; 1.3031662885601804E9 ; 1.2845547817100985E10 ; 0.0
73 ; 1.8733195518076155E7 ; 2.011127520187385E8 ; 1.3218977344866414E9 ; 1.3046654205162668E10 ; 0.0
74 ; 1.8735373736993935E7 ; 2.0111915674457186E8 ; 1.3406309300047176E9 ; 1.3247766957181406E10 ; 0.0
75 ; 1.874098875596322E7 ; 2.0112560080832922E8 ; 1.3593663037417116E9 ; 1.3448886113925978E10 ; 0.0
76 ; 1.8743999191092536E7 ; 2.0113208281103715E8 ; 1.378107292497675E9 ; 1.3650011714734306E10 ; 0.0
77 ; 1.8742084634912126E7 ; 2.011386013850601E8 ; 1.3968512916887674E9 ; 1.3851143797545343E10 ; 0.0
78 ; 1.874202325560492E7 ; 2.011451551935387E8 ; 1.4155933763236794E9 ; 1.4052282398930403E10 ; 0.0
79 ; 1.8739962248512343E7 ; 2.0115174292981288E8 ; 1.4343353995792844E9 ; 1.4253427554123941E10 ; 0.0
80 ; 1.8739291706267256E7 ; 2.0115836331683302E8 ; 1.4530753618277967E9 ; 1.4454579297053755E10 ; 0.0
81 ; 1.8734330556571543E7 ; 2.011650151065614E8 ; 1.471814653534064E9 ; 1.4655737660370588E10 ; 0.0
82 ; 1.873549841940287E7 ; 2.01171697079367E8 ; 1.4905489840906355E9 ; 1.485690267547715E10 ; 0.0
83 ; 1.8720743888185948E7 ; 2.0117840804341558E8 ; 1.5092844825100384E9 ; 1.5058074372556517E10 ; 0.0
84 ; 1.8723339833306566E7 ; 2.011851468340569E8 ; 1.5280052263982244E9 ; 1.5259252780599932E10 ; 0.0
85 ; 1.871861201689798E7 ; 2.0119191231321162E8 ; 1.546728566231531E9 ; 1.5460437927433989E10 ; 0.0
86 ; 1.871649430703375E7 ; 2.0119870336875847E8 ; 1.5654471782484288E9 ; 1.56616298397472E10 ; 0.0
87 ; 1.8713223363045696E7 ; 2.012055189139245E8 ; 1.5841636725554626E9 ; 1.586282854311596E10 ; 0.0
88 ; 1.8708738162307218E7 ; 2.0121235788667834E8 ; 1.6028768959185083E9 ; 1.6064034062029884E10 ; 0.0
89 ; 1.8700295739423484E7 ; 2.0121921924912897E8 ; 1.6215856340808156E9 ; 1.6265246419916563E10 ; 0.0
90 ; 1.8699120977570858E7 ; 2.0122610198693E8 ; 1.640285929820239E9 ; 1.6466465639165691E10 ; 0.0
91 ; 1.869389231834454E7 ; 2.012330051086912E8 ; 1.6589850507978098E9 ; 1.6667691741152622E10 ; 0.0
92 ; 1.8684771571321134E7 ; 2.0123992764539722E8 ; 1.6776789431161544E9 ; 1.6868924746261312E10 ; 0.0
93 ; 1.868400565361775E7 ; 2.0124686864983547E8 ; 1.6963637146874757E9 ; 1.707016467390671E10 ; 0.0
94 ; 1.86745657202236E7 ; 2.0125382719603223E8 ; 1.7150477203410935E9 ; 1.7271411542556545E10 ; 0.0
95 ; 1.866930823438532E7 ; 2.0126080237869868E8 ; 1.7337222860613172E9 ; 1.747266536975258E10 ; 0.0
96 ; 1.8663304143773984E7 ; 2.01267793312687E8 ; 1.7523915942957025E9 ; 1.767392617213128E10 ; 0.0
97 ; 1.8661984725328885E7 ; 2.0127479913245648E8 ; 1.7710548984394765E9 ; 1.7875193965443966E10 ; 0.0
98 ; 1.8653126466186427E7 ; 2.0128181899155053E8 ; 1.7897168831648054E9 ; 1.8076468764576424E10 ; 0.0
99 ; 1.864449360621591E7 ; 2.012888520620843E8 ; 1.808370009630992E9 ; 1.8277750583567974E10 ; 0.0
100 ; 1.86355259732461E7 ; 2.0129589753424358E8 ; 1.827014503237208E9 ; 1.847903943563006E10 ; 0.0
101 ; 1.863423483135875E7 ; 2.013029546157948E8 ; 1.845650029210454E9 ; 1.8680335333164303E10 ; 0.0
102 ; 1.8623455971126944E7 ; 2.013100225316061E8 ; 1.8642842640418127E9 ; 1.8881638287780098E10 ; 0.0
103 ; 1.8620234625101503E7 ; 2.0131710052317998E8 ; 1.8829077200129397E9 ; 1.9082948310311703E10 ; 0.0
104 ; 1.861405732803973E7 ; 2.013241878481969E8 ; 1.9015279546380413E9 ; 1.928426541083488E10 ; 0.0
105 ; 1.860652899561333E7 ; 2.0133128378007066E8 ; 1.920142011966081E9 ; 1.948558959868308E10 ; 0.0
106 ; 1.859703144601118E7 ; 2.013383876075144E8 ; 1.9387485409616942E9 ; 1.968692088246315E10 ; 0.0
107 ; 1.859171262885845E7 ; 2.0134549863411835E8 ; 1.9573455724077053E9 ; 1.9888259270070663E10 ; 0.0
108 ; 1.858239102663189E7 ; 2.0135261617793792E8 ; 1.9759372850365639E9 ; 2.008960476870478E10 ; 0.0
109 ; 1.8577112805735603E7 ; 2.0135973957109353E8 ; 1.9945196760631957E9 ; 2.0290957384882717E10 ; 0.0
110 ; 1.856975582452456E7 ; 2.0136686815938044E8 ; 2.0130967888689313E9 ; 2.049231712445381E10 ; 0.0
111 ; 1.855883791967442E7 ; 2.0137400130188975E8 ; 2.031666544693456E9 ; 2.0693683992613194E10 ; 0.0
112 ; 1.855058834175081E7 ; 2.0138113837063965E8 ; 2.0502253826131303E9 ; 2.0895057993915085E10 ; 0.0
113 ; 1.8541024244374637E7 ; 2.0138827875021684E8 ; 2.0687759709548812E9 ; 2.1096439132285725E10 ; 0.0
114 ; 1.8532767527701806E7 ; 2.013954218374283E8 ; 2.087316995199256E9 ; 2.1297827411035942E10 ; 0.0
115 ; 1.852457929328401E7 ; 2.0140256704096276E8 ; 2.1058497627269578E9 ; 2.149922283287337E10 ; 0.0
116 ; 1.8513428872061357E7 ; 2.0140971378106192E8 ; 2.1243743420202417E9 ; 2.1700625399914333E10 ; 0.0
117 ; 1.8509691481312763E7 ; 2.0141686148920125E8 ; 2.142887770892303E9 ; 2.1902035113695396E10 ; 0.0
118 ; 1.8499159409648106E7 ; 2.0142400960777995E8 ; 2.1613974623736157E9 ; 2.2103451975184597E10 ; 0.0
119 ; 1.8491074759649996E7 ; 2.0143115758982E8 ; 2.1798966217832637E9 ; 2.2304875984792377E10 ; 0.0
120 ; 1.8482397600161776E7 ; 2.0143830489867425E8 ; 2.198387696542914E9 ; 2.25063071423822E10 ; 0.0
121 ; 1.8470051402746692E7 ; 2.014454510077429E8 ; 2.2168700941430755E9 ; 2.2707745447280872E10 ; 0.0
122 ; 1.845689654961415E7 ; 2.0145259540019855E8 ; 2.235340145545822E9 ; 2.2909190898288616E10 ; 0.0
123 ; 1.845008949634672E7 ; 2.0145973756871948E8 ; 2.253797042095436E9 ; 2.3110643493688816E10 ; 0.0
124 ; 1.84366427894869E7 ; 2.0146687701523083E8 ; 2.272247131591783E9 ; 2.3312103231257534E10 ; 0.0
125 ; 1.8431963777437247E7 ; 2.014740132506538E8 ; 2.29068377438127E9 ; 2.3513570108272766E10 ; 0.0
126 ; 1.841821869378352E7 ; 2.0148114579466215E8 ; 2.309115738158707E9 ; 2.371504412152342E10 ; 0.0
127 ; 1.8405523027564056E7 ; 2.0148827417544615E8 ; 2.3275339568524904E9 ; 2.391652526731808E10 ; 0.0
128 ; 1.839195846215905E7 ; 2.0149539792948404E8 ; 2.3459394798800545E9 ; 2.4118013541493526E10 ; 0.0
129 ; 1.838345700044756E7 ; 2.0150251660131988E8 ; 2.3643314383422136E9 ; 2.431950893942301E10 ; 0.0
130 ; 1.83675934448643E7 ; 2.0150962974334866E8 ; 2.3827148953426614E9 ; 2.452101145602433E10 ; 0.0
131 ; 1.8353420988381166E7 ; 2.0151673691560778E8 ; 2.4010824887875257E9 ; 2.4722521085767677E10 ; 0.0
132 ; 1.8334551950136773E7 ; 2.015238376855749E8 ; 2.419435909775907E9 ; 2.4924037822683285E10 ; 0.0
133 ; 1.8317694295273844E7 ; 2.0153093162797213E8 ; 2.4377704617260437E9 ; 2.512556166036886E10 ; 0.0
134 ; 1.830207574676813E7 ; 2.0153801832457605E8 ; 2.4560881560213175E9 ; 2.532709259199683E10 ; 0.0
135 ; 1.828693060430389E7 ; 2.0154509736403382E8 ; 2.4743902317680855E9 ; 2.5528630610321407E10 ; 0.0
136 ; 1.826974541095268E7 ; 2.0155216834168464E8 ; 2.4926771623723893E9 ; 2.573017570768544E10 ; 0.0
137 ; 1.825208110333608E7 ; 2.0155923085938704E8 ; 2.510946907783342E9 ; 2.5931727876027126E10 ; 0.0
138 ; 1.8233411817202512E7 ; 2.0156628452535123E8 ; 2.5291989888866777E9 ; 2.6133287106886513E10 ; 0.0
139 ; 1.82131101927481E7 ; 2.0157332895397666E8 ; 2.5474324007038803E9 ; 2.6334853391411865E10 ; 0.0
140 ; 1.8199065264380764E7 ; 2.015803637656949E8 ; 2.5656455108966284E9 ; 2.653642672036584E10 ; 0.0
141 ; 1.8172874147608656E7 ; 2.015873885868168E8 ; 2.5838445761610093E9 ; 2.6738007084131535E10 ; 0.0
142 ; 1.8161532446115628E7 ; 2.0159440304938486E8 ; 2.602017450308618E9 ; 2.6939594472718353E10 ; 0.0
143 ; 1.8141482575518265E7 ; 2.0160140679103002E8 ; 2.6201789827547336E9 ; 2.714118887576774E10 ; 0.0
144 ; 1.812481521529635E7 ; 2.0160839945483264E8 ; 2.6383204653302517E9 ; 2.734279028255877E10 ; 0.0
145 ; 1.8112642383305173E7 ; 2.0161538068918803E8 ; 2.656445280545548E9 ; 2.7544398682013603E10 ; 0.0
146 ; 1.810177877336638E7 ; 2.0162235014767605E8 ; 2.674557922928853E9 ; 2.7746014062702793E10 ; 0.0
147 ; 1.8085837906681154E7 ; 2.0162930748893458E8 ; 2.6926597017022195E9 ; 2.7947636412850468E10 ; 0.0
148 ; 1.8078039019390427E7 ; 2.016362523765372E8 ; 2.7107455396089005E9 ; 2.81492657203394E10 ; 0.0
149 ; 1.8063096801379338E7 ; 2.0164318447887415E8 ; 2.728823578628291E9 ; 2.835090197271594E10 ; 0.0
150 ; 1.805374301062963E7 ; 2.016501034690375E8 ; 2.7468866754296703E9 ; 2.8552545157194813E10 ; 0.0
151 ; 1.8035204216975372E7 ; 2.0165700902470934E8 ; 2.7649404184403E9 ; 2.875419526066385E10 ; 0.0
152 ; 1.802692872339167E7 ; 2.0166390082805374E8 ; 2.782975622657275E9 ; 2.8955852269688557E10 ; 0.0
153 ; 1.801561519963757E7 ; 2.0167077856561178E8 ; 2.8010025513806667E9 ; 2.915751617051661E10 ; 0.0
154 ; 1.800369953004707E7 ; 2.016776419282E8 ; 2.819018166580304E9 ; 2.9359186949082222E10 ; 0.0
155 ; 1.798609946112282E7 ; 2.0168449061081183E8 ; 2.837021866110351E9 ; 2.956086459101042E10 ; 0.0
156 ; 1.79769023604161E7 ; 2.0169132431252196E8 ; 2.855007965571474E9 ; 2.9762549081621235E10 ; 0.0
157 ; 1.7963514880075786E7 ; 2.0169814273639375E8 ; 2.87298486793189E9 ; 2.9964240405933758E10 ; 0.0
158 ; 1.795318662377625E7 ; 2.0170494558938944E8 ; 2.890948382811966E9 ; 3.016593854867015E10 ; 0.0
159 ; 1.7941096738486774E7 ; 2.0171173258228302E8 ; 2.9089015694357424E9 ; 3.036764349425954E10 ; 0.0
160 ; 1.7927890413592353E7 ; 2.0171850342957568E8 ; 2.926842666174229E9 ; 3.0569355226841824E10 ; 0.0
161 ; 1.7915799830857966E7 ; 2.0172525784941405E8 ; 2.9447705565878215E9 ; 3.07710737302714E10 ; 0.0
162 ; 1.790049629002872E7 ; 2.0173199556351075E8 ; 2.962686356418679E9 ; 3.0972798988120815E10 ; 0.0
163 ; 1.7890026517433964E7 ; 2.0173871629706722E8 ; 2.980586852708708E9 ; 3.1174530983684326E10 ; 0.0
164 ; 1.7879970809683695E7 ; 2.017454197786992E8 ; 2.998476879226142E9 ; 3.137626969998139E10 ; 0.0
165 ; 1.786267146870323E7 ; 2.0175210574036404E8 ; 3.0163568500358257E9 ; 3.157801511976009E10 ; 0.0
166 ; 1.7850000371448226E7 ; 2.0175877391729066E8 ; 3.034219521504529E9 ; 3.1779767225500454E10 ; 0.0
167 ; 1.783650003302619E7 ; 2.0176542404791114E8 ; 3.052069521875977E9 ; 3.1981525999417744E10 ; 0.0
168 ; 1.782131429725538E7 ; 2.017720558737947E8 ; 3.0699060219090033E9 ; 3.2183291423465656E10 ; 0.0
169 ; 1.7812041707916696E7 ; 2.0177866913958356E8 ; 3.087727336206259E9 ; 3.238506347933945E10 ; 0.0
170 ; 1.779258595855996E7 ; 2.0178526359293047E8 ; 3.1055393779141755E9 ; 3.2586842148479034E10 ; 0.0
171 ; 1.778408227078613E7 ; 2.0179183898443857E8 ; 3.1233319638727355E9 ; 3.2788627412071964E10 ; 0.0
172 ; 1.777092626478409E7 ; 2.017983950676026E8 ; 3.141116046143522E9 ; 3.2990419251056404E10 ; 0.0
173 ; 1.775618608028189E7 ; 2.018049315987521E8 ; 3.1588869724083056E9 ; 3.319221764612401E10 ; 0.0
174 ; 1.7750849739415374E7 ; 2.018114483369962E8 ; 3.1766431584885874E9 ; 3.339402257772276E10 ; 0.0
175 ; 1.77410452486018E7 ; 2.0181794504417002E8 ; 3.1943940082280025E9 ; 3.3595834026059757E10 ; 0.0
176 ; 1.773417005416742E7 ; 2.0182442148478273E8 ; 3.2121350534766045E9 ; 3.3797651971103928E10 ; 0.0
177 ; 1.7724291508910928E7 ; 2.0183087742596713E8 ; 3.2298692235307717E9 ; 3.399947639258871E10 ; 0.0
178 ; 1.7716225894728042E7 ; 2.0183731263743058E8 ; 3.247593515039683E9 ; 3.420130727001468E10 ; 0.0
179 ; 1.7710832932890553E7 ; 2.0184372689140755E8 ; 3.265309740934411E9 ; 3.440314458265211E10 ; 0.0
180 ; 1.7703033374668434E7 ; 2.018501199626134E8 ; 3.2830205738673015E9 ; 3.460498830954352E10 ; 0.0
181 ; 1.7691882550945174E7 ; 2.0185649162819973E8 ; 3.30072360724197E9 ; 3.4806838429506134E10 ; 0.0
182 ; 1.7677857361972515E7 ; 2.018628416677107E8 ; 3.3184154897929153E9 ; 3.500869492113433E10 ; 0.0
183 ; 1.76751995390551E7 ; 2.0186916986304083E8 ; 3.3360933471548877E9 ; 3.521055776280204E10 ; 0.0
184 ; 1.766680265949334E7 ; 2.0187547599839425E8 ; 3.3537685466939425E9 ; 3.541242693266508E10 ; 0.0
185 ; 1.765857805844012E7 ; 2.0188175986024454E8 ; 3.371435349353436E9 ; 3.5614302408663475E10 ; 0.0
186 ; 1.7650220642555933E7 ; 2.018880212372963E8 ; 3.389093927411876E9 ; 3.581618416852372E10 ; 0.0
187 ; 1.76417127673742E7 ; 2.0189425992044756E8 ; 3.406744148054432E9 ; 3.601807218976102E10 ; 0.0
188 ; 1.7635363218938205E7 ; 2.019E8 ; 3.424385860821806E9 ; 3.6219966449681465E10 ; 0.0
189 ; 1.7625122781310886E7 ; 2.019E8 ; 3.4420212240407443E9 ; 3.6421866449681465E10 ; 0.0
190 ; 1.7619822138663284E7 ; 2.019E8 ; 3.4596463468220553E9 ; 3.6623766449681465E10 ; 0.0
191 ; 1.761135295876578E7 ; 2.019E8 ; 3.4772661689607186E9 ; 3.6825666449681465E10 ; 0.0
192 ; 1.7601602970926806E7 ; 2.019E8 ; 3.4948775219194846E9 ; 3.7027566449681465E10 ; 0.0
193 ; 1.759284713923623E7 ; 2.019E8 ; 3.5124791248904114E9 ; 3.7229466449681465E10 ; 0.0
194 ; 1.7580385019785672E7 ; 2.019E8 ; 3.530071972029648E9 ; 3.7431366449681465E10 ; 0.0
195 ; 1.7574543946998943E7 ; 2.019E8 ; 3.5476523570494337E9 ; 3.7633266449681465E10 ; 0.0
196 ; 1.7567581073825363E7 ; 2.019E8 ; 3.565226900996433E9 ; 3.7835166449681465E10 ; 0.0
197 ; 1.7559196216371384E7 ; 2.019E8 ; 3.582794482070258E9 ; 3.8037066449681465E10 ; 0.0
