CSV File for the City 2 on Day 243
1 - Minute m 
2 - Power Consumed at minute m 
3 - Power Produced at minute m 
4 - Energy Consumed since the beginning of the day 
5 - Energy Produced since the beginning of the day 
6 - Energy Lost since the beginning of the day on lines starting from the city
 
0 ; 297678.3243711686 ; 1.0519766769035241E8 ; 0.0 ; 0.0 ; 0.0
1 ; 298514.53274623334 ; 1.053514294949277E8 ; 297678.3243711686 ; 1.0519766769035241E8 ; 0.0
2 ; 300734.81079217885 ; 1.0581388450290462E8 ; 596192.8571174019 ; 2.105490971852801E8 ; 0.0
3 ; 302410.6726138673 ; 1.0658503499678987E8 ; 896927.6679095807 ; 3.1636298168818474E8 ; 0.0
4 ; 306128.9752967125 ; 1.0766488313226885E8 ; 1199338.340523448 ; 4.229480166849746E8 ; 0.0
5 ; 309988.0925197514 ; 1.0905343089523846E8 ; 1505467.3158201606 ; 5.3061289981724346E8 ; 0.0
6 ; 313025.7907858312 ; 1.107506800585266E8 ; 1815455.408339912 ; 6.39666330712482E8 ; 0.0
7 ; 319495.3403655424 ; 1.1275663214019698E8 ; 2128481.1991257435 ; 7.504170107710086E8 ; 0.0
8 ; 329584.20729199727 ; 1.1507128836551076E8 ; 2447976.539491286 ; 8.631736429112055E8 ; 0.0
9 ; 342181.1217070762 ; 1.1769464963463259E8 ; 2777560.7467832835 ; 9.782449312767162E8 ; 0.0
10 ; 365736.6198699614 ; 1.2062671649798733E8 ; 3119741.8684903597 ; 1.0959395809113488E9 ; 0.0
11 ; 397397.129864606 ; 1.2386748914080545E8 ; 3485478.488360321 ; 1.216566297409336E9 ; 0.0
12 ; 453308.73104441335 ; 1.2741696737785646E8 ; 3882875.618224927 ; 1.3404337865501416E9 ; 0.0
13 ; 506078.86948429927 ; 1.3127515065871549E8 ; 4336184.349269341 ; 1.467850753927998E9 ; 0.0
14 ; 512439.87100952154 ; 1.3544203808321798E8 ; 4842263.21875364 ; 1.5991259045867136E9 ; 0.0
15 ; 513895.0320334215 ; 1.3991762842610264E8 ; 5354703.089763161 ; 1.7345679426699314E9 ; 0.0
16 ; 516039.0264371631 ; 1.447019201693059E8 ; 5868598.121796582 ; 1.874485571096034E9 ; 0.0
17 ; 517910.0008216354 ; 1.4979491153999975E8 ; 6384637.148233745 ; 2.0191874912653399E9 ; 0.0
18 ; 521121.14025117643 ; 1.5519660055228734E8 ; 6902547.14905538 ; 2.16898240280534E9 ; 0.0
19 ; 524416.6237789734 ; 1.6090698505048326E8 ; 7423668.289306557 ; 2.324179003357627E9 ; 0.0
20 ; 528283.0791647049 ; 1.6692606275208077E8 ; 7948084.9130855305 ; 2.48508598840811E9 ; 0.0
21 ; 529939.0411071712 ; 1.7325383128880027E8 ; 8476367.992250236 ; 2.652012051160191E9 ; 0.0
22 ; 531832.3912079069 ; 1.7989028824447602E8 ; 9006307.033357408 ; 2.8252658824489913E9 ; 0.0
23 ; 534567.3619436598 ; 1.868354311889184E8 ; 9538139.424565315 ; 3.005156170693467E9 ; 0.0
24 ; 537190.7470905734 ; 1.940892577072525E8 ; 1.0072706786508976E7 ; 3.1919916018823857E9 ; 0.0
25 ; 540875.1801923547 ; 2.003398063227353E8 ; 1.0609897533599548E7 ; 3.386080859589638E9 ; 0.0
26 ; 542757.9724080362 ; 2.0034062255365333E8 ; 1.1150772713791903E7 ; 3.5864206659123735E9 ; 0.0
27 ; 546279.1271771489 ; 2.0034147345386258E8 ; 1.1693530686199939E7 ; 3.786761288466027E9 ; 0.0
28 ; 547074.9478184452 ; 2.003423568712237E8 ; 1.2239809813377088E7 ; 3.9871027619198895E9 ; 0.0
29 ; 549711.1822928658 ; 2.0034327074900305E8 ; 1.2786884761195533E7 ; 4.187445118791113E9 ; 0.0
30 ; 552250.9424092536 ; 2.003442131310165E8 ; 1.3336595943488399E7 ; 4.387788389540116E9 ; 0.0
31 ; 556078.7452654223 ; 2.0034518216425183E8 ; 1.3888846885897651E7 ; 4.588132602671133E9 ; 0.0
32 ; 557536.7226058546 ; 2.0034617609943354E8 ; 1.4444925631163074E7 ; 4.788477784835385E9 ; 0.0
33 ; 560678.8380424359 ; 2.0034719328995144E8 ; 1.5002462353768928E7 ; 4.988823960934819E9 ; 0.0
34 ; 563625.1606176175 ; 2.003482321895257E8 ; 1.5563141191811364E7 ; 5.189171154224771E9 ; 0.0
35 ; 564508.7272957409 ; 2.0034929134892854E8 ; 1.6126766352428982E7 ; 5.389519386414296E9 ; 0.0
36 ; 566740.9039240106 ; 2.003503694120329E8 ; 1.6691275079724723E7 ; 5.589868677763225E9 ; 0.0
37 ; 569099.9777721665 ; 2.0035146511141014E8 ; 1.7258015983648732E7 ; 5.790219047175258E9 ; 0.0
38 ; 570529.5769378605 ; 2.0035257726365742E8 ; 1.7827115961420897E7 ; 5.990570512286668E9 ; 0.0
39 ; 573097.4493687778 ; 2.0035370476459712E8 ; 1.839764553835876E7 ; 6.190923089550325E9 ; 0.0
40 ; 575134.3250426034 ; 2.003548465844597E8 ; 1.8970742987727538E7 ; 6.391276794314922E9 ; 0.0
41 ; 576028.7633544016 ; 2.00356001763134E8 ; 1.954587731277014E7 ; 6.591631640899382E9 ; 0.0
42 ; 578255.3851326178 ; 2.003571694055472E8 ; 2.012190607612454E7 ; 6.791987642662516E9 ; 0.0
43 ; 579376.779053706 ; 2.003583486772187E8 ; 2.070016146125716E7 ; 6.992344812068063E9 ; 0.0
44 ; 581848.64241667 ; 2.0035953880001765E8 ; 2.1279538240310866E7 ; 7.192703160745281E9 ; 0.0
45 ; 583049.8700886418 ; 2.0036073904814282E8 ; 2.1861386882727537E7 ; 7.393062699545299E9 ; 0.0
46 ; 583909.4124660196 ; 2.0036194874433443E8 ; 2.2444436752816178E7 ; 7.593423438593441E9 ; 0.0
47 ; 586512.2543765221 ; 2.00363167256321E8 ; 2.3028346165282197E7 ; 7.793785387337775E9 ; 0.0
48 ; 586730.3357983782 ; 2.0036439399349907E8 ; 2.361485841965872E7 ; 7.994148554594096E9 ; 0.0
49 ; 586889.0510181197 ; 2.0036562840384048E8 ; 2.42015887554571E7 ; 8.194512948587595E9 ; 0.0
50 ; 589486.3928241493 ; 2.0036686997101852E8 ; 2.478847780647522E7 ; 8.394878576991435E9 ; 0.0
51 ; 589968.1542403351 ; 2.0036811821174347E8 ; 2.537796419929937E7 ; 8.595245446962454E9 ; 0.0
52 ; 589208.608166083 ; 2.0036937267329594E8 ; 2.5967932353539705E7 ; 8.795613565174198E9 ; 0.0
53 ; 591624.1700362397 ; 2.0037063293124682E8 ; 2.655714096170579E7 ; 8.995982937847494E9 ; 0.0
54 ; 591312.5166559941 ; 2.0037189858735168E8 ; 2.714876513174203E7 ; 9.196353570778742E9 ; 0.0
55 ; 593133.8271460261 ; 2.0037316926760828E8 ; 2.7740077648398023E7 ; 9.396725469366093E9 ; 0.0
56 ; 593268.7008272506 ; 2.0037444462046513E8 ; 2.833321147554405E7 ; 9.597098638633701E9 ; 0.0
57 ; 595990.8756513565 ; 2.003757243151706E8 ; 2.8926480176371302E7 ; 9.797473083254166E9 ; 0.0
58 ; 596406.8244680372 ; 2.0037700804025155E8 ; 2.952247105202266E7 ; 9.997848807569336E9 ; 0.0
59 ; 596270.8987898105 ; 2.00378295502112E8 ; 3.0118877876490697E7 ; 1.0198225815609587E10 ; 0.0
60 ; 597498.4516404957 ; 2.0037958642374206E8 ; 3.071514877528051E7 ; 1.0398604111111698E10 ; 0.0
61 ; 597911.0299537239 ; 2.003808805435284E8 ; 3.1312647226921003E7 ; 1.059898369753544E10 ; 0.0
62 ; 599148.105956269 ; 2.0038217761415863E8 ; 3.191055825687473E7 ; 1.0799364578078968E10 ; 0.0
63 ; 600754.5809754109 ; 2.00383477401611E8 ; 3.2509706362830997E7 ; 1.0999746755693127E10 ; 0.0
64 ; 602135.437916179 ; 2.0038477968422347E8 ; 3.3110460943806406E7 ; 1.1200130233094738E10 ; 0.0
65 ; 601694.4979764067 ; 2.0038608425183517E8 ; 3.3712596381722584E7 ; 1.1400515012778961E10 ; 0.0
66 ; 603669.2323438006 ; 2.0038739090499437E8 ; 3.431429087969899E7 ; 1.1600901097030796E10 ; 0.0
67 ; 604357.3425128292 ; 2.003886994542273E8 ; 3.491796011204279E7 ; 1.1801288487935791E10 ; 0.0
68 ; 603482.0606068267 ; 2.0039000971936345E8 ; 3.552231745455562E7 ; 1.2001677187390018E10 ; 0.0
69 ; 605270.8255389635 ; 2.0039132152891198E8 ; 3.612579951516245E7 ; 1.2202067197109383E10 ; 0.0
70 ; 606876.2762043028 ; 2.003926347194854E8 ; 3.6731070340701416E7 ; 1.2402458518638294E10 ; 0.0
71 ; 606127.7800198201 ; 2.0039394913526684E8 ; 3.733794661690572E7 ; 1.260285115335778E10 ; 0.0
72 ; 607180.1237608524 ; 2.0039526462751678E8 ; 3.794407439692554E7 ; 1.2803245102493048E10 ; 0.0
73 ; 607717.5844603538 ; 2.0039658105411682E8 ; 3.855125452068639E7 ; 1.3003640367120565E10 ; 0.0
74 ; 610331.090972158 ; 2.003978982791467E8 ; 3.915897210514674E7 ; 1.3204036948174683E10 ; 0.0
75 ; 608133.9185274309 ; 2.003992161724924E8 ; 3.97693031961189E7 ; 1.3404434846453829E10 ; 0.0
76 ; 610356.1406385055 ; 2.004005346094828E8 ; 4.037743711464633E7 ; 1.3604834062626322E10 ; 0.0
77 ; 609591.5928837131 ; 2.0040185347055227E8 ; 4.098779325528484E7 ; 1.3805234597235806E10 ; 0.0
78 ; 609357.724482282 ; 2.0040317264092752E8 ; 4.159738484816855E7 ; 1.4005636450706358E10 ; 0.0
79 ; 609307.0158297227 ; 2.0040449201033673E8 ; 4.2206742572650835E7 ; 1.4206039623347286E10 ; 0.0
80 ; 609934.8588464857 ; 2.0040581147273886E8 ; 4.2816049588480555E7 ; 1.4406444115357622E10 ; 0.0
81 ; 608380.3882175202 ; 2.0040713092607215E8 ; 4.342598444732704E7 ; 1.460684992683036E10 ; 0.0
82 ; 610270.1513428218 ; 2.004084502720198E8 ; 4.4034364835544564E7 ; 1.4807257057756433E10 ; 0.0
83 ; 608270.4286249918 ; 2.0040976941579193E8 ; 4.464463498688739E7 ; 1.5007665508028454E10 ; 0.0
84 ; 609086.3553231235 ; 2.0041108826592207E8 ; 4.525290541551238E7 ; 1.5208075277444246E10 ; 0.0
85 ; 608407.5671907143 ; 2.0041240673407772E8 ; 4.5861991770835504E7 ; 1.5408486365710169E10 ; 0.0
86 ; 609176.4162202321 ; 2.0041372473488343E8 ; 4.647039933802622E7 ; 1.5608898772444246E10 ; 0.0
87 ; 608326.0827027914 ; 2.0041504218575555E8 ; 4.707957575424645E7 ; 1.580931249717913E10 ; 0.0
88 ; 608420.4119908847 ; 2.0041635900674808E8 ; 4.7687901836949244E7 ; 1.6009727539364885E10 ; 0.0
89 ; 607928.3385712805 ; 2.0041767512040833E8 ; 4.8296322248940125E7 ; 1.6210143898371634E10 ; 0.0
90 ; 608278.391637198 ; 2.0041899045164207E8 ; 4.8904250587511405E7 ; 1.6410561573492043E10 ; 0.0
91 ; 607189.5743496971 ; 2.004203049275873E8 ; 4.9512528979148604E7 ; 1.6610980563943686E10 ; 0.0
92 ; 609111.7412147503 ; 2.0042161847749618E8 ; 5.01197185534983E7 ; 1.6811400868871273E10 ; 0.0
93 ; 606169.8713200751 ; 2.0042293103262404E8 ; 5.072883029471305E7 ; 1.701182248734877E10 ; 0.0
94 ; 606328.9615567068 ; 2.0042424252612585E8 ; 5.133500016603313E7 ; 1.7212245418381393E10 ; 0.0
95 ; 607273.9142902504 ; 2.0042555289295882E8 ; 5.194132912758984E7 ; 1.741266966090752E10 ; 0.0
96 ; 605919.9909687047 ; 2.0042686206979084E8 ; 5.2548603041880086E7 ; 1.761309521380048E10 ; 0.0
97 ; 605738.7531603281 ; 2.0042816999491507E8 ; 5.315452303284879E7 ; 1.781352207587027E10 ; 0.0
98 ; 606300.5528592708 ; 2.00429476608169E8 ; 5.376026178600912E7 ; 1.8013950245865185E10 ; 0.0
99 ; 605435.4090586937 ; 2.0043078185085896E8 ; 5.436656233886839E7 ; 1.8214379722473354E10 ; 0.0
100 ; 605531.3177491412 ; 2.0043208566568884E8 ; 5.497199774792708E7 ; 1.8414810504324215E10 ; 0.0
101 ; 603018.1104826933 ; 2.0043338799669313E8 ; 5.557752906567622E7 ; 1.8615242589989902E10 ; 0.0
102 ; 603897.5447654811 ; 2.0043468878917375E8 ; 5.618054717615891E7 ; 1.8815675977986595E10 ; 0.0
103 ; 603463.1605797859 ; 2.0043598798964074E8 ; 5.678444472092439E7 ; 1.901611066677577E10 ; 0.0
104 ; 604467.675592799 ; 2.0043728554575622E8 ; 5.738790788150418E7 ; 1.9216546654765408E10 ; 0.0
105 ; 602572.673860594 ; 2.0043858140628177E8 ; 5.799237555709698E7 ; 1.9416983940311165E10 ; 0.0
106 ; 601529.1968614303 ; 2.0043987552102852E8 ; 5.8594948230957575E7 ; 1.9617422521717445E10 ; 0.0
107 ; 601805.1481954871 ; 2.004411678408103E8 ; 5.9196477427819006E7 ; 1.9817862397238472E10 ; 0.0
108 ; 601339.8283898357 ; 2.0044245831739926E8 ; 5.97982825760145E7 ; 2.001830356507928E10 ; 0.0
109 ; 601007.3088947138 ; 2.0044374690348408E8 ; 6.0399622404404335E7 ; 2.021874602339668E10 ; 0.0
110 ; 599982.3450843984 ; 2.004450335526304E8 ; 6.100062971329905E7 ; 2.0419189770300163E10 ; 0.0
111 ; 599896.8411620387 ; 2.0044631821924335E8 ; 6.160061205838345E7 ; 2.0619634803852795E10 ; 0.0
112 ; 599170.4518713519 ; 2.0044760085853243E8 ; 6.220050889954549E7 ; 2.0820081122072037E10 ; 0.0
113 ; 598423.2645553092 ; 2.0044888142647776E8 ; 6.279967935141684E7 ; 2.102052872293057E10 ; 0.0
114 ; 597545.22445451 ; 2.0045015987979877E8 ; 6.3398102615972154E7 ; 2.1220977604357048E10 ; 0.0
115 ; 596429.7757818813 ; 2.0045143617592397E8 ; 6.399564784042666E7 ; 2.1421427764236847E10 ; 0.0
116 ; 597465.5517787692 ; 2.0045271027296266E8 ; 6.4592077616208546E7 ; 2.162187920041277E10 ; 0.0
117 ; 594815.6279815135 ; 2.0045398212967813E8 ; 6.518954316798732E7 ; 2.1822331910685734E10 ; 0.0
118 ; 594528.3866319989 ; 2.00455251705462E8 ; 6.578435879596883E7 ; 2.202278589281541E10 ; 0.0
119 ; 595145.5137577866 ; 2.0045651896031025E8 ; 6.6378887182600826E7 ; 2.2223241144520874E10 ; 0.0
120 ; 592532.7836673404 ; 2.0045778385480008E8 ; 6.697403269635861E7 ; 2.2423697663481186E10 ; 0.0
121 ; 592736.2075378991 ; 2.004590463500683E8 ; 6.756656548002595E7 ; 2.2624155447335987E10 ; 0.0
122 ; 592558.7908274499 ; 2.004603064077906E8 ; 6.815930168756385E7 ; 2.2824614493686054E10 ; 0.0
123 ; 590977.8840140405 ; 2.0046156399016207E8 ; 6.87518604783913E7 ; 2.3025074800093845E10 ; 0.0
124 ; 591843.1188411474 ; 2.0046281905987835E8 ; 6.934283836240534E7 ; 2.3225536364084007E10 ; 0.0
125 ; 590246.3006261248 ; 2.004640715801181E8 ; 6.993468148124649E7 ; 2.3425999183143887E10 ; 0.0
126 ; 589682.7538073225 ; 2.0046532151452613E8 ; 7.052492778187262E7 ; 2.3626463254724003E10 ; 0.0
127 ; 589496.3945447915 ; 2.0046656882719734E8 ; 7.111461053567994E7 ; 2.382692857623853E10 ; 0.0
128 ; 587497.6606546966 ; 2.0046781348266158E8 ; 7.170410693022473E7 ; 2.4027395145065727E10 ; 0.0
129 ; 586086.5367373688 ; 2.0046905544586912E8 ; 7.229160459087943E7 ; 2.422786295854839E10 ; 0.0
130 ; 585066.2705583394 ; 2.004702946821769E8 ; 7.28776911276168E7 ; 2.442833201399426E10 ; 0.0
131 ; 584039.3268463202 ; 2.0047153115733537E8 ; 7.346275739817514E7 ; 2.4628802308676437E10 ; 0.0
132 ; 581703.8465960532 ; 2.0047276483747602E8 ; 7.404679672502145E7 ; 2.4829273839833775E10 ; 0.0
133 ; 581419.2222266302 ; 2.0047399568909943E8 ; 7.46285005716175E7 ; 2.502974660467125E10 ; 0.0
134 ; 580141.5396494966 ; 2.004752236790641E8 ; 7.520991979384413E7 ; 2.5230220600360348E10 ; 0.0
135 ; 578398.7257620085 ; 2.0047644877457535E8 ; 7.579006133349364E7 ; 2.5430695824039413E10 ; 0.0
136 ; 575036.3444294705 ; 2.0047767094317532E8 ; 7.636846005925564E7 ; 2.5631172272813988E10 ; 0.0
137 ; 573236.0590734205 ; 2.004788901527329E8 ; 7.694349640368511E7 ; 2.5831649943757164E10 ; 0.0
138 ; 572000.351551801 ; 2.0048010637143457E8 ; 7.751673246275853E7 ; 2.6032128833909897E10 ; 0.0
139 ; 571019.6957804895 ; 2.004813195677752E8 ; 7.808873281431033E7 ; 2.623260894028133E10 ; 0.0
140 ; 570183.5246145523 ; 2.0048252971054977E8 ; 7.865975251009081E7 ; 2.6433090259849106E10 ; 0.0
141 ; 568578.062190711 ; 2.0048373676884514E8 ; 7.922993603470537E7 ; 2.6633572789559654E10 ; 0.0
142 ; 566062.3207568228 ; 2.0048494071203223E8 ; 7.979851409689608E7 ; 2.68340565263285E10 ; 0.0
143 ; 563592.1123594482 ; 2.0048614150975862E8 ; 8.03645764176529E7 ; 2.703454146704053E10 ; 0.0
144 ; 563943.465660836 ; 2.0048733913194144E8 ; 8.092816853001235E7 ; 2.723502760855029E10 ; 0.0
145 ; 563987.4415094426 ; 2.0048853354876065E8 ; 8.14921119956732E7 ; 2.743551494768223E10 ; 0.0
146 ; 563092.6448564166 ; 2.0048972473065257E8 ; 8.205609943718264E7 ; 2.763600348123099E10 ; 0.0
147 ; 560607.1956603853 ; 2.0049091264830357E8 ; 8.261919208203906E7 ; 2.7836493205961643E10 ; 0.0
148 ; 558403.3050086857 ; 2.0049209727264437E8 ; 8.317979927769944E7 ; 2.8036984118609947E10 ; 0.0
149 ; 560718.5036619204 ; 2.0049327857484415E8 ; 8.373820258270812E7 ; 2.823747621588259E10 ; 0.0
150 ; 558159.6047037573 ; 2.0049445652630535E8 ; 8.429892108637004E7 ; 2.8437969494457436E10 ; 0.0
151 ; 556589.9971421143 ; 2.0049563109865832E8 ; 8.485708069107379E7 ; 2.863846395098374E10 ; 0.0
152 ; 557079.2433535713 ; 2.004968022637566E8 ; 8.541367068821591E7 ; 2.88389595820824E10 ; 0.0
153 ; 555245.7441095154 ; 2.004979699936719E8 ; 8.597074993156949E7 ; 2.9039456384346157E10 ; 0.0
154 ; 554493.3022098264 ; 2.0049913426068985E8 ; 8.6525995675679E7 ; 2.923995435433983E10 ; 0.0
155 ; 552459.8277185477 ; 2.005002950373055E8 ; 8.708048897788882E7 ; 2.9440453488600517E10 ; 0.0
156 ; 552856.7246753015 ; 2.0050145229621923E8 ; 8.763294880560736E7 ; 2.964095378363782E10 ; 0.0
157 ; 552479.4633404881 ; 2.0050260601033282E8 ; 8.818580553028266E7 ; 2.984145523593404E10 ; 0.0
158 ; 549785.6299229258 ; 2.0050375615274554E8 ; 8.873828499362315E7 ; 3.0041957841944374E10 ; 0.0
159 ; 550441.8832337761 ; 2.005049026967506E8 ; 8.928807062354608E7 ; 3.024246159809712E10 ; 0.0
160 ; 548742.3722984528 ; 2.0050604561583173E8 ; 8.983851250677985E7 ; 3.044296650079387E10 ; 0.0
161 ; 548504.018962103 ; 2.005071848836597E8 ; 9.03872548790783E7 ; 3.0643472546409702E10 ; 0.0
162 ; 547625.5753983406 ; 2.0050832047408915E8 ; 9.09357588980404E7 ; 3.084397973129336E10 ; 0.0
163 ; 547414.3709061177 ; 2.0050945236115572E8 ; 9.148338447343874E7 ; 3.1044488051767452E10 ; 0.0
164 ; 545740.1455155713 ; 2.005105805190728E8 ; 9.203079884434485E7 ; 3.124499750412861E10 ; 0.0
165 ; 543082.6137410018 ; 2.0051170492222908E8 ; 9.257653898986043E7 ; 3.1445508084647682E10 ; 0.0
166 ; 542974.1169540805 ; 2.0051282554518557E8 ; 9.311962160360143E7 ; 3.1646019789569912E10 ; 0.0
167 ; 542675.4227174296 ; 2.0051394236267313E8 ; 9.36625957205555E7 ; 3.1846532615115097E10 ; 0.0
168 ; 541133.4547337352 ; 2.0051505534959012E8 ; 9.420527114327292E7 ; 3.204704655747777E10 ; 0.0
169 ; 541246.4580385636 ; 2.005161644809998E8 ; 9.474640459800665E7 ; 3.2247561612827362E10 ; 0.0
170 ; 540215.754903282 ; 2.0051726973212826E8 ; 9.528765105604522E7 ; 3.244807777730836E10 ; 0.0
171 ; 540996.895758576 ; 2.005183710783622E8 ; 9.58278668109485E7 ; 3.264859504704049E10 ; 0.0
172 ; 538501.9915491226 ; 2.0051946849524677E8 ; 9.636886370670708E7 ; 3.284911341811885E10 ; 0.0
173 ; 536542.1811006087 ; 2.0052056195848367E8 ; 9.69073656982562E7 ; 3.3049632886614098E10 ; 0.0
174 ; 538042.259806054 ; 2.0052165144392923E8 ; 9.74439078793568E7 ; 3.3250153448572582E10 ; 0.0
175 ; 537021.5907300493 ; 2.0052273692759255E8 ; 9.798195013916285E7 ; 3.345067510001651E10 ; 0.0
176 ; 535326.7464736719 ; 2.005238183856337E8 ; 9.851897172989291E7 ; 3.3651197836944103E10 ; 0.0
177 ; 535154.4199068444 ; 2.0052489579436222E8 ; 9.905429847636658E7 ; 3.385172165532974E10 ; 0.0
178 ; 534400.888842799 ; 2.0052596913023522E8 ; 9.958945289627342E7 ; 3.40522465511241E10 ; 0.0
179 ; 533924.7977699386 ; 2.0052703836985618E8 ; 1.0012385378511623E8 ; 3.4252772520254333E10 ; 0.0
180 ; 534278.8676913978 ; 2.0052810348997316E8 ; 1.0065777858288616E8 ; 3.445329955862419E10 ; 0.0
181 ; 531694.4902610517 ; 2.0052916446747762E8 ; 1.0119205745057756E8 ; 3.465382766211417E10 ; 0.0
182 ; 531025.6987553954 ; 2.0053022127940288E8 ; 1.017237519408386E8 ; 3.485435682658164E10 ; 0.0
183 ; 530031.5688863798 ; 2.00531273902923E8 ; 1.02254777639594E8 ; 3.5054887047861046E10 ; 0.0
184 ; 530313.3301421524 ; 2.0053232231535137E8 ; 1.0278480920848039E8 ; 3.525541832176397E10 ; 0.0
185 ; 530922.1127151091 ; 2.0053336649413964E8 ; 1.0331512253862254E8 ; 3.545595064407932E10 ; 0.0
186 ; 529307.0821320666 ; 2.0053440641687655E8 ; 1.0384604465133765E8 ; 3.565648401057346E10 ; 0.0
187 ; 528664.5310877428 ; 2.0053544206128675E8 ; 1.0437535173346972E8 ; 3.585701841699034E10 ; 0.0
188 ; 528366.1939203517 ; 2.0053647340522993E8 ; 1.0490401626455747E8 ; 3.605755385905163E10 ; 0.0
189 ; 527616.0827683107 ; 2.005375004266996E8 ; 1.0543238245847782E8 ; 3.6258090332456856E10 ; 0.0
190 ; 527110.4549975466 ; 2.0053852310382235E8 ; 1.0595999854124613E8 ; 3.645862783288355E10 ; 0.0
191 ; 526533.2508848356 ; 2.0053954141485685E8 ; 1.0648710899624367E8 ; 3.665916635598737E10 ; 0.0
192 ; 525779.3463034496 ; 2.0054055533819285E8 ; 1.070136422471285E8 ; 3.685970589740223E10 ; 0.0
193 ; 525206.5397172818 ; 2.0054156485235056E8 ; 1.0753942159343195E8 ; 3.7060246452740425E10 ; 0.0
194 ; 524076.91958385013 ; 2.0054256993597972E8 ; 1.0806462813314924E8 ; 3.726078801759277E10 ; 0.0
195 ; 523782.48285499966 ; 2.0054357056785884E8 ; 1.085887050527331E8 ; 3.7461330587528755E10 ; 0.0
196 ; 522984.6534581604 ; 2.005445667268945E8 ; 1.091124875355881E8 ; 3.766187415809661E10 ; 0.0
197 ; 522140.41619839 ; 2.0054555839212063E8 ; 1.0963547218904626E8 ; 3.786241872482351E10 ; 0.0
198 ; 522793.355884266 ; 2.005465455426979E8 ; 1.1015761260524465E8 ; 3.806296428321563E10 ; 0.0
199 ; 521719.867949025 ; 2.0054752815791303E8 ; 1.1068040596112892E8 ; 3.826351082875833E10 ; 0.0
200 ; 520315.1912303586 ; 2.005485062171781E8 ; 1.1120212582907794E8 ; 3.8464058356916245E10 ; 0.0
201 ; 519146.97815728217 ; 2.005494797000302E8 ; 1.117224410203083E8 ; 3.866460686313342E10 ; 0.0
