CSV File for the City 1 on Day 166
1 - Minute m 
2 - Power Consumed at minute m 
3 - Power Produced at minute m 
4 - Energy Consumed since the beginning of the day 
5 - Energy Produced since the beginning of the day 
6 - Energy Lost since the beginning of the day on lines starting from the city
 
0 ; 6153632.308334177 ; 1.0552393635312119E8 ; 0.0 ; 0.0 ; 0.0
1 ; 6160631.121244413 ; 1.0567687873967999E8 ; 6153632.308334177 ; 1.0552393635312119E8 ; 0.0
2 ; 6175385.352863133 ; 1.0613860345878431E8 ; 1.2314263429578591E7 ; 2.1120081509280118E8 ; 0.0
3 ; 6197843.066659584 ; 1.0690911205800366E8 ; 1.8489648782441724E7 ; 3.173394185515855E8 ; 0.0
4 ; 6209539.107320285 ; 1.0798840592515028E8 ; 2.468749184910131E7 ; 4.2424853060958916E8 ; 0.0
5 ; 6238972.1388676325 ; 1.093764862802816E8 ; 3.0897030956421595E7 ; 5.3223693653473943E8 ; 0.0
6 ; 6270082.590701647 ; 1.1107335416852996E8 ; 3.713600309528923E7 ; 6.41613422815021E8 ; 0.0
7 ; 6318363.268770092 ; 1.1307901045385486E8 ; 4.340608568599088E7 ; 7.52686776983551E8 ; 0.0
8 ; 6390119.895645307 ; 1.1539345581380498E8 ; 4.972444895476097E7 ; 8.657657874374058E8 ; 0.0
9 ; 6503265.720396878 ; 1.1801669073536408E8 ; 5.6114568850406274E7 ; 9.811592432512108E8 ; 0.0
10 ; 6679448.042591911 ; 1.2094871551193935E8 ; 6.261783457080315E7 ; 1.099175933986575E9 ; 0.0
11 ; 6966350.9086572705 ; 1.2418953024153695E8 ; 6.929728261339507E7 ; 1.2201246494985142E9 ; 0.0
12 ; 7422395.459404421 ; 1.2773913482615069E8 ; 7.626363352205233E7 ; 1.344314179740051E9 ; 0.0
13 ; 7867667.688368423 ; 1.3159752897237337E8 ; 8.368602898145676E7 ; 1.4720533145662017E9 ; 0.0
14 ; 7911957.153946152 ; 1.3576471219322133E8 ; 9.155369666982518E7 ; 1.6036508435385752E9 ; 0.0
15 ; 7930365.970515049 ; 1.4024068381114578E8 ; 9.946565382377133E7 ; 1.7394155557317965E9 ; 0.0
16 ; 7947597.024511617 ; 1.4502544296218732E8 ; 1.0739601979428637E8 ; 1.8796562395429423E9 ; 0.0
17 ; 7962385.421706658 ; 1.5011898860121354E8 ; 1.1534361681879799E8 ; 2.0246816825051296E9 ; 0.0
18 ; 7978442.002979172 ; 1.5552131950816703E8 ; 1.2330600224050465E8 ; 2.1748006711063433E9 ; 0.0
19 ; 7999910.003643649 ; 1.6123243429523554E8 ; 1.3128444424348383E8 ; 2.3303219906145105E9 ; 0.0
20 ; 8014234.236699723 ; 1.6725233141484955E8 ; 1.3928435424712747E8 ; 2.491554424909746E9 ; 0.0
21 ; 8033563.581515079 ; 1.735810091684005E8 ; 1.472985884838272E8 ; 2.658806756324596E9 ; 0.0
22 ; 8051946.321985526 ; 1.802184657155705E8 ; 1.5533215206534228E8 ; 2.832387765492996E9 ; 0.0
23 ; 8064401.027329942 ; 1.8716469908415884E8 ; 1.633840983873278E8 ; 3.0126062312085667E9 ; 0.0
24 ; 8083781.91961465 ; 1.9441970718029022E8 ; 1.7144849941465774E8 ; 3.1997709302927256E9 ; 0.0
25 ; 8100885.228950334 ; 2.006715286970755E8 ; 1.7953228133427238E8 ; 3.394190637473016E9 ; 0.0
26 ; 8118967.424843403 ; 2.006737091621418E8 ; 1.876331665632227E8 ; 3.594862166170091E9 ; 0.0
27 ; 8138743.826498947 ; 2.0067601547322303E8 ; 1.957521339880661E8 ; 3.795535875332233E9 ; 0.0
28 ; 8151629.421138098 ; 2.0067844515557247E8 ; 2.0389087781456506E8 ; 3.996211890805456E9 ; 0.0
29 ; 8168092.787469778 ; 2.00680995665711E8 ; 2.1204250723570317E8 ; 4.1968903359610286E9 ; 0.0
30 ; 8187479.417734245 ; 2.006836644017091E8 ; 2.2021060002317294E8 ; 4.3975713316267395E9 ; 0.0
31 ; 8201382.6248209905 ; 2.006864487131764E8 ; 2.2839807944090718E8 ; 4.598254996028449E9 ; 0.0
32 ; 8215424.784065574 ; 2.0068934591089344E8 ; 2.3659946206572816E8 ; 4.798941444741626E9 ; 0.0
33 ; 8229656.530446548 ; 2.0069235327603358E8 ; 2.4481488684979373E8 ; 4.999630790652519E9 ; 0.0
34 ; 8246783.644865845 ; 2.0069546806893036E8 ; 2.530445433802403E8 ; 5.200323143928553E9 ; 0.0
35 ; 8261297.812074483 ; 2.0069868753735617E8 ; 2.6129132702510613E8 ; 5.401018611997483E9 ; 0.0
36 ; 8268590.026476209 ; 2.0070200892428654E8 ; 2.695526248371806E8 ; 5.60171729953484E9 ; 0.0
37 ; 8283145.218088631 ; 2.0070542947513333E8 ; 2.778212148636568E8 ; 5.802419308459126E9 ; 0.0
38 ; 8294130.715372056 ; 2.0070894644443682E8 ; 2.8610436008174545E8 ; 6.003124737934259E9 ; 0.0
39 ; 8309033.292426169 ; 2.0071255710201493E8 ; 2.943984907971175E8 ; 6.203833684378696E9 ; 0.0
40 ; 8321401.98528367 ; 2.0071625873857257E8 ; 3.0270752408954364E8 ; 6.404546241480711E9 ; 0.0
41 ; 8332049.158626999 ; 2.0072004867078063E8 ; 3.110289260748273E8 ; 6.605262500219283E9 ; 0.0
42 ; 8338361.695595744 ; 2.007239242458378E8 ; 3.193609752334543E8 ; 6.805982548890063E9 ; 0.0
43 ; 8347080.775035816 ; 2.0072788284553325E8 ; 3.2769933692905E8 ; 7.006706473135901E9 ; 0.0
44 ; 8361134.80937228 ; 2.0073192188982952E8 ; 3.360464177040858E8 ; 7.207434355981435E9 ; 0.0
45 ; 8364474.980012844 ; 2.0073603883998978E8 ; 3.4440755251345813E8 ; 7.408166277871264E9 ; 0.0
46 ; 8368901.386212303 ; 2.0074023120127302E8 ; 3.5277202749347097E8 ; 7.608902316711254E9 ; 0.0
47 ; 8373989.640610544 ; 2.0074449652522367E8 ; 3.6114092887968326E8 ; 7.809642547912527E9 ; 0.0
48 ; 8380844.798368306 ; 2.007488324115819E8 ; 3.695149185202938E8 ; 8.010387044437751E9 ; 0.0
49 ; 8385461.096324477 ; 2.0075323650984174E8 ; 3.778957633186621E8 ; 8.211135876849333E9 ; 0.0
50 ; 8387039.708947572 ; 2.007577065204834E8 ; 3.862812244149866E8 ; 8.411889113359175E9 ; 0.0
51 ; 8392780.531454876 ; 2.00762240195907E8 ; 3.946682641239342E8 ; 8.612646819879658E9 ; 0.0
52 ; 8389681.566452993 ; 2.007668353410924E8 ; 4.030610446553891E8 ; 8.813409060075565E9 ; 0.0
53 ; 8395280.789155947 ; 2.0077148981401116E8 ; 4.1145072622184205E8 ; 9.014175895416658E9 ; 0.0
54 ; 8399017.528854094 ; 2.0077620152581364E8 ; 4.19846007010998E8 ; 9.214947385230669E9 ; 0.0
55 ; 8398446.842943996 ; 2.007809684408148E8 ; 4.282450245398521E8 ; 9.415723586756483E9 ; 0.0
56 ; 8401562.368960405 ; 2.007857885762995E8 ; 4.3664347138279605E8 ; 9.616504555197298E9 ; 0.0
57 ; 8405495.686303336 ; 2.0079066000216815E8 ; 4.450450337517564E8 ; 9.817290343773598E9 ; 0.0
58 ; 8408176.103201635 ; 2.007955808404414E8 ; 4.5345052943805975E8 ; 1.0018081003775766E10 ; 0.0
59 ; 8406529.086599045 ; 2.0080054926464158E8 ; 4.618587055412614E8 ; 1.0218876584616207E10 ; 0.0
60 ; 8412211.978077458 ; 2.0080556349906707E8 ; 4.702652346278604E8 ; 1.0419677133880848E10 ; 0.0
61 ; 8414548.366943723 ; 2.0081062181797516E8 ; 4.786774466059379E8 ; 1.0620482697379915E10 ; 0.0
62 ; 8414165.651512915 ; 2.008157225446864E8 ; 4.870919949728816E8 ; 1.0821293319197891E10 ; 0.0
63 ; 8415043.770804172 ; 2.0082086405062392E8 ; 4.9550616062439454E8 ; 1.1022109041742579E10 ; 0.0
64 ; 8413706.708508408 ; 2.008260447542985E8 ; 5.039212043951987E8 ; 1.1222929905793203E10 ; 0.0
65 ; 8417535.349451417 ; 2.0083126312025025E8 ; 5.1233491110370713E8 ; 1.1423755950547503E10 ; 0.0
66 ; 8417368.173807845 ; 2.0083651765795612E8 ; 5.2075244645315856E8 ; 1.1624587213667753E10 ; 0.0
67 ; 8417034.978042789 ; 2.0084180692071152E8 ; 5.291698146269664E8 ; 1.182542373132571E10 ; 0.0
68 ; 8418663.469513804 ; 2.0084712950449392E8 ; 5.375868496050092E8 ; 1.2026265538246422E10 ; 0.0
69 ; 8413549.56958538 ; 2.0085248404681486E8 ; 5.46005513074523E8 ; 1.2227112667750916E10 ; 0.0
70 ; 8418827.511045985 ; 2.0085786922556624E8 ; 5.544190626441083E8 ; 1.242796515179773E10 ; 0.0
71 ; 8417798.31848814 ; 2.008632837578666E8 ; 5.628378901551542E8 ; 1.2628823021023296E10 ; 0.0
72 ; 8421818.488202557 ; 2.0086872639891136E8 ; 5.712556884736423E8 ; 1.2829686304781162E10 ; 0.0
73 ; 8417579.484830936 ; 2.0087419594083157E8 ; 5.796775069618449E8 ; 1.3030555031180073E10 ; 0.0
74 ; 8419151.710203296 ; 2.008796912115643E8 ; 5.880950864466759E8 ; 1.3231429227120905E10 ; 0.0
75 ; 8418495.729383007 ; 2.0088521107373768E8 ; 5.965142381568792E8 ; 1.343230891833247E10 ; 0.0
76 ; 8414809.495583812 ; 2.0089075442357326E8 ; 6.049327338862622E8 ; 1.3633194129406208E10 ; 0.0
77 ; 8415221.863532407 ; 2.008963201898078E8 ; 6.13347543381846E8 ; 1.383408488382978E10 ; 0.0
78 ; 8406398.556948345 ; 2.0090190733263624E8 ; 6.217627652453784E8 ; 1.4034981204019588E10 ; 0.0
79 ; 8403131.528189907 ; 2.0090751484267712E8 ; 6.301691638023267E8 ; 1.4235883111352224E10 ; 0.0
80 ; 8398160.133752158 ; 2.0091314173996207E8 ; 6.385722953305166E8 ; 1.44367906261949E10 ; 0.0
81 ; 8390859.065006593 ; 2.0091878707294986E8 ; 6.469704554642687E8 ; 1.4637703767934862E10 ; 0.0
82 ; 8385434.342766688 ; 2.0092444991756588E8 ; 6.553613145292753E8 ; 1.4838622555007812E10 ; 0.0
83 ; 8381503.400813003 ; 2.0093012937626752E8 ; 6.63746748872042E8 ; 1.5039547004925379E10 ; 0.0
84 ; 8370086.9987128135 ; 2.0093582457713598E8 ; 6.721282522728549E8 ; 1.5240477134301647E10 ; 0.0
85 ; 8369467.470681338 ; 2.0094153467299408E8 ; 6.804983392715677E8 ; 1.5441412958878782E10 ; 0.0
86 ; 8357091.296202428 ; 2.0094725884055093E8 ; 6.88867806742249E8 ; 1.5642354493551777E10 ; 0.0
87 ; 8346156.690380401 ; 2.0095299627957252E8 ; 6.972248980384514E8 ; 1.5843301752392328E10 ; 0.0
88 ; 8340433.050767563 ; 2.009587462120788E8 ; 7.055710547288319E8 ; 1.6044254748671902E10 ; 0.0
89 ; 8337594.485256448 ; 2.0096450788156644E8 ; 7.139114877795994E8 ; 1.624521349488398E10 ; 0.0
90 ; 8326227.623901794 ; 2.0097028055225703E8 ; 7.222490822648559E8 ; 1.6446178002765547E10 ; 0.0
91 ; 8318983.434627576 ; 2.0097606350837067E8 ; 7.305753098887577E8 ; 1.6647148283317804E10 ; 0.0
92 ; 8309331.092211363 ; 2.0098185605342385E8 ; 7.388942933233852E8 ; 1.6848124346826176E10 ; 0.0
93 ; 8303316.193054203 ; 2.0098765750955185E8 ; 7.472036244155966E8 ; 1.7049106202879599E10 ; 0.0
94 ; 8292116.7798939375 ; 2.0099346721685427E8 ; 7.555069406086508E8 ; 1.725009386038915E10 ; 0.0
95 ; 8286422.100715897 ; 2.0099928453276408E8 ; 7.637990573885448E8 ; 1.7451087327606003E10 ; 0.0
96 ; 8277034.63949823 ; 2.0100510883143878E8 ; 7.720854794892607E8 ; 1.7652086612138767E10 ; 0.0
97 ; 8266969.324811087 ; 2.0101093950317347E8 ; 7.803625141287589E8 ; 1.7853091720970207E10 ; 0.0
98 ; 8260674.413125693 ; 2.0101677595383522E8 ; 7.8862948345357E8 ; 1.805410266047338E10 ; 0.0
99 ; 8248845.857993083 ; 2.0102261760431793E8 ; 7.968901578666956E8 ; 1.8255119436427216E10 ; 0.0
100 ; 8240188.799582599 ; 2.0102846389001733E8 ; 8.051390037246888E8 ; 1.8456142054031532E10 ; 0.0
101 ; 8231617.670576751 ; 2.0103431426032507E8 ; 8.133791925242714E8 ; 1.865717051792155E10 ; 0.0
102 ; 8223771.426765871 ; 2.0104016817814183E8 ; 8.216108101948481E8 ; 1.8858204832181877E10 ; 0.0
103 ; 8214459.54353937 ; 2.0104602511940837E8 ; 8.29834581621614E8 ; 1.905924500036002E10 ; 0.0
104 ; 8202959.699151694 ; 2.0105188457265404E8 ; 8.380490411651534E8 ; 1.9260291025479427E10 ; 0.0
105 ; 8192790.457788486 ; 2.010577460385625E8 ; 8.46252000864305E8 ; 1.9461342910052082E10 ; 0.0
106 ; 8186009.155988629 ; 2.0106360902955338E8 ; 8.544447913220935E8 ; 1.9662400656090645E10 ; 0.0
107 ; 8177485.037432113 ; 2.0106947306938E8 ; 8.626308004780821E8 ; 1.9863464265120197E10 ; 0.0
108 ; 8161661.897350838 ; 2.0107533769274196E8 ; 8.708082855155141E8 ; 2.006453373818958E10 ; 0.0
109 ; 8154383.217780167 ; 2.0108120244491288E8 ; 8.789699474128649E8 ; 2.026560907588232E10 ; 0.0
110 ; 8140813.681984611 ; 2.0108706688138166E8 ; 8.87124330630645E8 ; 2.0466690278327232E10 ; 0.0
111 ; 8131673.605712043 ; 2.0109293056750762E8 ; 8.952651443126297E8 ; 2.0667777345208614E10 ; 0.0
112 ; 8120268.176355753 ; 2.0109879307818884E8 ; 9.033968179183418E8 ; 2.0868870275776123E10 ; 0.0
113 ; 8111157.574997618 ; 2.0110465399754274E8 ; 9.115170860946975E8 ; 2.1069969068854313E10 ; 0.0
114 ; 8099580.469172331 ; 2.011105129185991E8 ; 9.196282436696951E8 ; 2.1271073722851856E10 ; 0.0
115 ; 8087108.998977967 ; 2.0111636944300455E8 ; 9.277278241388675E8 ; 2.1472184235770454E10 ; 0.0
116 ; 8077144.728774079 ; 2.0112222318073836E8 ; 9.358149331378455E8 ; 2.167330060521346E10 ; 0.0
117 ; 8065727.214016085 ; 2.011280737498388E8 ; 9.438920778666196E8 ; 2.1874422828394196E10 ; 0.0
118 ; 8054911.837702217 ; 2.011339207761402E8 ; 9.519578050806357E8 ; 2.2075550902144035E10 ; 0.0
119 ; 8039942.749285729 ; 2.011397638930198E8 ; 9.60012716918338E8 ; 2.2276684822920174E10 ; 0.0
120 ; 8028686.037476175 ; 2.0114560274115387E8 ; 9.680526596676236E8 ; 2.2477824586813194E10 ; 0.0
121 ; 8019714.995914704 ; 2.0115143696828362E8 ; 9.760813457050998E8 ; 2.2678970189554348E10 ; 0.0
122 ; 8003997.266411326 ; 2.0115726622898963E8 ; 9.841010607010145E8 ; 2.2880121626522633E10 ; 0.0
123 ; 7999590.152633523 ; 2.0116309018447453E8 ; 9.921050579674258E8 ; 2.308127889275162E10 ; 0.0
124 ; 7979250.677714148 ; 2.011689085023543E8 ; 1.0001046481200594E9 ; 2.3282441982936096E10 ; 0.0
125 ; 7966202.834897843 ; 2.0117472085645726E8 ; 1.0080838987977735E9 ; 2.348361089143845E10 ; 0.0
126 ; 7953877.156108865 ; 2.011805269266303E8 ; 1.0160501016326714E9 ; 2.3684785612294907E10 ; 0.0
127 ; 7944213.88678167 ; 2.0118632639855278E8 ; 1.0240039787887802E9 ; 2.388596613922154E10 ; 0.0
128 ; 7928526.86467684 ; 2.0119211896355715E8 ; 1.0319481926755619E9 ; 2.408715246562009E10 ; 0.0
129 ; 7915540.4734109 ; 2.0119790431845617E8 ; 1.0398767195402387E9 ; 2.428834458458365E10 ; 0.0
130 ; 7902246.479344046 ; 2.0120368216537672E8 ; 1.0477922600136496E9 ; 2.4489542488902103E10 ; 0.0
131 ; 7885053.076071548 ; 2.012094522115998E8 ; 1.0556945064929936E9 ; 2.4690746171067482E10 ; 0.0
132 ; 7865745.813090201 ; 2.0121521416940612E8 ; 1.0635795595690651E9 ; 2.4891955623279083E10 ; 0.0
133 ; 7843283.741101621 ; 2.0122096775592777E8 ; 1.0714453053821553E9 ; 2.509317083744849E10 ; 0.0
134 ; 7824551.692939619 ; 2.0122671269300517E8 ; 1.079288589123257E9 ; 2.529439180520442E10 ; 0.0
135 ; 7805807.886731448 ; 2.0123244870704928E8 ; 1.0871131408161964E9 ; 2.5495618517897423E10 ; 0.0
136 ; 7783743.882123211 ; 2.0123817552890873E8 ; 1.0949189487029278E9 ; 2.5696850966604473E10 ; 0.0
137 ; 7765096.231965906 ; 2.012438928937421E8 ; 1.102702692585051E9 ; 2.589808914213338E10 ; 0.0
138 ; 7749227.39382821 ; 2.012496005408946E8 ; 1.110467788817017E9 ; 2.6099333035027122E10 ; 0.0
139 ; 7727325.411186853 ; 2.012552982137792E8 ; 1.1182170162108452E9 ; 2.6300582635568016E10 ; 0.0
140 ; 7709624.036091944 ; 2.0126098565976238E8 ; 1.1259443416220322E9 ; 2.6501837933781796E10 ; 0.0
141 ; 7689699.58603851 ; 2.0126666263005352E8 ; 1.1336539656581242E9 ; 2.670309891944156E10 ; 0.0
142 ; 7666741.464352263 ; 2.012723288795987E8 ; 1.1413436652441628E9 ; 2.6904365582071613E10 ; 0.0
143 ; 7648474.685957725 ; 2.0127798416697815E8 ; 1.1490104067085152E9 ; 2.7105637910951214E10 ; 0.0
144 ; 7621492.3693873845 ; 2.0128362825430727E8 ; 1.1566588813944728E9 ; 2.730691589511819E10 ; 0.0
145 ; 7614822.793995899 ; 2.0128926090714124E8 ; 1.1642803737638602E9 ; 2.7508199523372498E10 ; 0.0
146 ; 7598176.148169602 ; 2.0129488189438325E8 ; 1.171895196557856E9 ; 2.770948878427964E10 ; 0.0
147 ; 7585106.797661111 ; 2.0130049098819554E8 ; 1.1794933727060256E9 ; 2.7910783666174023E10 ; 0.0
148 ; 7571764.423853443 ; 2.0130608796391407E8 ; 1.1870784795036867E9 ; 2.811208415716222E10 ; 0.0
149 ; 7554573.193545624 ; 2.0131167259996575E8 ; 1.19465024392754E9 ; 2.8313390245126133E10 ; 0.0
150 ; 7543752.350935854 ; 2.0131724467778888E8 ; 1.2022048171210856E9 ; 2.8514701917726097E10 ; 0.0
151 ; 7529733.334955521 ; 2.0132280398175636E8 ; 1.2097485694720216E9 ; 2.8716019162403885E10 ; 0.0
152 ; 7513444.114949275 ; 2.0132835029910138E8 ; 1.217278302806977E9 ; 2.8917341966385643E10 ; 0.0
153 ; 7506750.473493946 ; 2.0133388341984582E8 ; 1.2247917469219263E9 ; 2.9118670316684746E10 ; 0.0
154 ; 7488648.91407894 ; 2.0133940313673133E8 ; 1.2322984973954203E9 ; 2.932000420010459E10 ; 0.0
155 ; 7472293.422006407 ; 2.0134490924515232E8 ; 1.2397871463094993E9 ; 2.952134360324132E10 ; 0.0
156 ; 7466684.821603511 ; 2.0135040154309183E8 ; 1.2472594397315056E9 ; 2.9722688512486473E10 ; 0.0
157 ; 7445907.350455292 ; 2.0135587983105916E8 ; 1.2547261245531092E9 ; 2.9924038914029564E10 ; 0.0
158 ; 7431005.997378385 ; 2.0136134391202974E8 ; 1.2621720319035645E9 ; 3.0125394793860622E10 ; 0.0
159 ; 7422083.959965174 ; 2.0136679359138733E8 ; 1.2696030379009428E9 ; 3.032675613777265E10 ; 0.0
160 ; 7406298.031037496 ; 2.0137222867686784E8 ; 1.277025121860908E9 ; 3.052812293136404E10 ; 0.0
161 ; 7392672.676640861 ; 2.0137764897850516E8 ; 1.2844314198919456E9 ; 3.072949516004091E10 ; 0.0
162 ; 7377686.250657926 ; 2.0138305430857906E8 ; 1.2918240925685863E9 ; 3.0930872809019413E10 ; 0.0
163 ; 7362551.359460088 ; 2.0138844448156437E8 ; 1.2992017788192444E9 ; 3.113225586332799E10 ; 0.0
164 ; 7348892.880848557 ; 2.0139381931408244E8 ; 1.3065643301787045E9 ; 3.1333644307809555E10 ; 0.0
165 ; 7333621.7592414105 ; 2.0139917862485376E8 ; 1.3139132230595531E9 ; 3.153503812712364E10 ; 0.0
166 ; 7326603.931254538 ; 2.014045222346524E8 ; 1.3212468448187945E9 ; 3.1736437305748493E10 ; 0.0
167 ; 7306081.884882929 ; 2.0140984996626198E8 ; 1.328573448750049E9 ; 3.1937841827983147E10 ; 0.0
168 ; 7297842.528017301 ; 2.0141516164443302E8 ; 1.335879530634932E9 ; 3.213925167794941E10 ; 0.0
169 ; 7280885.8605874935 ; 2.0142045709584168E8 ; 1.3431773731629493E9 ; 3.234066683959384E10 ; 0.0
170 ; 7263743.206021442 ; 2.0142573614905E8 ; 1.350458259023537E9 ; 3.2542087296689682E10 ; 0.0
171 ; 7244008.479350506 ; 2.014309986344674E8 ; 1.3577220022295585E9 ; 3.2743513032838734E10 ; 0.0
172 ; 7235297.981035206 ; 2.0143624438431332E8 ; 1.364966010708909E9 ; 3.29449440314732E10 ; 0.0
173 ; 7221453.760774451 ; 2.014414732325813E8 ; 1.3722013086899443E9 ; 3.3146380275857513E10 ; 0.0
174 ; 7211008.358917446 ; 2.0144668501500404E8 ; 1.3794227624507186E9 ; 3.3347821749090096E10 ; 0.0
175 ; 7199867.504383971 ; 2.014518795690197E8 ; 1.386633770809636E9 ; 3.35492684341051E10 ; 0.0
176 ; 7190351.666347155 ; 2.0145705673373947E8 ; 1.3938336383140202E9 ; 3.3750720313674118E10 ; 0.0
177 ; 7176977.323352393 ; 2.0146221634991562E8 ; 1.4010239899803674E9 ; 3.3952177370407856E10 ; 0.0
178 ; 7165674.6575449 ; 2.0146735825991145E8 ; 1.4082009673037198E9 ; 3.415363958675777E10 ; 0.0
179 ; 7151445.870029352 ; 2.014724823076713E8 ; 1.4153666419612646E9 ; 3.435510694501768E10 ; 0.0
180 ; 7141943.615695062 ; 2.014775883386923E8 ; 1.422518087831294E9 ; 3.4556579427325356E10 ; 0.0
181 ; 7134478.999595482 ; 2.014826761999965E8 ; 1.429660031446989E9 ; 3.475805701566405E10 ; 0.0
182 ; 7117972.150466024 ; 2.014877457401041E8 ; 1.4367945104465845E9 ; 3.4959539691864044E10 ; 0.0
183 ; 7110000.167930125 ; 2.0149279680900764E8 ; 1.4439124825970504E9 ; 3.516102743760415E10 ; 0.0
184 ; 7099062.494874823 ; 2.014978292581468E8 ; 1.4510224827649806E9 ; 3.5362520234413155E10 ; 0.0
185 ; 7087354.320830038 ; 2.0150284294038403E8 ; 1.4581215452598553E9 ; 3.55640180636713E10 ; 0.0
186 ; 7073639.945296813 ; 2.0150783770998123E8 ; 1.4652088995806854E9 ; 3.576552090661169E10 ; 0.0
187 ; 7060701.894242972 ; 2.0151281342257673E8 ; 1.4722825395259821E9 ; 3.596702874432167E10 ; 0.0
188 ; 7051645.888656296 ; 2.0151776993516344E8 ; 1.4793432414202251E9 ; 3.616854155774425E10 ; 0.0
189 ; 7043515.249098034 ; 2.015227071060673E8 ; 1.4863948873088815E9 ; 3.637005932767941E10 ; 0.0
190 ; 7030377.498493244 ; 2.0152762479492673E8 ; 1.4934384025579796E9 ; 3.657158203478548E10 ; 0.0
191 ; 7018049.571261276 ; 2.0153252286267242E8 ; 1.5004687800564728E9 ; 3.677310965958041E10 ; 0.0
192 ; 7007204.832316546 ; 2.0153740117150816E8 ; 1.507486829627734E9 ; 3.697464218244308E10 ; 0.0
193 ; 6996456.769366669 ; 2.0154225958489177E8 ; 1.5144940344600506E9 ; 3.7176179583614586E10 ; 0.0
194 ; 6985967.793503693 ; 2.0154709796751702E8 ; 1.5214904912294173E9 ; 3.737772184319948E10 ; 0.0
195 ; 6970177.315516293 ; 2.0155191618529597E8 ; 1.528476459022921E9 ; 3.757926894116699E10 ; 0.0
196 ; 6958994.730751961 ; 2.0155671410534188E8 ; 1.5354466363384373E9 ; 3.778082085735229E10 ; 0.0
197 ; 6950418.980923777 ; 2.0156149159595254E8 ; 1.5424056310691893E9 ; 3.798237757145763E10 ; 0.0
198 ; 6942755.517811032 ; 2.015662485265943E8 ; 1.5493560500501132E9 ; 3.818393906305358E10 ; 0.0
199 ; 6926489.550406908 ; 2.0157098476788655E8 ; 1.5562988055679243E9 ; 3.838550531158018E10 ; 0.0
200 ; 6918116.962556098 ; 2.0157570019158643E8 ; 1.5632252951183312E9 ; 3.858707629634806E10 ; 0.0
