CSV File for the City 4 on Day 340
1 - Minute m 
2 - Power Consumed at minute m 
3 - Power Produced at minute m 
4 - Energy Consumed since the beginning of the day 
5 - Energy Produced since the beginning of the day 
6 - Energy Lost since the beginning of the day on lines starting from the city
 
0 ; 6850558.5539346235 ; 1.0650444892697683E8 ; 0.0 ; 0.0 ; 0.0
1 ; 6854885.519345732 ; 1.0665499171456832E8 ; 6850558.5539346235 ; 1.0650444892697683E8 ; 0.0
2 ; 6863932.006671425 ; 1.0711456434971878E8 ; 1.3705444073280357E7 ; 2.1315944064154515E8 ; 0.0
3 ; 6869104.003594777 ; 1.0788317005118424E8 ; 2.056937607995178E7 ; 3.202740049912639E8 ; 0.0
4 ; 6880551.006911169 ; 1.0896081169321877E8 ; 2.7438480083546557E7 ; 4.2815717504244816E8 ; 0.0
5 ; 6892854.147076117 ; 1.1034749179317641E8 ; 3.431903109045772E7 ; 5.37117986735667E8 ; 0.0
6 ; 6910406.701812511 ; 1.1204321250049219E8 ; 4.121188523753384E7 ; 6.474654785288434E8 ; 0.0
7 ; 6934116.791167478 ; 1.140479755871563E8 ; 4.812229193934635E7 ; 7.595086910293356E8 ; 0.0
8 ; 6965366.632929582 ; 1.1636178243977767E8 ; 5.5056408730513826E7 ; 8.735566666164919E8 ; 0.0
9 ; 7016848.911806519 ; 1.1898463405332273E8 ; 6.2021775363443404E7 ; 9.899184490562696E8 ; 0.0
10 ; 7093123.305536737 ; 1.2191653102659363E8 ; 6.903862427524993E7 ; 1.1089030831095924E9 ; 0.0
11 ; 7217237.778429996 ; 1.251574735594956E8 ; 7.613174758078666E7 ; 1.2308196141361861E9 ; 0.0
12 ; 7418210.620424358 ; 1.2870746145212337E8 ; 8.334898535921666E7 ; 1.3559770876956818E9 ; 0.0
13 ; 7608520.548852956 ; 1.325664941056748E8 ; 9.076719597964102E7 ; 1.4846845491478052E9 ; 0.0
14 ; 7628566.061825331 ; 1.3673457052518356E8 ; 9.837571652849397E7 ; 1.61725104325348E9 ; 0.0
15 ; 7637951.063160804 ; 1.412116893240406E8 ; 1.060042825903193E8 ; 1.7539856137786636E9 ; 0.0
16 ; 7646129.283662271 ; 1.459978487302558E8 ; 1.1364223365348011E8 ; 1.8951973031027043E9 ; 0.0
17 ; 7655453.48717195 ; 1.5109304659439412E8 ; 1.2128836293714239E8 ; 2.0411951518329601E9 ; 0.0
18 ; 7664417.056832805 ; 1.564972803991015E8 ; 1.2894381642431433E8 ; 2.1922881984273543E9 ; 0.0
19 ; 7672434.906309566 ; 1.6221054727012387E8 ; 1.3660823348114714E8 ; 2.348785478826456E9 ; 0.0
20 ; 7683302.193081183 ; 1.682328439887052E8 ; 1.4428066838745672E8 ; 2.51099602609658E9 ; 0.0
21 ; 7691186.640847125 ; 1.7456416700524274E8 ; 1.519639705805379E8 ; 2.679228870085285E9 ; 0.0
22 ; 7700870.648334121 ; 1.812045124540661E8 ; 1.59655157221385E8 ; 2.853793037090528E9 ; 0.0
23 ; 7709566.932338832 ; 1.8815387616920048E8 ; 1.6735602786971912E8 ; 3.0349975495445943E9 ; 0.0
24 ; 7718426.754434395 ; 1.954122537009694E8 ; 1.7506559480205795E8 ; 3.2231514257137947E9 ; 0.0
25 ; 7725664.054151686 ; 2.016676812314743E8 ; 1.8278402155649236E8 ; 3.418563679414764E9 ; 0.0
26 ; 7735816.238134889 ; 2.0167370162933135E8 ; 1.9050968561064404E8 ; 3.6202313606462383E9 ; 0.0
27 ; 7744459.586127661 ; 2.0168007899281552E8 ; 1.9824550184877893E8 ; 3.82190506227557E9 ; 0.0
28 ; 7753506.306887034 ; 2.0168680791513208E8 ; 2.059899614349066E8 ; 4.0235851412683854E9 ; 0.0
29 ; 7763162.316472929 ; 2.0169388279628125E8 ; 2.1374346774179363E8 ; 4.2252719491835175E9 ; 0.0
30 ; 7770015.165656044 ; 2.0170129786166924E8 ; 2.2150663005826655E8 ; 4.426965831979798E9 ; 0.0
31 ; 7781425.986139919 ; 2.0170904718058828E8 ; 2.2927664522392258E8 ; 4.628667129841468E9 ; 0.0
32 ; 7786484.995420429 ; 2.0171712468445262E8 ; 2.370580712100625E8 ; 4.830376177022057E9 ; 0.0
33 ; 7797201.740007207 ; 2.0172552418468788E8 ; 2.4484455620548293E8 ; 5.03209330170651E9 ; 0.0
34 ; 7802081.44759607 ; 2.017342393901808E8 ; 2.5264175794549012E8 ; 5.233818825891197E9 ; 0.0
35 ; 7811443.746930973 ; 2.0174326392420715E8 ; 2.604438393930862E8 ; 5.435553065281378E9 ; 0.0
36 ; 7815488.381512412 ; 2.0175259134076712E8 ; 2.6825528314001718E8 ; 5.637296329205585E9 ; 0.0
37 ; 7825417.515244508 ; 2.0176221514026728E8 ; 2.760707715215296E8 ; 5.839048920546351E9 ; 0.0
38 ; 7833459.664814556 ; 2.017721287844996E8 ; 2.838961890367741E8 ; 6.040811135686619E9 ; 0.0
39 ; 7840147.998442774 ; 2.0178232571087748E8 ; 2.9172964870158863E8 ; 6.242583264471118E9 ; 0.0
40 ; 7840608.6570634935 ; 2.0179279934589913E8 ; 2.995697967000314E8 ; 6.444365590181995E9 ; 0.0
41 ; 7848555.187844695 ; 2.0180354311781687E8 ; 3.074104053570949E8 ; 6.646158389527895E9 ; 0.0
42 ; 7854337.283387997 ; 2.018145504685002E8 ; 3.152589605449396E8 ; 6.847961932645712E9 ; 0.0
43 ; 7861181.556261533 ; 2.018258148644878E8 ; 3.231132978283276E8 ; 7.049776483114212E9 ; 0.0
44 ; 7867174.659444835 ; 2.0183732980723044E8 ; 3.3097447938458914E8 ; 7.2516022979787E9 ; 0.0
45 ; 7870822.978563884 ; 2.018490888425334E8 ; 3.3884165404403394E8 ; 7.45343962778593E9 ; 0.0
46 ; 7876381.834331166 ; 2.0186108556921235E8 ; 3.4671247702259785E8 ; 7.655288716628463E9 ; 0.0
47 ; 7878986.646699083 ; 2.018733136469812E8 ; 3.54588858856929E8 ; 7.857149802197675E9 ; 0.0
48 ; 7880093.649868914 ; 2.0188576680359477E8 ; 3.624678455036281E8 ; 8.059023115844656E9 ; 0.0
49 ; 7885254.545158545 ; 2.018984388412722E8 ; 3.70347939153497E8 ; 8.260908882648251E9 ; 0.0
50 ; 7889413.764559859 ; 2.019113236424298E8 ; 3.7823319369865555E8 ; 8.462807321489523E9 ; 0.0
51 ; 7891468.41777723 ; 2.019244151747546E8 ; 3.861226074632154E8 ; 8.664718645131952E9 ; 0.0
52 ; 7893002.767526767 ; 2.0193770749565038E8 ; 3.9401407588099265E8 ; 8.866643060306707E9 ; 0.0
53 ; 7894791.8365421 ; 2.0195119475609052E8 ; 4.019070786485194E8 ; 9.068580767802359E9 ; 0.0
54 ; 7901534.071594414 ; 2.0196487120391107E8 ; 4.098018704850615E8 ; 9.270531962558449E9 ; 0.0
55 ; 7899906.186775809 ; 2.0197873118657905E8 ; 4.1770340455665594E8 ; 9.47249683376236E9 ; 0.0
56 ; 7905116.862422994 ; 2.019927691534701E8 ; 4.2560331074343175E8 ; 9.674475564948938E9 ; 0.0
57 ; 7902173.699521066 ; 2.0200697965768942E8 ; 4.3350842760585475E8 ; 9.87646833410241E9 ; 0.0
58 ; 7909903.682515743 ; 2.0202135735746905E8 ; 4.414106013053758E8 ; 1.00784753137601E10 ; 0.0
59 ; 7911437.64622242 ; 2.0203589701717463E8 ; 4.4932050498789155E8 ; 1.0280496671117569E10 ; 0.0
60 ; 7914325.524836028 ; 2.0205059350795227E8 ; 4.5723194263411397E8 ; 1.0482532568134743E10 ; 0.0
61 ; 7913316.466961223 ; 2.020654418080463E8 ; 4.6514626815895E8 ; 1.0684583161642694E10 ; 0.0
62 ; 7914276.282841637 ; 2.0208043700281668E8 ; 4.730595846259112E8 ; 1.088664860345074E10 ; 0.0
63 ; 7918618.912810556 ; 2.0209557428448376E8 ; 4.809738609087528E8 ; 1.1088729040453558E10 ; 0.0
64 ; 7921385.652754664 ; 2.0211084895162663E8 ; 4.8889247982156336E8 ; 1.129082461473804E10 ; 0.0
65 ; 7922686.59010646 ; 2.0212625640845984E8 ; 4.96813865474318E8 ; 1.1492935463689667E10 ; 0.0
66 ; 7918978.646267416 ; 2.0214179216391197E8 ; 5.047365520644245E8 ; 1.1695061720098127E10 ; 0.0
67 ; 7925538.1727542905 ; 2.0215745183052766E8 ; 5.126555307106919E8 ; 1.189720351226204E10 ; 0.0
68 ; 7927404.068927062 ; 2.0217323112321404E8 ; 5.205810688834462E8 ; 1.2099360964092567E10 ; 0.0
69 ; 7927793.390454181 ; 2.0218912585785007E8 ; 5.2850847295237327E8 ; 1.2301534195215782E10 ; 0.0
70 ; 7929326.445514707 ; 2.022051319497774E8 ; 5.3643626634282744E8 ; 1.2503723321073631E10 ; 0.0
71 ; 7929254.750900725 ; 2.022212454121879E8 ; 5.443655927883421E8 ; 1.2705928453023409E10 ; 0.0
72 ; 7933108.201939969 ; 2.0223746235442442E8 ; 5.522948475392429E8 ; 1.2908149698435596E10 ; 0.0
73 ; 7931180.334449452 ; 2.0225377898020747E8 ; 5.602279557411828E8 ; 1.311038716079002E10 ; 0.0
74 ; 7933120.229761419 ; 2.022701915858015E8 ; 5.681591360756322E8 ; 1.3312640939770227E10 ; 0.0
75 ; 7934927.94593189 ; 2.0228669655813202E8 ; 5.760922563053936E8 ; 1.351491113135603E10 ; 0.0
76 ; 7936013.540474896 ; 2.0230329037286407E8 ; 5.840271842513255E8 ; 1.3717197827914162E10 ; 0.0
77 ; 7935761.947561218 ; 2.0231996959245238E8 ; 5.919631977918004E8 ; 1.3919501118287025E10 ; 0.0
78 ; 7932182.352203339 ; 2.0233673086417127E8 ; 5.998989597393616E8 ; 1.4121821087879478E10 ; 0.0
79 ; 7933029.26620123 ; 2.0235357091813236E8 ; 6.07831142091565E8 ; 1.432415781874365E10 ; 0.0
80 ; 7933091.908831151 ; 2.0237048656529772E8 ; 6.157641713577663E8 ; 1.4526511389661783E10 ; 0.0
81 ; 7928699.896121575 ; 2.0238747469549406E8 ; 6.236972632665974E8 ; 1.4728881876227081E10 ; 0.0
82 ; 7928026.410279964 ; 2.0240453227543417E8 ; 6.31625963162719E8 ; 1.4931269350922575E10 ; 0.0
83 ; 7926155.72976933 ; 2.024216563467504E8 ; 6.39553989572999E8 ; 1.513367388319801E10 ; 0.0
84 ; 7925597.89276359 ; 2.0243884402404493E8 ; 6.474801453027683E8 ; 1.533609553954476E10 ; 0.0
85 ; 7921540.290432824 ; 2.024560924929603E8 ; 6.55405743195532E8 ; 1.5538534383568804E10 ; 0.0
86 ; 7920610.543606432 ; 2.0247339900827402E8 ; 6.633272834859648E8 ; 1.5740990476061764E10 ; 0.0
87 ; 7920876.925989088 ; 2.0249076089201996E8 ; 6.712478940295712E8 ; 1.5943463875070038E10 ; 0.0
88 ; 7916281.025148758 ; 2.0250817553163943E8 ; 6.791687709555602E8 ; 1.6145954635962057E10 ; 0.0
89 ; 7913209.795570231 ; 2.0252564037816358E8 ; 6.87085051980709E8 ; 1.6348462811493696E10 ; 0.0
90 ; 7910640.715637835 ; 2.0254315294442946E8 ; 6.949982617762792E8 ; 1.655098845187186E10 ; 0.0
91 ; 7908604.566194887 ; 2.0256071080333093E8 ; 7.02908902491917E8 ; 1.675353160481629E10 ; 0.0
92 ; 7904494.624718683 ; 2.02578311586106E8 ; 7.108175070581119E8 ; 1.6956092315619621E10 ; 0.0
93 ; 7904629.670411064 ; 2.0259595298066103E8 ; 7.187220016828306E8 ; 1.7158670627205727E10 ; 0.0
94 ; 7900924.886043476 ; 2.0261363272993308E8 ; 7.266266313532417E8 ; 1.7361266580186386E10 ; 0.0
95 ; 7899343.281405969 ; 2.0263134863029078E8 ; 7.345275562392851E8 ; 1.756388021291632E10 ; 0.0
96 ; 7896975.459267104 ; 2.0264909852997383E8 ; 7.42426899520691E8 ; 1.776651156154661E10 ; 0.0
97 ; 7892432.38190971 ; 2.0266688032757184E8 ; 7.503238749799582E8 ; 1.7969160660076584E10 ; 0.0
98 ; 7890775.762779189 ; 2.026846919705419E8 ; 7.582163073618679E8 ; 1.8171827540404156E10 ; 0.0
99 ; 7885663.457999682 ; 2.0270253145376545E8 ; 7.661070831246471E8 ; 1.83745122323747E10 ; 0.0
100 ; 7885872.687776952 ; 2.027203968181438E8 ; 7.739927465826468E8 ; 1.8577214763828465E10 ; 0.0
101 ; 7880172.976307454 ; 2.0273828614923224E8 ; 7.818786192704238E8 ; 1.8779935160646606E10 ; 0.0
102 ; 7877852.603052366 ; 2.0275619757591215E8 ; 7.897587922467313E8 ; 1.8982673446795837E10 ; 0.0
103 ; 7875529.932491735 ; 2.0277412926910087E8 ; 7.976366448497837E8 ; 1.918542964437175E10 ; 0.0
104 ; 7869681.817372532 ; 2.027920794404988E8 ; 8.055121747822754E8 ; 1.938820377364085E10 ; 0.0
105 ; 7869958.91993588 ; 2.0281004634137273E8 ; 8.13381856599648E8 ; 1.959099585308135E10 ; 0.0
106 ; 7864345.314547844 ; 2.0282802826137555E8 ; 8.212518155195838E8 ; 1.979380589942272E10 ; 0.0
107 ; 7861638.397238279 ; 2.028460235274007E8 ; 8.291161608341317E8 ; 1.9996633927684097E10 ; 0.0
108 ; 7860346.691161116 ; 2.028640305024716E8 ; 8.3697779923137E8 ; 2.01994799512115E10 ; 0.0
109 ; 7855854.650652719 ; 2.0288204758466467E8 ; 8.448381459225311E8 ; 2.040234398171397E10 ; 0.0
110 ; 7850938.888508129 ; 2.0290007320606542E8 ; 8.526940005731839E8 ; 2.0605226029298634E10 ; 0.0
111 ; 7847573.401838573 ; 2.0291810583175686E8 ; 8.60544939461692E8 ; 2.08081261025047E10 ; 0.0
112 ; 7842594.804954925 ; 2.0293614395883954E8 ; 8.683925128635305E8 ; 2.1011044208336456E10 ; 0.0
113 ; 7838209.61643639 ; 2.0295418611548203E8 ; 8.762351076684854E8 ; 2.1213980352295296E10 ; 0.0
114 ; 7836659.979166083 ; 2.029722308600017E8 ; 8.840733172849218E8 ; 2.1416934538410778E10 ; 0.0
115 ; 7830956.864653978 ; 2.0299027677997434E8 ; 8.919099772640878E8 ; 2.161990676927078E10 ; 0.0
116 ; 7825987.531733962 ; 2.0300832249137235E8 ; 8.997409341287417E8 ; 2.1822897046050755E10 ; 0.0
117 ; 7820671.10663015 ; 2.0302636663773024E8 ; 9.075669216604757E8 ; 2.2025905368542126E10 ; 0.0
118 ; 7819199.223436597 ; 2.0304440788933727E8 ; 9.153875927671059E8 ; 2.2228931735179855E10 ; 0.0
119 ; 7816029.040848497 ; 2.030624449424558E8 ; 9.232067919905425E8 ; 2.243197614306919E10 ; 0.0
120 ; 7810497.115071173 ; 2.0308047651856503E8 ; 9.31022821031391E8 ; 2.2635038588011646E10 ; 0.0
121 ; 7804897.710332569 ; 2.0309850136362925E8 ; 9.388333181464622E8 ; 2.2838119064530212E10 ; 0.0
122 ; 7801218.676801478 ; 2.0311651824738985E8 ; 9.466382158567947E8 ; 2.304121756589384E10 ; 0.0
123 ; 7794709.9247162985 ; 2.0313452596268037E8 ; 9.544394345335962E8 ; 2.324433408414123E10 ; 0.0
124 ; 7788770.571906604 ; 2.0315252332476377E8 ; 9.622341444583125E8 ; 2.3447468610103912E10 ; 0.0
125 ; 7788357.773891615 ; 2.031705091706916E8 ; 9.700229150302191E8 ; 2.3650621133428677E10 ; 0.0
126 ; 7782090.523681124 ; 2.0318848235868394E8 ; 9.778112728041106E8 ; 2.385379164259937E10 ; 0.0
127 ; 7784091.094633498 ; 2.0320644176752952E8 ; 9.855933633277918E8 ; 2.4056980124958054E10 ; 0.0
128 ; 7773821.928160402 ; 2.0322438629600585E8 ; 9.933774544224253E8 ; 2.4260186566725582E10 ; 0.0
129 ; 7767201.753180278 ; 2.0324231486231807E8 ; 1.0011512763505857E9 ; 2.4463410953021587E10 ; 0.0
130 ; 7763766.8561854595 ; 2.032602264035562E8 ; 1.008918478103766E9 ; 2.4666653267883907E10 ; 0.0
131 ; 7753872.612644035 ; 2.0327811987517044E8 ; 1.0166822449599514E9 ; 2.4869913494287464E10 ; 0.0
132 ; 7747250.777520899 ; 2.032959942504633E8 ; 1.0244361175725955E9 ; 2.5073191614162636E10 ; 0.0
133 ; 7740267.894363326 ; 2.033138485200989E8 ; 1.0321833683501164E9 ; 2.5276487608413097E10 ; 0.0
134 ; 7731996.956927098 ; 2.0333168169162774E8 ; 1.0399236362444797E9 ; 2.5479801456933197E10 ; 0.0
135 ; 7724749.478244969 ; 2.0334949278902766E8 ; 1.0476556332014067E9 ; 2.5683133138624825E10 ; 0.0
136 ; 7715955.290309892 ; 2.033672808522593E8 ; 1.0553803826796517E9 ; 2.5886482631413853E10 ; 0.0
137 ; 7707741.0604403345 ; 2.0338504493683663E8 ; 1.0630963379699616E9 ; 2.6089849912266113E10 ; 0.0
138 ; 7700437.157316646 ; 2.034027841134111E8 ; 1.070804079030402E9 ; 2.629323495720295E10 ; 0.0
139 ; 7692374.02441527 ; 2.0342049746736953E8 ; 1.0785045161877186E9 ; 2.649663774131636E10 ; 0.0
140 ; 7686724.940336086 ; 2.0343818409844536E8 ; 1.086196890212134E9 ; 2.670005823878373E10 ; 0.0
141 ; 7676253.910765151 ; 2.0345584312034214E8 ; 1.0938836151524699E9 ; 2.6903496422882175E10 ; 0.0
142 ; 7664889.982345663 ; 2.034734736603697E8 ; 1.101559869063235E9 ; 2.7106952266002518E10 ; 0.0
143 ; 7659009.533071969 ; 2.0349107485909194E8 ; 1.1092247590455806E9 ; 2.7310425739662888E10 ; 0.0
144 ; 7651252.3537637945 ; 2.0350864586998606E8 ; 1.1168837685786526E9 ; 2.751391681452198E10 ; 0.0
145 ; 7646762.616391771 ; 2.0352618585911298E8 ; 1.1245350209324164E9 ; 2.7717425460391968E10 ; 0.0
146 ; 7643024.826252563 ; 2.0354369400479835E8 ; 1.132181783548808E9 ; 2.792095164625108E10 ; 0.0
147 ; 7634332.165108807 ; 2.0356116949732387E8 ; 1.1398248083750606E9 ; 2.812449534025588E10 ; 0.0
148 ; 7627584.515351383 ; 2.0357861153862873E8 ; 1.1474591405401695E9 ; 2.83280565097532E10 ; 0.0
149 ; 7624718.176145037 ; 2.035960193420203E8 ; 1.1550867250555208E9 ; 2.853163512129183E10 ; 0.0
150 ; 7623320.270058057 ; 2.0361339213189474E8 ; 1.1627114432316658E9 ; 2.873523114063385E10 ; 0.0
151 ; 7614975.070378968 ; 2.0363072914346597E8 ; 1.170334763501724E9 ; 2.8938844532765743E10 ; 0.0
152 ; 7607040.161957311 ; 2.0364802962250376E8 ; 1.177949738572103E9 ; 2.914247526190921E10 ; 0.0
153 ; 7603259.12297242 ; 2.0366529282507998E8 ; 1.1855567787340603E9 ; 2.9346123291531715E10 ; 0.0
154 ; 7596119.2286135135 ; 2.0368251801732308E8 ; 1.1931600378570328E9 ; 2.9549788584356796E10 ; 0.0
155 ; 7589991.207013077 ; 2.0369970447518042E8 ; 1.2007561570856464E9 ; 2.975347110237412E10 ; 0.0
156 ; 7582101.676673024 ; 2.0371685148418796E8 ; 1.2083461482926595E9 ; 2.99571708068493E10 ; 0.0
157 ; 7579570.189862274 ; 2.0373395833924755E8 ; 1.2159282499693325E9 ; 3.016088765833349E10 ; 0.0
158 ; 7572792.9516265085 ; 2.037510243444111E8 ; 1.2235078201591947E9 ; 3.0364621616672737E10 ; 0.0
159 ; 7569181.049662733 ; 2.0376804881267163E8 ; 1.2310806131108212E9 ; 3.0568372641017147E10 ; 0.0
160 ; 7559722.873147009 ; 2.037850310657609E8 ; 1.238649794160484E9 ; 3.077214068982982E10 ; 0.0
161 ; 7553558.560602627 ; 2.0380197043395352E8 ; 1.246209517033631E9 ; 3.097592572089558E10 ; 0.0
162 ; 7549957.184591448 ; 2.03818866255877E8 ; 1.2537630755942338E9 ; 3.1179727691329533E10 ; 0.0
163 ; 7544911.112613339 ; 2.0383571787832797E8 ; 1.2613130327788253E9 ; 3.138354655758541E10 ; 0.0
164 ; 7536928.661325411 ; 2.038525246560941E8 ; 1.2688579438914387E9 ; 3.1587382275463737E10 ; 0.0
165 ; 7533363.422085583 ; 2.038692859517816E8 ; 1.2763948725527642E9 ; 3.179123480011983E10 ; 0.0
166 ; 7525635.138431123 ; 2.038860011356479E8 ; 1.2839282359748497E9 ; 3.1995104086071613E10 ; 0.0
167 ; 7520626.5824822765 ; 2.039026695854399E8 ; 1.2914538711132808E9 ; 3.219899008720726E10 ; 0.0
168 ; 7511988.742928618 ; 2.0391929068623686E8 ; 1.298974497695763E9 ; 3.24028927567927E10 ; 0.0
169 ; 7510292.624830631 ; 2.039358638302985E8 ; 1.3064864864386916E9 ; 3.260681204747894E10 ; 0.0
170 ; 7502326.024351514 ; 2.0395238841691753E8 ; 1.3139967790635223E9 ; 3.281074791130924E10 ; 0.0
171 ; 7495493.552741701 ; 2.039688638522768E8 ; 1.321499105087874E9 ; 3.3014700299726154E10 ; 0.0
172 ; 7489957.853515768 ; 2.03985289549311E8 ; 1.3289945986406157E9 ; 3.321866916357843E10 ; 0.0
173 ; 7481972.27869892 ; 2.0400166492757234E8 ; 1.3364845564941316E9 ; 3.3422654453127743E10 ; 0.0
174 ; 7479218.90088241 ; 2.0401798941310063E8 ; 1.3439665287728305E9 ; 3.3626656118055317E10 ; 0.0
175 ; 7475824.4552278295 ; 2.04034262438297E8 ; 1.351445747673713E9 ; 3.383067410746842E10 ; 0.0
176 ; 7471213.4237531675 ; 2.0405048344180185E8 ; 1.3589215721289408E9 ; 3.4034708369906715E10 ; 0.0
177 ; 7468610.785992749 ; 2.0406665186837617E8 ; 1.366392785552694E9 ; 3.423875885334852E10 ; 0.0
178 ; 7464469.049184552 ; 2.040827671687868E8 ; 1.373861396338687E9 ; 3.4442825505216896E10 ; 0.0
179 ; 7461180.487131391 ; 2.0409882879969475E8 ; 1.3813258653878715E9 ; 3.464690827238568E10 ; 0.0
180 ; 7455068.406163534 ; 2.041148362235473E8 ; 1.3887870458750029E9 ; 3.485100710118538E10 ; 0.0
181 ; 7450717.60071285 ; 2.041307889084732E8 ; 1.3962421142811663E9 ; 3.505512193740893E10 ; 0.0
182 ; 7447494.105481746 ; 2.0414668632818085E8 ; 1.403692831881879E9 ; 3.52592527263174E10 ; 0.0
183 ; 7446703.25333733 ; 2.041625279618599E8 ; 1.411140325987361E9 ; 3.546339941264558E10 ; 0.0
184 ; 7440174.030323112 ; 2.0417831329408544E8 ; 1.4185870292406983E9 ; 3.566756194060744E10 ; 0.0
185 ; 7439058.19323425 ; 2.0419404181472537E8 ; 1.4260272032710214E9 ; 3.587174025390152E10 ; 0.0
186 ; 7433542.982858052 ; 2.0420971301885024E8 ; 1.4334662614642556E9 ; 3.607593429571625E10 ; 0.0
187 ; 7428833.951503976 ; 2.04225326406646E8 ; 1.4408998044471135E9 ; 3.62801440087351E10 ; 0.0
188 ; 7426859.3542437665 ; 2.042408814833294E8 ; 1.4483286383986175E9 ; 3.648436933514175E10 ; 0.0
189 ; 7423652.248093421 ; 2.042563777590654E8 ; 1.4557554977528613E9 ; 3.668861021662508E10 ; 0.0
190 ; 7420600.728168966 ; 2.0427181474888778E8 ; 1.4631791500009546E9 ; 3.689286659438414E10 ; 0.0
191 ; 7412864.416659375 ; 2.0428719197262156E8 ; 1.4705997507291236E9 ; 3.7097138409133026E10 ; 0.0
192 ; 7412060.649410884 ; 2.0430250895480782E8 ; 1.478012615145783E9 ; 3.7301425601105644E10 ; 0.0
193 ; 7404904.181704797 ; 2.0431776522463077E8 ; 1.485424675795194E9 ; 3.7505728110060455E10 ; 0.0
194 ; 7405516.97140965 ; 2.0433296031584716E8 ; 1.4928295799768987E9 ; 3.771004587528509E10 ; 0.0
195 ; 7398229.122154584 ; 2.0434809376671728E8 ; 1.5002350969483082E9 ; 3.791437883560094E10 ; 0.0
196 ; 7395167.521516581 ; 2.0436316511993855E8 ; 1.5076333260704627E9 ; 3.811872692936765E10 ; 0.0
197 ; 7389151.127660458 ; 2.0437817392258048E8 ; 1.5150284935919793E9 ; 3.8323090094487595E10 ; 0.0
198 ; 7389753.073613517 ; 2.0439311972602212E8 ; 1.5224176447196398E9 ; 3.852746826841017E10 ; 0.0
199 ; 7383711.1241262425 ; 2.0326929769753453E8 ; 1.5298073977932532E9 ; 3.873186138813619E10 ; 0.0
200 ; 7377497.06944988 ; 1.5593089548366544E8 ; 1.5371911089173794E9 ; 3.8935130685833725E10 ; 0.0
201 ; 7376722.852275354 ; 1.5559758149945122E8 ; 1.5445686059868293E9 ; 3.909106158131739E10 ; 0.0
