CSV File for the City 2 on Day 212
1 - Minute m 
2 - Power Consumed at minute m 
3 - Power Produced at minute m 
4 - Energy Consumed since the beginning of the day 
5 - Energy Produced since the beginning of the day 
6 - Energy Lost since the beginning of the day on lines starting from the city
 
0 ; 122168.70486508818 ; 1.0520318770064273E8 ; 0.0 ; 0.0 ; 0.0
1 ; 123904.89473322137 ; 1.0535700751959276E8 ; 122168.70486508818 ; 1.0520318770064273E8 ; 0.0
2 ; 125132.08799090711 ; 1.0581951675792792E8 ; 246073.59959830955 ; 2.105601952202355E8 ; 0.0
3 ; 128981.6688227893 ; 1.0659071704586989E8 ; 371205.6875892166 ; 3.163797119781634E8 ; 0.0
4 ; 131524.6855003432 ; 1.0767060989912587E8 ; 500187.35641200596 ; 4.229704290240333E8 ; 0.0
5 ; 135140.4546494294 ; 1.0905919669412822E8 ; 631712.0419123492 ; 5.306410389231592E8 ; 0.0
6 ; 140162.6175686331 ; 1.1075647864399502E8 ; 766852.4965617786 ; 6.397002356172874E8 ; 0.0
7 ; 146742.04289123692 ; 1.1276245677609813E8 ; 907015.1141304118 ; 7.504567142612824E8 ; 0.0
8 ; 156101.5939053628 ; 1.1507713191214001E8 ; 1053757.1570216487 ; 8.632191710373806E8 ; 0.0
9 ; 169783.34136129936 ; 1.1770050465160209E8 ; 1209858.7509270115 ; 9.782963029495206E8 ; 0.0
10 ; 191236.87980915268 ; 1.2063257535931957E8 ; 1379642.0922883109 ; 1.0959968076011226E9 ; 0.0
11 ; 225940.00969744805 ; 1.2387334415777496E8 ; 1570878.9720974634 ; 1.216629382960442E9 ; 0.0
12 ; 281067.7097329585 ; 1.2742281092448571E8 ; 1796818.9817949114 ; 1.340502727118217E9 ; 0.0
13 ; 332536.03097403306 ; 1.3128097529461664E8 ; 2077886.69152787 ; 1.4679255380427027E9 ; 0.0
14 ; 339171.8497249321 ; 1.354478366686864E8 ; 2410422.722501903 ; 1.5992065133373194E9 ; 0.0
15 ; 340961.3828461395 ; 1.399233942249924E8 ; 2749594.572226835 ; 1.7346543500060058E9 ; 0.0
16 ; 344841.30011299683 ; 1.4470764693616292E8 ; 3090555.9550729743 ; 1.874577744230998E9 ; 0.0
17 ; 346944.689188442 ; 1.4980059358907977E8 ; 3435397.255185971 ; 2.019285391167161E9 ; 0.0
18 ; 349255.7781746131 ; 1.5520223280731064E8 ; 3782341.944374413 ; 2.169085984756241E9 ; 0.0
19 ; 352218.4787914432 ; 1.609125630751483E8 ; 4131597.7225490264 ; 2.3242882175635514E9 ; 0.0
20 ; 356352.11261209776 ; 1.669315827623711E8 ; 4483816.2013404695 ; 2.4852007806386995E9 ; 0.0
21 ; 358395.37335657293 ; 1.7325929014890978E8 ; 4840168.313952567 ; 2.6521323634010706E9 ; 0.0
22 ; 362479.56401801354 ; 1.798956834487121E8 ; 5198563.68730914 ; 2.82539165354998E9 ; 0.0
23 ; 364224.1673987142 ; 1.868407608322267E8 ; 5561043.251327154 ; 3.0052873369986925E9 ; 0.0
24 ; 367113.3761415107 ; 1.9409452044707084E8 ; 5925267.418725869 ; 3.1921280978309193E9 ; 0.0
25 ; 369834.15365293133 ; 2.003450013347706E8 ; 6292380.79486738 ; 3.3862226182779903E9 ; 0.0
26 ; 373029.16529362404 ; 2.0034574948393416E8 ; 6662214.948520311 ; 3.586567619612761E9 ; 0.0
27 ; 375258.11131115333 ; 2.003465323691005E8 ; 7035244.113813935 ; 3.786913369096695E9 ; 0.0
28 ; 376854.6072278941 ; 2.003473482091626E8 ; 7410502.225125088 ; 3.9872599014657955E9 ; 0.0
29 ; 380856.43718684744 ; 2.0034819527007803E8 ; 7787356.832352983 ; 4.187607249674958E9 ; 0.0
30 ; 385085.92775289214 ; 2.0034907187230846E8 ; 8168213.26953983 ; 4.387955444945036E9 ; 0.0
31 ; 385901.4296097114 ; 2.0034997639642435E8 ; 8553299.197292723 ; 4.588304516817345E9 ; 0.0
32 ; 388833.70793024864 ; 2.0035090728708416E8 ; 8939200.626902435 ; 4.788654493213769E9 ; 0.0
33 ; 392109.4551991798 ; 2.0035186305560067E8 ; 9328034.334832683 ; 4.989005400500854E9 ; 0.0
34 ; 394619.7349052136 ; 2.0035284228130278E8 ; 9720143.790031863 ; 5.189357263556455E9 ; 0.0
35 ; 396612.4805194118 ; 2.0035384361188972E8 ; 1.0114763524937076E7 ; 5.389710105837757E9 ; 0.0
36 ; 398772.0461762044 ; 2.0035486576295865E8 ; 1.0511376005456489E7 ; 5.590063949449647E9 ; 0.0
37 ; 401036.4837598862 ; 2.0035590751686817E8 ; 1.0910148051632693E7 ; 5.790418815212605E9 ; 0.0
38 ; 404424.72716792824 ; 2.003569677210821E8 ; 1.1311184535392579E7 ; 5.990774722729474E9 ; 0.0
39 ; 404949.11508459784 ; 2.0035804528611696E8 ; 1.1715609262560507E7 ; 6.191131690450556E9 ; 0.0
40 ; 408125.3579863725 ; 2.0035913918320078E8 ; 1.2120558377645105E7 ; 6.391489735736672E9 ; 0.0
41 ; 410712.43691353133 ; 2.0036024844173136E8 ; 1.2528683735631477E7 ; 6.591848874919873E9 ; 0.0
42 ; 411740.8134118061 ; 2.003613721466092E8 ; 1.2939396172545008E7 ; 6.792209123361605E9 ; 0.0
43 ; 413286.8443497032 ; 2.003625094355047E8 ; 1.3351136985956814E7 ; 6.992570495508214E9 ; 0.0
44 ; 415400.94619520084 ; 2.0036365949610937E8 ; 1.3764423830306517E7 ; 7.192933004943719E9 ; 0.0
45 ; 417402.88081737194 ; 2.003648215634083E8 ; 1.4179824776501717E7 ; 7.393296664439828E9 ; 0.0
46 ; 419941.4919647495 ; 2.0036599491700464E8 ; 1.459722765731909E7 ; 7.593661486003236E9 ; 0.0
47 ; 419772.0207681506 ; 2.0036717887851852E8 ; 1.501716914928384E7 ; 7.79402748092024E9 ; 0.0
48 ; 421364.5874704297 ; 2.0036837280907628E8 ; 1.543694117005199E7 ; 7.9943946597987585E9 ; 0.0
49 ; 423534.03748679516 ; 2.0036957610690233E8 ; 1.585830575752242E7 ; 8.194763032607835E9 ; 0.0
50 ; 424645.09446273453 ; 2.0037078820502076E8 ; 1.6281839795009214E7 ; 8.395132608714737E9 ; 0.0
51 ; 426054.8961129038 ; 2.003720085690709E8 ; 1.6706484889471948E7 ; 8.595503396919758E9 ; 0.0
52 ; 428082.671341468 ; 2.0037323669523913E8 ; 1.7132539785584852E7 ; 8.795875405488829E9 ; 0.0
53 ; 428493.61208947207 ; 2.0037447210830566E8 ; 1.756062245692632E7 ; 8.996248642184069E9 ; 0.0
54 ; 429154.3687096813 ; 2.003757143598058E8 ; 1.7989116069015794E7 ; 9.196623114292374E9 ; 0.0
55 ; 430926.1197048419 ; 2.0037696302630162E8 ; 1.8418270437725473E7 ; 9.39699882865218E9 ; 0.0
56 ; 431457.8456807757 ; 2.0037821770776102E8 ; 1.8849196557430316E7 ; 9.597375791678482E9 ; 0.0
57 ; 433436.87201403297 ; 2.0037947802603933E8 ; 1.9280654403111093E7 ; 9.797754009386244E9 ; 0.0
58 ; 433709.8442476644 ; 2.0038074362345925E8 ; 1.9714091275125127E7 ; 9.998133487412283E9 ; 0.0
59 ; 435009.9667731974 ; 2.0038201416148362E8 ; 2.0147801119372793E7 ; 1.0198514231035742E10 ; 0.0
60 ; 435829.1385260099 ; 2.0038328931947646E8 ; 2.058281108614599E7 ; 1.0398896245197226E10 ; 0.0
61 ; 437241.18022145366 ; 2.0038456879354686E8 ; 2.1018640224672E7 ; 1.0599279534516703E10 ; 0.0
62 ; 438691.2641604117 ; 2.0038585229547104E8 ; 2.1455881404893454E7 ; 1.079966410331025E10 ; 0.0
63 ; 439479.9381538441 ; 2.003871395516875E8 ; 2.1894572669053867E7 ; 1.100004995560572E10 ; 0.0
64 ; 440935.6613652569 ; 2.0038843030236077E8 ; 2.233405260720771E7 ; 1.1200437095157408E10 ; 0.0
65 ; 441680.30841237074 ; 2.0038972430050912E8 ; 2.2774988268572967E7 ; 1.1400825525459768E10 ; 0.0
66 ; 442159.2171863907 ; 2.0039102131119198E8 ; 2.3216668576985337E7 ; 1.1601215249760277E10 ; 0.0
67 ; 444054.3975117378 ; 2.0039232111075327E8 ; 2.365882779417173E7 ; 1.1801606271071468E10 ; 0.0
68 ; 445434.6100374435 ; 2.0039362348611632E8 ; 2.4102882191683467E7 ; 1.2001998592182222E10 ; 0.0
69 ; 444026.3054768392 ; 2.0039492823412725E8 ; 2.454831680172091E7 ; 1.2202392215668339E10 ; 0.0
70 ; 447080.61007682036 ; 2.0039623516094312E8 ; 2.499234310719775E7 ; 1.2402787143902466E10 ; 0.0
71 ; 447622.0241498167 ; 2.0039754408146188E8 ; 2.543942371727457E7 ; 1.260318337906341E10 ; 0.0
72 ; 448324.7192232176 ; 2.00398854818791E8 ; 2.5887045741424385E7 ; 1.280358092314487E10 ; 0.0
73 ; 448968.9069661785 ; 2.0040016720375225E8 ; 2.63353704606476E7 ; 1.3003979777963661E10 ; 0.0
74 ; 449395.8323398403 ; 2.0040148107441968E8 ; 2.678433936761378E7 ; 1.3204379945167414E10 ; 0.0
75 ; 450248.5535800353 ; 2.0040279627568883E8 ; 2.7233735199953623E7 ; 1.3404781426241833E10 ; 0.0
76 ; 451330.2711574347 ; 2.0040411265887472E8 ; 2.7683983753533658E7 ; 1.360518422251752E10 ; 0.0
77 ; 451994.42596143036 ; 2.0040543008133665E8 ; 2.8135314024691094E7 ; 1.3805588335176395E10 ; 0.0
78 ; 452486.6970108589 ; 2.0040674840612763E8 ; 2.8587308450652525E7 ; 1.4005993765257732E10 ; 0.0
79 ; 452661.41042519995 ; 2.004080675016673E8 ; 2.9039795147663385E7 ; 1.420640051366386E10 ; 0.0
80 ; 453464.5376024811 ; 2.0040938724143586E8 ; 2.9492456558088586E7 ; 1.4406808581165527E10 ; 0.0
81 ; 453378.86554261035 ; 2.0041070750368825E8 ; 2.9945921095691066E7 ; 1.4607217968406963E10 ; 0.0
82 ; 453827.5790991879 ; 2.0041202817118657E8 ; 3.0399299961233675E7 ; 1.4807628675910652E10 ; 0.0
83 ; 453557.27844625263 ; 2.0041334913095E8 ; 3.0853127540332865E7 ; 1.5008040704081839E10 ; 0.0
84 ; 453638.596969371 ; 2.0041467027402043E8 ; 3.130668481877912E7 ; 1.520845405321279E10 ; 0.0
85 ; 453994.1658793075 ; 2.0041599149524316E8 ; 3.176032341574849E7 ; 1.540886872348681E10 ; 0.0
86 ; 453239.5706241354 ; 2.004173126930613E8 ; 3.2214317581627797E7 ; 1.5609284714982054E10 ; 0.0
87 ; 454731.3237266673 ; 2.0041863376932317E8 ; 3.2667557152251933E7 ; 1.5809702027675116E10 ; 0.0
88 ; 453899.8332384991 ; 2.004199546291017E8 ; 3.31222884759786E7 ; 1.6010120661444439E10 ; 0.0
89 ; 454472.8234456727 ; 2.0042127518052486E8 ; 3.35761883092171E7 ; 1.621054061607354E10 ; 0.0
90 ; 453687.1942001342 ; 2.0042259533461657E8 ; 3.403066113266277E7 ; 1.6410961891254065E10 ; 0.0
91 ; 454370.9798691089 ; 2.004239150051474E8 ; 3.448434832686291E7 ; 1.661138448658868E10 ; 0.0
92 ; 453737.08602429484 ; 2.0042523410849416E8 ; 3.493871930673202E7 ; 1.6811808401593828E10 ; 0.0
93 ; 454081.33241465036 ; 2.0042655256350806E8 ; 3.539245639275631E7 ; 1.7012233635702322E10 ; 0.0
94 ; 454117.8134766078 ; 2.0042787029139063E8 ; 3.584653772517096E7 ; 1.721266018826583E10 ; 0.0
95 ; 452847.0239460517 ; 2.004291872155771E8 ; 3.630065553864757E7 ; 1.741308805855722E10 ; 0.0
96 ; 454881.02288456383 ; 2.0043050326162657E8 ; 3.6753502562593624E7 ; 1.7613517245772797E10 ; 0.0
97 ; 453200.11711564165 ; 2.0043181835711864E8 ; 3.720838358547819E7 ; 1.7813947749034424E10 ; 0.0
98 ; 453361.42725063296 ; 2.0043313243155593E8 ; 3.7661583702593826E7 ; 1.8014379567391544E10 ; 0.0
99 ; 454108.6888141683 ; 2.0043444541627246E8 ; 3.811494512984446E7 ; 1.82148126998231E10 ; 0.0
100 ; 453525.33109877177 ; 2.00435757244347E8 ; 3.856905381865863E7 ; 1.8415247145239372E10 ; 0.0
101 ; 453875.79876140284 ; 2.0043706785052153E8 ; 3.90225791497574E7 ; 1.861568290248372E10 ; 0.0
102 ; 453709.0338287201 ; 2.0043837717112413E8 ; 3.9476454948518805E7 ; 1.881611997033424E10 ; 0.0
103 ; 453328.28208949947 ; 2.0043968514399636E8 ; 3.9930163982347526E7 ; 1.9016558347505363E10 ; 0.0
104 ; 453493.00829469046 ; 2.0044099170842463E8 ; 4.038349226443703E7 ; 1.921699803264936E10 ; 0.0
105 ; 453938.7997928307 ; 2.004422968050752E8 ; 4.083698527273172E7 ; 1.9417439024357784E10 ; 0.0
106 ; 452172.8477846056 ; 2.0044360037593305E8 ; 4.1290924072524555E7 ; 1.961788132116286E10 ; 0.0
107 ; 452492.1094969921 ; 2.0044490236424372E8 ; 4.174309692030916E7 ; 1.9818324921538795E10 ; 0.0
108 ; 452748.5605520021 ; 2.004462027144586E8 ; 4.219558902980615E7 ; 2.0018769823903038E10 ; 0.0
109 ; 451397.30183777487 ; 2.0044750137218305E8 ; 4.264833759035815E7 ; 2.0219216026617496E10 ; 0.0
110 ; 452471.4174712891 ; 2.0044879828412712E8 ; 4.3099734892195925E7 ; 2.041966352798968E10 ; 0.0
111 ; 452621.33507384284 ; 2.0045009339805916E8 ; 4.3552206309667215E7 ; 2.0620112326273808E10 ; 0.0
112 ; 451920.7383415652 ; 2.0045138666276172E8 ; 4.400482764474106E7 ; 2.0820562419671867E10 ; 0.0
113 ; 451476.4858527904 ; 2.0045267802798966E8 ; 4.445674838308262E7 ; 2.102101380633463E10 ; 0.0
114 ; 450929.2401510559 ; 2.0045396744443074E8 ; 4.490822486893541E7 ; 2.1221466484362617E10 ; 0.0
115 ; 451472.9539467951 ; 2.0045525486366788E8 ; 4.535915410908647E7 ; 2.142192045180705E10 ; 0.0
116 ; 449918.21895264275 ; 2.0045654023814353E8 ; 4.581062706303326E7 ; 2.1622375706670715E10 ; 0.0
117 ; 448971.0727505679 ; 2.00457823521126E8 ; 4.62605452819859E7 ; 2.182283224690886E10 ; 0.0
118 ; 449622.26304085966 ; 2.004591046666771E8 ; 4.670951635473647E7 ; 2.2023290070429985E10 ; 0.0
119 ; 448676.81938694324 ; 2.0046038362962174E8 ; 4.715913861777733E7 ; 2.222374917509666E10 ; 0.0
120 ; 448482.8412368942 ; 2.0046166036551905E8 ; 4.760781543716428E7 ; 2.2424209558726284E10 ; 0.0
121 ; 448686.2866593767 ; 2.004629348306346E8 ; 4.805629827840117E7 ; 2.2624671219091805E10 ; 0.0
122 ; 448790.70204617665 ; 2.004642069819144E8 ; 4.850498456506055E7 ; 2.282513415392244E10 ; 0.0
123 ; 447469.7709930516 ; 2.004654767769599E8 ; 4.895377526710673E7 ; 2.3025598360904354E10 ; 0.0
124 ; 447144.593440557 ; 2.0046674417400426E8 ; 4.940124503809978E7 ; 2.3226063837681313E10 ; 0.0
125 ; 446220.5506211494 ; 2.0046800913188988E8 ; 4.9848389631540336E7 ; 2.3426530581855316E10 ; 0.0
126 ; 446970.405012619 ; 2.004692716100468E8 ; 5.029461018216149E7 ; 2.3626998590987206E10 ; 0.0
127 ; 445267.90915559133 ; 2.0047053156847245E8 ; 5.074158058717411E7 ; 2.382746786259725E10 ; 0.0
128 ; 444505.77524478035 ; 2.004717889677119E8 ; 5.11868484963297E7 ; 2.4027938394165726E10 ; 0.0
129 ; 444853.77989235084 ; 2.004730437688396E8 ; 5.163135427157448E7 ; 2.422841018313344E10 ; 0.0
130 ; 442308.50011023897 ; 2.004742959334415E8 ; 5.207620805146683E7 ; 2.442888322690228E10 ; 0.0
131 ; 442871.6621964464 ; 2.004755454235981E8 ; 5.251851655157707E7 ; 2.462935752283572E10 ; 0.0
132 ; 440491.1573410014 ; 2.0047679220186877E8 ; 5.296138821377352E7 ; 2.482983306825932E10 ; 0.0
133 ; 440338.26991797047 ; 2.0047803623127592E8 ; 5.340187937111452E7 ; 2.503030986046119E10 ; 0.0
134 ; 439481.5663165508 ; 2.0047927747529066E8 ; 5.3842217641032495E7 ; 2.5230787896692467E10 ; 0.0
135 ; 438005.3597463923 ; 2.004805158978188E8 ; 5.428169920734905E7 ; 2.543126717416776E10 ; 0.0
136 ; 436165.9105981913 ; 2.004817514631875E8 ; 5.4719704567095436E7 ; 2.563174769006558E10 ; 0.0
137 ; 435926.91190656676 ; 2.004829841361324E8 ; 5.5155870477693625E7 ; 2.5832229441528767E10 ; 0.0
138 ; 434504.3554820097 ; 2.004842138817857E8 ; 5.5591797389600195E7 ; 2.6032712425664898E10 ; 0.0
139 ; 434452.71317736094 ; 2.0048544066566435E8 ; 5.602630174508221E7 ; 2.6233196639546684E10 ; 0.0
140 ; 431504.05501712655 ; 2.0048666445365906E8 ; 5.646075445825957E7 ; 2.643368208021235E10 ; 0.0
141 ; 431254.4734292277 ; 2.0048788521202368E8 ; 5.6892258513276696E7 ; 2.6634168744666008E10 ; 0.0
142 ; 428562.2655429706 ; 2.0048910290736493E8 ; 5.732351298670592E7 ; 2.6834656629878033E10 ; 0.0
143 ; 427907.0054469097 ; 2.004903175066329E8 ; 5.775207525224889E7 ; 2.7035145732785397E10 ; 0.0
144 ; 426608.77162995265 ; 2.0049152897711167E8 ; 5.81799822576958E7 ; 2.723563605029203E10 ; 0.0
145 ; 426079.8310248173 ; 2.0049273728641033E8 ; 5.860659102932575E7 ; 2.7436127579269142E10 ; 0.0
146 ; 424292.4189131456 ; 2.0049394240245476E8 ; 5.903267086035057E7 ; 2.7636620316555553E10 ; 0.0
147 ; 424874.59222383157 ; 2.0049514429347923E8 ; 5.945696327926372E7 ; 2.7837114258958008E10 ; 0.0
148 ; 423976.4825203718 ; 2.0049634292801878E8 ; 5.988183787148755E7 ; 2.8037609403251488E10 ; 0.0
149 ; 424197.9859779999 ; 2.0049753827490175E8 ; 6.030581435400792E7 ; 2.823810574617951E10 ; 0.0
150 ; 422582.9741366795 ; 2.004987303032426E8 ; 6.073001233998592E7 ; 2.843860328445441E10 ; 0.0
151 ; 422973.9168726153 ; 2.004999189824351E8 ; 6.11525953141226E7 ; 2.8639102014757652E10 ; 0.0
152 ; 422647.7157692596 ; 2.005011042821459E8 ; 6.1575569230995215E7 ; 2.8839601933740086E10 ; 0.0
153 ; 421034.0059042791 ; 2.0050228617230803E8 ; 6.199821694676448E7 ; 2.9040103038022232E10 ; 0.0
154 ; 420216.3422587792 ; 2.0050346462311515E8 ; 6.2419250952668756E7 ; 2.9240605324194542E10 ; 0.0
155 ; 420349.6783194626 ; 2.0050463960501558E8 ; 6.283946729492754E7 ; 2.9441108788817657E10 ; 0.0
156 ; 420121.34385424125 ; 2.0050581108870697E8 ; 6.3259816973247E7 ; 2.9641613428422672E10 ; 0.0
157 ; 419606.21733090165 ; 2.0050697904513088E8 ; 6.367993831710124E7 ; 2.984211923951138E10 ; 0.0
158 ; 419721.7432171682 ; 2.0050814344546774E8 ; 6.409954453443214E7 ; 3.004262621855651E10 ; 0.0
159 ; 418160.7712011134 ; 2.0050930426113203E8 ; 6.451926627764931E7 ; 3.024313436200198E10 ; 0.0
160 ; 418663.9103996224 ; 2.0051046146376753E8 ; 6.4937427048850425E7 ; 3.044364366626311E10 ; 0.0
161 ; 417644.10308022506 ; 2.00511615025243E8 ; 6.535609095925005E7 ; 3.064415412772688E10 ; 0.0
162 ; 416261.3303743244 ; 2.0051276491764772E8 ; 6.5773735062330276E7 ; 3.084466574275212E10 ; 0.0
163 ; 416773.66567589925 ; 2.0051391111328745E8 ; 6.61899963927046E7 ; 3.104517850766977E10 ; 0.0
164 ; 415620.3206877197 ; 2.0051505358468053E8 ; 6.66067700583805E7 ; 3.124569241878306E10 ; 0.0
165 ; 415631.1270883081 ; 2.0051619230455393E8 ; 6.702239037906822E7 ; 3.1446207472367737E10 ; 0.0
166 ; 413838.6819382012 ; 2.0051732724583986E8 ; 6.743802150615652E7 ; 3.164672366467229E10 ; 0.0
167 ; 413530.5798190343 ; 2.0051845838167202E8 ; 6.785186018809472E7 ; 3.184724099191813E10 ; 0.0
168 ; 413064.6110343365 ; 2.0051958568538243E8 ; 6.826539076791376E7 ; 3.20477594502998E10 ; 0.0
169 ; 412865.2998857012 ; 2.0052070913049808E8 ; 6.867845537894809E7 ; 3.2248279035985184E10 ; 0.0
170 ; 412842.31571841304 ; 2.0052182869073796E8 ; 6.90913206788338E7 ; 3.244879974511568E10 ; 0.0
171 ; 411432.0476850554 ; 2.0052294434001005E8 ; 6.950416299455221E7 ; 3.264932157380642E10 ; 0.0
172 ; 411926.63872507383 ; 2.005240560524084E8 ; 6.991559504223727E7 ; 3.284984451814643E10 ; 0.0
173 ; 410865.78527582856 ; 2.0052516380221048E8 ; 7.032752168096234E7 ; 3.305036857419884E10 ; 0.0
174 ; 411271.09749687725 ; 2.0052626756387454E8 ; 7.073838746623817E7 ; 3.3250893738001053E10 ; 0.0
175 ; 409604.5513588638 ; 2.005273673120371E8 ; 7.114965856373505E7 ; 3.3451420005564926E10 ; 0.0
176 ; 409990.90459282964 ; 2.0052846302151045E8 ; 7.155926311509392E7 ; 3.3651947372876965E10 ; 0.0
177 ; 410110.6031296011 ; 2.0052955466728038E8 ; 7.196925401968674E7 ; 3.3852475835898476E10 ; 0.0
178 ; 408689.0202964481 ; 2.0053064222450396E8 ; 7.237936462281634E7 ; 3.4053005390565758E10 ; 0.0
179 ; 408668.88471673656 ; 2.005317256685074E8 ; 7.27880536431128E7 ; 3.425353603279026E10 ; 0.0
180 ; 408941.27783388546 ; 2.0053280497478387E8 ; 7.319672252782953E7 ; 3.445406775845877E10 ; 0.0
181 ; 408347.8781822858 ; 2.005338801189917E8 ; 7.36056638056634E7 ; 3.4654600563433556E10 ; 0.0
182 ; 407662.9963863294 ; 2.0053495107695234E8 ; 7.40140116838457E7 ; 3.485513444355254E10 ; 0.0
183 ; 407745.56041123695 ; 2.0053601782464862E8 ; 7.442167468023203E7 ; 3.505566939462949E10 ; 0.0
184 ; 407943.4569036288 ; 2.0053708033822286E8 ; 7.482942024064326E7 ; 3.525620541245414E10 ; 0.0
185 ; 406217.6904158769 ; 2.005381385939754E8 ; 7.523736369754688E7 ; 3.5456742492792366E10 ; 0.0
186 ; 405809.3564432016 ; 2.005391925683627E8 ; 7.564358138796276E7 ; 3.5657280631386345E10 ; 0.0
187 ; 405548.7969568169 ; 2.0054024223799613E8 ; 7.604939074440596E7 ; 3.5857819823954704E10 ; 0.0
188 ; 405081.9448532547 ; 2.0054128757964012E8 ; 7.645493954136278E7 ; 3.60583600661927E10 ; 0.0
189 ; 405019.12719014083 ; 2.0054232857021096E8 ; 7.686002148621604E7 ; 3.625890135377235E10 ; 0.0
190 ; 404079.9182555772 ; 2.005433651867754E8 ; 7.726504061340618E7 ; 3.645944368234256E10 ; 0.0
191 ; 404874.975259706 ; 2.0054439740654913E8 ; 7.766912053166176E7 ; 3.6659987047529335E10 ; 0.0
192 ; 403437.9871512049 ; 2.005454252068958E8 ; 7.807399550692147E7 ; 3.686053144493588E10 ; 0.0
193 ; 403972.68481624324 ; 2.005464485653256E8 ; 7.847743349407268E7 ; 3.706107687014278E10 ; 0.0
194 ; 404639.4578741855 ; 2.005474674594941E8 ; 7.888140617888892E7 ; 3.72616233187081E10 ; 0.0
195 ; 403138.0997505802 ; 2.0054848186720133E8 ; 7.92860456367631E7 ; 3.7462170786167595E10 ; 0.0
196 ; 402934.3975928225 ; 2.0054949176639032E8 ; 7.968918373651367E7 ; 3.76627192680348E10 ; 0.0
197 ; 401636.1378710881 ; 2.005504971351464E8 ; 8.00921181341065E7 ; 3.7863268759801186E10 ; 0.0
198 ; 402261.7502827361 ; 2.0055149795169616E8 ; 8.049375427197759E7 ; 3.806381925693633E10 ; 0.0
199 ; 401262.64072231285 ; 2.0055249419440624E8 ; 8.089601602226032E7 ; 3.826437075488803E10 ; 0.0
200 ; 401619.61550948006 ; 2.0055348584178275E8 ; 8.129727866298264E7 ; 3.8464923249082436E10 ; 0.0
201 ; 400786.2007968298 ; 2.005544728724702E8 ; 8.169889827849212E7 ; 3.866547673492422E10 ; 0.0
