CSV File for the City 6 on Day 54
1 - Minute m 
2 - Power Consumed at minute m 
3 - Power Produced at minute m 
4 - Energy Consumed since the beginning of the day 
5 - Energy Produced since the beginning of the day 
6 - Energy Lost since the beginning of the day on lines starting from the city
 
0 ; 1.1120678583244275E7 ; 1.0579401289930543E8 ; 0.0 ; 0.0 ; 0.0
1 ; 1.113304241763639E7 ; 1.0594445813563287E8 ; 1.1120678583244275E7 ; 1.0579401289930543E8 ; 0.0
2 ; 1.1143479878269568E7 ; 1.0640393215929791E8 ; 2.2253721000880666E7 ; 2.117384710349383E8 ; 0.0
3 ; 1.1152176790738903E7 ; 1.0717244174504226E8 ; 3.3397200879150234E7 ; 3.181424031942362E8 ; 0.0
4 ; 1.1170645556879206E7 ; 1.0824999302979565E8 ; 4.454937766988914E7 ; 4.253148449392785E8 ; 0.0
5 ; 1.1194517403691344E7 ; 1.0963659145725805E8 ; 5.5720023226768345E7 ; 5.3356483796907413E8 ; 0.0
6 ; 1.1218574092034973E7 ; 1.1133224172712758E8 ; 6.691454063045969E7 ; 6.432014294263322E8 ; 0.0
7 ; 1.1253416772571357E7 ; 1.1333694775003737E8 ; 7.813311472249466E7 ; 7.545336711534598E8 ; 0.0
8 ; 1.1306346568796039E7 ; 1.1565071260918283E8 ; 8.938653149506602E7 ; 8.678706189034972E8 ; 0.0
9 ; 1.1391685029803842E7 ; 1.182735385295049E8 ; 1.0069287806386206E8 ; 9.8352133151268E8 ; 0.0
10 ; 1.151395853982685E7 ; 1.2120542685514128E8 ; 1.120845630936659E8 ; 1.1017948700421848E9 ; 0.0
11 ; 1.1710579962373106E7 ; 1.2444637803567776E8 ; 1.2359852163349275E8 ; 1.223000296897326E9 ; 0.0
12 ; 1.202459060788374E7 ; 1.2799639162152854E8 ; 1.3530910159586585E8 ; 1.3474466749330037E9 ; 0.0
13 ; 1.2329537705649959E7 ; 1.3185546626855588E8 ; 1.473336922037496E8 ; 1.4754430665545323E9 ; 0.0
14 ; 1.236409737105963E7 ; 1.3602359975181895E8 ; 1.5966322990939957E8 ; 1.6072985328230882E9 ; 0.0
15 ; 1.2380151747080175E7 ; 1.4050078898812222E8 ; 1.720273272804592E8 ; 1.743322132574907E9 ; 0.0
16 ; 1.2392226682958111E7 ; 1.452870300668327E8 ; 1.8440747902753937E8 ; 1.8838229215630293E9 ; 0.0
17 ; 1.240821521560137E7 ; 1.5038231828825215E8 ; 1.967997057104975E8 ; 2.029109951629862E9 ; 0.0
18 ; 1.2420466306190979E7 ; 1.5578664820868063E8 ; 2.0920792092609888E8 ; 2.179492269918114E9 ; 0.0
19 ; 1.2436856493373202E7 ; 1.6150001369118842E8 ; 2.2162838723228985E8 ; 2.335278918126795E9 ; 0.0
20 ; 1.2453365526545769E7 ; 1.675224079610338E8 ; 2.3406524372566307E8 ; 2.496778931817983E9 ; 0.0
21 ; 1.2465804448281122E7 ; 1.7385382366462216E8 ; 2.4651860925220883E8 ; 2.664301339779017E9 ; 0.0
22 ; 1.2477245154503316E7 ; 1.8049425293089527E8 ; 2.5898441370048994E8 ; 2.8381551634436393E9 ; 0.0
23 ; 1.2493882795811366E7 ; 1.8744368743406898E8 ; 2.714616588549932E8 ; 3.0186494163745346E9 ; 0.0
24 ; 1.2509664313038975E7 ; 1.9470211845669413E8 ; 2.839555416508046E8 ; 3.206093103808604E9 ; 0.0
25 ; 1.2524271113730917E7 ; 2.0095757785028312E8 ; 2.964652059638436E8 ; 3.400795222265298E9 ; 0.0
26 ; 1.253551840850099E7 ; 2.0096360413318768E8 ; 3.089894770775745E8 ; 3.601752800115581E9 ; 0.0
27 ; 1.2550439827258365E7 ; 2.0096995707429674E8 ; 3.2152499548607546E8 ; 3.802716404248769E9 ; 0.0
28 ; 1.2564866693069149E7 ; 2.0097662699580646E8 ; 3.340754353133338E8 ; 4.0036863613230658E9 ; 0.0
29 ; 1.2576739112638308E7 ; 2.009836041191807E8 ; 3.4664030200640297E8 ; 4.2046629883188725E9 ; 0.0
30 ; 1.2590800038137017E7 ; 2.009908786142169E8 ; 3.5921704111904126E8 ; 4.405646592438053E9 ; 0.0
31 ; 1.260486711413848E7 ; 2.009984406442075E8 ; 3.718078411571783E8 ; 4.60663747105227E9 ; 0.0
32 ; 1.2618103709286107E7 ; 2.010062804070473E8 ; 3.8441270827131677E8 ; 4.807635911696478E9 ; 0.0
33 ; 1.2626858533317959E7 ; 2.0101438817222694E8 ; 3.9703081198060286E8 ; 5.008642192103525E9 ; 0.0
34 ; 1.2640585172715973E7 ; 2.0102275431373543E8 ; 4.0965767051392084E8 ; 5.209656580275752E9 ; 0.0
35 ; 1.2651745796075758E7 ; 2.0103136933896047E8 ; 4.222982556866368E8 ; 5.410679334589487E9 ; 0.0
36 ; 1.266462627466858E7 ; 2.010402239137311E8 ; 4.3495000148271257E8 ; 5.611710703928448E9 ; 0.0
37 ; 1.2676581440837089E7 ; 2.010493088836899E8 ; 4.4761462775738114E8 ; 5.812750927842178E9 ; 0.0
38 ; 1.268584256482372E7 ; 2.0105861529221436E8 ; 4.602912091982182E8 ; 6.013800236725868E9 ; 0.0
39 ; 1.2695485933829179E7 ; 2.0106813439512852E8 ; 4.72977051763042E8 ; 6.214858852018083E9 ; 0.0
40 ; 1.2706067410548283E7 ; 2.0107785767245966E8 ; 4.8567253769687116E8 ; 6.415926986413211E9 ; 0.0
41 ; 1.2712197882655522E7 ; 2.010877768375009E8 ; 4.9837860510741943E8 ; 6.61700484408567E9 ; 0.0
42 ; 1.272232642036119E7 ; 2.0109788384343946E8 ; 5.1109080299007493E8 ; 6.818092620923171E9 ; 0.0
43 ; 1.273530841139644E7 ; 2.0110817088780612E8 ; 5.238131294104361E8 ; 7.01919050476661E9 ; 0.0
44 ; 1.2738151068162223E7 ; 2.0111863041499156E8 ; 5.3654843782183254E8 ; 7.220298675654416E9 ; 0.0
45 ; 1.2746216308215644E7 ; 2.0112925511706334E8 ; 5.492865888899947E8 ; 7.421417306069407E9 ; 0.0
46 ; 1.2749811182162732E7 ; 2.0114003793310338E8 ; 5.620328051982104E8 ; 7.622546561186471E9 ; 0.0
47 ; 1.2758369303361591E7 ; 2.0115097204726973E8 ; 5.747826163803731E8 ; 7.823686599119575E9 ; 0.0
48 ; 1.2760436869557291E7 ; 2.0116205088577145E8 ; 5.875409856837347E8 ; 8.024837571166844E9 ; 0.0
49 ; 1.2766173894722018E7 ; 2.011732681129275E8 ; 6.003014225532919E8 ; 8.225999622052616E9 ; 0.0
50 ; 1.276789189205117E7 ; 2.0118461762646556E8 ; 6.130675964480139E8 ; 8.427172890165544E9 ; 0.0
51 ; 1.2774706301343165E7 ; 2.0119609355220032E8 ; 6.258354883400651E8 ; 8.62835750779201E9 ; 0.0
52 ; 1.2775776840159029E7 ; 2.0120769023821583E8 ; 6.386101946414083E8 ; 8.82955360134421E9 ; 0.0
53 ; 1.2780511725391326E7 ; 2.0121940224866235E8 ; 6.513859714815674E8 ; 9.030761291582426E9 ; 0.0
54 ; 1.278436184237485E7 ; 2.0123122435726476E8 ; 6.641664832069587E8 ; 9.231980693831089E9 ; 0.0
55 ; 1.2786185395896686E7 ; 2.012431515406273E8 ; 6.769508450493335E8 ; 9.433211918188354E9 ; 0.0
56 ; 1.2790132839713108E7 ; 2.0125517897140855E8 ; 6.897370304452301E8 ; 9.634455069728981E9 ; 0.0
57 ; 1.2788032894284282E7 ; 2.0126730201142934E8 ; 7.025271632849432E8 ; 9.83571024870039E9 ; 0.0
58 ; 1.2792506160686165E7 ; 2.0127951620476848E8 ; 7.153151961792275E8 ; 1.0036977550711819E10 ; 0.0
59 ; 1.2793462243252283E7 ; 2.012918172708916E8 ; 7.281077023399136E8 ; 1.0238257066916588E10 ; 0.0
60 ; 1.2802083788295023E7 ; 2.0130420109785143E8 ; 7.409011645831659E8 ; 1.0439548884187479E10 ; 0.0
61 ; 1.2803813085429434E7 ; 2.0131666373559198E8 ; 7.537032483714609E8 ; 1.064085308528533E10 ; 0.0
62 ; 1.280481541745534E7 ; 2.013292013893819E8 ; 7.665070614568903E8 ; 1.0842169749020922E10 ; 0.0
63 ; 1.2806912779378839E7 ; 2.0134181041339877E8 ; 7.793118768743457E8 ; 1.1043498950410303E10 ; 0.0
64 ; 1.2810025612053413E7 ; 2.013544873044802E8 ; 7.921187896537246E8 ; 1.1244840760823702E10 ; 0.0
65 ; 1.2805890225380063E7 ; 2.0136722869605488E8 ; 8.04928815265778E8 ; 1.1446195248128181E10 ; 0.0
66 ; 1.2809023748566074E7 ; 2.0138003135226303E8 ; 8.17734705491158E8 ; 1.1647562476824236E10 ; 0.0
67 ; 1.2811522048372328E7 ; 2.0139289216227224E8 ; 8.30543729239724E8 ; 1.1848942508176498E10 ; 0.0
68 ; 1.2815066884532493E7 ; 2.0140580813479355E8 ; 8.433552512880964E8 ; 1.205033540033877E10 ; 0.0
69 ; 1.2814029132753788E7 ; 2.0141877639279938E8 ; 8.561703181726289E8 ; 1.2251741208473564E10 ; 0.0
70 ; 1.2817203390107969E7 ; 2.0143179416844356E8 ; 8.689843473053826E8 ; 1.2453159984866364E10 ; 0.0
71 ; 1.2820843973804427E7 ; 2.0144485879818276E8 ; 8.818015506954906E8 ; 1.2654591779034807E10 ; 0.0
72 ; 1.2819907054831667E7 ; 2.0145796771809644E8 ; 8.946223946692951E8 ; 1.285603663783299E10 ; 0.0
73 ; 1.2822021811575223E7 ; 2.014711184594027E8 ; 9.074423017241267E8 ; 1.3057494605551086E10 ; 0.0
74 ; 1.2821369693232914E7 ; 2.0148430864416522E8 ; 9.202643235357019E8 ; 1.3258965724010489E10 ; 0.0
75 ; 1.2821734024873067E7 ; 2.01497535981187E8 ; 9.330856932289348E8 ; 1.3460450032654654E10 ; 0.0
76 ; 1.2821393492342448E7 ; 2.015107982620858E8 ; 9.459074272538078E8 ; 1.3661947568635841E10 ; 0.0
77 ; 1.2820225293357264E7 ; 2.015240933575455E8 ; 9.587288207461503E8 ; 1.3863458366897926E10 ; 0.0
78 ; 1.2819814747027962E7 ; 2.0153741921373734E8 ; 9.715490460395075E8 ; 1.4064982460255472E10 ; 0.0
79 ; 1.281783522513988E7 ; 2.0155077384890592E8 ; 9.843688607865355E8 ; 1.426651987946921E10 ; 0.0
80 ; 1.2811630240495833E7 ; 2.015641553501127E8 ; 9.971866960116754E8 ; 1.4468070653318115E10 ; 0.0
81 ; 1.2812228408621226E7 ; 2.0157756187013185E8 ; 1.0099983262521712E9 ; 1.4669634808668228E10 ; 0.0
82 ; 1.2801731585170396E7 ; 2.0159099162449178E8 ; 1.0228105546607924E9 ; 1.487121237053836E10 ; 0.0
83 ; 1.2801912368165908E7 ; 2.016044428886567E8 ; 1.0356122862459627E9 ; 1.5072803362162853E10 ; 0.0
84 ; 1.2797096904650856E7 ; 2.0161791399534178E8 ; 1.0484141986141286E9 ; 1.527440780505151E10 ; 0.0
85 ; 1.2792854806261703E7 ; 2.0163140333195633E8 ; 1.0612112955187794E9 ; 1.5476025719046852E10 ; 0.0
86 ; 1.2789986515874112E7 ; 2.0164490933816954E8 ; 1.074004150325041E9 ; 1.5677657122378809E10 ; 0.0
87 ; 1.278364098780476E7 ; 2.0165843050359267E8 ; 1.0867941368409152E9 ; 1.5879302031716978E10 ; 0.0
88 ; 1.2777969628133854E7 ; 2.0167196536557275E8 ; 1.0995777778287199E9 ; 1.6080960462220572E10 ; 0.0
89 ; 1.2775201057179103E7 ; 2.0168551250709227E8 ; 1.1123557474568536E9 ; 1.6282632427586143E10 ; 0.0
90 ; 1.276671443218408E7 ; 2.0169907055477026E8 ; 1.1251309485140328E9 ; 1.6484317940093235E10 ; 0.0
91 ; 1.276328610167397E7 ; 2.017126381769595E8 ; 1.1378976629462168E9 ; 1.6686017010648005E10 ; 0.0
92 ; 1.2758055824255325E7 ; 2.0172621408193535E8 ; 1.150660949047891E9 ; 1.6887729648824965E10 ; 0.0
93 ; 1.2753579711687611E7 ; 2.0173979701617193E8 ; 1.1634190048721461E9 ; 1.70894558629069E10 ; 0.0
94 ; 1.2749283097320674E7 ; 2.0175338576270106E8 ; 1.1761725845838337E9 ; 1.7291195659923073E10 ; 0.0
95 ; 1.2740761862131054E7 ; 2.017669791395503E8 ; 1.1889218676811543E9 ; 1.7492949045685776E10 ; 0.0
96 ; 1.2738037829105383E7 ; 2.017805759982557E8 ; 1.2016626295432854E9 ; 1.7694716024825325E10 ; 0.0
97 ; 1.273151574696244E7 ; 2.0179417522244594E8 ; 1.2144006673723907E9 ; 1.789649660082358E10 ; 0.0
98 ; 1.27260332765551E7 ; 2.0180777572649416E8 ; 1.2271321831193533E9 ; 1.809829077604603E10 ; 0.0
99 ; 1.2720370342976013E7 ; 2.0182137645423415E8 ; 1.2398582163959084E9 ; 1.8300098551772522E10 ; 0.0
100 ; 1.2714150771491252E7 ; 2.0183497637773743E8 ; 1.2525785867388844E9 ; 1.8501919928226757E10 ; 0.0
101 ; 1.2707952408972634E7 ; 2.0184857449614874E8 ; 1.2652927375103757E9 ; 1.8703754904604496E10 ; 0.0
102 ; 1.2699033849287422E7 ; 2.0186216983457628E8 ; 1.2780006899193485E9 ; 1.8905603479100643E10 ; 0.0
103 ; 1.269442785537968E7 ; 2.0187576144303456E8 ; 1.290699723768636E9 ; 1.910746564893522E10 ; 0.0
104 ; 1.2688676100367472E7 ; 2.01889348395437E8 ; 1.3033941516240156E9 ; 1.9309341410378254E10 ; 0.0
105 ; 1.2679069561743008E7 ; 2.019029297886356E8 ; 1.316082827724383E9 ; 1.951123075877369E10 ; 0.0
106 ; 1.267456247873981E7 ; 2.0191650474150568E8 ; 1.3287618972861261E9 ; 1.9713133688562325E10 ; 0.0
107 ; 1.266637896814349E7 ; 2.0193007239407313E8 ; 1.3414364597648659E9 ; 1.991505019330383E10 ; 0.0
108 ; 1.2661271425213745E7 ; 2.0194363190668213E8 ; 1.3541028387330093E9 ; 2.0116980265697903E10 ; 0.0
109 ; 1.2656015206599383E7 ; 2.019571824592016E8 ; 1.3667641101582232E9 ; 2.0318923897604584E10 ; 0.0
110 ; 1.264455377427313E7 ; 2.019707232502678E8 ; 1.3794201253648226E9 ; 2.0520881080063786E10 ; 0.0
111 ; 1.2637750378557134E7 ; 2.01984253496562E8 ; 1.3920646791390958E9 ; 2.0722851803314053E10 ; 0.0
112 ; 1.2631067968977336E7 ; 2.0199777243212104E8 ; 1.404702429517653E9 ; 2.0924836056810616E10 ; 0.0
113 ; 1.2624428586107334E7 ; 2.020112793076792E8 ; 1.4173334974866304E9 ; 2.1126833829242737E10 ; 0.0
114 ; 1.26166029434584E7 ; 2.0202477339004007E8 ; 1.4299579260727377E9 ; 2.1328845108550415E10 ; 0.0
115 ; 1.2602299484492853E7 ; 2.0203825396147653E8 ; 1.442574529016196E9 ; 2.1530869881940456E10 ; 0.0
116 ; 1.2598413212900804E7 ; 2.0205172031915793E8 ; 1.4551768285006888E9 ; 2.173290813590193E10 ; 0.0
117 ; 1.259105676563785E7 ; 2.0206517177460265E8 ; 1.4677752417135897E9 ; 2.193495985622109E10 ; 0.0
118 ; 1.258174166640947E7 ; 2.0207860765315545E8 ; 1.4803662984792275E9 ; 2.213702502799569E10 ; 0.0
119 ; 1.257109196662984E7 ; 2.020920272934874E8 ; 1.492948040145637E9 ; 2.2339103635648846E10 ; 0.0
120 ; 1.2565289185499616E7 ; 2.021054300471186E8 ; 1.5055191321122668E9 ; 2.2541195662942333E10 ; 0.0
121 ; 1.2555708149883093E7 ; 2.0211881527796122E8 ; 1.5180844212977664E9 ; 2.2743301092989452E10 ; 0.0
122 ; 1.2545026029840956E7 ; 2.0213218236188307E8 ; 1.5306401294476495E9 ; 2.2945419908267414E10 ; 0.0
123 ; 1.2537404880065558E7 ; 2.0214553068628985E8 ; 1.5431851554774904E9 ; 2.3147552090629295E10 ; 0.0
124 ; 1.2529331406595413E7 ; 2.0215885964972568E8 ; 1.5557225603575559E9 ; 2.3349697621315586E10 ; 0.0
125 ; 1.2519912685059246E7 ; 2.0217216866149077E8 ; 1.5682518917641513E9 ; 2.3551856480965313E10 ; 0.0
126 ; 1.2509355965999413E7 ; 2.0218545714127576E8 ; 1.5807718044492106E9 ; 2.3754028649626804E10 ; 0.0
127 ; 1.2498645437355515E7 ; 2.0219872451881143E8 ; 1.59328116041521E9 ; 2.395621410676808E10 ; 0.0
128 ; 1.2490270891140867E7 ; 2.022119702335334E8 ; 1.6057798058525655E9 ; 2.4158412831286892E10 ; 0.0
129 ; 1.248371655548968E7 ; 2.0222519373426127E8 ; 1.6182700767437065E9 ; 2.4360624801520424E10 ; 0.0
130 ; 1.2466775149632515E7 ; 2.0223839447889102E8 ; 1.6307537932991962E9 ; 2.4562849995254684E10 ; 0.0
131 ; 1.2457972585720945E7 ; 2.022515719341004E8 ; 1.6432205684488287E9 ; 2.4765088389733574E10 ; 0.0
132 ; 1.2441725920499103E7 ; 2.022647255750669E8 ; 1.6556785410345497E9 ; 2.4967339961667675E10 ; 0.0
133 ; 1.2428837706509786E7 ; 2.0227785488519707E8 ; 1.6681202669550488E9 ; 2.516960468724274E10 ; 0.0
134 ; 1.2414462527324181E7 ; 2.022909593558674E8 ; 1.6805491046615586E9 ; 2.5371882542127937E10 ; 0.0
135 ; 1.2399521807817237E7 ; 2.0230403848617566E8 ; 1.6929635671888828E9 ; 2.5574173501483803E10 ; 0.0
136 ; 1.2387696623702392E7 ; 2.0231709178270265E8 ; 1.7053630889967E9 ; 2.577647753996998E10 ; 0.0
137 ; 1.2372451594864072E7 ; 2.0233011875928354E8 ; 1.7177507856204023E9 ; 2.597879463175268E10 ; 0.0
138 ; 1.2354892845005183E7 ; 2.0234311893678853E8 ; 1.7301232372152665E9 ; 2.6181124750511967E10 ; 0.0
139 ; 1.23433450397946E7 ; 2.0235609184291264E8 ; 1.7424781300602717E9 ; 2.6383467869448753E10 ; 0.0
140 ; 1.2328622372955615E7 ; 2.0236903701197365E8 ; 1.7548214751000664E9 ; 2.6585823961291664E10 ; 0.0
141 ; 1.231015452681863E7 ; 2.0238195398471832E8 ; 1.767150097473022E9 ; 2.678819299830364E10 ; 0.0
142 ; 1.2300196293818267E7 ; 2.023948423081365E8 ; 1.7794602519998405E9 ; 2.6990574952288357E10 ; 0.0
143 ; 1.2283849414290039E7 ; 2.024077015352823E8 ; 1.7917604482936587E9 ; 2.7192969794596493E10 ; 0.0
144 ; 1.226857784930494E7 ; 2.0242053122510278E8 ; 1.8040442977079487E9 ; 2.7395377496131775E10 ; 0.0
145 ; 1.2259148003595393E7 ; 2.0243333094227308E8 ; 1.8163128755572536E9 ; 2.7597798027356876E10 ; 0.0
146 ; 1.2245419020125108E7 ; 2.0244610025703812E8 ; 1.828572023560849E9 ; 2.780023135829915E10 ; 0.0
147 ; 1.2238875969453195E7 ; 2.0245883874506062E8 ; 1.840817442580974E9 ; 2.8002677458556187E10 ; 0.0
148 ; 1.2227922007549662E7 ; 2.024715459872749E8 ; 1.8530563185504272E9 ; 2.8205136297301247E10 ; 0.0
149 ; 1.2213721483071445E7 ; 2.0248422156974635E8 ; 1.865284240557977E9 ; 2.840760784328852E10 ; 0.0
150 ; 1.220498180490538E7 ; 2.0249686508353665E8 ; 1.8774979620410483E9 ; 2.861009206485827E10 ; 0.0
151 ; 1.2194730018099349E7 ; 2.025094761245737E8 ; 1.8897029438459537E9 ; 2.8812588929941807E10 ; 0.0
152 ; 1.2183287867244698E7 ; 2.0252205429352683E8 ; 1.901897673864053E9 ; 2.901509840606638E10 ; 0.0
153 ; 1.2172248836338392E7 ; 2.0253459919568682E8 ; 1.9140809617312977E9 ; 2.9217620460359905E10 ; 0.0
154 ; 1.2160856414698197E7 ; 2.0254711044085032E8 ; 1.926253210567636E9 ; 2.942015505955559E10 ; 0.0
155 ; 1.2148054555993523E7 ; 2.0255958764320877E8 ; 1.9384140669823341E9 ; 2.962270216999644E10 ; 0.0
156 ; 1.213884139425551E7 ; 2.0257203042124152E8 ; 1.9505621215383277E9 ; 2.982526175763965E10 ; 0.0
157 ; 1.2129559102152957E7 ; 2.0258443839761284E8 ; 1.962700962932583E9 ; 3.002783378806089E10 ; 0.0
158 ; 1.2115505276860295E7 ; 2.02596811199073E8 ; 1.9748305220347362E9 ; 3.0230418226458504E10 ; 0.0
159 ; 1.2104563819288129E7 ; 2.026091484563628E8 ; 1.9869460273115964E9 ; 3.0433015037657578E10 ; 0.0
160 ; 1.2094136306563472E7 ; 2.02621449804122E8 ; 1.9990505911308844E9 ; 3.063562418611394E10 ; 0.0
161 ; 1.208371564188241E7 ; 2.026337148808007E8 ; 2.0111447274374478E9 ; 3.0838245635918064E10 ; 0.0
162 ; 1.2072808980227798E7 ; 2.0264594332857433E8 ; 2.0232284430793302E9 ; 3.1040879350798866E10 ; 0.0
163 ; 1.2057468803064885E7 ; 2.0265813479326177E8 ; 2.035301252059558E9 ; 3.124352529412744E10 ; 0.0
164 ; 1.2045668770598065E7 ; 2.0267028892424616E8 ; 2.0473587208626227E9 ; 3.1446183428920704E10 ; 0.0
165 ; 1.2037939892392894E7 ; 2.026824053743991E8 ; 2.059404389633221E9 ; 3.164885371784495E10 ; 0.0
166 ; 1.2025522489216527E7 ; 2.0269448380000702E8 ; 2.0714423295256138E9 ; 3.185153612321935E10 ; 0.0
167 ; 1.2014302179836726E7 ; 2.0270652386070085E8 ; 2.0834678520148304E9 ; 3.2054230607019356E10 ; 0.0
168 ; 1.1999146338166513E7 ; 2.027185252193877E8 ; 2.095482154194667E9 ; 3.225693713088006E10 ; 0.0
169 ; 1.1988838697932784E7 ; 2.0273048754218534E8 ; 2.1074813005328336E9 ; 3.2459655656099445E10 ; 0.0
170 ; 1.1977957180160502E7 ; 2.0274241049835896E8 ; 2.1194701392307663E9 ; 3.2662386143641632E10 ; 0.0
171 ; 1.1966079773202464E7 ; 2.0275429376026008E8 ; 2.1314480964109268E9 ; 3.286512855413999E10 ; 0.0
172 ; 1.1952653249296365E7 ; 2.0276613700326782E8 ; 2.1434141761841292E9 ; 3.3067882847900253E10 ; 0.0
173 ; 1.1942581597717924E7 ; 2.0277793990573218E8 ; 2.1553668294334254E9 ; 3.3270648984903522E10 ; 0.0
174 ; 1.193500981576111E7 ; 2.0278970214891925E8 ; 2.167309411031143E9 ; 3.3473426924809254E10 ; 0.0
175 ; 1.1930521684348902E7 ; 2.0280142341695863E8 ; 2.1792444208469043E9 ; 3.367621662695817E10 ; 0.0
176 ; 1.1921224282521721E7 ; 2.0281310339679232E8 ; 2.1911749425312533E9 ; 3.387901805037513E10 ; 0.0
177 ; 1.1915661862419035E7 ; 2.028247417781258E8 ; 2.203096166813775E9 ; 3.4081831153771923E10 ; 0.0
178 ; 1.1906725471098147E7 ; 2.0283633825338063E8 ; 2.215011828676194E9 ; 3.428465589555005E10 ; 0.0
179 ; 1.1898941625107411E7 ; 2.028478925176486E8 ; 2.226918554147292E9 ; 3.448749223380343E10 ; 0.0
180 ; 1.189284672268837E7 ; 2.028594042686479E8 ; 2.2388174957723994E9 ; 3.4690340126321075E10 ; 0.0
181 ; 1.1885894068325013E7 ; 2.0287087320668027E8 ; 2.2507103424950876E9 ; 3.489319953058972E10 ; 0.0
182 ; 1.1879854333554912E7 ; 2.028822990345901E8 ; 2.2625962365634127E9 ; 3.50960704037964E10 ; 0.0
183 ; 1.187007296643093E7 ; 2.028936814577247E8 ; 2.2744760908969674E9 ; 3.529895270283099E10 ; 0.0
184 ; 1.1862899965944108E7 ; 2.02905020183896E8 ; 2.2863461638633986E9 ; 3.550184638428872E10 ; 0.0
185 ; 1.1856658462432606E7 ; 2.0291631492334375E8 ; 2.298209063829343E9 ; 3.570475140447262E10 ; 0.0
186 ; 1.1846924097488245E7 ; 2.0292756538869965E8 ; 2.310065722291775E9 ; 3.5907667719395966E10 ; 0.0
187 ; 1.1840708258062195E7 ; 2.0293877129495302E8 ; 2.3219126463892636E9 ; 3.611059528478467E10 ; 0.0
188 ; 1.1836541938426143E7 ; 2.0294993235941747E8 ; 2.333753354647326E9 ; 3.631353405607962E10 ; 0.0
189 ; 1.1829544477792257E7 ; 2.0296104830169886E8 ; 2.345589896585752E9 ; 3.651648398843904E10 ; 0.0
190 ; 1.1820217623331964E7 ; 2.0297211884366426E8 ; 2.3574194410635443E9 ; 3.671944503674074E10 ; 0.0
191 ; 1.1813122444855787E7 ; 2.0298314370941195E8 ; 2.3692396586868763E9 ; 3.6922417155584404E10 ; 0.0
192 ; 1.1808860535131495E7 ; 2.029941226252425E8 ; 2.381052781131732E9 ; 3.7125400299293816E10 ; 0.0
193 ; 1.179891369762242E7 ; 2.030050553196309E8 ; 2.3928616416668634E9 ; 3.732839442191906E10 ; 0.0
194 ; 1.1793668272870352E7 ; 2.0301594152319947E8 ; 2.4046605553644857E9 ; 3.753139947723869E10 ; 0.0
195 ; 1.1786410014969453E7 ; 2.0302678096869186E8 ; 2.4164542236373563E9 ; 3.7734415418761894E10 ; 0.0
