CSV File for the City 4 on Day 173
1 - Minute m 
2 - Power Consumed at minute m 
3 - Power Produced at minute m 
4 - Energy Consumed since the beginning of the day 
5 - Energy Produced since the beginning of the day 
6 - Energy Lost since the beginning of the day on lines starting from the city
 
0 ; 2059817.0496800093 ; 1.0611247132952085E8 ; 0.0 ; 0.0 ; 0.0
1 ; 2066120.0382412309 ; 1.0626296829907978E8 ; 2059817.0496800093 ; 1.0611247132952085E8 ; 0.0
2 ; 2072402.0046820464 ; 1.0672249585341075E8 ; 4125937.0879212404 ; 2.1237543962860063E8 ; 0.0
3 ; 2077288.3959835412 ; 1.0749105851246047E8 ; 6198339.092603287 ; 3.190979354820114E8 ; 0.0
4 ; 2086269.528243905 ; 1.0856866033339292E8 ; 8275627.488586828 ; 4.2658899399447185E8 ; 0.0
5 ; 2099684.754315926 ; 1.0995530488593107E8 ; 1.0361897016830733E7 ; 5.3515765432786477E8 ; 0.0
6 ; 2116469.8295601453 ; 1.1165099523020175E8 ; 1.2461581771146659E7 ; 6.451129592137959E8 ; 0.0
7 ; 2137558.6852050396 ; 1.1365573389740086E8 ; 1.4578051600706805E7 ; 7.567639544439976E8 ; 0.0
8 ; 2167778.9955022754 ; 1.15969522873559E8 ; 1.6715610285911843E7 ; 8.704196883413985E8 ; 0.0
9 ; 2217779.6025051805 ; 1.1859236358665073E8 ; 1.8883389281414118E7 ; 9.863892112149575E8 ; 0.0
10 ; 2291601.352520483 ; 1.2152425689724267E8 ; 2.11011688839193E7 ; 1.104981574801608E9 ; 0.0
11 ; 2414804.042109217 ; 1.247652030928236E8 ; 2.3392770236439783E7 ; 1.2265058316988506E9 ; 0.0
12 ; 2613526.6778271515 ; 1.283152018859047E8 ; 2.5807574278549E7 ; 1.3512710347916741E9 ; 0.0
13 ; 2803506.084667624 ; 1.3217425241591936E8 ; 2.842110095637615E7 ; 1.479586236677579E9 ; 0.0
14 ; 2825463.754017904 ; 1.3634235325489312E8 ; 3.1224607041043773E7 ; 1.6117604890934982E9 ; 0.0
15 ; 2829348.921004172 ; 1.4081950241679525E8 ; 3.405007079506168E7 ; 1.7481028423483913E9 ; 0.0
16 ; 2837896.0694567747 ; 1.4560569737042996E8 ; 3.687941971606585E7 ; 1.8889223447651865E9 ; 0.0
17 ; 2846751.8232775438 ; 1.5070093505567035E8 ; 3.9717315785522625E7 ; 2.0345280421356165E9 ; 0.0
18 ; 2854057.237361571 ; 1.5610521190279347E8 ; 4.2564067608800165E7 ; 2.185228977191287E9 ; 0.0
19 ; 2864931.6969342874 ; 1.6181852385463533E8 ; 4.541812484616174E7 ; 2.3413341890940804E9 ; 0.0
20 ; 2872788.82792214 ; 1.678408663912492E8 ; 4.828305654309603E7 ; 2.5031527129487157E9 ; 0.0
21 ; 2880328.761217856 ; 1.741722345567287E8 ; 5.115584537101817E7 ; 2.670993579339965E9 ; 0.0
22 ; 2887010.3126427694 ; 1.8081262298783672E8 ; 5.4036174132236026E7 ; 2.8451658138966937E9 ; 0.0
23 ; 2897517.301930171 ; 1.8776202594407648E8 ; 5.6923184444878794E7 ; 3.0259784368845305E9 ; 0.0
24 ; 2901657.03796272 ; 1.9502043733883506E8 ; 5.982070174680897E7 ; 3.213740462828607E9 ; 0.0
25 ; 2909136.0657032514 ; 2.012758916694237E8 ; 6.272235878477169E7 ; 3.4087609001674423E9 ; 0.0
26 ; 2919051.821312166 ; 2.0128193008619478E8 ; 6.563149485047494E7 ; 3.610036791836866E9 ; 0.0
27 ; 2926311.264792229 ; 2.0128831494970083E8 ; 6.85505466717871E7 ; 3.811318721923061E9 ; 0.0
28 ; 2934015.8544815816 ; 2.0129503910945112E8 ; 7.147685793657933E7 ; 4.0126070368727617E9 ; 0.0
29 ; 2943929.1097358237 ; 2.0130209522858962E8 ; 7.441087379106091E7 ; 4.213902075982213E9 ; 0.0
30 ; 2949194.651591161 ; 2.01309475814527E8 ; 7.735480290079673E7 ; 4.415204171210803E9 ; 0.0
31 ; 2957716.252508936 ; 2.01317173248553E8 ; 8.03039975523879E7 ; 4.61651364702533E9 ; 0.0
32 ; 2966057.91217705 ; 2.013251798142436E8 ; 8.326171380489683E7 ; 4.817830820273883E9 ; 0.0
33 ; 2972830.3953865427 ; 2.0133348772450918E8 ; 8.622777171707389E7 ; 5.019156000088126E9 ; 0.0
34 ; 2977723.167870404 ; 2.0134208914716107E8 ; 8.920060211246043E7 ; 5.220489487812635E9 ; 0.0
35 ; 2985493.6335852463 ; 2.0135097622890487E8 ; 9.217832528033084E7 ; 5.421831576959797E9 ; 0.0
36 ; 2994327.214834318 ; 2.0136014111769667E8 ; 9.516381891391608E7 ; 5.623182553188702E9 ; 0.0
37 ; 3000093.3845899203 ; 2.0136957598342437E8 ; 9.81581461287504E7 ; 5.824542694306398E9 ; 0.0
38 ; 3004237.403539945 ; 2.0137927303689986E8 ; 1.0115823951334032E8 ; 6.025912270289823E9 ; 0.0
39 ; 3011044.04466545 ; 2.0138922454716977E8 ; 1.0416247691688026E8 ; 6.227291543326722E9 ; 0.0
40 ; 3016057.1205356987 ; 2.0139942285716885E8 ; 1.0717352096154572E8 ; 6.428680767873892E9 ; 0.0
41 ; 3021694.3318809476 ; 2.0140986039775756E8 ; 1.1018957808208142E8 ; 6.630080190731061E9 ; 0.0
42 ; 3026535.055725225 ; 2.0142052970019716E8 ; 1.1321127241396236E8 ; 6.8314900511288185E9 ; 0.0
43 ; 3030099.662543414 ; 2.014314234071267E8 ; 1.162378074696876E8 ; 7.032910580829016E9 ; 0.0
44 ; 3034685.3704781905 ; 2.014425342821139E8 ; 1.1926790713223101E8 ; 7.234342004236142E9 ; 0.0
45 ; 3038602.388691519 ; 2.014538552178589E8 ; 1.2230259250270921E8 ; 7.435784538518256E9 ; 0.0
46 ; 3042277.455880284 ; 2.0146537924313283E8 ; 1.2534119489140072E8 ; 7.637238393736115E9 ; 0.0
47 ; 3045681.333838512 ; 2.0147709952853668E8 ; 1.2838347234728101E8 ; 7.838703772979248E9 ; 0.0
48 ; 3047405.87252796 ; 2.0148900939116624E8 ; 1.3142915368111952E8 ; 8.040180872507785E9 ; 0.0
49 ; 3050914.330059316 ; 2.0150110229826894E8 ; 1.344765595536475E8 ; 8.241669881898952E9 ; 0.0
50 ; 3054821.0787304672 ; 2.015133718699772E8 ; 1.375274738837068E8 ; 8.443170984197221E9 ; 0.0
51 ; 3056406.547990374 ; 2.015258118812001E8 ; 1.4058229496243727E8 ; 8.644684356067198E9 ; 0.0
52 ; 3056470.903753508 ; 2.0153841626275337E8 ; 1.4363870151042765E8 ; 8.846210167948399E9 ; 0.0
53 ; 3058975.303016635 ; 2.015511791018033E8 ; 1.4669517241418117E8 ; 9.047748584211151E9 ; 0.0
54 ; 3058712.451745812 ; 2.0156409464169693E8 ; 1.497541477171978E8 ; 9.249299763312954E9 ; 0.0
55 ; 3062390.9496967127 ; 2.0157715728124654E8 ; 1.528128601689436E8 ; 9.45086385795465E9 ; 0.0
56 ; 3061982.1822767756 ; 2.0159036157353246E8 ; 1.5587525111864033E8 ; 9.652441015235897E9 ; 0.0
57 ; 3065010.007238731 ; 2.0160370222428364E8 ; 1.5893723330091712E8 ; 9.85403137680943E9 ; 0.0
58 ; 3069207.1771751298 ; 2.0161717408989134E8 ; 1.6200224330815583E8 ; 1.0055635079033712E10 ; 0.0
59 ; 3069094.3647221327 ; 2.0163077217510664E8 ; 1.6507145048533097E8 ; 1.0257252253123604E10 ; 0.0
60 ; 3068893.3798761936 ; 2.0164449163046876E8 ; 1.681405448500531E8 ; 1.045888302529871E10 ; 0.0
61 ; 3069190.287316828 ; 2.01658327749507E8 ; 1.712094382299293E8 ; 1.0660527516929178E10 ; 0.0
62 ; 3069034.519540869 ; 2.0167227596575472E8 ; 1.7427862851724613E8 ; 1.0862185844678686E10 ; 0.0
63 ; 3072974.9743814906 ; 2.0168633184961104E8 ; 1.77347663036787E8 ; 1.1063858120644442E10 ; 0.0
64 ; 3074472.1633990514 ; 2.017004911050818E8 ; 1.8042063801116848E8 ; 1.1265544452494053E10 ; 0.0
65 ; 3076738.947504862 ; 2.017147495664281E8 ; 1.8349511017456752E8 ; 1.1467244943599134E10 ; 0.0
66 ; 3077607.362728054 ; 2.0172910319474807E8 ; 1.8657184912207237E8 ; 1.1668959693165562E10 ; 0.0
67 ; 3080455.139086213 ; 2.017435480745144E8 ; 1.8964945648480043E8 ; 1.187068879636031E10 ; 0.0
68 ; 3081043.028364242 ; 2.017580804100875E8 ; 1.9272991162388664E8 ; 1.2072432344434824E10 ; 0.0
69 ; 3081474.6177944145 ; 2.0177269652222228E8 ; 1.958109546522509E8 ; 1.2274190424844912E10 ; 0.0
70 ; 3082946.2646502354 ; 2.0178739284458345E8 ; 1.988924292700453E8 ; 1.2475963121367134E10 ; 0.0
71 ; 3085466.4528517704 ; 2.018021659202831E8 ; 2.0197537553469554E8 ; 1.2677750514211718E10 ; 0.0
72 ; 3084819.6886078306 ; 2.0181701239845207E8 ; 2.050608419875473E8 ; 1.2879552680132E10 ; 0.0
73 ; 3082220.820185607 ; 2.01831929030855E8 ; 2.0814566167615515E8 ; 1.3081369692530453E10 ; 0.0
74 ; 3085381.045396394 ; 2.018469126685575E8 ; 2.1122788249634075E8 ; 1.3283201621561308E10 ; 0.0
75 ; 3084126.116415112 ; 2.0186196025865257E8 ; 2.1431326354173714E8 ; 1.3485048534229866E10 ; 0.0
76 ; 3087929.4819185706 ; 2.0187706884105214E8 ; 2.1739738965815225E8 ; 1.3686910494488518E10 ; 0.0
77 ; 3085719.1061912663 ; 2.0189223554534858E8 ; 2.2048531914007083E8 ; 1.388878756332957E10 ; 0.0
78 ; 3086660.443653354 ; 2.0190745758775E8 ; 2.235710382462621E8 ; 1.409067979887492E10 ; 0.0
79 ; 3082015.017148139 ; 2.0192273226809224E8 ; 2.2665769868991545E8 ; 1.429258725646267E10 ; 0.0
80 ; 3081809.5882116044 ; 2.0193805696693036E8 ; 2.297397137070636E8 ; 1.4494509988730762E10 ; 0.0
81 ; 3079271.540210001 ; 2.019534291427101E8 ; 2.3282152329527518E8 ; 1.4696448045697693E10 ; 0.0
82 ; 3079359.151852679 ; 2.0196884632902172E8 ; 2.359007948354852E8 ; 1.4898401474840403E10 ; 0.0
83 ; 3075149.9269870888 ; 2.0198430613193557E8 ; 2.3898015398733786E8 ; 1.5100370321169424E10 ; 0.0
84 ; 3073729.140857279 ; 2.019998062274201E8 ; 2.4205530391432494E8 ; 1.530235462730136E10 ; 0.0
85 ; 3071514.3340754397 ; 2.0201534435884178E8 ; 2.4512903305518222E8 ; 1.550435443352878E10 ; 0.0
86 ; 3067483.326967549 ; 2.0203091833454633E8 ; 2.4820054738925767E8 ; 1.570636977788762E10 ; 0.0
87 ; 3065746.2669259375 ; 2.0204652602552027E8 ; 2.512680307162252E8 ; 1.5908400696222168E10 ; 0.0
88 ; 3062312.5900583984 ; 2.0206216536313173E8 ; 2.5433377698315114E8 ; 1.6110447222247688E10 ; 0.0
89 ; 3061680.9703840637 ; 2.0207783433694923E8 ; 2.5739608957320952E8 ; 1.631250938761082E10 ; 0.0
90 ; 3060515.45194687 ; 2.020935309926365E8 ; 2.604577705435936E8 ; 1.651458722194777E10 ; 0.0
91 ; 3056635.915287258 ; 2.0210925342992243E8 ; 2.6351828599554047E8 ; 1.6716680752940405E10 ; 0.0
92 ; 3054536.9609876894 ; 2.0212499980064347E8 ; 2.6657492191082773E8 ; 1.6918790006370327E10 ; 0.0
93 ; 3051133.681870479 ; 2.0214076830685765E8 ; 2.6962945887181544E8 ; 1.712091500617097E10 ; 0.0
94 ; 3051287.205365903 ; 2.0215655719902727E8 ; 2.726805925536859E8 ; 1.732305577447783E10 ; 0.0
95 ; 3045902.5679503228 ; 2.0217236477426925E8 ; 2.757318797590518E8 ; 1.7525212331676857E10 ; 0.0
96 ; 3046377.928645486 ; 2.021881893746704E8 ; 2.787777823270021E8 ; 1.7727384696451126E10 ; 0.0
97 ; 3042260.6865160824 ; 2.0220402938566622E8 ; 2.818241602556476E8 ; 1.7929572885825798E10 ; 0.0
98 ; 3038272.7773597557 ; 2.0221988323448086E8 ; 2.848664209421637E8 ; 1.8131776915211464E10 ; 0.0
99 ; 3036669.190463871 ; 2.0223574938862622E8 ; 2.879046937195235E8 ; 1.8333996798445946E10 ; 0.0
100 ; 3033065.9145547245 ; 2.022516263544585E8 ; 2.909413629099874E8 ; 1.853623254783457E10 ; 0.0
101 ; 3028912.1099477513 ; 2.0226751267579016E8 ; 2.939744288245421E8 ; 1.873848417418903E10 ; 0.0
102 ; 3027423.8522076714 ; 2.0228340693255496E8 ; 2.9700334093448985E8 ; 1.894075168686482E10 ; 0.0
103 ; 3020571.134779695 ; 2.0229930773952487E8 ; 3.000307647866975E8 ; 1.9143035093797375E10 ; 0.0
104 ; 3020538.6898019854 ; 2.0231521374507636E8 ; 3.030513359214772E8 ; 1.93453344015369E10 ; 0.0
105 ; 3016974.0554918917 ; 2.0233112363000467E8 ; 3.060718746112792E8 ; 1.9547649615281975E10 ; 0.0
106 ; 3013891.2579104933 ; 2.0234703610638422E8 ; 3.0908884866677105E8 ; 1.974998073891198E10 ; 0.0
107 ; 3011013.5213615717 ; 2.0236294991647297E8 ; 3.1210273992468154E8 ; 1.9952327775018364E10 ; 0.0
108 ; 3007170.251107753 ; 2.0237886383166E8 ; 3.1511375344604313E8 ; 2.0154690724934837E10 ; 0.0
109 ; 3004187.8165374952 ; 2.023947766514537E8 ; 3.181209236971509E8 ; 2.03570695887665E10 ; 0.0
110 ; 3002032.0653461674 ; 2.024106872025095E8 ; 3.211251115136884E8 ; 2.0559464365417953E10 ; 0.0
111 ; 2995343.5213212846 ; 2.0242659433769557E8 ; 3.2412714357903457E8 ; 2.0761875052620464E10 ; 0.0
112 ; 2994534.0180558534 ; 2.02442496935195E8 ; 3.2712248710035586E8 ; 2.096430164695816E10 ; 0.0
113 ; 2988874.7542607565 ; 2.024583938976428E8 ; 3.301170211184117E8 ; 2.1166744143893356E10 ; 0.0
114 ; 2985047.7004689127 ; 2.0247428415129668E8 ; 3.331058958726725E8 ; 2.1369202537791E10 ; 0.0
115 ; 2979798.2038426385 ; 2.0249016664524013E8 ; 3.360909435731414E8 ; 2.15716768219423E10 ; 0.0
116 ; 2978381.6809928 ; 2.0250604035061628E8 ; 3.3907074177698404E8 ; 2.177416698858754E10 ; 0.0
117 ; 2973856.8978070775 ; 2.0252190425989184E8 ; 3.420491234579768E8 ; 2.1976673028938156E10 ; 0.0
118 ; 2970570.4141991735 ; 2.0253775738614926E8 ; 3.450229803557839E8 ; 2.2179194933198048E10 ; 0.0
119 ; 2965150.6443826347 ; 2.0255359876240668E8 ; 3.4799355076998305E8 ; 2.2381732690584198E10 ; 0.0
120 ; 2961034.3087549997 ; 2.0256942744096383E8 ; 3.509587014143657E8 ; 2.2584286289346603E10 ; 0.0
121 ; 2959024.8523368174 ; 2.0258524249277344E8 ; 3.539197357231207E8 ; 2.2786855716787567E10 ; 0.0
122 ; 2953212.235639629 ; 2.026010430068368E8 ; 3.568787605754575E8 ; 2.2989440959280342E10 ; 0.0
123 ; 2952307.022276212 ; 2.0261682808962253E8 ; 3.5983197281109715E8 ; 2.3192042002287178E10 ; 0.0
124 ; 2942601.608916688 ; 2.0263259686450765E8 ; 3.6278427983337337E8 ; 2.33946588303768E10 ; 0.0
125 ; 2941958.1345295925 ; 2.0264834847124025E8 ; 3.6572688144229007E8 ; 2.3597291427241306E10 ; 0.0
126 ; 2938189.3169722627 ; 2.0266408206542245E8 ; 3.6866883957681966E8 ; 2.3799939775712547E10 ; 0.0
127 ; 2933560.465481046 ; 2.0267979681801313E8 ; 3.716070288937919E8 ; 2.400260385777797E10 ; 0.0
128 ; 2926204.5128986095 ; 2.0269549191484976E8 ; 3.7454058935927296E8 ; 2.420528365459598E10 ; 0.0
129 ; 2925673.5840192433 ; 2.0271116655618808E8 ; 3.774667938721716E8 ; 2.440797914651083E10 ; 0.0
130 ; 2916247.2139348034 ; 2.0272681995625943E8 ; 3.803924674561908E8 ; 2.4610690313067017E10 ; 0.0
131 ; 2911918.004424247 ; 2.027424513428447E8 ; 3.833087146701256E8 ; 2.4813417133023277E10 ; 0.0
132 ; 2902256.825935146 ; 2.0275805995686427E8 ; 3.862206326745499E8 ; 2.5016159584366123E10 ; 0.0
133 ; 2896654.031309856 ; 2.0277364505198345E8 ; 3.89122889500485E8 ; 2.5218917644322987E10 ; 0.0
134 ; 2886679.287413933 ; 2.027892058942325E8 ; 3.9201954353179485E8 ; 2.542169128937497E10 ; 0.0
135 ; 2882796.8849631804 ; 2.0280474176164114E8 ; 3.949062228192088E8 ; 2.5624480495269203E10 ; 0.0
136 ; 2872689.8202301357 ; 2.0282025194388622E8 ; 3.9778901970417196E8 ; 2.5827285237030846E10 ; 0.0
137 ; 2866319.7923092023 ; 2.028357357419529E8 ; 4.006617095244021E8 ; 2.603010548897473E10 ; 0.0
138 ; 2860508.048024845 ; 2.0285119246780816E8 ; 4.035280293167113E8 ; 2.6232941224716682E10 ; 0.0
139 ; 2851947.378212157 ; 2.0286662144408622E8 ; 4.0638853736473614E8 ; 2.643579241718449E10 ; 0.0
140 ; 2846269.786937294 ; 2.0288202200378576E8 ; 4.092404847429483E8 ; 2.663865903862858E10 ; 0.0
141 ; 2836663.946133267 ; 2.0289739348997816E8 ; 4.120867545298856E8 ; 2.6841541060632362E10 ; 0.0
142 ; 2829855.903855869 ; 2.029127352555263E8 ; 4.1492341847601885E8 ; 2.704443845412234E10 ; 0.0
143 ; 2821327.114840452 ; 2.0292804666281372E8 ; 4.177532743798747E8 ; 2.724735118937787E10 ; 0.0
144 ; 2814908.7039162107 ; 2.0294332708348358E8 ; 4.2057460149471515E8 ; 2.7450279236040684E10 ; 0.0
145 ; 2809300.325962726 ; 2.0295857589818698E8 ; 4.2338951019863135E8 ; 2.765322256312417E10 ; 0.0
146 ; 2800830.307098976 ; 2.0297379249634054E8 ; 4.2619881052459407E8 ; 2.7856181139022354E10 ; 0.0
147 ; 2801886.78747944 ; 2.0298897627589256E8 ; 4.2899964083169305E8 ; 2.8059154931518696E10 ; 0.0
148 ; 2795042.0022084992 ; 2.0300412664309752E8 ; 4.318015276191725E8 ; 2.826214390779459E10 ; 0.0
149 ; 2790468.043295574 ; 2.0301924301229876E8 ; 4.34596569621381E8 ; 2.8465148034437687E10 ; 0.0
150 ; 2785093.1586714443 ; 2.03034324805719E8 ; 4.3738703766467655E8 ; 2.8668167277449986E10 ; 0.0
151 ; 2780449.8396783853 ; 2.0304937145325777E8 ; 4.40172130823348E8 ; 2.8871201602255703E10 ; 0.0
152 ; 2779514.0112799285 ; 2.0306438239229688E8 ; 4.429525806630264E8 ; 2.907425097370896E10 ; 0.0
153 ; 2766980.0799789005 ; 2.0307935706751183E8 ; 4.4573209467430633E8 ; 2.9277315356101257E10 ; 0.0
154 ; 2763481.410585421 ; 2.0309429493069053E8 ; 4.484990747542852E8 ; 2.948039471316877E10 ; 0.0
155 ; 2761470.416925289 ; 2.0310919544055805E8 ; 4.512625561648706E8 ; 2.968348900809946E10 ; 0.0
156 ; 2754790.148528721 ; 2.031240580626076E8 ; 4.5402402658179593E8 ; 2.988659820354002E10 ; 0.0
157 ; 2749442.270671808 ; 2.031388822689373E8 ; 4.567788167303246E8 ; 3.0089722261602627E10 ; 0.0
158 ; 2744425.638467375 ; 2.0315366753809276E8 ; 4.595282590009964E8 ; 3.0292861143871563E10 ; 0.0
159 ; 2740246.5125443074 ; 2.03168413354915E8 ; 4.622726846394638E8 ; 3.0496014811409657E10 ; 0.0
160 ; 2736989.990530986 ; 2.0318311921039364E8 ; 4.650129311520081E8 ; 3.0699183224764572E10 ; 0.0
161 ; 2731488.0493202773 ; 2.0319778460152516E8 ; 4.677499211425391E8 ; 3.0902366343974964E10 ; 0.0
162 ; 2725103.6423392813 ; 2.0321240903117603E8 ; 4.7048140919185936E8 ; 3.110556412857649E10 ; 0.0
163 ; 2721438.982716123 ; 2.032269920079505E8 ; 4.7320651283419865E8 ; 3.1308776537607666E10 ; 0.0
164 ; 2713225.967420488 ; 2.0324153304606286E8 ; 4.759279518169148E8 ; 3.1512003529615616E10 ; 0.0
165 ; 2711907.4269386693 ; 2.032560316652141E8 ; 4.7864117778433526E8 ; 3.171524506266168E10 ; 0.0
166 ; 2705017.471916542 ; 2.032704873904727E8 ; 4.813530852112739E8 ; 3.1918501094326893E10 ; 0.0
167 ; 2700281.4757095696 ; 2.0328489975215957E8 ; 4.8405810268319046E8 ; 3.2121771581717365E10 ; 0.0
168 ; 2695540.579709322 ; 2.032992682857366E8 ; 4.867583841589E8 ; 3.2325056481469524E10 ; 0.0
169 ; 2690112.7571694525 ; 2.0331359253169924E8 ; 4.894539247386094E8 ; 3.252835574975526E10 ; 0.0
170 ; 2688004.3859392176 ; 2.0332787203547257E8 ; 4.921440374957788E8 ; 3.273166934228696E10 ; 0.0
171 ; 2681900.5177611876 ; 2.033421063473107E8 ; 4.9483204188171804E8 ; 3.2934997214322433E10 ; 0.0
172 ; 2672391.4040226573 ; 2.0335629502219978E8 ; 4.975139423994792E8 ; 3.3138339320669743E10 ; 0.0
173 ; 2670436.2409685124 ; 2.0337043761976403E8 ; 5.0018633380350184E8 ; 3.3341695615691944E10 ; 0.0
174 ; 2666975.4443478375 ; 2.0338453370417488E8 ; 5.0285677004447037E8 ; 3.3545066053311707E10 ; 0.0
175 ; 2658523.7493388257 ; 2.0339858284406325E8 ; 5.055237454888182E8 ; 3.374845058701588E10 ; 0.0
176 ; 2656675.2131266906 ; 2.0341258461243474E8 ; 5.0818226923815703E8 ; 3.3951849169859943E10 ; 0.0
177 ; 2651983.1765202484 ; 2.0342653858658722E8 ; 5.1083894445128375E8 ; 3.4155261754472378E10 ; 0.0
178 ; 2649851.9116265103 ; 2.034404443480317E8 ; 5.13490927627804E8 ; 3.4358688293058964E10 ; 0.0
179 ; 2644963.8532484723 ; 2.0345430148241532E8 ; 5.161407795394305E8 ; 3.4562128737407E10 ; 0.0
180 ; 2640092.8167710206 ; 2.0346810957944703E8 ; 5.18785743392679E8 ; 3.476558303888941E10 ; 0.0
181 ; 2634340.3930472094 ; 2.0348186823282573E8 ; 5.2142583620945E8 ; 3.496905114846886E10 ; 0.0
182 ; 2634557.1025638073 ; 2.034955770401706E8 ; 5.240601766024972E8 ; 3.517253301670168E10 ; 0.0
183 ; 2631046.227254533 ; 2.035092356029539E8 ; 5.26694733705061E8 ; 3.537602859374185E10 ; 0.0
184 ; 2625817.81656548 ; 2.0352284352643564E8 ; 5.293257799323155E8 ; 3.55795378293448E10 ; 0.0
185 ; 2621568.477222389 ; 2.035364004196006E8 ; 5.31951597748881E8 ; 3.578306067287124E10 ; 0.0
186 ; 2617352.6402277336 ; 2.0354990589509726E8 ; 5.3457316622610337E8 ; 3.598659707329084E10 ; 0.0
187 ; 2614809.243119479 ; 2.035633595691787E8 ; 5.371905188663311E8 ; 3.6190146979185936E10 ; 0.0
188 ; 2610916.007841803 ; 2.0357676106164548E8 ; 5.398053281094506E8 ; 3.639371033875511E10 ; 0.0
189 ; 2607542.8806024943 ; 2.0359010999579012E8 ; 5.424162441172924E8 ; 3.659728709981676E10 ; 0.0
190 ; 2601948.365026393 ; 2.036034059983436E8 ; 5.450237869978949E8 ; 3.6800877209812546E10 ; 0.0
191 ; 2594939.7083993726 ; 2.036166486994234E8 ; 5.476257353629212E8 ; 3.700448061581089E10 ; 0.0
192 ; 2594808.14151117 ; 2.036298377324832E8 ; 5.502206750713207E8 ; 3.7208097264510315E10 ; 0.0
193 ; 2588557.370817312 ; 2.036429727342643E8 ; 5.528154832128319E8 ; 3.74117271022428E10 ; 0.0
194 ; 2584119.1615791027 ; 2.036560533447484E8 ; 5.554040405836492E8 ; 3.761537007497706E10 ; 0.0
195 ; 2584240.795799738 ; 2.0366907920711192E8 ; 5.579881597452283E8 ; 3.781902612832181E10 ; 0.0
196 ; 2577584.011421954 ; 2.0368204996768185E8 ; 5.60572400541028E8 ; 3.802269520752892E10 ; 0.0
197 ; 2576042.8797905217 ; 2.0369496527589282E8 ; 5.6314998455245E8 ; 3.8226377257496605E10 ; 0.0
198 ; 2570154.099989189 ; 2.0370782478424573E8 ; 5.657260274322405E8 ; 3.84300722227725E10 ; 0.0
199 ; 2564625.7229225934 ; 2.0372062814826745E8 ; 5.682961815322297E8 ; 3.863378004755675E10 ; 0.0
200 ; 2561447.0719246925 ; 1.8407737174211463E8 ; 5.708608072551522E8 ; 3.883750067570502E10 ; 0.0
