CSV File for the City 4 on Day 238
1 - Minute m 
2 - Power Consumed at minute m 
3 - Power Produced at minute m 
4 - Energy Consumed since the beginning of the day 
5 - Energy Produced since the beginning of the day 
6 - Energy Lost since the beginning of the day on lines starting from the city
 
0 ; 876645.5848023403 ; 1.0544205213991001E8 ; 0.0 ; 0.0 ; 0.0
1 ; 883552.352198153 ; 1.0558802096723133E8 ; 876645.5848023403 ; 1.0544205213991001E8 ; 0.0
2 ; 894514.9232190996 ; 1.0604328583480427E8 ; 1760197.9370004933 ; 2.1103007310714135E8 ; 0.0
3 ; 903623.395890912 ; 1.0680790598125118E8 ; 2654712.860219593 ; 3.170733589419456E8 ; 0.0
4 ; 911394.1520364749 ; 1.07881941405473E8 ; 3558336.256110505 ; 4.238812649231968E8 ; 0.0
5 ; 926368.1843795136 ; 1.0926545116130507E8 ; 4469730.40814698 ; 5.317632063286698E8 ; 0.0
6 ; 940450.476581139 ; 1.1095849127476302E8 ; 5396098.592526494 ; 6.410286574899749E8 ; 0.0
7 ; 965699.1755638162 ; 1.1296111238050038E8 ; 6336549.069107633 ; 7.519871487647378E8 ; 0.0
8 ; 1000344.8098178585 ; 1.1527335724872184E8 ; 7302248.244671449 ; 8.649482611452382E8 ; 0.0
9 ; 1049139.4354717578 ; 1.1789525843926817E8 ; 8302593.054489307 ; 9.8022161839396E8 ; 0.0
10 ; 1127654.0403987353 ; 1.2082683635424244E8 ; 9351732.489961065 ; 1.098116876833228E9 ; 0.0
11 ; 1249502.6961101848 ; 1.2406809794544104E8 ; 1.04793865303598E7 ; 1.2189437131874704E9 ; 0.0
12 ; 1450515.9708890582 ; 1.2761903626106754E8 ; 1.1728889226469986E7 ; 1.3430118111329114E9 ; 0.0
13 ; 1641608.2398475185 ; 1.3147963089901888E8 ; 1.3179405197359044E7 ; 1.470630847393979E9 ; 0.0
14 ; 1662803.6012503915 ; 1.356498492994544E8 ; 1.4821013437206563E7 ; 1.6021104782929978E9 ; 0.0
15 ; 1671772.4436176165 ; 1.4012964869216925E8 ; 1.6483817038456954E7 ; 1.7377603275924523E9 ; 0.0
16 ; 1682355.2178120888 ; 1.4491897844251004E8 ; 1.815558948207457E7 ; 1.8778899762846215E9 ; 0.0
17 ; 1693513.0007813924 ; 1.5001778252446106E8 ; 1.9837944699886657E7 ; 2.0228089547271316E9 ; 0.0
18 ; 1700064.4668879276 ; 1.5542600188418698E8 ; 2.1531457700668048E7 ; 2.1728267372515926E9 ; 0.0
19 ; 1709835.6896599876 ; 1.611435765227869E8 ; 2.3231522167555977E7 ; 2.3282527391357794E9 ; 0.0
20 ; 1720016.2545678131 ; 1.6717044720163837E8 ; 2.4941357857215963E7 ; 2.4893963156585665E9 ; 0.0
21 ; 1730972.0250851496 ; 1.7350655674040374E8 ; 2.6661374111783776E7 ; 2.6565667628602047E9 ; 0.0
22 ; 1741570.5956684686 ; 1.801518509272563E8 ; 2.8392346136868928E7 ; 2.8300733196006083E9 ; 0.0
23 ; 1748921.8273318536 ; 1.8710627909105933E8 ; 3.0133916732537396E7 ; 3.0102251705278645E9 ; 0.0
24 ; 1760479.9633354025 ; 1.943697943987019E8 ; 3.188283855986925E7 ; 3.1973314496189237E9 ; 0.0
25 ; 1771385.338825148 ; 2.0063039484039178E8 ; 3.3643318523204654E7 ; 3.391701244017626E9 ; 0.0
26 ; 1779552.0938477067 ; 2.006415892021301E8 ; 3.5414703862029806E7 ; 3.5923316388580174E9 ; 0.0
27 ; 1789573.3865956971 ; 2.0065311142393246E8 ; 3.719425595587751E7 ; 3.792973228060148E9 ; 0.0
28 ; 1797325.504469303 ; 2.006649296166159E8 ; 3.898382934247321E7 ; 3.9936263394840803E9 ; 0.0
29 ; 1806948.0062733456 ; 2.0067701509106344E8 ; 4.0781154846942514E7 ; 4.194291269100696E9 ; 0.0
30 ; 1817707.758563054 ; 2.0068934208130777E8 ; 4.258810285321586E7 ; 4.394968284191759E9 ; 0.0
31 ; 1827573.8772574826 ; 2.0070188746911243E8 ; 4.4405810611778915E7 ; 4.5956576262730665E9 ; 0.0
32 ; 1835841.862112383 ; 2.007146305194054E8 ; 4.6233384489036396E7 ; 4.796359513742179E9 ; 0.0
33 ; 1843534.7582973086 ; 2.00727552632175E8 ; 4.806922635114878E7 ; 4.997074144261584E9 ; 0.0
34 ; 1851061.8900563049 ; 2.0074063711377442E8 ; 4.9912761109446086E7 ; 5.19780169689376E9 ; 0.0
35 ; 1856532.8979237122 ; 2.0075386896875173E8 ; 5.176382299950239E7 ; 5.398542334007534E9 ; 0.0
36 ; 1867165.3002083346 ; 2.0076723471211517E8 ; 5.3620355897426106E7 ; 5.599296202976286E9 ; 0.0
37 ; 1877444.64480355 ; 2.0078072220118898E8 ; 5.548752119763444E7 ; 5.800063437688401E9 ; 0.0
38 ; 1883461.171393444 ; 2.0079432048577607E8 ; 5.7364965842438E7 ; 6.00084415988959E9 ; 0.0
39 ; 1890904.2390907998 ; 2.0080801967512476E8 ; 5.9248427013831444E7 ; 6.201638480375366E9 ; 0.0
40 ; 1897086.0932050524 ; 2.008218108201219E8 ; 6.1139331252922244E7 ; 6.402446500050491E9 ; 0.0
41 ; 1902847.556973518 ; 2.008356858091518E8 ; 6.3036417346127294E7 ; 6.603268310870613E9 ; 0.0
42 ; 1912229.4054579346 ; 2.008496372761356E8 ; 6.493926490310081E7 ; 6.804103996679765E9 ; 0.0
43 ; 1919328.4333404396 ; 2.0086365851937085E8 ; 6.685149430855875E7 ; 7.0049536339559E9 ; 0.0
44 ; 1923747.2305497276 ; 2.00877743429911E8 ; 6.877082274189919E7 ; 7.205817292475271E9 ; 0.0
45 ; 1928063.6378069422 ; 2.0089188642834967E8 ; 7.069456997244892E7 ; 7.406695035905182E9 ; 0.0
46 ; 1935949.0320992365 ; 2.009060824089958E8 ; 7.262263361025585E7 ; 7.607586922333531E9 ; 0.0
47 ; 1939514.6582576463 ; 2.0092032669053918E8 ; 7.455858264235508E7 ; 7.808493004742527E9 ; 0.0
48 ; 1944298.555417828 ; 2.009346149724139E8 ; 7.649809730061273E7 ; 8.009413331433066E9 ; 0.0
49 ; 1947998.6825026514 ; 2.009489432961607E8 ; 7.844239585603055E7 ; 8.21034794640548E9 ; 0.0
50 ; 1953795.7384382468 ; 2.0096330801117682E8 ; 8.039039453853321E7 ; 8.411296889701641E9 ; 0.0
51 ; 1957094.7207287515 ; 2.0097770574431744E8 ; 8.234419027697146E7 ; 8.612260197712818E9 ; 0.0
52 ; 1960452.7518702017 ; 2.0099213337288064E8 ; 8.430128499770021E7 ; 8.813237903457136E9 ; 0.0
53 ; 1963101.6775814379 ; 2.0100658800056672E8 ; 8.626173774957041E7 ; 9.014230036830017E9 ; 0.0
54 ; 1967222.7740331367 ; 2.010210669360547E8 ; 8.822483942715186E7 ; 9.215236624830584E9 ; 0.0
55 ; 1969777.5763768058 ; 2.0103556767388436E8 ; 9.019206220118499E7 ; 9.416257691766638E9 ; 0.0
56 ; 1975970.3822889396 ; 2.0105008787737083E8 ; 9.21618397775618E7 ; 9.617293259440521E9 ; 0.0
57 ; 1979357.6395895565 ; 2.010646253633143E8 ; 9.413781015985073E7 ; 9.818343347317892E9 ; 0.0
58 ; 1981487.4340675594 ; 2.0107917808829597E8 ; 9.61171677994403E7 ; 1.0019407972681206E10 ; 0.0
59 ; 1984163.1026831046 ; 2.0109374413637853E8 ; 9.809865523350786E7 ; 1.0220487150769503E10 ; 0.0
60 ; 1988693.2928730624 ; 2.01108321708051E8 ; 1.0008281833619097E8 ; 1.0421580894905882E10 ; 0.0
61 ; 1990120.4821420757 ; 2.0112290911027837E8 ; 1.0207151162906404E8 ; 1.0622689216613934E10 ; 0.0
62 ; 1994634.9120258163 ; 2.0113750474753276E8 ; 1.0406163211120611E8 ; 1.0823812125724213E10 ; 0.0
63 ; 1997843.5133217531 ; 2.0115210711369818E8 ; 1.0605626702323192E8 ; 1.1024949630471745E10 ; 0.0
64 ; 1997820.2300788995 ; 2.0116671478475392E8 ; 1.0805411053655368E8 ; 1.1226101737585443E10 ; 0.0
65 ; 2001736.4735977952 ; 2.0118132641215247E8 ; 1.1005193076663259E8 ; 1.1427268452370197E10 ; 0.0
66 ; 2005349.0768650982 ; 2.0119594071681854E8 ; 1.1205366724023038E8 ; 1.162844977878235E10 ; 0.0
67 ; 2005195.6642787736 ; 2.0121055648370317E8 ; 1.1405901631709547E8 ; 1.1829645719499168E10 ; 0.0
68 ; 2012305.677450366 ; 2.0122517255683607E8 ; 1.1606421198137425E8 ; 1.2030856275982872E10 ; 0.0
69 ; 2015858.862090811 ; 2.0123978783482417E8 ; 1.1807651765882461E8 ; 1.2232081448539707E10 ; 0.0
70 ; 2015127.652106805 ; 2.012544012667516E8 ; 1.2009237652091542E8 ; 1.243332123637453E10 ; 0.0
71 ; 2017775.5823686202 ; 2.0126901184844047E8 ; 1.2210750417302223E8 ; 1.2634575637641283E10 ; 0.0
72 ; 2021775.4287102344 ; 2.0128361861903706E8 ; 1.2412527975539085E8 ; 1.2835844649489723E10 ; 0.0
73 ; 2025112.5690193325 ; 2.0129822065789074E8 ; 1.2614705518410109E8 ; 1.303712826810876E10 ; 0.0
74 ; 2026405.9841995658 ; 2.0131281708169818E8 ; 1.2817216775312042E8 ; 1.3238426488766651E10 ; 0.0
75 ; 2031503.0552595688 ; 2.0132740704188657E8 ; 1.3019857373731999E8 ; 1.3439739305848349E10 ; 0.0
76 ; 2029569.1063455928 ; 2.0134198972221372E8 ; 1.3223007679257956E8 ; 1.3641066712890236E10 ; 0.0
77 ; 2033524.5700008608 ; 2.0135656433656466E8 ; 1.3425964589892516E8 ; 1.384240870261245E10 ; 0.0
78 ; 2034280.6822064077 ; 2.0137113012692612E8 ; 1.36293170468926E8 ; 1.4043765266949015E10 ; 0.0
79 ; 2036674.419674435 ; 2.013856863615234E8 ; 1.3832745115113243E8 ; 1.4245136397075941E10 ; 0.0
80 ; 2033978.172823963 ; 2.0140023233310384E8 ; 1.4036412557080686E8 ; 1.4446522083437464E10 ; 0.0
81 ; 2035262.989505805 ; 2.01414767357355E8 ; 1.4239810374363083E8 ; 1.4647922315770567E10 ; 0.0
82 ; 2035675.1922805526 ; 2.0142929077144456E8 ; 1.4443336673313662E8 ; 1.4849337083127922E10 ; 0.0
83 ; 2033865.7104611245 ; 2.0144380193267173E8 ; 1.4646904192541718E8 ; 1.5050766373899366E10 ; 0.0
84 ; 2034420.2638152577 ; 2.014583002172208E8 ; 1.485029076358783E8 ; 1.5252210175832039E10 ; 0.0
85 ; 2032597.4638364804 ; 2.014727850190074E8 ; 1.5053732789969355E8 ; 1.545366847604926E10 ; 0.0
86 ; 2034516.151984081 ; 2.014872557486102E8 ; 1.5256992536353004E8 ; 1.5655141261068266E10 ; 0.0
87 ; 2032984.368614635 ; 2.0150171183228064E8 ; 1.5460444151551414E8 ; 1.5856628516816875E10 ; 0.0
88 ; 2031156.9540934467 ; 2.0151615271102414E8 ; 1.5663742588412878E8 ; 1.6058130228649157E10 ; 0.0
89 ; 2031616.8596665647 ; 2.015305778397472E8 ; 1.5866858283822224E8 ; 1.625964638136018E10 ; 0.0
90 ; 2030470.1497118725 ; 2.015449866864647E8 ; 1.607001996978888E8 ; 1.6461176959199926E10 ; 0.0
91 ; 2030618.7341185866 ; 2.015593787315629E8 ; 1.6273066984760067E8 ; 1.666272194588639E10 ; 0.0
92 ; 2032227.3471241903 ; 2.0157375346711338E8 ; 1.6476128858171925E8 ; 1.6864281324617954E10 ; 0.0
93 ; 2028954.966066748 ; 2.0158811039623412E8 ; 1.6679351592884344E8 ; 1.7065855078085068E10 ; 0.0
94 ; 2027940.2971404511 ; 2.0160244903249413E8 ; 1.688224708949102E8 ; 1.72674431884813E10 ; 0.0
95 ; 2029165.5839182527 ; 2.0161676889935797E8 ; 1.7085041119205064E8 ; 1.7469045637513794E10 ; 0.0
96 ; 2025663.1619612614 ; 2.016310695296674E8 ; 1.7287957677596888E8 ; 1.767066240641315E10 ; 0.0
97 ; 2025046.3097618225 ; 2.0164535046515712E8 ; 1.7490523993793014E8 ; 1.7872293475942818E10 ; 0.0
98 ; 2024387.8031368298 ; 2.0165961125600237E8 ; 1.7693028624769196E8 ; 1.8073938826407974E10 ; 0.0
99 ; 2023088.0042204133 ; 2.0167385146039554E8 ; 1.7895467405082878E8 ; 1.8275598437663975E10 ; 0.0
100 ; 2023159.2704837013 ; 2.0168807064415032E8 ; 1.809777620550492E8 ; 1.847727228912437E10 ; 0.0
101 ; 2023029.774265005 ; 2.017022683803306E8 ; 1.830009213255329E8 ; 1.867896035976852E10 ; 0.0
102 ; 2021437.5182255968 ; 2.0171644424890307E8 ; 1.850239510997979E8 ; 1.888066262814885E10 ; 0.0
103 ; 2017606.918388617 ; 2.017305978364115E8 ; 1.870453886180235E8 ; 1.908237907239775E10 ; 0.0
104 ; 2020453.9214322306 ; 2.017447287356709E8 ; 1.8906299553641212E8 ; 1.928410967023416E10 ; 0.0
105 ; 2016907.2340988617 ; 2.017588365454808E8 ; 1.9108344945784435E8 ; 1.9485854398969833E10 ; 0.0
106 ; 2015704.2011869543 ; 2.0177292087035578E8 ; 1.931003566919432E8 ; 1.9687613235515316E10 ; 0.0
107 ; 2013701.6235554388 ; 2.0178698132027233E8 ; 1.9511606089313015E8 ; 1.9889386156385674E10 ; 0.0
108 ; 2010669.1672696022 ; 2.0180101751043078E8 ; 1.971297625166856E8 ; 2.0091173137705944E10 ; 0.0
109 ; 2010965.9487108097 ; 2.0181502906103158E8 ; 1.991404316839552E8 ; 2.0292974155216373E10 ; 0.0
110 ; 2010215.0400011165 ; 2.018290155970644E8 ; 2.01151397632666E8 ; 2.0494789184277405E10 ; 0.0
111 ; 2009174.7185349949 ; 2.0184297674811E8 ; 2.0316161267266712E8 ; 2.069661819987447E10 ; 0.0
112 ; 2006151.2914887227 ; 2.0185691214815307E8 ; 2.0517078739120212E8 ; 2.089846117662258E10 ; 0.0
113 ; 2004076.9888608314 ; 2.0187082143540642E8 ; 2.0717693868269086E8 ; 2.1100318088770733E10 ; 0.0
114 ; 2000730.7401797392 ; 2.0188470425214475E8 ; 2.091810156715517E8 ; 2.130218891020614E10 ; 0.0
115 ; 2001667.8402344633 ; 2.0189856024454802E8 ; 2.1118174641173145E8 ; 2.1504073614458282E10 ; 0.0
116 ; 1997768.3164070337 ; 2.019123890625537E8 ; 2.131834142519659E8 ; 2.170597217470283E10 ; 0.0
117 ; 1997952.5022356368 ; 2.0192619035971725E8 ; 2.1518118256837294E8 ; 2.1907884563765385E10 ; 0.0
118 ; 1994197.275738711 ; 2.0193996379308015E8 ; 2.171791350706086E8 ; 2.2109810754125103E10 ; 0.0
119 ; 1991988.6522478515 ; 2.0195370902304563E8 ; 2.191733323463473E8 ; 2.2311750717918182E10 ; 0.0
120 ; 1989060.9504399807 ; 2.0196742571326077E8 ; 2.2116532099859515E8 ; 2.2513704426941227E10 ; 0.0
121 ; 1985747.1548650342 ; 2.0198111353050527E8 ; 2.2315438194903514E8 ; 2.2715671852654488E10 ; 0.0
122 ; 1986360.1781962735 ; 2.0199477214458627E8 ; 2.2514012910390016E8 ; 2.2917652966184994E10 ; 0.0
123 ; 1984586.5650695094 ; 2.0200840122823858E8 ; 2.2712648928209645E8 ; 2.311964773832958E10 ; 0.0
124 ; 1978707.6175982074 ; 2.0202200045703056E8 ; 2.2911107584716594E8 ; 2.3321656139557816E10 ; 0.0
125 ; 1977135.6165600964 ; 2.0203556950927478E8 ; 2.3108978346476415E8 ; 2.3523678140014847E10 ; 0.0
126 ; 1976511.0215730567 ; 2.0204910806594348E8 ; 2.3306691908132425E8 ; 2.372571370952412E10 ; 0.0
127 ; 1975250.696070576 ; 2.020626158105885E8 ; 2.3504343010289732E8 ; 2.3927762817590065E10 ; 0.0
128 ; 1971918.4920393205 ; 2.0207609242926538E8 ; 2.370186807989679E8 ; 2.4129825433400654E10 ; 0.0
129 ; 1968888.4893741675 ; 2.020895376104613E8 ; 2.3899059929100722E8 ; 2.4331901525829918E10 ; 0.0
130 ; 1965968.3982497659 ; 2.0210295104502702E8 ; 2.4095948778038138E8 ; 2.453399106344038E10 ; 0.0
131 ; 1959133.1804452133 ; 2.0211633242611203E8 ; 2.4292545617863116E8 ; 2.473609401448541E10 ; 0.0
132 ; 1953680.0259071626 ; 2.021296814491032E8 ; 2.4488458935907638E8 ; 2.4938210346911522E10 ; 0.0
133 ; 1950373.6110076646 ; 2.0214299781156662E8 ; 2.4683826938498354E8 ; 2.5140340028360626E10 ; 0.0
134 ; 1943665.3202700734 ; 2.0215628121319214E8 ; 2.487886429959912E8 ; 2.534248302617219E10 ; 0.0
135 ; 1938837.8334731124 ; 2.0216953135574102E8 ; 2.5073230831626126E8 ; 2.5544639307385384E10 ; 0.0
136 ; 1935684.6014559043 ; 2.02182747942996E8 ; 2.5267114614973438E8 ; 2.5746808838741123E10 ; 0.0
137 ; 1928373.049722207 ; 2.0219593068071407E8 ; 2.5460683075119027E8 ; 2.594899158668412E10 ; 0.0
138 ; 1922810.6180642375 ; 2.0220907927658147E8 ; 2.5653520380091247E8 ; 2.6151187517364834E10 ; 0.0
139 ; 1919185.0519876762 ; 2.0222219344017088E8 ; 2.584580144189767E8 ; 2.6353396596641415E10 ; 0.0
140 ; 1911854.0709417523 ; 2.0223527288290107E8 ; 2.6037719947096437E8 ; 2.6555618790081585E10 ; 0.0
141 ; 1906627.5020664812 ; 2.022483173179981E8 ; 2.6228905354190612E8 ; 2.6757854062964485E10 ; 0.0
142 ; 1900735.547776064 ; 2.0226132646045884E8 ; 2.641956810439726E8 ; 2.6960102380282482E10 ; 0.0
143 ; 1894248.7323782165 ; 2.0227430002701607E8 ; 2.6609641659174868E8 ; 2.7162363706742943E10 ; 0.0
144 ; 1892613.0920083062 ; 2.0228723773610538E8 ; 2.679906653241269E8 ; 2.736463800676996E10 ; 0.0
145 ; 1886747.7695074987 ; 2.0230013930783367E8 ; 2.698832784161352E8 ; 2.7566925244506065E10 ; 0.0
146 ; 1884175.3511626613 ; 2.0231300446394923E8 ; 2.717700261856427E8 ; 2.77692253838139E10 ; 0.0
147 ; 1881827.7990832755 ; 2.023258329278133E8 ; 2.736542015368054E8 ; 2.797153838827785E10 ; 0.0
148 ; 1880760.9913570792 ; 2.0233862442437297E8 ; 2.755360293358887E8 ; 2.8173864221205666E10 ; 0.0
149 ; 1877134.8858165757 ; 2.0235137868013558E8 ; 2.774167903272458E8 ; 2.837620284563004E10 ; 0.0
150 ; 1874182.3794952396 ; 2.02364095423144E8 ; 2.7929392521306235E8 ; 2.8578554224310173E10 ; 0.0
151 ; 1869503.711130659 ; 2.0237677438295367E8 ; 2.811681075925576E8 ; 2.878091831973332E10 ; 0.0
152 ; 1867343.4875496214 ; 2.0238941529061022E8 ; 2.830376113036883E8 ; 2.8983295094116272E10 ; 0.0
153 ; 1865392.1797047062 ; 2.0240201787862858E8 ; 2.849049547912379E8 ; 2.9185684509406883E10 ; 0.0
154 ; 1863597.4682296484 ; 2.0241458188097295E8 ; 2.867703469709426E8 ; 2.938808652728551E10 ; 0.0
155 ; 1860293.9743244112 ; 2.0242710703303775E8 ; 2.8863394443917227E8 ; 2.9590501109166485E10 ; 0.0
156 ; 1857836.0872233415 ; 2.0243959307162958E8 ; 2.904942384134967E8 ; 2.9792928216199524E10 ; 0.0
157 ; 1853119.3448811325 ; 2.0245203973495007E8 ; 2.9235207450072E8 ; 2.9995367809271152E10 ; 0.0
158 ; 1850264.0881528638 ; 2.024644467625794E8 ; 2.9420519384560114E8 ; 3.0197819849006104E10 ; 0.0
159 ; 1849491.3387168408 ; 2.0247681389546102E8 ; 2.96055457933754E8 ; 3.0400284295768684E10 ; 0.0
160 ; 1845970.0423667193 ; 2.0248914087588662E8 ; 2.979049492724709E8 ; 3.0602761109664146E10 ; 0.0
161 ; 1842171.6414563782 ; 2.025014274474824E8 ; 2.9975091931483763E8 ; 3.080525025054003E10 ; 0.0
162 ; 1838005.0780869096 ; 2.0251367335519555E8 ; 3.01593090956294E8 ; 3.1007751677987514E10 ; 0.0
163 ; 1833150.1090653848 ; 2.0252587834528172E8 ; 3.034310960343809E8 ; 3.121026535134271E10 ; 0.0
164 ; 1832957.3613149286 ; 2.0253804216529304E8 ; 3.052642461434463E8 ; 3.1412791229687992E10 ; 0.0
165 ; 1828446.4455042572 ; 2.0255016456406668E8 ; 3.070972035047613E8 ; 3.1615329271853287E10 ; 0.0
166 ; 1829149.1083597948 ; 2.0256224529171407E8 ; 3.089256499502655E8 ; 3.1817879436417355E10 ; 0.0
167 ; 1823059.3603292822 ; 2.0257428409961072E8 ; 3.1075479905862534E8 ; 3.202044168170907E10 ; 0.0
168 ; 1820704.521191174 ; 2.025862807403864E8 ; 3.125778584189546E8 ; 3.2223015965808678E10 ; 0.0
169 ; 1819154.4541327984 ; 2.0259823496791607E8 ; 3.143985629401458E8 ; 3.2425602246549065E10 ; 0.0
170 ; 1812202.1306694683 ; 2.0261014653731105E8 ; 3.162177173942786E8 ; 3.262820048151698E10 ; 0.0
171 ; 1812967.053113147 ; 2.0262201520491087E8 ; 3.1802991952494806E8 ; 3.283081062805429E10 ; 0.0
172 ; 1809390.8994783168 ; 2.026338407282754E8 ; 3.198428865780612E8 ; 3.30334326432592E10 ; 0.0
173 ; 1806206.984301258 ; 2.0264562286617753E8 ; 3.2165227747753954E8 ; 3.3236066483987476E10 ; 0.0
174 ; 1803655.6759968589 ; 2.0265736137859613E8 ; 3.234584844618408E8 ; 3.3438712106853653E10 ; 0.0
175 ; 1801739.499931994 ; 2.0266905602670953E8 ; 3.2526214013783765E8 ; 3.364136946823225E10 ; 0.0
176 ; 1799087.641936297 ; 2.0268070657288927E8 ; 3.2706387963776964E8 ; 3.384403852425896E10 ; 0.0
177 ; 1796272.1660425111 ; 2.0269231278069428E8 ; 3.2886296727970594E8 ; 3.404671923083185E10 ; 0.0
178 ; 1794120.478389988 ; 2.027038744148653E8 ; 3.3065923944574845E8 ; 3.424941154361254E10 ; 0.0
179 ; 1793803.7497280359 ; 2.0271539124131978E8 ; 3.324533599241384E8 ; 3.4452115418027405E10 ; 0.0
180 ; 1790464.5246477814 ; 2.027268630271469E8 ; 3.3424716367386645E8 ; 3.465483080926872E10 ; 0.0
181 ; 1788883.04646127 ; 2.027382895406031E8 ; 3.360376281985142E8 ; 3.485755767229587E10 ; 0.0
182 ; 1785034.03743485 ; 2.027496705511077E8 ; 3.378265112449755E8 ; 3.506029596183647E10 ; 0.0
183 ; 1782471.798914773 ; 2.0276100582923892E8 ; 3.396115452824104E8 ; 3.526304563238758E10 ; 0.0
184 ; 1781569.2227774295 ; 2.027722951467301E8 ; 3.413940170813252E8 ; 3.546580663821682E10 ; 0.0
185 ; 1780371.454607857 ; 2.027835382764662E8 ; 3.431755863041026E8 ; 3.566857893336355E10 ; 0.0
186 ; 1778654.2253627635 ; 2.0279473499248055E8 ; 3.4495595775871044E8 ; 3.5871362471640015E10 ; 0.0
187 ; 1778818.8675411828 ; 2.028058850699518E8 ; 3.467346119840732E8 ; 3.607415720663249E10 ; 0.0
188 ; 1774052.727682482 ; 2.028169882852011E8 ; 3.485134308516144E8 ; 3.6276963091702446E10 ; 0.0
189 ; 1771539.5164559395 ; 2.0282804441568947E8 ; 3.502874835792969E8 ; 3.647978007998765E10 ; 0.0
190 ; 1766087.7350694141 ; 2.028390532400155E8 ; 3.5205902309575284E8 ; 3.6682608124403336E10 ; 0.0
191 ; 1768926.1468975297 ; 2.0285001453791302E8 ; 3.538251108308222E8 ; 3.688544717764335E10 ; 0.0
192 ; 1765704.1333737758 ; 2.0286092809024912E8 ; 3.555940369777198E8 ; 3.708829719218126E10 ; 0.0
193 ; 1766058.4985215885 ; 2.0287179367902234E8 ; 3.573597411110936E8 ; 3.729115812027151E10 ; 0.0
194 ; 1761719.4770285995 ; 2.0288261108736092E8 ; 3.5912579960961515E8 ; 3.749402991395053E10 ; 0.0
195 ; 1760120.9611761717 ; 2.0289338009952143E8 ; 3.6088751908664376E8 ; 3.7696912525037895E10 ; 0.0
196 ; 1759388.47711986 ; 2.0290410050088727E8 ; 3.626476400478199E8 ; 3.789980590513741E10 ; 0.0
197 ; 1753489.1655975336 ; 2.029147720779675E8 ; 3.644070285249398E8 ; 3.81027100056383E10 ; 0.0
198 ; 1752042.5950712017 ; 2.029253946183959E8 ; 3.6616051769053733E8 ; 3.830562477771626E10 ; 0.0
199 ; 1750898.6716905735 ; 2.0293596791092986E8 ; 3.6791256028560853E8 ; 3.8508550172334656E10 ; 0.0
