CSV File for the City 6 on Day 102
1 - Minute m 
2 - Power Consumed at minute m 
3 - Power Produced at minute m 
4 - Energy Consumed since the beginning of the day 
5 - Energy Produced since the beginning of the day 
6 - Energy Lost since the beginning of the day on lines starting from the city
 
0 ; 1.12243488026157E7 ; 1.061336285843322E8 ; 0.0 ; 0.0 ; 0.0
1 ; 1.1236821282460006E7 ; 1.0628453316792047E8 ; 1.12243488026157E7 ; 1.061336285843322E8 ; 0.0
2 ; 1.1248379257573768E7 ; 1.0674442840229908E8 ; 2.2461170085075706E7 ; 2.1241816175225267E8 ; 0.0
3 ; 1.1265442237727942E7 ; 1.0751331785404056E8 ; 3.3709549342649475E7 ; 3.1916259015455174E8 ; 0.0
4 ; 1.1277894609164292E7 ; 1.0859120471757239E8 ; 4.4974991580377415E7 ; 4.266759080085923E8 ; 0.0
5 ; 1.1299515294646248E7 ; 1.0997809179810709E8 ; 5.6252886189541705E7 ; 5.352671127261647E8 ; 0.0
6 ; 1.1326642746606385E7 ; 1.1167398149637654E8 ; 6.755240148418796E7 ; 6.452452045242717E8 ; 0.0
7 ; 1.1362664661610886E7 ; 1.1367887579536176E8 ; 7.887904423079434E7 ; 7.569191860206482E8 ; 0.0
8 ; 1.1415487632691815E7 ; 1.1599277624918729E8 ; 9.024170889240523E7 ; 8.7059806181601E8 ; 0.0
9 ; 1.1498956930535346E7 ; 1.1861568397432733E8 ; 1.0165719652509704E8 ; 9.865908380651972E8 ; 0.0
10 ; 1.1624397672527008E7 ; 1.2154759964323753E8 ; 1.1315615345563239E8 ; 1.1052065220395246E9 ; 0.0
11 ; 1.1819862694260044E7 ; 1.2478852348050019E8 ; 1.247805511281594E8 ; 1.2267541216827621E9 ; 0.0
12 ; 1.213605423665883E7 ; 1.2833845526153299E8 ; 1.3660041382241943E8 ; 1.3515426451632624E9 ; 0.0
13 ; 1.2437222719190363E7 ; 1.3219739431388026E8 ; 1.4873646805907828E8 ; 1.4798811004247954E9 ; 0.0
14 ; 1.2479513161218926E7 ; 1.3636533952106792E8 ; 1.6117369077826864E8 ; 1.6120784947386756E9 ; 0.0
15 ; 1.2490031347744685E7 ; 1.4084228932897127E8 ; 1.7365320393948758E8 ; 1.7484438342597435E9 ; 0.0
16 ; 1.250767986844246E7 ; 1.4562824175460944E8 ; 1.8614323528723225E8 ; 1.8892861235887146E9 ; 0.0
17 ; 1.2519123730373777E7 ; 1.5072319439725044E8 ; 1.986509151556747E8 ; 2.034914365343324E9 ; 0.0
18 ; 1.253344822566588E7 ; 1.561271444516818E8 ; 2.1117003888604847E8 ; 2.1856375597405744E9 ; 0.0
19 ; 1.2549823732535137E7 ; 1.6184008872347602E8 ; 2.2370348711171433E8 ; 2.341764704192256E9 ; 0.0
20 ; 1.2566941405739537E7 ; 1.6786202364606056E8 ; 2.3625331084424946E8 ; 2.503604792915732E9 ; 0.0
21 ; 1.257998681421099E7 ; 1.7419294529938307E8 ; 2.48820252249989E8 ; 2.6714668165617924E9 ; 0.0
22 ; 1.259129917110235E7 ; 1.8083284942995083E8 ; 2.6140023906419998E8 ; 2.8456597618611755E9 ; 0.0
23 ; 1.2610378548616203E7 ; 1.877817314720158E8 ; 2.739915382353023E8 ; 3.0264926112911263E9 ; 0.0
24 ; 1.2624718860635005E7 ; 1.9503958656967217E8 ; 2.8660191678391856E8 ; 3.214274342763142E9 ; 0.0
25 ; 1.2642180026293097E7 ; 2.0129445049781725E8 ; 2.9922663564455354E8 ; 3.409313929332814E9 ; 0.0
26 ; 1.2657134177213665E7 ; 2.0129986572227687E8 ; 3.1186881567084664E8 ; 3.6106083798306313E9 ; 0.0
27 ; 1.2670316672292864E7 ; 2.013055959481711E8 ; 3.245259498480603E8 ; 3.811908245552908E9 ; 0.0
28 ; 1.2684066133503407E7 ; 2.0131163539017254E8 ; 3.371962665203532E8 ; 4.013213841501079E9 ; 0.0
29 ; 1.2698332070766535E7 ; 2.0131797808906654E8 ; 3.4988033265385664E8 ; 4.2145254768912516E9 ; 0.0
30 ; 1.2712078633715898E7 ; 2.013246179347162E8 ; 3.6257866472462314E8 ; 4.415843454980318E9 ; 0.0
31 ; 1.2723470348995667E7 ; 2.013315486885157E8 ; 3.752907433583391E8 ; 4.617168072915034E9 ; 0.0
32 ; 1.2740852263627864E7 ; 2.01338764005189E8 ; 3.8801421370733476E8 ; 4.81849962160355E9 ; 0.0
33 ; 1.2751085767706685E7 ; 2.0134625745380956E8 ; 4.0075506597096264E8 ; 5.019838385608739E9 ; 0.0
34 ; 1.2765122454251237E7 ; 2.0135402253793618E8 ; 4.1350615173866934E8 ; 5.221184643062549E9 ; 0.0
35 ; 1.2778666568418384E7 ; 2.0136205271477947E8 ; 4.2627127419292057E8 ; 5.422538665600485E9 ; 0.0
36 ; 1.279296786798262E7 ; 2.0137034141333005E8 ; 4.3904994076133895E8 ; 5.623900718315265E9 ; 0.0
37 ; 1.2798392187316675E7 ; 2.0137888205139956E8 ; 4.518429086293216E8 ; 5.825271059728595E9 ; 0.0
38 ; 1.2812911568856692E7 ; 2.0138766805153865E8 ; 4.6464130081663823E8 ; 6.026649941779994E9 ; 0.0
39 ; 1.2824312470038183E7 ; 2.0139669285581434E8 ; 4.7745421238549495E8 ; 6.2280376098315325E9 ; 0.0
40 ; 1.2835161768957166E7 ; 2.0140594993943986E8 ; 4.902785248555331E8 ; 6.429434302687346E9 ; 0.0
41 ; 1.2844517031388622E7 ; 2.014154328232643E8 ; 5.0311368662449026E8 ; 6.630840252626786E9 ; 0.0
42 ; 1.2850241040354896E7 ; 2.0142513508513823E8 ; 5.159582036558789E8 ; 6.83225568545005E9 ; 0.0
43 ; 1.2860397853756974E7 ; 2.0143505037018245E8 ; 5.288084446962338E8 ; 7.033680820535189E9 ; 0.0
44 ; 1.2869589243863493E7 ; 2.014451723999926E8 ; 5.416688425499908E8 ; 7.235115870905371E9 ; 0.0
45 ; 1.2875952287344081E7 ; 2.0145549498082045E8 ; 5.545384317938542E8 ; 7.436561043305364E9 ; 0.0
46 ; 1.2883242805687234E7 ; 2.0146601201077682E8 ; 5.674143840811983E8 ; 7.638016538286184E9 ; 0.0
47 ; 1.2893154917512396E7 ; 2.014767174861046E8 ; 5.802976268868855E8 ; 7.839482550296961E9 ; 0.0
48 ; 1.2897887667493204E7 ; 2.0148760550657415E8 ; 5.93190781804398E8 ; 8.040959267783066E9 ; 0.0
49 ; 1.2906516134626238E7 ; 2.014986702800541E8 ; 6.060886694718912E8 ; 8.24244687328964E9 ; 0.0
50 ; 1.2909154416343419E7 ; 2.015099061263118E8 ; 6.189951856065174E8 ; 8.4439455435696945E9 ; 0.0
51 ; 1.2913018827311091E7 ; 2.0152130748009866E8 ; 6.319043400228609E8 ; 8.645455449696007E9 ; 0.0
52 ; 1.2916895596679226E7 ; 2.0153286889357322E8 ; 6.448173588501719E8 ; 8.846976757176105E9 ; 0.0
53 ; 1.2920842564784218E7 ; 2.0154458503811616E8 ; 6.577342544468511E8 ; 9.04850962606968E9 ; 0.0
54 ; 1.2925159224915627E7 ; 2.0155645070558822E8 ; 6.706550970116353E8 ; 9.250054211107796E9 ; 0.0
55 ; 1.2927868851995131E7 ; 2.0156846080908126E8 ; 6.835802562365509E8 ; 9.451610661813383E9 ; 0.0
56 ; 1.2932599564304003E7 ; 2.0158061038320953E8 ; 6.96508125088546E8 ; 9.653179122622465E9 ; 0.0
57 ; 1.293795810878715E7 ; 2.0159289458398774E8 ; 7.0944072465285E8 ; 9.854759733005674E9 ; 0.0
58 ; 1.2939213046745066E7 ; 2.0160530868833804E8 ; 7.223786827616372E8 ; 1.0056352627589663E10 ; 0.0
59 ; 1.2944087788304137E7 ; 2.016178480932668E8 ; 7.353178958083823E8 ; 1.0257957936278E10 ; 0.0
60 ; 1.295172987825424E7 ; 2.0163050831474942E8 ; 7.482619835966864E8 ; 1.0459575784371267E10 ; 0.0
61 ; 1.2955800044295572E7 ; 2.0164328498635828E8 ; 7.612137134749407E8 ; 1.0661206292686016E10 ; 0.0
62 ; 1.2953906895268317E7 ; 2.016561738576671E8 ; 7.741695135192362E8 ; 1.0862849577672375E10 ; 0.0
63 ; 1.296021190358683E7 ; 2.0166917079246143E8 ; 7.871234204145045E8 ; 1.1064505751530043E10 ; 0.0
64 ; 1.2959614221395746E7 ; 2.0168227176678434E8 ; 8.000836323180914E8 ; 1.1266174922322504E10 ; 0.0
65 ; 1.2961082945481988E7 ; 2.0169547286684197E8 ; 8.130432465394871E8 ; 1.1467857194089289E10 ; 0.0
66 ; 1.2969843326585574E7 ; 2.0170877028679287E8 ; 8.260043294849691E8 ; 1.1669552666956131E10 ; 0.0
67 ; 1.297150030279618E7 ; 2.0172216032644257E8 ; 8.389741728115547E8 ; 1.1871261437242924E10 ; 0.0
68 ; 1.2973434449409777E7 ; 2.0173563938886234E8 ; 8.519456731143508E8 ; 1.2072983597569366E10 ; 0.0
69 ; 1.2975086595291961E7 ; 2.0174920397794983E8 ; 8.649191075637605E8 ; 1.227471923695823E10 ; 0.0
70 ; 1.297677116631455E7 ; 2.0176285069594726E8 ; 8.778941941590525E8 ; 1.2476468440936178E10 ; 0.0
71 ; 1.2981160246107902E7 ; 2.0177657624093112E8 ; 8.908709653253671E8 ; 1.2678231291632126E10 ; 0.0
72 ; 1.2983055953958284E7 ; 2.0179037740428606E8 ; 9.03852125571475E8 ; 1.2880007867873056E10 ; 0.0
73 ; 1.298468428410143E7 ; 2.0180425106817374E8 ; 9.168351815254333E8 ; 1.3081798245277342E10 ; 0.0
74 ; 1.298952545439754E7 ; 2.0181819420300698E8 ; 9.298198658095348E8 ; 1.3283602496345516E10 ; 0.0
75 ; 1.2988690901985703E7 ; 2.0183220386493737E8 ; 9.428093912639323E8 ; 1.3485420690548523E10 ; 0.0
76 ; 1.2991151498600863E7 ; 2.0184627719336396E8 ; 9.55798082165918E8 ; 1.368725289441346E10 ; 0.0
77 ; 1.2990681660363577E7 ; 2.0186041140846992E8 ; 9.687892336645188E8 ; 1.3889099171606823E10 ; 0.0
78 ; 1.2988921887744026E7 ; 2.018746038087923E8 ; 9.817799153248824E8 ; 1.4090959583015293E10 ; 0.0
79 ; 1.2988923934383256E7 ; 2.0188885176882988E8 ; 9.947688372126265E8 ; 1.4292834186824085E10 ; 0.0
80 ; 1.2984659053091837E7 ; 2.019031527366934E8 ; 1.0077577611470097E9 ; 1.4494723038592915E10 ; 0.0
81 ; 1.2983468812758537E7 ; 2.019175042318013E8 ; 1.0207424202001016E9 ; 1.4696626191329609E10 ; 0.0
82 ; 1.2983459257350989E7 ; 2.0193190384262368E8 ; 1.0337258890128602E9 ; 1.489854369556141E10 ; 0.0
83 ; 1.297804516972048E7 ; 2.0194634922447702E8 ; 1.0467093482702112E9 ; 1.5100475599404034E10 ; 0.0
84 ; 1.2975458445765136E7 ; 2.019608380973714E8 ; 1.0596873934399318E9 ; 1.5302421948628511E10 ; 0.0
85 ; 1.297190831186168E7 ; 2.0197536824391097E8 ; 1.0726628518856969E9 ; 1.5504382786725883E10 ; 0.0
86 ; 1.2968882997842904E7 ; 2.019899375072497E8 ; 1.0856347601975586E9 ; 1.5706358154969795E10 ; 0.0
87 ; 1.2970499097000012E7 ; 2.0200454378910193E8 ; 1.0986036431954014E9 ; 1.5908348092477045E10 ; 0.0
88 ; 1.296474885344922E7 ; 2.0201918504780877E8 ; 1.1115741422924016E9 ; 1.6110352636266148E10 ; 0.0
89 ; 1.2959894153657364E7 ; 2.020338592964599E8 ; 1.1245388911458507E9 ; 1.6312371821313957E10 ; 0.0
90 ; 1.2956020001445364E7 ; 2.020485646010714E8 ; 1.137498785299508E9 ; 1.6514405680610416E10 ; 0.0
91 ; 1.295336511741174E7 ; 2.0206329907881784E8 ; 1.1504548053009534E9 ; 1.6716454245211489E10 ; 0.0
92 ; 1.295187426089497E7 ; 2.0207806089631984E8 ; 1.1634081704183652E9 ; 1.6918517544290306E10 ; 0.0
93 ; 1.2943237906684227E7 ; 2.0209284826798493E8 ; 1.1763600446792603E9 ; 1.7120595605186626E10 ; 0.0
94 ; 1.2942379277929964E7 ; 2.0210765945440167E8 ; 1.1893032825859444E9 ; 1.7322688453454613E10 ; 0.0
95 ; 1.2938454274968833E7 ; 2.0212249276078606E8 ; 1.2022456618638744E9 ; 1.7524796112909016E10 ; 0.0
96 ; 1.2933607027865019E7 ; 2.0213734653547892E8 ; 1.2151841161388433E9 ; 1.77269186056698E10 ; 0.0
97 ; 1.2926468892271614E7 ; 2.0215221916849348E8 ; 1.2281177231667082E9 ; 1.792905595220528E10 ; 0.0
98 ; 1.2926357889776178E7 ; 2.0216710909011197E8 ; 1.2410441920589797E9 ; 1.8131208171373775E10 ; 0.0
99 ; 1.2921058678307485E7 ; 2.0218201476952988E8 ; 1.253970549948756E9 ; 1.8333375280463886E10 ; 0.0
100 ; 1.2917034630264407E7 ; 2.021969347135469E8 ; 1.2668916086270635E9 ; 1.8535557295233418E10 ; 0.0
101 ; 1.2912299900447031E7 ; 2.022118674653032E8 ; 1.279808643257328E9 ; 1.8737754229946964E10 ; 0.0
102 ; 1.290644583556436E7 ; 2.0222681160305974E8 ; 1.2927209431577752E9 ; 1.8939966097412266E10 ; 0.0
103 ; 1.2902682952370463E7 ; 2.022417657390215E8 ; 1.3056273889933395E9 ; 1.9142192909015324E10 ; 0.0
104 ; 1.2897624461527307E7 ; 2.0225672851820222E8 ; 1.31853007194571E9 ; 1.9344434674754345E10 ; 0.0
105 ; 1.2896447780346088E7 ; 2.0227169861732945E8 ; 1.3314276964072373E9 ; 1.954669140327255E10 ; 0.0
106 ; 1.2888549069202917E7 ; 2.022866747437887E8 ; 1.3443241441875834E9 ; 1.9748963101889877E10 ; 0.0
107 ; 1.2882719561283946E7 ; 2.0230165563460547E8 ; 1.3572126932567863E9 ; 1.9951249776633667E10 ; 0.0
108 ; 1.2877704887658115E7 ; 2.023166400554637E8 ; 1.3700954128180704E9 ; 2.0153551432268272E10 ; 0.0
109 ; 1.287395066315343E7 ; 2.0233162679975972E8 ; 1.3829731177057285E9 ; 2.0355868072323734E10 ; 0.0
110 ; 1.2868768330109999E7 ; 2.023466146876905E8 ; 1.395847068368882E9 ; 2.0558199699123493E10 ; 0.0
111 ; 1.2862381714925367E7 ; 2.023616025653748E8 ; 1.408715836698992E9 ; 2.0760546313811184E10 ; 0.0
112 ; 1.2855277817433417E7 ; 2.0237658930400616E8 ; 1.4215782184139173E9 ; 2.096290791637656E10 ; 0.0
113 ; 1.2847108150099263E7 ; 2.023915737990371E8 ; 1.4344334962313507E9 ; 2.1165284505680565E10 ; 0.0
114 ; 1.2838427355513122E7 ; 2.024065549693925E8 ; 1.44728060438145E9 ; 2.1367676079479603E10 ; 0.0
115 ; 1.2837132101335464E7 ; 2.02421531756712E8 ; 1.460119031736963E9 ; 2.1570082634448994E10 ; 0.0
116 ; 1.2830579019365173E7 ; 2.0243650312461993E8 ; 1.4729561638382986E9 ; 2.1772504166205708E10 ; 0.0
117 ; 1.282397352875303E7 ; 2.02451468058022E8 ; 1.4857867428576636E9 ; 2.1974940669330326E10 ; 0.0
118 ; 1.2818136348631531E7 ; 2.0246642556242734E8 ; 1.4986107163864167E9 ; 2.2177392137388348E10 ; 0.0
119 ; 1.2811960870425034E7 ; 2.0248137466329575E8 ; 1.5114288527350483E9 ; 2.2379858562950775E10 ; 0.0
120 ; 1.2804533300496545E7 ; 2.0249631440540844E8 ; 1.5242408136054733E9 ; 2.258233993761407E10 ; 0.0
121 ; 1.27948819706398E7 ; 2.025112438522618E8 ; 1.5370453469059699E9 ; 2.2784836252019478E10 ; 0.0
122 ; 1.2790237282048412E7 ; 2.0252616208548337E8 ; 1.5498402288766096E9 ; 2.298734749587174E10 ; 0.0
123 ; 1.2783122135224478E7 ; 2.025410682042689E8 ; 1.562630466158658E9 ; 2.3189873657957222E10 ; 0.0
124 ; 1.2774504446804814E7 ; 2.0255596132484016E8 ; 1.5754135882938826E9 ; 2.339241472616149E10 ; 0.0
125 ; 1.2771432705576196E7 ; 2.0257084057992232E8 ; 1.5881880927406874E9 ; 2.3594970687486332E10 ; 0.0
126 ; 1.2761844733732564E7 ; 2.0258570511824018E8 ; 1.6009595254462636E9 ; 2.3797541528066254E10 ; 0.0
127 ; 1.2753107755950557E7 ; 2.02600554104033E8 ; 1.613721370179996E9 ; 2.4000127233184494E10 ; 0.0
128 ; 1.2743112517213568E7 ; 2.0261538671658656E8 ; 1.6264744779359465E9 ; 2.420272778728853E10 ; 0.0
129 ; 1.2739120368060838E7 ; 2.026302021497824E8 ; 1.63921759045316E9 ; 2.4405343174005116E10 ; 0.0
130 ; 1.2728398326321509E7 ; 2.0264499961166316E8 ; 1.6519567108212209E9 ; 2.46079733761549E10 ; 0.0
131 ; 1.2717808893888535E7 ; 2.026597783240137E8 ; 1.6646851091475425E9 ; 2.4810618375766563E10 ; 0.0
132 ; 1.2706466966923881E7 ; 2.0267453752195728E8 ; 1.677402918041431E9 ; 2.5013278154090576E10 ; 0.0
133 ; 1.2695130068439124E7 ; 2.0268927645356604E8 ; 1.690109385008355E9 ; 2.5215952691612534E10 ; 0.0
134 ; 1.2683617627977476E7 ; 2.0270399437948582E8 ; 1.702804515076794E9 ; 2.54186419680661E10 ; 0.0
135 ; 1.2670124491434218E7 ; 2.0271869057257396E8 ; 1.7154881327047713E9 ; 2.5621345962445587E10 ; 0.0
136 ; 1.2655577440400349E7 ; 2.027333643175504E8 ; 1.7281582571962056E9 ; 2.582406465301816E10 ; 0.0
137 ; 1.2642787112470886E7 ; 2.027480149106609E8 ; 1.740813834636606E9 ; 2.6026798017335712E10 ; 0.0
138 ; 1.263158956135331E7 ; 2.0276264165935242E8 ; 1.7534566217490768E9 ; 2.6229546032246372E10 ; 0.0
139 ; 1.2617407156042865E7 ; 2.0277724388195992E8 ; 1.76608821131043E9 ; 2.6432308673905724E10 ; 0.0
140 ; 1.2608717338973127E7 ; 2.027918209074042E8 ; 1.7787056184664729E9 ; 2.663508591778768E10 ; 0.0
141 ; 1.2594549814328242E7 ; 2.0280637207490057E8 ; 1.791314335805446E9 ; 2.6837877738695087E10 ; 0.0
142 ; 1.2581471963634485E7 ; 2.0282089673367736E8 ; 1.803908885619774E9 ; 2.704068411076999E10 ; 0.0
143 ; 1.2570516905653263E7 ; 2.028353942427049E8 ; 1.8164903575834086E9 ; 2.7243505007503666E10 ; 0.0
144 ; 1.2556889445821615E7 ; 2.0284986397043338E8 ; 1.8290608744890618E9 ; 2.7446340401746372E10 ; 0.0
145 ; 1.2550082901797986E7 ; 2.0286430529454032E8 ; 1.8416177639348834E9 ; 2.7649190265716805E10 ; 0.0
146 ; 1.2537996511799235E7 ; 2.0287871760168657E8 ; 1.8541678468366814E9 ; 2.7852054571011345E10 ; 0.0
147 ; 1.2529469479755426E7 ; 2.0289310028728077E8 ; 1.8667058433484807E9 ; 2.8054933288613033E10 ; 0.0
148 ; 1.252445346369136E7 ; 2.029074527552523E8 ; 1.879235312828236E9 ; 2.8257826388900314E10 ; 0.0
149 ; 1.2515158146690063E7 ; 2.029217744178315E8 ; 1.8917597662919276E9 ; 2.8460733841655567E10 ; 0.0
150 ; 1.2505783870548403E7 ; 2.0293606469533804E8 ; 1.9042749244386177E9 ; 2.86636556160734E10 ; 0.0
151 ; 1.2495776501637641E7 ; 2.0295032301597607E8 ; 1.9167807083091662E9 ; 2.8866591680768738E10 ; 0.0
152 ; 1.2487046777589373E7 ; 2.0296454881563684E8 ; 1.929276484810804E9 ; 2.9069542003784714E10 ; 0.0
153 ; 1.2478887821930867E7 ; 2.0297874153770763E8 ; 1.9417635315883932E9 ; 2.927250655260035E10 ; 0.0
154 ; 1.247261583411356E7 ; 2.0299290063288745E8 ; 1.954242419410324E9 ; 2.9475485294138058E10 ; 0.0
155 ; 1.2461766584488854E7 ; 2.0300702555900893E8 ; 1.9667150352444377E9 ; 2.9678478194770947E10 ; 0.0
156 ; 1.2454722894181747E7 ; 2.030211157808663E8 ; 1.9791768018289266E9 ; 2.9881485220329956E10 ; 0.0
157 ; 1.2444399605464242E7 ; 2.03035170770049E8 ; 1.9916315247231083E9 ; 3.008450633611082E10 ; 0.0
158 ; 1.2434648707928335E7 ; 2.030491900047811E8 ; 2.0040759243285725E9 ; 3.028754150688087E10 ; 0.0
159 ; 1.242757747391139E7 ; 2.03063172969766E8 ; 2.016510573036501E9 ; 3.049059069688565E10 ; 0.0
160 ; 1.2417374970306324E7 ; 2.0307711915603632E8 ; 2.0289381505104122E9 ; 3.0693653869855415E10 ; 0.0
161 ; 1.2408438892127462E7 ; 2.0309102806080893E8 ; 2.0413555254807186E9 ; 3.089673098901145E10 ; 0.0
162 ; 1.2395727949158518E7 ; 2.0310489918734458E8 ; 2.0537639643728461E9 ; 3.109982201707226E10 ; 0.0
163 ; 1.238833707647087E7 ; 2.0311873204481247E8 ; 2.0661596923220046E9 ; 3.1302926916259605E10 ; 0.0
164 ; 1.2378795773457307E7 ; 2.03132526148159E8 ; 2.0785480293984754E9 ; 3.1506045648304417E10 ; 0.0
165 ; 1.2371822886478866E7 ; 2.0314628101798114E8 ; 2.0909268251719327E9 ; 3.1709178174452576E10 ; 0.0
166 ; 1.236681315820605E7 ; 2.0315999618040377E8 ; 2.1032986480584116E9 ; 3.191232445547056E10 ; 0.0
167 ; 1.2354229647797424E7 ; 2.0317367116696116E8 ; 2.1156654612166176E9 ; 3.2115484451650963E10 ; 0.0
168 ; 1.234446737487731E7 ; 2.0318730551448226E8 ; 2.128019690864415E9 ; 3.2318658122817924E10 ; 0.0
169 ; 1.2337318213679157E7 ; 2.0320089876497978E8 ; 2.1403641582392921E9 ; 3.2521845428332405E10 ; 0.0
170 ; 1.2330426979072314E7 ; 2.0321445046554285E8 ; 2.1527014764529715E9 ; 3.2725046327097385E10 ; 0.0
171 ; 1.2318044157985838E7 ; 2.0322796016823325E8 ; 2.1650319034320436E9 ; 3.2928260777562927E10 ; 0.0
172 ; 1.2311011594725924E7 ; 2.0324142742998487E8 ; 2.1773499475900292E9 ; 3.313148873773116E10 ; 0.0
173 ; 1.2300083665463626E7 ; 2.0325485181250644E8 ; 2.1896609591847553E9 ; 3.3334730165161144E10 ; 0.0
174 ; 1.2293256073857874E7 ; 2.0326823288218763E8 ; 2.201961042850219E9 ; 3.353798501697365E10 ; 0.0
175 ; 1.2289798961390546E7 ; 2.0328157021000776E8 ; 2.2142542989240766E9 ; 3.374125324985584E10 ; 0.0
176 ; 1.2281163084047176E7 ; 2.0329486337144783E8 ; 2.226544097885467E9 ; 3.3944534820065845E10 ; 0.0
177 ; 1.227391319135207E7 ; 2.0330811194640505E8 ; 2.2388252609695144E9 ; 3.4147829683437294E10 ; 0.0
178 ; 1.2270145761461357E7 ; 2.0332131551911032E8 ; 2.2510991741608663E9 ; 3.4351137795383698E10 ; 0.0
179 ; 1.2264554535187447E7 ; 2.0333447367804828E8 ; 2.2633693199223275E9 ; 3.455445911090281E10 ; 0.0
180 ; 1.2257371566506462E7 ; 2.0334758601587975E8 ; 2.275633874457515E9 ; 3.475779358458086E10 ; 0.0
181 ; 1.2253560560459843E7 ; 2.0336065212936684E8 ; 2.287891246024021E9 ; 3.496114117059673E10 ; 0.0
182 ; 1.2245534497262472E7 ; 2.0337367161930037E8 ; 2.300144806584481E9 ; 3.51645018227261E10 ; 0.0
183 ; 1.2244591297507258E7 ; 2.0338664409042934E8 ; 2.3123903410817432E9 ; 3.53678754943454E10 ; 0.0
184 ; 1.2236147565770488E7 ; 2.033995691513931E8 ; 2.3246349323792505E9 ; 3.557126213843583E10 ; 0.0
185 ; 1.2226514088827752E7 ; 2.0341244641465506E8 ; 2.336871079945021E9 ; 3.577466170758722E10 ; 0.0
186 ; 1.2224862777387764E7 ; 2.0342527549643907E8 ; 2.349097594033849E9 ; 3.597807415400188E10 ; 0.0
187 ; 1.2220045549986318E7 ; 2.0343805601666725E8 ; 2.3613224568112364E9 ; 3.6181499429498314E10 ; 0.0
188 ; 1.2213041278040908E7 ; 2.0345078759890008E8 ; 2.3735425023612227E9 ; 3.6384937485514984E10 ; 0.0
189 ; 1.2208414118505657E7 ; 2.0346346987027842E8 ; 2.3857555436392636E9 ; 3.6588388273113884E10 ; 0.0
190 ; 1.2205303008551635E7 ; 2.0347610246146688E8 ; 2.397963957757769E9 ; 3.679185174298416E10 ; 0.0
191 ; 1.219352264734066E7 ; 2.0348868500659955E8 ; 2.4101692607663207E9 ; 3.6995327845445625E10 ; 0.0
192 ; 1.218939435934066E7 ; 2.0350121714322686E8 ; 2.4223627834136615E9 ; 3.7198816530452225E10 ; 0.0
193 ; 1.2185286758172728E7 ; 2.0351369851226443E8 ; 2.434552177773002E9 ; 3.740231774759545E10 ; 0.0
194 ; 1.217893474380557E7 ; 2.0352612875794342E8 ; 2.4467374645311747E9 ; 3.760583144610772E10 ; 0.0
