CSV File for the City 2 on Day 351
1 - Minute m 
2 - Power Consumed at minute m 
3 - Power Produced at minute m 
4 - Energy Consumed since the beginning of the day 
5 - Energy Produced since the beginning of the day 
6 - Energy Lost since the beginning of the day on lines starting from the city
 
0 ; 1785798.6086290784 ; 1.0525719426260647E8 ; 0.0 ; 0.0 ; 0.0
1 ; 1786664.3423624595 ; 1.0541117313450468E8 ; 1785798.6086290784 ; 1.0525719426260647E8 ; 0.0
2 ; 1789902.1489434952 ; 1.0587382888148156E8 ; 3572462.950991538 ; 2.1066836739711115E8 ; 0.0
3 ; 1791656.6952401807 ; 1.06645161865866E8 ; 5362365.099935033 ; 3.165421962785927E8 ; 0.0
4 ; 1794862.447478918 ; 1.0772517241225797E8 ; 7154021.795175214 ; 4.231873581444587E8 ; 0.0
5 ; 1797789.9729234362 ; 1.0911386080576754E8 ; 8948884.242654132 ; 5.309125305567167E8 ; 0.0
6 ; 1802629.0450378086 ; 1.1081122729043975E8 ; 1.0746674215577569E7 ; 6.400263913624842E8 ; 0.0
7 ; 1809727.737400119 ; 1.128172720678842E8 ; 1.2549303260615377E7 ; 7.50837618652924E8 ; 0.0
8 ; 1817192.725262167 ; 1.1513199529612839E8 ; 1.4359030998015495E7 ; 8.636548907208081E8 ; 0.0
9 ; 1832834.1377495148 ; 1.1775539708870882E8 ; 1.6176223723277662E7 ; 9.787868860169365E8 ; 0.0
10 ; 1852464.3046181863 ; 1.2068747751401311E8 ; 1.8009057861027177E7 ; 1.0965422831056454E9 ; 0.0
11 ; 1888053.7811716588 ; 1.2392823659488168E8 ; 1.9861522165645365E7 ; 1.2172297606196585E9 ; 0.0
12 ; 1941230.060287688 ; 1.274776743084741E8 ; 2.174957594681702E7 ; 1.3411579972145402E9 ; 0.0
13 ; 1991451.1054647085 ; 1.3133579058640271E8 ; 2.369080600710471E7 ; 1.4686356715230143E9 ; 0.0
14 ; 1998617.1131732075 ; 1.3550258531513113E8 ; 2.5682257112569418E7 ; 1.599971462109417E9 ; 0.0
15 ; 2000580.3106504795 ; 1.3997805833663172E8 ; 2.7680874225742627E7 ; 1.7354740474245481E9 ; 0.0
16 ; 2002025.0167358636 ; 1.44762209449295E8 ; 2.9681454536393106E7 ; 1.87545210576118E9 ; 0.0
17 ; 2006282.1762554348 ; 1.498550384090759E8 ; 3.168347955312897E7 ; 2.020214315210475E9 ; 0.0
18 ; 2009026.6504961816 ; 1.5525654493086427E8 ; 3.368976172938441E7 ; 2.1700693536195507E9 ; 0.0
19 ; 2012536.950320044 ; 1.6096672869006023E8 ; 3.569878837988059E7 ; 2.325325898550415E9 ; 0.0
20 ; 2014222.3373639968 ; 1.6698558932433483E8 ; 3.7711325330200635E7 ; 2.486292627240475E9 ; 0.0
21 ; 2016378.487522562 ; 1.7331312643555441E8 ; 3.972554766756463E7 ; 2.65327821656481E9 ; 0.0
22 ; 2019194.005076303 ; 1.7994933959184504E8 ; 4.1741926155087195E7 ; 2.8265913430003643E9 ; 0.0
23 ; 2021561.8486214173 ; 1.8689422832977355E8 ; 4.37611201601635E7 ; 3.0065406825922093E9 ; 0.0
24 ; 2024730.1729199423 ; 1.9414779215662092E8 ; 4.578268200878492E7 ; 3.193434910921983E9 ; 0.0
25 ; 2026722.4559059595 ; 2.003980714509067E8 ; 4.7807412181704864E7 ; 3.3875827030786037E9 ; 0.0
26 ; 2029248.7451967963 ; 2.003986135016706E8 ; 4.983413463761082E7 ; 3.5879807745295105E9 ; 0.0
27 ; 2030002.7968151807 ; 2.003991870357826E8 ; 5.186338338280762E7 ; 3.7883793880311813E9 ; 0.0
28 ; 2034400.1497164483 ; 2.0039979146712247E8 ; 5.38933861796228E7 ; 3.988778575066964E9 ; 0.0
29 ; 2037231.875894899 ; 2.0040042619221166E8 ; 5.592778632933925E7 ; 4.1891783665340867E9 ; 0.0
30 ; 2037839.83566624 ; 2.0040109059256187E8 ; 5.796501820523415E7 ; 4.389578792726298E9 ; 0.0
31 ; 2040326.5876070594 ; 2.0040178403696802E8 ; 6.000285804090039E7 ; 4.58997988331886E9 ; 0.0
32 ; 2043173.1111074118 ; 2.0040250588373172E8 ; 6.204318462850744E7 ; 4.790381667355828E9 ; 0.0
33 ; 2044937.2330935579 ; 2.0040325548280233E8 ; 6.408635773961485E7 ; 4.99078417323956E9 ; 0.0
34 ; 2046777.8665790858 ; 2.0040403217782503E8 ; 6.613129497270841E7 ; 5.1911874287223625E9 ; 0.0
35 ; 2048919.0146181954 ; 2.004048353080871E8 ; 6.81780728392875E7 ; 5.3915914609001875E9 ; 0.0
36 ; 2051308.7592555624 ; 2.0040566421035624E8 ; 7.02269918539057E7 ; 5.591996296208275E9 ; 0.0
37 ; 2053212.7496115505 ; 2.0040651822060513E8 ; 7.227830061316125E7 ; 5.792401960418631E9 ; 0.0
38 ; 2054974.5280323504 ; 2.0040739667561993E8 ; 7.433151336277281E7 ; 5.9928084786392355E9 ; 0.0
39 ; 2056743.2331440104 ; 2.0040829891449025E8 ; 7.638648789080516E7 ; 6.193215875314856E9 ; 0.0
40 ; 2058763.6354078387 ; 2.004092242799808E8 ; 7.844323112394917E7 ; 6.393624174229346E9 ; 0.0
41 ; 2061108.3814073794 ; 2.004101721197853E8 ; 8.0501994759357E7 ; 6.594033398509327E9 ; 0.0
42 ; 2060403.4956595995 ; 2.0041114178766495E8 ; 8.256310314076439E7 ; 6.794443570629112E9 ; 0.0
43 ; 2063169.989802186 ; 2.004121326444741E8 ; 8.462350663642399E7 ; 6.994854712416778E9 ; 0.0
44 ; 2063911.0102449171 ; 2.004131440590769E8 ; 8.668667662622617E7 ; 7.195266845061252E9 ; 0.0
45 ; 2065949.8755676807 ; 2.0041417540915975E8 ; 8.87505876364711E7 ; 7.395679989120329E9 ; 0.0
46 ; 2066092.598697637 ; 2.0041522608194315E8 ; 9.081653751203877E7 ; 7.596094164529489E9 ; 0.0
47 ; 2067739.3263538026 ; 2.004162954747996E8 ; 9.28826301107364E7 ; 7.796509390611432E9 ; 0.0
48 ; 2067550.7488201137 ; 2.0041738299578193E8 ; 9.49503694370902E7 ; 7.996925686086231E9 ; 0.0
49 ; 2069006.8839971332 ; 2.0041848806406802E8 ; 9.701792018591031E7 ; 8.197343069082013E9 ; 0.0
50 ; 2070445.4191230228 ; 2.0041961011032778E8 ; 9.908692706990744E7 ; 8.397761557146081E9 ; 0.0
51 ; 2070758.5968298065 ; 2.004207485770177E8 ; 1.0115737248903047E8 ; 8.598181167256409E9 ; 0.0
52 ; 2071519.372231689 ; 2.0042190291860878E8 ; 1.0322813108586027E8 ; 8.798601915833426E9 ; 0.0
53 ; 2071844.71586082 ; 2.0042307260175335E8 ; 1.0529965045809196E8 ; 8.999023818752035E9 ; 0.0
54 ; 2072711.213909785 ; 2.0042425710539597E8 ; 1.0737149517395277E8 ; 9.199446891353788E9 ; 0.0
55 ; 2073328.6650234226 ; 2.0042545592083362E8 ; 1.0944420638786256E8 ; 9.399871148459185E9 ; 0.0
56 ; 2074955.330825 ; 2.0042666855173016E8 ; 1.1151753505288598E8 ; 9.600296604380018E9 ; 0.0
57 ; 2074441.404005903 ; 2.004278945140894E8 ; 1.1359249038371098E8 ; 9.800723272931747E9 ; 0.0
58 ; 2074543.2283187706 ; 2.0042913333619174E8 ; 1.1566693178771688E8 ; 1.0001151167445837E10 ; 0.0
59 ; 2075006.4025417261 ; 2.0043038455849773E8 ; 1.1774147501603565E8 ; 1.0201580300782028E10 ; 0.0
60 ; 2075248.818243159 ; 2.0043164773352328E8 ; 1.1981648141857737E8 ; 1.0402010685340527E10 ; 0.0
61 ; 2077252.6977820639 ; 2.0043292242568937E8 ; 1.2189173023682053E8 ; 1.0602442333074049E10 ; 0.0
62 ; 2077593.560812957 ; 2.0043420821114996E8 ; 1.239689829346026E8 ; 1.0802875255499739E10 ; 0.0
63 ; 2077725.210160687 ; 2.0043550467760128E8 ; 1.2604657649541555E8 ; 1.1003309463710888E10 ; 0.0
64 ; 2077875.9660614824 ; 2.0043681142407492E8 ; 1.2812430170557624E8 ; 1.1203744968388489E10 ; 0.0
65 ; 2078881.0879790518 ; 2.0043812806071758E8 ; 1.3020217767163773E8 ; 1.1404181779812563E10 ; 0.0
66 ; 2079223.0090504708 ; 2.0043945420855984E8 ; 1.3228105875961678E8 ; 1.160461990787328E10 ; 0.0
67 ; 2079764.3228966298 ; 2.0044078949927595E8 ; 1.3436028176866725E8 ; 1.1805059362081839E10 ; 0.0
68 ; 2080579.2777382946 ; 2.004421335749366E8 ; 1.3644004609156388E8 ; 1.2005500151581114E10 ; 0.0
69 ; 2080124.8927238937 ; 2.0044348608775657E8 ; 1.3852062536930218E8 ; 1.220594228515605E10 ; 0.0
70 ; 2080530.7494741117 ; 2.004448466998384E8 ; 1.4060075026202607E8 ; 1.2406385771243807E10 ; 0.0
71 ; 2079882.2371584224 ; 2.0044621508291414E8 ; 1.4268128101150018E8 ; 1.2606830617943645E10 ; 0.0
72 ; 2079692.3536065887 ; 2.004475909180856E8 ; 1.447611632486586E8 ; 1.280727683302656E10 ; 0.0
73 ; 2079879.6822163663 ; 2.0044897389556488E8 ; 1.4684085560226518E8 ; 1.3007724423944645E10 ; 0.0
74 ; 2082626.0238569346 ; 2.0045036371441588E8 ; 1.4892073528448156E8 ; 1.320817339784021E10 ; 0.0
75 ; 2081368.9892241526 ; 2.004517600822974E8 ; 1.510033613083385E8 ; 1.3408623761554626E10 ; 0.0
76 ; 2082686.6398204106 ; 2.004531627152091E8 ; 1.5308473029756266E8 ; 1.3609075521636925E10 ; 0.0
77 ; 2083302.750105137 ; 2.0045457133724028E8 ; 1.5516741693738306E8 ; 1.3809528684352135E10 ; 0.0
78 ; 2081070.7067967097 ; 2.004559856803227E8 ; 1.572507196874882E8 ; 1.4009983255689375E10 ; 0.0
79 ; 2080194.8594650014 ; 2.004574054839874E8 ; 1.593317903942849E8 ; 1.4210439241369698E10 ; 0.0
80 ; 2078731.1935339423 ; 2.0045883049512607E8 ; 1.614119852537499E8 ; 1.4410896646853685E10 ; 0.0
81 ; 2079394.5105055554 ; 2.004602604677574E8 ; 1.6349071644728386E8 ; 1.4611355477348812E10 ; 0.0
82 ; 2079764.7383615524 ; 2.0046169516279858E8 ; 1.6557011095778942E8 ; 1.481181573781657E10 ; 0.0
83 ; 2076873.5604472863 ; 2.004631343478419E8 ; 1.6764987569615096E8 ; 1.5012277432979368E10 ; 0.0
84 ; 2078021.314332589 ; 2.0046457779693717E8 ; 1.6972674925659823E8 ; 1.521274056732721E10 ; 0.0
85 ; 2077895.9326719763 ; 2.0046602529037958E8 ; 1.718047705709308E8 ; 1.5413205145124147E10 ; 0.0
86 ; 2077017.0154617163 ; 2.0046747661450326E8 ; 1.7388266650360277E8 ; 1.5613671170414528E10 ; 0.0
87 ; 2077198.9504693197 ; 2.004689315614807E8 ; 1.759596835190645E8 ; 1.5814138647029032E10 ; 0.0
88 ; 2075352.253485818 ; 2.0047038992912772E8 ; 1.780368824695338E8 ; 1.6014607578590513E10 ; 0.0
89 ; 2075303.8609970436 ; 2.0047185152071434E8 ; 1.8011223472301963E8 ; 1.6215077968519642E10 ; 0.0
90 ; 2074541.443676601 ; 2.0047331614478138E8 ; 1.8218753858401668E8 ; 1.6415549820040356E10 ; 0.0
91 ; 2073772.800978749 ; 2.004747836149626E8 ; 1.8426208002769327E8 ; 1.6616023136185137E10 ; 0.0
92 ; 2072341.0696574657 ; 2.004762537498126E8 ; 1.8633585282867202E8 ; 1.68164979198001E10 ; 0.0
93 ; 2072090.3021784748 ; 2.0047772637264007E8 ; 1.884081938983295E8 ; 1.7016974173549913E10 ; 0.0
94 ; 2070303.4623116401 ; 2.0047920131134665E8 ; 1.9048028420050797E8 ; 1.7217451899922554E10 ; 0.0
95 ; 2070724.1273011514 ; 2.004806783982709E8 ; 1.925505876628196E8 ; 1.7417931101233902E10 ; 0.0
96 ; 2069131.0612360155 ; 2.004821574700378E8 ; 1.9462131179012075E8 ; 1.761841177963217E10 ; 0.0
97 ; 2068667.4945738749 ; 2.0048363836741287E8 ; 1.9669044285135677E8 ; 1.781889393710221E10 ; 0.0
98 ; 2067728.4640322265 ; 2.004851209351619E8 ; 1.9875911034593064E8 ; 1.8019377575469624E10 ; 0.0
99 ; 2068018.079805664 ; 2.0048660502191502E8 ; 2.0082683880996287E8 ; 1.8219862696404785E10 ; 0.0
100 ; 2067630.0636811478 ; 2.0048809048003563E8 ; 2.0289485688976854E8 ; 1.84203493014267E10 ; 0.0
101 ; 2065439.8107884857 ; 2.0048957716549414E8 ; 2.049624869534497E8 ; 1.8620837391906734E10 ; 0.0
102 ; 2064961.1393299242 ; 2.0049106493774587E8 ; 2.0702792676423818E8 ; 1.8821326969072227E10 ; 0.0
103 ; 2061741.3744449208 ; 2.0049255365961352E8 ; 2.090928879035681E8 ; 1.902181803400997E10 ; 0.0
104 ; 2062002.259285657 ; 2.0049404319717366E8 ; 2.1115462927801302E8 ; 1.9222310587669586E10 ; 0.0
105 ; 2060421.278135024 ; 2.0049553341964749E8 ; 2.1321663153729868E8 ; 1.942280463086676E10 ; 0.0
106 ; 2060466.8866390176 ; 2.0049702419929537E8 ; 2.152770528154337E8 ; 1.9623300164286407E10 ; 0.0
107 ; 2059753.727679815 ; 2.0049851541131523E8 ; 2.1733751970207274E8 ; 1.9823797188485703E10 ; 0.0
108 ; 2057685.0073920137 ; 2.0050000693374476E8 ; 2.1939727342975256E8 ; 2.002429570389702E10 ; 0.0
109 ; 2056489.7351666372 ; 2.005014986473669E8 ; 2.2145495843714458E8 ; 2.0224795710830765E10 ; 0.0
110 ; 2055917.0367633314 ; 2.005029904356192E8 ; 2.2351144817231122E8 ; 2.042529720947813E10 ; 0.0
111 ; 2054594.7440647543 ; 2.00504482184506E8 ; 2.2556736520907456E8 ; 2.062580019991375E10 ; 0.0
112 ; 2053299.5612117427 ; 2.005059737825142E8 ; 2.276219599531393E8 ; 2.0826304682098255E10 ; 0.0
113 ; 2054383.3789988647 ; 2.0050746512053213E8 ; 2.2967525951435104E8 ; 2.1026810655880768E10 ; 0.0
114 ; 2050705.7516954385 ; 2.0050895609177092E8 ; 2.3172964289334992E8 ; 2.12273181210013E10 ; 0.0
115 ; 2050421.1901235064 ; 2.0051044659168947E8 ; 2.3378034864504534E8 ; 2.142782707709307E10 ; 0.0
116 ; 2049046.3975300714 ; 2.005119365179216E8 ; 2.3583076983516884E8 ; 2.162833752368476E10 ; 0.0
117 ; 2048059.6903273694 ; 2.0051342577020618E8 ; 2.3787981623269892E8 ; 2.1828849460202682E10 ; 0.0
118 ; 2046257.0645311542 ; 2.0051491425031975E8 ; 2.399278759230263E8 ; 2.202936288597289E10 ; 0.0
119 ; 2045935.571253054 ; 2.0051640186201158E8 ; 2.4197413298755744E8 ; 2.222987780022321E10 ; 0.0
120 ; 2043111.2451384785 ; 2.0051788851094115E8 ; 2.440200685588105E8 ; 2.243039420208522E10 ; 0.0
121 ; 2043211.458246046 ; 2.0051937410461798E8 ; 2.4606317980394897E8 ; 2.263091209059616E10 ; 0.0
122 ; 2040818.639747609 ; 2.0052085855234364E8 ; 2.4810639126219502E8 ; 2.283143146470078E10 ; 0.0
123 ; 2040020.4143729503 ; 2.0052234176515567E8 ; 2.5014720990194264E8 ; 2.3031952323253124E10 ; 0.0
124 ; 2038109.7558674733 ; 2.0052382365577403E8 ; 2.521872303163156E8 ; 2.323247466501828E10 ; 0.0
125 ; 2038007.8621331165 ; 2.005253041385491E8 ; 2.5422534007218307E8 ; 2.3432998488674053E10 ; 0.0
126 ; 2034797.4396646335 ; 2.005267831294116E8 ; 2.562633479343162E8 ; 2.3633523792812603E10 ; 0.0
127 ; 2033929.641531915 ; 2.005282605458247E8 ; 2.5829814537398082E8 ; 2.3834050575942013E10 ; 0.0
128 ; 2032199.1235058005 ; 2.0052973630673745E8 ; 2.6033207501551273E8 ; 2.403457883648784E10 ; 0.0
129 ; 2031828.3007618329 ; 2.0053121033254007E8 ; 2.6236427413901854E8 ; 2.4235108572794575E10 ; 0.0
130 ; 2029466.308244904 ; 2.0053268254502094E8 ; 2.6439610243978035E8 ; 2.4435639783127113E10 ; 0.0
131 ; 2026434.0492727153 ; 2.0053415286732513E8 ; 2.6642556874802527E8 ; 2.4636172465672134E10 ; 0.0
132 ; 2024405.3847268499 ; 2.0053562122391424E8 ; 2.6845200279729795E8 ; 2.483670661853946E10 ; 0.0
133 ; 2021359.89431507 ; 2.0053708754052797E8 ; 2.704764081820248E8 ; 2.5037242239763374E10 ; 0.0
134 ; 2020758.8066088583 ; 2.0053855174414682E8 ; 2.7249776807633984E8 ; 2.52377793273039E10 ; 0.0
135 ; 2017677.604613802 ; 2.0054001376295632E8 ; 2.745185268829487E8 ; 2.543831787904805E10 ; 0.0
136 ; 2016609.2112291513 ; 2.0054147352631253E8 ; 2.765362044875625E8 ; 2.5638857892811005E10 ; 0.0
137 ; 2013267.0335014896 ; 2.0054293096470848E8 ; 2.785528136987916E8 ; 2.583939936633732E10 ; 0.0
138 ; 2011485.457963637 ; 2.0054438600974235E8 ; 2.805660807322931E8 ; 2.603994229730203E10 ; 0.0
139 ; 2010905.468791001 ; 2.0054583859408623E8 ; 2.825775661902568E8 ; 2.624048668331177E10 ; 0.0
140 ; 2006795.5752505371 ; 2.005472886514564E8 ; 2.845884716590478E8 ; 2.6441032521905857E10 ; 0.0
141 ; 2003911.2973529296 ; 2.005487361165843E8 ; 2.8659526723429835E8 ; 2.6641579810557312E10 ; 0.0
142 ; 2002068.8839486188 ; 2.0055018092518902E8 ; 2.8859917853165126E8 ; 2.6842128546673897E10 ; 0.0
143 ; 1999482.3590033902 ; 2.0055162301395014E8 ; 2.906012474155999E8 ; 2.7042678727599087E10 ; 0.0
144 ; 1998801.7444172718 ; 2.0055306232048208E8 ; 2.9260072977460325E8 ; 2.7243230350613037E10 ; 0.0
145 ; 1995882.0095092747 ; 2.00554498783309E8 ; 2.945995315190205E8 ; 2.7443783412933517E10 ; 0.0
146 ; 1994647.014035399 ; 2.0055593234184074E8 ; 2.9659541352852976E8 ; 2.7644337911716827E10 ; 0.0
147 ; 1993105.1937246947 ; 2.0055736293634954E8 ; 2.9859006054256517E8 ; 2.784489384405867E10 ; 0.0
148 ; 1990157.919408956 ; 2.0055879050794756E8 ; 3.0058316573628986E8 ; 2.8045451206995018E10 ; 0.0
149 ; 1989851.9846349186 ; 2.0056021499856526E8 ; 3.0257332365569884E8 ; 2.8246009997502964E10 ; 0.0
150 ; 1985576.0836004387 ; 2.005616363509304E8 ; 3.045631756403338E8 ; 2.844657021250153E10 ; 0.0
151 ; 1985003.5730213476 ; 2.0056305450854784E8 ; 3.0654875172393423E8 ; 2.864713184885246E10 ; 0.0
152 ; 1983026.3217789212 ; 2.005644694156801E8 ; 3.085337552969556E8 ; 2.8847694903361008E10 ; 0.0
153 ; 1981822.137810829 ; 2.0056588101732847E8 ; 3.105167816187345E8 ; 2.9048259372776688E10 ; 0.0
154 ; 1980766.4157803918 ; 2.0056728925921476E8 ; 3.124986037565453E8 ; 2.9248825253794018E10 ; 0.0
155 ; 1979862.62226137 ; 2.005686940877638E8 ; 3.144793701723257E8 ; 2.9449392543053234E10 ; 0.0
156 ; 1977777.7541325504 ; 2.0057009545008639E8 ; 3.16459232794587E8 ; 2.9649961237141E10 ; 0.0
157 ; 1974841.7895181593 ; 2.0057149329396296E8 ; 3.184370105487196E8 ; 2.9850531332591084E10 ; 0.0
158 ; 1974624.4826677768 ; 2.0057288756782767E8 ; 3.2041185233823776E8 ; 3.0051102825885048E10 ; 0.0
159 ; 1973814.9547715692 ; 2.0057427822075313E8 ; 3.2238647682090557E8 ; 3.0251675713452877E10 ; 0.0
160 ; 1970736.713779166 ; 2.0057566520243552E8 ; 3.2436029177567714E8 ; 3.045224999167363E10 ; 0.0
161 ; 1968801.2790102025 ; 2.005770484631804E8 ; 3.263310284894563E8 ; 3.0652825656876064E10 ; 0.0
162 ; 1967702.8477680276 ; 2.0057842795388874E8 ; 3.282998297684665E8 ; 3.0853402705339245E10 ; 0.0
163 ; 1966684.5579384868 ; 2.0057980362604374E8 ; 3.302675326162345E8 ; 3.1053981133293133E10 ; 0.0
164 ; 1963186.0232189721 ; 2.0058117543169767E8 ; 3.32234217174173E8 ; 3.1254560936919178E10 ; 0.0
165 ; 1962500.2843607436 ; 2.0058254332345957E8 ; 3.34197403197392E8 ; 3.1455142112350876E10 ; 0.0
166 ; 1960036.7467598638 ; 2.005839072544831E8 ; 3.3615990348175275E8 ; 3.1655724655674335E10 ; 0.0
167 ; 1958143.3873508745 ; 2.0058526717845485E8 ; 3.3811994022851264E8 ; 3.1856308562928818E10 ; 0.0
168 ; 1955837.2163413935 ; 2.0058662304958302E8 ; 3.400780836158635E8 ; 3.2056893830107273E10 ; 0.0
169 ; 1954981.190277004 ; 2.0058797482258648E8 ; 3.420339208322049E8 ; 3.2257480453156857E10 ; 0.0
170 ; 1953907.850606006 ; 2.005893224526843E8 ; 3.4398890202248186E8 ; 3.2458068427979443E10 ; 0.0
171 ; 1951953.2704316704 ; 2.0059066589558545E8 ; 3.459428098730879E8 ; 3.2658657750432125E10 ; 0.0
172 ; 1950665.936488551 ; 2.0059200510747883E8 ; 3.478947631435196E8 ; 3.285924841632771E10 ; 0.0
173 ; 1947395.049191142 ; 2.005933400450238E8 ; 3.4984542908000815E8 ; 3.305984042143519E10 ; 0.0
174 ; 1946445.2562211026 ; 2.0059467066534087E8 ; 3.5179282412919927E8 ; 3.3260433761480213E10 ; 0.0
175 ; 1946512.7683630611 ; 2.0059599692600283E8 ; 3.537392693854204E8 ; 3.3461028432145554E10 ; 0.0
176 ; 1946016.4577090363 ; 2.0059731878502586E8 ; 3.5568578215378344E8 ; 3.3661624429071556E10 ; 0.0
177 ; 1944612.8740206922 ; 2.0059863620086133E8 ; 3.5763179861149246E8 ; 3.3862221747856583E10 ; 0.0
178 ; 1942756.4880907792 ; 2.005999491323876E8 ; 3.5957641148551315E8 ; 3.4062820384057446E10 ; 0.0
179 ; 1941076.9699282662 ; 2.006012575389021E8 ; 3.615191679736039E8 ; 3.4263420333189835E10 ; 0.0
180 ; 1941219.38715436 ; 2.0060256138011378E8 ; 3.6346024494353217E8 ; 3.446402159072874E10 ; 0.0
181 ; 1938271.3686050144 ; 2.006038606161357E8 ; 3.654014643306865E8 ; 3.466462415210885E10 ; 0.0
182 ; 1937382.8729000974 ; 2.0060515520747787E8 ; 3.673397356992915E8 ; 3.486522801272498E10 ; 0.0
183 ; 1937983.8661701384 ; 2.0060644511504036E8 ; 3.692771185721916E8 ; 3.5065833167932465E10 ; 0.0
184 ; 1935473.2618991886 ; 2.006077303001066E8 ; 3.7121510243836176E8 ; 3.526643961304751E10 ; 0.0
185 ; 1935073.20573533 ; 2.006090107243369E8 ; 3.7315057570026094E8 ; 3.546704734334762E10 ; 0.0
186 ; 1934449.3844733932 ; 2.0061028634976202E8 ; 3.7508564890599626E8 ; 3.566765635407195E10 ; 0.0
187 ; 1932962.6088582661 ; 2.0061155713877735E8 ; 3.7702009829046965E8 ; 3.5868266640421715E10 ; 0.0
188 ; 1932546.5226748243 ; 2.0061282305413675E8 ; 3.7895306089932793E8 ; 3.606887819756049E10 ; 0.0
189 ; 1931131.4327912647 ; 2.00614084058947E8 ; 3.8088560742200273E8 ; 3.626949102061463E10 ; 0.0
190 ; 1928954.7960063915 ; 2.006153401166622E8 ; 3.82816738854794E8 ; 3.647010510467358E10 ; 0.0
191 ; 1928226.779092277 ; 2.006165911910784E8 ; 3.847456936508004E8 ; 3.667072044479024E10 ; 0.0
192 ; 1927583.0580350491 ; 2.006178372463284E8 ; 3.8667392042989266E8 ; 3.6871337035981316E10 ; 0.0
193 ; 1925797.476595647 ; 2.0061907824687675E8 ; 3.8860150348792773E8 ; 3.7071954873227646E10 ; 0.0
194 ; 1924972.356258013 ; 2.006203141575148E8 ; 3.905273009645234E8 ; 3.7272573951474525E10 ; 0.0
195 ; 1925009.770284598 ; 2.0062154494335607E8 ; 3.924522733207814E8 ; 3.747319426563204E10 ; 0.0
196 ; 1922099.2050941866 ; 2.006227705698315E8 ; 3.94377283091066E8 ; 3.76738158105754E10 ; 0.0
197 ; 1922520.5005088255 ; 2.006239910026852E8 ; 3.9629938229616016E8 ; 3.787443858114523E10 ; 0.0
198 ; 1921359.9412705603 ; 2.0062520620796996E8 ; 3.98221902796669E8 ; 3.807506257214792E10 ; 0.0
199 ; 1919160.5425734525 ; 2.006264161520432E8 ; 4.001432627379396E8 ; 3.827568777835589E10 ; 0.0
