CSV File for the City 1 on Day 109
1 - Minute m 
2 - Power Consumed at minute m 
3 - Power Produced at minute m 
4 - Energy Consumed since the beginning of the day 
5 - Energy Produced since the beginning of the day 
6 - Energy Lost since the beginning of the day on lines starting from the city
 
0 ; 1.6164775462159045E7 ; 1.055566438211231E8 ; 0.0 ; 0.0 ; 0.0
1 ; 1.61834024418889E7 ; 1.057096000784728E8 ; 1.6164775462159045E7 ; 1.055566438211231E8 ; 0.0
2 ; 1.6204469770359764E7 ; 1.0617133766643074E8 ; 3.2348177904047944E7 ; 2.112662438995959E8 ; 0.0
3 ; 1.622277116217544E7 ; 1.069418579868207E8 ; 4.8552647674407706E7 ; 3.174375815660266E8 ; 0.0
4 ; 1.6248541169948205E7 ; 1.0802116229486519E8 ; 6.4775418836583145E7 ; 4.243794395528473E8 ; 0.0
5 ; 1.6279293833325306E7 ; 1.0940925169259083E8 ; 8.102396000653136E7 ; 5.324006018477125E8 ; 0.0
6 ; 1.631456779385136E7 ; 1.1110612712293354E8 ; 9.730325383985667E7 ; 6.418098535403033E8 ; 0.0
7 ; 1.6366842663386663E7 ; 1.1311178936461687E8 ; 1.1361782163370803E8 ; 7.529159806632369E8 ; 0.0
8 ; 1.644688972866475E7 ; 1.1542623902786732E8 ; 1.2998466429709469E8 ; 8.660277700278537E8 ; 0.0
9 ; 1.656350881413693E7 ; 1.1804947655102289E8 ; 1.4643155402575943E8 ; 9.81454009055721E8 ; 0.0
10 ; 1.6748589740453962E7 ; 1.209815021980778E8 ; 1.6299506283989635E8 ; 1.0995034856067438E9 ; 0.0
11 ; 1.7040799976872813E7 ; 1.2422231605719575E8 ; 1.797436525803503E8 ; 1.2204849878048215E9 ; 0.0
12 ; 1.750403226288824E7 ; 1.2777191804021302E8 ; 1.967844525572231E8 ; 1.3447073038620172E9 ; 0.0
13 ; 1.794777787256046E7 ; 1.3163030788313538E8 ; 2.1428848482011136E8 ; 1.4724792219022303E9 ; 0.0
14 ; 1.8000356092781797E7 ; 1.357974851476249E8 ; 2.3223626269267184E8 ; 1.6041095297853656E9 ; 0.0
15 ; 1.8020220290762343E7 ; 1.40273449223455E8 ; 2.5023661878545362E8 ; 1.7399070149329906E9 ; 0.0
16 ; 1.8044777445155554E7 ; 1.4505819933190224E8 ; 2.6825683907621595E8 ; 1.8801804641564455E9 ; 0.0
17 ; 1.806507306697959E7 ; 1.5015173453003058E8 ; 2.863016165213715E8 ; 2.0252386634883478E9 ; 0.0
18 ; 1.8085747875307277E7 ; 1.5555405371581346E8 ; 3.043666895883511E8 ; 2.1753903980183783E9 ; 0.0
19 ; 1.8112602532199156E7 ; 1.6126515563402835E8 ; 3.2245243746365833E8 ; 2.330944451734192E9 ; 0.0
20 ; 1.813015418986513E7 ; 1.6728503888285145E8 ; 3.405650399958575E8 ; 2.4922096073682203E9 ; 0.0
21 ; 1.815232174049845E7 ; 1.7361370192107424E8 ; 3.586951941857226E8 ; 2.659494646251072E9 ; 0.0
22 ; 1.817452476058941E7 ; 1.802511430758555E8 ; 3.76847515926221E8 ; 2.8331083481721463E9 ; 0.0
23 ; 1.8197141328466274E7 ; 1.8719736055092418E8 ; 3.9502204068681043E8 ; 3.013359491248002E9 ; 0.0
24 ; 1.822157839802691E7 ; 1.944523524351421E8 ; 4.1321918201527673E8 ; 3.2005568517989264E9 ; 0.0
25 ; 1.824094480306735E7 ; 2.007041576095218E8 ; 4.314407604133036E8 ; 3.3950092042340684E9 ; 0.0
26 ; 1.826307956566214E7 ; 2.0070632179314184E8 ; 4.4968170521637094E8 ; 3.5957133618435903E9 ; 0.0
27 ; 1.8282552360278066E7 ; 2.0070861207716867E8 ; 4.679447847820331E8 ; 3.796419683636732E9 ; 0.0
28 ; 1.830258011699467E7 ; 2.007110261807681E8 ; 4.8622733714231116E8 ; 3.9971282957139006E9 ; 0.0
29 ; 1.8322990740816064E7 ; 2.0071356175343364E8 ; 5.0452991725930583E8 ; 4.1978393218946686E9 ; 0.0
30 ; 1.8342469184789073E7 ; 2.0071621638394505E8 ; 5.228529080001219E8 ; 4.398552883648102E9 ; 0.0
31 ; 1.836530887637278E7 ; 2.0071898760913908E8 ; 5.41195377184911E8 ; 4.599269100032047E9 ; 0.0
32 ; 1.838532652358151E7 ; 2.0072187292243686E8 ; 5.595606860612838E8 ; 4.799988087641187E9 ; 0.0
33 ; 1.8405389812578812E7 ; 2.00724869782079E8 ; 5.779460125848653E8 ; 5.000709960563623E9 ; 0.0
34 ; 1.842608053202365E7 ; 2.0072797561902723E8 ; 5.963514023974441E8 ; 5.201434830345702E9 ; 0.0
35 ; 1.84395927270479E7 ; 2.0073118784449792E8 ; 6.147774829294678E8 ; 5.402162805964729E9 ; 0.0
36 ; 1.846084887983228E7 ; 2.0073450385710075E8 ; 6.332170756565157E8 ; 5.602893993809227E9 ; 0.0
37 ; 1.847402047442976E7 ; 2.007379210495615E8 ; 6.51677924536348E8 ; 5.803628497666327E9 ; 0.0
38 ; 1.8492846316851825E7 ; 2.0074143681501472E8 ; 6.701519450107777E8 ; 6.004366418715889E9 ; 0.0
39 ; 1.850761352205315E7 ; 2.007450485528578E8 ; 6.886447913276296E8 ; 6.205107855530904E9 ; 0.0
40 ; 1.8525548005018566E7 ; 2.0074875367416278E8 ; 7.071524048496827E8 ; 6.405852904083761E9 ; 0.0
41 ; 1.8544409969658576E7 ; 2.007525496066477E8 ; 7.256779528547013E8 ; 6.606601657757924E9 ; 0.0
42 ; 1.8554211961477455E7 ; 2.007564337992128E8 ; 7.442223628243599E8 ; 6.807354207364572E9 ; 0.0
43 ; 1.8568316521768E7 ; 2.0076040372605056E8 ; 7.627765747858373E8 ; 7.008110641163784E9 ; 0.0
44 ; 1.857695971004517E7 ; 2.007644568903418E8 ; 7.813448913076053E8 ; 7.208871044889834E9 ; 0.0
45 ; 1.85935862838441E7 ; 2.0076859082755288E8 ; 7.999218510176505E8 ; 7.409635501780176E9 ; 0.0
46 ; 1.8599463559217576E7 ; 2.0077280310835034E8 ; 8.185154373014946E8 ; 7.610404092607729E9 ; 0.0
47 ; 1.86122244377371E7 ; 2.0077709134115106E8 ; 8.371149008607122E8 ; 7.81117689571608E9 ; 0.0
48 ; 1.8616385487865277E7 ; 2.0078145317432818E8 ; 8.557271252984493E8 ; 8.011953987057231E9 ; 0.0
49 ; 1.86293136159022E7 ; 2.0078588629809204E8 ; 8.743435107863146E8 ; 8.212735440231559E9 ; 0.0
50 ; 1.863736012183342E7 ; 2.0079038844606775E8 ; 8.929728244022168E8 ; 8.413521326529651E9 ; 0.0
51 ; 1.8639642074948914E7 ; 2.0079495739658928E8 ; 9.116101845240502E8 ; 8.614311714975718E9 ; 0.0
52 ; 1.8647737291704655E7 ; 2.0079959097373173E8 ; 9.302498265989991E8 ; 8.815106672372307E9 ; 0.0
53 ; 1.865912669599519E7 ; 2.0080428704810154E8 ; 9.488975638907038E8 ; 9.015906263346039E9 ; 0.0
54 ; 1.8661821920740128E7 ; 2.0080904353740475E8 ; 9.67556690586699E8 ; 9.21671055039414E9 ; 0.0
55 ; 1.867401903599949E7 ; 2.0081385840681282E8 ; 9.862185125074391E8 ; 9.417519593931545E9 ; 0.0
56 ; 1.867483034183438E7 ; 2.0081872966914427E8 ; 1.0048925315434387E9 ; 9.618333452338358E9 ; 0.0
57 ; 1.8684261400008872E7 ; 2.0082365538488013E8 ; 1.0235673618852731E9 ; 9.819152182007502E9 ; 0.0
58 ; 1.8685793837566517E7 ; 2.008286336620298E8 ; 1.042251623285282E9 ; 1.0019975837392382E10 ; 0.0
59 ; 1.869342774578254E7 ; 2.0083366265586334E8 ; 1.0609374171228485E9 ; 1.022080447105441E10 ; 0.0
60 ; 1.8698605695408944E7 ; 2.008387405685251E8 ; 1.0796308448686311E9 ; 1.0421638133710274E10 ; 0.0
61 ; 1.8700447300942533E7 ; 2.0084386564854267E8 ; 1.0983294505640402E9 ; 1.06224768742788E10 ; 0.0
62 ; 1.87073321993682E7 ; 2.0084903619024393E8 ; 1.1170298978649826E9 ; 1.0823320739927341E10 ; 0.0
63 ; 1.8713551980044227E7 ; 2.0085425053309476E8 ; 1.1357372300643508E9 ; 1.1024169776117586E10 ; 0.0
64 ; 1.8715721785858456E7 ; 2.0085950706096765E8 ; 1.154450782044395E9 ; 1.122502402665068E10 ; 0.0
65 ; 1.872195757968257E7 ; 2.0086480420135254E8 ; 1.1731665038302534E9 ; 1.1425883533711649E10 ; 0.0
66 ; 1.8729013445818827E7 ; 2.00870140424518E8 ; 1.191888461409936E9 ; 1.1626748337913002E10 ; 0.0
67 ; 1.8728947868434314E7 ; 2.0087551424263254E8 ; 1.2106174748557549E9 ; 1.182761847833752E10 ; 0.0
68 ; 1.873998565649381E7 ; 2.0088092420885274E8 ; 1.2293464227241893E9 ; 1.2028493992580153E10 ; 0.0
69 ; 1.8741296815276552E7 ; 2.0088636891638577E8 ; 1.2480864083806832E9 ; 1.2229374916789005E10 ; 0.0
70 ; 1.874162510397515E7 ; 2.0089184699753267E8 ; 1.2668277051959598E9 ; 1.243026128570539E10 ; 0.0
71 ; 1.8749366088417895E7 ; 2.0089735712271762E8 ; 1.2855693302999349E9 ; 1.2631153132702923E10 ; 0.0
72 ; 1.8750108636882987E7 ; 2.0090289799950895E8 ; 1.3043186963883529E9 ; 1.283205048982564E10 ; 0.0
73 ; 1.8750403456779823E7 ; 2.0090846837163568E8 ; 1.323068805025236E9 ; 1.303295338782515E10 ; 0.0
74 ; 1.875869985891854E7 ; 2.0091406701800415E8 ; 1.3418192084820156E9 ; 1.3233861856196785E10 ; 0.0
75 ; 1.876129701097493E7 ; 2.009196927517182E8 ; 1.360577908340934E9 ; 1.3434775923214788E10 ; 0.0
76 ; 1.876265360450562E7 ; 2.0092534441910562E8 ; 1.379339205351909E9 ; 1.3635695615966507E10 ; 0.0
77 ; 1.8762326945880663E7 ; 2.0093102089875415E8 ; 1.3981018589564145E9 ; 1.3836620960385612E10 ; 0.0
78 ; 1.8762238555749282E7 ; 2.0093672110055885E8 ; 1.416864185902295E9 ; 1.4037551981284367E10 ; 0.0
79 ; 1.8760220742500845E7 ; 2.009424439647833E8 ; 1.4356264244580443E9 ; 1.4238488702384926E10 ; 0.0
80 ; 1.875980119019908E7 ; 2.0094818846113598E8 ; 1.454386645200545E9 ; 1.4439431146349709E10 ; 0.0
81 ; 1.8754059463934507E7 ; 2.0095395358786353E8 ; 1.4731464463907442E9 ; 1.4640379334810844E10 ; 0.0
82 ; 1.875319643326169E7 ; 2.0095973837086192E8 ; 1.4919005058546786E9 ; 1.4841333288398708E10 ; 0.0
83 ; 1.8747141535772074E7 ; 2.009655418628067E8 ; 1.5106537022879403E9 ; 1.504229302676957E10 ; 0.0
84 ; 1.874392319573578E7 ; 2.0097136314230302E8 ; 1.5294008438237123E9 ; 1.5243258568632376E10 ; 0.0
85 ; 1.874207737591376E7 ; 2.0097720131305572E8 ; 1.548144767019448E9 ; 1.544422993177468E10 ; 0.0
86 ; 1.873980748917953E7 ; 2.0098305550306085E8 ; 1.566886844395362E9 ; 1.5645207133087734E10 ; 0.0
87 ; 1.8732838972477976E7 ; 2.0098892486381772E8 ; 1.5856266518845415E9 ; 1.5846190188590796E10 ; 0.0
88 ; 1.872711505612356E7 ; 2.0099480856956267E8 ; 1.6043594908570194E9 ; 1.6047179113454613E10 ; 0.0
89 ; 1.872408445473958E7 ; 2.0100070581652424E8 ; 1.623086605913143E9 ; 1.6248173922024176E10 ; 0.0
90 ; 1.871926065205501E7 ; 2.0100661582219955E8 ; 1.6418106903678825E9 ; 1.64491746278407E10 ; 0.0
91 ; 1.8711615656544298E7 ; 2.0101253782465237E8 ; 1.6605299510199375E9 ; 1.6650181243662899E10 ; 0.0
92 ; 1.8712529397073478E7 ; 2.01018471081832E8 ; 1.6792415666764817E9 ; 1.685119378148755E10 ; 0.0
93 ; 1.8704611884067547E7 ; 2.0102441487091342E8 ; 1.6979540960735552E9 ; 1.7052212252569384E10 ; 0.0
94 ; 1.870022435537144E7 ; 2.0103036848765796E8 ; 1.7166587079576228E9 ; 1.7253236667440296E10 ; 0.0
95 ; 1.869429590315583E7 ; 2.010363312457943E8 ; 1.7353589323129942E9 ; 1.7454267035927956E10 ; 0.0
96 ; 1.8690684616866317E7 ; 2.010423024764196E8 ; 1.75405322821615E9 ; 1.765530336717375E10 ; 0.0
97 ; 1.868437786154086E7 ; 2.0104828152742022E8 ; 1.7727439128330164E9 ; 1.7856345669650173E10 ; 0.0
98 ; 1.8678008188559566E7 ; 2.0105426776291147E8 ; 1.7914282906945572E9 ; 1.8057393951177593E10 ; 0.0
99 ; 1.8672654056695867E7 ; 2.0106026056269637E8 ; 1.8101062988831167E9 ; 1.8258448218940506E10 ; 0.0
100 ; 1.8666106955497164E7 ; 2.0106625932174262E8 ; 1.8287789529398127E9 ; 1.84595084795032E10 ; 0.0
101 ; 1.865866134895229E7 ; 2.0107226344967726E8 ; 1.84744505989531E9 ; 1.8660574738824944E10 ; 0.0
102 ; 1.8648499536924496E7 ; 2.0107827237029907E8 ; 1.8661037212442622E9 ; 1.886164700227462E10 ; 0.0
103 ; 1.8646261628409144E7 ; 2.0108428552110744E8 ; 1.8847522207811868E9 ; 1.906272527464492E10 ; 0.0
104 ; 1.8634854698281012E7 ; 2.01090302352848E8 ; 1.903398482409596E9 ; 1.9263809560166027E10 ; 0.0
105 ; 1.8629147155606054E7 ; 2.0109632232907394E8 ; 1.922033337107877E9 ; 1.9464899862518875E10 ; 0.0
106 ; 1.8626070942286417E7 ; 2.0110234492572296E8 ; 1.940662484263483E9 ; 1.966599618484795E10 ; 0.0
107 ; 1.8616838262091737E7 ; 2.0110836963070917E8 ; 1.9592885552057695E9 ; 1.9867098529773674E10 ; 0.0
108 ; 1.8608985298922185E7 ; 2.0111439594352922E8 ; 1.9779053934678612E9 ; 2.0068206899404385E10 ; 0.0
109 ; 1.860469578791211E7 ; 2.0112042337488297E8 ; 1.9965143787667835E9 ; 2.0269321295347916E10 ; 0.0
110 ; 1.8595962179112192E7 ; 2.011264514463072E8 ; 2.0151190745546956E9 ; 2.0470441718722797E10 ; 0.0
111 ; 1.858787362176649E7 ; 2.0113247968982294E8 ; 2.0337150367338078E9 ; 2.0671568170169106E10 ; 0.0
112 ; 1.8574583416153833E7 ; 2.01138507647595E8 ; 2.0523029103555744E9 ; 2.087270064985893E10 ; 0.0
113 ; 1.8568113670139708E7 ; 2.0114453487160414E8 ; 2.0708774937717283E9 ; 2.1073839157506523E10 ; 0.0
114 ; 1.8558708459922962E7 ; 2.0115056092333096E8 ; 2.089445607441868E9 ; 2.1274983692378128E10 ; 0.0
115 ; 1.8550804782955736E7 ; 2.0115658537345102E8 ; 2.108004315901791E9 ; 2.147613425330146E10 ; 0.0
116 ; 1.8546973735776056E7 ; 2.011626078015412E8 ; 2.1265551206847467E9 ; 2.167729083867491E10 ; 0.0
117 ; 1.8532038398048516E7 ; 2.011686277957967E8 ; 2.1451020944205227E9 ; 2.187845344647645E10 ; 0.0
118 ; 1.852701775870925E7 ; 2.0117464495275795E8 ; 2.163634132818571E9 ; 2.2079622074272247E10 ; 0.0
119 ; 1.8520193605035387E7 ; 2.0118065887704793E8 ; 2.1821611505772805E9 ; 2.2280796719225006E10 ; 0.0
120 ; 1.8505603973494753E7 ; 2.0118666918111843E8 ; 2.200681344182316E9 ; 2.2481977378102055E10 ; 0.0
121 ; 1.849762666749181E7 ; 2.0119267548500594E8 ; 2.2191869481558104E9 ; 2.2683164047283173E10 ; 0.0
122 ; 1.8492383973532695E7 ; 2.0119867741609624E8 ; 2.2376845748233023E9 ; 2.2884356722768177E10 ; 0.0
123 ; 1.8477339862599485E7 ; 2.012046746088973E8 ; 2.256176958796835E9 ; 2.3085555400184273E10 ; 0.0
124 ; 1.846720764290884E7 ; 2.012106667048206E8 ; 2.2746542986594343E9 ; 2.328676007479317E10 ; 0.0
125 ; 1.8460687396992333E7 ; 2.0121665335197037E8 ; 2.2931215063023434E9 ; 2.348797074149799E10 ; 0.0
126 ; 1.845330453492718E7 ; 2.012226342049403E8 ; 2.3115821936993356E9 ; 2.368918739484996E10 ; 0.0
127 ; 1.8440751626106206E7 ; 2.012286089246175E8 ; 2.330035498234263E9 ; 2.38904100290549E10 ; 0.0
128 ; 1.8427818009391803E7 ; 2.012345771779939E8 ; 2.348476249860369E9 ; 2.409163863797952E10 ; 0.0
129 ; 1.8414712352785826E7 ; 2.0124053863798386E8 ; 2.366904067869761E9 ; 2.4292873215157513E10 ; 0.0
130 ; 1.8402967113645922E7 ; 2.012464929832488E8 ; 2.3853187802225466E9 ; 2.4494113753795498E10 ; 0.0
131 ; 1.838794948941484E7 ; 2.012524398980278E8 ; 2.4037217473361926E9 ; 2.4695360246778748E10 ; 0.0
132 ; 1.8371571152011026E7 ; 2.0125837907197458E8 ; 2.4221096968256073E9 ; 2.4896612686676777E10 ; 0.0
133 ; 1.835677526992859E7 ; 2.0126431019999978E8 ; 2.440481267977618E9 ; 2.5097871065748753E10 ; 0.0
134 ; 1.833564727872602E7 ; 2.0127023298211944E8 ; 2.4588380432475467E9 ; 2.5299135375948753E10 ; 0.0
135 ; 1.8316376769187547E7 ; 2.0127614712330848E8 ; 2.477173690526273E9 ; 2.5500405608930874E10 ; 0.0
136 ; 1.8302878206133813E7 ; 2.012820523333595E8 ; 2.49549006729546E9 ; 2.5701681756054184E10 ; 0.0
137 ; 1.828611007288176E7 ; 2.0128794832674652E8 ; 2.513792945501594E9 ; 2.5902963808387543E10 ; 0.0
138 ; 1.8268428315017123E7 ; 2.012938348224937E8 ; 2.532079055574476E9 ; 2.610425175671429E10 ; 0.0
139 ; 1.8247678723786317E7 ; 2.0129971154404837E8 ; 2.550347483889493E9 ; 2.6305545591536785E10 ; 0.0
140 ; 1.823222266801702E7 ; 2.0130557821915895E8 ; 2.5685951626132793E9 ; 2.6506845303080833E10 ; 0.0
141 ; 1.821745529113998E7 ; 2.0131143457975665E8 ; 2.5868273852812963E9 ; 2.670815088129999E10 ; 0.0
142 ; 1.8195546922221668E7 ; 2.0131728036184186E8 ; 2.6050448405724363E9 ; 2.690946231587975E10 ; 0.0
143 ; 1.8178448173184406E7 ; 2.013231153053739E8 ; 2.623240387494658E9 ; 2.7110779596241592E10 ; 0.0
144 ; 1.8157816113697715E7 ; 2.0132893915416527E8 ; 2.6414188356678424E9 ; 2.7312102711546967E10 ; 0.0
145 ; 1.8145275257660296E7 ; 2.0133475165577886E8 ; 2.65957665178154E9 ; 2.7513431650701134E10 ; 0.0
146 ; 1.8135444462303326E7 ; 2.013405525614294E8 ; 2.6777219270392003E9 ; 2.771476640235691E10 ; 0.0
147 ; 1.8122840266131315E7 ; 2.013463416258878E8 ; 2.6958573715015035E9 ; 2.791610695491834E10 ; 0.0
148 ; 1.8113082910151664E7 ; 2.0135211860738912E8 ; 2.713980211767635E9 ; 2.8117453296544228E10 ; 0.0
149 ; 1.8098143167105354E7 ; 2.013578832675434E8 ; 2.7320932946777864E9 ; 2.8318805415151615E10 ; 0.0
150 ; 1.809067052631639E7 ; 2.0136363537124988E8 ; 2.7501914378448915E9 ; 2.852016329841916E10 ; 0.0
151 ; 1.8076247688921686E7 ; 2.0136937468661392E8 ; 2.7682821083712077E9 ; 2.872152693379041E10 ; 0.0
152 ; 1.806745783851849E7 ; 2.0137510098486674E8 ; 2.786358356060129E9 ; 2.8922896308477024E10 ; 0.0
153 ; 1.8056054980485458E7 ; 2.0138081404028812E8 ; 2.804425813898648E9 ; 2.912427140946189E10 ; 0.0
154 ; 1.8040788297169164E7 ; 2.0138651363013136E8 ; 2.822481868879133E9 ; 2.932565222350218E10 ; 0.0
155 ; 1.8027291842973836E7 ; 2.0139219953455123E8 ; 2.8405226571763024E9 ; 2.952703873713231E10 ; 0.0
156 ; 1.801598653193338E7 ; 2.013978715365339E8 ; 2.858549949019276E9 ; 2.972843093666686E10 ; 0.0
157 ; 1.8003831748435125E7 ; 2.0140352942182943E8 ; 2.8765659355512094E9 ; 2.9929828808203392E10 ; 0.0
158 ; 1.7997327818091787E7 ; 2.0140917297888666E8 ; 2.8945697672996445E9 ; 3.013123233762522E10 ; 0.0
159 ; 1.797918715423168E7 ; 2.0141480199879006E8 ; 2.9125670951177363E9 ; 3.0332641510604107E10 ; 0.0
160 ; 1.7968893726267923E7 ; 2.0142041627519867E8 ; 2.930546282271968E9 ; 3.0534056312602898E10 ; 0.0
161 ; 1.7957742280780863E7 ; 2.014260156042873E8 ; 2.9485151759982357E9 ; 3.0735476728878098E10 ; 0.0
162 ; 1.7941620075614415E7 ; 2.014315997846895E8 ; 2.9664729182790165E9 ; 3.0936902744482384E10 ; 0.0
163 ; 1.7930777588849265E7 ; 2.0143716861744237E8 ; 2.984414538354631E9 ; 3.1138334344267075E10 ; 0.0
164 ; 1.7914283512943458E7 ; 2.0144272190593344E8 ; 3.00234531594348E9 ; 3.1339771512884518E10 ; 0.0
165 ; 1.7901186094176907E7 ; 2.01448259455849E8 ; 3.0202595994564233E9 ; 3.154121423479045E10 ; 0.0
166 ; 1.786621628012824E7 ; 2.0145378107512426E8 ; 3.0381607855506E9 ; 3.17426624942463E10 ; 0.0
167 ; 1.7831189295300305E7 ; 2.0145928657389522E8 ; 3.0560270018307285E9 ; 3.1944116275321423E10 ; 0.0
168 ; 1.7792479401743338E7 ; 2.01464775764452E8 ; 3.073858191126029E9 ; 3.2145575561895317E10 ; 0.0
169 ; 1.7755382880764175E7 ; 2.0147024846119368E8 ; 3.0916506705277724E9 ; 3.234704033765977E10 ; 0.0
170 ; 1.7720066849677067E7 ; 2.0147570448058468E8 ; 3.1094060534085364E9 ; 3.2548510586120964E10 ; 0.0
171 ; 1.76747270037451E7 ; 2.0148114364111248E8 ; 3.1271261202582135E9 ; 3.2749986290601547E10 ; 0.0
172 ; 1.7638911583428822E7 ; 2.0148656576324677E8 ; 3.1448008472619586E9 ; 3.295146743424266E10 ; 0.0
173 ; 1.7602375868651625E7 ; 2.014919706693999E8 ; 3.1624397588453875E9 ; 3.315295400000591E10 ; 0.0
174 ; 1.7573645351140082E7 ; 2.014973581838885E8 ; 3.180042134714039E9 ; 3.335444597067531E10 ; 0.0
175 ; 1.7533564754692722E7 ; 2.015027281328965E8 ; 3.197615780065179E9 ; 3.3555943328859196E10 ; 0.0
176 ; 1.750720697001152E7 ; 2.0150808034443927E8 ; 3.2151493448198714E9 ; 3.3757446056992092E10 ; 0.0
177 ; 1.747185818324203E7 ; 2.015134146483287E8 ; 3.232656551789883E9 ; 3.3958954137336533E10 ; 0.0
178 ; 1.743638556504043E7 ; 2.0151873087613976E8 ; 3.250128409973125E9 ; 3.416046755198486E10 ; 0.0
179 ; 1.7403694206295874E7 ; 2.015240288611779E8 ; 3.2675647955381656E9 ; 3.4361986282861E10 ; 0.0
180 ; 1.737471715206055E7 ; 2.0152930843844733E8 ; 3.2849684897444615E9 ; 3.4563510311722176E10 ; 0.0
181 ; 1.7340878850911062E7 ; 2.0153456944462073E8 ; 3.302343206896522E9 ; 3.476503962016062E10 ; 0.0
182 ; 1.7307483707266778E7 ; 2.0153981171800947E8 ; 3.319684085747433E9 ; 3.496657418960524E10 ; 0.0
183 ; 1.7274793418112997E7 ; 2.015450350985351E8 ; 3.3369915694547E9 ; 3.516811400132325E10 ; 0.0
184 ; 1.7240962761631787E7 ; 2.0155023942770138E8 ; 3.354266362872813E9 ; 3.536965903642178E10 ; 0.0
185 ; 1.7214861708571356E7 ; 2.0155542454856765E8 ; 3.371507325634445E9 ; 3.557120927584949E10 ; 0.0
186 ; 1.7175031999527566E7 ; 2.0156059030572265E8 ; 3.3887221873430166E9 ; 3.5772764700398056E10 ; 0.0
187 ; 1.7145325471564095E7 ; 2.0156573654525927E8 ; 3.405897219342544E9 ; 3.597432529070378E10 ; 0.0
188 ; 1.7114485781413425E7 ; 2.0157086311475006E8 ; 3.4230425448141084E9 ; 3.617589102724904E10 ; 0.0
189 ; 1.7079625430893224E7 ; 2.015759698632236E8 ; 3.440157030595522E9 ; 3.637746189036379E10 ; 0.0
190 ; 1.7048845063604683E7 ; 2.0158105664114156E8 ; 3.4572366560264153E9 ; 3.657903786022701E10 ; 0.0
191 ; 1.701647376030665E7 ; 2.0158612330037636E8 ; 3.47428550109002E9 ; 3.678061891686816E10 ; 0.0
192 ; 1.6983259348265823E7 ; 2.0159116969418958E8 ; 3.491301974850327E9 ; 3.698220504016853E10 ; 0.0
193 ; 1.6948084897282247E7 ; 2.015961956772112E8 ; 3.5082852341985927E9 ; 3.7183796209862724E10 ; 0.0
194 ; 1.6919643364405062E7 ; 2.016012011054191E8 ; 3.525233319095875E9 ; 3.738539240553993E10 ; 0.0
195 ; 1.6883621458330605E7 ; 2.0160618583611962E8 ; 3.54215296246028E9 ; 3.758699360664535E10 ; 0.0
