CSV File for the City 1 on Day 227
1 - Minute m 
2 - Power Consumed at minute m 
3 - Power Produced at minute m 
4 - Energy Consumed since the beginning of the day 
5 - Energy Produced since the beginning of the day 
6 - Energy Lost since the beginning of the day on lines starting from the city
 
0 ; 1223438.4855070012 ; 1.0523585047388539E8 ; 0.0 ; 0.0 ; 0.0
1 ; 1246105.7403363064 ; 1.0538606369228405E8 ; 1223438.4855070012 ; 1.0523585047388539E8 ; 0.0
2 ; 1262409.467133485 ; 1.0584513566674653E8 ; 2469544.2258433076 ; 2.1062191416616943E8 ; 0.0
3 ; 1282396.359698797 ; 1.0661310697827274E8 ; 3731953.6929767923 ; 3.1646704983291596E8 ; 0.0
4 ; 1308672.150737025 ; 1.0769002505956775E8 ; 5014350.05267559 ; 4.230801568111887E8 ; 0.0
5 ; 1342312.2221812427 ; 1.0907594401004684E8 ; 6323022.203412615 ; 5.3077018187075645E8 ; 0.0
6 ; 1380444.5905472871 ; 1.1077092329335645E8 ; 7665334.425593858 ; 6.398461258808033E8 ; 0.0
7 ; 1434163.1960610857 ; 1.127750247920059E8 ; 9045779.016141145 ; 7.506170491741598E8 ; 0.0
8 ; 1513497.8545415248 ; 1.1508830789065135E8 ; 1.047994221220223E7 ; 8.633920739661657E8 ; 0.0
9 ; 1637365.1541390284 ; 1.1771082284874582E8 ; 1.1993440066743756E7 ; 9.78480381856817E8 ; 0.0
10 ; 1822160.8668156737 ; 1.2064260365268707E8 ; 1.3630805220882785E7 ; 1.0961912047055628E9 ; 0.0
11 ; 2106992.379267058 ; 1.2388366235491869E8 ; 1.5452966087698458E7 ; 1.21683380835825E9 ; 0.0
12 ; 2575306.7132266373 ; 1.2743398690299705E8 ; 1.7559958466965515E7 ; 1.3407174707131686E9 ; 0.0
13 ; 3025987.0398191875 ; 1.312935433105244E8 ; 2.0135265180192154E7 ; 1.4681514576161656E9 ; 0.0
14 ; 3080388.441934946 ; 1.3546228131804782E8 ; 2.3161252220011342E7 ; 1.59944500092669E9 ; 0.0
15 ; 3100937.569979161 ; 1.3994014154091102E8 ; 2.624164066194629E7 ; 1.7349072822447379E9 ; 0.0
16 ; 3123390.566536274 ; 1.447270620966048E8 ; 2.934257823192545E7 ; 1.8748474237856488E9 ; 0.0
17 ; 3144553.049817985 ; 1.4982298352148262E8 ; 3.2465968798461724E7 ; 2.0195744858822536E9 ; 0.0
18 ; 3170049.051087739 ; 1.5522785171612924E8 ; 3.561052184827971E7 ; 2.169397469403736E9 ; 0.0
19 ; 3191524.042580226 ; 1.609416192478396E8 ; 3.8780570899367444E7 ; 2.3246253211198654E9 ; 0.0
20 ; 3218198.598675387 ; 1.6696424553561375E8 ; 4.197209494194767E7 ; 2.485566940367705E9 ; 0.0
21 ; 3242586.109534008 ; 1.732956963970836E8 ; 4.5190293540623054E7 ; 2.6525311859033184E9 ; 0.0
22 ; 3267458.8465292924 ; 1.799359433029133E8 ; 4.8432879650157064E7 ; 2.825826882300402E9 ; 0.0
23 ; 3290657.819587521 ; 1.8688496255197316E8 ; 5.1700338496686354E7 ; 3.0057628256033154E9 ; 0.0
24 ; 3311703.1658641896 ; 1.9414273448205984E8 ; 5.4990996316273876E7 ; 3.1926477881552887E9 ; 0.0
25 ; 3339969.790992317 ; 2.0039728366614634E8 ; 5.830269948213807E7 ; 3.3867905226373487E9 ; 0.0
26 ; 3362204.290065375 ; 2.004021443504955E8 ; 6.164266927313039E7 ; 3.587187806303495E9 ; 0.0
27 ; 3387465.63572031 ; 2.0040707448128876E8 ; 6.5004873563195765E7 ; 3.7875899506539903E9 ; 0.0
28 ; 3414381.251159833 ; 2.0041206454284608E8 ; 6.839233919891608E7 ; 3.987997025135279E9 ; 0.0
29 ; 3435360.3112382065 ; 2.0041710651870283E8 ; 7.180672045007591E7 ; 4.1884090896781254E9 ; 0.0
30 ; 3458930.4725497933 ; 2.0042219362269595E8 ; 7.524208076131411E7 ; 4.388826196196828E9 ; 0.0
31 ; 3476052.4333219253 ; 2.0042732008157542E8 ; 7.87010112338639E7 ; 4.589248389819524E9 ; 0.0
32 ; 3500121.8430799088 ; 2.0043248095918685E8 ; 8.217706366718583E7 ; 4.789675709901099E9 ; 0.0
33 ; 3519762.722187083 ; 2.0043767201402038E8 ; 8.567718551026574E7 ; 4.990108190860286E9 ; 0.0
34 ; 3545157.5967019047 ; 2.0044288958348274E8 ; 8.919694823245282E7 ; 5.190545862874306E9 ; 0.0
35 ; 3565523.0676241512 ; 2.0044813048956776E8 ; 9.274210582915473E7 ; 5.390988752457788E9 ; 0.0
36 ; 3585182.782573767 ; 2.0045339196168312E8 ; 9.630762889677888E7 ; 5.591436882947356E9 ; 0.0
37 ; 3602338.0651876703 ; 2.0045867157326266E8 ; 9.989281167935264E7 ; 5.7918902749090395E9 ; 0.0
38 ; 3623783.449666041 ; 2.004639671894874E8 ; 1.034951497445403E8 ; 5.992348946482302E9 ; 0.0
39 ; 3641209.1465458223 ; 2.0046927692398825E8 ; 1.0711893319420634E8 ; 6.192812913671789E9 ; 0.0
40 ; 3657750.031607238 ; 2.0047459910283762E8 ; 1.1076014234075217E8 ; 6.3932821905957775E9 ; 0.0
41 ; 3677317.3482793053 ; 2.004799322344779E8 ; 1.1441789237235941E8 ; 6.593756789698615E9 ; 0.0
42 ; 3693969.1308258744 ; 2.0048527498450574E8 ; 1.1809520972063872E8 ; 6.794236721933093E9 ; 0.0
43 ; 3705916.893284533 ; 2.0049062615444267E8 ; 1.217891788514646E8 ; 6.994721996917599E9 ; 0.0
44 ; 3724024.9650505106 ; 2.004959846637925E8 ; 1.2549509574474913E8 ; 7.1952126230720415E9 ; 0.0
45 ; 3736432.0531598153 ; 2.005013495348185E8 ; 1.2921912070979963E8 ; 7.395708607735834E9 ; 0.0
46 ; 3747633.4720800337 ; 2.0050671987958047E8 ; 1.3295555276295945E8 ; 7.596209957270653E9 ; 0.0
47 ; 3762579.2447335045 ; 2.0051209488885653E8 ; 1.3670318623503947E8 ; 7.796716677150233E9 ; 0.0
48 ; 3772814.5894246823 ; 2.0051747382264316E8 ; 1.4046576547977298E8 ; 7.99722877203909E9 ; 0.0
49 ; 3785120.7644909597 ; 2.005228560019808E8 ; 1.4423858006919765E8 ; 8.197746245861733E9 ; 0.0
50 ; 3797636.9847643566 ; 2.0052824080189776E8 ; 1.4802370083368862E8 ; 8.398269101863714E9 ; 0.0
51 ; 3806696.1748752473 ; 2.0053362764530003E8 ; 1.5182133781845298E8 ; 8.598797342665611E9 ; 0.0
52 ; 3813620.707959758 ; 2.0053901599766448E8 ; 1.5562803399332824E8 ; 8.799330970310911E9 ; 0.0
53 ; 3828641.4554196014 ; 2.0054440536241627E8 ; 1.59441654701288E8 ; 8.999869986308577E9 ; 0.0
54 ; 3834602.1023810026 ; 2.0054979527689096E8 ; 1.632702961567076E8 ; 9.200414391670994E9 ; 0.0
55 ; 3842883.0392147107 ; 2.005551853087976E8 ; 1.671048982590886E8 ; 9.400964186947886E9 ; 0.0
56 ; 3855761.2707368503 ; 2.0056057505311298E8 ; 1.709477812983033E8 ; 9.601519372256683E9 ; 0.0
57 ; 3862155.591392957 ; 2.0056596412934712E8 ; 1.7480354256904015E8 ; 9.802079947309795E9 ; 0.0
58 ; 3870367.502155369 ; 2.0057135217912996E8 ; 1.786656981604331E8 ; 1.0002645911439142E10 ; 0.0
59 ; 3881307.763998363 ; 2.005767388640765E8 ; 1.8253606566258848E8 ; 1.0203217263618273E10 ; 0.0
60 ; 3888171.4647114016 ; 2.00582123863894E8 ; 1.8641737342658684E8 ; 1.040379400248235E10 ; 0.0
61 ; 3900359.2479669154 ; 2.0058750687469995E8 ; 1.9030554489129823E8 ; 1.0604376126346243E10 ; 0.0
62 ; 3908608.512064733 ; 2.0059288760752437E8 ; 1.9420590413926515E8 ; 1.0804963633220943E10 ; 0.0
63 ; 3917158.425626145 ; 2.0059826578697324E8 ; 1.9811451265132987E8 ; 1.1005556520828468E10 ; 0.0
64 ; 3924423.3648464736 ; 2.0060364115003365E8 ; 2.0203167107695603E8 ; 1.1206154786615442E10 ; 0.0
65 ; 3929619.9566271533 ; 2.0060901344500345E8 ; 2.059560944418025E8 ; 1.1406758427765476E10 ; 0.0
66 ; 3942939.05327334 ; 2.0061438243053055E8 ; 2.0988571439842966E8 ; 1.160736744121048E10 ; 0.0
67 ; 3950381.938558631 ; 2.0061974787474924E8 ; 2.13828653451703E8 ; 1.180798182364101E10 ; 0.0
68 ; 3953379.842961741 ; 2.0062510955450243E8 ; 2.1777903539026165E8 ; 1.200860157151576E10 ; 0.0
69 ; 3965876.0637304503 ; 2.0063046725463977E8 ; 2.2173241523322338E8 ; 1.2209226681070263E10 ; 0.0
70 ; 3970540.292111314 ; 2.0063582076738372E8 ; 2.2569829129695383E8 ; 1.2409857148324903E10 ; 0.0
71 ; 3976300.5145644895 ; 2.0064116989175546E8 ; 2.2966883158906513E8 ; 1.2610492969092287E10 ; 0.0
72 ; 3984895.165176542 ; 2.0064651443305483E8 ; 2.3364513210362962E8 ; 1.2811134138984043E10 ; 0.0
73 ; 3994791.53052176 ; 2.0065185420238808E8 ; 2.3763002726880616E8 ; 1.3011780653417097E10 ; 0.0
74 ; 4003319.468508434 ; 2.006571890162385E8 ; 2.416248187993279E8 ; 1.3212432507619486E10 ; 0.0
75 ; 4008019.40400675 ; 2.0066251869607583E8 ; 2.4562813826783633E8 ; 1.3413089696635725E10 ; 0.0
76 ; 4015908.1664320636 ; 2.0066784306799975E8 ; 2.4963615767184308E8 ; 1.36137522153318E10 ; 0.0
77 ; 4023784.004131604 ; 2.0067316196241498E8 ; 2.5365206583827513E8 ; 1.38144200583998E10 ; 0.0
78 ; 4022728.3393828715 ; 2.0067847521373394E8 ; 2.5767584984240675E8 ; 1.4015093220362215E10 ; 0.0
79 ; 4026378.46295955 ; 2.006837826601049E8 ; 2.616985781817896E8 ; 1.4215771695575949E10 ; 0.0
80 ; 4027012.5231510964 ; 2.0068908414316285E8 ; 2.6572495664474916E8 ; 1.4416455478236053E10 ; 0.0
81 ; 4029450.3982729893 ; 2.0069437950780097E8 ; 2.6975196916790026E8 ; 1.4617144562379217E10 ; 0.0
82 ; 4026626.9931297796 ; 2.006996686019609E8 ; 2.7378141956617326E8 ; 1.4817838941887018E10 ; 0.0
83 ; 4029622.814459774 ; 2.0070495127643982E8 ; 2.7780804655930305E8 ; 1.501853861048898E10 ; 0.0
84 ; 4032240.137606753 ; 2.0071022738471296E8 ; 2.8183766937376285E8 ; 1.5219243561765419E10 ; 0.0
85 ; 4028353.128943112 ; 2.0071549678277025E8 ; 2.858699095113696E8 ; 1.5419953789150131E10 ; 0.0
86 ; 4028890.0161285717 ; 2.007207593289654E8 ; 2.898982626403127E8 ; 1.5620669285932901E10 ; 0.0
87 ; 4032356.9105849466 ; 2.0072601488387692E8 ; 2.939271526564413E8 ; 1.5821390045261868E10 ; 0.0
88 ; 4031398.4374953937 ; 2.0073126331017953E8 ; 2.979595095670262E8 ; 1.6022116060145744E10 ; 0.0
89 ; 4029450.1510233697 ; 2.007365044725254E8 ; 3.019909080045216E8 ; 1.6222847323455923E10 ; 0.0
90 ; 4032982.1795189925 ; 2.00741738237434E8 ; 3.06020358155545E8 ; 1.6423583827928448E10 ; 0.0
91 ; 4030576.2683042292 ; 2.007469644731905E8 ; 3.10053340335064E8 ; 1.6624325566165882E10 ; 0.0
92 ; 4029861.7546556513 ; 2.00752183049751E8 ; 3.140839166033682E8 ; 1.6825072530639072E10 ; 0.0
93 ; 4028906.1721992344 ; 2.0075739383865526E8 ; 3.181137783580239E8 ; 1.7025824713688824E10 ; 0.0
94 ; 4029126.033967367 ; 2.00762596712945E8 ; 3.2214268453022313E8 ; 1.7226582107527477E10 ; 0.0
95 ; 4031100.8941813777 ; 2.0076779154708868E8 ; 3.261718105641905E8 ; 1.742734470424042E10 ; 0.0
96 ; 4028692.4410868683 ; 2.0077297821691087E8 ; 3.302029114583719E8 ; 1.762811249578751E10 ; 0.0
97 ; 4029353.061331038 ; 2.0077815659952706E8 ; 3.3423160389945877E8 ; 1.782888547400442E10 ; 0.0
98 ; 4024963.375894991 ; 2.0078332657328272E8 ; 3.382609569607898E8 ; 1.8029663630603947E10 ; 0.0
99 ; 4023007.304514686 ; 2.007884880176965E8 ; 3.4228592033668476E8 ; 1.823044695717723E10 ; 0.0
100 ; 4025918.6767278197 ; 2.007936408134074E8 ; 3.4630892764119947E8 ; 1.8431235445194927E10 ; 0.0
101 ; 4022052.54353937 ; 2.007987848421253E8 ; 3.503348463179273E8 ; 1.8632029086008335E10 ; 0.0
102 ; 4018643.4052865203 ; 2.0080391998658505E8 ; 3.5435689886146665E8 ; 1.883282787085046E10 ; 0.0
103 ; 4019319.1397615853 ; 2.0080904613050327E8 ; 3.5837554226675314E8 ; 1.9033631790837044E10 ; 0.0
104 ; 4016018.937720062 ; 2.0081416315853825E8 ; 3.623948614065147E8 ; 1.923444083696755E10 ; 0.0
105 ; 4014960.981281293 ; 2.008192709562523E8 ; 3.6641088034423476E8 ; 1.9435255000126087E10 ; 0.0
106 ; 4011791.1816313607 ; 2.0082436941007662E8 ; 3.7042584132551605E8 ; 1.963607427108234E10 ; 0.0
107 ; 4008805.822680075 ; 2.008294584072783E8 ; 3.7443763250714743E8 ; 1.9836898640492416E10 ; 0.0
108 ; 4010070.0224920223 ; 2.0083453783592954E8 ; 3.784464383298275E8 ; 2.0037728098899696E10 ; 0.0
109 ; 4005603.4191784724 ; 2.008396075848788E8 ; 3.8245650835231954E8 ; 2.0238562636735626E10 ; 0.0
110 ; 4006287.46738063 ; 2.008446675437237E8 ; 3.86462111771498E8 ; 2.0439402244320503E10 ; 0.0
111 ; 4005102.3204766503 ; 2.0084971760278568E8 ; 3.9046839923887867E8 ; 2.0640246911864227E10 ; 0.0
112 ; 3996718.733909442 ; 2.0085475765308616E8 ; 3.944735015593553E8 ; 2.0841096629467014E10 ; 0.0
113 ; 3998192.133495309 ; 2.0085978758632424E8 ; 3.9847022029326475E8 ; 2.1041951387120102E10 ; 0.0
114 ; 3993013.7954248674 ; 2.0086480729485574E8 ; 4.024684124267601E8 ; 2.1242811174706425E10 ; 0.0
115 ; 3989951.5276661864 ; 2.008698166716736E8 ; 4.0646142622218496E8 ; 2.144367598200128E10 ; 0.0
116 ; 3978793.3279958074 ; 2.008748156103893E8 ; 4.1045137774985117E8 ; 2.1644545798672955E10 ; 0.0
117 ; 3981419.0650752624 ; 2.0087980400521553E8 ; 4.14430171077847E8 ; 2.1845420614283344E10 ; 0.0
118 ; 3977089.546023649 ; 2.0088478175094995E8 ; 4.184115901429223E8 ; 2.204630041828856E10 ; 0.0
119 ; 3972563.9785696384 ; 2.0088974874295983E8 ; 4.2238867968894595E8 ; 2.224718520003951E10 ; 0.0
120 ; 3969449.493010297 ; 2.008947048771676E8 ; 4.263612436675156E8 ; 2.2448074948782467E10 ; 0.0
121 ; 3965689.7096598023 ; 2.008996500500375E8 ; 4.3033069316052586E8 ; 2.2648969653659634E10 ; 0.0
122 ; 3964786.9865242513 ; 2.009045841585625E8 ; 4.342963828701857E8 ; 2.284986930370967E10 ; 0.0
123 ; 3957143.6799178654 ; 2.0090950710025278E8 ; 4.382611698567099E8 ; 2.3050773887868233E10 ; 0.0
124 ; 3954056.204531358 ; 2.00914418773124E8 ; 4.4221831353662777E8 ; 2.3251683394968487E10 ; 0.0
125 ; 3950567.280901699 ; 2.0091931907568717E8 ; 4.4617236974115914E8 ; 2.345259781374161E10 ; 0.0
126 ; 3947732.5263556633 ; 2.0092420790693828E8 ; 4.501229370220608E8 ; 2.36535171328173E10 ; 0.0
127 ; 3940173.515705737 ; 2.0092908516634926E8 ; 4.540706695484165E8 ; 2.3854441340724236E10 ; 0.0
128 ; 3939725.7705953536 ; 2.0093395075385898E8 ; 4.5801084306412226E8 ; 2.4055370425890583E10 ; 0.0
129 ; 3937050.8867544383 ; 2.0093880456986505E8 ; 4.6195056883471763E8 ; 2.4256304376644444E10 ; 0.0
130 ; 3924980.6720760167 ; 2.0094364651521593E8 ; 4.658876197214721E8 ; 2.445724318121431E10 ; 0.0
131 ; 3916532.7294271416 ; 2.0094847649120378E8 ; 4.6981260039354813E8 ; 2.4658186827729527E10 ; 0.0
132 ; 3902116.6802604483 ; 2.0095329439955738E8 ; 4.737291331229753E8 ; 2.485913530422073E10 ; 0.0
133 ; 3890285.8110089954 ; 2.009581001424358E8 ; 4.776312498032357E8 ; 2.506008859862029E10 ; 0.0
134 ; 3883987.835031052 ; 2.0096289362242222E8 ; 4.815215356142447E8 ; 2.5261046698762726E10 ; 0.0
135 ; 3868055.1561733303 ; 2.0096767474251828E8 ; 4.8540552344927573E8 ; 2.5462009592385147E10 ; 0.0
136 ; 3859968.8633600078 ; 2.0097244340613872E8 ; 4.892735786054491E8 ; 2.5662977267127666E10 ; 0.0
137 ; 3847746.218009929 ; 2.0097719951710626E8 ; 4.9313354746880907E8 ; 2.5863949710533806E10 ; 0.0
138 ; 3836129.0166118885 ; 2.0098194297964692E8 ; 4.96981293686819E8 ; 2.606492691005091E10 ; 0.0
139 ; 3826350.7566652964 ; 2.0098667369838566E8 ; 5.008174227034309E8 ; 2.626590885303056E10 ; 0.0
140 ; 3814103.7088764394 ; 2.0099139157834208E8 ; 5.046437734600962E8 ; 2.6466895526728947E10 ; 0.0
141 ; 3803433.1508664927 ; 2.009960965249266E8 ; 5.084578771689726E8 ; 2.666788691830729E10 ; 0.0
142 ; 3790978.9009324415 ; 2.0100078844393685E8 ; 5.122613103198391E8 ; 2.6868883014832214E10 ; 0.0
143 ; 3778481.8732277625 ; 2.010054672415542E8 ; 5.1605228922077155E8 ; 2.706988380327615E10 ; 0.0
144 ; 3765441.630103421 ; 2.0101013282434058E8 ; 5.198307710939993E8 ; 2.7270889270517704E10 ; 0.0
145 ; 3757056.1906318236 ; 2.0101478509923553E8 ; 5.2359621272410274E8 ; 2.7471899403342045E10 ; 0.0
146 ; 3753957.090694447 ; 2.010194239735534E8 ; 5.2735326891473454E8 ; 2.767291418844128E10 ; 0.0
147 ; 3754783.2379330997 ; 2.0102404935498074E8 ; 5.3110722600542897E8 ; 2.7873933612414833E10 ; 0.0
148 ; 3743782.983491595 ; 2.01028661151574E8 ; 5.3486200924336207E8 ; 2.8074957661769814E10 ; 0.0
149 ; 3741492.8633322115 ; 2.010332592717571E8 ; 5.386057922268536E8 ; 2.8275986322921387E10 ; 0.0
150 ; 3734846.275006866 ; 2.0103784362431955E8 ; 5.423472850901858E8 ; 2.8477019582193142E10 ; 0.0
151 ; 3735116.970506282 ; 2.0104241411841446E8 ; 5.460821313651927E8 ; 2.8678057425817463E10 ; 0.0
152 ; 3723821.451753774 ; 2.010469706635567E8 ; 5.49817248335699E8 ; 2.887909983993588E10 ; 0.0
153 ; 3720029.287702136 ; 2.010515131696213E8 ; 5.535410697874527E8 ; 2.9080146810599434E10 ; 0.0
154 ; 3718445.476615889 ; 2.01056041546842E8 ; 5.572610990751548E8 ; 2.9281198323769054E10 ; 0.0
155 ; 3713715.7952147513 ; 2.010605557058098E8 ; 5.609795445517707E8 ; 2.9482254365315895E10 ; 0.0
156 ; 3705058.7731877957 ; 2.0106505555747178E8 ; 5.646932603469855E8 ; 2.9683314921021706E10 ; 0.0
157 ; 3699107.229258326 ; 2.0106954101312977E8 ; 5.683983191201732E8 ; 2.9884379976579178E10 ; 0.0
158 ; 3697293.1092022364 ; 2.0107401198443952E8 ; 5.720974263494315E8 ; 3.0085449517592308E10 ; 0.0
159 ; 3689431.571951439 ; 2.0107846838340965E8 ; 5.757947194586338E8 ; 3.0286523529576748E10 ; 0.0
160 ; 3681993.014008516 ; 2.0108291012240082E8 ; 5.794841510305852E8 ; 3.048760199796016E10 ; 0.0
161 ; 3678758.6445738603 ; 2.0108733711412495E8 ; 5.831661440445937E8 ; 3.068868490808256E10 ; 0.0
162 ; 3672063.3569583134 ; 2.0109174927164468E8 ; 5.868449026891675E8 ; 3.0889772245196686E10 ; 0.0
163 ; 3670257.1959838076 ; 2.0109614650837255E8 ; 5.905169660461258E8 ; 3.109086399446833E10 ; 0.0
164 ; 3664018.4142960217 ; 2.0110052873807076E8 ; 5.941872232421095E8 ; 3.1291960140976704E10 ; 0.0
165 ; 3659076.0799504784 ; 2.0110489587485057E8 ; 5.978512416564056E8 ; 3.1493060669714775E10 ; 0.0
166 ; 3655245.855180863 ; 2.0110924783317208E8 ; 6.01510317736356E8 ; 3.1694165565589626E10 ; 0.0
167 ; 3644987.305484082 ; 2.0111358452784377E8 ; 6.051655635915369E8 ; 3.18952748134228E10 ; 0.0
168 ; 3642184.1310959035 ; 2.0111790587402242E8 ; 6.088105508970209E8 ; 3.209638839795064E10 ; 0.0
169 ; 3634944.2355538737 ; 2.0112221178721294E8 ; 6.124527350281168E8 ; 3.2297506303824665E10 ; 0.0
170 ; 3630505.8455626704 ; 2.011265021832682E8 ; 6.160876792636707E8 ; 3.2498628515611877E10 ; 0.0
171 ; 3627018.7719449545 ; 2.0113077697838905E8 ; 6.197181851092334E8 ; 3.2699755017795147E10 ; 0.0
172 ; 3619152.0312543414 ; 2.0113503608912432E8 ; 6.233452038811784E8 ; 3.2900885794773537E10 ; 0.0
173 ; 3609775.969165976 ; 2.011392794323708E8 ; 6.269643559124327E8 ; 3.310202083086266E10 ; 0.0
174 ; 3612017.0095233945 ; 2.0114350692537352E8 ; 6.305741318815986E8 ; 3.330316011029503E10 ; 0.0
175 ; 3606436.7157963095 ; 2.0114771848572576E8 ; 6.34186148891122E8 ; 3.35043036172204E10 ; 0.0
176 ; 3603579.942166249 ; 2.011519140313693E8 ; 6.377925856069183E8 ; 3.3705451335706127E10 ; 0.0
177 ; 3600907.7411236167 ; 2.0115609348059464E8 ; 6.413961655490845E8 ; 3.3906603249737495E10 ; 0.0
178 ; 3595502.2960279663 ; 2.011602567520413E8 ; 6.449970732902081E8 ; 3.410775934321809E10 ; 0.0
179 ; 3589808.72073575 ; 2.0116440376469824E8 ; 6.485925755862361E8 ; 3.430891959997013E10 ; 0.0
180 ; 3589343.408684027 ; 2.0116853443790397E8 ; 6.521823843069719E8 ; 3.451008400373483E10 ; 0.0
181 ; 3587115.723121512 ; 2.011726486913472E8 ; 6.557717277156559E8 ; 3.471125253817274E10 ; 0.0
182 ; 3580421.853654832 ; 2.0117674644506714E8 ; 6.593588434387774E8 ; 3.491242518686408E10 ; 0.0
183 ; 3576963.733018076 ; 2.011808276194539E8 ; 6.629392652924323E8 ; 3.511360193330915E10 ; 0.0
184 ; 3574135.43001225 ; 2.0118489213524914E8 ; 6.665162290254503E8 ; 3.5314782760928604E10 ; 0.0
185 ; 3571598.754352636 ; 2.0118893991354638E8 ; 6.700903644554626E8 ; 3.551596765306385E10 ; 0.0
186 ; 3564246.780391901 ; 2.011929708757918E8 ; 6.736619632098153E8 ; 3.5717156592977394E10 ; 0.0
187 ; 3558374.763227007 ; 2.0119698494378445E8 ; 6.772262099902072E8 ; 3.591834956385319E10 ; 0.0
188 ; 3558186.598919834 ; 2.0120098203967723E8 ; 6.807845847534342E8 ; 3.6119546548796974E10 ; 0.0
189 ; 3557188.454708892 ; 2.012049620859772E8 ; 6.84342771352354E8 ; 3.6320747530836655E10 ; 0.0
190 ; 3553020.296841785 ; 2.012089250055464E8 ; 6.87899959807063E8 ; 3.652195249292263E10 ; 0.0
191 ; 3547343.4263075995 ; 2.0121287072160232E8 ; 6.914529801039047E8 ; 3.672316141792818E10 ; 0.0
192 ; 3546197.6968354583 ; 2.0121679915771887E8 ; 6.950003235302123E8 ; 3.692437428864978E10 ; 0.0
193 ; 3546270.596882162 ; 2.0122071023782673E8 ; 6.985465212270477E8 ; 3.71255910878075E10 ; 0.0
194 ; 3539145.7575372993 ; 2.0122460388621432E8 ; 7.020927918239298E8 ; 3.732681179804533E10 ; 0.0
195 ; 3533806.0571053666 ; 2.0122848002752838E8 ; 7.05631937581467E8 ; 3.752803640193154E10 ; 0.0
196 ; 3529557.735323115 ; 2.0123233858677477E8 ; 7.091657436385725E8 ; 3.772926488195907E10 ; 0.0
197 ; 3528272.6828935742 ; 2.012361794893193E8 ; 7.126953013738955E8 ; 3.7930497220545845E10 ; 0.0
198 ; 3521363.6183030163 ; 2.012400026608883E8 ; 7.162235740567892E8 ; 3.8131733400035164E10 ; 0.0
199 ; 3520507.305896776 ; 2.0124380802756968E8 ; 7.197449376750922E8 ; 3.833297340269605E10 ; 0.0
200 ; 3514425.47570816 ; 2.0124759551581347E8 ; 7.23265444980989E8 ; 3.8534217210723625E10 ; 0.0
