CSV File for the City 5 on Day 7
1 - Minute m 
2 - Power Consumed at minute m 
3 - Power Produced at minute m 
4 - Energy Consumed since the beginning of the day 
5 - Energy Produced since the beginning of the day 
6 - Energy Lost since the beginning of the day on lines starting from the city
 
0 ; 8489658.258444102 ; 1.0119621407036291E7 ; 0.0 ; 0.0 ; 0.0
1 ; 8496568.580645613 ; 1.0119621407036291E7 ; 8489658.258444102 ; 1.0119621407036291E7 ; 0.0
2 ; 8504917.613052921 ; 1.0119621407036291E7 ; 1.6986226839089714E7 ; 2.0239242814072583E7 ; 0.0
3 ; 8517779.762333823 ; 1.0119621407036291E7 ; 2.5491144452142633E7 ; 3.0358864221108876E7 ; 0.0
4 ; 8528551.055514788 ; 1.0119621407036291E7 ; 3.400892421447646E7 ; 4.0478485628145166E7 ; 0.0
5 ; 8545474.597253501 ; 1.0119621407036291E7 ; 4.253747526999125E7 ; 5.0598107035181455E7 ; 0.0
6 ; 8564598.495405296 ; 1.0119621407036291E7 ; 5.108294986724475E7 ; 6.0717728442217745E7 ; 0.0
7 ; 8595021.353972752 ; 1.0119621407036291E7 ; 5.9647548362650044E7 ; 7.083734984925404E7 ; 0.0
8 ; 8633059.665780315 ; 1.0119621407036291E7 ; 6.82425697166228E7 ; 8.095697125629033E7 ; 0.0
9 ; 8700580.70201024 ; 1.0119621407036291E7 ; 7.687562938240312E7 ; 9.107659266332662E7 ; 0.0
10 ; 8797434.748707905 ; 1.0119621407036291E7 ; 8.557621008441336E7 ; 1.0119621407036291E8 ; 0.0
11 ; 8952399.946774757 ; 1.0119621407036291E7 ; 9.437364483312127E7 ; 1.113158354773992E8 ; 0.0
12 ; 9197388.132705636 ; 1.0119621407036291E7 ; 1.0332604477989602E8 ; 1.2143545688443549E8 ; 0.0
13 ; 9439552.366494667 ; 1.0119621407036291E7 ; 1.1252343291260165E8 ; 1.3155507829147178E8 ; 0.0
14 ; 9465966.594430681 ; 1.0119621407036291E7 ; 1.2196298527909632E8 ; 1.4167469969850808E8 ; 0.0
15 ; 9476490.415404068 ; 1.0119621407036291E7 ; 1.31428951873527E8 ; 1.517943211055444E8 ; 0.0
16 ; 9487327.172211053 ; 1.0119621407036291E7 ; 1.4090544228893107E8 ; 1.619139425125807E8 ; 0.0
17 ; 9499551.214352744 ; 1.0119621407036291E7 ; 1.5039276946114212E8 ; 1.72033563919617E8 ; 0.0
18 ; 9511725.073242674 ; 1.0119621407036291E7 ; 1.5989232067549488E8 ; 1.821531853266533E8 ; 0.0
19 ; 9522343.397898644 ; 1.0119621407036291E7 ; 1.6940404574873754E8 ; 1.922728067336896E8 ; 0.0
20 ; 9535786.860406762 ; 1.0119621407036291E7 ; 1.789263891466362E8 ; 2.023924281407259E8 ; 0.0
21 ; 9541841.091592565 ; 1.0119621407036291E7 ; 1.8846217600704294E8 ; 2.1251204954776222E8 ; 0.0
22 ; 9556166.020896474 ; 1.0119621407036291E7 ; 1.980040170986355E8 ; 2.2263167095479852E8 ; 0.0
23 ; 9566638.740563206 ; 1.0119621407036291E7 ; 2.0756018311953196E8 ; 2.3275129236183482E8 ; 0.0
24 ; 9579391.20421813 ; 1.0119621407036291E7 ; 2.1712682186009517E8 ; 2.4287091376887113E8 ; 0.0
25 ; 9586077.215937462 ; 1.0119621407036291E7 ; 2.267062130643133E8 ; 2.5299053517590743E8 ; 0.0
26 ; 9603037.170215484 ; 1.0119621407036291E7 ; 2.3629229028025076E8 ; 2.6311015658294374E8 ; 0.0
27 ; 9611523.57305979 ; 1.0119621407036291E7 ; 2.4589532745046625E8 ; 2.7322977798998004E8 ; 0.0
28 ; 9623475.756735776 ; 1.0119621407036291E7 ; 2.5550685102352604E8 ; 2.8334939939701635E8 ; 0.0
29 ; 9631351.255258674 ; 1.0119621407036291E7 ; 2.651303267802618E8 ; 2.9346902080405265E8 ; 0.0
30 ; 9645075.042025795 ; 1.0119621407036291E7 ; 2.747616780355205E8 ; 3.0358864221108896E8 ; 0.0
31 ; 9656173.882745286 ; 1.0119621407036291E7 ; 2.844067530775463E8 ; 3.1370826361812526E8 ; 0.0
32 ; 9660851.169899004 ; 1.0119621407036291E7 ; 2.9406292696029156E8 ; 3.2382788502516156E8 ; 0.0
33 ; 9674203.422242248 ; 1.0119621407036291E7 ; 3.0372377813019055E8 ; 3.3394750643219787E8 ; 0.0
34 ; 9682698.271045968 ; 1.0119621407036291E7 ; 3.133979815524328E8 ; 3.440671278392342E8 ; 0.0
35 ; 9693423.849017307 ; 1.0119621407036291E7 ; 3.2308067982347876E8 ; 3.541867492462705E8 ; 0.0
36 ; 9701618.804605206 ; 1.0119621407036291E7 ; 3.327741036724961E8 ; 3.643063706533068E8 ; 0.0
37 ; 9709923.631191248 ; 1.0119621407036291E7 ; 3.4247572247710127E8 ; 3.744259920603431E8 ; 0.0
38 ; 9718099.886091977 ; 1.0119621407036291E7 ; 3.521856461082925E8 ; 3.845456134673794E8 ; 0.0
39 ; 9726312.127228098 ; 1.0119621407036291E7 ; 3.619037459943845E8 ; 3.946652348744157E8 ; 0.0
40 ; 9734368.243371082 ; 1.0119621407036291E7 ; 3.716300581216126E8 ; 4.04784856281452E8 ; 0.0
41 ; 9740246.754207624 ; 1.0119621407036291E7 ; 3.813644263649837E8 ; 4.149044776884883E8 ; 0.0
42 ; 9744902.575361054 ; 1.0119621407036291E7 ; 3.911046731191913E8 ; 4.250240990955246E8 ; 0.0
43 ; 9751254.969720213 ; 1.0119621407036291E7 ; 4.0084957569455236E8 ; 4.351437205025609E8 ; 0.0
44 ; 9757274.881504694 ; 1.0119621407036291E7 ; 4.1060083066427255E8 ; 4.452633419095972E8 ; 0.0
45 ; 9764494.650455512 ; 1.0119621407036291E7 ; 4.2035810554577726E8 ; 4.553829633166335E8 ; 0.0
46 ; 9768413.737747688 ; 1.0119621407036291E7 ; 4.301226001962328E8 ; 4.655025847236698E8 ; 0.0
47 ; 9772887.759156663 ; 1.0119621407036291E7 ; 4.3989101393398046E8 ; 4.7562220613070613E8 ; 0.0
48 ; 9777307.764864035 ; 1.0119621407036291E7 ; 4.496639016931371E8 ; 4.8574182753774244E8 ; 0.0
49 ; 9781780.570789551 ; 1.0119621407036291E7 ; 4.5944120945800114E8 ; 4.9586144894477874E8 ; 0.0
50 ; 9785316.824179202 ; 1.0119621407036291E7 ; 4.692229900287907E8 ; 5.0598107035181504E8 ; 0.0
51 ; 9787563.9460624 ; 1.0119621407036291E7 ; 4.790083068529699E8 ; 5.1610069175885135E8 ; 0.0
52 ; 9788688.086229896 ; 1.0119621407036291E7 ; 4.887958707990323E8 ; 5.2622031316588765E8 ; 0.0
53 ; 9793654.279990789 ; 1.0119621407036291E7 ; 4.985845588852622E8 ; 5.3633993457292396E8 ; 0.0
54 ; 9796092.692864623 ; 1.0119621407036291E7 ; 5.08378213165253E8 ; 5.464595559799602E8 ; 0.0
55 ; 9797192.915306816 ; 1.0119621407036291E7 ; 5.181743058581176E8 ; 5.565791773869965E8 ; 0.0
56 ; 9801914.365541637 ; 1.0119621407036291E7 ; 5.279714987734244E8 ; 5.666987987940328E8 ; 0.0
57 ; 9801933.70653918 ; 1.0119621407036291E7 ; 5.377734131389661E8 ; 5.768184202010691E8 ; 0.0
58 ; 9804395.33546621 ; 1.0119621407036291E7 ; 5.475753468455052E8 ; 5.869380416081054E8 ; 0.0
59 ; 9807336.588947691 ; 1.0119621407036291E7 ; 5.573797421809715E8 ; 5.970576630151417E8 ; 0.0
60 ; 9809848.08983723 ; 1.0119621407036291E7 ; 5.671870787699192E8 ; 6.07177284422178E8 ; 0.0
61 ; 9811250.946712011 ; 1.0119621407036291E7 ; 5.769969268597564E8 ; 6.172969058292143E8 ; 0.0
62 ; 9813317.041498456 ; 1.0119621407036291E7 ; 5.868081778064684E8 ; 6.274165272362506E8 ; 0.0
63 ; 9818021.9385869 ; 1.0119621407036291E7 ; 5.966214948479668E8 ; 6.37536148643287E8 ; 0.0
64 ; 9816175.97002878 ; 1.0119621407036291E7 ; 6.064395167865537E8 ; 6.476557700503232E8 ; 0.0
65 ; 9819015.87205083 ; 1.0119621407036291E7 ; 6.162556927565825E8 ; 6.577753914573596E8 ; 0.0
66 ; 9817886.345355699 ; 1.0119621407036291E7 ; 6.260747086286334E8 ; 6.678950128643959E8 ; 0.0
67 ; 9820504.540328253 ; 1.0119621407036291E7 ; 6.358925949739891E8 ; 6.780146342714322E8 ; 0.0
68 ; 9820052.85027319 ; 1.0119621407036291E7 ; 6.457130995143174E8 ; 6.881342556784685E8 ; 0.0
69 ; 9821864.817545507 ; 1.0119621407036291E7 ; 6.555331523645905E8 ; 6.982538770855048E8 ; 0.0
70 ; 9822603.304686243 ; 1.0119621407036291E7 ; 6.65355017182136E8 ; 7.083734984925411E8 ; 0.0
71 ; 9823952.852652764 ; 1.0119621407036291E7 ; 6.751776204868222E8 ; 7.184931198995774E8 ; 0.0
72 ; 9825620.897958502 ; 1.0119621407036291E7 ; 6.85001573339475E8 ; 7.286127413066137E8 ; 0.0
73 ; 9825458.5870909 ; 1.0119621407036291E7 ; 6.948271942374336E8 ; 7.3873236271365E8 ; 0.0
74 ; 9829069.010037195 ; 1.0119621407036291E7 ; 7.046526528245244E8 ; 7.488519841206863E8 ; 0.0
75 ; 9826036.839117853 ; 1.0119621407036291E7 ; 7.144817218345616E8 ; 7.589716055277226E8 ; 0.0
76 ; 9827199.20520029 ; 1.0119621407036291E7 ; 7.243077586736795E8 ; 7.690912269347589E8 ; 0.0
77 ; 9828254.69669317 ; 1.0119621407036291E7 ; 7.341349578788798E8 ; 7.792108483417952E8 ; 0.0
78 ; 9823870.604480717 ; 1.0119621407036291E7 ; 7.43963212575573E8 ; 7.893304697488315E8 ; 0.0
79 ; 9822571.194011888 ; 1.0119621407036291E7 ; 7.537870831800537E8 ; 7.994500911558678E8 ; 0.0
80 ; 9820505.606208518 ; 1.0119621407036291E7 ; 7.636096543740656E8 ; 8.095697125629041E8 ; 0.0
81 ; 9814891.427785764 ; 1.0119621407036291E7 ; 7.734301599802742E8 ; 8.196893339699404E8 ; 0.0
82 ; 9812216.429936666 ; 1.0119621407036291E7 ; 7.8324505140806E8 ; 8.298089553769767E8 ; 0.0
83 ; 9813180.912181541 ; 1.0119621407036291E7 ; 7.930572678379966E8 ; 8.39928576784013E8 ; 0.0
84 ; 9808207.888089813 ; 1.0119621407036291E7 ; 8.028704487501781E8 ; 8.500481981910493E8 ; 0.0
85 ; 9803620.887285184 ; 1.0119621407036291E7 ; 8.126786566382679E8 ; 8.601678195980856E8 ; 0.0
86 ; 9800290.476683892 ; 1.0119621407036291E7 ; 8.224822775255531E8 ; 8.70287441005122E8 ; 0.0
87 ; 9796575.551682094 ; 1.0119621407036291E7 ; 8.32282568002237E8 ; 8.804070624121583E8 ; 0.0
88 ; 9794351.263002338 ; 1.0119621407036291E7 ; 8.420791435539191E8 ; 8.905266838191946E8 ; 0.0
89 ; 9792056.600583902 ; 1.0119621407036291E7 ; 8.518734948169215E8 ; 9.006463052262309E8 ; 0.0
90 ; 9787518.637706298 ; 1.0119621407036291E7 ; 8.616655514175054E8 ; 9.107659266332672E8 ; 0.0
91 ; 9783045.43040592 ; 1.0119621407036291E7 ; 8.714530700552117E8 ; 9.208855480403035E8 ; 0.0
92 ; 9780438.00306067 ; 1.0119621407036291E7 ; 8.812361154856176E8 ; 9.310051694473398E8 ; 0.0
93 ; 9776438.816173831 ; 1.0119621407036291E7 ; 8.910165534886783E8 ; 9.411247908543761E8 ; 0.0
94 ; 9772896.847742902 ; 1.0119621407036291E7 ; 9.007929923048521E8 ; 9.512444122614124E8 ; 0.0
95 ; 9768386.947037939 ; 1.0119621407036291E7 ; 9.10565889152595E8 ; 9.613640336684487E8 ; 0.0
96 ; 9762174.317504311 ; 1.0119621407036291E7 ; 9.20334276099633E8 ; 9.71483655075485E8 ; 0.0
97 ; 9758578.93919096 ; 1.0119621407036291E7 ; 9.300964504171373E8 ; 9.816032764825213E8 ; 0.0
98 ; 9752365.300453654 ; 1.0119621407036291E7 ; 9.398550293563282E8 ; 9.917228978895576E8 ; 0.0
99 ; 9750162.747960225 ; 1.0119621407036291E7 ; 9.496073946567819E8 ; 1.0018425192965939E9 ; 0.0
100 ; 9746231.831986235 ; 1.0119621407036291E7 ; 9.593575574047421E8 ; 1.0119621407036302E9 ; 0.0
101 ; 9738884.277827082 ; 1.0119621407036291E7 ; 9.691037892367283E8 ; 1.0220817621106665E9 ; 0.0
102 ; 9737867.843457952 ; 1.0119621407036291E7 ; 9.788426735145553E8 ; 1.0322013835177028E9 ; 0.0
103 ; 9732157.43283075 ; 1.0119621407036291E7 ; 9.885805413580133E8 ; 1.0423210049247391E9 ; 0.0
104 ; 9725489.81430599 ; 1.0119621407036291E7 ; 9.98312698790844E8 ; 1.0524406263317754E9 ; 0.0
105 ; 9720547.629385063 ; 1.0119621407036291E7 ; 1.00803818860515E9 ; 1.0625602477388117E9 ; 0.0
106 ; 9713408.39558802 ; 1.0119621407036291E7 ; 1.0177587362345351E9 ; 1.072679869145848E9 ; 0.0
107 ; 9711348.41723935 ; 1.0119621407036291E7 ; 1.0274721446301231E9 ; 1.0827994905528843E9 ; 0.0
108 ; 9703543.241621533 ; 1.0119621407036291E7 ; 1.0371834930473624E9 ; 1.0929191119599206E9 ; 0.0
109 ; 9702624.767364994 ; 1.0119621407036291E7 ; 1.046887036288984E9 ; 1.103038733366957E9 ; 0.0
110 ; 9691452.592186913 ; 1.0119621407036291E7 ; 1.0565896610563489E9 ; 1.1131583547739933E9 ; 0.0
111 ; 9687659.228210136 ; 1.0119621407036291E7 ; 1.0662811136485358E9 ; 1.1232779761810296E9 ; 0.0
112 ; 9680249.135322351 ; 1.0119621407036291E7 ; 1.075968772876746E9 ; 1.1333975975880659E9 ; 0.0
113 ; 9676965.460541729 ; 1.0119621407036291E7 ; 1.0856490220120683E9 ; 1.1435172189951022E9 ; 0.0
114 ; 9666389.919139603 ; 1.0119621407036291E7 ; 1.09532598747261E9 ; 1.1536368404021385E9 ; 0.0
115 ; 9663865.282357592 ; 1.0119621407036291E7 ; 1.1049923773917496E9 ; 1.1637564618091748E9 ; 0.0
116 ; 9655665.219448073 ; 1.0119621407036291E7 ; 1.1146562426741073E9 ; 1.173876083216211E9 ; 0.0
117 ; 9650969.680022502 ; 1.0119621407036291E7 ; 1.1243119078935554E9 ; 1.1839957046232474E9 ; 0.0
118 ; 9644426.653956026 ; 1.0119621407036291E7 ; 1.133962877573578E9 ; 1.1941153260302837E9 ; 0.0
119 ; 9638174.440565929 ; 1.0119621407036291E7 ; 1.1436073042275338E9 ; 1.20423494743732E9 ; 0.0
120 ; 9629710.33769846 ; 1.0119621407036291E7 ; 1.1532454786680996E9 ; 1.2143545688443563E9 ; 0.0
121 ; 9624441.375660477 ; 1.0119621407036291E7 ; 1.162875189005798E9 ; 1.2244741902513926E9 ; 0.0
122 ; 9616807.514437173 ; 1.0119621407036291E7 ; 1.1724996303814585E9 ; 1.234593811658429E9 ; 0.0
123 ; 9610324.558116974 ; 1.0119621407036291E7 ; 1.1821164378958957E9 ; 1.2447134330654652E9 ; 0.0
124 ; 9603119.845835017 ; 1.0119621407036291E7 ; 1.1917267624540126E9 ; 1.2548330544725015E9 ; 0.0
125 ; 9596447.558236688 ; 1.0119621407036291E7 ; 1.2013298822998476E9 ; 1.2649526758795378E9 ; 0.0
126 ; 9590715.435324183 ; 1.0119621407036291E7 ; 1.2109263298580842E9 ; 1.2750722972865741E9 ; 0.0
127 ; 9581181.364349684 ; 1.0119621407036291E7 ; 1.2205170452934084E9 ; 1.2851919186936104E9 ; 0.0
128 ; 9573454.661373097 ; 1.0119621407036291E7 ; 1.230098226657758E9 ; 1.2953115401006467E9 ; 0.0
129 ; 9568778.492555367 ; 1.0119621407036291E7 ; 1.2396716813191311E9 ; 1.305431161507683E9 ; 0.0
130 ; 9560945.032769512 ; 1.0119621407036291E7 ; 1.2492404598116865E9 ; 1.3155507829147193E9 ; 0.0
131 ; 9548704.735005269 ; 1.0119621407036291E7 ; 1.258801404844456E9 ; 1.3256704043217556E9 ; 0.0
132 ; 9539129.535464237 ; 1.0119621407036291E7 ; 1.2683501095794613E9 ; 1.335790025728792E9 ; 0.0
133 ; 9527346.065447003 ; 1.0119621407036291E7 ; 1.2778892391149256E9 ; 1.3459096471358283E9 ; 0.0
134 ; 9512741.322441002 ; 1.0119621407036291E7 ; 1.2874165851803727E9 ; 1.3560292685428646E9 ; 0.0
135 ; 9506556.420403002 ; 1.0119621407036291E7 ; 1.2969293265028138E9 ; 1.3661488899499009E9 ; 0.0
136 ; 9493646.106757665 ; 1.0119621407036291E7 ; 1.3064358829232168E9 ; 1.3762685113569372E9 ; 0.0
137 ; 9481547.388434222 ; 1.0119621407036291E7 ; 1.3159295290299745E9 ; 1.3863881327639735E9 ; 0.0
138 ; 9470751.250683676 ; 1.0119621407036291E7 ; 1.3254110764184086E9 ; 1.3965077541710098E9 ; 0.0
139 ; 9461479.290167738 ; 1.0119621407036291E7 ; 1.3348818276690924E9 ; 1.406627375578046E9 ; 0.0
140 ; 9448939.301046513 ; 1.0119621407036291E7 ; 1.3443433069592602E9 ; 1.4167469969850824E9 ; 0.0
141 ; 9437540.700595258 ; 1.0119621407036291E7 ; 1.3537922462603068E9 ; 1.4268666183921187E9 ; 0.0
142 ; 9425223.603915397 ; 1.0119621407036291E7 ; 1.363229786960902E9 ; 1.436986239799155E9 ; 0.0
143 ; 9413243.158561645 ; 1.0119621407036291E7 ; 1.3726550105648174E9 ; 1.4471058612061913E9 ; 0.0
144 ; 9400201.64031328 ; 1.0119621407036291E7 ; 1.3820682537233791E9 ; 1.4572254826132276E9 ; 0.0
145 ; 9391733.19106954 ; 1.0119621407036291E7 ; 1.3914684553636925E9 ; 1.467345104020264E9 ; 0.0
146 ; 9385479.202036753 ; 1.0119621407036291E7 ; 1.4008601885547621E9 ; 1.4774647254273002E9 ; 0.0
147 ; 9376232.613562178 ; 1.0119621407036291E7 ; 1.410245667756799E9 ; 1.4875843468343365E9 ; 0.0
148 ; 9369332.62541113 ; 1.0119621407036291E7 ; 1.419621900370361E9 ; 1.4977039682413728E9 ; 0.0
149 ; 9363549.970487583 ; 1.0119621407036291E7 ; 1.4289912329957721E9 ; 1.5078235896484091E9 ; 0.0
150 ; 9352548.298212286 ; 1.0119621407036291E7 ; 1.4383547829662597E9 ; 1.5179432110554454E9 ; 0.0
151 ; 9345514.090948135 ; 1.0119621407036291E7 ; 1.447707331264472E9 ; 1.5280628324624817E9 ; 0.0
152 ; 9336806.38865694 ; 1.0119621407036291E7 ; 1.45705284535542E9 ; 1.538182453869518E9 ; 0.0
153 ; 9325486.694991153 ; 1.0119621407036291E7 ; 1.466389651744077E9 ; 1.5483020752765543E9 ; 0.0
154 ; 9318575.425157541 ; 1.0119621407036291E7 ; 1.475715138439068E9 ; 1.5584216966835907E9 ; 0.0
155 ; 9307714.598516682 ; 1.0119621407036291E7 ; 1.4850337138642256E9 ; 1.568541318090627E9 ; 0.0
156 ; 9307512.60705653 ; 1.0119621407036291E7 ; 1.4943414284627423E9 ; 1.5786609394976633E9 ; 0.0
157 ; 9295049.302056978 ; 1.0119621407036291E7 ; 1.503648941069799E9 ; 1.5887805609046996E9 ; 0.0
158 ; 9285458.042575492 ; 1.0119621407036291E7 ; 1.512943990371856E9 ; 1.5989001823117359E9 ; 0.0
159 ; 9276606.771108665 ; 1.0119621407036291E7 ; 1.5222294484144316E9 ; 1.6090198037187722E9 ; 0.0
160 ; 9268498.118171064 ; 1.0119621407036291E7 ; 1.5315060551855402E9 ; 1.6191394251258085E9 ; 0.0
161 ; 9256533.038619747 ; 1.0119621407036291E7 ; 1.5407745533037112E9 ; 1.6292590465328448E9 ; 0.0
162 ; 9250702.334915482 ; 1.0119621407036291E7 ; 1.550031086342331E9 ; 1.639378667939881E9 ; 0.0
163 ; 9242966.203082934 ; 1.0119621407036291E7 ; 1.5592817886772463E9 ; 1.6494982893469174E9 ; 0.0
164 ; 9235186.206542034 ; 1.0119621407036291E7 ; 1.5685247548803294E9 ; 1.6596179107539537E9 ; 0.0
165 ; 9224450.46871905 ; 1.0119621407036291E7 ; 1.5777599410868714E9 ; 1.66973753216099E9 ; 0.0
166 ; 9216325.195442855 ; 1.0119621407036291E7 ; 1.5869843915555904E9 ; 1.6798571535680263E9 ; 0.0
167 ; 9207556.066523394 ; 1.0119621407036291E7 ; 1.5962007167510333E9 ; 1.6899767749750626E9 ; 0.0
168 ; 9198237.173422828 ; 1.0119621407036291E7 ; 1.6054082728175566E9 ; 1.700096396382099E9 ; 0.0
169 ; 9193043.218076594 ; 1.0119621407036291E7 ; 1.6146065099909794E9 ; 1.7102160177891352E9 ; 0.0
170 ; 9181664.5225971 ; 1.0119621407036291E7 ; 1.6237995532090561E9 ; 1.7203356391961715E9 ; 0.0
171 ; 9172500.74740696 ; 1.0119621407036291E7 ; 1.6329812177316532E9 ; 1.7304552606032078E9 ; 0.0
172 ; 9163429.752914125 ; 1.0119621407036291E7 ; 1.6421537184790602E9 ; 1.7405748820102441E9 ; 0.0
173 ; 9153799.298775122 ; 1.0119621407036291E7 ; 1.6513171482319744E9 ; 1.7506945034172804E9 ; 0.0
174 ; 9146592.569034582 ; 1.0119621407036291E7 ; 1.6604709475307496E9 ; 1.7608141248243167E9 ; 0.0
175 ; 9142400.599931251 ; 1.0119621407036291E7 ; 1.6696175400997841E9 ; 1.770933746231353E9 ; 0.0
176 ; 9137305.311915113 ; 1.0119621407036291E7 ; 1.6787599406997154E9 ; 1.7810533676383893E9 ; 0.0
177 ; 9133757.792615782 ; 1.0119621407036291E7 ; 1.6878972460116305E9 ; 1.7911729890454257E9 ; 0.0
178 ; 9125402.15776608 ; 1.0119621407036291E7 ; 1.6970310038042464E9 ; 1.801292610452462E9 ; 0.0
179 ; 9120773.839481056 ; 1.0119621407036291E7 ; 1.7061564059620125E9 ; 1.8114122318594983E9 ; 0.0
180 ; 9114076.21903551 ; 1.0119621407036291E7 ; 1.7152771798014936E9 ; 1.8215318532665346E9 ; 0.0
181 ; 9110561.218475506 ; 1.0119621407036291E7 ; 1.7243912560205293E9 ; 1.8316514746735709E9 ; 0.0
182 ; 9105070.013876298 ; 1.0119621407036291E7 ; 1.7335018172390049E9 ; 1.8417710960806072E9 ; 0.0
183 ; 9099361.837059956 ; 1.0119621407036291E7 ; 1.742606887252881E9 ; 1.8518907174876435E9 ; 0.0
184 ; 9091970.756130166 ; 1.0119621407036291E7 ; 1.751706249089941E9 ; 1.8620103388946798E9 ; 0.0
185 ; 9089182.804225674 ; 1.0119621407036291E7 ; 1.7607982198460712E9 ; 1.872129960301716E9 ; 0.0
186 ; 9082739.00971422 ; 1.0119621407036291E7 ; 1.769887402650297E9 ; 1.8822495817087524E9 ; 0.0
187 ; 9076074.73046293 ; 1.0119621407036291E7 ; 1.778970141660011E9 ; 1.8923692031157887E9 ; 0.0
188 ; 9072653.14457475 ; 1.0119621407036291E7 ; 1.788046216390474E9 ; 1.902488824522825E9 ; 0.0
189 ; 9066906.792916762 ; 1.0119621407036291E7 ; 1.7971188695350487E9 ; 1.9126084459298613E9 ; 0.0
190 ; 9061481.914867135 ; 1.0119621407036291E7 ; 1.8061857763279655E9 ; 1.9227280673368976E9 ; 0.0
191 ; 9053064.501195699 ; 1.0119621407036291E7 ; 1.8152472582428327E9 ; 1.932847688743934E9 ; 0.0
192 ; 9048977.489217589 ; 1.0119621407036291E7 ; 1.8243003227440283E9 ; 1.9429673101509702E9 ; 0.0
193 ; 9040519.917002967 ; 1.0119621407036291E7 ; 1.8333493002332458E9 ; 1.9530869315580065E9 ; 0.0
194 ; 9036397.39255445 ; 1.0119621407036291E7 ; 1.8423898201502488E9 ; 1.9632065529650428E9 ; 0.0
195 ; 9035878.028280696 ; 1.0119621407036291E7 ; 1.8514262175428033E9 ; 1.9733261743720791E9 ; 0.0
196 ; 9027524.080621947 ; 1.0119621407036291E7 ; 1.860462095571084E9 ; 1.9834457957791154E9 ; 0.0
197 ; 9021425.047194919 ; 1.0119621407036291E7 ; 1.869489619651706E9 ; 1.9935654171861517E9 ; 0.0
198 ; 9015279.248190312 ; 1.0119621407036291E7 ; 1.878511044698901E9 ; 2.003685038593188E9 ; 0.0
199 ; 9008204.597449135 ; 1.0119621407036291E7 ; 1.8875263239470913E9 ; 2.0138046600002244E9 ; 0.0
200 ; 9008970.480691418 ; 1.0119621407036291E7 ; 1.8965345285445404E9 ; 2.0239242814072607E9 ; 0.0
201 ; 9001404.077197084 ; 1.0119621407036291E7 ; 1.9055434990252318E9 ; 2.034043902814297E9 ; 0.0
202 ; 8994485.492925491 ; 1.0119621407036291E7 ; 1.914544903102429E9 ; 2.0441635242213333E9 ; 0.0
