CSV File for the City 3 on Day 213
1 - Minute m 
2 - Power Consumed at minute m 
3 - Power Produced at minute m 
4 - Energy Consumed since the beginning of the day 
5 - Energy Produced since the beginning of the day 
6 - Energy Lost since the beginning of the day on lines starting from the city
 
0 ; 151529.8482511581 ; 1.0532213985062721E8 ; 0.0 ; 0.0 ; 0.0
1 ; 154615.0601159889 ; 1.0547439477044427E8 ; 151529.8482511581 ; 1.0532213985062721E8 ; 0.0
2 ; 156171.7235806343 ; 1.0593548565075216E8 ; 306144.90836714697 ; 2.107965346210715E8 ; 0.0
3 ; 160941.08499411485 ; 1.0670541965695113E8 ; 462316.6319477813 ; 3.1673202027182364E8 ; 0.0
4 ; 164621.55393075527 ; 1.0778420347759086E8 ; 623257.7169418961 ; 4.234374399287748E8 ; 0.0
5 ; 168274.691417526 ; 1.0917184320863324E8 ; 787879.2708726514 ; 5.3122164340636563E8 ; 0.0
6 ; 173728.2944262152 ; 1.1086834424005362E8 ; 956153.9622901774 ; 6.403934866149988E8 ; 0.0
7 ; 182777.94126423253 ; 1.1287371114917779E8 ; 1129882.2567163925 ; 7.512618308550525E8 ; 0.0
8 ; 194019.72104776942 ; 1.151879476053164E8 ; 1312660.197980625 ; 8.641355420042303E8 ; 0.0
9 ; 212460.72753878817 ; 1.1781105629010707E8 ; 1506679.9190283944 ; 9.793234896095467E8 ; 0.0
10 ; 237513.2846851066 ; 1.2074303883747303E8 ; 1719140.6465671826 ; 1.0971345458996537E9 ; 0.0
11 ; 278646.93276798434 ; 1.2398389579627994E8 ; 1956653.931252289 ; 1.2178775847371268E9 ; 0.0
12 ; 347111.7469511203 ; 1.275336266176621E8 ; 2235300.8640202736 ; 1.3418614805334067E9 ; 0.0
13 ; 409778.20785918867 ; 1.313922296676963E8 ; 2582412.610971394 ; 1.469395107151069E9 ; 0.0
14 ; 416599.7761809055 ; 1.35559702264745E8 ; 2992190.818830583 ; 1.6007873368187652E9 ; 0.0
15 ; 420761.93120894674 ; 1.4003604073949742E8 ; 3408790.5950114885 ; 1.7363470390835102E9 ; 0.0
16 ; 423746.832712708 ; 1.448212405146279E8 ; 3829552.5262204353 ; 1.8763830798230076E9 ; 0.0
17 ; 426877.5272803419 ; 1.49915296200161E8 ; 4253299.358933143 ; 2.0212043203376355E9 ; 0.0
18 ; 430056.0470681449 ; 1.5531820170013487E8 ; 4680176.886213485 ; 2.1711196165377965E9 ; 0.0
19 ; 434895.01945343567 ; 1.6102995032599983E8 ; 5110232.93328163 ; 2.3264378182379313E9 ; 0.0
20 ; 437828.8943504943 ; 1.6705053491235557E8 ; 5545127.952735066 ; 2.487467768563931E9 ; 0.0
21 ; 441351.74021560315 ; 1.7337994793105504E8 ; 5982956.847085561 ; 2.6545183034762864E9 ; 0.0
22 ; 445259.06418988854 ; 1.800181816003142E8 ; 6424308.587301164 ; 2.8278982514073415E9 ; 0.0
23 ; 447879.38519385114 ; 1.86965227986184E8 ; 6869567.6514910525 ; 3.0079164330076556E9 ; 0.0
24 ; 452671.5735335453 ; 1.942210790944872E8 ; 7317447.036684903 ; 3.1948816609938397E9 ; 0.0
25 ; 456202.3394649736 ; 2.0047376785022214E8 ; 7770118.610218449 ; 3.389102740088327E9 ; 0.0
26 ; 459644.6273267313 ; 2.0047683420442057E8 ; 8226320.949683422 ; 3.589576507938549E9 ; 0.0
27 ; 462105.49831692124 ; 2.0048003971774772E8 ; 8685965.577010153 ; 3.7900533421429696E9 ; 0.0
28 ; 465812.58542962826 ; 2.0048337685512197E8 ; 9148071.075327074 ; 3.9905333818607173E9 ; 0.0
29 ; 469313.64670517726 ; 2.00486838316678E8 ; 9613883.660756702 ; 4.1910167587158394E9 ; 0.0
30 ; 472699.61981399916 ; 2.0049041706627956E8 ; 1.0083197307461878E7 ; 4.391503597032517E9 ; 0.0
31 ; 476240.24915529334 ; 2.0049410635186216E8 ; 1.0555896927275877E7 ; 4.591994014098797E9 ; 0.0
32 ; 478506.5382618001 ; 2.0049789971868116E8 ; 1.1032137176431172E7 ; 4.792488120450659E9 ; 0.0
33 ; 481792.5197315726 ; 2.0050179101652575E8 ; 1.1510643714692973E7 ; 4.99298602016934E9 ; 0.0
34 ; 484531.3019134187 ; 2.0050577440190455E8 ; 1.1992436234424544E7 ; 5.193487811185865E9 ; 0.0
35 ; 488726.82670378423 ; 2.0050984433612815E8 ; 1.2476967536337962E7 ; 5.3939935855877695E9 ; 0.0
36 ; 491853.4782944322 ; 2.005139955801197E8 ; 1.2965694363041747E7 ; 5.594503429923898E9 ; 0.0
37 ; 494271.80527977215 ; 2.0051822318668365E8 ; 1.345754784133618E7 ; 5.795017425504018E9 ; 0.0
38 ; 497837.2101450919 ; 2.0052252249086246E8 ; 1.3951819646615952E7 ; 5.9955356486907015E9 ; 0.0
39 ; 501025.2238587281 ; 2.0052688909891537E8 ; 1.4449656856761044E7 ; 6.196058171181564E9 ; 0.0
40 ; 501573.83426216 ; 2.0053131887636477E8 ; 1.4950682080619771E7 ; 6.396585060280479E9 ; 0.0
41 ; 504429.85270280484 ; 2.005358079354765E8 ; 1.5452255914881932E7 ; 6.597116379156844E9 ; 0.0
42 ; 507570.029893553 ; 2.005403526224698E8 ; 1.5956685767584737E7 ; 6.79765218709232E9 ; 0.0
43 ; 509202.2861681866 ; 2.0054494950469208E8 ; 1.646425579747829E7 ; 6.99819253971479E9 ; 0.0
44 ; 512561.7122497843 ; 2.005495953579419E8 ; 1.6973458083646476E7 ; 7.198737489219482E9 ; 0.0
45 ; 513810.14864662697 ; 2.0055428715407982E8 ; 1.7486019795896262E7 ; 7.399287084577424E9 ; 0.0
46 ; 516760.02976557397 ; 2.0055902204903072E8 ; 1.799982994454289E7 ; 7.5998413717315035E9 ; 0.0
47 ; 517620.7848849789 ; 2.0056379737125114E8 ; 1.851658997430846E7 ; 7.800400393780534E9 ; 0.0
48 ; 519902.67813402636 ; 2.0056861061071125E8 ; 1.903421075919344E7 ; 8.000964191151785E9 ; 0.0
49 ; 521685.0938312221 ; 2.0057345940842217E8 ; 1.9554113437327467E7 ; 8.201532801762496E9 ; 0.0
50 ; 523956.39970125095 ; 2.0057834154652318E8 ; 2.007579853115869E7 ; 8.402106261170918E9 ; 0.0
51 ; 526202.7577696084 ; 2.0058325493893215E8 ; 2.0599754930859942E7 ; 8.602684602717442E9 ; 0.0
52 ; 526187.520708353 ; 2.0058819762255356E8 ; 2.112595768862955E7 ; 8.803267857656374E9 ; 0.0
53 ; 528124.8552907848 ; 2.005931677490308E8 ; 2.16521452093379E7 ; 9.003856055278927E9 ; 0.0
54 ; 529323.3299278463 ; 2.0059816357702565E8 ; 2.2180270064628687E7 ; 9.204449223027958E9 ; 0.0
55 ; 531314.1281118417 ; 2.0060318346500325E8 ; 2.2709593394556534E7 ; 9.405047386604984E9 ; 0.0
56 ; 533843.6098948205 ; 2.0060822586449945E8 ; 2.3240907522668377E7 ; 9.605650570069988E9 ; 0.0
57 ; 532560.6001848753 ; 2.0061328931384552E8 ; 2.3774751132563196E7 ; 9.806258795934488E9 ; 0.0
58 ; 535435.8049908275 ; 2.006183724323248E8 ; 2.4307311732748073E7 ; 1.0006872085248333E10 ; 0.0
59 ; 535936.3873906154 ; 2.0062347391473588E8 ; 2.48427475377389E7 ; 1.0207490457680658E10 ; 0.0
60 ; 537165.4876210736 ; 2.0062859252633688E8 ; 2.5378683925129518E7 ; 1.0408113931595394E10 ; 0.0
61 ; 538555.7554587292 ; 2.006337270981464E8 ; 2.591584941275059E7 ; 1.060874252412173E10 ; 0.0
62 ; 540071.4996559254 ; 2.006388765225776E8 ; 2.6454405168209318E7 ; 1.0809376251219877E10 ; 0.0
63 ; 542297.2529649038 ; 2.006440397493824E8 ; 2.6994476667865243E7 ; 1.1010015127742455E10 ; 0.0
64 ; 542982.1170639702 ; 2.0064921578188443E8 ; 2.7536773920830145E7 ; 1.1210659167491837E10 ; 0.0
65 ; 544231.3054695582 ; 2.0065440367348054E8 ; 2.8079756037894115E7 ; 1.1411308383273722E10 ; 0.0
66 ; 546606.5578484623 ; 2.006596025243913E8 ; 2.8623987343363672E7 ; 1.1611962786947203E10 ; 0.0
67 ; 546345.5774915292 ; 2.006648114786425E8 ; 2.9170593901212133E7 ; 1.1812622389471594E10 ; 0.0
68 ; 547926.6066156841 ; 2.0067002972126123E8 ; 2.9716939478703663E7 ; 1.2013287200950237E10 ; 0.0
69 ; 548026.5385228276 ; 2.006752564756704E8 ; 3.0264866085319348E7 ; 1.22139572306715E10 ; 0.0
70 ; 550417.5230545957 ; 2.0068049100126693E8 ; 3.0812892623842176E7 ; 1.241463248714717E10 ; 0.0
71 ; 551789.3896650478 ; 2.006857325911705E8 ; 3.1363310146896772E7 ; 1.2615312978148436E10 ; 0.0
72 ; 552959.8412899037 ; 2.006909805701299E8 ; 3.191509953656182E7 ; 1.2815998710739607E10 ; 0.0
73 ; 554982.9910892544 ; 2.0069623429257536E8 ; 3.2468059377851725E7 ; 1.3016689691309736E10 ; 0.0
74 ; 553920.9725137188 ; 2.0070149314080566E8 ; 3.302304236894098E7 ; 1.3217385925602312E10 ; 0.0
75 ; 555442.8639626455 ; 2.0070675652330092E8 ; 3.35769633414547E7 ; 1.3418087418743118E10 ; 0.0
76 ; 556177.7413277549 ; 2.0071202387315056E8 ; 3.413240620541734E7 ; 1.3618794175266418E10 ; 0.0
77 ; 557369.9347284541 ; 2.0071729464658892E8 ; 3.46885839467451E7 ; 1.3819506199139568E10 ; 0.0
78 ; 558817.971243115 ; 2.0072256832163003E8 ; 3.524595388147355E7 ; 1.4020223493786158E10 ; 0.0
79 ; 556783.9888119473 ; 2.0072784439679435E8 ; 3.580477185271666E7 ; 1.4220946062107788E10 ; 0.0
80 ; 559385.2157821066 ; 2.007331223899208E8 ; 3.636155584152861E7 ; 1.4421673906504583E10 ; 0.0
81 ; 558373.6276669364 ; 2.007384018370579E8 ; 3.6920941057310715E7 ; 1.4622407028894505E10 ; 0.0
82 ; 559579.3452679422 ; 2.00743682291428E8 ; 3.747931468497765E7 ; 1.4823145430731562E10 ; 0.0
83 ; 559372.7255705162 ; 2.0074896332245964E8 ; 3.8038894030245595E7 ; 1.502388911302299E10 ; 0.0
84 ; 558954.8170239376 ; 2.007542445148829E8 ; 3.859826675581611E7 ; 1.522463807634545E10 ; 0.0
85 ; 560535.3749630193 ; 2.0075952546788326E8 ; 3.915722157284005E7 ; 1.5425392320860332E10 ; 0.0
86 ; 558451.2536447776 ; 2.0076480579430994E8 ; 3.971775694780307E7 ; 1.5626151846328217E10 ; 0.0
87 ; 560403.2244639199 ; 2.0077008511993456E8 ; 4.027620820144785E7 ; 1.5826916652122526E10 ; 0.0
88 ; 560497.5691994618 ; 2.007753630827569E8 ; 4.083661142591177E7 ; 1.602768673724246E10 ; 0.0
89 ; 559526.2687132068 ; 2.0078063933235428E8 ; 4.1397108995111234E7 ; 1.6228462100325216E10 ; 0.0
90 ; 559290.5078823618 ; 2.0078591352927145E8 ; 4.195663526382444E7 ; 1.642924273965757E10 ; 0.0
91 ; 559155.8532558447 ; 2.0079118534444845E8 ; 4.2515925771706805E7 ; 1.6630028653186842E10 ; 0.0
92 ; 559540.0961951679 ; 2.0079645445868337E8 ; 4.307508162496265E7 ; 1.683081983853129E10 ; 0.0
93 ; 560697.5542817311 ; 2.0080172056212822E8 ; 4.363462172115782E7 ; 1.7031616292989973E10 ; 0.0
94 ; 561041.8424589491 ; 2.0080698335381514E8 ; 4.419531927543955E7 ; 1.72324180135521E10 ; 0.0
95 ; 558907.283065965 ; 2.0081224254121113E8 ; 4.47563611178985E7 ; 1.743322499690592E10 ; 0.0
96 ; 559070.5354573915 ; 2.0081749783979937E8 ; 4.531526840096447E7 ; 1.763403723944713E10 ; 0.0
97 ; 559731.0088750414 ; 2.0082274897268537E8 ; 4.5874338936421864E7 ; 1.7834854737286926E10 ; 0.0
98 ; 558654.8868716318 ; 2.0082799567022625E8 ; 4.6434069945296906E7 ; 1.8035677486259613E10 ; 0.0
99 ; 558542.9875465635 ; 2.0083323766968164E8 ; 4.6992724832168534E7 ; 1.823650548192984E10 ; 0.0
100 ; 558946.9856333769 ; 2.0083847471488485E8 ; 4.75512678197151E7 ; 1.843733871959952E10 ; 0.0
101 ; 559574.2633835226 ; 2.008437065559329E8 ; 4.811021480534847E7 ; 1.8638177194314407E10 ; 0.0
102 ; 559023.900686329 ; 2.0084893294889426E8 ; 4.866978906873199E7 ; 1.883902090087034E10 ; 0.0
103 ; 559733.6986385032 ; 2.0085415365553325E8 ; 4.9228812969418325E7 ; 1.9039869833819233E10 ; 0.0
104 ; 557464.635990835 ; 2.0085936844304967E8 ; 4.978854666805683E7 ; 1.9240723987474766E10 ; 0.0
105 ; 557698.5907583553 ; 2.008645770838333E8 ; 5.034601130404767E7 ; 1.9441583355917816E10 ; 0.0
106 ; 556713.4641362837 ; 2.008697793552319E8 ; 5.090370989480602E7 ; 1.9642447933001648E10 ; 0.0
107 ; 557922.0255112541 ; 2.0087497503933176E8 ; 5.14604233589423E7 ; 1.984331771235688E10 ; 0.0
108 ; 557746.3287324967 ; 2.0088016392275053E8 ; 5.201834538445356E7 ; 2.0044192687396214E10 ; 0.0
109 ; 557049.8483496632 ; 2.008853457964412E8 ; 5.2576091713186055E7 ; 2.0245072851318966E10 ; 0.0
110 ; 556551.4562917006 ; 2.0089052045550662E8 ; 5.3133141561535716E7 ; 2.0445958197115406E10 ; 0.0
111 ; 555863.0750208606 ; 2.0089568769902387E8 ; 5.3689693017827414E7 ; 2.064684871757091E10 ; 0.0
112 ; 555637.3873397682 ; 2.0090084732987812E8 ; 5.424555609284827E7 ; 2.0847744405269936E10 ; 0.0
113 ; 555462.4699515327 ; 2.009059991546051E8 ; 5.480119348018804E7 ; 2.1048645252599815E10 ; 0.0
114 ; 555492.5650242649 ; 2.0091114298324198E8 ; 5.5356655950139575E7 ; 2.124955125175442E10 ; 0.0
115 ; 556366.6094395188 ; 2.009162786291858E8 ; 5.591214851516384E7 ; 2.1450462394737663E10 ; 0.0
116 ; 554007.5819974637 ; 2.009214059090595E8 ; 5.646851512460336E7 ; 2.1651378673366848E10 ; 0.0
117 ; 553679.4356494606 ; 2.009265246425845E8 ; 5.702252270660082E7 ; 2.1852300079275906E10 ; 0.0
118 ; 553950.8588246116 ; 2.0093163465246004E8 ; 5.7576202142250285E7 ; 2.205322660391849E10 ; 0.0
119 ; 553423.0602465059 ; 2.0093673576424852E8 ; 5.8130153001074895E7 ; 2.225415823857095E10 ; 0.0
120 ; 553143.8772026659 ; 2.0094182780626664E8 ; 5.86835760613214E7 ; 2.2455094974335197E10 ; 0.0
121 ; 552519.2939238375 ; 2.0094691060948187E8 ; 5.923671993852407E7 ; 2.2656036802141464E10 ; 0.0
122 ; 552040.8325463027 ; 2.0095198400741437E8 ; 5.978923923244791E7 ; 2.2856983712750946E10 ; 0.0
123 ; 552233.3934286245 ; 2.009570478360433E8 ; 6.034128006499421E7 ; 2.305793569675836E10 ; 0.0
124 ; 550538.5444820517 ; 2.0096210193371817E8 ; 6.089351345842283E7 ; 2.3258892744594406E10 ; 0.0
125 ; 549673.2394902977 ; 2.0096714614107418E8 ; 6.1444052002904885E7 ; 2.3459854846528126E10 ; 0.0
126 ; 549426.7455433914 ; 2.009721803009519E8 ; 6.1993725242395185E7 ; 2.36608219926692E10 ; 0.0
127 ; 549921.2347664511 ; 2.0097720425832057E8 ; 6.2543151987938575E7 ; 2.3861794172970154E10 ; 0.0
128 ; 549013.3937193995 ; 2.0098221786020538E8 ; 6.309307322270503E7 ; 2.4062771377228474E10 ; 0.0
129 ; 548969.4714034498 ; 2.0098722095561796E8 ; 6.364208661642443E7 ; 2.426375359508868E10 ; 0.0
130 ; 547531.6497754462 ; 2.0099221339549023E8 ; 6.4191056087827876E7 ; 2.44647408160443E10 ; 0.0
131 ; 545562.6135449472 ; 2.009971950326114E8 ; 6.473858773760332E7 ; 2.466573302943979E10 ; 0.0
132 ; 544549.1169944875 ; 2.0100216572156787E8 ; 6.528415035114827E7 ; 2.48667302244724E10 ; 0.0
133 ; 543876.3174207688 ; 2.0100712531868604E8 ; 6.5828699468142755E7 ; 2.506773239019397E10 ; 0.0
134 ; 540682.5071206316 ; 2.0101207368197745E8 ; 6.637257578556352E7 ; 2.5268739515512657E10 ; 0.0
135 ; 540784.3885823475 ; 2.0101701067108697E8 ; 6.691325829268415E7 ; 2.5469751589194633E10 ; 0.0
136 ; 538468.9660982284 ; 2.0102193614724272E8 ; 6.74540426812665E7 ; 2.567076859986572E10 ; 0.0
137 ; 537222.183740481 ; 2.0102684997320893E8 ; 6.799251164736474E7 ; 2.5871790536012962E10 ; 0.0
138 ; 536026.7608946406 ; 2.0103175201324037E8 ; 6.852973383110522E7 ; 2.607281738598617E10 ; 0.0
139 ; 534274.209596556 ; 2.0103664213303912E8 ; 6.906576059199986E7 ; 2.6273849137999413E10 ; 0.0
140 ; 532830.0255264579 ; 2.010415201997133E8 ; 6.960003480159642E7 ; 2.647488578013245E10 ; 0.0
141 ; 530441.0242573688 ; 2.010463860817375E8 ; 7.013286482712288E7 ; 2.6675927300332165E10 ; 0.0
142 ; 529735.9306476911 ; 2.0105123964891505E8 ; 7.066330585138024E7 ; 2.6876973686413902E10 ; 0.0
143 ; 527958.9165428214 ; 2.0105608077234194E8 ; 7.119304178202793E7 ; 2.7078024926062817E10 ; 0.0
144 ; 526570.6973170752 ; 2.010609093243723E8 ; 7.172100069857076E7 ; 2.727908100683516E10 ; 0.0
145 ; 524863.7327468201 ; 2.0106572517858544E8 ; 7.224757139588784E7 ; 2.748014191615953E10 ; 0.0
146 ; 524211.4003938408 ; 2.010705282097543E8 ; 7.277243512863466E7 ; 2.7681207641338116E10 ; 0.0
147 ; 524072.2858755631 ; 2.0107531829381526E8 ; 7.32966465290285E7 ; 2.788227816954787E10 ; 0.0
148 ; 524617.2405651115 ; 2.010800953078392E8 ; 7.382071881490406E7 ; 2.8083353487841686E10 ; 0.0
149 ; 522274.0889954764 ; 2.0108485913000405E8 ; 7.434533605546917E7 ; 2.8284433583149525E10 ; 0.0
150 ; 522027.00667766255 ; 2.0108960963956803E8 ; 7.486761014446464E7 ; 2.848551844227953E10 ; 0.0
151 ; 521755.0990608143 ; 2.0109434671684462E8 ; 7.53896371511423E7 ; 2.8686608051919098E10 ; 0.0
152 ; 521539.48094358074 ; 2.0109907024317816E8 ; 7.591139225020312E7 ; 2.8887702398635944E10 ; 0.0
153 ; 520537.79618378676 ; 2.0110378010092062E8 ; 7.64329317311467E7 ; 2.9088801468879124E10 ; 0.0
154 ; 519323.558181995 ; 2.0110847617340937E8 ; 7.695346952733047E7 ; 2.9289905248980045E10 ; 0.0
155 ; 518573.3392795788 ; 2.01113158344946E8 ; 7.747279308551247E7 ; 2.9491013725153454E10 ; 0.0
156 ; 518739.821953314 ; 2.0111782650077567E8 ; 7.799136642479205E7 ; 2.96921268834984E10 ; 0.0
157 ; 520034.1896233203 ; 2.0112248052706766E8 ; 7.851010624674536E7 ; 2.9893244709999176E10 ; 0.0
158 ; 517819.34175686684 ; 2.011271203108967E8 ; 7.903014043636869E7 ; 3.0094367190526245E10 ; 0.0
159 ; 516316.7431415472 ; 2.0113174574022487E8 ; 7.954795977812555E7 ; 3.0295494310837143E10 ; 0.0
160 ; 516962.5435525094 ; 2.0113635670388436E8 ; 8.00642765212671E7 ; 3.049662605657737E10 ; 0.0
161 ; 516395.1079500205 ; 2.011409530915611E8 ; 8.05812390648196E7 ; 3.0697762413281254E10 ; 0.0
162 ; 515416.44783883076 ; 2.0114553479377872E8 ; 8.109763417276962E7 ; 3.0898903366372814E10 ; 0.0
163 ; 514006.5275460373 ; 2.0115010170188352E8 ; 8.161305062060845E7 ; 3.110004890116659E10 ; 0.0
164 ; 513695.9905635612 ; 2.011546537080298E8 ; 8.212705714815448E7 ; 3.1301199002868477E10 ; 0.0
165 ; 512546.9871914605 ; 2.0115919070516595E8 ; 8.264075313871804E7 ; 3.1502353656576508E10 ; 0.0
166 ; 512274.2812582288 ; 2.0116371258702096E8 ; 8.315330012590949E7 ; 3.1703512847281673E10 ; 0.0
167 ; 512041.6114658529 ; 2.011682192480916E8 ; 8.366557440716772E7 ; 3.1904676559868694E10 ; 0.0
168 ; 509844.2303903474 ; 2.0117271058363014E8 ; 8.417761601863357E7 ; 3.2105844779116787E10 ; 0.0
169 ; 510280.81741655536 ; 2.0117718648963243E8 ; 8.468746024902391E7 ; 3.2307017489700417E10 ; 0.0
170 ; 510799.2397479129 ; 2.0118164686282653E8 ; 8.519774106644046E7 ; 3.250819467619005E10 ; 0.0
171 ; 508108.2734724158 ; 2.0118609160066187E8 ; 8.570854030618837E7 ; 3.2709376323052876E10 ; 0.0
172 ; 508191.05014952034 ; 2.011905206012987E8 ; 8.621664857966079E7 ; 3.2910562414653538E10 ; 0.0
173 ; 507817.5135658262 ; 2.011949337635981E8 ; 8.67248396298103E7 ; 3.3111752935254837E10 ; 0.0
174 ; 507392.59621333645 ; 2.0119933098711243E8 ; 8.723265714337613E7 ; 3.3312947869018436E10 ; 0.0
175 ; 506650.52091086755 ; 2.0120371217207584E8 ; 8.774004973958947E7 ; 3.351414720000555E10 ; 0.0
176 ; 506190.5212438523 ; 2.012080772193956E8 ; 8.824670026050034E7 ; 3.3715350912177628E10 ; 0.0
177 ; 505991.96979609557 ; 2.0121242603064346E8 ; 8.87528907817442E7 ; 3.3916558989397022E10 ; 0.0
178 ; 505743.40510510805 ; 2.0121675850804758E8 ; 8.925888275154029E7 ; 3.4117771415427666E10 ; 0.0
179 ; 506810.63213721267 ; 2.012210745544845E8 ; 8.97646261566454E7 ; 3.4318988173935715E10 ; 0.0
180 ; 504697.5953486349 ; 2.0122537407347178E8 ; 9.027143678878261E7 ; 3.45202092484902E10 ; 0.0
181 ; 503353.1368768933 ; 2.0122965696916062E8 ; 9.077613438413125E7 ; 3.472143462256367E10 ; 0.0
182 ; 504157.1167189057 ; 2.0123392314632902E8 ; 9.127948752100815E7 ; 3.492266427953283E10 ; 0.0
183 ; 502181.8241289663 ; 2.01238172510375E8 ; 9.178364463772705E7 ; 3.512389820267916E10 ; 0.0
184 ; 502777.7686844024 ; 2.012424049673103E8 ; 9.228582646185602E7 ; 3.532513637518954E10 ; 0.0
185 ; 502990.55563984945 ; 2.0124662042375425E8 ; 9.278860423054042E7 ; 3.5526378780156845E10 ; 0.0
186 ; 501751.72670377954 ; 2.0125081878692767E8 ; 9.329159478618027E7 ; 3.57276254005806E10 ; 0.0
187 ; 502498.3264985252 ; 2.0125499996464744E8 ; 9.379334651288405E7 ; 3.592887621936752E10 ; 0.0
188 ; 500957.86565445 ; 2.01259163865321E8 ; 9.429584483938257E7 ; 3.613013121933217E10 ; 0.0
189 ; 500174.30266153783 ; 2.012633103979411E8 ; 9.479680270503703E7 ; 3.633139038319749E10 ; 0.0
190 ; 499224.0808257254 ; 2.012674394720808E8 ; 9.529697700769857E7 ; 3.653265369359543E10 ; 0.0
191 ; 501819.73307540896 ; 2.0127155099788868E8 ; 9.57962010885243E7 ; 3.673392113306751E10 ; 0.0
192 ; 500584.8915382056 ; 2.012756448860843E8 ; 9.62980208215997E7 ; 3.69351926840654E10 ; 0.0
193 ; 499765.0816645192 ; 2.0127972104795364E8 ; 9.679860571313791E7 ; 3.7136468328951485E10 ; 0.0
194 ; 498499.3712931247 ; 2.0128377939534503E8 ; 9.729837079480243E7 ; 3.7337748049999435E10 ; 0.0
195 ; 498771.1792838857 ; 2.0128781984066495E8 ; 9.779687016609555E7 ; 3.753903182939478E10 ; 0.0
196 ; 496985.25595137506 ; 2.0129184229687428E8 ; 9.829564134537944E7 ; 3.774031964923545E10 ; 0.0
197 ; 497310.3610516514 ; 2.012958466774844E8 ; 9.879262660133082E7 ; 3.7941611491532326E10 ; 0.0
198 ; 497629.95748959406 ; 2.012998328965537E8 ; 9.928993696238247E7 ; 3.814290733820981E10 ; 0.0
199 ; 497279.826014228 ; 2.0130380086868417E8 ; 9.978756691987206E7 ; 3.834420717110636E10 ; 0.0
200 ; 496144.5322489263 ; 2.0130775050901812E8 ; 1.0028484674588628E8 ; 3.8545510971975044E10 ; 0.0
201 ; 496718.5513921832 ; 2.013116817332349E8 ; 1.0078099127813521E8 ; 3.874681872248406E10 ; 0.0
