CSV File for the City 3 on Day 357
1 - Minute m 
2 - Power Consumed at minute m 
3 - Power Produced at minute m 
4 - Energy Consumed since the beginning of the day 
5 - Energy Produced since the beginning of the day 
6 - Energy Lost since the beginning of the day on lines starting from the city
 
0 ; 2381739.684590761 ; 1.054823355599536E8 ; 0.0 ; 0.0 ; 0.0
1 ; 2382955.7973581944 ; 1.0563524073885298E8 ; 2381739.684590761 ; 1.054823355599536E8 ; 0.0
2 ; 2384991.153081206 ; 1.0609693129623756E8 ; 4764695.481948955 ; 2.1111757629880658E8 ; 0.0
3 ; 2388761.74988736 ; 1.0686740905539596E8 ; 7149686.635030162 ; 3.1721450759504414E8 ; 0.0
4 ; 2391649.8745661722 ; 1.079466756556955E8 ; 9538448.384917522 ; 4.240819166504401E8 ; 0.0
5 ; 2395928.518419982 ; 1.0933473254170156E8 ; 1.1930098259483695E7 ; 5.320285923061356E8 ; 0.0
6 ; 2400576.8563120244 ; 1.110315809533672E8 ; 1.4326026777903676E7 ; 6.413633248478372E8 ; 0.0
7 ; 2410539.579747607 ; 1.1303722191744417E8 ; 1.6726603634215701E7 ; 7.523949058012044E8 ; 0.0
8 ; 2421482.389242657 ; 1.153516562402538E8 ; 1.9137143213963307E7 ; 8.654321277186487E8 ; 0.0
9 ; 2437642.1114312382 ; 1.1797488450193417E8 ; 2.1558625603205964E7 ; 9.807837839589025E8 ; 0.0
10 ; 2464231.186000861 ; 1.2090690705226022E8 ; 2.39962677146372E7 ; 1.0987586684608366E9 ; 0.0
11 ; 2504642.708430311 ; 1.2414772400810704E8 ; 2.6460498900638063E7 ; 1.2196655755130968E9 ; 0.0
12 ; 2573026.0263671037 ; 1.2769733525259951E8 ; 2.8965141609068375E7 ; 1.3438132995212038E9 ; 0.0
13 ; 2634696.0858769077 ; 1.3155574043596268E8 ; 3.1538167635435477E7 ; 1.4715106347738032E9 ; 0.0
14 ; 2643791.480575167 ; 1.3572293897805858E8 ; 3.417286372131238E7 ; 1.603066375209766E9 ; 0.0
15 ; 2646314.202896278 ; 1.4019893007256573E8 ; 3.681665520188755E7 ; 1.7387893141878245E9 ; 0.0
16 ; 2649644.7832240034 ; 1.4498371269273254E8 ; 3.946296940478382E7 ; 1.8789882442603903E9 ; 0.0
17 ; 2650700.027817086 ; 1.5007728559860584E8 ; 4.2112614188007824E7 ; 2.0239719569531229E9 ; 0.0
18 ; 2654176.11060326 ; 1.5547964734562027E8 ; 4.476331421582491E7 ; 2.1740492425517287E9 ; 0.0
19 ; 2656936.571317002 ; 1.6119079629440853E8 ; 4.741749032642817E7 ; 2.329528889897349E9 ; 0.0
20 ; 2659815.113616005 ; 1.6721073062168196E8 ; 5.007442689774517E7 ; 2.490719686191757E9 ; 0.0
21 ; 2663244.942988649 ; 1.735394483320181E8 ; 5.2734242011361174E7 ; 2.6579304168134394E9 ; 0.0
22 ; 2665473.5001152386 ; 1.801769472703852E8 ; 5.539748695434982E7 ; 2.8314698651454573E9 ; 0.0
23 ; 2668715.5360848056 ; 1.8712322513523132E8 ; 5.806296045446506E7 ; 3.0116468124158425E9 ; 0.0
24 ; 2673231.1097208895 ; 1.9437827949196607E8 ; 6.073167599054987E7 ; 3.198770037551074E9 ; 0.0
25 ; 2675654.725659104 ; 2.0063014868485385E8 ; 6.340490710027076E7 ; 3.3931483170430403E9 ; 0.0
26 ; 2679481.9737081956 ; 2.0063237788768587E8 ; 6.6080561825929865E7 ; 3.5937784657278943E9 ; 0.0
27 ; 2682892.385544218 ; 2.006347336423813E8 ; 6.876004379963806E7 ; 3.79441084361558E9 ; 0.0
28 ; 2685247.039227595 ; 2.006372131192422E8 ; 7.144293618518227E7 ; 3.9950455772579613E9 ; 0.0
29 ; 2688841.2910481486 ; 2.0063981342334569E8 ; 7.412818322440986E7 ; 4.1956827903772035E9 ; 0.0
30 ; 2691343.4344886173 ; 2.006425316072503E8 ; 7.681702451545802E7 ; 4.3963226038005495E9 ; 0.0
31 ; 2693219.7804359486 ; 2.006453646831715E8 ; 7.950836794994664E7 ; 4.5969651354078E9 ; 0.0
32 ; 2697446.0681624785 ; 2.0064830963455313E8 ; 8.220158773038259E7 ; 4.797610500090971E9 ; 0.0
33 ; 2698645.3866638294 ; 2.006513634269765E8 ; 8.489903379854506E7 ; 4.998258809725524E9 ; 0.0
34 ; 2702477.3334232387 ; 2.0065452301836395E8 ; 8.759767918520889E7 ; 5.1989101731525E9 ; 0.0
35 ; 2704860.2317049652 ; 2.006577853684477E8 ; 9.030015651863213E7 ; 5.399564696170864E9 ; 0.0
36 ; 2705650.176776152 ; 2.006611474474871E8 ; 9.30050167503371E7 ; 5.600222481539311E9 ; 0.0
37 ; 2708987.3574966653 ; 2.0066460624422964E8 ; 9.571066692711325E7 ; 5.800883628986798E9 ; 0.0
38 ; 2712152.8244603006 ; 2.0066815877312052E8 ; 9.841965428460991E7 ; 6.001548235231028E9 ; 0.0
39 ; 2713341.7372186044 ; 2.0067180208077434E8 ; 1.0113180710907021E8 ; 6.2022163940041485E9 ; 0.0
40 ; 2716012.1683398425 ; 2.0067553325173038E8 ; 1.0384514884628882E8 ; 6.402888196084923E9 ; 0.0
41 ; 2717819.2166828676 ; 2.0067934941351822E8 ; 1.0656116101462866E8 ; 6.603563729336653E9 ; 0.0
42 ; 2720369.924985756 ; 2.006832477410655E8 ; 1.0927898023131153E8 ; 6.804243078750171E9 ; 0.0
43 ; 2720840.158528195 ; 2.0068722546048322E8 ; 1.1199935015629728E8 ; 7.004926326491236E9 ; 0.0
44 ; 2723412.010344095 ; 2.0069127985226664E8 ; 1.1472019031482548E8 ; 7.205613551951719E9 ; 0.0
45 ; 2723839.026995381 ; 2.0069540825395074E8 ; 1.1744360232516956E8 ; 7.406304831803986E9 ; 0.0
46 ; 2728133.5343425763 ; 2.0069960806226146E8 ; 1.2016744135216494E8 ; 7.607000240057937E9 ; 0.0
47 ; 2727123.8368019983 ; 2.00703876734802E8 ; 1.2289557488650751E8 ; 7.807699848120198E9 ; 0.0
48 ; 2728969.9180335924 ; 2.0070821179131517E8 ; 1.2562269872330952E8 ; 8.0084037248550005E9 ; 0.0
49 ; 2728886.4025412127 ; 2.007126108145598E8 ; 1.2835166864134312E8 ; 8.209111936646316E9 ; 0.0
50 ; 2731044.971013137 ; 2.007170714508396E8 ; 1.3108055504388434E8 ; 8.4098245474608755E9 ; 0.0
51 ; 2730942.444523757 ; 2.007215914102201E8 ; 1.3381160001489748E8 ; 8.610541618911715E9 ; 0.0
52 ; 2732420.5858029732 ; 2.007261684664674E8 ; 1.3654254245942125E8 ; 8.811263210321934E9 ; 0.0
53 ; 2733099.6484960504 ; 2.0073080045674226E8 ; 1.3927496304522422E8 ; 9.0119893787884E9 ; 0.0
54 ; 2734353.366901 ; 2.0073548528107753E8 ; 1.4200806269372028E8 ; 9.212720179245142E9 ; 0.0
55 ; 2734040.1196791814 ; 2.0074022090166876E8 ; 1.447424160606213E8 ; 9.41345566452622E9 ; 0.0
56 ; 2734757.1244698404 ; 2.0074500534200272E8 ; 1.4747645618030047E8 ; 9.614195885427889E9 ; 0.0
57 ; 2736666.618261435 ; 2.007498366858477E8 ; 1.5021121330477032E8 ; 9.814940890769892E9 ; 0.0
58 ; 2735835.815434074 ; 2.007547130761275E8 ; 1.5294787992303175E8 ; 1.001569072745574E10 ; 0.0
59 ; 2737781.815217766 ; 2.007596327136982E8 ; 1.5568371573846582E8 ; 1.0216445440531868E10 ; 0.0
60 ; 2737825.775775453 ; 2.0076459385604644E8 ; 1.5842149755368358E8 ; 1.0417205073245565E10 ; 0.0
61 ; 2737391.7757970924 ; 2.0076959481592393E8 ; 1.6115932332945904E8 ; 1.0617969667101612E10 ; 0.0
62 ; 2738606.5044893413 ; 2.0077463395993382E8 ; 1.6389671510525614E8 ; 1.0818739261917536E10 ; 0.0
63 ; 2737858.1679817503 ; 2.0077970970708075E8 ; 1.6663532160974547E8 ; 1.101951389587747E10 ; 0.0
64 ; 2740427.8623598698 ; 2.007848205272963E8 ; 1.6937317977772722E8 ; 1.122029360558455E10 ; 0.0
65 ; 2738426.4463634393 ; 2.0078996493994972E8 ; 1.721136076400871E8 ; 1.1421078426111847E10 ; 0.0
66 ; 2739951.6104036444 ; 2.0079514151235276E8 ; 1.7485203408645055E8 ; 1.1621868391051796E10 ; 0.0
67 ; 2741653.1597084682 ; 2.0080034885826617E8 ; 1.775919856968542E8 ; 1.1822663532564148E10 ; 0.0
68 ; 2740871.6301638773 ; 2.008055856364144E8 ; 1.8033363885656267E8 ; 1.2023463881422415E10 ; 0.0
69 ; 2740878.3239556975 ; 2.0081085054901436E8 ; 1.8307451048672655E8 ; 1.2224269467058828E10 ; 0.0
70 ; 2741900.470038931 ; 2.0081614234032282E8 ; 1.8581538881068224E8 ; 1.2425080317607843E10 ; 0.0
71 ; 2742798.8780074627 ; 2.0082145979520693E8 ; 1.8855728928072116E8 ; 1.2625896459948166E10 ; 0.0
72 ; 2744459.68840589 ; 2.0082680173774076E8 ; 1.9130008815872863E8 ; 1.2826717919743372E10 ; 0.0
73 ; 2742733.8438007063 ; 2.008321670298312E8 ; 1.9404454784713453E8 ; 1.3027544721481113E10 ; 0.0
74 ; 2744000.0310672577 ; 2.008375545698751E8 ; 1.9678728169093522E8 ; 1.3228376888510944E10 ; 0.0
75 ; 2744309.527976516 ; 2.0084296329144967E8 ; 1.9953128172200248E8 ; 1.342921444308082E10 ; 0.0
76 ; 2744743.1137808054 ; 2.0084839216203746E8 ; 2.02275591249979E8 ; 1.363005740637227E10 ; 0.0
77 ; 2743942.3536559595 ; 2.0085384018178698E8 ; 2.050203343637598E8 ; 1.3830905798534307E10 ; 0.0
78 ; 2742692.8857155493 ; 2.0085930638230962E8 ; 2.0776427671741575E8 ; 1.4031759638716095E10 ; 0.0
79 ; 2742808.476038318 ; 2.0086478982551324E8 ; 2.105069696031313E8 ; 1.4232618945098404E10 ; 0.0
80 ; 2742645.7386251786 ; 2.0087028960247287E8 ; 2.132497780791696E8 ; 1.4433483734923918E10 ; 0.0
81 ; 2740131.8219176466 ; 2.0087580483233812E8 ; 2.1599242381779477E8 ; 1.463435402452639E10 ; 0.0
82 ; 2741487.292943696 ; 2.0088133466127732E8 ; 2.1873255563971242E8 ; 1.4835229829358728E10 ; 0.0
83 ; 2740120.566805973 ; 2.0088687826145798E8 ; 2.214740429326561E8 ; 1.5036111164020006E10 ; 0.0
84 ; 2740599.3351076143 ; 2.0089243483006322E8 ; 2.2421416349946207E8 ; 1.5236998042281464E10 ; 0.0
85 ; 2737988.12244341 ; 2.0089800358834323E8 ; 2.269547628345697E8 ; 1.5437890477111526E10 ; 0.0
86 ; 2738045.381246292 ; 2.009035837807015E8 ; 2.296927509570131E8 ; 1.563878848069987E10 ; 0.0
87 ; 2737465.599352867 ; 2.009091746738146E8 ; 2.324307963382594E8 ; 1.583969206448057E10 ; 0.0
88 ; 2736515.289190745 ; 2.0091477555578527E8 ; 2.3516826193761227E8 ; 1.6040601239154385E10 ; 0.0
89 ; 2735183.426683233 ; 2.0092038573532742E8 ; 2.37904777226803E8 ; 1.624151601471017E10 ; 0.0
90 ; 2734389.1984928907 ; 2.0092600454098246E8 ; 2.4063996065348625E8 ; 1.6442436400445498E10 ; 0.0
91 ; 2733437.6841625855 ; 2.0093163132036582E8 ; 2.4337434985197914E8 ; 1.664336240498648E10 ; 0.0
92 ; 2731546.926492073 ; 2.009372654394432E8 ; 2.4610778753614172E8 ; 1.6844294036306847E10 ; 0.0
93 ; 2731963.911104932 ; 2.00942906281835E8 ; 2.488393344626338E8 ; 1.704523130174629E10 ; 0.0
94 ; 2729904.438334261 ; 2.009485532481482E8 ; 2.515712983737387E8 ; 1.7246174208028126E10 ; 0.0
95 ; 2727763.222976854 ; 2.0095420575533515E8 ; 2.5430120281207296E8 ; 1.7447122761276276E10 ; 0.0
96 ; 2727364.906574503 ; 2.0095986323607785E8 ; 2.5702896603504983E8 ; 1.7648076967031612E10 ; 0.0
97 ; 2725882.8538292176 ; 2.0096552513819668E8 ; 2.5975633094162434E8 ; 1.784903683026769E10 ; 0.0
98 ; 2725271.5200775117 ; 2.009711909240835E8 ; 2.6248221379545355E8 ; 1.8050002355405884E10 ; 0.0
99 ; 2723308.462900212 ; 2.0097686007015726E8 ; 2.6520748531553108E8 ; 1.8250973546329967E10 ; 0.0
100 ; 2724077.048234897 ; 2.0098253206634176E8 ; 2.679307937784313E8 ; 1.8451950406400124E10 ; 0.0
101 ; 2723220.2457738747 ; 2.0098820641556484E8 ; 2.706548708266662E8 ; 1.8652932938466465E10 ; 0.0
102 ; 2721259.239733241 ; 2.009938826332776E8 ; 2.7337809107244E8 ; 1.885392114488203E10 ; 0.0
103 ; 2718609.9727057894 ; 2.0099956024699354E8 ; 2.7609935031217325E8 ; 1.905491502751531E10 ; 0.0
104 ; 2717240.576477474 ; 2.0100523879584634E8 ; 2.78817960284879E8 ; 1.9255914587762302E10 ; 0.0
105 ; 2716421.283741147 ; 2.0101091783016568E8 ; 2.815352008613565E8 ; 1.9456919826558147E10 ; 0.0
106 ; 2715397.4299480724 ; 2.0101659691107038E8 ; 2.842516221450977E8 ; 1.9657930744388313E10 ; 0.0
107 ; 2714073.9728394034 ; 2.0102227561007828E8 ; 2.8696701957504576E8 ; 1.9858947341299385E10 ; 0.0
108 ; 2712404.101695616 ; 2.0102795350873184E8 ; 2.896810935478852E8 ; 2.0059969616909462E10 ; 0.0
109 ; 2709870.5390031044 ; 2.0103363019823915E8 ; 2.923934976495808E8 ; 2.0260997570418194E10 ; 0.0
110 ; 2711444.9832443874 ; 2.0103930527912956E8 ; 2.951033681885839E8 ; 2.0462031200616432E10 ; 0.0
111 ; 2710093.222794549 ; 2.0104497836092323E8 ; 2.9781481317182827E8 ; 2.066307050589556E10 ; 0.0
112 ; 2706192.647771519 ; 2.0105064906181434E8 ; 3.005249063946228E8 ; 2.0864115484256485E10 ; 0.0
113 ; 2706353.2102885917 ; 2.0105631700836685E8 ; 3.0323109904239434E8 ; 2.10651661333183E10 ; 0.0
114 ; 2703386.188627286 ; 2.010619818352229E8 ; 3.059374522526829E8 ; 2.1266222450326664E10 ; 0.0
115 ; 2703306.128243984 ; 2.0106764318482286E8 ; 3.086408384413102E8 ; 2.146728443216189E10 ; 0.0
116 ; 2701350.737588936 ; 2.010733007071366E8 ; 3.113441445695542E8 ; 2.166835207534671E10 ; 0.0
117 ; 2700217.6744158296 ; 2.0107895405940595E8 ; 3.1404549530714315E8 ; 2.186942537605385E10 ; 0.0
118 ; 2697932.6219376246 ; 2.0108460290589705E8 ; 3.16745712981559E8 ; 2.2070504330113255E10 ; 0.0
119 ; 2695240.876145581 ; 2.0109024691766304E8 ; 3.194436456034966E8 ; 2.227158893301915E10 ; 0.0
120 ; 2694117.927066326 ; 2.0109588577231598E8 ; 3.221388864796422E8 ; 2.2472679179936813E10 ; 0.0
121 ; 2693730.5360446447 ; 2.0110151915380812E8 ; 3.2483300440670854E8 ; 2.267377506570913E10 ; 0.0
122 ; 2690335.802407223 ; 2.0110714675222164E8 ; 3.275267349427532E8 ; 2.2874876584862938E10 ; 0.0
123 ; 2689388.740964297 ; 2.0111276826356697E8 ; 3.302170707451604E8 ; 2.3075983731615158E10 ; 0.0
124 ; 2686571.245935299 ; 2.011183833895889E8 ; 3.329064594861247E8 ; 2.3277096499878723E10 ; 0.0
125 ; 2685731.556618356 ; 2.011239918375806E8 ; 3.3559303073206E8 ; 2.347821488326831E10 ; 0.0
126 ; 2681900.4917014623 ; 2.0112959332020468E8 ; 3.3827876228867835E8 ; 2.3679338875105892E10 ; 0.0
127 ; 2681380.22661318 ; 2.0113518755532148E8 ; 3.4096066278037983E8 ; 2.3880468468426098E10 ; 0.0
128 ; 2680431.7600127524 ; 2.0114077426582414E8 ; 3.43642043006993E8 ; 2.408160365598142E10 ; 0.0
129 ; 2678585.2085485132 ; 2.0114635317947978E8 ; 3.4632247476700574E8 ; 2.4282744430247242E10 ; 0.0
130 ; 2675498.1465241914 ; 2.011519240287773E8 ; 3.490010599755542E8 ; 2.4483890783426723E10 ; 0.0
131 ; 2673814.273288588 ; 2.0115748655078074E8 ; 3.516765581220784E8 ; 2.46850427074555E10 ; 0.0
132 ; 2670399.3413237007 ; 2.0116304048698854E8 ; 3.54350372395367E8 ; 2.4886200194006283E10 ; 0.0
133 ; 2669725.1514896266 ; 2.0116858558319804E8 ; 3.570207717366907E8 ; 2.508736323449327E10 ; 0.0
134 ; 2666488.357808518 ; 2.0117412158937526E8 ; 3.596904968881803E8 ; 2.528853182007647E10 ; 0.0
135 ; 2661811.943480688 ; 2.011796482595299E8 ; 3.6235698524598885E8 ; 2.5489705941665844E10 ; 0.0
136 ; 2657114.1493900004 ; 2.0118516535159454E8 ; 3.650187971894695E8 ; 2.5690885589925373E10 ; 0.0
137 ; 2655857.9556734143 ; 2.0119067262730914E8 ; 3.676759113388595E8 ; 2.5892070755276966E10 ; 0.0
138 ; 2652554.1220859257 ; 2.0119616985210937E8 ; 3.703317692945329E8 ; 2.6093261427904274E10 ; 0.0
139 ; 2650880.3678996214 ; 2.012016567950194E8 ; 3.729843234166188E8 ; 2.6294457597756382E10 ; 0.0
140 ; 2647595.430169415 ; 2.0120713322854868E8 ; 3.756352037845184E8 ; 2.6495659254551403E10 ; 0.0
141 ; 2644748.609992245 ; 2.0121259892859262E8 ; 3.782827992146878E8 ; 2.6696866387779953E10 ; 0.0
142 ; 2641294.4850213644 ; 2.01218053674337E8 ; 3.809275478246801E8 ; 2.6898078986708546E10 ; 0.0
143 ; 2638739.291552862 ; 2.012234972481658E8 ; 3.8356884230970144E8 ; 2.709929704038288E10 ; 0.0
144 ; 2635497.0321092014 ; 2.0122892943557265E8 ; 3.862075816012543E8 ; 2.7300520537631046E10 ; 0.0
145 ; 2634267.211219715 ; 2.0123435002507544E8 ; 3.888430786333635E8 ; 2.750174946706662E10 ; 0.0
146 ; 2631585.881672387 ; 2.0123975880813405E8 ; 3.914773458445832E8 ; 2.7702983817091694E10 ; 0.0
147 ; 2629012.1097832047 ; 2.0124515557907128E8 ; 3.941089317262556E8 ; 2.7904223575899826E10 ; 0.0
148 ; 2628019.2079429473 ; 2.012505401349964E8 ; 3.967379438360388E8 ; 2.8105468731478897E10 ; 0.0
149 ; 2624061.1969086872 ; 2.012559122757318E8 ; 3.993659630439818E8 ; 2.830671927161389E10 ; 0.0
150 ; 2624198.2950203996 ; 2.0126127180374196E8 ; 4.019900242408905E8 ; 2.850797518388962E10 ; 0.0
151 ; 2620116.9715687227 ; 2.0126661852406543E8 ; 4.046142225359109E8 ; 2.8709236455693363E10 ; 0.0
152 ; 2620228.8950282102 ; 2.0127195224424878E8 ; 4.072343395074796E8 ; 2.891050307421743E10 ; 0.0
153 ; 2617208.963290905 ; 2.0127727277428332E8 ; 4.0985456840250784E8 ; 2.9111775026461678E10 ; 0.0
154 ; 2615277.056367283 ; 2.0128257992654386E8 ; 4.124717773657988E8 ; 2.9313052299235962E10 ; 0.0
155 ; 2612860.8004418775 ; 2.0128787351572984E8 ; 4.1508705442216605E8 ; 2.9514334879162506E10 ; 0.0
156 ; 2612526.8656938 ; 2.0129315335880837E8 ; 4.176999152226079E8 ; 2.9715622752678234E10 ; 0.0
157 ; 2607261.4437165596 ; 2.012984192749593E8 ; 4.203124420883017E8 ; 2.991691590603704E10 ; 0.0
158 ; 2605589.82690219 ; 2.0130367108552256E8 ; 4.229197035320183E8 ; 3.0118214325312E10 ; 0.0
159 ; 2603910.237358968 ; 2.0130890861394688E8 ; 4.255252933589205E8 ; 3.0319517996397522E10 ; 0.0
160 ; 2603333.4765570196 ; 2.0131413168574062E8 ; 4.281292035962795E8 ; 3.0520826905011467E10 ; 0.0
161 ; 2599538.6662934045 ; 2.013193401284243E8 ; 4.307325370728365E8 ; 3.072214103669721E10 ; 0.0
162 ; 2598376.1494524307 ; 2.0132453377148458E8 ; 4.333320757391299E8 ; 3.0923460376825634E10 ; 0.0
163 ; 2595317.0643015327 ; 2.0132971244633025E8 ; 4.3593045188858235E8 ; 3.112478491059712E10 ; 0.0
164 ; 2592856.0069182566 ; 2.0133487598624927E8 ; 4.385257689528839E8 ; 3.132611462304345E10 ; 0.0
165 ; 2592154.545051747 ; 2.0134002422636753E8 ; 4.4111862495980215E8 ; 3.1527449499029697E10 ; 0.0
166 ; 2588068.5597486375 ; 2.0134515700360924E8 ; 4.437107795048539E8 ; 3.1728789523256065E10 ; 0.0
167 ; 2587321.0216492177 ; 2.013502741566582E8 ; 4.4629884806460255E8 ; 3.1930134680259674E10 ; 0.0
168 ; 2584392.0866775946 ; 2.0135537552592084E8 ; 4.488861690862518E8 ; 3.2131484954416332E10 ; 0.0
169 ; 2582290.086217706 ; 2.013604609534902E8 ; 4.514705611729294E8 ; 3.2332840329942253E10 ; 0.0
170 ; 2580434.2961281026 ; 2.0136553028311142E8 ; 4.540528512591471E8 ; 3.2534200790895744E10 ; 0.0
171 ; 2577632.8103873227 ; 2.0137058336014822E8 ; 4.566332855552752E8 ; 3.2735566321178856E10 ; 0.0
172 ; 2577569.117247142 ; 2.0137562003155053E8 ; 4.592109183656625E8 ; 3.2936936904539005E10 ; 0.0
173 ; 2572107.373725578 ; 2.0138064014582327E8 ; 4.617884874829097E8 ; 3.3138312524570557E10 ; 0.0
174 ; 2572216.932560268 ; 2.0138564355299607E8 ; 4.643605948566353E8 ; 3.333969316471638E10 ; 0.0
175 ; 2572013.237859964 ; 2.013906301045943E8 ; 4.6693281178919554E8 ; 3.354107880826938E10 ; 0.0
176 ; 2570917.4196628844 ; 2.0139559965361056E8 ; 4.695048250270555E8 ; 3.3742469438373974E10 ; 0.0
177 ; 2569369.6282994514 ; 2.0140055205447775E8 ; 4.720757424467184E8 ; 3.3943865038027584E10 ; 0.0
178 ; 2564798.124309501 ; 2.0140548716304243E8 ; 4.7464511207501787E8 ; 3.414526559008206E10 ; 0.0
179 ; 2564481.478465481 ; 2.014104048365395E8 ; 4.7720991019932735E8 ; 3.4346671077245106E10 ; 0.0
180 ; 2562519.2202248625 ; 2.0141530493356755E8 ; 4.7977439167779285E8 ; 3.454808148208164E10 ; 0.0
181 ; 2564840.889492122 ; 2.0142018731406495E8 ; 4.823369108980177E8 ; 3.474949678701521E10 ; 0.0
182 ; 2562227.987810391 ; 2.0142505183928692E8 ; 4.849017517875098E8 ; 3.495091697432928E10 ; 0.0
183 ; 2559673.685765257 ; 2.0142989837178323E8 ; 4.874639797753202E8 ; 3.5152342026168564E10 ; 0.0
184 ; 2557548.638226401 ; 2.0143472677537653E8 ; 4.9002365346108544E8 ; 3.5353771924540344E10 ; 0.0
185 ; 2556514.969696739 ; 2.0143953691514176E8 ; 4.925812020993118E8 ; 3.555520665131572E10 ; 0.0
186 ; 2554336.663570679 ; 2.0144432865738568E8 ; 4.951377170690086E8 ; 3.575664618823086E10 ; 0.0
187 ; 2553205.7250972004 ; 2.014491018696276E8 ; 4.976920537325793E8 ; 3.5958090516888245E10 ; 0.0
188 ; 2550718.4490027754 ; 2.014538564205804E8 ; 5.002452594576765E8 ; 3.615953961875787E10 ; 0.0
189 ; 2550557.3371440344 ; 2.014585921801323E8 ; 5.027959779066793E8 ; 3.636099347517845E10 ; 0.0
190 ; 2550092.5617875285 ; 2.0146330901932922E8 ; 5.053465352438233E8 ; 3.656245206735858E10 ; 0.0
191 ; 2550873.858150432 ; 2.0146800681035757E8 ; 5.0789662780561084E8 ; 3.6763915376377914E10 ; 0.0
192 ; 2547308.7498457455 ; 2.0147268542652786E8 ; 5.1044750166376126E8 ; 3.696538338318827E10 ; 0.0
193 ; 2546627.8075699816 ; 2.0147734474225852E8 ; 5.12994810413607E8 ; 3.71668560686148E10 ; 0.0
194 ; 2545844.080343978 ; 2.0148198463306054E8 ; 5.15541438221177E8 ; 3.7368333413357056E10 ; 0.0
195 ; 2542236.4705815413 ; 2.0148660497552243E8 ; 5.1808728230152094E8 ; 3.756981539799012E10 ; 0.0
196 ; 2541601.776185396 ; 2.014912056472956E8 ; 5.206295187721025E8 ; 3.7771302002965645E10 ; 0.0
197 ; 2539701.0986280083 ; 2.0149578652708042E8 ; 5.2317112054828787E8 ; 3.797279320861294E10 ; 0.0
198 ; 2539935.697770833 ; 2.015003474946125E8 ; 5.2571082164691585E8 ; 3.8174288995140015E10 ; 0.0
199 ; 2536648.5145901293 ; 2.0150488843064964E8 ; 5.282507573446867E8 ; 3.837578934263463E10 ; 0.0
200 ; 2536702.7029686794 ; 2.0150940921695897E8 ; 5.3078740585927683E8 ; 3.857729423106528E10 ; 0.0
