CSV File for the City 1 on Day 61
1 - Minute m 
2 - Power Consumed at minute m 
3 - Power Produced at minute m 
4 - Energy Consumed since the beginning of the day 
5 - Energy Produced since the beginning of the day 
6 - Energy Lost since the beginning of the day on lines starting from the city
 
0 ; 1.599510086640788E7 ; 1.0544723555752829E8 ; 0.0 ; 0.0 ; 0.0
1 ; 1.601119306121726E7 ; 1.0560008574325621E8 ; 1.599510086640788E7 ; 1.0544723555752829E8 ; 0.0
2 ; 1.6025471936525194E7 ; 1.0606172594550326E8 ; 3.2006293927625142E7 ; 2.110473213007845E8 ; 0.0
3 ; 1.6043900080132725E7 ; 1.0683215834942561E8 ; 4.803176586415034E7 ; 3.1710904724628776E8 ; 0.0
4 ; 1.6069083952857638E7 ; 1.0791138492601222E8 ; 6.407566594428306E7 ; 4.239412055957134E8 ; 0.0
5 ; 1.610015321947031E7 ; 1.0929940741695917E8 ; 8.01447498971407E7 ; 5.318525905217256E8 ; 0.0
6 ; 1.613400383577712E7 ; 1.1099622732093892E8 ; 9.6244903116611E7 ; 6.411519979386847E8 ; 0.0
7 ; 1.618687564799595E7 ; 1.130018458815096E8 ; 1.1237890695238812E8 ; 7.521482252596236E8 ; 0.0
8 ; 1.626637973908019E7 ; 1.1531626407688719E8 ; 1.2856578260038407E8 ; 8.651500711411333E8 ; 0.0
9 ; 1.6385654896079794E7 ; 1.1793948261177552E8 ; 1.4483216233946425E8 ; 9.804663352180204E8 ; 0.0
10 ; 1.6566259578395057E7 ; 1.208715019114123E8 ; 1.6121781723554403E8 ; 1.0984058178297958E9 ; 0.0
11 ; 1.685465849515241E7 ; 1.2411232211794838E8 ; 1.777840768139391E8 ; 1.219277319741208E9 ; 0.0
12 ; 1.731692347603646E7 ; 1.2766194308923289E8 ; 1.946387353090915E8 ; 1.3433896418591564E9 ; 0.0
13 ; 1.7759529812360667E7 ; 1.3152036440002811E8 ; 2.1195565878512797E8 ; 1.4710515849483893E9 ; 0.0
14 ; 1.7817096085882172E7 ; 1.356875853456303E8 ; 2.2971518859748864E8 ; 1.6025719493484173E9 ; 0.0
15 ; 1.7827963698118545E7 ; 1.4016360494782335E8 ; 2.4753228468337083E8 ; 1.7382595346940475E9 ; 0.0
16 ; 1.7850018771954775E7 ; 1.4494842196304926E8 ; 2.6536024838148937E8 ; 1.8784231396418707E9 ; 0.0
17 ; 1.7877334233338732E7 ; 1.500420348926355E8 ; 2.832102671534442E8 ; 2.02337156160492E9 ; 0.0
18 ; 1.7894239489039756E7 ; 1.5544444199488598E8 ; 3.010876013867829E8 ; 2.1734135964975553E9 ; 0.0
19 ; 1.791701638627927E7 ; 1.6115564129881176E8 ; 3.1898184087582266E8 ; 2.328858038492441E9 ; 0.0
20 ; 1.7937986390143793E7 ; 1.6717563061925665E8 ; 3.3689885726210195E8 ; 2.490013679791253E9 ; 0.0
21 ; 1.7957457554091267E7 ; 1.7350440757315788E8 ; 3.5483684365224576E8 ; 2.6571893104105096E9 ; 0.0
22 ; 1.797809528036877E7 ; 1.8014196959667534E8 ; 3.7279430120633703E8 ; 2.8306937179836674E9 ; 0.0
23 ; 1.7999633655319475E7 ; 1.8708831396292394E8 ; 3.907723964867058E8 ; 3.010835687580343E9 ; 0.0
24 ; 1.801973393470504E7 ; 1.9434343780004907E8 ; 4.0877203014202523E8 ; 3.197924001543267E9 ; 0.0
25 ; 1.804046992734168E7 ; 2.0059537900758436E8 ; 4.2679176407673025E8 ; 3.392267439343316E9 ; 0.0
26 ; 1.8057567185879722E7 ; 2.0059768231139103E8 ; 4.4483223400407195E8 ; 3.5928628183509007E9 ; 0.0
27 ; 1.8080993046785187E7 ; 2.006001138062678E8 ; 4.6288980118995166E8 ; 3.7934605006622915E9 ; 0.0
28 ; 1.810275497823853E7 ; 2.0060267021991155E8 ; 4.8097079423673683E8 ; 3.9940606144685593E9 ; 0.0
29 ; 1.8123755111164924E7 ; 2.006053482226752E8 ; 4.9907354921497536E8 ; 4.194663284688471E9 ; 0.0
30 ; 1.8135679669715874E7 ; 2.0060814444327605E8 ; 5.171973043261403E8 ; 4.395268632911146E9 ; 0.0
31 ; 1.8156685477737553E7 ; 2.0061105548359627E8 ; 5.3533298399585617E8 ; 4.595876777354423E9 ; 0.0
32 ; 1.817729463813248E7 ; 2.0061407793249854E8 ; 5.534896694735937E8 ; 4.796487832838018E9 ; 0.0
33 ; 1.819635088043759E7 ; 2.0061720837860298E8 ; 5.716669641117262E8 ; 4.997101910770517E9 ; 0.0
34 ; 1.821220958821046E7 ; 2.0062044342199457E8 ; 5.898633149921638E8 ; 5.19771911914912E9 ; 0.0
35 ; 1.8230410817441262E7 ; 2.00623779684849E8 ; 6.080755245803742E8 ; 5.398339562571115E9 ; 0.0
36 ; 1.824500322345884E7 ; 2.0062721382098347E8 ; 6.263059353978155E8 ; 5.598963342255963E9 ; 0.0
37 ; 1.8258277311876968E7 ; 2.006307425243524E8 ; 6.445509386212744E8 ; 5.799590556076947E9 ; 0.0
38 ; 1.8278721756622612E7 ; 2.0063436253652164E8 ; 6.628092159331514E8 ; 6.000221298601299E9 ; 0.0
39 ; 1.8290731079907335E7 ; 2.0063807065316346E8 ; 6.81087937689774E8 ; 6.200855661137821E9 ; 0.0
40 ; 1.8303871140510783E7 ; 2.0064186372962317E8 ; 6.993786687696813E8 ; 6.401493731790985E9 ; 0.0
41 ; 1.8317777462716985E7 ; 2.006457386856132E8 ; 7.176825399101921E8 ; 6.602135595520608E9 ; 0.0
42 ; 1.8329919059957586E7 ; 2.006496925090945E8 ; 7.360003173729091E8 ; 6.802781334206222E9 ; 0.0
43 ; 1.834257626997454E7 ; 2.006537222594071E8 ; 7.543302364328667E8 ; 7.003431026715316E9 ; 0.0
44 ; 1.8353845652498506E7 ; 2.0065782506971228E8 ; 7.726728127028413E8 ; 7.204084748974723E9 ; 0.0
45 ; 1.8366097691174522E7 ; 2.0066199814880896E8 ; 7.910266583553398E8 ; 7.4047425740444355E9 ; 0.0
46 ; 1.8369152647274353E7 ; 2.0066623878238463E8 ; 8.093927560465143E8 ; 7.605404572193245E9 ; 0.0
47 ; 1.8381947842479292E7 ; 2.0067054433376E8 ; 8.277619086937886E8 ; 7.80607081097563E9 ; 0.0
48 ; 1.8386096074648723E7 ; 2.006749122441834E8 ; 8.46143856536268E8 ; 8.00674135530939E9 ; 0.0
49 ; 1.8396979840560272E7 ; 2.006793400327277E8 ; 8.645299526109167E8 ; 8.207416267553574E9 ; 0.0
50 ; 1.8402718366318487E7 ; 2.0068382529583985E8 ; 8.82926932451477E8 ; 8.408095607586301E9 ; 0.0
51 ; 1.8401207864886098E7 ; 2.0068836570658883E8 ; 9.013296508177955E8 ; 8.608779432882141E9 ; 0.0
52 ; 1.841304252443372E7 ; 2.0069295901365477E8 ; 9.197308586826816E8 ; 8.80946779858873E9 ; 0.0
53 ; 1.8413935494089253E7 ; 2.0069760304009843E8 ; 9.381439012071153E8 ; 9.010160757602385E9 ; 0.0
54 ; 1.8418512103376437E7 ; 2.007022956819462E8 ; 9.565578367012045E8 ; 9.210858360642483E9 ; 0.0
55 ; 1.8423301075731564E7 ; 2.0070703490662292E8 ; 9.749763488045809E8 ; 9.411560656324429E9 ; 0.0
56 ; 1.8430741711152997E7 ; 2.0071181875126168E8 ; 9.933996498803124E8 ; 9.612267691231052E9 ; 0.0
57 ; 1.8432097552393675E7 ; 2.0071664532091573E8 ; 1.0118303915914655E9 ; 9.812979509982313E9 ; 0.0
58 ; 1.8439235829936013E7 ; 2.0072151278669617E8 ; 1.0302624891438591E9 ; 1.0013696155303228E10 ; 0.0
59 ; 1.8444937458597317E7 ; 2.0072641938385525E8 ; 1.0487017249737952E9 ; 1.0214417668089924E10 ; 0.0
60 ; 1.844571396783971E7 ; 2.0073136340983343E8 ; 1.0671466624323925E9 ; 1.041514408747378E10 ; 0.0
61 ; 1.844810874457128E7 ; 2.0073634322228524E8 ; 1.085592376400232E9 ; 1.0615875450883614E10 ; 0.0
62 ; 1.8450842710905135E7 ; 2.0074135723709804E8 ; 1.1040404851448033E9 ; 1.0816611794105898E10 ; 0.0
63 ; 1.8457045873721637E7 ; 2.007464039264148E8 ; 1.1224913278557084E9 ; 1.1017353151342997E10 ; 0.0
64 ; 1.8458655667020448E7 ; 2.0075148181667116E8 ; 1.14094837372943E9 ; 1.1218099555269411E10 ; 0.0
65 ; 1.846178668857907E7 ; 2.0075658948665515E8 ; 1.1594070293964505E9 ; 1.1418851037086082E10 ; 0.0
66 ; 1.8463777988712564E7 ; 2.0076172556559604E8 ; 1.1778688160850296E9 ; 1.1619607626572737E10 ; 0.0
67 ; 1.846822761735849E7 ; 2.0076688873128936E8 ; 1.1963325940737422E9 ; 1.1820369352138332E10 ; 0.0
68 ; 1.8465937438916072E7 ; 2.007720777082615E8 ; 1.2148008216911006E9 ; 1.2021136240869621E10 ; 0.0
69 ; 1.8467940741880644E7 ; 2.0077729126597884E8 ; 1.2332667591300166E9 ; 1.2221908318577883E10 ; 0.0
70 ; 1.8468974719730925E7 ; 2.007825282171038E8 ; 1.2517346998718972E9 ; 1.2422685609843863E10 ; 0.0
71 ; 1.8476627190279227E7 ; 2.0078778741580006E8 ; 1.270203674591628E9 ; 1.2623468138060966E10 ; 0.0
72 ; 1.8471622289315507E7 ; 2.0079306775608912E8 ; 1.2886803017819073E9 ; 1.2824255925476767E10 ; 0.0
73 ; 1.8475022144724794E7 ; 2.007983681702588E8 ; 1.3071519240712228E9 ; 1.3025048993232855E10 ; 0.0
74 ; 1.847827740980223E7 ; 2.0080368762732443E8 ; 1.3256269462159476E9 ; 1.3225847361403114E10 ; 0.0
75 ; 1.8479620682448808E7 ; 2.008090251315432E8 ; 1.3441052236257498E9 ; 1.342665104903044E10 ; 0.0
76 ; 1.8480459178578515E7 ; 2.0081437972098115E8 ; 1.3625848443081987E9 ; 1.3627460074161983E10 ; 0.0
77 ; 1.848158221922829E7 ; 2.008197504661329E8 ; 1.3810653034867773E9 ; 1.3828274453882965E10 ; 0.0
78 ; 1.84763372526308E7 ; 2.008251364685931E8 ; 1.3995468857060056E9 ; 1.4029094204349098E10 ; 0.0
79 ; 1.8472815065479036E7 ; 2.0083053685977858E8 ; 1.4180232229586363E9 ; 1.4229919340817692E10 ; 0.0
80 ; 1.8464424982300885E7 ; 2.008359507997012E8 ; 1.4364960380241153E9 ; 1.4430749877677471E10 ; 0.0
81 ; 1.8461118291714605E7 ; 2.0084137747578886E8 ; 1.4549604630064163E9 ; 1.4631585828477173E10 ; 0.0
82 ; 1.8452781932388525E7 ; 2.008468161017544E8 ; 1.473421581298131E9 ; 1.4832427205952961E10 ; 0.0
83 ; 1.844978536032046E7 ; 2.00852265916511E8 ; 1.4918743632305195E9 ; 1.5033274022054716E10 ; 0.0
84 ; 1.8445002858209077E7 ; 2.0085772618313205E8 ; 1.51032414859084E9 ; 1.5234126287971228E10 ; 0.0
85 ; 1.843785651025801E7 ; 2.0086319618785506E8 ; 1.5287691514490492E9 ; 1.543498401415436E10 ; 0.0
86 ; 1.843157633189112E7 ; 2.008686752391271E8 ; 1.5472070079593072E9 ; 1.5635847210342215E10 ; 0.0
87 ; 1.8425787104502246E7 ; 2.0087416266669127E8 ; 1.5656385842911983E9 ; 1.583671588558134E10 ; 0.0
88 ; 1.842253897892884E7 ; 2.008796578207119E8 ; 1.5840643713957005E9 ; 1.6037590048248032E10 ; 0.0
89 ; 1.8411275648030948E7 ; 2.0088516007093787E8 ; 1.6024869103746293E9 ; 1.6238469706068743E10 ; 0.0
90 ; 1.840802187763875E7 ; 2.0089066880590174E8 ; 1.6208981860226603E9 ; 1.643935486613968E10 ; 0.0
91 ; 1.8395396479096547E7 ; 2.0089618343215394E8 ; 1.639306207900299E9 ; 1.6640245534945583E10 ; 0.0
92 ; 1.8387306054571357E7 ; 2.0090170337353033E8 ; 1.6577016043793957E9 ; 1.6841141718377737E10 ; 0.0
93 ; 1.8381834085978407E7 ; 2.0090722807045177E8 ; 1.676088910433967E9 ; 1.7042043421751266E10 ; 0.0
94 ; 1.837496915454687E7 ; 2.0091275697925448E8 ; 1.6944707445199456E9 ; 1.724295064982172E10 ; 0.0
95 ; 1.836620398241713E7 ; 2.009182895715498E8 ; 1.7128457136744926E9 ; 1.7443863406800976E10 ; 0.0
96 ; 1.8360916746284373E7 ; 2.0092382533361217E8 ; 1.7312119176569097E9 ; 1.7644781696372524E10 ; 0.0
97 ; 1.8352881381129175E7 ; 2.009293637657939E8 ; 1.7495728344031942E9 ; 1.7845705521706135E10 ; 0.0
98 ; 1.834323489973261E7 ; 2.0093490438196605E8 ; 1.7679257157843235E9 ; 1.8046634885471928E10 ; 0.0
99 ; 1.8335275807466537E7 ; 2.0094044670898375E8 ; 1.786268950684056E9 ; 1.8247569789853893E10 ; 0.0
100 ; 1.83277910882503E7 ; 2.00945990286175E8 ; 1.8046042264915226E9 ; 1.8448510236562878E10 ; 0.0
101 ; 1.8320382231573474E7 ; 2.0095153466485235E8 ; 1.822932017579773E9 ; 1.8649456226849052E10 ; 0.0
102 ; 1.8306654542955875E7 ; 2.0095707940784577E8 ; 1.8412523998113465E9 ; 1.8850407761513905E10 ; 0.0
103 ; 1.8294758590706762E7 ; 2.0096262408905602E8 ; 1.8595590543543024E9 ; 1.905136484092175E10 ; 0.0
104 ; 1.828564685391287E7 ; 2.0096816829302812E8 ; 1.8778538129450092E9 ; 1.9252327465010803E10 ; 0.0
105 ; 1.8280525791854374E7 ; 2.009737116145428E8 ; 1.896139459798922E9 ; 1.9453295633303833E10 ; 0.0
106 ; 1.8269825786118545E7 ; 2.0097925365822667E8 ; 1.9144199855907764E9 ; 1.9654269344918377E10 ; 0.0
107 ; 1.8260400906963825E7 ; 2.009847940381786E8 ; 1.932689811376895E9 ; 1.9855248598576603E10 ; 0.0
108 ; 1.824566445420324E7 ; 2.0099033237761307E8 ; 1.9509502122838588E9 ; 2.005623339261478E10 ; 0.0
109 ; 1.8239318249793462E7 ; 2.009958683085187E8 ; 1.969195876738062E9 ; 2.0257223724992393E10 ; 0.0
110 ; 1.8230388711173493E7 ; 2.010014014713316E8 ; 1.9874351949878554E9 ; 2.045821959330091E10 ; 0.0
111 ; 1.8217575640146844E7 ; 2.0100693151462308E8 ; 2.005665583699029E9 ; 2.0659220994772243E10 ; 0.0
112 ; 1.820700295824942E7 ; 2.0101245809480062E8 ; 2.0238831593391757E9 ; 2.0860227926286865E10 ; 0.0
113 ; 1.819758717837632E7 ; 2.0101798087582183E8 ; 2.042090162297425E9 ; 2.1061240384381664E10 ; 0.0
114 ; 1.8186577967498656E7 ; 2.0102349952892068E8 ; 2.0602877494758015E9 ; 2.1262258365257484E10 ; 0.0
115 ; 1.8174169397568572E7 ; 2.010290137323455E8 ; 2.0784743274433E9 ; 2.1463281864786404E10 ; 0.0
116 ; 1.8160378514588468E7 ; 2.0103452317110798E8 ; 2.0966484968408685E9 ; 2.166431087851875E10 ; 0.0
117 ; 1.814563894195866E7 ; 2.010400275367431E8 ; 2.1148088753554568E9 ; 2.1865345401689857E10 ; 0.0
118 ; 1.8140858769677468E7 ; 2.0104552652707916E8 ; 2.1329545142974155E9 ; 2.20663854292266E10 ; 0.0
119 ; 1.812240942476674E7 ; 2.0105101984601727E8 ; 2.151095373067093E9 ; 2.226743095575368E10 ; 0.0
120 ; 1.811397198373202E7 ; 2.0105650720332053E8 ; 2.1692177824918594E9 ; 2.2468481975599697E10 ; 0.0
121 ; 1.8099080181786478E7 ; 2.0106198831441185E8 ; 2.1873317544755917E9 ; 2.2669538482803017E10 ; 0.0
122 ; 1.8088351490795147E7 ; 2.0106746290018016E8 ; 2.205430834657378E9 ; 2.2870600471117428E10 ; 0.0
123 ; 1.8074427785052802E7 ; 2.0107293068679485E8 ; 2.2235191861481733E9 ; 2.307166793401761E10 ; 0.0
124 ; 1.8065405410219263E7 ; 2.010783914055278E8 ; 2.241593613933226E9 ; 2.3272740864704403E10 ; 0.0
125 ; 1.8050302714824855E7 ; 2.0108384479258287E8 ; 2.2596590193434453E9 ; 2.3473819256109932E10 ; 0.0
126 ; 1.8041050668707013E7 ; 2.010892905889323E8 ; 2.27770932205827E9 ; 2.3674903100902515E10 ; 0.0
127 ; 1.8024169211362127E7 ; 2.0109472854015988E8 ; 2.295750372726977E9 ; 2.3875992391491447E10 ; 0.0
128 ; 1.8012076433506865E7 ; 2.0110015839631057E8 ; 2.313774541938339E9 ; 2.407708712003161E10 ; 0.0
129 ; 1.799884584086702E7 ; 2.011055799117462E8 ; 2.331786618371846E9 ; 2.4278187278427917E10 ; 0.0
130 ; 1.7979188779568855E7 ; 2.0111099284500703E8 ; 2.3497854642127132E9 ; 2.4479292858339664E10 ; 0.0
131 ; 1.7961127230223145E7 ; 2.0111639695867893E8 ; 2.367764652992282E9 ; 2.4680403851184673E10 ; 0.0
132 ; 1.7938030972530015E7 ; 2.011217920192658E8 ; 2.385725780222505E9 ; 2.4881520248143353E10 ; 0.0
133 ; 1.7918357311909128E7 ; 2.0112717779706737E8 ; 2.403663811195035E9 ; 2.5082642040162617E10 ; 0.0
134 ; 1.7903576516509477E7 ; 2.0113255406606153E8 ; 2.421582168506944E9 ; 2.5283769217959682E10 ; 0.0
135 ; 1.7880768728491902E7 ; 2.0113792060379156E8 ; 2.4394857450234537E9 ; 2.5484901772025745E10 ; 0.0
136 ; 1.78605589617688E7 ; 2.011432771912579E8 ; 2.4573665137519455E9 ; 2.5686039692629536E10 ; 0.0
137 ; 1.783513111042107E7 ; 2.0114862361281392E8 ; 2.475227072713714E9 ; 2.5887182969820793E10 ; 0.0
138 ; 1.7819192537505645E7 ; 2.0115395965606603E8 ; 2.4930622038241353E9 ; 2.6088331593433605E10 ; 0.0
139 ; 1.7795562464298815E7 ; 2.0115928511177766E8 ; 2.510881396361641E9 ; 2.6289485553089672E10 ; 0.0
140 ; 1.777508649103566E7 ; 2.0116459977377677E8 ; 2.5286769588259397E9 ; 2.649064483820145E10 ; 0.0
141 ; 1.7754182108996518E7 ; 2.0116990343886736E8 ; 2.546452045316975E9 ; 2.6691809437975227E10 ; 0.0
142 ; 1.773553087002498E7 ; 2.0117519590674397E8 ; 2.5642062274259715E9 ; 2.6892979341414093E10 ; 0.0
143 ; 1.7712594599204957E7 ; 2.011804769799098E8 ; 2.5819417582959967E9 ; 2.7094154537320835E10 ; 0.0
144 ; 1.7693903571797818E7 ; 2.0118574646359786E8 ; 2.5996543528952017E9 ; 2.7295335014300743E10 ; 0.0
145 ; 1.7673582069765642E7 ; 2.0119100416569498E8 ; 2.6173482564669995E9 ; 2.749652076076434E10 ; 0.0
146 ; 1.766396751854797E7 ; 2.01196249896669E8 ; 2.635021838536765E9 ; 2.7697711764930035E10 ; 0.0
147 ; 1.7647468875430707E7 ; 2.012014834694986E8 ; 2.652685806055313E9 ; 2.7898908014826702E10 ; 0.0
148 ; 1.763168598819296E7 ; 2.012067046996056E8 ; 2.6703332749307437E9 ; 2.81001094982962E10 ; 0.0
149 ; 1.7616780938702624E7 ; 2.0121191340479025E8 ; 2.6879649609189367E9 ; 2.8301316202995804E10 ; 0.0
150 ; 1.7600208917873856E7 ; 2.0121710940516838E8 ; 2.7055817418576393E9 ; 2.8502528116400593E10 ; 0.0
151 ; 1.759095260417863E7 ; 2.012222925231114E8 ; 2.723181950775513E9 ; 2.870374522580576E10 ; 0.0
152 ; 1.7570671022264607E7 ; 2.0122746258318824E8 ; 2.7407729033796916E9 ; 2.8904967518328873E10 ; 0.0
153 ; 1.7555142293380745E7 ; 2.0123261941210952E8 ; 2.758343574401956E9 ; 2.910619498091206E10 ; 0.0
154 ; 1.7543800584545653E7 ; 2.0123776283867395E8 ; 2.775898716695337E9 ; 2.930742760032417E10 ; 0.0
155 ; 1.7524306869442333E7 ; 2.012428926937163E8 ; 2.7934425172798824E9 ; 2.950866536316284E10 ; 0.0
156 ; 1.750646383542344E7 ; 2.0124800881005773E8 ; 2.810966824149325E9 ; 2.970990825585656E10 ; 0.0
157 ; 1.7492043393670965E7 ; 2.0125311102245763E8 ; 2.8284732879847484E9 ; 2.991115626466662E10 ; 0.0
158 ; 1.747597495200926E7 ; 2.0125819916756737E8 ; 2.8459653313784194E9 ; 3.0112409375689075E10 ; 0.0
159 ; 1.7460574985033497E7 ; 2.012632730838857E8 ; 2.8634413063304286E9 ; 3.0313667574856644E10 ; 0.0
160 ; 1.7445045378440566E7 ; 2.0126833261171558E8 ; 2.880901881315462E9 ; 3.051493084794053E10 ; 0.0
161 ; 1.7427655637899555E7 ; 2.0127337759312302E8 ; 2.8983469266939025E9 ; 3.0716199180552246E10 ; 0.0
162 ; 1.7412355171773545E7 ; 2.012784078718968E8 ; 2.915774582331802E9 ; 3.091747255814537E10 ; 0.0
163 ; 1.739693215341887E7 ; 2.0128342329351014E8 ; 2.9331869375035753E9 ; 3.111875096601727E10 ; 0.0
164 ; 1.738100789050445E7 ; 2.0128842370508343E8 ; 2.9505838696569943E9 ; 3.132003438931078E10 ; 0.0
165 ; 1.7367406490019094E7 ; 2.012934089553484E8 ; 2.9679648775474987E9 ; 3.152132281301586E10 ; 0.0
166 ; 1.7347013389721815E7 ; 2.0129837889461368E8 ; 2.985332284037518E9 ; 3.172261622197121E10 ; 0.0
167 ; 1.733024836009545E7 ; 2.0130333337473127E8 ; 3.00267929742724E9 ; 3.1923914600865826E10 ; 0.0
168 ; 1.7313896902256E7 ; 2.0130827224906442E8 ; 3.0200095457873354E9 ; 3.212521793424056E10 ; 0.0
169 ; 1.7297661388920143E7 ; 2.0131319537245664E8 ; 3.0373234426895914E9 ; 3.2326526206489624E10 ; 0.0
170 ; 1.72867263348481E7 ; 2.013181026012017E8 ; 3.0546211040785117E9 ; 3.252783940186208E10 ; 0.0
171 ; 1.7263827537591677E7 ; 2.0132299379301476E8 ; 3.0719078304133596E9 ; 3.272915750446328E10 ; 0.0
172 ; 1.7245255599326797E7 ; 2.0132786880700436E8 ; 3.089171657950951E9 ; 3.2930480498256294E10 ; 0.0
173 ; 1.7230433464011904E7 ; 2.0133272750364557E8 ; 3.1064169135502777E9 ; 3.3131808367063297E10 ; 0.0
174 ; 1.7220076126557775E7 ; 2.0133756974475396E8 ; 3.1236473470142894E9 ; 3.3333141094566944E10 ; 0.0
175 ; 1.7211962989910636E7 ; 2.0134239539346048E8 ; 3.140867423140847E9 ; 3.35344786643117E10 ; 0.0
176 ; 1.7199183902554587E7 ; 2.0134720431418717E8 ; 3.158079386130758E9 ; 3.373582105970516E10 ; 0.0
177 ; 1.7189527655160397E7 ; 2.013519963726239E8 ; 3.1752785700333123E9 ; 3.3937168264019344E10 ; 0.0
178 ; 1.7177825315743815E7 ; 2.0135677143570548E8 ; 3.1924680976884727E9 ; 3.4138520260391968E10 ; 0.0
179 ; 1.7167652067339662E7 ; 2.0136152937159014E8 ; 3.2096459230042167E9 ; 3.4339877031827675E10 ; 0.0
180 ; 1.7162592538171124E7 ; 2.0136627004963812E8 ; 3.2268135750715566E9 ; 3.4541238561199265E10 ; 0.0
181 ; 1.7147901354325455E7 ; 2.0137099334039158E8 ; 3.243976167609728E9 ; 3.47426048312489E10 ; 0.0
182 ; 1.7135985353840947E7 ; 2.013756991155546E8 ; 3.261124068964053E9 ; 3.4943975824589294E10 ; 0.0
183 ; 1.713097052971675E7 ; 2.013803872479744E8 ; 3.278260054317894E9 ; 3.514535152370485E10 ; 0.0
184 ; 1.7116738227381147E7 ; 2.013850576116228E8 ; 3.295391024847611E9 ; 3.534673191095282E10 ; 0.0
185 ; 1.710604729778629E7 ; 2.0138971008157858E8 ; 3.312507763074992E9 ; 3.5548116968564445E10 ; 0.0
186 ; 1.7096499149926327E7 ; 2.013943445340101E8 ; 3.3296138103727784E9 ; 3.574950667864603E10 ; 0.0
187 ; 1.7089037829890937E7 ; 2.0139896084615895E8 ; 3.3467103095227046E9 ; 3.595090102318004E10 ; 0.0
188 ; 1.7082539190098856E7 ; 2.014035588963237E8 ; 3.3637993473525953E9 ; 3.61522999840262E10 ; 0.0
189 ; 1.7068402081113983E7 ; 2.014081385638445E8 ; 3.380881886542694E9 ; 3.635370354292252E10 ; 0.0
190 ; 1.705742658461472E7 ; 2.01412699729088E8 ; 3.397950288623808E9 ; 3.655511168148637E10 ; 0.0
191 ; 1.704821347544759E7 ; 2.01417242273433E8 ; 3.4150077152084227E9 ; 3.6756524381215454E10 ; 0.0
192 ; 1.7038951485346414E7 ; 2.0142176607925624E8 ; 3.4320559286838703E9 ; 3.6957941623488884E10 ; 0.0
193 ; 1.7026606280843623E7 ; 2.0142627102991894E8 ; 3.4490948801692166E9 ; 3.715936338956814E10 ; 0.0
194 ; 1.7016224389438823E7 ; 2.0143075700975376E8 ; 3.4661214864500604E9 ; 3.736078966059806E10 ; 0.0
195 ; 1.7002732110675592E7 ; 2.0143522390405202E8 ; 3.483137710839499E9 ; 3.756222041760781E10 ; 0.0
