CSV File for the City 4 on Day 84
1 - Minute m 
2 - Power Consumed at minute m 
3 - Power Produced at minute m 
4 - Energy Consumed since the beginning of the day 
5 - Energy Produced since the beginning of the day 
6 - Energy Lost since the beginning of the day on lines starting from the city
 
0 ; 6830383.626586412 ; 1.0615032585745409E8 ; 0.0 ; 0.0 ; 0.0
1 ; 6837903.140866834 ; 1.063008505937494E8 ; 6830383.626586412 ; 1.0615032585745409E8 ; 0.0
2 ; 6844627.228920329 ; 1.06760403687641E8 ; 1.3668286767453246E7 ; 2.124511764512035E8 ; 0.0
3 ; 6851532.800123574 ; 1.0752898943838453E8 ; 2.0512913996373575E7 ; 3.192115801388445E8 ; 0.0
4 ; 6861736.916014516 ; 1.0860661170202404E8 ; 2.736444679649715E7 ; 4.26740569577229E8 ; 0.0
5 ; 6874403.512680827 ; 1.0999327386896837E8 ; 3.4226183712511666E7 ; 5.3534718127925307E8 ; 0.0
6 ; 6891175.580046171 ; 1.1168897884387836E8 ; 4.1100587225192495E7 ; 6.453404551482215E8 ; 0.0
7 ; 6914687.572793201 ; 1.1369372902813798E8 ; 4.7991762805238664E7 ; 7.570294339920999E8 ; 0.0
8 ; 6946480.074734756 ; 1.1600752630515474E8 ; 5.4906450378031865E7 ; 8.707231630202379E8 ; 0.0
9 ; 6997452.537974785 ; 1.1863037202869898E8 ; 6.185293045276662E7 ; 9.867306893253927E8 ; 0.0
10 ; 7074398.585879425 ; 1.2156226701444966E8 ; 6.88503829907414E7 ; 1.1053610613540916E9 ; 0.0
11 ; 7198101.745105244 ; 1.2480321153487185E8 ; 7.592478157662083E7 ; 1.2269233283685412E9 ; 0.0
12 ; 7397386.075809492 ; 1.2835320531750044E8 ; 8.312288332172608E7 ; 1.351726539903413E9 ; 0.0
13 ; 7585862.938781406 ; 1.3221224754665649E8 ; 9.052026939753558E7 ; 1.4800797452209134E9 ; 0.0
14 ; 7608932.490978145 ; 1.3638033686856973E8 ; 9.810613233631699E7 ; 1.61229199276757E9 ; 0.0
15 ; 7617271.793654897 ; 1.4085747139983255E8 ; 1.0571506482729514E8 ; 1.7486723296361399E9 ; 0.0
16 ; 7624860.700670918 ; 1.456436487390611E8 ; 1.1333233662095004E8 ; 1.8895298010359724E9 ; 0.0
17 ; 7634154.193167176 ; 1.507388659815944E8 ; 1.2095719732162096E8 ; 2.0351734497750335E9 ; 0.0
18 ; 7641521.711576183 ; 1.5614311973702377E8 ; 1.2859135151478814E8 ; 2.185912315756628E9 ; 0.0
19 ; 7653114.9188225325 ; 1.6185640614930496E8 ; 1.362328732263643E8 ; 2.342055435493652E9 ; 0.0
20 ; 7662418.6408792725 ; 1.6787872091918245E8 ; 1.4388598814518684E8 ; 2.5039118416429567E9 ; 0.0
21 ; 7668541.092766427 ; 1.7421005932862672E8 ; 1.5154840678606611E8 ; 2.671790562562139E9 ; 0.0
22 ; 7679604.149355582 ; 1.8085041626697278E8 ; 1.5921694787883255E8 ; 2.8460006218907657E9 ; 0.0
23 ; 7689948.52191127 ; 1.877997862584387E8 ; 1.6689655202818814E8 ; 3.0268510381577387E9 ; 0.0
24 ; 7698958.784631997 ; 1.9505816349069887E8 ; 1.745865005500994E8 ; 3.2146508244161773E9 ; 0.0
25 ; 7710825.498725017 ; 2.0131358274237618E8 ; 1.822854593347314E8 ; 3.409708987906876E9 ; 0.0
26 ; 7714353.392749216 ; 2.0131958544966957E8 ; 1.8999628483345643E8 ; 3.6110225706492524E9 ; 0.0
27 ; 7726363.2955607185 ; 2.013259342611169E8 ; 1.9771063822620565E8 ; 3.812342156098922E9 ; 0.0
28 ; 7732739.377445119 ; 2.013326223140763E8 ; 2.0543700152176636E8 ; 4.0136680903600388E9 ; 0.0
29 ; 7742335.319394497 ; 2.0133964255727437E8 ; 2.131697408992115E8 ; 4.215000712674115E9 ; 0.0
30 ; 7751498.672745389 ; 2.0134698777947262E8 ; 2.20912076218606E8 ; 4.41634035523139E9 ; 0.0
31 ; 7758492.639009652 ; 2.0135465063729322E8 ; 2.2866357489135137E8 ; 4.617687343010862E9 ; 0.0
32 ; 7765390.956983062 ; 2.0136262368202743E8 ; 2.3642206753036103E8 ; 4.819041993648155E9 ; 0.0
33 ; 7774758.250476346 ; 2.0137089938527852E8 ; 2.441874584873441E8 ; 5.020404617330183E9 ; 0.0
34 ; 7781062.665438219 ; 2.0137947016331738E8 ; 2.5196221673782045E8 ; 5.221775516715462E9 ; 0.0
35 ; 7789819.04331277 ; 2.0138832840005744E8 ; 2.5974327940325865E8 ; 5.423154986878779E9 ; 0.0
36 ; 7795817.026136008 ; 2.0139746646857843E8 ; 2.675330984465714E8 ; 5.624543315278837E9 ; 0.0
37 ; 7801284.492568447 ; 2.014068767511547E8 ; 2.753289154727074E8 ; 5.825940781747416E9 ; 0.0
38 ; 7810037.4407870285 ; 2.0141655165776262E8 ; 2.831301999652758E8 ; 6.02734765849857E9 ; 0.0
39 ; 7817507.672977629 ; 2.014264836430637E8 ; 2.9094023740606284E8 ; 6.228764210156333E9 ; 0.0
40 ; 7822098.3296090355 ; 2.0143666522187462E8 ; 2.9875774507904047E8 ; 6.4301906937993965E9 ; 0.0
41 ; 7829378.791136414 ; 2.0144708898315254E8 ; 3.065798434086495E8 ; 6.631627359021271E9 ; 0.0
42 ; 7834372.847072065 ; 2.0145774760253507E8 ; 3.1440922219978595E8 ; 6.833074448004423E9 ; 0.0
43 ; 7837537.099369284 ; 2.014686338534853E8 ; 3.22243595046858E8 ; 7.034532195606958E9 ; 0.0
44 ; 7843242.931444099 ; 2.0147974061710107E8 ; 3.300811321462273E8 ; 7.2360008294604435E9 ; 0.0
45 ; 7846173.318720993 ; 2.014910608906538E8 ; 3.379243750776714E8 ; 7.437480570077544E9 ; 0.0
46 ; 7851230.752066891 ; 2.0150258779492638E8 ; 3.457705483963924E8 ; 7.638971630968198E9 ; 0.0
47 ; 7856462.587244425 ; 2.0151431458042464E8 ; 3.536217791484593E8 ; 7.840474218763124E9 ; 0.0
48 ; 7857525.05561173 ; 2.0152623463253656E8 ; 3.6147824173570377E8 ; 8.041988533343549E9 ; 0.0
49 ; 7859237.999253102 ; 2.015383414757159E8 ; 3.693357667913155E8 ; 8.243514767976086E9 ; 0.0
50 ; 7861795.957294167 ; 2.0155062877676517E8 ; 3.771950047905686E8 ; 8.445053109451801E9 ; 0.0
51 ; 7868753.168828358 ; 2.0156309034729257E8 ; 3.8505680074786276E8 ; 8.646603738228567E9 ; 0.0
52 ; 7869150.603341088 ; 2.0157572014541528E8 ; 3.929255539166911E8 ; 8.84816682857586E9 ; 0.0
53 ; 7871084.9247478 ; 2.015885122767785E8 ; 4.007947045200322E8 ; 9.049742548721273E9 ; 0.0
54 ; 7872750.894867262 ; 2.0160146099495763E8 ; 4.0866578944478005E8 ; 9.251331060998053E9 ; 0.0
55 ; 7876233.454158637 ; 2.016145607013068E8 ; 4.165385403396473E8 ; 9.45293252199301E9 ; 0.0
56 ; 7876475.047738234 ; 2.0162780594431394E8 ; 4.2441477379380596E8 ; 9.654547082694317E9 ; 0.0
57 ; 7878640.524535915 ; 2.0164119141851878E8 ; 4.322912488415442E8 ; 9.85617488863863E9 ; 0.0
58 ; 7883090.069141943 ; 2.0165471196304664E8 ; 4.401698893660801E8 ; 1.0057816080057148E10 ; 0.0
59 ; 7884598.398886129 ; 2.0166836255980653E8 ; 4.48052979435222E8 ; 1.0259470792020195E10 ; 0.0
60 ; 7886503.525758623 ; 2.0168213833139944E8 ; 4.559375778341082E8 ; 1.0461139154580002E10 ; 0.0
61 ; 7886523.716166034 ; 2.0169603453877786E8 ; 4.638240813598668E8 ; 1.0662821292911402E10 ; 0.0
62 ; 7887605.947877015 ; 2.0171004657869524E8 ; 4.717106050760328E8 ; 1.086451732745018E10 ; 0.0
63 ; 7889521.9162587505 ; 2.0172416998097977E8 ; 4.795982110239098E8 ; 1.1066227374028875E10 ; 0.0
64 ; 7893196.468848868 ; 2.0173840040566435E8 ; 4.8748773294016856E8 ; 1.1267951544009855E10 ; 0.0
65 ; 7892811.0996443415 ; 2.017527336400013E8 ; 4.9538092940901744E8 ; 1.146968994441552E10 ; 0.0
66 ; 7896026.354735151 ; 2.0176716559538755E8 ; 5.032737405086618E8 ; 1.1671442678055521E10 ; 0.0
67 ; 7895865.084628775 ; 2.017816923042233E8 ; 5.1116976686339694E8 ; 1.187320984365091E10 ; 0.0
68 ; 7899234.2817852665 ; 2.0179630991672507E8 ; 5.190656319480257E8 ; 1.2074991535955133E10 ; 0.0
69 ; 7895986.2727370085 ; 2.0181101469771108E8 ; 5.2696486622981095E8 ; 1.2276787845871859E10 ; 0.0
70 ; 7901450.342215108 ; 2.0182580302337542E8 ; 5.34860852502548E8 ; 1.247859886056957E10 ; 0.0
71 ; 7900688.77899878 ; 2.0184067137806523E8 ; 5.42762302844763E8 ; 1.2680424663592945E10 ; 0.0
72 ; 7899841.086740137 ; 2.0185561635107318E8 ; 5.506629916237618E8 ; 1.288226533497101E10 ; 0.0
73 ; 7904650.666829528 ; 2.0187063463345635E8 ; 5.585628327105019E8 ; 1.3084120951322083E10 ; 0.0
74 ; 7904205.23202637 ; 2.0188572301489073E8 ; 5.664674833773315E8 ; 1.328599158595554E10 ; 0.0
75 ; 7906272.069347639 ; 2.0190087838056922E8 ; 5.743716886093578E8 ; 1.348787730897043E10 ; 0.0
76 ; 7905577.239344714 ; 2.0191609770815027E8 ; 5.822779606787055E8 ; 1.3689778187351E10 ; 0.0
77 ; 7904619.025112471 ; 2.019313780647625E8 ; 5.901835379180502E8 ; 1.389169428505915E10 ; 0.0
78 ; 7901828.605110848 ; 2.0194671660407028E8 ; 5.980881569431627E8 ; 1.4093625663123913E10 ; 0.0
79 ; 7903454.018200932 ; 2.0196211056340405E8 ; 6.059899855482736E8 ; 1.4295572379727983E10 ; 0.0
80 ; 7898144.6677238 ; 2.0197755726095837E8 ; 6.138934395664744E8 ; 1.4497534490291388E10 ; 0.0
81 ; 7897316.045618061 ; 2.019930540930601E8 ; 6.217915842341982E8 ; 1.4699512047552345E10 ; 0.0
82 ; 7896888.804047566 ; 2.020085985315087E8 ; 6.296889002798163E8 ; 1.4901505101645405E10 ; 0.0
83 ; 7896284.543594441 ; 2.020241881209894E8 ; 6.375857890838639E8 ; 1.5103513700176914E10 ; 0.0
84 ; 7891009.359897565 ; 2.020398204765605E8 ; 6.454820736274583E8 ; 1.5305537888297903E10 ; 0.0
85 ; 7890840.247311679 ; 2.0205549328121448E8 ; 6.53373082987356E8 ; 1.5507577708774464E10 ; 0.0
86 ; 7886566.293725558 ; 2.0207120428351384E8 ; 6.612639232346677E8 ; 1.5709633202055677E10 ; 0.0
87 ; 7886674.0430017 ; 2.0208695129530007E8 ; 6.691504895283933E8 ; 1.5911704406339191E10 ; 0.0
88 ; 7883077.612507591 ; 2.021027321894763E8 ; 6.770371635713949E8 ; 1.6113791357634491E10 ; 0.0
89 ; 7880176.643599722 ; 2.0211854489786208E8 ; 6.849202411839025E8 ; 1.6315894089823967E10 ; 0.0
90 ; 7882051.005227259 ; 2.0213438740911907E8 ; 6.928004178275023E8 ; 1.6518012634721828E10 ; 0.0
91 ; 7876130.506664713 ; 2.021502577667475E8 ; 7.006824688327295E8 ; 1.6720147022130947E10 ; 0.0
92 ; 7874026.931945917 ; 2.0216615406715053E8 ; 7.085585993393942E8 ; 1.6922297279897696E10 ; 0.0
93 ; 7868463.3434683075 ; 2.0218207445776626E8 ; 7.164326262713401E8 ; 1.7124463433964846E10 ; 0.0
94 ; 7867888.571325363 ; 2.0219801713526526E8 ; 7.243010896148084E8 ; 1.732664550842261E10 ; 0.0
95 ; 7866812.87761313 ; 2.0221398034381217E8 ; 7.321689781861339E8 ; 1.7528843525557877E10 ; 0.0
96 ; 7860997.75972057 ; 2.0222996237338942E8 ; 7.40035791063747E8 ; 1.7731057505901688E10 ; 0.0
97 ; 7857685.728424898 ; 2.0224596155818203E8 ; 7.478967888234676E8 ; 1.7933287468275078E10 ; 0.0
98 ; 7855176.140507754 ; 2.0226197627502063E8 ; 7.557544745518925E8 ; 1.813553342983326E10 ; 0.0
99 ; 7853467.450117031 ; 2.022780049418822E8 ; 7.636096506924002E8 ; 1.833779540610828E10 ; 0.0
100 ; 7850462.477684346 ; 2.0229404601644582E8 ; 7.714631181425172E8 ; 1.8540073411050163E10 ; 0.0
101 ; 7848457.386500004 ; 2.023100979947021E8 ; 7.793135806202016E8 ; 1.874236745706661E10 ; 0.0
102 ; 7844468.240477877 ; 2.0232615940961456E8 ; 7.871620380067016E8 ; 1.894467755506131E10 ; 0.0
103 ; 7837773.1266041845 ; 2.0234222882983086E8 ; 7.950065062471795E8 ; 1.9147003714470924E10 ; 0.0
104 ; 7834915.426981578 ; 2.023583048584428E8 ; 8.028442793737837E8 ; 1.9349345943300755E10 ; 0.0
105 ; 7834607.514577641 ; 2.023743861317929E8 ; 8.106791948007653E8 ; 1.95517042481592E10 ; 0.0
106 ; 7829603.941936682 ; 2.0239047131832597E8 ; 8.185138023153429E8 ; 1.9754078634290993E10 ; 0.0
107 ; 7827192.386042459 ; 2.0240655911748442E8 ; 8.263434062572796E8 ; 1.9956469105609318E10 ; 0.0
108 ; 7818505.958492108 ; 2.024226482586454E8 ; 8.341705986433221E8 ; 2.0158875664726803E10 ; 0.0
109 ; 7816623.033861426 ; 2.024387375000981E8 ; 8.419891046018143E8 ; 2.0361298312985447E10 ; 0.0
110 ; 7811408.354618695 ; 2.0245482562806055E8 ; 8.498057276356757E8 ; 2.0563737050485546E10 ; 0.0
111 ; 7809461.848145668 ; 2.024709114557332E8 ; 8.576171359902943E8 ; 2.0766191876113605E10 ; 0.0
112 ; 7802965.812336676 ; 2.0248699382238904E8 ; 8.654265978384401E8 ; 2.096866278756934E10 ; 0.0
113 ; 7799586.189774447 ; 2.0250307159249806E8 ; 8.732295636507767E8 ; 2.1171149781391727E10 ; 0.0
114 ; 7795508.268368712 ; 2.0251914365488547E8 ; 8.810291498405511E8 ; 2.1373652852984226E10 ; 0.0
115 ; 7789878.346613342 ; 2.0253520892192155E8 ; 8.888246581089199E8 ; 2.157617199663911E10 ; 0.0
116 ; 7787987.404462085 ; 2.0255126632874283E8 ; 8.966145364555331E8 ; 2.177870720556103E10 ; 0.0
117 ; 7786322.945782298 ; 2.0256731483250248E8 ; 9.044025238599952E8 ; 2.1981258471889774E10 ; 0.0
118 ; 7778771.535937426 ; 2.0258335341164955E8 ; 9.121888468057775E8 ; 2.218382578672228E10 ; 0.0
119 ; 7775211.460598284 ; 2.025993810652354E8 ; 9.19967618341715E8 ; 2.2386409140133926E10 ; 0.0
120 ; 7770010.882857007 ; 2.026153968122466E8 ; 9.277428298023132E8 ; 2.258900852119916E10 ; 0.0
121 ; 7764872.005178537 ; 2.0263139969096297E8 ; 9.355128406851702E8 ; 2.279162391801141E10 ; 0.0
122 ; 7758232.571471647 ; 2.0264738875834003E8 ; 9.432777126903487E8 ; 2.2994255317702374E10 ; 0.0
123 ; 7755250.478638286 ; 2.0266336308941478E8 ; 9.510359452618204E8 ; 2.3196902706460712E10 ; 0.0
124 ; 7749400.092587309 ; 2.0267932177673388E8 ; 9.587911957404587E8 ; 2.339956606955013E10 ; 0.0
125 ; 7746671.829708942 ; 2.026952639298033E8 ; 9.665405958330461E8 ; 2.3602245391326862E10 ; 0.0
126 ; 7741903.122775908 ; 2.0271118867455885E8 ; 9.74287267662755E8 ; 2.3804940655256664E10 ; 0.0
127 ; 7735464.807039441 ; 2.0272709515285617E8 ; 9.820291707855309E8 ; 2.4007651843931225E10 ; 0.0
128 ; 7729986.874107491 ; 2.027429825219805E8 ; 9.897646355925704E8 ; 2.421037893908408E10 ; 0.0
129 ; 7725196.555724845 ; 2.027588499541739E8 ; 9.974946224666779E8 ; 2.441312192160606E10 ; 0.0
130 ; 7718140.113193291 ; 2.0277469663618085E8 ; 1.0052198190224028E9 ; 2.4615880771560234E10 ; 0.0
131 ; 7709979.431104928 ; 2.0279052176881024E8 ; 1.012937959135596E9 ; 2.4818655468196415E10 ; 0.0
132 ; 7703080.684455087 ; 2.028063245665139E8 ; 1.0206479385667009E9 ; 2.5021445989965225E10 ; 0.0
133 ; 7696889.236521094 ; 2.0282210425698048E8 ; 1.028351019251156E9 ; 2.522425231453174E10 ; 0.0
134 ; 7687060.986403353 ; 2.0283786008074448E8 ; 1.0360479084876771E9 ; 2.542707441878872E10 ; 0.0
135 ; 7681575.932041538 ; 2.0285359129080966E8 ; 1.0437349694740804E9 ; 2.5629912278869465E10 ; 0.0
136 ; 7670499.668701637 ; 2.0286929715228623E8 ; 1.051416545406122E9 ; 2.5832765870160275E10 ; 0.0
137 ; 7665000.2317206245 ; 2.0288497694204122E8 ; 1.0590870450748236E9 ; 2.603563516731256E10 ; 0.0
138 ; 7655616.6276280405 ; 2.0290062994836178E8 ; 1.0667520453065442E9 ; 2.62385201442546E10 ; 0.0
139 ; 7647245.445161647 ; 2.029162554706307E8 ; 1.0744076619341722E9 ; 2.644142077420296E10 ; 0.0
140 ; 7640827.448961598 ; 2.0293185281901363E8 ; 1.0820549073793337E9 ; 2.664433702967359E10 ; 0.0
141 ; 7630279.949302005 ; 2.0294742131415752E8 ; 1.0896957348282952E9 ; 2.6847268882492607E10 ; 0.0
142 ; 7623567.57070756 ; 2.0296296028690034E8 ; 1.0973260147775972E9 ; 2.7050216303806767E10 ; 0.0
143 ; 7614480.837736158 ; 2.0297846907799077E8 ; 1.1049495823483047E9 ; 2.7253179264093666E10 ; 0.0
144 ; 7607981.036275162 ; 2.029939470378182E8 ; 1.1125640631860409E9 ; 2.7456157733171658E10 ; 0.0
145 ; 7601551.123335065 ; 2.030093935261524E8 ; 1.120172044222316E9 ; 2.7659151680209476E10 ; 0.0
146 ; 7592908.73639877 ; 2.0302480791189232E8 ; 1.1277735953456511E9 ; 2.786216107373563E10 ; 0.0
147 ; 7589927.202032809 ; 2.0304018957282394E8 ; 1.1353665040820498E9 ; 2.8065185881647522E10 ; 0.0
148 ; 7580844.099369107 ; 2.0305553789538667E8 ; 1.1429564312840827E9 ; 2.8268226071220345E10 ; 0.0
149 ; 7576135.692628727 ; 2.03070852274448E8 ; 1.1505372753834517E9 ; 2.847128160911573E10 ; 0.0
150 ; 7571185.812061361 ; 2.0308613211308616E8 ; 1.1581134110760803E9 ; 2.867435246139018E10 ; 0.0
151 ; 7564569.527107551 ; 2.0310137682238013E8 ; 1.1656845968881416E9 ; 2.8877438593503265E10 ; 0.0
152 ; 7558086.4196546255 ; 2.0311658582120743E8 ; 1.173249166415249E9 ; 2.9080539970325645E10 ; 0.0
153 ; 7553161.069685867 ; 2.0313175853604868E8 ; 1.1808072528349037E9 ; 2.9283656556146854E10 ; 0.0
154 ; 7546844.461833381 ; 2.0314689440079895E8 ; 1.1883604139045897E9 ; 2.9486788314682903E10 ; 0.0
155 ; 7540983.081429528 ; 2.0316199285658583E8 ; 1.1959072583664231E9 ; 2.9689935209083702E10 ; 0.0
156 ; 7534092.849234852 ; 2.0317705335159364E8 ; 1.2034482414478526E9 ; 2.989309720194029E10 ; 0.0
157 ; 7528066.368711281 ; 2.0319207534089378E8 ; 1.2109823342970874E9 ; 3.009627425529188E10 ; 0.0
158 ; 7520553.389327488 ; 2.0320705828628087E8 ; 1.2185104006657987E9 ; 3.0299466330632774E10 ; 0.0
159 ; 7518169.682869646 ; 2.0322200165611455E8 ; 1.2260309540551262E9 ; 3.0502673388919056E10 ; 0.0
160 ; 7510668.156905093 ; 2.0323690492516652E8 ; 1.2335491237379959E9 ; 3.070589539057517E10 ; 0.0
161 ; 7503723.219691302 ; 2.0325176757447314E8 ; 1.241059791894901E9 ; 3.0909132295500336E10 ; 0.0
162 ; 7497278.562027911 ; 2.0326658909119266E8 ; 1.2485635151145923E9 ; 3.111238406307481E10 ; 0.0
163 ; 7491710.784818846 ; 2.0328136896846753E8 ; 1.2560607936766202E9 ; 3.1315650652166004E10 ; 0.0
164 ; 7484391.756587698 ; 2.0329610670529115E8 ; 1.2635525044614391E9 ; 3.151893202113447E10 ; 0.0
165 ; 7477820.881986457 ; 2.0331080180637935E8 ; 1.2710368962180269E9 ; 3.1722228127839764E10 ; 0.0
166 ; 7470912.242503459 ; 2.0332545378204605E8 ; 1.2785147171000133E9 ; 3.1925538929646145E10 ; 0.0
167 ; 7465695.671035772 ; 2.0334006214808303E8 ; 1.2859856293425167E9 ; 3.2128864383428192E10 ; 0.0
168 ; 7460241.465179691 ; 2.0335462642564374E8 ; 1.2934513250135524E9 ; 3.2332204445576275E10 ; 0.0
169 ; 7454665.468516931 ; 2.0336914614113116E8 ; 1.300911566478732E9 ; 3.253555907200192E10 ; 0.0
170 ; 7446732.586533597 ; 2.0338362082608902E8 ; 1.308366231947249E9 ; 3.273892821814305E10 ; 0.0
171 ; 7440680.252952717 ; 2.0339805001709706E8 ; 1.3158129645337825E9 ; 3.294231183896914E10 ; 0.0
172 ; 7434187.807531241 ; 2.0341243325566924E8 ; 1.3232536447867353E9 ; 3.3145709888986237E10 ; 0.0
173 ; 7425780.418710094 ; 2.0342677008815578E8 ; 1.3306878325942667E9 ; 3.3349122322241905E10 ; 0.0
174 ; 7425776.183332868 ; 2.034410600656482E8 ; 1.3381136130129766E9 ; 3.3552549092330063E10 ; 0.0
175 ; 7420791.243004663 ; 2.0345530274388725E8 ; 1.3455393891963096E9 ; 3.375599015239571E10 ; 0.0
176 ; 7413812.699508371 ; 2.0346949768317437E8 ; 1.3529601804393141E9 ; 3.39594454551396E10 ; 0.0
177 ; 7408895.489628096 ; 2.0348364444828546E8 ; 1.3603739931388226E9 ; 3.4162914952822773E10 ; 0.0
178 ; 7407013.553638624 ; 2.0349774260838792E8 ; 1.3677828886284506E9 ; 3.436639859727106E10 ; 0.0
179 ; 7402686.939942175 ; 2.0351179173695996E8 ; 1.3751899021820893E9 ; 3.456989633987945E10 ; 0.0
180 ; 7399912.9400794795 ; 2.0352579141171294E8 ; 1.3825925891220315E9 ; 3.477340813161641E10 ; 0.0
181 ; 7394797.7132198345 ; 2.0353974121451586E8 ; 1.389992502062111E9 ; 3.497693392302812E10 ; 0.0
182 ; 7390540.090554017 ; 2.035536407313225E8 ; 1.3973872997753308E9 ; 3.518047366424264E10 ; 0.0
183 ; 7386966.683169596 ; 2.035674895521007E8 ; 1.4047778398658848E9 ; 3.538402730497396E10 ; 0.0
184 ; 7381704.176255888 ; 2.0358128727076405E8 ; 1.4121648065490544E9 ; 3.558759479452606E10 ; 0.0
185 ; 7380494.204721858 ; 2.0359503348510587E8 ; 1.4195465107253103E9 ; 3.579117608179683E10 ; 0.0
186 ; 7377874.847013605 ; 2.036087277967349E8 ; 1.4269270049300323E9 ; 3.599477111528194E10 ; 0.0
187 ; 7373436.9958838215 ; 2.0362236981101343E8 ; 1.434304879777046E9 ; 3.6198379843078674E10 ; 0.0
188 ; 7367311.575253004 ; 2.036359591369972E8 ; 1.4416783167729297E9 ; 3.640200221288969E10 ; 0.0
189 ; 7363095.295828042 ; 2.0364949538737717E8 ; 1.4490456283481827E9 ; 3.660563817202668E10 ; 0.0
190 ; 7361233.214442437 ; 2.0366297817842332E8 ; 1.4564087236440108E9 ; 3.6809287667414055E10 ; 0.0
191 ; 7355567.57240379 ; 2.0367640712993E8 ; 1.4637699568584533E9 ; 3.7012950645592476E10 ; 0.0
192 ; 7350534.504235225 ; 2.03689781865163E8 ; 1.4711255244308572E9 ; 3.7216627052722404E10 ; 0.0
193 ; 7347528.61434464 ; 2.037031020108086E8 ; 1.4784760589350924E9 ; 3.742031683458757E10 ; 0.0
194 ; 7343051.4353771815 ; 2.0371636719692376E8 ; 1.485823587549437E9 ; 3.762401993659838E10 ; 0.0
195 ; 7337419.840516063 ; 2.037295770568882E8 ; 1.4931666389848142E9 ; 3.78277363037953E10 ; 0.0
196 ; 7335681.713747498 ; 2.037427312273578E8 ; 1.5005040588253303E9 ; 3.803146588085219E10 ; 0.0
197 ; 7330802.632483757 ; 2.0375582934821957E8 ; 1.5078397405390778E9 ; 3.8235208612079544E10 ; 0.0
198 ; 7326168.813238947 ; 2.037688710625479E8 ; 1.5151705431715615E9 ; 3.8438964441427765E10 ; 0.0
199 ; 7324751.469148891 ; 2.0378185601656216E8 ; 1.5224967119848003E9 ; 3.864273331249031E10 ; 0.0
200 ; 7318730.558378922 ; 1.8127108771274748E8 ; 1.5298214634539492E9 ; 3.8846515168506874E10 ; 0.0
