CSV File for the City 4 on Day 348
1 - Minute m 
2 - Power Consumed at minute m 
3 - Power Produced at minute m 
4 - Energy Consumed since the beginning of the day 
5 - Energy Produced since the beginning of the day 
6 - Energy Lost since the beginning of the day on lines starting from the city
 
0 ; 6831557.818685338 ; 1.0629866698514393E8 ; 0.0 ; 0.0 ; 0.0
1 ; 6842520.095310255 ; 1.0644924370381087E8 ; 6831557.818685338 ; 1.0629866698514393E8 ; 0.0
2 ; 6848991.59009604 ; 1.06908845247664E8 ; 1.3674077913995594E7 ; 2.127479106889548E8 ; 0.0
3 ; 6857238.029515974 ; 1.0767747529870194E8 ; 2.0523069504091635E7 ; 3.196567559366188E8 ; 0.0
4 ; 6864710.47438646 ; 1.0875513715159726E8 ; 2.738030753360761E7 ; 4.2733423123532075E8 ; 0.0
5 ; 6877440.452621674 ; 1.101418336971584E8 ; 3.424501800799407E7 ; 5.36089368386918E8 ; 0.0
6 ; 6893682.008688026 ; 1.118375674075689E8 ; 4.112245846061575E7 ; 6.462312020840764E8 ; 0.0
7 ; 6918093.739117162 ; 1.138423403235777E8 ; 4.801614046930377E7 ; 7.580687694916453E8 ; 0.0
8 ; 6952212.978283132 ; 1.1615615404379553E8 ; 5.493423420842093E7 ; 8.71911109815223E8 ; 0.0
9 ; 7000241.145784457 ; 1.1877900971622795E8 ; 6.188644718670406E7 ; 9.880672638590186E8 ; 0.0
10 ; 7078627.968550504 ; 1.2171090803215015E8 ; 6.888668833248852E7 ; 1.1068462735752466E9 ; 0.0
11 ; 7203548.606268743 ; 1.2495184922240081E8 ; 7.596531630103903E7 ; 1.2285571816073966E9 ; 0.0
12 ; 7398845.184127212 ; 1.2850183305614123E8 ; 8.316886490730777E7 ; 1.3535090308297975E9 ; 0.0
13 ; 7591773.978074057 ; 1.3236085884209621E8 ; 9.056771009143499E7 ; 1.4820108638859386E9 ; 0.0
14 ; 7614495.2258237805 ; 1.3652892543226027E8 ; 9.815948406950904E7 ; 1.614371722728035E9 ; 0.0
15 ; 7623586.497309619 ; 1.4100603122802258E8 ; 1.0577397929533282E8 ; 1.7509006481602952E9 ; 0.0
16 ; 7629903.6885165395 ; 1.457921741886343E8 ; 1.1339756579264244E8 ; 1.8919066793883178E9 ; 0.0
17 ; 7639589.014831388 ; 1.5088735184191182E8 ; 1.2102746948115899E8 ; 2.0376988535769522E9 ; 0.0
18 ; 7647667.974575624 ; 1.5629156129704672E8 ; 1.2866705849599038E8 ; 2.1885862054188643E9 ; 0.0
19 ; 7654949.180375435 ; 1.6200479925936642E8 ; 1.36314726470566E8 ; 2.344877766715911E9 ; 0.0
20 ; 7667828.5914861355 ; 1.680270620468723E8 ; 1.4396967565094143E8 ; 2.5068825659752774E9 ; 0.0
21 ; 7675358.066839218 ; 1.7435834560836503E8 ; 1.5163750424242756E8 ; 2.6749096280221496E9 ; 0.0
22 ; 7683149.494875378 ; 1.8099864554295433E8 ; 1.5931286230926678E8 ; 2.8492679736305146E9 ; 0.0
23 ; 7693718.616901705 ; 1.879479571207419E8 ; 1.6699601180414215E8 ; 3.030266619173469E9 ; 0.0
24 ; 7702411.535543417 ; 1.9520627530446178E8 ; 1.7468973042104384E8 ; 3.218214576294211E9 ; 0.0
25 ; 7713121.451463853 ; 2.0146163567004535E8 ; 1.8239214195658726E8 ; 3.413420851598673E9 ; 0.0
26 ; 7720070.528541343 ; 2.0146758046642518E8 ; 1.901052634080511E8 ; 3.6148824872687182E9 ; 0.0
27 ; 7729807.011533068 ; 2.014738731636656E8 ; 1.9782533393659246E8 ; 3.8163500677351437E9 ; 0.0
28 ; 7740137.833551906 ; 2.014805077230819E8 ; 2.0555514094812554E8 ; 4.0178239408988094E9 ; 0.0
29 ; 7745971.484461451 ; 2.0148747791376427E8 ; 2.1329527878167745E8 ; 4.2193044486218915E9 ; 0.0
30 ; 7753012.170148095 ; 2.0149477733561403E8 ; 2.210412502661389E8 ; 4.420791926535656E9 ; 0.0
31 ; 7762685.46043562 ; 2.01502399441977E8 ; 2.2879426243628702E8 ; 4.62228670387127E9 ; 0.0
32 ; 7770396.807571986 ; 2.0151033756173176E8 ; 2.3655694789672264E8 ; 4.823789103313247E9 ; 0.0
33 ; 7778304.671212807 ; 2.0151858492070478E8 ; 2.4432734470429462E8 ; 5.025299440874978E9 ; 0.0
34 ; 7787312.042885644 ; 2.0152713466230416E8 ; 2.521056493755074E8 ; 5.226818025795683E9 ; 0.0
35 ; 7792754.505656389 ; 2.015359798672788E8 ; 2.5989296141839305E8 ; 5.428345160457987E9 ; 0.0
36 ; 7801886.30419943 ; 2.015451135725282E8 ; 2.6768571592404944E8 ; 5.629881140325266E9 ; 0.0
37 ; 7806650.8131375145 ; 2.0155452878890362E8 ; 2.754876022282489E8 ; 5.831426253897794E9 ; 0.0
38 ; 7816430.058056553 ; 2.0156421851795647E8 ; 2.832942530413864E8 ; 6.032980782686697E9 ; 0.0
39 ; 7821104.824934422 ; 2.015741757676052E8 ; 2.9111068309944296E8 ; 6.234545001204654E9 ; 0.0
40 ; 7826373.250117623 ; 2.0158439356670424E8 ; 2.989317879243774E8 ; 6.436119176972259E9 ; 0.0
41 ; 7832528.373589934 ; 2.01594864978511E8 ; 3.06758161174495E8 ; 6.637703570538962E9 ; 0.0
42 ; 7841330.046642466 ; 2.0160558311305758E8 ; 3.145906895480849E8 ; 6.839298435517473E9 ; 0.0
43 ; 7842474.009164956 ; 2.0161654113844377E8 ; 3.224320195947274E8 ; 7.04090401863053E9 ; 0.0
44 ; 7847118.446171522 ; 2.016277322910748E8 ; 3.302744936038923E8 ; 7.242520559768974E9 ; 0.0
45 ; 7852640.623508763 ; 2.016391498848763E8 ; 3.3812161205006385E8 ; 7.444148292060049E9 ; 0.0
46 ; 7854748.687387944 ; 2.016507873195219E8 ; 3.459742526735726E8 ; 7.645787441944925E9 ; 0.0
47 ; 7860747.8322696565 ; 2.0166263808771628E8 ; 3.5382900136096054E8 ; 7.847438229264447E9 ; 0.0
48 ; 7863525.562857785 ; 2.0167469578157818E8 ; 3.616897491932302E8 ; 8.049100867352163E9 ; 0.0
49 ; 7866453.167515839 ; 2.016869540981708E8 ; 3.69553274756088E8 ; 8.250775563133741E9 ; 0.0
50 ; 7869867.54319069 ; 2.0169940684422943E8 ; 3.7741972792360383E8 ; 8.452462517231913E9 ; 0.0
51 ; 7873218.244668609 ; 2.0171204794013655E8 ; 3.8528959546679455E8 ; 8.654161924076141E9 ; 0.0
52 ; 7876064.24900316 ; 2.017248714231948E8 ; 3.9316281371146315E8 ; 8.855873972016277E9 ; 0.0
53 ; 7878506.49892351 ; 2.0173787145024866E8 ; 4.010388779604663E8 ; 9.057598843439472E9 ; 0.0
54 ; 7880998.318497227 ; 2.0175104229970407E8 ; 4.089173844593898E8 ; 9.25933671488972E9 ; 0.0
55 ; 7881458.040768739 ; 2.0176437837299496E8 ; 4.1679838277788705E8 ; 9.461087757189425E9 ; 0.0
56 ; 7883150.055776919 ; 2.017778741955431E8 ; 4.246798408186558E8 ; 9.66285213556242E9 ; 0.0
57 ; 7886240.244957319 ; 2.0179152441725704E8 ; 4.325629908744327E8 ; 9.864630009757963E9 ; 0.0
58 ; 7888812.29941131 ; 2.01805323812613E8 ; 4.4044923111939E8 ; 1.006642153417522E10 ; 0.0
59 ; 7887682.422563659 ; 2.01819267280359E8 ; 4.483380434188013E8 ; 1.0268226857987833E10 ; 0.0
60 ; 7891338.995628892 ; 2.0183334984288123E8 ; 4.56225725841365E8 ; 1.0470046125268192E10 ; 0.0
61 ; 7893219.331861086 ; 2.0184756664526907E8 ; 4.641170648369939E8 ; 1.0671879475111074E10 ; 0.0
62 ; 7895281.68018707 ; 2.0186191295411322E8 ; 4.7201028416885495E8 ; 1.0873727041756344E10 ; 0.0
63 ; 7897231.343127957 ; 2.0187638415606907E8 ; 4.79905565849042E8 ; 1.1075588954710457E10 ; 0.0
64 ; 7900486.076988469 ; 2.0189097575621483E8 ; 4.8780279719216996E8 ; 1.1277465338866526E10 ; 0.0
65 ; 7900021.129742427 ; 2.0190568337623203E8 ; 4.957032832691584E8 ; 1.147935631462274E10 ; 0.0
66 ; 7899214.828682093 ; 2.0192050275243396E8 ; 5.0360330439890087E8 ; 1.1681261997998972E10 ; 0.0
67 ; 7900323.384685971 ; 2.0193542973366517E8 ; 5.1150251922758293E8 ; 1.1883182500751406E10 ; 0.0
68 ; 7903839.325150259 ; 2.019504602790935E8 ; 5.194028426122689E8 ; 1.2085117930485071E10 ; 0.0
69 ; 7905207.656745911 ; 2.0196559045591393E8 ; 5.273066819374192E8 ; 1.2287068390764164E10 ; 0.0
70 ; 7906966.470172877 ; 2.0198081643698227E8 ; 5.352118895941651E8 ; 1.2489033981220078E10 ; 0.0
71 ; 7908016.99730394 ; 2.0199613449839413E8 ; 5.43118856064338E8 ; 1.269101479765706E10 ; 0.0
72 ; 7906980.305115521 ; 2.0201154101702443E8 ; 5.510268730616419E8 ; 1.2893010932155455E10 ; 0.0
73 ; 7907647.241579078 ; 2.020270324680395E8 ; 5.589338533667574E8 ; 1.309502247317248E10 ; 0.0
74 ; 7911805.475371873 ; 2.0204260542239422E8 ; 5.668415006083364E8 ; 1.3297049505640518E10 ; 0.0
75 ; 7913892.442105249 ; 2.020582565443237E8 ; 5.747533060837083E8 ; 1.3499092111062912E10 ; 0.0
76 ; 7912919.855541251 ; 2.0207398258883968E8 ; 5.826671985258136E8 ; 1.3701150367607235E10 ; 0.0
77 ; 7910777.764323903 ; 2.0208978039923853E8 ; 5.905801183813548E8 ; 1.3903224350196075E10 ; 0.0
78 ; 7908325.036085436 ; 2.021056469046292E8 ; 5.984908961456788E8 ; 1.4105314130595314E10 ; 0.0
79 ; 7909030.071347124 ; 2.0212157911748636E8 ; 6.063992211817642E8 ; 1.4307419777499943E10 ; 0.0
80 ; 7908318.080640746 ; 2.021375741312345E8 ; 6.143082512531114E8 ; 1.450954135661743E10 ; 0.0
81 ; 7905216.001813223 ; 2.0215362911786774E8 ; 6.222165693337522E8 ; 1.4711678930748665E10 ; 0.0
82 ; 7906372.790994549 ; 2.0216974132560888E8 ; 6.301217853355653E8 ; 1.4913832559866533E10 ; 0.0
83 ; 7900452.611198867 ; 2.021859080766114E8 ; 6.380281581265599E8 ; 1.5116002301192142E10 ; 0.0
84 ; 7899378.9305162905 ; 2.0220212676470697E8 ; 6.459286107377588E8 ; 1.5318188209268753E10 ; 0.0
85 ; 7898281.131325777 ; 2.022183948532008E8 ; 6.53827989668275E8 ; 1.552039033603346E10 ; 0.0
86 ; 7893586.246453587 ; 2.0223470987271637E8 ; 6.617262707996007E8 ; 1.5722608730886662E10 ; 0.0
87 ; 7893827.143496125 ; 2.022510694190915E8 ; 6.696198570460544E8 ; 1.5924843440759378E10 ; 0.0
88 ; 7891195.978592435 ; 2.0226747115132612E8 ; 6.775136841895505E8 ; 1.612709451017847E10 ; 0.0
89 ; 7889299.981149196 ; 2.0228391278958312E8 ; 6.854048801681429E8 ; 1.6329361981329796E10 ; 0.0
90 ; 7888140.618844299 ; 2.0230039211324212E8 ; 6.932941801492921E8 ; 1.6531645894119379E10 ; 0.0
91 ; 7881769.513356757 ; 2.023169069590066E8 ; 7.011823207681364E8 ; 1.673394628623262E10 ; 0.0
92 ; 7880286.289874485 ; 2.0233345521906465E8 ; 7.090640902814932E8 ; 1.6936263193191628E10 ; 0.0
93 ; 7877619.144771536 ; 2.0235003483930248E8 ; 7.169443765713676E8 ; 1.7138596648410692E10 ; 0.0
94 ; 7875534.004972589 ; 2.0236664381757075E8 ; 7.248219957161392E8 ; 1.7340946683249996E10 ; 0.0
95 ; 7875685.922170537 ; 2.023832802020031E8 ; 7.326975297211118E8 ; 1.7543313327067566E10 ; 0.0
96 ; 7869092.55030272 ; 2.0239994208938605E8 ; 7.405732156432823E8 ; 1.774569660726957E10 ; 0.0
97 ; 7864600.609408011 ; 2.0241662762357968E8 ; 7.48442308193585E8 ; 1.7948096549358955E10 ; 0.0
98 ; 7862929.56986893 ; 2.0243333499398816E8 ; 7.56306908802993E8 ; 1.8150513176982536E10 ; 0.0
99 ; 7861956.495501701 ; 2.0245006243407902E8 ; 7.64169838372862E8 ; 1.8352946511976524E10 ; 0.0
100 ; 7856494.914051682 ; 2.0246680821995044E8 ; 7.720317948683637E8 ; 1.8555396574410603E10 ; 0.0
101 ; 7854548.078424686 ; 2.0248357066894528E8 ; 7.798882897824154E8 ; 1.8757863382630554E10 ; 0.0
102 ; 7849798.220382341 ; 2.025003481383111E8 ; 7.877428378608401E8 ; 1.89603469532995E10 ; 0.0
103 ; 7847596.647853868 ; 2.025171390239043E8 ; 7.955926360812224E8 ; 1.916284730143781E10 ; 0.0
104 ; 7845339.301644518 ; 2.025339417589382E8 ; 8.034402327290763E8 ; 1.936536444046171E10 ; 0.0
105 ; 7841208.699992542 ; 2.0255075481277314E8 ; 8.112855720307208E8 ; 1.956789838222065E10 ; 0.0
106 ; 7834627.017320099 ; 2.0256757668974793E8 ; 8.191267807307134E8 ; 1.9770449137033424E10 ; 0.0
107 ; 7831140.095825876 ; 2.0258440592805105E8 ; 8.269614077480335E8 ; 1.997301671372317E10 ; 0.0
108 ; 7829361.167054353 ; 2.0260124109863073E8 ; 8.347925478438594E8 ; 2.0175601119651222E10 ; 0.0
109 ; 7827408.445938989 ; 2.026180808041427E8 ; 8.426219090109137E8 ; 2.037820236074985E10 ; 0.0
110 ; 7821379.356428541 ; 2.0263492367793456E8 ; 8.504493174568527E8 ; 2.0580820441553993E10 ; 0.0
111 ; 7818658.404464074 ; 2.02651768383065E8 ; 8.582706968132812E8 ; 2.0783455365231926E10 ; 0.0
112 ; 7815791.031867297 ; 2.0266861361135778E8 ; 8.660893552177453E8 ; 2.098610713361499E10 ; 0.0
113 ; 7809883.91323133 ; 2.0268545808248872E8 ; 8.739051462496126E8 ; 2.118877574722635E10 ; 0.0
114 ; 7804231.733481032 ; 2.027023005431044E8 ; 8.81715030162844E8 ; 2.1391461205308838E10 ; 0.0
115 ; 7800766.981158064 ; 2.0271913976597223E8 ; 8.89519261896325E8 ; 2.1594163505851944E10 ; 0.0
116 ; 7796263.363344218 ; 2.027359745491601E8 ; 8.97320028877483E8 ; 2.1796882645617916E10 ; 0.0
117 ; 7791306.856338674 ; 2.0275280371524534E8 ; 9.051162922408272E8 ; 2.1999618620167076E10 ; 0.0
118 ; 7788343.686691427 ; 2.0276962611055127E8 ; 9.129075990971658E8 ; 2.220237142388232E10 ; 0.0
119 ; 7783090.463367955 ; 2.027864406044109E8 ; 9.206959427838572E8 ; 2.240514104999287E10 ; 0.0
120 ; 7779116.660089245 ; 2.0280324608845663E8 ; 9.284790332472252E8 ; 2.2607927490597282E10 ; 0.0
121 ; 7773070.284673605 ; 2.02820041475935E8 ; 9.362581499073144E8 ; 2.2810730736685738E10 ; 0.0
122 ; 7770328.293707167 ; 2.028368257010458E8 ; 9.44031220191988E8 ; 2.3013550778161674E10 ; 0.0
123 ; 7762832.478823255 ; 2.0285359771830446E8 ; 9.518015484856951E8 ; 2.321638760386272E10 ; 0.0
124 ; 7757353.883638656 ; 2.0287035650192696E8 ; 9.595643809645184E8 ; 2.3419241201581024E10 ; 0.0
125 ; 7754123.495926287 ; 2.0288710104523668E8 ; 9.67321734848157E8 ; 2.362211155808295E10 ; 0.0
126 ; 7751069.379438968 ; 2.0290383036009187E8 ; 9.750758583440833E8 ; 2.382499865912819E10 ; 0.0
127 ; 7742733.785082365 ; 2.0292054347633374E8 ; 9.828269277235223E8 ; 2.402790248948828E10 ; 0.0
128 ; 7738699.661623273 ; 2.029372394412536E8 ; 9.905696615086046E8 ; 2.4230823032964615E10 ; 0.0
129 ; 7733895.94235838 ; 2.0295391731907907E8 ; 9.983083611702279E8 ; 2.443376027240587E10 ; 0.0
130 ; 7728246.230785086 ; 2.0297057619047827E8 ; 1.0060422571125863E9 ; 2.463671418972495E10 ; 0.0
131 ; 7720482.401824237 ; 2.029872151520814E8 ; 1.0137705033433714E9 ; 2.483968476591543E10 ; 0.0
132 ; 7716288.250213967 ; 2.030038333160192E8 ; 1.0214909857451956E9 ; 2.504267198106751E10 ; 0.0
133 ; 7708594.362755443 ; 2.0302042980947754E8 ; 1.0292072739954096E9 ; 2.524567581438353E10 ; 0.0
134 ; 7696013.252282092 ; 2.030370037742675E8 ; 1.036915868358165E9 ; 2.544869624419301E10 ; 0.0
135 ; 7688526.234017301 ; 2.0305355436641073E8 ; 1.0446118816104472E9 ; 2.5651733247967278E10 ; 0.0
136 ; 7683592.384853413 ; 2.0307008075573897E8 ; 1.0523004078444644E9 ; 2.5854786802333687E10 ; 0.0
137 ; 7673735.996658108 ; 2.030865821255077E8 ; 1.0599840002293178E9 ; 2.6057856883089424E10 ; 0.0
138 ; 7667159.634892041 ; 2.0310305767202318E8 ; 1.0676577362259759E9 ; 2.626094346521493E10 ; 0.0
139 ; 7659113.575922544 ; 2.031195066042823E8 ; 1.075324895860868E9 ; 2.6464046522886955E10 ; 0.0
140 ; 7648243.286741692 ; 2.0313592814362517E8 ; 1.0829840094367905E9 ; 2.6667166029491238E10 ; 0.0
141 ; 7637699.091832519 ; 2.0315232152339938E8 ; 1.0906322527235322E9 ; 2.687030195763486E10 ; 0.0
142 ; 7630561.749173589 ; 2.0316868598863605E8 ; 1.0982699518153648E9 ; 2.707345427915826E10 ; 0.0
143 ; 7621504.771358574 ; 2.0318502079573694E8 ; 1.1059005135645385E9 ; 2.7276622965146896E10 ; 0.0
144 ; 7613911.228157792 ; 2.0320132521217227E8 ; 1.113522018335897E9 ; 2.7479807985942635E10 ; 0.0
145 ; 7608156.881528699 ; 2.03217598516189E8 ; 1.1211359295640547E9 ; 2.7683009311154808E10 ; 0.0
146 ; 7603914.505923865 ; 2.0323383999652886E8 ; 1.1287440864455833E9 ; 2.7886226909670998E10 ; 0.0
147 ; 7596194.125886263 ; 2.0325004895215625E8 ; 1.136348000951507E9 ; 2.8089460749667526E10 ; 0.0
148 ; 7591388.893294169 ; 2.0326622469199508E8 ; 1.1439441950773933E9 ; 2.8292710798619682E10 ; 0.0
149 ; 7584555.102937033 ; 2.0328236653467488E8 ; 1.1515355839706874E9 ; 2.8495977023311676E10 ; 0.0
150 ; 7581084.79747647 ; 2.0329847380828518E8 ; 1.1591201390736244E9 ; 2.869925938984635E10 ; 0.0
151 ; 7573647.936774346 ; 2.0331454585013837E8 ; 1.166701223871101E9 ; 2.8902557863654636E10 ; 0.0
152 ; 7569541.363200342 ; 2.033305820065404E8 ; 1.1742748718078752E9 ; 2.9105872409504776E10 ; 0.0
153 ; 7563106.841509403 ; 2.0334658163256937E8 ; 1.1818444131710756E9 ; 2.930920299151132E10 ; 0.0
154 ; 7557429.204572374 ; 2.0336254409186137E8 ; 1.189407520012585E9 ; 2.9512549573143887E10 ; 0.0
155 ; 7549718.17035408 ; 2.033784687564034E8 ; 1.1969649492171574E9 ; 2.971591211723575E10 ; 0.0
156 ; 7542926.039511054 ; 2.0339435500633347E8 ; 1.2045146673875115E9 ; 2.9919290585992153E10 ; 0.0
157 ; 7539132.273313517 ; 2.0341020222974706E8 ; 1.2120575934270225E9 ; 3.0122684940998486E10 ; 0.0
158 ; 7532201.995973856 ; 2.034260098225101E8 ; 1.219596725700336E9 ; 3.0326095143228233E10 ; 0.0
159 ; 7525700.964135197 ; 2.0344177718807825E8 ; 1.2271289276963098E9 ; 3.0529521153050743E10 ; 0.0
160 ; 7519056.895603546 ; 2.0345750373732182E8 ; 1.234654628660445E9 ; 3.0732962930238823E10 ; 0.0
161 ; 7515651.929826206 ; 2.0347318888835683E8 ; 1.2421736855560486E9 ; 3.0936420433976143E10 ; 0.0
162 ; 7506478.724849457 ; 2.0348883206638128E8 ; 1.249689337485875E9 ; 3.11398936228645E10 ; 0.0
163 ; 7503582.883249276 ; 2.0350443270351696E8 ; 1.2571958162107244E9 ; 3.1343382454930878E10 ; 0.0
164 ; 7496591.046371523 ; 2.035199902386564E8 ; 1.2646993990939736E9 ; 3.1546886887634396E10 ; 0.0
165 ; 7488052.200436556 ; 2.035355041173148E8 ; 1.272195990140345E9 ; 3.175040687787305E10 ; 0.0
166 ; 7481505.071037591 ; 2.0355097379148656E8 ; 1.2796840423407817E9 ; 3.1953942381990364E10 ; 0.0
167 ; 7476795.222578386 ; 2.0356639871950683E8 ; 1.2871655474118192E9 ; 3.215749335578185E10 ; 0.0
168 ; 7469602.785492735 ; 2.035817783659172E8 ; 1.2946423426343975E9 ; 3.2361059754501354E10 ; 0.0
169 ; 7465588.882549506 ; 2.0359711220133594E8 ; 1.3021119454198902E9 ; 3.256464153286727E10 ; 0.0
170 ; 7455701.687077705 ; 2.0361239970233208E8 ; 1.3095775343024397E9 ; 3.2768238645068607E10 ; 0.0
171 ; 7451696.8489307575 ; 2.0362764035130408E8 ; 1.3170332359895175E9 ; 3.297185104477094E10 ; 0.0
172 ; 7443691.607188872 ; 2.0364283363636175E8 ; 1.3244849328384483E9 ; 3.3175478685122242E10 ; 0.0
173 ; 7437352.339766923 ; 2.0365797905121234E8 ; 1.3319286244456372E9 ; 3.3379121518758602E10 ; 0.0
174 ; 7435158.999473166 ; 2.036730760950502E8 ; 1.3393659767854042E9 ; 3.3582779497809814E10 ; 0.0
175 ; 7431795.168636386 ; 2.036881242724497E8 ; 1.3468011357848773E9 ; 3.3786452573904865E10 ; 0.0
176 ; 7425715.174385967 ; 2.0370312309326187E8 ; 1.3542329309535136E9 ; 3.3990140698177315E10 ; 0.0
177 ; 7423017.119739536 ; 2.037180720725141E8 ; 1.3616586461278996E9 ; 3.4193843821270576E10 ; 0.0
178 ; 7417703.967171184 ; 2.0373297073031288E8 ; 1.3690816632476392E9 ; 3.4397561893343094E10 ; 0.0
179 ; 7412692.352735294 ; 2.0374781859175003E8 ; 1.3764993672148104E9 ; 3.460129486407341E10 ; 0.0
180 ; 7410348.975964804 ; 2.0376261518681133E8 ; 1.3839120595675457E9 ; 3.480504268266516E10 ; 0.0
181 ; 7405158.559783054 ; 2.037773600502884E8 ; 1.3913224085435104E9 ; 3.5008805297851974E10 ; 0.0
182 ; 7400438.032557039 ; 2.0379205272169313E8 ; 1.3987275671032934E9 ; 3.521258265790226E10 ; 0.0
183 ; 7398241.531902484 ; 2.0380669274517485E8 ; 1.4061280051358504E9 ; 3.5416374710623955E10 ; 0.0
184 ; 7391216.130588972 ; 2.0382127966944006E8 ; 1.413526246667753E9 ; 3.562018140336913E10 ; 0.0
185 ; 7390893.690090801 ; 2.0383581304767454E8 ; 1.420917462798342E9 ; 3.5824002683038574E10 ; 0.0
186 ; 7385884.293928197 ; 2.0385029243746808E8 ; 1.428308356488433E9 ; 3.602783849608625E10 ; 0.0
187 ; 7382006.1612765975 ; 2.0386471740074137E8 ; 1.435694240782361E9 ; 3.623168878852372E10 ; 0.0
188 ; 7378172.663389078 ; 2.0387908750367507E8 ; 1.4430762469436376E9 ; 3.643555350592446E10 ; 0.0
189 ; 7374523.005009664 ; 2.038934023166414E8 ; 1.4504544196070266E9 ; 3.663943259342814E10 ; 0.0
190 ; 7368768.070370576 ; 2.0390766141413724E8 ; 1.4578289426120362E9 ; 3.684332599574478E10 ; 0.0
191 ; 7366432.097880114 ; 2.0392186437472E8 ; 1.465197710682407E9 ; 3.704723365715892E10 ; 0.0
192 ; 7363581.438568116 ; 2.0393601078094473E8 ; 1.472564142780287E9 ; 3.725115552153364E10 ; 0.0
193 ; 7355757.494516124 ; 2.0395010021930376E8 ; 1.4799277242188551E9 ; 3.745509153231458E10 ; 0.0
194 ; 7354481.287330188 ; 2.0396413228016764E8 ; 1.4872834817133713E9 ; 3.765904163253389E10 ; 0.0
195 ; 7352408.833940954 ; 2.0397810655772832E8 ; 1.4946379630007014E9 ; 3.786300576481406E10 ; 0.0
196 ; 7346953.684386091 ; 2.0399202264994374E8 ; 1.5019903718346424E9 ; 3.806698387137179E10 ; 0.0
197 ; 7343485.080540662 ; 2.0400588015848428E8 ; 1.5093373255190284E9 ; 3.827097589402173E10 ; 0.0
198 ; 7338895.997151816 ; 2.0401967868868065E8 ; 1.516680810599569E9 ; 3.8474981774180214E10 ; 0.0
199 ; 7334864.611611187 ; 2.0403341784947357E8 ; 1.524019706596721E9 ; 3.86790014528689E10 ; 0.0
200 ; 7330044.993420119 ; 1.702354880797843E8 ; 1.531354571208332E9 ; 3.888303487071837E10 ; 0.0
201 ; 7326950.920832918 ; 1.5522072329751328E8 ; 1.5386846162017522E9 ; 3.905327035879815E10 ; 0.0
