CSV File for the City 1 on Day 172
1 - Minute m 
2 - Power Consumed at minute m 
3 - Power Produced at minute m 
4 - Energy Consumed since the beginning of the day 
5 - Energy Produced since the beginning of the day 
6 - Energy Lost since the beginning of the day on lines starting from the city
 
0 ; 5014954.206881499 ; 1.0550983238510284E8 ; 0.0 ; 0.0 ; 0.0
1 ; 5030038.763953664 ; 1.0566276494291872E8 ; 5014954.206881499 ; 1.0550983238510284E8 ; 0.0
2 ; 5040095.898309461 ; 1.0612448061639556E8 ; 1.0044992970835164E7 ; 2.1117259732802156E8 ; 0.0
3 ; 5058889.135590752 ; 1.0689498103291553E8 ; 1.5085088869144626E7 ; 3.172970779444171E8 ; 0.0
4 ; 5081057.554445223 ; 1.0797426765300936E8 ; 2.0143978004735377E7 ; 4.2419205897733265E8 ; 0.0
5 ; 5106774.312618422 ; 1.0936234176155615E8 ; 2.52250355591806E7 ; 5.32166326630342E8 ; 0.0
6 ; 5142097.929218517 ; 1.1105920445987925E8 ; 3.0331809871799022E7 ; 6.415286683918982E8 ; 0.0
7 ; 5193763.444998794 ; 1.1306485665885007E8 ; 3.547390780101754E7 ; 7.525878728517774E8 ; 0.0
8 ; 5265699.5000682045 ; 1.1537929907309955E8 ; 4.066767124601633E7 ; 8.656527295106275E8 ; 0.0
9 ; 5384216.573683109 ; 1.180025322164222E8 ; 4.593337074608453E7 ; 9.810320285837271E8 ; 0.0
10 ; 5564157.990308883 ; 1.209345563984428E8 ; 5.131758731976764E7 ; 1.0990345608001494E9 ; 0.0
11 ; 5843964.102436035 ; 1.2417537172259507E8 ; 5.688174531007652E7 ; 1.2199691171985922E9 ; 0.0
12 ; 6307212.33706249 ; 1.2772497808544526E8 ; 6.2725709412512556E7 ; 1.3441444889211872E9 ; 0.0
13 ; 6747378.016860812 ; 1.3158337517736858E8 ; 6.903292174957505E7 ; 1.4718694670066323E9 ; 0.0
14 ; 6802649.646552999 ; 1.3575056248457062E8 ; 7.578029976643586E7 ; 1.603452842184001E9 ; 0.0
15 ; 6817232.5137608675 ; 1.4022653929242033E8 ; 8.258294941298886E7 ; 1.7392034046685715E9 ; 0.0
16 ; 6834302.506633362 ; 1.450113046900464E8 ; 8.940018192674972E7 ; 1.8794299439609919E9 ; 0.0
17 ; 6854529.862960353 ; 1.501048575761254E8 ; 9.623448443338308E7 ; 2.0244412486510382E9 ; 0.0
18 ; 6873681.3519680565 ; 1.5550719666577828E8 ; 1.0308901429634343E8 ; 2.174546106227164E9 ; 0.0
19 ; 6898015.277477117 ; 1.6121832049847427E8 ; 1.0996269564831148E8 ; 2.330053302892942E9 ; 0.0
20 ; 6911697.576105623 ; 1.672382274468312E8 ; 1.168607109257886E8 ; 2.491271623391416E9 ; 0.0
21 ; 6926128.915025924 ; 1.7356691572619167E8 ; 1.2377240850189422E8 ; 2.6585098508382473E9 ; 0.0
22 ; 6947190.0778297465 ; 1.8020438340484864E8 ; 1.3069853741692014E8 ; 2.832076766564439E9 ; 0.0
23 ; 6966868.086690386 ; 1.871506284147907E8 ; 1.3764572749474987E8 ; 3.0122811499692874E9 ; 0.0
24 ; 6985368.59170715 ; 1.9440564856283647E8 ; 1.4461259558144027E8 ; 3.199431778384078E9 ; 0.0
25 ; 7004617.6829686705 ; 2.0065748244021386E8 ; 1.515979641731474E8 ; 3.3938374269469147E9 ; 0.0
26 ; 7023173.14518237 ; 2.006596754709887E8 ; 1.586025818561161E8 ; 3.5944949093871284E9 ; 0.0
27 ; 7043427.698523586 ; 2.0066199444852066E8 ; 1.6562575500129846E8 ; 3.795154584858117E9 ; 0.0
28 ; 7057705.467351666 ; 2.0066443679369885E8 ; 1.7266918269982204E8 ; 3.995816579306638E9 ; 0.0
29 ; 7077481.5365641145 ; 2.0066699985946074E8 ; 1.797268881671737E8 ; 4.1964810161003366E9 ; 0.0
30 ; 7093453.645138604 ; 2.0066968094178727E8 ; 1.8680436970373783E8 ; 4.397148015959797E9 ; 0.0
31 ; 7109575.495281432 ; 2.0067247729034048E8 ; 1.9389782334887642E8 ; 4.597817696901585E9 ; 0.0
32 ; 7127786.225511023 ; 2.0067538611867723E8 ; 2.0100739884415784E8 ; 4.798490174191925E9 ; 0.0
33 ; 7145856.375033598 ; 2.0067840461398295E8 ; 2.0813518506966886E8 ; 4.999165560310602E9 ; 0.0
34 ; 7161371.5768745085 ; 2.0068152994628146E8 ; 2.1528104144470245E8 ; 5.199843964924585E9 ; 0.0
35 ; 7178903.850047594 ; 2.0068475927708676E8 ; 2.2244241302157694E8 ; 5.400525494870867E9 ; 0.0
36 ; 7191028.405278126 ; 2.0068808976747328E8 ; 2.2962131687162453E8 ; 5.601210254147954E9 ; 0.0
37 ; 7207707.081376981 ; 2.006915185855505E8 ; 2.3681234527690265E8 ; 5.801898343915427E9 ; 0.0
38 ; 7221853.312329545 ; 2.0069504291333562E8 ; 2.4402005235827962E8 ; 6.0025898625009775E9 ; 0.0
39 ; 7232435.7541978955 ; 2.0069865995302638E8 ; 2.5124190567060915E8 ; 6.203284905414313E9 ; 0.0
40 ; 7247525.597261939 ; 2.0070236693268165E8 ; 2.5847434142480704E8 ; 6.40398356536734E9 ; 0.0
41 ; 7254983.173517529 ; 2.007061611113242E8 ; 2.6572186702206898E8 ; 6.604685932300022E9 ; 0.0
42 ; 7269596.738415017 ; 2.007100397834834E8 ; 2.729768501955865E8 ; 6.805392093411346E9 ; 0.0
43 ; 7280933.419010017 ; 2.007140002832011E8 ; 2.802464469340015E8 ; 7.00610213319483E9 ; 0.0
44 ; 7291813.2111503165 ; 2.007180399875251E8 ; 2.8752738035301155E8 ; 7.206816133478031E9 ; 0.0
45 ; 7301179.57976572 ; 2.0072215631951824E8 ; 2.9481919356416184E8 ; 7.407534173465556E9 ; 0.0
46 ; 7305687.262125482 ; 2.00726346750812E8 ; 3.021203731439276E8 ; 7.608256329785074E9 ; 0.0
47 ; 7315678.37663881 ; 2.007306088037349E8 ; 3.0942606040605307E8 ; 7.808982676535886E9 ; 0.0
48 ; 7322645.687541427 ; 2.0073494005304614E8 ; 3.167417387826919E8 ; 8.009713285339621E9 ; 0.0
49 ; 7325652.666861206 ; 2.0073933812730446E8 ; 3.240643844702333E8 ; 8.210448225392667E9 ; 0.0
50 ; 7334047.46962672 ; 2.0074380070990312E8 ; 3.313900371370945E8 ; 8.411187563519971E9 ; 0.0
51 ; 7340463.615758165 ; 2.0074832553979966E8 ; 3.387240846067212E8 ; 8.611931364229874E9 ; 0.0
52 ; 7338956.148227701 ; 2.0075291041196904E8 ; 3.460645482224794E8 ; 8.812679689769672E9 ; 0.0
53 ; 7344480.075463365 ; 2.0075755317760757E8 ; 3.534035043707071E8 ; 9.01343260018164E9 ; 0.0
54 ; 7345841.028013127 ; 2.0076225174411282E8 ; 3.6074798444617045E8 ; 9.21419015335925E9 ; 0.0
55 ; 7353192.823327346 ; 2.007670040748651E8 ; 3.6809382547418356E8 ; 9.414952405103361E9 ; 0.0
56 ; 7358838.839436942 ; 2.0077180818883216E8 ; 3.754470182975109E8 ; 9.615719409178226E9 ; 0.0
57 ; 7358328.292556335 ; 2.007766621600196E8 ; 3.828058571369479E8 ; 9.816491217367058E9 ; 0.0
58 ; 7359515.789937567 ; 2.0078156411678627E8 ; 3.901641854295042E8 ; 1.0017267879527077E10 ; 0.0
59 ; 7364505.092630283 ; 2.007865122410435E8 ; 3.975237012194418E8 ; 1.0218049443643864E10 ; 0.0
60 ; 7368435.767305274 ; 2.0079150476735452E8 ; 4.0488820631207204E8 ; 1.0418835955884907E10 ; 0.0
61 ; 7374053.324568776 ; 2.007965399819501E8 ; 4.122566420793773E8 ; 1.0619627460652262E10 ; 0.0
62 ; 7377223.859362272 ; 2.0080161622167423E8 ; 4.1963069540394604E8 ; 1.0820424000634212E10 ; 0.0
63 ; 7378574.63257668 ; 2.0080673187287247E8 ; 4.270079192633083E8 ; 1.1021225616855886E10 ; 0.0
64 ; 7384636.646566853 ; 2.0081188537023485E8 ; 4.34386493895885E8 ; 1.122203234872876E10 ; 0.0
65 ; 7383484.872764342 ; 2.0081707519560343E8 ; 4.4177113054245186E8 ; 1.1422844234098995E10 ; 0.0
66 ; 7383630.511566108 ; 2.0082229987675393E8 ; 4.491546154152162E8 ; 1.16236613092946E10 ; 0.0
67 ; 7391306.050061191 ; 2.0082755798615962E8 ; 4.565382459267823E8 ; 1.1824483609171354E10 ; 0.0
68 ; 7391493.049057131 ; 2.0083284813974473E8 ; 4.639295519768435E8 ; 1.2025311167157515E10 ; 0.0
69 ; 7391852.756449153 ; 2.0083816899563408E8 ; 4.713210450259006E8 ; 1.2226144015297258E10 ; 0.0
70 ; 7399209.225982151 ; 2.0084351925290444E8 ; 4.7871289778234977E8 ; 1.2426982184292892E10 ; 0.0
71 ; 7393017.773894845 ; 2.008488976503423E8 ; 4.861121070083319E8 ; 1.2627825703545797E10 ; 0.0
72 ; 7398160.918016942 ; 2.008543029652129E8 ; 4.9350512478222674E8 ; 1.282867460119614E10 ; 0.0
73 ; 7402165.8617009055 ; 2.008597340120439E8 ; 5.009032857002437E8 ; 1.3029528904161354E10 ; 0.0
74 ; 7403762.662588972 ; 2.008651896414263E8 ; 5.083054515619446E8 ; 1.3230388638173397E10 ; 0.0
75 ; 7406108.4827469895 ; 2.0087066873883665E8 ; 5.1570921422453356E8 ; 1.3431253827814823E10 ; 0.0
76 ; 7405359.251270609 ; 2.0087617022348103E8 ; 5.231153227072806E8 ; 1.363212449655366E10 ; 0.0
77 ; 7405908.313787267 ; 2.0088169304716408E8 ; 5.3052068195855117E8 ; 1.383300066677714E10 ; 0.0
78 ; 7399927.707088552 ; 2.008872361931835E8 ; 5.379265902723384E8 ; 1.4033882359824305E10 ; 0.0
79 ; 7394928.831865382 ; 2.008927986752521E8 ; 5.45326517979427E8 ; 1.4234769596017488E10 ; 0.0
80 ; 7388928.2280173795 ; 2.008983795364473E8 ; 5.527214468112924E8 ; 1.4435662394692741E10 ; 0.0
81 ; 7388402.821187395 ; 2.0090397784818944E8 ; 5.601103750393097E8 ; 1.4636560774229189E10 ; 0.0
82 ; 7382970.419738035 ; 2.0090959270924935E8 ; 5.674987778604971E8 ; 1.483746475207738E10 ; 0.0
83 ; 7382088.555716372 ; 2.009152232447846E8 ; 5.748817482802352E8 ; 1.5038374344786629E10 ; 0.0
84 ; 7370641.212022051 ; 2.009208686054056E8 ; 5.822638368359516E8 ; 1.5239289568031414E10 ; 0.0
85 ; 7367090.491792508 ; 2.0092652796627066E8 ; 5.896344780479736E8 ; 1.544021043663682E10 ; 0.0
86 ; 7362043.58317678 ; 2.0093220052621013E8 ; 5.970015685397662E8 ; 1.564113696460309E10 ; 0.0
87 ; 7355172.196927781 ; 2.0093788550687942E8 ; 6.043636121229429E8 ; 1.5842069165129301E10 ; 0.0
88 ; 7347772.874992411 ; 2.0094358215194026E8 ; 6.117187843198707E8 ; 1.604300705063618E10 ; 0.0
89 ; 7347836.679742589 ; 2.0094928972626996E8 ; 6.190665571948631E8 ; 1.624395063278812E10 ; 0.0
90 ; 7339236.557680079 ; 2.009550075151982E8 ; 6.264143938746057E8 ; 1.644489992251439E10 ; 0.0
91 ; 7331493.305574156 ; 2.0096073482377028E8 ; 6.337536304322858E8 ; 1.6645854930029589E10 ; 0.0
92 ; 7324110.157958278 ; 2.0096647097603706E8 ; 6.4108512373786E8 ; 1.684681566485336E10 ; 0.0
93 ; 7323055.590078372 ; 2.0097221531437E8 ; 6.484092338958182E8 ; 1.7047782135829397E10 ; 0.0
94 ; 7311352.331988681 ; 2.0097796719880173E8 ; 6.557322894858966E8 ; 1.724875435114377E10 ; 0.0
95 ; 7305089.943586239 ; 2.0098372600639E8 ; 6.630436418178853E8 ; 1.744973231834257E10 ; 0.0
96 ; 7299927.913080576 ; 2.0098949113060614E8 ; 6.703487317614715E8 ; 1.765071604434896E10 ; 0.0
97 ; 7291813.436106341 ; 2.0099526198074546E8 ; 6.776486596745521E8 ; 1.785170553547957E10 ; 0.0
98 ; 7284447.98229055 ; 2.0100103798136023E8 ; 6.849404731106584E8 ; 1.8052700797460316E10 ; 0.0
99 ; 7277145.729926772 ; 2.0100681857171407E8 ; 6.922249210929489E8 ; 1.8253701835441677E10 ; 0.0
100 ; 7270269.850135289 ; 2.010126032052569E8 ; 6.995020668228757E8 ; 1.845470865401339E10 ; 0.0
101 ; 7262246.927075025 ; 2.0101839134911978E8 ; 7.067723366730111E8 ; 1.8655721257218647E10 ; 0.0
102 ; 7257576.240292276 ; 2.0102418248362944E8 ; 7.140345836000861E8 ; 1.885673964856777E10 ; 0.0
103 ; 7244719.466884061 ; 2.0102997610184103E8 ; 7.212921598403784E8 ; 1.90577638310514E10 ; 0.0
104 ; 7240389.85362451 ; 2.0103577170908916E8 ; 7.285368793072624E8 ; 1.925879380715324E10 ; 0.0
105 ; 7230184.743632764 ; 2.0104156882255605E8 ; 7.357772691608869E8 ; 1.9459829578862328E10 ; 0.0
106 ; 7224456.940746281 ; 2.0104736697085643E8 ; 7.430074539045197E8 ; 1.9660871147684883E10 ; 0.0
107 ; 7211954.461220872 ; 2.0105316569363856E8 ; 7.50231910845266E8 ; 1.986191851465574E10 ; 0.0
108 ; 7206223.115196342 ; 2.0105896454120076E8 ; 7.574438653064868E8 ; 2.0062971680349377E10 ; 0.0
109 ; 7196920.166792686 ; 2.0106476307412252E8 ; 7.646500884216832E8 ; 2.026403064489058E10 ; 0.0
110 ; 7187291.634561041 ; 2.0107056086291024E8 ; 7.718470085884758E8 ; 2.0465095407964703E10 ; 0.0
111 ; 7176743.981074952 ; 2.0107635748765674E8 ; 7.790343002230369E8 ; 2.0666165968827614E10 ; 0.0
112 ; 7175376.992466171 ; 2.0108215253771362E8 ; 7.862110442041118E8 ; 2.086724232631527E10 ; 0.0
113 ; 7162377.435941867 ; 2.010879456113767E8 ; 7.93386421196578E8 ; 2.106832447885298E10 ; 0.0
114 ; 7150491.3170927605 ; 2.0109373631558365E8 ; 8.005487986325198E8 ; 2.126941242446436E10 ; 0.0
115 ; 7143479.036081453 ; 2.0109952426562297E8 ; 8.076992899496126E8 ; 2.147050616077994E10 ; 0.0
116 ; 7134171.62831927 ; 2.0110530908485484E8 ; 8.14842768985694E8 ; 2.1671605685045563E10 ; 0.0
117 ; 7120346.7277349355 ; 2.0111109040444213E8 ; 8.219769406140133E8 ; 2.1872710994130417E10 ; 0.0
118 ; 7111838.0523026055 ; 2.011168678630924E8 ; 8.290972873417482E8 ; 2.207382208453486E10 ; 0.0
119 ; 7104629.805921025 ; 2.011226411068093E8 ; 8.362091253940508E8 ; 2.227493895239795E10 ; 0.0
120 ; 7094292.141896027 ; 2.011284097886541E8 ; 8.433137551999719E8 ; 2.2476061593504757E10 ; 0.0
121 ; 7088022.8743724115 ; 2.01134173568516E8 ; 8.504080473418679E8 ; 2.267719000329341E10 ; 0.0
122 ; 7073394.251182685 ; 2.0113993211289135E8 ; 8.574960702162403E8 ; 2.2878324176861927E10 ; 0.0
123 ; 7063002.600567145 ; 2.0114568509467146E8 ; 8.64569464467423E8 ; 2.307946410897482E10 ; 0.0
124 ; 7049466.637320981 ; 2.011514321929384E8 ; 8.716324670679901E8 ; 2.3280609794069492E10 ; 0.0
125 ; 7042957.06596523 ; 2.011571730927687E8 ; 8.786819337053111E8 ; 2.3481761226262432E10 ; 0.0
126 ; 7034396.500027866 ; 2.0116290748504436E8 ; 8.857248907712762E8 ; 2.36829183993552E10 ; 0.0
127 ; 7022760.190124965 ; 2.0116863506627128E8 ; 8.927592872713041E8 ; 2.3884081306840244E10 ; 0.0
128 ; 7009569.367837348 ; 2.0117435553840435E8 ; 8.997820474614291E8 ; 2.4085249941906517E10 ; 0.0
129 ; 6995698.820543322 ; 2.0118006860867926E8 ; 9.067916168292664E8 ; 2.428642429744492E10 ; 0.0
130 ; 6980620.133696803 ; 2.0118577398945075E8 ; 9.137873156498097E8 ; 2.44876043660536E10 ; 0.0
131 ; 6967544.706834444 ; 2.011914713980367E8 ; 9.207679357835065E8 ; 2.4688790140043053E10 ; 0.0
132 ; 6950366.138988564 ; 2.0119716055656826E8 ; 9.27735480490341E8 ; 2.488998161144109E10 ; 0.0
133 ; 6929894.44670792 ; 2.0120284119184566E8 ; 9.346858466293296E8 ; 2.5091178771997658E10 ; 0.0
134 ; 6915533.190070475 ; 2.0120851303519914E8 ; 9.416157410760375E8 ; 2.5292381613189503E10 ; 0.0
135 ; 6896336.09427962 ; 2.012141758223552E8 ; 9.48531274266108E8 ; 2.54935901262247E10 ; 0.0
136 ; 6878628.438322901 ; 2.0121982929330796E8 ; 9.554276103603877E8 ; 2.5694804302047054E10 ; 0.0
137 ; 6858869.072055826 ; 2.01225473192195E8 ; 9.623062387987106E8 ; 2.5896024131340363E10 ; 0.0
138 ; 6845854.997376506 ; 2.012311072671779E8 ; 9.691651078707664E8 ; 2.609724960453256E10 ; 0.0
139 ; 6824688.252053632 ; 2.012367312703273E8 ; 9.76010962868143E8 ; 2.6298480711799736E10 ; 0.0
140 ; 6804231.839338522 ; 2.01242344957512E8 ; 9.828356511201966E8 ; 2.6499717443070065E10 ; 0.0
141 ; 6788852.066023096 ; 2.0124794808829212E8 ; 9.896398829595351E8 ; 2.6700959788027576E10 ; 0.0
142 ; 6770170.403370947 ; 2.0125354042581633E8 ; 9.964287350255582E8 ; 2.6902207736115868E10 ; 0.0
143 ; 6755083.611574204 ; 2.012591217367226E8 ; 1.0031989054289292E9 ; 2.7103461276541683E10 ; 0.0
144 ; 6735785.941140744 ; 2.0126469179104266E8 ; 1.0099539890405034E9 ; 2.7304720398278404E10 ; 0.0
145 ; 6722794.417872522 ; 2.012702503621099E8 ; 1.0166897749816442E9 ; 2.7505985090069447E10 ; 0.0
146 ; 6708643.852020974 ; 2.0127579722647062E8 ; 1.0234125693995167E9 ; 2.7707255340431557E10 ; 0.0
147 ; 6700373.487656809 ; 2.012813321637983E8 ; 1.0301212132515377E9 ; 2.7908531137658028E10 ; 0.0
148 ; 6686026.591218174 ; 2.0128685495681116E8 ; 1.0368215867391945E9 ; 2.8109812469821827E10 ; 0.0
149 ; 6676888.373147041 ; 2.012923653911925E8 ; 1.0435076133304127E9 ; 2.8311099324778637E10 ; 0.0
150 ; 6661358.871450735 ; 2.0129786325551394E8 ; 1.0501845017035598E9 ; 2.851239169016983E10 ; 0.0
151 ; 6655309.35477586 ; 2.0130334834116134E8 ; 1.0568458605750105E9 ; 2.8713689553425343E10 ; 0.0
152 ; 6641911.72098198 ; 2.0130882044226342E8 ; 1.0635011699297864E9 ; 2.8914992901766502E10 ; 0.0
153 ; 6623573.793508806 ; 2.013142793556228E8 ; 1.0701430816507684E9 ; 2.9116301722208767E10 ; 0.0
154 ; 6614821.482434893 ; 2.0131972488064948E8 ; 1.0767666554442773E9 ; 2.931761600156439E10 ; 0.0
155 ; 6608233.673879778 ; 2.013251568192966E8 ; 1.0833814769267123E9 ; 2.9518935726445038E10 ; 0.0
156 ; 6589374.362872724 ; 2.0133057497599864E8 ; 1.0899897106005921E9 ; 2.9720260883264336E10 ; 0.0
157 ; 6584368.538624083 ; 2.0133597915761155E8 ; 1.096579084963465E9 ; 2.9921591458240334E10 ; 0.0
158 ; 6567252.933025784 ; 2.01341369173355E8 ; 1.103163453502089E9 ; 3.0122927437397945E10 ; 0.0
159 ; 6555498.78818959 ; 2.0134674483475676E8 ; 1.1097307064351149E9 ; 3.03242688065713E10 ; 0.0
160 ; 6546173.761807395 ; 2.0135210595559874E8 ; 1.1162862052233045E9 ; 3.0525615551406055E10 ; 0.0
161 ; 6531569.772781658 ; 2.013574523518652E8 ; 1.122832378985112E9 ; 3.0726967657361652E10 ; 0.0
162 ; 6517300.2015616605 ; 2.0136278384169245E8 ; 1.1293639487578936E9 ; 3.0928325109713516E10 ; 0.0
163 ; 6507669.558760565 ; 2.0136810024532047E8 ; 1.1358812489594553E9 ; 3.112968789355521E10 ; 0.0
164 ; 6495404.931495458 ; 2.0137340138504595E8 ; 1.142388918518216E9 ; 3.133105599380053E10 ; 0.0
165 ; 6481033.615932133 ; 2.0137868708517727E8 ; 1.1488843234497113E9 ; 3.1532429395185574E10 ; 0.0
166 ; 6471685.693636027 ; 2.0138395717199066E8 ; 1.1553653570656435E9 ; 3.1733808082270752E10 ; 0.0
167 ; 6459921.754212104 ; 2.0138921147368798E8 ; 1.1618370427592795E9 ; 3.193519203944274E10 ; 0.0
168 ; 6448173.107363492 ; 2.0139444982035592E8 ; 1.1682969645134916E9 ; 3.2136581250916428E10 ; 0.0
169 ; 6432759.250158581 ; 2.0139967204392663E8 ; 1.174745137620855E9 ; 3.2337975700736782E10 ; 0.0
170 ; 6422270.133530252 ; 2.0140487797813943E8 ; 1.1811778968710136E9 ; 3.253937537278071E10 ; 0.0
171 ; 6407014.452460685 ; 2.0141006745850423E8 ; 1.1876001670045438E9 ; 3.2740780250758846E10 ; 0.0
172 ; 6393603.743718612 ; 2.014152403222656E8 ; 1.1940071814570045E9 ; 3.294219031821735E10 ; 0.0
173 ; 6384439.821953545 ; 2.0142039640836853E8 ; 1.2004007852007232E9 ; 3.3143605558539616E10 ; 0.0
174 ; 6376405.165673911 ; 2.0142553555742505E8 ; 1.2067852250226767E9 ; 3.3345025954947983E10 ; 0.0
175 ; 6365884.6853499245 ; 2.0143065761168203E8 ; 1.2131616301883507E9 ; 3.354645149050541E10 ; 0.0
176 ; 6358738.808416238 ; 2.0143576241499E8 ; 1.2195275148737006E9 ; 3.3747882148117092E10 ; 0.0
177 ; 6341951.187214188 ; 2.0144084981277308E8 ; 1.2258862536821167E9 ; 3.394931791053208E10 ; 0.0
178 ; 6337970.629342442 ; 2.014459196519998E8 ; 1.232228204869331E9 ; 3.4150758760344856E10 ; 0.0
179 ; 6327111.059332206 ; 2.0145097178115484E8 ; 1.2385661754986734E9 ; 3.4352204679996857E10 ; 0.0
180 ; 6317439.498357442 ; 2.0145600605021188E8 ; 1.2448932865580056E9 ; 3.4553655651778015E10 ; 0.0
181 ; 6307344.796888964 ; 2.014610223106071E8 ; 1.251210726056363E9 ; 3.4755111657828224E10 ; 0.0
182 ; 6300612.782916354 ; 2.0146602041521373E8 ; 1.2575180708532522E9 ; 3.495657268013883E10 ; 0.0
183 ; 6286939.772724081 ; 2.014710002183172E8 ; 1.2638186836361685E9 ; 3.515803870055405E10 ; 0.0
184 ; 6280451.370248892 ; 2.014759615755914E8 ; 1.2701056234088926E9 ; 3.535950970077236E10 ; 0.0
185 ; 6271360.987908964 ; 2.0148090434407535E8 ; 1.2763860747791414E9 ; 3.556098566234795E10 ; 0.0
186 ; 6262636.881033168 ; 2.0148582838215095E8 ; 1.2826574357670505E9 ; 3.576246656669203E10 ; 0.0
187 ; 6252450.053242882 ; 2.0149073354952112E8 ; 1.2889200726480837E9 ; 3.596395239507418E10 ; 0.0
188 ; 6241510.773825528 ; 2.01495619707189E8 ; 1.2951725227013266E9 ; 3.61654431286237E10 ; 0.0
189 ; 6236219.6941526355 ; 2.0150048671743742E8 ; 1.3014140334751523E9 ; 3.6366938748330894E10 ; 0.0
190 ; 6221467.871817684 ; 2.0150533444380933E8 ; 1.3076502531693048E9 ; 3.656843923504833E10 ; 0.0
191 ; 6216237.317177082 ; 2.015101627510887E8 ; 1.3138717210411224E9 ; 3.676994456949214E10 ; 0.0
192 ; 6205158.487457708 ; 2.0151497150528213E8 ; 1.3200879583582995E9 ; 3.697145473224323E10 ; 0.0
193 ; 6193896.242016224 ; 2.0151976057360086E8 ; 1.3262931168457572E9 ; 3.717296970374851E10 ; 0.0
194 ; 6183827.3160067955 ; 2.0152452982444346E8 ; 1.3324870130877736E9 ; 3.737448946432211E10 ; 0.0
195 ; 6171097.707882215 ; 2.015292791273792E8 ; 1.3386708404037805E9 ; 3.757601399414655E10 ; 0.0
196 ; 6171163.625759825 ; 2.015340083531317E8 ; 1.3448419381116626E9 ; 3.777754327327393E10 ; 0.0
197 ; 6155176.902340601 ; 2.015387173735632E8 ; 1.3510131017374225E9 ; 3.797907728162707E10 ; 0.0
198 ; 6149885.678813135 ; 2.0154340606165928E8 ; 1.357168278639763E9 ; 3.818061599900063E10 ; 0.0
199 ; 6136854.044646154 ; 2.0154807429151425E8 ; 1.3633181643185763E9 ; 3.8382159405062294E10 ; 0.0
200 ; 6131372.424685745 ; 2.0155272193831664E8 ; 1.3694550183632226E9 ; 3.8583707479353806E10 ; 0.0
201 ; 6116059.100446769 ; 1.886465125665987E8 ; 1.3755863907879083E9 ; 3.878526020129212E10 ; 0.0
