CSV File for the City 4 on Day 83
1 - Minute m 
2 - Power Consumed at minute m 
3 - Power Produced at minute m 
4 - Energy Consumed since the beginning of the day 
5 - Energy Produced since the beginning of the day 
6 - Energy Lost since the beginning of the day on lines starting from the city
 
0 ; 6830065.404141298 ; 1.0614410409156618E8 ; 0.0 ; 0.0 ; 0.0
1 ; 6834980.1412624195 ; 1.0629462473301971E8 ; 6830065.404141298 ; 1.0614410409156618E8 ; 0.0
2 ; 6842263.60419893 ; 1.067541740557501E8 ; 1.3665045545403717E7 ; 2.1243872882458588E8 ; 0.0
3 ; 6851768.075619402 ; 1.0752275639309639E8 ; 2.0507309149602648E7 ; 3.19192902880336E8 ; 0.0
4 ; 6861876.263584536 ; 1.0860037563214916E8 ; 2.735907722522205E7 ; 4.267156592734324E8 ; 0.0
5 ; 6871562.597031838 ; 1.0998703519098622E8 ; 3.422095348880659E7 ; 5.3531603490558153E8 ; 0.0
6 ; 6887909.386761512 ; 1.1168273799824867E8 ; 4.109251608583843E7 ; 6.453030700965677E8 ; 0.0
7 ; 6913799.355735032 ; 1.1368748647533774E8 ; 4.798042547259994E7 ; 7.569858080948164E8 ; 0.0
8 ; 6946641.7054555975 ; 1.1600128252148175E8 ; 5.489422482833497E7 ; 8.706732945701542E8 ; 0.0
9 ; 6993805.549396304 ; 1.1862412750188851E8 ; 6.184086653379057E7 ; 9.86674577091636E8 ; 0.0
10 ; 7074317.60351402 ; 1.2155602223915493E8 ; 6.883467208318688E7 ; 1.1052987045935245E9 ; 0.0
11 ; 7195182.924747974 ; 1.2479696700806138E8 ; 7.59089896867009E7 ; 1.2268547268326793E9 ; 0.0
12 ; 7394483.528819909 ; 1.2834696153382745E8 ; 8.310417261144887E7 ; 1.3516516938407407E9 ; 0.0
13 ; 7585048.267284168 ; 1.3220600499385625E8 ; 9.049865614026877E7 ; 1.4799986553745682E9 ; 0.0
14 ; 7607381.8329734355 ; 1.3637409602294004E8 ; 9.808370440755294E7 ; 1.6122046603684244E9 ; 0.0
15 ; 7614412.82991201 ; 1.408512327218504E8 ; 1.0569108624052638E8 ; 1.7485787563913646E9 ; 0.0
16 ; 7625131.191124413 ; 1.456374126691862E8 ; 1.1330549907043839E8 ; 1.889429989113215E9 ; 0.0
17 ; 7635347.008262009 ; 1.5073263293630627E8 ; 1.209306302615628E8 ; 2.035067401782401E9 ; 0.0
18 ; 7642513.9893721165 ; 1.5613689010513282E8 ; 1.285659772698248E8 ; 2.1858000347187076E9 ; 0.0
19 ; 7651694.465190328 ; 1.6185018028857526E8 ; 1.362084912591969E8 ; 2.34193692482384E9 ; 0.0
20 ; 7658975.424352501 ; 1.6787249915329453E8 ; 1.4386018572438723E8 ; 2.5037871051124153E9 ; 0.0
21 ; 7668907.809211982 ; 1.74203841944504E8 ; 1.5151916114873973E8 ; 2.67165960426571E9 ; 0.0
22 ; 7678566.469813228 ; 1.8084420351248908E8 ; 1.591880689579517E8 ; 2.8458634462102137E9 ; 0.0
23 ; 7685167.758585062 ; 1.877935783405155E8 ; 1.6686663542776492E8 ; 3.026707649722703E9 ; 0.0
24 ; 7695672.397287001 ; 1.950519605737965E8 ; 1.7455180318635E8 ; 3.2145012280632186E9 ; 0.0
25 ; 7702514.160350122 ; 2.0130738494737616E8 ; 1.82247475583637E8 ; 3.4095531886370153E9 ; 0.0
26 ; 7713605.52561965 ; 2.0131339285313937E8 ; 1.899499897439871E8 ; 3.6108605735843916E9 ; 0.0
27 ; 7724664.447915455 ; 2.013197468949441E8 ; 1.9766359526960677E8 ; 3.812173966437531E9 ; 0.0
28 ; 7730006.279396355 ; 2.0132644016545388E8 ; 2.0538825971752223E8 ; 4.013493713332475E9 ; 0.0
29 ; 7740068.879264447 ; 2.0133346556901586E8 ; 2.131182659969186E8 ; 4.214820153497929E9 ; 0.0
30 ; 7745921.999552417 ; 2.013408158506322E8 ; 2.2085833487618303E8 ; 4.416153619066945E9 ; 0.0
31 ; 7755387.177824686 ; 2.0134848362406427E8 ; 2.2860425687573546E8 ; 4.617494434917578E9 ; 0.0
32 ; 7763917.398462297 ; 2.0135646139889082E8 ; 2.3635964405356014E8 ; 4.818842918541642E9 ; 0.0
33 ; 7769388.880560443 ; 2.013647416063715E8 ; 2.4412356145202243E8 ; 5.020199379940533E9 ; 0.0
34 ; 7777761.855608622 ; 2.0137331662399352E8 ; 2.518929503325829E8 ; 5.221564121546905E9 ; 0.0
35 ; 7788119.825096197 ; 2.01382178798608E8 ; 2.596707121881915E8 ; 5.422937438170898E9 ; 0.0
36 ; 7791380.206855287 ; 2.0139132046808726E8 ; 2.674588320132877E8 ; 5.624319616969506E9 ; 0.0
37 ; 7798836.306214043 ; 2.0140073398145813E8 ; 2.7525021222014296E8 ; 5.825710937437593E9 ; 0.0
38 ; 7807060.049527966 ; 2.014104117174895E8 ; 2.83049048526357E8 ; 6.027111671419051E9 ; 0.0
39 ; 7815216.527276929 ; 2.0142034610173032E8 ; 2.9085610857588494E8 ; 6.22852208313654E9 ; 0.0
40 ; 7819387.171871769 ; 2.0143052962201267E8 ; 2.986713251031619E8 ; 6.429942429238271E9 ; 0.0
41 ; 7823928.610282289 ; 2.014409548424493E8 ; 3.0649071227503365E8 ; 6.631372958860284E9 ; 0.0
42 ; 7828914.280504238 ; 2.0145161441596767E8 ; 3.1431464088531595E8 ; 6.832813913702733E9 ; 0.0
43 ; 7835719.621550931 ; 2.014625010954328E8 ; 3.221435551658202E8 ; 7.034265528118701E9 ; 0.0
44 ; 7842516.03652403 ; 2.0147360774341983E8 ; 3.299792747873711E8 ; 7.235728029214134E9 ; 0.0
45 ; 7845568.369034609 ; 2.0148492734070408E8 ; 3.3782179082389516E8 ; 7.437201636957554E9 ; 0.0
46 ; 7849347.29574943 ; 2.0149645299354008E8 ; 3.4566735919292974E8 ; 7.638686564298258E9 ; 0.0
47 ; 7852673.144576932 ; 2.0150817793980494E8 ; 3.535167064886792E8 ; 7.840183017291798E9 ; 0.0
48 ; 7857949.664876104 ; 2.0152009555408332E8 ; 3.613693796332561E8 ; 8.041691195231603E9 ; 0.0
49 ; 7858075.666652393 ; 2.0153219935177088E8 ; 3.692273292981322E8 ; 8.243211290785686E9 ; 0.0
50 ; 7859031.812217634 ; 2.0154448299227345E8 ; 3.7708540496478456E8 ; 8.444743490137457E9 ; 0.0
51 ; 7867096.377529291 ; 2.015569402813775E8 ; 3.849444367770022E8 ; 8.64628797312973E9 ; 0.0
52 ; 7865760.633547609 ; 2.01569565172865E8 ; 3.928115331545315E8 ; 8.847844913411108E9 ; 0.0
53 ; 7870127.954670767 ; 2.015823517694439E8 ; 4.006772937880791E8 ; 9.049414478583973E9 ; 0.0
54 ; 7869068.417111988 ; 2.0159529432306162E8 ; 4.0854742174274987E8 ; 9.250996830353416E9 ; 0.0
55 ; 7875131.634987279 ; 2.0160838723466608E8 ; 4.1641649015986186E8 ; 9.452592124676477E9 ; 0.0
56 ; 7877204.520931153 ; 2.0162162505347478E8 ; 4.2429162179484916E8 ; 9.654200511911144E9 ; 0.0
57 ; 7878745.2983708 ; 2.0163500247580898E8 ; 4.321688263157803E8 ; 9.855822136964619E9 ; 0.0
58 ; 7879948.658016724 ; 2.0164851434354606E8 ; 4.4004757161415106E8 ; 1.0057457139440428E10 ; 0.0
59 ; 7879775.769350248 ; 2.016621556422393E8 ; 4.479275202721678E8 ; 1.0259105653783974E10 ; 0.0
60 ; 7883075.964994247 ; 2.0167592149895063E8 ; 4.5580729604151803E8 ; 1.0460767809426212E10 ; 0.0
61 ; 7883225.486480967 ; 2.016898071798383E8 ; 4.636903720065123E8 ; 1.0662443730925163E10 ; 0.0
62 ; 7888554.278322402 ; 2.017038080875375E8 ; 4.7157359749299324E8 ; 1.0864133538105001E10 ; 0.0
63 ; 7888558.527288923 ; 2.0171791975836912E8 ; 4.7946215177131563E8 ; 1.106583734619254E10 ; 0.0
64 ; 7890747.078325493 ; 2.0173213785940817E8 ; 4.8735071029860455E8 ; 1.1267555265950909E10 ; 0.0
65 ; 7891893.317624173 ; 2.017464581854404E8 ; 4.9524145737693006E8 ; 1.1469287403810316E10 ; 0.0
66 ; 7894781.898681123 ; 2.0176087665583292E8 ; 5.031333506945542E8 ; 1.1671033861995756E10 ; 0.0
67 ; 7894107.759564382 ; 2.017753893113418E8 ; 5.110281325932353E8 ; 1.1872794738651588E10 ; 0.0
68 ; 7895158.983356805 ; 2.0178999231087735E8 ; 5.189222403527997E8 ; 1.207457012796293E10 ; 0.0
69 ; 7896750.390333508 ; 2.0180468192824495E8 ; 5.2681739933615655E8 ; 1.2276360120273808E10 ; 0.0
70 ; 7896267.374917801 ; 2.018194545488778E8 ; 5.347141497264901E8 ; 1.2478164802202053E10 ; 0.0
71 ; 7896761.5622693775 ; 2.0183430666657594E8 ; 5.426104171014079E8 ; 1.267998425675093E10 ; 0.0
72 ; 7899127.732129008 ; 2.0184923488026288E8 ; 5.505071786636772E8 ; 1.2881818563417507E10 ; 0.0
73 ; 7901467.046986938 ; 2.0186423589077213E8 ; 5.584063063958062E8 ; 1.308366779829777E10 ; 0.0
74 ; 7902456.768253312 ; 2.0187930649767125E8 ; 5.663077734427931E8 ; 1.3285532034188541E10 ; 0.0
75 ; 7901426.943398075 ; 2.0189444359613225E8 ; 5.742102302110465E8 ; 1.3487411340686213E10 ; 0.0
76 ; 7901984.569220068 ; 2.0190964417385495E8 ; 5.821116571544446E8 ; 1.3689305784282345E10 ; 0.0
77 ; 7902623.841766316 ; 2.0192490530804837E8 ; 5.900136417236646E8 ; 1.38912154284562E10 ; 0.0
78 ; 7903264.960227653 ; 2.0194022416247517E8 ; 5.97916265565431E8 ; 1.4093140333764248E10 ; 0.0
79 ; 7899461.895415284 ; 2.0195559798456278E8 ; 6.058195305256586E8 ; 1.4295080557926723E10 ; 0.0
80 ; 7895357.836544107 ; 2.019710241025841E8 ; 6.137189924210739E8 ; 1.4497036155911285E10 ; 0.0
81 ; 7897557.307797743 ; 2.0198649992290998E8 ; 6.216143502576181E8 ; 1.469900718001387E10 ; 0.0
82 ; 7893728.725964899 ; 2.0200202292733526E8 ; 6.295119075654159E8 ; 1.490099367993678E10 ; 0.0
83 ; 7892472.792391068 ; 2.020175906704794E8 ; 6.374056362913808E8 ; 1.5102995702864117E10 ; 0.0
84 ; 7891043.0985062355 ; 2.0203320077726206E8 ; 6.452981090837718E8 ; 1.5305013293534595E10 ; 0.0
85 ; 7885900.328416227 ; 2.0204885094045478E8 ; 6.53189152182278E8 ; 1.5507046494311857E10 ; 0.0
86 ; 7885581.86084387 ; 2.0206453891830707E8 ; 6.610750525106943E8 ; 1.5709095345252312E10 ; 0.0
87 ; 7883254.054923988 ; 2.0208026253224802E8 ; 6.689606343715382E8 ; 1.5911159884170618E10 ; 0.0
88 ; 7881523.347672094 ; 2.0209601966466182E8 ; 6.768438884264622E8 ; 1.6113240146702866E10 ; 0.0
89 ; 7877109.95056642 ; 2.0211180825673652E8 ; 6.847254117741343E8 ; 1.6315336166367527E10 ; 0.0
90 ; 7873900.735394531 ; 2.0212762630638465E8 ; 6.926025217247007E8 ; 1.6517447974624264E10 ; 0.0
91 ; 7871559.062048692 ; 2.0214347186623505E8 ; 7.004764224600952E8 ; 1.6719575600930649E10 ; 0.0
92 ; 7871132.433413248 ; 2.0215934304169363E8 ; 7.083479815221438E8 ; 1.6921719072796885E10 ; 0.0
93 ; 7868639.007056179 ; 2.0217523798907226E8 ; 7.162191139555571E8 ; 1.7123878415838577E10 ; 0.0
94 ; 7862132.437014967 ; 2.021911549137837E8 ; 7.240877529626133E8 ; 1.732605365382765E10 ; 0.0
95 ; 7860080.319074551 ; 2.022070920686012E8 ; 7.319498853996283E8 ; 1.7528244808741432E10 ; 0.0
96 ; 7861121.135381079 ; 2.022230477519808E8 ; 7.398099657187028E8 ; 1.773045190081003E10 ; 0.0
97 ; 7853770.448144818 ; 2.0223902030644485E8 ; 7.476710868540839E8 ; 1.793267494856201E10 ; 0.0
98 ; 7852224.436406752 ; 2.0225500811702454E8 ; 7.555248573022287E8 ; 1.8134913968868458E10 ; 0.0
99 ; 7848547.919829872 ; 2.0227100960976008E8 ; 7.633770817386354E8 ; 1.833716897698548E10 ; 0.0
100 ; 7844410.586686551 ; 2.0228702325025663E8 ; 7.712256296584653E8 ; 1.853943998659524E10 ; 0.0
101 ; 7843237.812997998 ; 2.0230304754229382E8 ; 7.790700402451518E8 ; 1.8741727009845497E10 ; 0.0
102 ; 7839316.497559074 ; 2.0231908102648768E8 ; 7.869132780581498E8 ; 1.894403005738779E10 ; 0.0
103 ; 7834520.376746152 ; 2.023351222790027E8 ; 7.947525945557089E8 ; 1.914634913841428E10 ; 0.0
104 ; 7832174.031846552 ; 2.0235116991031274E8 ; 8.025871149324551E8 ; 1.9348684260693283E10 ; 0.0
105 ; 7828437.802129685 ; 2.0236722256400862E8 ; 8.104192889643016E8 ; 1.9551035430603596E10 ; 0.0
106 ; 7823943.33465911 ; 2.023832789156512E8 ; 8.182477267664312E8 ; 1.9753402653167603E10 ; 0.0
107 ; 7822261.919103089 ; 2.0239933767166793E8 ; 8.260716701010903E8 ; 1.9955785932083252E10 ; 0.0
108 ; 7817578.185599934 ; 2.0241539756829163E8 ; 8.338939320201935E8 ; 2.015818526975492E10 ; 0.0
109 ; 7815456.445764389 ; 2.0243145737053952E8 ; 8.417115102057934E8 ; 2.036060066732321E10 ; 0.0
110 ; 7808858.294956567 ; 2.0244751587123156E8 ; 8.495269666515578E8 ; 2.0563032124693752E10 ; 0.0
111 ; 7803755.395770222 ; 2.0246357189004612E8 ; 8.573358249465144E8 ; 2.0765479640564983E10 ; 0.0
112 ; 7802060.741492713 ; 2.0247962427261174E8 ; 8.651395803422846E8 ; 2.096794321245503E10 ; 0.0
113 ; 7798401.889788656 ; 2.0249567188963383E8 ; 8.729416410837773E8 ; 2.1170422836727642E10 ; 0.0
114 ; 7795763.133912715 ; 2.0251171363605464E8 ; 8.807400429735659E8 ; 2.1372918508617275E10 ; 0.0
115 ; 7787892.944061787 ; 2.0252774843024528E8 ; 8.885358061074786E8 ; 2.157543022225333E10 ; 0.0
116 ; 7785484.858507552 ; 2.0254377521322888E8 ; 8.963236990515404E8 ; 2.1777957970683575E10 ; 0.0
117 ; 7777954.357931843 ; 2.025597929479331E8 ; 9.041091839100479E8 ; 2.1980501745896805E10 ; 0.0
118 ; 7778573.725595115 ; 2.025758006184715E8 ; 9.118871382679797E8 ; 2.2183061538844738E10 ; 0.0
119 ; 7771435.625066057 ; 2.02591797229452E8 ; 9.196657119935749E8 ; 2.238563733946321E10 ; 0.0
120 ; 7766169.736468374 ; 2.0260778180531192E8 ; 9.274371476186409E8 ; 2.258822913669266E10 ; 0.0
121 ; 7764348.374775788 ; 2.0262375338967812E8 ; 9.352033173551092E8 ; 2.2790836918497974E10 ; 0.0
122 ; 7758234.3352219695 ; 2.0263971104475155E8 ; 9.42967665729885E8 ; 2.2993460671887653E10 ; 0.0
123 ; 7755096.249499474 ; 2.0265565385071507E8 ; 9.50725900065107E8 ; 2.3196100382932404E10 ; 0.0
124 ; 7749887.671437165 ; 2.0267158090516365E8 ; 9.584809963146064E8 ; 2.339875603678312E10 ; 0.0
125 ; 7743532.869350672 ; 2.0268749132255626E8 ; 9.662308839860436E8 ; 2.3601427617688282E10 ; 0.0
126 ; 7737270.860182924 ; 2.0270338423368815E8 ; 9.739744168553942E8 ; 2.3804115109010838E10 ; 0.0
127 ; 7733640.654643162 ; 2.027192587851832E8 ; 9.817116877155771E8 ; 2.4006818493244526E10 ; 0.0
128 ; 7729079.264543259 ; 2.0273511413900512E8 ; 9.894453283702203E8 ; 2.420953775202971E10 ; 0.0
129 ; 7722491.307484749 ; 2.0275094947198728E8 ; 9.971744076347636E8 ; 2.4412272866168713E10 ; 0.0
130 ; 7713626.086471308 ; 2.0276676397537968E8 ; 1.0048968989422483E9 ; 2.46150238156407E10 ; 0.0
131 ; 7707624.29374667 ; 2.0278255685441318E8 ; 1.0126105250287197E9 ; 2.481779057961608E10 ; 0.0
132 ; 7700312.023416034 ; 2.0279832732787964E8 ; 1.0203181493224664E9 ; 2.5020573136470493E10 ; 0.0
133 ; 7690905.5345489085 ; 2.028140746277278E8 ; 1.0280184613458824E9 ; 2.5223371463798374E10 ; 0.0
134 ; 7682256.643196006 ; 2.028297979986741E8 ; 1.0357093668804313E9 ; 2.54261855384261E10 ; 0.0
135 ; 7676259.887092382 ; 2.028454966978277E8 ; 1.0433916235236273E9 ; 2.5629015336424774E10 ; 0.0
136 ; 7670334.735110819 ; 2.028611699943295E8 ; 1.0510678834107196E9 ; 2.58318608331226E10 ; 0.0
137 ; 7658550.39706442 ; 2.0287681716900426E8 ; 1.0587382181458304E9 ; 2.6034722003116932E10 ; 0.0
138 ; 7649722.978181266 ; 2.0289243751402548E8 ; 1.0663967685428948E9 ; 2.6237598820285934E10 ; 0.0
139 ; 7641244.773674392 ; 2.0290803033259252E8 ; 1.0740464915210762E9 ; 2.644049125779996E10 ; 0.0
140 ; 7634875.126599911 ; 2.029235949386194E8 ; 1.0816877362947507E9 ; 2.6643399288132553E10 ; 0.0
141 ; 7628397.600889367 ; 2.02939130656435E8 ; 1.0893226114213507E9 ; 2.684632288307117E10 ; 0.0
142 ; 7616945.315768763 ; 2.0295463682049406E8 ; 1.0969510090222402E9 ; 2.7049262013727608E10 ; 0.0
143 ; 7609098.4894002 ; 2.0297011277509832E8 ; 1.1045679543380089E9 ; 2.7252216650548103E10 ; 0.0
144 ; 7600933.467751963 ; 2.0298555787412837E8 ; 1.112177052827409E9 ; 2.74551867633232E10 ; 0.0
145 ; 7592996.236332804 ; 2.0300097148078418E8 ; 1.119777986295161E9 ; 2.765817232119733E10 ; 0.0
146 ; 7587215.090387749 ; 2.0301635296733573E8 ; 1.127370982531494E9 ; 2.7861173292678116E10 ; 0.0
147 ; 7584276.918505172 ; 2.0303170171488208E8 ; 1.1349581976218817E9 ; 2.806418964564545E10 ; 0.0
148 ; 7575120.60194476 ; 2.0304701711311898E8 ; 1.142542474540387E9 ; 2.8267221347360332E10 ; 0.0
149 ; 7571686.288816318 ; 2.0306229856011498E8 ; 1.1501175951423316E9 ; 2.847026836447345E10 ; 0.0
150 ; 7566409.217652469 ; 2.0307754546209517E8 ; 1.1576892814311478E9 ; 2.8673330663033566E10 ; 0.0
151 ; 7559975.131750435 ; 2.0309275723323268E8 ; 1.1652556906488004E9 ; 2.887640820849566E10 ; 0.0
152 ; 7555122.4846968 ; 2.0310793329544738E8 ; 1.1728156657805507E9 ; 2.9079500965728893E10 ; 0.0
153 ; 7546483.171106589 ; 2.0312307307821175E8 ; 1.1803707882652476E9 ; 2.928260889902434E10 ; 0.0
154 ; 7542861.639842752 ; 2.0313817601836348E8 ; 1.1879172714363542E9 ; 2.9485731972102554E10 ; 0.0
155 ; 7537792.692986879 ; 2.0315324155992442E8 ; 1.195460133076197E9 ; 2.968887014812092E10 ; 0.0
156 ; 7528528.792328624 ; 2.03168269153926E8 ; 1.2029979257691839E9 ; 2.9892023389680843E10 ; 0.0
157 ; 7522994.098275247 ; 2.031832582582407E8 ; 1.2105264545615125E9 ; 3.009519165883477E10 ; 0.0
158 ; 7515429.420921286 ; 2.0319820833741903E8 ; 1.2180494486597877E9 ; 3.029837491709301E10 ; 0.0
159 ; 7512361.861171903 ; 2.0321311886253253E8 ; 1.225564878080709E9 ; 3.0501573125430428E10 ; 0.0
160 ; 7506865.242494477 ; 2.0322798931102172E8 ; 1.233077239941881E9 ; 3.070478624429296E10 ; 0.0
161 ; 7500678.181263752 ; 2.032428191665496E8 ; 1.2405841051843755E9 ; 3.090801423360398E10 ; 0.0
162 ; 7495059.947101122 ; 2.0325760791885984E8 ; 1.2480847833656392E9 ; 3.111125705277053E10 ; 0.0
163 ; 7485287.866047611 ; 2.0327235506364006E8 ; 1.2555798433127403E9 ; 3.1314514660689392E10 ; 0.0
164 ; 7480100.864679304 ; 2.0328706010238934E8 ; 1.263065131178788E9 ; 3.1517787015753033E10 ; 0.0
165 ; 7472168.202997584 ; 2.0330172254229072E8 ; 1.2705452320434673E9 ; 3.1721074075855423E10 ; 0.0
166 ; 7466602.130730489 ; 2.0331634189608747E8 ; 1.278017400246465E9 ; 3.1924375798397713E10 ; 0.0
167 ; 7459524.800665809 ; 2.0333091768196386E8 ; 1.2854840023771954E9 ; 3.21276921402938E10 ; 0.0
168 ; 7455339.622432233 ; 2.0334544942342982E8 ; 1.2929435271778612E9 ; 3.2331023057975765E10 ; 0.0
169 ; 7446786.137442564 ; 2.033599366492093E8 ; 1.3003988668002934E9 ; 3.2534368507399197E10 ; 0.0
170 ; 7442843.625298843 ; 2.0337437889313245E8 ; 1.307845652937736E9 ; 3.2737728444048405E10 ; 0.0
171 ; 7436258.87392966 ; 2.033887756940316E8 ; 1.3152884965630348E9 ; 3.2941102822941536E10 ; 0.0
172 ; 7427101.15142235 ; 2.0340312659564018E8 ; 1.3227247554369645E9 ; 3.3144491598635567E10 ; 0.0
173 ; 7420953.643074895 ; 2.0341743114649537E8 ; 1.3301518565883868E9 ; 3.334789472523121E10 ; 0.0
174 ; 7416458.829855035 ; 2.0343168889984384E8 ; 1.3375728102314618E9 ; 3.3551312156377705E10 ; 0.0
175 ; 7412592.6708509475 ; 2.034458994135505E8 ; 1.3449892690613167E9 ; 3.375474384527755E10 ; 0.0
176 ; 7409322.958528627 ; 2.0346006225001028E8 ; 1.3524018617321677E9 ; 3.39581897446911E10 ; 0.0
177 ; 7406740.216943835 ; 2.0347417697606292E8 ; 1.3598111846906962E9 ; 3.4161649806941113E10 ; 0.0
178 ; 7402675.919045049 ; 2.0348824316291028E8 ; 1.36721792490764E9 ; 3.4365123983917175E10 ; 0.0
179 ; 7398679.69850058 ; 2.0350226038603652E8 ; 1.374620600826685E9 ; 3.4568612227080086E10 ; 0.0
180 ; 7391404.385646499 ; 2.0351622822513068E8 ; 1.3820192805251856E9 ; 3.4772114487466125E10 ; 0.0
181 ; 7392233.863665253 ; 2.0353014626401213E8 ; 1.3894106849108322E9 ; 3.497563071569125E10 ; 0.0
182 ; 7386168.137848558 ; 2.0354401409055787E8 ; 1.3968029187744975E9 ; 3.517916086195527E10 ; 0.0
183 ; 7381897.835327177 ; 2.0355783129663268E8 ; 1.4041890869123461E9 ; 3.538270487604583E10 ; 0.0
184 ; 7379073.837732091 ; 2.035715974780212E8 ; 1.4115709847476733E9 ; 3.558626270734246E10 ; 0.0
185 ; 7373901.268425228 ; 2.035853122343622E8 ; 1.4189500585854053E9 ; 3.578983430482048E10 ; 0.0
186 ; 7368839.260245568 ; 2.0359897516908517E8 ; 1.4263239598538306E9 ; 3.599341961705484E10 ; 0.0
187 ; 7366068.314471043 ; 2.0361258588934863E8 ; 1.4336927991140761E9 ; 3.619701859222392E10 ; 0.0
188 ; 7363537.9459175235 ; 2.0362614400598052E8 ; 1.4410588674285471E9 ; 3.640063117811327E10 ; 0.0
189 ; 7359320.388119806 ; 2.0363964913342065E8 ; 1.4484224053744648E9 ; 3.6604257322119255E10 ; 0.0
190 ; 7353271.763908459 ; 2.0365310088966462E8 ; 1.4557817257625844E9 ; 3.680789697125268E10 ; 0.0
191 ; 7348639.421271254 ; 2.0366649889620984E8 ; 1.4631349975264928E9 ; 3.701155007214234E10 ; 0.0
192 ; 7344880.979777649 ; 2.0367984277800304E8 ; 1.4704836369477642E9 ; 3.721521657103855E10 ; 0.0
193 ; 7342217.873715444 ; 2.036931321633894E8 ; 1.4778285179275417E9 ; 3.741889641381655E10 ; 0.0
194 ; 7339583.882333535 ; 2.0370636668406364E8 ; 1.4851707358012571E9 ; 3.762258954597994E10 ; 0.0
195 ; 7333744.309526403 ; 2.0371954597502202E8 ; 1.4925103196835907E9 ; 3.782629591266401E10 ; 0.0
196 ; 7328449.135970912 ; 2.0373266967451644E8 ; 1.499844063993117E9 ; 3.803001545863903E10 ; 0.0
197 ; 7325965.343135496 ; 2.0374573742400956E8 ; 1.507172513129088E9 ; 3.8233748128313545E10 ; 0.0
198 ; 7322416.548469679 ; 2.0375874886813158E8 ; 1.5144984784722235E9 ; 3.843749386573756E10 ; 0.0
199 ; 7318839.26806058 ; 2.0377170365463817E8 ; 1.5218208950206933E9 ; 3.864125261460569E10 ; 0.0
200 ; 7315020.185966366 ; 1.8173330835618547E8 ; 1.529139734288754E9 ; 3.884502431826033E10 ; 0.0
201 ; 7308319.215852641 ; 1.549574486423564E8 ; 1.5364547544747202E9 ; 3.9026757626616516E10 ; 0.0
