CSV File for the City 1 on Day 258
1 - Minute m 
2 - Power Consumed at minute m 
3 - Power Produced at minute m 
4 - Energy Consumed since the beginning of the day 
5 - Energy Produced since the beginning of the day 
6 - Energy Lost since the beginning of the day on lines starting from the city
 
0 ; 4847108.231804247 ; 1.0546070968480197E8 ; 0.0 ; 0.0 ; 0.0
1 ; 4865677.536781842 ; 1.0561358407834738E8 ; 4847108.231804247 ; 1.0546070968480197E8 ; 0.0
2 ; 4877517.117020268 ; 1.0607524644238392E8 ; 9712785.768586088 ; 2.1107429376314935E8 ; 0.0
3 ; 4891757.277177101 ; 1.0684569880450433E8 ; 1.4590302885606356E7 ; 3.1714954020553327E8 ; 0.0
4 ; 4914963.932655092 ; 1.0792494299109983E8 ; 1.948206016278346E7 ; 4.239952390100376E8 ; 0.0
5 ; 4942020.299317434 ; 1.0931298061414629E8 ; 2.439702409543855E7 ; 5.3192018200113744E8 ; 0.0
6 ; 4974259.195771928 ; 1.1100981305924305E8 ; 2.9339044394755986E7 ; 6.412331626152837E8 ; 0.0
7 ; 5027653.461442479 ; 1.1301544147510737E8 ; 3.4313303590527914E7 ; 7.522429756745268E8 ; 0.0
8 ; 5103044.027087778 ; 1.153298667647056E8 ; 3.934095705197039E7 ; 8.652584171496341E8 ; 0.0
9 ; 5218258.132479263 ; 1.1795308957818097E8 ; 4.444400107905817E7 ; 9.805882839143398E8 ; 0.0
10 ; 5399122.012048992 ; 1.2088511030770582E8 ; 4.9662259211537436E7 ; 1.0985413734925208E9 ; 0.0
11 ; 5681394.1799931275 ; 1.2412592908435383E8 ; 5.5061381223586425E7 ; 1.2194264838002267E9 ; 0.0
12 ; 6140903.948831713 ; 1.276755457770513E8 ; 6.0742775403579555E7 ; 1.3435524128845806E9 ; 0.0
13 ; 6586466.639867931 ; 1.3153395999362588E8 ; 6.688367935241127E7 ; 1.4712279586616318E9 ; 0.0
14 ; 6635551.865558008 ; 1.3570117108393443E8 ; 7.34701459922792E7 ; 1.6027619186552577E9 ; 0.0
15 ; 6655395.756332874 ; 1.4017717814501047E8 ; 8.010569785783722E7 ; 1.738463089739192E9 ; 0.0
16 ; 6673055.218277958 ; 1.4496198002813688E8 ; 8.676109361417009E7 ; 1.8786402678842025E9 ; 0.0
17 ; 6692287.340091409 ; 1.5005557534771422E8 ; 9.343414883244805E7 ; 2.0236022479123394E9 ; 0.0
18 ; 6714176.431311714 ; 1.5545796249176663E8 ; 1.0012643617253946E8 ; 2.1736578232600536E9 ; 0.0
19 ; 6732685.081472874 ; 1.6116913963390294E8 ; 1.0684061260385117E8 ; 2.32911578575182E9 ; 0.0
20 ; 6750311.101652852 ; 1.6718910474653032E8 ; 1.1357329768532404E8 ; 2.490284925385723E9 ; 0.0
21 ; 6769608.218076536 ; 1.7351785561510685E8 ; 1.2032360878697689E8 ; 2.6574740301322536E9 ; 0.0
22 ; 6789301.980564187 ; 1.8015538985321027E8 ; 1.2709321700505343E8 ; 2.8309918857473607E9 ; 0.0
23 ; 6803897.081236878 ; 1.871017049182009E8 ; 1.3388251898561762E8 ; 3.011147275600571E9 ; 0.0
24 ; 6824253.361436783 ; 1.9435679812725866E8 ; 1.406864160668545E8 ; 3.198248980518772E9 ; 0.0
25 ; 6840487.766710953 ; 2.00608707571769E8 ; 1.475106694282913E8 ; 3.392605778646031E9 ; 0.0
26 ; 6860637.369258316 ; 2.0061097817038783E8 ; 1.5435115719500226E8 ; 3.5932144862178E9 ; 0.0
27 ; 6884140.137872214 ; 2.0061337620990157E8 ; 1.6121179456426057E8 ; 3.793825464388188E9 ; 0.0
28 ; 6897681.533229072 ; 2.0061589860758075E8 ; 1.680959347021328E8 ; 3.994438840598089E9 ; 0.0
29 ; 6922007.02092919 ; 2.006185422194901E8 ; 1.7499361623536187E8 ; 4.19505473920567E9 ; 0.0
30 ; 6939132.942763422 ; 2.00621303854917E8 ; 1.8191562325629106E8 ; 4.39567328142516E9 ; 0.0
31 ; 6954599.322459337 ; 2.0062418029006466E8 ; 1.8885475619905448E8 ; 4.596294585280077E9 ; 0.0
32 ; 6973064.153702285 ; 2.006271682809335E8 ; 1.9580935552151382E8 ; 4.796918765570142E9 ; 0.0
33 ; 6990438.254759144 ; 2.0063026457533285E8 ; 2.027824196752161E8 ; 4.997545933851075E9 ; 0.0
34 ; 7007029.632510915 ; 2.006334659239856E8 ; 2.0977285792997524E8 ; 5.198176198426408E9 ; 0.0
35 ; 7020256.770777339 ; 2.006367690907047E8 ; 2.1677988756248617E8 ; 5.398809664350393E9 ; 0.0
36 ; 7039182.137934426 ; 2.0064017086163637E8 ; 2.2380014433326352E8 ; 5.599446433441098E9 ; 0.0
37 ; 7053253.121563316 ; 2.0064366805357766E8 ; 2.3083932647119793E8 ; 5.800086604302734E9 ; 0.0
38 ; 7067069.999183625 ; 2.0064725752138898E8 ; 2.3789257959276125E8 ; 6.000730272356312E9 ; 0.0
39 ; 7081302.429486429 ; 2.0065093616452947E8 ; 2.4495964959194487E8 ; 6.201377529877701E9 ; 0.0
40 ; 7094122.658984802 ; 2.0065470093275347E8 ; 2.520409520214313E8 ; 6.402028466042231E9 ; 0.0
41 ; 7108541.670076185 ; 2.0065854883100978E8 ; 2.591350746804161E8 ; 6.602683166974984E9 ; 0.0
42 ; 7119417.209364441 ; 2.0066247692359135E8 ; 2.662436163504923E8 ; 6.803341715805994E9 ; 0.0
43 ; 7128829.1455052 ; 2.006664823375857E8 ; 2.733630335598567E8 ; 7.004004192729586E9 ; 0.0
44 ; 7140998.528146372 ; 2.0067056226567703E8 ; 2.804918627053619E8 ; 7.204670675067171E9 ; 0.0
45 ; 7145141.674628714 ; 2.006747139683533E8 ; 2.876328612335083E8 ; 7.405341237332849E9 ; 0.0
46 ; 7154329.277443233 ; 2.006789347755693E8 ; 2.94778002908137E8 ; 7.606015951301202E9 ; 0.0
47 ; 7164268.392931561 ; 2.0068322208791736E8 ; 3.0193233218558025E8 ; 7.806694886076771E9 ; 0.0
48 ; 7170971.673851563 ; 2.0068757337735498E8 ; 3.0909660057851183E8 ; 8.007378108164688E9 ; 0.0
49 ; 7175729.426031675 ; 2.0069198618753597E8 ; 3.162675722523634E8 ; 8.208065681542043E9 ; 0.0
50 ; 7177671.996751303 ; 2.0069645813379046E8 ; 3.2344330167839503E8 ; 8.408757667729579E9 ; 0.0
51 ; 7186160.438022249 ; 2.0070098690279588E8 ; 3.3062097367514634E8 ; 8.609454125863369E9 ; 0.0
52 ; 7190228.608362282 ; 2.007055702519775E8 ; 3.378071341131686E8 ; 8.810155112766165E9 ; 0.0
53 ; 7197716.053779099 ; 2.0071020600867605E8 ; 3.4499736272153085E8 ; 9.010860683018143E9 ; 0.0
54 ; 7200828.2978431815 ; 2.0071489206911454E8 ; 3.5219507877531E8 ; 9.21157088902682E9 ; 0.0
55 ; 7207464.778290967 ; 2.007196263971962E8 ; 3.5939590707315314E8 ; 9.412285781095934E9 ; 0.0
56 ; 7208702.6238821205 ; 2.0072440702316055E8 ; 3.666033718514441E8 ; 9.61300540749313E9 ; 0.0
57 ; 7216727.322534593 ; 2.0072923204212296E8 ; 3.7381207447532624E8 ; 9.81372981451629E9 ; 0.0
58 ; 7217700.626614677 ; 2.007340996125206E8 ; 3.8102880179786086E8 ; 1.0014459046558414E10 ; 0.0
59 ; 7218491.481223447 ; 2.0073900795448488E8 ; 3.8824650242447555E8 ; 1.0215193146170935E10 ; 0.0
60 ; 7224555.010737972 ; 2.007439553481581E8 ; 3.95464993905699E8 ; 1.041593215412542E10 ; 0.0
61 ; 7227161.785340961 ; 2.0074894013197085E8 ; 4.02689548916437E8 ; 1.0616676109473577E10 ; 0.0
62 ; 7228146.248343469 ; 2.0075396070089376E8 ; 4.0991671070177794E8 ; 1.0817425049605549E10 ; 0.0
63 ; 7231661.725231365 ; 2.007590155046757E8 ; 4.171448569501214E8 ; 1.1018179010306442E10 ; 0.0
64 ; 7238070.80720852 ; 2.0076410304607978E8 ; 4.2437651867535275E8 ; 1.1218938025811117E10 ; 0.0
65 ; 7244213.707409398 ; 2.0076922187912562E8 ; 4.316145894825613E8 ; 1.1419702128857197E10 ; 0.0
66 ; 7243436.005329234 ; 2.0077437060734606E8 ; 4.388588031899707E8 ; 1.1620471350736322E10 ; 0.0
67 ; 7244817.378288005 ; 2.0077954788206512E8 ; 4.461022391952999E8 ; 1.1821245721343668E10 ; 0.0
68 ; 7246079.85939405 ; 2.007847524007027E8 ; 4.5334705657358795E8 ; 1.2022025269225733E10 ; 0.0
69 ; 7254351.024978044 ; 2.0078998290511063E8 ; 4.60593136432982E8 ; 1.2222810021626436E10 ; 0.0
70 ; 7255687.931769012 ; 2.0079523817994413E8 ; 4.6784748745796007E8 ; 1.2423600004531548E10 ; 0.0
71 ; 7254929.949188426 ; 2.008005170510715E8 ; 4.751031753897291E8 ; 1.2624395242711493E10 ; 0.0
72 ; 7254751.747125821 ; 2.0080581838402477E8 ; 4.823581053389175E8 ; 1.2825195759762564E10 ; 0.0
73 ; 7260306.629868091 ; 2.0081114108249286E8 ; 4.896128570860433E8 ; 1.302600157814659E10 ; 0.0
74 ; 7259123.19446151 ; 2.0081648408685887E8 ; 4.968731637159114E8 ; 1.3226812719229082E10 ; 0.0
75 ; 7264385.039357442 ; 2.008218463727822E8 ; 5.041322869103729E8 ; 1.342762920331594E10 ; 0.0
76 ; 7261643.270082743 ; 2.0082722694982618E8 ; 5.1139667194973034E8 ; 1.3628451049688723E10 ; 0.0
77 ; 7265974.195136887 ; 2.0083262486013147E8 ; 5.186583152198131E8 ; 1.3829278276638548E10 ; 0.0
78 ; 7259766.627145048 ; 2.0083803917713484E8 ; 5.2592428941495E8 ; 1.403011090149868E10 ; 0.0
79 ; 7259090.355735007 ; 2.0084346900433338E8 ; 5.3318405604209507E8 ; 1.4230948940675816E10 ; 0.0
80 ; 7249468.159371383 ; 2.008489134740935E8 ; 5.404431463978301E8 ; 1.443179240968015E10 ; 0.0
81 ; 7248051.504698289 ; 2.0085437174650407E8 ; 5.476926145572015E8 ; 1.4632641323154243E10 ; 0.0
82 ; 7246923.332396695 ; 2.008598430082727E8 ; 5.549406660618998E8 ; 1.4833495694900747E10 ; 0.0
83 ; 7240552.627680083 ; 2.008653264716646E8 ; 5.621875893942965E8 ; 1.503435553790902E10 ; 0.0
84 ; 7235472.337796693 ; 2.0087082137348264E8 ; 5.694281420219766E8 ; 1.5235220864380684E10 ; 0.0
85 ; 7232722.103210968 ; 2.008763269740878E8 ; 5.766636143597733E8 ; 1.5436091685754166E10 ; 0.0
86 ; 7224013.186929115 ; 2.0088184255645874E8 ; 5.838963364629842E8 ; 1.5636968012728254E10 ; 0.0
87 ; 7216139.442554736 ; 2.0088736742528927E8 ; 5.911203496499133E8 ; 1.5837849855284714E10 ; 0.0
88 ; 7216110.362242736 ; 2.008929009061227E8 ; 5.98336489092468E8 ; 1.6038737222710003E10 ; 0.0
89 ; 7206307.840644767 ; 2.0089844234452173E8 ; 6.055525994547107E8 ; 1.6239630123616125E10 ; 0.0
90 ; 7204725.60293722 ; 2.0090399110527253E8 ; 6.127589072953554E8 ; 1.6440528565960648E10 ; 0.0
91 ; 7200756.112979159 ; 2.0090954657162213E8 ; 6.199636328982927E8 ; 1.664143255706592E10 ; 0.0
92 ; 7189742.660066478 ; 2.0091510814454764E8 ; 6.271643890112718E8 ; 1.6842342103637543E10 ; 0.0
93 ; 7184546.553130441 ; 2.0092067524205613E8 ; 6.343541316713383E8 ; 1.7043257211782091E10 ; 0.0
94 ; 7178142.567461067 ; 2.0092624729851422E8 ; 6.415386782244687E8 ; 1.7244177887024147E10 ; 0.0
95 ; 7177227.170964475 ; 2.0093182376400563E8 ; 6.487168207919297E8 ; 1.7445104134322662E10 ; 0.0
96 ; 7169357.787633042 ; 2.009374041037167E8 ; 6.558940479628942E8 ; 1.7646035958086666E10 ; 0.0
97 ; 7158222.693635436 ; 2.0094298779734725E8 ; 6.630634057505273E8 ; 1.7846973362190384E10 ; 0.0
98 ; 7155333.820829189 ; 2.0094857433854717E8 ; 6.702216284441627E8 ; 1.8047916349987732E10 ; 0.0
99 ; 7147070.995183649 ; 2.0095416323437673E8 ; 6.773769622649919E8 ; 1.824886492432628E10 ; 0.0
100 ; 7141373.229875382 ; 2.0095975400478995E8 ; 6.845240332601756E8 ; 1.8449819087560654E10 ; 0.0
101 ; 7132240.200757599 ; 2.0096534618214017E8 ; 6.916654064900509E8 ; 1.8650778841565445E10 ; 0.0
102 ; 7127151.008537735 ; 2.009709393107067E8 ; 6.987976466908085E8 ; 1.8851744187747585E10 ; 0.0
103 ; 7117032.375381635 ; 2.0097653294624156E8 ; 7.059247976993463E8 ; 1.9052715127058292E10 ; 0.0
104 ; 7110763.19572286 ; 2.0098212665553582E8 ; 7.130418300747279E8 ; 1.9253691660004536E10 ; 0.0
105 ; 7101187.283923246 ; 2.0098772001600412E8 ; 7.201525932704507E8 ; 1.9454673786660072E10 ; 0.0
106 ; 7095713.22378139 ; 2.009933126152873E8 ; 7.27253780554374E8 ; 1.9655661506676075E10 ; 0.0
107 ; 7085707.391340042 ; 2.009989040508716E8 ; 7.343494937781553E8 ; 1.9856654819291363E10 ; 0.0
108 ; 7079840.744183871 ; 2.010044939297243E8 ; 7.414352011694953E8 ; 2.0057653723342236E10 ; 0.0
109 ; 7071053.802999088 ; 2.0101008186794457E8 ; 7.485150419136792E8 ; 2.025865821727196E10 ; 0.0
110 ; 7059580.361868488 ; 2.010156674904294E8 ; 7.555860957166784E8 ; 2.0459668299139904E10 ; 0.0
111 ; 7051558.817778853 ; 2.0102125043055347E8 ; 7.626456760785469E8 ; 2.0660683966630333E10 ; 0.0
112 ; 7042901.545097676 ; 2.0102683032986262E8 ; 7.696972348963257E8 ; 2.0861705217060886E10 ; 0.0
113 ; 7041822.833913794 ; 2.0103240683778012E8 ; 7.767401364414234E8 ; 2.106273204739075E10 ; 0.0
114 ; 7027807.8818006795 ; 2.0103797961132547E8 ; 7.837819592753372E8 ; 2.126376445422853E10 ; 0.0
115 ; 7015161.50186243 ; 2.0104354831484473E8 ; 7.908097671571379E8 ; 2.1464802433839855E10 ; 0.0
116 ; 7010494.19590671 ; 2.0104911261975235E8 ; 7.978249286590003E8 ; 2.16658459821547E10 ; 0.0
117 ; 7004075.830265981 ; 2.0105467220428362E8 ; 8.04835422854907E8 ; 2.1866895094774452E10 ; 0.0
118 ; 6990812.892005757 ; 2.0106022675325745E8 ; 8.11839498685173E8 ; 2.2067949766978737E10 ; 0.0
119 ; 6981248.8106361125 ; 2.0106577595784903E8 ; 8.188303115771788E8 ; 2.2269009993731995E10 ; 0.0
120 ; 6971997.299824848 ; 2.010713195153717E8 ; 8.25811560387815E8 ; 2.2470075769689842E10 ; 0.0
121 ; 6964936.510435755 ; 2.0107685712906814E8 ; 8.327835576876398E8 ; 2.2671147089205215E10 ; 0.0
122 ; 6956300.961661055 ; 2.0108238850790963E8 ; 8.397484941980755E8 ; 2.2872223946334282E10 ; 0.0
123 ; 6942085.292313805 ; 2.0108791336640406E8 ; 8.467047951597366E8 ; 2.307330633484219E10 ; 0.0
124 ; 6931763.438894643 ; 2.0109343142441148E8 ; 8.536468804520504E8 ; 2.3274394248208595E10 ; 0.0
125 ; 6920215.2351083625 ; 2.01098942406967E8 ; 8.605786438909451E8 ; 2.3475487679633007E10 ; 0.0
126 ; 6910478.694410449 ; 2.0110444604411137E8 ; 8.674988591260535E8 ; 2.3676586622039974E10 ; 0.0
127 ; 6901207.157303404 ; 2.0110994207072774E8 ; 8.744093378204639E8 ; 2.3877691068084087E10 ; 0.0
128 ; 6894287.772613493 ; 2.0111543022638556E8 ; 8.813105449777673E8 ; 2.4078801010154816E10 ; 0.0
129 ; 6879052.172302137 ; 2.0112091025519034E8 ; 8.882048327503809E8 ; 2.4279916440381203E10 ; 0.0
130 ; 6862382.89740854 ; 2.0112638190563974E8 ; 8.95083884922683E8 ; 2.4481037350636395E10 ; 0.0
131 ; 6849518.048030585 ; 2.01131844930485E8 ; 9.019462678200915E8 ; 2.4682163732542034E10 ; 0.0
132 ; 6832427.235314169 ; 2.0113729908659825E8 ; 9.087957858681221E8 ; 2.488329557747252E10 ; 0.0
133 ; 6815682.989161844 ; 2.0114274413484478E8 ; 9.156282131034362E8 ; 2.5084432876559116E10 ; 0.0
134 ; 6797585.125043193 ; 2.0114817983996046E8 ; 9.224438960925981E8 ; 2.5285575620693962E10 ; 0.0
135 ; 6777390.834411039 ; 2.0115360597043398E8 ; 9.292414812176412E8 ; 2.5486723800533924E10 ; 0.0
136 ; 6764859.210256048 ; 2.0115902229839364E8 ; 9.360188720520523E8 ; 2.5687877406504356E10 ; 0.0
137 ; 6744279.162887142 ; 2.011644285994985E8 ; 9.427837312623084E8 ; 2.588903642880275E10 ; 0.0
138 ; 6731077.489626367 ; 2.0116982465283397E8 ; 9.495280104251955E8 ; 2.609020085740225E10 ; 0.0
139 ; 6710851.853836854 ; 2.01175210240811E8 ; 9.562590879148219E8 ; 2.6291370682055084E10 ; 0.0
140 ; 6694630.119177289 ; 2.0118058514906964E8 ; 9.629699397686588E8 ; 2.6492545892295895E10 ; 0.0
141 ; 6673763.252103769 ; 2.011859491663861E8 ; 9.696645698878361E8 ; 2.6693726477444965E10 ; 0.0
142 ; 6664149.885665038 ; 2.011913020845831E8 ; 9.763383331399399E8 ; 2.689491242661135E10 ; 0.0
143 ; 6642184.092726601 ; 2.0119664369844413E8 ; 9.83002483025605E8 ; 2.7096103728695934E10 ; 0.0
144 ; 6623741.579675517 ; 2.0120197380563053E8 ; 9.896446671183316E8 ; 2.729730037239438E10 ; 0.0
145 ; 6615798.704367602 ; 2.012072922066019E8 ; 9.962684086980071E8 ; 2.749850234620001E10 ; 0.0
146 ; 6599330.479201827 ; 2.0121259870453948E8 ; 1.0028842074023747E9 ; 2.769970963840661E10 ; 0.0
147 ; 6590437.9227797985 ; 2.012178931052724E8 ; 1.0094835378815765E9 ; 2.790092223711115E10 ; 0.0
148 ; 6576242.767553676 ; 2.0122317521720672E8 ; 1.0160739758043563E9 ; 2.8102140130216423E10 ; 0.0
149 ; 6566362.02310092 ; 2.0122844485125694E8 ; 1.02265021857191E9 ; 2.8303363305433628E10 ; 0.0
150 ; 6550796.160331885 ; 2.0123370182078028E8 ; 1.029216580595011E9 ; 2.8504591750284885E10 ; 0.0
151 ; 6545773.30504156 ; 2.0123894594151324E8 ; 1.0357673767553428E9 ; 2.8705825452105667E10 ; 0.0
152 ; 6531215.705133038 ; 2.0124417703151053E8 ; 1.0423131500603844E9 ; 2.890706439804718E10 ; 0.0
153 ; 6519638.770232502 ; 2.0124939491108626E8 ; 1.0488443657655175E9 ; 2.910830857507869E10 ; 0.0
154 ; 6507571.11510132 ; 2.0125459940275726E8 ; 1.05536400453575E9 ; 2.9309557969989777E10 ; 0.0
155 ; 6498489.35344642 ; 2.0125979033118844E8 ; 1.0618715756508514E9 ; 2.9510812569392532E10 ; 0.0
156 ; 6486273.934798056 ; 2.0126496752314022E8 ; 1.0683700650042977E9 ; 2.971207235972372E10 ; 0.0
157 ; 6473968.219058123 ; 2.0127013080741775E8 ; 1.0748563389390957E9 ; 2.991333732724686E10 ; 0.0
158 ; 6461479.0576237375 ; 2.0127528001482192E8 ; 1.0813303071581538E9 ; 3.011460745805428E10 ; 0.0
159 ; 6455500.54190209 ; 2.0128041497810245E8 ; 1.0877917862157774E9 ; 3.03158827380691E10 ; 0.0
160 ; 6439958.881063794 ; 2.012855355319121E8 ; 1.0942472867576795E9 ; 3.0517163153047203E10 ; 0.0
161 ; 6427926.579486063 ; 2.0129064151276317E8 ; 1.1006872456387432E9 ; 3.0718448688579117E10 ; 0.0
162 ; 6412317.20899006 ; 2.0129573275898495E8 ; 1.1071151722182293E9 ; 3.091973933009188E10 ; 0.0
163 ; 6406257.492035981 ; 2.0130080911068308E8 ; 1.1135274894272194E9 ; 3.1121035062850864E10 ; 0.0
164 ; 6390707.142499567 ; 2.013058704097001E8 ; 1.1199337469192553E9 ; 3.1322335871961548E10 ; 0.0
165 ; 6381101.72614498 ; 2.013109164995776E8 ; 1.126324454061755E9 ; 3.1523641742371246E10 ; 0.0
166 ; 6370298.587281112 ; 2.0131594722551954E8 ; 1.1327055557879E9 ; 3.1724952658870823E10 ; 0.0
167 ; 6355419.120658207 ; 2.0132096243435678E8 ; 1.1390758543751812E9 ; 3.1926268606096344E10 ; 0.0
168 ; 6345745.555531487 ; 2.0132596197451317E8 ; 1.1454312734958394E9 ; 3.21275895685307E10 ; 0.0
169 ; 6335423.559527218 ; 2.0133094569597247E8 ; 1.1517770190513709E9 ; 3.2328915530505215E10 ; 0.0
170 ; 6318637.250552826 ; 2.0133591345024657E8 ; 1.158112442610898E9 ; 3.2530246476201187E10 ; 0.0
171 ; 6311524.671123874 ; 2.0134086509034485E8 ; 1.164431079861451E9 ; 3.2731582389651432E10 ; 0.0
172 ; 6299534.568276059 ; 2.013458004707445E8 ; 1.170742604532575E9 ; 3.2932923254741776E10 ; 0.0
173 ; 6285822.808833306 ; 2.0135071944736186E8 ; 1.177042139100851E9 ; 3.313426905521252E10 ; 0.0
174 ; 6280699.529606192 ; 2.0135562187752488E8 ; 1.1833279619096844E9 ; 3.333561977465988E10 ; 0.0
175 ; 6266673.850452323 ; 2.0136050761994627E8 ; 1.1896086614392905E9 ; 3.3536975396537407E10 ; 0.0
176 ; 6257600.5611813925 ; 2.0136537653469786E8 ; 1.195875335289743E9 ; 3.3738335904157352E10 ; 0.0
177 ; 6250964.8317808155 ; 2.013702284831856E8 ; 1.2021329358509243E9 ; 3.393970128069205E10 ; 0.0
178 ; 6237230.466345625 ; 2.0137506332812545E8 ; 1.2083839006827052E9 ; 3.4141071509175236E10 ; 0.0
179 ; 6232738.289697916 ; 2.013798809335202E8 ; 1.2146211311490507E9 ; 3.434244657250336E10 ; 0.0
180 ; 6221434.431106207 ; 2.0138468116463697E8 ; 1.2208538694387486E9 ; 3.454382645343688E10 ; 0.0
181 ; 6216856.154315257 ; 2.0138946388798544E8 ; 1.2270753038698547E9 ; 3.474521113460152E10 ; 0.0
182 ; 6203071.810190617 ; 2.0139422897129688E8 ; 1.23329216002417E9 ; 3.49466005984895E10 ; 0.0
183 ; 6194182.741070928 ; 2.013989762835039E8 ; 1.2394952318343606E9 ; 3.51479948274608E10 ; 0.0
184 ; 6186634.639099693 ; 2.0140370569472072E8 ; 1.2456894145754316E9 ; 3.53493938037443E10 ; 0.0
185 ; 6177559.299272049 ; 2.0140841707622433E8 ; 1.2518760492145312E9 ; 3.555079750943902E10 ; 0.0
186 ; 6167482.137170911 ; 2.0141311030043608E8 ; 1.2580536085138032E9 ; 3.575220592651524E10 ; 0.0
187 ; 6154042.687946383 ; 2.014177852409039E8 ; 1.2642210906509743E9 ; 3.595361903681568E10 ; 0.0
188 ; 6151481.367281059 ; 2.0142244177228534E8 ; 1.2703751333389206E9 ; 3.615503682205659E10 ; 0.0
189 ; 6138241.812026432 ; 2.0142707977033073E8 ; 1.2765266147062016E9 ; 3.635645926382887E10 ; 0.0
190 ; 6130053.990902095 ; 2.014316991118674E8 ; 1.282664856518228E9 ; 3.6557886343599205E10 ; 0.0
191 ; 6116699.337626795 ; 2.0143629967478395E8 ; 1.2887949105091302E9 ; 3.6759318042711075E10 ; 0.0
192 ; 6108541.168182894 ; 2.014408813380154E8 ; 1.294911609846757E9 ; 3.696075434238586E10 ; 0.0
193 ; 6103198.695706265 ; 2.0144544398152867E8 ; 1.3010201510149398E9 ; 3.716219522372387E10 ; 0.0
194 ; 6091691.157272916 ; 2.0144998748630846E8 ; 1.3071233497106462E9 ; 3.73636406677054E10 ; 0.0
195 ; 6084974.59557248 ; 2.0145451173434365E8 ; 1.313215040867919E9 ; 3.75650906551917E10 ; 0.0
196 ; 6075399.549843263 ; 2.0145901660861436E8 ; 1.3193000154634914E9 ; 3.776654516692605E10 ; 0.0
197 ; 6069470.888607758 ; 2.01463501993079E8 ; 1.3253754150133348E9 ; 3.796800418353466E10 ; 0.0
198 ; 6053903.55333526 ; 2.0146796777266216E8 ; 1.3314448859019425E9 ; 3.816946768552774E10 ; 0.0
199 ; 6045490.183573852 ; 2.0147241383324257E8 ; 1.3374987894552777E9 ; 3.83709356533004E10 ; 0.0
200 ; 6040267.437986372 ; 2.0147684006164163E8 ; 1.3435442796388516E9 ; 3.8572408067133644E10 ; 0.0
201 ; 6032108.7006069785 ; 1.923418683595019E8 ; 1.349584547076838E9 ; 3.877388490719528E10 ; 0.0
