CSV File for the City 1 on Day 269
1 - Minute m 
2 - Power Consumed at minute m 
3 - Power Produced at minute m 
4 - Energy Consumed since the beginning of the day 
5 - Energy Produced since the beginning of the day 
6 - Energy Lost since the beginning of the day on lines starting from the city
 
0 ; 6982189.439000962 ; 1.0557447745157626E8 ; 0.0 ; 0.0 ; 0.0
1 ; 6994377.302631371 ; 1.0572743684439325E8 ; 6982189.439000962 ; 1.0557447745157626E8 ; 0.0
2 ; 7004002.743338232 ; 1.0618917743080673E8 ; 1.3976566741632333E7 ; 2.1130191429596952E8 ; 0.0
3 ; 7021051.863622296 ; 1.0695970055110347E8 ; 2.0980569484970566E7 ; 3.1749109172677624E8 ; 0.0
4 ; 7034777.425724499 ; 1.0803900740459788E8 ; 2.8001621348592862E7 ; 4.244507922778797E8 ; 0.0
5 ; 7064974.28895697 ; 1.0942709904360574E8 ; 3.503639877431736E7 ; 5.324897996824776E8 ; 0.0
6 ; 7094028.847502972 ; 1.1112397636806473E8 ; 4.210137306327433E7 ; 6.419168987260833E8 ; 0.0
7 ; 7134628.556636249 ; 1.1312964012086707E8 ; 4.91954019107773E7 ; 7.53040875094148E8 ; 0.0
8 ; 7214701.62619892 ; 1.1544409088395822E8 ; 5.633003046741355E7 ; 8.661705152150152E8 ; 0.0
9 ; 7324619.988044876 ; 1.180673290752514E8 ; 6.354473209361247E7 ; 9.816146060989734E8 ; 0.0
10 ; 7504491.861037286 ; 1.2099935494639558E8 ; 7.086935208165735E7 ; 1.0996819351742249E9 ; 0.0
11 ; 7784596.161535245 ; 1.2424016858142427E8 ; 7.837384394269463E7 ; 1.2206812901206205E9 ; 0.0
12 ; 8246904.803095083 ; 1.2778976989630392E8 ; 8.615844010422988E7 ; 1.3449214587020447E9 ; 0.0
13 ; 8677909.693572162 ; 1.3164815863938558E8 ; 9.440534490732497E7 ; 1.4727112285983486E9 ; 0.0
14 ; 8729919.799380846 ; 1.358153343927561E8 ; 1.0308325460089713E8 ; 1.6043593872377343E9 ; 0.0
15 ; 8741374.01301436 ; 1.4029129657446992E8 ; 1.1181317440027797E8 ; 1.7401747216304903E9 ; 0.0
16 ; 8757418.037380854 ; 1.4507604444163492E8 ; 1.2055454841329233E8 ; 1.8804660182049603E9 ; 0.0
17 ; 8776644.768023198 ; 1.5016957709431335E8 ; 1.293119664506732E8 ; 2.0255420626465952E9 ; 0.0
18 ; 8791552.715918858 ; 1.5557189348018944E8 ; 1.380886112186964E8 ; 2.1757116397409086E9 ; 0.0
19 ; 8806792.87943928 ; 1.612829923999488E8 ; 1.4688016393461525E8 ; 2.331283533221098E9 ; 0.0
20 ; 8820749.166027809 ; 1.6730287251330462E8 ; 1.5568695681405455E8 ; 2.4925665256210465E9 ; 0.0
21 ; 8835872.943423862 ; 1.736315323456023E8 ; 1.6450770598008236E8 ; 2.6598693981343513E9 ; 0.0
22 ; 8853945.741532298 ; 1.8026897029492825E8 ; 1.7334357892350623E8 ; 2.833500930479954E9 ; 0.0
23 ; 8873057.292914433 ; 1.8721518463964576E8 ; 1.8219752466503853E8 ; 3.013769900774882E9 ; 0.0
24 ; 8888603.004467197 ; 1.9447017354627913E8 ; 1.9107058195795295E8 ; 3.2009850854145274E9 ; 0.0
25 ; 8906619.6784749 ; 2.0072197597585142E8 ; 1.9995918496242014E8 ; 3.3954552589608064E9 ; 0.0
26 ; 8919032.83379514 ; 2.0072413772912514E8 ; 2.0886580464089504E8 ; 3.596177234936658E9 ; 0.0
27 ; 8937466.06562818 ; 2.007264259799667E8 ; 2.1778483747469017E8 ; 3.796901372665783E9 ; 0.0
28 ; 8949166.445644094 ; 2.0072883853062272E8 ; 2.2672230354031834E8 ; 3.9976277986457496E9 ; 0.0
29 ; 8968836.158607898 ; 2.0073137311344376E8 ; 2.3567146998596242E8 ; 4.1983566371763725E9 ; 0.0
30 ; 8983653.237396214 ; 2.0073402739927393E8 ; 2.4464030614457032E8 ; 4.399088010289816E9 ; 0.0
31 ; 8997221.730017545 ; 2.007367990056933E8 ; 2.5362395938196653E8 ; 4.59982203768909E9 ; 0.0
32 ; 9013384.000336137 ; 2.0073968550506082E8 ; 2.6262118111198407E8 ; 4.800558836694783E9 ; 0.0
33 ; 9028259.290572317 ; 2.0074268443231165E8 ; 2.716345651123202E8 ; 5.001298522199844E9 ; 0.0
34 ; 9043352.449091058 ; 2.0074579329246935E8 ; 2.8066282440289253E8 ; 5.202041206632156E9 ; 0.0
35 ; 9051939.177434344 ; 2.0074900956783858E8 ; 2.897061768519836E8 ; 5.402786999924625E9 ; 0.0
36 ; 9061936.675337784 ; 2.0075233072485206E8 ; 2.9875811602941793E8 ; 5.603536009492464E9 ; 0.0
37 ; 9074810.477620749 ; 2.0075575422054923E8 ; 3.078200527047557E8 ; 5.804288340217316E9 ; 0.0
38 ; 9087054.256232923 ; 2.0075927750867122E8 ; 3.1689486318237644E8 ; 6.005044094437865E9 ; 0.0
39 ; 9097829.850814933 ; 2.0076289804536164E8 ; 3.2598191743860936E8 ; 6.205803371946536E9 ; 0.0
40 ; 9106741.487059252 ; 2.007666132944669E8 ; 3.350797472894243E8 ; 6.406566269991898E9 ; 0.0
41 ; 9118745.864748312 ; 2.007704207324353E8 ; 3.4418648877648354E8 ; 6.607332883286365E9 ; 0.0
42 ; 9124133.909811607 ; 2.0077431785281667E8 ; 3.5330523464123183E8 ; 6.8081033040188E9 ; 0.0
43 ; 9134627.850543942 ; 2.007783021703693E8 ; 3.6242936855104345E8 ; 7.008877621871616E9 ; 0.0
44 ; 9142114.803882286 ; 2.0078237122478223E8 ; 3.7156399640158737E8 ; 7.2096559240419855E9 ; 0.0
45 ; 9149196.005996697 ; 2.0078652258402508E8 ; 3.8070611120546967E8 ; 7.4104382952667675E9 ; 0.0
46 ; 9152923.080133567 ; 2.007907538473385E8 ; 3.898553072114664E8 ; 7.611224817850793E9 ; 0.0
47 ; 9159649.879828162 ; 2.0079506264788026E8 ; 3.990082302915999E8 ; 7.812015571698132E9 ; 0.0
48 ; 9162686.56095573 ; 2.0079944665504405E8 ; 4.081678801714281E8 ; 8.012810634346012E9 ; 0.0
49 ; 9162289.849739034 ; 2.0080390357646772E8 ; 4.173305667323838E8 ; 8.213610081001056E9 ; 0.0
50 ; 9171153.59505271 ; 2.008084311597494E8 ; 4.264928565821228E8 ; 8.414413984577523E9 ; 0.0
51 ; 9173300.709943863 ; 2.008130271938896E8 ; 4.356640101771755E8 ; 8.615222415737272E9 ; 0.0
52 ; 9171594.931895837 ; 2.00817689510478E8 ; 4.448373108871194E8 ; 8.816035442931162E9 ; 0.0
53 ; 9172005.126887294 ; 2.0082241598464322E8 ; 4.5400890581901526E8 ; 9.016853132441639E9 ; 0.0
54 ; 9173392.512557976 ; 2.0082720453578356E8 ; 4.631809109459026E8 ; 9.217675548426283E9 ; 0.0
55 ; 9176512.138920857 ; 2.0083205312809658E8 ; 4.7235430345846057E8 ; 9.418502752962067E9 ; 0.0
56 ; 9180488.144047603 ; 2.0083695977092442E8 ; 4.815308155973814E8 ; 9.619334806090164E9 ; 0.0
57 ; 9178496.340367032 ; 2.008419225189315E8 ; 4.9071130374142903E8 ; 9.820171765861088E9 ; 0.0
58 ; 9177272.196616048 ; 2.0084693947213045E8 ; 4.9988980008179605E8 ; 1.002101368838002E10 ; 0.0
59 ; 9179745.449080463 ; 2.0085200877577075E8 ; 5.090670722784121E8 ; 1.022186062785215E10 ; 0.0
60 ; 9177998.92545519 ; 2.00857128620105E8 ; 5.182468177274926E8 ; 1.042271263662792E10 ; 0.0
61 ; 9181267.745680152 ; 2.0086229724004534E8 ; 5.274248166529478E8 ; 1.0623569765248026E10 ; 0.0
62 ; 9181181.617574824 ; 2.0086751291472334E8 ; 5.3660608439862794E8 ; 1.0824432062488071E10 ; 0.0
63 ; 9180822.298824374 ; 2.0087277396696427E8 ; 5.457872660162028E8 ; 1.1025299575402794E10 ; 0.0
64 ; 9182341.53840317 ; 2.0087807876268715E8 ; 5.549680883150272E8 ; 1.1226172349369759E10 ; 0.0
65 ; 9181224.496207686 ; 2.0088342571024013E8 ; 5.641504298534304E8 ; 1.1427050428132446E10 ; 0.0
66 ; 9178510.979300028 ; 2.0088881325968084E8 ; 5.733316543496381E8 ; 1.1627933853842686E10 ; 0.0
67 ; 9179292.768242024 ; 2.0089423990200993E8 ; 5.825101653289381E8 ; 1.1828822667102367E10 ; 0.0
68 ; 9175329.873402873 ; 2.0089970416836578E8 ; 5.916894580971801E8 ; 1.2029716907004377E10 ; 0.0
69 ; 9179927.222003434 ; 2.009052046291871E8 ; 6.00864787970583E8 ; 1.2230616611172743E10 ; 0.0
70 ; 9180669.89478688 ; 2.0091073989335027E8 ; 6.100447151925864E8 ; 1.243152181580193E10 ; 0.0
71 ; 9167756.026079386 ; 2.0091630860728702E8 ; 6.192253850873733E8 ; 1.263243255569528E10 ; 0.0
72 ; 9174152.104908226 ; 2.009219094540876E8 ; 6.283931411134527E8 ; 1.2833348864302567E10 ; 0.0
73 ; 9173052.594689613 ; 2.0092754115259436E8 ; 6.375672932183609E8 ; 1.3034270773756655E10 ; 0.0
74 ; 9171958.648457551 ; 2.0093320245648995E8 ; 6.467403458130505E8 ; 1.3235198314909248E10 ; 0.0
75 ; 9175034.126423985 ; 2.0093889215338367E8 ; 6.55912304461508E8 ; 1.3436131517365738E10 ; 0.0
76 ; 9166630.797346491 ; 2.0094460906389958E8 ; 6.65087338587932E8 ; 1.3637070409519121E10 ; 0.0
77 ; 9171664.599237729 ; 2.0095035204076892E8 ; 6.742539693852785E8 ; 1.3838015018583021E10 ; 0.0
78 ; 9160097.135965934 ; 2.0095611996793002E8 ; 6.834256339845161E8 ; 1.403896537062379E10 ; 0.0
79 ; 9149768.633398606 ; 2.0096191175963745E8 ; 6.925857311204821E8 ; 1.423992149059172E10 ; 0.0
80 ; 9144799.573729932 ; 2.0096772635958228E8 ; 7.017354997538807E8 ; 1.4440883402351358E10 ; 0.0
81 ; 9140905.233477723 ; 2.0097356274002576E8 ; 7.108802993276107E8 ; 1.4641851128710941E10 ; 0.0
82 ; 9131806.523095978 ; 2.0097941990094715E8 ; 7.200212045610884E8 ; 1.4842824691450968E10 ; 0.0
83 ; 9121239.293047884 ; 2.009852968692073E8 ; 7.291530110841844E8 ; 1.5043804111351915E10 ; 0.0
84 ; 9114967.3630226 ; 2.0099119269772872E8 ; 7.382742503772323E8 ; 1.5244789408221123E10 ; 0.0
85 ; 9103874.459195646 ; 2.0099710646469343E8 ; 7.473892177402549E8 ; 1.5445780600918852E10 ; 0.0
86 ; 9099395.28166298 ; 2.0100303727275845E8 ; 7.564930921994505E8 ; 1.5646777707383545E10 ; 0.0
87 ; 9088087.907157013 ; 2.010089842482904E8 ; 7.655924874811134E8 ; 1.5847780744656303E10 ; 0.0
88 ; 9079574.809747497 ; 2.0101494654061854E8 ; 7.746805753882705E8 ; 1.6048789728904594E10 ; 0.0
89 ; 9069398.23926921 ; 2.010209233213075E8 ; 7.83760150198018E8 ; 1.6249804675445213E10 ; 0.0
90 ; 9065061.023354078 ; 2.0102691378344926E8 ; 7.928295484372872E8 ; 1.6450825598766521E10 ; 0.0
91 ; 9053042.897679478 ; 2.0103291714097437E8 ; 8.018946094606413E8 ; 1.665185251254997E10 ; 0.0
92 ; 9045974.644700307 ; 2.0103893262798288E8 ; 8.109476523583207E8 ; 1.6852885429690945E10 ; 0.0
93 ; 9037216.40734405 ; 2.010449594980945E8 ; 8.19993627003021E8 ; 1.7053924362318928E10 ; 0.0
94 ; 9024860.477529604 ; 2.0105099702381793E8 ; 8.290308434103651E8 ; 1.725496932181702E10 ; 0.0
95 ; 9015229.795462722 ; 2.0105704449593922E8 ; 8.380557038878947E8 ; 1.745602031884084E10 ; 0.0
96 ; 9004692.699751226 ; 2.0106310122292894E8 ; 8.470709336833575E8 ; 1.7657077363336777E10 ; 0.0
97 ; 8995992.942192465 ; 2.0106916653036767E8 ; 8.560756263831087E8 ; 1.7858140464559704E10 ; 0.0
98 ; 8985481.038744342 ; 2.010752397603897E8 ; 8.650716193253012E8 ; 1.8059209631090073E10 ; 0.0
99 ; 8979578.040193498 ; 2.010813202711446E8 ; 8.740571003640455E8 ; 1.8260284870850464E10 ; 0.0
100 ; 8963542.773853239 ; 2.010874074362762E8 ; 8.830366784042389E8 ; 1.846136619112161E10 ; 0.0
101 ; 8957604.94516305 ; 2.0109350064441845E8 ; 8.920002211780921E8 ; 1.8662453598557884E10 ; 0.0
102 ; 8948352.545092376 ; 2.0109959929870817E8 ; 9.009578261232551E8 ; 1.88635470992023E10 ; 0.0
103 ; 8932155.025355754 ; 2.0110570281631398E8 ; 9.099061786683475E8 ; 1.906464669850101E10 ; 0.0
104 ; 8926666.754040122 ; 2.011118106279808E8 ; 9.188383336937032E8 ; 1.9265752401317326E10 ; 0.0
105 ; 8913887.25291879 ; 2.011179221775902E8 ; 9.277650004477433E8 ; 1.9466864211945305E10 ; 0.0
106 ; 8905904.769349588 ; 2.0112403692173523E8 ; 9.366788877006621E8 ; 1.9667982134122894E10 ; 0.0
107 ; 8892476.156095881 ; 2.0113015432931024E8 ; 9.455847924700117E8 ; 1.986910617104463E10 ; 0.0
108 ; 8875716.519873438 ; 2.0113627388111448E8 ; 9.544772686261076E8 ; 2.007023632537394E10 ; 0.0
109 ; 8869265.874953628 ; 2.0114239506946957E8 ; 9.63352985145981E8 ; 2.0271372599255054E10 ; 0.0
110 ; 8855487.367610108 ; 2.0114851739785016E8 ; 9.722222510209346E8 ; 2.0472514994324524E10 ; 0.0
111 ; 8846113.754686894 ; 2.0115464038052747E8 ; 9.810777383885447E8 ; 2.0673663511722374E10 ; 0.0
112 ; 8836156.381757498 ; 2.0116076354222545E8 ; 9.899238521432316E8 ; 2.08748181521029E10 ; 0.0
113 ; 8818448.603151599 ; 2.0116688641778857E8 ; 9.987600085249891E8 ; 2.1075978915645126E10 ; 0.0
114 ; 8811573.45010195 ; 2.011730085518618E8 ; 1.0075784571281407E9 ; 2.1277145802062916E10 ; 0.0
115 ; 8796411.151005922 ; 2.0117912949858132E8 ; 1.0163900305782427E9 ; 2.1478318810614777E10 ; 0.0
116 ; 8786619.669144433 ; 2.0118524882127663E8 ; 1.0251864417292485E9 ; 2.1679497940113358E10 ; 0.0
117 ; 8772574.210551832 ; 2.0119136609218273E8 ; 1.0339730613983929E9 ; 2.1880683188934635E10 ; 0.0
118 ; 8759828.512169598 ; 2.0119748089216277E8 ; 1.0427456356089448E9 ; 2.2081874555026817E10 ; 0.0
119 ; 8744786.183591573 ; 2.0120359281044033E8 ; 1.0515054641211144E9 ; 2.228307203591898E10 ; 0.0
120 ; 8735199.618426038 ; 2.0120970144434133E8 ; 1.060250250304706E9 ; 2.248427562872942E10 ; 0.0
121 ; 8718403.630020976 ; 2.0121580639904487E8 ; 1.0689854499231321E9 ; 2.268548533017376E10 ; 0.0
122 ; 8705564.19518605 ; 2.0122190728734308E8 ; 1.077703853553153E9 ; 2.2886701136572803E10 ; 0.0
123 ; 8696298.640129352 ; 2.0122800372940934E8 ; 1.0864094177483392E9 ; 2.3087923043860146E10 ; 0.0
124 ; 8676457.89246125 ; 2.0123409535257477E8 ; 1.0951057163884685E9 ; 2.3289151047589554E10 ; 0.0
125 ; 8665284.382096425 ; 2.0124018179111254E8 ; 1.1037821742809298E9 ; 2.3490385142942127E10 ; 0.0
126 ; 8651503.237458361 ; 2.0124626268602997E8 ; 1.1124474586630263E9 ; 2.369162532473324E10 ; 0.0
127 ; 8637292.874658303 ; 2.0125233768486777E8 ; 1.1210989619004848E9 ; 2.389287158741927E10 ; 0.0
128 ; 8623396.90374858 ; 2.0125840644150653E8 ; 1.1297362547751431E9 ; 2.4094123925104137E10 ; 0.0
129 ; 8607906.307142377 ; 2.0126446861597985E8 ; 1.1383596516788917E9 ; 2.4295382331545643E10 ; 0.0
130 ; 8593718.01507369 ; 2.012705238742943E8 ; 1.146967557986034E9 ; 2.449664680016162E10 ; 0.0
131 ; 8571147.954003334 ; 2.012765718882555E8 ; 1.1555612760011077E9 ; 2.4697917324035915E10 ; 0.0
132 ; 8554196.612203842 ; 2.0128261233530036E8 ; 1.164132423955111E9 ; 2.489919389592417E10 ; 0.0
133 ; 8529997.35269434 ; 2.012886448983352E8 ; 1.1726866205673149E9 ; 2.510047650825947E10 ; 0.0
134 ; 8512860.276164062 ; 2.0129466926557967E8 ; 1.1812166179200091E9 ; 2.5301765153157806E10 ; 0.0
135 ; 8493162.204320993 ; 2.013006851304159E8 ; 1.1897294781961732E9 ; 2.5503059822423386E10 ; 0.0
136 ; 8471177.620015064 ; 2.0130669219124305E8 ; 1.198222640400494E9 ; 2.5704360507553802E10 ; 0.0
137 ; 8450155.760120114 ; 2.01312690151337E8 ; 1.2066938180205092E9 ; 2.5905667199745045E10 ; 0.0
138 ; 8430510.02684803 ; 2.013186787187146E8 ; 1.2151439737806294E9 ; 2.610697988989638E10 ; 0.0
139 ; 8408899.95673251 ; 2.0132465760600308E8 ; 1.2235744838074775E9 ; 2.6308298568615097E10 ; 0.0
140 ; 8385297.198816154 ; 2.0133062653031358E8 ; 1.23198338376421E9 ; 2.65096232262211E10 ; 0.0
141 ; 8363827.505785227 ; 2.0133658521311933E8 ; 1.240368680963026E9 ; 2.6710953852751415E10 ; 0.0
142 ; 8344576.0398630975 ; 2.013425333801378E8 ; 1.2487325084688113E9 ; 2.6912290437964535E10 ; 0.0
143 ; 8319504.62442653 ; 2.0134847076121715E8 ; 1.2570770845086744E9 ; 2.7113632971344673E10 ; 0.0
144 ; 8302471.3441002555 ; 2.0135439709022632E8 ; 1.265396589133101E9 ; 2.7314981442105892E10 ; 0.0
145 ; 8284383.325470627 ; 2.0136031210494906E8 ; 1.2736990604772012E9 ; 2.7516335839196117E10 ; 0.0
146 ; 8271167.405031295 ; 2.0136621554698157E8 ; 1.281983443802672E9 ; 2.7717696151301067E10 ; 0.0
147 ; 8253830.606305777 ; 2.0137210716163352E8 ; 1.290254611207703E9 ; 2.791906236684805E10 ; 0.0
148 ; 8241671.192972793 ; 2.013779866978325E8 ; 1.298508441814009E9 ; 2.812043447400968E10 ; 0.0
149 ; 8228646.156333321 ; 2.0138385390803173E8 ; 1.3067501130069818E9 ; 2.8321812460707516E10 ; 0.0
150 ; 8209225.640692073 ; 2.013897085481209E8 ; 1.314978759163315E9 ; 2.8523196314615547E10 ; 0.0
151 ; 8201336.061721079 ; 2.0139555037733993E8 ; 1.323187984804007E9 ; 2.872458602316367E10 ; 0.0
152 ; 8184887.467880136 ; 2.0140137915819573E8 ; 1.3313893208657281E9 ; 2.8925981573541008E10 ; 0.0
153 ; 8167375.728310712 ; 2.014071946563817E8 ; 1.3395742083336084E9 ; 2.9127382952699203E10 ; 0.0
154 ; 8153619.593047216 ; 2.0141299664069998E8 ; 1.3477415840619192E9 ; 2.9328790147355587E10 ; 0.0
155 ; 8141264.833365542 ; 2.0141878488298616E8 ; 1.3558952036549664E9 ; 2.953020314399629E10 ; 0.0
156 ; 8121981.604495839 ; 2.014245591580367E8 ; 1.3640364684883318E9 ; 2.9731621928879276E10 ; 0.0
157 ; 8106404.629272019 ; 2.0143031924353865E8 ; 1.3721584500928276E9 ; 2.993304648803731E10 ; 0.0
158 ; 8094634.98403976 ; 2.0143606492000163E8 ; 1.3802648547220995E9 ; 3.013447680728085E10 ; 0.0
159 ; 8076905.433761429 ; 2.0144179597069213E8 ; 1.3883594897061393E9 ; 3.033591287220085E10 ; 0.0
160 ; 8060358.308834982 ; 2.0144751218157014E8 ; 1.3964363951399007E9 ; 3.0537354668171543E10 ; 0.0
161 ; 8046777.521700804 ; 2.014532133412275E8 ; 1.4044967534487357E9 ; 3.0738802180353115E10 ; 0.0
162 ; 8033551.265359305 ; 2.0145889924082863E8 ; 1.4125435309704366E9 ; 3.0940255393694344E10 ; 0.0
163 ; 8016973.914597117 ; 2.0146456967405295E8 ; 1.420577082235796E9 ; 3.1141714292935173E10 ; 0.0
164 ; 8002363.483794337 ; 2.014702244370393E8 ; 1.428594056150393E9 ; 3.1343178862609226E10 ; 0.0
165 ; 7987478.451962428 ; 2.014758633283321E8 ; 1.4365964196341875E9 ; 3.1544649087046265E10 ; 0.0
166 ; 7972917.161488188 ; 2.0148148614882943E8 ; 1.44458389808615E9 ; 3.1746124950374596E10 ; 0.0
167 ; 7954114.532166321 ; 2.0148709270173255E8 ; 1.4525568152476382E9 ; 3.1947606436523426E10 ; 0.0
168 ; 7941264.308257435 ; 2.0149268279249707E8 ; 1.4605109297798045E9 ; 3.214909352922516E10 ; 0.0
169 ; 7926414.636275627 ; 2.0149825622878605E8 ; 1.4684521940880618E9 ; 3.2350586212017654E10 ; 0.0
170 ; 7909466.617099607 ; 2.0150381282042402E8 ; 1.4763786087243373E9 ; 3.255208446824644E10 ; 0.0
171 ; 7891468.114704741 ; 2.0150935237935302E8 ; 1.4842880753414369E9 ; 3.2753588281066864E10 ; 0.0
172 ; 7876846.207323142 ; 2.015148747195897E8 ; 1.4921795434561417E9 ; 3.2955097633446217E10 ; 0.0
173 ; 7863073.70860677 ; 2.0152037965718397E8 ; 1.5000563896634648E9 ; 3.3156612508165806E10 ; 0.0
174 ; 7851031.041146997 ; 2.015258670101788E8 ; 1.5079194633720715E9 ; 3.335813288782299E10 ; 0.0
175 ; 7836103.66085026 ; 2.015313365985715E8 ; 1.5157704944132185E9 ; 3.3559658754833168E10 ; 0.0
176 ; 7825895.854226738 ; 2.0153678824427602E8 ; 1.5236065980740688E9 ; 3.376119009143174E10 ; 0.0
177 ; 7814924.804221906 ; 2.0154222177108654E8 ; 1.5314324939282956E9 ; 3.3962726879676014E10 ; 0.0
178 ; 7798336.482992586 ; 2.0154763700464234E8 ; 1.5392474187325175E9 ; 3.41642691014471E10 ; 0.0
179 ; 7783889.344459399 ; 2.0155303377239347E8 ; 1.5470457552155101E9 ; 3.4365816738451744E10 ; 0.0
180 ; 7775027.9834996695 ; 2.0155841190356764E8 ; 1.5548296445599694E9 ; 3.456736977222414E10 ; 0.0
181 ; 7764389.076685522 ; 2.0156377122913837E8 ; 1.5626046725434692E9 ; 3.47689281841277E10 ; 0.0
182 ; 7751199.723627134 ; 2.015691115817937E8 ; 1.5703690616201546E9 ; 3.497049195535684E10 ; 0.0
183 ; 7737023.125337354 ; 2.0157443279590622E8 ; 1.5781202613437817E9 ; 3.517206106693864E10 ; 0.0
184 ; 7726769.515924302 ; 2.0157973470750389E8 ; 1.585857284469119E9 ; 3.537363549973454E10 ; 0.0
185 ; 7712670.147992376 ; 2.0158501715424177E8 ; 1.5935840539850433E9 ; 3.557521523444205E10 ; 0.0
186 ; 7698720.427568905 ; 2.015902799753746E8 ; 1.6012967241330357E9 ; 3.577680025159629E10 ; 0.0
187 ; 7685330.190283984 ; 2.0159552301173037E8 ; 1.6089954445606046E9 ; 3.597839053157166E10 ; 0.0
188 ; 7676492.499356691 ; 2.0160074610568452E8 ; 1.6166807747508886E9 ; 3.61799860545834E10 ; 0.0
189 ; 7666724.150569076 ; 2.016059491011349E8 ; 1.6243572672502453E9 ; 3.638158680068908E10 ; 0.0
190 ; 7650409.625320156 ; 2.0161113184347785E8 ; 1.6320239914008143E9 ; 3.6583192749790215E10 ; 0.0
191 ; 7641945.555462629 ; 2.0161629417958456E8 ; 1.6396744010261345E9 ; 3.678480388163369E10 ; 0.0
192 ; 7630393.9733971525 ; 2.0162143595777845E8 ; 1.647316346581597E9 ; 3.698642017581328E10 ; 0.0
193 ; 7616004.078386309 ; 2.016265570278131E8 ; 1.6549467405549943E9 ; 3.718804161177106E10 ; 0.0
194 ; 7603702.866365871 ; 2.016316572408509E8 ; 1.6625627446333807E9 ; 3.7389668168798874E10 ; 0.0
195 ; 7590742.327890374 ; 2.0163673644944233E8 ; 1.6701664474997466E9 ; 3.759129982603973E10 ; 0.0
196 ; 7579454.720045668 ; 2.0164179450750598E8 ; 1.677757189827637E9 ; 3.779293656248917E10 ; 0.0
197 ; 7565824.831310368 ; 2.016468312703089E8 ; 1.6853366445476825E9 ; 3.799457835699667E10 ; 0.0
198 ; 7556981.92457646 ; 2.016518465944479E8 ; 1.6929024693789928E9 ; 3.819622518826698E10 ; 0.0
199 ; 7538782.608542864 ; 2.0165684033783102E8 ; 1.7004594513035693E9 ; 3.839787703486143E10 ; 0.0
200 ; 7529093.839260299 ; 2.0166181235965994E8 ; 1.7079982339121122E9 ; 3.859953387519926E10 ; 0.0
201 ; 7514323.1266228035 ; 1.836729154091897E8 ; 1.7155273277513726E9 ; 3.8801195687558914E10 ; 0.0
