CSV File for the City 1 on Day 209
1 - Minute m 
2 - Power Consumed at minute m 
3 - Power Produced at minute m 
4 - Energy Consumed since the beginning of the day 
5 - Energy Produced since the beginning of the day 
6 - Energy Lost since the beginning of the day on lines starting from the city
 
0 ; 1068982.8167639577 ; 1.0534802137052408E8 ; 0.0 ; 0.0 ; 0.0
1 ; 1087688.4293016887 ; 1.05500487945301E8 ; 1068982.8167639577 ; 1.0534802137052408E8 ; 0.0
2 ; 1106076.4423564342 ; 1.0596177539728126E8 ; 2156671.2460656464 ; 2.1084850931582507E8 ; 0.0
3 ; 1125527.4425254746 ; 1.0673188880603665E8 ; 3262747.6884220806 ; 3.1681028471310633E8 ; 0.0
4 ; 1153263.9915696045 ; 1.0781083285105878E8 ; 4388275.130947555 ; 4.23542173519143E8 ; 0.0
5 ; 1185723.7887812273 ; 1.0919861174651462E8 ; 5541539.12251716 ; 5.3135300637020177E8 ; 0.0
6 ; 1227178.6095995472 ; 1.1089522917921564E8 ; 6727262.911298388 ; 6.405516181167164E8 ; 0.0
7 ; 1283119.0415823236 ; 1.1290068825177002E8 ; 7954441.520897935 ; 7.51446847295932E8 ; 0.0
8 ; 1365233.1079829917 ; 1.1521499143285704E8 ; 9237560.56248026 ; 8.643475355477021E8 ; 0.0
9 ; 1483707.606196401 ; 1.1783814051641917E8 ; 1.0602793670463251E7 ; 9.795625269805591E8 ; 0.0
10 ; 1662781.1370118763 ; 1.2077013659131128E8 ; 1.2086501276659653E7 ; 1.0974006674969783E9 ; 0.0
11 ; 1954010.9418996815 ; 1.2401098002259204E8 ; 1.3749282413671529E7 ; 1.2181708040882895E9 ; 0.0
12 ; 2420758.711195569 ; 1.2756067044520274E8 ; 1.570329335557121E7 ; 1.3421817841108816E9 ; 0.0
13 ; 2866114.3670531493 ; 1.3141920677028853E8 ; 1.812405206676678E7 ; 1.4697424545560844E9 ; 0.0
14 ; 2923525.0580091537 ; 1.35586587203907E8 ; 2.0990166433819927E7 ; 1.6011616613263729E9 ; 0.0
15 ; 2949229.327797021 ; 1.400628092773788E8 ; 2.3913691491829082E7 ; 1.7367482485302799E9 ; 0.0
16 ; 2969027.446797243 ; 1.4484786988809583E8 ; 2.6862920819626104E7 ; 1.8768110578076587E9 ; 0.0
17 ; 2994080.7775173974 ; 1.4994176534924653E8 ; 2.983194826642335E7 ; 2.0216589276957545E9 ; 0.0
18 ; 3011309.825940308 ; 1.5534449144666398E8 ; 3.2826029043940745E7 ; 2.171600693045001E9 ; 0.0
19 ; 3042520.430352647 ; 1.6105604350085655E8 ; 3.5837338869881056E7 ; 2.326945184491665E9 ; 0.0
20 ; 3066363.8597476343 ; 1.6707641643225244E8 ; 3.887985930023371E7 ; 2.4880012279925213E9 ; 0.0
21 ; 3088756.0000931937 ; 1.734056048277568E8 ; 4.194622315998134E7 ; 2.6550776444247737E9 ; 0.0
22 ; 3116225.106557229 ; 1.800436030068742E8 ; 4.503497916007453E7 ; 2.8284832492525306E9 ; 0.0
23 ; 3141055.016120138 ; 1.8699040508586895E8 ; 4.815120426663176E7 ; 3.0085268522594047E9 ; 0.0
24 ; 3161891.8834775155 ; 1.94246005038692E8 ; 5.1292259282751895E7 ; 3.1955172573452735E9 ; 0.0
25 ; 3186400.8520852295 ; 2.004984376518682E8 ; 5.445415116622941E7 ; 3.3897632623839655E9 ; 0.0
26 ; 3210527.0504605593 ; 2.0050124461315623E8 ; 5.7640552018314645E7 ; 3.590261700035834E9 ; 0.0
27 ; 3234740.7257379447 ; 2.005041890828259E8 ; 6.085107906877521E7 ; 3.79076294464899E9 ; 0.0
28 ; 3258823.659743577 ; 2.005072649811958E8 ; 6.408581979451315E7 ; 3.9912671337318163E9 ; 0.0
29 ; 3280709.9452869445 ; 2.0051046631701824E8 ; 6.734464345425673E7 ; 4.191774398713012E9 ; 0.0
30 ; 3302246.5311724846 ; 2.0051378721713936E8 ; 7.062535339954367E7 ; 4.39228486503003E9 ; 0.0
31 ; 3324101.9453730783 ; 2.0051722195095238E8 ; 7.392759993071616E7 ; 4.5927986522471695E9 ; 0.0
32 ; 3346730.007679549 ; 2.0052076495000562E8 ; 7.725170187608923E7 ; 4.793315874198122E9 ; 0.0
33 ; 3370914.1514298334 ; 2.0052441082318795E8 ; 8.059843188376878E7 ; 4.993836639148128E9 ; 0.0
34 ; 3391620.054552744 ; 2.00528154367945E8 ; 8.396934603519861E7 ; 5.194361049971315E9 ; 0.0
35 ; 3411249.7667903746 ; 2.0053199057799125E8 ; 8.736096608975136E7 ; 5.39488920433926E9 ; 0.0
36 ; 3431238.5313560343 ; 2.0053591464797488E8 ; 9.077221585654174E7 ; 5.595421194917252E9 ; 0.0
37 ; 3453254.9865870066 ; 2.0053992197553372E8 ; 9.420345438789777E7 ; 5.795957109565227E9 ; 0.0
38 ; 3473397.0231912117 ; 2.0054400816115177E8 ; 9.765670937448478E7 ; 5.99649703154076E9 ; 0.0
39 ; 3490888.7330260826 ; 2.0054816900619185E8 ; 1.0113010639767599E8 ; 6.197041039701912E9 ; 0.0
40 ; 3507548.3551194803 ; 2.0055240050944346E8 ; 1.0462099513070208E8 ; 6.397589208708104E9 ; 0.0
41 ; 3526809.058191476 ; 2.005566988624861E8 ; 1.0812854348582156E8 ; 6.598141609217547E9 ; 0.0
42 ; 3543169.5936375475 ; 2.0056106044413242E8 ; 1.1165535254401304E8 ; 6.798698308080033E9 ; 0.0
43 ; 3561642.79016629 ; 2.0056548181417894E8 ; 1.1519852213765058E8 ; 6.999259368524166E9 ; 0.0
44 ; 3574805.474400926 ; 2.005699597066599E8 ; 1.1876016492781687E8 ; 7.199824850338345E9 ; 0.0
45 ; 3591436.047050033 ; 2.0057449102276912E8 ; 1.2233497040221779E8 ; 7.400394810045005E9 ; 0.0
46 ; 3604172.9309713743 ; 2.0057907282358724E8 ; 1.2592640644926782E8 ; 7.600969301067774E9 ; 0.0
47 ; 3614905.5691754273 ; 2.0058370232272878E8 ; 1.2953057938023919E8 ; 7.801548373891361E9 ; 0.0
48 ; 3631508.048274723 ; 2.0058837687900096E8 ; 1.3314548494941461E8 ; 8.00213207621409E9 ; 0.0
49 ; 3638296.590169603 ; 2.0059309398914835E8 ; 1.3677699299768934E8 ; 8.202720453093091E9 ; 0.0
50 ; 3650777.2956852205 ; 2.0059785128074223E8 ; 1.4041528958785895E8 ; 8.403313547082239E9 ; 0.0
51 ; 3657870.2566079525 ; 2.0060264650525945E8 ; 1.4406606688354418E8 ; 8.603911398362982E9 ; 0.0
52 ; 3670772.844772013 ; 2.0060747753138408E8 ; 1.4772393714015213E8 ; 8.80451404486824E9 ; 0.0
53 ; 3675955.8879350205 ; 2.0061234233855695E8 ; 1.5139470998492414E8 ; 9.005121522399624E9 ; 0.0
54 ; 3688681.740669557 ; 2.006172390107887E8 ; 1.5507066587285915E8 ; 9.20573386473818E9 ; 0.0
55 ; 3698849.851123241 ; 2.0062216573074695E8 ; 1.587593476135287E8 ; 9.406351103748968E9 ; 0.0
56 ; 3708810.132792465 ; 2.006271207741222E8 ; 1.6245819746465194E8 ; 9.606973269479715E9 ; 0.0
57 ; 3716719.8230985776 ; 2.0063210250427312E8 ; 1.6616700759744442E8 ; 9.807600390253838E9 ; 0.0
58 ; 3726390.6570925624 ; 2.0063710936714867E8 ; 1.69883727420543E8 ; 1.000823249275811E10 ; 0.0
59 ; 3736161.252753281 ; 2.0064213988648194E8 ; 1.7361011807763556E8 ; 1.020886960212526E10 ; 0.0
60 ; 3749395.074415225 ; 2.0064719265924844E8 ; 1.7734627933038884E8 ; 1.0409511742011742E10 ; 0.0
61 ; 3752340.096594166 ; 2.006522663513802E8 ; 1.8109567440480408E8 ; 1.061015893467099E10 ; 0.0
62 ; 3763489.958298379 ; 2.0065735969372624E8 ; 1.8484801450139824E8 ; 1.081081120102237E10 ; 0.0
63 ; 3770762.053230322 ; 2.0066247147824907E8 ; 1.8861150445969662E8 ; 1.1011468560716095E10 ; 0.0
64 ; 3782017.611701207 ; 2.0066760055444616E8 ; 1.9238226651292694E8 ; 1.1212131032194344E10 ; 0.0
65 ; 3791162.6954846834 ; 2.0067274582598588E8 ; 1.9616428412462816E8 ; 1.1412798632748789E10 ; 0.0
66 ; 3797316.551713628 ; 2.006779062475465E8 ; 1.9995544682011285E8 ; 1.1613471378574774E10 ; 0.0
67 ; 3805683.186049859 ; 2.0068308082184792E8 ; 2.0375276337182647E8 ; 1.181414928482232E10 ; 0.0
68 ; 3813261.72674886 ; 2.0068826859686482E8 ; 2.0755844655787632E8 ; 1.2014832365644169E10 ; 0.0
69 ; 3822540.5125282933 ; 2.0069346866321146E8 ; 2.1137170828462517E8 ; 1.2215520634241034E10 ; 0.0
70 ; 3832029.7442527344 ; 2.006986801516878E8 ; 2.1519424879715347E8 ; 1.2416214102904245E10 ; 0.0
71 ; 3835552.5365175055 ; 2.007039022309773E8 ; 2.190262785414062E8 ; 1.2616912783055933E10 ; 0.0
72 ; 3848399.0450618477 ; 2.0070913410548759E8 ; 2.2286183107792372E8 ; 1.2817616685286911E10 ; 0.0
73 ; 3852018.0536736213 ; 2.0071437501332468E8 ; 2.2671023012298557E8 ; 1.3018325819392399E10 ; 0.0
74 ; 3859263.319613035 ; 2.007196242243929E8 ; 2.305622481766592E8 ; 1.3219040194405724E10 ; 0.0
75 ; 3866695.157749018 ; 2.007248810386124E8 ; 2.3442151149627224E8 ; 1.3419759818630116E10 ; 0.0
76 ; 3876662.673099822 ; 2.0073014478424692E8 ; 2.3828820665402126E8 ; 1.3620484699668728E10 ; 0.0
77 ; 3881924.7407861506 ; 2.007354148163346E8 ; 2.4216486932712108E8 ; 1.3821214844452974E10 ; 0.0
78 ; 3880372.3111141557 ; 2.007406905152157E8 ; 2.4604679406790724E8 ; 1.4021950259269308E10 ; 0.0
79 ; 3888436.8857704084 ; 2.007459712851502E8 ; 2.499271663790214E8 ; 1.4222690949784523E10 ; 0.0
80 ; 3888719.833163575 ; 2.007512565530207E8 ; 2.5381560326479182E8 ; 1.4423436921069674E10 ; 0.0
81 ; 3884092.743157427 ; 2.007565457671136E8 ; 2.577043230979554E8 ; 1.4624188177622694E10 ; 0.0
82 ; 3887598.2948757643 ; 2.00761838395975E8 ; 2.6158841584111282E8 ; 1.4824944723389807E10 ; 0.0
83 ; 3889999.487002522 ; 2.007671339273354E8 ; 2.654760141359886E8 ; 1.5025706561785782E10 ; 0.0
84 ; 3890971.5748191336 ; 2.0077243186709931E8 ; 2.6936601362299114E8 ; 1.5226473695713118E10 ; 0.0
85 ; 3890958.9365285644 ; 2.007777317383954E8 ; 2.732569851978103E8 ; 1.5427246127580217E10 ; 0.0
86 ; 3890208.658766104 ; 2.0078303308068323E8 ; 2.7714794413433886E8 ; 1.5628023859318613E10 ; 0.0
87 ; 3890800.9295824654 ; 2.0078833544891325E8 ; 2.8103815279310495E8 ; 1.5828806892399296E10 ; 0.0
88 ; 3895273.9951441847 ; 2.0079363841273606E8 ; 2.849289537226874E8 ; 1.602959522784821E10 ; 0.0
89 ; 3894728.1425071 ; 2.0079894155575845E8 ; 2.888242277178316E8 ; 1.6230388866260946E10 ; 0.0
90 ; 3893531.7118923636 ; 2.0080424447484258E8 ; 2.927189558603387E8 ; 1.6431187807816704E10 ; 0.0
91 ; 3897544.469542444 ; 2.0080954677944615E8 ; 2.9661248757223105E8 ; 1.6631992052291546E10 ; 0.0
92 ; 3895879.1014946164 ; 2.0081484809100053E8 ; 3.005100320417735E8 ; 1.6832801599070992E10 ; 0.0
93 ; 3892203.2374270726 ; 2.0082014804232457E8 ; 3.044059111432681E8 ; 1.7033616447161991E10 ; 0.0
94 ; 3890202.189270866 ; 2.0082544627707207E8 ; 3.0829811438069516E8 ; 1.7234436595204315E10 ; 0.0
95 ; 3893730.0624430417 ; 2.0083074244921038E8 ; 3.12188316569966E8 ; 1.7435262041481388E10 ; 0.0
96 ; 3893385.933916006 ; 2.008360362225284E8 ; 3.1608204663240904E8 ; 1.76360927839306E10 ; 0.0
97 ; 3891547.456319859 ; 2.0084132727017254E8 ; 3.1997543256632507E8 ; 1.7836928820153126E10 ; 0.0
98 ; 3890198.5131953927 ; 2.00846615274208E8 ; 3.2386698002264494E8 ; 1.8037770147423298E10 ; 0.0
99 ; 3890633.042966041 ; 2.0085189992520475E8 ; 3.2775717853584033E8 ; 1.8238616762697506E10 ; 0.0
100 ; 3885223.3173841517 ; 2.008571809218461E8 ; 3.316478115788064E8 ; 1.843946866262271E10 ; 0.0
101 ; 3887708.928418997 ; 2.008624579705587E8 ; 3.355330348961905E8 ; 1.8640325843544556E10 ; 0.0
102 ; 3886618.373333601 ; 2.0086773078516287E8 ; 3.394207438246095E8 ; 1.8841188301515114E10 ; 0.0
103 ; 3883599.784286462 ; 2.0087299908654132E8 ; 3.433073621979431E8 ; 1.9042056032300278E10 ; 0.0
104 ; 3884726.0332572176 ; 2.0087826260232618E8 ; 3.4719096198222953E8 ; 1.9242929031386818E10 ; 0.0
105 ; 3882262.9047406786 ; 2.0088352106660244E8 ; 3.510756880154868E8 ; 1.9443807293989143E10 ; 0.0
106 ; 3881316.9630572503 ; 2.0088877421962708E8 ; 3.5495795092022747E8 ; 1.9644690815055744E10 ; 0.0
107 ; 3876000.545506814 ; 2.008940218075632E8 ; 3.5883926788328475E8 ; 1.984557958927537E10 ; 0.0
108 ; 3877208.6628510603 ; 2.008992635822278E8 ; 3.627152684287916E8 ; 2.0046473611082935E10 ; 0.0
109 ; 3872251.7548700143 ; 2.009044993008529E8 ; 3.665924770916426E8 ; 2.0247372874665165E10 ; 0.0
110 ; 3871911.332772758 ; 2.009097287258589E8 ; 3.704647288465126E8 ; 2.044827737396602E10 ; 0.0
111 ; 3870649.057001603 ; 2.0091495162463945E8 ; 3.7433664017928535E8 ; 2.064918710269188E10 ; 0.0
112 ; 3867668.074885257 ; 2.0092016776935765E8 ; 3.7820728923628694E8 ; 2.0850102054316517E10 ; 0.0
113 ; 3866597.1458966136 ; 2.0092537693675217E8 ; 3.820749573111722E8 ; 2.1051022222085873E10 ; 0.0
114 ; 3859013.0482499865 ; 2.0093057890795338E8 ; 3.859415544570688E8 ; 2.1251947599022625E10 ; 0.0
115 ; 3858080.30123559 ; 2.0093577346830875E8 ; 3.8980056750531876E8 ; 2.145287817793058E10 ; 0.0
116 ; 3856211.2788260994 ; 2.0094096040721667E8 ; 3.936586478065544E8 ; 2.1653813951398888E10 ; 0.0
117 ; 3851235.6803779127 ; 2.0094613951796874E8 ; 3.975148590853805E8 ; 2.1854754911806103E10 ; 0.0
118 ; 3847225.4992909073 ; 2.009513105975997E8 ; 4.013660947657584E8 ; 2.205570105132407E10 ; 0.0
119 ; 3847800.8023589146 ; 2.0095647344674462E8 ; 4.052133202650493E8 ; 2.225665236192167E10 ; 0.0
120 ; 3843030.841648349 ; 2.0096162786950335E8 ; 4.090611210674082E8 ; 2.2457608835368412E10 ; 0.0
121 ; 3839723.729353599 ; 2.00966773673311E8 ; 4.1290415190905654E8 ; 2.2658570463237915E10 ; 0.0
122 ; 3836118.6731774504 ; 2.0097191066881508E8 ; 4.1674387563841015E8 ; 2.2859537236911224E10 ; 0.0
123 ; 3830298.7198168444 ; 2.009770386697583E8 ; 4.205799943115876E8 ; 2.306050914758004E10 ; 0.0
124 ; 3824993.9599911505 ; 2.009821574928669E8 ; 4.2441029303140444E8 ; 2.3261486186249798E10 ; 0.0
125 ; 3823432.902437126 ; 2.0098726695774445E8 ; 4.282352869913956E8 ; 2.3462468343742664E10 ; 0.0
126 ; 3819939.7625551578 ; 2.009923668867703E8 ; 4.3205871989383274E8 ; 2.366345561070041E10 ; 0.0
127 ; 3812770.133377042 ; 2.0099745710500303E8 ; 4.358786596563879E8 ; 2.386444797758718E10 ; 0.0
128 ; 3809816.9160403493 ; 2.0100253744008827E8 ; 4.3969142978976494E8 ; 2.4065445434692184E10 ; 0.0
129 ; 3806374.848007504 ; 2.010076077221709E8 ; 4.435012467058053E8 ; 2.426644797213227E10 ; 0.0
130 ; 3797663.056072407 ; 2.0101266778381085E8 ; 4.473076215538128E8 ; 2.4467455579854443E10 ; 0.0
131 ; 3789137.3566626622 ; 2.010177174599034E8 ; 4.511052846098852E8 ; 2.4668468247638252E10 ; 0.0
132 ; 3780818.1011391613 ; 2.0102275658760244E8 ; 4.548944219665479E8 ; 2.4869485965098156E10 ; 0.0
133 ; 3768369.879400337 ; 2.0102778500624767E8 ; 4.586752400676871E8 ; 2.5070508721685757E10 ; 0.0
134 ; 3757141.9791477504 ; 2.0103280255729476E8 ; 4.624436099470874E8 ; 2.5271536506692005E10 ; 0.0
135 ; 3746670.7395391716 ; 2.0103780908424875E8 ; 4.6620075192623514E8 ; 2.54725693092493E10 ; 0.0
136 ; 3734259.1279297587 ; 2.010428044326004E8 ; 4.699474226657743E8 ; 2.5673607118333546E10 ; 0.0
137 ; 3727447.6276570847 ; 2.0104778844976538E8 ; 4.7368168179370403E8 ; 2.5874649922766148E10 ; 0.0
138 ; 3714198.8824965497 ; 2.0105276098502594E8 ; 4.774091294213611E8 ; 2.607569771121591E10 ; 0.0
139 ; 3703899.7585690278 ; 2.0105772188947544E8 ; 4.811233283038576E8 ; 2.627675047220094E10 ; 0.0
140 ; 3689949.2533741845 ; 2.0106267101596493E8 ; 4.848272280624266E8 ; 2.6477808194090416E10 ; 0.0
141 ; 3678216.7333082934 ; 2.010676082190524E8 ; 4.885171773158008E8 ; 2.667887086510638E10 ; 0.0
142 ; 3669463.991853498 ; 2.0107253335495397E8 ; 4.921953940491091E8 ; 2.687993847332543E10 ; 0.0
143 ; 3659876.777243915 ; 2.0107744628149718E8 ; 4.958648580409626E8 ; 2.7081011006680386E10 ; 0.0
144 ; 3647483.469460023 ; 2.0108234685807636E8 ; 4.995247348182065E8 ; 2.7282088452961884E10 ; 0.0
145 ; 3642765.5907305013 ; 2.0108723494560996E8 ; 5.031722182876665E8 ; 2.748317079981996E10 ; 0.0
146 ; 3631897.4953901554 ; 2.0109211040649936E8 ; 5.06814983878397E8 ; 2.768425803476557E10 ; 0.0
147 ; 3629843.7610128326 ; 2.0109697310458988E8 ; 5.1044688137378716E8 ; 2.788535014517207E10 ; 0.0
148 ; 3630721.545195518 ; 2.01101822905133E8 ; 5.140767251348E8 ; 2.808644711827666E10 ; 0.0
149 ; 3622102.1196661433 ; 2.011066596747504E8 ; 5.1770744667999554E8 ; 2.8287548941181793E10 ; 0.0
150 ; 3619063.8280923604 ; 2.0111148328139928E8 ; 5.213295487996617E8 ; 2.8488655600856544E10 ; 0.0
151 ; 3613946.8082896867 ; 2.0111629359433955E8 ; 5.2494861262775403E8 ; 2.8689767084137943E10 ; 0.0
152 ; 3611762.282438143 ; 2.011210904841017E8 ; 5.2856255943604374E8 ; 2.8890883377732285E10 ; 0.0
153 ; 3599965.802972516 ; 2.0112587382245663E8 ; 5.321743217184819E8 ; 2.9092004468216385E10 ; 0.0
154 ; 3599092.3726913584 ; 2.0113064348238626E8 ; 5.357742875214544E8 ; 2.929313034203884E10 ; 0.0
155 ; 3593715.250766973 ; 2.011353993380556E8 ; 5.393733798941457E8 ; 2.949426098552123E10 ; 0.0
156 ; 3588680.5168045755 ; 2.0114014126478586E8 ; 5.429670951449127E8 ; 2.9695396384859283E10 ; 0.0
157 ; 3585836.2370947613 ; 2.0114486913902846E8 ; 5.465557756617173E8 ; 2.989653652612407E10 ; 0.0
158 ; 3580322.953534558 ; 2.011495828383406E8 ; 5.50141611898812E8 ; 3.0097681395263096E10 ; 0.0
159 ; 3578216.340297376 ; 2.011542822413612E8 ; 5.537219348523467E8 ; 3.0298830978101437E10 ; 0.0
160 ; 3569770.0389656327 ; 2.011589672277881E8 ; 5.57300151192644E8 ; 3.0499985260342796E10 ; 0.0
161 ; 3564388.136291828 ; 2.0116363767835623E8 ; 5.608699212316096E8 ; 3.0701144227570583E10 ; 0.0
162 ; 3562722.064937248 ; 2.0116829347481656E8 ; 5.644343093679014E8 ; 3.090230786524894E10 ; 0.0
163 ; 3553384.071431471 ; 2.0117293449991575E8 ; 5.679970314328387E8 ; 3.1103476158723755E10 ; 0.0
164 ; 3550082.044110849 ; 2.0117756063737684E8 ; 5.715504155042702E8 ; 3.130464909322367E10 ; 0.0
165 ; 3547321.9501593728 ; 2.0118217177188057E8 ; 5.751004975483811E8 ; 3.150582665386105E10 ; 0.0
166 ; 3541341.1495023607 ; 2.0118676778904736E8 ; 5.786478194985405E8 ; 3.170700882563293E10 ; 0.0
167 ; 3533721.898982449 ; 2.0119134857542014E8 ; 5.821891606480429E8 ; 3.1908195593421978E10 ; 0.0
168 ; 3529915.561600874 ; 2.0119591401844785E8 ; 5.857228825470253E8 ; 3.21093869419974E10 ; 0.0
169 ; 3524227.4490535306 ; 2.0120046400646934E8 ; 5.892527981086262E8 ; 3.2310582856015846E10 ; 0.0
170 ; 3517536.5426342497 ; 2.012049984286983E8 ; 5.927770255576798E8 ; 3.2511783320022316E10 ; 0.0
171 ; 3514350.677035844 ; 2.0120951717520836E8 ; 5.96294562100314E8 ; 3.2712988318451015E10 ; 0.0
172 ; 3512105.9619473713 ; 2.0121402013691896E8 ; 5.998089127773498E8 ; 3.2914197835626225E10 ; 0.0
173 ; 3505393.1341583915 ; 2.0121850720558187E8 ; 6.033210187392972E8 ; 3.311541185576314E10 ; 0.0
174 ; 3504847.7249487187 ; 2.0122297827376798E8 ; 6.068264118734555E8 ; 3.3316630362968723E10 ; 0.0
175 ; 3497936.653601095 ; 2.0122743323485485E8 ; 6.103312595984043E8 ; 3.3517853341242493E10 ; 0.0
176 ; 3491722.214976761 ; 2.0123187198301443E8 ; 6.138291962520053E8 ; 3.371908077447735E10 ; 0.0
177 ; 3491295.4248405783 ; 2.012362944132016E8 ; 6.173209184669821E8 ; 3.392031264646036E10 ; 0.0
178 ; 3485827.2675124337 ; 2.0124070042114294E8 ; 6.208122138918227E8 ; 3.412154894087356E10 ; 0.0
179 ; 3485193.462148396 ; 2.0124508990332583E8 ; 6.242980411593351E8 ; 3.4322789641294704E10 ; 0.0
180 ; 3480937.2599108294 ; 2.012494627569883E8 ; 6.277832346214836E8 ; 3.452403473119803E10 ; 0.0
181 ; 3475993.196596219 ; 2.0125381888010883E8 ; 6.312641718813944E8 ; 3.472528419395502E10 ; 0.0
182 ; 3478041.7737919795 ; 2.0125815817139706E8 ; 6.347401650779907E8 ; 3.492653801283513E10 ; 0.0
183 ; 3471761.7921598703 ; 2.0126248053028426E8 ; 6.382182068517827E8 ; 3.512779617100652E10 ; 0.0
184 ; 3468052.681837424 ; 2.0126678585691464E8 ; 6.416899686439426E8 ; 3.5329058651536804E10 ; 0.0
185 ; 3462737.2668661145 ; 2.012710740521368E8 ; 6.4515802132578E8 ; 3.553032543739372E10 ; 0.0
186 ; 3460928.6631373568 ; 2.0127534501749545E8 ; 6.486207585926461E8 ; 3.573159651144586E10 ; 0.0
187 ; 3456021.752450187 ; 2.0127959865522352E8 ; 6.520816872557834E8 ; 3.5932871856463356E10 ; 0.0
188 ; 3453559.352734337 ; 2.0128383486823457E8 ; 6.555377090082337E8 ; 3.6134151455118576E10 ; 0.0
189 ; 3451032.066022537 ; 2.012880535601155E8 ; 6.58991268360968E8 ; 3.633543528998681E10 ; 0.0
190 ; 3446547.3006606577 ; 2.0129225463511938E8 ; 6.624423004269905E8 ; 3.653672334354692E10 ; 0.0
191 ; 3441258.5776017965 ; 2.012964379981589E8 ; 6.658888477276511E8 ; 3.673801559818204E10 ; 0.0
192 ; 3441614.917128586 ; 2.0130060355479962E8 ; 6.693301063052529E8 ; 3.69393120361802E10 ; 0.0
193 ; 3440526.457240791 ; 2.0130475121125382E8 ; 6.727717212223815E8 ; 3.7140612639735E10 ; 0.0
194 ; 3432681.3875969746 ; 2.0130888087437445E8 ; 6.762122476796223E8 ; 3.734191739094625E10 ; 0.0
195 ; 3432735.0058907666 ; 2.0131299245164925E8 ; 6.796449290672193E8 ; 3.7543226271820625E10 ; 0.0
196 ; 3425431.917019928 ; 2.0131708585119525E8 ; 6.8307766407311E8 ; 3.774453926427228E10 ; 0.0
197 ; 3424803.0301559647 ; 2.0132116098175338E8 ; 6.8650309599013E8 ; 3.7945856350123474E10 ; 0.0
198 ; 3420032.5727901314 ; 2.0132521775268322E8 ; 6.89927899020286E8 ; 3.8147177511105225E10 ; 0.0
199 ; 3415026.6777654714 ; 2.0132925607395813E8 ; 6.933479315930761E8 ; 3.834850272885791E10 ; 0.0
200 ; 3413613.315640202 ; 2.013332758561604E8 ; 6.967629582708416E8 ; 3.854983198493187E10 ; 0.0
