CSV File for the City 1 on Day 168
1 - Minute m 
2 - Power Consumed at minute m 
3 - Power Produced at minute m 
4 - Energy Consumed since the beginning of the day 
5 - Energy Produced since the beginning of the day 
6 - Energy Lost since the beginning of the day on lines starting from the city
 
0 ; 5759247.813088338 ; 1.0551953933769307E8 ; 0.0 ; 0.0 ; 0.0
1 ; 5770553.614623622 ; 1.056724789346736E8 ; 5759247.813088338 ; 1.0551953933769307E8 ; 0.0
2 ; 5784681.80032902 ; 1.0613420108348355E8 ; 1.152980142771196E7 ; 2.1119201827236667E8 ; 0.0
3 ; 5802834.5985893635 ; 1.0690470735530454E8 ; 1.731448322804098E7 ; 3.173262193558502E8 ; 0.0
4 ; 5820431.615127925 ; 1.0798399915945351E8 ; 2.3117317826630343E7 ; 4.2423092671115476E8 ; 0.0
5 ; 5849707.126222114 ; 1.0937207773515111E8 ; 2.8937749441758268E7 ; 5.3221492587060827E8 ; 0.0
6 ; 5882733.373554145 ; 1.110689441441361E8 ; 3.478745656798038E7 ; 6.415870036057594E8 ; 0.0
7 ; 5926181.36370514 ; 1.1307459926422888E8 ; 4.067018994153453E7 ; 7.526559477498955E8 ; 0.0
8 ; 6001764.561674936 ; 1.1538904378393239E8 ; 4.659637130523966E7 ; 8.657305470141244E8 ; 0.0
9 ; 6119707.507849308 ; 1.1801227819814926E8 ; 5.25981358669146E7 ; 9.811195907980568E8 ; 0.0
10 ; 6298457.302864757 ; 1.2094430280507618E8 ; 5.8717843374763906E7 ; 1.099131868996206E9 ; 0.0
11 ; 6580885.670576988 ; 1.2418511770432213E8 ; 6.5016300677628666E7 ; 1.2200761718012822E9 ; 0.0
12 ; 7038378.546010061 ; 1.2773472279627809E8 ; 7.159718634820566E7 ; 1.3442612895056043E9 ; 0.0
13 ; 7478917.687661525 ; 1.3159311778274739E8 ; 7.863556489421572E7 ; 1.4719960123018823E9 ; 0.0
14 ; 7529637.71894734 ; 1.3576030216882747E8 ; 8.611448258187725E7 ; 1.6035891300846295E9 ; 0.0
15 ; 7549852.5635923175 ; 1.402362752660153E8 ; 9.364412030082458E7 ; 1.739349432253457E9 ; 0.0
16 ; 7564179.737129103 ; 1.4502103619649056E8 ; 1.011939728644169E8 ; 1.8795857075194724E9 ; 0.0
17 ; 7580588.194343918 ; 1.5011458389851442E8 ; 1.08758152601546E8 ; 2.024606743715963E9 ; 0.0
18 ; 7599459.831279817 ; 1.5551691713286626E8 ; 1.1633874079588993E8 ; 2.174721327614477E9 ; 0.0
19 ; 7616006.151459597 ; 1.6122803449022916E8 ; 1.2393820062716974E8 ; 2.3302382447473435E9 ; 0.0
20 ; 7631849.199416037 ; 1.6724793439942142E8 ; 1.3155420677862933E8 ; 2.4914662792375727E9 ; 0.0
21 ; 7651977.3242425 ; 1.735766151363668E8 ; 1.3918605597804537E8 ; 2.658714213636994E9 ; 0.0
22 ; 7672053.249612372 ; 1.8021407483368623E8 ; 1.4683803330228788E8 ; 2.8322908287733607E9 ; 0.0
23 ; 7687427.758358825 ; 1.8716031149079424E8 ; 1.5451008655190024E8 ; 3.012504903607047E9 ; 0.0
24 ; 7705504.283805542 ; 1.944153229843794E8 ; 1.6219751431025907E8 ; 3.1996652150978413E9 ; 0.0
25 ; 7722947.647761804 ; 2.0066714797733492E8 ; 1.6990301859406462E8 ; 3.3940805380822206E9 ; 0.0
26 ; 7739673.712204404 ; 2.006693319665541E8 ; 1.7762596624182642E8 ; 3.5947476860595555E9 ; 0.0
27 ; 7758614.347341692 ; 2.0067164181877598E8 ; 1.853656399540308E8 ; 3.7954170180261097E9 ; 0.0
28 ; 7772523.408016009 ; 2.0067407502824154E8 ; 1.931242543013725E8 ; 3.996088659844886E9 ; 0.0
29 ; 7791033.393029116 ; 2.0067662902067024E8 ; 2.008967777093885E8 ; 4.1967627348731275E9 ; 0.0
30 ; 7809100.1606747955 ; 2.006793011637541E8 ; 2.0868781110241762E8 ; 4.397439363893798E9 ; 0.0
31 ; 7827362.887543369 ; 2.0068208877734002E8 ; 2.164969112630924E8 ; 4.598118665057552E9 ; 0.0
32 ; 7841858.752492189 ; 2.0068498914323568E8 ; 2.2432427415063578E8 ; 4.798800753834892E9 ; 0.0
33 ; 7856577.100181811 ; 2.0068799951458478E8 ; 2.3216613290312797E8 ; 4.999485742978128E9 ; 0.0
34 ; 7872346.294686808 ; 2.006911171247676E8 ; 2.400227100033098E8 ; 5.200173742492713E9 ; 0.0
35 ; 7889666.109131716 ; 2.0069433919579256E8 ; 2.4789505629799658E8 ; 5.40086485961748E9 ; 0.0
36 ; 7903970.836892231 ; 2.006976629461537E8 ; 2.557847224071283E8 ; 5.601559198813272E9 ; 0.0
37 ; 7916173.7207883485 ; 2.0070108559813794E8 ; 2.6368869324402052E8 ; 5.802256861759426E9 ; 0.0
38 ; 7925918.371788299 ; 2.0070460438457337E8 ; 2.716048669648089E8 ; 6.002957947357564E9 ; 0.0
39 ; 7939407.510601074 ; 2.0070821655501777E8 ; 2.795307853365972E8 ; 6.203662551742137E9 ; 0.0
40 ; 7948092.596095629 ; 2.007119193813915E8 ; 2.874701928471983E8 ; 6.404370768297154E9 ; 0.0
41 ; 7960677.483070381 ; 2.0071571016306612E8 ; 2.954182854432939E8 ; 6.605082687678546E9 ; 0.0
42 ; 7970771.760869602 ; 2.0071958623142302E8 ; 3.033789629263643E8 ; 6.805798397841612E9 ; 0.0
43 ; 7978253.733962095 ; 2.007235449539011E8 ; 3.113497346872339E8 ; 7.006517984073035E9 ; 0.0
44 ; 7986312.717561037 ; 2.0072758373755553E8 ; 3.1932798842119604E8 ; 7.207241529026937E9 ; 0.0
45 ; 7999881.354190804 ; 2.007317000321514E8 ; 3.273143011387571E8 ; 7.407969112764492E9 ; 0.0
46 ; 8005595.589501315 ; 2.0073589133281887E8 ; 3.3531418249294794E8 ; 7.608700812796643E9 ; 0.0
47 ; 8005571.241958288 ; 2.0074015518229613E8 ; 3.4331977808244926E8 ; 7.809436704129462E9 ; 0.0
48 ; 8015019.107055503 ; 2.007444891727885E8 ; 3.513253493244075E8 ; 8.010176859311758E9 ; 0.0
49 ; 8018703.134889347 ; 2.0074889094747144E8 ; 3.59340368431463E8 ; 8.210921348484547E9 ; 0.0
50 ; 8025456.432766755 ; 2.0075335820166513E8 ; 3.6735907156635237E8 ; 8.411670239432018E9 ; 0.0
51 ; 8026043.237610752 ; 2.0075788868370813E8 ; 3.753845279991191E8 ; 8.612423597633684E9 ; 0.0
52 ; 8029595.133702116 ; 2.007624801955563E8 ; 3.8341057123672986E8 ; 8.813181486317392E9 ; 0.0
53 ; 8034887.648060182 ; 2.0076713059313336E8 ; 3.9144016637043196E8 ; 9.013943966512949E9 ; 0.0
54 ; 8036188.788679543 ; 2.0077183778645653E8 ; 3.9947505401849216E8 ; 9.214711097106083E9 ; 0.0
55 ; 8035308.304946475 ; 2.0077659973956147E8 ; 4.075112428071717E8 ; 9.41548293489254E9 ; 0.0
56 ; 8041151.665141148 ; 2.0078141447024807E8 ; 4.155465511121182E8 ; 9.616259534632101E9 ; 0.0
57 ; 8045972.856079611 ; 2.0078628004966778E8 ; 4.2358770277725935E8 ; 9.817040949102348E9 ; 0.0
58 ; 8046639.457318439 ; 2.0079119460177156E8 ; 4.31633675633339E8 ; 1.0017827229152016E10 ; 0.0
59 ; 8051434.535320849 ; 2.0079615630263692E8 ; 4.396803150906574E8 ; 1.0218618423753788E10 ; 0.0
60 ; 8053453.948938516 ; 2.0080116337968984E8 ; 4.477317496259783E8 ; 1.0419414580056425E10 ; 0.0
61 ; 8055683.178515137 ; 2.0080621411083713E8 ; 4.557852035749168E8 ; 1.0620215743436115E10 ; 0.0
62 ; 8059501.737398986 ; 2.0081130682352325E8 ; 4.638408867534319E8 ; 1.0821021957546953E10 ; 0.0
63 ; 8054697.082552198 ; 2.00816439893724E8 ; 4.719003884908309E8 ; 1.1021833264370476E10 ; 0.0
64 ; 8058864.114955581 ; 2.008216117448887E8 ; 4.799550855733831E8 ; 1.12226497042642E10 ; 0.0
65 ; 8061355.316019581 ; 2.008268208468413E8 ; 4.880139496883387E8 ; 1.1423471316009089E10 ; 0.0
66 ; 8064108.488074223 ; 2.0083206571464977E8 ; 4.960753050043583E8 ; 1.162429813685593E10 ; 0.0
67 ; 8064550.123487898 ; 2.0083734490747198E8 ; 5.0413941349243253E8 ; 1.182513020257058E10 ; 0.0
68 ; 8063934.845542126 ; 2.0084265702738592E8 ; 5.122039636159204E8 ; 1.2025967547478052E10 ; 0.0
69 ; 8066895.233259217 ; 2.0084800071821043E8 ; 5.2026789846146256E8 ; 1.2226810204505438E10 ; 0.0
70 ; 8066283.476180122 ; 2.0085337466432273E8 ; 5.2833479369472176E8 ; 1.2427658205223648E10 ; 0.0
71 ; 8068485.20071093 ; 2.008587775894776E8 ; 5.364010771709019E8 ; 1.262851157988797E10 ; 0.0
72 ; 8067415.03212894 ; 2.0086420825563294E8 ; 5.444695623716128E8 ; 1.2829370357477448E10 ; 0.0
73 ; 8068001.485558743 ; 2.0086966546178535E8 ; 5.525369774037417E8 ; 1.303023456573308E10 ; 0.0
74 ; 8067448.987730001 ; 2.0087514804281947E8 ; 5.606049788893005E8 ; 1.3231104231194866E10 ; 0.0
75 ; 8070011.212847256 ; 2.0088065486837357E8 ; 5.686724278770305E8 ; 1.3431979379237686E10 ; 0.0
76 ; 8065261.879165006 ; 2.0088618484172416E8 ; 5.767424390898777E8 ; 1.363286003410606E10 ; 0.0
77 ; 8068701.491821128 ; 2.008917368986914E8 ; 5.848077009690428E8 ; 1.3833746218947784E10 ; 0.0
78 ; 8066017.993280744 ; 2.0089731000656715E8 ; 5.92876402460864E8 ; 1.4034637955846476E10 ; 0.0
79 ; 8055968.757419988 ; 2.0090290316306716E8 ; 6.009424204541447E8 ; 1.4235535265853043E10 ; 0.0
80 ; 8054386.387557886 ; 2.0090851539530802E8 ; 6.089983892115647E8 ; 1.443643816901611E10 ; 0.0
81 ; 8047424.609636047 ; 2.0091414575881028E8 ; 6.170527755991225E8 ; 1.4637346684411417E10 ; 0.0
82 ; 8036598.852870719 ; 2.0091979333652797E8 ; 6.251002002087586E8 ; 1.4838260830170227E10 ; 0.0
83 ; 8035052.305542927 ; 2.0092545723790494E8 ; 6.331367990616293E8 ; 1.5039180623506756E10 ; 0.0
84 ; 8026933.302646735 ; 2.0093113659795868E8 ; 6.411718513671722E8 ; 1.5240106080744661E10 ; 0.0
85 ; 8019135.218408887 ; 2.0093683057639104E8 ; 6.49198784669819E8 ; 1.544103721734262E10 ; 0.0
86 ; 8011308.414043439 ; 2.0094253835672647E8 ; 6.572179198882279E8 ; 1.5641974047919012E10 ; 0.0
87 ; 8005646.869292342 ; 2.009482591454771E8 ; 6.652292283022714E8 ; 1.5842916586275738E10 ; 0.0
88 ; 7997391.432940149 ; 2.0095399217133483E8 ; 6.732348751715637E8 ; 1.6043864845421215E10 ; 0.0
89 ; 7989739.275721355 ; 2.0095973668438992E8 ; 6.812322666045039E8 ; 1.624481883759255E10 ; 0.0
90 ; 7986394.368430978 ; 2.0096549195537543E8 ; 6.892220058802252E8 ; 1.644577857427694E10 ; 0.0
91 ; 7974020.408178567 ; 2.0097125727493763E8 ; 6.972084002486562E8 ; 1.6646744066232315E10 ; 0.0
92 ; 7971253.707108115 ; 2.0097703195293137E8 ; 7.051824206568347E8 ; 1.6847715323507252E10 ; 0.0
93 ; 7960736.979517284 ; 2.0098281531773996E8 ; 7.131536743639429E8 ; 1.7048692355460182E10 ; 0.0
94 ; 7953931.908963947 ; 2.009886067156192E8 ; 7.211144113434602E8 ; 1.7249675170777924E10 ; 0.0
95 ; 7947823.21908166 ; 2.0099440551006478E8 ; 7.290683432524241E8 ; 1.745066377749354E10 ; 0.0
96 ; 7940127.472407809 ; 2.0100021108120242E8 ; 7.370161664715058E8 ; 1.7651658183003605E10 ; 0.0
97 ; 7930318.239271235 ; 2.0100602282520008E8 ; 7.449562939439136E8 ; 1.785265839408481E10 ; 0.0
98 ; 7922753.059068584 ; 2.0101184015370187E8 ; 7.528866121831849E8 ; 1.8053664416910007E10 ; 0.0
99 ; 7916479.947625038 ; 2.010176624932826E8 ; 7.608093652422534E8 ; 1.825467625706371E10 ; 0.0
100 ; 7903295.313763049 ; 2.010234892849227E8 ; 7.687258451898785E8 ; 1.845569391955699E10 ; 0.0
101 ; 7896068.636690467 ; 2.010293199835025E8 ; 7.766291405036415E8 ; 1.8656717408841915E10 ; 0.0
102 ; 7885302.528846898 ; 2.0103515405731574E8 ; 7.84525209140332E8 ; 1.8857746728825417E10 ; 0.0
103 ; 7879088.673188612 ; 2.010409909876009E8 ; 7.924105116691788E8 ; 1.9058781882882732E10 ; 0.0
104 ; 7870407.114696325 ; 2.0104683026809067E8 ; 8.002896003423674E8 ; 1.9259822873870335E10 ; 0.0
105 ; 7861882.443317655 ; 2.0105267140457818E8 ; 8.081600074570638E8 ; 1.9460869704138424E10 ; 0.0
106 ; 7846742.027679224 ; 2.010585139144996E8 ; 8.160218899003814E8 ; 1.9661922375543003E10 ; 0.0
107 ; 7842556.581150344 ; 2.0106435732653296E8 ; 8.238686319280607E8 ; 1.9862980889457504E10 ; 0.0
108 ; 7833766.462733369 ; 2.0107020118021178E8 ; 8.31711188509211E8 ; 2.006404524678404E10 ; 0.0
109 ; 7821689.764002191 ; 2.0107604502555382E8 ; 8.395449549719443E8 ; 2.026511544796425E10 ; 0.0
110 ; 7817399.471510017 ; 2.0108188842270362E8 ; 8.473666447359465E8 ; 2.0466191492989803E10 ; 0.0
111 ; 7805101.074833485 ; 2.010877309415891E8 ; 8.551840442074566E8 ; 2.0667273381412506E10 ; 0.0
112 ; 7796853.965111592 ; 2.010935721615909E8 ; 8.629891452822901E8 ; 2.0868361112354095E10 ; 0.0
113 ; 7780684.290226451 ; 2.0109941167122465E8 ; 8.707859992474017E8 ; 2.1069454684515686E10 ; 0.0
114 ; 7774704.194848639 ; 2.0110524906783506E8 ; 8.785666835376282E8 ; 2.1270554096186913E10 ; 0.0
115 ; 7762767.917210709 ; 2.0111108395730206E8 ; 8.863413877324768E8 ; 2.147165934525475E10 ; 0.0
116 ; 7754809.166589997 ; 2.0111691595375788E8 ; 8.941041556496875E8 ; 2.167277042921205E10 ; 0.0
117 ; 7744543.460138336 ; 2.0112274467931506E8 ; 9.018589648162775E8 ; 2.187388734516581E10 ; 0.0
118 ; 7728373.101775497 ; 2.0112856976380473E8 ; 9.096035082764158E8 ; 2.2075010089845123E10 ; 0.0
119 ; 7720412.136384639 ; 2.0113439084452498E8 ; 9.173318813781914E8 ; 2.227613865960893E10 ; 0.0
120 ; 7710634.534588976 ; 2.011402075659987E8 ; 9.25052293514576E8 ; 2.2477273050453453E10 ; 0.0
121 ; 7695161.049793563 ; 2.0114601957974064E8 ; 9.327629280491649E8 ; 2.267841325801945E10 ; 0.0
122 ; 7682559.671531852 ; 2.0115182654403338E8 ; 9.404580890989585E8 ; 2.2879559277599194E10 ; 0.0
123 ; 7670531.982607973 ; 2.011576281237116E8 ; 9.481406487704903E8 ; 2.3080711104143227E10 ; 0.0
124 ; 7661545.417369769 ; 2.011634239899547E8 ; 9.558111807530982E8 ; 2.3281868732266937E10 ; 0.0
125 ; 7649627.348018623 ; 2.0116921382008725E8 ; 9.63472726170468E8 ; 2.3483032156256893E10 ; 0.0
126 ; 7636118.87068649 ; 2.0117499729738665E8 ; 9.711223535184866E8 ; 2.368420137007698E10 ; 0.0
127 ; 7624906.181726243 ; 2.0118077411089846E8 ; 9.787584723891732E8 ; 2.3885376367374367E10 ; 0.0
128 ; 7612654.96551096 ; 2.0118654395525828E8 ; 9.863833785708994E8 ; 2.4086557141485264E10 ; 0.0
129 ; 7598719.103287539 ; 2.0119230653052047E8 ; 9.939960335364103E8 ; 2.428774368544052E10 ; 0.0
130 ; 7584697.322097881 ; 2.0119806154199335E8 ; 1.0015947526396979E9 ; 2.4488935991971043E10 ; 0.0
131 ; 7567571.094429712 ; 2.0120380870008028E8 ; 1.0091794499617958E9 ; 2.4690134053513035E10 ; 0.0
132 ; 7552444.758819549 ; 2.0120954772012675E8 ; 1.0167470210562255E9 ; 2.4891337862213116E10 ; 0.0
133 ; 7530048.37396445 ; 2.0121527832227343E8 ; 1.0242994658150451E9 ; 2.5092547409933243E10 ; 0.0
134 ; 7510097.525647466 ; 2.0122100023131406E8 ; 1.0318295141890095E9 ; 2.5293762688255516E10 ; 0.0
135 ; 7489434.160704612 ; 2.0122671317655912E8 ; 1.0393396117146571E9 ; 2.549498368848683E10 ; 0.0
136 ; 7473833.282461901 ; 2.0123241689170417E8 ; 1.0468290458753617E9 ; 2.569621040166339E10 ; 0.0
137 ; 7458610.263231487 ; 2.012381111147033E8 ; 1.0543028791578236E9 ; 2.5897442818555096E10 ; 0.0
138 ; 7433082.53520114 ; 2.0124379558764684E8 ; 1.0617614894210551E9 ; 2.60986809296698E10 ; 0.0
139 ; 7414489.187057023 ; 2.0124947005664387E8 ; 1.0691945719562563E9 ; 2.6299924725257446E10 ; 0.0
140 ; 7394832.454182178 ; 2.0125513427170882E8 ; 1.0766090611433134E9 ; 2.650117419531409E10 ; 0.0
141 ; 7378852.2702549575 ; 2.012607879866522E8 ; 1.0840038935974956E9 ; 2.67024293295858E10 ; 0.0
142 ; 7356182.259944877 ; 2.0126643095897532E8 ; 1.0913827458677504E9 ; 2.6903690117572453E10 ; 0.0
143 ; 7339361.614368353 ; 2.0127206294976875E8 ; 1.0987389281276953E9 ; 2.710495654853143E10 ; 0.0
144 ; 7316388.123739108 ; 2.0127768372361457E8 ; 1.1060782897420638E9 ; 2.7306228611481197E10 ; 0.0
145 ; 7304288.72720275 ; 2.0128329304849178E8 ; 1.1133946778658028E9 ; 2.750750629520481E10 ; 0.0
146 ; 7293821.751203847 ; 2.012888906956855E8 ; 1.1206989665930054E9 ; 2.7708789588253304E10 ; 0.0
147 ; 7281117.521518133 ; 2.0129447643969923E8 ; 1.1279927883442092E9 ; 2.791007847894899E10 ; 0.0
148 ; 7263789.944373712 ; 2.0130005005816996E8 ; 1.1352739058657274E9 ; 2.811137295538869E10 ; 0.0
149 ; 7255450.5310650105 ; 2.013056113317868E8 ; 1.142537695810101E9 ; 2.831267300544686E10 ; 0.0
150 ; 7242148.192717477 ; 2.0131116004421216E8 ; 1.149793146341166E9 ; 2.851397861677865E10 ; 0.0
151 ; 7228794.917114586 ; 2.0131669598200557E8 ; 1.1570352945338836E9 ; 2.871528977682286E10 ; 0.0
152 ; 7215010.605685234 ; 2.0132221893455052E8 ; 1.164264089450998E9 ; 2.8916606472804867E10 ; 0.0
153 ; 7202990.5412162505 ; 2.0132772869398364E8 ; 1.1714791000566833E9 ; 2.9117928691739418E10 ; 0.0
154 ; 7192474.2648357665 ; 2.0133322505512637E8 ; 1.1786820905978994E9 ; 2.9319256420433403E10 ; 0.0
155 ; 7177026.352242013 ; 2.0133870781541902E8 ; 1.1858745648627353E9 ; 2.952058964548853E10 ; 0.0
156 ; 7162079.650008517 ; 2.013441767748572E8 ; 1.1930515912149773E9 ; 2.9721928353303947E10 ; 0.0
157 ; 7148832.846693331 ; 2.0134963173593017E8 ; 1.2002136708649857E9 ; 2.9923272530078804E10 ; 0.0
158 ; 7135562.437409312 ; 2.0135507250356176E8 ; 1.207362503711679E9 ; 3.0124622161814735E10 ; 0.0
159 ; 7118802.778981401 ; 2.0136049888505286E8 ; 1.2144980661490884E9 ; 3.03259772343183E10 ; 0.0
160 ; 7106271.443794407 ; 2.0136591069002607E8 ; 1.2216168689280698E9 ; 3.052733773320335E10 ; 0.0
161 ; 7098558.714447975 ; 2.0137130773037243E8 ; 1.2287231403718643E9 ; 3.0728703643893375E10 ; 0.0
162 ; 7082873.796517533 ; 2.0137668982019958E8 ; 1.2358216990863123E9 ; 3.093007495162375E10 ; 0.0
163 ; 7070153.731859822 ; 2.013820567757819E8 ; 1.24290457288283E9 ; 3.1131451641443947E10 ; 0.0
164 ; 7055384.3096130565 ; 2.013874084155124E8 ; 1.2499747266146898E9 ; 3.133283369821973E10 ; 0.0
165 ; 7043384.542284268 ; 2.013927445598561E8 ; 1.2570301109243028E9 ; 3.1534221106635242E10 ; 0.0
166 ; 7025831.9838311765 ; 2.013980650313049E8 ; 1.264073495466587E9 ; 3.17356138511951E10 ; 0.0
167 ; 7012674.252764467 ; 2.0140336965433425E8 ; 1.2710993274504182E9 ; 3.1937011916226402E10 ; 0.0
168 ; 6999334.9256678745 ; 2.0140865825536096E8 ; 1.2781120017031827E9 ; 3.2138415285880737E10 ; 0.0
169 ; 6990427.8354432 ; 2.0141393066270256E8 ; 1.2851113366288505E9 ; 3.2339823944136097E10 ; 0.0
170 ; 6968997.404089777 ; 2.0141918670653808E8 ; 1.2921017644642937E9 ; 3.2541237874798798E10 ; 0.0
171 ; 6961483.222864316 ; 2.014244262188699E8 ; 1.2990707618683834E9 ; 3.2742657061505337E10 ; 0.0
172 ; 6944046.299251031 ; 2.0142964903348714E8 ; 1.3060322450912478E9 ; 3.2944081487724205E10 ; 0.0
173 ; 6932348.237874295 ; 2.014348549859301E8 ; 1.3129762913904989E9 ; 3.314551113675769E10 ; 0.0
174 ; 6925285.026304443 ; 2.0144004391345567E8 ; 1.3199086396283731E9 ; 3.334694599174362E10 ; 0.0
175 ; 6914869.802725508 ; 2.014452156550045E8 ; 1.3268339246546776E9 ; 3.3548386035657078E10 ; 0.0
176 ; 6899252.744708128 ; 2.0145037005116844E8 ; 1.3337487944574032E9 ; 3.374983125131208E10 ; 0.0
177 ; 6893517.598439987 ; 2.0145550694415963E8 ; 1.3406480472021112E9 ; 3.395128162136325E10 ; 0.0
178 ; 6876941.930644208 ; 2.014606261777803E8 ; 1.3475415648005512E9 ; 3.415273712830741E10 ; 0.0
179 ; 6869807.874406441 ; 2.014657275973938E8 ; 1.3544185067311954E9 ; 3.435419775448519E10 ; 0.0
180 ; 6860969.833188831 ; 2.0147081104989624E8 ; 1.3612883146056018E9 ; 3.455566348208259E10 ; 0.0
181 ; 6844488.126285094 ; 2.0147587638368925E8 ; 1.3681492844387906E9 ; 3.4757134293132484E10 ; 0.0
182 ; 6832565.874498284 ; 2.0148092344865367E8 ; 1.3749937725650756E9 ; 3.4958610169516174E10 ; 0.0
183 ; 6822913.367473804 ; 2.014859520961239E8 ; 1.381826338439574E9 ; 3.516009109296483E10 ; 0.0
184 ; 6815448.457726313 ; 2.0149096217886317E8 ; 1.3886492518070478E9 ; 3.536157704506095E10 ; 0.0
185 ; 6803552.421877478 ; 2.0149595355103973E8 ; 1.395464700264774E9 ; 3.5563068007239815E10 ; 0.0
186 ; 6797642.716173861 ; 2.0150092606820345E8 ; 1.4022682526866515E9 ; 3.5764563960790855E10 ; 0.0
187 ; 6782696.868487638 ; 2.0150587958726352E8 ; 1.4090658954028254E9 ; 3.596606488685906E10 ; 0.0
188 ; 6772918.254059508 ; 2.015108139664667E8 ; 1.415848592271313E9 ; 3.616757076644633E10 ; 0.0
189 ; 6763606.305268502 ; 2.0151572906537625E8 ; 1.4226215105253725E9 ; 3.6369081580412796E10 ; 0.0
190 ; 6748082.633205354 ; 2.0152062474485153E8 ; 1.429385116830641E9 ; 3.657059730947817E10 ; 0.0
191 ; 6739447.487462306 ; 2.0152550086702833E8 ; 1.4361331994638464E9 ; 3.677211793422302E10 ; 0.0
192 ; 6729120.668731136 ; 2.015303572952996E8 ; 1.4428726469513087E9 ; 3.697364343509005E10 ; 0.0
193 ; 6713169.915668218 ; 2.0153519389429715E8 ; 1.44960176762004E9 ; 3.717517379238535E10 ; 0.0
194 ; 6710071.092680236 ; 2.0154001052987352E8 ; 1.4563149375357082E9 ; 3.737670898627965E10 ; 0.0
195 ; 6695190.230224493 ; 2.015448070690847E8 ; 1.4630250086283884E9 ; 3.7578248996809525E10 ; 0.0
196 ; 6682127.793760016 ; 2.0154958338017327E8 ; 1.469720198858613E9 ; 3.777979380387861E10 ; 0.0
197 ; 6677860.4800257245 ; 2.0155433933255205E8 ; 1.476402326652373E9 ; 3.798134338725878E10 ; 0.0
198 ; 6668826.360872969 ; 2.0155907479678836E8 ; 1.4830801871323988E9 ; 3.818289772659133E10 ; 0.0
199 ; 6660833.022869438 ; 2.015637896445887E8 ; 1.4897490134932718E9 ; 3.838445680138812E10 ; 0.0
200 ; 6644007.7008533655 ; 2.015684837487838E8 ; 1.4964098465161412E9 ; 3.8586020591032715E10 ; 0.0
