CSV File for the City 1 on Day 113
1 - Minute m 
2 - Power Consumed at minute m 
3 - Power Produced at minute m 
4 - Energy Consumed since the beginning of the day 
5 - Energy Produced since the beginning of the day 
6 - Energy Lost since the beginning of the day on lines starting from the city
 
0 ; 1.6186185393757302E7 ; 1.055592240607306E8 ; 0.0 ; 0.0 ; 0.0
1 ; 1.6203487961417876E7 ; 1.0571218094785357E8 ; 1.6186185393757302E7 ; 1.055592240607306E8 ; 0.0
2 ; 1.6223756809639905E7 ; 1.0617391912936959E8 ; 3.238967335517518E7 ; 2.1127140500858417E8 ; 0.0
3 ; 1.6238377480654785E7 ; 1.0694443999751908E8 ; 4.861343016481508E7 ; 3.1744532413795376E8 ; 0.0
4 ; 1.6268182359456005E7 ; 1.0802374479881537E8 ; 6.485180764546987E7 ; 4.2438976413547283E8 ; 0.0
5 ; 1.630026974207569E7 ; 1.0941183462753898E8 ; 8.111999000492588E7 ; 5.324135089342882E8 ; 0.0
6 ; 1.6332743475370746E7 ; 1.1110871041992399E8 ; 9.742025974700156E7 ; 6.418253435618272E8 ; 0.0
7 ; 1.6390858185860101E7 ; 1.1311437294910818E8 ; 1.1375300322237231E8 ; 7.529340539817512E8 ; 0.0
8 ; 1.6471058274045583E7 ; 1.1542882282090849E8 ; 1.301438614082324E8 ; 8.660484269308593E8 ; 0.0
9 ; 1.6593945766170472E7 ; 1.1805206047047806E8 ; 1.4661491968227798E8 ; 9.814772497517679E8 ; 0.0
10 ; 1.6768881428219156E7 ; 1.2098408615988559E8 ; 1.6320886544844845E8 ; 1.099529310222246E9 ; 0.0
11 ; 1.7060955229326874E7 ; 1.2422489997665092E8 ; 1.7997774687666762E8 ; 1.2205133963821316E9 ; 0.0
12 ; 1.75235349634035E7 ; 1.2777450183325419E8 ; 1.970387021059945E8 ; 1.3447382963587825E9 ; 0.0
13 ; 1.796821216653975E7 ; 1.3163289146762669E8 ; 2.14562237069398E8 ; 1.4725127981920366E9 ; 0.0
14 ; 1.801983186429934E7 ; 1.3580006844461536E8 ; 2.3253044923593774E8 ; 1.6041456896596632E9 ; 0.0
15 ; 1.804423878640186E7 ; 1.4027603215840316E8 ; 2.5055028110023707E8 ; 1.7399457581042786E9 ; 0.0
16 ; 1.806626607379767E7 ; 1.450607818358524E8 ; 2.6859451988663894E8 ; 1.8802217902626817E9 ; 0.0
17 ; 1.80835463360179E7 ; 1.5015431654072896E8 ; 2.866607859604366E8 ; 2.025282572098534E9 ; 0.0
18 ; 1.8108736134116236E7 ; 1.555566351787523E8 ; 3.047443322964545E8 ; 2.175436888639263E9 ; 0.0
19 ; 1.8128004157473795E7 ; 1.6126773650340912E8 ; 3.228530684305707E8 ; 2.3309935238180156E9 ; 0.0
20 ; 1.815267455239725E7 ; 1.6728761912245896E8 ; 3.409810725880445E8 ; 2.4922612603214245E9 ; 0.0
21 ; 1.817421151039642E7 ; 1.7361628150505415E8 ; 3.591337471404418E8 ; 2.6595488794438834E9 ; 0.0
22 ; 1.8196145295474015E7 ; 1.8025372198939127E8 ; 3.773079586508382E8 ; 2.8331651609489374E9 ; 0.0
23 ; 1.8222087332077034E7 ; 1.8719993879080904E8 ; 3.955041039463122E8 ; 3.0134188829383287E9 ; 0.0
24 ; 1.82398231241021E7 ; 1.9445493001024508E8 ; 4.137261912783892E8 ; 3.200618821729138E9 ; 0.0
25 ; 1.8260944329005603E7 ; 2.0070673454114744E8 ; 4.3196601440249133E8 ; 3.3950737517393827E9 ; 0.0
26 ; 1.8281344873156797E7 ; 2.0070889811528417E8 ; 4.5022695873149693E8 ; 3.59578048628053E9 ; 0.0
27 ; 1.8302667093264952E7 ; 2.0071118783666322E8 ; 4.685083036046537E8 ; 3.796489384395814E9 ; 0.0
28 ; 1.832371112783432E7 ; 2.0071360143734467E8 ; 4.8681097069791865E8 ; 3.997200572232477E9 ; 0.0
29 ; 1.83488339974701E7 ; 2.0071613657967535E8 ; 5.05134681825753E8 ; 4.1979141736698217E9 ; 0.0
30 ; 1.8370922332978107E7 ; 2.0071879086515918E8 ; 5.2348351582322305E8 ; 4.398630310249497E9 ; 0.0
31 ; 1.8388870233656958E7 ; 2.0072156184314632E8 ; 5.418544381562011E8 ; 4.599349101114656E9 ; 0.0
32 ; 1.8412042367370605E7 ; 2.0072444701928568E8 ; 5.602433083898581E8 ; 4.800070662957803E9 ; 0.0
33 ; 1.843213913163479E7 ; 2.0072744386369285E8 ; 5.786553507572287E8 ; 5.000795109977089E9 ; 0.0
34 ; 1.8448842053278837E7 ; 2.0073054981879202E8 ; 5.970874898888636E8 ; 5.201522553840782E9 ; 0.0
35 ; 1.847083795676344E7 ; 2.0073376230679747E8 ; 6.155363319421424E8 ; 5.4022531036595745E9 ; 0.0
36 ; 1.848476246759595E7 ; 2.007370787368081E8 ; 6.340071698989058E8 ; 5.602986865966372E9 ; 0.0
37 ; 1.8498192419508886E7 ; 2.0074049651149303E8 ; 6.524919323665017E8 ; 5.803723944703179E9 ; 0.0
38 ; 1.8520175460248962E7 ; 2.0074401303335506E8 ; 6.709901247860106E8 ; 6.004464441214672E9 ; 0.0
39 ; 1.853333266444471E7 ; 2.0074762571056166E8 ; 6.895103002462596E8 ; 6.205208454248027E9 ; 0.0
40 ; 1.8552705626015205E7 ; 2.0075133196234092E8 ; 7.080436329107043E8 ; 6.405956079958589E9 ; 0.0
41 ; 1.8568113130768422E7 ; 2.0075512922394246E8 ; 7.265963385367194E8 ; 6.60670741192093E9 ; 0.0
42 ; 1.8578726479391176E7 ; 2.0075901495116907E8 ; 7.451644516674879E8 ; 6.807462541144873E9 ; 0.0
43 ; 1.8593081331315648E7 ; 2.007629866244872E8 ; 7.637431781468791E8 ; 7.008221556096042E9 ; 0.0
44 ; 1.8601886547799893E7 ; 2.0076704175272807E8 ; 7.823362594781947E8 ; 7.208984542720529E9 ; 0.0
45 ; 1.8618846767338313E7 ; 2.007711778763939E8 ; 8.009381460259947E8 ; 7.409751584473257E9 ; 0.0
46 ; 1.8633099047463764E7 ; 2.0077539257058474E8 ; 8.195569927933329E8 ; 7.610522762349651E9 ; 0.0
47 ; 1.8633938236985933E7 ; 2.0077968344756445E8 ; 8.381900918407967E8 ; 7.811298154920236E9 ; 0.0
48 ; 1.8646561202710997E7 ; 2.0078404815898457E8 ; 8.568240300777826E8 ; 8.0120778383678E9 ; 0.0
49 ; 1.865442410084585E7 ; 2.0078848439778543E8 ; 8.754705912804936E8 ; 8.212861886526784E9 ; 0.0
50 ; 1.866572777491048E7 ; 2.0079298989979556E8 ; 8.941250153813394E8 ; 8.413650370924569E9 ; 0.0
51 ; 1.86691665819543E7 ; 2.0079756244504905E8 ; 9.127907431562499E8 ; 8.614443360824366E9 ; 0.0
52 ; 1.8674633578682933E7 ; 2.0080219985884196E8 ; 9.314599097382042E8 ; 8.815240923269415E9 ; 0.0
53 ; 1.8682076020008814E7 ; 2.008069000125473E8 ; 9.501345433168871E8 ; 9.016043123128258E9 ; 0.0
54 ; 1.8691805408192772E7 ; 2.0081166082420862E8 ; 9.68816619336896E8 ; 9.216850023140804E9 ; 0.0
55 ; 1.8696924801935654E7 ; 2.0081648025893107E8 ; 9.875084247450887E8 ; 9.417661683965014E9 ; 0.0
56 ; 1.87015927165524E7 ; 2.0082135632908836E8 ; 1.0062053495470244E9 ; 9.618478164223944E9 ; 0.0
57 ; 1.87074947329347E7 ; 2.008262870943632E8 ; 1.0249069422635767E9 ; 9.819299520553032E9 ; 0.0
58 ; 1.8712733852533754E7 ; 2.0083127066163778E8 ; 1.0436144369965115E9 ; 1.0020125807647396E10 ; 0.0
59 ; 1.8721716430069577E7 ; 2.0083630518474993E8 ; 1.0623271708490452E9 ; 1.0220957078309034E10 ; 0.0
60 ; 1.8726196105362505E7 ; 2.008413888641302E8 ; 1.0810488872791147E9 ; 1.0421793383493784E10 ; 0.0
61 ; 1.873292705758054E7 ; 2.0084651994633332E8 ; 1.0997750833844771E9 ; 1.0622634772357914E10 ; 0.0
62 ; 1.8737959071015943E7 ; 2.0085169672347707E8 ; 1.1185080104420576E9 ; 1.0823481292304247E10 ; 0.0
63 ; 1.8739184289557513E7 ; 2.0085691753260055E8 ; 1.1372459695130734E9 ; 1.1024332989027723E10 ; 0.0
64 ; 1.8747872987476043E7 ; 2.0086218075495312E8 ; 1.155985153802631E9 ; 1.1225189906560324E10 ; 0.0
65 ; 1.8753775315562308E7 ; 2.0086748481522372E8 ; 1.174733026790107E9 ; 1.1426052087315277E10 ; 0.0
66 ; 1.8757656053671785E7 ; 2.008728281807205E8 ; 1.1934868021056693E9 ; 1.16269195721305E10 ; 0.0
67 ; 1.8764549574201394E7 ; 2.0087820936050886E8 ; 1.212244458159341E9 ; 1.1827792400311222E10 ; 0.0
68 ; 1.8765749640881725E7 ; 2.0088362690451556E8 ; 1.2310090077335424E9 ; 1.202867060967173E10 ; 0.0
69 ; 1.8771247446453217E7 ; 2.0088907940260664E8 ; 1.2497747573744242E9 ; 1.2229554236576246E10 ; 0.0
70 ; 1.8777316177112926E7 ; 2.008945654836446E8 ; 1.2685460048208776E9 ; 1.2430443315978853E10 ; 0.0
71 ; 1.877861513343807E7 ; 2.009000838145311E8 ; 1.2873233209979904E9 ; 1.2631337881462498E10 ; 0.0
72 ; 1.8783612734365154E7 ; 2.0090563309924018E8 ; 1.3061019361314285E9 ; 1.2832237965277029E10 ; 0.0
73 ; 1.878653523453399E7 ; 2.0091121207784644E8 ; 1.3248855488657937E9 ; 1.3033143598376268E10 ; 0.0
74 ; 1.8790524580410726E7 ; 2.0091681952555233E8 ; 1.3436720841003277E9 ; 1.3234054810454115E10 ; 0.0
75 ; 1.8787946311605755E7 ; 2.0092245425171822E8 ; 1.3624626086807384E9 ; 1.3434971629979668E10 ; 0.0
76 ; 1.879710123744875E7 ; 2.009281150988981E8 ; 1.3812505549923441E9 ; 1.3635894084231386E10 ; 0.0
77 ; 1.8801355712637667E7 ; 2.009338009418839E8 ; 1.4000476562297928E9 ; 1.3836822199330284E10 ; 0.0
78 ; 1.8795881246551175E7 ; 2.009395106867607E8 ; 1.4188490119424305E9 ; 1.4037756000272167E10 ; 0.0
79 ; 1.8794847883130636E7 ; 2.009452432699751E8 ; 1.4376448931889818E9 ; 1.4238695510958927E10 ; 0.0
80 ; 1.8791797590806253E7 ; 2.0095099765741807E8 ; 1.4564397410721123E9 ; 1.4439640754228903E10 ; 0.0
81 ; 1.8785996812587872E7 ; 2.0095677284352422E8 ; 1.4752315386629186E9 ; 1.464059175188632E10 ; 0.0
82 ; 1.8784736922276884E7 ; 2.0096256785038838E8 ; 1.4940175354755065E9 ; 1.4841548524729845E10 ; 0.0
83 ; 1.877796814819057E7 ; 2.0096838172690073E8 ; 1.5128022723977835E9 ; 1.5042511092580233E10 ; 0.0
84 ; 1.8775087748340942E7 ; 2.0097421354790124E8 ; 1.531580240545974E9 ; 1.5243479474307133E10 ; 0.0
85 ; 1.8774526423464395E7 ; 2.0098006241335404E8 ; 1.5503553282943149E9 ; 1.5444453687855034E10 ; 0.0
86 ; 1.8772278630133364E7 ; 2.009859274475422E8 ; 1.5691298547177792E9 ; 1.5645433750268389E10 ; 0.0
87 ; 1.8767654184827697E7 ; 2.0099180779828313E8 ; 1.5879021333479125E9 ; 1.584641967771593E10 ; 0.0
88 ; 1.876333126512079E7 ; 2.0099770263616538E8 ; 1.6066697875327404E9 ; 1.6047411485514214E10 ; 0.0
89 ; 1.8762341040484305E7 ; 2.010036111538061E8 ; 1.625433118797861E9 ; 1.624840918815038E10 ; 0.0
90 ; 1.8757449283908714E7 ; 2.0100953256512988E8 ; 1.6441954598383453E9 ; 1.6449412799304186E10 ; 0.0
91 ; 1.875005259302325E7 ; 2.0101546610466862E8 ; 1.662952909122254E9 ; 1.6650422331869316E10 ; 0.0
92 ; 1.874297982908778E7 ; 2.0102141102688226E8 ; 1.6817029617152772E9 ; 1.6851437797973984E10 ; 0.0
93 ; 1.874349809190164E7 ; 2.010273666055002E8 ; 1.700445941544365E9 ; 1.7052459209000866E10 ; 0.0
94 ; 1.873515785142621E7 ; 2.0103333213288337E8 ; 1.7191894396362665E9 ; 1.7253486575606365E10 ; 0.0
95 ; 1.873406680669807E7 ; 2.0103930691940627E8 ; 1.7379245974876926E9 ; 1.745451990773925E10 ; 0.0
96 ; 1.872805650719793E7 ; 2.0104529029285884E8 ; 1.7566586642943907E9 ; 1.7655559214658657E10 ; 0.0
97 ; 1.8718921862371225E7 ; 2.0105128159786794E8 ; 1.7753867208015885E9 ; 1.7856604504951515E10 ; 0.0
98 ; 1.8715728581008628E7 ; 2.0105728019533765E8 ; 1.7941056426639597E9 ; 1.805765578654938E10 ; 0.0
99 ; 1.8711879201599102E7 ; 2.010632854619084E8 ; 1.8128213712449684E9 ; 1.825871306674472E10 ; 0.0
100 ; 1.869981051152879E7 ; 2.0106929678943408E8 ; 1.8315332504465675E9 ; 1.845977635220663E10 ; 0.0
101 ; 1.869800265221032E7 ; 2.0107531358447716E8 ; 1.8502330609580963E9 ; 1.8660845648996063E10 ; 0.0
102 ; 1.869329104814981E7 ; 2.010813352678207E8 ; 1.8689310636103065E9 ; 1.886192096258054E10 ; 0.0
103 ; 1.8683675783700973E7 ; 2.010873612739975E8 ; 1.8876243546584563E9 ; 1.9063002297848362E10 ; 0.0
104 ; 1.8677953479957867E7 ; 2.0109339105083546E8 ; 1.9063080304421573E9 ; 1.926408965912236E10 ; 0.0
105 ; 1.867080945120906E7 ; 2.0109942405901867E8 ; 1.924985983922115E9 ; 1.9465183050173195E10 ; 0.0
106 ; 1.866631559703327E7 ; 2.0110545977166408E8 ; 1.9436567933733242E9 ; 1.9666282474232212E10 ; 0.0
107 ; 1.8655764060469642E7 ; 2.01111497673913E8 ; 1.9623231089703574E9 ; 1.9867387934003876E10 ; 0.0
108 ; 1.8652692396073524E7 ; 2.0111753726253694E8 ; 1.980978873030827E9 ; 2.0068499431677788E10 ; 0.0
109 ; 1.8643547657602854E7 ; 2.0112357804555765E8 ; 1.9996315654269006E9 ; 2.0269616968940323E10 ; 0.0
110 ; 1.8636576017208055E7 ; 2.0112961954188052E8 ; 2.0182751130845034E9 ; 2.047074054698588E10 ; 0.0
111 ; 1.86285277824832E7 ; 2.0113566128094113E8 ; 2.0369116891017115E9 ; 2.0671870166527763E10 ; 0.0
112 ; 1.8619668489761766E7 ; 2.0114170280236447E8 ; 2.0555402168841946E9 ; 2.0873005827808704E10 ; 0.0
113 ; 1.8614376535147414E7 ; 2.0114774365563637E8 ; 2.0741598853739564E9 ; 2.107414753061107E10 ; 0.0
114 ; 1.860381571094962E7 ; 2.0115378339978665E8 ; 2.0927742619091039E9 ; 2.1275295274266705E10 ; 0.0
115 ; 1.8594979729653317E7 ; 2.0115982160308382E8 ; 2.1113780776200535E9 ; 2.1476449057666492E10 ; 0.0
116 ; 1.858336133126832E7 ; 2.0116585784274063E8 ; 2.129973057349707E9 ; 2.1677608879269577E10 ; 0.0
117 ; 1.85761641692437E7 ; 2.0117189170463032E8 ; 2.1485564186809754E9 ; 2.1878774737112316E10 ; 0.0
118 ; 1.857228318495762E7 ; 2.0117792278301314E8 ; 2.1671325828502192E9 ; 2.2079946628816948E10 ; 0.0
119 ; 1.856185261500979E7 ; 2.0118395068027252E8 ; 2.1857048660351768E9 ; 2.228112455159996E10 ; 0.0
120 ; 1.8552286858597726E7 ; 2.0118997500666106E8 ; 2.2042667186501865E9 ; 2.248230850228023E10 ; 0.0
121 ; 1.8541222654792875E7 ; 2.0119599538005543E8 ; 2.2228190055087843E9 ; 2.2683498477286892E10 ; 0.0
122 ; 1.8531781431277312E7 ; 2.012020114257203E8 ; 2.241360228163577E9 ; 2.2884694472666946E10 ; 0.0
123 ; 1.8520807477757137E7 ; 2.0120802277608058E8 ; 2.2598920095948544E9 ; 2.3085896484092667E10 ; 0.0
124 ; 1.851422626836174E7 ; 2.01214029070502E8 ; 2.2784128170726113E9 ; 2.3287104506868748E10 ; 0.0
125 ; 1.8504506129724845E7 ; 2.0122002995507962E8 ; 2.296927043340973E9 ; 2.348831853593925E10 ; 0.0
126 ; 1.849708664701439E7 ; 2.012260250824338E8 ; 2.315431549470698E9 ; 2.368953856589433E10 ; 0.0
127 ; 1.8487953646496814E7 ; 2.0123201411151358E8 ; 2.3339286361177125E9 ; 2.3890764590976765E10 ; 0.0
128 ; 1.847419253166242E7 ; 2.012379967074072E8 ; 2.3524165897642093E9 ; 2.409199660508828E10 ; 0.0
129 ; 1.8464547055126958E7 ; 2.0124397254115915E8 ; 2.3708907822958717E9 ; 2.429323460179569E10 ; 0.0
130 ; 1.843295802108927E7 ; 2.0124994128959405E8 ; 2.389355329350999E9 ; 2.449447857433685E10 ; 0.0
131 ; 1.8388250648333542E7 ; 2.0125590263514668E8 ; 2.407788287372088E9 ; 2.4695728515626442E10 ; 0.0
132 ; 1.835232993045082E7 ; 2.0126185626569805E8 ; 2.4261765380204215E9 ; 2.489698441826159E10 ; 0.0
133 ; 1.8312261908879224E7 ; 2.012678018744173E8 ; 2.4445288679508724E9 ; 2.5098246274527287E10 ; 0.0
134 ; 1.827089069901589E7 ; 2.012737391596094E8 ; 2.4628411298597517E9 ; 2.5299514076401703E10 ; 0.0
135 ; 1.8234009499016322E7 ; 2.0127966782456794E8 ; 2.481112020558768E9 ; 2.5500787815561314E10 ; 0.0
136 ; 1.8189302058574222E7 ; 2.0128558757743332E8 ; 2.499346030057784E9 ; 2.5702067483385883E10 ; 0.0
137 ; 1.8150508321821235E7 ; 2.01291498131056E8 ; 2.5175353321163583E9 ; 2.5903353070963318E10 ; 0.0
138 ; 1.8110799446520712E7 ; 2.0129739920286444E8 ; 2.5356858404381795E9 ; 2.6104644569094376E10 ; 0.0
139 ; 1.8070547725097235E7 ; 2.0130329051473767E8 ; 2.5537966398847003E9 ; 2.630594196829724E10 ; 0.0
140 ; 1.8029460452907577E7 ; 2.0130917179288238E8 ; 2.5718671876097975E9 ; 2.6507245258811977E10 ; 0.0
141 ; 1.798615201997051E7 ; 2.013150427677145E8 ; 2.589896648062705E9 ; 2.670855443060486E10 ; 0.0
142 ; 1.794604594023184E7 ; 2.013209031737445E8 ; 2.6078828000826755E9 ; 2.6909869473372574E10 ; 0.0
143 ; 1.7906885469366882E7 ; 2.0132675274946696E8 ; 2.6258288460229073E9 ; 2.7111190376546318E10 ; 0.0
144 ; 1.7863180948974684E7 ; 2.0133259123725405E8 ; 2.6437357314922743E9 ; 2.7312517129295784E10 ; 0.0
145 ; 1.7828383677828126E7 ; 2.013384183832524E8 ; 2.661598912441249E9 ; 2.751384972053304E10 ; 0.0
146 ; 1.779397268438377E7 ; 2.013442339372839E8 ; 2.679427296119077E9 ; 2.771518813891629E10 ; 0.0
147 ; 1.77575967480786E7 ; 2.0135003765274957E8 ; 2.697221268803461E9 ; 2.7916532372853573E10 ; 0.0
148 ; 1.7725291645962246E7 ; 2.0135582928653693E8 ; 2.71497886555154E9 ; 2.811788241050632E10 ; 0.0
149 ; 1.7690985044314567E7 ; 2.0136160859893066E8 ; 2.732704157197502E9 ; 2.831923823979286E10 ; 0.0
150 ; 1.765313377028178E7 ; 2.013673753535259E8 ; 2.7503951422418165E9 ; 2.852059984839179E10 ; 0.0
151 ; 1.762391665254731E7 ; 2.0137312931714502E8 ; 2.7680482760120983E9 ; 2.8721967223745316E10 ; 0.0
152 ; 1.758542695279573E7 ; 2.013788702597569E8 ; 2.7856721926646457E9 ; 2.892334035306246E10 ; 0.0
153 ; 1.754965494387195E7 ; 2.0138459795439887E8 ; 2.803257619617441E9 ; 2.912471922332222E10 ; 0.0
154 ; 1.751511422954482E7 ; 2.013903121771018E8 ; 2.820807274561313E9 ; 2.932610382127662E10 ; 0.0
155 ; 1.747978699674576E7 ; 2.013960127068169E8 ; 2.838322388790858E9 ; 2.952749413345372E10 ; 0.0
156 ; 1.744502229600856E7 ; 2.0140169932534596E8 ; 2.8558021757876034E9 ; 2.9728890146160538E10 ; 0.0
157 ; 1.741068209542904E7 ; 2.0140737181727293E8 ; 2.873247198083612E9 ; 2.993029184548588E10 ; 0.0
158 ; 1.7374347938401688E7 ; 2.014130299698986E8 ; 2.890657880179041E9 ; 3.0131699217303154E10 ; 0.0
159 ; 1.734112517403281E7 ; 2.014186735731771E8 ; 2.9080322281174426E9 ; 3.0333112247273052E10 ; 0.0
160 ; 1.7305285832638036E7 ; 2.0142430241965437E8 ; 2.9253733532914753E9 ; 3.053453092084623E10 ; 0.0
161 ; 1.7272780774214342E7 ; 2.014299163044091E8 ; 2.9426786391241136E9 ; 3.0735955223265884E10 ; 0.0
162 ; 1.72347598229043E7 ; 2.014355150249952E8 ; 2.959951419898328E9 ; 3.0937385139570293E10 ; 0.0
163 ; 1.719851388294662E7 ; 2.0144109838138646E8 ; 2.977186179721232E9 ; 3.1138820654595287E10 ; 0.0
164 ; 1.716639469654676E7 ; 2.014466661759228E8 ; 2.9943846936041784E9 ; 3.1340261752976673E10 ; 0.0
165 ; 1.7127689600600127E7 ; 2.014522182132586E8 ; 3.011551088300725E9 ; 3.1541708419152596E10 ; 0.0
166 ; 1.709129584204787E7 ; 2.014577543003123E8 ; 3.028678777901325E9 ; 3.1743160637365852E10 ; 0.0
167 ; 1.705703248098865E7 ; 2.0146327424621806E8 ; 3.045770073743373E9 ; 3.1944618391666164E10 ; 0.0
168 ; 1.7019531161588255E7 ; 2.0146877786227873E8 ; 3.0628271062243614E9 ; 3.2146081665912384E10 ; 0.0
169 ; 1.6982258183953375E7 ; 2.0147426496192038E8 ; 3.0798466373859496E9 ; 3.2347550443774662E10 ; 0.0
170 ; 1.6948535557383772E7 ; 2.0147973536064848E8 ; 3.096828895569903E9 ; 3.2549024708736584E10 ; 0.0
171 ; 1.6916351713733345E7 ; 2.0148518887600526E8 ; 3.1137774311272864E9 ; 3.2750504444097233E10 ; 0.0
172 ; 1.687838004673382E7 ; 2.0149062532752857E8 ; 3.1306937828410196E9 ; 3.295198963297324E10 ; 0.0
173 ; 1.68430704363832E7 ; 2.014960445367121E8 ; 3.1475721628877535E9 ; 3.315348025830077E10 ; 0.0
174 ; 1.6812437702540543E7 ; 2.0150144632696673E8 ; 3.1644152333241367E9 ; 3.3354976302837482E10 ; 0.0
175 ; 1.6785528720654465E7 ; 2.015068305235833E8 ; 3.181227671026677E9 ; 3.3556477749164448E10 ; 0.0
176 ; 1.674701788950178E7 ; 2.0151219695369634E8 ; 3.1980131997473316E9 ; 3.375798457968803E10 ; 0.0
177 ; 1.6716858067525905E7 ; 2.0151754544624925E8 ; 3.214760217636833E9 ; 3.3959496776641727E10 ; 0.0
178 ; 1.6686687287958449E7 ; 2.0152287583196026E8 ; 3.231477075704359E9 ; 3.416101432208798E10 ; 0.0
179 ; 1.665886918965584E7 ; 2.0152818794328985E8 ; 3.2481637629923177E9 ; 3.436253719791994E10 ; 0.0
180 ; 1.6625455195708554E7 ; 2.0153348161440864E8 ; 3.2648226321819735E9 ; 3.456406538586323E10 ; 0.0
181 ; 1.6594744506610096E7 ; 2.0153875668116698E8 ; 3.281448087377682E9 ; 3.476559886747764E10 ; 0.0
182 ; 1.6568016469228618E7 ; 2.015440129810649E8 ; 3.298042831884292E9 ; 3.4967137624158806E10 ; 0.0
183 ; 1.6534234124291044E7 ; 2.0154925035322338E8 ; 3.314610848353521E9 ; 3.516868163713987E10 ; 0.0
184 ; 1.6502626961310903E7 ; 2.0155446863835636E8 ; 3.331145082477812E9 ; 3.5370230887493095E10 ; 0.0
185 ; 1.6470079204948379E7 ; 2.0155966767874354E8 ; 3.3476477094391227E9 ; 3.5571785356131454E10 ; 0.0
186 ; 1.6444204218412815E7 ; 2.0156484731820434E8 ; 3.364117788644071E9 ; 3.5773345023810196E10 ; 0.0
187 ; 1.6408087548930315E7 ; 2.015700074020723E8 ; 3.380561992862484E9 ; 3.59749098711284E10 ; 0.0
188 ; 1.6375525064169778E7 ; 2.015751477771705E8 ; 3.396970080411414E9 ; 3.617647987853047E10 ; 0.0
189 ; 1.6344818929405276E7 ; 2.0158026829178768E8 ; 3.413345605475584E9 ; 3.637805502630764E10 ; 0.0
190 ; 1.6316901390661037E7 ; 2.0158536879565507E8 ; 3.4296904244049892E9 ; 3.657963529459943E10 ; 0.0
191 ; 1.6286415600868046E7 ; 2.01590449139924E8 ; 3.4460073257956505E9 ; 3.678122066339508E10 ; 0.0
192 ; 1.6253955954506777E7 ; 2.015955091771441E8 ; 3.4622937413965187E9 ; 3.6982811112535E10 ; 0.0
193 ; 1.6222258457108906E7 ; 2.0160054876124236E8 ; 3.4785476973510256E9 ; 3.718440662171215E10 ; 0.0
194 ; 1.6186819562817663E7 ; 2.016055677475025E8 ; 3.4947699558081346E9 ; 3.73860071704734E10 ; 0.0
195 ; 1.6154816921280837E7 ; 2.0161056599254534E8 ; 3.510956775370952E9 ; 3.75876127382209E10 ; 0.0
