CSV File for the City 6 on Day 318
1 - Minute m 
2 - Power Consumed at minute m 
3 - Power Produced at minute m 
4 - Energy Consumed since the beginning of the day 
5 - Energy Produced since the beginning of the day 
6 - Energy Lost since the beginning of the day on lines starting from the city
 
0 ; 1.1272182387838382E7 ; 1.0672020615989849E8 ; 0.0 ; 0.0 ; 0.0
1 ; 1.1284074696062269E7 ; 1.068708732262342E8 ; 1.1272182387838382E7 ; 1.0672020615989849E8 ; 0.0
2 ; 1.1298909242415693E7 ; 1.0733055884921315E8 ; 2.2556257083900653E7 ; 2.135910793861327E8 ; 0.0
3 ; 1.1311183987608295E7 ; 1.0809926566938412E8 ; 3.385516632631634E7 ; 3.2092163823534584E8 ; 0.0
4 ; 1.1326899502611548E7 ; 1.0917699603996086E8 ; 4.516635031392464E7 ; 4.2902090390472996E8 ; 0.0
5 ; 1.134979842796436E7 ; 1.1056375201831543E8 ; 5.649324981653619E7 ; 5.381978999446908E8 ; 0.0
6 ; 1.1374993209759684E7 ; 1.1225953535844937E8 ; 6.784304824450055E7 ; 6.487616519630063E8 ; 0.0
7 ; 1.1412621984453848E7 ; 1.1426434750450861E8 ; 7.921804145426023E7 ; 7.610211873214556E8 ; 0.0
8 ; 1.1466471426919682E7 ; 1.1657818958539641E8 ; 9.063066343871407E7 ; 8.752855348259642E8 ; 0.0
9 ; 1.155045916536479E7 ; 1.1920106241053408E8 ; 1.0209713486563376E8 ; 9.918637244113606E8 ; 0.0
10 ; 1.1670209478450516E7 ; 1.2213296646680433E8 ; 1.1364759403099854E8 ; 1.1110647868218946E9 ; 0.0
11 ; 1.1869710670847137E7 ; 1.2537390191670695E8 ; 1.2531780350944906E8 ; 1.233197753288699E9 ; 0.0
12 ; 1.2191818949964771E7 ; 1.2892386859774211E8 ; 1.371875141802962E8 ; 1.358571655205406E9 ; 0.0
13 ; 1.2493175353861943E7 ; 1.3278286602302712E8 ; 1.4937933313026097E8 ; 1.487495523803148E9 ; 0.0
14 ; 1.2530405509787573E7 ; 1.3695089338314074E8 ; 1.6187250848412293E8 ; 1.6202783898261752E9 ; 0.0
15 ; 1.2542595301755844E7 ; 1.414279495491796E8 ; 1.744029139939105E8 ; 1.757229283209316E9 ; 0.0
16 ; 1.2559381608625522E7 ; 1.462140330769979E8 ; 1.8694550929566634E8 ; 1.8986572327584956E9 ; 0.0
17 ; 1.257325551293855E7 ; 1.51309142212594E8 ; 1.9950489090429187E8 ; 2.0448712658354936E9 ; 0.0
18 ; 1.2590804675632682E7 ; 1.5671327489859587E8 ; 2.1207814641723043E8 ; 2.1961804080480876E9 ; 0.0
19 ; 1.260468701830618E7 ; 1.6242642878178975E8 ; 2.246689510928631E8 ; 2.3528936829466834E9 ; 0.0
20 ; 1.2620893777030924E7 ; 1.6844860122162685E8 ; 2.3727363811116928E8 ; 2.515320111728473E9 ; 0.0
21 ; 1.2635795707498463E7 ; 1.747797892996373E8 ; 2.498945318882002E8 ; 2.6837687129501E9 ; 0.0
22 ; 1.2650767985108005E7 ; 1.814199898296733E8 ; 2.6253032759569865E8 ; 2.8585485022497373E9 ; 0.0
23 ; 1.266470337083838E7 ; 1.8836919936889976E8 ; 2.751810955808067E8 ; 3.0399684920794106E9 ; 0.0
24 ; 1.2679429633300187E7 ; 1.956274142294451E8 ; 2.878457989516451E8 ; 3.2283376914483104E9 ; 0.0
25 ; 1.2693739432624707E7 ; 2.0188267138880754E8 ; 3.0052522858494526E8 ; 3.4239651056777554E9 ; 0.0
26 ; 1.271027864239136E7 ; 2.0188851453945515E8 ; 3.1321896801756996E8 ; 3.6258477770665627E9 ; 0.0
27 ; 1.272539963487994E7 ; 2.0189470862682408E8 ; 3.2592924665996134E8 ; 3.8277362916060176E9 ; 0.0
28 ; 1.27417966894396E7 ; 2.019012491094868E8 ; 3.386546462948413E8 ; 4.0296310002328415E9 ; 0.0
29 ; 1.2758192635811994E7 ; 2.0190813126600507E8 ; 3.513964429842809E8 ; 4.231532249342328E9 ; 0.0
30 ; 1.2769932550197951E7 ; 2.0191535020866504E8 ; 3.6415463562009287E8 ; 4.433440380608334E9 ; 0.0
31 ; 1.2786932200990241E7 ; 2.0192290089725628E8 ; 3.769245681702908E8 ; 4.6353557308169985E9 ; 0.0
32 ; 1.2797222616052574E7 ; 2.0193077815281725E8 ; 3.897115003712811E8 ; 4.837278631714254E9 ; 0.0
33 ; 1.2813225639547348E7 ; 2.0193897667127332E8 ; 4.0250872298733366E8 ; 5.039209409867071E9 ; 0.0
34 ; 1.2824532870280828E7 ; 2.0194749103689936E8 ; 4.15321948626881E8 ; 5.241148386538344E9 ; 0.0
35 ; 1.283879455542718E7 ; 2.01956315735544E8 ; 4.281464814971618E8 ; 5.443095877575244E9 ; 0.0
36 ; 1.2850624116393605E7 ; 2.0196544516755894E8 ; 4.40985276052589E8 ; 5.645052193310788E9 ; 0.0
37 ; 1.2865502170591569E7 ; 2.0197487366038206E8 ; 4.538359001689826E8 ; 5.847017638478347E9 ; 0.0
38 ; 1.2874194905575152E7 ; 2.0198459548073006E8 ; 4.667014023395742E8 ; 6.048992512138729E9 ; 0.0
39 ; 1.2886676260628596E7 ; 2.0199460484636146E8 ; 4.795755972451494E8 ; 6.250977107619459E9 ; 0.0
40 ; 1.2896942914090006E7 ; 2.0200489593737748E8 ; 4.9246227350577796E8 ; 6.45297171246582E9 ; 0.0
41 ; 1.2911587638658067E7 ; 2.020154629070339E8 ; 5.0535921641986793E8 ; 6.654976608403198E9 ; 0.0
42 ; 1.2916043811691524E7 ; 2.0202629989204198E8 ; 5.18270804058526E8 ; 6.856992071310232E9 ; 0.0
43 ; 1.2926222575481884E7 ; 2.020374010223431E8 ; 5.311868478702175E8 ; 7.059018371202274E9 ; 0.0
44 ; 1.2932735347755762E7 ; 2.020487604303452E8 ; 5.441130704456993E8 ; 7.261055772224617E9 ; 0.0
45 ; 1.2944136252064861E7 ; 2.0206037225961503E8 ; 5.570458057934551E8 ; 7.463104532654963E9 ; 0.0
46 ; 1.295295220042773E7 ; 2.0207223067302358E8 ; 5.6998994204552E8 ; 7.6651649049145775E9 ; 0.0
47 ; 1.29593903967411E7 ; 2.020843298603467E8 ; 5.829428942459477E8 ; 7.867237135587601E9 ; 0.0
48 ; 1.2966047408726837E7 ; 2.0209666404532543E8 ; 5.959022846426889E8 ; 8.0693214654479475E9 ; 0.0
49 ; 1.297030251217406E7 ; 2.0210922749219474E8 ; 6.088683320514157E8 ; 8.271418129493273E9 ; 0.0
50 ; 1.2977305072469376E7 ; 2.0212201451169145E8 ; 6.218386345635897E8 ; 8.473527356985468E9 ; 0.0
51 ; 1.2979148693095623E7 ; 2.021350194665543E8 ; 6.34815939636059E8 ; 8.67564937149716E9 ; 0.0
52 ; 1.298527833130137E7 ; 2.0214823677653208E8 ; 6.477950883291546E8 ; 8.877784390963715E9 ; 0.0
53 ; 1.2988084111564806E7 ; 2.02161660922916E8 ; 6.60780366660456E8 ; 9.079932627740246E9 ; 0.0
54 ; 1.2995065589335283E7 ; 2.021752864526153E8 ; 6.737684507720207E8 ; 9.282094288663162E9 ; 0.0
55 ; 1.2998839722333806E7 ; 2.021891079817949E8 ; 6.86763516361356E8 ; 9.484269575115778E9 ; 0.0
56 ; 1.3009194066261098E7 ; 2.022031201990959E8 ; 6.997623560836898E8 ; 9.686458683097572E9 ; 0.0
57 ; 1.3005832191504508E7 ; 2.022173178684587E8 ; 7.127715501499509E8 ; 9.888661803296669E9 ; 0.0
58 ; 1.301375977485325E7 ; 2.0223169583157063E8 ; 7.257773823414553E8 ; 1.0090879121165127E10 ; 0.0
59 ; 1.3018762323968004E7 ; 2.0224624900995895E8 ; 7.387911421163086E8 ; 1.0293110816996696E10 ; 0.0
60 ; 1.3023399996751629E7 ; 2.0226097240675017E8 ; 7.518099044402766E8 ; 1.0495357066006655E10 ; 0.0
61 ; 1.302705789261858E7 ; 2.022758611081167E8 ; 7.648333044370283E8 ; 1.0697618038413404E10 ; 0.0
62 ; 1.3030418808256514E7 ; 2.022909102844315E8 ; 7.778603623296468E8 ; 1.089989389952152E10 ; 0.0
63 ; 1.3034982073897615E7 ; 2.0230611519115078E8 ; 7.908907811379033E8 ; 1.1102184809805952E10 ; 0.0
64 ; 1.3038525751785317E7 ; 2.0232147116944438E8 ; 8.039257632118009E8 ; 1.1304490924997103E10 ; 0.0
65 ; 1.3042025627152268E7 ; 2.023369736465927E8 ; 8.169642889635862E8 ; 1.1506812396166548E10 ; 0.0
66 ; 1.3041981506428102E7 ; 2.023526181361685E8 ; 8.300063145907385E8 ; 1.170914936981314E10 ; 0.0
67 ; 1.3044744772491608E7 ; 2.0236840023802128E8 ; 8.430482960971667E8 ; 1.191150198794931E10 ; 0.0
68 ; 1.305127958154874E7 ; 2.023843156380808E8 ; 8.560930408696582E8 ; 1.2113870388187332E10 ; 0.0
69 ; 1.3052474651162598E7 ; 2.0240036010799605E8 ; 8.691443204512069E8 ; 1.2316254703825413E10 ; 0.0
70 ; 1.3055870831636298E7 ; 2.0241652950462437E8 ; 8.821967951023695E8 ; 1.2518655063933409E10 ; 0.0
71 ; 1.3057769353165558E7 ; 2.024328197693858E8 ; 8.952526659340059E8 ; 1.2721071593438034E10 ; 0.0
72 ; 1.306414472009714E7 ; 2.024492269274956E8 ; 9.083104352871714E8 ; 1.292350441320742E10 ; 0.0
73 ; 1.3063949525942042E7 ; 2.0246574708708805E8 ; 9.213745800072685E8 ; 1.3125953640134916E10 ; 0.0
74 ; 1.3067497320673363E7 ; 2.0248237643824345E8 ; 9.344385295332106E8 ; 1.3328419387222004E10 ; 0.0
75 ; 1.3069744260537604E7 ; 2.0249911125192973E8 ; 9.47506026853884E8 ; 1.3530901763660248E10 ; 0.0
76 ; 1.3069783707811244E7 ; 2.025159478788686E8 ; 9.605757711144216E8 ; 1.3733400874912178E10 ; 0.0
77 ; 1.3077217196001386E7 ; 2.0253288274833673E8 ; 9.736455548222328E8 ; 1.3935916822791046E10 ; 0.0
78 ; 1.3073537781691799E7 ; 2.0254991236691028E8 ; 9.867227720182343E8 ; 1.4138449705539383E10 ; 0.0
79 ; 1.3070404257174212E7 ; 2.025670333171618E8 ; 9.99796309799926E8 ; 1.4340999617906294E10 ; 0.0
80 ; 1.3066499260547062E7 ; 2.0258424225631678E8 ; 1.0128667140571003E9 ; 1.4543566651223455E10 ; 0.0
81 ; 1.306638992486995E7 ; 2.0260153591487715E8 ; 1.0259332133176473E9 ; 1.4746150893479773E10 ; 0.0
82 ; 1.3066257813238185E7 ; 2.0261891109521824E8 ; 1.0389996032425172E9 ; 1.494875242939465E10 ; 0.0
83 ; 1.30642984695685E7 ; 2.0263636467016548E8 ; 1.0520658610557554E9 ; 1.5151371340489868E10 ; 0.0
84 ; 1.3060913569035387E7 ; 2.026538935815557E8 ; 1.0651301595253239E9 ; 1.5354007705160034E10 ; 0.0
85 ; 1.3059567380864013E7 ; 2.0267149483878866E8 ; 1.0781910730943592E9 ; 1.555666159874159E10 ; 0.0
86 ; 1.3058588330502125E7 ; 2.026891655173732E8 ; 1.091250640475223E9 ; 1.575933309358038E10 ; 0.0
87 ; 1.3053442987874903E7 ; 2.0270690275747168E8 ; 1.104309228805725E9 ; 1.5962022259097754E10 ; 0.0
88 ; 1.3052055108988231E7 ; 2.0272470376244715E8 ; 1.1173626717936E9 ; 1.6164729161855225E10 ; 0.0
89 ; 1.305258437548087E7 ; 2.0274256579741603E8 ; 1.1304147269025884E9 ; 1.6367453865617672E10 ; 0.0
90 ; 1.3046996309357239E7 ; 2.0276048618780944E8 ; 1.1434673112780693E9 ; 1.6570196431415089E10 ; 0.0
91 ; 1.304649049662072E7 ; 2.027784623179461E8 ; 1.1565143075874264E9 ; 1.6772956917602898E10 ; 0.0
92 ; 1.303932615715863E7 ; 2.0279649162961882E8 ; 1.169560798084047E9 ; 1.6975735379920843E10 ; 0.0
93 ; 1.3035986121022603E7 ; 2.028145716206969E8 ; 1.1826001242412057E9 ; 1.7178531871550463E10 ; 0.0
94 ; 1.303727939470672E7 ; 2.0283269984374616E8 ; 1.1956361103622284E9 ; 1.7381346443171158E10 ; 0.0
95 ; 1.3028381234475788E7 ; 2.0285087390466827E8 ; 1.2086733897569351E9 ; 1.7584179143014904E10 ; 0.0
96 ; 1.302875421414471E7 ; 2.02869091461361E8 ; 1.221701770991411E9 ; 1.778703001691957E10 ; 0.0
97 ; 1.3025816397266006E7 ; 2.0288735022239998E8 ; 1.2347305252055557E9 ; 1.798989910838093E10 ; 0.0
98 ; 1.3017190864251908E7 ; 2.0290564794574368E8 ; 1.2477563416028216E9 ; 1.8192786458603333E10 ; 0.0
99 ; 1.301548305220149E7 ; 2.0292398243746197E8 ; 1.2607735324670734E9 ; 1.8395692106549076E10 ; 0.0
100 ; 1.3012530462083811E7 ; 2.0294235155048922E8 ; 1.273789015519275E9 ; 1.8598616088986538E10 ; 0.0
101 ; 1.3009268693720983E7 ; 2.0296075318340227E8 ; 1.2868015459813588E9 ; 1.8801558440537025E10 ; 0.0
102 ; 1.3005625682594916E7 ; 2.0297918527922416E8 ; 1.2998108146750798E9 ; 1.900451919372043E10 ; 0.0
103 ; 1.300214847094376E7 ; 2.0299764582425308E8 ; 1.3128164403576748E9 ; 1.9207498378999653E10 ; 0.0
104 ; 1.2995995206838192E7 ; 2.0301613284691796E8 ; 1.3258185888286185E9 ; 1.9410496024823906E10 ; 0.0
105 ; 1.2994260228881983E7 ; 2.0303464441665962E8 ; 1.3388145840354567E9 ; 1.9613512157670822E10 ; 0.0
106 ; 1.2987715896630304E7 ; 2.030531786428384E8 ; 1.3518088442643387E9 ; 1.9816546802087482E10 ; 0.0
107 ; 1.2983737145379428E7 ; 2.030717336736676E8 ; 1.364796560160969E9 ; 2.001959998073032E10 ; 0.0
108 ; 1.298135756057657E7 ; 2.0309030769517347E8 ; 1.3777802973063486E9 ; 2.0222671714403988E10 ; 0.0
109 ; 1.2973780165281551E7 ; 2.031088989301805E8 ; 1.3907616548669252E9 ; 2.0425762022099163E10 ; 0.0
110 ; 1.2968544109166514E7 ; 2.0312750563732263E8 ; 1.4037354350322068E9 ; 2.0628870921029343E10 ; 0.0
111 ; 1.2963329006760241E7 ; 2.0314612611007994E8 ; 1.4167039791413734E9 ; 2.0831998426666664E10 ; 0.0
112 ; 1.2959802686820189E7 ; 2.031647586758403E8 ; 1.4296673081481338E9 ; 2.1035144552776745E10 ; 0.0
113 ; 1.2952630917076958E7 ; 2.031834016949858E8 ; 1.442627110834954E9 ; 2.1238309311452583E10 ; 0.0
114 ; 1.2944515665560186E7 ; 2.0320205356000388E8 ; 1.455579741752031E9 ; 2.1441492713147568E10 ; 0.0
115 ; 1.294477688885995E7 ; 2.03220712694622E8 ; 1.4685242574175913E9 ; 2.1644694766707573E10 ; 0.0
116 ; 1.2937351905291775E7 ; 2.032393775529664E8 ; 1.4814690343064513E9 ; 2.1847915479402195E10 ; 0.0
117 ; 1.2931352176354898E7 ; 2.0325804661874378E8 ; 1.494406386211743E9 ; 2.2051154856955162E10 ; 0.0
118 ; 1.2923868486949107E7 ; 2.0327671840444592E8 ; 1.507337738388098E9 ; 2.2254412903573906E10 ; 0.0
119 ; 1.2918831626225896E7 ; 2.032953914505764E8 ; 1.5202616068750472E9 ; 2.245768962197835E10 ; 0.0
120 ; 1.2912504831561763E7 ; 2.033140643248993E8 ; 1.5331804385012732E9 ; 2.266098501342893E10 ; 0.0
121 ; 1.291026117105365E7 ; 2.033327356217093E8 ; 1.546092943332835E9 ; 2.2864299077753826E10 ; 0.0
122 ; 1.2901487196434017E7 ; 2.0335140396112242E8 ; 1.5590032045038886E9 ; 2.3067631813375534E10 ; 0.0
123 ; 1.2892615454427231E7 ; 2.0337006798838753E8 ; 1.5719046917003226E9 ; 2.3270983217336655E10 ; 0.0
124 ; 1.2888482514913144E7 ; 2.0338872637321746E8 ; 1.5847973071547499E9 ; 2.3474353285325043E10 ; 0.0
125 ; 1.2879974714926792E7 ; 2.034073778091396E8 ; 1.597685789669663E9 ; 2.367774201169826E10 ; 0.0
126 ; 1.2872755292848123E7 ; 2.0342602101286575E8 ; 1.6105657643845897E9 ; 2.38811493895074E10 ; 0.0
127 ; 1.2868052036999177E7 ; 2.034446547236799E8 ; 1.6234385196774378E9 ; 2.4084575410520267E10 ; 0.0
128 ; 1.2858300227878692E7 ; 2.0346327770284453E8 ; 1.636306571714437E9 ; 2.4288020065243946E10 ; 0.0
129 ; 1.285064280660633E7 ; 2.0348188873302418E8 ; 1.6491648719423158E9 ; 2.449148334294679E10 ; 0.0
130 ; 1.2826991898826975E7 ; 2.0350048661772612E8 ; 1.662015514748922E9 ; 2.4694965231679813E10 ; 0.0
131 ; 1.2801375143728444E7 ; 2.0351907018075752E8 ; 1.6748425066477492E9 ; 2.489846571829754E10 ; 0.0
132 ; 1.2778334003294645E7 ; 2.03537638265699E8 ; 1.6876438817914777E9 ; 2.5101984788478294E10 ; 0.0
133 ; 1.275009503154467E7 ; 2.0355618973539364E8 ; 1.7004222157947724E9 ; 2.530552242674399E10 ; 0.0
134 ; 1.2722015998312848E7 ; 2.0357472347145143E8 ; 1.713172310826317E9 ; 2.5509078616479385E10 ; 0.0
135 ; 1.2692884196323803E7 ; 2.0359323837376836E8 ; 1.72589432682463E9 ; 2.5712653339950836E10 ; 0.0
136 ; 1.266475281852088E7 ; 2.0361173336006013E8 ; 1.738587211020954E9 ; 2.5916246578324604E10 ; 0.0
137 ; 1.2638702752812542E7 ; 2.0363020736540958E8 ; 1.7512519638394747E9 ; 2.6119858311684666E10 ; 0.0
138 ; 1.2609348451412942E7 ; 2.036486593418281E8 ; 1.7638906665922873E9 ; 2.6323488519050076E10 ; 0.0
139 ; 1.2584659645621078E7 ; 2.036670882578298E8 ; 1.7765000150437002E9 ; 2.6527137178391903E10 ; 0.0
140 ; 1.255606126711243E7 ; 2.0368549309801868E8 ; 1.7890846746893213E9 ; 2.6730804266649734E10 ; 0.0
141 ; 1.2525948518164964E7 ; 2.0370387286268842E8 ; 1.8016407359564338E9 ; 2.6934489759747753E10 ; 0.0
142 ; 1.2496568027730193E7 ; 2.037222265674337E8 ; 1.8141666844745986E9 ; 2.7138193632610443E10 ; 0.0
143 ; 1.2468476075861681E7 ; 2.0374055324277392E8 ; 1.8266632525023289E9 ; 2.7341915859177876E10 ; 0.0
144 ; 1.244043527497697E7 ; 2.0375885193378747E8 ; 1.8391317285781906E9 ; 2.754565641242065E10 ; 0.0
145 ; 1.2417146291634088E7 ; 2.0377712169975773E8 ; 1.8515721638531675E9 ; 2.774941526435444E10 ; 0.0
146 ; 1.239384025341878E7 ; 2.0379536161382928E8 ; 1.8639893101448016E9 ; 2.7953192386054195E10 ; 0.0
147 ; 1.236775156505939E7 ; 2.038135707626747E8 ; 1.8763831503982203E9 ; 2.8156987747668026E10 ; 0.0
148 ; 1.2344844788613386E7 ; 2.0383174824617106E8 ; 1.8887509019632797E9 ; 2.8360801318430702E10 ; 0.0
149 ; 1.2323538466458337E7 ; 2.0384989317708665E8 ; 1.901095746751893E9 ; 2.8564633066676872E10 ; 0.0
150 ; 1.2297728316013334E7 ; 2.0386800468077677E8 ; 1.9134192852183514E9 ; 2.876848295985396E10 ; 0.0
151 ; 1.2277539978664527E7 ; 2.0388608189488867E8 ; 1.9257170135343647E9 ; 2.8972350964534737E10 ; 0.0
152 ; 1.2249679140197108E7 ; 2.039041239690754E8 ; 1.9379945535130293E9 ; 2.9176237046429626E10 ; 0.0
153 ; 1.2225751647573475E7 ; 2.0392213006471848E8 ; 1.9502442326532264E9 ; 2.93801411703987E10 ; 0.0
154 ; 1.2201522917635268E7 ; 2.039400993546584E8 ; 1.9624699843007998E9 ; 2.958406330046342E10 ; 0.0
155 ; 1.217533148839495E7 ; 2.0395803102293366E8 ; 1.974671507218435E9 ; 2.978800339981808E10 ; 0.0
156 ; 1.2153607824597262E7 ; 2.0397592426452735E8 ; 1.98684683870683E9 ; 2.9991961430841015E10 ; 0.0
157 ; 1.2128328197703177E7 ; 2.039937782851213E8 ; 1.9990004465314274E9 ; 3.019593735510554E10 ; 0.0
158 ; 1.2103761387148522E7 ; 2.040115923008578E8 ; 2.0111287747291305E9 ; 3.0399931133390663E10 ; 0.0
159 ; 1.2082852974201735E7 ; 2.040293655381081E8 ; 2.0232325361162791E9 ; 3.060394272569152E10 ; 0.0
160 ; 1.2057578164418658E7 ; 2.040470972332481E8 ; 2.0353153890904808E9 ; 3.080797209122963E10 ; 0.0
161 ; 1.2031044066922162E7 ; 2.0406478663244045E8 ; 2.0473729672548995E9 ; 3.101201918846288E10 ; 0.0
162 ; 1.2007858129292935E7 ; 2.0408243299142337E8 ; 2.0594040113218217E9 ; 3.1216083975095318E10 ; 0.0
163 ; 1.198457672131506E7 ; 2.0410003557530555E8 ; 2.0714118694511147E9 ; 3.1420166408086742E10 ; 0.0
164 ; 1.196237926894718E7 ; 2.041175936583672E8 ; 2.0833964461724298E9 ; 3.162426644366205E10 ; 0.0
165 ; 1.1936086842787528E7 ; 2.0413510652386692E8 ; 2.095358825441377E9 ; 3.1828384037320415E10 ; 0.0
166 ; 1.1908831569315307E7 ; 2.0415257346385452E8 ; 2.1072949122841644E9 ; 3.2032519143844284E10 ; 0.0
167 ; 1.188561724505298E7 ; 2.041699937789889E8 ; 2.1192037438534796E9 ; 3.223667171730814E10 ; 0.0
168 ; 1.1862971649311744E7 ; 2.041873667783617E8 ; 2.1310893610985327E9 ; 3.2440841711087128E10 ; 0.0
169 ; 1.183657932173402E7 ; 2.0420469177932608E8 ; 2.1429523327478445E9 ; 3.264502907786549E10 ; 0.0
170 ; 1.1816233210144429E7 ; 2.042219681073302E8 ; 2.1547889120695786E9 ; 3.2849233769644817E10 ; 0.0
171 ; 1.1786217829041349E7 ; 2.0423919509575608E8 ; 2.166605145279723E9 ; 3.3053455737752148E10 ; 0.0
172 ; 1.1761571571452003E7 ; 2.042563720857627E8 ; 2.1783913631087646E9 ; 3.3257694932847904E10 ; 0.0
173 ; 1.1737784654048221E7 ; 2.0427349842613405E8 ; 2.190152934680217E9 ; 3.3461951304933666E10 ; 0.0
174 ; 1.1716232412663797E7 ; 2.0429057347313133E8 ; 2.201890719334265E9 ; 3.36662248033598E10 ; 0.0
175 ; 1.169473421842718E7 ; 2.043E8 ; 2.213606951746929E9 ; 3.387051537683293E10 ; 0.0
176 ; 1.1677308099825311E7 ; 2.043E8 ; 2.2253016859653563E9 ; 3.407481537683293E10 ; 0.0
177 ; 1.1650315729104197E7 ; 2.043E8 ; 2.2369789940651817E9 ; 3.427911537683293E10 ; 0.0
178 ; 1.163271199898735E7 ; 2.043E8 ; 2.248629309794286E9 ; 3.448341537683293E10 ; 0.0
179 ; 1.1610156474835677E7 ; 2.043E8 ; 2.260262021793273E9 ; 3.468771537683293E10 ; 0.0
180 ; 1.1590953094747875E7 ; 2.043E8 ; 2.271872178268109E9 ; 3.489201537683293E10 ; 0.0
181 ; 1.1568612636617081E7 ; 2.043E8 ; 2.283463131362857E9 ; 3.509631537683293E10 ; 0.0
182 ; 1.1542308909142958E7 ; 2.043E8 ; 2.295031743999474E9 ; 3.530061537683293E10 ; 0.0
183 ; 1.1524723769173305E7 ; 2.043E8 ; 2.306574052908617E9 ; 3.550491537683293E10 ; 0.0
184 ; 1.1503632037347298E7 ; 2.043E8 ; 2.31809877667779E9 ; 3.570921537683293E10 ; 0.0
185 ; 1.1484351335861882E7 ; 2.043E8 ; 2.3296024087151375E9 ; 3.591351537683293E10 ; 0.0
186 ; 1.1462070496635584E7 ; 2.043E8 ; 2.341086760050999E9 ; 3.611781537683293E10 ; 0.0
187 ; 1.1439263995858312E7 ; 2.043E8 ; 2.3525488305476346E9 ; 3.632211537683293E10 ; 0.0
188 ; 1.1419360590980204E7 ; 2.043E8 ; 2.363988094543493E9 ; 3.652641537683293E10 ; 0.0
189 ; 1.1394312114313487E7 ; 2.043E8 ; 2.375407455134473E9 ; 3.673071537683293E10 ; 0.0
190 ; 1.1374618109965349E7 ; 2.043E8 ; 2.3868017672487864E9 ; 3.693501537683293E10 ; 0.0
191 ; 1.1354388698200423E7 ; 2.043E8 ; 2.398176385358752E9 ; 3.713931537683293E10 ; 0.0
192 ; 1.1331498408397885E7 ; 2.043E8 ; 2.409530774056952E9 ; 3.734361537683293E10 ; 0.0
193 ; 1.131156211197807E7 ; 2.043E8 ; 2.4208622724653497E9 ; 3.754791537683293E10 ; 0.0
194 ; 1.129095002873223E7 ; 2.043E8 ; 2.4321738345773277E9 ; 3.775221537683293E10 ; 0.0
195 ; 1.126698888632727E7 ; 2.043E8 ; 2.44346478460606E9 ; 3.795651537683293E10 ; 0.0
196 ; 1.1246893880394854E7 ; 2.043E8 ; 2.4547317734923873E9 ; 3.816081537683293E10 ; 0.0
197 ; 1.1227176325341614E7 ; 2.043E8 ; 2.465978667372782E9 ; 3.836511537683293E10 ; 0.0
198 ; 1.1204386750044214E7 ; 2.043E8 ; 2.477205843698124E9 ; 3.856941537683293E10 ; 0.0
