CSV File for the City 6 on Day 254
1 - Minute m 
2 - Power Consumed at minute m 
3 - Power Produced at minute m 
4 - Energy Consumed since the beginning of the day 
5 - Energy Produced since the beginning of the day 
6 - Energy Lost since the beginning of the day on lines starting from the city
 
0 ; 2902905.4933196367 ; 1.058037874479771E8 ; 0.0 ; 0.0 ; 0.0
1 ; 2914519.787963337 ; 1.059542608087259E8 ; 2902905.4933196367 ; 1.058037874479771E8 ; 0.0
2 ; 2922511.7892733747 ; 1.0641376060727504E8 ; 5817425.2812829735 ; 2.11758048256703E8 ; 0.0
3 ; 2932517.795065693 ; 1.0718229342897576E8 ; 8739937.070556348 ; 3.18171808863978E8 ; 0.0
4 ; 2947777.6756242756 ; 1.0825986523562986E8 ; 1.1672454865622042E7 ; 4.253541022929538E8 ; 0.0
5 ; 2972162.4194206404 ; 1.0964648131276846E8 ; 1.4620232541246317E7 ; 5.3361396752858365E8 ; 0.0
6 ; 2994707.6494178097 ; 1.1134214622141382E8 ; 1.759239496066696E7 ; 6.432604488413521E8 ; 0.0
7 ; 3029968.871906876 ; 1.1334686375531185E8 ; 2.058710261008477E7 ; 7.54602595062766E8 ; 0.0
8 ; 3080477.576706902 ; 1.1566063690454894E8 ; 2.3617071481991645E7 ; 8.679494588180778E8 ; 0.0
9 ; 3160412.678319972 ; 1.1828346782635415E8 ; 2.6697549058698546E7 ; 9.836100957226267E8 ; 0.0
10 ; 3289588.1027366584 ; 1.212153578237477E8 ; 2.985796173701852E7 ; 1.1018935635489807E9 ; 0.0
11 ; 3482522.1744830576 ; 1.2445630733252701E8 ; 3.3147549839755177E7 ; 1.2231089213727283E9 ; 0.0
12 ; 3799894.561193626 ; 1.2800631591689464E8 ; 3.663007201423824E7 ; 1.3475652287052553E9 ; 0.0
13 ; 4100740.6512497603 ; 1.3186538227383035E8 ; 4.042996657543186E7 ; 1.47557154462215E9 ; 0.0
14 ; 4133928.9865238485 ; 1.360335042461052E8 ; 4.453070722668162E7 ; 1.6074369268959804E9 ; 0.0
15 ; 4151398.693181916 ; 1.4051067884363264E8 ; 4.866463621320547E7 ; 1.7434704311420856E9 ; 0.0
16 ; 4162601.6543387542 ; 1.452969022726669E8 ; 5.281603490638739E7 ; 1.8839811099857183E9 ; 0.0
17 ; 4175280.7178215417 ; 1.5039216997218564E8 ; 5.697863656072614E7 ; 2.0292780122583852E9 ; 0.0
18 ; 4188179.388128496 ; 1.5579647665665776E8 ; 6.115391727854768E7 ; 2.179670182230571E9 ; 0.0
19 ; 4202899.38651473 ; 1.6150981636428145E8 ; 6.534209666667618E7 ; 2.3354666588872285E9 ; 0.0
20 ; 4218682.700361922 ; 1.6753218250970545E8 ; 6.95449960531909E7 ; 2.49697647525151E9 ; 0.0
21 ; 4230558.939419821 ; 1.7386356794020054E8 ; 7.376367875355282E7 ; 2.6645086577612157E9 ; 0.0
22 ; 4243812.66148573 ; 1.805039649942425E8 ; 7.799423769297265E7 ; 2.838372225701416E9 ; 0.0
23 ; 4256102.639504385 ; 1.8745336556148976E8 ; 8.223805035445838E7 ; 3.0188761906956587E9 ; 0.0
24 ; 4273741.62777672 ; 1.947117611431898E8 ; 8.649415299396276E7 ; 3.2063295562571483E9 ; 0.0
25 ; 4285192.289596048 ; 2.0096718381030464E8 ; 9.076789462173948E7 ; 3.401041317400338E9 ; 0.0
26 ; 4297260.285267796 ; 2.0097317229908288E8 ; 9.505308691133553E7 ; 3.602008501210643E9 ; 0.0
27 ; 4316823.383155061 ; 2.009794865926747E8 ; 9.935034719660333E7 ; 3.8029816735097256E9 ; 0.0
28 ; 4327490.360341604 ; 2.0098611722206372E8 ; 1.0366717057975839E8 ; 4.0039611601024003E9 ; 0.0
29 ; 4336483.966648142 ; 2.009930546104433E8 ; 1.079946609401E8 ; 4.204947277324464E9 ; 0.0
30 ; 4351908.224513629 ; 2.010002891209555E8 ; 1.1233114490674815E8 ; 4.405940331934907E9 ; 0.0
31 ; 4364070.814556959 ; 2.0100781110077828E8 ; 1.1668305313126178E8 ; 4.606940621055862E9 ; 0.0
32 ; 4378043.601136195 ; 2.010156109213998E8 ; 1.2104712394581874E8 ; 4.807948432156641E9 ; 0.0
33 ; 4390411.311786019 ; 2.0102367901500615E8 ; 1.2542516754695493E8 ; 5.008964043078041E9 ; 0.0
34 ; 4404635.176835069 ; 2.0103200590698582E8 ; 1.2981557885874096E8 ; 5.209987722093047E9 ; 0.0
35 ; 4414083.660889683 ; 2.010405822446197E8 ; 1.3422021403557602E8 ; 5.411019728000033E9 ; 0.0
36 ; 4426627.744695083 ; 2.0104939882207876E8 ; 1.386342976964657E8 ; 5.612060310244653E9 ; 0.0
37 ; 4433944.035641093 ; 2.0105844660189465E8 ; 1.430609254411608E8 ; 5.813109709066731E9 ; 0.0
38 ; 4449035.469088937 ; 2.010677167331005E8 ; 1.474948694768019E8 ; 6.014168155668626E9 ; 0.0
39 ; 4458172.89745034 ; 2.0107720056626284E8 ; 1.5194390494589084E8 ; 6.215235872401727E9 ; 0.0
40 ; 4467258.4802699145 ; 2.0108688966563886E8 ; 1.5640207784334117E8 ; 6.41631307296799E9 ; 0.0
41 ; 4473350.397963695 ; 2.0109677581870246E8 ; 1.6086933632361108E8 ; 6.617399962633629E9 ; 0.0
42 ; 4486985.610670351 ; 2.011068510432825E8 ; 1.6534268672157478E8 ; 6.818496738452332E9 ; 0.0
43 ; 4492357.057325087 ; 2.011171075925544E8 ; 1.6982967233224514E8 ; 7.019603589495614E9 ; 0.0
44 ; 4500513.07960649 ; 2.0112753795811784E8 ; 1.7432202938957024E8 ; 7.220720697088168E9 ; 0.0
45 ; 4504974.427133294 ; 2.011381348713844E8 ; 1.7882254246917674E8 ; 7.421848235046286E9 ; 0.0
46 ; 4513085.067832995 ; 2.011488913034853E8 ; 1.8332751689631003E8 ; 7.62298636991767E9 ; 0.0
47 ; 4520131.316217596 ; 2.01159800463896E8 ; 1.8784060196414304E8 ; 7.824135261221155E9 ; 0.0
48 ; 4527655.707848459 ; 2.0117085579796022E8 ; 1.9236073328036064E8 ; 8.025295061685051E9 ; 0.0
49 ; 4531834.222190916 ; 2.011820509834798E8 ; 1.968883889882091E8 ; 8.226465917483011E9 ; 0.0
50 ; 4534136.195073772 ; 2.0119337992652264E8 ; 2.0142022321040002E8 ; 8.427647968466491E9 ; 0.0
51 ; 4538181.022371904 ; 2.0120483675658554E8 ; 2.059543594054738E8 ; 8.628841348393013E9 ; 0.0
52 ; 4539552.36294037 ; 2.0121641582123512E8 ; 2.1049254042784572E8 ; 8.8300461851496E9 ; 0.0
53 ; 4546954.8607937265 ; 2.012281116803357E8 ; 2.150320927907861E8 ; 9.031262600970835E9 ; 0.0
54 ; 4546322.333125703 ; 2.0123991909996122E8 ; 2.1957904765157983E8 ; 9.23249071265117E9 ; 0.0
55 ; 4553842.463418516 ; 2.0125183304607576E8 ; 2.2412536998470554E8 ; 9.433730631751131E9 ; 0.0
56 ; 4557232.277974061 ; 2.0126384867805672E8 ; 2.2867921244812405E8 ; 9.634982464797207E9 ; 0.0
57 ; 4560372.370024675 ; 2.0127596134212473E8 ; 2.3323644472609812E8 ; 9.836246313475264E9 ; 0.0
58 ; 4563384.6658601025 ; 2.0128816656473532E8 ; 2.377968170961228E8 ; 1.0037522274817389E10 ; 0.0
59 ; 4567587.661053465 ; 2.013004600459792E8 ; 2.4236020176198292E8 ; 1.0238810441382124E10 ; 0.0
60 ; 4571119.642781799 ; 2.013128376530308E8 ; 2.469277894230364E8 ; 1.0440110901428102E10 ; 0.0
61 ; 4572397.194085014 ; 2.013252954136783E8 ; 2.514989090658182E8 ; 1.0641423739081133E10 ; 0.0
62 ; 4578234.995774956 ; 2.0133782950996223E8 ; 2.560713062599032E8 ; 1.0842749034494812E10 ; 0.0
63 ; 4578148.481798909 ; 2.0135043627194571E8 ; 2.6064954125567815E8 ; 1.1044086864004774E10 ; 0.0
64 ; 4581302.002568034 ; 2.0136311217163324E8 ; 2.6522768973747706E8 ; 1.124543730027672E10 ; 0.0
65 ; 4586464.085685274 ; 2.0137585381705266E8 ; 2.698089917400451E8 ; 1.1446800412448353E10 ; 0.0
66 ; 4587795.537966702 ; 2.0138865794651118E8 ; 2.743954558257303E8 ; 1.1648176266265406E10 ; 0.0
67 ; 4588913.032937566 ; 2.0140152142303237E8 ; 2.7898325136369705E8 ; 1.1849564924211916E10 ; 0.0
68 ; 4590490.295364009 ; 2.014144412289804E8 ; 2.8357216439663464E8 ; 1.2050966445634949E10 ; 0.0
69 ; 4597267.501118438 ; 2.014274144608738E8 ; 2.8816265469199866E8 ; 1.225238088686393E10 ; 0.0
70 ; 4601559.065608316 ; 2.0144043832439098E8 ; 2.927599221931171E8 ; 1.2453808301324804E10 ; 0.0
71 ; 4599684.933874251 ; 2.014535101295662E8 ; 2.973614812587254E8 ; 1.2655248739649195E10 ; 0.0
72 ; 4605232.455618087 ; 2.014666272861759E8 ; 3.0196116619259965E8 ; 1.285670224977876E10 ; 0.0
73 ; 4603193.587716852 ; 2.0147978729931197E8 ; 3.0656639864821774E8 ; 1.3058168877064938E10 ; 0.0
74 ; 4607288.808364212 ; 2.0149298776513886E8 ; 3.111695922359346E8 ; 1.325964866436425E10 ; 0.0
75 ; 4608806.008391968 ; 2.01506226366831E8 ; 3.157768810442988E8 ; 1.3461141652129389E10 ; 0.0
76 ; 4612175.055343056 ; 2.0151950087068528E8 ; 3.203856870526908E8 ; 1.366264787849622E10 ; 0.0
77 ; 4611842.9906597985 ; 2.015328091224042E8 ; 3.2499786210803384E8 ; 1.3864167379366905E10 ; 0.0
78 ; 4609162.943006696 ; 2.015461490435443E8 ; 3.296097050986936E8 ; 1.406570018848931E10 ; 0.0
79 ; 4608380.860446511 ; 2.0155951862812412E8 ; 3.342188680417003E8 ; 1.4267246337532854E10 ; 0.0
80 ; 4603912.070840208 ; 2.0157291593938655E8 ; 3.388272489021468E8 ; 1.4468805856160978E10 ; 0.0
81 ; 4601074.2209907565 ; 2.0158633910670942E8 ; 3.43431160972987E8 ; 1.4670378772100365E10 ; 0.0
82 ; 4603628.736844739 ; 2.0159978632265893E8 ; 3.480322351939778E8 ; 1.4871965111207073E10 ; 0.0
83 ; 4599764.6400950095 ; 2.016132558401799E8 ; 3.526358639308225E8 ; 1.5073564897529732E10 ; 0.0
84 ; 4593900.156155711 ; 2.0162674596991768E8 ; 3.572356285709175E8 ; 1.5275178153369911E10 ; 0.0
85 ; 4594219.3767723935 ; 2.0164025507766557E8 ; 3.618295287270732E8 ; 1.5476804899339828E10 ; 0.0
86 ; 4591227.025340342 ; 2.0165378158193272E8 ; 3.664237481038456E8 ; 1.5678445154417494E10 ; 0.0
87 ; 4589357.818406912 ; 2.0166732395162705E8 ; 3.710149751291859E8 ; 1.5880098935999426E10 ; 0.0
88 ; 4586033.0074738115 ; 2.0168088070384806E8 ; 3.7560433294759285E8 ; 1.6081766259951054E10 ; 0.0
89 ; 4581423.219501817 ; 2.0169445040178445E8 ; 3.801903659550667E8 ; 1.6283447140654902E10 ; 0.0
90 ; 4578154.73578304 ; 2.017080316527117E8 ; 3.847717891745685E8 ; 1.6485141591056686E10 ; 0.0
91 ; 4576406.945385263 ; 2.0172162310608503E8 ; 3.893499439103515E8 ; 1.6686849622709398E10 ; 0.0
92 ; 4572970.509536999 ; 2.0173522345172328E8 ; 3.939263508557368E8 ; 1.6888571245815483E10 ; 0.0
93 ; 4566514.973443922 ; 2.0174883141807896E8 ; 3.984993213652738E8 ; 1.7090306469267206E10 ; 0.0
94 ; 4562630.603882263 ; 2.0176244577059093E8 ; 4.030658363387177E8 ; 1.7292055300685284E10 ; 0.0
95 ; 4559196.190686142 ; 2.0177606531011534E8 ; 4.0762846694259995E8 ; 1.7493817746455875E10 ; 0.0
96 ; 4554787.36881706 ; 2.0178968887143108E8 ; 4.121876631332861E8 ; 1.769559381176599E10 ; 0.0
97 ; 4549173.737069166 ; 2.0180331532181615E8 ; 4.1674245050210315E8 ; 1.789738350063742E10 ; 0.0
98 ; 4549799.07352584 ; 2.018169435596915E8 ; 4.2129162423917234E8 ; 1.8099186815959236E10 ; 0.0
99 ; 4547964.9341346575 ; 2.018305725133288E8 ; 4.258414233126982E8 ; 1.830100375951893E10 ; 0.0
100 ; 4545224.858395473 ; 2.0184420113961944E8 ; 4.3038938824683285E8 ; 1.8502834332032257E10 ; 0.0
101 ; 4538504.072986196 ; 2.018578284229013E8 ; 4.349346131052283E8 ; 1.8704678533171875E10 ; 0.0
102 ; 4532381.614593281 ; 2.018714533738405E8 ; 4.394731171782145E8 ; 1.8906536361594776E10 ; 0.0
103 ; 4530556.81226949 ; 2.018850750283657E8 ; 4.4400549879280776E8 ; 1.9108407814968616E10 ; 0.0
104 ; 4520986.125671574 ; 2.0189869244665194E8 ; 4.4853605560507727E8 ; 1.9310292889996983E10 ; 0.0
105 ; 4522434.177701212 ; 2.0191230471215189E8 ; 4.5305704173074883E8 ; 1.9512191582443634E10 ; 0.0
106 ; 4513900.2113163145 ; 2.0192591093067202E8 ; 4.5757947590845007E8 ; 1.9714103887155785E10 ; 0.0
107 ; 4513079.120457125 ; 2.0193951022949144E8 ; 4.6209337611976635E8 ; 1.9916029798086456E10 ; 0.0
108 ; 4509074.819068406 ; 2.019531017565213E8 ; 4.6660645524022347E8 ; 2.011796930831595E10 ; 0.0
109 ; 4502781.451282595 ; 2.0196668467950282E8 ; 4.711155300592919E8 ; 2.031992241007247E10 ; 0.0
110 ; 4496265.2558704745 ; 2.01980258185242E8 ; 4.756183115105745E8 ; 2.0521889094751976E10 ; 0.0
111 ; 4493314.349291603 ; 2.0199382147887924E8 ; 4.80114576766445E8 ; 2.0723869352937218E10 ; 0.0
112 ; 4490644.855144116 ; 2.0200737378319198E8 ; 4.846078911157366E8 ; 2.0925863174416096E10 ; 0.0
113 ; 4481795.861874725 ; 2.02020914337929E8 ; 4.8909853597088075E8 ; 2.1127870548199287E10 ; 0.0
114 ; 4478759.983476406 ; 2.0203444239917457E8 ; 4.9358033183275545E8 ; 2.1329891462537216E10 ; 0.0
115 ; 4473204.156763257 ; 2.0204795723874134E8 ; 4.9805909181623185E8 ; 2.153192590493639E10 ; 0.0
116 ; 4465149.123198763 ; 2.0206145814359003E8 ; 5.025322959729951E8 ; 2.1733973862175133E10 ; 0.0
117 ; 4458912.231549357 ; 2.020749444152752E8 ; 5.0699744509619385E8 ; 2.193603532031872E10 ; 0.0
118 ; 4451769.882589274 ; 2.0208841536941537E8 ; 5.1145635732774323E8 ; 2.2138110264733997E10 ; 0.0
119 ; 4450041.265918335 ; 2.021018703351868E8 ; 5.159081272103325E8 ; 2.2340198680103413E10 ; 0.0
120 ; 4440871.803445883 ; 2.0211530865483907E8 ; 5.203581684762508E8 ; 2.25423005504386E10 ; 0.0
121 ; 4436876.458983871 ; 2.021287296832322E8 ; 5.247990402796967E8 ; 2.2744415859093437E10 ; 0.0
122 ; 4431853.225887163 ; 2.0214213278739375E8 ; 5.292359167386806E8 ; 2.294654458877667E10 ; 0.0
123 ; 4424105.617242028 ; 2.0215551734609526E8 ; 5.336677699645678E8 ; 2.3148686721564064E10 ; 0.0
124 ; 4418437.761034414 ; 2.0216888274944672E8 ; 5.380918755818098E8 ; 2.335084223891016E10 ; 0.0
125 ; 4413379.73485234 ; 2.0218222839850873E8 ; 5.425103133428441E8 ; 2.3553011121659607E10 ; 0.0
126 ; 4407615.976539567 ; 2.021955537049211E8 ; 5.469236930776964E8 ; 2.3755193350058117E10 ; 0.0
127 ; 4400645.601324429 ; 2.0220885809054723E8 ; 5.51331309054236E8 ; 2.395738890376304E10 ; 0.0
128 ; 4396041.170141168 ; 2.0222214098713383E8 ; 5.557319546555605E8 ; 2.4159597761853584E10 ; 0.0
129 ; 4384242.010673945 ; 2.0223540183598456E8 ; 5.601279958257017E8 ; 2.4361819902840717E10 ; 0.0
130 ; 4379739.708286365 ; 2.0224864008764777E8 ; 5.645122378363757E8 ; 2.45640553046767E10 ; 0.0
131 ; 4365833.923924959 ; 2.0226185520161718E8 ; 5.688919775446621E8 ; 2.4766303944764347E10 ; 0.0
132 ; 4359859.408388373 ; 2.0227504664604494E8 ; 5.73257811468587E8 ; 2.4968565799965965E10 ; 0.0
133 ; 4346249.335622443 ; 2.0228821389746672E8 ; 5.776176708769754E8 ; 2.517084084661201E10 ; 0.0
134 ; 4336732.95746209 ; 2.02301356440538E8 ; 5.819639202125978E8 ; 2.537312906050948E10 ; 0.0
135 ; 4327725.31990807 ; 2.0231447376778135E8 ; 5.863006531700599E8 ; 2.5575430416950016E10 ; 0.0
136 ; 4317357.621024064 ; 2.0232756537934396E8 ; 5.90628378489968E8 ; 2.5777744890717796E10 ; 0.0
137 ; 4304569.044070699 ; 2.0234063078276503E8 ; 5.94945736110992E8 ; 2.598007245609714E10 ; 0.0
138 ; 4291471.615036618 ; 2.0235366949275273E8 ; 5.992503051550627E8 ; 2.6182413086879906E10 ; 0.0
139 ; 4279472.658168184 ; 2.0236668103096995E8 ; 6.035417767700993E8 ; 2.6384766756372658E10 ; 0.0
140 ; 4266442.625070284 ; 2.023796649258288E8 ; 6.078212494282675E8 ; 2.658713343740363E10 ; 0.0
141 ; 4259192.307710381 ; 2.0239262071229342E8 ; 6.120876920533378E8 ; 2.6789513102329456E10 ; 0.0
142 ; 4242606.566811687 ; 2.024055479316904E8 ; 6.163468843610482E8 ; 2.6991905723041748E10 ; 0.0
143 ; 4237027.956832453 ; 2.0241844613152692E8 ; 6.205894909278599E8 ; 2.719431127097344E10 ; 0.0
144 ; 4223767.998508576 ; 2.0243131486531612E8 ; 6.248265188846923E8 ; 2.7396729717104965E10 ; 0.0
145 ; 4214553.607203386 ; 2.024441536924091E8 ; 6.290502868832009E8 ; 2.759916103197028E10 ; 0.0
146 ; 4214102.356485117 ; 2.0245696217783374E8 ; 6.332648404904042E8 ; 2.780160518566269E10 ; 0.0
147 ; 4201048.075106762 ; 2.0246973989213967E8 ; 6.374789428468894E8 ; 2.8004062147840523E10 ; 0.0
148 ; 4195383.769973669 ; 2.024824864112494E8 ; 6.416799909219961E8 ; 2.8206531887732662E10 ; 0.0
149 ; 4189243.822967341 ; 2.0249520131631503E8 ; 6.458753746919698E8 ; 2.8409014374143913E10 ; 0.0
150 ; 4182998.29216403 ; 2.025078841935806E8 ; 6.50064618514937E8 ; 2.8611509575460228E10 ; 0.0
151 ; 4174307.4303237293 ; 2.0252053463424978E8 ; 6.542476168071011E8 ; 2.881401745965381E10 ; 0.0
152 ; 4168759.5865922477 ; 2.0253315223435843E8 ; 6.584219242374249E8 ; 2.901653799428806E10 ; 0.0
153 ; 4162555.60703494 ; 2.0254573659465227E8 ; 6.62590683824017E8 ; 2.921907114652242E10 ; 0.0
154 ; 4152872.3295074576 ; 2.025582873204689E8 ; 6.66753239431052E8 ; 2.9421616883117073E10 ; 0.0
155 ; 4149690.8948578644 ; 2.025708040216245E8 ; 6.709061117605594E8 ; 2.9624175170437542E10 ; 0.0
156 ; 4139685.3732709466 ; 2.0258328631230476E8 ; 6.750558026554173E8 ; 2.9826745974459167E10 ; 0.0
157 ; 4130550.7202549586 ; 2.0259573381095985E8 ; 6.791954880286883E8 ; 3.0029329260771473E10 ; 0.0
158 ; 4124625.54184206 ; 2.026081461402032E8 ; 6.833260387489433E8 ; 3.023192499458243E10 ; 0.0
159 ; 4118809.028834193 ; 2.0262052292671442E8 ; 6.874506642907854E8 ; 3.0434533140722633E10 ; 0.0
160 ; 4110234.456386352 ; 2.0263286380114537E8 ; 6.915694733196197E8 ; 3.063715366364935E10 ; 0.0
161 ; 4105261.3563537207 ; 2.0264516839803E8 ; 6.95679707776006E8 ; 3.0839786527450493E10 ; 0.0
162 ; 4096414.755006863 ; 2.026574363556974E8 ; 6.997849691323597E8 ; 3.1042431695848522E10 ; 0.0
163 ; 4088490.5599877927 ; 2.026696673161881E8 ; 7.038813838873667E8 ; 3.124508913220422E10 ; 0.0
164 ; 4083837.0606840136 ; 2.026818609251733E8 ; 7.079698744473544E8 ; 3.144775879952041E10 ; 0.0
165 ; 4073832.8899895274 ; 2.0269401683187732E8 ; 7.120537115080384E8 ; 3.1650440660445583E10 ; 0.0
166 ; 4064897.006452608 ; 2.0270613468900245E8 ; 7.161275443980279E8 ; 3.1853134677277462E10 ; 0.0
167 ; 4059330.446569912 ; 2.0271821415265694E8 ; 7.201924414044805E8 ; 3.2055840811966465E10 ; 0.0
168 ; 4053840.0401686346 ; 2.0273025488228533E8 ; 7.242517718510504E8 ; 3.225855902611912E10 ; 0.0
169 ; 4045472.8487812807 ; 2.0274225654060134E8 ; 7.28305611891219E8 ; 3.2461289281001408E10 ; 0.0
170 ; 4036883.944467568 ; 2.0275421879352328E8 ; 7.323510847400002E8 ; 3.2664031537542007E10 ; 0.0
171 ; 4031836.6040195096 ; 2.0276614131011155E8 ; 7.363879686844678E8 ; 3.286678575633553E10 ; 0.0
172 ; 4024056.4248612886 ; 2.027780237625086E8 ; 7.404198052884873E8 ; 3.306955189764564E10 ; 0.0
173 ; 4018198.4532162733 ; 2.0278986582588094E8 ; 7.444438617133486E8 ; 3.327232992140815E10 ; 0.0
174 ; 4009733.5731092957 ; 2.0280166717836305E8 ; 7.48462060166565E8 ; 3.347511978723403E10 ; 0.0
175 ; 4003950.6292995675 ; 2.028134275010035E8 ; 7.524717937396742E8 ; 3.3677921454412395E10 ; 0.0
176 ; 4000896.3052014355 ; 2.0282514647771293E8 ; 7.564757443689737E8 ; 3.38807348819134E10 ; 0.0
177 ; 3998871.696685546 ; 2.028368237952137E8 ; 7.604766406741751E8 ; 3.4083560028391113E10 ; 0.0
178 ; 3987307.0836164993 ; 2.0284845914299148E8 ; 7.644755123708607E8 ; 3.4286396852186325E10 ; 0.0
179 ; 3985080.965837684 ; 2.0286005221324837E8 ; 7.684628194544772E8 ; 3.4489245311329315E10 ; 0.0
180 ; 3976308.0223062984 ; 2.0287160270085794E8 ; 7.724479004203149E8 ; 3.4692105363542564E10 ; 0.0
181 ; 3971469.8346752236 ; 2.0288311030332142E8 ; 7.764242084426212E8 ; 3.489497696624342E10 ; 0.0
182 ; 3965548.8088794863 ; 2.028945747207258E8 ; 7.803956782772964E8 ; 3.5097860076546745E10 ; 0.0
183 ; 3960672.7064018305 ; 2.029059956557031E8 ; 7.843612270861759E8 ; 3.530075465126747E10 ; 0.0
184 ; 3956145.4049506187 ; 2.029173728133913E8 ; 7.883218997925777E8 ; 3.550366064692317E10 ; 0.0
185 ; 3951529.9065357395 ; 2.029287059013963E8 ; 7.922780451975284E8 ; 3.5706578019736565E10 ; 0.0
186 ; 3943087.866366272 ; 2.0293999462975556E8 ; 7.962295751040641E8 ; 3.590950672563796E10 ; 0.0
187 ; 3938879.597780463 ; 2.0295123871090263E8 ; 8.001726629704304E8 ; 3.6112446720267715E10 ; 0.0
188 ; 3934601.566132785 ; 2.0296243785963324E8 ; 8.041115425682108E8 ; 3.6315397958978615E10 ; 0.0
189 ; 3930762.274999574 ; 2.0297359179307216E8 ; 8.080461441343436E8 ; 3.651836039683825E10 ; 0.0
190 ; 3926574.535056457 ; 2.0298470023064163E8 ; 8.119769064093432E8 ; 3.6721333988631325E10 ; 0.0
191 ; 3914889.9722648473 ; 2.0299576289403048E8 ; 8.159034809443997E8 ; 3.692431868886197E10 ; 0.0
192 ; 3910738.671075821 ; 2.0300677950716457E8 ; 8.198183709166646E8 ; 3.7127314451756E10 ; 0.0
193 ; 3902778.2706307597 ; 2.0301774979617804E8 ; 8.237291095877404E8 ; 3.733032123126316E10 ; 0.0
194 ; 3901773.002609204 ; 2.030286734893857E8 ; 8.276318878583711E8 ; 3.753333898105934E10 ; 0.0
195 ; 3892768.9738734327 ; 2.0303955031725624E8 ; 8.315336608609804E8 ; 3.773636765454873E10 ; 0.0
196 ; 3890185.847845236 ; 2.030503800123864E8 ; 8.354264298348538E8 ; 3.793940720486598E10 ; 0.0
197 ; 3886239.51840661 ; 2.0306116230947602E8 ; 8.39316615682699E8 ; 3.814245758487837E10 ; 0.0
198 ; 3876827.791299225 ; 2.0307189694530392E8 ; 8.432028552011056E8 ; 3.834551874718785E10 ; 0.0
199 ; 3873444.8623664216 ; 2.030825836587045E8 ; 8.470796829924048E8 ; 3.8548590644133156E10 ; 0.0
200 ; 3871151.635596181 ; 2.030932221905453E8 ; 8.509531278547713E8 ; 3.875167322779186E10 ; 0.0
201 ; 3861882.5278231045 ; 1.58870431772793E8 ; 8.548242794903674E8 ; 3.895476644998241E10 ; 0.0
