CSV File for the City 3 on Day 349
1 - Minute m 
2 - Power Consumed at minute m 
3 - Power Produced at minute m 
4 - Energy Consumed since the beginning of the day 
5 - Energy Produced since the beginning of the day 
6 - Energy Lost since the beginning of the day on lines starting from the city
 
0 ; 2385329.716605334 ; 1.0556496152428505E8 ; 0.0 ; 0.0 ; 0.0
1 ; 2387602.259268684 ; 1.0571791959317452E8 ; 2385329.716605334 ; 1.0556496152428505E8 ; 0.0
2 ; 2389923.2560945298 ; 1.0617965889624318E8 ; 4772931.975874018 ; 2.1128288111745957E8 ; 0.0
3 ; 2391801.923768743 ; 1.0695018080527532E8 ; 7162855.231968548 ; 3.1746254001370275E8 ; 0.0
4 ; 2395404.02422737 ; 1.080294865481968E8 ; 9554657.155737292 ; 4.244127208189781E8 ; 0.0
5 ; 2400176.44962969 ; 1.094175772027592E8 ; 1.1950061179964662E7 ; 5.3244220736717486E8 ; 0.0
6 ; 2406557.8997145267 ; 1.1111445369089839E8 ; 1.4350237629594352E7 ; 6.418597845699341E8 ; 0.0
7 ; 2415282.7059669774 ; 1.1312011677383578E8 ; 1.6756795529308878E7 ; 7.529742382608325E8 ; 0.0
8 ; 2424107.67236664 ; 1.1543456704798257E8 ; 1.9172078235275857E7 ; 8.660943550346683E8 ; 0.0
9 ; 2442732.325525952 ; 1.1805780494169843E8 ; 2.15961859076425E7 ; 9.815289220826509E8 ; 0.0
10 ; 2469281.124162125 ; 1.2098983071294606E8 ; 2.403891823316845E7 ; 1.0995867270243492E9 ; 0.0
11 ; 2509995.721211887 ; 1.242306444478713E8 ; 2.6508199357330576E7 ; 1.2205765577372952E9 ; 0.0
12 ; 2578196.3066686164 ; 1.2778024606032827E8 ; 2.9018195078542463E7 ; 1.3448072021851664E9 ; 0.0
13 ; 2641142.369306793 ; 1.3163863529235429E8 ; 3.159639138521108E7 ; 1.4725874482454946E9 ; 0.0
14 ; 2646897.3788638096 ; 1.3580581171558976E8 ; 3.4237533754517876E7 ; 1.604226083537849E9 ; 0.0
15 ; 2650439.652091955 ; 1.402817747336234E8 ; 3.688443113338169E7 ; 1.7400318952534387E9 ; 0.0
16 ; 2651991.6119881608 ; 1.4506652358523384E8 ; 3.9534870785473645E7 ; 1.880313669987062E9 ; 0.0
17 ; 2655293.9201016272 ; 1.501600573484852E8 ; 4.21868623974618E7 ; 2.025380193572296E9 ; 0.0
18 ; 2658423.049592177 ; 1.555623749456259E8 ; 4.484215631756343E7 ; 2.175540250920781E9 ; 0.0
19 ; 2661446.751307333 ; 1.6127347514873007E8 ; 4.7500579367155604E7 ; 2.331102625866407E9 ; 0.0
20 ; 2665195.82685584 ; 1.672933565860134E8 ; 5.0162026118462935E7 ; 2.492376101015137E9 ; 0.0
21 ; 2666781.570195032 ; 1.73622017748749E8 ; 5.282722194531877E7 ; 2.6596694576011505E9 ; 0.0
22 ; 2670591.6019139728 ; 1.8025945699870408E8 ; 5.549400351551381E7 ; 2.8332914753498993E9 ; 0.0
23 ; 2673652.4450963787 ; 1.8720567257601613E8 ; 5.816459511742778E7 ; 3.0135509323486032E9 ; 0.0
24 ; 2677121.9983027685 ; 1.9446066260742295E8 ; 6.083824756252416E7 ; 3.200756604924619E9 ; 0.0
25 ; 2679585.8357143435 ; 2.0071246601294804E8 ; 6.351536956082693E7 ; 3.395217267532042E9 ; 0.0
26 ; 2683649.5544363945 ; 2.007146285514857E8 ; 6.619495539654127E7 ; 3.59592973354499E9 ; 0.0
27 ; 2687002.402964451 ; 2.0071691735450217E8 ; 6.887860495097767E7 ; 3.7966443620964756E9 ; 0.0
28 ; 2690453.1585876415 ; 2.007193301816369E8 ; 7.156560735394213E7 ; 3.997361279450978E9 ; 0.0
29 ; 2691440.9276328892 ; 2.0072186472273654E8 ; 7.425606051252976E7 ; 4.1980806096326146E9 ; 0.0
30 ; 2695506.1933446787 ; 2.007245186065363E8 ; 7.694750144016264E7 ; 4.398802474355351E9 ; 0.0
31 ; 2699115.613657197 ; 2.0072728940917423E8 ; 7.964300763350733E7 ; 4.599526992961887E9 ; 0.0
32 ; 2702251.325409207 ; 2.007301746624833E8 ; 8.234212324716452E7 ; 4.800254282371061E9 ; 0.0
33 ; 2704162.057666066 ; 2.0073317186201465E8 ; 8.504437457257372E7 ; 5.000984457033545E9 ; 0.0
34 ; 2705914.402655769 ; 2.0073627847475085E8 ; 8.774853663023978E7 ; 5.201717628895559E9 ; 0.0
35 ; 2707902.6763341385 ; 2.007394919464752E8 ; 9.045445103289555E7 ; 5.40245390737031E9 ; 0.0
36 ; 2712371.7055415264 ; 2.007428097087702E8 ; 9.31623537092297E7 ; 5.603193399316785E9 ; 0.0
37 ; 2714586.9285277734 ; 2.0074622918562314E8 ; 9.587472541477121E7 ; 5.803936209025555E9 ; 0.0
38 ; 2715766.8790326645 ; 2.0074974779962486E8 ; 9.858931234329899E7 ; 6.004682438211178E9 ; 0.0
39 ; 2717746.1679090234 ; 2.0075336297775096E8 ; 1.0130507922233166E8 ; 6.205432186010802E9 ; 0.0
40 ; 2721120.379360585 ; 2.007570721567215E8 ; 1.0402282539024068E8 ; 6.406185548988553E9 ; 0.0
41 ; 2722692.1348958784 ; 2.0076087278793916E8 ; 1.0674394576960127E8 ; 6.606942621145274E9 ; 0.0
42 ; 2724956.926377799 ; 2.007647623420095E8 ; 1.0946663790449715E8 ; 6.807703493933213E9 ; 0.0
43 ; 2726619.043574667 ; 2.007687383128513E8 ; 1.1219159483087495E8 ; 7.008468256275223E9 ; 0.0
44 ; 2727447.078729505 ; 2.007727982214073E8 ; 1.1491821387444961E8 ; 7.209236994588074E9 ; 0.0
45 ; 2731867.856141808 ; 2.0077693961896825E8 ; 1.1764566095317912E8 ; 7.410009792809481E9 ; 0.0
46 ; 2731158.0580426683 ; 2.0078116009012613E8 ; 1.2037752880932093E8 ; 7.610786732428449E9 ; 0.0
47 ; 2732938.944511241 ; 2.007854572553721E8 ; 1.231086868673636E8 ; 7.811567892518575E9 ; 0.0
48 ; 2731585.8439723193 ; 2.007898287733585E8 ; 1.2584162581187484E8 ; 8.012353349773947E9 ; 0.0
49 ; 2733109.023882734 ; 2.007942723428425E8 ; 1.2857321165584716E8 ; 8.213143178547305E9 ; 0.0
50 ; 2736018.441292667 ; 2.0079878570433193E8 ; 1.313063206797299E8 ; 8.413937450890147E9 ; 0.0
51 ; 2737631.7842853316 ; 2.0080336664145195E8 ; 1.3404233912102257E8 ; 8.614736236594479E9 ; 0.0
52 ; 2738657.340805498 ; 2.0080801298205283E8 ; 1.367799709053079E8 ; 8.815539603235931E9 ; 0.0
53 ; 2739333.859197067 ; 2.00812722599078E8 ; 1.395186282461134E8 ; 9.016347616217985E9 ; 0.0
54 ; 2738768.8984051486 ; 2.0081749341121158E8 ; 1.4225796210531047E8 ; 9.217160338817062E9 ; 0.0
55 ; 2740613.0360631384 ; 2.0082232338332373E8 ; 1.449967310037156E8 ; 9.417977832228273E9 ; 0.0
56 ; 2740595.769748979 ; 2.008272105267318E8 ; 1.4773734403977874E8 ; 9.618800155611597E9 ; 0.0
57 ; 2741802.231473318 ; 2.0083215289929435E8 ; 1.5047793980952772E8 ; 9.819627366138329E9 ; 0.0
58 ; 2740671.7360653724 ; 2.0083714860535467E8 ; 1.5321974204100105E8 ; 1.0020459519037622E10 ; 0.0
59 ; 2743849.0272597475 ; 2.0084219579554844E8 ; 1.559604137770664E8 ; 1.0221296667642977E10 ; 0.0
60 ; 2744008.814139448 ; 2.0084729266649127E8 ; 1.5870426280432615E8 ; 1.0422138863438526E10 ; 0.0
61 ; 2744593.704037844 ; 2.0085243746035868E8 ; 1.614482716184656E8 ; 1.0622986156105017E10 ; 0.0
62 ; 2744449.00828755 ; 2.0085762846437192E8 ; 1.6419286532250345E8 ; 1.0823838593565376E10 ; 0.0
63 ; 2744976.9224209185 ; 2.0086286401020148E8 ; 1.66937314330791E8 ; 1.1024696222029749E10 ; 0.0
64 ; 2746797.4605819997 ; 2.0086814247329888E8 ; 1.6968229125321192E8 ; 1.1225559086039951E10 ; 0.0
65 ; 2747629.622901464 ; 2.008734622721673E8 ; 1.724290887137939E8 ; 1.142642722851325E10 ; 0.0
66 ; 2746356.3649029904 ; 2.008788218675799E8 ; 1.7517671833669537E8 ; 1.1627300690785418E10 ; 0.0
67 ; 2748611.040827538 ; 2.0088421976175508E8 ; 1.7792307470159838E8 ; 1.1828179512652998E10 ; 0.0
68 ; 2746706.7238429645 ; 2.0088965449749532E8 ; 1.8067168574242592E8 ; 1.2029063732414753E10 ; 0.0
69 ; 2748937.692868772 ; 2.0089512465729803E8 ; 1.834183924662689E8 ; 1.2229953386912249E10 ; 0.0
70 ; 2748898.3775101635 ; 2.0090062886244336E8 ; 1.8616733015913767E8 ; 1.2430848511569546E10 ; 0.0
71 ; 2747916.1920864093 ; 2.0090616577206597E8 ; 1.8891622853664783E8 ; 1.263174914043199E10 ; 0.0
72 ; 2749511.3555381335 ; 2.009117340822151E8 ; 1.9166414472873423E8 ; 1.2832655306204056E10 ; 0.0
73 ; 2749776.024406221 ; 2.0091733252490795E8 ; 1.9441365608427235E8 ; 1.303356704028627E10 ; 0.0
74 ; 2750680.7175998795 ; 2.009229598671803E8 ; 1.9716343210867858E8 ; 1.3234484372811178E10 ; 0.0
75 ; 2749791.555050521 ; 2.0092861491013813E8 ; 1.9991411282627845E8 ; 1.3435407332678358E10 ; 0.0
76 ; 2749285.978958994 ; 2.009342964880136E8 ; 2.0266390438132897E8 ; 1.3636335947588497E10 ; 0.0
77 ; 2751179.9595193365 ; 2.009400034672276E8 ; 2.0541319036028796E8 ; 1.3837270244076511E10 ; 0.0
78 ; 2749615.867218812 ; 2.009457347454623E8 ; 2.081643703198073E8 ; 1.403821024754374E10 ; 0.0
79 ; 2749974.2575048027 ; 2.0095148925074476E8 ; 2.109139861870261E8 ; 1.4239155982289202E10 ; 0.0
80 ; 2748347.544643337 ; 2.0095726594054452E8 ; 2.136639604445309E8 ; 1.4440107471539946E10 ; 0.0
81 ; 2748734.789956077 ; 2.0096306380088565E8 ; 2.1641230798917425E8 ; 1.464106473748049E10 ; 0.0
82 ; 2746042.1426192243 ; 2.0096888184547535E8 ; 2.191610427791303E8 ; 1.4842027801281376E10 ; 0.0
83 ; 2747926.271260254 ; 2.0097471911485004E8 ; 2.2190708492174953E8 ; 1.5042996683126852E10 ; 0.0
84 ; 2745565.193690177 ; 2.0098057467553946E8 ; 2.246550111930098E8 ; 1.5243971402241703E10 ; 0.0
85 ; 2743382.7827606723 ; 2.0098644761924988E8 ; 2.2740057638669997E8 ; 1.5444951976917242E10 ; 0.0
86 ; 2744785.5977472165 ; 2.009923370620669E8 ; 2.3014395916946065E8 ; 1.5645938424536491E10 ; 0.0
87 ; 2744350.8850394124 ; 2.009982421436781E8 ; 2.3288874476720786E8 ; 1.5846930761598558E10 ; 0.0
88 ; 2743074.497518633 ; 2.0100416202661592E8 ; 2.3563309565224728E8 ; 1.6047929003742237E10 ; 0.0
89 ; 2743157.418201261 ; 2.0101009589552093E8 ; 2.383761701497659E8 ; 1.6248933165768852E10 ; 0.0
90 ; 2742234.848806828 ; 2.0101604295642567E8 ; 2.4111932756796718E8 ; 1.6449943261664373E10 ; 0.0
91 ; 2740875.850877357 ; 2.010220024360588E8 ; 2.43861562416774E8 ; 1.66509593046208E10 ; 0.0
92 ; 2738708.6110163727 ; 2.0102797358116955E8 ; 2.4660243826765135E8 ; 1.6851981307056858E10 ; 0.0
93 ; 2738811.424201654 ; 2.0103395565787262E8 ; 2.493411468786677E8 ; 1.7053009280638027E10 ; 0.0
94 ; 2737652.0244492805 ; 2.0103994795101288E8 ; 2.5207995830286938E8 ; 1.72540432362959E10 ; 0.0
95 ; 2737388.3212354775 ; 2.0104594976354966E8 ; 2.5481761032731867E8 ; 1.745508318424691E10 ; 0.0
96 ; 2735465.13144818 ; 2.0105196041596073E8 ; 2.5755499864855415E8 ; 1.765612913401046E10 ; 0.0
97 ; 2735387.0543914987 ; 2.010579792456652E8 ; 2.6029046378000233E8 ; 1.7857181094426422E10 ; 0.0
98 ; 2734706.894128157 ; 2.0106400560646516E8 ; 2.6302585083439383E8 ; 1.805823907367209E10 ; 0.0
99 ; 2733102.9035163177 ; 2.0107003886800554E8 ; 2.6576055772852197E8 ; 1.8259303079278553E10 ; 0.0
100 ; 2732126.3993394407 ; 2.0107607841525203E8 ; 2.684936606320383E8 ; 1.8460373118146557E10 ; 0.0
101 ; 2730088.1121937544 ; 2.010821236479863E8 ; 2.7122578703137773E8 ; 1.866144919656181E10 ; 0.0
102 ; 2729872.766480237 ; 2.0108817398031843E8 ; 2.739558751435715E8 ; 1.8862531320209797E10 ; 0.0
103 ; 2729067.554718166 ; 2.0109422884021574E8 ; 2.766857479100517E8 ; 1.9063619494190117E10 ; 0.0
104 ; 2727381.608341306 ; 2.0110028766904795E8 ; 2.7941481546476984E8 ; 1.9264713723030334E10 ; 0.0
105 ; 2725003.4618040505 ; 2.0110634992114782E8 ; 2.821421970731111E8 ; 1.9465814010699383E10 ; 0.0
106 ; 2724369.97097381 ; 2.0111241506338724E8 ; 2.8486720053491515E8 ; 1.966692036062053E10 ; 0.0
107 ; 2723767.6228301483 ; 2.011184825747679E8 ; 2.8759157050588894E8 ; 1.9868032775683918E10 ; 0.0
108 ; 2722012.4087457936 ; 2.0112455194602624E8 ; 2.903153381287191E8 ; 2.0069151258258686E10 ; 0.0
109 ; 2719989.1947514936 ; 2.011306226792527E8 ; 2.9303735053746486E8 ; 2.0270275810204712E10 ; 0.0
110 ; 2719396.6517559187 ; 2.0113669428752378E8 ; 2.9575733973221636E8 ; 2.0471406432883965E10 ; 0.0
111 ; 2717221.113371368 ; 2.0114276629454762E8 ; 2.984767363839723E8 ; 2.067254312717149E10 ; 0.0
112 ; 2715553.6966458433 ; 2.0114883823432183E8 ; 3.0119395749734366E8 ; 2.0873685893466038E10 ; 0.0
113 ; 2715765.237389875 ; 2.0115490965080377E8 ; 3.039095111939895E8 ; 2.107483473170036E10 ; 0.0
114 ; 2712364.1999560525 ; 2.0116098009759218E8 ; 3.066252764313794E8 ; 2.1275989641351162E10 ; 0.0
115 ; 2710417.2187831537 ; 2.0116704913762057E8 ; 3.0933764063133544E8 ; 2.1477150621448753E10 ; 0.0
116 ; 2710123.9722829275 ; 2.0117311634286132E8 ; 3.120480578501186E8 ; 2.1678317670586372E10 ; 0.0
117 ; 2708072.985510769 ; 2.0117918129404044E8 ; 3.147581818224015E8 ; 2.1879490786929234E10 ; 0.0
118 ; 2706935.9375569047 ; 2.011852435803625E8 ; 3.174662548079123E8 ; 2.2080669968223274E10 ; 0.0
119 ; 2704255.2937201546 ; 2.0119130279924542E8 ; 3.201731907454692E8 ; 2.228185521180364E10 ; 0.0
120 ; 2703120.0337230647 ; 2.0119735855606472E8 ; 3.2287744603918934E8 ; 2.2483046514602882E10 ; 0.0
121 ; 2702707.543887457 ; 2.0120341046390715E8 ; 3.255805660729124E8 ; 2.2684243873158947E10 ; 0.0
122 ; 2700429.6430972386 ; 2.012094581433327E8 ; 3.2828327361679983E8 ; 2.2885447283622852E10 ; 0.0
123 ; 2699217.794566287 ; 2.012155012221455E8 ; 3.3098370325989705E8 ; 2.3086656741766186E10 ; 0.0
124 ; 2697773.838861709 ; 2.0122153933517295E8 ; 3.336829210544633E8 ; 2.328787224298833E10 ; 0.0
125 ; 2694921.325763045 ; 2.012275721240523E8 ; 3.3638069489332503E8 ; 2.3489093782323505E10 ; 0.0
126 ; 2694219.1682158187 ; 2.0123359923702538E8 ; 3.390756162190881E8 ; 2.369032135444756E10 ; 0.0
127 ; 2692536.2223022017 ; 2.0123962032874042E8 ; 3.417698353873039E8 ; 2.3891554953684586E10 ; 0.0
128 ; 2689780.1254921886 ; 2.0124563506006074E8 ; 3.444623716096061E8 ; 2.4092794574013325E10 ; 0.0
129 ; 2687946.1324824723 ; 2.012516430978807E8 ; 3.471521517350983E8 ; 2.4294040209073387E10 ; 0.0
130 ; 2684401.0321650947 ; 2.0125764411494777E8 ; 3.498400978675808E8 ; 2.449529185217127E10 ; 0.0
131 ; 2683046.6737396903 ; 2.0126363778969118E8 ; 3.525244988997459E8 ; 2.4696549496286217E10 ; 0.0
132 ; 2679433.2514809896 ; 2.0126962380605653E8 ; 3.5520754557348555E8 ; 2.489781313407591E10 ; 0.0
133 ; 2676864.3861860875 ; 2.0127560185334623E8 ; 3.5788697882496655E8 ; 2.5099082757881966E10 ; 0.0
134 ; 2675075.2024867446 ; 2.012815716260657E8 ; 3.605638432111526E8 ; 2.5300358359735313E10 ; 0.0
135 ; 2672045.789477878 ; 2.012875328237749E8 ; 3.6323891841363937E8 ; 2.5501639931361378E10 ; 0.0
136 ; 2669675.1321684597 ; 2.0129348515094504E8 ; 3.6591096420311725E8 ; 2.5702927464185154E10 ; 0.0
137 ; 2667970.215126333 ; 2.012994283168204E8 ; 3.685806393352857E8 ; 2.5904220949336098E10 ; 0.0
138 ; 2664522.281359114 ; 2.0130536203528515E8 ; 3.7124860955041206E8 ; 2.610552037765292E10 ; 0.0
139 ; 2660651.254687362 ; 2.013112860247343E8 ; 3.739131318317712E8 ; 2.6306825739688206E10 ; 0.0
140 ; 2659218.2574301623 ; 2.0131720000794983E8 ; 3.7657378308645856E8 ; 2.650813702571294E10 ; 0.0
141 ; 2655940.3029585904 ; 2.013231037119807E8 ; 3.792330013438887E8 ; 2.670945422572089E10 ; 0.0
142 ; 2653491.014179885 ; 2.0132899686802706E8 ; 3.818889416468473E8 ; 2.691077732943287E10 ; 0.0
143 ; 2650971.568657135 ; 2.013348792113287E8 ; 3.845424326610272E8 ; 2.7112106326300896E10 ; 0.0
144 ; 2647258.5631185956 ; 2.0134075048105702E8 ; 3.8719340422968435E8 ; 2.7313441205512226E10 ; 0.0
145 ; 2644544.2767177275 ; 2.0134661042021114E8 ; 3.8984066279280293E8 ; 2.7514781955993282E10 ; 0.0
146 ; 2643118.8181834994 ; 2.013524587755172E8 ; 3.9248520706952065E8 ; 2.7716128566413494E10 ; 0.0
147 ; 2641577.3463297617 ; 2.013582952973313E8 ; 3.9512832588770413E8 ; 2.791748102518901E10 ; 0.0
148 ; 2638703.0986631485 ; 2.0136411973954573E8 ; 3.977699032340339E8 ; 2.8118839320486343E10 ; 0.0
149 ; 2636321.367100182 ; 2.013699318594985E8 ; 4.0040860633269703E8 ; 2.8320203440225887E10 ; 0.0
150 ; 2635340.8296727003 ; 2.0137573141788575E8 ; 4.030449276997972E8 ; 2.8521573372085384E10 ; 0.0
151 ; 2632318.1060380405 ; 2.0138151817867726E8 ; 4.056802685294699E8 ; 2.872294910350327E10 ; 0.0
152 ; 2633003.061172319 ; 2.013872919090349E8 ; 4.0831258663550794E8 ; 2.8924330621681946E10 ; 0.0
153 ; 2628195.5602862057 ; 2.013930523792337E8 ; 4.1094558969668025E8 ; 2.912571791359098E10 ; 0.0
154 ; 2627440.6660392564 ; 2.0139879936258548E8 ; 4.135737852569665E8 ; 2.9327110965970215E10 ; 0.0
155 ; 2624848.7669454003 ; 2.0140453263536543E8 ; 4.162012259230057E8 ; 2.95285097653328E10 ; 0.0
156 ; 2621573.960820125 ; 2.0141025197674078E8 ; 4.188260746899511E8 ; 2.9729914297968166E10 ; 0.0
157 ; 2622388.1901410334 ; 2.0141595716870198E8 ; 4.2144764865077126E8 ; 2.993132454994491E10 ; 0.0
158 ; 2619693.819309201 ; 2.014216479959962E8 ; 4.240700368409123E8 ; 3.013274050711361E10 ; 0.0
159 ; 2615970.237067965 ; 2.0142732424606308E8 ; 4.2668973066022146E8 ; 3.0334162155109604E10 ; 0.0
160 ; 2613786.0216895486 ; 2.0143298570897245E8 ; 4.293057008972894E8 ; 3.0535589479355667E10 ; 0.0
161 ; 2613434.3656590856 ; 2.0143863217736432E8 ; 4.319194869189789E8 ; 3.073702246506464E10 ; 0.0
162 ; 2611134.4433481703 ; 2.0144426344639066E8 ; 4.34532921284638E8 ; 3.0938461097242004E10 ; 0.0
163 ; 2608952.0245246487 ; 2.0144987931365922E8 ; 4.3714405572798616E8 ; 3.1139905360688396E10 ; 0.0
164 ; 2606262.1836710135 ; 2.014554795791791E8 ; 4.397530077525108E8 ; 3.1341355240002056E10 ; 0.0
165 ; 2603143.8617891762 ; 2.014610640453083E8 ; 4.423592699361818E8 ; 3.1542810719581234E10 ; 0.0
166 ; 2600932.90014533 ; 2.0146663251670262E8 ; 4.4496241379797095E8 ; 3.174427178362654E10 ; 0.0
167 ; 2599219.161009293 ; 2.014721848002666E8 ; 4.475633466981163E8 ; 3.194573841614324E10 ; 0.0
168 ; 2597876.5806590547 ; 2.014777207051058E8 ; 4.501625658591256E8 ; 3.214721060094351E10 ; 0.0
169 ; 2595573.0316206287 ; 2.0148324004248086E8 ; 4.5276044243978465E8 ; 3.2348688321648613E10 ; 0.0
170 ; 2592429.4787224424 ; 2.0148874262576258E8 ; 4.5535601547140527E8 ; 3.2550171561691093E10 ; 0.0
171 ; 2591440.6027110443 ; 2.014942282703892E8 ; 4.579484449501277E8 ; 3.2751660304316856E10 ; 0.0
172 ; 2588777.7733218647 ; 2.0149969679382426E8 ; 4.6053988555283874E8 ; 3.2953154532587246E10 ; 0.0
173 ; 2587583.4084836906 ; 2.0150514801551634E8 ; 4.631286633261606E8 ; 3.315465422938107E10 ; 0.0
174 ; 2585603.295072316 ; 2.015105817568598E8 ; 4.657162467346443E8 ; 3.3356159377396587E10 ; 0.0
175 ; 2585130.6621080586 ; 2.015159978411571E8 ; 4.683018500297166E8 ; 3.3557669959153446E10 ; 0.0
176 ; 2583896.5095511912 ; 2.0152139609358186E8 ; 4.708869806918247E8 ; 3.3759185956994602E10 ; 0.0
177 ; 2582431.7919606147 ; 2.0152677634114343E8 ; 4.7347087720137584E8 ; 3.3960707353088184E10 ; 0.0
178 ; 2579591.9311317503 ; 2.015321384126525E8 ; 4.7605330899333644E8 ; 3.416223412942933E10 ; 0.0
179 ; 2577602.480226031 ; 2.0153748213868782E8 ; 4.7863290092446816E8 ; 3.436376626784198E10 ; 0.0
180 ; 2578744.6290316996 ; 2.0154280735156384E8 ; 4.812105034046942E8 ; 3.456530374998067E10 ; 0.0
181 ; 2576535.6961958343 ; 2.015481138852995E8 ; 4.837892480337259E8 ; 3.476684655733223E10 ; 0.0
182 ; 2576073.6503046514 ; 2.0155340157558796E8 ; 4.8636578372992176E8 ; 3.496839467121753E10 ; 0.0
183 ; 2574198.082509457 ; 2.0155867025976726E8 ; 4.8894185738022643E8 ; 3.516994807279311E10 ; 0.0
184 ; 2573093.5770360325 ; 2.015639197767919E8 ; 4.915160554627359E8 ; 3.537150674305288E10 ; 0.0
185 ; 2570780.5114502627 ; 2.015691499672053E8 ; 4.940891490397719E8 ; 3.557307066282967E10 ; 0.0
186 ; 2569919.2423090073 ; 2.015743606731131E8 ; 4.966599295512222E8 ; 3.577463981279688E10 ; 0.0
187 ; 2567899.4172893856 ; 2.0157955173815745E8 ; 4.9922984879353124E8 ; 3.597621417346999E10 ; 0.0
188 ; 2567688.38741028 ; 2.015847230074918E8 ; 5.017977482108206E8 ; 3.617779372520815E10 ; 0.0
189 ; 2565381.503992066 ; 2.0158987432775664E8 ; 5.043654365982309E8 ; 3.6379378448215645E10 ; 0.0
190 ; 2565466.774922188 ; 2.0159500554705602E8 ; 5.06930818102223E8 ; 3.65809683225434E10 ; 0.0
191 ; 2563746.3066758565 ; 2.0160011651493475E8 ; 5.094962848771452E8 ; 3.678256332809046E10 ; 0.0
192 ; 2562101.6811686796 ; 2.0160520708235627E8 ; 5.12060031183821E8 ; 3.69841634446054E10 ; 0.0
193 ; 2560138.7205345384 ; 2.0161027710168114E8 ; 5.146221328649897E8 ; 3.718576865168776E10 ; 0.0
194 ; 2560183.641341972 ; 2.016153264266464E8 ; 5.1718227158552426E8 ; 3.7387378928789444E10 ; 0.0
195 ; 2558384.2054726323 ; 2.0162035491234538E8 ; 5.1974245522686625E8 ; 3.758899425521609E10 ; 0.0
196 ; 2558682.740276735 ; 2.0162536241520804E8 ; 5.223008394323389E8 ; 3.779061461012843E10 ; 0.0
197 ; 2555202.986644679 ; 2.016303487929822E8 ; 5.2485952217261565E8 ; 3.799223997254364E10 ; 0.0
198 ; 2553602.1822850285 ; 2.0163531390471503E8 ; 5.2741472515926033E8 ; 3.8193870321336624E10 ; 0.0
199 ; 2552307.593923791 ; 2.0164025761073545E8 ; 5.2996832734154534E8 ; 3.839550563524134E10 ; 0.0
