CSV File for the City 4 on Day 190
1 - Minute m 
2 - Power Consumed at minute m 
3 - Power Produced at minute m 
4 - Energy Consumed since the beginning of the day 
5 - Energy Produced since the beginning of the day 
6 - Energy Lost since the beginning of the day on lines starting from the city
 
0 ; 1011257.0031816663 ; 1.0595183155766949E8 ; 0.0 ; 0.0 ; 0.0
1 ; 1016626.1621062583 ; 1.0610211613914436E8 ; 1011257.0031816663 ; 1.0595183155766949E8 ; 0.0
2 ; 1021707.3177945153 ; 1.0656144910782638E8 ; 2027883.1652879245 ; 2.1205394769681385E8 ; 0.0
3 ; 1032073.8950072493 ; 1.0732983641895717E8 ; 3049590.4830824398 ; 3.1861539680464023E8 ; 0.0
4 ; 1044092.3137408269 ; 1.0840728344320989E8 ; 4081664.378089689 ; 4.259452332235974E8 ; 0.0
5 ; 1056011.265938001 ; 1.0979379492576307E8 ; 5125756.691830516 ; 5.343525166668073E8 ; 0.0
6 ; 1071205.4844346514 ; 1.1148937494916114E8 ; 6181767.957768517 ; 6.441463115925703E8 ; 0.0
7 ; 1100236.7132423825 ; 1.1349402690062094E8 ; 7252973.442203168 ; 7.556356865417315E8 ; 0.0
8 ; 1129751.995231805 ; 1.1580775344438344E8 ; 8353210.155445551 ; 8.691297134423524E8 ; 0.0
9 ; 1177263.4087430853 ; 1.1843055649963224E8 ; 9482962.150677355 ; 9.849374668867359E8 ; 0.0
10 ; 1258475.8544964192 ; 1.2136243722440404E8 ; 1.066022555942044E7 ; 1.1033680233863683E9 ; 0.0
11 ; 1380189.0107526714 ; 1.246033960058051E8 ; 1.191870141391686E7 ; 1.2247304606107724E9 ; 0.0
12 ; 1582793.9248557452 ; 1.2815343245672914E8 ; 1.329889042466953E7 ; 1.3493338566165774E9 ; 0.0
13 ; 1769488.918243429 ; 1.3201254541913944E8 ; 1.4881684349525275E7 ; 1.4774872890733066E9 ; 0.0
14 ; 1794745.3915889505 ; 1.3618073297385252E8 ; 1.6651173267768703E7 ; 1.609499834492446E9 ; 0.0
15 ; 1803293.9838934129 ; 1.4065799245662725E8 ; 1.8445918659357652E7 ; 1.7456805674662986E9 ; 0.0
16 ; 1812568.2623974204 ; 1.4544432048024693E8 ; 2.0249212643251065E7 ; 1.886338559922926E9 ; 0.0
17 ; 1823625.0935628943 ; 1.5053971296216705E8 ; 2.2061780905648485E7 ; 2.031782880403173E9 ; 0.0
18 ; 1830435.9282301401 ; 1.559441651572091E8 ; 2.388540599921138E7 ; 2.18232259336534E9 ; 0.0
19 ; 1838597.5773792276 ; 1.616576716946999E8 ; 2.571584192744152E7 ; 2.338266758522549E9 ; 0.0
20 ; 1849846.510100353 ; 1.6768022661939785E8 ; 2.7554439504820745E7 ; 2.499924430217249E9 ; 0.0
21 ; 1859167.197236035 ; 1.7401182343550894E8 ; 2.94042860149211E7 ; 2.6676046568366466E9 ; 0.0
22 ; 1868069.956623317 ; 1.8065245515307426E8 ; 3.1263453212157134E7 ; 2.8416164802721553E9 ; 0.0
23 ; 1877150.3398167158 ; 1.8760211433601475E8 ; 3.313152316878045E7 ; 3.0222689354252295E9 ; 0.0
24 ; 1889296.790782547 ; 1.9486079315113324E8 ; 3.5008673508597165E7 ; 3.2098710497612443E9 ; 0.0
25 ; 1897419.136979585 ; 2.0111652431559598E8 ; 3.6897970299379714E7 ; 3.4047318429123774E9 ; 0.0
26 ; 1903802.2995758057 ; 2.0112284718280298E8 ; 3.87953894363593E7 ; 3.6058483672279735E9 ; 0.0
27 ; 1917132.6073541644 ; 2.0112952231538618E8 ; 4.069919173593511E7 ; 3.8069712144107766E9 ; 0.0
28 ; 1922943.77274686 ; 2.0113654077870065E8 ; 4.261632434328927E7 ; 4.008100736726163E9 ; 0.0
29 ; 1933480.3278627782 ; 2.0114389347898924E8 ; 4.453926811603613E7 ; 4.2092372775048637E9 ; 0.0
30 ; 1943713.6655294807 ; 2.0115157120614862E8 ; 4.647274844389891E7 ; 4.410381170983853E9 ; 0.0
31 ; 1950727.5773973458 ; 2.0115956467406046E8 ; 4.841646210942839E7 ; 4.611532742190002E9 ; 0.0
32 ; 1962107.4142828174 ; 2.011678645582742E8 ; 5.036718968682574E7 ; 4.812692306864063E9 ; 0.0
33 ; 1968550.2384890632 ; 2.0117646153089324E8 ; 5.232929710110855E7 ; 5.013860171422338E9 ; 0.0
34 ; 1979477.8475055227 ; 2.0118534629257515E8 ; 5.429784733959761E7 ; 5.215036632953231E9 ; 0.0
35 ; 1985276.022482479 ; 2.0119450960161203E8 ; 5.627732518710314E7 ; 5.416221979245806E9 ; 0.0
36 ; 1995328.9934308457 ; 2.0120394230010143E8 ; 5.8262601209585615E7 ; 5.617416488847418E9 ; 0.0
37 ; 1999752.3370608208 ; 2.012136353372613E8 ; 6.025793020301646E7 ; 5.818620431147519E9 ; 0.0
38 ; 2008053.364403505 ; 2.0122357978997403E8 ; 6.2257682540077284E7 ; 6.01983406648478E9 ; 0.0
39 ; 2011721.3742278544 ; 2.0123376688067296E8 ; 6.426573590448079E7 ; 6.221057646274755E9 ; 0.0
40 ; 2020938.7890788254 ; 2.012441879927048E8 ; 6.6277457278708644E7 ; 6.422291413155428E9 ; 0.0
41 ; 2029864.2804271467 ; 2.0125483468331805E8 ; 6.829839606778747E7 ; 6.623535601148132E9 ; 0.0
42 ; 2034672.3349963601 ; 2.0126569869443676E8 ; 7.032826034821461E7 ; 6.82479043583145E9 ; 0.0
43 ; 2042585.6296090297 ; 2.0127677196138597E8 ; 7.236293268321097E7 ; 7.0260561345258875E9 ; 0.0
44 ; 2043295.1082689604 ; 2.0128804661973742E8 ; 7.440551831282E7 ; 7.227332906487273E9 ; 0.0
45 ; 2054002.368671494 ; 2.0129951501044276E8 ; 7.644881342108896E7 ; 7.428620953107011E9 ; 0.0
46 ; 2056720.506367848 ; 2.0131116968341908E8 ; 7.850281578976046E7 ; 7.629920468117454E9 ; 0.0
47 ; 2062534.9827333295 ; 2.0132300339974546E8 ; 8.05595362961283E7 ; 7.831231637800873E9 ; 0.0
48 ; 2067815.1251407315 ; 2.013350091326227E8 ; 8.262207127886163E7 ; 8.032554641200619E9 ; 0.0
49 ; 2071638.3629561414 ; 2.013471800672399E8 ; 8.468988640400235E7 ; 8.233889650333241E9 ; 0.0
50 ; 2076242.7511269478 ; 2.013595095996836E8 ; 8.676152476695849E7 ; 8.435236830400481E9 ; 0.0
51 ; 2078162.9162887586 ; 2.0137199133501405E8 ; 8.883776751808544E7 ; 8.636596340000164E9 ; 0.0
52 ; 2081299.942135934 ; 2.0138461908462557E8 ; 9.09159304343742E7 ; 8.837968331335178E9 ; 0.0
53 ; 2083389.8175825074 ; 2.013973868629975E8 ; 9.299723037651013E7 ; 9.039352950419804E9 ; 0.0
54 ; 2087072.6447197306 ; 2.0141028888393196E8 ; 9.508062019409263E7 ; 9.2407503372828E9 ; 0.0
55 ; 2090006.2005253448 ; 2.014233195563672E8 ; 9.716769283881237E7 ; 9.442160626166733E9 ; 0.0
56 ; 2094778.0761378405 ; 2.0143647347984517E8 ; 9.925769903933771E7 ; 9.6435839457231E9 ; 0.0
57 ; 2096469.086784928 ; 2.0144974543970445E8 ; 1.0135247711547555E8 ; 9.845020419202946E9 ; 0.0
58 ; 2098063.5845120978 ; 2.0146313040206143E8 ; 1.0344894620226048E8 ; 1.004647016464265E10 ; 0.0
59 ; 2105352.522060422 ; 2.014766235086354E8 ; 1.0554700978677258E8 ; 1.0247933295044712E10 ; 0.0
60 ; 2107023.6889344477 ; 2.0149022007146722E8 ; 1.07652362308833E8 ; 1.0449409918553347E10 ; 0.0
61 ; 2112475.734896538 ; 2.0150391556757373E8 ; 1.0975938599776745E8 ; 1.0650900138624813E10 ; 0.0
62 ; 2115685.6548413076 ; 2.0151770563357595E8 ; 1.1187186173266399E8 ; 1.0852404054192387E10 ; 0.0
63 ; 2116493.128473926 ; 2.0153158606033263E8 ; 1.139875473875053E8 ; 1.1053921759825962E10 ; 0.0
64 ; 2119623.402311519 ; 2.0154555278760713E8 ; 1.1610404051597922E8 ; 1.1255453345886295E10 ; 0.0
65 ; 2121906.911706141 ; 2.0155960189879113E8 ; 1.1822366391829073E8 ; 1.1456998898673903E10 ; 0.0
66 ; 2124845.790674047 ; 2.015737296157042E8 ; 1.2034557082999687E8 ; 1.1658558500572693E10 ; 0.0
67 ; 2124884.7406267114 ; 2.0158793229348662E8 ; 1.2247041662067091E8 ; 1.1860132230188396E10 ; 0.0
68 ; 2128027.7093939013 ; 2.016022064155979E8 ; 1.2459530136129762E8 ; 1.2061720162481884E10 ; 0.0
69 ; 2132713.270794153 ; 2.0161654858893248E8 ; 1.2672332907069153E8 ; 1.2263322368897482E10 ; 0.0
70 ; 2135959.7184621673 ; 2.0163095553906113E8 ; 1.2885604234148568E8 ; 1.2464938917486414E10 ; 0.0
71 ; 2137179.060505707 ; 2.01645424105604E8 ; 1.3099200205994785E8 ; 1.2666569873025475E10 ; 0.0
72 ; 2139560.4967898033 ; 2.0165995123774114E8 ; 1.3312918112045355E8 ; 1.2868215297131079E10 ; 0.0
73 ; 2143059.330127026 ; 2.0167453398986268E8 ; 1.3526874161724335E8 ; 1.306987524836882E10 ; 0.0
74 ; 2144668.86102601 ; 2.0168916951736158E8 ; 1.3741180094737038E8 ; 1.3271549782358683E10 ; 0.0
75 ; 2147502.7177006784 ; 2.017038550725693E8 ; 1.395564698083964E8 ; 1.3473238951876043E10 ; 0.0
76 ; 2148967.8875229345 ; 2.0171858800083447E8 ; 1.417039725260971E8 ; 1.3674942806948612E10 ; 0.0
77 ; 2151489.8975216113 ; 2.017333657367435E8 ; 1.4385294041362002E8 ; 1.3876661394949448E10 ; 0.0
78 ; 2150433.4893486965 ; 2.017481858004821E8 ; 1.4600443031114164E8 ; 1.4078394760686192E10 ; 0.0
79 ; 2149222.7875925824 ; 2.0176304579433474E8 ; 1.4815486380049035E8 ; 1.4280142946486673E10 ; 0.0
80 ; 2147880.9513204647 ; 2.017779433993202E8 ; 1.5030408658808294E8 ; 1.4481905992281008E10 ; 0.0
81 ; 2152176.581666761 ; 2.017928763719599E8 ; 1.524519675394034E8 ; 1.4683683935680328E10 ; 0.0
82 ; 2150389.183452367 ; 2.0180784254117584E8 ; 1.5460414412107018E8 ; 1.4885476812052288E10 ; 0.0
83 ; 2148202.0462580593 ; 2.0182283980531433E8 ; 1.5675453330452254E8 ; 1.5087284654593464E10 ; 0.0
84 ; 2147849.112067788 ; 2.0183786612929258E8 ; 1.589027353507806E8 ; 1.5289107494398779E10 ; 0.0
85 ; 2148533.949186792 ; 2.018529195418634E8 ; 1.610505844628484E8 ; 1.5490945360528072E10 ; 0.0
86 ; 2149545.4484406505 ; 2.0186799813299516E8 ; 1.631991184120352E8 ; 1.5692798280069935E10 ; 0.0
87 ; 2144920.1581923934 ; 2.0188310005136192E8 ; 1.6534866386047584E8 ; 1.589466627820293E10 ; 0.0
88 ; 2146880.3633627463 ; 2.0189822350194106E8 ; 1.6749358401866823E8 ; 1.6096549378254292E10 ; 0.0
89 ; 2144458.4104048386 ; 2.0191336674371332E8 ; 1.69640464382031E8 ; 1.6298447601756233E10 ; 0.0
90 ; 2144093.110854169 ; 2.0192852808746225E8 ; 1.7178492279243582E8 ; 1.6500360968499947E10 ; 0.0
91 ; 2145420.025567589 ; 2.0194370589366865E8 ; 1.7392901590329E8 ; 1.6702289496587408E10 ; 0.0
92 ; 2141819.681674072 ; 2.019588985704966E8 ; 1.760744359288576E8 ; 1.6904233202481077E10 ; 0.0
93 ; 2140266.4550542342 ; 2.0197410457186696E8 ; 1.7821625561053166E8 ; 1.7106192101051575E10 ; 0.0
94 ; 2140614.9027301786 ; 2.019893223956155E8 ; 1.8035652206558588E8 ; 1.730816620562344E10 ; 0.0
95 ; 2141726.5561214453 ; 2.0200455058173093E8 ; 1.8249713696831605E8 ; 1.7510155528019054E10 ; 0.0
96 ; 2137134.3127137637 ; 2.0201978771067098E8 ; 1.846388635244375E8 ; 1.7712160078600784E10 ; 0.0
97 ; 2134035.384599356 ; 2.0203503240175164E8 ; 1.8677599783715126E8 ; 1.7914179866311455E10 ; 0.0
98 ; 2138053.4221089096 ; 2.020502833116076E8 ; 1.8891003322175062E8 ; 1.8116214898713207E10 ; 0.0
99 ; 2136677.1409929204 ; 2.0206553913272008E8 ; 1.9104808664385954E8 ; 1.8318265182024815E10 ; 0.0
100 ; 2132282.882998743 ; 2.020807985920095E8 ; 1.9318476378485245E8 ; 1.8520330721157536E10 ; 0.0
101 ; 2134070.2251968407 ; 2.0209606044948986E8 ; 1.9531704666785118E8 ; 1.8722411519749546E10 ; 0.0
102 ; 2130801.4393961485 ; 2.0211132349698198E8 ; 1.9745111689304802E8 ; 1.8924507580199036E10 ; 0.0
103 ; 2129871.163287594 ; 2.0212658655688357E8 ; 1.9958191833244416E8 ; 1.912661890369602E10 ; 0.0
104 ; 2129152.5731792506 ; 2.0214184848099282E8 ; 2.0171178949573174E8 ; 1.9328745490252903E10 ; 0.0
105 ; 2125848.0294479197 ; 2.021571081493836E8 ; 2.03840942068911E8 ; 1.9530887338733894E10 ; 0.0
106 ; 2123949.300523127 ; 2.0217236446932963E8 ; 2.059667900983589E8 ; 1.9733044446883278E10 ; 0.0
107 ; 2123387.8896742263 ; 2.0218761637427562E8 ; 2.0809073939888203E8 ; 1.9935216811352608E10 ; 0.0
108 ; 2121599.868634093 ; 2.022028628228533E8 ; 2.1021412728855625E8 ; 2.0137404427726883E10 ; 0.0
109 ; 2118218.313471442 ; 2.022181027979398E8 ; 2.1233572715719035E8 ; 2.0339607290549736E10 ; 0.0
110 ; 2117009.959942659 ; 2.0223333530575716E8 ; 2.144539454706618E8 ; 2.0541825393347675E10 ; 0.0
111 ; 2115314.1295269015 ; 2.0224855937501052E8 ; 2.1657095543060446E8 ; 2.074405872865343E10 ; 0.0
112 ; 2113566.686837929 ; 2.022637740560634E8 ; 2.1868626956013137E8 ; 2.0946307288028442E10 ; 0.0
113 ; 2111373.9009014755 ; 2.0227897842014873E8 ; 2.207998362469693E8 ; 2.1148571062084507E10 ; 0.0
114 ; 2109809.9552524015 ; 2.022941715586132E8 ; 2.2291121014787078E8 ; 2.1350850040504654E10 ; 0.0
115 ; 2109720.076182901 ; 2.0230935258219424E8 ; 2.250210201031232E8 ; 2.1553144212063267E10 ; 0.0
116 ; 2106230.9582429123 ; 2.023245206203276E8 ; 2.271307401793061E8 ; 2.1755453564645462E10 ; 0.0
117 ; 2102960.98199438 ; 2.0233967482048452E8 ; 2.29236971137549E8 ; 2.195777808526579E10 ; 0.0
118 ; 2099628.4199635778 ; 2.0235481434753665E8 ; 2.313399321195434E8 ; 2.2160117760086273E10 ; 0.0
119 ; 2097944.776182719 ; 2.0236993838314795E8 ; 2.3343956053950697E8 ; 2.236247257443381E10 ; 0.0
120 ; 2095582.023811368 ; 2.0238504612519214E8 ; 2.3553750531568968E8 ; 2.256484251281696E10 ; 0.0
121 ; 2094630.7226803668 ; 2.0240013678719446E8 ; 2.3763308733950105E8 ; 2.276722755894215E10 ; 0.0
122 ; 2090542.009533512 ; 2.024152095977967E8 ; 2.397277180621814E8 ; 2.2969627695729343E10 ; 0.0
123 ; 2087001.7050352828 ; 2.024302638002447E8 ; 2.4181826007171494E8 ; 2.317204290532714E10 ; 0.0
124 ; 2085685.4885170157 ; 2.0244529865189663E8 ; 2.439052617767502E8 ; 2.3374473169127384E10 ; 0.0
125 ; 2082200.2929230595 ; 2.024603134237522E8 ; 2.4599094726526722E8 ; 2.357691846777928E10 ; 0.0
126 ; 2080950.3977590546 ; 2.024753074000005E8 ; 2.480731475581903E8 ; 2.3779378781203033E10 ; 0.0
127 ; 2079575.9574775444 ; 2.0249027987758714E8 ; 2.5015409795594934E8 ; 2.3981854088603035E10 ; 0.0
128 ; 2074660.4541175822 ; 2.0250523016579828E8 ; 2.5223367391342688E8 ; 2.418434436848062E10 ; 0.0
129 ; 2072732.7133898453 ; 2.0252015758586216E8 ; 2.5430833436754447E8 ; 2.438684959864642E10 ; 0.0
130 ; 2067038.6394897045 ; 2.0253506147056654E8 ; 2.5638106708093432E8 ; 2.458936975623228E10 ; 0.0
131 ; 2064334.1641369103 ; 2.025499411638915E8 ; 2.5844810572042403E8 ; 2.4791904817702847E10 ; 0.0
132 ; 2056195.6230372756 ; 2.0256479602065715E8 ; 2.6051243988456094E8 ; 2.4994454758866737E10 ; 0.0
133 ; 2053526.4514496673 ; 2.0257962540618536E8 ; 2.6256863550759822E8 ; 2.5197019554887394E10 ; 0.0
134 ; 2047745.3335241366 ; 2.02594428695975E8 ; 2.6462216195904788E8 ; 2.539959918029358E10 ; 0.0
135 ; 2039932.1341026998 ; 2.0260920527539006E8 ; 2.6666990729257202E8 ; 2.5602193608989555E10 ; 0.0
136 ; 2034312.897807952 ; 2.0262395453936014E8 ; 2.687098394266747E8 ; 2.5804802814264946E10 ; 0.0
137 ; 2030973.084749647 ; 2.0263867589209267E8 ; 2.707441523244827E8 ; 2.6007426768804306E10 ; 0.0
138 ; 2024919.1584757138 ; 2.0265336874679658E8 ; 2.727751254092323E8 ; 2.62100654446964E10 ; 0.0
139 ; 2019782.112041678 ; 2.0266803252541658E8 ; 2.74800044567708E8 ; 2.6412718813443195E10 ; 0.0
140 ; 2011050.246547404 ; 2.0268266665837792E8 ; 2.7681982667974967E8 ; 2.6615386845968613E10 ; 0.0
141 ; 2009039.7410178077 ; 2.02697270584341E8 ; 2.7883087692629707E8 ; 2.681806951262699E10 ; 0.0
142 ; 2000936.9912239756 ; 2.027118437499655E8 ; 2.808399166673149E8 ; 2.702076678321133E10 ; 0.0
143 ; 1993460.4261531564 ; 2.027263856096835E8 ; 2.828408536585389E8 ; 2.7223478626961296E10 ; 0.0
144 ; 1986686.7370008493 ; 2.0274089562548155E8 ; 2.8483431408469206E8 ; 2.742620501257098E10 ; 0.0
145 ; 1986157.9935139008 ; 2.0275537326669055E8 ; 2.868210008216929E8 ; 2.762894590819646E10 ; 0.0
146 ; 1984133.353900741 ; 2.0276981800978428E8 ; 2.8880715881520677E8 ; 2.783170128146315E10 ; 0.0
147 ; 1979320.123038387 ; 2.0278422933818498E8 ; 2.907912921691075E8 ; 2.8034471099472935E10 ; 0.0
148 ; 1980143.4743294604 ; 2.027986067420767E8 ; 2.927706122921459E8 ; 2.823725532881112E10 ; 0.0
149 ; 1975035.7805861023 ; 2.028129497182254E8 ; 2.947507557664754E8 ; 2.8440053935553196E10 ; 0.0
150 ; 1972878.7992954224 ; 2.0282725776980585E8 ; 2.967257915470615E8 ; 2.864286688527142E10 ; 0.0
151 ; 1967399.9536806545 ; 2.028415304062352E8 ; 2.986986703463569E8 ; 2.8845694143041225E10 ; 0.0
152 ; 1963510.7735347159 ; 2.0285576714301226E8 ; 3.0066607030003756E8 ; 2.904853567344746E10 ; 0.0
153 ; 1960485.637084003 ; 2.028699675015634E8 ; 3.026295810735723E8 ; 2.9251391440590473E10 ; 0.0
154 ; 1958248.9224281812 ; 2.0288413100909346E8 ; 3.045900667106563E8 ; 2.9454261408092037E10 ; 0.0
155 ; 1956281.7417656756 ; 2.028982571984426E8 ; 3.065483156330845E8 ; 2.965714553910113E10 ; 0.0
156 ; 1954613.3794071788 ; 2.029123456079483E8 ; 3.0850459737485015E8 ; 2.9860043796299576E10 ; 0.0
157 ; 1949579.3064764708 ; 2.0292639578131223E8 ; 3.104592107542573E8 ; 3.0062956141907524E10 ; 0.0
158 ; 1948676.5233927611 ; 2.0294040726747206E8 ; 3.124087900607338E8 ; 3.0265882537688835E10 ; 0.0
159 ; 1941994.8117013676 ; 2.0295437962047818E8 ; 3.1435746658412653E8 ; 3.0468822944956306E10 ; 0.0
160 ; 1940207.6235396154 ; 2.029683123993743E8 ; 3.162994613958279E8 ; 3.0671777324576786E10 ; 0.0
161 ; 1937789.861098225 ; 2.0298220516808295E8 ; 3.182396690193675E8 ; 3.0874745636976162E10 ; 0.0
162 ; 1932511.7270809505 ; 2.029960574952947E8 ; 3.2017745888046575E8 ; 3.1077727842144245E10 ; 0.0
163 ; 1932086.9037645326 ; 2.0300986895436135E8 ; 3.221099706075467E8 ; 3.128072389963954E10 ; 0.0
164 ; 1925007.0090982625 ; 2.0302363912319335E8 ; 3.2404205751131123E8 ; 3.1483733768593903E10 ; 0.0
165 ; 1924997.5443023455 ; 2.0303736758416018E8 ; 3.259670645204095E8 ; 3.1686757407717094E10 ; 0.0
166 ; 1920148.2070840823 ; 2.0305105392399487E8 ; 3.2789206206471187E8 ; 3.1889794775301254E10 ; 0.0
167 ; 1919145.3712170864 ; 2.030646977337016E8 ; 3.298122102717959E8 ; 3.209284582922525E10 ; 0.0
168 ; 1913136.8727583415 ; 2.0307829860846645E8 ; 3.31731355643013E8 ; 3.229591052695895E10 ; 0.0
169 ; 1911635.6432715575 ; 2.030918561475716E8 ; 3.336444925157713E8 ; 3.2498988825567417E10 ; 0.0
170 ; 1906209.7742143136 ; 2.031053699543123E8 ; 3.355561281590429E8 ; 3.270208068171499E10 ; 0.0
171 ; 1904903.65004901 ; 2.0311883963591668E8 ; 3.374623379332572E8 ; 3.29051860516693E10 ; 0.0
172 ; 1901992.1403368474 ; 2.031322648034686E8 ; 3.3936724158330625E8 ; 3.3108304891305218E10 ; 0.0
173 ; 1897782.7782439752 ; 2.0314564507183295E8 ; 3.412692337236431E8 ; 3.3311437156108685E10 ; 0.0
174 ; 1895321.2125573468 ; 2.0315898005958357E8 ; 3.431670165018871E8 ; 3.351458280118052E10 ; 0.0
175 ; 1891894.1404124384 ; 2.031722693889337E8 ; 3.4506233771444446E8 ; 3.37177417812401E10 ; 0.0
176 ; 1892512.8085160668 ; 2.0318551268566886E8 ; 3.469542318548569E8 ; 3.3920914050629036E10 ; 0.0
177 ; 1888711.498386288 ; 2.0319870957908192E8 ; 3.48846744663373E8 ; 3.4124099563314705E10 ; 0.0
178 ; 1886188.7520885812 ; 2.032118597019104E8 ; 3.5073545616175926E8 ; 3.4327298272893787E10 ; 0.0
179 ; 1882351.3340081691 ; 2.032249626902761E8 ; 3.5262164491384786E8 ; 3.4530510132595695E10 ; 0.0
180 ; 1881866.8959174608 ; 2.0323801818362635E8 ; 3.54503996247856E8 ; 3.473373509528597E10 ; 0.0
181 ; 1880400.741529341 ; 2.0325102582467785E8 ; 3.563858631437735E8 ; 3.49369731134696E10 ; 0.0
182 ; 1874714.0403998105 ; 2.0326398525936186E8 ; 3.5826626388530284E8 ; 3.514022413929427E10 ; 0.0
183 ; 1874193.6889686526 ; 2.032768961367715E8 ; 3.6014097792570263E8 ; 3.5343488124553635E10 ; 0.0
184 ; 1869905.829290851 ; 2.0328975810911086E8 ; 3.620151716146713E8 ; 3.554676502069041E10 ; 0.0
185 ; 1870228.9986338052 ; 2.0330257083164567E8 ; 3.6388507744396216E8 ; 3.5750054778799515E10 ; 0.0
186 ; 1868130.09494895 ; 2.0331533396265575E8 ; 3.6575530644259596E8 ; 3.595335734963116E10 ; 0.0
187 ; 1866098.7463131242 ; 2.0332804716338894E8 ; 3.676234365375449E8 ; 3.615667268359381E10 ; 0.0
188 ; 1859333.6458091654 ; 2.0334071009801665E8 ; 3.69489535283858E8 ; 3.63600007307572E10 ; 0.0
189 ; 1857792.7455616195 ; 2.0335332243359092E8 ; 3.713488689296672E8 ; 3.656334144085522E10 ; 0.0
190 ; 1857907.9177094365 ; 2.0336588384000272E8 ; 3.732066616752288E8 ; 3.676669476328881E10 ; 0.0
191 ; 1853634.6179580858 ; 2.0337839398994184E8 ; 3.750645695929382E8 ; 3.6970060647128815E10 ; 0.0
192 ; 1849943.4202840652 ; 2.03390852558858E8 ; 3.7691820421089625E8 ; 3.717343904111876E10 ; 0.0
193 ; 1846904.2044685406 ; 2.0340325922492334E8 ; 3.7876814763118035E8 ; 3.737682989367762E10 ; 0.0
194 ; 1846643.277892782 ; 2.0341561366899595E8 ; 3.806150518356489E8 ; 3.758023315290254E10 ; 0.0
195 ; 1847314.7545834472 ; 2.034279155745848E8 ; 3.8246169511354166E8 ; 3.778364876657154E10 ; 0.0
196 ; 1843502.680097241 ; 2.0344016462781578E8 ; 3.843090098681251E8 ; 3.7987076682146126E10 ; 0.0
197 ; 1839522.9945690632 ; 2.0345236051739874E8 ; 3.861525125482223E8 ; 3.819051684677394E10 ; 0.0
198 ; 1838985.490246545 ; 2.0346450293459576E8 ; 3.8799203554279137E8 ; 3.8393969207291336E10 ; 0.0
199 ; 1836740.8294710768 ; 2.0347659157319036E8 ; 3.898310210330379E8 ; 3.859743371022593E10 ; 0.0
