CSV File for the City 6 on Day 192
1 - Minute m 
2 - Power Consumed at minute m 
3 - Power Produced at minute m 
4 - Energy Consumed since the beginning of the day 
5 - Energy Produced since the beginning of the day 
6 - Energy Lost since the beginning of the day on lines starting from the city
 
0 ; 1499635.861447513 ; 1.0585807247203043E8 ; 0.0 ; 0.0 ; 0.0
1 ; 1514273.8333587754 ; 1.0600867954792327E8 ; 1499635.861447513 ; 1.0585807247203043E8 ; 0.0
2 ; 1523622.403688899 ; 1.0646830181969014E8 ; 3013909.6948062885 ; 2.118667520199537E8 ; 0.0
3 ; 1539989.4542533194 ; 1.0723694499034822E8 ; 4537532.098495187 ; 3.1833505383964384E8 ; 0.0
4 ; 1553081.1681264162 ; 1.0831461420811862E8 ; 6077521.552748507 ; 4.2557199882999206E8 ; 0.0
5 ; 1577916.927787457 ; 1.0970131402558225E8 ; 7630602.720874923 ; 5.338866130381107E8 ; 0.0
6 ; 1601566.693434241 ; 1.1139704836253747E8 ; 9208519.64866238 ; 6.435879270636929E8 ; 0.0
7 ; 1639533.4463891324 ; 1.1340182047324502E8 ; 1.0810086342096621E7 ; 7.549849754262304E8 ; 0.0
8 ; 1691547.5078475373 ; 1.1571563291868615E8 ; 1.2449619788485754E7 ; 8.683867958994755E8 ; 0.0
9 ; 1774531.0063264002 ; 1.1833848754437989E8 ; 1.414116729633329E7 ; 9.841024288181616E8 ; 0.0
10 ; 1899897.4163927524 ; 1.2127038546420413E8 ; 1.591569830265969E7 ; 1.1024409163625414E9 ; 0.0
11 ; 2100534.611680714 ; 1.2451132705055276E8 ; 1.781559571905244E7 ; 1.2237113018267455E9 ; 0.0
12 ; 2414506.1690057707 ; 1.2806131193103185E8 ; 1.9916130330733154E7 ; 1.3482226288772984E9 ; 0.0
13 ; 2714331.3638767633 ; 1.3192033899176353E8 ; 2.2330636499738924E7 ; 1.4762839408083303E9 ; 0.0
14 ; 2757437.2710720766 ; 1.3608840638722885E8 ; 2.5044967863615688E7 ; 1.608204279800094E9 ; 0.0
15 ; 2771079.2653137236 ; 1.4056551155644643E8 ; 2.7802405134687766E7 ; 1.7442926861873226E9 ; 0.0
16 ; 2785733.75419226 ; 1.4535165124515566E8 ; 3.057348440000149E7 ; 1.8848581977437692E9 ; 0.0
17 ; 2802836.5050943964 ; 1.504468215335581E8 ; 3.3359218154193748E7 ; 2.0302098489889247E9 ; 0.0
18 ; 2816406.5570394383 ; 1.5585101786907285E8 ; 3.6162054659288146E7 ; 2.180656670522483E9 ; 0.0
19 ; 2834255.1043416033 ; 1.6156423510347882E8 ; 3.8978461216327585E7 ; 2.336507688391556E9 ; 0.0
20 ; 2848261.0803386527 ; 1.675864675337588E8 ; 4.181271632066919E7 ; 2.4980719234950347E9 ; 0.0
21 ; 2865211.440485142 ; 1.7391770894592336E8 ; 4.466097740100784E7 ; 2.6656583910287933E9 ; 0.0
22 ; 2883912.463879234 ; 1.8055795266107428E8 ; 4.752618884149298E7 ; 2.8395760999747167E9 ; 0.0
23 ; 2897348.1151307626 ; 1.8750719158297366E8 ; 5.0410101305372216E7 ; 3.020134052635791E9 ; 0.0
24 ; 2913117.020273861 ; 1.947654182464068E8 ; 5.3307449420502976E7 ; 3.2076412442187643E9 ; 0.0
25 ; 2926008.2912062206 ; 2.0102066576385176E8 ; 5.622056644077684E7 ; 3.402406662465171E9 ; 0.0
26 ; 2942473.072660037 ; 2.0102647391036436E8 ; 5.914657473198306E7 ; 3.6034273282290225E9 ; 0.0
27 ; 2958050.6943119895 ; 2.0103260369541866E8 ; 6.2089047804643095E7 ; 3.8044538021393867E9 ; 0.0
28 ; 2970040.1766075525 ; 2.010390466550791E8 ; 6.5047098498955086E7 ; 4.0054864058348055E9 ; 0.0
29 ; 2988788.559593049 ; 2.0104579418869627E8 ; 6.801713867556264E7 ; 4.2065254524898844E9 ; 0.0
30 ; 2999719.254853499 ; 2.010528376000725E8 ; 7.100592723515569E7 ; 4.40757124667858E9 ; 0.0
31 ; 3015422.4908554475 ; 2.0106016813608068E8 ; 7.400564649000919E7 ; 4.608624084278653E9 ; 0.0
32 ; 3030269.1786450683 ; 2.0106777702254495E8 ; 7.702106898086463E7 ; 4.809684252414734E9 ; 0.0
33 ; 3047286.249231895 ; 2.0107565549725878E8 ; 8.00513381595097E7 ; 5.010752029437279E9 ; 0.0
34 ; 3061720.7914456464 ; 2.010837948400753E8 ; 8.30986244087416E7 ; 5.211827684934538E9 ; 0.0
35 ; 3075818.5576864365 ; 2.0109218640005827E8 ; 8.616034520018724E7 ; 5.412911479774613E9 ; 0.0
36 ; 3085265.399081009 ; 2.0110082161972752E8 ; 8.923616375787367E7 ; 5.614003666174671E9 ; 0.0
37 ; 3096011.95909188 ; 2.0110969205647284E8 ; 9.232142915695468E7 ; 5.815104487794398E9 ; 0.0
38 ; 3113627.770511934 ; 2.0111878940123984E8 ; 9.541744111604656E7 ; 6.016214179850871E9 ; 0.0
39 ; 3128180.8964965483 ; 2.0112810549461818E8 ; 9.85310688865585E7 ; 6.2173329692521105E9 ; 0.0
40 ; 3135677.705584925 ; 2.0113763234047946E8 ; 1.0165924978305505E8 ; 6.418461074746729E9 ; 0.0
41 ; 3147393.517861047 ; 2.011473621173267E8 ; 1.0479492748863998E8 ; 6.619598707087209E9 ; 0.0
42 ; 3158710.0707445415 ; 2.0115728718752408E8 ; 1.0794232100650103E8 ; 6.8207460692045355E9 ; 0.0
43 ; 3168242.206322309 ; 2.0116740010458E8 ; 1.1110103107724558E8 ; 7.021903356392059E9 ; 0.0
44 ; 3175051.7835844634 ; 2.0117769361865678E8 ; 1.1426927328356789E8 ; 7.223070756496639E9 ; 0.0
45 ; 3184097.667144568 ; 2.011881606804774E8 ; 1.1744432506715235E8 ; 7.424248450115296E9 ; 0.0
46 ; 3194184.7881002678 ; 2.0119879444379452E8 ; 1.2062842273429692E8 ; 7.6254366107957735E9 ; 0.0
47 ; 3202951.1878626593 ; 2.0120958826657996E8 ; 1.2382260752239719E8 ; 7.826635405239568E9 ; 0.0
48 ; 3208495.417726796 ; 2.0122053571108523E8 ; 1.2702555871025985E8 ; 8.027844993506147E9 ; 0.0
49 ; 3217509.7589862817 ; 2.0123163054291338E8 ; 1.3023405412798665E8 ; 8.229065529217233E9 ; 0.0
50 ; 3220771.342354561 ; 2.012428667292336E8 ; 1.3345156388697293E8 ; 8.430297159760146E9 ; 0.0
51 ; 3227162.749451449 ; 2.0125423843625942E8 ; 1.366723352293275E8 ; 8.63154002648938E9 ; 0.0
52 ; 3234223.8838426024 ; 2.0126574002610144E8 ; 1.3989949797877896E8 ; 8.83279426492564E9 ; 0.0
53 ; 3239155.412274496 ; 2.012773660530954E8 ; 1.4313372186262155E8 ; 9.034060004951742E9 ; 0.0
54 ; 3244395.566959239 ; 2.012891112596971E8 ; 1.4637287727489606E8 ; 9.235337371004837E9 ; 0.0
55 ; 3255792.074932306 ; 2.0130097057202575E8 ; 1.496172728418553E8 ; 9.436626482264534E9 ; 0.0
56 ; 3257932.3322569123 ; 2.013129390951293E8 ; 1.528730649167876E8 ; 9.63792745283656E9 ; 0.0
57 ; 3263794.5063007227 ; 2.0132501210803702E8 ; 1.561309972490445E8 ; 9.839240391931688E9 ; 0.0
58 ; 3270482.172962417 ; 2.0133718505865583E8 ; 1.5939479175534523E8 ; 1.0040565404039726E10 ; 0.0
59 ; 3273637.019037228 ; 2.0134945355856183E8 ; 1.6266527392830765E8 ; 1.0241902589098383E10 ; 0.0
60 ; 3276488.5664505605 ; 2.0136181337773013E8 ; 1.6593891094734487E8 ; 1.0443252042656944E10 ; 0.0
61 ; 3282864.3682592846 ; 2.0137426043924117E8 ; 1.6921539951379544E8 ; 1.0644613856034674E10 ; 0.0
62 ; 3287348.043343295 ; 2.0138679081399637E8 ; 1.7249826388205472E8 ; 1.0845988116473915E10 ; 0.0
63 ; 3292251.2876142063 ; 2.013994007154706E8 ; 1.7578561192539802E8 ; 1.1047374907287912E10 ; 0.0
64 ; 3294069.621190643 ; 2.0141208649452546E8 ; 1.7907786321301222E8 ; 1.1248774308003384E10 ; 0.0
65 ; 3303941.0035020662 ; 2.0142484463430226E8 ; 1.8237193283420286E8 ; 1.145018639449791E10 ; 0.0
66 ; 3308041.253539007 ; 2.0143767174521208E8 ; 1.8567587383770493E8 ; 1.1651611239132212E10 ; 0.0
67 ; 3311595.0468251184 ; 2.01450564560035E8 ; 1.8898391509124392E8 ; 1.1853048910877424E10 ; 0.0
68 ; 3312140.649381397 ; 2.014635199291399E8 ; 1.9229551013806903E8 ; 1.205449947543746E10 ; 0.0
69 ; 3321125.869723498 ; 2.0147653481583259E8 ; 1.9560765078745043E8 ; 1.22559629953666E10 ; 0.0
70 ; 3326581.449956979 ; 2.0148960629183865E8 ; 1.9892877665717393E8 ; 1.2457439530182432E10 ; 0.0
71 ; 3329912.7199960733 ; 2.0150273153292564E8 ; 2.0225535810713091E8 ; 1.265892913647427E10 ; 0.0
72 ; 3333504.0897444077 ; 2.0151590781466705E8 ; 2.0558527082712698E8 ; 1.2860431868007196E10 ; 0.0
73 ; 3338509.205403043 ; 2.015291325083503E8 ; 2.089187749168714E8 ; 1.3061947775821863E10 ; 0.0
74 ; 3344371.782868267 ; 2.0154240307702875E8 ; 2.1225728412227443E8 ; 1.3263476908330214E10 ; 0.0
75 ; 3342182.192174785 ; 2.0155571707171744E8 ; 2.156016559051427E8 ; 1.3465019311407242E10 ; 0.0
76 ; 3351429.1376596414 ; 2.0156907212773165E8 ; 2.189438380973175E8 ; 1.366657502847896E10 ; 0.0
77 ; 3356226.563074143 ; 2.0158246596116582E8 ; 2.2229526723497713E8 ; 1.3868144100606691E10 ; 0.0
78 ; 3351780.530788652 ; 2.0159589636551088E8 ; 2.2565149379805127E8 ; 1.4069726566567858E10 ; 0.0
79 ; 3349791.0558709125 ; 2.01609361208407E8 ; 2.2900327432883993E8 ; 1.4271322462933369E10 ; 0.0
80 ; 3353013.649426666 ; 2.0162285842852828E8 ; 2.3235306538471085E8 ; 1.4472931824141775E10 ; 0.0
81 ; 3352752.20851487 ; 2.016363860325961E8 ; 2.3570607903413752E8 ; 1.4674554682570303E10 ; 0.0
82 ; 3353495.2738492372 ; 2.016499420925178E8 ; 2.390588312426524E8 ; 1.48761910686029E10 ; 0.0
83 ; 3348689.8768034154 ; 2.0166352474264565E8 ; 2.4241232651650164E8 ; 1.5077841010695417E10 ; 0.0
84 ; 3349857.4115925767 ; 2.016771321771538E8 ; 2.4576101639330506E8 ; 1.5279504535438063E10 ; 0.0
85 ; 3351222.602468566 ; 2.016907626475275E8 ; 2.4911087380489764E8 ; 1.5481181667615217E10 ; 0.0
86 ; 3347614.593994085 ; 2.017044144601619E8 ; 2.5246209640736622E8 ; 1.5682872430262745E10 ; 0.0
87 ; 3350779.4689781712 ; 2.0171808597406554E8 ; 2.558097110013603E8 ; 1.5884576844722906E10 ; 0.0
88 ; 3350472.404319684 ; 2.0173177559866482E8 ; 2.5916049047033846E8 ; 1.6086294930696972E10 ; 0.0
89 ; 3348601.886303571 ; 2.0174548179170537E8 ; 2.6251096287465814E8 ; 1.6288026706295637E10 ; 0.0
90 ; 3347970.811244156 ; 2.0175920305724666E8 ; 2.658595647609617E8 ; 1.6489772188087343E10 ; 0.0
91 ; 3341906.8275163267 ; 2.017729379437456E8 ; 2.6920753557220584E8 ; 1.669153139114459E10 ; 0.0
92 ; 3340245.2981283255 ; 2.0178668504222593E8 ; 2.7254944239972216E8 ; 1.6893304329088337E10 ; 0.0
93 ; 3341918.163674774 ; 2.0180044298452902E8 ; 2.7588968769785047E8 ; 1.7095091014130564E10 ; 0.0
94 ; 3338061.199522818 ; 2.0181421044164354E8 ; 2.7923160586152524E8 ; 1.7296891457115093E10 ; 0.0
95 ; 3339022.68800306 ; 2.018279861221095E8 ; 2.8256966706104803E8 ; 1.7498705667556736E10 ; 0.0
96 ; 3336884.93395032 ; 2.018417687704944E8 ; 2.859086897490511E8 ; 1.7700533653678844E10 ; 0.0
97 ; 3333981.3865262815 ; 2.0185555716593733E8 ; 2.892455746830014E8 ; 1.7902375422449337E10 ; 0.0
98 ; 3335704.468228739 ; 2.018693501207588E8 ; 2.925795560695277E8 ; 1.8104230979615273E10 ; 0.0
99 ; 3334236.6547004175 ; 2.0188314647913262E8 ; 2.9591526053775644E8 ; 1.830610032973603E10 ; 0.0
100 ; 3330223.9602833902 ; 2.0189694511581767E8 ; 2.9924949719245684E8 ; 1.8507983476215164E10 ; 0.0
101 ; 3326332.8361262293 ; 2.0191074493494612E8 ; 3.0257972115274024E8 ; 1.8709880421330982E10 ; 0.0
102 ; 3325166.0441326643 ; 2.0192454486886626E8 ; 3.0590605398886645E8 ; 1.891179116626593E10 ; 0.0
103 ; 3320729.4715437787 ; 2.0193834387703672E8 ; 3.092312200329991E8 ; 1.9113715711134796E10 ; 0.0
104 ; 3323106.123992015 ; 2.0195214094497013E8 ; 3.125519495045429E8 ; 1.9315654055011833E10 ; 0.0
105 ; 3319819.5212284024 ; 2.0196593508322385E8 ; 3.158750556285349E8 ; 1.9517606195956802E10 ; 0.0
106 ; 3313756.6987966443 ; 2.0197972532643548E8 ; 3.191948751497633E8 ; 1.9719572131040028E10 ; 0.0
107 ; 3317450.0112216994 ; 2.0199351073240122E8 ; 3.225086318485599E8 ; 1.9921551856366463E10 ; 0.0
108 ; 3311642.518409307 ; 2.0200729038119474E8 ; 3.258260818597816E8 ; 2.0123545367098866E10 ; 0.0
109 ; 3309732.734633882 ; 2.0202106337432525E8 ; 3.2913772437819093E8 ; 2.032555265748006E10 ; 0.0
110 ; 3304565.0571889505 ; 2.0203482883393234E8 ; 3.324474571128248E8 ; 2.0527573720854385E10 ; 0.0
111 ; 3306540.9303520974 ; 2.0204858590201628E8 ; 3.357520221700137E8 ; 2.0729608549688316E10 ; 0.0
112 ; 3299695.6567524015 ; 2.020623337397018E8 ; 3.390585631003658E8 ; 2.0931657135590332E10 ; 0.0
113 ; 3298683.0871103536 ; 2.0207607152653435E8 ; 3.423582587571182E8 ; 2.1133719469330032E10 ; 0.0
114 ; 3297063.9180208133 ; 2.0208979845980635E8 ; 3.4565694184422857E8 ; 2.1335795540856567E10 ; 0.0
115 ; 3291066.965436209 ; 2.021035137539132E8 ; 3.4895400576224935E8 ; 2.1537885339316372E10 ; 0.0
116 ; 3291706.715263409 ; 2.0211721663973674E8 ; 3.522450727276856E8 ; 2.1739988853070286E10 ; 0.0
117 ; 3285492.564303698 ; 2.0213090636405534E8 ; 3.55536779442949E8 ; 2.1942106069710022E10 ; 0.0
118 ; 3282933.1168562835 ; 2.0214458218897927E8 ; 3.588222720072527E8 ; 2.2144236976074078E10 ; 0.0
119 ; 3281286.530660582 ; 2.0215824339141017E8 ; 3.6210520512410897E8 ; 2.2346381558263058E10 ; 0.0
120 ; 3274184.668927699 ; 2.021718892625236E8 ; 3.6538649165476954E8 ; 2.254853980165447E10 ; 0.0
121 ; 3267878.5458479263 ; 2.021855191072733E8 ; 3.686606763236972E8 ; 2.2750711690916992E10 ; 0.0
122 ; 3266505.8747815434 ; 2.021991322439168E8 ; 3.7192855486954516E8 ; 2.2952897210024265E10 ; 0.0
123 ; 3264911.6186266765 ; 2.0221272800356048E8 ; 3.751950607443267E8 ; 2.315509634226818E10 ; 0.0
124 ; 3260725.327246932 ; 2.0222630572972414E8 ; 3.7845997236295336E8 ; 2.335730907027174E10 ; 0.0
125 ; 3254181.2647200422 ; 2.022398647779235E8 ; 3.8172069769020027E8 ; 2.3559535376001465E10 ; 0.0
126 ; 3252539.185052768 ; 2.0225340451527002E8 ; 3.849748789549203E8 ; 2.376177524077939E10 ; 0.0
127 ; 3245762.0018368675 ; 2.0226692432008773E8 ; 3.8822741813997304E8 ; 2.396402864529466E10 ; 0.0
128 ; 3243123.475205936 ; 2.022804235815451E8 ; 3.9147318014180994E8 ; 2.4166295569614746E10 ; 0.0
129 ; 3238141.8878532075 ; 2.0229390169930294E8 ; 3.947163036170159E8 ; 2.4368575993196293E10 ; 0.0
130 ; 3230859.670491305 ; 2.0230735808317584E8 ; 3.979544455048691E8 ; 2.4570869894895596E10 ; 0.0
131 ; 3224884.958155617 ; 2.023207921528081E8 ; 4.011853051753604E8 ; 2.477317725297877E10 ; 0.0
132 ; 3216069.7013819953 ; 2.023342033373624E8 ; 4.04410190133516E8 ; 2.497549804513158E10 ; 0.0
133 ; 3205605.2548940307 ; 2.0234759107522136E8 ; 4.07626259834898E8 ; 2.5177832248468945E10 ; 0.0
134 ; 3197741.628940066 ; 2.0236095481370068E8 ; 4.10831865089792E8 ; 2.5380179839544167E10 ; 0.0
135 ; 3189695.909958408 ; 2.023742940087743E8 ; 4.1402960671873206E8 ; 2.558254079435787E10 ; 0.0
136 ; 3178057.3636317966 ; 2.0238760812481025E8 ; 4.172193026286905E8 ; 2.5784915088366642E10 ; 0.0
137 ; 3172201.181347069 ; 2.0240089663431698E8 ; 4.2039735999232227E8 ; 2.598730269649145E10 ; 0.0
138 ; 3163768.671529388 ; 2.024141590176999E8 ; 4.2356956117366934E8 ; 2.6189703593125767E10 ; 0.0
139 ; 3153017.1896277075 ; 2.0242739476302728E8 ; 4.2673332984519875E8 ; 2.6392117752143467E10 ; 0.0
140 ; 3142994.9082838977 ; 2.024406033658058E8 ; 4.2988634703482646E8 ; 2.6594545146906494E10 ; 0.0
141 ; 3134108.259773181 ; 2.0245378432876432E8 ; 4.3302934194311035E8 ; 2.67969857502723E10 ; 0.0
142 ; 3129056.4570079003 ; 2.024669371616465E8 ; 4.3616345020288354E8 ; 2.6999439534601067E10 ; 0.0
143 ; 3116284.6224588137 ; 2.0248006138101122E8 ; 4.392925066598914E8 ; 2.7201906471762714E10 ; 0.0
144 ; 3107249.4325906434 ; 2.02493156510041E8 ; 4.4240879128235024E8 ; 2.7404386533143726E10 ; 0.0
145 ; 3104539.636363157 ; 2.0250622207835743E8 ; 4.455160407149409E8 ; 2.7606879689653767E10 ; 0.0
146 ; 3099782.0957354615 ; 2.02519257621844E8 ; 4.4862058035130405E8 ; 2.7809385911732124E10 ; 0.0
147 ; 3095082.3668340687 ; 2.025322626824755E8 ; 4.5172036244703954E8 ; 2.801190516935397E10 ; 0.0
148 ; 3091734.456583956 ; 2.025452368081541E8 ; 4.548154448138736E8 ; 2.8214437432036446E10 ; 0.0
149 ; 3085882.8855750966 ; 2.0255817955255133E8 ; 4.5790717927045757E8 ; 2.84169826688446E10 ; 0.0
150 ; 3082742.9401823245 ; 2.025710904749564E8 ; 4.609930621560327E8 ; 2.8619540848397152E10 ; 0.0
151 ; 3075271.530740397 ; 2.0258396914013004E8 ; 4.64075805096215E8 ; 2.882211193887211E10 ; 0.0
152 ; 3072037.825862894 ; 2.0259681511816376E8 ; 4.671510766269554E8 ; 2.9024695908012238E10 ; 0.0
153 ; 3067669.5652032215 ; 2.0260962798434454E8 ; 4.702231144528183E8 ; 2.92272927231304E10 ; 0.0
154 ; 3058703.8911468675 ; 2.0262240731902432E8 ; 4.732907840180215E8 ; 2.9429902351114746E10 ; 0.0
155 ; 3059491.390855777 ; 2.0263515270749453E8 ; 4.7634948790916836E8 ; 2.963252475843377E10 ; 0.0
156 ; 3053740.3062395556 ; 2.0264786373986524E8 ; 4.7940897930002415E8 ; 2.9835159911141262E10 ; 0.0
157 ; 3048469.5581855834 ; 2.026605400109486E8 ; 4.824627196062637E8 ; 3.0037807774881126E10 ; 0.0
158 ; 3043674.3276872365 ; 2.026731811201467E8 ; 4.855111891644493E8 ; 3.0240468314892075E10 ; 0.0
159 ; 3037450.543530097 ; 2.0268578667134345E8 ; 4.8855486349213654E8 ; 3.0443141496012222E10 ; 0.0
160 ; 3035175.8917461024 ; 2.026983562728004E8 ; 4.9159231403566664E8 ; 3.0645827282683567E10 ; 0.0
161 ; 3027835.1457063905 ; 2.0271088953705642E8 ; 4.9462748992741275E8 ; 3.0848525638956367E10 ; 0.0
162 ; 3024277.0360213197 ; 2.0272338608083093E8 ; 4.9765532507311916E8 ; 3.1051236528493423E10 ; 0.0
163 ; 3020374.56981136 ; 2.0273584552493054E8 ; 5.0067960210914046E8 ; 3.1253959914574253E10 ; 0.0
164 ; 3013619.278761711 ; 2.0274826749415925E8 ; 5.036999766789518E8 ; 3.1456695760099182E10 ; 0.0
165 ; 3010442.669908714 ; 2.0276065161723164E8 ; 5.067135959577135E8 ; 3.165944402759334E10 ; 0.0
166 ; 3002667.0920652985 ; 2.027729975266893E8 ; 5.097240386276222E8 ; 3.1862204679210575E10 ; 0.0
167 ; 2999157.72138998 ; 2.027853048588202E8 ; 5.1272670571968746E8 ; 3.2064977676737263E10 ; 0.0
168 ; 2994876.415899815 ; 2.027975732535809E8 ; 5.157258634410775E8 ; 3.2267762981596085E10 ; 0.0
169 ; 2989973.5066067553 ; 2.0280980235452142E8 ; 5.187207398569773E8 ; 3.2470560554849667E10 ; 0.0
170 ; 2984472.611866419 ; 2.0282199180871302E8 ; 5.2171071336358404E8 ; 3.267337035720419E10 ; 0.0
171 ; 2979420.3835194395 ; 2.028341412666781E8 ; 5.2469518597545046E8 ; 3.28761923490129E10 ; 0.0
172 ; 2973211.2586196405 ; 2.0284625038232303E8 ; 5.2767460635896987E8 ; 3.307902649027958E10 ; 0.0
173 ; 2968926.8737986092 ; 2.0285831881287295E8 ; 5.3064781761758953E8 ; 3.3281872740661903E10 ; 0.0
174 ; 2962877.2478662604 ; 2.0287034621880898E8 ; 5.3361674449138814E8 ; 3.3484731059474777E10 ; 0.0
175 ; 2961188.4654133334 ; 2.028823322638076E8 ; 5.365796217392544E8 ; 3.3687601405693584E10 ; 0.0
176 ; 2953649.4750936814 ; 2.028942766146822E8 ; 5.395408102046678E8 ; 3.3890483737957394E10 ; 0.0
177 ; 2956937.83285653 ; 2.0290617894132644E8 ; 5.424944596797615E8 ; 3.4093378014572075E10 ; 0.0
178 ; 2946813.141107465 ; 2.0291803891665983E8 ; 5.454513975126181E8 ; 3.42962841935134E10 ; 0.0
179 ; 2947473.3878885116 ; 2.0292985621657494E8 ; 5.483982106537255E8 ; 3.449920223243006E10 ; 0.0
180 ; 2945310.21412922 ; 2.0294163051988658E8 ; 5.51345684041614E8 ; 3.470213208864664E10 ; 0.0
181 ; 2940728.978211423 ; 2.0295336150828254E8 ; 5.542909942557433E8 ; 3.490507371916653E10 ; 0.0
182 ; 2938931.0450962316 ; 2.0296504886627626E8 ; 5.572317232339547E8 ; 3.510802708067481E10 ; 0.0
183 ; 2932690.4202139713 ; 2.0297669228116086E8 ; 5.60170654279051E8 ; 3.531099212954109E10 ; 0.0
184 ; 2928466.9434925714 ; 2.029882914429649E8 ; 5.631033446992649E8 ; 3.551396882182225E10 ; 0.0
185 ; 2924551.7522830353 ; 2.029998460444095E8 ; 5.660318116427574E8 ; 3.571695711326521E10 ; 0.0
186 ; 2924979.2093796446 ; 2.0301135578086704E8 ; 5.689563633950404E8 ; 3.591995695930962E10 ; 0.0
187 ; 2919814.561134658 ; 2.030228203503211E8 ; 5.718813426044201E8 ; 3.612296831509049E10 ; 0.0
188 ; 2914839.001688886 ; 2.0303423945332795E8 ; 5.748011571655548E8 ; 3.632599113544081E10 ; 0.0
189 ; 2908423.387184102 ; 2.0304561279297906E8 ; 5.777159961672436E8 ; 3.652902537489414E10 ; 0.0
190 ; 2910635.0289128763 ; 2.0305694007486522E8 ; 5.806244195544277E8 ; 3.673207098768712E10 ; 0.0
191 ; 2905732.4225854315 ; 2.030682210070414E8 ; 5.835350545833406E8 ; 3.6935127927761986E10 ; 0.0
192 ; 2906700.609096378 ; 2.0307945529999322E8 ; 5.864407870059261E8 ; 3.713819614876903E10 ; 0.0
193 ; 2898331.434175242 ; 2.0309064266660437E8 ; 5.893474876150225E8 ; 3.734127560406902E10 ; 0.0
194 ; 2893764.44086259 ; 2.0310178282212493E8 ; 5.922458190491978E8 ; 3.754436624673563E10 ; 0.0
195 ; 2892338.9649492945 ; 2.0311287548414105E8 ; 5.951395834900603E8 ; 3.7747468029557755E10 ; 0.0
196 ; 2887862.800563073 ; 2.0312392037254545E8 ; 5.980319224550096E8 ; 3.795058090504189E10 ; 0.0
197 ; 2885999.5164055848 ; 2.0313491720950884E8 ; 6.009197852555727E8 ; 3.815370482541444E10 ; 0.0
198 ; 2883731.5042153154 ; 2.0314586571945256E8 ; 6.038057847719783E8 ; 3.835683974262395E10 ; 0.0
199 ; 2877030.124624906 ; 2.0315676562902176E8 ; 6.066895162761936E8 ; 3.85599856083434E10 ; 0.0
