CSV File for the City 1 on Day 101
1 - Minute m 
2 - Power Consumed at minute m 
3 - Power Produced at minute m 
4 - Energy Consumed since the beginning of the day 
5 - Energy Produced since the beginning of the day 
6 - Energy Lost since the beginning of the day on lines starting from the city
 
0 ; 1.613293854603627E7 ; 1.0554913778683922E8 ; 0.0 ; 0.0 ; 0.0
1 ; 1.6141278528830064E7 ; 1.0570209185114163E8 ; 1.613293854603627E7 ; 1.0554913778683922E8 ; 0.0
2 ; 1.6164636237981953E7 ; 1.0616382738485953E8 ; 3.2274217074866332E7 ; 2.1125122963798085E8 ; 0.0
3 ; 1.6186038767149195E7 ; 1.0693434581913155E8 ; 4.8438853312848285E7 ; 3.174150570228404E8 ; 0.0
4 ; 1.6209479302233616E7 ; 1.0801364843582857E8 ; 6.462489207999748E7 ; 4.2434940284197193E8 ; 0.0
5 ; 1.6237987379075328E7 ; 1.0940173636068356E8 ; 8.08343713822311E7 ; 5.323630512778005E8 ; 0.0
6 ; 1.6278083454004854E7 ; 1.1109861055714628E8 ; 9.707235876130643E7 ; 6.41764787638484E8 ; 0.0
7 ; 1.632912782510656E7 ; 1.1310427182104123E8 ; 1.1335044221531129E8 ; 7.528633981956303E8 ; 0.0
8 ; 1.6412206495066464E7 ; 1.154187207760964E8 ; 1.2967957004041785E8 ; 8.659676700166715E8 ; 0.0
9 ; 1.6526164227977993E7 ; 1.1804195787040287E8 ; 1.460917765354843E8 ; 9.81386390792768E8 ; 0.0
10 ; 1.6712404417134041E7 ; 1.2097398337385046E8 ; 1.626179407634623E8 ; 1.0994283486631708E9 ; 0.0
11 ; 1.70017759186356E7 ; 1.2421479737657574E8 ; 1.7933034518059635E8 ; 1.2204023320370212E9 ; 0.0
12 ; 1.7457094020122226E7 ; 1.277643997884421E8 ; 1.9633212109923196E8 ; 1.3446171294135969E9 ; 0.0
13 ; 1.7907411381036237E7 ; 1.3162279033955973E8 ; 2.137892151193542E8 ; 1.472381529202039E9 ; 0.0
14 ; 1.7961262514230628E7 ; 1.3578996858183765E8 ; 2.316966265003904E8 ; 1.6040043195415988E9 ; 0.0
15 ; 1.797924451365987E7 ; 1.4026593389154774E8 ; 2.4965788901462105E8 ; 1.7397942881234365E9 ; 0.0
16 ; 1.800384980931054E7 ; 1.450506854728656E8 ; 2.676371335282809E8 ; 1.8800602220149841E9 ; 0.0
17 ; 1.802151295537155E7 ; 1.5014422236234143E8 ; 2.8564098333759147E8 ; 2.0251109074878497E9 ; 0.0
18 ; 1.8046780446258802E7 ; 1.5554654343424225E8 ; 3.03662496292963E8 ; 2.175255129850191E9 ; 0.0
19 ; 1.80664344792691E7 ; 1.6125764740669718E8 ; 3.217092767392218E8 ; 2.3308016732844334E9 ; 0.0
20 ; 1.808628539924113E7 ; 1.6727753284856758E8 ; 3.397757112184909E8 ; 2.4920593206911306E9 ; 0.0
21 ; 1.810783191602184E7 ; 1.73606198186959E8 ; 3.5786199661773205E8 ; 2.659336853539698E9 ; 0.0
22 ; 1.8129057943760205E7 ; 1.8024364171528512E8 ; 3.759698285337539E8 ; 2.832943051726657E9 ; 0.0
23 ; 1.815452459009338E7 ; 1.8718986160179144E8 ; 3.940988864775141E8 ; 3.013186693441942E9 ; 0.0
24 ; 1.8174950379028805E7 ; 1.9444485589844418E8 ; 4.1225341106760746E8 ; 3.2003765550437336E9 ; 0.0
25 ; 1.819865460474572E7 ; 2.0069666344827572E8 ; 4.3042836144663626E8 ; 3.394821410942178E9 ; 0.0
26 ; 1.821768949328395E7 ; 2.0069882993162152E8 ; 4.48627016051382E8 ; 3.5955180743904533E9 ; 0.0
27 ; 1.824012266164283E7 ; 2.007011224004569E8 ; 4.6684470554466593E8 ; 3.796216904322075E9 ; 0.0
28 ; 1.8257235163631428E7 ; 2.0070353853461003E8 ; 4.850848282063088E8 ; 3.996918026722532E9 ; 0.0
29 ; 1.828045316232407E7 ; 2.0070607594437736E8 ; 5.033420633699402E8 ; 4.197621565257142E9 ; 0.0
30 ; 1.8300637656060852E7 ; 2.007087321797508E8 ; 5.216225165322643E8 ; 4.398327641201519E9 ; 0.0
31 ; 1.8316506881596267E7 ; 2.007115047394373E8 ; 5.399231541883252E8 ; 4.599036373381269E9 ; 0.0
32 ; 1.833947121339248E7 ; 2.0071439107961294E8 ; 5.582396610699215E8 ; 4.799747878120707E9 ; 0.0
33 ; 1.8356715146648437E7 ; 2.0071738862236193E8 ; 5.76579132283314E8 ; 5.000462269200319E9 ; 0.0
34 ; 1.8377519422740534E7 ; 2.0072049476375878E8 ; 5.949358474299624E8 ; 5.201179657822681E9 ; 0.0
35 ; 1.839704132459771E7 ; 2.0072370688155842E8 ; 6.13313366852703E8 ; 5.40190015258644E9 ; 0.0
36 ; 1.8407609154459447E7 ; 2.0072702234246805E8 ; 6.317104081773007E8 ; 5.6026238594679985E9 ; 0.0
37 ; 1.843139420394863E7 ; 2.007304385089799E8 ; 6.501180173317602E8 ; 5.803350881810467E9 ; 0.0
38 ; 1.844531673734767E7 ; 2.0073395274575192E8 ; 6.685494115357088E8 ; 6.004081320319447E9 ; 0.0
39 ; 1.8462080071727578E7 ; 2.0073756242552865E8 ; 6.869947282730565E8 ; 6.204815273065199E9 ; 0.0
40 ; 1.8474863662427016E7 ; 2.007412649346002E8 ; 7.054568083447841E8 ; 6.405552835490727E9 ; 0.0
41 ; 1.8490325536339156E7 ; 2.0074505767780232E8 ; 7.239316720072112E8 ; 6.606294100425327E9 ; 0.0
42 ; 1.8504322815222956E7 ; 2.007489380830641E8 ; 7.424219975435504E8 ; 6.807039158103129E9 ; 0.0
43 ; 1.851657735319686E7 ; 2.007529036055149E8 ; 7.609263203587734E8 ; 7.007788096186193E9 ; 0.0
44 ; 1.8527465863683894E7 ; 2.0075695173116326E8 ; 7.794428977119702E8 ; 7.208540999791708E9 ; 0.0
45 ; 1.8542540186017647E7 ; 2.0076107998016477E8 ; 7.979703635756541E8 ; 7.409297951522871E9 ; 0.0
46 ; 1.855081946304688E7 ; 2.00765285909697E8 ; 8.165129037616718E8 ; 7.610059031503036E9 ; 0.0
47 ; 1.8559141703880582E7 ; 2.007695671164611E8 ; 8.350637232247187E8 ; 7.810824317412732E9 ; 0.0
48 ; 1.856788886149594E7 ; 2.0077392123883113E8 ; 8.536228649285992E8 ; 8.011593884529193E9 ; 0.0
49 ; 1.8573413091671016E7 ; 2.007783459586728E8 ; 8.721907537900952E8 ; 8.212367805768024E9 ; 0.0
50 ; 1.858198596533821E7 ; 2.0078283900285298E8 ; 8.907641668817662E8 ; 8.413146151726697E9 ; 0.0
51 ; 1.859058087754672E7 ; 2.007873981444631E8 ; 9.093461528471044E8 ; 8.61392899072955E9 ; 0.0
52 ; 1.859822553271731E7 ; 2.0079202120377663E8 ; 9.279367337246511E8 ; 8.814716388874012E9 ; 0.0
53 ; 1.8604273065434065E7 ; 2.0079670604896376E8 ; 9.465349592573684E8 ; 9.01550841007779E9 ; 0.0
54 ; 1.861083465019097E7 ; 2.0080145059658235E8 ; 9.651392323228025E8 ; 9.216305116126753E9 ; 0.0
55 ; 1.8610395550412413E7 ; 2.0080625281186682E8 ; 9.837500669729935E8 ; 9.417106566723335E9 ; 0.0
56 ; 1.861878484611533E7 ; 2.0081111070883274E8 ; 1.0023604625234059E9 ; 9.617912819535202E9 ; 0.0
57 ; 1.8626993952106442E7 ; 2.008160223502164E8 ; 1.0209792473695213E9 ; 9.818723930244034E9 ; 0.0
58 ; 1.8633711367855433E7 ; 2.0082098584726623E8 ; 1.0396062413216277E9 ; 1.001953995259425E10 ; 0.0
59 ; 1.863373288635254E7 ; 2.008259993594025E8 ; 1.0582399526894832E9 ; 1.0220360938441517E10 ; 0.0
60 ; 1.8640019751405276E7 ; 2.008310610937605E8 ; 1.0768736855758357E9 ; 1.0421186937800919E10 ; 0.0
61 ; 1.8647717420168478E7 ; 2.0083616930463108E8 ; 1.095513705327241E9 ; 1.062201799889468E10 ; 0.0
62 ; 1.8649498663237758E7 ; 2.008413222928127E8 ; 1.1141614227474093E9 ; 1.082285416819931E10 ; 0.0
63 ; 1.86554409604112E7 ; 2.00846518404886E8 ; 1.1328109214106472E9 ; 1.1023695490492123E10 ; 0.0
64 ; 1.8659897155883644E7 ; 2.008517560324228E8 ; 1.1514663623710585E9 ; 1.1224542008897009E10 ; 0.0
65 ; 1.866824962434028E7 ; 2.0085703361113992E8 ; 1.170126259526942E9 ; 1.1425393764929432E10 ; 0.0
66 ; 1.867050430867527E7 ; 2.0086234962000653E8 ; 1.1887945091512823E9 ; 1.1626250798540571E10 ; 0.0
67 ; 1.8670192822057553E7 ; 2.008677025803144E8 ; 1.2074650134599576E9 ; 1.1827113148160578E10 ; 0.0
68 ; 1.867605302785225E7 ; 2.008730910547179E8 ; 1.226135206282015E9 ; 1.2027980850740892E10 ; 0.0
69 ; 1.8678298069203153E7 ; 2.0087851364625162E8 ; 1.2448112593098674E9 ; 1.222885394179561E10 ; 0.0
70 ; 1.868264998181185E7 ; 2.0088396899733114E8 ; 1.2634895573790705E9 ; 1.2429732455441862E10 ; 0.0
71 ; 1.868619972783081E7 ; 2.0088945578874296E8 ; 1.2821722073608823E9 ; 1.2630616424439194E10 ; 0.0
72 ; 1.8689038686359573E7 ; 2.008949727386284E8 ; 1.3008584070887132E9 ; 1.2831505880227936E10 ; 0.0
73 ; 1.8686735287388727E7 ; 2.0090051860146603E8 ; 1.3195474457750728E9 ; 1.3032400852966564E10 ; 0.0
74 ; 1.8693379187050506E7 ; 2.0090609216705656E8 ; 1.3382341810624616E9 ; 1.323330137156803E10 ; 0.0
75 ; 1.8698683116962463E7 ; 2.0091169225951332E8 ; 1.3569275602495122E9 ; 1.3434207463735086E10 ; 0.0
76 ; 1.870406273332113E7 ; 2.0091731773626179E8 ; 1.3756262433664746E9 ; 1.36351191559946E10 ; 0.0
77 ; 1.870070011873655E7 ; 2.0092296748705027E8 ; 1.3943303060997958E9 ; 1.3836036473730862E10 ; 0.0
78 ; 1.8696945575438354E7 ; 2.009286404329745E8 ; 1.4130310062185323E9 ; 1.4036959441217913E10 ; 0.0
79 ; 1.869596208640226E7 ; 2.0093433552551752E8 ; 1.4317279517939706E9 ; 1.4237888081650887E10 ; 0.0
80 ; 1.8690978298220143E7 ; 2.0094005174560705E8 ; 1.4504239138803728E9 ; 1.4438822417176405E10 ; 0.0
81 ; 1.868860637170952E7 ; 2.009457881026908E8 ; 1.469114892178593E9 ; 1.4639762468922012E10 ; 0.0
82 ; 1.8683597268352397E7 ; 2.0095154363383186E8 ; 1.4878034985503025E9 ; 1.4840708257024704E10 ; 0.0
83 ; 1.8681742652126927E7 ; 2.0095731740282458E8 ; 1.506487095818655E9 ; 1.5041659800658535E10 ; 0.0
84 ; 1.8680556176735077E7 ; 2.0096310849933103E8 ; 1.525168838470782E9 ; 1.524261711806136E10 ; 0.0
85 ; 1.867584475446331E7 ; 2.0096891603803995E8 ; 1.5438493946475172E9 ; 1.544358022656069E10 ; 0.0
86 ; 1.8670167401690185E7 ; 2.0097473915784702E8 ; 1.5625252394019804E9 ; 1.564454914259873E10 ; 0.0
87 ; 1.8665153008799523E7 ; 2.0098057702105796E8 ; 1.5811954068036706E9 ; 1.5845523881756577E10 ; 0.0
88 ; 1.8659700007799596E7 ; 2.009864288126137E8 ; 1.5998605598124702E9 ; 1.6046504458777634E10 ; 0.0
89 ; 1.865638597082434E7 ; 2.0099229373933804E8 ; 1.6185202598202698E9 ; 1.6247490887590248E10 ; 0.0
90 ; 1.8648248877763312E7 ; 2.0099817102920774E8 ; 1.637176645791094E9 ; 1.6448483181329586E10 ; 0.0
91 ; 1.864494034183994E7 ; 2.0100405993064463E8 ; 1.6558248946688573E9 ; 1.6649481352358793E10 ; 0.0
92 ; 1.8641167853484288E7 ; 2.0100995971182975E8 ; 1.6744698350106974E9 ; 1.6850485412289438E10 ; 0.0
93 ; 1.8632880792390194E7 ; 2.0101586966003925E8 ; 1.6931110028641818E9 ; 1.7051495372001268E10 ; 0.0
94 ; 1.862607523126701E7 ; 2.0102178908100128E8 ; 1.7117438836565719E9 ; 1.725251124166131E10 ; 0.0
95 ; 1.8622425489822585E7 ; 2.0102771729827437E8 ; 1.7303699588878388E9 ; 1.745353303074231E10 ; 0.0
96 ; 1.861573042164117E7 ; 2.0103365365264583E8 ; 1.7489923843776615E9 ; 1.7654560748040585E10 ; 0.0
97 ; 1.8610720741162844E7 ; 2.0103959750155053E8 ; 1.7676081147993026E9 ; 1.785559440169323E10 ; 0.0
98 ; 1.8606440597903557E7 ; 2.0104554821850944E8 ; 1.7862188355404654E9 ; 1.805663399919478E10 ; 0.0
99 ; 1.860005590029672E7 ; 2.0105150519258705E8 ; 1.8048252761383688E9 ; 1.825767954741329E10 ; 0.0
100 ; 1.859150070677396E7 ; 2.0105746782786772E8 ; 1.8234253320386655E9 ; 1.8458731052605877E10 ; 0.0
101 ; 1.858494874003814E7 ; 2.010634355429501E8 ; 1.8420168327454395E9 ; 1.8659788520433746E10 ; 0.0
102 ; 1.8576556010284863E7 ; 2.010694077704593E8 ; 1.8606017814854777E9 ; 1.8860851955976696E10 ; 0.0
103 ; 1.85689968845376E7 ; 2.0107538395657623E8 ; 1.8791783374957626E9 ; 1.9061921363747154E10 ; 0.0
104 ; 1.8559930012170102E7 ; 2.0108136356058353E8 ; 1.8977473343803003E9 ; 1.926299674770373E10 ; 0.0
105 ; 1.8557480732372683E7 ; 2.0108734605442774E8 ; 1.9163072643924704E9 ; 1.9464078111264317E10 ; 0.0
106 ; 1.8542223064454645E7 ; 2.010933309222971E8 ; 1.9348647451248431E9 ; 1.9665165457318745E10 ; 0.0
107 ; 1.8537958991240952E7 ; 2.0109931766021445E8 ; 1.9534069681892977E9 ; 1.9866258788241043E10 ; 0.0
108 ; 1.8533602444192514E7 ; 2.01105305775645E8 ; 1.9719449271805387E9 ; 2.0067358105901257E10 ; 0.0
109 ; 1.8523073515874937E7 ; 2.0111129478711796E8 ; 1.990478529624731E9 ; 2.0268463411676903E10 ; 0.0
110 ; 1.8515015264343005E7 ; 2.0111728422386208E8 ; 2.009001603140606E9 ; 2.046957470646402E10 ; 0.0
111 ; 1.8505693406129234E7 ; 2.0112327362545452E8 ; 2.027516618404949E9 ; 2.067069199068788E10 ; 0.0
112 ; 1.849683319299541E7 ; 2.0112926254148206E8 ; 2.046022311811078E9 ; 2.0871815264313335E10 ; 0.0
113 ; 1.849009720476608E7 ; 2.011352505312153E8 ; 2.0645191450040734E9 ; 2.1072944526854816E10 ; 0.0
114 ; 1.8481616772200484E7 ; 2.0114123716329417E8 ; 2.0830092422088394E9 ; 2.1274079777386032E10 ; 0.0
115 ; 1.847275376998006E7 ; 2.0114722201542518E8 ; 2.10149085898104E9 ; 2.1475221014549328E10 ; 0.0
116 ; 1.8463631777809452E7 ; 2.011532046740898E8 ; 2.11996361275102E9 ; 2.1676368236564754E10 ; 0.0
117 ; 1.8452181799379177E7 ; 2.0115918473426324E8 ; 2.1384272445288293E9 ; 2.1877521441238846E10 ; 0.0
118 ; 1.8443621863548446E7 ; 2.0116516179914388E8 ; 2.1568794263282084E9 ; 2.207868062597311E10 ; 0.0
119 ; 1.843201870761846E7 ; 2.0117113547989222E8 ; 2.1753230481917567E9 ; 2.2279845787772255E10 ; 0.0
120 ; 1.842305696878881E7 ; 2.0117710539537963E8 ; 2.193755066899375E9 ; 2.2481016923252148E10 ; 0.0
121 ; 1.8412914314649414E7 ; 2.0118307117194617E8 ; 2.2121781238681636E9 ; 2.2682194028647526E10 ; 0.0
122 ; 1.8403977122845173E7 ; 2.0118903244316718E8 ; 2.230591038182813E9 ; 2.2883377099819473E10 ; 0.0
123 ; 1.8394150656632997E7 ; 2.011949888496287E8 ; 2.2489950153056583E9 ; 2.308456613226264E10 ; 0.0
124 ; 1.838447327897247E7 ; 2.0120094003871056E8 ; 2.2673891659622912E9 ; 2.328576112111227E10 ; 0.0
125 ; 1.836885180070587E7 ; 2.0120688566437796E8 ; 2.285773639241264E9 ; 2.348696206115098E10 ; 0.0
126 ; 1.8360700296641927E7 ; 2.012128253869801E8 ; 2.30414249104197E9 ; 2.368816894681536E10 ; 0.0
127 ; 1.834909429775046E7 ; 2.0121875887305647E8 ; 2.3225031913386116E9 ; 2.3889381772202343E10 ; 0.0
128 ; 1.8336705763084527E7 ; 2.0122468579515007E8 ; 2.340852285636362E9 ; 2.40906005310754E10 ; 0.0
129 ; 1.8328557373252146E7 ; 2.0123060583162725E8 ; 2.3591889913994465E9 ; 2.4291825216870552E10 ; 0.0
130 ; 1.8309982772967625E7 ; 2.0123651866650432E8 ; 2.3775175487726984E9 ; 2.449305582270218E10 ; 0.0
131 ; 1.8295614999726437E7 ; 2.012424239892802E8 ; 2.395827531545666E9 ; 2.4694292341368683E10 ; 0.0
132 ; 1.828432635506144E7 ; 2.012483214947752E8 ; 2.4141231465453925E9 ; 2.4895534765357964E10 ; 0.0
133 ; 1.825968206611224E7 ; 2.0125421088297558E8 ; 2.432407472900454E9 ; 2.5096783086852737E10 ; 0.0
134 ; 1.8245672847200222E7 ; 2.0126009185888365E8 ; 2.450667154966566E9 ; 2.5298037297735714E10 ; 0.0
135 ; 1.822341021370208E7 ; 2.0126596413237327E8 ; 2.4689128278137665E9 ; 2.5499297389594597E10 ; 0.0
136 ; 1.8209564129657008E7 ; 2.0127182741805056E8 ; 2.4871362380274687E9 ; 2.570056335372697E10 ; 0.0
137 ; 1.818998991387577E7 ; 2.0127768143511942E8 ; 2.5053458021571255E9 ; 2.590183518114502E10 ; 0.0
138 ; 1.81722892994454E7 ; 2.0128352590725195E8 ; 2.523535792071001E9 ; 2.610311286258014E10 ; 0.0
139 ; 1.8151541677922238E7 ; 2.0128936056246355E8 ; 2.5417080813704467E9 ; 2.6304396388487392E10 ; 0.0
140 ; 1.813399868446892E7 ; 2.012951851329921E8 ; 2.559859623048369E9 ; 2.6505685749049854E10 ; 0.0
141 ; 1.811468418048041E7 ; 2.013009993551819E8 ; 2.5779936217328377E9 ; 2.6706980934182846E10 ; 0.0
142 ; 1.809525131527928E7 ; 2.0130680296937126E8 ; 2.596108305913318E9 ; 2.690828193353803E10 ; 0.0
143 ; 1.8073372627652872E7 ; 2.013125957197842E8 ; 2.6142035572285976E9 ; 2.71095887365074E10 ; 0.0
144 ; 1.805769530394388E7 ; 2.013183773544261E8 ; 2.6322769298562503E9 ; 2.7310901332227184E10 ; 0.0
145 ; 1.804525512771432E7 ; 2.013241476249826E8 ; 2.6503346251601944E9 ; 2.751221970958161E10 ; 0.0
146 ; 1.802901473008963E7 ; 2.0132990628672257E8 ; 2.6683798802879086E9 ; 2.7713543857206593E10 ; 0.0
147 ; 1.8020686567916743E7 ; 2.0133565309840384E8 ; 2.686408895017998E9 ; 2.7914873763493317E10 ; 0.0
148 ; 1.801286579821067E7 ; 2.0134138782218277E8 ; 2.704429581585915E9 ; 2.811620941659172E10 ; 0.0
149 ; 1.7995219217328936E7 ; 2.0134711022352645E8 ; 2.7224424473841257E9 ; 2.8317550804413902E10 ; 0.0
150 ; 1.79872996822033E7 ; 2.013528200711283E8 ; 2.7404376666014547E9 ; 2.851889791463743E10 ; 0.0
151 ; 1.7973210716793545E7 ; 2.0135851713682646E8 ; 2.758424966283658E9 ; 2.8720250734708557E10 ; 0.0
152 ; 1.796122424689087E7 ; 2.0136420119552472E8 ; 2.7763981770004516E9 ; 2.8921609251845383E10 ; 0.0
153 ; 1.794971654368792E7 ; 2.0136987202511662E8 ; 2.7943594012473426E9 ; 2.912297345304091E10 ; 0.0
154 ; 1.793337146009966E7 ; 2.0137552940641177E8 ; 2.8123091177910304E9 ; 2.9324343325066025E10 ; 0.0
155 ; 1.7922009457143545E7 ; 2.013811731230648E8 ; 2.83024248925113E9 ; 2.9525718854472435E10 ; 0.0
156 ; 1.7909742865879692E7 ; 2.0138680296150672E8 ; 2.848164498708274E9 ; 2.97271000275955E10 ; 0.0
157 ; 1.7894671882252898E7 ; 2.013924187108786E8 ; 2.8660742415741534E9 ; 2.9928486830557007E10 ; 0.0
158 ; 1.788338997055041E7 ; 2.0139802016296747E8 ; 2.883968913456406E9 ; 3.0129879249267887E10 ; 0.0
159 ; 1.7871254776294027E7 ; 2.0140360711214438E8 ; 2.9018523034269567E9 ; 3.0331277269430855E10 ; 0.0
160 ; 1.7855411304878235E7 ; 2.014091793553045E8 ; 2.919723558203251E9 ; 3.0532680876543E10 ; 0.0
161 ; 1.784428409462926E7 ; 2.014147366918094E8 ; 2.937578969508129E9 ; 3.0734090055898304E10 ; 0.0
162 ; 1.7831363044596367E7 ; 2.0142027892343083E8 ; 2.9554232536027584E9 ; 3.0935504792590115E10 ; 0.0
163 ; 1.781868357510269E7 ; 2.0142580585429695E8 ; 2.9732546166473546E9 ; 3.1136925071513546E10 ; 0.0
164 ; 1.7810420879024033E7 ; 2.0143131729083982E8 ; 2.9910733002224574E9 ; 3.1338350877367844E10 ; 0.0
165 ; 1.7791893894153442E7 ; 2.0143681304174504E8 ; 3.0088837211014814E9 ; 3.1539782194658684E10 ; 0.0
166 ; 1.777573952987092E7 ; 2.0144229291790265E8 ; 3.026675614995635E9 ; 3.1741219007700428E10 ; 0.0
167 ; 1.7760701821547356E7 ; 2.0144775673235992E8 ; 3.044451354525506E9 ; 3.1942661300618332E10 ; 0.0
168 ; 1.774835708074482E7 ; 2.0145320430027574E8 ; 3.0622120563470535E9 ; 3.2144109057350693E10 ; 0.0
169 ; 1.7737682418506946E7 ; 2.0145863543887624E8 ; 3.0799604134277983E9 ; 3.2345562261650967E10 ; 0.0
170 ; 1.77233824434094E7 ; 2.0146404996741194E8 ; 3.0976980958463054E9 ; 3.2547020897089844E10 ; 0.0
171 ; 1.7708410518175486E7 ; 2.0146944770711648E8 ; 3.115421478289715E9 ; 3.2748484947057255E10 ; 0.0
172 ; 1.7693053671656113E7 ; 2.0147482848116657E8 ; 3.1331298888078904E9 ; 3.294995439476437E10 ; 0.0
173 ; 1.7684775504261218E7 ; 2.0148019211464307E8 ; 3.1508229424795465E9 ; 3.3151429223245537E10 ; 0.0
174 ; 1.767295102216731E7 ; 2.014855384344935E8 ; 3.1685077179838076E9 ; 3.335290941536018E10 ; 0.0
175 ; 1.7669746786625616E7 ; 2.014908672694959E8 ; 3.186180669005975E9 ; 3.3554394953794674E10 ; 0.0
176 ; 1.7656258911910363E7 ; 2.014961784502235E8 ; 3.2038504157926E9 ; 3.375588582106417E10 ; 0.0
177 ; 1.76516229629104E7 ; 2.0150147180901068E8 ; 3.2215066747045107E9 ; 3.3957381999514393E10 ; 0.0
178 ; 1.764234477612138E7 ; 2.0150674717992026E8 ; 3.239158297667421E9 ; 3.4158883471323402E10 ; 0.0
179 ; 1.7633066433799006E7 ; 2.015120043987113E8 ; 3.2568006424435425E9 ; 3.436039021850333E10 ; 0.0
180 ; 1.7622897772805065E7 ; 2.015172433028085E8 ; 3.2744337088773413E9 ; 3.456190222290204E10 ; 0.0
181 ; 1.761538038272574E7 ; 2.0152246373127207E8 ; 3.2920566066501465E9 ; 3.476341946620485E10 ; 0.0
182 ; 1.7607270767901476E7 ; 2.01527665524769E8 ; 3.309671987032872E9 ; 3.496494192993612E10 ; 0.0
183 ; 1.760050483936301E7 ; 2.0153284852554482E8 ; 3.3272792578007736E9 ; 3.516646959546089E10 ; 0.0
184 ; 1.7591740767357547E7 ; 2.0153801257739663E8 ; 3.3448797626401367E9 ; 3.5368002443986435E10 ; 0.0
185 ; 1.7581393973869663E7 ; 2.0154315752564657E8 ; 3.362471503407494E9 ; 3.5569540456563835E10 ; 0.0
186 ; 1.757535645138436E7 ; 2.0154828321711653E8 ; 3.380052897381364E9 ; 3.5771083614089485E10 ; 0.0
187 ; 1.7564255624273278E7 ; 2.0155338950010344E8 ; 3.3976282538327484E9 ; 3.59726318973066E10 ; 0.0
188 ; 1.7557494063526787E7 ; 2.0155847622435522E8 ; 3.4151925094570217E9 ; 3.617418528680671E10 ; 0.0
189 ; 1.7547559780498322E7 ; 2.0156354324104774E8 ; 3.4327500035205483E9 ; 3.637574376303107E10 ; 0.0
190 ; 1.7541545191075828E7 ; 2.0156859040276232E8 ; 3.450297563301047E9 ; 3.657730730627212E10 ; 0.0
191 ; 1.7528911556609914E7 ; 2.0157361756346396E8 ; 3.4678391084921227E9 ; 3.677887589667488E10 ; 0.0
192 ; 1.7517229480916373E7 ; 2.015786245784803E8 ; 3.4853680200487328E9 ; 3.698044951423834E10 ; 0.0
193 ; 1.751266611150106E7 ; 2.0158361130448112E8 ; 3.5028852495296493E9 ; 3.7182028138816826E10 ; 0.0
194 ; 1.7501087381141055E7 ; 2.0158857759945858E8 ; 3.5203979156411505E9 ; 3.738361175012131E10 ; 0.0
195 ; 1.7498191393976424E7 ; 2.01593523322708E8 ; 3.5378990030222917E9 ; 3.7585200327720764E10 ; 0.0
