CSV File for the City 4 on Day 88
1 - Minute m 
2 - Power Consumed at minute m 
3 - Power Produced at minute m 
4 - Energy Consumed since the beginning of the day 
5 - Energy Produced since the beginning of the day 
6 - Energy Lost since the beginning of the day on lines starting from the city
 
0 ; 6837061.38484214 ; 1.061732094577994E8 ; 0.0 ; 0.0 ; 0.0
1 ; 6844782.817041765 ; 1.063237477637536E8 ; 6837061.38484214 ; 1.061732094577994E8 ; 0.0
2 ; 6851592.979764085 ; 1.0678331337230667E8 ; 1.3681844201883905E7 ; 2.12496957221553E8 ; 0.0
3 ; 6860274.625993237 ; 1.0755191046409899E8 ; 2.053343718164799E7 ; 3.192802705938597E8 ; 0.0
4 ; 6868224.297893429 ; 1.0862954278716981E8 ; 2.7393711807641227E7 ; 4.2683218105795866E8 ; 0.0
5 ; 6881540.109698889 ; 1.1001621363570613E8 ; 3.426193610553466E7 ; 5.354617238451285E8 ; 0.0
6 ; 6895885.026637565 ; 1.1171192583099797E8 ; 4.114347621523355E7 ; 6.454779374808346E8 ; 0.0
7 ; 6920051.83916857 ; 1.1371668170485419E8 ; 4.803936124187112E7 ; 7.571898633118325E8 ; 0.0
8 ; 6953548.6167737935 ; 1.1603048308570403E8 ; 5.495941308103969E7 ; 8.709065450166867E8 ; 0.0
9 ; 7003687.05502985 ; 1.1865333128757733E8 ; 6.191296169781348E7 ; 9.869370281023908E8 ; 0.0
10 ; 7084217.339130043 ; 1.2158522710211885E8 ; 6.891664875284334E7 ; 1.1055903593899682E9 ; 0.0
11 ; 7203105.932994844 ; 1.248261707937502E8 ; 7.600086609197338E7 ; 1.227175586492087E9 ; 0.0
12 ; 7402925.40854745 ; 1.2837616209804973E8 ; 8.320397202496822E7 ; 1.3520017572858372E9 ; 0.0
13 ; 7595666.798378912 ; 1.322352002233727E8 ; 9.060689743351567E7 ; 1.4803779193838868E9 ; 0.0
14 ; 7611796.236453459 ; 1.3640328385568935E8 ; 9.820256423189458E7 ; 1.6126131196072595E9 ; 0.0
15 ; 7625088.818587917 ; 1.408804111665703E8 ; 1.0581436046834804E8 ; 1.7490164034629488E9 ; 0.0
16 ; 7633921.466659165 ; 1.4566657982420686E8 ; 1.1343944928693596E8 ; 1.889896814629519E9 ; 0.0
17 ; 7641215.247822373 ; 1.5076178700730887E8 ; 1.2107337075359511E8 ; 2.0355633944537258E9 ; 0.0
18 ; 7653869.2326471275 ; 1.561660294216894E8 ; 1.2871458600141749E8 ; 2.186325181461035E9 ; 0.0
19 ; 7659700.895791191 ; 1.6187930331930915E8 ; 1.363684552340646E8 ; 2.3424912108827243E9 ; 0.0
20 ; 7667934.1767034745 ; 1.6790160451952776E8 ; 1.440281561298558E8 ; 2.5043705142020335E9 ; 0.0
21 ; 7677735.459234747 ; 1.7423292843228802E8 ; 1.516960903065593E8 ; 2.6722721187215614E9 ; 0.0
22 ; 7688736.112127877 ; 1.8087327008294296E8 ; 1.5937382576579404E8 ; 2.8465050471538496E9 ; 0.0
23 ; 7696292.730256258 ; 1.8782262413842648E8 ; 1.670625618779219E8 ; 3.0273783172367926E9 ; 0.0
24 ; 7705034.833853874 ; 1.9508098493446565E8 ; 1.7475885460817817E8 ; 3.215200941375219E9 ; 0.0
25 ; 7713205.980552274 ; 2.0133638740171924E8 ; 1.8246388944203204E8 ; 3.4102819263096848E9 ; 0.0
26 ; 7723218.1640878655 ; 2.0134237313107872E8 ; 1.9017709542258433E8 ; 3.611618313711404E9 ; 0.0
27 ; 7730882.374272226 ; 2.0134870492714894E8 ; 1.979003135866722E8 ; 3.8129606868424826E9 ; 0.0
28 ; 7741740.818359231 ; 2.0135537608350697E8 ; 2.056311959609444E8 ; 4.0143093917696314E9 ; 0.0
29 ; 7749967.8681609 ; 2.0136237970410097E8 ; 2.1337293677930364E8 ; 4.2156647678531384E9 ; 0.0
30 ; 7758068.637110819 ; 2.0136970873084998E8 ; 2.2112290464746454E8 ; 4.41702714755724E9 ; 0.0
31 ; 7768719.680244762 ; 2.01377355970495E8 ; 2.2888097328457537E8 ; 4.61839685628809E9 ; 0.0
32 ; 7774688.263966665 ; 2.0138531412052906E8 ; 2.3664969296482015E8 ; 4.819774212258585E9 ; 0.0
33 ; 7781992.933197391 ; 2.0139357579406238E8 ; 2.4442438122878683E8 ; 5.021159526379114E9 ; 0.0
34 ; 7788433.26012047 ; 2.0140213354350212E8 ; 2.522063741619842E8 ; 5.222553102173177E9 ; 0.0
35 ; 7797732.551909079 ; 2.0141097988295177E8 ; 2.599948074221047E8 ; 5.423955235716679E9 ; 0.0
36 ; 7801484.182531048 ; 2.0142010730925885E8 ; 2.6779253997401378E8 ; 5.62536621559963E9 ; 0.0
37 ; 7810781.435232401 ; 2.0142950832166195E8 ; 2.755940241565448E8 ; 5.826786322908889E9 ; 0.0
38 ; 7818085.127229683 ; 2.0143917544000745E8 ; 2.834048055917772E8 ; 6.028215831230551E9 ; 0.0
39 ; 7822944.360840597 ; 2.0144910122152665E8 ; 2.912228907190069E8 ; 6.229655006670558E9 ; 0.0
40 ; 7830008.912345281 ; 2.0145927827617848E8 ; 2.990458350798475E8 ; 6.431104107892085E9 ; 0.0
41 ; 7836435.56630593 ; 2.0146969928057894E8 ; 3.068758439921928E8 ; 6.632563386168263E9 ; 0.0
42 ; 7840380.237290324 ; 2.014803569905501E8 ; 3.1471227955849874E8 ; 6.834033085448842E9 ; 0.0
43 ; 7845331.483229065 ; 2.0149124425233185E8 ; 3.2255265979578906E8 ; 7.035513442439392E9 ; 0.0
44 ; 7849700.084597056 ; 2.0150235401250833E8 ; 3.303979912790181E8 ; 7.237004686691724E9 ; 0.0
45 ; 7855788.246304352 ; 2.015136793267076E8 ; 3.3824769136361516E8 ; 7.438507040704232E9 ; 0.0
46 ; 7860024.109620672 ; 2.0152521336713785E8 ; 3.461034796099195E8 ; 7.64002072003094E9 ; 0.0
47 ; 7864422.359663104 ; 2.015369494290278E8 ; 3.539635037195402E8 ; 7.841545933398078E9 ; 0.0
48 ; 7867361.07288318 ; 2.0154888093604025E8 ; 3.618279260792033E8 ; 8.0430828828271055E9 ; 0.0
49 ; 7869803.829111861 ; 2.0156100144472945E8 ; 3.696952871520865E8 ; 8.244631763763145E9 ; 0.0
50 ; 7872630.29090114 ; 2.0157330464811307E8 ; 3.775650909811984E8 ; 8.446192765207875E9 ; 0.0
51 ; 7876264.309830222 ; 2.015857843784284E8 ; 3.854377212720995E8 ; 8.647766069855988E9 ; 0.0
52 ; 7878355.837326025 ; 2.0159843460914123E8 ; 3.9331398558192974E8 ; 8.849351854234415E9 ; 0.0
53 ; 7880775.369766514 ; 2.0161124945627382E8 ; 4.011923414192558E8 ; 9.050950288843555E9 ; 0.0
54 ; 7880744.862929264 ; 2.0162422317911565E8 ; 4.090731167890223E8 ; 9.25256153829983E9 ; 0.0
55 ; 7883535.0529131275 ; 2.0163735018037805E8 ; 4.169538616519516E8 ; 9.454185761478945E9 ; 0.0
56 ; 7887687.865041389 ; 2.0165062500585032E8 ; 4.2483739670486474E8 ; 9.655823111659323E9 ; 0.0
57 ; 7887839.113321217 ; 2.016640423436122E8 ; 4.327250845699061E8 ; 9.857473736665173E9 ; 0.0
58 ; 7892887.915414938 ; 2.0167759702285358E8 ; 4.4061292368322736E8 ; 1.0059137779008785E10 ; 0.0
59 ; 7894889.154188668 ; 2.0169128401234928E8 ; 4.485058115986423E8 ; 1.026081537603164E10 ; 0.0
60 ; 7894461.027369753 ; 2.0170509841863325E8 ; 4.56400700752831E8 ; 1.046250666004399E10 ; 0.0
61 ; 7897957.43345373 ; 2.01719035483913E8 ; 4.642951617802007E8 ; 1.0664211758462622E10 ; 0.0
62 ; 7898212.6855218345 ; 2.0173309058376202E8 ; 4.7219311921365446E8 ; 1.0865930793946535E10 ; 0.0
63 ; 7898805.2845437685 ; 2.017472592246247E8 ; 4.800913318991763E8 ; 1.1067663884530296E10 ; 0.0
64 ; 7901723.692971173 ; 2.0176153704116502E8 ; 4.8799013718372005E8 ; 1.1269411143754921E10 ; 0.0
65 ; 7904844.283748446 ; 2.0177591979348803E8 ; 4.958918608766912E8 ; 1.1471172680796085E10 ; 0.0
66 ; 7906050.418682541 ; 2.0179040336425915E8 ; 5.0379670516043967E8 ; 1.1672948600589573E10 ; 0.0
67 ; 7904140.044019883 ; 2.018049837557456E8 ; 5.117027555791222E8 ; 1.1874739003953833E10 ; 0.0
68 ; 7909080.609836993 ; 2.0181965708679995E8 ; 5.1960689562314206E8 ; 1.2076543987709578E10 ; 0.0
69 ; 7911163.238653925 ; 2.0183441958980492E8 ; 5.2751597623297906E8 ; 1.2278363644796377E10 ; 0.0
70 ; 7911035.927305876 ; 2.0184926760759598E8 ; 5.3542713947163296E8 ; 1.2480198064386183E10 ; 0.0
71 ; 7911879.178502393 ; 2.0186419759037608E8 ; 5.433381753989388E8 ; 1.2682047331993778E10 ; 0.0
72 ; 7912877.569134898 ; 2.0187920609263593E8 ; 5.512500545774412E8 ; 1.2883911529584154E10 ; 0.0
73 ; 7916592.52367209 ; 2.018942897700907E8 ; 5.591629321465762E8 ; 1.308579073567679E10 ; 0.0
74 ; 7915295.537441044 ; 2.019094453766431E8 ; 5.670795246702483E8 ; 1.328768502544688E10 ; 0.0
75 ; 7913742.5314077 ; 2.0192466976138154E8 ; 5.749948202076893E8 ; 1.3489594470823523E10 ; 0.0
76 ; 7915143.5622706795 ; 2.0193995986562032E8 ; 5.82908562739097E8 ; 1.3691519140584904E10 ; 0.0
77 ; 7913801.15624013 ; 2.019553127199881E8 ; 5.908237063013676E8 ; 1.3893459100450523E10 ; 0.0
78 ; 7918053.201799121 ; 2.0197072544157028E8 ; 5.987375074576077E8 ; 1.4095414413170511E10 ; 0.0
79 ; 7913960.364107535 ; 2.0198619523110875E8 ; 6.066555606594069E8 ; 1.4297385138612082E10 ; 0.0
80 ; 7913267.476978089 ; 2.020017193702635E8 ; 6.145695210235144E8 ; 1.4499371333843191E10 ; 0.0
81 ; 7910071.721207782 ; 2.0201729521893778E8 ; 6.224827885004925E8 ; 1.4701373053213455E10 ; 0.0
82 ; 7907600.345477727 ; 2.0203292021267033E8 ; 6.303928602217002E8 ; 1.4903390348432392E10 ; 0.0
83 ; 7904359.710122766 ; 2.020485918600949E8 ; 6.383004605671779E8 ; 1.5105423268645061E10 ; 0.0
84 ; 7903114.662554294 ; 2.0206430774046907E8 ; 6.462048202773007E8 ; 1.5307471860505156E10 ; 0.0
85 ; 7903439.837131748 ; 2.0208006550127286E8 ; 6.54107934939855E8 ; 1.5509536168245625E10 ; 0.0
86 ; 7898776.788263737 ; 2.0209586285587707E8 ; 6.620113747769867E8 ; 1.5711616233746897E10 ; 0.0
87 ; 7897609.458543314 ; 2.0211169758128184E8 ; 6.699101515652504E8 ; 1.5913712096602774E10 ; 0.0
88 ; 7895452.974751893 ; 2.0212756751592466E8 ; 6.778077610237937E8 ; 1.6115823794184055E10 ; 0.0
89 ; 7894595.899033458 ; 2.0214347055755755E8 ; 6.857032139985456E8 ; 1.631795136169998E10 ; 0.0
90 ; 7891099.868533291 ; 2.0215940466119236E8 ; 6.935978098975791E8 ; 1.6520094832257538E10 ; 0.0
91 ; 7889156.89662073 ; 2.0217536783711338E8 ; 7.014889097661123E8 ; 1.672225423691873E10 ; 0.0
92 ; 7885501.190786038 ; 2.0219135814895627E8 ; 7.093780666627331E8 ; 1.6924429604755844E10 ; 0.0
93 ; 7881654.218173148 ; 2.022073737118516E8 ; 7.172635678535191E8 ; 1.71266209629048E10 ; 0.0
94 ; 7880003.677670901 ; 2.0222341269063208E8 ; 7.251452220716922E8 ; 1.7328828336616653E10 ; 0.0
95 ; 7878596.467059188 ; 2.0223947329810202E8 ; 7.330252257493632E8 ; 1.7531051749307285E10 ; 0.0
96 ; 7874828.968759815 ; 2.022555537933671E8 ; 7.409038222164223E8 ; 1.773329122260539E10 ; 0.0
97 ; 7867604.204951443 ; 2.0227165248022327E8 ; 7.487786511851821E8 ; 1.7935546776398754E10 ; 0.0
98 ; 7867843.092106217 ; 2.022877677056033E8 ; 7.566462553901335E8 ; 1.813781842887898E10 ; 0.0
99 ; 7864702.532128733 ; 2.0230389785807878E8 ; 7.645140984822397E8 ; 1.8340106196584583E10 ; 0.0
100 ; 7862765.804624614 ; 2.0232004136641654E8 ; 7.723788010143684E8 ; 1.854241009444266E10 ; 0.0
101 ; 7860471.77946874 ; 2.0233619669818762E8 ; 7.80241566818993E8 ; 1.874473013580908E10 ; 0.0
102 ; 7856150.073438826 ; 2.0235236235842687E8 ; 7.881020385984617E8 ; 1.8947066332507267E10 ; 0.0
103 ; 7853029.966585815 ; 2.0236853688834226E8 ; 7.959581886719006E8 ; 1.9149418694865692E10 ; 0.0
104 ; 7849642.72234226 ; 2.0238471886407143E8 ; 8.038112186384864E8 ; 1.9351787231754036E10 ; 0.0
105 ; 7845961.717671798 ; 2.024009068954846E8 ; 8.116608613608286E8 ; 1.9554171950618107E10 ; 0.0
106 ; 7841436.487223158 ; 2.0241709962503186E8 ; 8.195068230785004E8 ; 1.975657285751359E10 ; 0.0
107 ; 7837726.428971617 ; 2.024332957266335E8 ; 8.273482595657235E8 ; 1.9958989957138622E10 ; 0.0
108 ; 7835916.713982206 ; 2.0244949390461168E8 ; 8.351859859946952E8 ; 2.0161423252865257E10 ; 0.0
109 ; 7829641.179316242 ; 2.024656928926623E8 ; 8.430219027086774E8 ; 2.036387274676987E10 ; 0.0
110 ; 7830091.472815728 ; 2.0248189145286524E8 ; 8.508515438879937E8 ; 2.0566338439662533E10 ; 0.0
111 ; 7820737.198429832 ; 2.0249808837473193E8 ; 8.586816353608094E8 ; 2.07688203311154E10 ; 0.0
112 ; 7817665.2269819975 ; 2.0251428247428846E8 ; 8.665023725592393E8 ; 2.097131841949013E10 ; 0.0
113 ; 7816685.1912951935 ; 2.0253047259319356E8 ; 8.743200377862213E8 ; 2.117383270196442E10 ; 0.0
114 ; 7812216.178016314 ; 2.0254665759788936E8 ; 8.821367229775164E8 ; 2.1376363174557613E10 ; 0.0
115 ; 7804838.48957775 ; 2.0256283637878433E8 ; 8.899489391555327E8 ; 2.1578909832155502E10 ; 0.0
116 ; 7804925.2788797645 ; 2.0257900784946698E8 ; 8.977537776451105E8 ; 2.1781472668534286E10 ; 0.0
117 ; 7799227.390437762 ; 2.0259517094594902E8 ; 9.055587029239902E8 ; 2.1984051676383755E10 ; 0.0
118 ; 7796393.452652193 ; 2.0261132462593704E8 ; 9.13357930314428E8 ; 2.2186646847329704E10 ; 0.0
119 ; 7788974.193155843 ; 2.026274678681315E8 ; 9.211543237670802E8 ; 2.2389258171955643E10 ; 0.0
120 ; 7785232.058535348 ; 2.0264359967155212E8 ; 9.289432979602361E8 ; 2.2591885639823772E10 ; 0.0
121 ; 7780879.865340205 ; 2.0265971905488843E8 ; 9.367285300187714E8 ; 2.2794529239495323E10 ; 0.0
122 ; 7775354.877711438 ; 2.0267582505587485E8 ; 9.445094098841116E8 ; 2.2997188958550213E10 ; 0.0
123 ; 7771453.019660392 ; 2.026919167306888E8 ; 9.52284764761823E8 ; 2.3199864783606087E10 ; 0.0
124 ; 7769253.156385626 ; 2.0270799315337178E8 ; 9.600562177814834E8 ; 2.3402556700336777E10 ; 0.0
125 ; 7762866.463391029 ; 2.0272405341527143E8 ; 9.678254709378691E8 ; 2.3605264693490147E10 ; 0.0
126 ; 7757476.286302922 ; 2.027400966245049E8 ; 9.755883374012601E8 ; 2.380798874690542E10 ; 0.0
127 ; 7750556.054092917 ; 2.0275612190544185E8 ; 9.833458136875631E8 ; 2.4010728843529922E10 ; 0.0
128 ; 7747898.84611881 ; 2.0277212839820668E8 ; 9.91096369741656E8 ; 2.4213484965435364E10 ; 0.0
129 ; 7742862.4629209135 ; 2.0278811525819927E8 ; 9.988442685877748E8 ; 2.441625709383357E10 ; 0.0
130 ; 7733849.573560423 ; 2.0280408165563324E8 ; 1.0065871310506957E9 ; 2.4619045209091766E10 ; 0.0
131 ; 7728471.33440567 ; 2.0282002677509138E8 ; 1.0143209806242561E9 ; 2.48218492907474E10 ; 0.0
132 ; 7721087.4075741265 ; 2.0283594981509733E8 ; 1.0220494519586618E9 ; 2.502466931752249E10 ; 0.0
133 ; 7712316.041967165 ; 2.028518499877031E8 ; 1.029770539366236E9 ; 2.522750526733759E10 ; 0.0
134 ; 7704615.228294121 ; 2.0286772651809144E8 ; 1.0374828554082031E9 ; 2.543035711732529E10 ; 0.0
135 ; 7697100.952632055 ; 2.0288357864419293E8 ; 1.0451874706364973E9 ; 2.5633224843843384E10 ; 0.0
136 ; 7687229.61954756 ; 2.0289940561631697E8 ; 1.0528845715891293E9 ; 2.5836108422487576E10 ; 0.0
137 ; 7682189.361352723 ; 2.0291520669679606E8 ; 1.0605718012086769E9 ; 2.6039007828103893E10 ; 0.0
138 ; 7673072.658611095 ; 2.029309811596431E8 ; 1.0682539905700296E9 ; 2.624192303480069E10 ; 0.0
139 ; 7667984.067256085 ; 2.0294672829022095E8 ; 1.0759270632286408E9 ; 2.644485401596033E10 ; 0.0
140 ; 7660152.688356571 ; 2.0296244738492393E8 ; 1.0835950472958968E9 ; 2.6647800744250553E10 ; 0.0
141 ; 7647518.470367686 ; 2.029781377508709E8 ; 1.0912551999842534E9 ; 2.6850763191635475E10 ; 0.0
142 ; 7639367.023837473 ; 2.0299379870560905E8 ; 1.098902718454621E9 ; 2.7053741329386345E10 ; 0.0
143 ; 7631095.103269035 ; 2.0300942957682842E8 ; 1.1065420854784586E9 ; 2.7256735128091953E10 ; 0.0
144 ; 7619751.017899886 ; 2.0302502970208672E8 ; 1.1141731805817277E9 ; 2.745974455766878E10 ; 0.0
145 ; 7618285.215724184 ; 2.030405984285436E8 ; 1.1217929315996277E9 ; 2.766276958737087E10 ; 0.0
146 ; 7610762.814872101 ; 2.0305613511270475E8 ; 1.129411216815352E9 ; 2.786581018579941E10 ; 0.0
147 ; 7605835.236588939 ; 2.0307163912017453E8 ; 1.137021979630224E9 ; 2.8068866320912117E10 ; 0.0
148 ; 7600112.055644849 ; 2.0308710982541782E8 ; 1.144627814866813E9 ; 2.827193796003229E10 ; 0.0
149 ; 7593639.221245657 ; 2.031025466115298E8 ; 1.1522279269224577E9 ; 2.8475025069857708E10 ; 0.0
150 ; 7589669.296255777 ; 2.0311794887001404E8 ; 1.1598215661437035E9 ; 2.867812761646924E10 ; 0.0
151 ; 7582448.02554348 ; 2.031333160005683E8 ; 1.1674112354399593E9 ; 2.8881245565339252E10 ; 0.0
152 ; 7577373.043869457 ; 2.0314864741087767E8 ; 1.1749936834655027E9 ; 2.908437888133982E10 ; 0.0
153 ; 7571591.726093692 ; 2.03163942516415E8 ; 1.1825710565093722E9 ; 2.9287527528750698E10 ; 0.0
154 ; 7567193.995786519 ; 2.0317920074024817E8 ; 1.190142648235466E9 ; 2.9490691471267113E10 ; 0.0
155 ; 7560719.722638225 ; 2.0319442151285395E8 ; 1.1977098422312524E9 ; 2.9693870672007362E10 ; 0.0
156 ; 7552008.991848184 ; 2.0320960427193853E8 ; 1.2052705619538906E9 ; 2.9897065093520218E10 ; 0.0
157 ; 7546660.85077065 ; 2.032247484622637E8 ; 1.2128225709457388E9 ; 3.0100274697792156E10 ; 0.0
158 ; 7542966.2668237435 ; 2.0323985353547958E8 ; 1.2203692317965095E9 ; 3.030349944625442E10 ; 0.0
159 ; 7535407.441602583 ; 2.032549189499624E8 ; 1.2279121980633333E9 ; 3.05067392997899E10 ; 0.0
160 ; 7530036.255445142 ; 2.032699441706585E8 ; 1.2354476055049357E9 ; 3.0709994218739864E10 ; 0.0
161 ; 7522201.917841626 ; 2.0328492866893286E8 ; 1.242977641760381E9 ; 3.0913264162910522E10 ; 0.0
162 ; 7516759.23000995 ; 2.032998719224234E8 ; 1.2504998436782227E9 ; 3.1116549091579456E10 ; 0.0
163 ; 7509933.109947795 ; 2.0331477341489974E8 ; 1.2580166029082327E9 ; 3.131984896350188E10 ; 0.0
164 ; 7506115.717987056 ; 2.0332963263612697E8 ; 1.2655265360181804E9 ; 3.152316373691678E10 ; 0.0
165 ; 7497112.541566813 ; 2.033444490817338E8 ; 1.2730326517361674E9 ; 3.1726493369552906E10 ; 0.0
166 ; 7491843.741472085 ; 2.0335922225308523E8 ; 1.2805297642777343E9 ; 3.192983781863464E10 ; 0.0
167 ; 7488337.498649931 ; 2.0337395165715936E8 ; 1.2880216080192063E9 ; 3.2133197040887726E10 ; 0.0
168 ; 7480487.718280673 ; 2.0338863680642846E8 ; 1.2955099455178561E9 ; 3.2336570992544884E10 ; 0.0
169 ; 7472046.296108366 ; 2.0340327721874368E8 ; 1.302990433236137E9 ; 3.253995962935131E10 ; 0.0
170 ; 7467250.145728899 ; 2.034178724172239E8 ; 1.3104624795322454E9 ; 3.2743362906570053E10 ; 0.0
171 ; 7462262.823303998 ; 2.0343242193014798E8 ; 1.3179297296779742E9 ; 3.2946780778987278E10 ; 0.0
172 ; 7453862.245939552 ; 2.034469252908507E8 ; 1.3253919925012782E9 ; 3.3150213200917427E10 ; 0.0
173 ; 7448260.733508915 ; 2.0346138203762197E8 ; 1.3328458547472177E9 ; 3.335366012620828E10 ; 0.0
174 ; 7446694.58699363 ; 2.0347579171360958E8 ; 1.3402941154807265E9 ; 3.35571215082459E10 ; 0.0
175 ; 7441583.194030648 ; 2.0349015386672467E8 ; 1.3477408100677202E9 ; 3.3760597299959507E10 ; 0.0
176 ; 7437162.187185774 ; 2.0350446804955083E8 ; 1.355182393261751E9 ; 3.3964087453826233E10 ; 0.0
177 ; 7433904.345604496 ; 2.0351873381925565E8 ; 1.3626195554489367E9 ; 3.4167591921875782E10 ; 0.0
178 ; 7428230.001102128 ; 2.035329507375054E8 ; 1.3700534597945411E9 ; 3.437111065569504E10 ; 0.0
179 ; 7423712.984384308 ; 2.0354711837038246E8 ; 1.3774816897956433E9 ; 3.457464360643254E10 ; 0.0
180 ; 7420877.556539057 ; 2.0356123628830522E8 ; 1.3849054027800276E9 ; 3.4778190724802925E10 ; 0.0
181 ; 7418224.299668965 ; 2.0357530406595072E8 ; 1.3923262803365667E9 ; 3.498175196109123E10 ; 0.0
182 ; 7413903.270401529 ; 2.0358932128217968E8 ; 1.3997445046362357E9 ; 3.518532726515718E10 ; 0.0
183 ; 7409082.9291106155 ; 2.03603287519964E8 ; 1.4071584079066372E9 ; 3.538891658643936E10 ; 0.0
184 ; 7405556.028625499 ; 2.036172023663164E8 ; 1.4145674908357477E9 ; 3.559251987395933E10 ; 0.0
185 ; 7399306.4164418485 ; 2.0363106541222253E8 ; 1.4219730468643732E9 ; 3.5796137076325645E10 ; 0.0
186 ; 7397734.945956216 ; 2.03644876252575E8 ; 1.4293723532808151E9 ; 3.599976814173787E10 ; 0.0
187 ; 7393745.53543461 ; 2.036586344861097E8 ; 1.4367700882267714E9 ; 3.620341301799045E10 ; 0.0
188 ; 7389786.277277486 ; 2.0367233971534392E8 ; 1.444163833762206E9 ; 3.6407071652476555E10 ; 0.0
189 ; 7385434.092114063 ; 2.036859915465166E8 ; 1.4515536200394835E9 ; 3.66107439921919E10 ; 0.0
190 ; 7381867.570623153 ; 2.0369958958953035E8 ; 1.4589390541315975E9 ; 3.681442998373842E10 ; 0.0
191 ; 7375728.847615405 ; 2.0371313345789528E8 ; 1.4663209217022207E9 ; 3.701812957332795E10 ; 0.0
192 ; 7375511.348372865 ; 2.0372662276867476E8 ; 1.4736966505498362E9 ; 3.722184270678584E10 ; 0.0
193 ; 7368134.635335419 ; 2.0374005714243248E8 ; 1.481072161898209E9 ; 3.742556932955452E10 ; 0.0
194 ; 7366311.659077623 ; 2.0375343620318168E8 ; 1.4884402965335445E9 ; 3.762930938669695E10 ; 0.0
195 ; 7362689.626716272 ; 2.037667595783355E8 ; 1.4958066081926222E9 ; 3.783306282290013E10 ; 0.0
196 ; 7356546.04523679 ; 2.037800268986591E8 ; 1.5031692978193386E9 ; 3.803682958247847E10 ; 0.0
197 ; 7355920.540710423 ; 2.0379323779822335E8 ; 1.5105258438645754E9 ; 3.824060960937713E10 ; 0.0
198 ; 7352442.594338759 ; 2.0380639191435954E8 ; 1.5178817644052858E9 ; 3.8444402847175354E10 ; 0.0
199 ; 7346538.443136119 ; 2.0381948888761604E8 ; 1.5252342069996245E9 ; 3.8648209239089714E10 ; 0.0
200 ; 7343591.070678409 ; 1.795678789809679E8 ; 1.5325807454427607E9 ; 3.885202872797733E10 ; 0.0
201 ; 7336646.160991389 ; 1.550055167646599E8 ; 1.5399243365134392E9 ; 3.90315966069583E10 ; 0.0
