CSV File for the City 6 on Day 315
1 - Minute m 
2 - Power Consumed at minute m 
3 - Power Produced at minute m 
4 - Energy Consumed since the beginning of the day 
5 - Energy Produced since the beginning of the day 
6 - Energy Lost since the beginning of the day on lines starting from the city
 
0 ; 1.1282724463723509E7 ; 1.0673968661736086E8 ; 0.0 ; 0.0 ; 0.0
1 ; 1.1294618914666988E7 ; 1.0689033684565556E8 ; 1.1282724463723509E7 ; 1.0673968661736086E8 ; 0.0
2 ; 1.1310866936474431E7 ; 1.0735000742330739E8 ; 2.25773433783905E7 ; 2.1363002346301642E8 ; 0.0
3 ; 1.1318604250743624E7 ; 1.081187009845165E8 ; 3.388821031486493E7 ; 3.209800308863238E8 ; 0.0
4 ; 1.1336279990867147E7 ; 1.0919641987665641E8 ; 4.520681456560856E7 ; 4.290987318708403E8 ; 0.0
5 ; 1.135650105376271E7 ; 1.1058316615185201E8 ; 5.654309455647571E7 ; 5.382951517474967E8 ; 0.0
6 ; 1.1383877927237257E7 ; 1.1227894155952796E8 ; 6.789959561023842E7 ; 6.488783178993487E8 ; 0.0
7 ; 1.1422653154588394E7 ; 1.1428374753999007E8 ; 7.928347353747568E7 ; 7.611572594588767E8 ; 0.0
8 ; 1.1479591529471975E7 ; 1.1659758521909523E8 ; 9.070612669206408E7 ; 8.754410069988668E8 ; 0.0
9 ; 1.1558489269455755E7 ; 1.1922045540405595E8 ; 1.0218571822153606E8 ; 9.92038592217962E8 ; 0.0
10 ; 1.168372698093802E7 ; 1.2215235858041662E8 ; 1.1374420749099182E8 ; 1.1112590476220179E9 ; 0.0
11 ; 1.188219517319644E7 ; 1.2539329491022882E8 ; 1.2542793447192983E8 ; 1.2334114062024345E9 ; 0.0
12 ; 1.2199691645731887E7 ; 1.2894326423144093E8 ; 1.3731012964512628E8 ; 1.3588047011126633E9 ; 0.0
13 ; 1.2504547917092944E7 ; 1.3280226605850857E8 ; 1.4950982129085818E8 ; 1.4877479653441043E9 ; 0.0
14 ; 1.2541877929894447E7 ; 1.3697029958421934E8 ; 1.6201436920795113E8 ; 1.620550231402613E9 ; 0.0
15 ; 1.2553938161418136E7 ; 1.414473636827162E8 ; 1.7455624713784558E8 ; 1.7575205309868321E9 ; 0.0
16 ; 1.2571675608117884E7 ; 1.4623345691369346E8 ; 1.8711018529926372E8 ; 1.8989678946695483E9 ; 0.0
17 ; 1.2587446693187177E7 ; 1.5132857752772638E8 ; 1.996818609073816E8 ; 2.0452013515832417E9 ; 0.0
18 ; 1.2599443522890424E7 ; 1.567327234726901E8 ; 2.1226930760056877E8 ; 2.196529929110968E9 ; 0.0
19 ; 1.2613155892061053E7 ; 1.624458924012111E8 ; 2.248687511234592E8 ; 2.353262652583658E9 ; 0.0
20 ; 1.2635650270015985E7 ; 1.6846808167908922E8 ; 2.3748190701552024E8 ; 2.5157085449848695E9 ; 0.0
21 ; 1.2651017829977615E7 ; 1.7479928839461836E8 ; 2.5011755728553623E8 ; 2.6841766266639585E9 ; 0.0
22 ; 1.266205731295007E7 ; 1.8143950936873144E8 ; 2.6276857511551383E8 ; 2.858975915058577E9 ; 0.0
23 ; 1.267911125489571E7 ; 1.8838874116588712E8 ; 2.754306324284639E8 ; 3.0404154244273086E9 ; 0.0
24 ; 1.2696121768598037E7 ; 1.956469801056142E8 ; 2.8810974368335956E8 ; 3.228804165593196E9 ; 0.0
25 ; 1.2708494949887628E7 ; 2.0190226317280897E8 ; 3.008058654519576E8 ; 3.42445114569881E9 ; 0.0
26 ; 1.2725488228385175E7 ; 2.0190813406722635E8 ; 3.135143604018452E8 ; 3.626353408871619E9 ; 0.0
27 ; 1.2736599624481792E7 ; 2.0191435774136937E8 ; 3.2623984863023037E8 ; 3.8282615429388456E9 ; 0.0
28 ; 1.2753991654484784E7 ; 2.0192092966055083E8 ; 3.3897644825471216E8 ; 4.030175900680215E9 ; 0.0
29 ; 1.2770915441289129E7 ; 2.0192784510964325E8 ; 3.51730439909197E8 ; 4.232096830340766E9 ; 0.0
30 ; 1.2783444777685875E7 ; 2.0193509920671448E8 ; 3.645013553504861E8 ; 4.434024675450409E9 ; 0.0
31 ; 1.2797435340536641E7 ; 2.0194268691671282E8 ; 3.77284800128172E8 ; 4.635959774657124E9 ; 0.0
32 ; 1.2811527408155177E7 ; 2.0195060306512454E8 ; 3.9008223546870863E8 ; 4.837902461573836E9 ; 0.0
33 ; 1.2824623519710226E7 ; 2.0195884235153034E8 ; 4.0289376287686384E8 ; 5.039853064638961E9 ; 0.0
34 ; 1.283939989669853E7 ; 2.0196739936299402E8 ; 4.157183863965741E8 ; 5.241811906990491E9 ; 0.0
35 ; 1.2853575651327971E7 ; 2.0197626858722013E8 ; 4.285577862932726E8 ; 5.443779306353485E9 ; 0.0
36 ; 1.2868538023033567E7 ; 2.019854444254248E8 ; 4.414113619446006E8 ; 5.645755574940705E9 ; 0.0
37 ; 1.2878200794039516E7 ; 2.0199492120486873E8 ; 4.5427989996763414E8 ; 5.84774101936613E9 ; 0.0
38 ; 1.2888888508795988E7 ; 2.0200469319100758E8 ; 4.671581007616736E8 ; 6.049735940570998E9 ; 0.0
39 ; 1.2900314023907607E7 ; 2.020147545992213E8 ; 4.800469892704696E8 ; 6.251740633762006E9 ; 0.0
40 ; 1.2909774402162272E7 ; 2.0202509960608944E8 ; 4.929473032943772E8 ; 6.453755388361227E9 ; 0.0
41 ; 1.2922382850600604E7 ; 2.0203572236018494E8 ; 5.0585707769653946E8 ; 6.655780487967317E9 ; 0.0
42 ; 1.2931418858310517E7 ; 2.0204661699236524E8 ; 5.1877946054714006E8 ; 6.857816210327501E9 ; 0.0
43 ; 1.2941668699243968E7 ; 2.0205777762554362E8 ; 5.317108794054506E8 ; 7.059862827319866E9 ; 0.0
44 ; 1.2945977490025206E7 ; 2.0206919838393E8 ; 5.446525481046946E8 ; 7.26192060494541E9 ; 0.0
45 ; 1.2958273557129396E7 ; 2.0208087340173316E8 ; 5.575985255947198E8 ; 7.46398980332934E9 ; 0.0
46 ; 1.2964450986559553E7 ; 2.0209279683132285E8 ; 5.705567991518492E8 ; 7.666070676731073E9 ; 0.0
47 ; 1.2970945168613771E7 ; 2.021049628508517E8 ; 5.835212501384087E8 ; 7.868163473562396E9 ; 0.0
48 ; 1.2979836156544264E7 ; 2.021173656713427E8 ; 5.964921953070225E8 ; 8.070268436413248E9 ; 0.0
49 ; 1.2984463499980003E7 ; 2.021299995432485E8 ; 6.094720314635667E8 ; 8.272385802084591E9 ; 0.0
50 ; 1.2989957841347128E7 ; 2.0214285876249442E8 ; 6.224564949635466E8 ; 8.474515801627839E9 ; 0.0
51 ; 1.2994188484978752E7 ; 2.021559376760169E8 ; 6.354464528048937E8 ; 8.676658660390333E9 ; 0.0
52 ; 1.3000403870593004E7 ; 2.0216923068681246E8 ; 6.484406412898725E8 ; 8.87881459806635E9 ; 0.0
53 ; 1.3005949191369936E7 ; 2.0218273225851384E8 ; 6.614410451604655E8 ; 9.080983828753164E9 ; 0.0
54 ; 1.3009762334333839E7 ; 2.0219643691951087E8 ; 6.744469943518354E8 ; 9.283166561011679E9 ; 0.0
55 ; 1.3018398189377122E7 ; 2.0221033926663515E8 ; 6.874567566861693E8 ; 9.48536299793119E9 ; 0.0
56 ; 1.3019916175443908E7 ; 2.0222443396842828E8 ; 7.004751548755463E8 ; 9.687573337197826E9 ; 0.0
57 ; 1.3024327372679645E7 ; 2.022387157680139E8 ; 7.134950710509902E8 ; 9.889797771166254E9 ; 0.0
58 ; 1.3030734992577514E7 ; 2.0225317948559424E8 ; 7.265193984236698E8 ; 1.0092036486934267E10 ; 0.0
59 ; 1.3032305390784327E7 ; 2.022678200205923E8 ; 7.395501334162474E8 ; 1.029428966641986E10 ; 0.0
60 ; 1.3039174752802372E7 ; 2.0228263235345975E8 ; 7.525824388070318E8 ; 1.0496557486440453E10 ; 0.0
61 ; 1.3041415465814041E7 ; 2.02297611547172E8 ; 7.656216135598341E8 ; 1.0698840118793913E10 ; 0.0
62 ; 1.3047612169607678E7 ; 2.0231275274843052E8 ; 7.786630290256481E8 ; 1.0901137730341085E10 ; 0.0
63 ; 1.3050521774687145E7 ; 2.0232805118859202E8 ; 7.917106411952558E8 ; 1.1103450483089516E10 ; 0.0
64 ; 1.3050621113587243E7 ; 2.023435021843442E8 ; 8.047611629699429E8 ; 1.1305778534278109E10 ; 0.0
65 ; 1.305326746384571E7 ; 2.023591011381471E8 ; 8.178117840835302E8 ; 1.1508122036462452E10 ; 0.0
66 ; 1.306095046889658E7 ; 2.0237484353845766E8 ; 8.308650515473759E8 ; 1.17104811376006E10 ; 0.0
67 ; 1.3063387755796654E7 ; 2.023907249597554E8 ; 8.439260020162725E8 ; 1.1912855981139057E10 ; 0.0
68 ; 1.3067441304977952E7 ; 2.0240674106238568E8 ; 8.569893897720692E8 ; 1.2115246706098812E10 ; 0.0
69 ; 1.3070770461760016E7 ; 2.0242288759223682E8 ; 8.700568310770471E8 ; 1.2317653447161198E10 ; 0.0
70 ; 1.3072798020633819E7 ; 2.0243916038026562E8 ; 8.831276015388072E8 ; 1.2520076334753435E10 ; 0.0
71 ; 1.307495035400468E7 ; 2.0245555534188637E8 ; 8.96200399559441E8 ; 1.2722515495133701E10 ; 0.0
72 ; 1.3078169742999177E7 ; 2.0247206847623634E8 ; 9.092753499134456E8 ; 1.2924971050475588E10 ; 0.0
73 ; 1.3082810779594472E7 ; 2.0248869586533085E8 ; 9.223535196564448E8 ; 1.3127443118951824E10 ; 0.0
74 ; 1.3083504063577026E7 ; 2.0250543367311972E8 ; 9.354363304360392E8 ; 1.3329931814817156E10 ; 0.0
75 ; 1.3088260083955104E7 ; 2.0252227814445662E8 ; 9.485198344996163E8 ; 1.3532437248490276E10 ; 0.0
76 ; 1.3093997569902493E7 ; 2.0253922560399133E8 ; 9.616080945835713E8 ; 1.3734959526634733E10 ; 0.0
77 ; 1.309579152539563E7 ; 2.0255627245499536E8 ; 9.747020921534739E8 ; 1.3937498752238724E10 ; 0.0
78 ; 1.3093934479682935E7 ; 2.0257341517812923E8 ; 9.877978836788695E8 ; 1.414005502469372E10 ; 0.0
79 ; 1.3088948811163316E7 ; 2.0259065033016065E8 ; 1.0008918181585524E9 ; 1.434262843987185E10 ; 0.0
80 ; 1.3090122305540076E7 ; 2.0260797454264072E8 ; 1.0139807669697157E9 ; 1.454521909020201E10 ; 0.0
81 ; 1.308392170402442E7 ; 2.0262538452054557E8 ; 1.0270708892752558E9 ; 1.474782706474465E10 ; 0.0
82 ; 1.308117889497881E7 ; 2.026428770408904E8 ; 1.0401548109792802E9 ; 1.4950452449265196E10 ; 0.0
83 ; 1.3081835125187924E7 ; 2.0266044895132124E8 ; 1.053235989874259E9 ; 1.5153095326306086E10 ; 0.0
84 ; 1.3080075602216642E7 ; 2.0267809716869062E8 ; 1.0663178249994469E9 ; 1.5355755775257406E10 ; 0.0
85 ; 1.3076104783299955E7 ; 2.0269581867762196E8 ; 1.0793979006016636E9 ; 1.5558433872426096E10 ; 0.0
86 ; 1.3073244333172033E7 ; 2.0271361052906722E8 ; 1.0924740053849635E9 ; 1.5761129691103718E10 ; 0.0
87 ; 1.3072898038251262E7 ; 2.0273146983886206E8 ; 1.1055472497181356E9 ; 1.5963843301632786E10 ; 0.0
88 ; 1.3071031868413309E7 ; 2.0274939378628242E8 ; 1.1186201477563868E9 ; 1.6166574771471647E10 ; 0.0
89 ; 1.306632258556836E7 ; 2.0276737961260566E8 ; 1.1316911796248E9 ; 1.6369324165257929E10 ; 0.0
90 ; 1.3068268188434878E7 ; 2.0278542461967933E8 ; 1.1447575022103684E9 ; 1.6572091544870535E10 ; 0.0
91 ; 1.3064065729040572E7 ; 2.028035261685007E8 ; 1.1578257703988032E9 ; 1.6774876969490213E10 ; 0.0
92 ; 1.3058410380513394E7 ; 2.028216816778089E8 ; 1.1708898361278439E9 ; 1.6977680495658714E10 ; 0.0
93 ; 1.3055345489897285E7 ; 2.0283988862269235E8 ; 1.1839482465083573E9 ; 1.7180502177336525E10 ; 0.0
94 ; 1.3053784469326982E7 ; 2.0285814453321284E8 ; 1.1970035919982545E9 ; 1.7383342065959217E10 ; 0.0
95 ; 1.3052897620298281E7 ; 2.0287644699304843E8 ; 1.2100573764675815E9 ; 1.758620021049243E10 ; 0.0
96 ; 1.3046509267998496E7 ; 2.028947936381564E8 ; 1.22311027408788E9 ; 1.778907665748548E10 ; 0.0
97 ; 1.3044165201334866E7 ; 2.0291318215545732E8 ; 1.2361567833558784E9 ; 1.799197145112364E10 ; 0.0
98 ; 1.3040472857191922E7 ; 2.0293161028154144E8 ; 1.2492009485572133E9 ; 1.8194884633279095E10 ; 0.0
99 ; 1.3041053301433763E7 ; 2.0295007580139858E8 ; 1.2622414214144053E9 ; 1.8397816243560635E10 ; 0.0
100 ; 1.301807825513024E7 ; 2.0296857654717168E8 ; 1.2752824747158391E9 ; 1.8600766319362034E10 ; 0.0
101 ; 1.3002141065659951E7 ; 2.0298711039693502E8 ; 1.2883005529709694E9 ; 1.8803734895909206E10 ; 0.0
102 ; 1.2982086885422507E7 ; 2.0300567527349752E8 ; 1.3013026940366294E9 ; 1.900672200630614E10 ; 0.0
103 ; 1.296359692536768E7 ; 2.030242691432312E8 ; 1.314284780922052E9 ; 1.920972768157964E10 ; 0.0
104 ; 1.2940458689100383E7 ; 2.0304289001492566E8 ; 1.3272483778474195E9 ; 1.941275195072287E10 ; 0.0
105 ; 1.2923723295383617E7 ; 2.030615359386679E8 ; 1.3401888365365198E9 ; 1.9615794840737797E10 ; 0.0
106 ; 1.2905460332155008E7 ; 2.0308020500474828E8 ; 1.3531125598319035E9 ; 1.9818856376676464E10 ; 0.0
107 ; 1.2881114205124907E7 ; 2.0309889534259227E8 ; 1.3660180201640584E9 ; 2.0021936581681213E10 ; 0.0
108 ; 1.2862387617114585E7 ; 2.0311760511971796E8 ; 1.3788991343691833E9 ; 2.0225035477023808E10 ; 0.0
109 ; 1.2841911629925847E7 ; 2.0313633254071918E8 ; 1.3917615219862978E9 ; 2.0428153082143524E10 ; 0.0
110 ; 1.2821906970411498E7 ; 2.031550758462742E8 ; 1.4046034336162238E9 ; 2.0631289414684242E10 ; 0.0
111 ; 1.2803579394853054E7 ; 2.0317383331217948E8 ; 1.4174253405866354E9 ; 2.0834444490530518E10 ; 0.0
112 ; 1.2782492544606097E7 ; 2.031926032484086E8 ; 1.4302289199814885E9 ; 2.1037618323842697E10 ; 0.0
113 ; 1.275930397494138E7 ; 2.0321138399819553E8 ; 1.4430114125260947E9 ; 2.1240810927091106E10 ; 0.0
114 ; 1.2739043795967687E7 ; 2.0323017393714255E8 ; 1.4557707165010362E9 ; 2.1444022311089302E10 ; 0.0
115 ; 1.2720780880825331E7 ; 2.0324897147235182E8 ; 1.4685097602970037E9 ; 2.1647252485026443E10 ; 0.0
116 ; 1.269953682761141E7 ; 2.032677750415806E8 ; 1.481230541177829E9 ; 2.1850501456498795E10 ; 0.0
117 ; 1.2675997004195333E7 ; 2.032865831124195E8 ; 1.4939300780054405E9 ; 2.2053769231540375E10 ; 0.0
118 ; 1.2656188223480225E7 ; 2.0330539418149358E8 ; 1.506606075009636E9 ; 2.2257055814652794E10 ; 0.0
119 ; 1.263338762869858E7 ; 2.0332420677368551E8 ; 1.5192622632331161E9 ; 2.2460361208834286E10 ; 0.0
120 ; 1.2611342936043167E7 ; 2.033430194413807E8 ; 1.5318956508618147E9 ; 2.266368541560797E10 ; 0.0
121 ; 1.259417217921375E7 ; 2.0336183076373354E8 ; 1.544506993797858E9 ; 2.286702843504935E10 ; 0.0
122 ; 1.2571864221095614E7 ; 2.0338063934595463E8 ; 1.5571011659770718E9 ; 2.3070390265813084E10 ; 0.0
123 ; 1.2547137521757709E7 ; 2.0339944381861854E8 ; 1.5696730301981673E9 ; 2.327377090515904E10 ; 0.0
124 ; 1.2527680935661677E7 ; 2.0341824283699107E8 ; 1.582220167719925E9 ; 2.3477170348977657E10 ; 0.0
125 ; 1.2505515288003938E7 ; 2.0343703508037633E8 ; 1.5947478486555867E9 ; 2.3680588591814648E10 ; 0.0
126 ; 1.2480799335526722E7 ; 2.034558192514826E8 ; 1.6072533639435906E9 ; 2.3884025626895023E10 ; 0.0
127 ; 1.246110727008186E7 ; 2.0347459407580674E8 ; 1.6197341632791173E9 ; 2.4087481446146507E10 ; 0.0
128 ; 1.2440234025517363E7 ; 2.0349335830103642E8 ; 1.632195270549199E9 ; 2.4290956040222313E10 ; 0.0
129 ; 1.2419671128960826E7 ; 2.0351211069647023E8 ; 1.6446355045747166E9 ; 2.449444939852335E10 ; 0.0
130 ; 1.2390562801681984E7 ; 2.035308500524546E8 ; 1.6570551757036774E9 ; 2.469796150921982E10 ; 0.0
131 ; 1.2366404683313841E7 ; 2.0354957517983744E8 ; 1.6694457385053594E9 ; 2.4901492359272274E10 ; 0.0
132 ; 1.23412705978616E7 ; 2.035682849094379E8 ; 1.6818121431886733E9 ; 2.510504193445211E10 ; 0.0
133 ; 1.2313521071589611E7 ; 2.03586978091532E8 ; 1.6941534137865348E9 ; 2.530861021936155E10 ; 0.0
134 ; 1.2287225456682103E7 ; 2.0360565359535334E8 ; 1.7064669348581245E9 ; 2.5512197197453083E10 ; 0.0
135 ; 1.225571251827389E7 ; 2.0362431030860892E8 ; 1.7187541603148067E9 ; 2.5715802851048435E10 ; 0.0
136 ; 1.223429340271712E7 ; 2.0364294713700926E8 ; 1.7310098728330805E9 ; 2.5919427161357044E10 ; 0.0
137 ; 1.2207301346597455E7 ; 2.036615630038125E8 ; 1.7432441662357976E9 ; 2.6123070108494053E10 ; 0.0
138 ; 1.2181502127079591E7 ; 2.0368015684938225E8 ; 1.755451467582395E9 ; 2.6326731671497864E10 ; 0.0
139 ; 1.2153857181975441E7 ; 2.0369872763075873E8 ; 1.7676329697094746E9 ; 2.6530411828347244E10 ; 0.0
140 ; 1.2125766414912125E7 ; 2.037172743212425E8 ; 1.77978682689145E9 ; 2.6734110555978004E10 ; 0.0
141 ; 1.2094420191895641E7 ; 2.03735795909991E8 ; 1.7919125933063622E9 ; 2.6937827830299248E10 ; 0.0
142 ; 1.2069804494692154E7 ; 2.0375429140162686E8 ; 1.8040070134982579E9 ; 2.714156362620924E10 ; 0.0
143 ; 1.2044237305701341E7 ; 2.0377275981585827E8 ; 1.81607681799295E9 ; 2.7345317917610867E10 ; 0.0
144 ; 1.2015906927456984E7 ; 2.0379120018711054E8 ; 1.8281210552986512E9 ; 2.7549090677426723E10 ; 0.0
145 ; 1.1993327781514267E7 ; 2.038096115641687E8 ; 1.8401369622261083E9 ; 2.7752881877613834E10 ; 0.0
146 ; 1.1968365776505625E7 ; 2.0382799300983095E8 ; 1.8521302900076225E9 ; 2.7956691489178E10 ; 0.0
147 ; 1.1947961195211854E7 ; 2.0384634360057256E8 ; 1.8640986557841282E9 ; 2.816051948218783E10 ; 0.0
148 ; 1.192103472057492E7 ; 2.0386466242621952E8 ; 1.87604661697934E9 ; 2.8364365825788403E10 ; 0.0
149 ; 1.1901839750317432E7 ; 2.0388294858963236E8 ; 1.887967651699915E9 ; 2.8568230488214622E10 ; 0.0
150 ; 1.1878258940319745E7 ; 2.039012012063993E8 ; 1.8998694914502323E9 ; 2.8772113436804256E10 ; 0.0
151 ; 1.1853167500081595E7 ; 2.0391941940453833E8 ; 1.911747750390552E9 ; 2.8976014638010654E10 ; 0.0
152 ; 1.183119035841851E7 ; 2.039376023242088E8 ; 1.9236009178906336E9 ; 2.917993405741519E10 ; 0.0
153 ; 1.1805794846456502E7 ; 2.03955749117431E8 ; 1.935432108249052E9 ; 2.93838716597394E10 ; 0.0
154 ; 1.1783801846045641E7 ; 2.0397385894781455E8 ; 1.9472379030955086E9 ; 2.958782740885683E10 ; 0.0
155 ; 1.176257899800612E7 ; 2.0399193099029467E8 ; 1.9590217049415543E9 ; 2.9791801267804646E10 ; 0.0
156 ; 1.1737728560368985E7 ; 2.0400996443087643E8 ; 1.9707842839395604E9 ; 2.999579319879494E10 ; 0.0
157 ; 1.1714446010651872E7 ; 2.0402795846638662E8 ; 1.9825220124999294E9 ; 3.019980316322582E10 ; 0.0
158 ; 1.1691773926111888E7 ; 2.040459123042329E8 ; 1.9942364585105813E9 ; 3.0403831121692204E10 ; 0.0
159 ; 1.1668677141946783E7 ; 2.0406382516217026E8 ; 2.0059282324366932E9 ; 3.0607877033996437E10 ; 0.0
160 ; 1.1645277297958007E7 ; 2.0408169626807427E8 ; 2.01759690957864E9 ; 3.0811940859158607E10 ; 0.0
161 ; 1.1623199273039721E7 ; 2.0409952485972118E8 ; 2.029242186876598E9 ; 3.101602255542668E10 ; 0.0
162 ; 1.1596451538596857E7 ; 2.0411731018457448E8 ; 2.0408653861496377E9 ; 3.1220122080286404E10 ; 0.0
163 ; 1.1575553524890527E7 ; 2.0413505149957767E8 ; 2.0524618376882346E9 ; 3.1424239390470978E10 ; 0.0
164 ; 1.1552348956706107E7 ; 2.041527480709534E8 ; 2.064037391213125E9 ; 3.1628374441970554E10 ; 0.0
165 ; 1.1528954021202046E7 ; 2.0417039917400828E8 ; 2.075589740169831E9 ; 3.1832527190041508E10 ; 0.0
166 ; 1.1504006956921516E7 ; 2.0418800409294358E8 ; 2.0871186941910331E9 ; 3.2036697589215515E10 ; 0.0
167 ; 1.1479880588838862E7 ; 2.0420556212067154E8 ; 2.0986227011479547E9 ; 3.224088559330846E10 ; 0.0
168 ; 1.1456051600974532E7 ; 2.0422307255863684E8 ; 2.1101025817367935E9 ; 3.244509115542913E10 ; 0.0
169 ; 1.1435592304800965E7 ; 2.0424053471664363E8 ; 2.121558633337768E9 ; 3.2649314227987766E10 ; 0.0
170 ; 1.1409404166296065E7 ; 2.0425794791268733E8 ; 2.132994225642569E9 ; 3.285355476270441E10 ; 0.0
171 ; 1.1384490401991546E7 ; 2.042753114727916E8 ; 2.144403629808865E9 ; 3.30578127106171E10 ; 0.0
172 ; 1.1364684857701326E7 ; 2.0429262473084986E8 ; 2.1557881202108564E9 ; 3.326208802208989E10 ; 0.0
173 ; 1.1337831232364828E7 ; 2.043E8 ; 2.1671528050685577E9 ; 3.346638064682074E10 ; 0.0
174 ; 1.1318845178622747E7 ; 2.043E8 ; 2.1784906363009224E9 ; 3.367068064682074E10 ; 0.0
175 ; 1.1297662836026886E7 ; 2.043E8 ; 2.189809481479545E9 ; 3.387498064682074E10 ; 0.0
176 ; 1.1278390722429195E7 ; 2.043E8 ; 2.201107144315572E9 ; 3.407928064682074E10 ; 0.0
177 ; 1.1259070462582977E7 ; 2.043E8 ; 2.212385535038001E9 ; 3.428358064682074E10 ; 0.0
178 ; 1.1238826745298462E7 ; 2.043E8 ; 2.223644605500584E9 ; 3.448788064682074E10 ; 0.0
179 ; 1.1211359760240866E7 ; 2.043E8 ; 2.2348834322458825E9 ; 3.469218064682074E10 ; 0.0
180 ; 1.1190162398570076E7 ; 2.043E8 ; 2.2460947920061235E9 ; 3.489648064682074E10 ; 0.0
181 ; 1.1173594602521451E7 ; 2.043E8 ; 2.2572849544046936E9 ; 3.510078064682074E10 ; 0.0
182 ; 1.1153028891776742E7 ; 2.043E8 ; 2.268458549007215E9 ; 3.530508064682074E10 ; 0.0
183 ; 1.113348870741731E7 ; 2.043E8 ; 2.2796115778989916E9 ; 3.550938064682074E10 ; 0.0
184 ; 1.1111553460124692E7 ; 2.043E8 ; 2.290745066606409E9 ; 3.571368064682074E10 ; 0.0
185 ; 1.1090433225957366E7 ; 2.043E8 ; 2.3018566200665336E9 ; 3.591798064682074E10 ; 0.0
186 ; 1.107131970330472E7 ; 2.043E8 ; 2.312947053292491E9 ; 3.612228064682074E10 ; 0.0
187 ; 1.1050963814668668E7 ; 2.043E8 ; 2.3240183729957957E9 ; 3.632658064682074E10 ; 0.0
188 ; 1.1030633068138905E7 ; 2.043E8 ; 2.3350693368104644E9 ; 3.653088064682074E10 ; 0.0
189 ; 1.1012511473487234E7 ; 2.043E8 ; 2.3460999698786035E9 ; 3.673518064682074E10 ; 0.0
190 ; 1.099028093283489E7 ; 2.043E8 ; 2.357112481352091E9 ; 3.693948064682074E10 ; 0.0
191 ; 1.0967043263373606E7 ; 2.043E8 ; 2.368102762284926E9 ; 3.714378064682074E10 ; 0.0
192 ; 1.094738254788157E7 ; 2.043E8 ; 2.3790698055482993E9 ; 3.734808064682074E10 ; 0.0
193 ; 1.0929153126525166E7 ; 2.043E8 ; 2.390017188096181E9 ; 3.755238064682074E10 ; 0.0
194 ; 1.0909565495382229E7 ; 2.043E8 ; 2.4009463412227063E9 ; 3.775668064682074E10 ; 0.0
195 ; 1.0884893565126816E7 ; 2.043E8 ; 2.4118559067180886E9 ; 3.796098064682074E10 ; 0.0
196 ; 1.0868701961528827E7 ; 2.043E8 ; 2.4227408002832155E9 ; 3.816528064682074E10 ; 0.0
197 ; 1.0845792248575356E7 ; 2.043E8 ; 2.4336095022447443E9 ; 3.836958064682074E10 ; 0.0
198 ; 1.0826973892002748E7 ; 2.043E8 ; 2.4444552944933195E9 ; 3.857388064682074E10 ; 0.0
