CSV File for the City 5 on Day 9
1 - Minute m 
2 - Power Consumed at minute m 
3 - Power Produced at minute m 
4 - Energy Consumed since the beginning of the day 
5 - Energy Produced since the beginning of the day 
6 - Energy Lost since the beginning of the day on lines starting from the city
 
0 ; 8487271.885771487 ; 1.0110251575536726E7 ; 0.0 ; 0.0 ; 0.0
1 ; 8495394.934902877 ; 1.0110251575536726E7 ; 8487271.885771487 ; 1.0110251575536726E7 ; 0.0
2 ; 8505940.088910023 ; 1.0110251575536726E7 ; 1.6982666820674364E7 ; 2.0220503151073452E7 ; 0.0
3 ; 8514026.92732105 ; 1.0110251575536726E7 ; 2.5488606909584388E7 ; 3.0330754726610176E7 ; 0.0
4 ; 8526376.644460272 ; 1.0110251575536726E7 ; 3.4002633836905435E7 ; 4.0441006302146904E7 ; 0.0
5 ; 8541849.105263446 ; 1.0110251575536726E7 ; 4.252901048136571E7 ; 5.055125787768363E7 ; 0.0
6 ; 8562395.443404203 ; 1.0110251575536726E7 ; 5.107085958662915E7 ; 6.066150945322036E7 ; 0.0
7 ; 8592510.12522631 ; 1.0110251575536726E7 ; 5.963325503003336E7 ; 7.077176102875708E7 ; 0.0
8 ; 8632138.056219881 ; 1.0110251575536726E7 ; 6.822576515525967E7 ; 8.088201260429381E7 ; 0.0
9 ; 8698460.54625854 ; 1.0110251575536726E7 ; 7.685790321147954E7 ; 9.099226417983054E7 ; 0.0
10 ; 8793049.496452522 ; 1.0110251575536726E7 ; 8.555636375773808E7 ; 1.0110251575536726E8 ; 0.0
11 ; 8948975.790980201 ; 1.0110251575536726E7 ; 9.434941325419061E7 ; 1.1121276733090399E8 ; 0.0
12 ; 9198893.615008248 ; 1.0110251575536726E7 ; 1.0329838904517081E8 ; 1.2132301890644072E8 ; 0.0
13 ; 9437529.428776395 ; 1.0110251575536726E7 ; 1.1249728266017906E8 ; 1.3143327048197745E8 ; 0.0
14 ; 9460513.996431194 ; 1.0110251575536726E7 ; 1.2193481208895546E8 ; 1.4154352205751416E8 ; 0.0
15 ; 9475618.597387897 ; 1.0110251575536726E7 ; 1.3139532608538666E8 ; 1.516537736330509E8 ; 0.0
16 ; 9485783.662504174 ; 1.0110251575536726E7 ; 1.4087094468277457E8 ; 1.6176402520858762E8 ; 0.0
17 ; 9498634.952389503 ; 1.0110251575536726E7 ; 1.5035672834527874E8 ; 1.7187427678412434E8 ; 0.0
18 ; 9508270.2022217 ; 1.0110251575536726E7 ; 1.5985536329766825E8 ; 1.8198452835966107E8 ; 0.0
19 ; 9519019.741234304 ; 1.0110251575536726E7 ; 1.6936363349988994E8 ; 1.920947799351978E8 ; 0.0
20 ; 9533830.684377326 ; 1.0110251575536726E7 ; 1.7888265324112424E8 ; 2.0220503151073453E8 ; 0.0
21 ; 9546732.46567234 ; 1.0110251575536726E7 ; 1.8841648392550156E8 ; 2.1231528308627126E8 ; 0.0
22 ; 9555860.679346882 ; 1.0110251575536726E7 ; 1.979632163911739E8 ; 2.2242553466180798E8 ; 0.0
23 ; 9567402.277720563 ; 1.0110251575536726E7 ; 2.075190770705208E8 ; 2.325357862373447E8 ; 0.0
24 ; 9572924.558355875 ; 1.0110251575536726E7 ; 2.1708647934824136E8 ; 2.4264603781288144E8 ; 0.0
25 ; 9588632.381505966 ; 1.0110251575536726E7 ; 2.2665940390659723E8 ; 2.5275628938841817E8 ; 0.0
26 ; 9597476.473054258 ; 1.0110251575536726E7 ; 2.362480362881032E8 ; 2.628665409639549E8 ; 0.0
27 ; 9608284.17262164 ; 1.0110251575536726E7 ; 2.4584551276115745E8 ; 2.729767925394916E8 ; 0.0
28 ; 9621382.319769796 ; 1.0110251575536726E7 ; 2.554537969337791E8 ; 2.830870441150283E8 ; 0.0
29 ; 9627387.507018639 ; 1.0110251575536726E7 ; 2.650751792535489E8 ; 2.9319729569056505E8 ; 0.0
30 ; 9642379.48724981 ; 1.0110251575536726E7 ; 2.7470256676056755E8 ; 3.033075472661018E8 ; 0.0
31 ; 9651569.688099185 ; 1.0110251575536726E7 ; 2.8434494624781734E8 ; 3.134177988416385E8 ; 0.0
32 ; 9660692.314730475 ; 1.0110251575536726E7 ; 2.9399651593591654E8 ; 3.2352805041717523E8 ; 0.0
33 ; 9670416.392682025 ; 1.0110251575536726E7 ; 3.03657208250647E8 ; 3.3363830199271196E8 ; 0.0
34 ; 9682968.788735222 ; 1.0110251575536726E7 ; 3.13327624643329E8 ; 3.437485535682487E8 ; 0.0
35 ; 9689972.994769998 ; 1.0110251575536726E7 ; 3.2301059343206424E8 ; 3.538588051437854E8 ; 0.0
36 ; 9697670.096062128 ; 1.0110251575536726E7 ; 3.327005664268342E8 ; 3.6396905671932214E8 ; 0.0
37 ; 9705939.016615264 ; 1.0110251575536726E7 ; 3.4239823652289635E8 ; 3.740793082948589E8 ; 0.0
38 ; 9716059.633445757 ; 1.0110251575536726E7 ; 3.521041755395116E8 ; 3.841895598703956E8 ; 0.0
39 ; 9722885.298004646 ; 1.0110251575536726E7 ; 3.6182023517295736E8 ; 3.942998114459323E8 ; 0.0
40 ; 9730456.18718441 ; 1.0110251575536726E7 ; 3.71543120470962E8 ; 4.0441006302146906E8 ; 0.0
41 ; 9737183.1930699 ; 1.0110251575536726E7 ; 3.812735766581464E8 ; 4.145203145970058E8 ; 0.0
42 ; 9743048.442487452 ; 1.0110251575536726E7 ; 3.9101075985121626E8 ; 4.246305661725425E8 ; 0.0
43 ; 9750237.28929896 ; 1.0110251575536726E7 ; 4.0075380829370373E8 ; 4.3474081774807924E8 ; 0.0
44 ; 9758918.45970955 ; 1.0110251575536726E7 ; 4.105040455830027E8 ; 4.4485106932361597E8 ; 0.0
45 ; 9761245.8056314 ; 1.0110251575536726E7 ; 4.202629640427122E8 ; 4.549613208991527E8 ; 0.0
46 ; 9765026.411427192 ; 1.0110251575536726E7 ; 4.300242098483436E8 ; 4.650715724746894E8 ; 0.0
47 ; 9774341.946179327 ; 1.0110251575536726E7 ; 4.397892362597708E8 ; 4.7518182405022615E8 ; 0.0
48 ; 9775279.008846177 ; 1.0110251575536726E7 ; 4.4956357820595014E8 ; 4.852920756257629E8 ; 0.0
49 ; 9777181.36413494 ; 1.0110251575536726E7 ; 4.593388572147963E8 ; 4.954023272012996E8 ; 0.0
50 ; 9781291.800669383 ; 1.0110251575536726E7 ; 4.691160385789313E8 ; 5.0551257877683634E8 ; 0.0
51 ; 9784978.952560076 ; 1.0110251575536726E7 ; 4.7889733037960064E8 ; 5.1562283035237306E8 ; 0.0
52 ; 9789591.710722478 ; 1.0110251575536726E7 ; 4.886823093321607E8 ; 5.257330819279098E8 ; 0.0
53 ; 9791569.773124993 ; 1.0110251575536726E7 ; 4.984719010428832E8 ; 5.358433335034465E8 ; 0.0
54 ; 9794884.519519145 ; 1.0110251575536726E7 ; 5.082634708160082E8 ; 5.459535850789832E8 ; 0.0
55 ; 9793464.487378627 ; 1.0110251575536726E7 ; 5.1805835533552736E8 ; 5.560638366545199E8 ; 0.0
56 ; 9799385.968736345 ; 1.0110251575536726E7 ; 5.27851819822906E8 ; 5.661740882300566E8 ; 0.0
57 ; 9801862.72111054 ; 1.0110251575536726E7 ; 5.376512057916423E8 ; 5.762843398055934E8 ; 0.0
58 ; 9802011.721953303 ; 1.0110251575536726E7 ; 5.474530685127529E8 ; 5.863945913811301E8 ; 0.0
59 ; 9803752.182629773 ; 1.0110251575536726E7 ; 5.572550802347062E8 ; 5.965048429566668E8 ; 0.0
60 ; 9806039.71869482 ; 1.0110251575536726E7 ; 5.67058832417336E8 ; 6.066150945322036E8 ; 0.0
61 ; 9808814.255201383 ; 1.0110251575536726E7 ; 5.768648721360308E8 ; 6.167253461077403E8 ; 0.0
62 ; 9812188.82535781 ; 1.0110251575536726E7 ; 5.866736863912321E8 ; 6.26835597683277E8 ; 0.0
63 ; 9812065.757890567 ; 1.0110251575536726E7 ; 5.964858752165899E8 ; 6.369458492588137E8 ; 0.0
64 ; 9813382.97348149 ; 1.0110251575536726E7 ; 6.062979409744805E8 ; 6.470561008343505E8 ; 0.0
65 ; 9813968.23332121 ; 1.0110251575536726E7 ; 6.16111323947962E8 ; 6.571663524098872E8 ; 0.0
66 ; 9818231.936137727 ; 1.0110251575536726E7 ; 6.259252921812832E8 ; 6.672766039854239E8 ; 0.0
67 ; 9815236.895534743 ; 1.0110251575536726E7 ; 6.357435241174209E8 ; 6.773868555609607E8 ; 0.0
68 ; 9817055.175493656 ; 1.0110251575536726E7 ; 6.455587610129557E8 ; 6.874971071364974E8 ; 0.0
69 ; 9820042.566850025 ; 1.0110251575536726E7 ; 6.553758161884493E8 ; 6.976073587120341E8 ; 0.0
70 ; 9820186.990134245 ; 1.0110251575536726E7 ; 6.651958587552993E8 ; 7.077176102875708E8 ; 0.0
71 ; 9821664.544265348 ; 1.0110251575536726E7 ; 6.750160457454336E8 ; 7.178278618631076E8 ; 0.0
72 ; 9820007.281885803 ; 1.0110251575536726E7 ; 6.84837710289699E8 ; 7.279381134386443E8 ; 0.0
73 ; 9821098.924254997 ; 1.0110251575536726E7 ; 6.946577175715847E8 ; 7.38048365014181E8 ; 0.0
74 ; 9826333.651131587 ; 1.0110251575536726E7 ; 7.044788164958397E8 ; 7.481586165897177E8 ; 0.0
75 ; 9823583.892120415 ; 1.0110251575536726E7 ; 7.143051501469713E8 ; 7.582688681652545E8 ; 0.0
76 ; 9823781.553978793 ; 1.0110251575536726E7 ; 7.241287340390917E8 ; 7.683791197407912E8 ; 0.0
77 ; 9825425.079477513 ; 1.0110251575536726E7 ; 7.339525155930705E8 ; 7.784893713163279E8 ; 0.0
78 ; 9819846.779206032 ; 1.0110251575536726E7 ; 7.43777940672548E8 ; 7.885996228918647E8 ; 0.0
79 ; 9819618.734971702 ; 1.0110251575536726E7 ; 7.535977874517541E8 ; 7.987098744674014E8 ; 0.0
80 ; 9817849.990428455 ; 1.0110251575536726E7 ; 7.634174061867259E8 ; 8.088201260429381E8 ; 0.0
81 ; 9814339.706740962 ; 1.0110251575536726E7 ; 7.732352561771543E8 ; 8.189303776184748E8 ; 0.0
82 ; 9809269.79603369 ; 1.0110251575536726E7 ; 7.830495958838953E8 ; 8.290406291940116E8 ; 0.0
83 ; 9807765.9094902 ; 1.0110251575536726E7 ; 7.92858865679929E8 ; 8.391508807695483E8 ; 0.0
84 ; 9805436.678934127 ; 1.0110251575536726E7 ; 8.026666315894192E8 ; 8.49261132345085E8 ; 0.0
85 ; 9804214.081861543 ; 1.0110251575536726E7 ; 8.124720682683533E8 ; 8.593713839206218E8 ; 0.0
86 ; 9800730.181421453 ; 1.0110251575536726E7 ; 8.222762823502148E8 ; 8.694816354961585E8 ; 0.0
87 ; 9795845.78009379 ; 1.0110251575536726E7 ; 8.320770125316362E8 ; 8.795918870716952E8 ; 0.0
88 ; 9793125.073589312 ; 1.0110251575536726E7 ; 8.4187285831173E8 ; 8.897021386472319E8 ; 0.0
89 ; 9786486.019566214 ; 1.0110251575536726E7 ; 8.516659833853194E8 ; 8.998123902227687E8 ; 0.0
90 ; 9781784.932012334 ; 1.0110251575536726E7 ; 8.614524694048855E8 ; 9.099226417983054E8 ; 0.0
91 ; 9781436.47678822 ; 1.0110251575536726E7 ; 8.712342543368979E8 ; 9.200328933738421E8 ; 0.0
92 ; 9772159.993358176 ; 1.0110251575536726E7 ; 8.81015690813686E8 ; 9.301431449493788E8 ; 0.0
93 ; 9773446.986338597 ; 1.0110251575536726E7 ; 8.907878508070441E8 ; 9.402533965249156E8 ; 0.0
94 ; 9767994.774322081 ; 1.0110251575536726E7 ; 9.005612977933828E8 ; 9.503636481004523E8 ; 0.0
95 ; 9768040.187529333 ; 1.0110251575536726E7 ; 9.103292925677048E8 ; 9.60473899675989E8 ; 0.0
96 ; 9761620.742238387 ; 1.0110251575536726E7 ; 9.200973327552341E8 ; 9.705841512515258E8 ; 0.0
97 ; 9751725.024610277 ; 1.0110251575536726E7 ; 9.298589534974725E8 ; 9.806944028270625E8 ; 0.0
98 ; 9752273.931955341 ; 1.0110251575536726E7 ; 9.396106785220828E8 ; 9.908046544025992E8 ; 0.0
99 ; 9747430.230788527 ; 1.0110251575536726E7 ; 9.493629524540381E8 ; 1.000914905978136E9 ; 0.0
100 ; 9742987.912739068 ; 1.0110251575536726E7 ; 9.591103826848266E8 ; 1.0110251575536727E9 ; 0.0
101 ; 9735054.673208494 ; 1.0110251575536726E7 ; 9.688533705975657E8 ; 1.0211354091292094E9 ; 0.0
102 ; 9732870.950034216 ; 1.0110251575536726E7 ; 9.785884252707741E8 ; 1.0312456607047461E9 ; 0.0
103 ; 9724780.506485457 ; 1.0110251575536726E7 ; 9.883212962208084E8 ; 1.0413559122802829E9 ; 0.0
104 ; 9721334.835364677 ; 1.0110251575536726E7 ; 9.980460767272938E8 ; 1.0514661638558196E9 ; 0.0
105 ; 9713909.375805583 ; 1.0110251575536726E7 ; 1.0077674115626585E9 ; 1.0615764154313563E9 ; 0.0
106 ; 9713338.511747595 ; 1.0110251575536726E7 ; 1.0174813209384642E9 ; 1.071686667006893E9 ; 0.0
107 ; 9703090.631805927 ; 1.0110251575536726E7 ; 1.0271946594502118E9 ; 1.0817969185824296E9 ; 0.0
108 ; 9698772.024121443 ; 1.0110251575536726E7 ; 1.0368977500820177E9 ; 1.0919071701579664E9 ; 0.0
109 ; 9695378.410352971 ; 1.0110251575536726E7 ; 1.0465965221061391E9 ; 1.102017421733503E9 ; 0.0
110 ; 9688837.41852944 ; 1.0110251575536726E7 ; 1.056291900516492E9 ; 1.1121276733090398E9 ; 0.0
111 ; 9682570.521528482 ; 1.0110251575536726E7 ; 1.0659807379350214E9 ; 1.1222379248845766E9 ; 0.0
112 ; 9675926.802013313 ; 1.0110251575536726E7 ; 1.07566330845655E9 ; 1.1323481764601133E9 ; 0.0
113 ; 9672317.904134832 ; 1.0110251575536726E7 ; 1.0853392352585633E9 ; 1.14245842803565E9 ; 0.0
114 ; 9667113.109672716 ; 1.0110251575536726E7 ; 1.095011553162698E9 ; 1.1525686796111867E9 ; 0.0
115 ; 9656164.441560503 ; 1.0110251575536726E7 ; 1.1046786662723708E9 ; 1.1626789311867235E9 ; 0.0
116 ; 9652968.24236754 ; 1.0110251575536726E7 ; 1.1143348307139313E9 ; 1.1727891827622602E9 ; 0.0
117 ; 9645426.20982658 ; 1.0110251575536726E7 ; 1.1239877989562988E9 ; 1.182899434337797E9 ; 0.0
118 ; 9639502.412754096 ; 1.0110251575536726E7 ; 1.1336332251661253E9 ; 1.1930096859133337E9 ; 0.0
119 ; 9633841.072424237 ; 1.0110251575536726E7 ; 1.1432727275788794E9 ; 1.2031199374888704E9 ; 0.0
120 ; 9623694.951415965 ; 1.0110251575536726E7 ; 1.1529065686513035E9 ; 1.213230189064407E9 ; 0.0
121 ; 9622054.032725882 ; 1.0110251575536726E7 ; 1.1625302636027195E9 ; 1.2233404406399438E9 ; 0.0
122 ; 9610961.519282263 ; 1.0110251575536726E7 ; 1.1721523176354454E9 ; 1.2334506922154806E9 ; 0.0
123 ; 9605999.145060698 ; 1.0110251575536726E7 ; 1.1817632791547277E9 ; 1.2435609437910173E9 ; 0.0
124 ; 9598523.52348588 ; 1.0110251575536726E7 ; 1.1913692782997885E9 ; 1.253671195366554E9 ; 0.0
125 ; 9593955.863106651 ; 1.0110251575536726E7 ; 1.2009678018232744E9 ; 1.2637814469420907E9 ; 0.0
126 ; 9586087.534738177 ; 1.0110251575536726E7 ; 1.210561757686381E9 ; 1.2738916985176275E9 ; 0.0
127 ; 9578644.663475161 ; 1.0110251575536726E7 ; 1.2201478452211192E9 ; 1.2840019500931642E9 ; 0.0
128 ; 9570625.022583244 ; 1.0110251575536726E7 ; 1.2297264898845944E9 ; 1.294112201668701E9 ; 0.0
129 ; 9560843.611034097 ; 1.0110251575536726E7 ; 1.2392971149071777E9 ; 1.3042224532442377E9 ; 0.0
130 ; 9550422.385515269 ; 1.0110251575536726E7 ; 1.2488579585182118E9 ; 1.3143327048197744E9 ; 0.0
131 ; 9541058.217414185 ; 1.0110251575536726E7 ; 1.258408380903727E9 ; 1.324442956395311E9 ; 0.0
132 ; 9532403.335749751 ; 1.0110251575536726E7 ; 1.2679494391211412E9 ; 1.3345532079708478E9 ; 0.0
133 ; 9519689.965425124 ; 1.0110251575536726E7 ; 1.277481842456891E9 ; 1.3446634595463846E9 ; 0.0
134 ; 9508858.491521558 ; 1.0110251575536726E7 ; 1.287001532422316E9 ; 1.3547737111219213E9 ; 0.0
135 ; 9500851.106539305 ; 1.0110251575536726E7 ; 1.2965103909138377E9 ; 1.364883962697458E9 ; 0.0
136 ; 9487337.464912515 ; 1.0110251575536726E7 ; 1.306011242020377E9 ; 1.3749942142729948E9 ; 0.0
137 ; 9476902.080819422 ; 1.0110251575536726E7 ; 1.3154985794852893E9 ; 1.3851044658485315E9 ; 0.0
138 ; 9465450.564692024 ; 1.0110251575536726E7 ; 1.3249754815661087E9 ; 1.3952147174240682E9 ; 0.0
139 ; 9453041.414929315 ; 1.0110251575536726E7 ; 1.3344409321308007E9 ; 1.405324968999605E9 ; 0.0
140 ; 9440047.330907485 ; 1.0110251575536726E7 ; 1.34389397354573E9 ; 1.4154352205751417E9 ; 0.0
141 ; 9431099.136984972 ; 1.0110251575536726E7 ; 1.3533340208766377E9 ; 1.4255454721506784E9 ; 0.0
142 ; 9420905.870740395 ; 1.0110251575536726E7 ; 1.3627651200136228E9 ; 1.4356557237262151E9 ; 0.0
143 ; 9406090.160066988 ; 1.0110251575536726E7 ; 1.3721860258843632E9 ; 1.4457659753017519E9 ; 0.0
144 ; 9396322.946062751 ; 1.0110251575536726E7 ; 1.3815921160444303E9 ; 1.4558762268772886E9 ; 0.0
145 ; 9386794.261444671 ; 1.0110251575536726E7 ; 1.390988438990493E9 ; 1.4659864784528253E9 ; 0.0
146 ; 9381863.432343988 ; 1.0110251575536726E7 ; 1.4003752332519376E9 ; 1.476096730028362E9 ; 0.0
147 ; 9374866.119317334 ; 1.0110251575536726E7 ; 1.4097570966842816E9 ; 1.4862069816038988E9 ; 0.0
148 ; 9363771.866862826 ; 1.0110251575536726E7 ; 1.4191319628035989E9 ; 1.4963172331794355E9 ; 0.0
149 ; 9355535.770880802 ; 1.0110251575536726E7 ; 1.4284957346704617E9 ; 1.5064274847549722E9 ; 0.0
150 ; 9344658.801004639 ; 1.0110251575536726E7 ; 1.4378512704413424E9 ; 1.516537736330509E9 ; 0.0
151 ; 9335921.967012346 ; 1.0110251575536726E7 ; 1.447195929242347E9 ; 1.5266479879060457E9 ; 0.0
152 ; 9331237.40743617 ; 1.0110251575536726E7 ; 1.4565318512093594E9 ; 1.5367582394815824E9 ; 0.0
153 ; 9321785.857827192 ; 1.0110251575536726E7 ; 1.4658630886167955E9 ; 1.5468684910571191E9 ; 0.0
154 ; 9312228.466382444 ; 1.0110251575536726E7 ; 1.4751848744746227E9 ; 1.5569787426326559E9 ; 0.0
155 ; 9303669.06040383 ; 1.0110251575536726E7 ; 1.4844971029410052E9 ; 1.5670889942081926E9 ; 0.0
156 ; 9295245.116856208 ; 1.0110251575536726E7 ; 1.493800772001409E9 ; 1.5771992457837293E9 ; 0.0
157 ; 9289768.388508242 ; 1.0110251575536726E7 ; 1.5030960171182652E9 ; 1.587309497359266E9 ; 0.0
158 ; 9276418.065108158 ; 1.0110251575536726E7 ; 1.5123857855067735E9 ; 1.5974197489348028E9 ; 0.0
159 ; 9269607.557884801 ; 1.0110251575536726E7 ; 1.5216622035718815E9 ; 1.6075300005103395E9 ; 0.0
160 ; 9263404.955936503 ; 1.0110251575536726E7 ; 1.5309318111297662E9 ; 1.6176402520858762E9 ; 0.0
161 ; 9252601.993481506 ; 1.0110251575536726E7 ; 1.5401952160857027E9 ; 1.627750503661413E9 ; 0.0
162 ; 9243878.742420314 ; 1.0110251575536726E7 ; 1.549447818079184E9 ; 1.6378607552369497E9 ; 0.0
163 ; 9235801.813716166 ; 1.0110251575536726E7 ; 1.5586916968216043E9 ; 1.6479710068124864E9 ; 0.0
164 ; 9226210.147518005 ; 1.0110251575536726E7 ; 1.5679274986353204E9 ; 1.6580812583880231E9 ; 0.0
165 ; 9218349.138374772 ; 1.0110251575536726E7 ; 1.5771537087828383E9 ; 1.6681915099635599E9 ; 0.0
166 ; 9209940.697405282 ; 1.0110251575536726E7 ; 1.5863720579212132E9 ; 1.6783017615390966E9 ; 0.0
167 ; 9200259.058618028 ; 1.0110251575536726E7 ; 1.5955819986186185E9 ; 1.6884120131146333E9 ; 0.0
168 ; 9193813.307806954 ; 1.0110251575536726E7 ; 1.6047822576772366E9 ; 1.69852226469017E9 ; 0.0
169 ; 9181963.93055894 ; 1.0110251575536726E7 ; 1.6139760709850435E9 ; 1.7086325162657068E9 ; 0.0
170 ; 9174255.043260913 ; 1.0110251575536726E7 ; 1.6231580349156024E9 ; 1.7187427678412435E9 ; 0.0
171 ; 9164514.098440442 ; 1.0110251575536726E7 ; 1.6323322899588633E9 ; 1.7288530194167802E9 ; 0.0
172 ; 9155763.425056769 ; 1.0110251575536726E7 ; 1.6414968040573037E9 ; 1.738963270992317E9 ; 0.0
173 ; 9147894.758444156 ; 1.0110251575536726E7 ; 1.6506525674823604E9 ; 1.7490735225678537E9 ; 0.0
174 ; 9143384.48505049 ; 1.0110251575536726E7 ; 1.6598004622408044E9 ; 1.7591837741433904E9 ; 0.0
175 ; 9133167.83259067 ; 1.0110251575536726E7 ; 1.6689438467258549E9 ; 1.7692940257189271E9 ; 0.0
176 ; 9130075.67730342 ; 1.0110251575536726E7 ; 1.6780770145584455E9 ; 1.7794042772944639E9 ; 0.0
177 ; 9126362.602106886 ; 1.0110251575536726E7 ; 1.6872070902357488E9 ; 1.7895145288700006E9 ; 0.0
178 ; 9117159.280229658 ; 1.0110251575536726E7 ; 1.6963334528378556E9 ; 1.7996247804455373E9 ; 0.0
179 ; 9110420.331859492 ; 1.0110251575536726E7 ; 1.7054506121180851E9 ; 1.809735032021074E9 ; 0.0
180 ; 9106875.749877764 ; 1.0110251575536726E7 ; 1.7145610324499447E9 ; 1.8198452835966108E9 ; 0.0
181 ; 9099813.963326553 ; 1.0110251575536726E7 ; 1.7236679081998224E9 ; 1.8299555351721475E9 ; 0.0
182 ; 9094789.692018202 ; 1.0110251575536726E7 ; 1.7327677221631489E9 ; 1.8400657867476842E9 ; 0.0
183 ; 9088863.327336805 ; 1.0110251575536726E7 ; 1.7418625118551672E9 ; 1.850176038323221E9 ; 0.0
184 ; 9083577.529759785 ; 1.0110251575536726E7 ; 1.750951375182504E9 ; 1.8602862898987577E9 ; 0.0
185 ; 9082332.496752784 ; 1.0110251575536726E7 ; 1.7600349527122638E9 ; 1.8703965414742944E9 ; 0.0
186 ; 9075558.065133825 ; 1.0110251575536726E7 ; 1.7691172852090166E9 ; 1.8805067930498312E9 ; 0.0
187 ; 9066997.447053885 ; 1.0110251575536726E7 ; 1.7781928432741504E9 ; 1.8906170446253679E9 ; 0.0
188 ; 9066604.875543453 ; 1.0110251575536726E7 ; 1.7872598407212043E9 ; 1.9007272962009046E9 ; 0.0
189 ; 9060939.764705658 ; 1.0110251575536726E7 ; 1.7963264455967476E9 ; 1.9108375477764413E9 ; 0.0
190 ; 9054692.361976724 ; 1.0110251575536726E7 ; 1.8053873853614533E9 ; 1.920947799351978E9 ; 0.0
191 ; 9047940.836551672 ; 1.0110251575536726E7 ; 1.81444207772343E9 ; 1.9310580509275148E9 ; 0.0
192 ; 9038965.281277712 ; 1.0110251575536726E7 ; 1.8234900185599816E9 ; 1.9411683025030515E9 ; 0.0
193 ; 9033206.774274757 ; 1.0110251575536726E7 ; 1.8325289838412592E9 ; 1.9512785540785882E9 ; 0.0
194 ; 9029741.721756596 ; 1.0110251575536726E7 ; 1.841562190615534E9 ; 1.961388805654125E9 ; 0.0
195 ; 9022201.275433945 ; 1.0110251575536726E7 ; 1.8505919323372908E9 ; 1.9714990572296617E9 ; 0.0
196 ; 9021325.741367564 ; 1.0110251575536726E7 ; 1.8596141336127248E9 ; 1.9816093088051984E9 ; 0.0
197 ; 9013389.68828476 ; 1.0110251575536726E7 ; 1.8686354593540924E9 ; 1.9917195603807352E9 ; 0.0
198 ; 9007718.27197194 ; 1.0110251575536726E7 ; 1.8776488490423772E9 ; 2.001829811956272E9 ; 0.0
199 ; 9000925.748734994 ; 1.0110251575536726E7 ; 1.8866565673143492E9 ; 2.0119400635318086E9 ; 0.0
200 ; 8995571.398139112 ; 1.0110251575536726E7 ; 1.8956574930630841E9 ; 2.0220503151073453E9 ; 0.0
201 ; 8991005.772457609 ; 1.0110251575536726E7 ; 1.9046530644612231E9 ; 2.032160566682882E9 ; 0.0
