CSV File for the City 4 on Day 243
1 - Minute m 
2 - Power Consumed at minute m 
3 - Power Produced at minute m 
4 - Energy Consumed since the beginning of the day 
5 - Energy Produced since the beginning of the day 
6 - Energy Lost since the beginning of the day on lines starting from the city
 
0 ; 1113565.728083534 ; 1.0556092641521719E8 ; 0.0 ; 0.0 ; 0.0
1 ; 1119350.0823954497 ; 1.0570909638900268E8 ; 1113565.728083534 ; 1.0556092641521719E8 ; 0.0
2 ; 1125572.8498325213 ; 1.0616647184711882E8 ; 2232915.8104789834 ; 2.1127002280421987E8 ; 0.0
3 ; 1133845.2523223744 ; 1.0693307789714062E8 ; 3358488.6603115047 ; 3.174364946513387E8 ; 0.0
4 ; 1144389.03013871 ; 1.0800893825160712E8 ; 4492333.912633879 ; 4.243695725484793E8 ; 0.0
5 ; 1157773.5572593887 ; 1.0939407475538373E8 ; 5636722.94277259 ; 5.3237851080008644E8 ; 0.0
6 ; 1170507.5120685454 ; 1.1108850690957835E8 ; 6794496.500031978 ; 6.417725855554702E8 ; 0.0
7 ; 1196400.8960817072 ; 1.130922514128902E8 ; 7965004.012100523 ; 7.528610924650486E8 ; 0.0
8 ; 1228758.5893539719 ; 1.1540532174319369E8 ; 9161404.90818223 ; 8.659533438779387E8 ; 0.0
9 ; 1280331.765341307 ; 1.180277278022995E8 ; 1.0390163497536201E7 ; 9.813586656211324E8 ; 0.0
10 ; 1357343.1066971577 ; 1.2095947564488024E8 ; 1.1670495262877509E7 ; 1.0993863934234319E9 ; 0.0
11 ; 1482671.3673762567 ; 1.2420056730847237E8 ; 1.3027838369574666E7 ; 1.2203458690683122E9 ; 0.0
12 ; 1679881.1276571199 ; 1.2775100075553939E8 ; 1.4510509736950923E7 ; 1.3445464363767846E9 ; 0.0
13 ; 1870116.1743920564 ; 1.316107699314087E8 ; 1.6190390864608042E7 ; 1.472297437132324E9 ; 0.0
14 ; 1895200.884131189 ; 1.3577986493426973E8 ; 1.8060507039000098E7 ; 1.6039082070637326E9 ; 0.0
15 ; 1899464.1309917055 ; 1.402582722862479E8 ; 1.9955707923131287E7 ; 1.7396880719980023E9 ; 0.0
16 ; 1910630.2218906537 ; 1.4504597528864416E8 ; 2.185517205412299E7 ; 1.8799463442842503E9 ; 0.0
17 ; 1920421.0035169872 ; 1.501429544403505E8 ; 2.3765802276013646E7 ; 2.0249923195728943E9 ; 0.0
18 ; 1927276.2591714254 ; 1.5554918789650154E8 ; 2.5686223279530633E7 ; 2.1751352740132446E9 ; 0.0
19 ; 1940532.7570909294 ; 1.6126465194455823E8 ; 2.761349953870206E7 ; 2.330684461909746E9 ; 0.0
20 ; 1946087.893256724 ; 1.6728932147694555E8 ; 2.955403229579299E7 ; 2.4919491138543043E9 ; 0.0
21 ; 1955729.8413320358 ; 1.736231704425883E8 ; 3.1500120189049713E7 ; 2.6592384353312497E9 ; 0.0
22 ; 1965185.4978435242 ; 1.8026617226366347E8 ; 3.345585003038175E7 ; 2.832861605773838E9 ; 0.0
23 ; 1976254.0066116136 ; 1.8721830020808494E8 ; 3.542103552822527E7 ; 3.0131277780375013E9 ; 0.0
24 ; 1986768.6868515706 ; 1.9447952771222967E8 ; 3.739728953483689E7 ; 3.2003460782455864E9 ; 0.0
25 ; 1995566.7041502916 ; 2.007378695500883E8 ; 3.938405822168846E7 ; 3.394825605957816E9 ; 0.0
26 ; 2004341.0063273432 ; 2.0074684809018663E8 ; 4.1379624925838746E7 ; 3.5955634755079045E9 ; 0.0
27 ; 2013963.3433746567 ; 2.0075620799248832E8 ; 4.338396593216609E7 ; 3.796310323598091E9 ; 0.0
28 ; 2022428.8210494064 ; 2.0076592558346057E8 ; 4.539792927554075E7 ; 3.9970665315905795E9 ; 0.0
29 ; 2034464.435041796 ; 2.0077597823903346E8 ; 4.7420358096590154E7 ; 4.19783245717404E9 ; 0.0
30 ; 2042464.0291278157 ; 2.0078634444118136E8 ; 4.945482253163195E7 ; 4.398608435413074E9 ; 0.0
31 ; 2051020.9300529752 ; 2.0079700380677015E8 ; 5.149728656075976E7 ; 4.599394779854255E9 ; 0.0
32 ; 2060635.6808703272 ; 2.0080793709376898E8 ; 5.3548307490812734E7 ; 4.800191783661025E9 ; 0.0
33 ; 2068772.7459887436 ; 2.0081912618946597E8 ; 5.560894317168306E7 ; 5.000999720754794E9 ; 0.0
34 ; 2077237.8895369272 ; 2.0083055408478263E8 ; 5.76777159176718E7 ; 5.20181884694426E9 ; 0.0
35 ; 2084663.6011718516 ; 2.008422048382139E8 ; 5.9754953807208724E7 ; 5.402649401029042E9 ; 0.0
36 ; 2090114.8705719188 ; 2.0085406353236178E8 ; 6.1839617408380575E7 ; 5.603491605867256E9 ; 0.0
37 ; 2099015.372289632 ; 2.0086611622551158E8 ; 6.3929732278952494E7 ; 5.804345669399618E9 ; 0.0
38 ; 2106115.3215991515 ; 2.0087834990023163E8 ; 6.602874765124213E7 ; 6.00521178562513E9 ; 0.0
39 ; 2116051.2910682787 ; 2.0089075241056836E8 ; 6.813486297284128E7 ; 6.206090135525361E9 ; 0.0
40 ; 2119401.9395107785 ; 2.0090331242905676E8 ; 7.025091426390956E7 ; 6.406980887935929E9 ; 0.0
41 ; 2128855.9299235167 ; 2.0091601939447412E8 ; 7.237031620342034E7 ; 6.607884200364986E9 ; 0.0
42 ; 2133042.4323499966 ; 2.0092886346101937E8 ; 7.449917213334386E7 ; 6.80880021975946E9 ; 0.0
43 ; 2139870.1206737994 ; 2.009418354494058E8 ; 7.663221456569386E7 ; 7.00972908322048E9 ; 0.0
44 ; 2144236.2293581995 ; 2.009549268001941E8 ; 7.877208468636766E7 ; 7.210670918669886E9 ; 0.0
45 ; 2149685.250486397 ; 2.00968129529571E8 ; 8.091632091572586E7 ; 7.411625845470079E9 ; 0.0
46 ; 2153399.967202135 ; 2.0098143618767884E8 ; 8.306600616621226E7 ; 7.61259397499965E9 ; 0.0
47 ; 2158538.795883666 ; 2.0099483981953102E8 ; 8.52194061334144E7 ; 7.813575411187329E9 ; 0.0
48 ; 2163350.0552897276 ; 2.010083339284898E8 ; 8.737794492929807E7 ; 8.014570251006861E9 ; 0.0
49 ; 2168506.038360507 ; 2.0102191244224516E8 ; 8.95412949845878E7 ; 8.21557858493535E9 ; 0.0
50 ; 2172013.943285646 ; 2.010355696812038E8 ; 9.170980102294831E7 ; 8.416600497377596E9 ; 0.0
51 ; 2174503.8009591727 ; 2.0104930032917836E8 ; 9.388181496623395E7 ; 8.6176360670588E9 ; 0.0
52 ; 2177827.382674649 ; 2.0106309940625554E8 ; 9.605631876719312E7 ; 8.818685367387978E9 ; 0.0
53 ; 2182337.7555037416 ; 2.0107696224371493E8 ; 9.823414614986777E7 ; 9.019748466794233E9 ; 0.0
54 ; 2183953.0097830924 ; 2.0109088446086842E8 ; 1.0041648390537152E8 ; 9.220825429037949E9 ; 0.0
55 ; 2186162.5860081194 ; 2.0110486194369102E8 ; 1.026004369151546E8 ; 9.421916313498817E9 ; 0.0
56 ; 2190279.9535406907 ; 2.0111889082511652E8 ; 1.0478659950116272E8 ; 9.623021175442509E9 ; 0.0
57 ; 2194876.6402503494 ; 2.0113296746687654E8 ; 1.0697687945470342E8 ; 9.824140066267626E9 ; 0.0
58 ; 2198715.750382107 ; 2.01147088442767E8 ; 1.0917175609495378E8 ; 1.0025273033734503E10 ; 0.0
59 ; 2202038.2196442448 ; 2.01161250523232E8 ; 1.1137047184533589E8 ; 1.0226420122177269E10 ; 0.0
60 ; 2205224.929055588 ; 2.0117545066116247E8 ; 1.1357251006498013E8 ; 1.04275813727005E10 ; 0.0
61 ; 2208848.340506476 ; 2.011896859788126E8 ; 1.1577773499403572E8 ; 1.0628756823361664E10 ; 0.0
62 ; 2210387.878092799 ; 2.0120395375574505E8 ; 1.179865833345422E8 ; 1.0829946509340477E10 ; 0.0
63 ; 2211545.6444357233 ; 2.0121825141772088E8 ; 1.20196971212635E8 ; 1.1031150463096222E10 ; 0.0
64 ; 2216412.6412530546 ; 2.0123257652645805E8 ; 1.2240851685707071E8 ; 1.1232368714513943E10 ; 0.0
65 ; 2217423.4738576743 ; 2.01246926770187E8 ; 1.2462492949832377E8 ; 1.1433601291040401E10 ; 0.0
66 ; 2219117.629239759 ; 2.0126129995493796E8 ; 1.2684235297218144E8 ; 1.1634848217810589E10 ; 0.0
67 ; 2220104.5340755573 ; 2.0127569399650028E8 ; 1.2906147060142119E8 ; 1.1836109517765528E10 ; 0.0
68 ; 2224110.2142105536 ; 2.0129010691299808E8 ; 1.3128157513549675E8 ; 1.2037385211762028E10 ; 0.0
69 ; 2226876.4410895933 ; 2.0130453681803182E8 ; 1.335056853497073E8 ; 1.2238675318675026E10 ; 0.0
70 ; 2229204.581039629 ; 2.0131898191433954E8 ; 1.357325617907969E8 ; 1.2439979855493057E10 ; 0.0
71 ; 2231829.834336987 ; 2.013334404879351E8 ; 1.3796176637183654E8 ; 1.2641298837407396E10 ; 0.0
72 ; 2233730.3189231628 ; 2.0134791090268457E8 ; 1.4019359620617354E8 ; 1.2842632277895332E10 ; 0.0
73 ; 2234629.143279728 ; 2.0136239159528503E8 ; 1.424273265250967E8 ; 1.3043980188798018E10 ; 0.0
74 ; 2237064.833335617 ; 2.013768810706136E8 ; 1.4466195566837645E8 ; 1.3245342580393303E10 ; 0.0
75 ; 2241404.5768077625 ; 2.0139137789741647E8 ; 1.4689902050171205E8 ; 1.3446719461463917E10 ; 0.0
76 ; 2240072.023539928 ; 2.0140588070431086E8 ; 1.4914042507851982E8 ; 1.3648110839361334E10 ; 0.0
77 ; 2244016.973258585 ; 2.0142038817607495E8 ; 1.5138049710205975E8 ; 1.3849516720065645E10 ; 0.0
78 ; 2245646.5844110176 ; 2.0143489905020288E8 ; 1.5362451407531834E8 ; 1.405093710824172E10 ; 0.0
79 ; 2244858.8511858475 ; 2.0144941211370403E8 ; 1.5587016065972936E8 ; 1.4252372007291924E10 ; 0.0
80 ; 2243725.0328348335 ; 2.0146392620012742E8 ; 1.5811501951091522E8 ; 1.4453821419405628E10 ; 0.0
81 ; 2242307.8565264866 ; 2.0147844018679357E8 ; 1.6035874454375005E8 ; 1.4655285345605755E10 ; 0.0
82 ; 2242221.9153463882 ; 2.0149295299221796E8 ; 1.6260105240027654E8 ; 1.485676378579255E10 ; 0.0
83 ; 2239409.8499113624 ; 2.015074635737112E8 ; 1.6484327431562293E8 ; 1.5058256738784767E10 ; 0.0
84 ; 2241377.8999571423 ; 2.0152197092514265E8 ; 1.670826841655343E8 ; 1.5259764202358479E10 ; 0.0
85 ; 2243042.645585615 ; 2.0153647407485485E8 ; 1.6932406206549144E8 ; 1.546128617328362E10 ; 0.0
86 ; 2240858.376860776 ; 2.0155097208371755E8 ; 1.7156710471107706E8 ; 1.5662822647358475E10 ; 0.0
87 ; 2241865.9316480528 ; 2.015654640433111E8 ; 1.7380796308793783E8 ; 1.5864373619442192E10 ; 0.0
88 ; 2239131.067774714 ; 2.0157994907422897E8 ; 1.7604982901958588E8 ; 1.6065939083485502E10 ; 0.0
89 ; 2237005.7066984605 ; 2.0159442632449165E8 ; 1.782889600873606E8 ; 1.626751903255973E10 ; 0.0
90 ; 2240346.756395675 ; 2.0160889496806273E8 ; 1.8052596579405904E8 ; 1.6469113458884222E10 ; 0.0
91 ; 2237203.682166502 ; 2.0162335420346045E8 ; 1.827663125504547E8 ; 1.6670722353852285E10 ; 0.0
92 ; 2233641.8838242004 ; 2.016378032524578E8 ; 1.850035162326212E8 ; 1.6872345708055746E10 ; 0.0
93 ; 2234611.066043635 ; 2.016522413588643E8 ; 1.872371581164454E8 ; 1.7073983511308205E10 ; 0.0
94 ; 2233553.1796209225 ; 2.0166666778738445E8 ; 1.8947176918248904E8 ; 1.727563575266707E10 ; 0.0
95 ; 2231465.980024496 ; 2.0168108182254687E8 ; 1.9170532236210996E8 ; 1.7477302420454453E10 ; 0.0
96 ; 2231016.0091701346 ; 2.0169548276769936E8 ; 1.9393678834213445E8 ; 1.7678983502277E10 ; 0.0
97 ; 2229691.014325727 ; 2.0170986994406563E8 ; 1.961678043513046E8 ; 1.78806789850447E10 ; 0.0
98 ; 2228464.48826021 ; 2.0172424268985876E8 ; 1.9839749536563033E8 ; 1.8082388854988766E10 ; 0.0
99 ; 2225214.107618369 ; 2.0173860035944843E8 ; 2.0062595985389054E8 ; 1.8284113097678623E10 ; 0.0
100 ; 2223895.9281121204 ; 2.017529423225774E8 ; 2.028511739615089E8 ; 1.848585169803807E10 ; 0.0
101 ; 2222567.6017991533 ; 2.0176726796362463E8 ; 2.0507506988962102E8 ; 1.868760464036065E10 ; 0.0
102 ; 2221112.6115590488 ; 2.017815766809114E8 ; 2.0729763749142018E8 ; 1.8889371908324272E10 ; 0.0
103 ; 2219002.979333558 ; 2.017958678860481E8 ; 2.0951875010297924E8 ; 1.9091153485005184E10 ; 0.0
104 ; 2220209.541524805 ; 2.0181014100331852E8 ; 2.117377530823128E8 ; 1.929294935289123E10 ; 0.0
105 ; 2217823.9844545377 ; 2.0182439546909955E8 ; 2.139579626238376E8 ; 1.949475949389455E10 ; 0.0
106 ; 2211902.432888928 ; 2.018386307313138E8 ; 2.1617578660829213E8 ; 1.969658388936365E10 ; 0.0
107 ; 2216468.5888897255 ; 2.018528462489133E8 ; 2.1838768904118106E8 ; 1.9898422520094967E10 ; 0.0
108 ; 2211203.1119346498 ; 2.018670414913919E8 ; 2.2060415763007078E8 ; 2.010027536634388E10 ; 0.0
109 ; 2206726.1149632507 ; 2.01881215938325E8 ; 2.2281536074200544E8 ; 2.030214240783527E10 ; 0.0
110 ; 2208878.434740296 ; 2.0189536907893428E8 ; 2.250220868569687E8 ; 2.0504023623773594E10 ; 0.0
111 ; 2206400.809549275 ; 2.0190950041167697E8 ; 2.27230965291709E8 ; 2.0705918992852528E10 ; 0.0
112 ; 2204812.1080745813 ; 2.019236094438566E8 ; 2.2943736610125828E8 ; 2.0907828493264206E10 ; 0.0
113 ; 2199876.8030368057 ; 2.019376956912555E8 ; 2.3164217820933285E8 ; 2.110975210270806E10 ; 0.0
114 ; 2199863.1840946446 ; 2.019517586777866E8 ; 2.3384205501236966E8 ; 2.1311689798399315E10 ; 0.0
115 ; 2194938.712519373 ; 2.0196579793516362E8 ; 2.360419181964643E8 ; 2.1513641557077103E10 ; 0.0
116 ; 2195246.777236428 ; 2.0197981300258937E8 ; 2.3823685690898368E8 ; 2.1715607355012268E10 ; 0.0
117 ; 2193251.700516978 ; 2.0199380342645946E8 ; 2.404321036862201E8 ; 2.191758716801486E10 ; 0.0
118 ; 2191578.5042323726 ; 2.0200776876008224E8 ; 2.4262535538673708E8 ; 2.211958097144132E10 ; 0.0
119 ; 2186324.59965413 ; 2.0202170856341282E8 ; 2.4481693389096946E8 ; 2.23215887402014E10 ; 0.0
120 ; 2184546.5566583765 ; 2.0203562240280083E8 ; 2.470032584906236E8 ; 2.2523610448764812E10 ; 0.0
121 ; 2181876.297939068 ; 2.020495098507512E8 ; 2.4918780504728198E8 ; 2.2725646071167614E10 ; 0.0
122 ; 2178205.957557489 ; 2.0206337048569676E8 ; 2.5136968134522104E8 ; 2.2927695581018364E10 ; 0.0
123 ; 2179572.978564727 ; 2.020772038917828E8 ; 2.5354788730277854E8 ; 2.312975895150406E10 ; 0.0
124 ; 2173603.7152244593 ; 2.0209100965866187E8 ; 2.5572746028134328E8 ; 2.3331836155395844E10 ; 0.0
125 ; 2172464.5516694807 ; 2.0210478738129914E8 ; 2.5790106399656773E8 ; 2.3533927165054504E10 ; 0.0
126 ; 2167790.0485124206 ; 2.0211853665978736E8 ; 2.600735285482372E8 ; 2.3736031952435802E10 ; 0.0
127 ; 2166891.737571165 ; 2.0213225709917068E8 ; 2.6224131859674963E8 ; 2.393815048909559E10 ; 0.0
128 ; 2162682.8974707625 ; 2.0214594830927733E8 ; 2.6440821033432078E8 ; 2.414028274619476E10 ; 0.0
129 ; 2159690.2893888056 ; 2.0215960990456036E8 ; 2.6657089323179156E8 ; 2.4342428694504036E10 ; 0.0
130 ; 2157251.1900983755 ; 2.021732415039459E8 ; 2.687305835211804E8 ; 2.4544588304408596E10 ; 0.0
131 ; 2150001.383666426 ; 2.02186842730689E8 ; 2.708878347112788E8 ; 2.474676154591254E10 ; 0.0
132 ; 2144224.8119535656 ; 2.0220041321223602E8 ; 2.730378360949452E8 ; 2.494894838864323E10 ; 0.0
133 ; 2137493.0765973106 ; 2.0221395258009383E8 ; 2.7518206090689874E8 ; 2.5151148801855465E10 ; 0.0
134 ; 2130923.119461497 ; 2.0222746046970505E8 ; 2.7731955398349607E8 ; 2.535336275443556E10 ; 0.0
135 ; 2126756.092041358 ; 2.0224093652032903E8 ; 2.7945047710295755E8 ; 2.5555590214905262E10 ; 0.0
136 ; 2124259.4391744714 ; 2.0225438037492865E8 ; 2.815772331949989E8 ; 2.575783115142559E10 ; 0.0
137 ; 2115139.6115626264 ; 2.0226779168006214E8 ; 2.837014926341734E8 ; 2.5960085531800518E10 ; 0.0
138 ; 2112323.0848813606 ; 2.022811700857801E8 ; 2.85816632245736E8 ; 2.616235332348058E10 ; 0.0
139 ; 2106682.2059061844 ; 2.0229451524552706E8 ; 2.8792895533061737E8 ; 2.636463449356636E10 ; 0.0
140 ; 2101174.2784486115 ; 2.0230782681604755E8 ; 2.900356375365236E8 ; 2.6566929008811886E10 ; 0.0
141 ; 2093723.1069373186 ; 2.023211044572967E8 ; 2.9213681181497216E8 ; 2.6769236835627934E10 ; 0.0
142 ; 2086312.7642455674 ; 2.0233434783235464E8 ; 2.9423053492190945E8 ; 2.697155794008523E10 ; 0.0
143 ; 2077201.7139153944 ; 2.0234755660734475E8 ; 2.96316847686155E8 ; 2.7173892287917587E10 ; 0.0
144 ; 2075635.286877955 ; 2.0236073045135573E8 ; 2.983940494000704E8 ; 2.7376239844524933E10 ; 0.0
145 ; 2073786.0881509634 ; 2.0237386903636718E8 ; 3.0046968468694836E8 ; 2.7578600574976288E10 ; 0.0
146 ; 2069049.409475213 ; 2.0238697203717816E8 ; 3.0254347077509934E8 ; 2.7780974444012653E10 ; 0.0
147 ; 2064704.0488670438 ; 2.024000391313394E8 ; 3.0461252018457454E8 ; 2.798336141604983E10 ; 0.0
148 ; 2060176.99587142 ; 2.0241306999908808E8 ; 3.066772242334416E8 ; 2.818576145518117E10 ; 0.0
149 ; 2062561.9277595303 ; 2.0242606432328576E8 ; 3.08737401229313E8 ; 2.838817452518026E10 ; 0.0
150 ; 2057431.5784316 ; 2.0243902178935882E8 ; 3.1079996315707254E8 ; 2.8590600589503544E10 ; 0.0
151 ; 2052955.3253912246 ; 2.024519420852417E8 ; 3.1285739473550415E8 ; 2.8793039611292904E10 ; 0.0
152 ; 2048557.8856091346 ; 2.0246482490132254E8 ; 3.149103500608954E8 ; 2.8995491553378147E10 ; 0.0
153 ; 2046546.1508679155 ; 2.0247766993039092E8 ; 3.1695890794650453E8 ; 2.919795637827947E10 ; 0.0
154 ; 2046229.8917094897 ; 2.0249047686758837E8 ; 3.190054540973725E8 ; 2.9400434048209858E10 ; 0.0
155 ; 2037816.7943272803 ; 2.0250324541036054E8 ; 3.21051683989082E8 ; 2.9602924525077446E10 ; 0.0
156 ; 2035756.5794325995 ; 2.0251597525841168E8 ; 3.2308950078340924E8 ; 2.980542777048781E10 ; 0.0
157 ; 2033202.3339840018 ; 2.02528666113661E8 ; 3.2512525736284184E8 ; 3.000794374574622E10 ; 0.0
158 ; 2030475.088625556 ; 2.0254131768020085E8 ; 3.2715845969682586E8 ; 3.0210472411859882E10 ; 0.0
159 ; 2024293.9433626302 ; 2.0255392966425675E8 ; 3.291889347854514E8 ; 3.0413013729540085E10 ; 0.0
160 ; 2023545.5009669883 ; 2.0256650177414912E8 ; 3.3121322872881407E8 ; 3.061556765920434E10 ; 0.0
161 ; 2019407.47126466 ; 2.0257903372025657E8 ; 3.3323677422978103E8 ; 3.0818134160978493E10 ; 0.0
162 ; 2016825.9380824491 ; 2.0259152521498075E8 ; 3.352561817010457E8 ; 3.102071319469875E10 ; 0.0
163 ; 2012338.4212897401 ; 2.0260397597271276E8 ; 3.3727300763912815E8 ; 3.122330471991373E10 ; 0.0
164 ; 2011123.2298119997 ; 2.0261638570980096E8 ; 3.392853460604179E8 ; 3.1425908695886444E10 ; 0.0
165 ; 2004552.7749677082 ; 2.0262875414451993E8 ; 3.412964692902299E8 ; 3.1628525081596245E10 ; 0.0
166 ; 2004005.9041246795 ; 2.026410809970412E8 ; 3.4330102206519765E8 ; 3.1831153835740765E10 ; 0.0
167 ; 1998299.32874087 ; 2.0265336598940456E8 ; 3.453050279693223E8 ; 3.2033794916737804E10 ; 0.0
168 ; 1998120.9602712146 ; 2.0266560884549126E8 ; 3.473033272980632E8 ; 3.2236448282727207E10 ; 0.0
169 ; 1991820.967146792 ; 2.0267780929099777E8 ; 3.4930144825833446E8 ; 3.2439113891572697E10 ; 0.0
170 ; 1987674.5714366704 ; 2.0268996705341095E8 ; 3.512932692254813E8 ; 3.2641791700863693E10 ; 0.0
171 ; 1988275.6191988508 ; 2.0270208186198413E8 ; 3.532809437969179E8 ; 3.2844481667917103E10 ; 0.0
172 ; 1984423.825101981 ; 2.0271415344771442E8 ; 3.552692194161168E8 ; 3.3047183749779087E10 ; 0.0
173 ; 1980283.4610302886 ; 2.0272618154332042E8 ; 3.5725364324121875E8 ; 3.3249897903226803E10 ; 0.0
174 ; 1978064.1957797743 ; 2.0273816588322163E8 ; 3.5923392670224905E8 ; 3.3452624084770123E10 ; 0.0
175 ; 1975260.9322845654 ; 2.02750106203518E8 ; 3.6121199089802885E8 ; 3.3655362250653343E10 ; 0.0
176 ; 1971146.8625631083 ; 2.0276200224197084E8 ; 3.6318725183031344E8 ; 3.385811235685686E10 ; 0.0
177 ; 1968495.826492806 ; 2.0277385373798427E8 ; 3.651583986928766E8 ; 3.406087435909883E10 ; 0.0
178 ; 1967884.4734577348 ; 2.027856604325875E8 ; 3.6712689451936936E8 ; 3.4263648212836815E10 ; 0.0
179 ; 1967418.1321503061 ; 2.027974220684179E8 ; 3.690947789928271E8 ; 3.44664338732694E10 ; 0.0
180 ; 1960807.0533865478 ; 2.0280913838970473E8 ; 3.710621971249774E8 ; 3.466923129533782E10 ; 0.0
181 ; 1960396.0792194435 ; 2.0282080914225367E8 ; 3.73023004178364E8 ; 3.487204043372752E10 ; 0.0
182 ; 1959112.396911373 ; 2.0283243407343164E8 ; 3.7498340025758344E8 ; 3.5074861242869774E10 ; 0.0
183 ; 1954001.7714116022 ; 2.0284401293215293E8 ; 3.769425126544948E8 ; 3.527769367694321E10 ; 0.0
184 ; 1949513.5258009601 ; 2.028555454688651E8 ; 3.788965144259064E8 ; 3.548053768987536E10 ; 0.0
185 ; 1951270.6630871631 ; 2.0286703143553618E8 ; 3.8084602795170736E8 ; 3.568339323534422E10 ; 0.0
186 ; 1947116.2994264371 ; 2.0287847058564204E8 ; 3.8279729861479455E8 ; 3.588626026677976E10 ; 0.0
187 ; 1944477.2602589384 ; 2.0288986267415434E8 ; 3.84744414914221E8 ; 3.60891387373654E10 ; 0.0
188 ; 1944456.3330597726 ; 2.0290120745752907E8 ; 3.866888921744799E8 ; 3.629202860003956E10 ; 0.0
189 ; 1938788.730367504 ; 2.0291250469369555E8 ; 3.886333485075397E8 ; 3.6494929807497086E10 ; 0.0
190 ; 1938644.9021810463 ; 2.0292375414204597E8 ; 3.905721372379072E8 ; 3.669784231219078E10 ; 0.0
191 ; 1935739.7908928867 ; 2.029349555634252E8 ; 3.925107821400882E8 ; 3.6900766066332825E10 ; 0.0
192 ; 1934776.612234086 ; 2.029461087201213E8 ; 3.944465219309811E8 ; 3.710370102189625E10 ; 0.0
193 ; 1926374.8368520848 ; 2.0295721337585616E8 ; 3.963812985432152E8 ; 3.730664713061637E10 ; 0.0
194 ; 1929079.0772680845 ; 2.0296826929577687E8 ; 3.983076733800673E8 ; 3.7509604343992226E10 ; 0.0
195 ; 1924415.8008889745 ; 2.0297927624644715E8 ; 4.0023675245733535E8 ; 3.7712572613288E10 ; 0.0
196 ; 1923302.9601249304 ; 2.029902339958394E8 ; 4.021611682582243E8 ; 3.791555188953445E10 ; 0.0
197 ; 1919578.2384696896 ; 2.03001142313327E8 ; 4.040844712183492E8 ; 3.811854212353029E10 ; 0.0
198 ; 1916626.252784892 ; 2.0301200096967703E8 ; 4.060040494568189E8 ; 3.832154326584361E10 ; 0.0
199 ; 1913876.6396486643 ; 2.030228097370432E8 ; 4.079206757096038E8 ; 3.852455526681329E10 ; 0.0
