CSV File for the City 3 on Day 205
1 - Minute m 
2 - Power Consumed at minute m 
3 - Power Produced at minute m 
4 - Energy Consumed since the beginning of the day 
5 - Energy Produced since the beginning of the day 
6 - Energy Lost since the beginning of the day on lines starting from the city
 
0 ; 175512.68602020654 ; 1.0537245802205566E8 ; 0.0 ; 0.0 ; 0.0
1 ; 178419.30165304293 ; 1.0552506684105223E8 ; 175512.68602020654 ; 1.0537245802205566E8 ; 0.0
2 ; 181558.12761556942 ; 1.0598648555513248E8 ; 353931.98767324944 ; 2.108975248631079E8 ; 0.0
3 ; 183011.55871352582 ; 1.0675671805060023E8 ; 535490.1152888188 ; 3.1688401041824037E8 ; 0.0
4 ; 185891.65987115313 ; 1.0783576787872714E8 ; 718501.6740023447 ; 4.236407284688406E8 ; 0.0
5 ; 192312.46577668982 ; 1.0922363821434164E8 ; 904393.3338734978 ; 5.3147649634756774E8 ; 0.0
6 ; 196114.83302069578 ; 1.1092033181716135E8 ; 1096705.7996501876 ; 6.407001345619094E8 ; 0.0
7 ; 204906.58705158136 ; 1.1292585099690503E8 ; 1292820.6326708833 ; 7.516204663790708E8 ; 0.0
8 ; 216424.91083065586 ; 1.1524019758317286E8 ; 1497727.2197224647 ; 8.645463173759758E8 ; 0.0
9 ; 233878.54449167984 ; 1.1786337290098739E8 ; 1714152.1305531205 ; 9.797865149591486E8 ; 0.0
10 ; 259622.44644146133 ; 1.2079537775274682E8 ; 1948030.6750448004 ; 1.097649887860136E9 ; 0.0
11 ; 302873.8701907482 ; 1.2403621240716025E8 ; 2207653.1214862615 ; 1.2184452656128829E9 ; 0.0
12 ; 369188.9278886729 ; 1.2758587659551856E8 ; 2510526.9916770095 ; 1.3424814780200431E9 ; 0.0
13 ; 431876.42215869296 ; 1.3144436951542354E8 ; 2879715.9195656823 ; 1.4700673546155617E9 ; 0.0
14 ; 440981.6348002013 ; 1.3561168984185272E8 ; 3311592.3417243753 ; 1.6015117241309853E9 ; 0.0
15 ; 444741.5773542255 ; 1.4008783574520582E8 ; 3752573.9765245765 ; 1.737123413972838E9 ; 0.0
16 ; 446604.4149003093 ; 1.4487280491576418E8 ; 4197315.553878802 ; 1.8772112497180438E9 ; 0.0
17 ; 449811.92466561927 ; 1.499665945938101E8 ; 4643919.968779111 ; 2.022084054633808E9 ; 0.0
18 ; 453730.111297409 ; 1.553692016045152E8 ; 5093731.893444731 ; 2.172050649227618E9 ; 0.0
19 ; 458392.3077849388 ; 1.610806223966078E8 ; 5547462.00474214 ; 2.3274198508321333E9 ; 0.0
20 ; 461674.6137976778 ; 1.67100853083784E8 ; 6005854.312527079 ; 2.488500473228741E9 ; 0.0
21 ; 463895.46717643266 ; 1.7342988948782519E8 ; 6467528.926324757 ; 2.6556013263125253E9 ; 0.0
22 ; 467766.2763664761 ; 1.8006772718242353E8 ; 6931424.39350119 ; 2.8290312158003507E9 ; 0.0
23 ; 471299.20018083736 ; 1.8701436153679562E8 ; 7399190.6698676655 ; 3.0090989429827743E9 ; 0.0
24 ; 475389.86313111614 ; 1.9426978775826263E8 ; 7870489.870048502 ; 3.19611330451957E9 ; 0.0
25 ; 478840.67199737247 ; 2.0052204183128354E8 ; 8345879.733179619 ; 3.3903830922778325E9 ; 0.0
26 ; 481263.24307397683 ; 2.005246665928994E8 ; 8824720.405176992 ; 3.590905134109116E9 ; 0.0
27 ; 484422.26049091475 ; 2.0052742629344907E8 ; 9305983.64825097 ; 3.7914298007020154E9 ; 0.0
28 ; 488327.1564573629 ; 2.0053031587610915E8 ; 9790405.908741884 ; 3.9919572269954643E9 ; 0.0
29 ; 492718.9566644186 ; 2.0053333029967272E8 ; 1.0278733065199247E7 ; 4.1924875428715734E9 ; 0.0
30 ; 495231.4505929661 ; 2.0053646456476536E8 ; 1.0771452021863665E7 ; 4.393020873171247E9 ; 0.0
31 ; 498615.1523310007 ; 2.005397137367511E8 ; 1.1266683472456632E7 ; 4.5935573377360115E9 ; 0.0
32 ; 501748.19594551716 ; 2.0054307296541113E8 ; 1.1765298624787632E7 ; 4.794097051472763E9 ; 0.0
33 ; 506055.6481913464 ; 2.0054653750153628E8 ; 1.2267046820733149E7 ; 4.994640124438174E9 ; 0.0
34 ; 506979.85983467055 ; 2.0055010271061984E8 ; 1.2773102468924494E7 ; 5.195186661939711E9 ; 0.0
35 ; 510779.40975690313 ; 2.0055376408386654E8 ; 1.3280082328759165E7 ; 5.395736764650331E9 ; 0.0
36 ; 513463.4739661347 ; 2.0055751724675333E8 ; 1.3790861738516068E7 ; 5.596290528734197E9 ; 0.0
37 ; 517765.99389004934 ; 2.0056135796538547E8 ; 1.4304325212482203E7 ; 5.79684804598095E9 ; 0.0
38 ; 519961.00429937174 ; 2.0056528215089244E8 ; 1.4822091206372252E7 ; 5.997409403946336E9 ; 0.0
39 ; 522821.8209146489 ; 2.0056928586210263E8 ; 1.5342052210671624E7 ; 6.197974686097228E9 ; 0.0
40 ; 526156.9867903425 ; 2.0057336530672407E8 ; 1.5864874031586273E7 ; 6.398543971959331E9 ; 0.0
41 ; 529109.9134648206 ; 2.0057751684124592E8 ; 1.6391031018376615E7 ; 6.599117337266054E9 ; 0.0
42 ; 529404.8985252994 ; 2.0058173696975774E8 ; 1.6920140931841437E7 ; 6.7996948541073E9 ; 0.0
43 ; 532672.7231314301 ; 2.005860223418674E8 ; 1.7449545830366734E7 ; 7.000276591077058E9 ; 0.0
44 ; 533542.6409478163 ; 2.0059036974987987E8 ; 1.7982218553498164E7 ; 7.200862613418925E9 ; 0.0
45 ; 537023.0743901555 ; 2.005947761253816E8 ; 1.851576119444598E7 ; 7.401452983168805E9 ; 0.0
46 ; 538817.3040056308 ; 2.0059923853535822E8 ; 1.9052784268836133E7 ; 7.602047759294187E9 ; 0.0
47 ; 541293.5442671009 ; 2.0060375417795718E8 ; 1.9591601572841763E7 ; 7.802646997829545E9 ; 0.0
48 ; 541770.2645849405 ; 2.0060832037799177E8 ; 2.0132895117108863E7 ; 8.003250752007503E9 ; 0.0
49 ; 544593.1237856458 ; 2.006129345822691E8 ; 2.0674665381693803E7 ; 8.203859072385494E9 ; 0.0
50 ; 545812.0889182807 ; 2.006175943548126E8 ; 2.1219258505479448E7 ; 8.404472006967763E9 ; 0.0
51 ; 547266.7387025364 ; 2.0062229737203753E8 ; 2.1765070594397727E7 ; 8.605089601322575E9 ; 0.0
52 ; 548992.1342886009 ; 2.006270414179294E8 ; 2.2312337333100263E7 ; 8.805711898694613E9 ; 0.0
53 ; 551188.9685358678 ; 2.0063182437926447E8 ; 2.2861329467388865E7 ; 9.006338940112541E9 ; 0.0
54 ; 551083.2303581086 ; 2.0063664424090615E8 ; 2.341251843592473E7 ; 9.206970764491806E9 ; 0.0
55 ; 553698.6124796266 ; 2.006414990812026E8 ; 2.396360166628284E7 ; 9.407607408732712E9 ; 0.0
56 ; 554023.8409076844 ; 2.0064638706750596E8 ; 2.4517300278762467E7 ; 9.608248907813915E9 ; 0.0
57 ; 557038.5797085898 ; 2.0065130645182896E8 ; 2.5071324119670153E7 ; 9.808895294881422E9 ; 0.0
58 ; 555662.2218329685 ; 2.0065625556664982E8 ; 2.5628362699378744E7 ; 1.0009546601333252E10 ; 0.0
59 ; 557351.0314937402 ; 2.0066123282087368E8 ; 2.6184024921211712E7 ; 1.0210202856899902E10 ; 0.0
60 ; 559675.7271674471 ; 2.006662366959549E8 ; 2.674137595270545E7 ; 1.0410864089720776E10 ; 0.0
61 ; 560315.2158429262 ; 2.0067126574218345E8 ; 2.7301051679872897E7 ; 1.061153032641673E10 ; 0.0
62 ; 562275.4438975065 ; 2.0067631857513532E8 ; 2.786136689571582E7 ; 1.0812201592158915E10 ; 0.0
63 ; 563091.2436516474 ; 2.006813938722862E8 ; 2.842364233961333E7 ; 1.101287791073405E10 ; 0.0
64 ; 564801.4609943002 ; 2.006864903697859E8 ; 2.8986733583264977E7 ; 1.1213559304606337E10 ; 0.0
65 ; 563693.5011427648 ; 2.006916068593903E8 ; 2.9551535044259276E7 ; 1.1414245794976122E10 ; 0.0
66 ; 567760.0449703933 ; 2.0069674218554634E8 ; 3.0115228545402043E7 ; 1.1614937401835512E10 ; 0.0
67 ; 568126.9291090361 ; 2.0070189524262598E8 ; 3.0682988590372436E7 ; 1.1815634144021059E10 ; 0.0
68 ; 568598.8866644241 ; 2.0070706497230285E8 ; 3.1251115519481473E7 ; 1.2016336039263685E10 ; 0.0
69 ; 570540.7372775631 ; 2.0071225036106735E8 ; 3.1819714406145897E7 ; 1.2217043104235989E10 ; 0.0
70 ; 570803.8114462452 ; 2.0071745043787348E8 ; 3.239025514342346E7 ; 1.2417755354597055E10 ; 0.0
71 ; 573394.4137988172 ; 2.0072266427191243E8 ; 3.2961058954869706E7 ; 1.261847280503493E10 ; 0.0
72 ; 572688.7102358964 ; 2.0072789097050652E8 ; 3.3534453368668523E7 ; 1.281919546930684E10 ; 0.0
73 ; 574907.8016752432 ; 2.0073312967711845E8 ; 3.410714207890442E7 ; 1.3019923360277348E10 ; 0.0
74 ; 575777.1419316722 ; 2.0073837956946933E8 ; 3.4682049880579665E7 ; 1.3220656489954466E10 ; 0.0
75 ; 576803.5642521456 ; 2.0074363985776085E8 ; 3.525782702251134E7 ; 1.3421394869523935E10 ; 0.0
76 ; 578233.7169553844 ; 2.0074890978299573E8 ; 3.5834630586763486E7 ; 1.3622138509381697E10 ; 0.0
77 ; 579397.2011907337 ; 2.007541886153913E8 ; 3.641286430371887E7 ; 1.3822887419164692E10 ; 0.0
78 ; 580577.1358803245 ; 2.0075947565288132E8 ; 3.6992261504909605E7 ; 1.4023641607780083E10 ; 0.0
79 ; 579614.122423217 ; 2.0076477021970114E8 ; 3.7572838640789926E7 ; 1.4224401083432964E10 ; 0.0
80 ; 580458.0859335859 ; 2.0077007166505173E8 ; 3.815245276321314E7 ; 1.4425165853652666E10 ; 0.0
81 ; 578810.8298891794 ; 2.0077537936183798E8 ; 3.873291084914673E7 ; 1.4625935925317719E10 ; 0.0
82 ; 580341.291899466 ; 2.0078069270547736E8 ; 3.931172167903591E7 ; 1.4826711304679556E10 ; 0.0
83 ; 580857.7767169457 ; 2.0078601111277458E8 ; 3.9892062970935374E7 ; 1.5027491997385033E10 ; 0.0
84 ; 580347.8430258028 ; 2.00791334020859E8 ; 4.047292074765232E7 ; 1.5228278008497807E10 ; 0.0
85 ; 580201.2777570232 ; 2.0079666088618058E8 ; 4.1053268590678126E7 ; 1.5429069342518665E10 ; 0.0
86 ; 580466.0679184593 ; 2.0080199118356165E8 ; 4.163346986843515E7 ; 1.5629866003404846E10 ; 0.0
87 ; 580258.4781259601 ; 2.0080732440530068E8 ; 4.221393593635361E7 ; 1.5830667994588408E10 ; 0.0
88 ; 581482.4278115199 ; 2.008126600603254E8 ; 4.279419441447957E7 ; 1.6031475318993708E10 ; 0.0
89 ; 580872.3846416665 ; 2.0081799767339253E8 ; 4.337567684229109E7 ; 1.6232287979054033E10 ; 0.0
90 ; 579028.8217055763 ; 2.0082333678433082E8 ; 4.395654922693276E7 ; 1.6433105976727427E10 ; 0.0
91 ; 580048.4822420498 ; 2.008286769473255E8 ; 4.453557804863834E7 ; 1.6633929313511757E10 ; 0.0
92 ; 580658.9894913216 ; 2.0083401773024166E8 ; 4.5115626530880384E7 ; 1.6834757990459082E10 ; 0.0
93 ; 581357.1570732787 ; 2.0083935871398383E8 ; 4.5696285520371705E7 ; 1.7035592008189323E10 ; 0.0
94 ; 580833.2336289356 ; 2.0084469949189022E8 ; 4.627764267744499E7 ; 1.723643136690331E10 ; 0.0
95 ; 580239.8158776459 ; 2.0085003966915923E8 ; 4.685847591107392E7 ; 1.74372760663952E10 ; 0.0
96 ; 579574.2887785892 ; 2.008553788623067E8 ; 4.743871572695157E7 ; 1.7638126106064358E10 ; 0.0
97 ; 578991.8574901983 ; 2.0086071669865173E8 ; 4.801829001573016E7 ; 1.7838981484926666E10 ; 0.0
98 ; 580310.6659326316 ; 2.0086605281582975E8 ; 4.8597281873220354E7 ; 1.8039842201625317E10 ; 0.0
99 ; 580360.708056393 ; 2.0087138686133128E8 ; 4.917759253915299E7 ; 1.8240708254441147E10 ; 0.0
100 ; 579558.6936055706 ; 2.0087671849206457E8 ; 4.975795324720938E7 ; 1.844157964130248E10 ; 0.0
101 ; 578806.8148556344 ; 2.0088204737394106E8 ; 5.033751194081495E7 ; 1.8642456359794544E10 ; 0.0
102 ; 578733.3018967153 ; 2.0088737318148252E8 ; 5.0916318755670585E7 ; 1.8843338407168484E10 ; 0.0
103 ; 579680.5327148509 ; 2.00892695597448E8 ; 5.14950520575673E7 ; 1.9044225780349968E10 ; 0.0
104 ; 578848.2556713953 ; 2.0089801431248018E8 ; 5.207473259028215E7 ; 1.9245118475947414E10 ; 0.0
105 ; 578283.3756513374 ; 2.0090332902476975E8 ; 5.265358084595355E7 ; 1.9446016490259895E10 ; 0.0
106 ; 577991.9790158655 ; 2.0090863943973663E8 ; 5.323186422160488E7 ; 1.9646919819284664E10 ; 0.0
107 ; 579756.9871074345 ; 2.009139452697272E8 ; 5.380985620062075E7 ; 1.98478284587244E10 ; 0.0
108 ; 577890.69292916 ; 2.009192462337271E8 ; 5.438961318772818E7 ; 2.0048742403994125E10 ; 0.0
109 ; 576740.7881803508 ; 2.009245420570878E8 ; 5.4967503880657345E7 ; 2.024966165022785E10 ; 0.0
110 ; 576798.7694248909 ; 2.0092983247126725E8 ; 5.55442446688377E7 ; 2.045058619228494E10 ; 0.0
111 ; 576439.2225301856 ; 2.0093511721358287E8 ; 5.612104343826259E7 ; 2.0651516024756207E10 ; 0.0
112 ; 575219.7405938323 ; 2.00940396026977E8 ; 5.6697482660792775E7 ; 2.0852451141969788E10 ; 0.0
113 ; 576791.0083008853 ; 2.0094566865979353E8 ; 5.727270240138661E7 ; 2.1053391537996765E10 ; 0.0
114 ; 574772.8852731825 ; 2.009509348655656E8 ; 5.78494934096875E7 ; 2.125433720665656E10 ; 0.0
115 ; 576118.8383966716 ; 2.0095619440281326E8 ; 5.842426629496068E7 ; 2.1455288141522125E10 ; 0.0
116 ; 574202.1549491961 ; 2.0096144703485113E8 ; 5.9000385133357346E7 ; 2.165624433592494E10 ; 0.0
117 ; 573070.0992977972 ; 2.0096669252960503E8 ; 5.957458728830654E7 ; 2.185720578295979E10 ; 0.0
118 ; 573557.8703429113 ; 2.0097193065943736E8 ; 6.014765738760434E7 ; 2.2058172475489395E10 ; 0.0
119 ; 572448.3071073099 ; 2.0097716120098075E8 ; 6.072121525794725E7 ; 2.2259144406148834E10 ; 0.0
120 ; 572394.1121261634 ; 2.0098238393497953E8 ; 6.129366356505456E7 ; 2.2460121567349815E10 ; 0.0
121 ; 571262.3859592524 ; 2.0098759864613843E8 ; 6.186605767718072E7 ; 2.2661103951284794E10 ; 0.0
122 ; 571271.8724939907 ; 2.0099280512297866E8 ; 6.2437320063139975E7 ; 2.286209154993093E10 ; 0.0
123 ; 570355.8760398142 ; 2.009980031577001E8 ; 6.3008591935633965E7 ; 2.306308435505391E10 ; 0.0
124 ; 570079.5616558146 ; 2.0100319254605043E8 ; 6.3578947811673775E7 ; 2.326408235821161E10 ; 0.0
125 ; 569439.6610377323 ; 2.0100837308719966E8 ; 6.414902737332959E7 ; 2.346508555075766E10 ; 0.0
126 ; 569504.7841542122 ; 2.0101354458362082E8 ; 6.471846703436732E7 ; 2.366609392384486E10 ; 0.0
127 ; 569201.5256932528 ; 2.010187068409757E8 ; 6.528797181852154E7 ; 2.3867107468428482E10 ; 0.0
128 ; 568052.6454385375 ; 2.0102385966800594E8 ; 6.585717334421479E7 ; 2.406812617526946E10 ; 0.0
129 ; 565835.0243907301 ; 2.0102900287642887E8 ; 6.642522598965333E7 ; 2.4269150034937466E10 ; 0.0
130 ; 564598.3896182863 ; 2.01034136280838E8 ; 6.6991061014044054E7 ; 2.4470179037813896E10 ; 0.0
131 ; 563877.5288595837 ; 2.0103925969860798E8 ; 6.755565940366234E7 ; 2.4671213174094734E10 ; 0.0
132 ; 561651.9530073857 ; 2.0104437294980368E8 ; 6.811953693252192E7 ; 2.4872252433793343E10 ; 0.0
133 ; 560957.6354938546 ; 2.0104947585709316E8 ; 6.868118888552931E7 ; 2.5073296806743145E10 ; 0.0
134 ; 559397.8207781625 ; 2.0105456824566466E8 ; 6.924214652102317E7 ; 2.527434628260024E10 ; 0.0
135 ; 558919.1885117615 ; 2.01059649943147E8 ; 6.980154434180133E7 ; 2.5475400850845905E10 ; 0.0
136 ; 557787.628116419 ; 2.010647207795334E8 ; 7.036046353031309E7 ; 2.567646050078905E10 ; 0.0
137 ; 556242.247135196 ; 2.0106978058710867E8 ; 7.09182511584295E7 ; 2.5877525221568584E10 ; 0.0
138 ; 553682.9281047229 ; 2.0107482920037952E8 ; 7.14744934055647E7 ; 2.6078595002155693E10 ; 0.0
139 ; 550005.4994224438 ; 2.010798664560077E8 ; 7.202817633366942E7 ; 2.627966983135607E10 ; 0.0
140 ; 550162.6661740282 ; 2.0108489219274604E8 ; 7.257818183309187E7 ; 2.648074969781208E10 ; 0.0
141 ; 547264.9701664126 ; 2.0108990625137722E8 ; 7.31283444992659E7 ; 2.6681834590004826E10 ; 0.0
142 ; 545693.3426294618 ; 2.0109490847465503E8 ; 7.367560946943231E7 ; 2.6882924496256203E10 ; 0.0
143 ; 544393.1530581363 ; 2.0109989870724812E8 ; 7.422130281206177E7 ; 2.7084019404730858E10 ; 0.0
144 ; 542745.3655818803 ; 2.01104876795686E8 ; 7.476569596511991E7 ; 2.7285119303438107E10 ; 0.0
145 ; 543170.5076908545 ; 2.0110984258830753E8 ; 7.53084413307018E7 ; 2.748622418023379E10 ; 0.0
146 ; 542872.2687712847 ; 2.0111479593521106E8 ; 7.585161183839266E7 ; 2.7687334022822098E10 ; 0.0
147 ; 542545.628573338 ; 2.011197366882071E8 ; 7.639448410716395E7 ; 2.788844881875731E10 ; 0.0
148 ; 540939.6374011503 ; 2.0112466470077258E8 ; 7.69370297357373E7 ; 2.8089568555445515E10 ; 0.0
149 ; 540417.3831002843 ; 2.011295798280072E8 ; 7.747796937313844E7 ; 2.8290693220146286E10 ; 0.0
150 ; 539808.1558551051 ; 2.0113448192659122E8 ; 7.801838675623873E7 ; 2.8491822799974293E10 ; 0.0
151 ; 537734.7108321433 ; 2.0113937085474542E8 ; 7.855819491209383E7 ; 2.8692957281900883E10 ; 0.0
152 ; 537139.1586267762 ; 2.0114424647219217E8 ; 7.909592962292598E7 ; 2.8894096652755627E10 ; 0.0
153 ; 536357.238058859 ; 2.0114910864011836E8 ; 7.963306878155276E7 ; 2.9095240899227818E10 ; 0.0
154 ; 536223.9060501832 ; 2.011539572211398E8 ; 8.016942601961163E7 ; 2.9296390007867935E10 ; 0.0
155 ; 536421.8426735783 ; 2.0115879207926676E8 ; 8.070564992566182E7 ; 2.9497543965089073E10 ; 0.0
156 ; 534888.6103047804 ; 2.0116361307987118E8 ; 8.12420717683354E7 ; 2.969870275716834E10 ; 0.0
157 ; 533725.540677886 ; 2.0116842008965507E8 ; 8.177696037864019E7 ; 2.989986637024821E10 ; 0.0
158 ; 533481.7629393623 ; 2.0117321297662E8 ; 8.231068591931808E7 ; 3.0101034790337868E10 ; 0.0
159 ; 533698.4042992286 ; 2.0117799161003792E8 ; 8.284416768225744E7 ; 3.0302208003314487E10 ; 0.0
160 ; 532280.9352236779 ; 2.0118275586042318E8 ; 8.337786608655667E7 ; 3.0503385994924526E10 ; 0.0
161 ; 531561.0549238931 ; 2.011875055995054E8 ; 8.391014702178036E7 ; 3.070456875078495E10 ; 0.0
162 ; 531717.2082377666 ; 2.011922407002036E8 ; 8.444170807670425E7 ; 3.0905756256384457E10 ; 0.0
163 ; 530779.0869466295 ; 2.0119696103660122E8 ; 8.497342528494202E7 ; 3.110694849708466E10 ; 0.0
164 ; 528326.4022348345 ; 2.0120166648392215E8 ; 8.550420437188865E7 ; 3.130814545812126E10 ; 0.0
165 ; 528308.2561176561 ; 2.0120635691850755E8 ; 8.603253077412349E7 ; 3.1509347124605183E10 ; 0.0
166 ; 528799.036094591 ; 2.0121103221779373E8 ; 8.656083903024115E7 ; 3.171055348152369E10 ; 0.0
167 ; 528613.6865009483 ; 2.012156922602908E8 ; 8.708963806633574E7 ; 3.191176451374148E10 ; 0.0
168 ; 526551.1032642327 ; 2.0122033692556196E8 ; 8.761825175283669E7 ; 3.2112980206001774E10 ; 0.0
169 ; 524619.3945905936 ; 2.0122496609420392E8 ; 8.814480285610092E7 ; 3.2314200542927338E10 ; 0.0
170 ; 525326.7629431098 ; 2.0122957964782768E8 ; 8.86694222506915E7 ; 3.251542550902154E10 ; 0.0
171 ; 523846.00885636365 ; 2.012341774690403E8 ; 8.91947490136346E7 ; 3.271665508866937E10 ; 0.0
172 ; 523003.414123963 ; 2.012387594414272E8 ; 8.971859502249098E7 ; 3.291788926613841E10 ; 0.0
173 ; 521969.589299088 ; 2.0124332544953525E8 ; 9.024159843661495E7 ; 3.3119128025579834E10 ; 0.0
174 ; 523055.26698181307 ; 2.012478753788563E8 ; 9.076356802591403E7 ; 3.332037135102937E10 ; 0.0
175 ; 522319.90341488674 ; 2.012524091158115E8 ; 9.128662329289584E7 ; 3.3521619226408226E10 ; 0.0
176 ; 522230.80153090076 ; 2.0125692654773617E8 ; 9.180894319631073E7 ; 3.3722871635524036E10 ; 0.0
177 ; 522134.0164863632 ; 2.0126142756286502E8 ; 9.233117399784163E7 ; 3.3924128562071774E10 ; 0.0
178 ; 519835.96481163835 ; 2.0126591205031833E8 ; 9.285330801432799E7 ; 3.412538998963464E10 ; 0.0
179 ; 519810.26883578044 ; 2.012703799000882E8 ; 9.337314397913963E7 ; 3.432665590168496E10 ; 0.0
180 ; 519624.63374801417 ; 2.0127483100302553E8 ; 9.389295424797541E7 ; 3.4527926281585045E10 ; 0.0
181 ; 518614.11845976184 ; 2.0127926525082752E8 ; 9.441257888172342E7 ; 3.472920111258807E10 ; 0.0
182 ; 518949.4772327093 ; 2.0128368253602546E8 ; 9.493119300018318E7 ; 3.49304803778389E10 ; 0.0
183 ; 517480.3654092893 ; 2.012880827519731E8 ; 9.545014247741589E7 ; 3.513176406037492E10 ; 0.0
184 ; 518971.12429413904 ; 2.0129246579283535E8 ; 9.596762284282517E7 ; 3.53330521431269E10 ; 0.0
185 ; 517710.8723128466 ; 2.012968315535775E8 ; 9.64865939671193E7 ; 3.553434460891974E10 ; 0.0
186 ; 517406.9898190801 ; 2.013011799299548E8 ; 9.700430483943215E7 ; 3.573564144047332E10 ; 0.0
187 ; 516185.0454025799 ; 2.0130551081850222E8 ; 9.752171182925123E7 ; 3.5936942620403275E10 ; 0.0
188 ; 516019.886077471 ; 2.0130982411652488E8 ; 9.803789687465382E7 ; 3.613824813122178E10 ; 0.0
189 ; 515195.15818607184 ; 2.013141197220887E8 ; 9.855391676073128E7 ; 3.63395579553383E10 ; 0.0
190 ; 515120.996308747 ; 2.013183975340113E8 ; 9.906911191891736E7 ; 3.6540872075060394E10 ; 0.0
191 ; 514856.6664333798 ; 2.0132265745185345E8 ; 9.95842329152261E7 ; 3.6742190472594406E10 ; 0.0
192 ; 513312.773251095 ; 2.0132689937591052E8 ; 1.0009908958165948E8 ; 3.694351313004626E10 ; 0.0
193 ; 512221.3694298379 ; 2.013311232072045E8 ; 1.0061240235491058E8 ; 3.7144840029422165E10 ; 0.0
194 ; 512112.54410479666 ; 2.0133532884747618E8 ; 1.0112462372434042E8 ; 3.734617115262937E10 ; 0.0
195 ; 513645.83915677865 ; 2.013395161991777E8 ; 1.0163673626844522E8 ; 3.7547506481476845E10 ; 0.0
196 ; 512119.3891986549 ; 2.0134368516546533E8 ; 1.02150382107602E8 ; 3.7748845997676025E10 ; 0.0
197 ; 511094.27403691725 ; 2.0134783565019232E8 ; 1.0266250149680066E8 ; 3.795018968284149E10 ; 0.0
198 ; 512333.5078834491 ; 2.0135196755790243E8 ; 1.0317359577083758E8 ; 3.8151537518491684E10 ; 0.0
199 ; 511314.11486365553 ; 2.0135608079382324E8 ; 1.0368592927872102E8 ; 3.835288948604958E10 ; 0.0
200 ; 510490.58028579305 ; 2.013601752638601E8 ; 1.0419724339358467E8 ; 3.855424556684341E10 ; 0.0
201 ; 508892.64940025384 ; 1.9869416660707507E8 ; 1.0470773397387046E8 ; 3.875560574210727E10 ; 0.0
