CSV File for the City 1 on Day 98
1 - Minute m 
2 - Power Consumed at minute m 
3 - Power Produced at minute m 
4 - Energy Consumed since the beginning of the day 
5 - Energy Produced since the beginning of the day 
6 - Energy Lost since the beginning of the day on lines starting from the city
 
0 ; 1.6118904191717504E7 ; 1.0554545301971659E8 ; 0.0 ; 0.0 ; 0.0
1 ; 1.6133801146319125E7 ; 1.056984058037306E8 ; 1.6118904191717504E7 ; 1.0554545301971659E8 ; 0.0
2 ; 1.6153243376152365E7 ; 1.0616014014413217E8 ; 3.2252705338036627E7 ; 2.112438588234472E8 ; 0.0
3 ; 1.617077391120072E7 ; 1.0693065748727584E8 ; 4.840594871418899E7 ; 3.1740399896757936E8 ; 0.0
4 ; 1.6191804384221118E7 ; 1.0800995912886858E8 ; 6.457672262538971E7 ; 4.243346564548552E8 ; 0.0
5 ; 1.622261182464755E7 ; 1.0939804620695484E8 ; 8.076852700961083E7 ; 5.323446155837238E8 ; 0.0
6 ; 1.6265052915337631E7 ; 1.1109491969564024E8 ; 9.699113883425838E7 ; 6.417426617906786E8 ; 0.0
7 ; 1.6315994796437103E7 ; 1.13100580399634E8 ; 1.1325619174959601E8 ; 7.528375814863188E8 ; 0.0
8 ; 1.6396478769957641E7 ; 1.1541502894967973E8 ; 1.2957218654603311E8 ; 8.659381618859528E8 ; 0.0
9 ; 1.6513697150034428E7 ; 1.1803826579893696E8 ; 1.4596866531599075E8 ; 9.813531908356326E8 ; 0.0
10 ; 1.6694830015388148E7 ; 1.2097029122035968E8 ; 1.6248236246602517E8 ; 1.0993914566345696E9 ; 0.0
11 ; 1.698324019959787E7 ; 1.2421110530510983E8 ; 1.7917719248141333E8 ; 1.2203617478549294E9 ; 0.0
12 ; 1.7444256299624898E7 ; 1.2776070796202543E8 ; 1.961604326810112E8 ; 1.3445728531600392E9 ; 0.0
13 ; 1.7896248282471016E7 ; 1.3161909891815251E8 ; 2.136046889806361E8 ; 1.4723335611220646E9 ; 0.0
14 ; 1.7945884156933397E7 ; 1.357862777203316E8 ; 2.3150093726310712E8 ; 1.6039526600402172E9 ; 0.0
15 ; 1.7965956873218816E7 ; 1.4026224373781902E8 ; 2.4944682142004052E8 ; 1.7397389377605488E9 ; 0.0
16 ; 1.798834169293812E7 ; 1.4504699616590562E8 ; 2.6741277829325932E8 ; 1.8800011814983678E9 ; 0.0
17 ; 1.800951868556216E7 ; 1.5014053403048572E8 ; 2.854011199861975E8 ; 2.0250481776642735E9 ; 0.0
18 ; 1.8026450085458823E7 ; 1.5554285619351488E8 ; 3.034106386717596E8 ; 2.1751887116947594E9 ; 0.0
19 ; 1.8051957325337928E7 ; 1.6125396135928616E8 ; 3.214370887572184E8 ; 2.330731567888274E9 ; 0.0
20 ; 1.8073447630803563E7 ; 1.6727384808144495E8 ; 3.3948904608255637E8 ; 2.4919855292475605E9 ; 0.0
21 ; 1.8097270319382578E7 ; 1.7360251477065536E8 ; 3.5756249371335995E8 ; 2.6592593773290052E9 ; 0.0
22 ; 1.811809954719082E7 ; 1.8023995970282686E8 ; 3.756597640327425E8 ; 2.8328618920996604E9 ; 0.0
23 ; 1.8131509092162468E7 ; 1.8718618102780592E8 ; 3.9377786357993335E8 ; 3.0131018518024874E9 ; 0.0
24 ; 1.8157887288666032E7 ; 1.9444117677843517E8 ; 4.1190937267209584E8 ; 3.200288032830293E9 ; 0.0
25 ; 1.8179688466860365E7 ; 2.006929857780691E8 ; 4.3006725996076185E8 ; 3.3947292096087284E9 ; 0.0
26 ; 1.8203716525663186E7 ; 2.006951536869789E8 ; 4.482469484276222E8 ; 3.5954221953867974E9 ; 0.0
27 ; 1.822223000836201E7 ; 2.006974475368523E8 ; 4.664506649532854E8 ; 3.7961173490737762E9 ; 0.0
28 ; 1.8242372861237064E7 ; 2.0069986498716378E8 ; 4.846728949616474E8 ; 3.9968147966106286E9 ; 0.0
29 ; 1.8263815463735815E7 ; 2.0070240362793812E8 ; 5.0291526782288444E8 ; 4.1975146615977926E9 ; 0.0
30 ; 1.8286158804767665E7 ; 2.0070506098911688E8 ; 5.2117908328662026E8 ; 4.398217065225731E9 ; 0.0
31 ; 1.8298720200615108E7 ; 2.0070783454970607E8 ; 5.394652420913879E8 ; 4.598922126214848E9 ; 0.0
32 ; 1.83207924219969E7 ; 2.0071072174664724E8 ; 5.577639622920029E8 ; 4.799629960764554E9 ; 0.0
33 ; 1.833817328669259E7 ; 2.0071371998336112E8 ; 5.760847547139999E8 ; 5.000340682511201E9 ; 0.0
34 ; 1.835954623176978E7 ; 2.007168266379222E8 ; 5.944229280006925E8 ; 5.201054402494562E9 ; 0.0
35 ; 1.8379534546872947E7 ; 2.0072003907082877E8 ; 6.127824742324623E8 ; 5.401771229132484E9 ; 0.0
36 ; 1.839647456391021E7 ; 2.0072335463234228E8 ; 6.311620087793353E8 ; 5.602491268203313E9 ; 0.0
37 ; 1.840991602977192E7 ; 2.007267706693759E8 ; 6.495584833432455E8 ; 5.803214622835655E9 ; 0.0
38 ; 1.8428867683851667E7 ; 2.0073028453191927E8 ; 6.679683993730174E8 ; 6.003941393505032E9 ; 0.0
39 ; 1.844555207416531E7 ; 2.0073389357899252E8 ; 6.863972670568691E8 ; 6.204671678036951E9 ; 0.0
40 ; 1.8462218426305488E7 ; 2.0073759518412817E8 ; 7.048428191310345E8 ; 6.405405571615944E9 ; 0.0
41 ; 1.847513695095872E7 ; 2.0074138674038464E8 ; 7.2330503755734E8 ; 6.606143166800072E9 ; 0.0
42 ; 1.8486357977996733E7 ; 2.0074526566489887E8 ; 7.417801745082988E8 ; 6.806884553540457E9 ; 0.0
43 ; 1.849983752134953E7 ; 2.0074922940298995E8 ; 7.602665324862955E8 ; 7.007629819205356E9 ; 0.0
44 ; 1.850789135404253E7 ; 2.007532754318283E8 ; 7.78766370007645E8 ; 7.208379048608346E9 ; 0.0
45 ; 1.8524118781123836E7 ; 2.0075740126368713E8 ; 7.972742613616875E8 ; 7.4091323240401745E9 ; 0.0
46 ; 1.853332430127755E7 ; 2.0076160444879597E8 ; 8.157983801428114E8 ; 7.609889725303862E9 ; 0.0
47 ; 1.8545469609191746E7 ; 2.0076588257781616E8 ; 8.343317044440889E8 ; 7.810651329752658E9 ; 0.0
48 ; 1.854966203943829E7 ; 2.0077023328396034E8 ; 8.528771740532807E8 ; 8.011417212330474E9 ; 0.0
49 ; 1.8554331685113087E7 ; 2.0077465424477813E8 ; 8.71426836092719E8 ; 8.212187445614434E9 ; 0.0
50 ; 1.8560493840466265E7 ; 2.0077914318363044E8 ; 8.89981167777832E8 ; 8.412962099859212E9 ; 0.0
51 ; 1.856988306878812E7 ; 2.0078369787087533E8 ; 9.085416616182983E8 ; 8.613741243042843E9 ; 0.0
52 ; 1.857621628369147E7 ; 2.0078831612478706E8 ; 9.271115446870865E8 ; 8.814524940913717E9 ; 0.0
53 ; 1.858377620242569E7 ; 2.0079299581223112E8 ; 9.45687760970778E8 ; 9.015313257038504E9 ; 0.0
54 ; 1.8589809594879553E7 ; 2.0079773484911558E8 ; 9.642715371732037E8 ; 9.216106252850735E9 ; 0.0
55 ; 1.8596232514417004E7 ; 2.0080253120063967E8 ; 9.828613467680832E8 ; 9.41690398769985E9 ; 0.0
56 ; 1.859987737076995E7 ; 2.0080738288135907E8 ; 1.0014575792825003E9 ; 9.61770651890049E9 ; 0.0
57 ; 1.8605976356250886E7 ; 2.0081228795508632E8 ; 1.0200574566532702E9 ; 9.818513901781849E9 ; 0.0
58 ; 1.861457921810864E7 ; 2.008172445346439E8 ; 1.0386634330095211E9 ; 1.0019326189736935E10 ; 0.0
59 ; 1.861734403668942E7 ; 2.008222507814867E8 ; 1.0572780122276298E9 ; 1.0220143434271578E10 ; 0.0
60 ; 1.8618423597373944E7 ; 2.0082730490520903E8 ; 1.0758953562643192E9 ; 1.0420965685053064E10 ; 0.0
61 ; 1.862953906424296E7 ; 2.0083240516295063E8 ; 1.0945137798616931E9 ; 1.0621792989958273E10 ; 0.0
62 ; 1.8632137042990614E7 ; 2.0083754985871485E8 ; 1.1131433189259362E9 ; 1.0822625395121223E10 ; 0.0
63 ; 1.8634133068000797E7 ; 2.0084273734261158E8 ; 1.131775455968927E9 ; 1.1023462944979939E10 ; 0.0
64 ; 1.863959771481266E7 ; 2.008479660100357E8 ; 1.1504095890369277E9 ; 1.122430568232255E10 ; 0.0
65 ; 1.8642520516740173E7 ; 2.008532343007918E8 ; 1.1690491867517405E9 ; 1.1425153648332586E10 ; 0.0
66 ; 1.864755506752E7 ; 2.0085854069817442E8 ; 1.1876917072684805E9 ; 1.1626006882633379E10 ; 0.0
67 ; 1.8656890605097093E7 ; 2.0086388372801217E8 ; 1.2063392623360004E9 ; 1.1826865423331553E10 ; 0.0
68 ; 1.8656394316865254E7 ; 2.0086926195768362E8 ; 1.2249961529410975E9 ; 1.2027729307059565E10 ; 0.0
69 ; 1.8656616033304125E7 ; 2.00874673995112E8 ; 1.2436525472579627E9 ; 1.2228598569017248E10 ; 0.0
70 ; 1.866246355719961E7 ; 2.008801184877445E8 ; 1.262309163291267E9 ; 1.242947324301236E10 ; 0.0
71 ; 1.866589937685735E7 ; 2.0088559412152246E8 ; 1.2809716268484666E9 ; 1.2630353361500105E10 ; 0.0
72 ; 1.8667983973937724E7 ; 2.008910996198465E8 ; 1.299637526225324E9 ; 1.2831238955621628E10 ; 0.0
73 ; 1.8671441941590093E7 ; 2.0089663374254188E8 ; 1.3183055101992617E9 ; 1.3032130055241474E10 ; 0.0
74 ; 1.8674033979371563E7 ; 2.009021952848272E8 ; 1.3369769521408517E9 ; 1.3233026688984016E10 ; 0.0
75 ; 1.8673302329876658E7 ; 2.009077830762902E8 ; 1.3556509861202233E9 ; 1.3433928884268843E10 ; 0.0
76 ; 1.867800106154672E7 ; 2.0091339597987354E8 ; 1.3743242884501E9 ; 1.3634836667345133E10 ; 0.0
77 ; 1.868290594253656E7 ; 2.0091903289087322E8 ; 1.3930022895116467E9 ; 1.3835750063325006E10 ; 0.0
78 ; 1.8675899789671592E7 ; 2.0092469273595127E8 ; 1.4116851954541833E9 ; 1.403666909621588E10 ; 0.0
79 ; 1.86746297488855E7 ; 2.009303744721654E8 ; 1.430361095243855E9 ; 1.423759378895183E10 ; 0.0
80 ; 1.8671431196761142E7 ; 2.0093607708601642E8 ; 1.4490357249927404E9 ; 1.4438524163423996E10 ; 0.0
81 ; 1.8671087174427148E7 ; 2.0094179959251514E8 ; 1.4677071561895015E9 ; 1.4639460240510012E10 ; 0.0
82 ; 1.8665660794537835E7 ; 2.0094754103426966E8 ; 1.4863782433639286E9 ; 1.4840402040102528E10 ; 0.0
83 ; 1.86616055976278E7 ; 2.009533004805938E8 ; 1.5050439041584663E9 ; 1.5041349581136797E10 ; 0.0
84 ; 1.8652320855571922E7 ; 2.0095907702663752E8 ; 1.5237055097560942E9 ; 1.5242302881617392E10 ; 0.0
85 ; 1.864849604260139E7 ; 2.0096486979253957E8 ; 1.5423578306116662E9 ; 1.544326195864403E10 ; 0.0
86 ; 1.8645588174402952E7 ; 2.009706779226029E8 ; 1.5610063266542675E9 ; 1.564422682843657E10 ; 0.0
87 ; 1.8639896352853093E7 ; 2.0097650058449274E8 ; 1.5796519148286705E9 ; 1.5845197506359173E10 ; 0.0
88 ; 1.863880505714833E7 ; 2.0098233696845797E8 ; 1.5982918111815236E9 ; 1.6046174006943666E10 ; 0.0
89 ; 1.8631874639315825E7 ; 2.009881862865749E8 ; 1.6169306162386718E9 ; 1.6247156343912125E10 ; 0.0
90 ; 1.8620896769393615E7 ; 2.0099404777201417E8 ; 1.6355624908779876E9 ; 1.64481445301987E10 ; 0.0
91 ; 1.861965368646849E7 ; 2.0099992067833027E8 ; 1.6541833876473813E9 ; 1.6649138577970715E10 ; 0.0
92 ; 1.861481297179994E7 ; 2.01005804278773E8 ; 1.67280304133385E9 ; 1.6850138498649044E10 ; 0.0
93 ; 1.8613299245503347E7 ; 2.0101169786562145E8 ; 1.6914178543056498E9 ; 1.7051144302927816E10 ; 0.0
94 ; 1.8605151904176384E7 ; 2.0101760074953926E8 ; 1.7100311535511532E9 ; 1.7252156000793438E10 ; 0.0
95 ; 1.8593086847706445E7 ; 2.0102351225895134E8 ; 1.7286363054553297E9 ; 1.7453173601542976E10 ; 0.0
96 ; 1.8588362937139247E7 ; 2.0102943173944125E8 ; 1.7472293923030362E9 ; 1.765419711380193E10 ; 0.0
97 ; 1.85809689764823E7 ; 2.010353585531691E8 ; 1.7658177552401755E9 ; 1.785522654554137E10 ; 0.0
98 ; 1.857655285553858E7 ; 2.0104129207830924E8 ; 1.7843987242166579E9 ; 1.805626190409454E10 ; 0.0
99 ; 1.8571529497325733E7 ; 2.0104723170850742E8 ; 1.8029752770721965E9 ; 1.8257303196172848E10 ; 0.0
100 ; 1.856084864524953E7 ; 2.0105317685235655E8 ; 1.8215468065695221E9 ; 1.8458350427881355E10 ; 0.0
101 ; 1.855682111314519E7 ; 2.010591269328913E8 ; 1.8401076552147717E9 ; 1.865940360473371E10 ; 0.0
102 ; 1.8550051054835435E7 ; 2.010650813871001E8 ; 1.8586644763279169E9 ; 1.8860462731666603E10 ; 0.0
103 ; 1.8542328049753036E7 ; 2.0107103966545463E8 ; 1.8772145273827522E9 ; 1.9061527813053703E10 ; 0.0
104 ; 1.8534743211027067E7 ; 2.010770012314561E8 ; 1.8957568554325051E9 ; 1.926259885271916E10 ; 0.0
105 ; 1.8528788042302877E7 ; 2.0108296556119788E8 ; 1.9142915986435323E9 ; 1.9463675853950615E10 ; 0.0
106 ; 1.8521784686849393E7 ; 2.0108893214294368E8 ; 1.9328203866858351E9 ; 1.9664758819511814E10 ; 0.0
107 ; 1.850844914950072E7 ; 2.0109490047672114E8 ; 1.9513421713726845E9 ; 1.986584775165476E10 ; 0.0
108 ; 1.85011867018393E7 ; 2.0110087007393003E8 ; 1.969850620522185E9 ; 2.006694265213148E10 ; 0.0
109 ; 1.849476573930418E7 ; 2.0110684045696494E8 ; 1.9883518072240243E9 ; 2.026804352220541E10 ; 0.0
110 ; 1.848539735905945E7 ; 2.0111281115885144E8 ; 2.0068465729633284E9 ; 2.0469150362662376E10 ; 0.0
111 ; 1.8478723744709447E7 ; 2.0111878172289568E8 ; 2.0253319703223877E9 ; 2.0670263173821228E10 ; 0.0
112 ; 1.8471313686101332E7 ; 2.0112475170234683E8 ; 2.0438106940670972E9 ; 2.0871381955544125E10 ; 0.0
113 ; 1.8459356630055353E7 ; 2.0113072066007182E8 ; 2.0622820077531986E9 ; 2.107250670724647E10 ; 0.0
114 ; 1.8451173685375832E7 ; 2.0113668816824207E8 ; 2.080741364383254E9 ; 2.1273637427906544E10 ; 0.0
115 ; 1.844110945340369E7 ; 2.0114265380803165E8 ; 2.09919253806863E9 ; 2.1474774116074787E10 ; 0.0
116 ; 1.843065197031943E7 ; 2.011486171693267E8 ; 2.1176336475220337E9 ; 2.167591676988282E10 ; 0.0
117 ; 1.8421402495070275E7 ; 2.0115457785044524E8 ; 2.1360642994923532E9 ; 2.1877065387052147E10 ; 0.0
118 ; 1.8414782952780366E7 ; 2.011605354578676E8 ; 2.1544857019874234E9 ; 2.207821996490259E10 ; 0.0
119 ; 1.840309756906118E7 ; 2.011664896059765E8 ; 2.1729004849402037E9 ; 2.227938050036046E10 ; 0.0
120 ; 1.8392594979867667E7 ; 2.0117243991680682E8 ; 2.191303582509265E9 ; 2.2480546989966434E10 ; 0.0
121 ; 1.837918679474046E7 ; 2.0117838601980454E8 ; 2.2096961774891324E9 ; 2.268171942988324E10 ; 0.0
122 ; 1.8373734520264257E7 ; 2.0118432755159438E8 ; 2.228075364283873E9 ; 2.2882897815903046E10 ; 0.0
123 ; 1.836047710158547E7 ; 2.011902641557562E8 ; 2.246449098804137E9 ; 2.308408214345464E10 ; 0.0
124 ; 1.834755516798222E7 ; 2.011961954826094E8 ; 2.2648095759057226E9 ; 2.3285272407610397E10 ; 0.0
125 ; 1.8339539429904707E7 ; 2.012021211890053E8 ; 2.2831571310737047E9 ; 2.3486468603093006E10 ; 0.0
126 ; 1.832850423874669E7 ; 2.0120804093812695E8 ; 2.3014966705036097E9 ; 2.3687670724282013E10 ; 0.0
127 ; 1.8318354707784183E7 ; 2.0121395439929655E8 ; 2.3198251747423563E9 ; 2.388887876522014E10 ; 0.0
128 ; 1.830475843343377E7 ; 2.0121986124778953E8 ; 2.3381435294501405E9 ; 2.4090092719619434E10 ; 0.0
129 ; 1.8295109484361768E7 ; 2.0122576116465557E8 ; 2.3564482878835745E9 ; 2.4291312580867226E10 ; 0.0
130 ; 1.8279556973692287E7 ; 2.0123165383654618E8 ; 2.374743397367936E9 ; 2.449253834203188E10 ; 0.0
131 ; 1.8263448230577696E7 ; 2.0123753895554832E8 ; 2.3930229543416286E9 ; 2.4693769995868427E10 ; 0.0
132 ; 1.8240908768397164E7 ; 2.0124341621902424E8 ; 2.411286402572206E9 ; 2.4895007534823975E10 ; 0.0
133 ; 1.8225887941494454E7 ; 2.0124928532945693E8 ; 2.4295273113406034E9 ; 2.5096250951043E10 ; 0.0
134 ; 1.821181726081425E7 ; 2.0125514599430132E8 ; 2.447753199282098E9 ; 2.5297500236372456E10 ; 0.0
135 ; 1.819324683461409E7 ; 2.012609979258406E8 ; 2.465965016542912E9 ; 2.5498755382366756E10 ; 0.0
136 ; 1.817626226771307E7 ; 2.012668408410478E8 ; 2.4841582633775263E9 ; 2.57000163802926E10 ; 0.0
137 ; 1.8151045713694494E7 ; 2.012726744614525E8 ; 2.5023345256452394E9 ; 2.5901283221133648E10 ; 0.0
138 ; 1.8135774235507023E7 ; 2.0127849851301193E8 ; 2.520485571358934E9 ; 2.61025558955951E10 ; 0.0
139 ; 1.811813240756153E7 ; 2.0128431272598684E8 ; 2.538621345594441E9 ; 2.6303834394108112E10 ; 0.0
140 ; 1.8096726184762355E7 ; 2.0129011683482197E8 ; 2.5567394780020022E9 ; 2.65051187068341E10 ; 0.0
141 ; 1.8081823577841762E7 ; 2.0129591057803038E8 ; 2.5748362041867647E9 ; 2.6706408823668922E10 ; 0.0
142 ; 1.8064241235108815E7 ; 2.0130169369808206E8 ; 2.5929180277646065E9 ; 2.6907704734246952E10 ; 0.0
143 ; 1.8042026971047256E7 ; 2.0130746594129658E8 ; 2.6109822689997153E9 ; 2.7109006427945034E10 ; 0.0
144 ; 1.801699293917048E7 ; 2.0131322705773923E8 ; 2.6290242959707627E9 ; 2.731031389388633E10 ; 0.0
145 ; 1.8009664842772815E7 ; 2.013189768011211E8 ; 2.647041288909933E9 ; 2.751162712094407E10 ; 0.0
146 ; 1.7996407172372017E7 ; 2.013247149287023E8 ; 2.665050953752706E9 ; 2.771294609774519E10 ; 0.0
147 ; 1.798572296864629E7 ; 2.01330441201199E8 ; 2.683047360925078E9 ; 2.7914270812673893E10 ; 0.0
148 ; 1.797314096192004E7 ; 2.013361553826932E8 ; 2.7010330838937244E9 ; 2.811560125387509E10 ; 0.0
149 ; 1.7958647820973895E7 ; 2.013418572405461E8 ; 2.7190062248556447E9 ; 2.8316937409257786E10 ; 0.0
150 ; 1.794644063162559E7 ; 2.013475465453141E8 ; 2.7369648726766186E9 ; 2.8518279266498333E10 ; 0.0
151 ; 1.7934881591501314E7 ; 2.0135322307066792E8 ; 2.754911313308244E9 ; 2.8719626813043648E10 ; 0.0
152 ; 1.7921529348213576E7 ; 2.0135888659331435E8 ; 2.7728461948997455E9 ; 2.8920980036114315E10 ; 0.0
153 ; 1.7907201831473548E7 ; 2.0136453689292082E8 ; 2.790767724247959E9 ; 2.912233892270763E10 ; 0.0
154 ; 1.7891699090756092E7 ; 2.0137017375204238E8 ; 2.8086749260794325E9 ; 2.932370345960055E10 ; 0.0
155 ; 1.7879055282589287E7 ; 2.0137579695605138E8 ; 2.8265666251701884E9 ; 2.9525073633352592E10 ; 0.0
156 ; 1.7869116030583158E7 ; 2.0138140629306936E8 ; 2.844445680452778E9 ; 2.9726449430308643E10 ; 0.0
157 ; 1.785769079861097E7 ; 2.0138700155390128E8 ; 2.8623147964833612E9 ; 2.992783083660171E10 ; 0.0
158 ; 1.7842896061966766E7 ; 2.013925825319721E8 ; 2.8801724872819724E9 ; 3.0129217838155613E10 ; 0.0
159 ; 1.7832172956992794E7 ; 2.0139814902326533E8 ; 2.8980153833439393E9 ; 3.0330610420687584E10 ; 0.0
160 ; 1.7817886021166246E7 ; 2.0140370082626367E8 ; 2.915847556300932E9 ; 3.053200856971085E10 ; 0.0
161 ; 1.7804109617270146E7 ; 2.0140923774189174E8 ; 2.9336654423220983E9 ; 3.0733412270537113E10 ; 0.0
162 ; 1.7790878486945562E7 ; 2.0141475957346076E8 ; 2.9514695519393682E9 ; 3.0934821508279003E10 ; 0.0
163 ; 1.7779628120985046E7 ; 2.0142026612661475E8 ; 2.969260430426314E9 ; 3.1136236267852463E10 ; 0.0
164 ; 1.7765192217851944E7 ; 2.0142575720927894E8 ; 2.987040058547299E9 ; 3.1337656533979076E10 ; 0.0
165 ; 1.775190046790122E7 ; 2.014312326316096E8 ; 3.004805250765151E9 ; 3.1539082291188354E10 ; 0.0
166 ; 1.7736805200924758E7 ; 2.0143669220594564E8 ; 3.0225571512330523E9 ; 3.1740513523819965E10 ; 0.0
167 ; 1.7725141922665413E7 ; 2.014421357467618E8 ; 3.040293956433977E9 ; 3.194195021602591E10 ; 0.0
168 ; 1.7707167864927236E7 ; 2.0144756307062334E8 ; 3.0580190983566427E9 ; 3.214339235177267E10 ; 0.0
169 ; 1.769584545963316E7 ; 2.0145297399614224E8 ; 3.07572626622157E9 ; 3.2344839914843292E10 ; 0.0
170 ; 1.768052735760034E7 ; 2.0145836834393483E8 ; 3.0934221116812034E9 ; 3.2546292888839436E10 ; 0.0
171 ; 1.7670599905502036E7 ; 2.0146374593658075E8 ; 3.1111026390388036E9 ; 3.274775125718337E10 ; 0.0
172 ; 1.7653429456274185E7 ; 2.014691065985834E8 ; 3.1287732389443054E9 ; 3.294921500311995E10 ; 0.0
173 ; 1.7641027261366997E7 ; 2.0147445015633148E8 ; 3.1464266684005795E9 ; 3.3150684109718533E10 ; 0.0
174 ; 1.763047625656075E7 ; 2.014797764380618E8 ; 3.1640676956619463E9 ; 3.3352158559874863E10 ; 0.0
175 ; 1.7625187872250196E7 ; 2.014850852738235E8 ; 3.181698171918507E9 ; 3.3553638336312923E10 ; 0.0
176 ; 1.7607418903712858E7 ; 2.0149037649544314E8 ; 3.199323359790757E9 ; 3.3755123421586746E10 ; 0.0
177 ; 1.7602586473972086E7 ; 2.0149564993649104E8 ; 3.21693077869447E9 ; 3.3956613798082188E10 ; 0.0
178 ; 1.7597296572243042E7 ; 2.0150090543224877E8 ; 3.2345333651684422E9 ; 3.415810944801868E10 ; 0.0
179 ; 1.758619409351094E7 ; 2.0150614281967744E8 ; 3.2521306617406855E9 ; 3.4359610353450928E10 ; 0.0
180 ; 1.7575577192958202E7 ; 2.015113619373874E8 ; 3.2697168558341966E9 ; 3.456111649627061E10 ; 0.0
181 ; 1.756957258196895E7 ; 2.0151656262560844E8 ; 3.287292433027155E9 ; 3.476262785820799E10 ; 0.0
182 ; 1.7558373206468742E7 ; 2.015217447261612E8 ; 3.3048620056091237E9 ; 3.49641444208336E10 ; 0.0
183 ; 1.75541262967943E7 ; 2.015269080824295E8 ; 3.3224203788155923E9 ; 3.516566616555976E10 ; 0.0
184 ; 1.7547751277349602E7 ; 2.0153205253933346E8 ; 3.3399745051123867E9 ; 3.536719307364219E10 ; 0.0
185 ; 1.7537537396249715E7 ; 2.015371779433034E8 ; 3.357522256389736E9 ; 3.5568725126181526E10 ; 0.0
186 ; 1.7525095669581972E7 ; 2.0154228414225477E8 ; 3.375059793785986E9 ; 3.577026230412483E10 ; 0.0
187 ; 1.7520009928468574E7 ; 2.0154737098556364E8 ; 3.392584889455568E9 ; 3.597180458826709E10 ; 0.0
188 ; 1.750961063787381E7 ; 2.0155243832404307E8 ; 3.4101048993840365E9 ; 3.6173351959252655E10 ; 0.0
189 ; 1.7500837239690527E7 ; 2.0155748600992018E8 ; 3.42761451002191E9 ; 3.63749043975767E10 ; 0.0
190 ; 1.7490342494610548E7 ; 2.0156251389681405E8 ; 3.4451153472616005E9 ; 3.657646188358662E10 ; 0.0
191 ; 1.74859988968372E7 ; 2.0156752183971414E8 ; 3.4626056897562113E9 ; 3.677802439748343E10 ; 0.0
192 ; 1.7474038154140394E7 ; 2.0157250969495934E8 ; 3.4800916886530485E9 ; 3.697959191932314E10 ; 0.0
193 ; 1.7465603085304275E7 ; 2.0157747732021797E8 ; 3.497565726807189E9 ; 3.7181164429018105E10 ; 0.0
194 ; 1.7459302991162635E7 ; 2.0158242457446805E8 ; 3.5150313298924932E9 ; 3.7382741906338326E10 ; 0.0
195 ; 1.7447178442116525E7 ; 2.0158735131797844E8 ; 3.532490632883656E9 ; 3.7584324330912796E10 ; 0.0
