CSV File for the City 6 on Day 57
1 - Minute m 
2 - Power Consumed at minute m 
3 - Power Produced at minute m 
4 - Energy Consumed since the beginning of the day 
5 - Energy Produced since the beginning of the day 
6 - Energy Lost since the beginning of the day on lines starting from the city
 
0 ; 1.1122422942758309E7 ; 1.0583081791915092E8 ; 0.0 ; 0.0 ; 0.0
1 ; 1.1133641482727556E7 ; 1.0598136235985595E8 ; 1.1122422942758309E7 ; 1.0583081791915092E8 ; 0.0
2 ; 1.114529136555556E7 ; 1.0644092727526012E8 ; 2.2256064425485864E7 ; 2.1181218027900687E8 ; 0.0
3 ; 1.1158345004597778E7 ; 1.0720951877850592E8 ; 3.3401355791041426E7 ; 3.18253107554267E8 ; 0.0
4 ; 1.117092104636657E7 ; 1.082871423955059E8 ; 4.45597007956392E7 ; 4.254626263327729E8 ; 0.0
5 ; 1.1191274801922455E7 ; 1.0967380301872134E8 ; 5.5730621842005774E7 ; 5.337497687282788E8 ; 0.0
6 ; 1.1221117446084414E7 ; 1.1136950486500767E8 ; 6.692189664392823E7 ; 6.434235717470002E8 ; 0.0
7 ; 1.1260232430863086E7 ; 1.1337425143834639E8 ; 7.814301409001264E7 ; 7.547930766120079E8 ; 0.0
8 ; 1.1309117287037266E7 ; 1.1568804549821526E8 ; 8.940324652087572E7 ; 8.681673280503542E8 ; 0.0
9 ; 1.139018243034761E7 ; 1.1831088903425294E8 ; 1.0071236380791299E8 ; 9.838553735485694E8 ; 0.0
10 ; 1.1518581624858448E7 ; 1.2124278324775851E8 ; 1.121025462382606E8 ; 1.1021662625828223E9 ; 0.0
11 ; 1.1712006301339505E7 ; 1.244837285404258E8 ; 1.2362112786311905E8 ; 1.2234090458305807E9 ; 0.0
12 ; 1.2030626025783869E7 ; 1.2803372451056096E8 ; 1.3533313416445854E8 ; 1.3478927743710065E9 ; 0.0
13 ; 1.2331084979825072E7 ; 1.318927699568649E8 ; 1.473637601902424E8 ; 1.4759264988815675E9 ; 0.0
14 ; 1.237199778594932E7 ; 1.3606086288969904E8 ; 1.596948451700675E8 ; 1.6078192688384323E9 ; 0.0
15 ; 1.2379548046756146E7 ; 1.4053800054958552E8 ; 1.720668429560168E8 ; 1.7438801317281313E9 ; 0.0
16 ; 1.2395941408207975E7 ; 1.4532417943254295E8 ; 1.8444639100277296E8 ; 1.8844181322777169E9 ; 0.0
17 ; 1.2411065492333053E7 ; 1.504193953217158E8 ; 1.9684233241098094E8 ; 2.02974231171026E9 ; 0.0
18 ; 1.242355310479949E7 ; 1.5582364332464284E8 ; 2.09253397903314E8 ; 2.1801617070319757E9 ; 0.0
19 ; 1.2439185270515766E7 ; 1.615369179154115E8 ; 2.2167695100811347E8 ; 2.3359853503566184E9 ; 0.0
20 ; 1.2453078930199824E7 ; 1.6755921298087928E8 ; 2.3411613627862924E8 ; 2.49752226827203E9 ; 0.0
21 ; 1.2468626128774878E7 ; 1.7389052187010428E8 ; 2.4656921520882908E8 ; 2.665081481252909E9 ; 0.0
22 ; 1.2483163221406847E7 ; 1.8053083744611108E8 ; 2.5903784133760396E8 ; 2.8389720031230135E9 ; 0.0
23 ; 1.24969598255003E7 ; 1.8748015213913178E8 ; 2.715210045590108E8 ; 3.0195028405691247E9 ; 0.0
24 ; 1.2510638612186102E7 ; 1.9473845800049663E8 ; 2.840179643845111E8 ; 3.2069829927082567E9 ; 0.0
25 ; 1.2524562567093018E7 ; 2.009937876545845E8 ; 2.965286029966972E8 ; 3.4017214507087536E9 ; 0.0
26 ; 1.2539819272072986E7 ; 2.0099968038865948E8 ; 3.090531655637902E8 ; 3.602715238363338E9 ; 0.0
27 ; 1.2553164386116229E7 ; 2.0100589672926614E8 ; 3.215929848358632E8 ; 3.8037149187519975E9 ; 0.0
28 ; 1.256800275816797E7 ; 2.0101242773850945E8 ; 3.341461492219794E8 ; 4.0047208154812636E9 ; 0.0
29 ; 1.2577751973302925E7 ; 2.0101926435438004E8 ; 3.4671415198014736E8 ; 4.2057332432197733E9 ; 0.0
30 ; 1.2594091489143517E7 ; 2.0102639743505335E8 ; 3.5929190395345026E8 ; 4.406752507574153E9 ; 0.0
31 ; 1.26032446672784E7 ; 2.0103381780014408E8 ; 3.7188599544259375E8 ; 4.607778905009207E9 ; 0.0
32 ; 1.2619018240603192E7 ; 2.0104151626873457E8 ; 3.8448924010987216E8 ; 4.808812722809351E9 ; 0.0
33 ; 1.2631654189681174E7 ; 2.0104948369407204E8 ; 3.971082583504754E8 ; 5.009854239078086E9 ; 0.0
34 ; 1.2642176077624984E7 ; 2.010577109948979E8 ; 4.0973991254015654E8 ; 5.210903722772158E9 ; 0.0
35 ; 1.2652166598948391E7 ; 2.0106618918343118E8 ; 4.223820886177815E8 ; 5.4119614337670555E9 ; 0.0
36 ; 1.2666695735151151E7 ; 2.0107490939007843E8 ; 4.3503425521672994E8 ; 5.613027622950487E9 ; 0.0
37 ; 1.2674857394841159E7 ; 2.0108386288498354E8 ; 4.477009509518811E8 ; 5.814102532340566E9 ; 0.0
38 ; 1.2686603661460318E7 ; 2.0109304109656274E8 ; 4.6037580834672225E8 ; 6.01518639522555E9 ; 0.0
39 ; 1.2694132511076488E7 ; 2.0110243562719566E8 ; 4.730624120081826E8 ; 6.216279436322112E9 ; 0.0
40 ; 1.270750263218461E7 ; 2.0111203826625922E8 ; 4.857565445192591E8 ; 6.417381871949307E9 ; 0.0
41 ; 1.2716452942545E7 ; 2.0112184100070342E8 ; 4.984640471514437E8 ; 6.618493910215567E9 ; 0.0
42 ; 1.27232353105325E7 ; 2.01131836023372E8 ; 5.111805000939887E8 ; 6.81961575121627E9 ; 0.0
43 ; 1.2732252394139556E7 ; 2.0114201573927295E8 ; 5.239037354045212E8 ; 7.020747587239642E9 ; 0.0
44 ; 1.2741235279241411E7 ; 2.0115237277000028E8 ; 5.3663598779866076E8 ; 7.221889602978915E9 ; 0.0
45 ; 1.2746653767372217E7 ; 2.011628999565022E8 ; 5.493772230779022E8 ; 7.423041975748916E9 ; 0.0
46 ; 1.2752215320384447E7 ; 2.0117359036038285E8 ; 5.621238768452744E8 ; 7.624204875705418E9 ; 0.0
47 ; 1.2759031644227404E7 ; 2.0118443726391473E8 ; 5.74876092165659E8 ; 7.825378466065801E9 ; 0.0
48 ; 1.2764709419683205E7 ; 2.0119543416892755E8 ; 5.876351238098863E8 ; 8.026562903329716E9 ; 0.0
49 ; 1.2768227814176003E7 ; 2.0120657479472688E8 ; 6.003998332295696E8 ; 8.227758337498643E9 ; 0.0
50 ; 1.277066614948271E7 ; 2.0121785307518512E8 ; 6.131680610437455E8 ; 8.42896491229337E9 ; 0.0
51 ; 1.2775673158361482E7 ; 2.0122926315513307E8 ; 6.259387271932282E8 ; 8.630182765368555E9 ; 0.0
52 ; 1.2778639167392466E7 ; 2.0124079938616994E8 ; 6.387144003515897E8 ; 8.831412028523687E9 ; 0.0
53 ; 1.2781384841024648E7 ; 2.0125245632199743E8 ; 6.514930395189822E8 ; 9.032652827909857E9 ; 0.0
54 ; 1.2784184834782809E7 ; 2.0126422871337196E8 ; 6.642744243600068E8 ; 9.233905284231853E9 ; 0.0
55 ; 1.279153591049675E7 ; 2.0127611150275898E8 ; 6.770586091947896E8 ; 9.435169512945225E9 ; 0.0
56 ; 1.2792498336404564E7 ; 2.012880998187642E8 ; 6.898501451052864E8 ; 9.636445624447983E9 ; 0.0
57 ; 1.2793801890229896E7 ; 2.013001889704058E8 ; 7.026426434416909E8 ; 9.837733724266747E9 ; 0.0
58 ; 1.2795705368432753E7 ; 2.0131237444128516E8 ; 7.154364453319209E8 ; 1.0039033913237152E10 ; 0.0
59 ; 1.2799491679892778E7 ; 2.0132465188370484E8 ; 7.282321507003536E8 ; 1.0240346287678438E10 ; 0.0
60 ; 1.2804212788678743E7 ; 2.0133701711277613E8 ; 7.410316423802464E8 ; 1.0441670939562143E10 ; 0.0
61 ; 1.2805134750187138E7 ; 2.013494661005521E8 ; 7.538358551689252E8 ; 1.064300795667492E10 ; 0.0
62 ; 1.2805488130852116E7 ; 2.0136199497021678E8 ; 7.666409899191123E8 ; 1.084435742277547E10 ; 0.0
63 ; 1.2808697817425136E7 ; 2.0137459999035558E8 ; 7.794464780499644E8 ; 1.1045719417745687E10 ; 0.0
64 ; 1.2809401246472036E7 ; 2.0138727756932858E8 ; 7.922551758673896E8 ; 1.1247094017736044E10 ; 0.0
65 ; 1.2815644479137298E7 ; 2.0140002424976295E8 ; 8.050645771138616E8 ; 1.1448481295305372E10 ; 0.0
66 ; 1.2812344521979118E7 ; 2.0141283670317933E8 ; 8.178802215929989E8 ; 1.1649881319555136E10 ; 0.0
67 ; 1.2817607075337432E7 ; 2.014257117247619E8 ; 8.30692566114978E8 ; 1.1851294156258314E10 ; 0.0
68 ; 1.2818186655387048E7 ; 2.0143864622828102E8 ; 8.435101731903154E8 ; 1.2052719867983076E10 ; 0.0
69 ; 1.2818166829382807E7 ; 2.0145163724117386E8 ; 8.563283598457024E8 ; 1.2254158514211357E10 ; 0.0
70 ; 1.28199966945331E7 ; 2.0146468189978743E8 ; 8.691465266750852E8 ; 1.2455610151452532E10 ; 0.0
71 ; 1.2820749718578631E7 ; 2.014777774447857E8 ; 8.819665233696183E8 ; 1.265707483335232E10 ; 0.0
72 ; 1.2821524395427417E7 ; 2.0149092121672237E8 ; 8.947872730881969E8 ; 1.2858552610797106E10 ; 0.0
73 ; 1.2823388632013168E7 ; 2.0150411065177837E8 ; 9.076087974836243E8 ; 1.3060043532013828E10 ; 0.0
74 ; 1.2824937968560591E7 ; 2.0151734327766347E8 ; 9.204321861156375E8 ; 1.3261547642665607E10 ; 0.0
75 ; 1.2824781815215789E7 ; 2.01530616709679E8 ; 9.332571240841981E8 ; 1.3463064985943272E10 ; 0.0
76 ; 1.2823578069108596E7 ; 2.0154392864693984E8 ; 9.46081905899414E8 ; 1.366459560265295E10 ; 0.0
77 ; 1.282586771131953E7 ; 2.0155727686875147E8 ; 9.589054839685225E8 ; 1.386613953129989E10 ; 0.0
78 ; 1.2824175245651204E7 ; 2.0157065923113894E8 ; 9.717313516798421E8 ; 1.4067696808168642E10 ; 0.0
79 ; 1.281918037032534E7 ; 2.015840736635232E8 ; 9.845555269254934E8 ; 1.426926746739978E10 ; 0.0
80 ; 1.28157489508798E7 ; 2.0159751816554064E8 ; 9.973747072958187E8 ; 1.4470851541063303E10 ; 0.0
81 ; 1.2812580258241117E7 ; 2.016109908040012E8 ; 1.0101904562466985E9 ; 1.4672449059228844E10 ; 0.0
82 ; 1.2805291822343526E7 ; 2.016244897099803E8 ; 1.0230030365049396E9 ; 1.4874060050032845E10 ; 0.0
83 ; 1.2802278902994635E7 ; 2.0163801307604E8 ; 1.035808328327283E9 ; 1.5075684539742825E10 ; 0.0
84 ; 1.2801074721296456E7 ; 2.0165155915357423E8 ; 1.0486106072302777E9 ; 1.5277322552818865E10 ; 0.0
85 ; 1.279722839852604E7 ; 2.0166512625027385E8 ; 1.0614116819515741E9 ; 1.5478974111972439E10 ; 0.0
86 ; 1.278814937909098E7 ; 2.0167871272770637E8 ; 1.0742089103501E9 ; 1.5680639238222713E10 ; 0.0
87 ; 1.2787383761011397E7 ; 2.0169231699900573E8 ; 1.086997059729191E9 ; 1.588231795095042E10 ; 0.0
88 ; 1.278306777577186E7 ; 2.017059375266678E8 ; 1.0997844434902024E9 ; 1.6084010267949427E10 ; 0.0
89 ; 1.2779922750697333E7 ; 2.017195728204466E8 ; 1.1125675112659743E9 ; 1.6285716205476095E10 ; 0.0
90 ; 1.2770180084331688E7 ; 2.017332214353475E8 ; 1.1253474340166717E9 ; 1.6487435778296541E10 ; 0.0
91 ; 1.2767770401336001E7 ; 2.0174688196971267E8 ; 1.1381176141010034E9 ; 1.6689168999731888E10 ; 0.0
92 ; 1.2760203297487989E7 ; 2.0176055306339476E8 ; 1.1508853845023394E9 ; 1.6890915881701601E10 ; 0.0
93 ; 1.2757911883992119E7 ; 2.0177423339601508E8 ; 1.1636455877998273E9 ; 1.7092676434764996E10 ; 0.0
94 ; 1.2748826572601004E7 ; 2.0178792168530193E8 ; 1.1764034996838195E9 ; 1.729445066816101E10 ; 0.0
95 ; 1.2745156591683766E7 ; 2.0180161668550605E8 ; 1.1891523262564206E9 ; 1.7496238589846313E10 ; 0.0
96 ; 1.2739518948177718E7 ; 2.0181531718588892E8 ; 1.2018974828481045E9 ; 1.769804020653182E10 ; 0.0
97 ; 1.2733939488470731E7 ; 2.01829022009281E8 ; 1.2146370017962823E9 ; 1.789985552371771E10 ; 0.0
98 ; 1.2728645371149242E7 ; 2.0184273001070654E8 ; 1.227370941284753E9 ; 1.810168454572699E10 ; 0.0
99 ; 1.2722044761534598E7 ; 2.018564400760716E8 ; 1.2400995866559024E9 ; 1.8303527275737698E10 ; 0.0
100 ; 1.2718229673276842E7 ; 2.0187015112091237E8 ; 1.252821631417437E9 ; 1.850538371581377E10 ; 0.0
101 ; 1.2707454363198685E7 ; 2.018838620892013E8 ; 1.265539861090714E9 ; 1.870725386693468E10 ; 0.0
102 ; 1.2703574997118633E7 ; 2.0189757195220745E8 ; 1.2782473154539127E9 ; 1.8909137729023884E10 ; 0.0
103 ; 1.2699466795859303E7 ; 2.019112797074095E8 ; 1.2909508904510314E9 ; 1.911103530097609E10 ; 0.0
104 ; 1.2692367171575375E7 ; 2.0192498437745798E8 ; 1.3036503572468908E9 ; 1.93129465806835E10 ; 0.0
105 ; 1.2686543438919378E7 ; 2.0193868500918478E8 ; 1.316342724418466E9 ; 1.9514871565060955E10 ; 0.0
106 ; 1.2680326855148386E7 ; 2.0195238067265797E8 ; 1.3290292678573854E9 ; 1.971681025007014E10 ; 0.0
107 ; 1.2673791520068504E7 ; 2.0196607046027893E8 ; 1.3417095947125337E9 ; 1.9918762630742798E10 ; 0.0
108 ; 1.2663030819473272E7 ; 2.0197975348592058E8 ; 1.3543833862326021E9 ; 2.0120728701203075E10 ; 0.0
109 ; 1.2656231096249385E7 ; 2.019934288841042E8 ; 1.3670464170520754E9 ; 2.0322708454688995E10 ; 0.0
110 ; 1.2653269426428622E7 ; 2.020070958092133E8 ; 1.3797026481483247E9 ; 2.05247018835731E10 ; 0.0
111 ; 1.2641234535628786E7 ; 2.0202075343474266E8 ; 1.3923559175747533E9 ; 2.0726708979382313E10 ; 0.0
112 ; 1.2633095327332122E7 ; 2.020344009525805E8 ; 1.404997152110382E9 ; 2.0928729732817055E10 ; 0.0
113 ; 1.2627811142210366E7 ; 2.0204803757232308E8 ; 1.417630247437714E9 ; 2.1130764133769634E10 ; 0.0
114 ; 1.2618499975486336E7 ; 2.0206166252061915E8 ; 1.4302580585799246E9 ; 2.1332812171341957E10 ; 0.0
115 ; 1.2614235659316124E7 ; 2.0207527504054338E8 ; 1.4428765585554109E9 ; 2.1534873833862576E10 ; 0.0
116 ; 1.2603204494267162E7 ; 2.0208887439099765E8 ; 1.455490794214727E9 ; 2.173694910890312E10 ; 0.0
117 ; 1.2595487588540621E7 ; 2.0210245984613794E8 ; 1.4680939987089942E9 ; 2.1939037983294117E10 ; 0.0
118 ; 1.2586890119851694E7 ; 2.0211603069482678E8 ; 1.4806894862975347E9 ; 2.2141140443140255E10 ; 0.0
119 ; 1.257959929771749E7 ; 2.021295862401091E8 ; 1.4932763764173863E9 ; 2.2343256473835083E10 ; 0.0
120 ; 1.2573192292034345E7 ; 2.0214312579871073E8 ; 1.5058559757151039E9 ; 2.254538606007519E10 ; 0.0
121 ; 1.2562997621407324E7 ; 2.0215664870055884E8 ; 1.5184291680071383E9 ; 2.27475291858739E10 ; 0.0
122 ; 1.2555159811941816E7 ; 2.021701542883225E8 ; 1.5309921656285455E9 ; 2.294968583457446E10 ; 0.0
123 ; 1.2544456246591808E7 ; 2.021836419169732E8 ; 1.5435473254404874E9 ; 2.315185598886278E10 ; 0.0
124 ; 1.2534135766931212E7 ; 2.0219711095336387E8 ; 1.5560917816870792E9 ; 2.3354039630779755E10 ; 0.0
125 ; 1.2527565005553674E7 ; 2.0221056077582577E8 ; 1.5686259174540105E9 ; 2.355623674173312E10 ; 0.0
126 ; 1.251423831978872E7 ; 2.0222399077378246E8 ; 1.5811534824595642E9 ; 2.3758447302508945E10 ; 0.0
127 ; 1.250791024207534E7 ; 2.0223740034737992E8 ; 1.593667720779353E9 ; 2.3960671293282726E10 ; 0.0
128 ; 1.2501989502642622E7 ; 2.0225078890713215E8 ; 1.6061756310214283E9 ; 2.4162908693630108E10 ; 0.0
129 ; 1.248734721659383E7 ; 2.022641558735814E8 ; 1.618677620524071E9 ; 2.436515948253724E10 ; 0.0
130 ; 1.2477214321854327E7 ; 2.022775006769729E8 ; 1.6311649677406647E9 ; 2.456742363841082E10 ; 0.0
131 ; 1.2463761550498642E7 ; 2.0229082275694236E8 ; 1.643642182062519E9 ; 2.476970113908779E10 ; 0.0
132 ; 1.2449556194469146E7 ; 2.023041215622171E8 ; 1.6561059436130178E9 ; 2.4971991961844734E10 ; 0.0
133 ; 1.243391419970071E7 ; 2.023173965503286E8 ; 1.668555499807487E9 ; 2.517429608340695E10 ; 0.0
134 ; 1.2421359562260514E7 ; 2.023306471873376E8 ; 1.6809894140071876E9 ; 2.537661347995728E10 ; 0.0
135 ; 1.2406939385221269E7 ; 2.0234387294756964E8 ; 1.6934107735694482E9 ; 2.5578944127144615E10 ; 0.0
136 ; 1.2393308454434678E7 ; 2.0235707331336167E8 ; 1.7058177129546695E9 ; 2.5781288000092186E10 ; 0.0
137 ; 1.2378234619827723E7 ; 2.023702477748189E8 ; 1.718211021409104E9 ; 2.598364507340555E10 ; 0.0
138 ; 1.2365279771171628E7 ; 2.0238339582958105E8 ; 1.7305892560289319E9 ; 2.6186015321180367E10 ; 0.0
139 ; 1.2351763670843009E7 ; 2.0239651698259845E8 ; 1.7429545358001034E9 ; 2.638839871700995E10 ; 0.0
140 ; 1.233349638921051E7 ; 2.0240961074591655E8 ; 1.7553062994709466E9 ; 2.6590795233992546E10 ; 0.0
141 ; 1.2321031717812793E7 ; 2.0242267663846913E8 ; 1.767639795860157E9 ; 2.6793204844738464E10 ; 0.0
142 ; 1.2305550705506109E7 ; 2.0243571418587986E8 ; 1.7799608275779698E9 ; 2.6995627521376934E10 ; 0.0
143 ; 1.2290999853664067E7 ; 2.0244872292027137E8 ; 1.7922663782834759E9 ; 2.7198063235562813E10 ; 0.0
144 ; 1.2273179244267387E7 ; 2.0246170238008192E8 ; 1.80455737813714E9 ; 2.7400511958483086E10 ; 0.0
145 ; 1.2266365308544837E7 ; 2.0247465210988915E8 ; 1.8168305573814075E9 ; 2.7602973660863167E10 ; 0.0
146 ; 1.2254898609207176E7 ; 2.024875716602407E8 ; 1.8290969226899524E9 ; 2.7805448312973057E10 ; 0.0
147 ; 1.2245052537706956E7 ; 2.0250046058749145E8 ; 1.8413518212991595E9 ; 2.8007935884633297E10 ; 0.0
148 ; 1.2234100574439162E7 ; 2.0251331845364678E8 ; 1.8535968738368664E9 ; 2.8210436345220787E10 ; 0.0
149 ; 1.2226606943525663E7 ; 2.025261448262121E8 ; 1.8658309744113054E9 ; 2.8412949663674435E10 ; 0.0
150 ; 1.2212861906792108E7 ; 2.0253893927804804E8 ; 1.878057581354831E9 ; 2.861547580850065E10 ; 0.0
151 ; 1.2205931198642446E7 ; 2.0255170138723093E8 ; 1.8902704432616231E9 ; 2.8818014747778698E10 ; 0.0
152 ; 1.2192210154165048E7 ; 2.02564430736919E8 ; 1.9024763744602656E9 ; 2.9020566449165928E10 ; 0.0
153 ; 1.21801429028244E7 ; 2.0257712691522312E8 ; 1.9146685846144307E9 ; 2.9223130879902847E10 ; 0.0
154 ; 1.2167894430202805E7 ; 2.0258978951508284E8 ; 1.926848727517255E9 ; 2.942570800681807E10 ; 0.0
155 ; 1.2155399493550062E7 ; 2.0260241813414675E8 ; 1.9390166219474578E9 ; 2.9628297796333153E10 ; 0.0
156 ; 1.2149706259978142E7 ; 2.0261501237465745E8 ; 1.9511720214410079E9 ; 2.98309002144673E10 ; 0.0
157 ; 1.213526041103625E7 ; 2.0262757184334078E8 ; 1.963321727700986E9 ; 3.0033515226841957E10 ; 0.0
158 ; 1.212652804631975E7 ; 2.0264009615129918E8 ; 1.9754569881120222E9 ; 3.02361427986853E10 ; 0.0
159 ; 1.2113723437934546E7 ; 2.0265258491390887E8 ; 1.987583516158342E9 ; 3.0438782894836597E10 ; 0.0
160 ; 1.210287595775449E7 ; 2.0266503775072083E8 ; 1.9996972395962765E9 ; 3.0641435479750507E10 ; 0.0
161 ; 1.2095204246087678E7 ; 2.026774542853656E8 ; 2.011800115554031E9 ; 3.084410051750123E10 ; 0.0
162 ; 1.2085840558582714E7 ; 2.0268983414546123E8 ; 2.0238953198001187E9 ; 3.1046777971786594E10 ; 0.0
163 ; 1.20694686551392E7 ; 2.0270217696252492E8 ; 2.0359811603587015E9 ; 3.1249467805932056E10 ; 0.0
164 ; 1.2057318272158854E7 ; 2.027144823718875E8 ; 2.0480506290138407E9 ; 3.145216998289458E10 ; 0.0
165 ; 1.2048225163044916E7 ; 2.0272675001261133E8 ; 2.0601079472859995E9 ; 3.1654884465266468E10 ; 0.0
166 ; 1.2037928495008979E7 ; 2.0273897952741098E8 ; 2.0721561724490445E9 ; 3.185761121527908E10 ; 0.0
167 ; 1.2022612754345052E7 ; 2.027511705625767E8 ; 2.0841941009440534E9 ; 3.206035019480649E10 ; 0.0
168 ; 1.201401639376142E7 ; 2.0276332276790088E8 ; 2.0962167136983984E9 ; 3.226310136536907E10 ; 0.0
169 ; 1.2001719281946532E7 ; 2.0277543579660678E8 ; 2.1082307300921597E9 ; 3.246586468813697E10 ; 0.0
170 ; 1.1988848942312678E7 ; 2.027875093052801E8 ; 2.1202324493741062E9 ; 3.266864012393358E10 ; 0.0
171 ; 1.197692754262847E7 ; 2.0279954295380273E8 ; 2.132221298316419E9 ; 3.2871427633238857E10 ; 0.0
172 ; 1.1963794783207102E7 ; 2.0281153640528914E8 ; 2.1441982258590474E9 ; 3.307422717619266E10 ; 0.0
173 ; 1.1954907587370936E7 ; 2.0282348932602465E8 ; 2.1561620206422544E9 ; 3.327703871259795E10 ; 0.0
174 ; 1.1948284783158854E7 ; 2.028354013854061E8 ; 2.168116928229625E9 ; 3.3479862201923973E10 ; 0.0
175 ; 1.1938263531716341E7 ; 2.0284727225588462E8 ; 2.180065213012784E9 ; 3.368269760330938E10 ; 0.0
176 ; 1.1930916751586879E7 ; 2.0285910161291015E8 ; 2.1920034765445004E9 ; 3.3885544875565266E10 ; 0.0
177 ; 1.1925279421346443E7 ; 2.0287088913487828E8 ; 2.2039343932960873E9 ; 3.4088403977178177E10 ; 0.0
178 ; 1.1919962293751039E7 ; 2.028826345030785E8 ; 2.215859672717434E9 ; 3.4291274866313057E10 ; 0.0
179 ; 1.191214123292585E7 ; 2.028943374016446E8 ; 2.227779635011185E9 ; 3.449415750081614E10 ; 0.0
180 ; 1.1905256086642E7 ; 2.0290599751750657E8 ; 2.239691776244111E9 ; 3.469705183821778E10 ; 0.0
181 ; 1.1899044063676357E7 ; 2.0291761454034433E8 ; 2.251597032330753E9 ; 3.489995783573529E10 ; 0.0
182 ; 1.189091830827526E7 ; 2.0292918816254276E8 ; 2.263496076394429E9 ; 3.5102875450275635E10 ; 0.0
183 ; 1.188021703980835E7 ; 2.0294071807914865E8 ; 2.2753869947027044E9 ; 3.530580463843818E10 ; 0.0
184 ; 1.1875464332157275E7 ; 2.0295220398782885E8 ; 2.2872672117425127E9 ; 3.550874535651733E10 ; 0.0
185 ; 1.1866862471376434E7 ; 2.0296364558882993E8 ; 2.29914267607467E9 ; 3.571169756050516E10 ; 0.0
186 ; 1.1861084505108038E7 ; 2.0297504258493924E8 ; 2.3110095385460463E9 ; 3.591466120609399E10 ; 0.0
187 ; 1.1853892429879608E7 ; 2.0298639468144724E8 ; 2.322870623051154E9 ; 3.6117636248678925E10 ; 0.0
188 ; 1.1849759217475E7 ; 2.0299770158611122E8 ; 2.334724515481034E9 ; 3.6320622643360374E10 ; 0.0
189 ; 1.184158045704011E7 ; 2.0300896300912E8 ; 2.3465742746985087E9 ; 3.652362034494649E10 ; 0.0
190 ; 1.1831747364072181E7 ; 2.0302017866306016E8 ; 2.358415855155549E9 ; 3.6726629307955605E10 ; 0.0
191 ; 1.1828068589423848E7 ; 2.0303134826288322E8 ; 2.3702476025196214E9 ; 3.692964948661867E10 ; 0.0
192 ; 1.1820604099580701E7 ; 2.030424715258738E8 ; 2.382075671109045E9 ; 3.713268083488155E10 ; 0.0
193 ; 1.181234893485948E7 ; 2.030535481716192E8 ; 2.393896275208626E9 ; 3.7335723306407425E10 ; 0.0
194 ; 1.180497034971248E7 ; 2.0306457792197964E8 ; 2.405708624143485E9 ; 3.753877685457904E10 ; 0.0
195 ; 1.1797942434725964E7 ; 2.0307556050105965E8 ; 2.4175135944931974E9 ; 3.774184143250102E10 ; 0.0
