CSV File for the City 6 on Day 168
1 - Minute m 
2 - Power Consumed at minute m 
3 - Power Produced at minute m 
4 - Energy Consumed since the beginning of the day 
5 - Energy Produced since the beginning of the day 
6 - Energy Lost since the beginning of the day on lines starting from the city
 
0 ; 4008053.942412737 ; 1.0605683561743376E8 ; 0.0 ; 0.0 ; 0.0
1 ; 4017604.618617958 ; 1.062077031284036E8 ; 4008053.942412737 ; 1.0605683561743376E8 ; 0.0
2 ; 4028578.057105302 ; 1.0666756405598411E8 ; 8025658.561030695 ; 2.1226453874583736E8 ; 0.0
3 ; 4037362.84011063 ; 1.0743642232812911E8 ; 1.2054236618135996E7 ; 3.189321028018215E8 ; 0.0
4 ; 4049949.6297712196 ; 1.0851428146813124E8 ; 1.6091599458246626E7 ; 4.263685251299506E8 ; 0.0
5 ; 4068239.860946194 ; 1.0990114457404184E8 ; 2.0141549088017844E7 ; 5.348828065980818E8 ; 0.0
6 ; 4090455.539727288 ; 1.1159701430020806E8 ; 2.4209788948964037E7 ; 6.447839511721237E8 ; 0.0
7 ; 4124328.230591864 ; 1.1360189284118074E8 ; 2.8300244488691326E7 ; 7.563809654723318E8 ; 0.0
8 ; 4177818.1620289087 ; 1.1591578191821736E8 ; 3.242457271928319E7 ; 8.699828583135126E8 ; 0.0
9 ; 4251894.764295554 ; 1.185386827685743E8 ; 3.66023908813121E7 ; 9.8589864023173E8 ; 0.0
10 ; 4377305.807348395 ; 1.2147059613774341E8 ; 4.085428564560766E7 ; 1.1044373230003042E9 ; 0.0
11 ; 4571679.714022224 ; 1.2471152227474716E8 ; 4.523159145295605E7 ; 1.2259079191380477E9 ; 0.0
12 ; 4884384.297545883 ; 1.2826146093056306E8 ; 4.980327116697828E7 ; 1.3506194414127948E9 ; 0.0
13 ; 5188072.570333042 ; 1.3212041135969925E8 ; 5.468765546452416E7 ; 1.4788809023433578E9 ; 0.0
14 ; 5221609.971466012 ; 1.3628837232489944E8 ; 5.98757280348572E7 ; 1.611001313703057E9 ; 0.0
15 ; 5229599.643081095 ; 1.4076534210490602E8 ; 6.509733800632321E7 ; 1.7472896860279565E9 ; 0.0
16 ; 5244152.9907216905 ; 1.455513185051683E8 ; 7.03269376494043E7 ; 1.8880550281328626E9 ; 0.0
17 ; 5255260.586485623 ; 1.50646298871339E8 ; 7.557109064012599E7 ; 2.0336063466380308E9 ; 0.0
18 ; 5265547.710748365 ; 1.5605028010536683E8 ; 8.082635122661161E7 ; 2.18425264550937E9 ; 0.0
19 ; 5279871.468365797 ; 1.6176325868395916E8 ; 8.609189893735997E7 ; 2.3403029256147366E9 ; 0.0
20 ; 5290450.910759908 ; 1.677852306791621E8 ; 9.137177040572578E7 ; 2.5020661842986956E9 ; 0.0
21 ; 5304167.221976224 ; 1.7411619178078476E8 ; 9.666222131648569E7 ; 2.6698514149778576E9 ; 0.0
22 ; 5313666.926733055 ; 1.8075613732037967E8 ; 1.0196638853846191E8 ; 2.843967606758642E9 ; 0.0
23 ; 5328213.324143253 ; 1.877050622964831E8 ; 1.0728005546519497E8 ; 3.024723744079022E9 ; 0.0
24 ; 5342304.60036011 ; 1.9496296140081626E8 ; 1.1260826878933823E8 ; 3.212428806375505E9 ; 0.0
25 ; 5353460.382711559 ; 2.0121786994333732E8 ; 1.1795057338969834E8 ; 3.4073917677763214E9 ; 0.0
26 ; 5365701.647279036 ; 2.012233299163853E8 ; 1.233040337724099E8 ; 3.608609637719659E9 ; 0.0
27 ; 5373185.4405603865 ; 2.0122910454693997E8 ; 1.2866973541968894E8 ; 3.809832967636044E9 ; 0.0
28 ; 5386994.513916822 ; 2.0123518757060388E8 ; 1.3404292086024933E8 ; 4.011062072182984E9 ; 0.0
29 ; 5399503.821049911 ; 2.0124157255167562E8 ; 1.3942991537416616E8 ; 4.2122972597535877E9 ; 0.0
30 ; 5417974.96567328 ; 2.0124825290938526E8 ; 1.4482941919521606E8 ; 4.4135388323052635E9 ; 0.0
31 ; 5421673.828360782 ; 2.0125522194335008E8 ; 1.5024739416088933E8 ; 4.614787085214649E9 ; 0.0
32 ; 5432040.1407877775 ; 2.0126247285808924E8 ; 1.5566906798925012E8 ; 4.816042307157999E9 ; 0.0
33 ; 5448613.346507834 ; 2.0126999878646198E8 ; 1.611011081300379E8 ; 5.0173047800160885E9 ; 0.0
34 ; 5452069.635382498 ; 2.0127779281191903E8 ; 1.6654972147654575E8 ; 5.21857477880255E9 ; 0.0
35 ; 5465720.005751009 ; 2.0128584798948142E8 ; 1.7200179111192825E8 ; 5.41985257161447E9 ; 0.0
36 ; 5473226.456642015 ; 2.0129415736538428E8 ; 1.7746751111767927E8 ; 5.6211384196039505E9 ; 0.0
37 ; 5485373.963829334 ; 2.0130271399534485E8 ; 1.8294073757432127E8 ; 5.822432576969335E9 ; 0.0
38 ; 5492471.817082641 ; 2.0131151096143347E8 ; 1.884261115381506E8 ; 6.02373529096468E9 ; 0.0
39 ; 5498238.78827858 ; 2.013205413875444E8 ; 1.9391858335523325E8 ; 6.225046801926113E9 ; 0.0
40 ; 5509421.748065277 ; 2.013297984534787E8 ; 1.9941682214351183E8 ; 6.426367343313658E9 ; 0.0
41 ; 5513711.437493566 ; 2.0133927540766528E8 ; 2.049262438915771E8 ; 6.627697141767137E9 ; 0.0
42 ; 5521633.221350974 ; 2.0134896557855755E8 ; 2.1043995532907066E8 ; 6.829036417174802E9 ; 0.0
43 ; 5528258.889808267 ; 2.0135886238475278E8 ; 2.1596158855042163E8 ; 7.03038538275336E9 ; 0.0
44 ; 5537073.790655182 ; 2.0136895934388882E8 ; 2.214898474402299E8 ; 7.231744245138113E9 ; 0.0
45 ; 5541200.734443342 ; 2.0137925008037853E8 ; 2.270269212308851E8 ; 7.433113204482002E9 ; 0.0
46 ; 5543463.943460073 ; 2.013897283320472E8 ; 2.3256812196532843E8 ; 7.634492454562381E9 ; 0.0
47 ; 5550544.624159298 ; 2.014003879557403E8 ; 2.381115859087885E8 ; 7.835882182894428E9 ; 0.0
48 ; 5554833.200215612 ; 2.0141122293197122E8 ; 2.436621305329478E8 ; 8.037282570850168E9 ; 0.0
49 ; 5554815.241481681 ; 2.014222273686786E8 ; 2.4921696373316342E8 ; 8.23869379378214E9 ; 0.0
50 ; 5556670.162850019 ; 2.0143339550416285E8 ; 2.547717789746451E8 ; 8.440116021150819E9 ; 0.0
51 ; 5563696.991175181 ; 2.014447217092703E8 ; 2.6032844913749513E8 ; 8.641549416654982E9 ; 0.0
52 ; 5563581.550298779 ; 2.014562004888908E8 ; 2.658921461286703E8 ; 8.842994138364252E9 ; 0.0
53 ; 5560429.645039893 ; 2.0146782648283342E8 ; 2.714557276789691E8 ; 9.044450338853144E9 ; 0.0
54 ; 5568087.449315644 ; 2.014795944661413E8 ; 2.77016157324009E8 ; 9.245918165335978E9 ; 0.0
55 ; 5572257.044043604 ; 2.014914993489037E8 ; 2.8258424477332467E8 ; 9.447397759802118E9 ; 0.0
56 ; 5571061.572167822 ; 2.015035361756202E8 ; 2.8815650181736827E8 ; 9.648889259151022E9 ; 0.0
57 ; 5573092.785880775 ; 2.015157001241694E8 ; 2.937275633895361E8 ; 9.850392795326643E9 ; 0.0
58 ; 5576395.503564933 ; 2.0152798650442886E8 ; 2.993006561754169E8 ; 1.0051908495450813E10 ; 0.0
59 ; 5579912.942162297 ; 2.015403907565923E8 ; 3.0487705167898184E8 ; 1.0253436481955242E10 ; 0.0
60 ; 5580043.2796886135 ; 2.0155290844922456E8 ; 3.104569646211441E8 ; 1.0454976872711834E10 ; 0.0
61 ; 5581283.284237781 ; 2.0156553527709278E8 ; 3.160370079008327E8 ; 1.0656529781161058E10 ; 0.0
62 ; 5580526.226640162 ; 2.0157826705880812E8 ; 3.216182911850705E8 ; 1.085809531643815E10 ; 0.0
63 ; 5583098.082905701 ; 2.0159109973431E8 ; 3.271988174117107E8 ; 1.1059673583496958E10 ; 0.0
64 ; 5585515.860612093 ; 2.0160402936222175E8 ; 3.327819154946164E8 ; 1.1261264683231268E10 ; 0.0
65 ; 5583558.720573781 ; 2.0161705211710325E8 ; 3.383674313552285E8 ; 1.146286871259349E10 ; 0.0
66 ; 5590244.450517159 ; 2.016301642866244E8 ; 3.4395099007580227E8 ; 1.1664485764710594E10 ; 0.0
67 ; 5587158.896086694 ; 2.0164336226867995E8 ; 3.4954123452631944E8 ; 1.186611592899722E10 ; 0.0
68 ; 5588356.27966094 ; 2.016566425684648E8 ; 3.5512839342240614E8 ; 1.20677592912659E10 ; 0.0
69 ; 5586848.812643756 ; 2.0167000179552606E8 ; 3.607167497020671E8 ; 1.2269415933834364E10 ; 0.0
70 ; 5587677.400848256 ; 2.016834366608068E8 ; 3.6630359851471084E8 ; 1.247108593562989E10 ; 0.0
71 ; 5589353.994662151 ; 2.0169694397369403E8 ; 3.718912759155591E8 ; 1.2672769372290697E10 ; 0.0
72 ; 5588074.006781381 ; 2.0171052063908237E8 ; 3.774806299102213E8 ; 1.287446631626439E10 ; 0.0
73 ; 5591707.5346495025 ; 2.017241636544634E8 ; 3.830687039170027E8 ; 1.3076176836903473E10 ; 0.0
74 ; 5591933.5224795425 ; 2.017378701070487E8 ; 3.8866041145165217E8 ; 1.3277901000557936E10 ; 0.0
75 ; 5589256.841286158 ; 2.0175163717093396E8 ; 3.942523449741317E8 ; 1.3479638870664984E10 ; 0.0
76 ; 5589800.324793765 ; 2.017654621043104E8 ; 3.998416018154179E8 ; 1.3681390507835918E10 ; 0.0
77 ; 5587862.767583994 ; 2.0177934224672845E8 ; 4.0543140214021164E8 ; 1.388315596994023E10 ; 0.0
78 ; 5588467.247051531 ; 2.0179327501641786E8 ; 4.110192649077956E8 ; 1.4084935312186958E10 ; 0.0
79 ; 5580672.500882655 ; 2.0180725790766788E8 ; 4.1660773215484715E8 ; 1.4286728587203377E10 ; 0.0
80 ; 5578735.789771688 ; 2.0182128848827004E8 ; 4.221884046557298E8 ; 1.4488535845111044E10 ; 0.0
81 ; 5574794.079470659 ; 2.0183536439702573E8 ; 4.2776714044550145E8 ; 1.4690357133599314E10 ; 0.0
82 ; 5570679.993405575 ; 2.0184948334131992E8 ; 4.333419345249721E8 ; 1.489219249799634E10 ; 0.0
83 ; 5569890.395767108 ; 2.0186364309476236E8 ; 4.3891261451837766E8 ; 1.509404198133766E10 ; 0.0
84 ; 5563648.20922892 ; 2.018778414948967E8 ; 4.4448250491414475E8 ; 1.5295905624432423E10 ; 0.0
85 ; 5558269.7887222925 ; 2.0189207644097763E8 ; 4.500461531233737E8 ; 1.5497783465927319E10 ; 0.0
86 ; 5553733.818658175 ; 2.0190634589181617E8 ; 4.5560442291209596E8 ; 1.5699675542368296E10 ; 0.0
87 ; 5549869.989372321 ; 2.019206478636927E8 ; 4.6115815673075414E8 ; 1.5901581888260113E10 ; 0.0
88 ; 5541934.207138791 ; 2.0193498042833707E8 ; 4.6670802672012645E8 ; 1.6103502536123806E10 ; 0.0
89 ; 5538088.170651172 ; 2.0194934171097478E8 ; 4.722499609272652E8 ; 1.6305437516552143E10 ; 0.0
90 ; 5536943.665305918 ; 2.0196372988843855E8 ; 4.777880490979164E8 ; 1.6507386858263119E10 ; 0.0
91 ; 5530407.985987117 ; 2.019781431873441E8 ; 4.8332499276322234E8 ; 1.6709350588151558E10 ; 0.0
92 ; 5524749.051025684 ; 2.0199257988232845E8 ; 4.8885540074920946E8 ; 1.6911328731338902E10 ; 0.0
93 ; 5516485.535948036 ; 2.0200703829434988E8 ; 4.9438014980023515E8 ; 1.711332131122123E10 ; 0.0
94 ; 5516844.086389712 ; 2.02021516789048E8 ; 4.998966353361832E8 ; 1.731532834951558E10 ; 0.0
95 ; 5508819.951465831 ; 2.0203601377516198E8 ; 5.054134794225729E8 ; 1.7517349866304626E10 ; 0.0
96 ; 5500767.928860789 ; 2.0205052770300603E8 ; 5.1092229937403876E8 ; 1.771938588007979E10 ; 0.0
97 ; 5496220.927069728 ; 2.0206505706300017E8 ; 5.1642306730289954E8 ; 1.7921436407782795E10 ; 0.0
98 ; 5492172.672312137 ; 2.0207960038425463E8 ; 5.2191928822996926E8 ; 1.8123501464845795E10 ; 0.0
99 ; 5487021.235525141 ; 2.0209415623320648E8 ; 5.274114609022814E8 ; 1.832558106523005E10 ; 0.0
100 ; 5481758.288439151 ; 2.021087232123067E8 ; 5.3289848213780653E8 ; 1.8527675221463257E10 ; 0.0
101 ; 5470304.361113235 ; 2.0212329995875627E8 ; 5.383802404262457E8 ; 1.8729783944675564E10 ; 0.0
102 ; 5468704.149544168 ; 2.0213788514328933E8 ; 5.438505447873589E8 ; 1.893190724463432E10 ; 0.0
103 ; 5462436.705915304 ; 2.0215247746900225E8 ; 5.49319248936903E8 ; 1.9134045129777607E10 ; 0.0
104 ; 5458222.17157501 ; 2.021670756702267E8 ; 5.547816856428183E8 ; 1.933619760724661E10 ; 0.0
105 ; 5450005.877801245 ; 2.021816785114454E8 ; 5.602399078143933E8 ; 1.9538364682916836E10 ; 0.0
106 ; 5444601.1374067655 ; 2.02196284786249E8 ; 5.656899136921946E8 ; 1.974054636142828E10 ; 0.0
107 ; 5436519.809697122 ; 2.022108933163324E8 ; 5.711345148296013E8 ; 1.9942742646214527E10 ; 0.0
108 ; 5433549.28410581 ; 2.022255029505295E8 ; 5.765710346392984E8 ; 2.014495353953086E10 ; 0.0
109 ; 5424587.5734334085 ; 2.0224011256388453E8 ; 5.820045839234042E8 ; 2.034717904248139E10 ; 0.0
110 ; 5418722.532833458 ; 2.0225472105675906E8 ; 5.874291714968376E8 ; 2.0549419155045277E10 ; 0.0
111 ; 5412139.843543529 ; 2.0226932735397276E8 ; 5.928478940296711E8 ; 2.0751673876102036E10 ; 0.0
112 ; 5400509.109781969 ; 2.0228393040397727E8 ; 5.982600338732146E8 ; 2.095394320345601E10 ; 0.0
113 ; 5394236.874059975 ; 2.022985291780616E8 ; 6.036605429829966E8 ; 2.1156227133859985E10 ; 0.0
114 ; 5389339.891655175 ; 2.0231312266958764E8 ; 6.090547798570566E8 ; 2.1358525663038048E10 ; 0.0
115 ; 5380464.349091691 ; 2.0232770989325514E8 ; 6.144441197487118E8 ; 2.1560838785707634E10 ; 0.0
116 ; 5372433.846945178 ; 2.023422898843947E8 ; 6.198245840978035E8 ; 2.1763166495600887E10 ; 0.0
117 ; 5367179.534361911 ; 2.0235686169828764E8 ; 6.251970179447486E8 ; 2.1965508785485283E10 ; 0.0
118 ; 5361287.978415068 ; 2.023714244095118E8 ; 6.305641974791106E8 ; 2.216786564718357E10 ; 0.0
119 ; 5349965.228890072 ; 2.0238597711131245E8 ; 6.359254854575256E8 ; 2.2370237071593082E10 ; 0.0
120 ; 5345242.328874244 ; 2.0240051891499674E8 ; 6.412754506864157E8 ; 2.2572623048704395E10 ; 0.0
121 ; 5329597.23646145 ; 2.024150489493516E8 ; 6.466206930152899E8 ; 2.2775023567619392E10 ; 0.0
122 ; 5329165.859481338 ; 2.024295663600834E8 ; 6.519502902517513E8 ; 2.2977438616568745E10 ; 0.0
123 ; 5319233.522685977 ; 2.0244407030927894E8 ; 6.572794561112326E8 ; 2.317986818292883E10 ; 0.0
124 ; 5312595.376139626 ; 2.0245855997488675E8 ; 6.625986896339186E8 ; 2.338231225323811E10 ; 0.0
125 ; 5307422.205643633 ; 2.024730345502181E8 ; 6.679112850100583E8 ; 2.3584770813212997E10 ; 0.0
126 ; 5296922.533041681 ; 2.0248749324346665E8 ; 6.732187072157019E8 ; 2.3787243847763214E10 ; 0.0
127 ; 5286423.780583339 ; 2.0250193527724615E8 ; 6.785156297487437E8 ; 2.398973134100668E10 ; 0.0
128 ; 5281434.217814016 ; 2.025163598881457E8 ; 6.83802053529327E8 ; 2.4192233276283924E10 ; 0.0
129 ; 5269716.960607043 ; 2.0253076632630122E8 ; 6.89083487747141E8 ; 2.439474963617207E10 ; 0.0
130 ; 5262121.966832906 ; 2.025451538549834E8 ; 6.94353204707748E8 ; 2.459728040249837E10 ; 0.0
131 ; 5244341.191216176 ; 2.0255952175020066E8 ; 6.996153266745809E8 ; 2.4799825556353355E10 ; 0.0
132 ; 5237952.005858348 ; 2.025738693003169E8 ; 7.048596678657972E8 ; 2.5002385078103558E10 ; 0.0
133 ; 5222259.173567793 ; 2.0258819580568358E8 ; 7.100976198716555E8 ; 2.5204958947403873E10 ; 0.0
134 ; 5210073.694640997 ; 2.0260250057828513E8 ; 7.153198790452232E8 ; 2.5407547143209557E10 ; 0.0
135 ; 5199831.793945325 ; 2.0261678294139776E8 ; 7.205299527398642E8 ; 2.561014964378784E10 ; 0.0
136 ; 5184940.309442014 ; 2.0263104222926044E8 ; 7.257297845338095E8 ; 2.581276642672924E10 ; 0.0
137 ; 5170873.482994236 ; 2.0264527778675827E8 ; 7.309147248432516E8 ; 2.60153974689585E10 ; 0.0
138 ; 5162394.817713985 ; 2.0265948896911713E8 ; 7.360855983262458E8 ; 2.621804274674526E10 ; 0.0
139 ; 5145671.92527266 ; 2.026736751416097E8 ; 7.412479931439598E8 ; 2.6420702235714375E10 ; 0.0
140 ; 5128012.240071921 ; 2.0268783567927206E8 ; 7.463936650692325E8 ; 2.6623375910855984E10 ; 0.0
141 ; 5120977.13023915 ; 2.027019699666305E8 ; 7.515216773093044E8 ; 2.6826063746535255E10 ; 0.0
142 ; 5103751.350014587 ; 2.0271607739743826E8 ; 7.566426544395435E8 ; 2.7028765716501884E10 ; 0.0
143 ; 5091545.527233377 ; 2.027301573744219E8 ; 7.61746405789558E8 ; 2.7231481793899323E10 ; 0.0
144 ; 5078032.538405789 ; 2.027442093090364E8 ; 7.668379513167914E8 ; 2.7434211951273743E10 ; 0.0
145 ; 5071435.836515457 ; 2.0275823262122944E8 ; 7.719159838551972E8 ; 2.763695616058278E10 ; 0.0
146 ; 5061145.918484431 ; 2.027722267392138E8 ; 7.769874196917126E8 ; 2.783971439320401E10 ; 0.0
147 ; 5050649.695452561 ; 2.0278619109924805E8 ; 7.820485656101971E8 ; 2.8042486619943222E10 ; 0.0
148 ; 5043273.024616709 ; 2.0280012514542487E8 ; 7.870992153056496E8 ; 2.824527281104247E10 ; 0.0
149 ; 5039217.977503031 ; 2.0281402832946706E8 ; 7.921424883302664E8 ; 2.8448072936187893E10 ; 0.0
150 ; 5030217.972266434 ; 2.0282790011053044E8 ; 7.971817063077694E8 ; 2.865088696451736E10 ; 0.0
151 ; 5015330.923356427 ; 2.0284173995501393E8 ; 8.022119242800359E8 ; 2.885371486462789E10 ; 0.0
152 ; 5012045.770142486 ; 2.0285554733637628E8 ; 8.072272552033923E8 ; 2.9056556604582905E10 ; 0.0
153 ; 4999709.578147246 ; 2.0286932173495907E8 ; 8.122393009735347E8 ; 2.925941215191928E10 ; 0.0
154 ; 4993012.07021573 ; 2.028830626378159E8 ; 8.17239010551682E8 ; 2.946228147365424E10 ; 0.0
155 ; 4980677.807038628 ; 2.0289676953854755E8 ; 8.222320226218977E8 ; 2.9665164536292057E10 ; 0.0
156 ; 4971364.992943979 ; 2.0291044193714297E8 ; 8.272127004289364E8 ; 2.9868061305830605E10 ; 0.0
157 ; 4963837.170084263 ; 2.0292407933982545E8 ; 8.321840654218804E8 ; 3.0070971747767746E10 ; 0.0
158 ; 4954328.787486486 ; 2.0293768125890443E8 ; 8.371479025919646E8 ; 3.027389582710757E10 ; 0.0
159 ; 4947034.476062774 ; 2.0295124721263215E8 ; 8.42102231379451E8 ; 3.0476833508366474E10 ; 0.0
160 ; 4936361.130197972 ; 2.0296477672506523E8 ; 8.470492658555138E8 ; 3.0679784755579105E10 ; 0.0
161 ; 4928868.393774123 ; 2.029782693259311E8 ; 8.519856269857118E8 ; 3.088274953230417E10 ; 0.0
162 ; 4917482.058611824 ; 2.029917245504989E8 ; 8.56914495379486E8 ; 3.10857278016301E10 ; 0.0
163 ; 4911606.270865759 ; 2.030051419394547E8 ; 8.618319774380978E8 ; 3.12887195261806E10 ; 0.0
164 ; 4897820.9838638 ; 2.03018521038781E8 ; 8.667435837089636E8 ; 3.1491724668120052E10 ; 0.0
165 ; 4889115.141693772 ; 2.0303186139964023E8 ; 8.716414046928275E8 ; 3.1694743189158833E10 ; 0.0
166 ; 4879329.346339896 ; 2.0304516257826227E8 ; 8.765305198345213E8 ; 3.189777505055847E10 ; 0.0
167 ; 4869889.112320323 ; 2.0305842413583565E8 ; 8.814098491808612E8 ; 3.2100820213136734E10 ; 0.0
168 ; 4862411.2820654595 ; 2.030716456384024E8 ; 8.862797382931815E8 ; 3.2303878637272568E10 ; 0.0
169 ; 4850833.900294508 ; 2.0308482665675643E8 ; 8.91142149575247E8 ; 3.250695028291097E10 ; 0.0
170 ; 4845512.989268494 ; 2.0309796676634517E8 ; 8.959929834755416E8 ; 3.2710035109567726E10 ; 0.0
171 ; 4833455.252668985 ; 2.0311106554717475E8 ; 9.008384964648101E8 ; 3.2913133076334072E10 ; 0.0
172 ; 4823719.225264419 ; 2.0312412258371788E8 ; 9.056719517174791E8 ; 3.311624414188125E10 ; 0.0
173 ; 4816013.707090568 ; 2.0313713746482518E8 ; 9.104956709427435E8 ; 3.3319368264464966E10 ; 0.0
174 ; 4810833.683183664 ; 2.031501097836392E8 ; 9.153116846498342E8 ; 3.352250540192979E10 ; 0.0
175 ; 4802133.358628908 ; 2.0316303913751125E8 ; 9.201225183330178E8 ; 3.372565551171343E10 ; 0.0
176 ; 4792335.80020918 ; 2.031759251279211E8 ; 9.249246516916467E8 ; 3.392881855085094E10 ; 0.0
177 ; 4783884.2153620515 ; 2.0318876736039904E8 ; 9.297169874918559E8 ; 3.4131994475978863E10 ; 0.0
178 ; 4777578.4399835225 ; 2.0320156544445077E8 ; 9.345008717072179E8 ; 3.433518324333926E10 ; 0.0
179 ; 4769653.545464352 ; 2.0321431899348456E8 ; 9.392784501472014E8 ; 3.4538384808783714E10 ; 0.0
180 ; 4763634.080147187 ; 2.032270276247406E8 ; 9.440481036926658E8 ; 3.47415991277772E10 ; 0.0
181 ; 4758065.474949993 ; 2.0323969095922315E8 ; 9.48811737772813E8 ; 3.494482615540194E10 ; 0.0
182 ; 4751269.063887612 ; 2.032523086216342E8 ; 9.535698032477629E8 ; 3.514806584636116E10 ; 0.0
183 ; 4744630.59324759 ; 2.0326488024030972E8 ; 9.583210723116505E8 ; 3.5351318154982796E10 ; 0.0
184 ; 4735053.076287913 ; 2.0327740544715795E8 ; 9.63065702904898E8 ; 3.555458303522311E10 ; 0.0
185 ; 4727513.556151958 ; 2.0328988387759933E8 ; 9.678007559811859E8 ; 3.5757860440670265E10 ; 0.0
186 ; 4719012.864278181 ; 2.033023151705086E8 ; 9.725282695373379E8 ; 3.596115032454787E10 ; 0.0
187 ; 4715404.025140024 ; 2.0331469896815878E8 ; 9.772472824016161E8 ; 3.6164452639718376E10 ; 0.0
188 ; 4704799.0468916325 ; 2.0332703491616675E8 ; 9.819626864267561E8 ; 3.636776733868654E10 ; 0.0
189 ; 4696842.867117766 ; 2.0333932266344064E8 ; 9.866674854736478E8 ; 3.657109437360271E10 ; 0.0
190 ; 4686010.088287778 ; 2.0335156186212885E8 ; 9.913643283407656E8 ; 3.677443369626614E10 ; 0.0
191 ; 4682695.550729658 ; 2.033637521675708E8 ; 9.960503384290534E8 ; 3.697778525812827E10 ; 0.0
192 ; 4673312.557765086 ; 2.03375893238249E8 ; 1.000733033979783E9 ; 3.7181149010295845E10 ; 0.0
193 ; 4669977.072054166 ; 2.0338798473574287E8 ; 1.0054063465375482E9 ; 3.7384524903534096E10 ; 0.0
194 ; 4660550.964627316 ; 2.034000263246838E8 ; 1.0100763236096023E9 ; 3.758791288826984E10 ; 0.0
195 ; 4657927.422385666 ; 2.0341201767271176E8 ; 1.0147368745742296E9 ; 3.779131291459452E10 ; 0.0
196 ; 4648957.068066161 ; 2.0342395845043316E8 ; 1.0193948019966153E9 ; 3.7994724932267235E10 ; 0.0
197 ; 4637395.683222847 ; 2.0343584833138013E8 ; 1.0240437590646814E9 ; 3.819814889071767E10 ; 0.0
198 ; 4635056.305100113 ; 2.0344768699197096E8 ; 1.0286811547479043E9 ; 3.840158473904905E10 ; 0.0
199 ; 4622899.855592106 ; 2.0345947411147177E8 ; 1.0333162110530044E9 ; 3.860503242604102E10 ; 0.0
200 ; 4616382.112997905 ; 1.893351927402054E8 ; 1.0379391109085965E9 ; 3.88084919001525E10 ; 0.0
201 ; 4612036.768557609 ; 1.5464289923943E8 ; 1.0425554930215944E9 ; 3.89978270928927E10 ; 0.0
