CSV File for the City 6 on Day 361
1 - Minute m 
2 - Power Consumed at minute m 
3 - Power Produced at minute m 
4 - Energy Consumed since the beginning of the day 
5 - Energy Produced since the beginning of the day 
6 - Energy Lost since the beginning of the day on lines starting from the city
 
0 ; 1.1144365127819002E7 ; 1.0585790846427038E8 ; 0.0 ; 0.0 ; 0.0
1 ; 1.115474331659966E7 ; 1.0600851518825334E8 ; 1.1144365127819002E7 ; 1.0585790846427038E8 ; 0.0
2 ; 1.1167525748837302E7 ; 1.0646813713781694E8 ; 2.229910844441866E7 ; 2.1186642365252373E8 ; 0.0
3 ; 1.1177169698812712E7 ; 1.0723678001827139E8 ; 3.346663419325596E7 ; 3.1833456079034066E8 ; 0.0
4 ; 1.1194027213730874E7 ; 1.0831444897994769E8 ; 4.464380389206867E7 ; 4.2557134080861205E8 ; 0.0
5 ; 1.1217867712779144E7 ; 1.097011485773232E8 ; 5.583783110579954E7 ; 5.3388578978855973E8 ; 0.0
6 ; 1.1244286387664009E7 ; 1.113968827318525E8 ; 6.705569881857868E7 ; 6.435869383658829E8 ; 0.0
7 ; 1.1280318411907824E7 ; 1.1340165469918764E8 ; 7.82999852062427E7 ; 7.549838210977354E8 ; 0.0
8 ; 1.1332284412852734E7 ; 1.1571546704141521E8 ; 8.958030361815052E7 ; 8.68385475796923E8 ; 0.0
9 ; 1.1413405962485237E7 ; 1.1833832160485637E8 ; 1.0091258803100325E8 ; 9.841009428383383E8 ; 0.0
10 ; 1.1536541234534008E7 ; 1.2127021950387543E8 ; 1.1232599399348849E8 ; 1.1024392644431946E9 ; 0.0
11 ; 1.173781607927629E7 ; 1.2451116111102924E8 ; 1.238625352280225E8 ; 1.2237094839470701E9 ; 0.0
12 ; 1.204980284169305E7 ; 1.2806114605376092E8 ; 1.3560035130729878E8 ; 1.3482206450580993E9 ; 0.0
13 ; 1.2358022139772069E7 ; 1.3192017321770614E8 ; 1.4765015414899182E8 ; 1.4762817911118603E9 ; 0.0
14 ; 1.2394306814563597E7 ; 1.3608824075654387E8 ; 1.6000817628876388E8 ; 1.6082019643295665E9 ; 0.0
15 ; 1.2402114829860503E7 ; 1.4056534610818738E8 ; 1.7240248310332748E8 ; 1.7442902050861104E9 ; 0.0
16 ; 1.2423255824017478E7 ; 1.4535148601698473E8 ; 1.84804597933188E8 ; 1.8848555511942978E9 ; 0.0
17 ; 1.2433138489007726E7 ; 1.5044665656148127E8 ; 1.9722785375720546E8 ; 2.0302070372112825E9 ; 0.0
18 ; 1.245012456324569E7 ; 1.5585085318719965E8 ; 2.096609922462132E8 ; 2.1806536937727637E9 ; 0.0
19 ; 1.2462637764332602E7 ; 1.615640707438089E8 ; 2.2211111680945888E8 ; 2.3365045469599633E9 ; 0.0
20 ; 1.2479883787650174E7 ; 1.6758630352599874E8 ; 2.3457375457379147E8 ; 2.498068617703772E9 ; 0.0
21 ; 1.2489616354002154E7 ; 1.7391754531733337E8 ; 2.4705363836144164E8 ; 2.6656549212297707E9 ; 0.0
22 ; 1.2505669539865328E7 ; 1.805577894363466E8 ; 2.595432547154438E8 ; 2.839572466547104E9 ; 0.0
23 ; 1.2520344803907577E7 ; 1.8750702878414208E8 ; 2.720489242553091E8 ; 3.0201302559834504E9 ; 0.0
24 ; 1.2534933036033198E7 ; 1.947652558927868E8 ; 2.845692690592167E8 ; 3.2076372847675924E9 ; 0.0
25 ; 1.2553624311295098E7 ; 2.0102050387200987E8 ; 2.971042020952499E8 ; 3.4024025406603794E9 ; 0.0
26 ; 1.256132502130918E7 ; 2.0102631249411508E8 ; 3.09657826406545E8 ; 3.603423044532389E9 ; 0.0
27 ; 1.2578640497948594E7 ; 2.0103244276584697E8 ; 3.222191514278542E8 ; 3.804449357026504E9 ; 0.0
28 ; 1.2591018819003198E7 ; 2.0103888622058597E8 ; 3.3479779192580277E8 ; 4.005481799792351E9 ; 0.0
29 ; 1.2604677864831747E7 ; 2.0104563425506487E8 ; 3.47388810744806E8 ; 4.2065206860129366E9 ; 0.0
30 ; 1.261667469994637E7 ; 2.0105267817055222E8 ; 3.5999348860963774E8 ; 4.407566320268002E9 ; 0.0
31 ; 1.2634934236170692E7 ; 2.0106000921148634E8 ; 3.726101633095841E8 ; 4.608618998438554E9 ; 0.0
32 ; 1.2645705990073131E7 ; 2.0106761860136843E8 ; 3.852450975457548E8 ; 4.80967900765004E9 ; 0.0
33 ; 1.2657953395113377E7 ; 2.0107549757579088E8 ; 3.9789080353582793E8 ; 5.010746626251408E9 ; 0.0
34 ; 1.2673079374787383E7 ; 2.0108363741253477E8 ; 4.105487569309413E8 ; 5.211822123827198E9 ; 0.0
35 ; 1.2682839691807576E7 ; 2.010920294587262E8 ; 4.232218363057287E8 ; 5.412905761239733E9 ; 0.0
36 ; 1.269518501629903E7 ; 2.0110066515508506E8 ; 4.3590467599753624E8 ; 5.613997790698459E9 ; 0.0
37 ; 1.2705896286479603E7 ; 2.0110953605734E8 ; 4.4859986101383525E8 ; 5.815098455853543E9 ; 0.0
38 ; 1.2717378546925763E7 ; 2.0111863385491413E8 ; 4.6130575730031484E8 ; 6.016207991910883E9 ; 0.0
39 ; 1.2724432929264482E7 ; 2.0112795038701135E8 ; 4.740231358472406E8 ; 6.217326625765797E9 ; 0.0
40 ; 1.2738162479360735E7 ; 2.011374776562516E8 ; 4.867475687765051E8 ; 6.418454576152808E9 ; 0.0
41 ; 1.2744467535213104E7 ; 2.011472078400161E8 ; 4.994857312558659E8 ; 6.61959205380906E9 ; 0.0
42 ; 1.275471169592833E7 ; 2.0115713329967242E8 ; 5.12230198791079E8 ; 6.820739261649076E9 ; 0.0
43 ; 1.2763299011593346E7 ; 2.0116724658785236E8 ; 5.249849104870073E8 ; 7.021896394948749E9 ; 0.0
44 ; 1.2766235067326777E7 ; 2.011775404539555E8 ; 5.377482094986007E8 ; 7.223063641536601E9 ; 0.0
45 ; 1.2774143744950306E7 ; 2.0118800784805006E8 ; 5.505144445659275E8 ; 7.424241181990557E9 ; 0.0
46 ; 1.2780958928840095E7 ; 2.0119864192333522E8 ; 5.632885883108778E8 ; 7.625429189838607E9 ; 0.0
47 ; 1.2788461232317515E7 ; 2.0120943603732446E8 ; 5.760695472397178E8 ; 7.826627831761942E9 ; 0.0
48 ; 1.2792364654695716E7 ; 2.0122038375189927E8 ; 5.888580084720354E8 ; 8.027837267799267E9 ; 0.0
49 ; 1.2800250623901378E7 ; 2.012314788323748E8 ; 6.016503731267312E8 ; 8.229057651551167E9 ; 0.0
50 ; 1.2802483326070657E7 ; 2.012427152457081E8 ; 6.144506237506325E8 ; 8.430289130383541E9 ; 0.0
51 ; 1.2805597842448529E7 ; 2.0125408715797013E8 ; 6.272531070767032E8 ; 8.63153184562925E9 ; 0.0
52 ; 1.2810472582776707E7 ; 2.012655889311927E8 ; 6.400587049191517E8 ; 8.83278593278722E9 ; 0.0
53 ; 1.2813086825718144E7 ; 2.0127721511969084E8 ; 6.528691775019283E8 ; 9.034051521718412E9 ; 0.0
54 ; 1.2819443622989189E7 ; 2.0128896046595237E8 ; 6.656822643276465E8 ; 9.235328736838102E9 ; 0.0
55 ; 1.2823849504299797E7 ; 2.0130081989617616E8 ; 6.785017079506357E8 ; 9.436617697304054E9 ; 0.0
56 ; 1.2822433734288426E7 ; 2.013127885155328E8 ; 6.913255574549354E8 ; 9.63791851720023E9 ; 0.0
57 ; 1.2828756161554022E7 ; 2.0132486160321236E8 ; 7.041479911892239E8 ; 9.839231305715763E9 ; 0.0
58 ; 1.2830861703440273E7 ; 2.013370346073169E8 ; 7.169767473507779E8 ; 1.0040556167318975E10 ; 0.0
59 ; 1.2833092962729892E7 ; 2.0134930313964802E8 ; 7.298076090542182E8 ; 1.0241893201926292E10 ; 0.0
60 ; 1.2835607264709884E7 ; 2.0136166297043273E8 ; 7.426407020169481E8 ; 1.044324250506594E10 ; 0.0
61 ; 1.2839069439701831E7 ; 2.0137411002302697E8 ; 7.554763092816579E8 ; 1.0644604168036373E10 ; 0.0
62 ; 1.2841230197866574E7 ; 2.0138664036862773E8 ; 7.683153787213597E8 ; 1.08459782780594E10 ; 0.0
63 ; 1.2848030164018214E7 ; 2.0139925022102302E8 ; 7.811566089192263E8 ; 1.1047364918428028E10 ; 0.0
64 ; 1.2849033606570493E7 ; 2.0141193593140224E8 ; 7.940046390832446E8 ; 1.1248764168649052E10 ; 0.0
65 ; 1.2849636926835636E7 ; 2.0142469398324716E8 ; 8.06853672689815E8 ; 1.1450176104580454E10 ; 0.0
66 ; 1.2850523668026865E7 ; 2.0143752098731947E8 ; 8.197033096166507E8 ; 1.1651600798563702E10 ; 0.0
67 ; 1.2855675989975732E7 ; 2.0145041367675835E8 ; 8.325538332846775E8 ; 1.1853038319551022E10 ; 0.0
68 ; 1.2856660217000842E7 ; 2.0146336890229833E8 ; 8.454095092746532E8 ; 1.205448873322778E10 ; 0.0
69 ; 1.28554238338526E7 ; 2.0147638362761584E8 ; 8.58266169491654E8 ; 1.2255952102130077E10 ; 0.0
70 ; 1.2855345345633337E7 ; 2.0148945492481068E8 ; 8.711215933255067E8 ; 1.2457428485757692E10 ; 0.0
71 ; 1.285732763927273E7 ; 2.0150257997002685E8 ; 8.839769386711401E8 ; 1.2658917940682503E10 ; 0.0
72 ; 1.2857967751647757E7 ; 2.0151575603921548E8 ; 8.968342663104128E8 ; 1.2860420520652529E10 ; 0.0
73 ; 1.2860289483070863E7 ; 2.015289805040416E8 ; 9.096922340620605E8 ; 1.3061936276691744E10 ; 0.0
74 ; 1.2864006707380656E7 ; 2.0154225082793543E8 ; 9.225525235451313E8 ; 1.3263465257195786E10 ; 0.0
75 ; 1.2862382900173549E7 ; 2.0155556456228718E8 ; 9.35416530252512E8 ; 1.3465007508023722E10 ; 0.0
76 ; 1.2863731147147514E7 ; 2.0156891934278494E8 ; 9.482789131526855E8 ; 1.3666563072586008E10 ; 0.0
77 ; 1.2866812206367698E7 ; 2.0158231288589293E8 ; 9.61142644299833E8 ; 1.3868131991928793E10 ; 0.0
78 ; 1.2864600858752646E7 ; 2.0159574298546842E8 ; 9.740094565062008E8 ; 1.4069714304814686E10 ; 0.0
79 ; 1.2858279720044719E7 ; 2.016092075095138E8 ; 9.868740573649534E8 ; 1.4271310047800154E10 ; 0.0
80 ; 1.2853965955343613E7 ; 2.016227043970609E8 ; 9.997323370849981E8 ; 1.4472919255309668E10 ; 0.0
81 ; 1.2852986784619207E7 ; 2.016362316551843E8 ; 1.0125863030403417E9 ; 1.4674541959706728E10 ; 0.0
82 ; 1.2849344171783844E7 ; 2.0164978735613912E8 ; 1.025439289824961E9 ; 1.4876178191361912E10 ; 0.0
83 ; 1.2842859575913776E7 ; 2.016633696346204E8 ; 1.0382886339967448E9 ; 1.507782797871805E10 ; 0.0
84 ; 1.284212281948225E7 ; 2.0167697668513927E8 ; 1.0511314935726585E9 ; 1.527949134835267E10 ; 0.0
85 ; 1.2837673540851038E7 ; 2.016906067595124E8 ; 1.0639736163921407E9 ; 1.548116832503781E10 ; 0.0
86 ; 1.2835845488657687E7 ; 2.0170425816446048E8 ; 1.0768112899329917E9 ; 1.5682858931797321E10 ; 0.0
87 ; 1.2829417907469496E7 ; 2.0171792925931168E8 ; 1.0896471354216495E9 ; 1.5884563189961782E10 ; 0.0
88 ; 1.2825743434143024E7 ; 2.0173161845380595E8 ; 1.102476553329119E9 ; 1.6086281119221094E10 ; 0.0
89 ; 1.2820647661102144E7 ; 2.017453242059965E8 ; 1.115302296763262E9 ; 1.62880127376749E10 ; 0.0
90 ; 1.2819496487518605E7 ; 2.0175904502024427E8 ; 1.128122944424364E9 ; 1.6489758061880898E10 ; 0.0
91 ; 1.2810538284313703E7 ; 2.0177277944530153E8 ; 1.1409424409118826E9 ; 1.6691517106901142E10 ; 0.0
92 ; 1.28072626881208E7 ; 2.0178652607248133E8 ; 1.1537529791961963E9 ; 1.6893289886346443E10 ; 0.0
93 ; 1.2803932929158935E7 ; 2.018002835339083E8 ; 1.1665602418843172E9 ; 1.7095076412418924E10 ; 0.0
94 ; 1.2798605488899266E7 ; 2.0181405050084835E8 ; 1.179364174813476E9 ; 1.729687669595283E10 ; 0.0
95 ; 1.2790797050560381E7 ; 2.0182782568211287E8 ; 1.1921627803023753E9 ; 1.749869074645368E10 ; 0.0
96 ; 1.278837595192508E7 ; 2.0184160782253474E8 ; 1.2049535773529358E9 ; 1.770051857213579E10 ; 0.0
97 ; 1.2782760834946522E7 ; 2.0185539570151263E8 ; 1.2177419533048608E9 ; 1.790236017995833E10 ; 0.0
98 ; 1.2779744076389672E7 ; 2.018691881316209E8 ; 1.2305247141398075E9 ; 1.810421557565984E10 ; 0.0
99 ; 1.2771654912030635E7 ; 2.0188298395728165E8 ; 1.2433044582161973E9 ; 1.8306084763791462E10 ; 0.0
100 ; 1.2765915643781394E7 ; 2.0189678205349633E8 ; 1.256076113128228E9 ; 1.8507967747748745E10 ; 0.0
101 ; 1.2762809944950765E7 ; 2.0191058132463437E8 ; 1.2688420287720094E9 ; 1.8709864529802242E10 ; 0.0
102 ; 1.2757045400524735E7 ; 2.0192438070327583E8 ; 1.2816048387169602E9 ; 1.8911775111126877E10 ; 0.0
103 ; 1.2746137313392907E7 ; 2.019381791491059E8 ; 1.294361884117485E9 ; 1.9113699491830154E10 ; 0.0
104 ; 1.2742333282480808E7 ; 2.0195197564785862E8 ; 1.307108021430878E9 ; 1.931563767097926E10 ; 0.0
105 ; 1.2737860503411584E7 ; 2.0196576921030766E8 ; 1.3198503547133586E9 ; 1.9517589646627117E10 ; 0.0
106 ; 1.2732421797778547E7 ; 2.0197955887130204E8 ; 1.3325882152167702E9 ; 1.9719555415837425E10 ; 0.0
107 ; 1.2722883203481266E7 ; 2.019933436888445E8 ; 1.3453206370145488E9 ; 1.992153497470873E10 ; 0.0
108 ; 1.2714800790697003E7 ; 2.020071227432105E8 ; 1.35804352021803E9 ; 2.012352831839757E10 ; 0.0
109 ; 1.2710752908034561E7 ; 2.0202089513610646E8 ; 1.370758321008727E9 ; 2.032553544114078E10 ; 0.0
110 ; 1.2702650096441424E7 ; 2.0203465998986465E8 ; 1.3834690739167616E9 ; 2.0527556336276886E10 ; 0.0
111 ; 1.2698146912307E7 ; 2.020484164466735E8 ; 1.3961717240132031E9 ; 2.072959099626675E10 ; 0.0
112 ; 1.2689485128800731E7 ; 2.0206216366784188E8 ; 1.4088698709255102E9 ; 2.0931639412713425E10 ; 0.0
113 ; 1.2682639522684174E7 ; 2.0207590083309484E8 ; 1.4215593560543108E9 ; 2.1133701576381268E10 ; 0.0
114 ; 1.267801412491204E7 ; 2.0208962713990048E8 ; 1.434241995576995E9 ; 2.1335777477214363E10 ; 0.0
115 ; 1.2668843634406554E7 ; 2.021033418028259E8 ; 1.446920009701907E9 ; 2.1537867104354263E10 ; 0.0
116 ; 1.2660705563635228E7 ; 2.0211704405292067E8 ; 1.4595888533363135E9 ; 2.173997044615709E10 ; 0.0
117 ; 1.2648001274917321E7 ; 2.0213073313712716E8 ; 1.4722495588999486E9 ; 2.194208749021001E10 ; 0.0
118 ; 1.2646332491559697E7 ; 2.021444083177159E8 ; 1.484897560174866E9 ; 2.2144218223347137E10 ; 0.0
119 ; 1.2635507456496641E7 ; 2.0215806887174523E8 ; 1.4975438926664257E9 ; 2.2346362631664852E10 ; 0.0
120 ; 1.2627943005919356E7 ; 2.021717140905438E8 ; 1.5101794001229224E9 ; 2.25485207005366E10 ; 0.0
121 ; 1.2621036624487143E7 ; 2.021853432792152E8 ; 1.5228073431288419E9 ; 2.2750692414627144E10 ; 0.0
122 ; 1.2613827661375837E7 ; 2.0219895575616324E8 ; 1.535428379753329E9 ; 2.295287775790636E10 ; 0.0
123 ; 1.2603470951815551E7 ; 2.022125508526376E8 ; 1.5480422074147048E9 ; 2.3155076713662525E10 ; 0.0
124 ; 1.2594025887153797E7 ; 2.0222612791229802E8 ; 1.5606456783665204E9 ; 2.3357289264515163E10 ; 0.0
125 ; 1.258607677909973E7 ; 2.0223968629079717E8 ; 1.5732397042536743E9 ; 2.355951539242746E10 ; 0.0
126 ; 1.257775172079675E7 ; 2.0225322535538056E8 ; 1.585825781032774E9 ; 2.3761755078718258E10 ; 0.0
127 ; 1.2568900113242818E7 ; 2.0226674448450318E8 ; 1.5984035327535708E9 ; 2.396400830407364E10 ; 0.0
128 ; 1.2558202986804081E7 ; 2.022802430674618E8 ; 1.6109724328668137E9 ; 2.4166275048558144E10 ; 0.0
129 ; 1.2548577487572445E7 ; 2.0229372050404257E8 ; 1.6235306358536177E9 ; 2.4368555291625607E10 ; 0.0
130 ; 1.2544270849345911E7 ; 2.0230717620418295E8 ; 1.63607921334119E9 ; 2.457084901212965E10 ; 0.0
131 ; 1.2525109371690271E7 ; 2.023206095876474E8 ; 1.648623484190536E9 ; 2.477315618833383E10 ; 0.0
132 ; 1.2514751759225274E7 ; 2.0233402008371624E8 ; 1.6611485935622263E9 ; 2.497547679792148E10 ; 0.0
133 ; 1.2500804345079973E7 ; 2.023474071308872E8 ; 1.6736633453214517E9 ; 2.5177810818005196E10 ; 0.0
134 ; 1.2488507548335364E7 ; 2.0236077017658877E8 ; 1.6861641496665316E9 ; 2.538015822513608E10 ; 0.0
135 ; 1.2476090362836685E7 ; 2.023741086769053E8 ; 1.6986526572148669E9 ; 2.558251899531267E10 ; 0.0
136 ; 1.2462563316418856E7 ; 2.0238742209631294E8 ; 1.7111287475777035E9 ; 2.578489310398958E10 ; 0.0
137 ; 1.2445394166184291E7 ; 2.02400709907426E8 ; 1.7235913108941224E9 ; 2.598728052608589E10 ; 0.0
138 ; 1.2431860120436247E7 ; 2.0241397159075367E8 ; 1.7360367050603065E9 ; 2.6189681235993317E10 ; 0.0
139 ; 1.2416434677892413E7 ; 2.024272066344659E8 ; 1.7484685651807427E9 ; 2.6392095207584072E10 ; 0.0
140 ; 1.2402816746228194E7 ; 2.0244041453416893E8 ; 1.7608849998586352E9 ; 2.6594522414218536E10 ; 0.0
141 ; 1.2390316755651603E7 ; 2.024535947926892E8 ; 1.7732878166048634E9 ; 2.6796962828752705E10 ; 0.0
142 ; 1.2378447739031766E7 ; 2.0246674691986606E8 ; 1.785678133360515E9 ; 2.6999416423545395E10 ; 0.0
143 ; 1.2363154064734405E7 ; 2.0247987043235222E8 ; 1.798056581099547E9 ; 2.720188317046526E10 ; 0.0
144 ; 1.2346396865540663E7 ; 2.0249296485342205E8 ; 1.8104197351642814E9 ; 2.7404363040897614E10 ; 0.0
145 ; 1.2340184705786206E7 ; 2.0250602971278733E8 ; 1.822766132029822E9 ; 2.7606856005751034E10 ; 0.0
146 ; 1.2324584264512869E7 ; 2.0251906454641995E8 ; 1.8351063167356083E9 ; 2.780936203546382E10 ; 0.0
147 ; 1.2317266039558336E7 ; 2.025320688963814E8 ; 1.847430901000121E9 ; 2.8011881100010242E10 ; 0.0
148 ; 1.2308406336656518E7 ; 2.0254504231065887E8 ; 1.8597481670396795E9 ; 2.8214413168906624E10 ; 0.0
149 ; 1.2298803239000391E7 ; 2.0255798434300736E8 ; 1.872056573376336E9 ; 2.841695821121728E10 ; 0.0
150 ; 1.2288765862740604E7 ; 2.0257089455279794E8 ; 1.8843553766153364E9 ; 2.8619516195560287E10 ; 0.0
151 ; 1.2276256704795832E7 ; 2.0258377250487167E8 ; 1.896644142478077E9 ; 2.8822087090113087E10 ; 0.0
152 ; 1.2267118777683062E7 ; 2.0259661776939893E8 ; 1.9089203991828728E9 ; 2.9024670862617958E10 ; 0.0
153 ; 1.2258065327032851E7 ; 2.0260942992174405E8 ; 1.9211875179605558E9 ; 2.9227267480387356E10 ; 0.0
154 ; 1.2247390640003359E7 ; 2.0262220854233494E8 ; 1.9334455832875886E9 ; 2.94298769103091E10 ; 0.0
155 ; 1.2237692620838668E7 ; 2.026349532165377E8 ; 1.945692973927592E9 ; 2.9632499118851437E10 ; 0.0
156 ; 1.2224335890885483E7 ; 2.026476635345356E8 ; 1.9579306665484307E9 ; 2.9835134072067974E10 ; 0.0
157 ; 1.222007959219318E7 ; 2.0266033909121272E8 ; 1.9701550024393163E9 ; 3.003778173560251E10 ; 0.0
158 ; 1.2204764238370858E7 ; 2.026729794860418E8 ; 1.9823750820315094E9 ; 3.024044207469372E10 ; 0.0
159 ; 1.2194732834905049E7 ; 2.0268558432297623E8 ; 1.9945798462698803E9 ; 3.0443115054179764E10 ; 0.0
160 ; 1.2185771838669004E7 ; 2.026981532103457E8 ; 2.0067745791047854E9 ; 3.064580063850274E10 ; 0.0
161 ; 1.2171309083647959E7 ; 2.027106857607561E8 ; 2.0189603509434545E9 ; 3.0848498791713085E10 ; 0.0
162 ; 1.2162603351922981E7 ; 2.0272318159099275E8 ; 2.0311316600271025E9 ; 3.1051209477473843E10 ; 0.0
163 ; 1.2153245172736103E7 ; 2.0273564032192692E8 ; 2.0432942633790255E9 ; 3.1253932659064835E10 ; 0.0
164 ; 1.2144170284522088E7 ; 2.0274806157842624E8 ; 2.0554475085517616E9 ; 3.145666829938676E10 ; 0.0
165 ; 1.213111468384161E7 ; 2.027604449892679E8 ; 2.0675916788362837E9 ; 3.1659416360965187E10 ; 0.0
166 ; 1.2119355456105407E7 ; 2.027727901870549E8 ; 2.0797227935201254E9 ; 3.1862176805954456E10 ; 0.0
167 ; 1.2110398574537376E7 ; 2.0278509680813578E8 ; 2.0918421489762309E9 ; 3.206494959614151E10 ; 0.0
168 ; 1.2100578715654729E7 ; 2.027973644925265E8 ; 2.1039525475507681E9 ; 3.2267734692949646E10 ; 0.0
169 ; 1.2087356515919453E7 ; 2.028095928838356E8 ; 2.1160531262664227E9 ; 3.2470532057442173E10 ; 0.0
170 ; 1.2077826748905087E7 ; 2.0282178162919188E8 ; 2.1281404827823422E9 ; 3.2673341650326008E10 ; 0.0
171 ; 1.206465725119277E7 ; 2.0283393037917438E8 ; 2.1402183095312474E9 ; 3.28761634319552E10 ; 0.0
172 ; 1.2054041640089465E7 ; 2.0284603878774515E8 ; 2.15228296678244E9 ; 3.3078997362334373E10 ; 0.0
173 ; 1.2042611104200326E7 ; 2.0285810651218414E8 ; 2.1643370084225297E9 ; 3.328184340112212E10 ; 0.0
174 ; 1.2034867819691263E7 ; 2.028701332130264E8 ; 2.17637961952673E9 ; 3.3484701507634304E10 ; 0.0
175 ; 1.203271941836571E7 ; 2.0288211855400157E8 ; 2.1884144873464212E9 ; 3.3687571640847332E10 ; 0.0
176 ; 1.2023458523225117E7 ; 2.0289406220197526E8 ; 2.2004472067647867E9 ; 3.3890453759401333E10 ; 0.0
177 ; 1.2015994037003867E7 ; 2.0290596382689258E8 ; 2.212470665288012E9 ; 3.409334782160331E10 ; 0.0
178 ; 1.2013699963051053E7 ; 2.0291782310172376E8 ; 2.224486659325016E9 ; 3.4296253785430202E10 ; 0.0
179 ; 1.2006289469731983E7 ; 2.029296397024112E8 ; 2.236500359288067E9 ; 3.449917160853193E10 ; 0.0
180 ; 1.1996644941478191E7 ; 2.0294141330781883E8 ; 2.2485066487577987E9 ; 3.470210124823434E10 ; 0.0
181 ; 1.198502273570965E7 ; 2.029531435996829E8 ; 2.260503293699277E9 ; 3.490504266154215E10 ; 0.0
182 ; 1.1980509921417518E7 ; 2.0296483026256448E8 ; 2.2724883164349866E9 ; 3.510799580514184E10 ; 0.0
183 ; 1.1980473683822902E7 ; 2.0297647298380363E8 ; 2.2844688263564043E9 ; 3.53109606354044E10 ; 0.0
184 ; 1.1969070870512396E7 ; 2.029880714534752E8 ; 2.2964493000402274E9 ; 3.551393710838821E10 ; 0.0
185 ; 1.1963954064115994E7 ; 2.0299962536434588E8 ; 2.30841837091074E9 ; 3.571692517984168E10 ; 0.0
186 ; 1.1956318562068274E7 ; 2.0301113441183293E8 ; 2.320382324974856E9 ; 3.591992480520603E10 ; 0.0
187 ; 1.1948660117612453E7 ; 2.0302259829396424E8 ; 2.3323386435369244E9 ; 3.612293593961787E10 ; 0.0
188 ; 1.194506518596752E7 ; 2.0303401671133968E8 ; 2.3442873036545367E9 ; 3.632595853791183E10 ; 0.0
189 ; 1.1935922603825532E7 ; 2.0304538936709377E8 ; 2.356232368840504E9 ; 3.652899255462317E10 ; 0.0
190 ; 1.192791620992509E7 ; 2.030567159668596E8 ; 2.3681682914443297E9 ; 3.6732037943990265E10 ; 0.0
191 ; 1.1921798057986699E7 ; 2.0306799621873403E8 ; 2.380096207654255E9 ; 3.693509465995712E10 ; 0.0
192 ; 1.1917972534630822E7 ; 2.0307922983324388E8 ; 2.3920180057122416E9 ; 3.713816265617586E10 ; 0.0
193 ; 1.190680437681935E7 ; 2.0309041652331337E8 ; 2.4039359782468724E9 ; 3.73412418860091E10 ; 0.0
194 ; 1.1901268105878713E7 ; 2.0310155600423276E8 ; 2.4158427826236916E9 ; 3.754433230253242E10 ; 0.0
195 ; 1.1895434217848565E7 ; 2.0311264799362767E8 ; 2.4277440507295704E9 ; 3.774743385853665E10 ; 0.0
