CSV File for the City 6 on Day 325
1 - Minute m 
2 - Power Consumed at minute m 
3 - Power Produced at minute m 
4 - Energy Consumed since the beginning of the day 
5 - Energy Produced since the beginning of the day 
6 - Energy Lost since the beginning of the day on lines starting from the city
 
0 ; 1.1245056768721111E7 ; 1.0664773055517188E8 ; 0.0 ; 0.0 ; 0.0
1 ; 1.1258209966895407E7 ; 1.0679845696457845E8 ; 1.1245056768721111E7 ; 1.0664773055517188E8 ; 0.0
2 ; 1.1270267214483768E7 ; 1.0725819558587226E8 ; 2.250326673561652E7 ; 2.1344618751975033E8 ; 0.0
3 ; 1.1280702400171889E7 ; 1.080269490905239E8 ; 3.377353395010029E7 ; 3.207043831056226E8 ; 0.0
4 ; 1.130609227688355E7 ; 1.0910471986005932E8 ; 4.505423635027218E7 ; 4.287313321961465E8 ; 0.0
5 ; 1.1322616874796396E7 ; 1.1049150997718549E8 ; 5.636032862715573E7 ; 5.378360520562057E8 ; 0.0
6 ; 1.13488913096782E7 ; 1.1218732121793208E8 ; 6.768294550195213E7 ; 6.483275620333912E8 ; 0.0
7 ; 1.1386880371144341E7 ; 1.1419215504487729E8 ; 7.903183681163032E7 ; 7.605148832513233E8 ; 0.0
8 ; 1.1442731506061908E7 ; 1.1650601260151935E8 ; 9.041871718277466E7 ; 8.747070382962006E8 ; 0.0
9 ; 1.1522131428923575E7 ; 1.1912889470784402E8 ; 1.0186144868883657E8 ; 9.9121305089772E8 ; 0.0
10 ; 1.164880392681991E7 ; 1.2206080185712957E8 ; 1.1338358011776015E8 ; 1.110341945605564E9 ; 0.0
11 ; 1.1841430963682275E7 ; 1.2530173421401688E8 ; 1.2503238404458006E8 ; 1.2324027474626937E9 ; 0.0
12 ; 1.2161722784732074E7 ; 1.2885169161386505E8 ; 1.3687381500826234E8 ; 1.3577044816767106E9 ; 0.0
13 ; 1.2465141879956838E7 ; 1.327106735633958E8 ; 1.490355377929944E8 ; 1.4865561732905757E9 ; 0.0
14 ; 1.2503790699568715E7 ; 1.3687867924262345E8 ; 1.6150067967295125E8 ; 1.6192668468539715E9 ; 0.0
15 ; 1.2519851622404376E7 ; 1.4135570750804967E8 ; 1.7400447037251997E8 ; 1.7561455260965948E9 ; 0.0
16 ; 1.2531645660597134E7 ; 1.4614175689709637E8 ; 1.8652432199492434E8 ; 1.8975012336046445E9 ; 0.0
17 ; 1.2551555946865538E7 ; 1.5123682563373378E8 ; 1.9905596765552148E8 ; 2.043642990501741E9 ; 0.0
18 ; 1.255978630042107E7 ; 1.5664091163525498E8 ; 2.11607523602387E8 ; 2.1948798161354747E9 ; 0.0
19 ; 1.257661819346114E7 ; 1.62354012520134E8 ; 2.2416730990280807E8 ; 2.3515207277707295E9 ; 0.0
20 ; 1.2596109788216045E7 ; 1.6837612561690024E8 ; 2.3674392809626922E8 ; 2.5138747402908635E9 ; 0.0
21 ; 1.2609368755926533E7 ; 1.7470724797395143E8 ; 2.4934003788448527E8 ; 2.682250865907764E9 ; 0.0
22 ; 1.2625316122614756E7 ; 1.813473763702219E8 ; 2.619494066404118E8 ; 2.8569581138817153E9 ; 0.0
23 ; 1.2635625549691789E7 ; 1.882965073266186E8 ; 2.7457472276302654E8 ; 3.0383054902519374E9 ; 0.0
24 ; 1.2653998571632637E7 ; 1.9555463711813158E8 ; 2.8721034831271833E8 ; 3.226601997578556E9 ; 0.0
25 ; 1.2667261362144103E7 ; 2.0180980268470895E8 ; 2.9986434688435096E8 ; 3.4221566346966877E9 ; 0.0
26 ; 1.2684431521918906E7 ; 2.0181554768132746E8 ; 3.1253160824649507E8 ; 3.623966437381397E9 ; 0.0
27 ; 1.2694989444393111E7 ; 2.0182163701645878E8 ; 3.2521603976841396E8 ; 3.825781985062724E9 ; 0.0
28 ; 1.271128877480128E7 ; 2.0182806611269704E8 ; 3.3791102921280706E8 ; 4.027603622079183E9 ; 0.0
29 ; 1.2725760930765232E7 ; 2.0183483021405855E8 ; 3.506223179876083E8 ; 4.22943168819188E9 ; 0.0
30 ; 1.2743405051803915E7 ; 2.018419244001453E8 ; 3.633480789183735E8 ; 4.431266518405939E9 ; 0.0
31 ; 1.275519097865262E7 ; 2.018493436003309E8 ; 3.760914839701774E8 ; 4.633108442806085E9 ; 0.0
32 ; 1.2769636488149518E7 ; 2.0185708260788777E8 ; 3.8884667494883E8 ; 4.834957786406416E9 ; 0.0
33 ; 1.2781963432261938E7 ; 2.0186513609397888E8 ; 4.0161631143697953E8 ; 5.036814869014304E9 ; 0.0
34 ; 1.279447799251377E7 ; 2.0187349862144303E8 ; 4.143982748692415E8 ; 5.238680005108283E9 ; 0.0
35 ; 1.2806810727497231E7 ; 2.0188216465830997E8 ; 4.2719275286175525E8 ; 5.440553503729726E9 ; 0.0
36 ; 1.2819820370869137E7 ; 2.018911285909864E8 ; 4.399995635892525E8 ; 5.642435668388036E9 ; 0.0
37 ; 1.2831620278959805E7 ; 2.019003847370616E8 ; 4.5281938396012163E8 ; 5.844326796979022E9 ; 0.0
38 ; 1.2841678228989381E7 ; 2.0190992735768756E8 ; 4.6565100423908144E8 ; 6.046227181716084E9 ; 0.0
39 ; 1.2853319786130115E7 ; 2.019197506694952E8 ; 4.784926824680708E8 ; 6.248137109073771E9 ; 0.0
40 ; 1.2865017646643905E7 ; 2.0192984885601377E8 ; 4.9134600225420094E8 ; 6.450056859743267E9 ; 0.0
41 ; 1.2875167526135886E7 ; 2.0194021607856855E8 ; 5.042110199008448E8 ; 6.651986708599281E9 ; 0.0
42 ; 1.2885508023239454E7 ; 2.0195084648663536E8 ; 5.170861874269807E8 ; 6.85392692467785E9 ; 0.0
43 ; 1.2892459475180734E7 ; 2.0196173422763845E8 ; 5.299716954502201E8 ; 7.055877771164485E9 ; 0.0
44 ; 1.2905095009425139E7 ; 2.0197287345618135E8 ; 5.428641549254009E8 ; 7.257839505392123E9 ; 0.0
45 ; 1.2908457949603977E7 ; 2.0198425834270665E8 ; 5.55769249934826E8 ; 7.459812378848305E9 ; 0.0
46 ; 1.2918874034067942E7 ; 2.0199588308158422E8 ; 5.6867770788443E8 ; 7.661796637191011E9 ; 0.0
47 ; 1.2922813740568602E7 ; 2.0200774189863163E8 ; 5.81596581918498E8 ; 7.863792520272595E9 ; 0.0
48 ; 1.2933757191864366E7 ; 2.0201982905807412E8 ; 5.945193956590667E8 ; 8.065800262171227E9 ; 0.0
49 ; 1.2934581519568933E7 ; 2.0203213886895415E8 ; 6.07453152850931E8 ; 8.267820091229301E9 ; 0.0
50 ; 1.2944171559391541E7 ; 2.0204466569100416E8 ; 6.203877343705E8 ; 8.469852230098255E9 ; 0.0
51 ; 1.2946978018855942E7 ; 2.0205740393999743E8 ; 6.333319059298915E8 ; 8.671896895789259E9 ; 0.0
52 ; 1.2954727466587171E7 ; 2.020703480925948E8 ; 6.462788839487474E8 ; 8.873954299729256E9 ; 0.0
53 ; 1.2956341521361008E7 ; 2.0208349269070596E8 ; 6.592336114153346E8 ; 9.07602464782185E9 ; 0.0
54 ; 1.2961781301061373E7 ; 2.0209683234538552E8 ; 6.721899529366956E8 ; 9.278108140512556E9 ; 0.0
55 ; 1.2963705712454816E7 ; 2.0211036174028522E8 ; 6.85151734237757E8 ; 9.48020497285794E9 ; 0.0
56 ; 1.2970919828521788E7 ; 2.021240756346838E8 ; 6.981154399502118E8 ; 9.682315334598227E9 ; 0.0
57 ; 1.29714827548173E7 ; 2.0213796886611718E8 ; 7.110863597787335E8 ; 9.88443941023291E9 ; 0.0
58 ; 1.2977617780081041E7 ; 2.02152036352631E8 ; 7.240578425335507E8 ; 1.0086577379099028E10 ; 0.0
59 ; 1.2982806665823035E7 ; 2.0216627309467834E8 ; 7.370354603136318E8 ; 1.0288729415451658E10 ; 0.0
60 ; 1.2984333878248183E7 ; 2.0218067417668474E8 ; 7.500182669794548E8 ; 1.0490895688546337E10 ; 0.0
61 ; 1.2989039474598726E7 ; 2.0219523476830232E8 ; 7.63002600857703E8 ; 1.0693076362723022E10 ; 0.0
62 ; 1.2990381356296262E7 ; 2.0220995012537515E8 ; 7.759916403323017E8 ; 1.0895271597491325E10 ; 0.0
63 ; 1.2997742783670504E7 ; 2.0222481559063587E8 ; 7.88982021688598E8 ; 1.1097481547616701E10 ; 0.0
64 ; 1.3002141178884786E7 ; 2.022398265941546E8 ; 8.019797644722686E8 ; 1.1299706363207336E10 ; 0.0
65 ; 1.300607847438553E7 ; 2.0225497865355963E8 ; 8.149819056511533E8 ; 1.150194618980149E10 ; 0.0
66 ; 1.3003478985318016E7 ; 2.0227026737404832E8 ; 8.279879841255388E8 ; 1.170420116845505E10 ; 0.0
67 ; 1.3009528861467797E7 ; 2.0228568844820637E8 ; 8.409914631108569E8 ; 1.1906471435829098E10 ; 0.0
68 ; 1.301173971169408E7 ; 2.023012376556529E8 ; 8.540009919723247E8 ; 1.2108757124277304E10 ; 0.0
69 ; 1.3014059120597295E7 ; 2.023169108625271E8 ; 8.670127316840189E8 ; 1.2311058361932957E10 ; 0.0
70 ; 1.3017263340841064E7 ; 2.0233270402083212E8 ; 8.800267908046161E8 ; 1.2513375272795485E10 ; 0.0
71 ; 1.3022382568974666E7 ; 2.0234861316765076E8 ; 8.930440541454571E8 ; 1.2715707976816317E10 ; 0.0
72 ; 1.3023535271870969E7 ; 2.023646344242463E8 ; 9.060664367144318E8 ; 1.2918056589983967E10 ; 0.0
73 ; 1.3024947402112273E7 ; 2.023807639950618E8 ; 9.190899719863027E8 ; 1.3120421224408213E10 ; 0.0
74 ; 1.3030915237927178E7 ; 2.023969981666291E8 ; 9.32114919388415E8 ; 1.3322801988403275E10 ; 0.0
75 ; 1.302897673627278E7 ; 2.0241333330639943E8 ; 9.451458346263422E8 ; 1.3525198986569904E10 ; 0.0
76 ; 1.3034537441135839E7 ; 2.0242976586150545E8 ; 9.58174811362615E8 ; 1.3727612319876305E10 ; 0.0
77 ; 1.3037657448826496E7 ; 2.0244629235746455E8 ; 9.712093488037509E8 ; 1.393004208573781E10 ; 0.0
78 ; 1.3031799988097878E7 ; 2.0246290939683235E8 ; 9.842470062525774E8 ; 1.4132488378095274E10 ; 0.0
79 ; 1.302985125356377E7 ; 2.0247961365781447E8 ; 9.972788062406753E8 ; 1.4334951287492105E10 ; 0.0
80 ; 1.3031641637202857E7 ; 2.0249640189284423E8 ; 1.0103086574942391E9 ; 1.453743090114992E10 ; 0.0
81 ; 1.302637673771517E7 ; 2.0251327092713308E8 ; 1.023340299131442E9 ; 1.4739927303042765E10 ; 0.0
82 ; 1.302365278615616E7 ; 2.0253021765720022E8 ; 1.0363666758691571E9 ; 1.4942440573969898E10 ; 0.0
83 ; 1.3020046995648071E7 ; 2.0254723904938716E8 ; 1.0493903286553133E9 ; 1.5144970791627098E10 ; 0.0
84 ; 1.3017902286923159E7 ; 2.0256433213836235E8 ; 1.0624103756509613E9 ; 1.5347518030676485E10 ; 0.0
85 ; 1.3015869504549997E7 ; 2.0258149402562082E8 ; 1.0754282779378843E9 ; 1.5550082362814848E10 ; 0.0
86 ; 1.3011500097350944E7 ; 2.0259872187798315E8 ; 1.0884441474424343E9 ; 1.575266385684047E10 ; 0.0
87 ; 1.3009147939094359E7 ; 2.0261601292609733E8 ; 1.1014556475397851E9 ; 1.5955262578718452E10 ; 0.0
88 ; 1.3009094621693343E7 ; 2.0263336446294758E8 ; 1.1144647954788795E9 ; 1.615787859164455E10 ; 0.0
89 ; 1.3003905340679582E7 ; 2.0265077384237254E8 ; 1.1274738901005728E9 ; 1.6360511956107498E10 ; 0.0
90 ; 1.300250529776202E7 ; 2.0266823847759625E8 ; 1.1404777954412525E9 ; 1.6563162729949871E10 ; 0.0
91 ; 1.3001677049881235E7 ; 2.0268575583977395E8 ; 1.1534803007390144E9 ; 1.6765830968427467E10 ; 0.0
92 ; 1.2995223947506318E7 ; 2.027033234565551E8 ; 1.1664819777888956E9 ; 1.696851672426724E10 ; 0.0
93 ; 1.2992078568450479E7 ; 2.0272093891066524E8 ; 1.179477201736402E9 ; 1.7171220047723795E10 ; 0.0
94 ; 1.2988171502853405E7 ; 2.0273859983850875E8 ; 1.1924692803048525E9 ; 1.737394098663446E10 ; 0.0
95 ; 1.2983434590141373E7 ; 2.0275630392879355E8 ; 1.2054574518077059E9 ; 1.757667958647297E10 ; 0.0
96 ; 1.2979748512350503E7 ; 2.027740489211791E8 ; 1.2184408863978472E9 ; 1.7779435890401764E10 ; 0.0
97 ; 1.2976855760789793E7 ; 2.0279183260494873E8 ; 1.2314206349101977E9 ; 1.7982209939322945E10 ; 0.0
98 ; 1.297153961263252E7 ; 2.0280965281770724E8 ; 1.2443974906709876E9 ; 1.8185001771927895E10 ; 0.0
99 ; 1.2968246216560392E7 ; 2.0282750744410408E8 ; 1.25736903028362E9 ; 1.83878114247456E10 ; 0.0
100 ; 1.2964963256815635E7 ; 2.0284539441458315E8 ; 1.2703372765001805E9 ; 1.8590638932189705E10 ; 0.0
101 ; 1.296099869889101E7 ; 2.028633117041593E8 ; 1.2833022397569962E9 ; 1.8793484326604286E10 ; 0.0
102 ; 1.2956928099869749E7 ; 2.0288125733122197E8 ; 1.296263238455887E9 ; 1.8996347638308445E10 ; 0.0
103 ; 1.2953668623350503E7 ; 2.0289922935636613E8 ; 1.3092201665557568E9 ; 1.9199228895639668E10 ; 0.0
104 ; 1.2947236815202601E7 ; 2.0291722588125047E8 ; 1.3221738351791074E9 ; 1.9402128124996033E10 ; 0.0
105 ; 1.2942843145223966E7 ; 2.0293524504748315E8 ; 1.3351210719943101E9 ; 1.9605045350877285E10 ; 0.0
106 ; 1.2937832830002217E7 ; 2.029532850355347E8 ; 1.348063915139534E9 ; 1.9807980595924767E10 ; 0.0
107 ; 1.2932493235712593E7 ; 2.0297134406367835E8 ; 1.3610017479695363E9 ; 2.00109338809603E10 ; 0.0
108 ; 1.292818368529329E7 ; 2.029894203869571E8 ; 1.3739342412052488E9 ; 2.021390522502398E10 ; 0.0
109 ; 1.2920187478109565E7 ; 2.030075122961777E8 ; 1.386862424890542E9 ; 2.0416894645410934E10 ; 0.0
110 ; 1.2918351939172775E7 ; 2.0302561811693087E8 ; 1.3997826123686516E9 ; 2.061990215770711E10 ; 0.0
111 ; 1.2908362579707416E7 ; 2.0304373620863807E8 ; 1.4127009643078244E9 ; 2.0822927775824043E10 ; 0.0
112 ; 1.2903003804625036E7 ; 2.0306186496362352E8 ; 1.4256093268875318E9 ; 2.102597151203268E10 ; 0.0
113 ; 1.2899078060605371E7 ; 2.0308000280621183E8 ; 1.4385123306921568E9 ; 2.1229033376996304E10 ; 0.0
114 ; 1.2889118943234101E7 ; 2.0309814819185048E8 ; 1.451411408752762E9 ; 2.1432113379802517E10 ; 0.0
115 ; 1.2888939735161023E7 ; 2.03116299606257E8 ; 1.4643005276959963E9 ; 2.1635211527994366E10 ; 0.0
116 ; 1.288251599270316E7 ; 2.0313445556458956E8 ; 1.4771894674311574E9 ; 2.1838327827600624E10 ; 0.0
117 ; 1.2874766195715431E7 ; 2.0315261461064193E8 ; 1.4900719834238605E9 ; 2.2041462283165215E10 ; 0.0
118 ; 1.2869574802685408E7 ; 2.031707753160607E8 ; 1.502946749619576E9 ; 2.2244614897775856E10 ; 0.0
119 ; 1.2866067710879494E7 ; 2.0318893627958545E8 ; 1.5158163244222615E9 ; 2.2447785673091915E10 ; 0.0
120 ; 1.2856790849226227E7 ; 2.03207096126311E8 ; 1.528682392133141E9 ; 2.2650974609371502E10 ; 0.0
121 ; 1.2850138659504645E7 ; 2.0322525350697082E8 ; 1.5415391829823673E9 ; 2.2854181705497814E10 ; 0.0
122 ; 1.2844949626024082E7 ; 2.0324340709724182E8 ; 1.554389321641872E9 ; 2.3057406959004784E10 ; 0.0
123 ; 1.2840887673087887E7 ; 2.0326155559706932E8 ; 1.567234271267896E9 ; 2.3260650366102024E10 ; 0.0
124 ; 1.2832675736377798E7 ; 2.032796977300123E8 ; 1.5800751589409838E9 ; 2.3463911921699093E10 ; 0.0
125 ; 1.2826455096900733E7 ; 2.0329783224260783E8 ; 1.5929078346773615E9 ; 2.3667191619429104E10 ; 0.0
126 ; 1.281799005749151E7 ; 2.0331595790375456E8 ; 1.6057342897742622E9 ; 2.387048945167171E10 ; 0.0
127 ; 1.2809365705374725E7 ; 2.033340735041148E8 ; 1.6185522798317537E9 ; 2.4073805409575466E10 ; 0.0
128 ; 1.2804333411511518E7 ; 2.0335217785553434E8 ; 1.6313616455371284E9 ; 2.4277139483079582E10 ; 0.0
129 ; 1.2795105014623735E7 ; 2.0337026979047978E8 ; 1.6441659789486399E9 ; 2.4480491660935116E10 ; 0.0
130 ; 1.2784498024883563E7 ; 2.0338834816149294E8 ; 1.6569610839632635E9 ; 2.4683861930725597E10 ; 0.0
131 ; 1.2773735752022874E7 ; 2.034064118406618E8 ; 1.669745581988147E9 ; 2.488725027888709E10 ; 0.0
132 ; 1.2765399015514906E7 ; 2.0342445971910712E8 ; 1.68251931774017E9 ; 2.509065669072775E10 ; 0.0
133 ; 1.275235371403481E7 ; 2.0344249070648527E8 ; 1.6952847167556849E9 ; 2.5294081150446857E10 ; 0.0
134 ; 1.273933955481053E7 ; 2.034605037305055E8 ; 1.7080370704697196E9 ; 2.5497523641153343E10 ; 0.0
135 ; 1.2727232315009983E7 ; 2.0347849773646232E8 ; 1.7207764100245302E9 ; 2.570098414488385E10 ; 0.0
136 ; 1.2713990730321992E7 ; 2.0349647168678215E8 ; 1.7335036423395402E9 ; 2.590446264262031E10 ; 0.0
137 ; 1.2705599122809231E7 ; 2.0351442456058347E8 ; 1.7462176330698621E9 ; 2.6107959114307095E10 ; 0.0
138 ; 1.2694352804033676E7 ; 2.035323553532507E8 ; 1.7589232321926713E9 ; 2.631147353886768E10 ; 0.0
139 ; 1.2684089045999685E7 ; 2.0355026307602096E8 ; 1.771617584996705E9 ; 2.6515005894220932E10 ; 0.0
140 ; 1.2668701940289263E7 ; 2.0356814675558347E8 ; 1.7843016740427048E9 ; 2.671855615729695E10 ; 0.0
141 ; 1.265308326617407E7 ; 2.0358600543369123E8 ; 1.796970375982994E9 ; 2.6922124304052536E10 ; 0.0
142 ; 1.2645572302779905E7 ; 2.0360383816678444E8 ; 1.8096234592491682E9 ; 2.712571030948623E10 ; 0.0
143 ; 1.2632427605615156E7 ; 2.0362164402562565E8 ; 1.822269031551948E9 ; 2.7329314147653015E10 ; 0.0
144 ; 1.261784315406392E7 ; 2.036394220949458E8 ; 1.8349014591575632E9 ; 2.7532935791678642E10 ; 0.0
145 ; 1.2613040408181151E7 ; 2.036571714731012E8 ; 1.8475193023116271E9 ; 2.7736575213773586E10 ; 0.0
146 ; 1.260222222344819E7 ; 2.036748912717411E8 ; 1.8601323427198083E9 ; 2.794023238524669E10 ; 0.0
147 ; 1.2594165658354046E7 ; 2.036925806154851E8 ; 1.8727345649432566E9 ; 2.814390727651843E10 ; 0.0
148 ; 1.2589722771211438E7 ; 2.0371023864161074E8 ; 1.8853287306016107E9 ; 2.8347599857133915E10 ; 0.0
149 ; 1.2575513290356822E7 ; 2.0372786449975035E8 ; 1.897918453372822E9 ; 2.8551310095775524E10 ; 0.0
150 ; 1.2565177385549286E7 ; 2.0374545735159716E8 ; 1.910493966663179E9 ; 2.8755037960275276E10 ; 0.0
151 ; 1.2561189701489504E7 ; 2.0376301637062058E8 ; 1.9230591440487282E9 ; 2.8958783417626873E10 ; 0.0
152 ; 1.2553880480109226E7 ; 2.0378054074178988E8 ; 1.9356203337502177E9 ; 2.9162546433997494E10 ; 0.0
153 ; 1.2545778106046371E7 ; 2.0379802966130635E8 ; 1.948174214230327E9 ; 2.9366326974739285E10 ; 0.0
154 ; 1.2535330869034031E7 ; 2.0381548233634362E8 ; 1.9607199923363733E9 ; 2.957012500440059E10 ; 0.0
155 ; 1.2530726485701233E7 ; 2.0383289798479575E8 ; 1.9732553232054074E9 ; 2.977394048673693E10 ; 0.0
156 ; 1.2520346468026187E7 ; 2.0385027583503315E8 ; 1.9857860496911087E9 ; 2.9977773384721725E10 ; 0.0
157 ; 1.2510064120208608E7 ; 2.0386761512566552E8 ; 1.9983063961591349E9 ; 3.018162366055676E10 ; 0.0
158 ; 1.2506564833638024E7 ; 2.0388491510531238E8 ; 2.0108164602793434E9 ; 3.0385491275682423E10 ; 0.0
159 ; 1.2494380034207715E7 ; 2.0390217503238022E8 ; 2.0233230251129813E9 ; 3.0589376190787735E10 ; 0.0
160 ; 1.248845782926819E7 ; 2.0391939417484635E8 ; 2.0358174051471891E9 ; 3.0793278365820114E10 ; 0.0
161 ; 1.2478916434396405E7 ; 2.0393657181004947E8 ; 2.0483058629764574E9 ; 3.099719775999496E10 ; 0.0
162 ; 1.246859416382979E7 ; 2.0395370722448635E8 ; 2.0607847794108539E9 ; 3.120113433180501E10 ; 0.0
163 ; 1.2461896274309816E7 ; 2.0397079971361458E8 ; 2.0732533735746837E9 ; 3.14050880390295E10 ; 0.0
164 ; 1.245174874388493E7 ; 2.039878485816614E8 ; 2.0857152698489935E9 ; 3.1609058838743114E10 ; 0.0
165 ; 1.2444189059180299E7 ; 2.040048531414381E8 ; 2.0981670185928786E9 ; 3.1813046687324776E10 ; 0.0
166 ; 1.2435336885378247E7 ; 2.0402181271415985E8 ; 2.1106112076520588E9 ; 3.2017051540466213E10 ; 0.0
167 ; 1.2424393966879675E7 ; 2.040387266292713E8 ; 2.1230465445374372E9 ; 3.2221073353180374E10 ; 0.0
168 ; 1.24184312020004E7 ; 2.040555942242768E8 ; 2.1354709385043168E9 ; 3.2425112079809647E10 ; 0.0
169 ; 1.2407220071307361E7 ; 2.0407241484457627E8 ; 2.1478893697063174E9 ; 3.2629167674033924E10 ; 0.0
170 ; 1.2397795010432184E7 ; 2.0408918784330532E8 ; 2.1602965897776246E9 ; 3.28332400888785E10 ; 0.0
171 ; 1.2391700617921116E7 ; 2.041059125811806E8 ; 2.172694384788057E9 ; 3.3037329276721806E10 ; 0.0
172 ; 1.2381037020490425E7 ; 2.0412258842634943E8 ; 2.185086085405978E9 ; 3.3241435189302986E10 ; 0.0
173 ; 1.2373922580608904E7 ; 2.04139214754244E8 ; 2.197467122426469E9 ; 3.3445557777729336E10 ; 0.0
174 ; 1.2364071521712093E7 ; 2.041557909474398E8 ; 2.2098410450070777E9 ; 3.364969699248358E10 ; 0.0
175 ; 1.2362264753179297E7 ; 2.041723163955181E8 ; 2.22220511652879E9 ; 3.3853852783431023E10 ; 0.0
176 ; 1.2355935276137073E7 ; 2.0418879049493283E8 ; 2.234567381281969E9 ; 3.405802509982654E10 ; 0.0
177 ; 1.2350101371044567E7 ; 2.0420521264888084E8 ; 2.246923316558106E9 ; 3.4262213890321476E10 ; 0.0
178 ; 1.2348399776203698E7 ; 2.042215822671764E8 ; 2.2592734179291506E9 ; 3.446641910297036E10 ; 0.0
179 ; 1.234050378961348E7 ; 2.042378987661291E8 ; 2.271621817705354E9 ; 3.467064068523753E10 ; 0.0
180 ; 1.2335496778027998E7 ; 2.042541615684254E8 ; 2.2839623214949675E9 ; 3.487487858400366E10 ; 0.0
181 ; 1.2331248458593912E7 ; 2.0427037010301358E8 ; 2.2962978182729955E9 ; 3.507913274557209E10 ; 0.0
182 ; 1.232466943871095E7 ; 2.0428652380499205E8 ; 2.3086290667315893E9 ; 3.52834031156751E10 ; 0.0
183 ; 1.2316888707971321E7 ; 2.043E8 ; 2.3209537361703005E9 ; 3.5487689639480095E10 ; 0.0
184 ; 1.231250848694154E7 ; 2.043E8 ; 2.3332706248782716E9 ; 3.5691989639480095E10 ; 0.0
185 ; 1.2307227327765943E7 ; 2.043E8 ; 2.345583133365213E9 ; 3.5896289639480095E10 ; 0.0
186 ; 1.2301919564750798E7 ; 2.043E8 ; 2.357890360692979E9 ; 3.6100589639480095E10 ; 0.0
187 ; 1.2296189253331933E7 ; 2.043E8 ; 2.3701922802577295E9 ; 3.6304889639480095E10 ; 0.0
188 ; 1.2291076858874705E7 ; 2.043E8 ; 2.3824884695110617E9 ; 3.6509189639480095E10 ; 0.0
189 ; 1.2281566737233961E7 ; 2.043E8 ; 2.3947795463699365E9 ; 3.6713489639480095E10 ; 0.0
190 ; 1.2262973636002481E7 ; 2.043E8 ; 2.4070611131071706E9 ; 3.6917789639480095E10 ; 0.0
191 ; 1.2234973227630977E7 ; 2.043E8 ; 2.419324086743173E9 ; 3.7122089639480095E10 ; 0.0
192 ; 1.2215038679519793E7 ; 2.043E8 ; 2.431559059970804E9 ; 3.7326389639480095E10 ; 0.0
193 ; 1.2189320965776253E7 ; 2.043E8 ; 2.443774098650324E9 ; 3.7530689639480095E10 ; 0.0
194 ; 1.216635390827692E7 ; 2.043E8 ; 2.4559634196161003E9 ; 3.7734989639480095E10 ; 0.0
195 ; 1.2143721513263792E7 ; 2.043E8 ; 2.4681297735243773E9 ; 3.7939289639480095E10 ; 0.0
196 ; 1.2119026981733518E7 ; 2.043E8 ; 2.480273495037641E9 ; 3.8143589639480095E10 ; 0.0
