CSV File for the City 4 on Day 209
1 - Minute m 
2 - Power Consumed at minute m 
3 - Power Produced at minute m 
4 - Energy Consumed since the beginning of the day 
5 - Energy Produced since the beginning of the day 
6 - Energy Lost since the beginning of the day on lines starting from the city
 
0 ; 457899.8756850176 ; 1.0567471058767578E8 ; 0.0 ; 0.0 ; 0.0
1 ; 463615.49701201834 ; 1.0582393193991727E8 ; 457899.8756850176 ; 1.0567471058767578E8 ; 0.0
2 ; 474877.8459332857 ; 1.0628228724767795E8 ; 921515.372697036 ; 2.1149864252759305E8 ; 0.0
3 ; 483732.61171918 ; 1.0704979047977996E8 ; 1396393.2186303218 ; 3.17780929775271E8 ; 0.0
4 ; 493027.4401987993 ; 1.0812645450482523E8 ; 1880125.8303495017 ; 4.2483072025505096E8 ; 0.0
5 ; 507072.45470711694 ; 1.0951229091177338E8 ; 2373153.270548301 ; 5.329571747598762E8 ; 0.0
6 ; 523587.17682996555 ; 1.112073098393555E8 ; 2880225.7252554176 ; 6.424694656716496E8 ; 0.0
7 ; 548899.9976360054 ; 1.1321151981974417E8 ; 3403812.9020853834 ; 7.53676775511005E8 ; 0.0
8 ; 580437.9924751456 ; 1.1552492764180762E8 ; 3952712.8997213887 ; 8.668882953307493E8 ; 0.0
9 ; 633836.6177312313 ; 1.1814753823888743E8 ; 4533150.892196534 ; 9.824132229725568E8 ; 0.0
10 ; 711898.3614683541 ; 1.2107935460533452E8 ; 5166987.5099277655 ; 1.1005607612114444E9 ; 0.0
11 ; 838495.4038319917 ; 1.243203777450603E8 ; 5878885.87139612 ; 1.221640115816779E9 ; 0.0
12 ; 1036048.8513546967 ; 1.2787060665415332E8 ; 6717381.275228111 ; 1.345960493561839E9 ; 0.0
13 ; 1225144.0882649543 ; 1.3173003833826268E8 ; 7753430.126582808 ; 1.4738311002159925E9 ; 0.0
14 ; 1249587.002845093 ; 1.3589866786404687E8 ; 8978574.214847762 ; 1.605561138554255E9 ; 0.0
15 ; 1260404.4498757662 ; 1.4037648844263756E8 ; 1.0228161217692856E7 ; 1.7414598064183018E9 ; 0.0
16 ; 1270460.4574153451 ; 1.4516349154186228E8 ; 1.1488565667568622E7 ; 1.8818362948609395E9 ; 0.0
17 ; 1280258.6832079866 ; 1.5025966702298984E8 ; 1.2759026124983966E7 ; 2.0269997864028018E9 ; 0.0
18 ; 1289743.8778695602 ; 1.5566500329706067E8 ; 1.4039284808191953E7 ; 2.1772594534257917E9 ; 0.0
19 ; 1298884.7735249738 ; 1.6137948749547282E8 ; 1.5329028686061513E7 ; 2.332924456722852E9 ; 0.0
20 ; 1309484.9503956842 ; 1.6740310564940414E8 ; 1.6627913459586486E7 ; 2.494303944218325E9 ; 0.0
21 ; 1320383.1068876334 ; 1.737358428728436E8 ; 1.793739840998217E7 ; 2.661707049867729E9 ; 0.0
22 ; 1330619.6220749726 ; 1.8037768354442888E8 ; 1.9257781516869806E7 ; 2.835442892740573E9 ; 0.0
23 ; 1340942.499990901 ; 1.8732861148388654E8 ; 2.058840113894478E7 ; 3.0158205762850018E9 ; 0.0
24 ; 1349471.5977731391 ; 1.9458861011958212E8 ; 2.1929343638935678E7 ; 3.2031491877688885E9 ; 0.0
25 ; 1362015.451413862 ; 2.0084570354263756E8 ; 2.3278815236708816E7 ; 3.3977377978884706E9 ; 0.0
26 ; 1370804.4099485679 ; 2.0085342268617958E8 ; 2.464083068812268E7 ; 3.598583501431108E9 ; 0.0
27 ; 1381246.1787112574 ; 2.0086151997777122E8 ; 2.6011635098071247E7 ; 3.7994369241172876E9 ; 0.0
28 ; 1390768.0908846688 ; 2.008699786982885E8 ; 2.7392881276782505E7 ; 4.000298444095059E9 ; 0.0
29 ; 1401163.8009170745 ; 2.0087878237180012E8 ; 2.8783649367667176E7 ; 4.2011684227933474E9 ; 0.0
30 ; 1410785.6383165754 ; 2.0088791484713322E8 ; 3.018481316858425E7 ; 4.402047205165148E9 ; 0.0
31 ; 1419733.3312026267 ; 2.0089736036511904E8 ; 3.1595598806900825E7 ; 4.602935120012281E9 ; 0.0
32 ; 1429128.0601422659 ; 2.0090710361251548E8 ; 3.301533213810345E7 ; 4.8038324803774E9 ; 0.0
33 ; 1438851.3800992419 ; 2.0091712976376683E8 ; 3.444446019824572E7 ; 5.004739583989916E9 ; 0.0
34 ; 1449201.4287404302 ; 2.0092742451184872E8 ; 3.588331157834496E7 ; 5.205656713753683E9 ; 0.0
35 ; 1455945.5458620174 ; 2.0093797408947593E8 ; 3.733251300708539E7 ; 5.406584138265532E9 ; 0.0
36 ; 1464644.2336323634 ; 2.0094876528193095E8 ; 3.878845855294741E7 ; 5.607522112355007E9 ; 0.0
37 ; 1472943.6627737263 ; 2.0095978543271777E8 ; 4.025310278657977E7 ; 5.808470877636938E9 ; 0.0
38 ; 1481942.3464832753 ; 2.0097102244316736E8 ; 4.17260464493535E7 ; 6.009430663069655E9 ; 0.0
39 ; 1489528.8715733066 ; 2.009824647670276E8 ; 4.320798879583678E7 ; 6.210401685512823E9 ; 0.0
40 ; 1498700.121327529 ; 2.009941014009695E8 ; 4.469751766741008E7 ; 6.411384150279851E9 ; 0.0
41 ; 1506236.3488755845 ; 2.0100592187183678E8 ; 4.619621778873761E7 ; 6.61237825168082E9 ; 0.0
42 ; 1510515.0675096451 ; 2.0101791622136414E8 ; 4.770245413761319E7 ; 6.813384173552657E9 ; 0.0
43 ; 1519903.9151026402 ; 2.0103007498899207E8 ; 4.9212969205122836E7 ; 7.014402089774021E9 ; 0.0
44 ; 1525276.5008231318 ; 2.010423891933148E8 ; 5.0732873120225474E7 ; 7.215432164763013E9 ; 0.0
45 ; 1530862.9873719367 ; 2.0105485031261507E8 ; 5.225814962104861E7 ; 7.416474553956327E9 ; 0.0
46 ; 1536808.5671827563 ; 2.0106745026486486E8 ; 5.378901260842054E7 ; 7.617529404268943E9 ; 0.0
47 ; 1542627.2329445234 ; 2.0108018138750416E8 ; 5.53258211756033E7 ; 7.818596854533808E9 ; 0.0
48 ; 1548509.7817432724 ; 2.0109303641725263E8 ; 5.6868448408547826E7 ; 8.019677035921312E9 ; 0.0
49 ; 1552402.7785443761 ; 2.0110600847015792E8 ; 5.84169581902911E7 ; 8.220770072338565E9 ; 0.0
50 ; 1556301.8341861675 ; 2.0111909102204117E8 ; 5.996936096883547E7 ; 8.4218760808087225E9 ; 0.0
51 ; 1560112.1397474543 ; 2.0113227788946348E8 ; 6.152566280302164E7 ; 8.622995171830763E9 ; 0.0
52 ; 1566280.1063738551 ; 2.0114556321130624E8 ; 6.3085774942769095E7 ; 8.824127449720226E9 ; 0.0
53 ; 1571974.4396266942 ; 2.0115894143103164E8 ; 6.465205504914295E7 ; 9.025273012931532E9 ; 0.0
54 ; 1573561.411149914 ; 2.0117240727966896E8 ; 6.622402948876964E7 ; 9.226431954362564E9 ; 0.0
55 ; 1578931.4462715178 ; 2.0118595575955415E8 ; 6.779759089991955E7 ; 9.427604361642233E9 ; 0.0
56 ; 1584546.5376336353 ; 2.011995821288361E8 ; 6.937652234619108E7 ; 9.628790317401787E9 ; 0.0
57 ; 1585542.521954563 ; 2.012132818867511E8 ; 7.096106888382472E7 ; 9.829989899530622E9 ; 0.0
58 ; 1590349.530305016 ; 2.0122705075965884E8 ; 7.254661140577929E7 ; 1.0031203181417374E10 ; 0.0
59 ; 1594852.4401282757 ; 2.0124088468782538E8 ; 7.41369609360843E7 ; 1.0232430232177032E10 ; 0.0
60 ; 1599582.2766727142 ; 2.012547798129332E8 ; 7.573181337621258E7 ; 1.0433671116864859E10 ; 0.0
61 ; 1602549.613300569 ; 2.012687324662955E8 ; 7.73313956528853E7 ; 1.0634925896677792E10 ; 0.0
62 ; 1606666.0608000823 ; 2.0128273915774718E8 ; 7.893394526618586E7 ; 1.0836194629144087E10 ; 0.0
63 ; 1610377.0344895418 ; 2.0129679656518498E8 ; 8.054061132698594E7 ; 1.1037477368301834E10 ; 0.0
64 ; 1615566.109151037 ; 2.01310901524727E8 ; 8.215098836147548E7 ; 1.123877416486702E10 ; 0.0
65 ; 1616841.367898912 ; 2.0132505102146116E8 ; 8.376655447062652E7 ; 1.1440085066391747E10 ; 0.0
66 ; 1618569.9895646395 ; 2.0133924218075287E8 ; 8.538339583852543E7 ; 1.1641410117413208E10 ; 0.0
67 ; 1623673.9376575006 ; 2.0135347226008177E8 ; 8.700196582809007E7 ; 1.1842749359593962E10 ; 0.0
68 ; 1625490.6542027455 ; 2.0136773864137825E8 ; 8.862563976574758E7 ; 1.2044102831854044E10 ; 0.0
69 ; 1629046.7615278873 ; 2.0138203882383153E8 ; 9.025113041995032E7 ; 1.2245470570495422E10 ; 0.0
70 ; 1634502.820795864 ; 2.0139637041714144E8 ; 9.18801771814782E7 ; 1.2446852609319254E10 ; 0.0
71 ; 1639617.553094836 ; 2.014107311351876E8 ; 9.351468000227407E7 ; 1.2648248979736395E10 ; 0.0
72 ; 1642172.1038900956 ; 2.0142511879009086E8 ; 9.51542975553689E7 ; 1.2849659710871582E10 ; 0.0
73 ; 1645227.6685749418 ; 2.0143953128664285E8 ; 9.679646965925899E7 ; 1.3051084829661673E10 ; 0.0
74 ; 1646007.825736886 ; 2.0145396661708045E8 ; 9.844169732783394E7 ; 1.3252524360948315E10 ; 0.0
75 ; 1651297.3640915032 ; 2.014684228561841E8 ; 1.0008770515357082E8 ; 1.3453978327565395E10 ; 0.0
76 ; 1651992.3073466187 ; 2.01482898156679E8 ; 1.0173900251766232E8 ; 1.365544675042158E10 ; 0.0
77 ; 1654259.3710506505 ; 2.014973907449202E8 ; 1.0339099482500893E8 ; 1.3856929648578259E10 ; 0.0
78 ; 1658249.4264768413 ; 2.0151189891684312E8 ; 1.0504525419605958E8 ; 1.405842703932318E10 ; 0.0
79 ; 1658155.026299452 ; 2.015264210341631E8 ; 1.0670350362253642E8 ; 1.4259938938240023E10 ; 0.0
80 ; 1660711.0732191536 ; 2.015409555208069E8 ; 1.0836165864883587E8 ; 1.4461465359274185E10 ; 0.0
81 ; 1658936.5383046519 ; 2.015555008595624E8 ; 1.1002236972205502E8 ; 1.4663006314794992E10 ; 0.0
82 ; 1658843.0103289462 ; 2.0157005558893126E8 ; 1.1168130626035967E8 ; 1.4864561815654554E10 ; 0.0
83 ; 1661060.006919571 ; 2.015846183001724E8 ; 1.1334014927068862E8 ; 1.5066131871243486E10 ; 0.0
84 ; 1660447.6892978677 ; 2.0159918763452315E8 ; 1.150012092776082E8 ; 1.526771648954366E10 ; 0.0
85 ; 1661362.9099486535 ; 2.0161376228058735E8 ; 1.1666165696690607E8 ; 1.5469315677178183E10 ; 0.0
86 ; 1660426.908957761 ; 2.0162834097187892E8 ; 1.1832301987685472E8 ; 1.567092943945877E10 ; 0.0
87 ; 1662750.2478232167 ; 2.0164292248451144E8 ; 1.1998344678581248E8 ; 1.5872557780430649E10 ; 0.0
88 ; 1659020.7956464249 ; 2.016575056350242E8 ; 1.216461970336357E8 ; 1.6074200702915161E10 ; 0.0
89 ; 1661592.219312181 ; 2.0167208927833572E8 ; 1.2330521782928213E8 ; 1.6275858208550186E10 ; 0.0
90 ; 1662530.0486286602 ; 2.0168667230581707E8 ; 1.2496681004859431E8 ; 1.6477530297828522E10 ; 0.0
91 ; 1663095.2785978392 ; 2.017012536434769E8 ; 1.2662934009722297E8 ; 1.6679216970134338E10 ; 0.0
92 ; 1660428.6932039706 ; 2.017158322502514E8 ; 1.2829243537582082E8 ; 1.6880918223777815E10 ; 0.0
93 ; 1660453.0359049118 ; 2.0173040711639258E8 ; 1.2995286406902479E8 ; 1.7082634056028067E10 ; 0.0
94 ; 1661103.2529908004 ; 2.0174497726194823E8 ; 1.316133171049297E8 ; 1.728436446314446E10 ; 0.0
95 ; 1661295.0664459036 ; 2.017595417353285E8 ; 1.332744203579205E8 ; 1.7486109440406406E10 ; 0.0
96 ; 1661395.4196816618 ; 2.017740996119531E8 ; 1.349357154243664E8 ; 1.7687868982141735E10 ; 0.0
97 ; 1663462.6141426936 ; 2.017886499929745E8 ; 1.3659711084404808E8 ; 1.788964308175369E10 ; 0.0
98 ; 1659591.7810284083 ; 2.01803192004072E8 ; 1.3826057345819077E8 ; 1.8091431731746662E10 ; 0.0
99 ; 1660960.7779316274 ; 2.0181772479431304E8 ; 1.399201652392192E8 ; 1.8293234923750732E10 ; 0.0
100 ; 1662092.0173672014 ; 2.018322475350767E8 ; 1.4158112601715082E8 ; 1.8495052648545044E10 ; 0.0
101 ; 1659472.0278762307 ; 2.0184675941903648E8 ; 1.4324321803451803E8 ; 1.869688489608012E10 ; 0.0
102 ; 1658987.4864663929 ; 2.018612596591979E8 ; 1.4490269006239426E8 ; 1.8898731655499157E10 ; 0.0
103 ; 1655827.2734283481 ; 2.0187574748798862E8 ; 1.4656167754886067E8 ; 1.9100592915158356E10 ; 0.0
104 ; 1660258.261201139 ; 2.0189022215639699E8 ; 1.4821750482228902E8 ; 1.9302468662646343E10 ; 0.0
105 ; 1657411.6712249469 ; 2.0190468293315667E8 ; 1.4987776308349016E8 ; 1.9504358884802742E10 ; 0.0
106 ; 1655566.8034659543 ; 2.0191912910397443E8 ; 1.515351747547151E8 ; 1.9706263567735897E10 ; 0.0
107 ; 1658425.2451350312 ; 2.0193355997079873E8 ; 1.5319074155818108E8 ; 1.990818269683987E10 ; 0.0
108 ; 1655326.230800132 ; 2.0194797485112643E8 ; 1.5484916680331612E8 ; 2.011011625681067E10 ; 0.0
109 ; 1651510.1367133392 ; 2.019623730773455E8 ; 1.5650449303411624E8 ; 2.0312064231661797E10 ; 0.0
110 ; 1655294.4784689548 ; 2.0197675399611196E8 ; 1.5815600317082956E8 ; 2.0514026604739143E10 ; 0.0
111 ; 1651616.0023326175 ; 2.019911169677585E8 ; 1.5981129764929852E8 ; 2.0716003358735256E10 ; 0.0
112 ; 1651508.3951186445 ; 2.0200546136573353E8 ; 1.6146291365163115E8 ; 2.0917994475703014E10 ; 0.0
113 ; 1650910.3683774548 ; 2.0201978657606843E8 ; 1.631144220467498E8 ; 2.111999993706875E10 ; 0.0
114 ; 1649032.9708388792 ; 2.020340919968718E8 ; 1.6476533241512725E8 ; 2.1322019723644817E10 ; 0.0
115 ; 1649491.2688276023 ; 2.0204837703784907E8 ; 1.6641436538596612E8 ; 2.152405381564169E10 ; 0.0
116 ; 1646169.2025092568 ; 2.0206264111984587E8 ; 1.6806385665479374E8 ; 2.172610219267954E10 ; 0.0
117 ; 1645387.2247685161 ; 2.0207688367441404E8 ; 1.69710025857303E8 ; 2.1928164833799385E10 ; 0.0
118 ; 1643393.2415126346 ; 2.0209110414339912E8 ; 1.713554130820715E8 ; 2.21302417174738E10 ; 0.0
119 ; 1643973.6444057552 ; 2.0210530197854772E8 ; 1.7299880632358414E8 ; 2.23323328216172E10 ; 0.0
120 ; 1642175.8970537637 ; 2.021194766411342E8 ; 1.746427799679899E8 ; 2.2534438123595745E10 ; 0.0
121 ; 1640719.9618795693 ; 2.0213362760160524E8 ; 1.7628495586504367E8 ; 2.2736557600236877E10 ; 0.0
122 ; 1638686.8927891941 ; 2.0214775433924147E8 ; 1.7792567582692325E8 ; 2.293869122783848E10 ; 0.0
123 ; 1640904.528481268 ; 2.021618563418353E8 ; 1.7956436271971244E8 ; 2.3140838982177723E10 ; 0.0
124 ; 1636346.3638223503 ; 2.0217593310538402E8 ; 1.812052672481937E8 ; 2.3343000838519558E10 ; 0.0
125 ; 1634900.3693829125 ; 2.0218998413379726E8 ; 1.8284161361201605E8 ; 2.3545176771624943E10 ; 0.0
126 ; 1630105.55386469 ; 2.022040089386183E8 ; 1.8447651398139897E8 ; 2.374736675575874E10 ; 0.0
127 ; 1632066.3582139476 ; 2.022180070387583E8 ; 1.8610661953526366E8 ; 2.3949570764697357E10 ; 0.0
128 ; 1629349.4368007733 ; 2.0223197796024278E8 ; 1.8773868589347762E8 ; 2.4151788771736115E10 ; 0.0
129 ; 1627237.7262958735 ; 2.022459212359699E8 ; 1.893680353302784E8 ; 2.4354020749696358E10 ; 0.0
130 ; 1625269.2473868483 ; 2.0225983640547982E8 ; 1.9099527305657429E8 ; 2.4556266670932327E10 ; 0.0
131 ; 1619313.4727088357 ; 2.022737230147343E8 ; 1.9262054230396113E8 ; 2.4758526507337807E10 ; 0.0
132 ; 1614235.3956841717 ; 2.022875806159067E8 ; 1.9423985577666995E8 ; 2.4960800230352543E10 ; 0.0
133 ; 1610744.273691817 ; 2.0230140876718107E8 ; 1.9585409117235413E8 ; 2.516308781096845E10 ; 0.0
134 ; 1607165.773098588 ; 2.0231520703256056E8 ; 1.9746483544604594E8 ; 2.536538921973563E10 ; 0.0
135 ; 1604232.5703370627 ; 2.0232897498168403E8 ; 1.9907200121914452E8 ; 2.5567704426768192E10 ; 0.0
136 ; 1598672.393089965 ; 2.0234271218965113E8 ; 2.0067623378948158E8 ; 2.5770033401749878E10 ; 0.0
137 ; 1593662.7288766517 ; 2.023564182368548E8 ; 2.0227490618257153E8 ; 2.597237611393953E10 ; 0.0
138 ; 1588051.4070967974 ; 2.0237009270882136E8 ; 2.0386856891144818E8 ; 2.6174732532176384E10 ; 0.0
139 ; 1585419.636825571 ; 2.0238373519605744E8 ; 2.0545662031854498E8 ; 2.6377102624885204E10 ; 0.0
140 ; 1580149.7976664286 ; 2.0239734529390356E8 ; 2.0704203995537055E8 ; 2.657948636008126E10 ; 0.0
141 ; 1576011.4897382613 ; 2.0241092260239413E8 ; 2.0862218975303698E8 ; 2.6781883705375164E10 ; 0.0
142 ; 1570294.739196604 ; 2.0242446672612345E8 ; 2.1019820124277523E8 ; 2.698429462797756E10 ; 0.0
143 ; 1567119.0827104463 ; 2.0243797727411726E8 ; 2.1176849598197183E8 ; 2.7186719094703682E10 ; 0.0
144 ; 1562057.73848338 ; 2.0245145385971004E8 ; 2.1333561506468228E8 ; 2.73891570719778E10 ; 0.0
145 ; 1560948.519793538 ; 2.0246489610042736E8 ; 2.1489767280316564E8 ; 2.759160852583751E10 ; 0.0
146 ; 1557377.835766365 ; 2.0247830361787325E8 ; 2.1645862132295918E8 ; 2.7794073421937935E10 ; 0.0
147 ; 1555678.3401816022 ; 2.024916760376222E8 ; 2.1801599915872556E8 ; 2.799655172555581E10 ; 0.0
148 ; 1553746.1401769612 ; 2.0250501298911577E8 ; 2.1957167749890715E8 ; 2.819904340159343E10 ; 0.0
149 ; 1551515.946508303 ; 2.0251831410556355E8 ; 2.211254236390841E8 ; 2.8401548414582546E10 ; 0.0
150 ; 1549583.051164361 ; 2.0253157902384806E8 ; 2.226769395855924E8 ; 2.860406672868811E10 ; 0.0
151 ; 1547725.454656624 ; 2.0254480738443378E8 ; 2.2422652263675675E8 ; 2.880659830771196E10 ; 0.0
152 ; 1543968.840379779 ; 2.0255799883127972E8 ; 2.2577424809141338E8 ; 2.9009143115096394E10 ; 0.0
153 ; 1543463.1756775079 ; 2.0257115301175576E8 ; 2.2731821693179315E8 ; 2.9211701113927673E10 ; 0.0
154 ; 1539494.8935225164 ; 2.0258426957656226E8 ; 2.2886168010747066E8 ; 2.941427226693943E10 ; 0.0
155 ; 1538957.1170395988 ; 2.0259734817965296E8 ; 2.304011750009932E8 ; 2.961685653651599E10 ; 0.0
156 ; 1538823.1156324805 ; 2.0261038847816107E8 ; 2.3194013211803278E8 ; 2.9819453884695644E10 ; 0.0
157 ; 1536499.62430382 ; 2.026233901323283E8 ; 2.3347895523366526E8 ; 3.0022064273173805E10 ; 0.0
158 ; 1532950.4781023297 ; 2.026363528054367E8 ; 2.3501545485796908E8 ; 3.0224687663306133E10 ; 0.0
159 ; 1529762.1524250724 ; 2.026492761637433E8 ; 2.365484053360714E8 ; 3.042732401611157E10 ; 0.0
160 ; 1528164.7247291207 ; 2.0266215987641725E8 ; 2.3807816748849648E8 ; 3.062997329227531E10 ; 0.0
161 ; 1525342.0134856177 ; 2.0267500361547965E8 ; 2.396063322132256E8 ; 3.083263545215173E10 ; 0.0
162 ; 1525868.847734978 ; 2.0268780705574554E8 ; 2.411316742267112E8 ; 3.103531045576721E10 ; 0.0
163 ; 1522217.0040290616 ; 2.0270056987476832E8 ; 2.426575430744462E8 ; 3.1237998262822952E10 ; 0.0
164 ; 1521922.093215499 ; 2.0271329175278634E8 ; 2.4417976007847527E8 ; 3.144069883269772E10 ; 0.0
165 ; 1518122.9504368978 ; 2.0272597237267157E8 ; 2.4570168217169076E8 ; 3.1643412124450504E10 ; 0.0
166 ; 1517348.41486082 ; 2.027386114198802E8 ; 2.4721980512212765E8 ; 3.1846138096823177E10 ; 0.0
167 ; 1513068.4596430387 ; 2.027512085824054E8 ; 2.4873715353698847E8 ; 3.2048876708243057E10 ; 0.0
168 ; 1512447.8317875217 ; 2.0276376355073154E8 ; 2.502502219966315E8 ; 3.2251627916825462E10 ; 0.0
169 ; 1510844.7237143076 ; 2.027762760177907E8 ; 2.5176266982841903E8 ; 3.2454391680376194E10 ; 0.0
170 ; 1507775.8870891174 ; 2.0278874567892036E8 ; 2.5327351455213335E8 ; 3.2657167956393986E10 ; 0.0
171 ; 1504771.7049274119 ; 2.0280117223182297E8 ; 2.5478129043922246E8 ; 3.2859956702072906E10 ; 0.0
172 ; 1500755.5259796327 ; 2.0281355537652713E8 ; 2.5628606214414987E8 ; 3.306275787430473E10 ; 0.0
173 ; 1500551.0701706398 ; 2.0282589481535012E8 ; 2.577868176701295E8 ; 3.3265571429681255E10 ; 0.0
174 ; 1500092.9457914555 ; 2.0283819025286198E8 ; 2.5928736874030015E8 ; 3.3468397324496605E10 ; 0.0
175 ; 1497318.809712938 ; 2.028504413958508E8 ; 2.607874616860916E8 ; 3.3671235514749466E10 ; 0.0
176 ; 1496463.2413585084 ; 2.028626479532897E8 ; 2.6228478049580455E8 ; 3.3874085956145317E10 ; 0.0
177 ; 1495241.7107965439 ; 2.0287480963630444E8 ; 2.6378124373716307E8 ; 3.4076948604098606E10 ; 0.0
178 ; 1494440.160732589 ; 2.0288692615814307E8 ; 2.652764854479596E8 ; 3.427982341373491E10 ; 0.0
179 ; 1493052.1466228575 ; 2.0289899723414603E8 ; 2.667709256086922E8 ; 3.448271033989305E10 ; 0.0
180 ; 1490768.7301486917 ; 2.0291102258171776E8 ; 2.6826397775531507E8 ; 3.46856093371272E10 ; 0.0
181 ; 1487567.5152652683 ; 2.029230019202993E8 ; 2.6975474648546374E8 ; 3.4888520359708916E10 ; 0.0
182 ; 1489469.8151227748 ; 2.0293493497134188E8 ; 2.71242314000729E8 ; 3.509144336162921E10 ; 0.0
183 ; 1486881.1517758025 ; 2.029468214582817E8 ; 2.727317838158518E8 ; 3.5294378296600555E10 ; 0.0
184 ; 1484817.986415731 ; 2.029586611065153E8 ; 2.742186649676276E8 ; 3.549732511805884E10 ; 0.0
185 ; 1483722.3820200134 ; 2.0297045364337626E8 ; 2.757034829540433E8 ; 3.570028377916535E10 ; 0.0
186 ; 1484362.3285400018 ; 2.029821987981125E8 ; 2.771872053360633E8 ; 3.590325423280873E10 ; 0.0
187 ; 1480717.5063539606 ; 2.0299389630186468E8 ; 2.7867156766460335E8 ; 3.610623643160684E10 ; 0.0
188 ; 1479237.8068275868 ; 2.0300554588764507E8 ; 2.801522851709573E8 ; 3.630923032790871E10 ; 0.0
189 ; 1476129.3289540135 ; 2.0301714729031757E8 ; 2.8163152297778493E8 ; 3.651223587379635E10 ; 0.0
190 ; 1475894.0036094605 ; 2.0302870024657828E8 ; 2.83107652306739E8 ; 3.671525302108667E10 ; 0.0
191 ; 1476369.4434500604 ; 2.0304020449493697E8 ; 2.8458354631034845E8 ; 3.691828172133325E10 ; 0.0
192 ; 1472235.7584237624 ; 2.0305165977569896E8 ; 2.860599157537985E8 ; 3.7121321925828186E10 ; 0.0
193 ; 1473221.120668757 ; 2.0306306583094802E8 ; 2.8753215151222223E8 ; 3.732437358560388E10 ; 0.0
194 ; 1471393.179017149 ; 2.0307442240452972E8 ; 2.89005372632891E8 ; 3.752743665143483E10 ; 0.0
195 ; 1468688.4095256994 ; 2.0308572924203542E8 ; 2.904767658119081E8 ; 3.773051107383936E10 ; 0.0
196 ; 1468107.691309059 ; 2.0309698609078693E8 ; 2.919454542214338E8 ; 3.79335968030814E10 ; 0.0
197 ; 1466680.2562420028 ; 2.0310819269982177E8 ; 2.9341356191274285E8 ; 3.813669378917219E10 ; 0.0
198 ; 1464034.7709890846 ; 2.0311934881987885E8 ; 2.9488024216898483E8 ; 3.833980198187201E10 ; 0.0
199 ; 1462549.820445624 ; 2.0313045420338485E8 ; 2.963442769399739E8 ; 3.854292133069189E10 ; 0.0
