CSV File for the City 1 on Day 49
1 - Minute m 
2 - Power Consumed at minute m 
3 - Power Produced at minute m 
4 - Energy Consumed since the beginning of the day 
5 - Energy Produced since the beginning of the day 
6 - Energy Lost since the beginning of the day on lines starting from the city
 
0 ; 1.5980058126504676E7 ; 1.053876646696721E8 ; 0.0 ; 0.0 ; 0.0
1 ; 1.5995324580919191E7 ; 1.0554034205363935E8 ; 1.5980058126504676E7 ; 1.053876646696721E8 ; 0.0
2 ; 1.601686765054833E7 ; 1.060018238251526E8 ; 3.1975382707423866E7 ; 2.1092800672331145E8 ; 0.0
3 ; 1.6033410791159498E7 ; 1.0677211335066009E8 ; 4.79922503579722E7 ; 3.1692983054846406E8 ; 0.0
4 ; 1.605824510843941E7 ; 1.0785121369490594E8 ; 6.402566114913169E7 ; 4.2370194389912415E8 ; 0.0
5 ; 1.6085479724030983E7 ; 1.0923912758858132E8 ; 8.00839062575711E7 ; 5.315531575940301E8 ; 0.0
6 ; 1.6122943452481437E7 ; 1.1093585739836481E8 ; 9.616938598160209E7 ; 6.407922851826115E8 ; 0.0
7 ; 1.6172904445421346E7 ; 1.1294140510008276E8 ; 1.1229232943408352E8 ; 7.517281425809762E8 ; 0.0
8 ; 1.62570352493595E7 ; 1.1525577225567478E8 ; 1.2846523387950486E8 ; 8.64669547681059E8 ; 0.0
9 ; 1.6373801948153978E7 ; 1.1787895999457783E8 ; 1.4472226912886435E8 ; 9.799253199367337E8 ; 0.0
10 ; 1.655280574663789E7 ; 1.208109690000403E8 ; 1.6109607107701832E8 ; 1.0978042799313116E9 ; 0.0
11 ; 1.6840184999341395E7 ; 1.2405179950075069E8 ; 1.776488768236562E8 ; 1.218615248931352E9 ; 0.0
12 ; 1.73072271865458E7 ; 1.2760145126802048E8 ; 1.944890618229976E8 ; 1.3426670484321027E9 ; 0.0
13 ; 1.77496565933954E7 ; 1.3145992361860126E8 ; 2.117962890095434E8 ; 1.470268499700123E9 ; 0.0
14 ; 1.780262870691937E7 ; 1.356272154230562E8 ; 2.295459456029388E8 ; 1.6017284233187244E9 ; 0.0
15 ; 1.7821127610332392E7 ; 1.401033251194455E8 ; 2.4734857430985817E8 ; 1.7373556387417805E9 ; 0.0
16 ; 1.7841112750165645E7 ; 1.4488825073194298E8 ; 2.6516970192019057E8 ; 1.877458963861226E9 ; 0.0
17 ; 1.7864972629764967E7 ; 1.4998198989386997E8 ; 2.830108146703562E8 ; 2.022347214593169E9 ; 0.0
18 ; 1.7883397692015596E7 ; 1.5538453987453532E8 ; 3.008757873001212E8 ; 2.172329204487039E9 ; 0.0
19 ; 1.7907888141520858E7 ; 1.610958976091949E8 ; 3.187591849921368E8 ; 2.327713744361574E9 ; 0.0
20 ; 1.792663555980936E7 ; 1.6711605973140046E8 ; 3.3666707313365763E8 ; 2.488809641970769E9 ; 0.0
21 ; 1.7948011805294454E7 ; 1.7344502260699585E8 ; 3.54593708693467E8 ; 2.6559257017021694E9 ; 0.0
22 ; 1.7971167787662182E7 ; 1.8008278236903358E8 ; 3.725417204987615E8 ; 2.8293707243091655E9 ; 0.0
23 ; 1.79880900573655E7 ; 1.8702933495292163E8 ; 3.905128882864237E8 ; 3.009453506678199E9 ; 0.0
24 ; 1.8011342825697735E7 ; 1.9428467613117278E8 ; 4.0850097834378916E8 ; 3.1964828416311207E9 ; 0.0
25 ; 1.8031638384556893E7 ; 2.0053684244538262E8 ; 4.265123211694869E8 ; 3.3907675177622933E9 ; 0.0
26 ; 1.80540179127163E7 ; 2.0053937727549464E8 ; 4.4454395955404377E8 ; 3.591304360207676E9 ; 0.0
27 ; 1.8071775253471658E7 ; 2.0054204539526224E8 ; 4.6259797746676004E8 ; 3.7918437374831705E9 ; 0.0
28 ; 1.8092895812521182E7 ; 2.005448422474757E8 ; 4.806697527202317E8 ; 3.9923857828784328E9 ; 0.0
29 ; 1.8111219666958347E7 ; 2.0054776326334706E8 ; 4.987626485327529E8 ; 4.1929306251259084E9 ; 0.0
30 ; 1.812938406950006E7 ; 2.0055080388620493E8 ; 5.168738681997112E8 ; 4.393478388389256E9 ; 0.0
31 ; 1.8149468452591218E7 ; 2.0055395959268445E8 ; 5.350032522692113E8 ; 4.59402919227546E9 ; 0.0
32 ; 1.8166447553266786E7 ; 2.005572259114142E8 ; 5.531527207218025E8 ; 4.794583151868145E9 ; 0.0
33 ; 1.8185766594544664E7 ; 2.0056059843925288E8 ; 5.713191682750692E8 ; 4.995140377779559E9 ; 0.0
34 ; 1.8197388965581667E7 ; 2.005640728551699E8 ; 5.895049348696139E8 ; 5.195700976218812E9 ; 0.0
35 ; 1.8220483901182804E7 ; 2.0056764493189594E8 ; 6.077023238351955E8 ; 5.396265049073982E9 ; 0.0
36 ; 1.823779149430276E7 ; 2.005713105454921E8 ; 6.259228077363783E8 ; 5.596832694005878E9 ; 0.0
37 ; 1.8250844569439996E7 ; 2.0057506568300086E8 ; 6.441605992306811E8 ; 5.797404004551371E9 ; 0.0
38 ; 1.827094496500483E7 ; 2.005789064483511E8 ; 6.624114438001211E8 ; 5.997979070234371E9 ; 0.0
39 ; 1.8283658664317638E7 ; 2.005828290666916E8 ; 6.806823887651259E8 ; 6.198557976682722E9 ; 0.0
40 ; 1.829817681783959E7 ; 2.005868298873255E8 ; 6.989660474294435E8 ; 6.3991408057494135E9 ; 0.0
41 ; 1.8312724957859382E7 ; 2.0059090538541216E8 ; 7.172642242472831E8 ; 6.599727635636739E9 ; 0.0
42 ; 1.8323952285680175E7 ; 2.0059505216259634E8 ; 7.355769492051425E8 ; 6.800318541022151E9 ; 0.0
43 ; 1.8332531157427747E7 ; 2.005992669467127E8 ; 7.539009014908227E8 ; 7.000913593184748E9 ; 0.0
44 ; 1.8341583925493058E7 ; 2.0060354659070367E8 ; 7.722334326482505E8 ; 7.20151286013146E9 ; 0.0
45 ; 1.834894097632489E7 ; 2.0060788807087666E8 ; 7.905750165737435E8 ; 7.402116406722164E9 ; 0.0
46 ; 1.8363852204084598E7 ; 2.0061228848461464E8 ; 8.089239575500684E8 ; 7.602724294793041E9 ; 0.0
47 ; 1.836965829798844E7 ; 2.006167450476418E8 ; 8.27287809754153E8 ; 7.803336583277656E9 ; 0.0
48 ; 1.837791210893464E7 ; 2.006212550909356E8 ; 8.456574680521414E8 ; 8.003953328325297E9 ; 0.0
49 ; 1.838683886152057E7 ; 2.0062581605736426E8 ; 8.640353801610761E8 ; 8.204574583416233E9 ; 0.0
50 ; 1.8389866157605935E7 ; 2.006304254981203E8 ; 8.824222190225966E8 ; 8.405200399473598E9 ; 0.0
51 ; 1.839744432407214E7 ; 2.006350810690097E8 ; 9.008120851802025E8 ; 8.605830824971718E9 ; 0.0
52 ; 1.8401469072577067E7 ; 2.006397805266488E8 ; 9.192095295042746E8 ; 8.806465906040728E9 ; 0.0
53 ; 1.8407112402798623E7 ; 2.0064452172461322E8 ; 9.376109985768517E8 ; 9.007105686567377E9 ; 0.0
54 ; 1.840818855269734E7 ; 2.006493026095756E8 ; 9.560181109796504E8 ; 9.20775020829199E9 ; 0.0
55 ; 1.841200749168283E7 ; 2.0065412121746334E8 ; 9.744262995323477E8 ; 9.408399510901566E9 ; 0.0
56 ; 1.841743452485605E7 ; 2.0065897566966203E8 ; 9.928383070240306E8 ; 9.609053632119028E9 ; 0.0
57 ; 1.842494084970926E7 ; 2.0066386416928524E8 ; 1.0112557415488867E9 ; 9.80971260778869E9 ; 0.0
58 ; 1.84254229221919E7 ; 2.006687849975273E8 ; 1.0296806823985959E9 ; 1.0010376471957975E10 ; 0.0
59 ; 1.8431340881914545E7 ; 2.006737365101124E8 ; 1.0481061053207878E9 ; 1.0211045256955503E10 ; 0.0
60 ; 1.843217958801757E7 ; 2.0067871713384968E8 ; 1.0665374462027023E9 ; 1.0411718993465616E10 ; 0.0
61 ; 1.843947947517944E7 ; 2.006837253633019E8 ; 1.0849696257907197E9 ; 1.0612397710599466E10 ; 0.0
62 ; 1.8438977503594186E7 ; 2.006887597575727E8 ; 1.1034091052658992E9 ; 1.0813081435962769E10 ; 0.0
63 ; 1.8443808899630725E7 ; 2.0069381893721583E8 ; 1.1218480827694933E9 ; 1.101377019572034E10 ; 0.0
64 ; 1.844561797001946E7 ; 2.006989015812675E8 ; 1.1402918916691241E9 ; 1.1214464014657557E10 ; 0.0
65 ; 1.8454268938183375E7 ; 2.00704006424403E8 ; 1.1587375096391435E9 ; 1.1415162916238825E10 ; 0.0
66 ; 1.845192342861969E7 ; 2.0070913225421625E8 ; 1.1771917785773268E9 ; 1.1615866922663227E10 ; 0.0
67 ; 1.8453942083078258E7 ; 2.0071427790862054E8 ; 1.1956437020059464E9 ; 1.1816576054917444E10 ; 0.0
68 ; 1.845712963557202E7 ; 2.0071944227336907E8 ; 1.2140976440890245E9 ; 1.2017290332826065E10 ; 0.0
69 ; 1.8457322993032955E7 ; 2.0072462427969125E8 ; 1.2325547737245965E9 ; 1.2218009775099434E10 ; 0.0
70 ; 1.846374738868031E7 ; 2.0072982290204227E8 ; 1.2510120967176294E9 ; 1.2418734399379126E10 ; 0.0
71 ; 1.8458094569093775E7 ; 2.007350371559621E8 ; 1.2694758441063097E9 ; 1.2619464222281168E10 ; 0.0
72 ; 1.84603070109228E7 ; 2.007402660960403E8 ; 1.2879339386754034E9 ; 1.282019925943713E10 ; 0.0
73 ; 1.8461473344847426E7 ; 2.0074550881398198E8 ; 1.3063942456863263E9 ; 1.302093952553317E10 ; 0.0
74 ; 1.846857325031303E7 ; 2.0075076443677184E8 ; 1.3248557190311737E9 ; 1.3221685034347153E10 ; 0.0
75 ; 1.846216221666238E7 ; 2.0075603212493154E8 ; 1.3433242922814867E9 ; 1.3422435798783924E10 ; 0.0
76 ; 1.8466268549490035E7 ; 2.007613110708663E8 ; 1.3617864544981492E9 ; 1.3623191830908855E10 ; 0.0
77 ; 1.8464352820539102E7 ; 2.0076660049729696E8 ; 1.3802527230476391E9 ; 1.3823953141979721E10 ; 0.0
78 ; 1.8464638953789648E7 ; 2.007718996557735E8 ; 1.3987170758681781E9 ; 1.4024719742477018E10 ; 0.0
79 ; 1.845681975022859E7 ; 2.0077720782526577E8 ; 1.4171817148219678E9 ; 1.4225491642132792E10 ; 0.0
80 ; 1.844983884080233E7 ; 2.0078252431082788E8 ; 1.4356385345721965E9 ; 1.4426268849958057E10 ; 0.0
81 ; 1.8448528109506704E7 ; 2.0078784844233295E8 ; 1.454088373412999E9 ; 1.4627051374268885E10 ; 0.0
82 ; 1.843634002356784E7 ; 2.007931795732736E8 ; 1.4725369015225055E9 ; 1.4827839222711218E10 ; 0.0
83 ; 1.8432205082429614E7 ; 2.0079851707962617E8 ; 1.4909732415460734E9 ; 1.502863240228449E10 ; 0.0
84 ; 1.842760839456774E7 ; 2.0080386035877413E8 ; 1.509405446628503E9 ; 1.5229430919364117E10 ; 0.0
85 ; 1.841828634573294E7 ; 2.0080920882848835E8 ; 1.5278330550230708E9 ; 1.543023477972289E10 ; 0.0
86 ; 1.841376806952869E7 ; 2.0081456192596096E8 ; 1.5462513413688037E9 ; 1.563104398855138E10 ; 0.0
87 ; 1.8407928153540056E7 ; 2.0081991910688975E8 ; 1.5646651094383323E9 ; 1.583185855047734E10 ; 0.0
88 ; 1.8405903326552406E7 ; 2.008252798446108E8 ; 1.5830730375918725E9 ; 1.603267846958423E10 ; 0.0
89 ; 1.83925460120322E7 ; 2.0083064362927634E8 ; 1.6014789409184248E9 ; 1.623350374942884E10 ; 0.0
90 ; 1.8385852060308587E7 ; 2.008360099670757E8 ; 1.619871486930457E9 ; 1.6434334393058117E10 ; 0.0
91 ; 1.8378793693900634E7 ; 2.0084137837949684E8 ; 1.6382573389907658E9 ; 1.6635170403025192E10 ; 0.0
92 ; 1.837462252592066E7 ; 2.008467484026261E8 ; 1.6566361326846664E9 ; 1.683601178140469E10 ; 0.0
93 ; 1.836049105964351E7 ; 2.0085211958648455E8 ; 1.675010755210587E9 ; 1.7036858529807316E10 ; 0.0
94 ; 1.835491819954679E7 ; 2.0085749149439847E8 ; 1.6933712462702305E9 ; 1.72377106493938E10 ; 0.0
95 ; 1.8348144531850178E7 ; 2.0086286370240223E8 ; 1.7117261644697773E9 ; 1.74385681408882E10 ; 0.0
96 ; 1.8337362478030223E7 ; 2.0086823579867187E8 ; 1.7300743090016274E9 ; 1.7639431004590603E10 ; 0.0
97 ; 1.832743678100422E7 ; 2.0087360738298777E8 ; 1.7484116714796576E9 ; 1.7840299240389275E10 ; 0.0
98 ; 1.832193231864189E7 ; 2.0087897806622455E8 ; 1.7667391082606618E9 ; 1.8041172847772263E10 ; 0.0
99 ; 1.831579752986994E7 ; 2.0088434746986693E8 ; 1.7850610405793037E9 ; 1.8242051825838486E10 ; 0.0
100 ; 1.830110519313607E7 ; 2.0088971522555E8 ; 1.8033768381091738E9 ; 1.8442936173308353E10 ; 0.0
101 ; 1.829384592314614E7 ; 2.0089508097462285E8 ; 1.8216779433023098E9 ; 1.8643825888533905E10 ; 0.0
102 ; 1.8284081544873614E7 ; 2.009004443677337E8 ; 1.839971789225456E9 ; 1.884472096950853E10 ; 0.0
103 ; 1.8274350309243564E7 ; 2.0090580506443617E8 ; 1.8582558707703297E9 ; 1.9045621413876263E10 ; 0.0
104 ; 1.8269202657996573E7 ; 2.009111627328148E8 ; 1.8765302210795734E9 ; 1.92465272189407E10 ; 0.0
105 ; 1.82576432902588E7 ; 2.0091651704912913E8 ; 1.89479942373757E9 ; 1.9447438381673515E10 ; 0.0
106 ; 1.824808554749179E7 ; 2.009218676974755E8 ; 1.913057067027829E9 ; 1.9648354898722645E10 ; 0.0
107 ; 1.8240256161286052E7 ; 2.009272143694651E8 ; 1.9313051525753207E9 ; 1.984927676642012E10 ; 0.0
108 ; 1.8228139935165357E7 ; 2.0093255676391813E8 ; 1.9495454087366068E9 ; 2.0050203980789585E10 ; 0.0
109 ; 1.821130446421841E7 ; 2.0093789458657238E8 ; 1.9677735486717722E9 ; 2.0251136537553505E10 ; 0.0
110 ; 1.8205109030422226E7 ; 2.0094322754980612E8 ; 1.9859848531359906E9 ; 2.0452074432140076E10 ; 0.0
111 ; 1.819409510723955E7 ; 2.0094855537237424E8 ; 2.0041899621664128E9 ; 2.065301765968988E10 ; 0.0
112 ; 1.8183316085157607E7 ; 2.0095387777915713E8 ; 2.0223840572736523E9 ; 2.0853966215062256E10 ; 0.0
113 ; 1.816956520526538E7 ; 2.0095919450092128E8 ; 2.04056737335881E9 ; 2.105492009284141E10 ; 0.0
114 ; 1.8156556920165863E7 ; 2.009645052740913E8 ; 2.0587369385640752E9 ; 2.1255879287342335E10 ; 0.0
115 ; 1.815089821134613E7 ; 2.0096980984053284E8 ; 2.076893495484241E9 ; 2.1456843792616425E10 ; 0.0
116 ; 1.8137781211302653E7 ; 2.0097510794734547E8 ; 2.0950443936955872E9 ; 2.165781360245696E10 ; 0.0
117 ; 1.812317174505711E7 ; 2.0098039934666523E8 ; 2.11318217490689E9 ; 2.1858788710404305E10 ; 0.0
118 ; 1.8111876267869875E7 ; 2.009856837954765E8 ; 2.131305346651947E9 ; 2.205976910975097E10 ; 0.0
119 ; 1.8096455897556223E7 ; 2.0099096105543238E8 ; 2.149417222919817E9 ; 2.2260754793546444E10 ; 0.0
120 ; 1.808641543331112E7 ; 2.0099623089268345E8 ; 2.1675136788173733E9 ; 2.2461745754601875E10 ; 0.0
121 ; 1.8075294390373375E7 ; 2.0100149307771417E8 ; 2.1856000942506843E9 ; 2.266274198549456E10 ; 0.0
122 ; 1.8058709202520046E7 ; 2.0100674738518697E8 ; 2.2036753886410575E9 ; 2.2863743478572273E10 ; 0.0
123 ; 1.8042783209392525E7 ; 2.010119935937931E8 ; 2.2217340978435774E9 ; 2.306475022595746E10 ; 0.0
124 ; 1.8030393395085145E7 ; 2.010172314861104E8 ; 2.23977688105297E9 ; 2.326576221955125E10 ; 0.0
125 ; 1.801824352884278E7 ; 2.0102246084846744E8 ; 2.2578072744480553E9 ; 2.346677945103736E10 ; 0.0
126 ; 1.8007698625464454E7 ; 2.0102768147081345E8 ; 2.275825517976898E9 ; 2.366780191188583E10 ; 0.0
127 ; 1.799969000929358E7 ; 2.010328931465944E8 ; 2.2938332166023626E9 ; 2.3868829593356644E10 ; 0.0
128 ; 1.7973567949179128E7 ; 2.0103809567263418E8 ; 2.311832906611656E9 ; 2.406986248650324E10 ; 0.0
129 ; 1.796498031905939E7 ; 2.010432888490212E8 ; 2.3298064745608354E9 ; 2.4270900582175873E10 ; 0.0
130 ; 1.7945403155282754E7 ; 2.0104847247899988E8 ; 2.3477714548798947E9 ; 2.4471943871024895E10 ; 0.0
131 ; 1.7924837189157795E7 ; 2.0105364636886686E8 ; 2.3657168580351777E9 ; 2.4672992343503895E10 ; 0.0
132 ; 1.7905787652541935E7 ; 2.010588103278717E8 ; 2.3836416952243357E9 ; 2.487404598987276E10 ; 0.0
133 ; 1.78855797342845E7 ; 2.0106396416812178E8 ; 2.401547482876878E9 ; 2.5075104800200634E10 ; 0.0
134 ; 1.7861515991990663E7 ; 2.0106910770449138E8 ; 2.419433062611162E9 ; 2.5276168764368755E10 ; 0.0
135 ; 1.7839001023950126E7 ; 2.0107424075453445E8 ; 2.4372945786031528E9 ; 2.5477237872073246E10 ; 0.0
136 ; 1.7824561097863145E7 ; 2.010793631384014E8 ; 2.455133579627103E9 ; 2.567831211282778E10 ; 0.0
137 ; 1.7802803960117742E7 ; 2.01084474678759E8 ; 2.472958140724966E9 ; 2.5879391475966183E10 ; 0.0
138 ; 1.7780300659562144E7 ; 2.010895752007139E8 ; 2.490760944685084E9 ; 2.6080475950644943E10 ; 0.0
139 ; 1.7758968839063473E7 ; 2.0109466453173932E8 ; 2.508541245344646E9 ; 2.6281565525845657E10 ; 0.0
140 ; 1.773645890983114E7 ; 2.0109974250160468E8 ; 2.5263002141837096E9 ; 2.6482660190377396E10 ; 0.0
141 ; 1.7714822202058658E7 ; 2.0110480894230816E8 ; 2.5440366730935407E9 ; 2.6683759932879E10 ; 0.0
142 ; 1.769506649510119E7 ; 2.0110986368801218E8 ; 2.5617514952955995E9 ; 2.688486474182131E10 ; 0.0
143 ; 1.7670817297783926E7 ; 2.011149065749814E8 ; 2.5794465617907004E9 ; 2.708597460550932E10 ; 0.0
144 ; 1.764631524673E7 ; 2.0111993744152316E8 ; 2.5971173790884843E9 ; 2.72870895120843E10 ; 0.0
145 ; 1.763021700839976E7 ; 2.0112495612793058E8 ; 2.614763694335214E9 ; 2.7488209449525826E10 ; 0.0
146 ; 1.7621840766586017E7 ; 2.0112996247642776E8 ; 2.632393911343614E9 ; 2.7689334405653755E10 ; 0.0
147 ; 1.7601626401806522E7 ; 2.0113495633111727E8 ; 2.6500157521102E9 ; 2.7890464368130184E10 ; 0.0
148 ; 1.7587491640869826E7 ; 2.0113993753792977E8 ; 2.6676173785120063E9 ; 2.80915993244613E10 ; 0.0
149 ; 1.757283787392318E7 ; 2.0114490594457543E8 ; 2.685204870152876E9 ; 2.829273926199923E10 ; 0.0
150 ; 1.7557918493466787E7 ; 2.011498614004977E8 ; 2.702777708026799E9 ; 2.8493884167943806E10 ; 0.0
151 ; 1.7540349989321582E7 ; 2.011548037568285E8 ; 2.720335626520266E9 ; 2.8695034029344303E10 ; 0.0
152 ; 1.7525541695365224E7 ; 2.011597328663453E8 ; 2.737875976509588E9 ; 2.889618883310113E10 ; 0.0
153 ; 1.7508128929705177E7 ; 2.0116464858343002E8 ; 2.755401518204953E9 ; 2.9097348565967476E10 ; 0.0
154 ; 1.7487123547462173E7 ; 2.011695507640294E8 ; 2.7729096471346583E9 ; 2.9298513214550907E10 ; 0.0
155 ; 1.747592620139397E7 ; 2.0117443926561695E8 ; 2.7903967706821203E9 ; 2.9499682765314938E10 ; 0.0
156 ; 1.7459947661883608E7 ; 2.011793139471563E8 ; 2.8078726968835144E9 ; 2.9700857204580555E10 ; 0.0
157 ; 1.744138124644042E7 ; 2.0118417466906613E8 ; 2.825332644545398E9 ; 2.990203651852771E10 ; 0.0
158 ; 1.743087460108676E7 ; 2.0118902129318634E8 ; 2.8427740257918386E9 ; 3.0103220693196777E10 ; 0.0
159 ; 1.7407919701969285E7 ; 2.0119385368274546E8 ; 2.8602049003929253E9 ; 3.0304409714489964E10 ; 0.0
160 ; 1.7390109667221826E7 ; 2.0119867170232943E8 ; 2.8776128200948944E9 ; 3.050560356817271E10 ; 0.0
161 ; 1.7375710647622004E7 ; 2.0120347521785158E8 ; 2.8950029297621164E9 ; 3.070680223987504E10 ; 0.0
162 ; 1.736159088260415E7 ; 2.0120826409652352E8 ; 2.9123786404097385E9 ; 3.0908005715092888E10 ; 0.0
163 ; 1.734500406422009E7 ; 2.0121303820682746E8 ; 2.9297402312923427E9 ; 3.110921397918941E10 ; 0.0
164 ; 1.732266108065386E7 ; 2.0121779741848928E8 ; 2.9470852353565626E9 ; 3.131042701739624E10 ; 0.0
165 ; 1.73093681462972E7 ; 2.0122254160245284E8 ; 2.9644078964372163E9 ; 3.1511644814814728E10 ; 0.0
166 ; 1.7290029047613695E7 ; 2.0122727063085502E8 ; 2.9817172645835133E9 ; 3.171286735641718E10 ; 0.0
167 ; 1.7275180565402925E7 ; 2.0123198437700197E8 ; 2.999007293631127E9 ; 3.1914094627048035E10 ; 0.0
168 ; 1.725959342829078E7 ; 2.0123668271534595E8 ; 3.01628247419653E9 ; 3.2115326611425037E10 ; 0.0
169 ; 1.723598990581581E7 ; 2.0124136552146327E8 ; 3.0335420676248207E9 ; 3.2316563294140385E10 ; 0.0
170 ; 1.7223462022138778E7 ; 2.0124603267203283E8 ; 3.0507780575306363E9 ; 3.2517804659661846E10 ; 0.0
171 ; 1.720517231539063E7 ; 2.012506840448157E8 ; 3.068001519552775E9 ; 3.2719050692333878E10 ; 0.0
172 ; 1.7187604213933416E7 ; 2.012553195186352E8 ; 3.0852066918681655E9 ; 3.2920301376378693E10 ; 0.0
173 ; 1.7170708758934863E7 ; 2.0125993897335792E8 ; 3.102394296082099E9 ; 3.3121556695897327E10 ; 0.0
174 ; 1.7158746468225304E7 ; 2.0126454228987518E8 ; 3.119565004841034E9 ; 3.3322816634870686E10 ; 0.0
175 ; 1.7148100822692834E7 ; 2.0126912935008556E8 ; 3.1367237513092594E9 ; 3.352408117716056E10 ; 0.0
176 ; 1.7139602452974245E7 ; 2.0127370003687754E8 ; 3.1538718521319523E9 ; 3.3725350306510647E10 ; 0.0
177 ; 1.712753897807946E7 ; 2.0127825423411334E8 ; 3.1710114545849266E9 ; 3.3926624006547523E10 ; 0.0
178 ; 1.7119768399402004E7 ; 2.012827918266128E8 ; 3.188138993563006E9 ; 3.4127902260781635E10 ; 0.0
179 ; 1.710929114784395E7 ; 2.0128731270013827E8 ; 3.205258761962408E9 ; 3.432918505260825E10 ; 0.0
180 ; 1.709711564102438E7 ; 2.012918167413799E8 ; 3.222368053110252E9 ; 3.453047236530839E10 ; 0.0
181 ; 1.708412937146485E7 ; 2.0129630383794117E8 ; 3.2394651687512765E9 ; 3.473176418204977E10 ; 0.0
182 ; 1.7076931662422195E7 ; 2.013007738783256E8 ; 3.256549298122741E9 ; 3.493306048588771E10 ; 0.0
183 ; 1.706692877583982E7 ; 2.013052267519232E8 ; 3.2736262297851634E9 ; 3.513436125976604E10 ; 0.0
184 ; 1.7054074565133244E7 ; 2.013096623489979E8 ; 3.290693158561003E9 ; 3.533566648651796E10 ; 0.0
185 ; 1.7045519414126612E7 ; 2.0131408056067523E8 ; 3.3077472331261363E9 ; 3.553697614886696E10 ; 0.0
186 ; 1.7030845709220227E7 ; 2.013184812789305E8 ; 3.3247927525402627E9 ; 3.5738290229427635E10 ; 0.0
187 ; 1.70247573932976E7 ; 2.013228643965773E8 ; 3.341823598249483E9 ; 3.5939608710706566E10 ; 0.0
188 ; 1.7009084400627255E7 ; 2.013272298072566E8 ; 3.358848355642781E9 ; 3.614093157510314E10 ; 0.0
189 ; 1.7000943050699178E7 ; 2.0133157740542614E8 ; 3.375857440043408E9 ; 3.63422588049104E10 ; 0.0
190 ; 1.6991174962164678E7 ; 2.0133590708634993E8 ; 3.392858383094107E9 ; 3.654359038231583E10 ; 0.0
191 ; 1.6978892017573897E7 ; 2.0134021874608868E8 ; 3.409849558056272E9 ; 3.6744926289402176E10 ; 0.0
192 ; 1.696584346867574E7 ; 2.0134451228149006E8 ; 3.426828450073846E9 ; 3.694626650814826E10 ; 0.0
193 ; 1.6960924106057625E7 ; 2.0134878759017956E8 ; 3.4437942935425215E9 ; 3.714761102042975E10 ; 0.0
194 ; 1.694958427097033E7 ; 2.013530445705516E8 ; 3.460755217648579E9 ; 3.734895980801993E10 ; 0.0
195 ; 1.6938425668230515E7 ; 2.01357283121761E8 ; 3.4777048019195495E9 ; 3.755031285259048E10 ; 0.0
