CSV File for the City 1 on Day 20
1 - Minute m 
2 - Power Consumed at minute m 
3 - Power Produced at minute m 
4 - Energy Consumed since the beginning of the day 
5 - Energy Produced since the beginning of the day 
6 - Energy Lost since the beginning of the day on lines starting from the city
 
0 ; 1.1845753268991448E7 ; 1.4058910776627202E7 ; 0.0 ; 0.0 ; 0.0
1 ; 1.1853923718133796E7 ; 1.4058910776627202E7 ; 1.1845753268991448E7 ; 1.4058910776627202E7 ; 0.0
2 ; 1.1868444303192733E7 ; 1.4058910776627202E7 ; 2.3699676987125244E7 ; 2.8117821553254403E7 ; 0.0
3 ; 1.1885210482694488E7 ; 1.4058910776627202E7 ; 3.5568121290317975E7 ; 4.217673232988161E7 ; 0.0
4 ; 1.189839686016132E7 ; 1.4058910776627202E7 ; 4.745333177301246E7 ; 5.623564310650881E7 ; 0.0
5 ; 1.1925283368918976E7 ; 1.4058910776627202E7 ; 5.935172863317378E7 ; 7.0294553883136E7 ; 0.0
6 ; 1.1953078962504616E7 ; 1.4058910776627202E7 ; 7.127701200209275E7 ; 8.43534646597632E7 ; 0.0
7 ; 1.1994186625705956E7 ; 1.4058910776627202E7 ; 8.323009096459736E7 ; 9.84123754363904E7 ; 0.0
8 ; 1.2051504334449215E7 ; 1.4058910776627202E7 ; 9.522427759030332E7 ; 1.124712862130176E8 ; 0.0
9 ; 1.2141879308381664E7 ; 1.4058910776627202E7 ; 1.0727578192475253E8 ; 1.265301969896448E8 ; 0.0
10 ; 1.2273453960843826E7 ; 1.4058910776627202E7 ; 1.194176612331342E8 ; 1.40589107766272E8 ; 0.0
11 ; 1.2489032289299846E7 ; 1.4058910776627202E7 ; 1.3169111519397803E8 ; 1.5464801854289922E8 ; 0.0
12 ; 1.2830689038754037E7 ; 1.4058910776627202E7 ; 1.4418014748327786E8 ; 1.6870692931952643E8 ; 0.0
13 ; 1.3169111371441875E7 ; 1.4058910776627202E7 ; 1.570108365220319E8 ; 1.8276584009615365E8 ; 0.0
14 ; 1.3209332729470655E7 ; 1.4058910776627202E7 ; 1.7017994789347377E8 ; 1.9682475087278086E8 ; 0.0
15 ; 1.3222325669634411E7 ; 1.4058910776627202E7 ; 1.833892806229444E8 ; 2.1088366164940807E8 ; 0.0
16 ; 1.3237167000260385E7 ; 1.4058910776627202E7 ; 1.9661160629257882E8 ; 2.2494257242603528E8 ; 0.0
17 ; 1.3253320789920112E7 ; 1.4058910776627202E7 ; 2.098487732928392E8 ; 2.390014832026625E8 ; 0.0
18 ; 1.3267854129083421E7 ; 1.4058910776627202E7 ; 2.2310209408275932E8 ; 2.530603939792897E8 ; 0.0
19 ; 1.3283592947027868E7 ; 1.4058910776627202E7 ; 2.3636994821184275E8 ; 2.6711930475591692E8 ; 0.0
20 ; 1.3296826034020422E7 ; 1.4058910776627202E7 ; 2.496535411588706E8 ; 2.8117821553254414E8 ; 0.0
21 ; 1.3316675118510664E7 ; 1.4058910776627202E7 ; 2.6295036719289103E8 ; 2.952371263091713E8 ; 0.0
22 ; 1.333101419443021E7 ; 1.4058910776627202E7 ; 2.762670423114017E8 ; 3.092960370857985E8 ; 0.0
23 ; 1.3347982482288405E7 ; 1.4058910776627202E7 ; 2.8959805650583196E8 ; 3.233549478624257E8 ; 0.0
24 ; 1.3361730647783598E7 ; 1.4058910776627202E7 ; 3.029460389881204E8 ; 3.3741385863905287E8 ; 0.0
25 ; 1.3378750696204793E7 ; 1.4058910776627202E7 ; 3.1630776963590395E8 ; 3.5147276941568005E8 ; 0.0
26 ; 1.3394375557718337E7 ; 1.4058910776627202E7 ; 3.2968652033210874E8 ; 3.6553168019230723E8 ; 0.0
27 ; 1.3409431593799047E7 ; 1.4058910776627202E7 ; 3.430808958898271E8 ; 3.795905909689344E8 ; 0.0
28 ; 1.342440454100992E7 ; 1.4058910776627202E7 ; 3.564903274836261E8 ; 3.936495017455616E8 ; 0.0
29 ; 1.34400705154698E7 ; 1.4058910776627202E7 ; 3.6991473202463603E8 ; 4.077084125221888E8 ; 0.0
30 ; 1.3451452064209681E7 ; 1.4058910776627202E7 ; 3.833548025401058E8 ; 4.2176732329881597E8 ; 0.0
31 ; 1.3469167643905196E7 ; 1.4058910776627202E7 ; 3.968062546043155E8 ; 4.3582623407544315E8 ; 0.0
32 ; 1.3482696420673989E7 ; 1.4058910776627202E7 ; 4.1027542224822074E8 ; 4.4988514485207033E8 ; 0.0
33 ; 1.3493076968906663E7 ; 1.4058910776627202E7 ; 4.237581186688947E8 ; 4.639440556286975E8 ; 0.0
34 ; 1.3505628251154924E7 ; 1.4058910776627202E7 ; 4.3725119563780135E8 ; 4.780029664053247E8 ; 0.0
35 ; 1.3521400719840927E7 ; 1.4058910776627202E7 ; 4.5075682388895625E8 ; 4.920618771819519E8 ; 0.0
36 ; 1.3532165937300645E7 ; 1.4058910776627202E7 ; 4.642782246087972E8 ; 5.0612078795857906E8 ; 0.0
37 ; 1.3546566372452445E7 ; 1.4058910776627202E7 ; 4.778103905460978E8 ; 5.2017969873520625E8 ; 0.0
38 ; 1.3558738255843604E7 ; 1.4058910776627202E7 ; 4.9135695691855025E8 ; 5.342386095118334E8 ; 0.0
39 ; 1.3564498367676461E7 ; 1.4058910776627202E7 ; 5.0491569517439383E8 ; 5.482975202884606E8 ; 0.0
40 ; 1.35760725961179E7 ; 1.4058910776627202E7 ; 5.1848019354207027E8 ; 5.623564310650878E8 ; 0.0
41 ; 1.3583921217920966E7 ; 1.4058910776627202E7 ; 5.320562661381882E8 ; 5.76415341841715E8 ; 0.0
42 ; 1.3596625572588779E7 ; 1.4058910776627202E7 ; 5.456401873561091E8 ; 5.904742526183422E8 ; 0.0
43 ; 1.360469392971716E7 ; 1.4058910776627202E7 ; 5.59236812928698E8 ; 6.045331633949693E8 ; 0.0
44 ; 1.3613125833259888E7 ; 1.4058910776627202E7 ; 5.728415068584151E8 ; 6.185920741715965E8 ; 0.0
45 ; 1.3620222708894119E7 ; 1.4058910776627202E7 ; 5.864546326916751E8 ; 6.326509849482237E8 ; 0.0
46 ; 1.3626627872085681E7 ; 1.4058910776627202E7 ; 6.000748554005692E8 ; 6.467098957248509E8 ; 0.0
47 ; 1.363471603338779E7 ; 1.4058910776627202E7 ; 6.137014832726549E8 ; 6.607688065014781E8 ; 0.0
48 ; 1.3640228807045972E7 ; 1.4058910776627202E7 ; 6.273361993060427E8 ; 6.748277172781053E8 ; 0.0
49 ; 1.3642322377416136E7 ; 1.4058910776627202E7 ; 6.409764281130886E8 ; 6.888866280547324E8 ; 0.0
50 ; 1.3648056658158783E7 ; 1.4058910776627202E7 ; 6.546187504905047E8 ; 7.029455388313596E8 ; 0.0
51 ; 1.364749069141102E7 ; 1.4058910776627202E7 ; 6.682668071486635E8 ; 7.170044496079868E8 ; 0.0
52 ; 1.365522440654805E7 ; 1.4058910776627202E7 ; 6.819142978400745E8 ; 7.31063360384614E8 ; 0.0
53 ; 1.3663122272867212E7 ; 1.4058910776627202E7 ; 6.955695222466226E8 ; 7.451222711612412E8 ; 0.0
54 ; 1.3660902614899712E7 ; 1.4058910776627202E7 ; 7.092326445194898E8 ; 7.591811819378684E8 ; 0.0
55 ; 1.366830767041104E7 ; 1.4058910776627202E7 ; 7.228935471343895E8 ; 7.732400927144955E8 ; 0.0
56 ; 1.3668445939269528E7 ; 1.4058910776627202E7 ; 7.365618548048005E8 ; 7.872990034911227E8 ; 0.0
57 ; 1.3670720582891406E7 ; 1.4058910776627202E7 ; 7.5023030074407E8 ; 8.013579142677499E8 ; 0.0
58 ; 1.3673807157902766E7 ; 1.4058910776627202E7 ; 7.639010213269615E8 ; 8.154168250443771E8 ; 0.0
59 ; 1.3675507854614258E7 ; 1.4058910776627202E7 ; 7.775748284848642E8 ; 8.294757358210043E8 ; 0.0
60 ; 1.3683047873188002E7 ; 1.4058910776627202E7 ; 7.912503363394785E8 ; 8.435346465976315E8 ; 0.0
61 ; 1.3683728727495754E7 ; 1.4058910776627202E7 ; 8.049333842126665E8 ; 8.575935573742586E8 ; 0.0
62 ; 1.368569160047465E7 ; 1.4058910776627202E7 ; 8.186171129401623E8 ; 8.716524681508858E8 ; 0.0
63 ; 1.3691608963338187E7 ; 1.4058910776627202E7 ; 8.323028045406369E8 ; 8.85711378927513E8 ; 0.0
64 ; 1.3689447644930668E7 ; 1.4058910776627202E7 ; 8.45994413503975E8 ; 8.997702897041402E8 ; 0.0
65 ; 1.3695509146044644E7 ; 1.4058910776627202E7 ; 8.596838611489058E8 ; 9.138292004807674E8 ; 0.0
66 ; 1.3693666027278489E7 ; 1.4058910776627202E7 ; 8.733793702949504E8 ; 9.278881112573946E8 ; 0.0
67 ; 1.3696759423785882E7 ; 1.4058910776627202E7 ; 8.870730363222289E8 ; 9.419470220340217E8 ; 0.0
68 ; 1.3697909168211654E7 ; 1.4058910776627202E7 ; 9.007697957460148E8 ; 9.560059328106489E8 ; 0.0
69 ; 1.369986633384435E7 ; 1.4058910776627202E7 ; 9.144677049142265E8 ; 9.700648435872761E8 ; 0.0
70 ; 1.37017775096622E7 ; 1.4058910776627202E7 ; 9.281675712480708E8 ; 9.841237543639033E8 ; 0.0
71 ; 1.3701831692807185E7 ; 1.4058910776627202E7 ; 9.41869348757733E8 ; 9.981826651405305E8 ; 0.0
72 ; 1.3700521676791675E7 ; 1.4058910776627202E7 ; 9.555711804505402E8 ; 1.0122415759171576E9 ; 0.0
73 ; 1.3706003323673917E7 ; 1.4058910776627202E7 ; 9.692717021273319E8 ; 1.0263004866937848E9 ; 0.0
74 ; 1.370286212259143E7 ; 1.4058910776627202E7 ; 9.829777054510058E8 ; 1.040359397470412E9 ; 0.0
75 ; 1.370832113548162E7 ; 1.4058910776627202E7 ; 9.966805675735972E8 ; 1.0544183082470392E9 ; 0.0
76 ; 1.3705743786822239E7 ; 1.4058910776627202E7 ; 1.0103888887090788E9 ; 1.0684772190236664E9 ; 0.0
77 ; 1.3703390915838959E7 ; 1.4058910776627202E7 ; 1.024094632495901E9 ; 1.0825361298002937E9 ; 0.0
78 ; 1.3704570636482682E7 ; 1.4058910776627202E7 ; 1.03779802341174E9 ; 1.096595040576921E9 ; 0.0
79 ; 1.3701970156187162E7 ; 1.4058910776627202E7 ; 1.0515025940482227E9 ; 1.1106539513535483E9 ; 0.0
80 ; 1.3692818306835417E7 ; 1.4058910776627202E7 ; 1.0652045642044098E9 ; 1.1247128621301756E9 ; 0.0
81 ; 1.3688228849525172E7 ; 1.4058910776627202E7 ; 1.0788973825112453E9 ; 1.138771772906803E9 ; 0.0
82 ; 1.368505947935535E7 ; 1.4058910776627202E7 ; 1.0925856113607705E9 ; 1.1528306836834302E9 ; 0.0
83 ; 1.3680104395522099E7 ; 1.4058910776627202E7 ; 1.1062706708401258E9 ; 1.1668895944600575E9 ; 0.0
84 ; 1.3675174133795314E7 ; 1.4058910776627202E7 ; 1.119950775235648E9 ; 1.1809485052366848E9 ; 0.0
85 ; 1.367426594249028E7 ; 1.4058910776627202E7 ; 1.1336259493694432E9 ; 1.195007416013312E9 ; 0.0
86 ; 1.3669106949856471E7 ; 1.4058910776627202E7 ; 1.1473002153119335E9 ; 1.2090663267899394E9 ; 0.0
87 ; 1.3661221620323954E7 ; 1.4058910776627202E7 ; 1.16096932226179E9 ; 1.2231252375665667E9 ; 0.0
88 ; 1.3653398575461695E7 ; 1.4058910776627202E7 ; 1.174630543882114E9 ; 1.237184148343194E9 ; 0.0
89 ; 1.3652304995222835E7 ; 1.4058910776627202E7 ; 1.1882839424575756E9 ; 1.2512430591198213E9 ; 0.0
90 ; 1.3643168489190785E7 ; 1.4058910776627202E7 ; 1.2019362474527984E9 ; 1.2653019698964486E9 ; 0.0
91 ; 1.3638874863669612E7 ; 1.4058910776627202E7 ; 1.2155794159419892E9 ; 1.279360880673076E9 ; 0.0
92 ; 1.3635281385424938E7 ; 1.4058910776627202E7 ; 1.2292182908056588E9 ; 1.2934197914497032E9 ; 0.0
93 ; 1.3631027733582785E7 ; 1.4058910776627202E7 ; 1.2428535721910837E9 ; 1.3074787022263305E9 ; 0.0
94 ; 1.3621830661514016E7 ; 1.4058910776627202E7 ; 1.2564845999246664E9 ; 1.3215376130029578E9 ; 0.0
95 ; 1.36149759141455E7 ; 1.4058910776627202E7 ; 1.2701064305861804E9 ; 1.3355965237795851E9 ; 0.0
96 ; 1.3612395569852574E7 ; 1.4058910776627202E7 ; 1.283721406500326E9 ; 1.3496554345562124E9 ; 0.0
97 ; 1.3604817673133606E7 ; 1.4058910776627202E7 ; 1.2973338020701785E9 ; 1.3637143453328397E9 ; 0.0
98 ; 1.359874190462282E7 ; 1.4058910776627202E7 ; 1.3109386197433121E9 ; 1.377773256109467E9 ; 0.0
99 ; 1.3591179907843798E7 ; 1.4058910776627202E7 ; 1.324537361647935E9 ; 1.3918321668860943E9 ; 0.0
100 ; 1.3583854287291765E7 ; 1.4058910776627202E7 ; 1.3381285415557787E9 ; 1.4058910776627216E9 ; 0.0
101 ; 1.3578058166937951E7 ; 1.4058910776627202E7 ; 1.3517123958430705E9 ; 1.419949988439349E9 ; 0.0
102 ; 1.3571755134127399E7 ; 1.4058910776627202E7 ; 1.3652904540100086E9 ; 1.4340088992159762E9 ; 0.0
103 ; 1.3561810840890042E7 ; 1.4058910776627202E7 ; 1.378862209144136E9 ; 1.4480678099926035E9 ; 0.0
104 ; 1.3555848341318645E7 ; 1.4058910776627202E7 ; 1.392424019985026E9 ; 1.4621267207692308E9 ; 0.0
105 ; 1.355190618672001E7 ; 1.4058910776627202E7 ; 1.4059798683263445E9 ; 1.4761856315458581E9 ; 0.0
106 ; 1.3538909539502317E7 ; 1.4058910776627202E7 ; 1.4195317745130644E9 ; 1.4902445423224854E9 ; 0.0
107 ; 1.3536584620620642E7 ; 1.4058910776627202E7 ; 1.4330706840525668E9 ; 1.5043034530991127E9 ; 0.0
108 ; 1.3525454971396662E7 ; 1.4058910776627202E7 ; 1.4466072686731875E9 ; 1.51836236387574E9 ; 0.0
109 ; 1.3514520441274503E7 ; 1.4058910776627202E7 ; 1.4601327236445842E9 ; 1.5324212746523674E9 ; 0.0
110 ; 1.350819863332783E7 ; 1.4058910776627202E7 ; 1.4736472440858586E9 ; 1.5464801854289947E9 ; 0.0
111 ; 1.3498748682698527E7 ; 1.4058910776627202E7 ; 1.4871554427191863E9 ; 1.560539096205622E9 ; 0.0
112 ; 1.3491439905638762E7 ; 1.4058910776627202E7 ; 1.5006541914018848E9 ; 1.5745980069822493E9 ; 0.0
113 ; 1.3482394654995678E7 ; 1.4058910776627202E7 ; 1.5141456313075235E9 ; 1.5886569177588766E9 ; 0.0
114 ; 1.3475028783702752E7 ; 1.4058910776627202E7 ; 1.5276280259625192E9 ; 1.6027158285355039E9 ; 0.0
115 ; 1.346461275235705E7 ; 1.4058910776627202E7 ; 1.541103054746222E9 ; 1.6167747393121312E9 ; 0.0
116 ; 1.3455086845109632E7 ; 1.4058910776627202E7 ; 1.554567667498579E9 ; 1.6308336500887585E9 ; 0.0
117 ; 1.3445344844145209E7 ; 1.4058910776627202E7 ; 1.5680227543436887E9 ; 1.6448925608653858E9 ; 0.0
118 ; 1.3441164525424542E7 ; 1.4058910776627202E7 ; 1.581468099187834E9 ; 1.658951471642013E9 ; 0.0
119 ; 1.3427727977653058E7 ; 1.4058910776627202E7 ; 1.5949092637132585E9 ; 1.6730103824186404E9 ; 0.0
120 ; 1.3420264174378641E7 ; 1.4058910776627202E7 ; 1.6083369916909115E9 ; 1.6870692931952677E9 ; 0.0
121 ; 1.3408327915815866E7 ; 1.4058910776627202E7 ; 1.6217572558652902E9 ; 1.701128203971895E9 ; 0.0
122 ; 1.3400629484440323E7 ; 1.4058910776627202E7 ; 1.635165583781106E9 ; 1.7151871147485223E9 ; 0.0
123 ; 1.3389486080055268E7 ; 1.4058910776627202E7 ; 1.6485662132655463E9 ; 1.7292460255251496E9 ; 0.0
124 ; 1.3377573508484205E7 ; 1.4058910776627202E7 ; 1.6619556993456016E9 ; 1.743304936301777E9 ; 0.0
125 ; 1.336826629025067E7 ; 1.4058910776627202E7 ; 1.6753332728540857E9 ; 1.7573638470784042E9 ; 0.0
126 ; 1.3360086282469114E7 ; 1.4058910776627202E7 ; 1.6887015391443365E9 ; 1.7714227578550315E9 ; 0.0
127 ; 1.3347684364896853E7 ; 1.4058910776627202E7 ; 1.7020616254268055E9 ; 1.7854816686316588E9 ; 0.0
128 ; 1.3337390421690287E7 ; 1.4058910776627202E7 ; 1.7154093097917023E9 ; 1.799540579408286E9 ; 0.0
129 ; 1.3325017318766508E7 ; 1.4058910776627202E7 ; 1.7287467002133925E9 ; 1.8135994901849134E9 ; 0.0
130 ; 1.3314392048257066E7 ; 1.4058910776627202E7 ; 1.742071717532159E9 ; 1.8276584009615407E9 ; 0.0
131 ; 1.3297749963908995E7 ; 1.4058910776627202E7 ; 1.7553861095804162E9 ; 1.841717311738168E9 ; 0.0
132 ; 1.3282313114342093E7 ; 1.4058910776627202E7 ; 1.768683859544325E9 ; 1.8557762225147953E9 ; 0.0
133 ; 1.3266508986645233E7 ; 1.4058910776627202E7 ; 1.781966172658667E9 ; 1.8698351332914226E9 ; 0.0
134 ; 1.3252931305884225E7 ; 1.4058910776627202E7 ; 1.7952326816453123E9 ; 1.88389404406805E9 ; 0.0
135 ; 1.3233298061415205E7 ; 1.4058910776627202E7 ; 1.8084856129511964E9 ; 1.8979529548446772E9 ; 0.0
136 ; 1.3221031003009241E7 ; 1.4058910776627202E7 ; 1.8217189110126116E9 ; 1.9120118656213045E9 ; 0.0
137 ; 1.3205641923465192E7 ; 1.4058910776627202E7 ; 1.834939942015621E9 ; 1.9260707763979318E9 ; 0.0
138 ; 1.318882510135646E7 ; 1.4058910776627202E7 ; 1.8481455839390862E9 ; 1.940129687174559E9 ; 0.0
139 ; 1.3170206750249738E7 ; 1.4058910776627202E7 ; 1.8613344090404427E9 ; 1.9541885979511864E9 ; 0.0
140 ; 1.3151692855963502E7 ; 1.4058910776627202E7 ; 1.8745046157906923E9 ; 1.9682475087278137E9 ; 0.0
141 ; 1.3136775085193614E7 ; 1.4058910776627202E7 ; 1.8876563086466558E9 ; 1.982306419504441E9 ; 0.0
142 ; 1.312451334643603E7 ; 1.4058910776627202E7 ; 1.9007930837318494E9 ; 1.9963653302810683E9 ; 0.0
143 ; 1.3106013836000167E7 ; 1.4058910776627202E7 ; 1.9139175970782855E9 ; 2.0104242410576956E9 ; 0.0
144 ; 1.308591775407086E7 ; 1.4058910776627202E7 ; 1.9270236109142857E9 ; 2.024483151834323E9 ; 0.0
145 ; 1.3076647290668204E7 ; 1.4058910776627202E7 ; 1.9401095286683564E9 ; 2.0385420626109502E9 ; 0.0
146 ; 1.306422965144407E7 ; 1.4058910776627202E7 ; 1.9531861759590247E9 ; 2.0526009733875775E9 ; 0.0
147 ; 1.305317829652674E7 ; 1.4058910776627202E7 ; 1.9662504056104686E9 ; 2.0666598841642048E9 ; 0.0
148 ; 1.3043081222378E7 ; 1.4058910776627202E7 ; 1.9793035839069953E9 ; 2.0807187949408321E9 ; 0.0
149 ; 1.3027185919276945E7 ; 1.4058910776627202E7 ; 1.9923466651293733E9 ; 2.0947777057174594E9 ; 0.0
150 ; 1.3020719231817096E7 ; 1.4058910776627202E7 ; 2.0053738510486503E9 ; 2.1088366164940867E9 ; 0.0
151 ; 1.3009628987885151E7 ; 1.4058910776627202E7 ; 2.0183945702804673E9 ; 2.122895527270714E9 ; 0.0
152 ; 1.2992620812469639E7 ; 1.4058910776627202E7 ; 2.0314041992683525E9 ; 2.1369544380473413E9 ; 0.0
153 ; 1.2985478486576464E7 ; 1.4058910776627202E7 ; 2.0443968200808222E9 ; 2.1510133488239684E9 ; 0.0
154 ; 1.2970443354923226E7 ; 1.4058910776627202E7 ; 2.0573822985673988E9 ; 2.1650722596005955E9 ; 0.0
155 ; 1.2958873465287194E7 ; 1.4058910776627202E7 ; 2.070352741922322E9 ; 2.1791311703772225E9 ; 0.0
156 ; 1.2947466690291477E7 ; 1.4058910776627202E7 ; 2.0833116153876092E9 ; 2.1931900811538496E9 ; 0.0
157 ; 1.2938827772867491E7 ; 1.4058910776627202E7 ; 2.0962590820779006E9 ; 2.2072489919304767E9 ; 0.0
158 ; 1.2918594582385872E7 ; 1.4058910776627202E7 ; 2.109197909850768E9 ; 2.2213079027071037E9 ; 0.0
159 ; 1.2911157925519207E7 ; 1.4058910776627202E7 ; 2.1221165044331539E9 ; 2.235366813483731E9 ; 0.0
160 ; 1.2896273184282172E7 ; 1.4058910776627202E7 ; 2.135027662358673E9 ; 2.249425724260358E9 ; 0.0
161 ; 1.2885018956828756E7 ; 1.4058910776627202E7 ; 2.1479239355429554E9 ; 2.263484635036985E9 ; 0.0
162 ; 1.2869483287284218E7 ; 1.4058910776627202E7 ; 2.160808954499784E9 ; 2.277543545813612E9 ; 0.0
163 ; 1.285774538797452E7 ; 1.4058910776627202E7 ; 2.1736784377870684E9 ; 2.291602456590239E9 ; 0.0
164 ; 1.2847263330128742E7 ; 1.4058910776627202E7 ; 2.186536183175043E9 ; 2.305661367366866E9 ; 0.0
165 ; 1.2830268729951475E7 ; 1.4058910776627202E7 ; 2.199383446505172E9 ; 2.319720278143493E9 ; 0.0
166 ; 1.2819544999840448E7 ; 1.4058910776627202E7 ; 2.212213715235123E9 ; 2.3337791889201202E9 ; 0.0
167 ; 1.280818956671921E7 ; 1.4058910776627202E7 ; 2.2250332602349634E9 ; 2.3478380996967473E9 ; 0.0
168 ; 1.2796178711800655E7 ; 1.4058910776627202E7 ; 2.2378414498016825E9 ; 2.3618970104733744E9 ; 0.0
169 ; 1.2784994264511181E7 ; 1.4058910776627202E7 ; 2.250637628513483E9 ; 2.3759559212500014E9 ; 0.0
170 ; 1.2769934759103937E7 ; 1.4058910776627202E7 ; 2.263422622777994E9 ; 2.3900148320266285E9 ; 0.0
171 ; 1.2754919835427146E7 ; 1.4058910776627202E7 ; 2.276192557537098E9 ; 2.4040737428032556E9 ; 0.0
172 ; 1.2742911075671164E7 ; 1.4058910776627202E7 ; 2.288947477372525E9 ; 2.4181326535798826E9 ; 0.0
173 ; 1.2731303568643764E7 ; 1.4058910776627202E7 ; 2.3016903884481964E9 ; 2.4321915643565097E9 ; 0.0
174 ; 1.2720009606104912E7 ; 1.4058910776627202E7 ; 2.31442169201684E9 ; 2.4462504751331367E9 ; 0.0
175 ; 1.271341570982932E7 ; 1.4058910776627202E7 ; 2.327141701622945E9 ; 2.460309385909764E9 ; 0.0
176 ; 1.2703151814039525E7 ; 1.4058910776627202E7 ; 2.339855117332774E9 ; 2.474368296686391E9 ; 0.0
177 ; 1.2700870735141212E7 ; 1.4058910776627202E7 ; 2.352558269146814E9 ; 2.488427207463018E9 ; 0.0
178 ; 1.2690355328696309E7 ; 1.4058910776627202E7 ; 2.365259139881955E9 ; 2.502486118239645E9 ; 0.0
179 ; 1.2685901380640374E7 ; 1.4058910776627202E7 ; 2.3779494952106514E9 ; 2.516545029016272E9 ; 0.0
180 ; 1.26761859434023E7 ; 1.4058910776627202E7 ; 2.390635396591292E9 ; 2.530603939792899E9 ; 0.0
181 ; 1.267223715077446E7 ; 1.4058910776627202E7 ; 2.403311582534694E9 ; 2.544662850569526E9 ; 0.0
182 ; 1.2658693458582848E7 ; 1.4058910776627202E7 ; 2.4159838196854687E9 ; 2.5587217613461533E9 ; 0.0
183 ; 1.2650191762137672E7 ; 1.4058910776627202E7 ; 2.4286425131440516E9 ; 2.5727806721227803E9 ; 0.0
184 ; 1.2644560191758458E7 ; 1.4058910776627202E7 ; 2.4412927049061894E9 ; 2.5868395828994074E9 ; 0.0
185 ; 1.2635784162970485E7 ; 1.4058910776627202E7 ; 2.453937265097948E9 ; 2.6008984936760345E9 ; 0.0
186 ; 1.2626471113159671E7 ; 1.4058910776627202E7 ; 2.4665730492609186E9 ; 2.6149574044526615E9 ; 0.0
187 ; 1.2620704954848552E7 ; 1.4058910776627202E7 ; 2.4791995203740783E9 ; 2.6290163152292886E9 ; 0.0
188 ; 1.2614382708251957E7 ; 1.4058910776627202E7 ; 2.491820225328927E9 ; 2.6430752260059156E9 ; 0.0
189 ; 1.260591709884543E7 ; 1.4058910776627202E7 ; 2.504434608037179E9 ; 2.6571341367825427E9 ; 0.0
190 ; 1.2596705188586498E7 ; 1.4058910776627202E7 ; 2.5170405251360245E9 ; 2.67119304755917E9 ; 0.0
191 ; 1.2588234810212804E7 ; 1.4058910776627202E7 ; 2.529637230324611E9 ; 2.685251958335797E9 ; 0.0
192 ; 1.2577750531655438E7 ; 1.4058910776627202E7 ; 2.542225465134824E9 ; 2.699310869112424E9 ; 0.0
193 ; 1.257001197977266E7 ; 1.4058910776627202E7 ; 2.554803215666479E9 ; 2.713369779889051E9 ; 0.0
194 ; 1.256560798794771E7 ; 1.4058910776627202E7 ; 2.5673732276462517E9 ; 2.727428690665678E9 ; 0.0
195 ; 1.2557316996886406E7 ; 1.4058910776627202E7 ; 2.5799388356341996E9 ; 2.741487601442305E9 ; 0.0
196 ; 1.2549361884918787E7 ; 1.4058910776627202E7 ; 2.592496152631086E9 ; 2.755546512218932E9 ; 0.0
