CSV File for the City 1 on Day 107
1 - Minute m 
2 - Power Consumed at minute m 
3 - Power Produced at minute m 
4 - Energy Consumed since the beginning of the day 
5 - Energy Produced since the beginning of the day 
6 - Energy Lost since the beginning of the day on lines starting from the city
 
0 ; 1.615930699125847E7 ; 1.0555506880118343E8 ; 0.0 ; 0.0 ; 0.0
1 ; 1.617941271722506E7 ; 1.0570802464337361E8 ; 1.615930699125847E7 ; 1.0555506880118343E8 ; 0.0
2 ; 1.6192866200484712E7 ; 1.0616976184112987E8 ; 3.2338719708483532E7 ; 2.1126309344455704E8 ; 0.0
3 ; 1.6212770051420897E7 ; 1.0694028180224699E8 ; 4.853158590896824E7 ; 3.174328552856869E8 ; 0.0
4 ; 1.623844305721524E7 ; 1.080195857873748E8 ; 6.474435596038914E7 ; 4.243731370879339E8 ; 0.0
5 ; 1.6266510428191029E7 ; 1.0940767490336728E8 ; 8.098279901760438E7 ; 5.323927228753087E8 ; 0.0
6 ; 1.6309934869680999E7 ; 1.1110455009733716E8 ; 9.724930944579542E7 ; 6.41800397778676E8 ; 0.0
7 ; 1.6360942554566097E7 ; 1.131102121514895E8 ; 1.1355924431547642E8 ; 7.529049478760132E8 ; 0.0
8 ; 1.6439176079878561E7 ; 1.1542466167879951E8 ; 1.2992018687004252E8 ; 8.660151600275027E8 ; 0.0
9 ; 1.655678393363649E7 ; 1.1804789911959046E8 ; 1.4635936294992107E8 ; 9.814398217063022E8 ; 0.0
10 ; 1.6742688978509093E7 ; 1.2097992473905659E8 ; 1.6291614688355756E8 ; 1.0994877208258927E9 ; 0.0
11 ; 1.7027857486574702E7 ; 1.2422073862576333E8 ; 1.7965883586206666E8 ; 1.2204676455649493E9 ; 0.0
12 ; 1.7488983844706044E7 ; 1.2777034069114521E8 ; 1.9668669334864137E8 ; 1.3446883841907127E9 ; 0.0
13 ; 1.7939268656111926E7 ; 1.31628730670008E8 ; 2.141756771933474E8 ; 1.4724587248818579E9 ; 0.0
14 ; 1.7990089958650935E7 ; 1.3579590812202853E8 ; 2.3211494584945932E8 ; 1.6040874555518658E9 ; 0.0
15 ; 1.801328716028974E7 ; 1.4027187243423146E8 ; 2.5010503580811027E8 ; 1.7398833636738944E9 ; 0.0
16 ; 1.8029284266836643E7 ; 1.4505662282441184E8 ; 2.681183229684E8 ; 1.880155236108126E9 ; 0.0
17 ; 1.8057002730874877E7 ; 1.5015015834545687E8 ; 2.8614760723523664E8 ; 2.0252118589325378E9 ; 0.0
18 ; 1.8074561437395427E7 ; 1.555524778905126E8 ; 3.0420460996611154E8 ; 2.1753620172779946E9 ; 0.0
19 ; 1.809533871642233E7 ; 1.6126358019892916E8 ; 3.22279171403507E8 ; 2.330914495168507E9 ; 0.0
20 ; 1.811765020718846E7 ; 1.672834638629118E8 ; 3.403745101199293E8 ; 2.4921780753674364E9 ; 0.0
21 ; 1.8140046310594033E7 ; 1.7361212733479664E8 ; 3.584921603271178E8 ; 2.659461539230348E9 ; 0.0
22 ; 1.816475465646499E7 ; 1.8024956893486685E8 ; 3.766322066377118E8 ; 2.8330736665651445E9 ; 0.0
23 ; 1.818680407145808E7 ; 1.871957868596198E8 ; 3.947969612941768E8 ; 3.0133232355000114E9 ; 0.0
24 ; 1.8207925511496086E7 ; 1.9445077919039655E8 ; 4.129837653656349E8 ; 3.200519022359631E9 ; 0.0
25 ; 1.822986719477326E7 ; 2.0070258480046627E8 ; 4.31191690877131E8 ; 3.394969801550028E9 ; 0.0
26 ; 1.8250316810473047E7 ; 2.0070474940100664E8 ; 4.4942155807190424E8 ; 3.595672386350494E9 ; 0.0
27 ; 1.8268947321318343E7 ; 2.007070400751902E8 ; 4.6767187488237727E8 ; 3.7963771357515006E9 ; 0.0
28 ; 1.8292007701759335E7 ; 2.00709454534157E8 ; 4.859408222036956E8 ; 3.9970841758266907E9 ; 0.0
29 ; 1.831457072624703E7 ; 2.007119904194016E8 ; 5.0423282990545493E8 ; 4.1977936303608475E9 ; 0.0
30 ; 1.8335848517014287E7 ; 2.0071464531178632E8 ; 5.2254740063170195E8 ; 4.398505620780249E9 ; 0.0
31 ; 1.8350063807340674E7 ; 2.0071741674036303E8 ; 5.408832491487162E8 ; 4.599220266092035E9 ; 0.0
32 ; 1.8374126273328878E7 ; 2.0072030219094664E8 ; 5.592333129560568E8 ; 4.799937682832398E9 ; 0.0
33 ; 1.839056400459319E7 ; 2.0072329911439228E8 ; 5.776074392293857E8 ; 5.000657985023345E9 ; 0.0
34 ; 1.8416078929708906E7 ; 2.0072640493453363E8 ; 5.959980032339789E8 ; 5.201381284137737E9 ; 0.0
35 ; 1.8430459243463073E7 ; 2.007296170557489E8 ; 6.144140821636878E8 ; 5.402107689072271E9 ; 0.0
36 ; 1.8445363069743577E7 ; 2.0073293287012687E8 ; 6.328445414071509E8 ; 5.60283730612802E9 ; 0.0
37 ; 1.846947190684481E7 ; 2.007363497642123E8 ; 6.512899044768945E8 ; 5.803570238998147E9 ; 0.0
38 ; 1.8483166891103156E7 ; 2.0073986512531692E8 ; 6.697593763837394E8 ; 6.00430658876236E9 ; 0.0
39 ; 1.8500824211546294E7 ; 2.007434763473874E8 ; 6.882425432748425E8 ; 6.205046453887676E9 ; 0.0
40 ; 1.851518111243827E7 ; 2.0074718083642715E8 ; 7.067433674863888E8 ; 6.405789930235064E9 ; 0.0
41 ; 1.85246078069553E7 ; 2.0075097601547372E8 ; 7.252585485988271E8 ; 6.60653711107149E9 ; 0.0
42 ; 1.8542508517713904E7 ; 2.0075485932913768E8 ; 7.437831564057825E8 ; 6.807288087086964E9 ; 0.0
43 ; 1.855215183874266E7 ; 2.0075882824771217E8 ; 7.623256649234964E8 ; 7.008042946416101E9 ; 0.0
44 ; 1.8567510654692832E7 ; 2.0076288027086598E8 ; 7.80877816762239E8 ; 7.208801774663814E9 ; 0.0
45 ; 1.8572997648824893E7 ; 2.0076701293093482E8 ; 7.994453274169319E8 ; 7.40956465493468E9 ; 0.0
46 ; 1.8586542689215723E7 ; 2.0077122379582798E8 ; 8.180183250657568E8 ; 7.610331667865615E9 ; 0.0
47 ; 1.8596533533478275E7 ; 2.00775510471569E8 ; 8.366048677549726E8 ; 7.811102891661443E9 ; 0.0
48 ; 1.861257758640543E7 ; 2.0077987060448995E8 ; 8.552014012884508E8 ; 8.011878402133012E9 ; 0.0
49 ; 1.8615122473180823E7 ; 2.007843018830999E8 ; 8.738139788748562E8 ; 8.212658272737502E9 ; 0.0
50 ; 1.8617301772587206E7 ; 2.007888020396488E8 ; 8.92429101348037E8 ; 8.413442574620602E9 ; 0.0
51 ; 1.863193791941319E7 ; 2.0079336885140702E8 ; 9.110464031206242E8 ; 8.61423137666025E9 ; 0.0
52 ; 1.8635902344514813E7 ; 2.0079800014168268E8 ; 9.296783410400374E8 ; 8.815024745511656E9 ; 0.0
53 ; 1.8640618185685687E7 ; 2.008026937805961E8 ; 9.483142433845522E8 ; 9.01582274565334E9 ; 0.0
54 ; 1.8651621960408345E7 ; 2.0080744768563274E8 ; 9.669548615702379E8 ; 9.216625439433935E9 ; 0.0
55 ; 1.8653917886518333E7 ; 2.0081225982199296E8 ; 9.856064835306462E8 ; 9.417432887119568E9 ; 0.0
56 ; 1.8661115102102414E7 ; 2.0081712820275807E8 ; 1.0042604014171646E9 ; 9.61824514694156E9 ; 0.0
57 ; 1.866699596802905E7 ; 2.0082205088889027E8 ; 1.022921516519267E9 ; 9.81906227514432E9 ; 0.0
58 ; 1.867091222077148E7 ; 2.0082702598908317E8 ; 1.041588512487296E9 ; 1.001988432603321E10 ; 0.0
59 ; 1.8674696223669786E7 ; 2.0083205165947932E8 ; 1.0602594247080674E9 ; 1.0220711352022293E10 ; 0.0
60 ; 1.8683707296708092E7 ; 2.008371261032692E8 ; 1.0789341209317372E9 ; 1.0421543403681772E10 ; 0.0
61 ; 1.8686463423962682E7 ; 2.0084224757018638E8 ; 1.0976178282284453E9 ; 1.0622380529785042E10 ; 0.0
62 ; 1.8688180906787917E7 ; 2.0084741435591102E8 ; 1.116304291652408E9 ; 1.0823222777355228E10 ; 0.0
63 ; 1.87006337185777E7 ; 2.0085262480139458E8 ; 1.1349924725591958E9 ; 1.102407019171114E10 ; 0.0
64 ; 1.8700059533587933E7 ; 2.0085787729211643E8 ; 1.1536931062777734E9 ; 1.1224922816512535E10 ; 0.0
65 ; 1.8707918838337503E7 ; 2.008631702572825E8 ; 1.1723931658113613E9 ; 1.1425780693804651E10 ; 0.0
66 ; 1.8708285457772695E7 ; 2.0086850216897586E8 ; 1.1911010846496987E9 ; 1.1626643864061934E10 ; 0.0
67 ; 1.871598789858625E7 ; 2.008738715412671E8 ; 1.2098093701074715E9 ; 1.182751236623091E10 ; 0.0
68 ; 1.8717991914472315E7 ; 2.0087927692929268E8 ; 1.2285253580060577E9 ; 1.2028386237772177E10 ; 0.0
69 ; 1.872005052119392E7 ; 2.008847169283083E8 ; 1.24724334992053E9 ; 1.222926551470147E10 ; 0.0
70 ; 1.8729377240654595E7 ; 2.008901901727232E8 ; 1.265963400441724E9 ; 1.2430150231629778E10 ; 0.0
71 ; 1.8736433832061365E7 ; 2.008956953351214E8 ; 1.2846927776823788E9 ; 1.2631040421802502E10 ; 0.0
72 ; 1.8736428372684546E7 ; 2.00901231125275E8 ; 1.30342921151444E9 ; 1.2831936117137623E10 ; 0.0
73 ; 1.8737357990607016E7 ; 2.009067962891536E8 ; 1.3221656398871245E9 ; 1.3032837348262897E10 ; 0.0
74 ; 1.8740922399854627E7 ; 2.0091238960793456E8 ; 1.3409029978777316E9 ; 1.3233744144552052E10 ; 0.0
75 ; 1.8749207953660075E7 ; 2.0091800989701682E8 ; 1.3596439202775862E9 ; 1.3434656534159986E10 ; 0.0
76 ; 1.8748777480046544E7 ; 2.0092365600504178E8 ; 1.3783931282312462E9 ; 1.3635574544057003E10 ; 0.0
77 ; 1.875316241999508E7 ; 2.0092932681292415E8 ; 1.3971419057112927E9 ; 1.3836498200062044E10 ; 0.0
78 ; 1.8750242130295366E7 ; 2.0093502123289454E8 ; 1.4158950681312878E9 ; 1.4037427526874968E10 ; 0.0
79 ; 1.874291056318463E7 ; 2.0094073820755625E8 ; 1.434645310261583E9 ; 1.4238362548107862E10 ; 0.0
80 ; 1.8737815916615758E7 ; 2.009464767089576E8 ; 1.4533882208247678E9 ; 1.4439303286315418E10 ; 0.0
81 ; 1.8739684274591394E7 ; 2.0095223573768157E8 ; 1.4721260367413836E9 ; 1.4640249763024376E10 ; 0.0
82 ; 1.8734017749571882E7 ; 2.009580143219537E8 ; 1.490865721015975E9 ; 1.4841201998762058E10 ; 0.0
83 ; 1.8730482670886766E7 ; 2.0096381151676923E8 ; 1.5095997387655468E9 ; 1.5042160013084011E10 ; 0.0
84 ; 1.8725137197543982E7 ; 2.009696264030403E8 ; 1.5283302214364336E9 ; 1.524312382460078E10 ; 0.0
85 ; 1.872139366101575E7 ; 2.009754580867639E8 ; 1.5470553586339777E9 ; 1.544409345100382E10 ; 0.0
86 ; 1.8720313049827557E7 ; 2.0098130569821078E8 ; 1.5657767522949934E9 ; 1.5645068909090584E10 ; 0.0
87 ; 1.8712079297066838E7 ; 2.0098716839113587E8 ; 1.584497065344821E9 ; 1.5846050214788795E10 ; 0.0
88 ; 1.8713396317557268E7 ; 2.0099304534201008E8 ; 1.603209144641888E9 ; 1.6047037383179932E10 ; 0.0
89 ; 1.870281743069022E7 ; 2.0099893574927396E8 ; 1.6219225409594452E9 ; 1.6248030428521942E10 ; 0.0
90 ; 1.8704238680524684E7 ; 2.0100483883261272E8 ; 1.6406253583901355E9 ; 1.6449029364271215E10 ; 0.0
91 ; 1.8696440168129236E7 ; 2.0101075383225316E8 ; 1.65932959707066E9 ; 1.6650034203103828E10 ; 0.0
92 ; 1.8687339693359554E7 ; 2.0101668000828144E8 ; 1.6780260372387893E9 ; 1.685104495693608E10 ; 0.0
93 ; 1.869175548474483E7 ; 2.0102261663998237E8 ; 1.696713376932149E9 ; 1.7052061636944363E10 ; 0.0
94 ; 1.8676520737567484E7 ; 2.0102856302519926E8 ; 1.7154051324168937E9 ; 1.7253084253584347E10 ; 0.0
95 ; 1.867849599643788E7 ; 2.0103451847971442E8 ; 1.7340816531544611E9 ; 1.7454112816609547E10 ; 0.0
96 ; 1.8671598159203585E7 ; 2.010404823366497E8 ; 1.752760149150899E9 ; 1.765514733508926E10 ; 0.0
97 ; 1.866083305696141E7 ; 2.010464539458867E8 ; 1.7714317473101025E9 ; 1.785618781742591E10 ; 0.0
98 ; 1.865662130963219E7 ; 2.0105243267350638E8 ; 1.7900925803670638E9 ; 1.80572342713718E10 ; 0.0
99 ; 1.86515101804798E7 ; 2.0105841790124753E8 ; 1.808749201676696E9 ; 1.8258286704045307E10 ; 0.0
100 ; 1.8642222808526833E7 ; 2.0106440902598342E8 ; 1.8274007118571758E9 ; 1.8459345121946556E10 ; 0.0
101 ; 1.864018797509355E7 ; 2.010704054592167E8 ; 1.8460429346657026E9 ; 1.8660409530972538E10 ; 0.0
102 ; 1.863151747363564E7 ; 2.010764066265915E8 ; 1.8646831226407962E9 ; 1.8861479936431755E10 ; 0.0
103 ; 1.8627801818813574E7 ; 2.0108241196742243E8 ; 1.8833146401144319E9 ; 1.9062556343058346E10 ; 0.0
104 ; 1.8623361155033793E7 ; 2.0108842093424037E8 ; 1.9019424419332454E9 ; 1.926363875502577E10 ; 0.0
105 ; 1.860920403701679E7 ; 2.0109443299235386E8 ; 1.9205658030882792E9 ; 1.946472717596001E10 ; 0.0
106 ; 1.860768354815152E7 ; 2.0110044761942625E8 ; 1.939175007125296E9 ; 1.9665821608952366E10 ; 0.0
107 ; 1.8597273251235973E7 ; 2.011064643050678E8 ; 1.9577826906734476E9 ; 1.9866922056571793E10 ; 0.0
108 ; 1.8589005728394482E7 ; 2.011124825504422E8 ; 1.9763799639246836E9 ; 2.006802852087686E10 ; 0.0
109 ; 1.858230139321205E7 ; 2.0111850186788726E8 ; 1.994968969653078E9 ; 2.0269141003427303E10 ; 0.0
110 ; 1.8573758178405154E7 ; 2.011245217805493E8 ; 2.0135512710462902E9 ; 2.047025950529519E10 ; 0.0
111 ; 1.8565592922015417E7 ; 2.011305418220304E8 ; 2.0321250292246952E9 ; 2.0671384027075737E10 ; 0.0
112 ; 1.855994892573028E7 ; 2.0113656153604862E8 ; 2.0506906221467106E9 ; 2.0872514568897766E10 ; 0.0
113 ; 1.855269248679143E7 ; 2.011425804761105E8 ; 2.0692505710724409E9 ; 2.1073651130433815E10 ; 0.0
114 ; 1.8543202743667576E7 ; 2.01148598205195E8 ; 2.0878032635592322E9 ; 2.1274793710909927E10 ; 0.0
115 ; 1.853123934983574E7 ; 2.011546142954496E8 ; 2.1063464663028998E9 ; 2.1475942309115124E10 ; 0.0
116 ; 1.852481531748455E7 ; 2.0116062832789657E8 ; 2.1248777056527355E9 ; 2.1677096923410572E10 ; 0.0
117 ; 1.8513512671794247E7 ; 2.0116663989215058E8 ; 2.14340252097022E9 ; 2.187825755173847E10 ; 0.0
118 ; 1.8503094656031143E7 ; 2.011726485861461E8 ; 2.1619160336420145E9 ; 2.207942419163062E10 ; 0.0
119 ; 1.849688138757035E7 ; 2.01178654015875E8 ; 2.1804191282980456E9 ; 2.2280596840216766E10 ; 0.0
120 ; 1.8485688635288335E7 ; 2.011846557951335E8 ; 2.198916009685616E9 ; 2.2481775494232643E10 ; 0.0
121 ; 1.8476705101454977E7 ; 2.0119065354527822E8 ; 2.2174016983209043E9 ; 2.2682960150027775E10 ; 0.0
122 ; 1.8471083346196532E7 ; 2.0119664689499125E8 ; 2.2358784034223595E9 ; 2.288415080357305E10 ; 0.0
123 ; 1.8457874750667386E7 ; 2.012026354800537E8 ; 2.254349486768556E9 ; 2.3085347450468044E10 ; 0.0
124 ; 1.844844434874116E7 ; 2.0120861894312733E8 ; 2.2728073615192237E9 ; 2.3286550085948097E10 ; 0.0
125 ; 1.8439956861561988E7 ; 2.0121459693354413E8 ; 2.2912558058679647E9 ; 2.3487758704891224E10 ; 0.0
126 ; 1.8430499126071163E7 ; 2.0122056910710365E8 ; 2.3096957627295265E9 ; 2.3688973301824768E10 ; 0.0
127 ; 1.8415709007339507E7 ; 2.012265351258773E8 ; 2.3281262618555975E9 ; 2.3890193870931873E10 ; 0.0
128 ; 1.840175808510931E7 ; 2.012324946580201E8 ; 2.346541970862937E9 ; 2.409142040605775E10 ; 0.0
129 ; 1.8390298605331503E7 ; 2.0123844737758896E8 ; 2.364943728948046E9 ; 2.429265290071577E10 ; 0.0
130 ; 1.8380087654364303E7 ; 2.0124439296436745E8 ; 2.3833340275533776E9 ; 2.449389134809336E10 ; 0.0
131 ; 1.8361884833638594E7 ; 2.0125033110369703E8 ; 2.4017141152077417E9 ; 2.4695135741057728E10 ; 0.0
132 ; 1.8345231138442714E7 ; 2.0125626148631424E8 ; 2.4200760000413804E9 ; 2.4896386072161427E10 ; 0.0
133 ; 1.8329483144015305E7 ; 2.0126218380819365E8 ; 2.438421231179823E9 ; 2.509764233364774E10 ; 0.0
134 ; 1.831188243919823E7 ; 2.0126809777039653E8 ; 2.456750714323838E9 ; 2.5298904517455933E10 ; 0.0
135 ; 1.8296042359163992E7 ; 2.0127400307892475E8 ; 2.4750625967630363E9 ; 2.550017261522633E10 ; 0.0
136 ; 1.8275183971147664E7 ; 2.0127989944458005E8 ; 2.4933586391222E9 ; 2.5701446618305256E10 ; 0.0
137 ; 1.826206854222043E7 ; 2.012857865828281E8 ; 2.5116338230933475E9 ; 2.5902726517749836E10 ; 0.0
138 ; 1.8240559661308553E7 ; 2.0129166421366763E8 ; 2.529895891635568E9 ; 2.6104012304332664E10 ; 0.0
139 ; 1.8222129854949515E7 ; 2.0129753206150383E8 ; 2.548136451296877E9 ; 2.6305303968546333E10 ; 0.0
140 ; 1.8210676917305868E7 ; 2.0130338985502645E8 ; 2.5663585811518264E9 ; 2.6506601500607838E10 ; 0.0
141 ; 1.8187599272737436E7 ; 2.013092373270923E8 ; 2.5845692580691323E9 ; 2.6707904890462864E10 ; 0.0
142 ; 1.8167956620196197E7 ; 2.0131507421461138E8 ; 2.60275685734187E9 ; 2.6909214127789955E10 ; 0.0
143 ; 1.815035684821974E7 ; 2.0132090025843754E8 ; 2.620924813962066E9 ; 2.7110529202004566E10 ; 0.0
144 ; 1.8133542265759025E7 ; 2.0132671520326266E8 ; 2.639075170810286E9 ; 2.7311850102263004E10 ; 0.0
145 ; 1.8122174966444783E7 ; 2.0133251879751444E8 ; 2.657208713076045E9 ; 2.7513176817466267E10 ; 0.0
146 ; 1.8108696546884038E7 ; 2.01338310793258E8 ; 2.67533088804249E9 ; 2.7714509336263783E10 ; 0.0
147 ; 1.8097650614333667E7 ; 2.0134409094610065E8 ; 2.693439584589374E9 ; 2.791584764705704E10 ; 0.0
148 ; 1.8087239633068025E7 ; 2.013498590151E8 ; 2.7115372352037077E9 ; 2.8117191738003143E10 ; 0.0
149 ; 1.807594929312222E7 ; 2.0135561476267537E8 ; 2.729624474836776E9 ; 2.831854159701824E10 ; 0.0
150 ; 1.8066036134304907E7 ; 2.0136135795452207E8 ; 2.747700424129898E9 ; 2.851989721178092E10 ; 0.0
151 ; 1.80531860412662E7 ; 2.0136708835952857E8 ; 2.765766460264203E9 ; 2.872125856973544E10 ; 0.0
152 ; 1.8036965370245766E7 ; 2.0137280574969682E8 ; 2.783819646305469E9 ; 2.8922625658094967E10 ; 0.0
153 ; 1.80297549072158E7 ; 2.0137850990006483E8 ; 2.801856611675715E9 ; 2.9123998463844666E10 ; 0.0
154 ; 1.801329433674625E7 ; 2.0138420058863226E8 ; 2.8198863665829306E9 ; 2.932537697374473E10 ; 0.0
155 ; 1.8003175598456252E7 ; 2.013898775962883E8 ; 2.837899660919677E9 ; 2.9526761174333363E10 ; 0.0
156 ; 1.798934323652126E7 ; 2.0139554070674208E8 ; 2.855902836518133E9 ; 2.972815105192965E10 ; 0.0
157 ; 1.797781148780268E7 ; 2.014011897064554E8 ; 2.8738921797546544E9 ; 2.992954659263639E10 ; 0.0
158 ; 1.796933513067951E7 ; 2.0140682438457775E8 ; 2.891869991242457E9 ; 3.0130947782342846E10 ; 0.0
159 ; 1.795471027685165E7 ; 2.014124445328834E8 ; 2.9098393263731365E9 ; 3.0332354606727425E10 ; 0.0
160 ; 1.7940468166341443E7 ; 2.0141804994571075E8 ; 2.927794036649988E9 ; 3.0533767051260307E10 ; 0.0
161 ; 1.792645175264528E7 ; 2.0142364041990352E8 ; 2.9457345048163295E9 ; 3.0735185101206017E10 ; 0.0
162 ; 1.7913319218660217E7 ; 2.01429215754754E8 ; 2.963660956568975E9 ; 3.093660874162592E10 ; 0.0
163 ; 1.7904799775075935E7 ; 2.014347757519483E8 ; 2.9815742757876353E9 ; 3.1138037957380672E10 ; 0.0
164 ; 1.7889609645397794E7 ; 2.0144032021551308E8 ; 2.9994790755627112E9 ; 3.133947273313262E10 ; 0.0
165 ; 1.7878242090027653E7 ; 2.0144584895176432E8 ; 3.017368685208109E9 ; 3.1540913053348133E10 ; 0.0
166 ; 1.786320989245187E7 ; 2.0145136176925763E8 ; 3.0352469272981367E9 ; 3.1742358902299896E10 ; 0.0
167 ; 1.785000379543386E7 ; 2.0145685847874033E8 ; 3.0531101371905885E9 ; 3.1943810264069153E10 ; 0.0
168 ; 1.784311455946008E7 ; 2.0146233889310488E8 ; 3.0709601409860225E9 ; 3.2145267122547894E10 ; 0.0
169 ; 1.78225273983467E7 ; 2.01467802827344E8 ; 3.0888032555454826E9 ; 3.2346729461440998E10 ; 0.0
170 ; 1.780938009241212E7 ; 2.0147325009850714E8 ; 3.1066257829438295E9 ; 3.254819726426834E10 ; 0.0
171 ; 1.7797345810982514E7 ; 2.014786805256585E8 ; 3.1244351630362415E9 ; 3.2749670514366848E10 ; 0.0
172 ; 1.7781979829712886E7 ; 2.0148409392983627E8 ; 3.142232508847224E9 ; 3.2951149194892506E10 ; 0.0
173 ; 1.7770276485497702E7 ; 2.0148949013401324E8 ; 3.160014488676937E9 ; 3.3152633288822342E10 ; 0.0
174 ; 1.7762772292650264E7 ; 2.0149486896305853E8 ; 3.1777847651624346E9 ; 3.3354122778956356E10 ; 0.0
175 ; 1.77572864027088E7 ; 2.01500230243701E8 ; 3.195547537455085E9 ; 3.3555617647919415E10 ; 0.0
176 ; 1.7752189875921022E7 ; 2.015055738044932E8 ; 3.213304823857794E9 ; 3.3757117878163116E10 ; 0.0
177 ; 1.7738100434328333E7 ; 2.0151089947577688E8 ; 3.231057013733715E9 ; 3.395862345196761E10 ; 0.0
178 ; 1.773010952822623E7 ; 2.0151620708964962E8 ; 3.2487951141680436E9 ; 3.4160134351443386E10 ; 0.0
179 ; 1.7721620788658556E7 ; 2.015214964799322E8 ; 3.26652522369627E9 ; 3.4361650558533035E10 ; 0.0
180 ; 1.771367498444226E7 ; 2.0152676748213732E8 ; 3.2842468444849286E9 ; 3.456317205501297E10 ; 0.0
181 ; 1.7707013820626523E7 ; 2.0153201993343925E8 ; 3.301960519469371E9 ; 3.476469882249511E10 ; 0.0
182 ; 1.767227385009278E7 ; 2.0153725367264423E8 ; 3.3196675332899976E9 ; 3.496623084242855E10 ; 0.0
183 ; 1.7643275918262098E7 ; 2.0154246854016197E8 ; 3.3373398071400905E9 ; 3.51677680961012E10 ; 0.0
184 ; 1.7610919388531517E7 ; 2.0154766437797812E8 ; 3.3549830830583525E9 ; 3.536931056464136E10 ; 0.0
185 ; 1.7575017577681754E7 ; 2.0155284102962744E8 ; 3.372594002446884E9 ; 3.557085822901933E10 ; 0.0
186 ; 1.754068672758412E7 ; 2.0155799834016785E8 ; 3.3901690200245657E9 ; 3.577241107004896E10 ; 0.0
187 ; 1.7507818852575768E7 ; 2.015631361561553E8 ; 3.4077097067521496E9 ; 3.597396906838912E10 ; 0.0
188 ; 1.7475282509597123E7 ; 2.0156825432561943E8 ; 3.4252175256047254E9 ; 3.617553220454528E10 ; 0.0
189 ; 1.744088128471712E7 ; 2.015733526980401E8 ; 3.4426928081143227E9 ; 3.63771004588709E10 ; 0.0
190 ; 1.741011223343161E7 ; 2.015784311243243E8 ; 3.4601336893990397E9 ; 3.657867381156895E10 ; 0.0
191 ; 1.7373758883804422E7 ; 2.015834894567842E8 ; 3.4775438016324716E9 ; 3.678025224269327E10 ; 0.0
192 ; 1.7338770400878772E7 ; 2.0158852754911554E8 ; 3.494917560516276E9 ; 3.6981835732150055E10 ; 0.0
193 ; 1.7306953555934526E7 ; 2.0159354525637698E8 ; 3.512256330917155E9 ; 3.718342425969917E10 ; 0.0
194 ; 1.72784877667004E7 ; 2.015985424349697E8 ; 3.529563284473089E9 ; 3.738501780495555E10 ; 0.0
195 ; 1.7245076441163484E7 ; 2.0160351894261807E8 ; 3.5468417722397895E9 ; 3.758661634739052E10 ; 0.0
