CSV File for the City 3 on Day 86
1 - Minute m 
2 - Power Consumed at minute m 
3 - Power Produced at minute m 
4 - Energy Consumed since the beginning of the day 
5 - Energy Produced since the beginning of the day 
6 - Energy Lost since the beginning of the day on lines starting from the city
 
0 ; 2384765.641222714 ; 1.055252759941757E8 ; 0.0 ; 0.0 ; 0.0
1 ; 2388777.5246374523 ; 1.0567821918330038E8 ; 2384765.641222714 ; 1.055252759941757E8 ; 0.0
2 ; 2391344.6028552237 ; 1.061399446424624E8 ; 4773543.165860167 ; 2.1120349517747608E8 ; 0.0
3 ; 2390946.0203774762 ; 1.0691045391225171E8 ; 7164887.768715391 ; 3.173434398199385E8 ; 0.0
4 ; 2397111.0393788912 ; 1.0798974837412483E8 ; 9555833.789092867 ; 4.242538937321902E8 ; 0.0
5 ; 2400895.258885824 ; 1.0937782924247688E8 ; 1.1952944828471757E7 ; 5.32243642106315E8 ; 0.0
6 ; 2406879.798190232 ; 1.1107469755753395E8 ; 1.435384008735758E7 ; 6.416214713487918E8 ; 0.0
7 ; 2416119.1156021245 ; 1.1308035417916107E8 ; 1.6760719885547813E7 ; 7.526961689063258E8 ; 0.0
8 ; 2426365.85491616 ; 1.1539479978167146E8 ; 1.9176839001149938E7 ; 8.657765230854869E8 ; 0.0
9 ; 2442312.1368767726 ; 1.1801803484971005E8 ; 2.1603204856066097E7 ; 9.811713228671584E8 ; 0.0
10 ; 2467878.8572248654 ; 1.2095005967526966E8 ; 2.404551699294287E7 ; 1.0991893577168684E9 ; 0.0
11 ; 2511088.3553007343 ; 1.2419087435588291E8 ; 2.6513395850167736E7 ; 1.220139417392138E9 ; 0.0
12 ; 2577121.4301397377 ; 1.2774047879401717E8 ; 2.9024484205468472E7 ; 1.344330291748021E9 ; 0.0
13 ; 2639139.7222912177 ; 1.3159887269767958E8 ; 3.160160563560821E7 ; 1.472070770542038E9 ; 0.0
14 ; 2647353.913990852 ; 1.3576605558222532E8 ; 3.424074535789943E7 ; 1.6036696432397175E9 ; 0.0
15 ; 2650207.5923601105 ; 1.4024202677334106E8 ; 3.688809927189028E7 ; 1.7394356988219428E9 ; 0.0
16 ; 2652997.0699722497 ; 1.4502678541116187E8 ; 3.953830686425039E7 ; 1.879677725595284E9 ; 0.0
17 ; 2655608.6463567032 ; 1.501203304554616E8 ; 4.219130393422264E7 ; 2.024704511006446E9 ; 0.0
18 ; 2659793.0233508367 ; 1.5552266069184512E8 ; 4.484691258057934E7 ; 2.1748248414619074E9 ; 0.0
19 ; 2663329.076359431 ; 1.6123377473885593E8 ; 4.7506705603930175E7 ; 2.3303475021537523E9 ; 0.0
20 ; 2666139.501573886 ; 1.6725367105590406E8 ; 5.0170034680289604E7 ; 2.491581276892608E9 ; 0.0
21 ; 2668275.1835052567 ; 1.7358234795191124E8 ; 5.283617418186349E7 ; 2.658834947948512E9 ; 0.0
22 ; 2671983.2867368944 ; 1.8021980359456265E8 ; 5.5504449365368746E7 ; 2.8324172959004235E9 ; 0.0
23 ; 2674502.8481558342 ; 1.8716603602005464E8 ; 5.8176432652105644E7 ; 3.012637099494986E9 ; 0.0
24 ; 2678945.0716758706 ; 1.9442104314322245E8 ; 6.085093550026148E7 ; 3.199803135515041E9 ; 0.0
25 ; 2681716.6216063057 ; 2.0067286366612154E8 ; 6.352988057193735E7 ; 3.394224178658263E9 ; 0.0
26 ; 2683784.9836281613 ; 2.006750431254794E8 ; 6.621159719354366E7 ; 3.5948970423243847E9 ; 0.0
27 ; 2686888.7741548796 ; 2.006773484282107E8 ; 6.889538217717183E7 ; 3.795572085449864E9 ; 0.0
28 ; 2689832.156957138 ; 2.0067977710875806E8 ; 7.158227095132671E7 ; 3.9962494338780746E9 ; 0.0
29 ; 2692412.2191956695 ; 2.0068232663277233E8 ; 7.427210310828385E7 ; 4.1969292109868326E9 ; 0.0
30 ; 2696280.2728175446 ; 2.006849944073323E8 ; 7.696451532747951E7 ; 4.397611537619605E9 ; 0.0
31 ; 2698853.016818273 ; 2.0068777779087645E8 ; 7.966079560029706E7 ; 4.5982965320269375E9 ; 0.0
32 ; 2702465.142695997 ; 2.0069067410278344E8 ; 8.235964861711533E7 ; 4.798984309817814E9 ; 0.0
33 ; 2706304.1336145867 ; 2.0069368063254815E8 ; 8.506211375981133E7 ; 4.999674983920597E9 ; 0.0
34 ; 2706997.0432775468 ; 2.0069679464850932E8 ; 8.776841789342591E7 ; 5.200368664553145E9 ; 0.0
35 ; 2709988.50780288 ; 2.007000134060944E8 ; 9.047541493670346E7 ; 5.401065459201654E9 ; 0.0
36 ; 2711660.552762955 ; 2.00703334155556E8 ; 9.318540344450633E7 ; 5.601765472607749E9 ; 0.0
37 ; 2715172.2975568403 ; 2.0070675414918253E8 ; 9.589706399726929E7 ; 5.802468806763305E9 ; 0.0
38 ; 2717426.6369085875 ; 2.0071027064797348E8 ; 9.861223629482614E7 ; 6.003175560912487E9 ; 0.0
39 ; 2719458.862691966 ; 2.0071388092777643E8 ; 1.0132966293173473E8 ; 6.20388583156046E9 ; 0.0
40 ; 2722734.311125326 ; 2.0071758228488895E8 ; 1.040491217944267E8 ; 6.404599712488236E9 ; 0.0
41 ; 2722906.79836593 ; 2.0072137204113448E8 ; 1.0677185610555202E8 ; 6.605317294773126E9 ; 0.0
42 ; 2726251.5903894347 ; 2.0072524754842475E8 ; 1.0949476290391795E8 ; 6.8060386668142605E9 ; 0.0
43 ; 2727168.7734275577 ; 2.0072920619282624E8 ; 1.1222101449430738E8 ; 7.006763914362685E9 ; 0.0
44 ; 2729090.951011021 ; 2.0073324539815027E8 ; 1.1494818326773494E8 ; 7.207493120555511E9 ; 0.0
45 ; 2730854.4700845927 ; 2.0073736262908956E8 ; 1.1767727421874596E8 ; 7.408226365953662E9 ; 0.0
46 ; 2732064.077603266 ; 2.0074155539392534E8 ; 1.2040812868883055E8 ; 7.608963728582751E9 ; 0.0
47 ; 2733692.3292511166 ; 2.0074582124683025E8 ; 1.2314019276643382E8 ; 7.809705283976677E9 ; 0.0
48 ; 2734209.259910043 ; 2.0075015778979382E8 ; 1.2587388509568493E8 ; 8.010451105223507E9 ; 0.0
49 ; 2734334.7085793763 ; 2.0075456267419648E8 ; 1.2860809435559498E8 ; 8.211201263013301E9 ; 0.0
50 ; 2737026.0412008003 ; 2.007590336020593E8 ; 1.3134242906417435E8 ; 8.411955825687497E9 ; 0.0
51 ; 2737766.7170904153 ; 2.0076356832699493E8 ; 1.3407945510537516E8 ; 8.612714859289557E9 ; 0.0
52 ; 2738067.3450506604 ; 2.007681646548856E8 ; 1.3681722182246557E8 ; 8.813478427616552E9 ; 0.0
53 ; 2739336.7324593836 ; 2.0077282044431326E8 ; 1.3955528916751623E8 ; 9.014246592271439E9 ; 0.0
54 ; 2739116.1798968283 ; 2.0077753360676497E8 ; 1.4229462589997563E8 ; 9.215019412715752E9 ; 0.0
55 ; 2740434.299898711 ; 2.0078230210663635E8 ; 1.4503374207987246E8 ; 9.415796946322517E9 ; 0.0
56 ; 2740509.7548262114 ; 2.0078712396105486E8 ; 1.4777417637977117E8 ; 9.616579248429153E9 ; 0.0
57 ; 2741908.5715600583 ; 2.007919972395428E8 ; 1.505146861345974E8 ; 9.81736637239021E9 ; 0.0
58 ; 2743338.0157360206 ; 2.0079692006353858E8 ; 1.5325659470615745E8 ; 1.0018158369629751E10 ; 0.0
59 ; 2743579.460312107 ; 2.0080189060579458E8 ; 1.5599993272189346E8 ; 1.021895528969329E10 ; 0.0
60 ; 2743602.304950771 ; 2.008069070896672E8 ; 1.5874351218220556E8 ; 1.0419757180299086E10 ; 0.0
61 ; 2743154.9739793926 ; 2.0081196778831452E8 ; 1.6148711448715633E8 ; 1.0620564087388752E10 ; 0.0
62 ; 2745011.1015869933 ; 2.008170710238151E8 ; 1.6423026946113572E8 ; 1.0821376055177067E10 ; 0.0
63 ; 2745741.465382012 ; 2.0082221516622072E8 ; 1.669752805627227E8 ; 1.1022193126200882E10 ; 0.0
64 ; 2745048.147157458 ; 2.0082739863255447E8 ; 1.6972102202810472E8 ; 1.1223015341367104E10 ; 0.0
65 ; 2746322.417908232 ; 2.0083261988576442E8 ; 1.7246607017526218E8 ; 1.1423842739999659E10 ; 0.0
66 ; 2745840.472282241 ; 2.008378774336426E8 ; 1.752123925931704E8 ; 1.1624675359885424E10 ; 0.0
67 ; 2746684.0802157796 ; 2.008431698277174E8 ; 1.7795823306545264E8 ; 1.1825513237319067E10 ; 0.0
68 ; 2747885.3147262833 ; 2.0084849566212705E8 ; 1.8070491714566842E8 ; 1.2026356407146784E10 ; 0.0
69 ; 2748313.000014647 ; 2.0085385357248107E8 ; 1.834528024603947E8 ; 1.222720490280891E10 ; 0.0
70 ; 2749209.6848080726 ; 2.0085924223471525E8 ; 1.8620111546040934E8 ; 1.2428058756381392E10 ; 0.0
71 ; 2748343.1886436036 ; 2.008646603639461E8 ; 1.8895032514521742E8 ; 1.2628917998616106E10 ; 0.0
72 ; 2749630.527617692 ; 2.0087010671332842E8 ; 1.9169866833386102E8 ; 1.2829782658980053E10 ; 0.0
73 ; 2750011.0112577276 ; 2.008755800729211E8 ; 1.9444829886147872E8 ; 1.3030652765693382E10 ; 0.0
74 ; 2751522.7762447307 ; 2.008810792685637E8 ; 1.9719830987273645E8 ; 1.3231528345766304E10 ; 0.0
75 ; 2749814.027953378 ; 2.0088660316076759E8 ; 1.9994983264898118E8 ; 1.3432409425034868E10 ; 0.0
76 ; 2750099.9033385655 ; 2.0089215064362362E8 ; 2.0269964667693457E8 ; 1.3633296028195637E10 ; 0.0
77 ; 2751346.8380540246 ; 2.008977206437287E8 ; 2.0544974658027312E8 ; 1.383418817883926E10 ; 0.0
78 ; 2750539.271937283 ; 2.0090331211913338E8 ; 2.0820109341832715E8 ; 1.4035085899482988E10 ; 0.0
79 ; 2750665.769425468 ; 2.0090892405831134E8 ; 2.1095163269026443E8 ; 1.4235989211602121E10 ; 0.0
80 ; 2748366.1699345205 ; 2.0091455547915256E8 ; 2.1370229845968992E8 ; 1.4436898135660433E10 ; 0.0
81 ; 2747553.128469424 ; 2.009202054279807E8 ; 2.1645066462962443E8 ; 1.4637812691139585E10 ; 0.0
82 ; 2747591.9778981465 ; 2.0092587297859567E8 ; 2.1919821775809386E8 ; 1.4838732896567566E10 ; 0.0
83 ; 2747485.140862106 ; 2.009315572313418E8 ; 2.21945809735992E8 ; 1.5039658769546162E10 ; 0.0
84 ; 2745770.6723277364 ; 2.009372573122019E8 ; 2.2469329487685412E8 ; 1.5240590326777504E10 ; 0.0
85 ; 2746997.9677008563 ; 2.0094297237191734E8 ; 2.2743906554918185E8 ; 1.5441527584089706E10 ; 0.0
86 ; 2745568.577202972 ; 2.0094870158513469E8 ; 2.3018606351688272E8 ; 1.5642470556461624E10 ; 0.0
87 ; 2744757.929526711 ; 2.0095444414957803E8 ; 2.329316320940857E8 ; 1.5843419258046759E10 ; 0.0
88 ; 2743434.844031338 ; 2.0096019928524742E8 ; 2.356763900236124E8 ; 1.6044373702196337E10 ; 0.0
89 ; 2744909.796138579 ; 2.0096596623364297E8 ; 2.3841982486764374E8 ; 1.6245333901481585E10 ; 0.0
90 ; 2743277.0252842363 ; 2.0097174425701442E8 ; 2.4116473466378233E8 ; 1.6446299867715227E10 ; 0.0
91 ; 2741961.5397374774 ; 2.009775326376353E8 ; 2.4390801168906656E8 ; 1.6647271611972242E10 ; 0.0
92 ; 2741104.882298222 ; 2.0098333067710203E8 ; 2.4664997322880402E8 ; 1.6848249144609879E10 ; 0.0
93 ; 2739895.980958574 ; 2.009891376956567E8 ; 2.4939107811110225E8 ; 1.704923247528698E10 ; 0.0
94 ; 2737428.400898921 ; 2.0099495303153333E8 ; 2.5213097409206083E8 ; 1.7250221612982635E10 ; 0.0
95 ; 2738517.301219375 ; 2.010007760403274E8 ; 2.5486840249295977E8 ; 1.7451216566014168E10 ; 0.0
96 ; 2736017.1252718205 ; 2.010066060943872E8 ; 2.5760691979417914E8 ; 1.7652217342054497E10 ; 0.0
97 ; 2736545.3183578323 ; 2.010124425822273E8 ; 2.6034293691945097E8 ; 1.7853223948148884E10 ; 0.0
98 ; 2733294.2198724234 ; 2.0101828490796304E8 ; 2.630794822378088E8 ; 1.805423639073111E10 ; 0.0
99 ; 2732068.9319624663 ; 2.0102413249076554E8 ; 2.658127764576812E8 ; 1.8255254675639072E10 ; 0.0
100 ; 2730788.067957662 ; 2.010299847643366E8 ; 2.6854484538964367E8 ; 1.8456278808129837E10 ; 0.0
101 ; 2729590.2952995207 ; 2.010358411764029E8 ; 2.712756334576013E8 ; 1.8657308792894173E10 ; 0.0
102 ; 2730532.2541836905 ; 2.0104170118822888E8 ; 2.7400522375290084E8 ; 1.8858344634070576E10 ; 0.0
103 ; 2726994.457145919 ; 2.0104756427414784E8 ; 2.7673575600708455E8 ; 1.9059386335258804E10 ; 0.0
104 ; 2727916.08794506 ; 2.010534299211101E8 ; 2.794627504642305E8 ; 1.926043389953295E10 ; 0.0
105 ; 2726307.6804891196 ; 2.010592976282485E8 ; 2.821906665521755E8 ; 1.946148732945406E10 ; 0.0
106 ; 2725960.625896174 ; 2.0106516690645996E8 ; 2.8491697423266464E8 ; 1.966254662708231E10 ; 0.0
107 ; 2722863.9686072934 ; 2.0107103727800268E8 ; 2.876429348585608E8 ; 1.986361179398877E10 ; 0.0
108 ; 2721210.769736957 ; 2.0107690827610877E8 ; 2.903657988271681E8 ; 2.0064682831266773E10 ; 0.0
109 ; 2719593.9419148457 ; 2.010827794446111E8 ; 2.9308700959690505E8 ; 2.026575973954288E10 ; 0.0
110 ; 2718767.3552210713 ; 2.0108865033758473E8 ; 2.958066035388199E8 ; 2.046684251898749E10 ; 0.0
111 ; 2717196.881595601 ; 2.0109452051900148E8 ; 2.98525370894041E8 ; 2.0667931169325077E10 ; 0.0
112 ; 2717018.220441782 ; 2.0110038956239772E8 ; 3.012425677756366E8 ; 2.0869025689844078E10 ; 0.0
113 ; 2714307.1029424965 ; 2.0110625705055484E8 ; 3.039595859960784E8 ; 2.1070126079406475E10 ; 0.0
114 ; 2712983.643628001 ; 2.0111212257519162E8 ; 3.0667389309902084E8 ; 2.127123233645703E10 ; 0.0
115 ; 2711437.8041064376 ; 2.0111798573666838E8 ; 3.0938687674264884E8 ; 2.1472344459032223E10 ; 0.0
116 ; 2710139.9665440093 ; 2.0112384614370233E8 ; 3.1209831454675525E8 ; 2.167346244476889E10 ; 0.0
117 ; 2708897.953110529 ; 2.011297034130936E8 ; 3.148084545132993E8 ; 2.1874586290912594E10 ; 0.0
118 ; 2707200.9579470027 ; 2.011355571694617E8 ; 3.175173524664098E8 ; 2.2075715994325687E10 ; 0.0
119 ; 2706813.780643002 ; 2.0114140704499194E8 ; 3.202245534243568E8 ; 2.2276851551495148E10 ; 0.0
120 ; 2705674.8975153277 ; 2.011472526791913E8 ; 3.229313672049998E8 ; 2.247799295854014E10 ; 0.0
121 ; 2702970.017973891 ; 2.0115309371865377E8 ; 3.2563704210251516E8 ; 2.267914021121933E10 ; 0.0
122 ; 2700864.4585411404 ; 2.0115892981683412E8 ; 3.2834001212048906E8 ; 2.2880293304937984E10 ; 0.0
123 ; 2700386.5066913664 ; 2.011647606338307E8 ; 3.310408765790302E8 ; 2.3081452234754818E10 ; 0.0
124 ; 2697863.296003185 ; 2.0117058583617577E8 ; 3.337412630857216E8 ; 2.328261699538865E10 ; 0.0
125 ; 2696041.3721562973 ; 2.011764050966342E8 ; 3.364391263817248E8 ; 2.3483787581224823E10 ; 0.0
126 ; 2695371.473929414 ; 2.0118221809400958E8 ; 3.391351677538811E8 ; 2.3684963986321457E10 ; 0.0
127 ; 2692511.130333304 ; 2.0118802451295727E8 ; 3.418305392278105E8 ; 2.3886146204415466E10 ; 0.0
128 ; 2690244.244792031 ; 2.011938240438048E8 ; 3.445230503581438E8 ; 2.4087334228928425E10 ; 0.0
129 ; 2689068.243325142 ; 2.011996163823787E8 ; 3.4721329460293585E8 ; 2.428852805297223E10 ; 0.0
130 ; 2687400.862151389 ; 2.0120540122983795E8 ; 3.4990236284626096E8 ; 2.4489727669354607E10 ; 0.0
131 ; 2685041.325776262 ; 2.0121117829251334E8 ; 3.5258976370841235E8 ; 2.4690933070584446E10 ; 0.0
132 ; 2682377.076620083 ; 2.0121694728175297E8 ; 3.552748050341886E8 ; 2.489214424887696E10 ; 0.0
133 ; 2680830.408801019 ; 2.0122270791377336E8 ; 3.5795718211080873E8 ; 2.5093361196158714E10 ; 0.0
134 ; 2676913.920046696 ; 2.0122845990951604E8 ; 3.6063801251960975E8 ; 2.5294583904072487E10 ; 0.0
135 ; 2672020.003440753 ; 2.0123420299450934E8 ; 3.6331492643965644E8 ; 2.5495812363982002E10 ; 0.0
136 ; 2668908.4474300286 ; 2.012399368987354E8 ; 3.659869464430972E8 ; 2.5697046566976513E10 ; 0.0
137 ; 2665612.911545603 ; 2.0124566135650173E8 ; 3.686558548905272E8 ; 2.5898286503875248E10 ; 0.0
138 ; 2665583.0131232454 ; 2.0125137610631776E8 ; 3.7132146780207276E8 ; 2.609953216523175E10 ; 0.0
139 ; 2661641.8925029375 ; 2.012570808907757E8 ; 3.7398705081519604E8 ; 2.630078354133807E10 ; 0.0
140 ; 2660473.2181251617 ; 2.0126277545643568E8 ; 3.76648692707699E8 ; 2.6502040622228848E10 ; 0.0
141 ; 2658115.335986594 ; 2.0126845955371502E8 ; 3.7930916592582417E8 ; 2.6703303397685284E10 ; 0.0
142 ; 2653262.295840987 ; 2.0127413293678176E8 ; 3.819672812618108E8 ; 2.6904571857239E10 ; 0.0
143 ; 2650993.288279479 ; 2.012797953634515E8 ; 3.8462054355765176E8 ; 2.710584599017578E10 ; 0.0
144 ; 2646559.622727988 ; 2.0128544659508842E8 ; 3.8727153684593123E8 ; 2.7307125785539234E10 ; 0.0
145 ; 2646099.2456822153 ; 2.0129108639650947E8 ; 3.899180964686592E8 ; 2.7508411232134323E10 ; 0.0
146 ; 2645436.172982134 ; 2.0129671453589228E8 ; 3.9256419571434146E8 ; 2.7709702318530834E10 ; 0.0
147 ; 2641370.3077197764 ; 2.0130233078468597E8 ; 3.952096318873236E8 ; 2.7910999033066727E10 ; 0.0
148 ; 2640053.868190208 ; 2.0130793491752538E8 ; 3.978510021950434E8 ; 2.8112301363851414E10 ; 0.0
149 ; 2638643.845414315 ; 2.0131352671214828E8 ; 4.004910560632336E8 ; 2.831360929876894E10 ; 0.0
150 ; 2636126.4539012397 ; 2.0131910594931543E8 ; 4.0312969990864795E8 ; 2.8514922825481087E10 ; 0.0
151 ; 2634553.1835626257 ; 2.0132467241273338E8 ; 4.057658263625492E8 ; 2.87162419314304E10 ; 0.0
152 ; 2632698.438837563 ; 2.013302258889801E8 ; 4.084003795461118E8 ; 2.8917566603843136E10 ; 0.0
153 ; 2632171.9140193807 ; 2.0133576616743317E8 ; 4.110330779849494E8 ; 2.9118896829732117E10 ; 0.0
154 ; 2629400.3495784774 ; 2.0134129304020032E8 ; 4.136652498989688E8 ; 2.932023259589955E10 ; 0.0
155 ; 2625251.899703357 ; 2.0134680630205256E8 ; 4.162946502485473E8 ; 2.952157388893975E10 ; 0.0
156 ; 2623622.073931028 ; 2.0135230575035945E8 ; 4.189199021482507E8 ; 2.9722920695241802E10 ; 0.0
157 ; 2622882.286080969 ; 2.0135779118502685E8 ; 4.2154352422218174E8 ; 2.992427300099216E10 ; 0.0
158 ; 2620591.6805880694 ; 2.0136326240843636E8 ; 4.241664065082627E8 ; 3.012563079217719E10 ; 0.0
159 ; 2617404.126987701 ; 2.0136871922538736E8 ; 4.2678699818885076E8 ; 3.0326994054585625E10 ; 0.0
160 ; 2616476.2248096783 ; 2.0137416144304058E8 ; 4.2940440231583846E8 ; 3.0528362773811012E10 ; 0.0
161 ; 2613949.104579306 ; 2.013795888708638E8 ; 4.3202087854064816E8 ; 3.072973693525405E10 ; 0.0
162 ; 2610867.013742947 ; 2.013850013205795E8 ; 4.346348276452275E8 ; 3.0931116524124916E10 ; 0.0
163 ; 2610070.4693840174 ; 2.013903986061139E8 ; 4.372456946589704E8 ; 3.1132501525445496E10 ; 0.0
164 ; 2607811.561378207 ; 2.0139578054354817E8 ; 4.3985576512835443E8 ; 3.133389192405161E10 ; 0.0
165 ; 2607485.801019643 ; 2.0140114695107087E8 ; 4.424635766897326E8 ; 3.1535287704595158E10 ; 0.0
166 ; 2603749.5437950566 ; 2.0140649764893228E8 ; 4.450710624907523E8 ; 3.173668885154623E10 ; 0.0
167 ; 2599532.888157783 ; 2.0141183245940015E8 ; 4.476748120345473E8 ; 3.1938095349195164E10 ; 0.0
168 ; 2598400.1054624123 ; 2.014171512067168E8 ; 4.502743449227051E8 ; 3.2139507181654564E10 ; 0.0
169 ; 2597033.1894353707 ; 2.0142245371705788E8 ; 4.5287274502816755E8 ; 3.2340924332861282E10 ; 0.0
170 ; 2596716.087827546 ; 2.0142773981849235E8 ; 4.554697782176029E8 ; 3.254234678657834E10 ; 0.0
171 ; 2592432.547492912 ; 2.0143300934094372E8 ; 4.580664943054305E8 ; 3.274377452639683E10 ; 0.0
172 ; 2590211.472676613 ; 2.014382621161527E8 ; 4.606589268529234E8 ; 3.2945207535737774E10 ; 0.0
173 ; 2588356.140776649 ; 2.0144349797764105E8 ; 4.632491383256E8 ; 3.3146645797853928E10 ; 0.0
174 ; 2587878.351602538 ; 2.0144871676067653E8 ; 4.6583749446637666E8 ; 3.334808929583157E10 ; 0.0
175 ; 2586032.9341796995 ; 2.014539183022391E8 ; 4.684253728179792E8 ; 3.3549538012592247E10 ; 0.0
176 ; 2584208.2400116525 ; 2.0145910244098806E8 ; 4.7101140575215894E8 ; 3.3750991930894485E10 ; 0.0
177 ; 2584351.325175109 ; 2.014642690172306E8 ; 4.735956139921706E8 ; 3.3952451033335472E10 ; 0.0
178 ; 2581721.662861711 ; 2.014694178728908E8 ; 4.761799653173457E8 ; 3.4153915302352703E10 ; 0.0
179 ; 2579736.065792627 ; 2.0147454885148028E8 ; 4.787616869802074E8 ; 3.4355384720225594E10 ; 0.0
180 ; 2579380.2519977423 ; 2.0147966179806924E8 ; 4.81341423046E8 ; 3.455685926907707E10 ; 0.0
181 ; 2579163.585289161 ; 2.0148475655925882E8 ; 4.839208032979978E8 ; 3.4758338930875145E10 ; 0.0
182 ; 2577360.3122032085 ; 2.0148983298315415E8 ; 4.8649996688328695E8 ; 3.49598236874344E10 ; 0.0
183 ; 2573906.1923650815 ; 2.0149489091933823E8 ; 4.890773271954902E8 ; 3.516131352041756E10 ; 0.0
184 ; 2575278.6912114527 ; 2.014999302188469E8 ; 4.916512333878553E8 ; 3.53628084113369E10 ; 0.0
185 ; 2572701.637198125 ; 2.015049507341442E8 ; 4.9422651207906675E8 ; 3.556430834155575E10 ; 0.0
186 ; 2571501.313378521 ; 2.0150995231909895E8 ; 4.967992137162649E8 ; 3.5765813292289894E10 ; 0.0
187 ; 2570431.642207548 ; 2.015149348289617E8 ; 4.993707150296434E8 ; 3.596732324460899E10 ; 0.0
188 ; 2569259.59667943 ; 2.0151989812034264E8 ; 5.01941146671851E8 ; 3.616883817943796E10 ; 0.0
189 ; 2567708.154644163 ; 2.0152484205119017E8 ; 5.045104062685304E8 ; 3.6370358077558304E10 ; 0.0
190 ; 2565963.489776872 ; 2.0152976648077002E8 ; 5.070781144231746E8 ; 3.65718829196095E10 ; 0.0
191 ; 2566366.0110992123 ; 2.0153467126964515E8 ; 5.0964407791295147E8 ; 3.677341268609026E10 ; 0.0
192 ; 2563345.227607015 ; 2.0153955627965632E8 ; 5.122104439240507E8 ; 3.697494735735991E10 ; 0.0
193 ; 2561579.7993726013 ; 2.0154442137390307E8 ; 5.147737891516577E8 ; 3.7176486913639565E10 ; 0.0
194 ; 2561416.4531390765 ; 2.0154926641672546E8 ; 5.173353689510303E8 ; 3.7378031335013466E10 ; 0.0
195 ; 2561425.669972518 ; 2.0155409127368638E8 ; 5.198967854041694E8 ; 3.757958060143019E10 ; 0.0
196 ; 2558345.5354841943 ; 2.015588958115543E8 ; 5.224582110741419E8 ; 3.778113469270388E10 ; 0.0
197 ; 2557289.2350528804 ; 2.0156367989828673E8 ; 5.250165566096261E8 ; 3.7982693588515434E10 ; 0.0
198 ; 2556008.767914302 ; 2.015684434030139E8 ; 5.27573845844679E8 ; 3.818425726841372E10 ; 0.0
199 ; 2554604.3964752313 ; 2.0157318619602326E8 ; 5.301298546125933E8 ; 3.8385825711816734E10 ; 0.0
