CSV File for the City 1 on Day 117
1 - Minute m 
2 - Power Consumed at minute m 
3 - Power Produced at minute m 
4 - Energy Consumed since the beginning of the day 
5 - Energy Produced since the beginning of the day 
6 - Energy Lost since the beginning of the day on lines starting from the city
 
0 ; 1.6203908752769252E7 ; 1.0556107351664731E8 ; 0.0 ; 0.0 ; 0.0
1 ; 1.6227364182712656E7 ; 1.0571403081728232E8 ; 1.6203908752769252E7 ; 1.0556107351664731E8 ; 0.0
2 ; 1.6240621170091756E7 ; 1.0617576938987145E8 ; 3.2431272935481906E7 ; 2.1127510433392963E8 ; 0.0
3 ; 1.6265054415652784E7 ; 1.0694629061993456E8 ; 4.867189410557366E7 ; 3.174508737238011E8 ; 0.0
4 ; 1.6284915829950172E7 ; 1.0802559574787807E8 ; 6.493694852122644E7 ; 4.2439716434373564E8 ; 0.0
5 ; 1.6314171402829181E7 ; 1.0941368586255127E8 ; 8.122186435117662E7 ; 5.324227600916137E8 ; 0.0
6 ; 1.6357282602074597E7 ; 1.1111056189549002E8 ; 9.75360357540058E7 ; 6.41836445954165E8 ; 0.0
7 ; 1.641538404527364E7 ; 1.1311622461591601E8 ; 1.138933183560804E8 ; 7.52947007849655E8 ; 0.0
8 ; 1.6493420699791E7 ; 1.1543067462655526E8 ; 1.3030870240135404E8 ; 8.66063232465571E8 ; 0.0
9 ; 1.6610459769837366E7 ; 1.1805391236032808E8 ; 1.4680212310114503E8 ; 9.814939070921264E8 ; 0.0
10 ; 1.6793166887106456E7 ; 1.2098593807795393E8 ; 1.634125828709824E8 ; 1.0995478194524546E9 ; 0.0
11 ; 1.7079906095994636E7 ; 1.2422675186650094E8 ; 1.8020574975808886E8 ; 1.2205337575304084E9 ; 0.0
12 ; 1.754157309382411E7 ; 1.2777635363890097E8 ; 1.9728565585408348E8 ; 1.3447605093969092E9 ; 0.0
13 ; 1.799305041862531E7 ; 1.3163474313443452E8 ; 2.148272289479076E8 ; 1.4725368630358102E9 ; 0.0
14 ; 1.804054160440103E7 ; 1.358019199201814E8 ; 2.3282027936653292E8 ; 1.6041716061702447E9 ; 0.0
15 ; 1.8066702488149267E7 ; 1.4027788339341545E8 ; 2.5086082097093394E8 ; 1.739973526090426E9 ; 0.0
16 ; 1.8083869573270533E7 ; 1.4506263278491512E8 ; 2.689275234590832E8 ; 1.8802514094838414E9 ; 0.0
17 ; 1.8108421563469395E7 ; 1.5015616716314444E8 ; 2.8701139303235376E8 ; 2.0253140422687566E9 ; 0.0
18 ; 1.8133653863263197E7 ; 1.5555848543925416E8 ; 3.0511981459582317E8 ; 2.175470209431901E9 ; 0.0
19 ; 1.8156836125466287E7 ; 1.6126958637283787E8 ; 3.2325346845908636E8 ; 2.3310286948711553E9 ; 0.0
20 ; 1.817260280528185E7 ; 1.6728946857837567E8 ; 3.4141030458455265E8 ; 2.4922982812439933E9 ; 0.0
21 ; 1.8200451926900975E7 ; 1.7361813053228632E8 ; 3.595829073898345E8 ; 2.659587749822369E9 ; 0.0
22 ; 1.8216822507230368E7 ; 1.802555705805086E8 ; 3.777833593167355E8 ; 2.8332058803546553E9 ; 0.0
23 ; 1.8245216108676545E7 ; 1.87201786946526E8 ; 3.9600018182396585E8 ; 3.013461450935164E9 ; 0.0
24 ; 1.8265032242336243E7 ; 1.9445677773974866E8 ; 4.142453979326424E8 ; 3.20066323788169E9 ; 0.0
25 ; 1.8284262633294955E7 ; 2.0070858186235076E8 ; 4.325104301749786E8 ; 3.3951200156214385E9 ; 0.0
26 ; 1.8310495588729724E7 ; 2.0071074505500633E8 ; 4.5079469280827355E8 ; 3.5958285974837894E9 ; 0.0
27 ; 1.8326993561373986E7 ; 2.00713034430737E8 ; 4.691051883970033E8 ; 3.796539342538796E9 ; 0.0
28 ; 1.8347937290657043E7 ; 2.0071544773065528E8 ; 4.874321819583773E8 ; 3.997252376969533E9 ; 0.0
29 ; 1.8370652429957792E7 ; 2.0071798262613302E8 ; 5.0578011924903435E8 ; 4.197967824700188E9 ; 0.0
30 ; 1.8395711540226825E7 ; 2.0072063672760996E8 ; 5.2415077167899215E8 ; 4.398685807326322E9 ; 0.0
31 ; 1.841529695345958E7 ; 2.0072340759322536E8 ; 5.42546483219219E8 ; 4.599406444053931E9 ; 0.0
32 ; 1.8437115684835207E7 ; 2.00726292737218E8 ; 5.609617801726786E8 ; 4.800129851647157E9 ; 0.0
33 ; 1.8453215086409718E7 ; 2.007292896380469E8 ; 5.793988958575138E8 ; 5.000856144384375E9 ; 0.0
34 ; 1.8470704331306204E7 ; 2.0073239574619082E8 ; 5.978521109439235E8 ; 5.201585434022422E9 ; 0.0
35 ; 1.849028527757752E7 ; 2.0073560849159348E8 ; 6.163228152752297E8 ; 5.402317829768613E9 ; 0.0
36 ; 1.851429490077286E7 ; 2.0073892529072636E8 ; 6.348131005528072E8 ; 5.603053438260206E9 ; 0.0
37 ; 1.8532213198892966E7 ; 2.0074234355324855E8 ; 6.5332739545358E8 ; 5.803792363550933E9 ; 0.0
38 ; 1.854816511892501E7 ; 2.0074586068824896E8 ; 6.71859608652473E8 ; 6.004534707104181E9 ; 0.0
39 ; 1.8563829870822664E7 ; 2.0074947411006126E8 ; 6.90407773771398E8 ; 6.20528056779243E9 ; 0.0
40 ; 1.8578829843577944E7 ; 2.0075318124364805E8 ; 7.089716036422206E8 ; 6.406030041902492E9 ; 0.0
41 ; 1.8587693525242034E7 ; 2.007569795295547E8 ; 7.275504334857986E8 ; 6.606783223146139E9 ; 0.0
42 ; 1.86089693903467E7 ; 2.0076086642843717E8 ; 7.461381270110407E8 ; 6.8075402026756935E9 ; 0.0
43 ; 1.8617603679875463E7 ; 2.0076483942517287E8 ; 7.647470964013873E8 ; 7.008301069104131E9 ; 0.0
44 ; 1.8626220939167056E7 ; 2.0076889603256485E8 ; 7.833647000812628E8 ; 7.209065908529304E9 ; 0.0
45 ; 1.864227323894802E7 ; 2.007730337946543E8 ; 8.019909210204298E8 ; 7.409834804561869E9 ; 0.0
46 ; 1.8652723184126977E7 ; 2.0077725028965598E8 ; 8.206331942593778E8 ; 7.610607838356523E9 ; 0.0
47 ; 1.866630933073251E7 ; 2.0078154313253486E8 ; 8.392859174435048E8 ; 7.811385088646178E9 ; 0.0
48 ; 1.8674404613532104E7 ; 2.0078590997724262E8 ; 8.579522267742373E8 ; 8.012166631778713E9 ; 0.0
49 ; 1.8683404437329497E7 ; 2.0079034851863283E8 ; 8.766266313877693E8 ; 8.212952541755956E9 ; 0.0
50 ; 1.8691826323924977E7 ; 2.0079485649407554E8 ; 8.953100358250989E8 ; 8.413742890274589E9 ; 0.0
51 ; 1.869513512426911E7 ; 2.007994316847911E8 ; 9.140018621490239E8 ; 8.614537746768663E9 ; 0.0
52 ; 1.8704630678576067E7 ; 2.0080407191692314E8 ; 9.32696997273293E8 ; 8.815337178453455E9 ; 0.0
53 ; 1.8711135426171176E7 ; 2.0080877506237137E8 ; 9.514016279518691E8 ; 9.016141250370378E9 ; 0.0
54 ; 1.87188521596083E7 ; 2.0081353903940248E8 ; 9.701127633780403E8 ; 9.21695002543275E9 ; 0.0
55 ; 1.8725784367115203E7 ; 2.0081836181305936E8 ; 9.888316155376486E8 ; 9.417763564472153E9 ; 0.0
56 ; 1.8731396250692207E7 ; 2.0082324139538556E8 ; 1.0075573999047638E9 ; 9.618581926285212E9 ; 0.0
57 ; 1.8737330415099293E7 ; 2.0082817584548348E8 ; 1.0262887961554561E9 ; 9.819405167680597E9 ; 0.0
58 ; 1.8748338415852208E7 ; 2.0083316326942194E8 ; 1.0450261265705553E9 ; 1.0020233343526081E10 ; 0.0
59 ; 1.875086047851651E7 ; 2.008382018200096E8 ; 1.0637744649864075E9 ; 1.0221066506795504E10 ; 0.0
60 ; 1.8757992628352996E7 ; 2.0084328969644812E8 ; 1.082525325464924E9 ; 1.0421904708615513E10 ; 0.0
61 ; 1.8763578453327384E7 ; 2.008484251438798E8 ; 1.101283318093277E9 ; 1.062274799831196E10 ; 0.0
62 ; 1.876443431359453E7 ; 2.0085360645284158E8 ; 1.1200468965466044E9 ; 1.082359642345584E10 ; 0.0
63 ; 1.8771097251305886E7 ; 2.0085883195863828E8 ; 1.138811330860199E9 ; 1.102445002990868E10 ; 0.0
64 ; 1.8777377017568868E7 ; 2.0086410004064524E8 ; 1.1575824281115048E9 ; 1.122530886186732E10 ; 0.0
65 ; 1.8782364214067083E7 ; 2.0086940912155142E8 ; 1.1763598051290736E9 ; 1.1426172961907965E10 ; 0.0
66 ; 1.8782746997156054E7 ; 2.0087475766655153E8 ; 1.1951421693431406E9 ; 1.1627042371029516E10 ; 0.0
67 ; 1.8792485418157343E7 ; 2.0088014418249604E8 ; 1.2139249163402967E9 ; 1.1827917128696068E10 ; 0.0
68 ; 1.8797767521659605E7 ; 2.0088556721700698E8 ; 1.232717401758454E9 ; 1.2028797272878563E10 ; 0.0
69 ; 1.8800859337559693E7 ; 2.0089102535756615E8 ; 1.2515151692801137E9 ; 1.222968284009557E10 ; 0.0
70 ; 1.8806257432388257E7 ; 2.0089651723058265E8 ; 1.2703160286176734E9 ; 1.2430573865453136E10 ; 0.0
71 ; 1.8812378432994746E7 ; 2.009020415004448E8 ; 1.2891222860500617E9 ; 1.263147038268372E10 ; 0.0
72 ; 1.881584182905935E7 ; 2.009075968685622E8 ; 1.3079346644830565E9 ; 1.2832372424184164E10 ; 0.0
73 ; 1.881971031918399E7 ; 2.009131820724021E8 ; 1.326750506312116E9 ; 1.3033280021052727E10 ; 0.0
74 ; 1.882008624840437E7 ; 2.009187958845242E8 ; 1.3455702166313E9 ; 1.323419320312513E10 ; 0.0
75 ; 1.882775341032978E7 ; 2.009244371116179E8 ; 1.3643903028797042E9 ; 1.3435111999009653E10 ; 0.0
76 ; 1.882891242920799E7 ; 2.0093010459354427E8 ; 1.383218056290034E9 ; 1.3636036436121271E10 ; 0.0
77 ; 1.8831278102492318E7 ; 2.0093579720238674E8 ; 1.402046968719242E9 ; 1.3836966540714815E10 ; 0.0
78 ; 1.883352304986307E7 ; 2.009415138415115E8 ; 1.4208782468217344E9 ; 1.4037902337917202E10 ; 0.0
79 ; 1.8828666360136464E7 ; 2.0094725344464108E8 ; 1.4397117698715975E9 ; 1.4238843851758713E10 ; 0.0
80 ; 1.88237634042408E7 ; 2.0095301497494194E8 ; 1.458540436231734E9 ; 1.4439791105203354E10 ; 0.0
81 ; 1.8819557536450107E7 ; 2.0095879742412776E8 ; 1.477364199635975E9 ; 1.4640744120178295E10 ; 0.0
82 ; 1.8821734184030842E7 ; 2.0096459981158006E8 ; 1.496183757172425E9 ; 1.4841702917602423E10 ; 0.0
83 ; 1.8818682373384543E7 ; 2.0097042118348688E8 ; 1.5150054913564558E9 ; 1.5042667517414003E10 ; 0.0
84 ; 1.8817897750221416E7 ; 2.0097626061200017E8 ; 1.5338241737298403E9 ; 1.524363793859749E10 ; 0.0
85 ; 1.8809915957028896E7 ; 2.0098211719441324E8 ; 1.5526420714800618E9 ; 1.544461419920949E10 ; 0.0
86 ; 1.8809397551668808E7 ; 2.0098799005235803E8 ; 1.5714519874370906E9 ; 1.5645596316403904E10 ; 0.0
87 ; 1.88006753520634E7 ; 2.0099387833102286E8 ; 1.5902613849887595E9 ; 1.5846584306456263E10 ; 0.0
88 ; 1.880174274945094E7 ; 2.0099978119839117E8 ; 1.609062060340823E9 ; 1.6047578184787285E10 ; 0.0
89 ; 1.878456620450463E7 ; 2.0100569784450096E8 ; 1.6278638030902739E9 ; 1.6248577965985676E10 ; 0.0
90 ; 1.875989256800177E7 ; 2.0101162748072508E8 ; 1.6466483692947786E9 ; 1.6449583663830177E10 ; 0.0
91 ; 1.8731079654634792E7 ; 2.0101756933907264E8 ; 1.6654082618627803E9 ; 1.6650595291310902E10 ; 0.0
92 ; 1.8704652280103564E7 ; 2.0102352267151085E8 ; 1.684139341517415E9 ; 1.6851612860649975E10 ; 0.0
93 ; 1.8682386835996028E7 ; 2.010294867493076E8 ; 1.7028439937975187E9 ; 1.7052636383321486E10 ; 0.0
94 ; 1.8653974910498083E7 ; 2.0103546086239433E8 ; 1.7215263806335146E9 ; 1.7253665870070793E10 ; 0.0
95 ; 1.863097546594551E7 ; 2.010414443187488E8 ; 1.7401803555440128E9 ; 1.745470133093319E10 ; 0.0
96 ; 1.8603187598603453E7 ; 2.010474364437977E8 ; 1.7588113310099583E9 ; 1.7655742775251938E10 ; 0.0
97 ; 1.8575373074493088E7 ; 2.010534365798385E8 ; 1.7774145186085618E9 ; 1.7856790211695736E10 ; 0.0
98 ; 1.8543135496305935E7 ; 2.010594440854803E8 ; 1.795989891683055E9 ; 1.8057843648275574E10 ; 0.0
99 ; 1.851502633990899E7 ; 2.01065458335103E8 ; 1.8145330271793609E9 ; 1.8258903092361053E10 ; 0.0
100 ; 1.8493834917395234E7 ; 2.0107147871833482E8 ; 1.83304805351927E9 ; 1.8459968550696156E10 ; 0.0
101 ; 1.846070356319712E7 ; 2.010775046395474E8 ; 1.851541888436665E9 ; 1.866104002941449E10 ; 0.0
102 ; 1.8432925558385476E7 ; 2.0108353551736793E8 ; 1.8700025919998622E9 ; 1.886211753405404E10 ; 0.0
103 ; 1.8409236498978887E7 ; 2.0108957078420824E8 ; 1.8884355175582476E9 ; 1.9063201069571407E10 ; 0.0
104 ; 1.8379565259201262E7 ; 2.0109560988581E8 ; 1.9068447540572264E9 ; 1.9264290640355614E10 ; 0.0
105 ; 1.8349771762870867E7 ; 2.0110165228080568E8 ; 1.9252243193164277E9 ; 1.9465386250241425E10 ; 0.0
106 ; 1.8320834254990924E7 ; 2.0110769744029516E8 ; 1.9435740910792985E9 ; 1.9666487902522232E10 ; 0.0
107 ; 1.8295064650448903E7 ; 2.0111374484743673E8 ; 1.9618949253342893E9 ; 1.986759559996253E10 ; 0.0
108 ; 1.8266244167269994E7 ; 2.0111979399705288E8 ; 1.980189989984738E9 ; 2.0068709344809963E10 ; 0.0
109 ; 1.823780044641017E7 ; 2.0112584439524987E8 ; 1.998456234152008E9 ; 2.0269829138807014E10 ; 0.0
110 ; 1.820573310205731E7 ; 2.0113189555905083E8 ; 2.0166940345984182E9 ; 2.0470954983202263E10 ; 0.0
111 ; 1.8178118987313323E7 ; 2.0113794701604193E8 ; 2.0348997677004755E9 ; 2.0672086878761314E10 ; 0.0
112 ; 1.8149355125225183E7 ; 2.0114399830403113E8 ; 2.0530778866877887E9 ; 2.0873224825777355E10 ; 0.0
113 ; 1.8118603298318222E7 ; 2.0115004897071925E8 ; 2.0712272418130138E9 ; 2.1074368824081387E10 ; 0.0
114 ; 1.8091185259499703E7 ; 2.0115609857338274E8 ; 2.089345845111332E9 ; 2.1275518873052105E10 ; 0.0
115 ; 1.805840877714348E7 ; 2.011621466785677E8 ; 2.1074370303708317E9 ; 2.147667497162549E10 ; 0.0
116 ; 1.802514257971679E7 ; 2.0116819286179528E8 ; 2.1254954391479752E9 ; 2.1677837118304054E10 ; 0.0
117 ; 1.79988624801402E7 ; 2.0117423670727715E8 ; 2.143520581727692E9 ; 2.1879005311165848E10 ; 0.0
118 ; 1.797195534778715E7 ; 2.011802778076416E8 ; 2.161519444207832E9 ; 2.2080179547873123E10 ; 0.0
119 ; 1.793848420294087E7 ; 2.0118631576366937E8 ; 2.1794913995556192E9 ; 2.2281359825680763E10 ; 0.0
120 ; 1.790898564970582E7 ; 2.01192350184039E8 ; 2.19742988375856E9 ; 2.248254614144443E10 ; 0.0
121 ; 1.787832198313487E7 ; 2.0119838068508124E8 ; 2.215338869408266E9 ; 2.268373849162847E10 ; 0.0
122 ; 1.7848240202383734E7 ; 2.012044068905424E8 ; 2.233217191391401E9 ; 2.2884936872313553E10 ; 0.0
123 ; 1.7812632423532575E7 ; 2.0121042843135625E8 ; 2.2510654315937843E9 ; 2.3086141279204094E10 ; 0.0
124 ; 1.7783428794963744E7 ; 2.0121644494542402E8 ; 2.268878064017317E9 ; 2.328735170763545E10 ; 0.0
125 ; 1.7751158479593858E7 ; 2.0122245607740232E8 ; 2.2866614928122807E9 ; 2.348856815258087E10 ; 0.0
126 ; 1.7721615861973505E7 ; 2.0122846147849876E8 ; 2.3044126512918744E9 ; 2.3689790608658276E10 ; 0.0
127 ; 1.768828652709684E7 ; 2.0123446080627465E8 ; 2.3221342671538477E9 ; 2.3891019070136776E10 ; 0.0
128 ; 1.7655616550953895E7 ; 2.0124045372445512E8 ; 2.3398225536809444E9 ; 2.409225353094305E10 ; 0.0
129 ; 1.762655616411571E7 ; 2.0124643990274575E8 ; 2.3574781702318983E9 ; 2.4293493984667507E10 ; 0.0
130 ; 1.7588974130555265E7 ; 2.0125241901665586E8 ; 2.375104726396014E9 ; 2.449474042457025E10 ; 0.0
131 ; 1.7548956168281276E7 ; 2.0125839074732798E8 ; 2.3926937005265694E9 ; 2.4695992843586906E10 ; 0.0
132 ; 1.751148893977032E7 ; 2.0126435478137365E8 ; 2.4102426566948504E9 ; 2.4897251234334236E10 ; 0.0
133 ; 1.7476542772348538E7 ; 2.0127031081071475E8 ; 2.4277541456346207E9 ; 2.509851558911561E10 ; 0.0
134 ; 1.7432385251320712E7 ; 2.0127625853243065E8 ; 2.445230688406969E9 ; 2.5299785899926323E10 ; 0.0
135 ; 1.7398739197184894E7 ; 2.0128219764861062E8 ; 2.46266307365829E9 ; 2.5501062158458755E10 ; 0.0
136 ; 1.73619553175518E7 ; 2.012881278662117E8 ; 2.480061812855475E9 ; 2.5702344356107365E10 ; 0.0
137 ; 1.7323172561017253E7 ; 2.012940488969213E8 ; 2.4974237681730266E9 ; 2.5903632483973576E10 ; 0.0
138 ; 1.7281164591272477E7 ; 2.012999604570247E8 ; 2.5147469407340436E9 ; 2.61049265328705E10 ; 0.0
139 ; 1.724129451671493E7 ; 2.0130586226727745E8 ; 2.532028105325316E9 ; 2.6306226493327522E10 ; 0.0
140 ; 1.7206042228542116E7 ; 2.0131175405278182E8 ; 2.549269399842031E9 ; 2.65075323555948E10 ; 0.0
141 ; 1.716367753784854E7 ; 2.013176355428679E8 ; 2.5664754420705733E9 ; 2.670884410964758E10 ; 0.0
142 ; 1.7123806741598647E7 ; 2.0132350647097877E8 ; 2.583639119608422E9 ; 2.691016174519045E10 ; 0.0
143 ; 1.708439573792876E7 ; 2.013293665745595E8 ; 2.6007629263500204E9 ; 2.7111485251661427E10 ; 0.0
144 ; 1.7045397302410875E7 ; 2.013352155949502E8 ; 2.6178473220879493E9 ; 2.7312814618235985E10 ; 0.0
145 ; 1.701248271407574E7 ; 2.0134105327728266E8 ; 2.6348927193903604E9 ; 2.7514149833830936E10 ; 0.0
146 ; 1.6981217393786974E7 ; 2.0134687937038058E8 ; 2.651905202104436E9 ; 2.771549088710822E10 ; 0.0
147 ; 1.6945145567208134E7 ; 2.0135269362666336E8 ; 2.668886419498223E9 ; 2.79168377664786E10 ; 0.0
148 ; 1.691036146426469E7 ; 2.0135849580205283E8 ; 2.685831565065431E9 ; 2.8118190460105263E10 ; 0.0
149 ; 1.6881423643942848E7 ; 2.0136428565588367E8 ; 2.702741926529696E9 ; 2.8319548955907314E10 ; 0.0
150 ; 1.684530644625485E7 ; 2.013700629508165E8 ; 2.719623350173639E9 ; 2.8520913241563198E10 ; 0.0
151 ; 1.6816761405138593E7 ; 2.0137582745275414E8 ; 2.7364686566198936E9 ; 2.8722283304514015E10 ; 0.0
152 ; 1.6782194060179465E7 ; 2.0138157893076053E8 ; 2.753285418025032E9 ; 2.892365913196677E10 ; 0.0
153 ; 1.674932242632352E7 ; 2.0138731715698266E8 ; 2.7700676120852113E9 ; 2.912504071089753E10 ; 0.0
154 ; 1.6716557505863573E7 ; 2.0139304190657488E8 ; 2.7868169345115347E9 ; 2.9326428028054512E10 ; 0.0
155 ; 1.6681288873742433E7 ; 2.013987529576259E8 ; 2.8035334920173984E9 ; 2.9527821069961086E10 ; 0.0
156 ; 1.6650321492419625E7 ; 2.0140445009108827E8 ; 2.820214780891141E9 ; 2.9729219822918713E10 ; 0.0
157 ; 1.6614206927169196E7 ; 2.014101330907101E8 ; 2.8368651023835607E9 ; 2.99306242730098E10 ; 0.0
158 ; 1.6583746583342487E7 ; 2.0141580174296916E8 ; 2.85347930931073E9 ; 3.013203440610051E10 ; 0.0
159 ; 1.6548083623097371E7 ; 2.0142145583700913E8 ; 2.8700630558940725E9 ; 3.033345020784348E10 ; 0.0
160 ; 1.6514861048950594E7 ; 2.01427095164578E8 ; 2.88661113951717E9 ; 3.053487166368049E10 ; 0.0
161 ; 1.6483776340393329E7 ; 2.0143271951996848E8 ; 2.9031260005661206E9 ; 3.0736298758845066E10 ; 0.0
162 ; 1.6445083576865688E7 ; 2.0143832869996044E8 ; 2.919609776906514E9 ; 3.0937731478365036E10 ; 0.0
163 ; 1.6409168676211407E7 ; 2.0144392250376523E8 ; 2.93605486048338E9 ; 3.1139169807064995E10 ; 0.0
164 ; 1.6379924801074076E7 ; 2.0144950073297164E8 ; 2.952464029159591E9 ; 3.134061372956876E10 ; 0.0
165 ; 1.634584046119563E7 ; 2.0145506319149405E8 ; 2.968843953960665E9 ; 3.154206323030173E10 ; 0.0
166 ; 1.6313433865575042E7 ; 2.0146060968552187E8 ; 2.9851897944218607E9 ; 3.1743518293493225E10 ; 0.0
167 ; 1.627247866097869E7 ; 2.0146614002347076E8 ; 3.0015032282874355E9 ; 3.1944978903178745E10 ; 0.0
168 ; 1.6246104295508614E7 ; 2.0147165401593557E8 ; 3.0177757069484143E9 ; 3.2146445043202217E10 ; 0.0
169 ; 1.620944950195622E7 ; 2.014771514756447E8 ; 3.0340218112439227E9 ; 3.234791669721815E10 ; 0.0
170 ; 1.6175913662837747E7 ; 2.014826322174158E8 ; 3.0502312607458787E9 ; 3.2549393848693794E10 ; 0.0
171 ; 1.6143966274279034E7 ; 2.0148809605811325E8 ; 3.0664071744087167E9 ; 3.275087648091121E10 ; 0.0
172 ; 1.6109533710804494E7 ; 2.0149354281660652E8 ; 3.082551140682996E9 ; 3.2952364576969322E10 ; 0.0
173 ; 1.6074025563522207E7 ; 2.0149897231373045E8 ; 3.0986606743938003E9 ; 3.3153858119785927E10 ; 0.0
174 ; 1.6043926739397341E7 ; 2.015043843722463E8 ; 3.1147346999573226E9 ; 3.335535709209966E10 ; 0.0
175 ; 1.6012111404941682E7 ; 2.0150977881680423E8 ; 3.13077862669672E9 ; 3.3556861476471905E10 ; 0.0
176 ; 1.5982050323470224E7 ; 2.015151554739071E8 ; 3.1467907381016617E9 ; 3.3758371255288708E10 ; 0.0
177 ; 1.5954753349096183E7 ; 2.0152051417187533E8 ; 3.162772788425132E9 ; 3.3959886410762615E10 ; 0.0
178 ; 1.5926173856062189E7 ; 2.0152585474081257E8 ; 3.178727541774228E9 ; 3.416140692493449E10 ; 0.0
179 ; 1.5897055632440194E7 ; 2.0153117701257312E8 ; 3.1946537156302905E9 ; 3.43629327796753E10 ; 0.0
180 ; 1.5864705750170272E7 ; 2.0153648082072973E8 ; 3.2105507712627306E9 ; 3.4564463956687874E10 ; 0.0
181 ; 1.583886960532083E7 ; 2.015417660005428E8 ; 3.226415477012901E9 ; 3.4766000437508606E10 ; 0.0
182 ; 1.581097514229416E7 ; 2.0154703238893032E8 ; 3.2422543466182218E9 ; 3.496754220350915E10 ; 0.0
183 ; 1.5781047098088374E7 ; 2.01552279824439E8 ; 3.2580653217605157E9 ; 3.516908923589808E10 ; 0.0
184 ; 1.5746330012455415E7 ; 2.01557508147216E8 ; 3.273846368858604E9 ; 3.537064151572252E10 ; 0.0
185 ; 1.5720851723479185E7 ; 2.0156271719898185E8 ; 3.2895926988710594E9 ; 3.5572199023869736E10 ; 0.0
186 ; 1.5694067023482434E7 ; 2.0156790682300395E8 ; 3.3053135505945387E9 ; 3.577376174106872E10 ; 0.0
187 ; 1.5663287703110168E7 ; 2.0157307686407104E8 ; 3.321007617618021E9 ; 3.597532964789172E10 ; 0.0
188 ; 1.562837366566247E7 ; 2.0157822716846848E8 ; 3.336670905321131E9 ; 3.61769027247558E10 ; 0.0
189 ; 1.560528220560587E7 ; 2.0158335758395416E8 ; 3.3522992789867935E9 ; 3.637848095192427E10 ; 0.0
190 ; 1.5572317115965338E7 ; 2.015884679597352E8 ; 3.3679045611923995E9 ; 3.6580064309508224E10 ; 0.0
191 ; 1.554193040722016E7 ; 2.0159355814644563E8 ; 3.383476878308365E9 ; 3.678165277746796E10 ; 0.0
192 ; 1.5514111035904018E7 ; 2.015986279961242E8 ; 3.399018808715585E9 ; 3.69832463356144E10 ; 0.0
193 ; 1.5484263593208939E7 ; 2.016036773621934E8 ; 3.414532919751489E9 ; 3.718484496361053E10 ; 0.0
194 ; 1.5456886618011035E7 ; 2.016087060994389E8 ; 3.430017183344698E9 ; 3.738644864097272E10 ; 0.0
195 ; 1.5424767949515061E7 ; 2.0161371406398955E8 ; 3.445474069962709E9 ; 3.758805734707216E10 ; 0.0
