CSV File for the City 5 on Day 12
1 - Minute m 
2 - Power Consumed at minute m 
3 - Power Produced at minute m 
4 - Energy Consumed since the beginning of the day 
5 - Energy Produced since the beginning of the day 
6 - Energy Lost since the beginning of the day on lines starting from the city
 
0 ; 8484521.364823185 ; 1.009388484897871E7 ; 0.0 ; 0.0 ; 0.0
1 ; 8492942.532305026 ; 1.009388484897871E7 ; 8484521.364823185 ; 1.009388484897871E7 ; 0.0
2 ; 8502518.810218664 ; 1.009388484897871E7 ; 1.697746389712821E7 ; 2.018776969795742E7 ; 0.0
3 ; 8513479.354306763 ; 1.009388484897871E7 ; 2.547998270734687E7 ; 3.028165454693613E7 ; 0.0
4 ; 8527001.536286693 ; 1.009388484897871E7 ; 3.399346206165364E7 ; 4.037553939591484E7 ; 0.0
5 ; 8539360.150171861 ; 1.009388484897871E7 ; 4.2520463597940326E7 ; 5.046942424489355E7 ; 0.0
6 ; 8560313.33273463 ; 1.009388484897871E7 ; 5.105982374811219E7 ; 6.0563309093872264E7 ; 0.0
7 ; 8590710.998731209 ; 1.009388484897871E7 ; 5.962013708084682E7 ; 7.065719394285098E7 ; 0.0
8 ; 8632109.510412555 ; 1.009388484897871E7 ; 6.821084807957803E7 ; 8.075107879182969E7 ; 0.0
9 ; 8695297.803218741 ; 1.009388484897871E7 ; 7.684295758999059E7 ; 9.08449636408084E7 ; 0.0
10 ; 8790797.35261417 ; 1.009388484897871E7 ; 8.553825539320932E7 ; 1.0093884848978712E8 ; 0.0
11 ; 8948657.775180269 ; 1.009388484897871E7 ; 9.432905274582349E7 ; 1.1103273333876583E8 ; 0.0
12 ; 9197832.822226502 ; 1.009388484897871E7 ; 1.0327771052100375E8 ; 1.2112661818774454E8 ; 0.0
13 ; 9433530.566152407 ; 1.009388484897871E7 ; 1.1247554334323025E8 ; 1.3122050303672326E8 ; 0.0
14 ; 9461987.112614837 ; 1.009388484897871E7 ; 1.2190907390938266E8 ; 1.4131438788570195E8 ; 0.0
15 ; 9478511.304679293 ; 1.009388484897871E7 ; 1.313710610219975E8 ; 1.5140827273468065E8 ; 0.0
16 ; 9483844.383972479 ; 1.009388484897871E7 ; 1.408495723266768E8 ; 1.6150215758365935E8 ; 0.0
17 ; 9496275.199836785 ; 1.009388484897871E7 ; 1.5033341671064925E8 ; 1.7159604243263805E8 ; 0.0
18 ; 9505429.361822234 ; 1.009388484897871E7 ; 1.5982969191048604E8 ; 1.8168992728161675E8 ; 0.0
19 ; 9518270.95160241 ; 1.009388484897871E7 ; 1.693351212723083E8 ; 1.9178381213059545E8 ; 0.0
20 ; 9530542.078382 ; 1.009388484897871E7 ; 1.788533922239107E8 ; 2.0187769697957414E8 ; 0.0
21 ; 9539102.13826772 ; 1.009388484897871E7 ; 1.883839343022927E8 ; 2.1197158182855284E8 ; 0.0
22 ; 9553130.070200784 ; 1.009388484897871E7 ; 1.9792303644056043E8 ; 2.2206546667753154E8 ; 0.0
23 ; 9566139.73336467 ; 1.009388484897871E7 ; 2.074761665107612E8 ; 2.3215935152651024E8 ; 0.0
24 ; 9576765.547160245 ; 1.009388484897871E7 ; 2.1704230624412587E8 ; 2.4225323637548894E8 ; 0.0
25 ; 9588545.776592366 ; 1.009388484897871E7 ; 2.266190717912861E8 ; 2.5234712122446764E8 ; 0.0
26 ; 9595951.334931681 ; 1.009388484897871E7 ; 2.3620761756787848E8 ; 2.6244100607344633E8 ; 0.0
27 ; 9610578.113527209 ; 1.009388484897871E7 ; 2.4580356890281016E8 ; 2.7253489092242503E8 ; 0.0
28 ; 9617402.062349735 ; 1.009388484897871E7 ; 2.5541414701633736E8 ; 2.8262877577140373E8 ; 0.0
29 ; 9630593.201368004 ; 1.009388484897871E7 ; 2.650315490786871E8 ; 2.927226606203824E8 ; 0.0
30 ; 9639729.750104107 ; 1.009388484897871E7 ; 2.746621422800551E8 ; 3.028165454693611E8 ; 0.0
31 ; 9651143.267448394 ; 1.009388484897871E7 ; 2.8430187203015924E8 ; 3.129104303183398E8 ; 0.0
32 ; 9660142.309063414 ; 1.009388484897871E7 ; 2.939530152976076E8 ; 3.230043151673185E8 ; 0.0
33 ; 9668787.240949355 ; 1.009388484897871E7 ; 3.0361315760667104E8 ; 3.330982000162972E8 ; 0.0
34 ; 9681171.705050176 ; 1.009388484897871E7 ; 3.1328194484762037E8 ; 3.431920848652759E8 ; 0.0
35 ; 9687865.459083086 ; 1.009388484897871E7 ; 3.2296311655267054E8 ; 3.532859697142546E8 ; 0.0
36 ; 9695786.482956659 ; 1.009388484897871E7 ; 3.326509820117536E8 ; 3.633798545632333E8 ; 0.0
37 ; 9706722.439634828 ; 1.009388484897871E7 ; 3.4234676849471027E8 ; 3.73473739412212E8 ; 0.0
38 ; 9712522.327899838 ; 1.009388484897871E7 ; 3.5205349093434507E8 ; 3.835676242611907E8 ; 0.0
39 ; 9722485.390889332 ; 1.009388484897871E7 ; 3.617660132622449E8 ; 3.936615091101694E8 ; 0.0
40 ; 9730922.344581373 ; 1.009388484897871E7 ; 3.714884986531342E8 ; 4.037553939591481E8 ; 0.0
41 ; 9736526.25026748 ; 1.009388484897871E7 ; 3.812194209977156E8 ; 4.138492788081268E8 ; 0.0
42 ; 9742370.088340944 ; 1.009388484897871E7 ; 3.909559472479831E8 ; 4.239431636571055E8 ; 0.0
43 ; 9747137.641183436 ; 1.009388484897871E7 ; 4.0069831733632404E8 ; 4.340370485060842E8 ; 0.0
44 ; 9752743.042735126 ; 1.009388484897871E7 ; 4.104454549775075E8 ; 4.441309333550629E8 ; 0.0
45 ; 9758621.635292431 ; 1.009388484897871E7 ; 4.201981980202426E8 ; 4.542248182040416E8 ; 0.0
46 ; 9764668.811131144 ; 1.009388484897871E7 ; 4.29956819655535E8 ; 4.643187030530203E8 ; 0.0
47 ; 9769753.28963155 ; 1.009388484897871E7 ; 4.397214884666661E8 ; 4.74412587901999E8 ; 0.0
48 ; 9769594.889601495 ; 1.009388484897871E7 ; 4.4949124175629765E8 ; 4.845064727509777E8 ; 0.0
49 ; 9775993.94462396 ; 1.009388484897871E7 ; 4.592608366458991E8 ; 4.946003575999564E8 ; 0.0
50 ; 9778801.425729096 ; 1.009388484897871E7 ; 4.6903683059052306E8 ; 5.046942424489351E8 ; 0.0
51 ; 9784469.940029932 ; 1.009388484897871E7 ; 4.7881563201625216E8 ; 5.147881272979138E8 ; 0.0
52 ; 9784010.110290721 ; 1.009388484897871E7 ; 4.886001019562821E8 ; 5.248820121468925E8 ; 0.0
53 ; 9788658.528527932 ; 1.009388484897871E7 ; 4.983841120665728E8 ; 5.349758969958712E8 ; 0.0
54 ; 9792151.579339363 ; 1.009388484897871E7 ; 5.081727705951007E8 ; 5.4506978184485E8 ; 0.0
55 ; 9790951.544447552 ; 1.009388484897871E7 ; 5.179649221744401E8 ; 5.551636666938287E8 ; 0.0
56 ; 9794071.300896458 ; 1.009388484897871E7 ; 5.277558737188876E8 ; 5.652575515428075E8 ; 0.0
57 ; 9796608.145001413 ; 1.009388484897871E7 ; 5.375499450197841E8 ; 5.753514363917862E8 ; 0.0
58 ; 9803064.399005475 ; 1.009388484897871E7 ; 5.473465531647855E8 ; 5.85445321240765E8 ; 0.0
59 ; 9802033.396720186 ; 1.009388484897871E7 ; 5.57149617563791E8 ; 5.955392060897437E8 ; 0.0
60 ; 9805832.763123168 ; 1.009388484897871E7 ; 5.669516509605112E8 ; 6.056330909387225E8 ; 0.0
61 ; 9805068.42775718 ; 1.009388484897871E7 ; 5.767574837236344E8 ; 6.157269757877012E8 ; 0.0
62 ; 9809450.035380496 ; 1.009388484897871E7 ; 5.865625521513915E8 ; 6.2582086063668E8 ; 0.0
63 ; 9809959.10195057 ; 1.009388484897871E7 ; 5.96372002186772E8 ; 6.359147454856588E8 ; 0.0
64 ; 9810182.374607429 ; 1.009388484897871E7 ; 6.061819612887225E8 ; 6.460086303346375E8 ; 0.0
65 ; 9811735.890835477 ; 1.009388484897871E7 ; 6.1599214366333E8 ; 6.561025151836163E8 ; 0.0
66 ; 9815056.730288558 ; 1.009388484897871E7 ; 6.258038795541655E8 ; 6.66196400032595E8 ; 0.0
67 ; 9813413.888491688 ; 1.009388484897871E7 ; 6.35618936284454E8 ; 6.762902848815738E8 ; 0.0
68 ; 9815809.08089358 ; 1.009388484897871E7 ; 6.454323501729456E8 ; 6.863841697305526E8 ; 0.0
69 ; 9815192.890441738 ; 1.009388484897871E7 ; 6.552481592538393E8 ; 6.964780545795313E8 ; 0.0
70 ; 9818795.93018309 ; 1.009388484897871E7 ; 6.65063352144281E8 ; 7.065719394285101E8 ; 0.0
71 ; 9818173.043179402 ; 1.009388484897871E7 ; 6.748821480744641E8 ; 7.166658242774888E8 ; 0.0
72 ; 9821199.10698185 ; 1.009388484897871E7 ; 6.847003211176435E8 ; 7.267597091264676E8 ; 0.0
73 ; 9818561.58804985 ; 1.009388484897871E7 ; 6.945215202246253E8 ; 7.368535939754463E8 ; 0.0
74 ; 9821498.698185138 ; 1.009388484897871E7 ; 7.043400818126752E8 ; 7.469474788244251E8 ; 0.0
75 ; 9820797.01966278 ; 1.009388484897871E7 ; 7.141615805108603E8 ; 7.570413636734039E8 ; 0.0
76 ; 9823812.842198556 ; 1.009388484897871E7 ; 7.239823775305231E8 ; 7.671352485223826E8 ; 0.0
77 ; 9821530.53934696 ; 1.009388484897871E7 ; 7.338061903727217E8 ; 7.772291333713614E8 ; 0.0
78 ; 9819870.482091965 ; 1.009388484897871E7 ; 7.436277209120686E8 ; 7.873230182203401E8 ; 0.0
79 ; 9816707.813745566 ; 1.009388484897871E7 ; 7.534475913941606E8 ; 7.974169030693189E8 ; 0.0
80 ; 9812389.827986596 ; 1.009388484897871E7 ; 7.632642992079062E8 ; 8.075107879182976E8 ; 0.0
81 ; 9812695.402228056 ; 1.009388484897871E7 ; 7.730766890358928E8 ; 8.176046727672764E8 ; 0.0
82 ; 9809773.767115688 ; 1.009388484897871E7 ; 7.828893844381208E8 ; 8.276985576162552E8 ; 0.0
83 ; 9804812.954891276 ; 1.009388484897871E7 ; 7.926991582052366E8 ; 8.377924424652339E8 ; 0.0
84 ; 9802003.289306572 ; 1.009388484897871E7 ; 8.025039711601279E8 ; 8.478863273142127E8 ; 0.0
85 ; 9799841.44598172 ; 1.009388484897871E7 ; 8.123059744494344E8 ; 8.579802121631914E8 ; 0.0
86 ; 9795370.823925272 ; 1.009388484897871E7 ; 8.221058158954161E8 ; 8.680740970121702E8 ; 0.0
87 ; 9790388.567843718 ; 1.009388484897871E7 ; 8.319011867193414E8 ; 8.78167981861149E8 ; 0.0
88 ; 9785909.335690236 ; 1.009388484897871E7 ; 8.416915752871851E8 ; 8.882618667101277E8 ; 0.0
89 ; 9782516.130617676 ; 1.009388484897871E7 ; 8.514774846228753E8 ; 8.983557515591065E8 ; 0.0
90 ; 9778834.068342773 ; 1.009388484897871E7 ; 8.61260000753493E8 ; 9.084496364080852E8 ; 0.0
91 ; 9778226.657093892 ; 1.009388484897871E7 ; 8.710388348218358E8 ; 9.18543521257064E8 ; 0.0
92 ; 9769596.626355536 ; 1.009388484897871E7 ; 8.808170614789296E8 ; 9.286374061060427E8 ; 0.0
93 ; 9769642.90941891 ; 1.009388484897871E7 ; 8.905866581052852E8 ; 9.387312909550215E8 ; 0.0
94 ; 9762337.342188407 ; 1.009388484897871E7 ; 9.003563010147041E8 ; 9.488251758040003E8 ; 0.0
95 ; 9758807.59177474 ; 1.009388484897871E7 ; 9.101186383568925E8 ; 9.58919060652979E8 ; 0.0
96 ; 9754343.718143439 ; 1.009388484897871E7 ; 9.198774459486672E8 ; 9.690129455019578E8 ; 0.0
97 ; 9750413.030857112 ; 1.009388484897871E7 ; 9.296317896668106E8 ; 9.791068303509365E8 ; 0.0
98 ; 9747705.111703431 ; 1.009388484897871E7 ; 9.393822026976677E8 ; 9.892007151999153E8 ; 0.0
99 ; 9742779.03319246 ; 1.009388484897871E7 ; 9.491299078093711E8 ; 9.99294600048894E8 ; 0.0
100 ; 9735100.922222871 ; 1.009388484897871E7 ; 9.588726868425636E8 ; 1.0093884848978728E9 ; 0.0
101 ; 9731690.722930836 ; 1.009388484897871E7 ; 9.686077877647865E8 ; 1.0194823697468516E9 ; 0.0
102 ; 9727356.104128528 ; 1.009388484897871E7 ; 9.783394784877173E8 ; 1.0295762545958303E9 ; 0.0
103 ; 9724027.674782123 ; 1.009388484897871E7 ; 9.880668345918458E8 ; 1.0396701394448091E9 ; 0.0
104 ; 9715075.955492336 ; 1.009388484897871E7 ; 9.977908622666279E8 ; 1.0497640242937878E9 ; 0.0
105 ; 9712293.271216854 ; 1.009388484897871E7 ; 1.0075059382221203E9 ; 1.0598579091427666E9 ; 0.0
106 ; 9705554.091355262 ; 1.009388484897871E7 ; 1.0172182314933372E9 ; 1.0699517939917454E9 ; 0.0
107 ; 9702263.441127522 ; 1.009388484897871E7 ; 1.0269237855846924E9 ; 1.080045678840724E9 ; 0.0
108 ; 9693618.598990489 ; 1.009388484897871E7 ; 1.0366260490258199E9 ; 1.0901395636897027E9 ; 0.0
109 ; 9690861.332876464 ; 1.009388484897871E7 ; 1.0463196676248103E9 ; 1.1002334485386815E9 ; 0.0
110 ; 9682756.068776846 ; 1.009388484897871E7 ; 1.0560105289576868E9 ; 1.1103273333876603E9 ; 0.0
111 ; 9676394.808137575 ; 1.009388484897871E7 ; 1.0656932850264636E9 ; 1.120421218236639E9 ; 0.0
112 ; 9674045.273102686 ; 1.009388484897871E7 ; 1.0753696798346012E9 ; 1.1305151030856178E9 ; 0.0
113 ; 9667201.916254314 ; 1.009388484897871E7 ; 1.085043725107704E9 ; 1.1406089879345965E9 ; 0.0
114 ; 9662598.067865277 ; 1.009388484897871E7 ; 1.0947109270239582E9 ; 1.1507028727835753E9 ; 0.0
115 ; 9654733.263734622 ; 1.009388484897871E7 ; 1.1043735250918236E9 ; 1.160796757632554E9 ; 0.0
116 ; 9644517.061193172 ; 1.009388484897871E7 ; 1.1140282583555582E9 ; 1.1708906424815328E9 ; 0.0
117 ; 9641534.538709326 ; 1.009388484897871E7 ; 1.1236727754167514E9 ; 1.1809845273305116E9 ; 0.0
118 ; 9633924.58217633 ; 1.009388484897871E7 ; 1.1333143099554608E9 ; 1.1910784121794903E9 ; 0.0
119 ; 9626872.909775548 ; 1.009388484897871E7 ; 1.1429482345376372E9 ; 1.201172297028469E9 ; 0.0
120 ; 9617399.311384082 ; 1.009388484897871E7 ; 1.1525751074474127E9 ; 1.2112661818774478E9 ; 0.0
121 ; 9613254.173778605 ; 1.009388484897871E7 ; 1.1621925067587967E9 ; 1.2213600667264266E9 ; 0.0
122 ; 9609385.545875242 ; 1.009388484897871E7 ; 1.1718057609325752E9 ; 1.2314539515754054E9 ; 0.0
123 ; 9601709.078656256 ; 1.009388484897871E7 ; 1.1814151464784505E9 ; 1.241547836424384E9 ; 0.0
124 ; 9592394.550243784 ; 1.009388484897871E7 ; 1.1910168555571067E9 ; 1.2516417212733629E9 ; 0.0
125 ; 9585254.298498468 ; 1.009388484897871E7 ; 1.2006092501073506E9 ; 1.2617356061223416E9 ; 0.0
126 ; 9577912.913271308 ; 1.009388484897871E7 ; 1.210194504405849E9 ; 1.2718294909713204E9 ; 0.0
127 ; 9570500.898544056 ; 1.009388484897871E7 ; 1.2197724173191204E9 ; 1.2819233758202991E9 ; 0.0
128 ; 9563971.051978648 ; 1.009388484897871E7 ; 1.2293429182176645E9 ; 1.292017260669278E9 ; 0.0
129 ; 9556251.07669076 ; 1.009388484897871E7 ; 1.238906889269643E9 ; 1.3021111455182567E9 ; 0.0
130 ; 9546926.414909253 ; 1.009388484897871E7 ; 1.2484631403463337E9 ; 1.3122050303672354E9 ; 0.0
131 ; 9532546.194411222 ; 1.009388484897871E7 ; 1.258010066761243E9 ; 1.3222989152162142E9 ; 0.0
132 ; 9525959.447185652 ; 1.009388484897871E7 ; 1.2675426129556544E9 ; 1.332392800065193E9 ; 0.0
133 ; 9512297.932040555 ; 1.009388484897871E7 ; 1.2770685724028401E9 ; 1.3424866849141717E9 ; 0.0
134 ; 9505880.389190985 ; 1.009388484897871E7 ; 1.2865808703348806E9 ; 1.3525805697631505E9 ; 0.0
135 ; 9494364.444325479 ; 1.009388484897871E7 ; 1.2960867507240715E9 ; 1.3626744546121292E9 ; 0.0
136 ; 9480135.754176026 ; 1.009388484897871E7 ; 1.305581115168397E9 ; 1.372768339461108E9 ; 0.0
137 ; 9469773.041417174 ; 1.009388484897871E7 ; 1.315061250922573E9 ; 1.3828622243100867E9 ; 0.0
138 ; 9458454.835594706 ; 1.009388484897871E7 ; 1.3245310239639902E9 ; 1.3929561091590655E9 ; 0.0
139 ; 9449149.463347072 ; 1.009388484897871E7 ; 1.3339894787995849E9 ; 1.4030499940080442E9 ; 0.0
140 ; 9436145.032772925 ; 1.009388484897871E7 ; 1.3434386282629318E9 ; 1.413143878857023E9 ; 0.0
141 ; 9423864.402844721 ; 1.009388484897871E7 ; 1.3528747732957048E9 ; 1.4232377637060018E9 ; 0.0
142 ; 9412646.733419407 ; 1.009388484897871E7 ; 1.3622986376985495E9 ; 1.4333316485549805E9 ; 0.0
143 ; 9402592.719639698 ; 1.009388484897871E7 ; 1.371711284431969E9 ; 1.4434255334039593E9 ; 0.0
144 ; 9391119.469259359 ; 1.009388484897871E7 ; 1.3811138771516087E9 ; 1.453519418252938E9 ; 0.0
145 ; 9379090.658364296 ; 1.009388484897871E7 ; 1.390504996620868E9 ; 1.4636133031019168E9 ; 0.0
146 ; 9370929.668092633 ; 1.009388484897871E7 ; 1.3998840872792323E9 ; 1.4737071879508955E9 ; 0.0
147 ; 9363246.343300603 ; 1.009388484897871E7 ; 1.409255016947325E9 ; 1.4838010727998743E9 ; 0.0
148 ; 9358240.63630099 ; 1.009388484897871E7 ; 1.4186182632906256E9 ; 1.493894957648853E9 ; 0.0
149 ; 9347630.377827879 ; 1.009388484897871E7 ; 1.4279765039269266E9 ; 1.5039888424978318E9 ; 0.0
150 ; 9339942.77811699 ; 1.009388484897871E7 ; 1.4373241343047545E9 ; 1.5140827273468106E9 ; 0.0
151 ; 9328021.282210086 ; 1.009388484897871E7 ; 1.4466640770828714E9 ; 1.5241766121957893E9 ; 0.0
152 ; 9323555.444297057 ; 1.009388484897871E7 ; 1.4559920983650815E9 ; 1.534270497044768E9 ; 0.0
153 ; 9314782.441463757 ; 1.009388484897871E7 ; 1.4653156538093786E9 ; 1.5443643818937469E9 ; 0.0
154 ; 9305973.556550764 ; 1.009388484897871E7 ; 1.4746304362508423E9 ; 1.5544582667427256E9 ; 0.0
155 ; 9297549.302185453 ; 1.009388484897871E7 ; 1.483936409807393E9 ; 1.5645521515917044E9 ; 0.0
156 ; 9286547.939505054 ; 1.009388484897871E7 ; 1.4932339591095786E9 ; 1.5746460364406831E9 ; 0.0
157 ; 9279415.444093354 ; 1.009388484897871E7 ; 1.5025205070490837E9 ; 1.584739921289662E9 ; 0.0
158 ; 9271711.502733134 ; 1.009388484897871E7 ; 1.5117999224931772E9 ; 1.5948338061386406E9 ; 0.0
159 ; 9261573.106170408 ; 1.009388484897871E7 ; 1.5210716339959104E9 ; 1.6049276909876194E9 ; 0.0
160 ; 9253569.758983841 ; 1.009388484897871E7 ; 1.5303332071020808E9 ; 1.6150215758365982E9 ; 0.0
161 ; 9242867.161827084 ; 1.009388484897871E7 ; 1.5395867768610647E9 ; 1.625115460685577E9 ; 0.0
162 ; 9234226.659135714 ; 1.009388484897871E7 ; 1.5488296440228918E9 ; 1.6352093455345557E9 ; 0.0
163 ; 9225383.729611514 ; 1.009388484897871E7 ; 1.5580638706820276E9 ; 1.6453032303835344E9 ; 0.0
164 ; 9217044.648410223 ; 1.009388484897871E7 ; 1.567289254411639E9 ; 1.6553971152325132E9 ; 0.0
165 ; 9210912.547383847 ; 1.009388484897871E7 ; 1.5765062990600493E9 ; 1.665491000081492E9 ; 0.0
166 ; 9200255.322939713 ; 1.009388484897871E7 ; 1.585717211607433E9 ; 1.6755848849304707E9 ; 0.0
167 ; 9191389.477082325 ; 1.009388484897871E7 ; 1.5949174669303727E9 ; 1.6856787697794495E9 ; 0.0
168 ; 9181387.047121292 ; 1.009388484897871E7 ; 1.604108856407455E9 ; 1.6957726546284282E9 ; 0.0
169 ; 9171616.487030288 ; 1.009388484897871E7 ; 1.6132902434545763E9 ; 1.705866539477407E9 ; 0.0
170 ; 9164655.53676676 ; 1.009388484897871E7 ; 1.6224618599416065E9 ; 1.7159604243263857E9 ; 0.0
171 ; 9151090.729269896 ; 1.009388484897871E7 ; 1.6316265154783733E9 ; 1.7260543091753645E9 ; 0.0
172 ; 9146417.50837772 ; 1.009388484897871E7 ; 1.6407776062076433E9 ; 1.7361481940243433E9 ; 0.0
173 ; 9135999.84497477 ; 1.009388484897871E7 ; 1.649924023716021E9 ; 1.746242078873322E9 ; 0.0
174 ; 9128326.682157032 ; 1.009388484897871E7 ; 1.6590600235609958E9 ; 1.7563359637223008E9 ; 0.0
175 ; 9124172.658018537 ; 1.009388484897871E7 ; 1.6681883502431529E9 ; 1.7664298485712795E9 ; 0.0
176 ; 9116068.198494902 ; 1.009388484897871E7 ; 1.6773125229011714E9 ; 1.7765237334202583E9 ; 0.0
177 ; 9113639.120633472 ; 1.009388484897871E7 ; 1.6864285910996664E9 ; 1.786617618269237E9 ; 0.0
178 ; 9111376.744750882 ; 1.009388484897871E7 ; 1.6955422302202997E9 ; 1.7967115031182158E9 ; 0.0
179 ; 9102328.84222176 ; 1.009388484897871E7 ; 1.7046536069650507E9 ; 1.8068053879671946E9 ; 0.0
180 ; 9095861.272803381 ; 1.009388484897871E7 ; 1.7137559358072724E9 ; 1.8168992728161733E9 ; 0.0
181 ; 9090975.786425464 ; 1.009388484897871E7 ; 1.7228517970800757E9 ; 1.826993157665152E9 ; 0.0
182 ; 9085167.549791744 ; 1.009388484897871E7 ; 1.731942772866501E9 ; 1.8370870425141308E9 ; 0.0
183 ; 9077709.945442969 ; 1.009388484897871E7 ; 1.741027940416293E9 ; 1.8471809273631096E9 ; 0.0
184 ; 9075402.32811017 ; 1.009388484897871E7 ; 1.7501056503617358E9 ; 1.8572748122120883E9 ; 0.0
185 ; 9069648.621546524 ; 1.009388484897871E7 ; 1.759181052689846E9 ; 1.867368697061067E9 ; 0.0
186 ; 9063632.106666245 ; 1.009388484897871E7 ; 1.7682507013113925E9 ; 1.8774625819100459E9 ; 0.0
187 ; 9058455.525259718 ; 1.009388484897871E7 ; 1.7773143334180589E9 ; 1.8875564667590246E9 ; 0.0
188 ; 9054315.521172246 ; 1.009388484897871E7 ; 1.7863727889433186E9 ; 1.8976503516080034E9 ; 0.0
189 ; 9046442.685369825 ; 1.009388484897871E7 ; 1.795427104464491E9 ; 1.9077442364569821E9 ; 0.0
190 ; 9043751.986467544 ; 1.009388484897871E7 ; 1.8044735471498606E9 ; 1.917838121305961E9 ; 0.0
191 ; 9038413.445141995 ; 1.009388484897871E7 ; 1.8135172991363282E9 ; 1.9279320061549397E9 ; 0.0
192 ; 9029083.961843636 ; 1.009388484897871E7 ; 1.8225557125814703E9 ; 1.9380258910039184E9 ; 0.0
193 ; 9026977.785584243 ; 1.009388484897871E7 ; 1.831584796543314E9 ; 1.9481197758528972E9 ; 0.0
194 ; 9018317.582342412 ; 1.009388484897871E7 ; 1.8406117743288982E9 ; 1.958213660701876E9 ; 0.0
195 ; 9016090.601798676 ; 1.009388484897871E7 ; 1.8496300919112406E9 ; 1.9683075455508547E9 ; 0.0
196 ; 9005839.199030485 ; 1.009388484897871E7 ; 1.8586461825130394E9 ; 1.9784014303998334E9 ; 0.0
197 ; 9000589.359812232 ; 1.009388484897871E7 ; 1.8676520217120697E9 ; 1.9884953152488122E9 ; 0.0
198 ; 8996475.973586803 ; 1.009388484897871E7 ; 1.876652611071882E9 ; 1.998589200097791E9 ; 0.0
199 ; 8989856.235927913 ; 1.009388484897871E7 ; 1.8856490870454688E9 ; 2.0086830849467697E9 ; 0.0
200 ; 8983683.847666014 ; 1.009388484897871E7 ; 1.8946389432813966E9 ; 2.0187769697957485E9 ; 0.0
201 ; 8979278.30451003 ; 1.009388484897871E7 ; 1.9036226271290627E9 ; 2.0288708546447272E9 ; 0.0
202 ; 8973265.926224658 ; 1.009388484897871E7 ; 1.9126019054335728E9 ; 2.038964739493706E9 ; 0.0
203 ; 8968654.584884107 ; 1.009388484897871E7 ; 1.9215751713597975E9 ; 2.0490586243426847E9 ; 0.0
204 ; 8962079.527108701 ; 1.009388484897871E7 ; 1.9305438259446816E9 ; 2.0591525091916635E9 ; 0.0
