CSV File for the City 6 on Day 231
1 - Minute m 
2 - Power Consumed at minute m 
3 - Power Produced at minute m 
4 - Energy Consumed since the beginning of the day 
5 - Energy Produced since the beginning of the day 
6 - Energy Lost since the beginning of the day on lines starting from the city
 
0 ; 1018379.157634213 ; 1.0533195758040395E8 ; 0.0 ; 0.0 ; 0.0
1 ; 1029544.2221849785 ; 1.0547505935003233E8 ; 1018379.157634213 ; 1.0533195758040395E8 ; 0.0
2 ; 1041679.6488823795 ; 1.0592726545322081E8 ; 2047923.3798191915 ; 2.1080701693043628E8 ; 0.0
3 ; 1060695.0575124624 ; 1.0668868460952371E8 ; 3089603.028701571 ; 3.167342823836571E8 ; 0.0
4 ; 1075931.1386097535 ; 1.0775945305612129E8 ; 4150298.086214033 ; 4.234229669931808E8 ; 0.0
5 ; 1096447.4374004889 ; 1.0913973880025536E8 ; 5226229.224823786 ; 5.311824200493021E8 ; 0.0
6 ; 1126366.4713975203 ; 1.1082974294396386E8 ; 6322676.662224275 ; 6.403221588495574E8 ; 0.0
7 ; 1165358.7616670192 ; 1.1282969431781381E8 ; 7449043.133621795 ; 7.511519017935213E8 ; 0.0
8 ; 1216274.1934900563 ; 1.1513983267747313E8 ; 8614401.895288814 ; 8.63981596111335E8 ; 0.0
9 ; 1301331.463148489 ; 1.177603775068788E8 ; 9830676.08877887 ; 9.791214287888081E8 ; 0.0
10 ; 1425062.881779462 ; 1.2069148637642646E8 ; 1.113200755192736E7 ; 1.096881806295687E9 ; 0.0
11 ; 1626012.4680933699 ; 1.2393321701305166E8 ; 1.2557070433706822E7 ; 1.2175732926721134E9 ; 0.0
12 ; 1945886.705756713 ; 1.2748551168981883E8 ; 1.4183082901800191E7 ; 1.3415065096851652E9 ; 0.0
13 ; 2251368.968209987 ; 1.3134821283633232E8 ; 1.6128969607556904E7 ; 1.468992021374984E9 ; 0.0
14 ; 2284846.49495902 ; 1.3552110096865523E8 ; 1.838033857576689E7 ; 1.6003402342113163E9 ; 0.0
15 ; 2300854.016209124 ; 1.4000393633111954E8 ; 2.066518507072591E7 ; 1.7358613351799717E9 ; 0.0
16 ; 2320008.5495082694 ; 1.4479649009315833E8 ; 2.2966039086935036E7 ; 1.8758652715110912E9 ; 0.0
17 ; 2333055.3032019422 ; 1.498985611527336E8 ; 2.5286047636443306E7 ; 2.0206617616042495E9 ; 0.0
18 ; 2348646.2123927013 ; 1.5530998150260353E8 ; 2.761910293964525E7 ; 2.1705603227569833E9 ; 0.0
19 ; 2364733.423592715 ; 1.6103061490558788E8 ; 2.9967749152037952E7 ; 2.325870304259587E9 ; 0.0
20 ; 2380615.6854279977 ; 1.670603526421323E8 ; 3.233248257563067E7 ; 2.4869009191651745E9 ; 0.0
21 ; 2396486.8592790226 ; 1.733991085530806E8 ; 3.4713098261058666E7 ; 2.653961271807307E9 ; 0.0
22 ; 2417890.9414409394 ; 1.80046814431248E8 ; 3.710958512033769E7 ; 2.8273603803603873E9 ; 0.0
23 ; 2434744.4474690654 ; 1.8700341613660812E8 ; 3.952747606177863E7 ; 3.0074071947916355E9 ; 0.0
24 ; 2445259.3555017877 ; 1.942688704801228E8 ; 4.196222050924769E7 ; 3.1944106109282436E9 ; 0.0
25 ; 2461570.463565919 ; 2.0053118368672588E8 ; 4.440747986474948E7 ; 3.388679481408366E9 ; 0.0
26 ; 2480537.3351795007 ; 2.0054387555385393E8 ; 4.686905032831539E7 ; 3.5892106650950923E9 ; 0.0
27 ; 2495532.3082566652 ; 2.005566925351764E8 ; 4.934958766349489E7 ; 3.7897545406489463E9 ; 0.0
28 ; 2513131.0032827556 ; 2.0056961588225743E8 ; 5.1845119971751556E7 ; 3.9903112331841226E9 ; 0.0
29 ; 2525900.9882530477 ; 2.0058263008835733E8 ; 5.435825097503431E7 ; 4.19088084906638E9 ; 0.0
30 ; 2542898.036272936 ; 2.0059572223273265E8 ; 5.688415196328736E7 ; 4.391463479154737E9 ; 0.0
31 ; 2554978.955505804 ; 2.0060888147176647E8 ; 5.94270499995603E7 ; 4.59205920138747E9 ; 0.0
32 ; 2575175.9620856023 ; 2.0062209864166105E8 ; 6.19820289550661E7 ; 4.792668082859237E9 ; 0.0
33 ; 2585732.444055635 ; 2.006353659462502E8 ; 6.4557204917151704E7 ; 4.993290181500897E9 ; 0.0
34 ; 2602140.8397632944 ; 2.0064867671009138E8 ; 6.714293736120734E7 ; 5.193925547447147E9 ; 0.0
35 ; 2615345.110145708 ; 2.0066202518190944E8 ; 6.974507820097063E7 ; 5.394574224157239E9 ; 0.0
36 ; 2632405.6274755285 ; 2.006754063771144E8 ; 7.236042331111634E7 ; 5.5952362493391485E9 ; 0.0
37 ; 2645468.6574846418 ; 2.006888159508304E8 ; 7.499282893859187E7 ; 5.795911655716263E9 ; 0.0
38 ; 2655597.372683989 ; 2.0070225009489828E8 ; 7.76382975960765E7 ; 5.996600471667093E9 ; 0.0
39 ; 2670070.768335173 ; 2.0071570545383126E8 ; 8.029389496876049E7 ; 6.1973027217619915E9 ; 0.0
40 ; 2678911.8887192747 ; 2.007291790558467E8 ; 8.296396573709567E7 ; 6.398018427215823E9 ; 0.0
41 ; 2691441.3263019044 ; 2.0074266825596017E8 ; 8.564287762581494E7 ; 6.598747606271669E9 ; 0.0
42 ; 2699329.884857957 ; 2.0075617068878633E8 ; 8.833431895211685E7 ; 6.79949027452763E9 ; 0.0
43 ; 2713550.8264344563 ; 2.0076968422919443E8 ; 9.10336488369748E7 ; 7.000246445216416E9 ; 0.0
44 ; 2724681.7725678654 ; 2.007832069593541E8 ; 9.374719966340926E7 ; 7.201016129445611E9 ; 0.0
45 ; 2731609.437096973 ; 2.007967371410066E8 ; 9.647188143597713E7 ; 7.401799336404965E9 ; 0.0
46 ; 2741826.049854272 ; 2.0081027319203037E8 ; 9.92034908730741E7 ; 7.602596073545972E9 ; 0.0
47 ; 2748453.28411124 ; 2.008238136665528E8 ; 1.0194531692292838E8 ; 7.803406346738002E9 ; 0.0
48 ; 2760482.3480485547 ; 2.0083735723800352E8 ; 1.0469377020703962E8 ; 8.004230160404554E9 ; 0.0
49 ; 2764026.7375146197 ; 2.0085090268461853E8 ; 1.0745425255508818E8 ; 8.205067517642558E9 ; 0.0
50 ; 2773960.7995970235 ; 2.0086444887699524E8 ; 1.1021827929260279E8 ; 8.405918420327177E9 ; 0.0
51 ; 2781487.7204593583 ; 2.0087799476737037E8 ; 1.1299224009219982E8 ; 8.606782869204172E9 ; 0.0
52 ; 2788667.961311797 ; 2.0089153938035104E8 ; 1.1577372781265917E8 ; 8.807660863971542E9 ; 0.0
53 ; 2793376.184050559 ; 2.009050818048759E8 ; 1.1856239577397098E8 ; 9.008552403351892E9 ; 0.0
54 ; 2796765.0364718083 ; 2.00918621187222E8 ; 1.2135577195802154E8 ; 9.209457485156769E9 ; 0.0
55 ; 2807863.606735141 ; 2.0093215672490212E8 ; 1.2415253699449335E8 ; 9.41037610634399E9 ; 0.0
56 ; 2811982.8437683764 ; 2.009456876613252E8 ; 1.2696040060122849E8 ; 9.611308263068892E9 ; 0.0
57 ; 2818587.9709584247 ; 2.0095921328111055E8 ; 1.2977238344499686E8 ; 9.812253950730217E9 ; 0.0
58 ; 2822667.4027512614 ; 2.0097273290596557E8 ; 1.3259097141595529E8 ; 1.0013213164011328E10 ; 0.0
59 ; 2830702.7709339564 ; 2.009862458910496E8 ; 1.3541363881870654E8 ; 1.0214185896917294E10 ; 0.0
60 ; 2835730.9103187253 ; 2.0099975162175888E8 ; 1.382443415896405E8 ; 1.0415172142808344E10 ; 0.0
61 ; 2843567.4730588635 ; 2.0101324951087725E8 ; 1.4108007249995923E8 ; 1.0616171894430103E10 ; 0.0
62 ; 2847314.6013330077 ; 2.010267389960451E8 ; 1.4392363997301808E8 ; 1.081718514394098E10 ; 0.0
63 ; 2852586.575297603 ; 2.0104021953750616E8 ; 1.467709545743511E8 ; 1.1018211882937027E10 ; 0.0
64 ; 2861887.8193310783 ; 2.010536906160974E8 ; 1.496235411496487E8 ; 1.1219252102474533E10 ; 0.0
65 ; 2866931.676468018 ; 2.0106715173145226E8 ; 1.5248542896897978E8 ; 1.142030579309063E10 ; 0.0
66 ; 2869943.454725388 ; 2.010806024003913E8 ; 1.553523606454478E8 ; 1.1621372944822083E10 ; 0.0
67 ; 2875672.800467612 ; 2.0109404215547815E8 ; 1.5822230410017318E8 ; 1.1822453547222473E10 ; 0.0
68 ; 2881361.713184486 ; 2.0110747054372123E8 ; 1.610979769006408E8 ; 1.202354758937795E10 ; 0.0
69 ; 2885253.5782639673 ; 2.0112088712540448E8 ; 1.6397933861382526E8 ; 1.2224655059921673E10 ; 0.0
70 ; 2890844.871623762 ; 2.011342914730329E8 ; 1.6686459219208923E8 ; 1.2425775947047077E10 ; 0.0
71 ; 2894479.5981895095 ; 2.0114768317037943E8 ; 1.6975543706371298E8 ; 1.262691023852011E10 ; 0.0
72 ; 2901537.7808311703 ; 2.011610618116225E8 ; 1.726499166619025E8 ; 1.2828057921690489E10 ; 0.0
73 ; 2906082.789034224 ; 2.0117442700056434E8 ; 1.7555145444273365E8 ; 1.3029218983502111E10 ; 0.0
74 ; 2911349.7062901887 ; 2.0118777834992138E8 ; 1.7845753723176786E8 ; 1.3230393410502676E10 ; 0.0
75 ; 2914343.5828710864 ; 2.0120111548067912E8 ; 1.8136888693805805E8 ; 1.3431581188852598E10 ; 0.0
76 ; 2918974.073048516 ; 2.012144380215051E8 ; 1.8428323052092913E8 ; 1.3632782304333277E10 ; 0.0
77 ; 2924465.466183582 ; 2.0122774560821342E8 ; 1.8720220459397763E8 ; 1.3833996742354782E10 ; 0.0
78 ; 2925556.6893736813 ; 2.012410378832765E8 ; 1.901266700601612E8 ; 1.4035224487962996E10 ; 0.0
79 ; 2924673.797772966 ; 2.0125431449537835E8 ; 1.9305222674953488E8 ; 1.4236465525846272E10 ; 0.0
80 ; 2924992.3695465815 ; 2.012675750990064E8 ; 1.9597690054730785E8 ; 1.443771984034165E10 ; 0.0
81 ; 2926535.9672286445 ; 2.012808193540773E8 ; 1.9890189291685444E8 ; 1.4638987415440657E10 ; 0.0
82 ; 2926099.5727546182 ; 2.0129404692559355E8 ; 2.018284288840831E8 ; 1.4840268234794733E10 ; 0.0
83 ; 2926128.8861209718 ; 2.0130725748332876E8 ; 2.047545284568377E8 ; 1.5041562281720327E10 ; 0.0
84 ; 2924444.9411503007 ; 2.013204507015381E8 ; 2.076806573429587E8 ; 1.5242869539203655E10 ; 0.0
85 ; 2927724.413176629 ; 2.013336262586918E8 ; 2.10605102284109E8 ; 1.5444189989905193E10 ; 0.0
86 ; 2926340.009552619 ; 2.0134678383723003E8 ; 2.1353282669728562E8 ; 1.5645523616163885E10 ; 0.0
87 ; 2928611.0575597915 ; 2.0135992312333682E8 ; 2.1645916670683825E8 ; 1.5846870400001116E10 ; 0.0
88 ; 2929841.9999384927 ; 2.0137304380673137E8 ; 2.1938777776439804E8 ; 1.6048230323124453E10 ; 0.0
89 ; 2926893.3136309697 ; 2.0138614558047548E8 ; 2.2231761976433653E8 ; 1.6249603366931185E10 ; 0.0
90 ; 2928521.463899695 ; 2.013992281407955E8 ; 2.252445130779675E8 ; 1.645098951251166E10 ; 0.0
91 ; 2926887.3508171192 ; 2.014122911869177E8 ; 2.281730345418672E8 ; 1.6652388740652454E10 ; 0.0
92 ; 2926614.492436776 ; 2.014253344209157E8 ; 2.310999218926843E8 ; 1.6853801031839373E10 ; 0.0
93 ; 2923824.5185592384 ; 2.014383575475693E8 ; 2.3402653638512108E8 ; 1.7055226366260288E10 ; 0.0
94 ; 2926243.635799847 ; 2.0145136027423364E8 ; 2.3695036090368032E8 ; 1.7256664723807858E10 ; 0.0
95 ; 2924050.262188259 ; 2.014643423107174E8 ; 2.3987660453948018E8 ; 1.7458116084082092E10 ; 0.0
96 ; 2923814.6480638348 ; 2.0147730336917034E8 ; 2.4280065480166844E8 ; 1.765958042639281E10 ; 0.0
97 ; 2921599.035284666 ; 2.0149024316397816E8 ; 2.4572446944973227E8 ; 1.7861057729761982E10 ; 0.0
98 ; 2922986.474851858 ; 2.0150316141166535E8 ; 2.4864606848501694E8 ; 1.806254797292596E10 ; 0.0
99 ; 2918657.033225977 ; 2.015160578308044E8 ; 2.515690549598688E8 ; 1.8264051134337627E10 ; 0.0
100 ; 2920024.371300417 ; 2.015289321419315E8 ; 2.5448771199309477E8 ; 1.846556719216843E10 ; 0.0
101 ; 2919439.674225374 ; 2.0154178406746796E8 ; 2.574077363643952E8 ; 1.866709612431036E10 ; 0.0
102 ; 2916552.856644654 ; 2.0155461333164704E8 ; 2.6032717603862056E8 ; 1.8868637908377827E10 ; 0.0
103 ; 2912758.775371089 ; 2.0156741966044578E8 ; 2.6324372889526522E8 ; 1.9070192521709473E10 ; 0.0
104 ; 2909522.1396843097 ; 2.015802027815212E8 ; 2.661564876706363E8 ; 1.927175994136992E10 ; 0.0
105 ; 2913016.075437564 ; 2.0159296242415118E8 ; 2.690660098103206E8 ; 1.947334014415144E10 ; 0.0
106 ; 2913890.2564610094 ; 2.0160569831917882E8 ; 2.7197902588575816E8 ; 1.9674933106575592E10 ; 0.0
107 ; 2906717.8555629672 ; 2.016184101989609E8 ; 2.748929161422192E8 ; 1.987653880489477E10 ; 0.0
108 ; 2908654.1221865723 ; 2.0163109779731935E8 ; 2.777996339977822E8 ; 2.007815721509373E10 ; 0.0
109 ; 2905209.831449869 ; 2.016437608494963E8 ; 2.807082881199688E8 ; 2.027978831289105E10 ; 0.0
110 ; 2907973.995325509 ; 2.016563990921117E8 ; 2.8361349795141864E8 ; 2.0481432073740543E10 ; 0.0
111 ; 2899073.594019894 ; 2.0166901226312393E8 ; 2.8652147194674414E8 ; 2.0683088472832657E10 ; 0.0
112 ; 2899503.0531670996 ; 2.01681600101793E8 ; 2.8942054554076403E8 ; 2.088475748509578E10 ; 0.0
113 ; 2896668.7530572247 ; 2.0169416234864584E8 ; 2.9232004859393114E8 ; 2.108643908519757E10 ; 0.0
114 ; 2895923.276305904 ; 2.0170669874544415E8 ; 2.952167173469884E8 ; 2.1288133247546215E10 ; 0.0
115 ; 2894782.6004134743 ; 2.0171920903515422E8 ; 2.981126406232943E8 ; 2.148983994629166E10 ; 0.0
116 ; 2888700.118555046 ; 2.0173169296191862E8 ; 3.010074232237078E8 ; 2.1691559155326813E10 ; 0.0
117 ; 2887054.799865519 ; 2.0174415027102974E8 ; 3.0389612334226286E8 ; 2.189329084828873E10 ; 0.0
118 ; 2887753.2838039855 ; 2.01756580708905E8 ; 3.067831781421284E8 ; 2.209503499855976E10 ; 0.0
119 ; 2883548.010300095 ; 2.017689840230639E8 ; 3.096709314259324E8 ; 2.2296791579268665E10 ; 0.0
120 ; 2881308.7412800174 ; 2.0178135996210614E8 ; 3.125544794362325E8 ; 2.249856056329173E10 ; 0.0
121 ; 2876988.841322998 ; 2.0179370827569136E8 ; 3.154357881775125E8 ; 2.2700341923253834E10 ; 0.0
122 ; 2878813.075349995 ; 2.018060287145204E8 ; 3.1831277701883554E8 ; 2.2902135631529526E10 ; 0.0
123 ; 2869893.47561396 ; 2.018183210303173E8 ; 3.2119159009418553E8 ; 2.3103941660244045E10 ; 0.0
124 ; 2869411.689289663 ; 2.0183058497581282E8 ; 3.240614835697995E8 ; 2.330575998127436E10 ; 0.0
125 ; 2863764.203315229 ; 2.0184282030472898E8 ; 3.269308952590892E8 ; 2.350759056625017E10 ; 0.0
126 ; 2860462.85835735 ; 2.0185502677176458E8 ; 3.2979465946240443E8 ; 2.37094333865549E10 ; 0.0
127 ; 2857330.0070740567 ; 2.0186720413258147E8 ; 3.326551223207618E8 ; 2.3911288413326664E10 ; 0.0
128 ; 2855666.372140174 ; 2.018793521437922E8 ; 3.3551245232783586E8 ; 2.4113155617459244E10 ; 0.0
129 ; 2851914.9069635156 ; 2.0189147056294808E8 ; 3.38368118699976E8 ; 2.4315034969603035E10 ; 0.0
130 ; 2847228.3741091546 ; 2.0190355914852813E8 ; 3.4122003360693955E8 ; 2.451692644016598E10 ; 0.0
131 ; 2839588.2449921523 ; 2.0191561765992895E8 ; 3.440672619810487E8 ; 2.471882999931451E10 ; 0.0
132 ; 2829211.82540927 ; 2.0192764585745513E8 ; 3.4690685022604084E8 ; 2.4920745616974438E10 ; 0.0
133 ; 2823063.6143080797 ; 2.019396435023104E8 ; 3.4973606205145013E8 ; 2.5122673262831894E10 ; 0.0
134 ; 2818610.6444528857 ; 2.0195161035658923E8 ; 3.525591256657582E8 ; 2.5324612906334206E10 ; 0.0
135 ; 2808005.1476755273 ; 2.0196354618326947E8 ; 3.5537773631021106E8 ; 2.5526564516690796E10 ; 0.0
136 ; 2801464.9956653337 ; 2.019754507462049E8 ; 3.581857414578866E8 ; 2.5728528062874065E10 ; 0.0
137 ; 2791884.4129646714 ; 2.01987323810119E8 ; 3.609872064535519E8 ; 2.593050351362027E10 ; 0.0
138 ; 2788496.275337622 ; 2.0199916514059854E8 ; 3.6377909086651653E8 ; 2.613249083743039E10 ; 0.0
139 ; 2775853.1644945364 ; 2.020109745040882E8 ; 3.6656758714185417E8 ; 2.6334490002570988E10 ; 0.0
140 ; 2768930.9555112924 ; 2.0202275166788533E8 ; 3.693434403063487E8 ; 2.6536500977075077E10 ; 0.0
141 ; 2759030.849280619 ; 2.0203449640013522E8 ; 3.7211237126185995E8 ; 2.673852372874296E10 ; 0.0
142 ; 2753491.8599530915 ; 2.0204620846982673E8 ; 3.7487140211114055E8 ; 2.6940558225143097E10 ; 0.0
143 ; 2743938.683419419 ; 2.0205788764678836E8 ; 3.7762489397109365E8 ; 2.7142604433612923E10 ; 0.0
144 ; 2733216.604524308 ; 2.0206953370168453E8 ; 3.8036883265451306E8 ; 2.7344662321259712E10 ; 0.0
145 ; 2732146.415671299 ; 2.0208114640601245E8 ; 3.831020492590374E8 ; 2.7546731854961395E10 ; 0.0
146 ; 2727653.3436890035 ; 2.0209272553209904E8 ; 3.8583419567470866E8 ; 2.774881300136741E10 ; 0.0
147 ; 2724526.5456934804 ; 2.0210427085309827E8 ; 3.885618490183977E8 ; 2.795090572689951E10 ; 0.0
148 ; 2724732.7347525866 ; 2.021157821429889E8 ; 3.9128637556409115E8 ; 2.815300999775261E10 ; 0.0
149 ; 2716764.589545245 ; 2.0212725917657223E8 ; 3.9401110829884374E8 ; 2.83551257798956E10 ; 0.0
150 ; 2710767.6062977123 ; 2.0213870172947034E8 ; 3.96727872888389E8 ; 2.855725303907217E10 ; 0.0
151 ; 2708632.7487185514 ; 2.0215010957812446E8 ; 3.994386404946867E8 ; 2.875939174080164E10 ; 0.0
152 ; 2709337.5459152204 ; 2.021614824997936E8 ; 4.021472732434053E8 ; 2.8961541850379765E10 ; 0.0
153 ; 2702277.2342757336 ; 2.0217282027255327E8 ; 4.048566107893205E8 ; 2.916370333287956E10 ; 0.0
154 ; 2697063.181092488 ; 2.0218412267529482E8 ; 4.075588880235963E8 ; 2.936587615315211E10 ; 0.0
155 ; 2694481.014681916 ; 2.0219538948772436E8 ; 4.102559512046888E8 ; 2.9568060275827404E10 ; 0.0
156 ; 2689934.58759145 ; 2.022066204903624E8 ; 4.129504322193707E8 ; 2.977025566531513E10 ; 0.0
157 ; 2685136.9438613807 ; 2.0221781546454346E8 ; 4.156403668069622E8 ; 2.9972462285805492E10 ; 0.0
158 ; 2681709.2568391087 ; 2.0222897419241562E8 ; 4.1832550375082356E8 ; 3.0174680101270035E10 ; 0.0
159 ; 2682072.6546168136 ; 2.0224009645694077E8 ; 4.2100721300766265E8 ; 3.0376909075462452E10 ; 0.0
160 ; 2672579.810815999 ; 2.0225118204189447E8 ; 4.236892856622795E8 ; 3.057914917191939E10 ; 0.0
161 ; 2671657.003032245 ; 2.0226223073186627E8 ; 4.263618654730955E8 ; 3.0781400353961285E10 ; 0.0
162 ; 2669530.626702922 ; 2.022732423122601E8 ; 4.2903352247612774E8 ; 3.098366258469315E10 ; 0.0
163 ; 2662898.6627971665 ; 2.022842165692947E8 ; 4.3170305310283065E8 ; 3.118593582700541E10 ; 0.0
164 ; 2657980.099303789 ; 2.0229515329000425E8 ; 4.343659517656278E8 ; 3.1388220043574703E10 ; 0.0
165 ; 2658423.7979984893 ; 2.023060522622392E8 ; 4.370239318649316E8 ; 3.1590515196864708E10 ; 0.0
166 ; 2650463.0790014644 ; 2.0231691327466697E8 ; 4.396823556629301E8 ; 3.1792821249126945E10 ; 0.0
167 ; 2646503.1510887304 ; 2.0232773611677304E8 ; 4.4233281874193156E8 ; 3.199513816240161E10 ; 0.0
168 ; 2638280.350421761 ; 2.023385205788619E8 ; 4.449793218930203E8 ; 3.2197465898518383E10 ; 0.0
169 ; 2635213.623237884 ; 2.0234926645205826E8 ; 4.4761760224344206E8 ; 3.2399804419097244E10 ; 0.0
170 ; 2638679.9323607977 ; 2.0235997352830824E8 ; 4.5025281586667997E8 ; 3.26021536855493E10 ; 0.0
171 ; 2626973.7267146106 ; 2.0237064160038078E8 ; 4.5289149579904073E8 ; 3.280451365907761E10 ; 0.0
172 ; 2625259.6525410316 ; 2.0238127046186885E8 ; 4.5551846952575535E8 ; 3.300688430067799E10 ; 0.0
173 ; 2624963.8847943144 ; 2.0239185990719125E8 ; 4.581437291782964E8 ; 3.320926557113986E10 ; 0.0
174 ; 2617400.2175163473 ; 2.024024097315938E8 ; 4.607686930630907E8 ; 3.341165743104705E10 ; 0.0
175 ; 2617964.9357608096 ; 2.0241291973115122E8 ; 4.6338609328060704E8 ; 3.3614059840778645E10 ; 0.0
176 ; 2614786.795488888 ; 2.0242338970276874E8 ; 4.6600405821636784E8 ; 3.3816472760509796E10 ; 0.0
177 ; 2610408.294971835 ; 2.0243381944418383E8 ; 4.6861884501185673E8 ; 3.4018896150212566E10 ; 0.0
178 ; 2609570.229318424 ; 2.0244420875396806E8 ; 4.7122925330682856E8 ; 3.422132996965675E10 ; 0.0
179 ; 2607299.590951132 ; 2.0245455743152884E8 ; 4.73838823536147E8 ; 3.442377417841072E10 ; 0.0
180 ; 2603240.9033040246 ; 2.0246486527711153E8 ; 4.7644612312709814E8 ; 3.462622873584225E10 ; 0.0
181 ; 2601584.031236301 ; 2.0247513209180126E8 ; 4.790493640304022E8 ; 3.482869360111936E10 ; 0.0
182 ; 2600988.30346542 ; 2.02485357677525E8 ; 4.816509480616385E8 ; 3.503116873321117E10 ; 0.0
183 ; 2597484.364320197 ; 2.0249554183705363E8 ; 4.842519363651039E8 ; 3.5233654090888695E10 ; 0.0
184 ; 2594840.112293748 ; 2.02505684374004E8 ; 4.868494207294241E8 ; 3.5436149632725746E10 ; 0.0
185 ; 2591514.9761355324 ; 2.0251578509284112E8 ; 4.8944426084171784E8 ; 3.563865531709975E10 ; 0.0
186 ; 2588534.8470778638 ; 2.0252584379888028E8 ; 4.920357758178534E8 ; 3.584117110219259E10 ; 0.0
187 ; 2584515.281139907 ; 2.0253586029828942E8 ; 4.9462431066493124E8 ; 3.604369694599147E10 ; 0.0
188 ; 2581007.137675915 ; 2.0254583439809108E8 ; 4.9720882594607115E8 ; 3.624623280628976E10 ; 0.0
189 ; 2582455.5879184227 ; 2.0255576590616506E8 ; 4.997898330837471E8 ; 3.644877864068785E10 ; 0.0
190 ; 2576124.0922343256 ; 2.0256565463125038E8 ; 5.023722886716655E8 ; 3.665133440659402E10 ; 0.0
191 ; 2574245.767921343 ; 2.025755003829479E8 ; 5.049484127638998E8 ; 3.6853900061225266E10 ; 0.0
192 ; 2574295.210932644 ; 2.0258530297172245E8 ; 5.0752265853182113E8 ; 3.7056475561608215E10 ; 0.0
193 ; 2571877.5459458046 ; 2.0259506220890543E8 ; 5.100969537427538E8 ; 3.725906086457994E10 ; 0.0
194 ; 2565505.5067474386 ; 2.0260477790669703E8 ; 5.126688312886996E8 ; 3.746165592678885E10 ; 0.0
195 ; 2560892.2014181023 ; 2.0261444987816882E8 ; 5.1523433679544705E8 ; 3.766426070469555E10 ; 0.0
196 ; 2563265.468392619 ; 2.0262407793726614E8 ; 5.1779522899686515E8 ; 3.7866875154573715E10 ; 0.0
197 ; 2557621.291915258 ; 2.0263366189881048E8 ; 5.2035849446525776E8 ; 3.806949923251098E10 ; 0.0
198 ; 2557934.188985704 ; 2.0264320157850218E8 ; 5.22916115757173E8 ; 3.827213289440979E10 ; 0.0
199 ; 2553745.481259767 ; 2.0265269679292274E8 ; 5.254740499461587E8 ; 3.847477609598829E10 ; 0.0
200 ; 2552389.8815163043 ; 2.026621473595374E8 ; 5.280277954274185E8 ; 3.867742879278121E10 ; 0.0
