CSV File for the City 3 on Day 200
1 - Minute m 
2 - Power Consumed at minute m 
3 - Power Produced at minute m 
4 - Energy Consumed since the beginning of the day 
5 - Energy Produced since the beginning of the day 
6 - Energy Lost since the beginning of the day on lines starting from the city
 
0 ; 216389.77450918005 ; 1.0540064723193547E8 ; 0.0 ; 0.0 ; 0.0
1 ; 218807.01642512082 ; 1.05553373734559E8 ; 216389.77450918005 ; 1.0540064723193547E8 ; 0.0
2 ; 220980.83697486928 ; 1.0601490060312083E8 ; 435196.79093430087 ; 2.1095402096649447E8 ; 0.0
3 ; 225397.03939903417 ; 1.0678523085172445E8 ; 656177.6279091701 ; 3.169689215696153E8 ; 0.0
4 ; 229410.7270509461 ; 1.0786436721713334E8 ; 881574.6673082043 ; 4.2375415242133975E8 ; 0.0
5 ; 233161.1172846172 ; 1.092523121320684E8 ; 1110985.3943591504 ; 5.316185196384731E8 ; 0.0
6 ; 237701.74813221756 ; 1.1094906770061901E8 ; 1344146.5116437676 ; 6.408708317705414E8 ; 0.0
7 ; 245922.717594849 ; 1.1295463567632324E8 ; 1581848.259775985 ; 7.518198994711604E8 ; 0.0
8 ; 258003.093739378 ; 1.152690174434334E8 ; 1827770.977370834 ; 8.647745351474836E8 ; 0.0
9 ; 275334.97876426054 ; 1.1789221400182611E8 ; 2085774.071110212 ; 9.80043552590917E8 ; 0.0
10 ; 300832.14161704533 ; 1.2082422595593601E8 ; 2361109.0498744724 ; 1.0979357665927432E9 ; 0.0
11 ; 344769.4236491923 ; 1.2406505350799897E8 ; 2661941.1914915177 ; 1.218759992548679E9 ; 0.0
12 ; 410238.5490814578 ; 1.276146964557791E8 ; 3006710.61514071 ; 1.342825046056678E9 ; 0.0
13 ; 472067.4758983772 ; 1.3147315419484174E8 ; 3416949.164222168 ; 1.4704397425124571E9 ; 0.0
14 ; 481795.1618054072 ; 1.356404257253104E8 ; 3889016.640120545 ; 1.6019128967072988E9 ; 0.0
15 ; 483952.13083434815 ; 1.4011650966293257E8 ; 4370811.801925953 ; 1.737553322432609E9 ; 0.0
16 ; 486981.7669833432 ; 1.449014042541704E8 ; 4854763.932760301 ; 1.8776698320955417E9 ; 0.0
17 ; 491184.2933651934 ; 1.4999510739493433E8 ; 5341745.699743644 ; 2.0225712363497121E9 ; 0.0
18 ; 496014.54091591324 ; 1.5539761665250355E8 ; 5832929.993108838 ; 2.1725663437446465E9 ; 0.0
19 ; 497918.73951717425 ; 1.6110892929011455E8 ; 6328944.534024751 ; 2.32796396039715E9 ; 0.0
20 ; 501277.51780500886 ; 1.6712904229366383E8 ; 6826863.2735419255 ; 2.4890728896872644E9 ; 0.0
21 ; 504050.98369205865 ; 1.7345795239995334E8 ; 7328140.791346935 ; 2.6562019319809284E9 ; 0.0
22 ; 508699.4815064296 ; 1.8009565612591147E8 ; 7832191.775038993 ; 2.829659884380882E9 ; 0.0
23 ; 511867.2125894403 ; 1.870421497982437E8 ; 8340891.256545423 ; 3.009755540506793E9 ; 0.0
24 ; 514106.34546474984 ; 1.942974295830053E8 ; 8852758.469134863 ; 3.1967976903050365E9 ; 0.0
25 ; 518040.1640808156 ; 2.0054953241282156E8 ; 9366864.814599613 ; 3.391095119888042E9 ; 0.0
26 ; 520308.8678022358 ; 2.0055200205188254E8 ; 9884904.978680428 ; 3.5916446523008637E9 ; 0.0
27 ; 526173.6514083757 ; 2.005546036476722E8 ; 1.0405213846482664E7 ; 3.7921966543527465E9 ; 0.0
28 ; 528149.6862142934 ; 2.0055733300302136E8 ; 1.093138749789104E7 ; 3.9927512580004187E9 ; 0.0
29 ; 529965.0704482206 ; 2.0056018589288133E8 ; 1.1459537184105333E7 ; 4.19330859100344E9 ; 0.0
30 ; 534298.5251518441 ; 2.0056315808595586E8 ; 1.1989502254553553E7 ; 4.393868776896321E9 ; 0.0
31 ; 538929.8733699726 ; 2.0056624536434785E8 ; 1.2523800779705398E7 ; 4.594431934982277E9 ; 0.0
32 ; 543066.231666912 ; 2.005694435411838E8 ; 1.3062730653075371E7 ; 4.794998180346624E9 ; 0.0
33 ; 545264.6420215043 ; 2.0057274847622275E8 ; 1.3605796884742282E7 ; 4.995567623887808E9 ; 0.0
34 ; 546429.883598182 ; 2.005761560894936E8 ; 1.4151061526763787E7 ; 5.196140372364031E9 ; 0.0
35 ; 550712.2548052294 ; 2.00579662373034E8 ; 1.469749141036197E7 ; 5.396716528453525E9 ; 0.0
36 ; 553120.5264674437 ; 2.0058326340082803E8 ; 1.52482036651672E7 ; 5.597296190826559E9 ; 0.0
37 ; 557545.7699065559 ; 2.0058695533705607E8 ; 1.5801324191634644E7 ; 5.797879454227387E9 ; 0.0
38 ; 559066.6747557047 ; 2.005907344427823E8 ; 1.63588699615412E7 ; 5.998466409564444E9 ; 0.0
39 ; 561523.4344312574 ; 2.0059459708121127E8 ; 1.6917936636296906E7 ; 6.199057144007226E9 ; 0.0
40 ; 564163.1869789619 ; 2.0059853972164792E8 ; 1.7479460070728164E7 ; 6.399651741088437E9 ; 0.0
41 ; 567113.9210920617 ; 2.0060255894229466E8 ; 1.8043623257707126E7 ; 6.600250280810085E9 ; 0.0
42 ; 570127.7150897243 ; 2.0060665143201512E8 ; 1.861073717879919E7 ; 6.80085283975238E9 ; 0.0
43 ; 572288.0698444252 ; 2.006108139911895E8 ; 1.9180864893888913E7 ; 7.001459491184396E9 ; 0.0
44 ; 574572.9624397598 ; 2.0061504353177884E8 ; 1.9753152963733338E7 ; 7.202070305175586E9 ; 0.0
45 ; 576233.5026055273 ; 2.0061933707670796E8 ; 2.03277259261731E7 ; 7.402685348707365E9 ; 0.0
46 ; 577649.363237625 ; 2.0062369175866833E8 ; 2.0903959428778626E7 ; 7.603304685784073E9 ; 0.0
47 ; 579882.2536182796 ; 2.006281048184329E8 ; 2.1481608792016253E7 ; 7.803928377542741E9 ; 0.0
48 ; 580919.5347817375 ; 2.0063257360276693E8 ; 2.2061491045634534E7 ; 8.004556482361174E9 ; 0.0
49 ; 583430.6341126227 ; 2.006370955620092E8 ; 2.2642410580416273E7 ; 8.205189055963941E9 ; 0.0
50 ; 584095.5467322845 ; 2.0064166824739105E8 ; 2.3225841214528896E7 ; 8.4058261515259495E9 ; 0.0
51 ; 586826.1968447665 ; 2.0064628930815127E8 ; 2.380993676126118E7 ; 8.60646781977334E9 ; 0.0
52 ; 586367.445788565 ; 2.006509564884995E8 ; 2.4396762958105948E7 ; 8.807114109081491E9 ; 0.0
53 ; 589663.2069489768 ; 2.0065566762447193E8 ; 2.4983130403894514E7 ; 9.00776506556999E9 ; 0.0
54 ; 590236.4301666544 ; 2.00660420640719E8 ; 2.557279361084349E7 ; 9.208420733194462E9 ; 0.0
55 ; 591879.3345377914 ; 2.006652135472577E8 ; 2.6163030041010145E7 ; 9.40908115383518E9 ; 0.0
56 ; 593199.1952519587 ; 2.0067004443621668E8 ; 2.6754909375547938E7 ; 9.609746367382439E9 ; 0.0
57 ; 593973.167349092 ; 2.0067491147859824E8 ; 2.73481085707999E7 ; 9.810416411818655E9 ; 0.0
58 ; 595598.8560319082 ; 2.0067981292107615E8 ; 2.794208173814899E7 ; 1.0011091323297253E10 ; 0.0
59 ; 595607.3964762964 ; 2.0068474708284622E8 ; 2.85376805941809E7 ; 1.0211771136218328E10 ; 0.0
60 ; 597405.5640906161 ; 2.0068971235254207E8 ; 2.9133287990657195E7 ; 1.0412455883301174E10 ; 0.0
61 ; 598787.8720549347 ; 2.0069470718522713E8 ; 2.9730693554747812E7 ; 1.0613145595653717E10 ; 0.0
62 ; 599379.5242546515 ; 2.0069973009947032E8 ; 3.0329481426802747E7 ; 1.0813840302838943E10 ; 0.0
63 ; 601456.855506042 ; 2.007047796745121E8 ; 3.0928860951057397E7 ; 1.1014540032938414E10 ; 0.0
64 ; 602750.1066816096 ; 2.0070985454752463E8 ; 3.1530317806563437E7 ; 1.1215244812612926E10 ; 0.0
65 ; 603396.3583292698 ; 2.007149534109697E8 ; 3.213306791324505E7 ; 1.1415954667160452E10 ; 0.0
66 ; 604935.9200221205 ; 2.0072007501005533E8 ; 3.273646427157432E7 ; 1.161666962057142E10 ; 0.0
67 ; 606644.6375256955 ; 2.007252181402923E8 ; 3.3341400191596437E7 ; 1.1817389695581476E10 ; 0.0
68 ; 606779.4531876338 ; 2.007303816451499E8 ; 3.394804482912213E7 ; 1.201811491372177E10 ; 0.0
69 ; 607913.9556240567 ; 2.007355644138106E8 ; 3.455482428230977E7 ; 1.2218845295366919E10 ; 0.0
70 ; 607977.2427322513 ; 2.0074076537902153E8 ; 3.516273823793383E7 ; 1.241958085978073E10 ; 0.0
71 ; 609330.5076964543 ; 2.0074598351504084E8 ; 3.577071548066608E7 ; 1.262032162515975E10 ; 0.0
72 ; 611404.610734208 ; 2.007512178356774E8 ; 3.6380045988362536E7 ; 1.2821067608674791E10 ; 0.0
73 ; 611639.7077786986 ; 2.0075646739242005E8 ; 3.6991450599096745E7 ; 1.302181882651047E10 ; 0.0
74 ; 613715.5686926817 ; 2.007617312726547E8 ; 3.7603090306875445E7 ; 1.322257529390289E10 ; 0.0
75 ; 613047.8951265897 ; 2.0076700859796527E8 ; 3.821680587556813E7 ; 1.3423337025175545E10 ; 0.0
76 ; 615937.3158465257 ; 2.0077229852251634E8 ; 3.882985377069472E7 ; 1.362410403377351E10 ; 0.0
77 ; 615676.8978569894 ; 2.0077760023151377E8 ; 3.944579108654124E7 ; 1.3824876332296026E10 ; 0.0
78 ; 616478.2886410828 ; 2.0078291293974033E8 ; 4.006146798439823E7 ; 1.402565393252754E10 ; 0.0
79 ; 615511.0458915925 ; 2.007882358901632E8 ; 4.067794627303931E7 ; 1.4226436845467281E10 ; 0.0
80 ; 617835.4404937321 ; 2.0079356835261023E8 ; 4.12934573189309E7 ; 1.4427225081357445E10 ; 0.0
81 ; 617796.2735487125 ; 2.007989096225117E8 ; 4.1911292759424634E7 ; 1.4628018649710054E10 ; 0.0
82 ; 616588.4596209563 ; 2.0080425901970512E8 ; 4.252908903297335E7 ; 1.4828817559332565E10 ; 0.0
83 ; 616751.355028201 ; 2.008096158872992E8 ; 4.31456774925943E7 ; 1.502962181835227E10 ; 0.0
84 ; 617119.1499736516 ; 2.0081497959059536E8 ; 4.376242884762251E7 ; 1.5230431434239569E10 ; 0.0
85 ; 616869.3719475997 ; 2.0082034951606277E8 ; 4.437954799759616E7 ; 1.5431246413830164E10 ; 0.0
86 ; 616683.9955739789 ; 2.008257250703653E8 ; 4.499641736954376E7 ; 1.5632066763346228E10 ; 0.0
87 ; 616008.8727339179 ; 2.008311056794373E8 ; 4.561310136511774E7 ; 1.5832892488416594E10 ; 0.0
88 ; 617568.8896377971 ; 2.0083649078760567E8 ; 4.6229110237851664E7 ; 1.6033723594096031E10 ; 0.0
89 ; 615165.3342964922 ; 2.008418798567563E8 ; 4.684667912748946E7 ; 1.6234560084883636E10 ; 0.0
90 ; 615089.6008796314 ; 2.0084727236554235E8 ; 4.746184446178596E7 ; 1.6435401964740393E10 ; 0.0
91 ; 615148.3161409593 ; 2.0085266780863222E8 ; 4.807693406266559E7 ; 1.6636249237105934E10 ; 0.0
92 ; 617019.3469397583 ; 2.0085806569599515E8 ; 4.869208237880655E7 ; 1.6837101904914566E10 ; 0.0
93 ; 615747.7775888175 ; 2.0086346555222282E8 ; 4.9309101725746304E7 ; 1.7037959970610561E10 ; 0.0
94 ; 614118.0072767092 ; 2.008688669158845E8 ; 4.992484950333512E7 ; 1.7238823436162785E10 ; 0.0
95 ; 614712.4377440925 ; 2.008742693389145E8 ; 5.0538967510611825E7 ; 1.743969230307867E10 ; 0.0
96 ; 616148.2906680411 ; 2.0087967238603032E8 ; 5.115367994835592E7 ; 1.7640566572417583E10 ; 0.0
97 ; 616127.6562807854 ; 2.0088507563417897E8 ; 5.176982823902396E7 ; 1.7841446244803616E10 ; 0.0
98 ; 616277.4284306155 ; 2.0089047867201138E8 ; 5.238595589530475E7 ; 1.8042331320437794E10 ; 0.0
99 ; 614802.3109796669 ; 2.0089588109938234E8 ; 5.3002233323735364E7 ; 1.8243221799109806E10 ; 0.0
100 ; 615167.6329165081 ; 2.0090128252687496E8 ; 5.361703563471503E7 ; 1.8444117680209187E10 ; 0.0
101 ; 613103.5992967429 ; 2.009066825753486E8 ; 5.423220326763154E7 ; 1.864501896273606E10 ; 0.0
102 ; 615094.1814028503 ; 2.0091208087550864E8 ; 5.484530686692828E7 ; 1.884592564531141E10 ; 0.0
103 ; 614488.9912283993 ; 2.0091747706749743E8 ; 5.546040104833113E7 ; 1.9046837726186916E10 ; 0.0
104 ; 613314.1899930118 ; 2.0092287080050465E8 ; 5.607489003955953E7 ; 1.9247755203254414E10 ; 0.0
105 ; 611251.9488273816 ; 2.0092826173239684E8 ; 5.668820422955254E7 ; 1.9448678074054916E10 ; 0.0
106 ; 612604.149961699 ; 2.0093364952936444E8 ; 5.7299456178379916E7 ; 1.964960633578731E10 ; 0.0
107 ; 612282.0923211016 ; 2.009390338655858E8 ; 5.791206032834162E7 ; 1.9850539985316677E10 ; 0.0
108 ; 611491.4371842499 ; 2.0094441442290735E8 ; 5.8524342420662716E7 ; 2.0051479019182262E10 ; 0.0
109 ; 611151.6529878462 ; 2.0094979089053854E8 ; 5.913583385784697E7 ; 2.025242343360517E10 ; 0.0
110 ; 612136.1760459127 ; 2.0095516296476158E8 ; 5.974698551083481E7 ; 2.045337322449571E10 ; 0.0
111 ; 610861.0915904322 ; 2.009605303486547E8 ; 6.035912168688072E7 ; 2.065432838746047E10 ; 0.0
112 ; 608892.0569980331 ; 2.00965892751828E8 ; 6.096998277847116E7 ; 2.0855288917809124E10 ; 0.0
113 ; 609140.2826955445 ; 2.0097124989017236E8 ; 6.157887483546919E7 ; 2.105625481056095E10 ; 0.0
114 ; 609677.5655476208 ; 2.009766014856191E8 ; 6.218801511816473E7 ; 2.1257226060451122E10 ; 0.0
115 ; 609374.6356532755 ; 2.009819472659115E8 ; 6.2797692683712356E7 ; 2.145820266193674E10 ; 0.0
116 ; 608944.275831172 ; 2.0098728696438617E8 ; 6.340706731936563E7 ; 2.1659184609202652E10 ; 0.0
117 ; 606986.7434215365 ; 2.0099262031976497E8 ; 6.40160115951968E7 ; 2.1860171896167038E10 ; 0.0
118 ; 605993.6820784141 ; 2.0099794707595602E8 ; 6.462299833861834E7 ; 2.20611645164868E10 ; 0.0
119 ; 606512.7641367507 ; 2.010032669818638E8 ; 6.522899202069675E7 ; 2.2262162463562756E10 ; 0.0
120 ; 606638.8627508755 ; 2.0100857979120794E8 ; 6.5835504784833506E7 ; 2.246316573054462E10 ; 0.0
121 ; 605306.7432492251 ; 2.0101388526234993E8 ; 6.644214364758438E7 ; 2.2664174310335827E10 ; 0.0
122 ; 603873.0761709113 ; 2.0101918315812778E8 ; 6.70474503908336E7 ; 2.2865188195598175E10 ; 0.0
123 ; 604911.804388666 ; 2.0102447324569783E8 ; 6.765132346700451E7 ; 2.30662073787563E10 ; 0.0
124 ; 603302.2342668882 ; 2.0102975529638356E8 ; 6.825623527139318E7 ; 2.3267231852002E10 ; 0.0
125 ; 603405.757443494 ; 2.0103502908553138E8 ; 6.885953750566007E7 ; 2.346826160729838E10 ; 0.0
126 ; 601116.7606702341 ; 2.0104029439237216E8 ; 6.946294326310356E7 ; 2.3669296636383915E10 ; 0.0
127 ; 601239.7102057558 ; 2.010455509998893E8 ; 7.006406002377379E7 ; 2.3870336930776287E10 ; 0.0
128 ; 598799.3634738093 ; 2.0105079869469234E8 ; 7.066529973397954E7 ; 2.4071382481776176E10 ; 0.0
129 ; 601582.0936013535 ; 2.0105603726689586E8 ; 7.126409909745334E7 ; 2.4272433280470867E10 ; 0.0
130 ; 597815.3766565591 ; 2.0106126651000378E8 ; 7.18656811910547E7 ; 2.4473489317737762E10 ; 0.0
131 ; 596573.6844466226 ; 2.0106648622079864E8 ; 7.246349656771126E7 ; 2.4674550584247765E10 ; 0.0
132 ; 594585.5646395033 ; 2.010716961992354E8 ; 7.306007025215788E7 ; 2.4875617070468563E10 ; 0.0
133 ; 592106.7149838748 ; 2.0107689624833992E8 ; 7.365465581679739E7 ; 2.5076688766667797E10 ; 0.0
134 ; 592129.8193842716 ; 2.010820861741115E8 ; 7.424676253178127E7 ; 2.5277765662916138E10 ; 0.0
135 ; 588559.6078498506 ; 2.0108726578542975E8 ; 7.483889235116555E7 ; 2.547884774909025E10 ; 0.0
136 ; 587096.1405270147 ; 2.0109243489396518E8 ; 7.54274519590154E7 ; 2.567993501487568E10 ; 0.0
137 ; 587083.0056976242 ; 2.0109759331409362E8 ; 7.601454809954241E7 ; 2.5881027449769646E10 ; 0.0
138 ; 584185.4013900332 ; 2.01102740862814E8 ; 7.660163110524003E7 ; 2.608212504308374E10 ; 0.0
139 ; 585108.6648584794 ; 2.0110787735966977E8 ; 7.718581650663006E7 ; 2.6283227783946556E10 ; 0.0
140 ; 582273.484014632 ; 2.011130026266733E8 ; 7.777092517148854E7 ; 2.6484335661306225E10 ; 0.0
141 ; 579381.3735646995 ; 2.0111811648823348E8 ; 7.835319865550317E7 ; 2.66854486639329E10 ; 0.0
142 ; 576936.8302212564 ; 2.0112321877108625E8 ; 7.893258002906787E7 ; 2.688656678042113E10 ; 0.0
143 ; 575621.6164994246 ; 2.0112830930422795E8 ; 7.950951685928912E7 ; 2.708768999919222E10 ; 0.0
144 ; 574345.517210023 ; 2.0113338791885135E8 ; 8.008513847578855E7 ; 2.728881830849645E10 ; 0.0
145 ; 573406.9500052818 ; 2.011384544482841E8 ; 8.065948399299857E7 ; 2.74899516964153E10 ; 0.0
146 ; 573170.5569801969 ; 2.0114350872792995E8 ; 8.123289094300385E7 ; 2.7691090150863583E10 ; 0.0
147 ; 572419.2181568001 ; 2.0114855059521198E8 ; 8.180606149998404E7 ; 2.789223365959151E10 ; 0.0
148 ; 571496.0211438459 ; 2.011535798895182E8 ; 8.237848071814084E7 ; 2.809338221018672E10 ; 0.0
149 ; 569797.1044822008 ; 2.0115859645214942E8 ; 8.294997673928468E7 ; 2.829453579007624E10 ; 0.0
150 ; 568864.3535896976 ; 2.0116360012626895E8 ; 8.351977384376688E7 ; 2.849569438652839E10 ; 0.0
151 ; 568521.4707034825 ; 2.011685907568544E8 ; 8.408863819735658E7 ; 2.869685798665466E10 ; 0.0
152 ; 568724.5335960725 ; 2.011735681906512E8 ; 8.465715966806006E7 ; 2.8898026577411514E10 ; 0.0
153 ; 568218.4773369421 ; 2.0117853227612835E8 ; 8.522588420165613E7 ; 2.9099200145602165E10 ; 0.0
154 ; 565332.17558809 ; 2.0118348286343518E8 ; 8.579410267899308E7 ; 2.9300378677878292E10 ; 0.0
155 ; 563928.1627803999 ; 2.0118841980436036E8 ; 8.635943485458116E7 ; 2.9501562160741726E10 ; 0.0
156 ; 564961.1908291006 ; 2.011933429522923E8 ; 8.692336301736157E7 ; 2.9702750580546085E10 ; 0.0
157 ; 564566.4644577402 ; 2.0119825216218093E8 ; 8.748832420819066E7 ; 2.990394392349838E10 ; 0.0
158 ; 565044.5844213443 ; 2.0120314729050112E8 ; 8.80528906726484E7 ; 3.010514217566056E10 ; 0.0
159 ; 563936.8197039969 ; 2.012080281952173E8 ; 8.861793525706975E7 ; 3.030634532295106E10 ; 0.0
160 ; 561752.7257938412 ; 2.012128947357497E8 ; 8.918187207677375E7 ; 3.050755335114628E10 ; 0.0
161 ; 561671.0324857447 ; 2.012177467729414E8 ; 8.974362480256759E7 ; 3.0708766245882027E10 ; 0.0
162 ; 560887.3532551079 ; 2.0122258416902718E8 ; 9.030529583505332E7 ; 3.090998399265497E10 ; 0.0
163 ; 558972.2259343232 ; 2.0122740678760305E8 ; 9.086618318830843E7 ; 3.1111206576823994E10 ; 0.0
164 ; 558686.5983939993 ; 2.0123221449359715E8 ; 9.142515541424276E7 ; 3.1312433983611595E10 ; 0.0
165 ; 559062.4776405154 ; 2.0123700715324166E8 ; 9.198384201263677E7 ; 3.1513666198105194E10 ; 0.0
166 ; 558004.9787609971 ; 2.0124178463404584E8 ; 9.254290449027728E7 ; 3.1714903205258434E10 ; 0.0
167 ; 556074.5439346397 ; 2.012465468047699E8 ; 9.310090946903828E7 ; 3.191614498989248E10 ; 0.0
168 ; 554976.2421953357 ; 2.0125129353539997E8 ; 9.365698401297292E7 ; 3.211739153669725E10 ; 0.0
169 ; 555546.170094543 ; 2.0125602469712394E8 ; 9.421196025516826E7 ; 3.231864283023265E10 ; 0.0
170 ; 553328.3733485591 ; 2.0126074016230816E8 ; 9.476750642526281E7 ; 3.2519898854929775E10 ; 0.0
171 ; 552995.4303545133 ; 2.0126543980447495E8 ; 9.532083479861137E7 ; 3.2721159595092083E10 ; 0.0
172 ; 552332.3146656066 ; 2.012701234982811E8 ; 9.58738302289659E7 ; 3.2922425034896557E10 ; 0.0
173 ; 551698.4299615688 ; 2.0127479111949685E8 ; 9.64261625436315E7 ; 3.3123695158394836E10 ; 0.0
174 ; 550471.9509897693 ; 2.01279442544986E8 ; 9.697786097359306E7 ; 3.332496994951433E10 ; 0.0
175 ; 549376.7845459033 ; 2.012840776526864E8 ; 9.752833292458282E7 ; 3.352624939205932E10 ; 0.0
176 ; 548753.8367226236 ; 2.012886963215913E8 ; 9.807770970912872E7 ; 3.3727533469712006E10 ; 0.0
177 ; 548234.1679065678 ; 2.0129329843173134E8 ; 9.862646354585135E7 ; 3.3928822166033596E10 ; 0.0
178 ; 549932.359917169 ; 2.0129788386415726E8 ; 9.917469771375792E7 ; 3.413011546446533E10 ; 0.0
179 ; 548622.7926643201 ; 2.0130245250092307E8 ; 9.972463007367508E7 ; 3.4331413348329487E10 ; 0.0
180 ; 547633.5454982624 ; 2.0130700422506982E8 ; 1.002732528663394E8 ; 3.453271580083041E10 ; 0.0
181 ; 549191.3845132245 ; 2.013115389206103E8 ; 1.0082088641183767E8 ; 3.473402280505547E10 ; 0.0
182 ; 546171.5894212752 ; 2.0131605647251365E8 ; 1.013700777963509E8 ; 3.493533434397608E10 ; 0.0
183 ; 546562.6202762147 ; 2.0132055676669115E8 ; 1.0191624938577217E8 ; 3.513665040044859E10 ; 0.0
184 ; 544200.9087102152 ; 2.0132503968998206E8 ; 1.0246281200604838E8 ; 3.533797095721529E10 ; 0.0
185 ; 544662.0336018356 ; 2.0132950513014016E8 ; 1.030070129147586E8 ; 3.5539295996905266E10 ; 0.0
186 ; 545259.9649153727 ; 2.0133395297582078E8 ; 1.0355167494836043E8 ; 3.574062550203541E10 ; 0.0
187 ; 544474.9266003808 ; 2.0133838311656818E8 ; 1.0409693491327581E8 ; 3.594195945501123E10 ; 0.0
188 ; 542906.7446515255 ; 2.0134279544280338E8 ; 1.0464140983987619E8 ; 3.61432978381278E10 ; 0.0
189 ; 542297.0204807213 ; 2.013471898458126E8 ; 1.0518431658452772E8 ; 3.63446406335706E10 ; 0.0
190 ; 542185.632745771 ; 2.013515662177357E8 ; 1.0572661360500844E8 ; 3.654598782341641E10 ; 0.0
191 ; 540879.3769620642 ; 2.0135592445155558E8 ; 1.0626879923775421E8 ; 3.674733938963415E10 ; 0.0
192 ; 541489.417000152 ; 2.0136026444108742E8 ; 1.0680967861471628E8 ; 3.69486953140857E10 ; 0.0
193 ; 539621.8968487324 ; 2.0136458608096862E8 ; 1.0735116803171642E8 ; 3.715005557852679E10 ; 0.0
194 ; 539373.6719593966 ; 2.0136888926664895E8 ; 1.0789078992856516E8 ; 3.735142016460776E10 ; 0.0
195 ; 538697.1529466303 ; 2.013731738943811E8 ; 1.0843016360052456E8 ; 3.7552789053874405E10 ; 0.0
196 ; 537704.2199047264 ; 2.013774398612115E8 ; 1.089688607534712E8 ; 3.775416222776878E10 ; 0.0
197 ; 537998.0044906101 ; 2.013816870649716E8 ; 1.0950656497337592E8 ; 3.795553966763E10 ; 0.0
198 ; 538579.803073645 ; 2.013859154042692E8 ; 1.1004456297786653E8 ; 3.815692135469497E10 ; 0.0
199 ; 536635.2554976582 ; 2.013901247784802E8 ; 1.1058314278094018E8 ; 3.8358307270099236E10 ; 0.0
200 ; 536480.6505942441 ; 2.0139431508774096E8 ; 1.1111977803643784E8 ; 3.8559697394877716E10 ; 0.0
201 ; 536079.3086010457 ; 1.9671607721796778E8 ; 1.1165625868703209E8 ; 3.8761091709965454E10 ; 0.0
202 ; 535939.0094261969 ; 1.5221537639312604E8 ; 1.1219233799563314E8 ; 3.895780778718342E10 ; 0.0
