CSV File for the City 4 on Day 30
1 - Minute m 
2 - Power Consumed at minute m 
3 - Power Produced at minute m 
4 - Energy Consumed since the beginning of the day 
5 - Energy Produced since the beginning of the day 
6 - Energy Lost since the beginning of the day on lines starting from the city
 
0 ; 6794160.356036615 ; 1.0545001212741444E8 ; 0.0 ; 0.0 ; 0.0
1 ; 6803893.538939691 ; 1.0559619219935489E8 ; 6794160.356036615 ; 1.0545001212741444E8 ; 0.0
2 ; 6810310.220252871 ; 1.0605166377942255E8 ; 1.3598053894976307E7 ; 2.1104620432676932E8 ; 0.0
3 ; 6817429.918608628 ; 1.0681648229315639E8 ; 2.040836411522918E7 ; 3.170978681061919E8 ; 0.0
4 ; 6828016.704992172 ; 1.0789070343582553E8 ; 2.7225794033837806E7 ; 4.2391435039934826E8 ; 0.0
5 ; 6841185.723978285 ; 1.0927438160754114E8 ; 3.405381073882998E7 ; 5.318050538351738E8 ; 0.0
6 ; 6855765.729473361 ; 1.1096756804917654E8 ; 4.089499646280827E7 ; 6.410794354427149E8 ; 0.0
7 ; 6877190.451776253 ; 1.1297030877038252E8 ; 4.7750762192281626E7 ; 7.520470034918915E8 ; 0.0
8 ; 6914344.156102461 ; 1.1528264241850817E8 ; 5.462795264405788E7 ; 8.65017312262274E8 ; 0.0
9 ; 6964123.888116249 ; 1.1790459828493834E8 ; 6.154229680016034E7 ; 9.802999546807822E8 ; 0.0
10 ; 7041965.806335629 ; 1.2083619466748047E8 ; 6.850642068827659E7 ; 1.0982045529657207E9 ; 0.0
11 ; 7164250.416786696 ; 1.240774377911112E8 ; 7.554838649461222E7 ; 1.2190407476332011E9 ; 0.0
12 ; 7361335.4694201965 ; 1.2762832143085387E8 ; 8.271263691139892E7 ; 1.3431181854243124E9 ; 0.0
13 ; 7551153.615719676 ; 1.3148882728890103E8 ; 9.007397238081911E7 ; 1.4707465068551662E9 ; 0.0
14 ; 7577631.878377822 ; 1.3565892607386792E8 ; 9.762512599653879E7 ; 1.6022353341440673E9 ; 0.0
15 ; 7584410.621768533 ; 1.4013857913840532E8 ; 1.0520275787491661E8 ; 1.737894260217935E9 ; 0.0
16 ; 7591856.999006873 ; 1.4492774047286257E8 ; 1.1278716849668515E8 ; 1.8780328393563404E9 ; 0.0
17 ; 7602292.332149618 ; 1.5002635883636627E8 ; 1.2037902549569201E8 ; 2.022960579829203E9 ; 0.0
18 ; 7608812.274344383 ; 1.5543437982880527E8 ; 1.2798131782784164E8 ; 2.1729869386655693E9 ; 0.0
19 ; 7619075.8277180325 ; 1.6115174775491038E8 ; 1.3559013010218602E8 ; 2.3284213184943748E9 ; 0.0
20 ; 7628432.462944654 ; 1.671784071891428E8 ; 1.4320920592990404E8 ; 2.489573066249285E9 ; 0.0
21 ; 7637263.031123545 ; 1.735143042041504E8 ; 1.508376383928487E8 ; 2.656751473438428E9 ; 0.0
22 ; 7646398.634737948 ; 1.801593872679999E8 ; 1.5847490142397225E8 ; 2.830265777642578E9 ; 0.0
23 ; 7654663.375854897 ; 1.871136078434351E8 ; 1.661213000587102E8 ; 3.010425164910578E9 ; 0.0
24 ; 7664163.348020753 ; 1.9437692073707706E8 ; 1.737759634345651E8 ; 3.197538772754013E9 ; 0.0
25 ; 7672944.969622731 ; 2.0063732514897394E8 ; 1.8144012678258586E8 ; 3.3919156934910903E9 ; 0.0
26 ; 7682713.553258436 ; 2.006483307127085E8 ; 1.891130717522086E8 ; 3.5925530186400642E9 ; 0.0
27 ; 7690495.430004607 ; 2.006596719187117E8 ; 1.9679578530546704E8 ; 3.7932013493527727E9 ; 0.0
28 ; 7698196.248682518 ; 2.0067131719018394E8 ; 2.0448628073547164E8 ; 3.9938610212714844E9 ; 0.0
29 ; 7707333.31240798 ; 2.0068323796393383E8 ; 2.1218447698415416E8 ; 4.1945323384616685E9 ; 0.0
30 ; 7714238.322208699 ; 2.006954084570882E8 ; 2.1989181029656214E8 ; 4.395215576425602E9 ; 0.0
31 ; 7722910.111119117 ; 2.0070780542770207E8 ; 2.2760604861877084E8 ; 4.59591098488269E9 ; 0.0
32 ; 7731125.968153179 ; 2.0072040793936762E8 ; 2.3532895872988996E8 ; 4.796618790310392E9 ; 0.0
33 ; 7738301.792615087 ; 2.0073319713634306E8 ; 2.4306008469804314E8 ; 4.99733919824976E9 ; 0.0
34 ; 7747675.8154968545 ; 2.0074615603308117E8 ; 2.5079838649065822E8 ; 5.198072395386103E9 ; 0.0
35 ; 7753116.820293065 ; 2.0075926932015175E8 ; 2.585460623061551E8 ; 5.398818551419184E9 ; 0.0
36 ; 7760810.087650081 ; 2.0077252318724784E8 ; 2.6629917912644815E8 ; 5.599577820739335E9 ; 0.0
37 ; 7769225.984389281 ; 2.0078590516310093E8 ; 2.740599892140982E8 ; 5.800350343926583E9 ; 0.0
38 ; 7772220.383994973 ; 2.0079940397158262E8 ; 2.818292151984875E8 ; 6.0011362490896845E9 ; 0.0
39 ; 7780092.240892703 ; 2.0081300940295023E8 ; 2.896014355824825E8 ; 6.201935653061267E9 ; 0.0
40 ; 7784288.091726978 ; 2.0082671219903177E8 ; 2.973815278233752E8 ; 6.402748662464217E9 ; 0.0
41 ; 7792458.77690698 ; 2.0084050395108804E8 ; 3.051658159151022E8 ; 6.603575374663249E9 ; 0.0
42 ; 7795006.467440897 ; 2.0085437700910297E8 ; 3.1295827469200915E8 ; 6.804415878614337E9 ; 0.0
43 ; 7800061.078569274 ; 2.0086832440130773E8 ; 3.2075328115945005E8 ; 7.00527025562344E9 ; 0.0
44 ; 7808318.681514461 ; 2.0088233976282433E8 ; 3.2855334223801935E8 ; 7.206138580024748E9 ; 0.0
45 ; 7811980.73158918 ; 2.0089641727240583E8 ; 3.363616609195338E8 ; 7.407020919787572E9 ; 0.0
46 ; 7814680.366098729 ; 2.0091055159634572E8 ; 3.44173641651123E8 ; 7.607917337059978E9 ; 0.0
47 ; 7819876.094567511 ; 2.0092473783872426E8 ; 3.519883220172217E8 ; 7.808827888656323E9 ; 0.0
48 ; 7821707.849266182 ; 2.0093897149724805E8 ; 3.598081981117892E8 ; 8.009752626495048E9 ; 0.0
49 ; 7826422.517033703 ; 2.0095324842402375E8 ; 3.676299059610554E8 ; 8.210691597992295E9 ; 0.0
50 ; 7825715.602473549 ; 2.0096756479068238E8 ; 3.754563284780891E8 ; 8.411644846416319E9 ; 0.0
51 ; 7829697.145066718 ; 2.0098191705733976E8 ; 3.8328204408056265E8 ; 8.612612411207E9 ; 0.0
52 ; 7829443.598770108 ; 2.0099630194494078E8 ; 3.911117412256294E8 ; 8.813594328264341E9 ; 0.0
53 ; 7832703.6177890925 ; 2.0101071641058898E8 ; 3.989411848243995E8 ; 9.014590630209282E9 ; 0.0
54 ; 7834075.521960036 ; 2.0102515762551245E8 ; 4.0677388844218856E8 ; 9.215601346619871E9 ; 0.0
55 ; 7836801.727143777 ; 2.010396229553595E8 ; 4.146079639641486E8 ; 9.416626504245384E9 ; 0.0
56 ; 7837745.933447316 ; 2.010541099425542E8 ; 4.2244476569129235E8 ; 9.617666127200745E9 ; 0.0
57 ; 7839834.63890241 ; 2.010686162904765E8 ; 4.3028251162473965E8 ; 9.8187202371433E9 ; 0.0
58 ; 7839863.730737672 ; 2.0108313984925884E8 ; 4.381223462636421E8 ; 1.0019788853433775E10 ; 0.0
59 ; 7844719.233292092 ; 2.0109767860301727E8 ; 4.4596220999437976E8 ; 1.0220871993283033E10 ; 0.0
60 ; 7843359.889961666 ; 2.0111223065835685E8 ; 4.5380692922767186E8 ; 1.0421969671886051E10 ; 0.0
61 ; 7845248.3399476055 ; 2.0112679423401037E8 ; 4.616502891176335E8 ; 1.0623081902544409E10 ; 0.0
62 ; 7848397.564334733 ; 2.0114136765148646E8 ; 4.694955374575811E8 ; 1.082420869677842E10 ; 0.0
63 ; 7848854.234557982 ; 2.011559493266175E8 ; 4.7734393502191585E8 ; 1.1025350064429907E10 ; 0.0
64 ; 7849981.01886916 ; 2.0117053776191086E8 ; 4.8519278925647384E8 ; 1.1226506013756525E10 ; 0.0
65 ; 7853530.087245909 ; 2.011851315396183E8 ; 4.93042770275343E8 ; 1.1427676551518436E10 ; 0.0
66 ; 7852755.242213029 ; 2.0119972931544828E8 ; 5.008963003625889E8 ; 1.1628861683058054E10 ; 0.0
67 ; 7853074.055944497 ; 2.01214329812854E8 ; 5.087490556048019E8 ; 1.1830061412373503E10 ; 0.0
68 ; 7856309.001861557 ; 2.0122893181783852E8 ; 5.166021296607464E8 ; 1.2031275742186357E10 ; 0.0
69 ; 7856771.59480454 ; 2.0124353417422423E8 ; 5.2445843866260797E8 ; 1.2232504674004196E10 ; 0.0
70 ; 7855988.438264999 ; 2.0125813577934E8 ; 5.323152102574125E8 ; 1.2433748208178421E10 ; 0.0
71 ; 7853658.980481451 ; 2.0127273558008465E8 ; 5.401711986956775E8 ; 1.2635006343957762E10 ; 0.0
72 ; 7856768.232063473 ; 2.0128733256932965E8 ; 5.48024857676159E8 ; 1.2836279079537846E10 ; 0.0
73 ; 7857474.098827566 ; 2.0130192578262833E8 ; 5.558816259082226E8 ; 1.3037566412107176E10 ; 0.0
74 ; 7856411.441376394 ; 2.013165142952018E8 ; 5.637391000070502E8 ; 1.3238868337889805E10 ; 0.0
75 ; 7859811.800913601 ; 2.0133109721917576E8 ; 5.715955114484266E8 ; 1.3440184852185007E10 ; 0.0
76 ; 7859872.192415239 ; 2.0134567370104414E8 ; 5.794553232493402E8 ; 1.3641515949404182E10 ; 0.0
77 ; 7859652.623850682 ; 2.0136024291933915E8 ; 5.873151954417554E8 ; 1.3842861623105227E10 ; 0.0
78 ; 7857667.111445981 ; 2.0137480408248794E8 ; 5.951748480656061E8 ; 1.4044221866024565E10 ; 0.0
79 ; 7853099.213000205 ; 2.0138935642683983E8 ; 6.030325151770521E8 ; 1.4245596670107052E10 ; 0.0
80 ; 7852385.502912774 ; 2.0140389921484795E8 ; 6.108856143900523E8 ; 1.4446986026533892E10 ; 0.0
81 ; 7851593.54815974 ; 2.0141843173339233E8 ; 6.187379998929651E8 ; 1.464838992574874E10 ; 0.0
82 ; 7848189.61070248 ; 2.0143295329223144E8 ; 6.265895934411248E8 ; 1.4849808357482132E10 ; 0.0
83 ; 7843610.214034532 ; 2.0144746322257113E8 ; 6.344377830518273E8 ; 1.5051241310774363E10 ; 0.0
84 ; 7842700.8729925 ; 2.0146196087574124E8 ; 6.422813932658619E8 ; 1.5252688773996933E10 ; 0.0
85 ; 7837231.074822921 ; 2.014764456219702E8 ; 6.501240941388544E8 ; 1.5454150734872675E10 ; 0.0
86 ; 7838855.31670271 ; 2.0149091684924975E8 ; 6.579613252136773E8 ; 1.5655627180494646E10 ; 0.0
87 ; 7833332.805547139 ; 2.0150537396228206E8 ; 6.6580018053038E8 ; 1.5857118097343895E10 ; 0.0
88 ; 7829930.491208428 ; 2.0151981638150257E8 ; 6.736335133359271E8 ; 1.6058623471306177E10 ; 0.0
89 ; 7824794.204940131 ; 2.0153424354217234E8 ; 6.814634438271356E8 ; 1.626014328768768E10 ; 0.0
90 ; 7825881.56608467 ; 2.015486548935343E8 ; 6.892882380320756E8 ; 1.646167753122985E10 ; 0.0
91 ; 7822171.160814159 ; 2.0156304989802825E8 ; 6.971141195981603E8 ; 1.6663226186123384E10 ; 0.0
92 ; 7818549.2337670885 ; 2.0157742803056014E8 ; 7.049362907589744E8 ; 1.6864789236021412E10 ; 0.0
93 ; 7815251.865094404 ; 2.0159178877782103E8 ; 7.127548399927415E8 ; 1.7066366664051971E10 ; 0.0
94 ; 7811038.225438768 ; 2.0160613163765234E8 ; 7.205700918578359E8 ; 1.7267958452829792E10 ; 0.0
95 ; 7807974.179086666 ; 2.0162045611845344E8 ; 7.283811300832746E8 ; 1.7469564584467445E10 ; 0.0
96 ; 7802164.289289343 ; 2.016347617386286E8 ; 7.361891042623613E8 ; 1.76711850405859E10 ; 0.0
97 ; 7800726.810634422 ; 2.0164904802607012E8 ; 7.439912685516506E8 ; 1.7872819802324528E10 ; 0.0
98 ; 7797060.334243939 ; 2.0166331451767546E8 ; 7.51791995362285E8 ; 1.8074468850350597E10 ; 0.0
99 ; 7792201.811951375 ; 2.0167756075889498E8 ; 7.595890556965289E8 ; 1.8276132164868275E10 ; 0.0
100 ; 7788985.516988275 ; 2.0169178630330893E8 ; 7.673812575084803E8 ; 1.847780972562717E10 ; 0.0
101 ; 7787800.734942516 ; 2.017059907122312E8 ; 7.751702430254686E8 ; 1.867950151193048E10 ; 0.0
102 ; 7782548.523517812 ; 2.017201735543376E8 ; 7.829580437604111E8 ; 1.888120750264271E10 ; 0.0
103 ; 7777588.234399928 ; 2.017343344053177E8 ; 7.90740592283929E8 ; 1.908292767619705E10 ; 0.0
104 ; 7773266.511445789 ; 2.017484728475478E8 ; 7.985181805183289E8 ; 1.9284662010602367E10 ; 0.0
105 ; 7770823.873977235 ; 2.0176258846978402E8 ; 8.062914470297747E8 ; 1.9486410483449917E10 ; 0.0
106 ; 7763660.78133518 ; 2.0177668086687386E8 ; 8.140622709037519E8 ; 1.96881730719197E10 ; 0.0
107 ; 7761340.262526482 ; 2.0179074963948533E8 ; 8.218259316850871E8 ; 1.9889949752786575E10 ; 0.0
108 ; 7756995.0155849615 ; 2.0180479439385194E8 ; 8.295872719476136E8 ; 2.009174050242606E10 ; 0.0
109 ; 7750747.19985031 ; 2.0181881474153292E8 ; 8.373442669631985E8 ; 2.0293545296819912E10 ; 0.0
110 ; 7745825.742028521 ; 2.018328102991875E8 ; 8.450950141630489E8 ; 2.0495364111561443E10 ; 0.0
111 ; 7741867.916934247 ; 2.018467806883623E8 ; 8.528408399050773E8 ; 2.069719692186063E10 ; 0.0
112 ; 7738178.831246105 ; 2.0186072553529084E8 ; 8.605827078220116E8 ; 2.0899043702548992E10 ; 0.0
113 ; 7734095.364420045 ; 2.018746444707049E8 ; 8.683208866532577E8 ; 2.1100904428084282E10 ; 0.0
114 ; 7725950.850530297 ; 2.0188853712965617E8 ; 8.760549820176778E8 ; 2.1302779072554985E10 ; 0.0
115 ; 7722983.778924181 ; 2.0190240315134832E8 ; 8.83780932868208E8 ; 2.1504667609684643E10 ; 0.0
116 ; 7717400.196759497 ; 2.019162421789783E8 ; 8.915039166471323E8 ; 2.170657001283599E10 ; 0.0
117 ; 7711295.942973865 ; 2.0193005385958645E8 ; 8.992213168438917E8 ; 2.190848625501497E10 ; 0.0
118 ; 7704915.004538346 ; 2.0194383784391508E8 ; 9.069326127868656E8 ; 2.2110416308874554E10 ; 0.0
119 ; 7699193.54659907 ; 2.0195759378627458E8 ; 9.146375277914039E8 ; 2.2312360146718468E10 ; 0.0
120 ; 7696401.362690447 ; 2.01971321344417E8 ; 9.223367213380029E8 ; 2.251431774050474E10 ; 0.0
121 ; 7691685.789098277 ; 2.0198502017941642E8 ; 9.300331227006934E8 ; 2.271628906184916E10 ; 0.0
122 ; 7683878.348339768 ; 2.0199868995555565E8 ; 9.377248084897916E8 ; 2.2918274082028576E10 ; 0.0
123 ; 7678876.452766603 ; 2.020123303402193E8 ; 9.454086868381314E8 ; 2.312027277198413E10 ; 0.0
124 ; 7671929.98447972 ; 2.0202594100379214E8 ; 9.530875632908981E8 ; 2.332228510232435E10 ; 0.0
125 ; 7666524.698751014 ; 2.0203952161956313E8 ; 9.607594932753778E8 ; 2.352431104332814E10 ; 0.0
126 ; 7663137.5100783855 ; 2.020530718636344E8 ; 9.684260179741287E8 ; 2.3726350564947704E10 ; 0.0
127 ; 7656805.690091416 ; 2.02066591414835E8 ; 9.760891554842072E8 ; 2.392840363681134E10 ; 0.0
128 ; 7649926.9768119315 ; 2.02080079954639E8 ; 9.837459611742985E8 ; 2.4130470228226177E10 ; 0.0
129 ; 7644660.6457038075 ; 2.0209353716708806E8 ; 9.913958881511104E8 ; 2.4332550308180817E10 ; 0.0
130 ; 7637146.076080407 ; 2.0210696273871782E8 ; 9.990405487968142E8 ; 2.4534643845347904E10 ; 0.0
131 ; 7629280.891103313 ; 2.0212035635848817E8 ; 1.0066776948728946E9 ; 2.473675080808662E10 ; 0.0
132 ; 7621446.381629 ; 2.021337177177169E8 ; 1.0143069757639979E9 ; 2.493887116444511E10 ; 0.0
133 ; 7610070.441889745 ; 2.0214704651001692E8 ; 1.0219284221456269E9 ; 2.5141004882162827E10 ; 0.0
134 ; 7601787.280281163 ; 2.021603424312365E8 ; 1.0295384925875167E9 ; 2.5343151928672844E10 ; 0.0
135 ; 7592571.508677717 ; 2.0217360517940262E8 ; 1.0371402798677979E9 ; 2.554531227110408E10 ; 0.0
136 ; 7583342.35798528 ; 2.0218683445466706E8 ; 1.0447328513764756E9 ; 2.574748587628348E10 ; 0.0
137 ; 7576066.570353547 ; 2.0220002995925534E8 ; 1.0523161937344608E9 ; 2.5949672710738148E10 ; 0.0
138 ; 7563692.984486007 ; 2.0221319139741796E8 ; 1.0598922603048143E9 ; 2.6151872740697403E10 ; 0.0
139 ; 7557861.465937659 ; 2.0222631847538427E8 ; 1.0674559532893003E9 ; 2.6354085932094822E10 ; 0.0
140 ; 7545371.12039466 ; 2.022394109013185E8 ; 1.075013814755238E9 ; 2.6556312250570206E10 ; 0.0
141 ; 7539545.933527916 ; 2.0225246838527802E8 ; 1.0825591858756328E9 ; 2.6758551661471523E10 ; 0.0
142 ; 7528904.60305002 ; 2.022654906391737E8 ; 1.0900987318091607E9 ; 2.69608041298568E10 ; 0.0
143 ; 7518204.708262395 ; 2.0227847737673187E8 ; 1.0976276364122107E9 ; 2.7163069620495975E10 ; 0.0
144 ; 7510565.124056913 ; 2.0229142831345886E8 ; 1.1051458411204731E9 ; 2.7365348097872707E10 ; 0.0
145 ; 7502497.638120261 ; 2.023043431666063E8 ; 1.11265640624453E9 ; 2.7567639526186165E10 ; 0.0
146 ; 7498753.510785826 ; 2.0231722165513903E8 ; 1.1201589038826501E9 ; 2.776994386935277E10 ; 0.0
147 ; 7487453.59747663 ; 2.0233006349970397E8 ; 1.127657657393436E9 ; 2.797226109100791E10 ; 0.0
148 ; 7483618.75599645 ; 2.0234286842260075E8 ; 1.1351451109909127E9 ; 2.8174591154507614E10 ; 0.0
149 ; 7473394.321010882 ; 2.023556361477537E8 ; 1.1426287297469091E9 ; 2.8376934022930214E10 ; 0.0
150 ; 7467755.192842403 ; 2.0236836640068525E8 ; 1.15010212406792E9 ; 2.857928965907797E10 ; 0.0
151 ; 7461125.478628245 ; 2.0238105890849048E8 ; 1.1575698792607625E9 ; 2.8781658025478653E10 ; 0.0
152 ; 7451510.944891583 ; 2.0239371339981318E8 ; 1.1650310047393906E9 ; 2.8984039084387142E10 ; 0.0
153 ; 7447188.338474836 ; 2.0240632960482264E8 ; 1.1724825156842823E9 ; 2.9186432797786957E10 ; 0.0
154 ; 7441194.618756411 ; 2.0241890725519204E8 ; 1.179929704022757E9 ; 2.938883912739178E10 ; 0.0
155 ; 7432906.534867155 ; 2.0243144608407757E8 ; 1.1873708986415133E9 ; 2.9591258034646973E10 ; 0.0
156 ; 7425057.934351477 ; 2.0244394582609862E8 ; 1.1948038051763804E9 ; 2.979368948073105E10 ; 0.0
157 ; 7417384.527533444 ; 2.02456406217319E8 ; 1.2022288631107318E9 ; 2.9996133426557148E10 ; 0.0
158 ; 7412330.607293331 ; 2.0246882699522915E8 ; 1.2096462476382654E9 ; 3.0198589832774467E10 ; 0.0
159 ; 7402895.253321866 ; 2.0248120789872882E8 ; 1.2170585782455587E9 ; 3.0401058659769695E10 ; 0.0
160 ; 7395682.646095718 ; 2.0249354866811123E8 ; 1.2244614734988806E9 ; 3.0603539867668423E10 ; 0.0
161 ; 7388362.842202345 ; 2.025058490450474E8 ; 1.2318571561449764E9 ; 3.0806033416336533E10 ; 0.0
162 ; 7381706.194544277 ; 2.0251810877257165E8 ; 1.2392455189871788E9 ; 3.100853926538158E10 ; 0.0
163 ; 7374708.482135381 ; 2.0253032759506762E8 ; 1.246627225181723E9 ; 3.1211057374154152E10 ; 0.0
164 ; 7365549.432875102 ; 2.0254250525825506E8 ; 1.2540019336638584E9 ; 3.1413587701749218E10 ; 0.0
165 ; 7361574.460460338 ; 2.025546415091772E8 ; 1.2613674830967336E9 ; 3.1616130207007473E10 ; 0.0
166 ; 7351513.800088837 ; 2.0256673609618896E8 ; 1.268729057557194E9 ; 3.181868484851665E10 ; 0.0
167 ; 7345094.977921476 ; 2.0257878876894537E8 ; 1.2760805713572829E9 ; 3.202125158461284E10 ; 0.0
168 ; 7336828.174232529 ; 2.02590799278391E8 ; 1.2834256663352044E9 ; 3.2223830373381783E10 ; 0.0
169 ; 7327677.668252057 ; 2.0260276737674963E8 ; 1.2907624945094368E9 ; 3.2426421172660175E10 ; 0.0
170 ; 7321140.115256882 ; 2.026146928175146E8 ; 1.2980901721776888E9 ; 3.2629023940036926E10 ; 0.0
171 ; 7314749.286962449 ; 2.0262657535543957E8 ; 1.3054113122929456E9 ; 3.2831638632854443E10 ; 0.0
172 ; 7307502.044729179 ; 2.0263841474652988E8 ; 1.3127260615799081E9 ; 3.303426520820988E10 ; 0.0
173 ; 7298362.026337866 ; 2.026502107480341E8 ; 1.3200335636246374E9 ; 3.323690362295641E10 ; 0.0
174 ; 7294363.209612055 ; 2.0266196311843643E8 ; 1.3273319256509752E9 ; 3.3439553833704445E10 ; 0.0
175 ; 7291470.131693851 ; 2.026736716174492E8 ; 1.3346262888605874E9 ; 3.364221579682288E10 ; 0.0
176 ; 7286048.790396535 ; 2.0268533600600582E8 ; 1.3419177589922812E9 ; 3.384488946844033E10 ; 0.0
177 ; 7281198.976060093 ; 2.0269695604625422E8 ; 1.3492038077826777E9 ; 3.4047574804446335E10 ; 0.0
178 ; 7278697.6138636805 ; 2.0270853150155053E8 ; 1.3564850067587378E9 ; 3.4250271760492588E10 ; 0.0
179 ; 7271545.87461297 ; 2.0272006213645324E8 ; 1.3637637043726015E9 ; 3.445298029199414E10 ; 0.0
180 ; 7267042.036743169 ; 2.0273154771671766E8 ; 1.3710352502472146E9 ; 3.465570035413059E10 ; 0.0
181 ; 7261821.74697991 ; 2.027429880092906E8 ; 1.3783022922839577E9 ; 3.485843190184731E10 ; 0.0
182 ; 7257039.446403926 ; 2.027543827823054E8 ; 1.3855641140309377E9 ; 3.5061174889856606E10 ; 0.0
183 ; 7254963.218212863 ; 2.027657318050774E8 ; 1.3928211534773417E9 ; 3.526392927263891E10 ; 0.0
184 ; 7248730.414651515 ; 2.0277703484809953E8 ; 1.4000761166955545E9 ; 3.5466695004443985E10 ; 0.0
185 ; 7244477.473108951 ; 2.027882916830382E8 ; 1.4073248471102061E9 ; 3.566947203929208E10 ; 0.0
186 ; 7241194.682896691 ; 2.0279950208272958E8 ; 1.4145693245833151E9 ; 3.587226033097512E10 ; 0.0
187 ; 7233276.428451109 ; 2.0281066582117578E8 ; 1.4218105192662117E9 ; 3.607505983305785E10 ; 0.0
188 ; 7229894.789175248 ; 2.028217826735418E8 ; 1.4290437956946628E9 ; 3.627787049887903E10 ; 0.0
189 ; 7226501.513262507 ; 2.0283285241615227E8 ; 1.436273690483838E9 ; 3.648069228155257E10 ; 0.0
190 ; 7220852.888240611 ; 2.0284387482648852E8 ; 1.4435001919971006E9 ; 3.668352513396872E10 ; 0.0
191 ; 7217983.382732113 ; 2.0285484968318602E8 ; 1.4507210448853412E9 ; 3.688636900879521E10 ; 0.0
192 ; 7215288.731649155 ; 2.0286577676603177E8 ; 1.4579390282680733E9 ; 3.70892238584784E10 ; 0.0
193 ; 7208389.338208732 ; 2.028766558559621E8 ; 1.4651543169997225E9 ; 3.729208963524443E10 ; 0.0
194 ; 7202827.827010585 ; 2.0288748673506063E8 ; 1.4723627063379312E9 ; 3.7494966291100395E10 ; 0.0
195 ; 7199226.823472917 ; 2.028982691865561E8 ; 1.4795655341649418E9 ; 3.769785377783546E10 ; 0.0
196 ; 7196041.649248737 ; 2.0290900299482095E8 ; 1.4867647609884148E9 ; 3.790075204702201E10 ; 0.0
197 ; 7190229.368407019 ; 2.0291968794536942E8 ; 1.4939608026376636E9 ; 3.810366105001683E10 ; 0.0
198 ; 7184913.892875706 ; 2.0293032382485637E8 ; 1.5011510320060706E9 ; 3.83065807379622E10 ; 0.0
199 ; 7182206.926917299 ; 2.0294091042107576E8 ; 1.5083359458989463E9 ; 3.8509511061787056E10 ; 0.0
200 ; 7174334.354185313 ; 2.029514475229597E8 ; 1.5155181528258636E9 ; 3.871245197220813E10 ; 0.0
201 ; 7169420.087636548 ; 1.8002479275192896E8 ; 1.522692487180049E9 ; 3.891540341973109E10 ; 0.0
