CSV File for the City 4 on Day 215
1 - Minute m 
2 - Power Consumed at minute m 
3 - Power Produced at minute m 
4 - Energy Consumed since the beginning of the day 
5 - Energy Produced since the beginning of the day 
6 - Energy Lost since the beginning of the day on lines starting from the city
 
0 ; 435871.0710108722 ; 1.0556683680253974E8 ; 0.0 ; 0.0 ; 0.0
1 ; 441787.27509663405 ; 1.0571507875893128E8 ; 435871.0710108722 ; 1.0556683680253974E8 ; 0.0
2 ; 452212.07295836223 ; 1.06172521802053E8 ; 877658.3461075062 ; 2.1128191556147102E8 ; 0.0
3 ; 460103.5662221205 ; 1.069391901652376E8 ; 1329870.4190658685 ; 3.17454437363524E8 ; 0.0
4 ; 471383.6300480376 ; 1.0801510669280475E8 ; 1789973.985287989 ; 4.243936275287616E8 ; 0.0
5 ; 485137.27228298 ; 1.0940029239376032E8 ; 2261357.6153360265 ; 5.324087342215664E8 ; 0.0
6 ; 500017.71448416467 ; 1.1109476599424312E8 ; 2746494.8876190064 ; 6.418090266153266E8 ; 0.0
7 ; 523969.55256470107 ; 1.1309854350802177E8 ; 3246512.602103171 ; 7.529037926095698E8 ; 0.0
8 ; 558138.739302871 ; 1.1541163784594053E8 ; 3770482.154667872 ; 8.660023361175916E8 ; 0.0
9 ; 612203.6509089385 ; 1.1803405848520517E8 ; 4328620.893970743 ; 9.814139739635322E8 ; 0.0
10 ; 689255.5270421216 ; 1.2096581121752536E8 ; 4940824.544879681 ; 1.0994480324487374E9 ; 0.0
11 ; 812649.3326901321 ; 1.2420689799137804E8 ; 5630080.071921803 ; 1.2204138436662626E9 ; 0.0
12 ; 1013691.3008752605 ; 1.2775731685828623E8 ; 6442729.404611935 ; 1.3446207416576407E9 ; 0.0
13 ; 1205988.9773822313 ; 1.3161706202654028E8 ; 7456420.705487195 ; 1.4723780585159268E9 ; 0.0
14 ; 1227137.521473203 ; 1.357861240189345E8 ; 8662409.682869427 ; 1.603995120542467E9 ; 0.0
15 ; 1237542.1625726928 ; 1.402644899246245E8 ; 9889547.20434263 ; 1.7397812445614016E9 ; 0.0
16 ; 1246741.1420280356 ; 1.450521437298418E8 ; 1.1127089366915323E7 ; 1.880045734486026E9 ; 0.0
17 ; 1259663.7929485166 ; 1.501490667084475E8 ; 1.2373830508943358E7 ; 2.0250978782158678E9 ; 0.0
18 ; 1266097.7505109354 ; 1.5555523785143572E8 ; 1.3633494301891875E7 ; 2.1752469449243155E9 ; 0.0
19 ; 1277121.3270373757 ; 1.6127063431448683E8 ; 1.489959205240281E7 ; 2.330802182775751E9 ; 0.0
20 ; 1286390.7226994017 ; 1.672952318642681E8 ; 1.6176713379440185E7 ; 2.492072817090238E9 ; 0.0
21 ; 1296440.7387411732 ; 1.7362900530698285E8 ; 1.7463104102139585E7 ; 2.6593680489545064E9 ; 0.0
22 ; 1308875.8947431217 ; 1.8027192888618243E8 ; 1.875954484088076E7 ; 2.8329970542614894E9 ; 0.0
23 ; 1316017.191391655 ; 1.8722397664063197E8 ; 2.006842073562388E7 ; 3.0132689831476717E9 ; 0.0
24 ; 1325960.793037994 ; 1.9448512271665657E8 ; 2.1384437927015536E7 ; 3.200492959788304E9 ; 0.0
25 ; 1338929.9793416613 ; 2.007433825308099E8 ; 2.271039872005353E7 ; 3.3949780825049605E9 ; 0.0
26 ; 1347553.309826411 ; 2.0075227902369946E8 ; 2.404932869939519E7 ; 3.5957214650357704E9 ; 0.0
27 ; 1358487.194228545 ; 2.0076155735658416E8 ; 2.5396882009221602E7 ; 3.7964737440594697E9 ; 0.0
28 ; 1368132.1470715848 ; 2.0077119428831777E8 ; 2.6755369203450147E7 ; 3.997235301416054E9 ; 0.0
29 ; 1378254.3435237645 ; 2.0078116756179187E8 ; 2.8123501350521732E7 ; 4.1980064957043715E9 ; 0.0
30 ; 1388204.8246492415 ; 2.0079145596509472E8 ; 2.9501755694045495E7 ; 4.398787663266163E9 ; 0.0
31 ; 1396562.8978752436 ; 2.0080203936559844E8 ; 3.0889960518694736E7 ; 4.599579119231257E9 ; 0.0
32 ; 1407437.1686132727 ; 2.008128987217241E8 ; 3.2286523416569978E7 ; 4.800381158596856E9 ; 0.0
33 ; 1415083.799434476 ; 2.008240160767561E8 ; 3.369396058518325E7 ; 5.001194057318581E9 ; 0.0
34 ; 1426545.6219360025 ; 2.0083537453860414E8 ; 3.510904438461772E7 ; 5.202018073395337E9 ; 0.0
35 ; 1435155.7690916248 ; 2.0084695824890321E8 ; 3.6535590006553724E7 ; 5.402853447933941E9 ; 0.0
36 ; 1442613.6712163123 ; 2.0085875234433338E8 ; 3.7970745775645345E7 ; 5.603700406182844E9 ; 0.0
37 ; 1451840.512680045 ; 2.0087074291256073E8 ; 3.9413359446861655E7 ; 5.804559158527178E9 ; 0.0
38 ; 1458561.0770960946 ; 2.0088291694476146E8 ; 4.08651999595417E7 ; 6.005429901439738E9 ; 0.0
39 ; 1467062.7975805886 ; 2.008952622863037E8 ; 4.23237610366378E7 ; 6.2063128183845E9 ; 0.0
40 ; 1474986.1354555765 ; 2.009077675868248E8 ; 4.379082383421838E7 ; 6.407208080670803E9 ; 0.0
41 ; 1482673.771426812 ; 2.009204222506568E8 ; 4.526580996967396E7 ; 6.6081158482576275E9 ; 0.0
42 ; 1489972.1075177563 ; 2.0093321638831657E8 ; 4.674848374110077E7 ; 6.809036270508285E9 ; 0.0
43 ; 1496711.3482445127 ; 2.0094614076958007E8 ; 4.823845584861853E7 ; 7.009969486896601E9 ; 0.0
44 ; 1501493.517815253 ; 2.0095918677850515E8 ; 4.973516719686304E7 ; 7.210915627666181E9 ; 0.0
45 ; 1511020.42714455 ; 2.009723463706393E8 ; 5.1236660714678295E7 ; 7.411874814444686E9 ; 0.0
46 ; 1513410.6581834087 ; 2.0098561203255188E8 ; 5.2747681141822845E7 ; 7.612847160815325E9 ; 0.0
47 ; 1521012.104711432 ; 2.0099897674375322E8 ; 5.4261091800006256E7 ; 7.813832772847877E9 ; 0.0
48 ; 1525121.6038300355 ; 2.010124339410054E8 ; 5.5782103904717684E7 ; 8.01483174959163E9 ; 0.0
49 ; 1530104.2639124338 ; 2.0102597748498645E8 ; 5.7307225508547716E7 ; 8.215844183532636E9 ; 0.0
50 ; 1533629.2970425952 ; 2.010396016292385E8 ; 5.883732977246015E7 ; 8.416870161017622E9 ; 0.0
51 ; 1538410.10140267 ; 2.01053300991309E8 ; 6.037095906950274E7 ; 8.61790976264686E9 ; 0.0
52 ; 1544133.9771983782 ; 2.010670705259799E8 ; 6.190936917090541E7 ; 8.818963063638168E9 ; 0.0
53 ; 1546809.0895265858 ; 2.010809055004708E8 ; 6.345350314810379E7 ; 9.020030134164148E9 ; 0.0
54 ; 1551153.3646098163 ; 2.010948014714979E8 ; 6.5000312237630375E7 ; 9.22111103966462E9 ; 0.0
55 ; 1556942.8233950834 ; 2.0110875426407072E8 ; 6.655146560224019E7 ; 9.422205841136118E9 ; 0.0
56 ; 1560677.2636857133 ; 2.0112275995190868E8 ; 6.810840842563528E7 ; 9.623314595400188E9 ; 0.0
57 ; 1564102.2567384727 ; 2.0113681483936372E8 ; 6.9669085689321E7 ; 9.824437355352097E9 ; 0.0
58 ; 1569414.8887742516 ; 2.0115091544473985E8 ; 7.123318794605947E7 ; 1.002557417019146E10 ; 0.0
59 ; 1572513.3370544987 ; 2.0116505848490492E8 ; 7.280260283483371E7 ; 1.02267250856362E10 ; 0.0
60 ; 1576354.513536079 ; 2.0117924086109653E8 ; 7.437511617188822E7 ; 1.0427890144121105E10 ; 0.0
61 ; 1581460.9837707062 ; 2.0119345964582968E8 ; 7.59514706854243E7 ; 1.0629069384982203E10 ; 0.0
62 ; 1583813.1663195223 ; 2.012077120708195E8 ; 7.753293166919501E7 ; 1.0830262844628033E10 ; 0.0
63 ; 1587638.267434734 ; 2.0122199551583874E8 ; 7.911674483551453E7 ; 1.1031470556698853E10 ; 0.0
64 ; 1589316.8813186253 ; 2.0123630749843553E8 ; 8.070438310294926E7 ; 1.1232692552214691E10 ; 0.0
65 ; 1594107.507869313 ; 2.0125064566444212E8 ; 8.229369998426789E7 ; 1.1433928859713127E10 ; 0.0
66 ; 1596488.6087518102 ; 2.0126500777921095E8 ; 8.388780749213721E7 ; 1.163517950537757E10 ; 0.0
67 ; 1601428.094354472 ; 2.0127939171951923E8 ; 8.548429610088901E7 ; 1.183644451315678E10 ; 0.0
68 ; 1603418.3558402846 ; 2.0129379546608803E8 ; 8.708572419524348E7 ; 1.2037723904876299E10 ; 0.0
69 ; 1607818.1616008927 ; 2.0130821709666583E8 ; 8.868914255108376E7 ; 1.2239017700342386E10 ; 0.0
70 ; 1609328.1931986613 ; 2.0132265477963147E8 ; 9.029696071268465E7 ; 1.2440325917439053E10 ; 0.0
71 ; 1616570.2298894548 ; 2.0133710676807377E8 ; 9.190628890588331E7 ; 1.2641648572218683E10 ; 0.0
72 ; 1617311.3405374861 ; 2.0135157139431015E8 ; 9.352285913577276E7 ; 1.2842985678986757E10 ; 0.0
73 ; 1620878.8397322858 ; 2.013660470648087E8 ; 9.514017047631025E7 ; 1.3044337250381067E10 ; 0.0
74 ; 1624938.410439526 ; 2.0138053225548112E8 ; 9.676104931604254E7 ; 1.3245703297445875E10 ; 0.0
75 ; 1629738.0022887844 ; 2.0139502550731763E8 ; 9.838598772648206E7 ; 1.3447083829701357E10 ; 0.0
76 ; 1631918.0315148633 ; 2.0140952542233607E8 ; 1.0001572572877085E8 ; 1.3648478855208675E10 ; 0.0
77 ; 1634471.2628818573 ; 2.0142403065982068E8 ; 1.0164764376028572E8 ; 1.3849888380631012E10 ; 0.0
78 ; 1635620.621473713 ; 2.0143853993282792E8 ; 1.0328211502316758E8 ; 1.4051312411290833E10 ; 0.0
79 ; 1636464.5383645296 ; 2.0145305200493824E8 ; 1.049177356446413E8 ; 1.425275095122366E10 ; 0.0
80 ; 1635598.7354696093 ; 2.0146756568723473E8 ; 1.0655420018300582E8 ; 1.4454204003228598E10 ; 0.0
81 ; 1637885.207623282 ; 2.0148207983549118E8 ; 1.0818979891847543E8 ; 1.4655671568915833E10 ; 0.0
82 ; 1639047.3428003169 ; 2.014965933475536E8 ; 1.0982768412609872E8 ; 1.4857153648751324E10 ; 0.0
83 ; 1637967.9912773874 ; 2.0151110516090035E8 ; 1.1146673146889904E8 ; 1.5058650242098877E10 ; 0.0
84 ; 1639838.22358676 ; 2.0152561425036705E8 ; 1.1310469946017642E8 ; 1.5260161347259777E10 ; 0.0
85 ; 1638245.6077074914 ; 2.015401196260246E8 ; 1.1474453768376318E8 ; 1.5461686961510143E10 ; 0.0
86 ; 1639777.3615305407 ; 2.0155462033119816E8 ; 1.1638278329147066E8 ; 1.5663227081136168E10 ; 0.0
87 ; 1638681.1655466775 ; 2.0156911544061697E8 ; 1.180225606530012E8 ; 1.5864781701467365E10 ; 0.0
88 ; 1640301.6005447577 ; 2.0158360405868536E8 ; 1.1966124181854787E8 ; 1.6066350816907982E10 ; 0.0
89 ; 1641374.606177656 ; 2.0159808531786612E8 ; 1.2130154341909263E8 ; 1.6267934420966667E10 ; 0.0
90 ; 1639862.1518615547 ; 2.016125583771677E8 ; 1.2294291802527028E8 ; 1.6469532506284533E10 ; 0.0
91 ; 1641171.470092261 ; 2.0162702242072856E8 ; 1.2458278017713183E8 ; 1.6671145064661701E10 ; 0.0
92 ; 1640004.3240777827 ; 2.016414766564907E8 ; 1.262239516472241E8 ; 1.687277208708243E10 ; 0.0
93 ; 1638666.5476277815 ; 2.01655920314957E8 ; 1.2786395597130188E8 ; 1.707441356373892E10 ; 0.0
94 ; 1638872.7168789553 ; 2.016703526480256E8 ; 1.2950262251892966E8 ; 1.727606948405388E10 ; 0.0
95 ; 1639940.1053786946 ; 2.016847729278968E8 ; 1.3114149523580861E8 ; 1.7477739836701904E10 ; 0.0
96 ; 1640406.3338280544 ; 2.0169918044604662E8 ; 1.327814353411873E8 ; 1.7679424609629803E10 ; 0.0
97 ; 1638986.2444004226 ; 2.017135745122631E8 ; 1.3442184167501536E8 ; 1.7881123790075848E10 ; 0.0
98 ; 1639834.9328620639 ; 2.017279544537405E8 ; 1.3606082791941577E8 ; 1.808283736458811E10 ; 0.0
99 ; 1638297.8272529596 ; 2.01742319614228E8 ; 1.3770066285227785E8 ; 1.828456531904185E10 ; 0.0
100 ; 1638818.3244824887 ; 2.0175666935322875E8 ; 1.393389606795308E8 ; 1.848630763865608E10 ; 0.0
101 ; 1637771.0033604116 ; 2.0177100304524618E8 ; 1.409777790040133E8 ; 1.8688064308009308E10 ; 0.0
102 ; 1637756.576022125 ; 2.0178532007907447E8 ; 1.4261555000737372E8 ; 1.8889835311054554E10 ; 0.0
103 ; 1637291.3617410383 ; 2.0179961985713008E8 ; 1.4425330658339584E8 ; 1.909162063113363E10 ; 0.0
104 ; 1636835.7790472638 ; 2.0181390179482168E8 ; 1.4589059794513687E8 ; 1.929342025099076E10 ; 0.0
105 ; 1636518.3333407638 ; 2.0182816531995633E8 ; 1.4752743372418413E8 ; 1.9495234152785583E10 ; 0.0
106 ; 1637392.8556692293 ; 2.0184240987217906E8 ; 1.491639520575249E8 ; 1.969706231810554E10 ; 0.0
107 ; 1634929.3122318885 ; 2.0185663490244403E8 ; 1.5080134491319412E8 ; 1.9898904727977722E10 ; 0.0
108 ; 1634264.9995295857 ; 2.018708398725154E8 ; 1.5243627422542602E8 ; 2.0100761362880165E10 ; 0.0
109 ; 1634670.5994027082 ; 2.0188502425449556E8 ; 1.5407053922495562E8 ; 2.030263220275268E10 ; 0.0
110 ; 1635198.0576725597 ; 2.0189918753037953E8 ; 1.557052098243583E8 ; 2.0504517227007175E10 ; 0.0
111 ; 1631443.2395585566 ; 2.019133291916336E8 ; 1.5734040788203087E8 ; 2.0706416414537556E10 ; 0.0
112 ; 1633327.191179734 ; 2.019274487387969E8 ; 1.5897185112158942E8 ; 2.090832974372919E10 ; 0.0
113 ; 1630013.6703016178 ; 2.0194154568110412E8 ; 1.6060517831276914E8 ; 2.1110257192467987E10 ; 0.0
114 ; 1629826.1335053416 ; 2.0195561953612888E8 ; 1.6223519198307076E8 ; 2.131219873814909E10 ; 0.0
115 ; 1629422.9609676572 ; 2.0196966982944557E8 ; 1.638650181165761E8 ; 2.151415435768522E10 ; 0.0
116 ; 1627280.0264992262 ; 2.0198369609430912E8 ; 1.6549444107754377E8 ; 2.1716124027514664E10 ; 0.0
117 ; 1628312.6371652368 ; 2.0199769787135172E8 ; 1.6712172110404298E8 ; 2.1918107723608974E10 ; 0.0
118 ; 1624094.5537610892 ; 2.0201167470829505E8 ; 1.6875003374120823E8 ; 2.2120105421480328E10 ; 0.0
119 ; 1622674.875507376 ; 2.020256261596775E8 ; 1.7037412829496932E8 ; 2.232211709618862E10 ; 0.0
120 ; 1623663.8222078243 ; 2.020395517865952E8 ; 1.719968031704767E8 ; 2.2524142722348297E10 ; 0.0
121 ; 1621987.8603136889 ; 2.020534511564566E8 ; 1.7362046699268454E8 ; 2.272618227413489E10 ; 0.0
122 ; 1620122.0138005714 ; 2.0206732384274888E8 ; 1.7524245485299823E8 ; 2.2928235725291348E10 ; 0.0
123 ; 1616851.8949551668 ; 2.0208116942481682E8 ; 1.768625768667988E8 ; 2.3130303049134098E10 ; 0.0
124 ; 1616628.9713841549 ; 2.02094987487652E8 ; 1.7847942876175395E8 ; 2.3332384218558914E10 ; 0.0
125 ; 1615514.4930380185 ; 2.02108777621693E8 ; 1.800960577331381E8 ; 2.3534479206046566E10 ; 0.0
126 ; 1614615.4022563035 ; 2.0212253942263508E8 ; 1.8171157222617614E8 ; 2.373658798366826E10 ; 0.0
127 ; 1614272.9136874764 ; 2.0213627249124947E8 ; 1.8332618762843245E8 ; 2.3938710523090893E10 ; 0.0
128 ; 1609886.2328342407 ; 2.0214997643321127E8 ; 1.8494046054211992E8 ; 2.414084679558214E10 ; 0.0
129 ; 1608024.418396757 ; 2.0216365085893574E8 ; 1.8655034677495417E8 ; 2.4342996772015354E10 ; 0.0
130 ; 1606543.0053569358 ; 2.021772953834225E8 ; 1.8815837119335094E8 ; 2.454516042287429E10 ; 0.0
131 ; 1601405.0211067551 ; 2.021909096261071E8 ; 1.8976491419870788E8 ; 2.4747337718257713E10 ; 0.0
132 ; 1597833.8334375836 ; 2.0220449321071982E8 ; 1.9136631921981463E8 ; 2.494952862788382E10 ; 0.0
133 ; 1591605.974390705 ; 2.022180457651509E8 ; 1.9296415305325222E8 ; 2.515173312109454E10 ; 0.0
134 ; 1587562.561379984 ; 2.0223156692132235E8 ; 1.9455575902764294E8 ; 2.535395116685969E10 ; 0.0
135 ; 1585083.5971747842 ; 2.0224505631506556E8 ; 1.9614332158902293E8 ; 2.5556182733781013E10 ; 0.0
136 ; 1581732.783365837 ; 2.0225851358600485E8 ; 1.9772840518619773E8 ; 2.575842779009608E10 ; 0.0
137 ; 1576267.9133380696 ; 2.0227193837744614E8 ; 1.9931013796956357E8 ; 2.5960686303682087E10 ; 0.0
138 ; 1571160.4237408333 ; 2.0228533033627084E8 ; 2.0088640588290164E8 ; 2.6162958242059532E10 ; 0.0
139 ; 1567492.699917037 ; 2.0229868911283478E8 ; 2.0245756630664247E8 ; 2.63652435723958E10 ; 0.0
140 ; 1562718.3203003393 ; 2.0231201436087146E8 ; 2.0402505900655952E8 ; 2.6567542261508636E10 ; 0.0
141 ; 1557563.6272219138 ; 2.0232530573739988E8 ; 2.0558777732685986E8 ; 2.6769854275869507E10 ; 0.0
142 ; 1552836.0949167225 ; 2.0233856290263653E8 ; 2.0714534095408177E8 ; 2.6972179581606907E10 ; 0.0
143 ; 1548334.9010889558 ; 2.023517855199112E8 ; 2.086981770489985E8 ; 2.7174518144509544E10 ; 0.0
144 ; 1543863.4741897075 ; 2.0236497325558674E8 ; 2.1024651195008746E8 ; 2.7376869930029457E10 ; 0.0
145 ; 1542583.4531742833 ; 2.0237812577898225E8 ; 2.1179037542427716E8 ; 2.7579234903285046E10 ; 0.0
146 ; 1540625.0034207632 ; 2.023912427622997E8 ; 2.1333295887745145E8 ; 2.778161302906403E10 ; 0.0
147 ; 1539465.7771066336 ; 2.0240432388055387E8 ; 2.1487358388087222E8 ; 2.798400427182633E10 ; 0.0
148 ; 1537518.1444980507 ; 2.0241736881150538E8 ; 2.1641304965797886E8 ; 2.8186408595706882E10 ; 0.0
149 ; 1535990.6475893795 ; 2.0243037723559642E8 ; 2.179505678024769E8 ; 2.8388825964518387E10 ; 0.0
150 ; 1532469.9232202806 ; 2.024433488358897E8 ; 2.194865584500663E8 ; 2.8591256341753983E10 ; 0.0
151 ; 1531683.9683272098 ; 2.024562832980096E8 ; 2.2101902837328658E8 ; 2.879369969058987E10 ; 0.0
152 ; 1528251.253702096 ; 2.0246918031008625E8 ; 2.225507123416138E8 ; 2.899615597388788E10 ; 0.0
153 ; 1527032.2789115282 ; 2.024820395627018E8 ; 2.240789635953159E8 ; 2.9198625154197964E10 ; 0.0
154 ; 1525430.4181715485 ; 2.0249486074883902E8 ; 2.2560599587422743E8 ; 2.9401107193760666E10 ; 0.0
155 ; 1522321.8767207528 ; 2.0250764356383225E8 ; 2.27131426292399E8 ; 2.9603602054509506E10 ; 0.0
156 ; 1520432.7172292664 ; 2.0252038770532033E8 ; 2.2865374816911975E8 ; 2.9806109698073338E10 ; 0.0
157 ; 1518472.8827259028 ; 2.0253309287320152E8 ; 2.3017418088634902E8 ; 3.0008630085778656E10 ; 0.0
158 ; 1517095.3800187095 ; 2.0254575876959038E8 ; 2.3169265376907492E8 ; 3.021116317865186E10 ; 0.0
159 ; 1517169.5063857036 ; 2.0255838509877655E8 ; 2.3320974914909363E8 ; 3.0413708937421448E10 ; 0.0
160 ; 1512853.9793812325 ; 2.0257097156718504E8 ; 2.3472691865547934E8 ; 3.0616267322520226E10 ; 0.0
161 ; 1511126.4529773719 ; 2.025835178833386E8 ; 2.3623977263486058E8 ; 3.081883829408741E10 ; 0.0
162 ; 1508515.5801494336 ; 2.0259602375782117E8 ; 2.3775089908783793E8 ; 3.102142181197075E10 ; 0.0
163 ; 1508368.197731278 ; 2.0260848890324333E8 ; 2.3925941466798738E8 ; 3.122401783572857E10 ; 0.0
164 ; 1503612.6072695307 ; 2.026209130342089E8 ; 2.4076778286571866E8 ; 3.1426626324631813E10 ; 0.0
165 ; 1503458.7716329808 ; 2.02633295867283E8 ; 2.422713954729882E8 ; 3.1629247237666023E10 ; 0.0
166 ; 1501944.2564925095 ; 2.026456371209616E8 ; 2.4377485424462116E8 ; 3.1831880533533306E10 ; 0.0
167 ; 1500167.9123119682 ; 2.0265793651564217E8 ; 2.4527679850111365E8 ; 3.2034526170654266E10 ; 0.0
168 ; 1495721.6878696033 ; 2.026701937735955E8 ; 2.4677696641342562E8 ; 3.2237184107169907E10 ; 0.0
169 ; 1495666.1415855347 ; 2.02682408618939E8 ; 2.4827268810129523E8 ; 3.24398543009435E10 ; 0.0
170 ; 1493684.8645367944 ; 2.0269458077761078E8 ; 2.4976835424288076E8 ; 3.264253670956244E10 ; 0.0
171 ; 1490806.8568151316 ; 2.027067099773449E8 ; 2.5126203910741755E8 ; 3.284523129034005E10 ; 0.0
172 ; 1488555.8588825767 ; 2.027187959476478E8 ; 2.5275284596423268E8 ; 3.3047938000317394E10 ; 0.0
173 ; 1487126.907618011 ; 2.0273083841977558E8 ; 2.5424140182311526E8 ; 3.325065679626504E10 ; 0.0
174 ; 1486648.9869188776 ; 2.0274283712671217E8 ; 2.5572852873073328E8 ; 3.345338763468482E10 ; 0.0
175 ; 1483971.9718805915 ; 2.027547918031485E8 ; 2.5721517771765214E8 ; 3.365613047181153E10 ; 0.0
176 ; 1483140.9778171948 ; 2.027667021854626E8 ; 2.5869914968953273E8 ; 3.385888526361468E10 ; 0.0
177 ; 1480413.649693634 ; 2.0277856801170027E8 ; 2.6018229066734993E8 ; 3.4061651965800144E10 ; 0.0
178 ; 1480987.8586103946 ; 2.027903890215569E8 ; 2.6166270431704357E8 ; 3.4264430533811844E10 ; 0.0
179 ; 1477891.2568518876 ; 2.028021649563598E8 ; 2.6314369217565396E8 ; 3.4467220922833405E10 ; 0.0
180 ; 1479239.6034097401 ; 2.0281389555905128E8 ; 2.6462158343250585E8 ; 3.4670023087789764E10 ; 0.0
181 ; 1475678.184712349 ; 2.028255805741726E8 ; 2.6610082303591558E8 ; 3.4872836983348816E10 ; 0.0
182 ; 1475360.9175293397 ; 2.0283721974784833E8 ; 2.6757650122062793E8 ; 3.507566256392299E10 ; 0.0
183 ; 1472276.4096855507 ; 2.0284881282777175E8 ; 2.6905186213815725E8 ; 3.527849978367084E10 ; 0.0
184 ; 1471903.132156166 ; 2.028603595631904E8 ; 2.705241385478428E8 ; 3.548134859649861E10 ; 0.0
185 ; 1470359.5779882502 ; 2.028718597048926E8 ; 2.71996041679999E8 ; 3.56842089560618E10 ; 0.0
186 ; 1467829.3662130255 ; 2.028833130051944E8 ; 2.7346640125798726E8 ; 3.588708081576669E10 ; 0.0
187 ; 1466984.3857412513 ; 2.0289471921792698E8 ; 2.749342306242003E8 ; 3.608996412877189E10 ; 0.0
188 ; 1466687.7821690415 ; 2.0290607809842485E8 ; 2.764012150099415E8 ; 3.6292858847989815E10 ; 0.0
189 ; 1465423.5393368916 ; 2.029173894035143E8 ; 2.7786790279211056E8 ; 3.649576492608824E10 ; 0.0
190 ; 1463932.8416735935 ; 2.029286528915024E8 ; 2.793333263314475E8 ; 3.669868231549175E10 ; 0.0
191 ; 1462172.2963928278 ; 2.0293986832216665E8 ; 2.807972591731211E8 ; 3.6901610968383255E10 ; 0.0
192 ; 1460148.6668077493 ; 2.0295103545674482E8 ; 2.822594314695139E8 ; 3.710455083670542E10 ; 0.0
193 ; 1458665.6360876383 ; 2.0296215405792534E8 ; 2.8371958013632166E8 ; 3.730750187216216E10 ; 0.0
194 ; 1456426.8566833995 ; 2.0297322388983816E8 ; 2.851782457724093E8 ; 3.7510464026220085E10 ; 0.0
195 ; 1457780.7584577524 ; 2.0298424471804595E8 ; 2.866346726290927E8 ; 3.7713437250109924E10 ; 0.0
196 ; 1455964.8722335824 ; 2.029952163095357E8 ; 2.880924533875505E8 ; 3.791642149482797E10 ; 0.0
197 ; 1453092.3641263563 ; 2.0300613843271074E8 ; 2.8954841825978404E8 ; 3.8119416711137505E10 ; 0.0
198 ; 1451249.594520959 ; 2.0301701085738286E8 ; 2.910015106239104E8 ; 3.832242284957021E10 ; 0.0
199 ; 1450656.6588237858 ; 2.0302783335476527E8 ; 2.924527602184314E8 ; 3.85254398604276E10 ; 0.0
