CSV File for the City 3 on Day 85
1 - Minute m 
2 - Power Consumed at minute m 
3 - Power Produced at minute m 
4 - Energy Consumed since the beginning of the day 
5 - Energy Produced since the beginning of the day 
6 - Energy Lost since the beginning of the day on lines starting from the city
 
0 ; 2386598.5582888625 ; 1.0552316060757318E8 ; 0.0 ; 0.0 ; 0.0
1 ; 2387134.155040999 ; 1.056761025193842E8 ; 2386598.5582888625 ; 1.0552316060757318E8 ; 0.0
2 ; 2390528.862957536 ; 1.0613782680084732E8 ; 4773732.713329861 ; 2.111992631269574E8 ; 0.0
3 ; 2392016.072250713 ; 1.0690833500361878E8 ; 7164261.576287396 ; 3.173370899278047E8 ; 0.0
4 ; 2396898.930084115 ; 1.0798762851923239E8 ; 9556277.648538109 ; 4.242454249314235E8 ; 0.0
5 ; 2399957.331640466 ; 1.0937570857106167E8 ; 1.1953176578622224E7 ; 5.322330534506559E8 ; 0.0
6 ; 2405124.6301979595 ; 1.1107257620711204E8 ; 1.4353133910262689E7 ; 6.416087620217175E8 ; 0.0
7 ; 2414217.7713925764 ; 1.1307823229374099E8 ; 1.6758258540460648E7 ; 7.526813382288296E8 ; 0.0
8 ; 2426157.8601834797 ; 1.1539267751039237E8 ; 1.9172476311853223E7 ; 8.657595705225706E8 ; 0.0
9 ; 2441957.9330039206 ; 1.180159123454197E8 ; 2.1598634172036704E7 ; 9.81152248032963E8 ; 0.0
10 ; 2467366.210638442 ; 1.2094793709305865E8 ; 2.4040592105040625E7 ; 1.0991681603783827E9 ; 0.0
11 ; 2511538.5090858033 ; 1.2418875185159257E8 ; 2.6507958315679066E7 ; 1.2201160974714413E9 ; 0.0
12 ; 2577323.0942607243 ; 1.2773835652273807E8 ; 2.901949682476487E7 ; 1.3443048493230338E9 ; 0.0
13 ; 2638516.81369244 ; 1.315967508122595E8 ; 3.1596819919025593E7 ; 1.4720432058457718E9 ; 0.0
14 ; 2647146.115085629 ; 1.3576393423180342E8 ; 3.4235336732718036E7 ; 1.6036399566580312E9 ; 0.0
15 ; 2649600.4727951908 ; 1.4023990610192585E8 ; 3.688248284780367E7 ; 1.7394038908898346E9 ; 0.0
16 ; 2651981.4801665694 ; 1.4502466555626944E8 ; 3.9532083320598856E7 ; 1.8796437969917605E9 ; 0.0
17 ; 2655206.287193361 ; 1.5011821154682866E8 ; 4.2184064800765425E7 ; 2.02466846254803E9 ; 0.0
18 ; 2658025.3160197795 ; 1.5552054285023004E8 ; 4.483927108795878E7 ; 2.1747866740948586E9 ; 0.0
19 ; 2662198.404627774 ; 1.6123165807493976E8 ; 4.7497296403978564E7 ; 2.330307216945089E9 ; 0.0
20 ; 2666000.3353554877 ; 1.6725155566930154E8 ; 5.015949480860634E7 ; 2.4915388750200286E9 ; 0.0
21 ; 2667278.334133631 ; 1.7358023393029812E8 ; 5.282549514396183E7 ; 2.65879043068933E9 ; 0.0
22 ; 2671721.059272461 ; 1.8021769101292646E8 ; 5.5492773478095464E7 ; 2.8323706646196284E9 ; 0.0
23 ; 2674088.1805146253 ; 1.8716392494007045E8 ; 5.8164494537367925E7 ; 3.012588355632555E9 ; 0.0
24 ; 2677032.5437850584 ; 1.944189336127566E8 ; 6.083858271788255E7 ; 3.1997522805726256E9 ; 0.0
25 ; 2680022.5981898275 ; 2.0067075571886116E8 ; 6.351561526166761E7 ; 3.3941712141853824E9 ; 0.0
26 ; 2682730.203382285 ; 2.0067293678068593E8 ; 6.619563785985744E7 ; 3.5948419699042435E9 ; 0.0
27 ; 2686539.229198482 ; 2.0067524369059327E8 ; 6.887836806323972E7 ; 3.7955149066849294E9 ; 0.0
28 ; 2689819.6037182272 ; 2.006776739684606E8 ; 7.156490729243821E7 ; 3.9961901503755226E9 ; 0.0
29 ; 2693269.9955571285 ; 2.006802250654682E8 ; 7.425472689615643E7 ; 4.196867824343983E9 ; 0.0
30 ; 2695559.887973725 ; 2.0068289437441814E8 ; 7.694799689171356E7 ; 4.3975480494094515E9 ; 0.0
31 ; 2698204.2646520794 ; 2.00685679239757E8 ; 7.964355677968729E7 ; 4.59823094378387E9 ; 0.0
32 ; 2700777.5095218536 ; 2.0068857696723807E8 ; 8.234176104433936E7 ; 4.798916623023626E9 ; 0.0
33 ; 2702472.0897305333 ; 2.006915848331699E8 ; 8.504253855386122E7 ; 4.999605199990865E9 ; 0.0
34 ; 2707003.517866341 ; 2.0069470009320685E8 ; 8.774501064359175E7 ; 5.200296784824035E9 ; 0.0
35 ; 2709072.151923823 ; 2.006979199906473E8 ; 9.045201416145809E7 ; 5.400991484917241E9 ; 0.0
36 ; 2712427.2246842543 ; 2.0070124176421446E8 ; 9.316108631338191E7 ; 5.601689404907888E9 ; 0.0
37 ; 2714194.2556120004 ; 2.0070466265530244E8 ; 9.587351353806616E7 ; 5.802390646672103E9 ; 0.0
38 ; 2715987.7057746155 ; 2.007081799146782E8 ; 9.858770779367816E7 ; 6.003095309327405E9 ; 0.0
39 ; 2717919.141853956 ; 2.0071179080863774E8 ; 1.0130369549945278E8 ; 6.203803489242084E9 ; 0.0
40 ; 2721685.39664227 ; 2.0071549262461975E8 ; 1.0402161464130674E8 ; 6.404515280050721E9 ; 0.0
41 ; 2722074.735591596 ; 2.0071928267628643E8 ; 1.0674330003794901E8 ; 6.605230772675341E9 ; 0.0
42 ; 2724888.7443572883 ; 2.0072315830808482E8 ; 1.094653747735406E8 ; 6.805950055351627E9 ; 0.0
43 ; 2726445.807475122 ; 2.0072711689930692E8 ; 1.1219026351789789E8 ; 7.006673213659712E9 ; 0.0
44 ; 2728401.302307007 ; 2.007311558676689E8 ; 1.1491670932537301E8 ; 7.207400330559019E9 ; 0.0
45 ; 2729360.3418685887 ; 2.007352726724322E8 ; 1.1764511062768002E8 ; 7.408131486426688E9 ; 0.0
46 ; 2729018.2090110322 ; 2.0073946481709224E8 ; 1.2037447096954861E8 ; 7.60886675909912E9 ; 0.0
47 ; 2731670.929881961 ; 2.0074372985165972E8 ; 1.2310348917855965E8 ; 7.809606223916212E9 ; 0.0
48 ; 2734351.183832992 ; 2.007480653745624E8 ; 1.258351601084416E8 ; 8.010349953767872E9 ; 0.0
49 ; 2733727.3650961295 ; 2.007524690341936E8 ; 1.285695112922746E8 ; 8.211098019142434E9 ; 0.0
50 ; 2736524.1033982667 ; 2.0075693853013465E8 ; 1.3130323865737072E8 ; 8.411850488176628E9 ; 0.0
51 ; 2736988.0812960668 ; 2.0076147161407802E8 ; 1.3403976276076898E8 ; 8.612607426706762E9 ; 0.0
52 ; 2737339.1316618915 ; 2.0076606609047693E8 ; 1.3677675084206504E8 ; 8.81336889832084E9 ; 0.0
53 ; 2737694.957286734 ; 2.0077071981694648E8 ; 1.3951408997372693E8 ; 9.014134964411318E9 ; 0.0
54 ; 2739003.635703003 ; 2.0077543070444027E8 ; 1.4225178493101367E8 ; 9.214905684228264E9 ; 0.0
55 ; 2740081.7014370626 ; 2.007801967172254E8 ; 1.4499078856671667E8 ; 9.415681114932705E9 ; 0.0
56 ; 2740746.821196805 ; 2.0078501587267765E8 ; 1.4773087026815373E8 ; 9.616461311649931E9 ; 0.0
57 ; 2739597.817515376 ; 2.0078988624091703E8 ; 1.5047161708935052E8 ; 9.817246327522608E9 ; 0.0
58 ; 2741429.271247927 ; 2.0079480594430238E8 ; 1.532112149068659E8 ; 1.0018036213763525E10 ; 0.0
59 ; 2742615.350023671 ; 2.0079977315680364E8 ; 1.5595264417811382E8 ; 1.0218831019707827E10 ; 0.0
60 ; 2742152.924998939 ; 2.0080478610326695E8 ; 1.5869525952813748E8 ; 1.041963079286463E10 ; 0.0
61 ; 2743434.419260656 ; 2.0080984305858862E8 ; 1.614374124531364E8 ; 1.0620435578967897E10 ; 0.0
62 ; 2744899.0440031686 ; 2.0081494234681147E8 ; 1.6418084687239707E8 ; 1.0821245422026485E10 ; 0.0
63 ; 2744958.1895599216 ; 2.008200823401559E8 ; 1.6692574591640022E8 ; 1.1022060364373297E10 ; 0.0
64 ; 2745306.4096779004 ; 2.0082526145799774E8 ; 1.6967070410596013E8 ; 1.1222880446713453E10 ; 0.0
65 ; 2746711.5117417905 ; 2.008304781658027E8 ; 1.7241601051563802E8 ; 1.1423705708171452E10 ; 0.0
66 ; 2747284.6526772073 ; 2.0083573097402725E8 ; 1.751627220273798E8 ; 1.1624536186337254E10 ; 0.0
67 ; 2748907.7215978256 ; 2.0084101843699405E8 ; 1.7791000668005702E8 ; 1.1825371917311281E10 ; 0.0
68 ; 2745926.1228011353 ; 2.0084633915174967E8 ; 1.8065891440165484E8 ; 1.2026212935748276E10 ; 0.0
69 ; 2748349.714342005 ; 2.008516917569111E8 ; 1.8340484052445596E8 ; 1.2227059274900026E10 ; 0.0
70 ; 2747989.6079243887 ; 2.0085707493150714E8 ; 1.8615319023879796E8 ; 1.2427910966656937E10 ; 0.0
71 ; 2748584.8333770004 ; 2.0086248739381984E8 ; 1.8890117984672236E8 ; 1.2628768041588444E10 ; 0.0
72 ; 2748273.1263397085 ; 2.0086792790023038E8 ; 1.9164976468009937E8 ; 1.2829630528982264E10 ; 0.0
73 ; 2748631.5610175882 ; 2.008733952440739E8 ; 1.9439803780643907E8 ; 1.3030498456882494E10 ; 0.0
74 ; 2750180.1816088622 ; 2.00878888254506E8 ; 1.9714666936745667E8 ; 1.3231371852126568E10 ; 0.0
75 ; 2750186.05619922 ; 2.008844057953846E8 ; 1.9989684954906553E8 ; 1.3432250740381073E10 ; 0.0
76 ; 2749188.592651373 ; 2.0088994676416904E8 ; 2.0264703560526475E8 ; 1.3633135146176458E10 ; 0.0
77 ; 2752049.681106539 ; 2.0089551009083906E8 ; 2.0539622419791612E8 ; 1.3834025092940628E10 ; 0.0
78 ; 2749356.2126168287 ; 2.0090109473683503E8 ; 2.0814827387902266E8 ; 1.4034920603031467E10 ; 0.0
79 ; 2748773.567341402 ; 2.0090669969402128E8 ; 2.108976300916395E8 ; 1.4235821697768303E10 ; 0.0
80 ; 2746825.532603054 ; 2.0091232398367316E8 ; 2.136464036589809E8 ; 1.4436728397462324E10 ; 0.0
81 ; 2747087.6010247087 ; 2.0091796665548918E8 ; 2.1639322919158396E8 ; 1.4637640721445997E10 ; 0.0
82 ; 2749022.9247149476 ; 2.0092362678662893E8 ; 2.1914031679260868E8 ; 1.4838558688101486E10 ; 0.0
83 ; 2745318.9252869706 ; 2.0092930348077676E8 ; 2.2188933971732363E8 ; 1.5039482314888115E10 ; 0.0
84 ; 2744981.8186921235 ; 2.00934995867232E8 ; 2.246346586426106E8 ; 1.524041161836889E10 ; 0.0
85 ; 2745059.9600385227 ; 2.009407031000259E8 ; 2.2737964046130273E8 ; 1.5441346614236122E10 ; 0.0
86 ; 2745501.6983622867 ; 2.009464243570648E8 ; 2.3012470042134124E8 ; 1.5642287317336147E10 ; 0.0
87 ; 2743369.1758703734 ; 2.009521588393E8 ; 2.3287020211970353E8 ; 1.5843233741693213E10 ; 0.0
88 ; 2742134.845907332 ; 2.0095790576992378E8 ; 2.356135712955739E8 ; 1.6044185900532513E10 ; 0.0
89 ; 2742227.418596868 ; 2.0096366439359155E8 ; 2.3835570614148122E8 ; 1.6245143806302437E10 ; 0.0
90 ; 2740778.2134319814 ; 2.009694339756693E8 ; 2.4109793356007808E8 ; 1.6446107470696028E10 ; 0.0
91 ; 2738106.7996050958 ; 2.009752138015067E8 ; 2.4383871177351007E8 ; 1.6647076904671698E10 ; 0.0
92 ; 2739803.7430804144 ; 2.0098100317573446E8 ; 2.4657681857311517E8 ; 1.6848052118473204E10 ; 0.0
93 ; 2739170.2180457143 ; 2.0098680142158625E8 ; 2.4931662231619558E8 ; 1.7049033121648937E10 ; 0.0
94 ; 2736261.541030581 ; 2.009926078802442E8 ; 2.520557925342413E8 ; 1.7250019923070522E10 ; 0.0
95 ; 2736364.9932458433 ; 2.0099842191020733E8 ; 2.5479205407527187E8 ; 1.7451012530950768E10 ; 0.0
96 ; 2735765.301116138 ; 2.010042428866827E8 ; 2.575284190685177E8 ; 1.7652010952860973E10 ; 0.0
97 ; 2734530.21542045 ; 2.010100702009983E8 ; 2.6026418436963385E8 ; 1.7853015195747658E10 ; 0.0
98 ; 2733348.6133008464 ; 2.010159032600374E8 ; 2.629987145850543E8 ; 1.8054025265948654E10 ; 0.0
99 ; 2732314.986310488 ; 2.010217414856932E8 ; 2.6573206319835517E8 ; 1.825504116920869E10 ; 0.0
100 ; 2731165.7306878245 ; 2.0102758431434387E8 ; 2.684643781846657E8 ; 1.8456062910694386E10 ; 0.0
101 ; 2729623.2690255055 ; 2.0103343119634682E8 ; 2.711955439153535E8 ; 1.8657090495008728E10 ; 0.0
102 ; 2730448.0369379953 ; 2.0103928159555164E8 ; 2.73925167184379E8 ; 1.8858123926205074E10 ; 0.0
103 ; 2727378.4904766018 ; 2.0104513498883128E8 ; 2.76655615221317E8 ; 1.9059163207800625E10 ; 0.0
104 ; 2724619.9899922106 ; 2.0105099086563087E8 ; 2.793829937117936E8 ; 1.9260208342789455E10 ; 0.0
105 ; 2725917.0912659084 ; 2.0105684872753328E8 ; 2.821076137017858E8 ; 1.9461259333655087E10 ; 0.0
106 ; 2723443.4396803975 ; 2.0106270808784112E8 ; 2.848335307930517E8 ; 1.9662316182382618E10 ; 0.0
107 ; 2720970.9643327664 ; 2.010685684711746E8 ; 2.875569742327321E8 ; 1.986337889047046E10 ; 0.0
108 ; 2721735.743309867 ; 2.010744294130843E8 ; 2.902779451970649E8 ; 2.0064447458941635E10 ; 0.0
109 ; 2719036.113549846 ; 2.01080290459679E8 ; 2.9299968094037473E8 ; 2.026552188835472E10 ; 0.0
110 ; 2717923.4530232307 ; 2.0108615116726732E8 ; 2.9571871705392456E8 ; 2.04666021788144E10 ; 0.0
111 ; 2717734.1458879835 ; 2.0109201110201305E8 ; 2.984366405069478E8 ; 2.0667688329981667E10 ; 0.0
112 ; 2715300.0165649564 ; 2.0109786983960354E8 ; 3.011543746528358E8 ; 2.086878034108368E10 ; 0.0
113 ; 2713697.5211829 ; 2.0110372696493077E8 ; 3.0386967466940075E8 ; 2.1069878210923283E10 ; 0.0
114 ; 2711626.032143761 ; 2.0110958207178447E8 ; 3.0658337219058365E8 ; 2.1270981937888214E10 ; 0.0
115 ; 2711266.2656863704 ; 2.0111543476255682E8 ; 3.092949982227274E8 ; 2.147209151996E10 ; 0.0
116 ; 2710165.308951778 ; 2.0112128464795858E8 ; 3.120062644884138E8 ; 2.1673206954722557E10 ; 0.0
117 ; 2708069.421931815 ; 2.011271313467457E8 ; 3.147164297973656E8 ; 2.1874328239370514E10 ; 0.0
118 ; 2705498.102829363 ; 2.0113297448545665E8 ; 3.174244992192974E8 ; 2.207545537071726E10 ; 0.0
119 ; 2703895.4993360266 ; 2.0113881369815925E8 ; 3.2012999732212675E8 ; 2.2276588345202717E10 ; 0.0
120 ; 2703648.301883816 ; 2.0114464862620762E8 ; 3.2283389282146275E8 ; 2.2477727158900875E10 ; 0.0
121 ; 2701168.0994978305 ; 2.011504789180078E8 ; 3.2553754112334657E8 ; 2.2678871807527084E10 ; 0.0
122 ; 2700753.4979019184 ; 2.0115630422879258E8 ; 3.282387092228444E8 ; 2.288002228644509E10 ; 0.0
123 ; 2697863.5515942583 ; 2.0116212422040468E8 ; 3.3093946272074634E8 ; 2.3081178590673885E10 ; 0.0
124 ; 2696422.3724337304 ; 2.0116793856108806E8 ; 3.336373262723406E8 ; 2.328234071489429E10 ; 0.0
125 ; 2694558.4824728277 ; 2.011737469252871E8 ; 3.363337486447743E8 ; 2.348350865345538E10 ; 0.0
126 ; 2693122.809993522 ; 2.0117954899345332E8 ; 3.3902830712724715E8 ; 2.3684682400380665E10 ; 0.0
127 ; 2690537.7873989237 ; 2.011853444518594E8 ; 3.4172142993724066E8 ; 2.388586194937412E10 ; 0.0
128 ; 2689014.8771694363 ; 2.0119113299241996E8 ; 3.444119677246396E8 ; 2.4087047293825977E10 ; 0.0
129 ; 2687192.3239857354 ; 2.0119691431251916E8 ; 3.47100982601809E8 ; 2.4288238426818398E10 ; 0.0
130 ; 2685751.420750667 ; 2.012026881148447E8 ; 3.497881749257948E8 ; 2.4489435341130917E10 ; 0.0
131 ; 2683141.888860424 ; 2.01208454107228E8 ; 3.5247392634654546E8 ; 2.469063802924576E10 ; 0.0
132 ; 2680301.0420805654 ; 2.0121421200249007E8 ; 3.5515706823540586E8 ; 2.489184648335299E10 ; 0.0
133 ; 2677625.1400775076 ; 2.0121996151829347E8 ; 3.5783736927748644E8 ; 2.509306069535548E10 ; 0.0
134 ; 2673222.290796777 ; 2.0122570237699926E8 ; 3.60514994417564E8 ; 2.5294280656873775E10 ; 0.0
135 ; 2671229.2017432367 ; 2.0123143430552962E8 ; 3.6318821670836073E8 ; 2.5495506359250774E10 ; 0.0
136 ; 2669224.71214855 ; 2.0123715703523526E8 ; 3.65859445910104E8 ; 2.5696737793556305E10 ; 0.0
137 ; 2666699.980144717 ; 2.0124287030176765E8 ; 3.685286706222525E8 ; 2.589797495059154E10 ; 0.0
138 ; 2664230.104319189 ; 2.0124857384495607E8 ; 3.7119537060239726E8 ; 2.609921782089331E10 ; 0.0
139 ; 2660850.3036443815 ; 2.01254267408689E8 ; 3.738596007067165E8 ; 2.6300466394738266E10 ; 0.0
140 ; 2657642.317302117 ; 2.0125995074079984E8 ; 3.7652045101036084E8 ; 2.6501720662146954E10 ; 0.0
141 ; 2655982.3189102346 ; 2.0126562359295678E8 ; 3.7917809332766294E8 ; 2.6702980612887753E10 ; 0.0
142 ; 2652939.060297458 ; 2.0127128572055656E8 ; 3.818340756465732E8 ; 2.690424623648071E10 ; 0.0
143 ; 2647895.8824236663 ; 2.0127693688262215E8 ; 3.844870147068706E8 ; 2.7105517522201267E10 ; 0.0
144 ; 2647061.203262185 ; 2.0128257684170404E8 ; 3.8713491058929425E8 ; 2.730679445908389E10 ; 0.0
145 ; 2644273.2149373055 ; 2.0128820536378503E8 ; 3.8978197179255646E8 ; 2.7508077035925594E10 ; 0.0
146 ; 2642243.3831831026 ; 2.012938222181884E8 ; 3.924262450074938E8 ; 2.770936524128938E10 ; 0.0
147 ; 2640883.5662682443 ; 2.0129942717748946E8 ; 3.950684883906769E8 ; 2.791065906350757E10 ; 0.0
148 ; 2638919.6473792824 ; 2.0130502001743007E8 ; 3.977093719569452E8 ; 2.811195849068506E10 ; 0.0
149 ; 2636656.849113373 ; 2.0131060051683626E8 ; 4.0034829160432446E8 ; 2.8313263510702488E10 ; 0.0
150 ; 2635291.425516564 ; 2.0131616845753872E8 ; 4.029849484534378E8 ; 2.8514574111219326E10 ; 0.0
151 ; 2634267.0316611463 ; 2.0132172362429613E8 ; 4.0562023987895435E8 ; 2.8715890279676865E10 ; 0.0
152 ; 2630899.500499522 ; 2.0132726580472106E8 ; 4.082545069106155E8 ; 2.891721200330116E10 ; 0.0
153 ; 2628573.0337387137 ; 2.013327947892086E8 ; 4.1088540641111505E8 ; 2.911853926910588E10 ; 0.0
154 ; 2625946.9360789787 ; 2.0133831037086728E8 ; 4.135139794448538E8 ; 2.931987206389509E10 ; 0.0
155 ; 2624607.9893589774 ; 2.0134381234545264E8 ; 4.1613992638093275E8 ; 2.9521210374265957E10 ; 0.0
156 ; 2624243.598437895 ; 2.013493005113028E8 ; 4.187645343702917E8 ; 2.972255418661141E10 ; 0.0
157 ; 2620223.0184114394 ; 2.0135477466927642E8 ; 4.213887779687296E8 ; 2.992390348712271E10 ; 0.0
158 ; 2618821.782031851 ; 2.0136023462269288E8 ; 4.240090009871411E8 ; 3.012525826179199E10 ; 0.0
159 ; 2617539.80466323 ; 2.013656801772742E8 ; 4.266278227691729E8 ; 3.032661849641468E10 ; 0.0
160 ; 2615313.419681053 ; 2.0137111114108926E8 ; 4.2924536257383615E8 ; 3.0527984176591953E10 ; 0.0
161 ; 2612075.3607800705 ; 2.013765273244998E8 ; 4.318606759935172E8 ; 3.0729355287733044E10 ; 0.0
162 ; 2609487.26547331 ; 2.0138192854010808E8 ; 4.344727513542973E8 ; 3.0930731815057545E10 ; 0.0
163 ; 2608047.0574719026 ; 2.0138731460270667E8 ; 4.370822386197706E8 ; 3.1132113743597652E10 ; 0.0
164 ; 2606949.7315233895 ; 2.0139268532922956E8 ; 4.396902856772425E8 ; 3.133350105820036E10 ; 0.0
165 ; 2603027.866951395 ; 2.013980405387052E8 ; 4.422972354087659E8 ; 3.153489374352959E10 ; 0.0
166 ; 2601089.772279385 ; 2.014033800522109E8 ; 4.449002632757173E8 ; 3.1736291784068295E10 ; 0.0
167 ; 2598660.7087623756 ; 2.014087036928289E8 ; 4.475013530479967E8 ; 3.1937695164120506E10 ; 0.0
168 ; 2598270.473587764 ; 2.0141401128560382E8 ; 4.5010001375675905E8 ; 3.2139103867813335E10 ; 0.0
169 ; 2596690.5327811097 ; 2.014193026575017E8 ; 4.526982842303468E8 ; 3.2340517879098938E10 ; 0.0
170 ; 2593009.5432402166 ; 2.0142457763736993E8 ; 4.552949747631279E8 ; 3.254193718175644E10 ; 0.0
171 ; 2590844.411840329 ; 2.014298360558992E8 ; 4.578879843063681E8 ; 3.274336175939381E10 ; 0.0
172 ; 2589129.5331373625 ; 2.014350777455861E8 ; 4.6047882871820843E8 ; 3.294479159544971E10 ; 0.0
173 ; 2587232.010655525 ; 2.0144030254069716E8 ; 4.630679582513458E8 ; 3.3146226673195297E10 ; 0.0
174 ; 2586033.7342510344 ; 2.0144551027723426E8 ; 4.6565519026200134E8 ; 3.3347666975735996E10 ; 0.0
175 ; 2582342.8415328646 ; 2.0145070079290083E8 ; 4.6824122399625236E8 ; 3.354911248601323E10 ; 0.0
176 ; 2582984.5170836123 ; 2.0145587392706943E8 ; 4.7082356683778524E8 ; 3.375056318680613E10 ; 0.0
177 ; 2581680.242768632 ; 2.014610295207502E8 ; 4.734065513548688E8 ; 3.39520190607332E10 ; 0.0
178 ; 2581834.759172828 ; 2.014661674165604E8 ; 4.759882315976375E8 ; 3.4153480090253952E10 ; 0.0
179 ; 2578241.9442736045 ; 2.0147128745869508E8 ; 4.7857006635681033E8 ; 3.4354946257670513E10 ; 0.0
180 ; 2579026.365328699 ; 2.0147638949289826E8 ; 4.811483083010839E8 ; 3.455641754512921E10 ; 0.0
181 ; 2576082.629472284 ; 2.0148147336643568E8 ; 4.837273346664126E8 ; 3.475789393462211E10 ; 0.0
182 ; 2576264.7345303055 ; 2.014865389280678E8 ; 4.8630341729588485E8 ; 3.495937540798854E10 ; 0.0
183 ; 2574115.9447751553 ; 2.014915860280241E8 ; 4.888796820304152E8 ; 3.516086194691661E10 ; 0.0
184 ; 2572284.686158305 ; 2.01496614517978E8 ; 4.9145379797519034E8 ; 3.536235353294463E10 ; 0.0
185 ; 2571488.6830828846 ; 2.015016242510226E8 ; 4.9402608266134864E8 ; 3.556385014746261E10 ; 0.0
186 ; 2569877.744119689 ; 2.0150661508164722E8 ; 4.965975713444315E8 ; 3.576535177171363E10 ; 0.0
187 ; 2568180.1499944404 ; 2.0151158686571467E8 ; 4.991674490885512E8 ; 3.596685838679528E10 ; 0.0
188 ; 2568445.2061157697 ; 2.0151653946043923E8 ; 5.0173562923854566E8 ; 3.6168369973660995E10 ; 0.0
189 ; 2566158.3840672863 ; 2.0152147272436547E8 ; 5.0430407444466144E8 ; 3.636988651312144E10 ; 0.0
190 ; 2565277.701120593 ; 2.0152638651734734E8 ; 5.0687023282872874E8 ; 3.65714079858458E10 ; 0.0
191 ; 2563477.2055059066 ; 2.015312807005285E8 ; 5.0943551052984935E8 ; 3.677293437236315E10 ; 0.0
192 ; 2561537.6475901394 ; 2.0153615513632268E8 ; 5.1199898773535526E8 ; 3.697446565306368E10 ; 0.0
193 ; 2561423.8733085943 ; 2.0154100968839508E8 ; 5.145605253829454E8 ; 3.7176001808200005E10 ; 0.0
194 ; 2558944.018677506 ; 2.0154584422164416E8 ; 5.17121949256254E8 ; 3.73775428178884E10 ; 0.0
195 ; 2556525.648221528 ; 2.015506586021841E8 ; 5.1968089327493155E8 ; 3.757908866211004E10 ; 0.0
196 ; 2557052.0397387254 ; 2.0155545269732752E8 ; 5.222374189231531E8 ; 3.778063932071222E10 ; 0.0
197 ; 2555084.8431842774 ; 2.0156022637556928E8 ; 5.247944709628918E8 ; 3.7982194773409546E10 ; 0.0
198 ; 2551821.4280950762 ; 2.0156497950657016E8 ; 5.273495558060761E8 ; 3.818375499978512E10 ; 0.0
199 ; 2551019.3850466902 ; 2.0156971196114153E8 ; 5.299013772341712E8 ; 3.838531997929169E10 ; 0.0
