CSV File for the City 6 on Day 232
1 - Minute m 
2 - Power Consumed at minute m 
3 - Power Produced at minute m 
4 - Energy Consumed since the beginning of the day 
5 - Energy Produced since the beginning of the day 
6 - Energy Lost since the beginning of the day on lines starting from the city
 
0 ; 1072795.42099194 ; 1.0533597584158763E8 ; 0.0 ; 0.0 ; 0.0
1 ; 1079226.0769313923 ; 1.0547933970324713E8 ; 1072795.42099194 ; 1.0533597584158763E8 ; 0.0
2 ; 1095820.792299547 ; 1.0593183364991221E8 ; 2152021.4979233323 ; 2.1081531554483476E8 ; 0.0
3 ; 1109808.2511171277 ; 1.0669356555641443E8 ; 3247842.2902228795 ; 3.16747149194747E8 ; 0.0
4 ; 1128211.0210278071 ; 1.0776466786735743E8 ; 4357650.541340007 ; 4.234407147511614E8 ; 0.0
5 ; 1144274.983454503 ; 1.0914530013462442E8 ; 5485861.562367815 ; 5.312053826185188E8 ; 0.0
6 ; 1175602.3314634084 ; 1.1083564841349164E8 ; 6630136.545822318 ; 6.403506827531433E8 ; 0.0
7 ; 1214245.7726152593 ; 1.1283591856589597E8 ; 7805738.877285726 ; 7.511863311666349E8 ; 0.0
8 ; 1264531.389460012 ; 1.151463202889036E8 ; 9019984.649900986 ; 8.640222497325308E8 ; 0.0
9 ; 1350098.0503350452 ; 1.17767040678653E8 ; 1.0284516039360998E7 ; 9.791685700214344E8 ; 0.0
10 ; 1474555.9128375077 ; 1.2069821140612733E8 ; 1.1634614089696044E7 ; 1.0969356107000875E9 ; 0.0
11 ; 1671223.5955780384 ; 1.2393988018482587E8 ; 1.3109170002533551E7 ; 1.217633822106215E9 ; 0.0
12 ; 1989612.9790782377 ; 1.274919993012493E8 ; 1.478039359811159E7 ; 1.341573702291041E9 ; 0.0
13 ; 2295314.099513314 ; 1.3135443708441448E8 ; 1.6770006577189827E7 ; 1.4690657015922902E9 ; 0.0
14 ; 2334248.7353690644 ; 1.35527006438183E8 ; 1.906532067670314E7 ; 1.6004201386767046E9 ; 0.0
15 ; 2349876.6599203013 ; 1.400094976654886E8 ; 2.1399569412072204E7 ; 1.7359471451148877E9 ; 0.0
16 ; 2367197.5409920546 ; 1.4480170490439448E8 ; 2.3749446071992505E7 ; 1.8759566427803764E9 ; 0.0
17 ; 2381439.102524118 ; 1.499034420996243E8 ; 2.611664361298456E7 ; 2.0207583476847708E9 ; 0.0
18 ; 2402537.6734158807 ; 1.5531454969929492E8 ; 2.8498082715508677E7 ; 2.170661789784395E9 ; 0.0
19 ; 2414878.5175437946 ; 1.6103489525880268E8 ; 3.0900620388924558E7 ; 2.3259763394836903E9 ; 0.0
20 ; 2431085.64550723 ; 1.67064370903316E8 ; 3.3315498906468354E7 ; 2.487011234742493E9 ; 0.0
21 ; 2446935.086900462 ; 1.7340288962812898E8 ; 3.5746584551975586E7 ; 2.654075605645809E9 ; 0.0
22 ; 2465899.5343530313 ; 1.8005038151754838E8 ; 3.819351963887605E7 ; 2.827478495273938E9 ; 0.0
23 ; 2479156.3681296185 ; 1.870067903652982E8 ; 4.065941917322908E7 ; 3.0075288767914867E9 ; 0.0
24 ; 2497357.2768703075 ; 1.9427207084792346E8 ; 4.31385755413587E7 ; 3.194535667156785E9 ; 0.0
25 ; 2512227.229343704 ; 2.0053422714233047E8 ; 4.563593281822901E7 ; 3.3888077380047083E9 ; 0.0
26 ; 2529402.266933556 ; 2.005467771582628E8 ; 4.814816004757272E7 ; 3.589341965147039E9 ; 0.0
27 ; 2543670.9451656505 ; 2.0055946564980796E8 ; 5.067756231450627E7 ; 3.7898887423053017E9 ; 0.0
28 ; 2560953.739713308 ; 2.0057227235960183E8 ; 5.322123325967192E7 ; 3.9904482079551096E9 ; 0.0
29 ; 2576033.1616907916 ; 2.005851804522845E8 ; 5.578218699938523E7 ; 4.1910204803147116E9 ; 0.0
30 ; 2588346.2931684437 ; 2.0059817584264922E8 ; 5.8358220161076024E7 ; 4.391605660766996E9 ; 0.0
31 ; 2604139.1192185585 ; 2.0061124666875032E8 ; 6.0946566454244465E7 ; 4.592203836609646E9 ; 0.0
32 ; 2619317.0729598887 ; 2.006243828767914E8 ; 6.355070557346302E7 ; 4.792815083278397E9 ; 0.0
33 ; 2635597.4390296545 ; 2.0063757589237788E8 ; 6.617002264642291E7 ; 4.993439466155188E9 ; 0.0
34 ; 2647406.6666823877 ; 2.006508183587222E8 ; 6.880562008545256E7 ; 5.194077042047565E9 ; 0.0
35 ; 2662760.5913532283 ; 2.0066410392697597E8 ; 7.145302675213495E7 ; 5.394727860406288E9 ; 0.0
36 ; 2675973.7135478575 ; 2.006774270873457E8 ; 7.411578734348817E7 ; 5.595391964333264E9 ; 0.0
37 ; 2693796.7287717927 ; 2.006907830322831E8 ; 7.679176105703603E7 ; 5.79606939142061E9 ; 0.0
38 ; 2698798.055959863 ; 2.007041675450378E8 ; 7.948555778580782E7 ; 5.996760174452893E9 ; 0.0
39 ; 2714397.1963401614 ; 2.0071757690837446E8 ; 8.218435584176768E7 ; 6.1974643419979315E9 ; 0.0
40 ; 2728473.955703695 ; 2.0073100782940987E8 ; 8.489875303810784E7 ; 6.398181918906306E9 ; 0.0
41 ; 2740025.7252981532 ; 2.0074445737740576E8 ; 8.762722699381153E7 ; 6.598912926735716E9 ; 0.0
42 ; 2748260.2942728726 ; 2.0075792293202975E8 ; 9.036725271910968E7 ; 6.799657384113122E9 ; 0.0
43 ; 2758999.0633931705 ; 2.0077140214011815E8 ; 9.311551301338255E7 ; 7.000415307045152E9 ; 0.0
44 ; 2771499.684794608 ; 2.0078489287937814E8 ; 9.587451207677573E7 ; 7.20118670918527E9 ; 0.0
45 ; 2780873.73724707 ; 2.0079839322778195E8 ; 9.864601176157033E7 ; 7.401971602064649E9 ; 0.0
46 ; 2787928.2947664806 ; 2.0081190143765154E8 ; 1.014268854988174E8 ; 7.602769995292431E9 ; 0.0
47 ; 2798762.425025588 ; 2.008254159136259E8 ; 1.0421481379358388E8 ; 7.8035818967300825E9 ; 0.0
48 ; 2806345.7065672153 ; 2.0083893519385722E8 ; 1.0701357621860947E8 ; 8.004407312643708E9 ; 0.0
49 ; 2813055.349408099 ; 2.0085245793390217E8 ; 1.0981992192517668E8 ; 8.205246247837565E9 ; 0.0
50 ; 2820508.0004032366 ; 2.008659828928736E8 ; 1.1263297727458479E8 ; 8.406098705771467E9 ; 0.0
51 ; 2827758.8566868147 ; 2.0087950892149362E8 ; 1.1545348527498803E8 ; 8.606964688664341E9 ; 0.0
52 ; 2835427.7643278684 ; 2.0089303495175436E8 ; 1.1828124413167484E8 ; 8.807844197585835E9 ; 0.0
53 ; 2841593.5410228968 ; 2.009065599879404E8 ; 1.2111667189600271E8 ; 9.008737232537588E9 ; 0.0
54 ; 2844899.614475322 ; 2.009200830988111E8 ; 1.239582654370256E8 ; 9.209643792525528E9 ; 0.0
55 ; 2853761.345055563 ; 2.0093360341077226E8 ; 1.2680316505150093E8 ; 9.410563875624338E9 ; 0.0
56 ; 2857486.0617412017 ; 2.0094712010189587E8 ; 1.296569263965565E8 ; 9.61149747903511E9 ; 0.0
57 ; 2867070.077485438 ; 2.0096063239666766E8 ; 1.325144124582977E8 ; 9.812444599137007E9 ; 0.0
58 ; 2870653.4359529624 ; 2.0097413956136298E8 ; 1.3538148253578314E8 ; 1.0013405231533674E10 ; 0.0
59 ; 2878099.0880351285 ; 2.009876408999646E8 ; 1.382521359717361E8 ; 1.0214379371095037E10 ; 0.0
60 ; 2883727.630052661 ; 2.0100113575055113E8 ; 1.4113023505977124E8 ; 1.0415367011995003E10 ; 0.0
61 ; 2890699.4693912496 ; 2.010146234820938E8 ; 1.440139626898239E8 ; 1.0616368147745554E10 ; 0.0
62 ; 2892793.695572172 ; 2.0102810349160948E8 ; 1.4690466215921515E8 ; 1.0817382771227648E10 ; 0.0
63 ; 2901066.921649042 ; 2.0104157520162457E8 ; 1.4979745585478732E8 ; 1.1018410874719257E10 ; 0.0
64 ; 2904585.8858100604 ; 2.010550380579115E8 ; 1.5269852277643636E8 ; 1.1219452449920881E10 ; 0.0
65 ; 2911996.783206059 ; 2.0106849152746397E8 ; 1.556031086622464E8 ; 1.1420507487978792E10 ; 0.0
66 ; 2916943.2265395513 ; 2.0108193509668282E8 ; 1.5851510544545245E8 ; 1.1621575979506256E10 ; 0.0
67 ; 2918935.4548986573 ; 2.0109536826974723E8 ; 1.61432048671992E8 ; 1.182265791460294E10 ; 0.0
68 ; 2926409.8210358326 ; 2.0110879056714964E8 ; 1.6435098412689066E8 ; 1.2023753282872686E10 ; 0.0
69 ; 2933300.245362353 ; 2.0112220152437592E8 ; 1.672773939479265E8 ; 1.2224862073439837E10 ; 0.0
70 ; 2936854.536583955 ; 2.011356006907142E8 ; 1.7021069419328883E8 ; 1.2425984274964212E10 ; 0.0
71 ; 2940772.109030975 ; 2.011489876281781E8 ; 1.731475487298728E8 ; 1.2627119875654926E10 ; 0.0
72 ; 2944576.740303333 ; 2.011623619105317E8 ; 1.7608832083890375E8 ; 1.2828268863283104E10 ; 0.0
73 ; 2952180.086367194 ; 2.011757231224057E8 ; 1.790328975792071E8 ; 1.3029431225193636E10 ; 0.0
74 ; 2954523.4176547164 ; 2.0118907085849464E8 ; 1.8198507766557428E8 ; 1.3230606948316042E10 ; 0.0
75 ; 2960419.719983405 ; 2.012024047228268E8 ; 1.84939601083229E8 ; 1.3431796019174536E10 ; 0.0
76 ; 2965492.500721622 ; 2.0121572432809955E8 ; 1.879000208032124E8 ; 1.3632998423897362E10 ; 0.0
77 ; 2973500.711169484 ; 2.0122902929507312E8 ; 1.9086551330393404E8 ; 1.3834214148225462E10 ; 0.0
78 ; 2967260.167251616 ; 2.0124231925201714E8 ; 1.9383901401510352E8 ; 1.4035443177520535E10 ; 0.0
79 ; 2969002.771562014 ; 2.012555938342047E8 ; 1.9680627418235514E8 ; 1.4236685496772552E10 ; 0.0
80 ; 2969936.3242275966 ; 2.0126885268344927E8 ; 1.9977527695391715E8 ; 1.4437941090606758E10 ; 0.0
81 ; 2974029.2980674203 ; 2.0128209544768035E8 ; 2.0274521327814475E8 ; 1.4639209943290207E10 ; 0.0
82 ; 2974029.2151150596 ; 2.0129532178055423E8 ; 2.0571924257621217E8 ; 1.4840492038737886E10 ; 0.0
83 ; 2970532.6799128884 ; 2.0130853134109634E8 ; 2.0869327179132724E8 ; 1.504178736051844E10 ; 0.0
84 ; 2973157.050891711 ; 2.0132172379337266E8 ; 2.1166380447124013E8 ; 1.5243095891859537E10 ; 0.0
85 ; 2975240.4761754633 ; 2.0133489880618724E8 ; 2.1463696152213183E8 ; 1.544441761565291E10 ; 0.0
86 ; 2972046.073752975 ; 2.0134805605280346E8 ; 2.176122019983073E8 ; 1.5645752514459097E10 ; 0.0
87 ; 2970074.553241334 ; 2.0136119521068698E8 ; 2.2058424807206026E8 ; 1.58471005705119E10 ; 0.0
88 ; 2973217.4013575464 ; 2.013743159612688E8 ; 2.235543226253016E8 ; 1.6048461765722588E10 ; 0.0
89 ; 2970644.4442258193 ; 2.0138741798972592E8 ; 2.2652754002665913E8 ; 1.6249836081683857E10 ; 0.0
90 ; 2972833.05455004 ; 2.0140050098477885E8 ; 2.2949818447088495E8 ; 1.6451223499673582E10 ; 0.0
91 ; 2972397.5138645372 ; 2.0141356463850418E8 ; 2.32471017525435E8 ; 1.6652624000658361E10 ; 0.0
92 ; 2976028.4215468774 ; 2.014266086461608E8 ; 2.3544341503929955E8 ; 1.6854037565296865E10 ; 0.0
93 ; 2968800.756730092 ; 2.0143963270602918E8 ; 2.3841944346084642E8 ; 1.7055464173943026E10 ; 0.0
94 ; 2969242.135697976 ; 2.0145263651926196E8 ; 2.413882442175765E8 ; 1.7256903806649055E10 ; 0.0
95 ; 2970883.988259565 ; 2.0146561978974533E8 ; 2.443574863532745E8 ; 1.7458356443168316E10 ; 0.0
96 ; 2969315.8013124163 ; 2.014785822239706E8 ; 2.4732837034153405E8 ; 1.765982206295806E10 ; 0.0
97 ; 2967753.0266867243 ; 2.014915235309142E8 ; 2.5029768614284647E8 ; 1.7861300645182034E10 ; 0.0
98 ; 2964955.702563294 ; 2.0150444342192665E8 ; 2.532654391695332E8 ; 1.8062792168712948E10 ; 0.0
99 ; 2962679.345500128 ; 2.01517341610629E8 ; 2.5623039487209648E8 ; 1.8264296612134876E10 ; 0.0
100 ; 2964884.1749616554 ; 2.015302178128162E8 ; 2.5919307421759662E8 ; 1.8465813953745506E10 ; 0.0
101 ; 2959106.9696287937 ; 2.015430717463675E8 ; 2.6215795839255828E8 ; 1.8667344171558323E10 ; 0.0
102 ; 2958308.6328743375 ; 2.015559031311624E8 ; 2.6511706536218706E8 ; 1.886888724330469E10 ; 0.0
103 ; 2960132.895213374 ; 2.0156871168900266E8 ; 2.680753739950614E8 ; 1.9070443146435852E10 ; 0.0
104 ; 2955761.8404665 ; 2.015814971435394E8 ; 2.7103550689027476E8 ; 1.9272011858124855E10 ; 0.0
105 ; 2954463.551958829 ; 2.015942592202049E8 ; 2.7399126873074126E8 ; 1.9473593355268394E10 ; 0.0
106 ; 2954572.210459052 ; 2.0160699764614904E8 ; 2.7694573228270006E8 ; 1.9675187614488598E10 ; 0.0
107 ; 2952571.258489265 ; 2.0161971215017986E8 ; 2.799003044931591E8 ; 1.9876794612134747E10 ; 0.0
108 ; 2951841.135865111 ; 2.0163240246270806E8 ; 2.8285287575164837E8 ; 2.0078414324284927E10 ; 0.0
109 ; 2949444.9196884683 ; 2.0164506831569496E8 ; 2.8580471688751346E8 ; 2.0280046726747635E10 ; 0.0
110 ; 2947539.3398020808 ; 2.0165770944260386E8 ; 2.887541618072019E8 ; 2.048169179506333E10 ; 0.0
111 ; 2943446.4951036875 ; 2.016703255783547E8 ; 2.91701701147004E8 ; 2.0683349504505936E10 ; 0.0
112 ; 2945332.2804170433 ; 2.0168291645928133E8 ; 2.946451476421077E8 ; 2.088501983008429E10 ; 0.0
113 ; 2939899.8652092735 ; 2.016954818230917E8 ; 2.9759047992252475E8 ; 2.108670274654357E10 ; 0.0
114 ; 2939161.9295141776 ; 2.0170802140883052E8 ; 3.0053037978773403E8 ; 2.1288398228366665E10 ; 0.0
115 ; 2935662.4028077973 ; 2.0172053495684433E8 ; 3.034695417172482E8 ; 2.1490106249775494E10 ; 0.0
116 ; 2930574.961535338 ; 2.0173302220874873E8 ; 3.06405204120056E8 ; 2.1691826784732338E10 ; 0.0
117 ; 2930027.81578115 ; 2.0174548290739754E8 ; 3.093357790815913E8 ; 2.1893559806941086E10 ; 0.0
118 ; 2929149.1144369375 ; 2.0175791679685426E8 ; 3.122658068973725E8 ; 2.2095305289848484E10 ; 0.0
119 ; 2926556.0837207898 ; 2.017703236223649E8 ; 3.151949560118094E8 ; 2.229706320664534E10 ; 0.0
120 ; 2927924.327178385 ; 2.0178270313033292E8 ; 3.181215120955302E8 ; 2.2498833530267704E10 ; 0.0
121 ; 2917476.7190090893 ; 2.0179505506829533E8 ; 3.210494364227086E8 ; 2.2700616233398037E10 ; 0.0
122 ; 2917439.194413526 ; 2.018073791849007E8 ; 3.239669131417177E8 ; 2.290241128846633E10 ; 0.0
123 ; 2912437.218729156 ; 2.018196752298882E8 ; 3.268843523361312E8 ; 2.3104218667651234E10 ; 0.0
124 ; 2911254.3313672976 ; 2.018319429540683E8 ; 3.2979678955486035E8 ; 2.3306038342881123E10 ; 0.0
125 ; 2907356.741723631 ; 2.0184418210930425E8 ; 3.3270804388622767E8 ; 2.350787028583519E10 ; 0.0
126 ; 2904285.7818306144 ; 2.018563924484953E8 ; 3.356154006279513E8 ; 2.3709714467944492E10 ; 0.0
127 ; 2903258.4845605595 ; 2.0186857372556043E8 ; 3.3851968640978193E8 ; 2.3911570860392986E10 ; 0.0
128 ; 2899188.571222508 ; 2.0188072569542345E8 ; 3.414229448943425E8 ; 2.4113439434118546E10 ; 0.0
129 ; 2892444.4011378284 ; 2.0189284811399904E8 ; 3.4432213346556497E8 ; 2.431532015981397E10 ; 0.0
130 ; 2886353.5275662527 ; 2.019049407381795E8 ; 3.472145778667028E8 ; 2.4517213007927967E10 ; 0.0
131 ; 2881924.7730949204 ; 2.0191700332582265E8 ; 3.5010093139426905E8 ; 2.4719117948666145E10 ; 0.0
132 ; 2873494.1389198108 ; 2.0192903563574013E8 ; 3.5298285616736394E8 ; 2.4921034951991966E10 ; 0.0
133 ; 2866648.6016350905 ; 2.019410374276869E8 ; 3.558563503062838E8 ; 2.5122963987627705E10 ; 0.0
134 ; 2856246.078526665 ; 2.0195300846235117E8 ; 3.587229989079189E8 ; 2.5324905025055393E10 ; 0.0
135 ; 2852412.0426734798 ; 2.0196494850134507E8 ; 3.6157924498644555E8 ; 2.5526858033517746E10 ; 0.0
136 ; 2841462.8749631317 ; 2.0197685730719596E8 ; 3.64431657029119E8 ; 2.5728822982019093E10 ; 0.0
137 ; 2833552.922113825 ; 2.0198873464333838E8 ; 3.672731199040821E8 ; 2.593079983932629E10 ; 0.0
138 ; 2823370.612207839 ; 2.020005802741065E8 ; 3.7010667282619596E8 ; 2.6132788573969627E10 ; 0.0
139 ; 2817709.4485937953 ; 2.0201239396472716E8 ; 3.729300434384038E8 ; 2.6334789154243732E10 ; 0.0
140 ; 2808727.1741398424 ; 2.020241754813134E8 ; 3.757477528869976E8 ; 2.6536801548208458E10 ; 0.0
141 ; 2804772.5233685807 ; 2.0203592459085843E8 ; 3.7855648006113744E8 ; 2.673882572368977E10 ; 0.0
142 ; 2793066.38605857 ; 2.0204764106123015E8 ; 3.8136125258450603E8 ; 2.694086164828063E10 ; 0.0
143 ; 2783751.8837956437 ; 2.0205932466116595E8 ; 3.841543189705646E8 ; 2.7142909289341858E10 ; 0.0
144 ; 2779266.176653896 ; 2.0207097516026813E8 ; 3.869380708543602E8 ; 2.7344968614003025E10 ; 0.0
145 ; 2772576.593030777 ; 2.0208259232899943E8 ; 3.8971733703101414E8 ; 2.7547039589163292E10 ; 0.0
146 ; 2769057.8143000626 ; 2.0209417593867916E8 ; 3.924899136240449E8 ; 2.774912218149229E10 ; 0.0
147 ; 2764577.8059210093 ; 2.021057257614796E8 ; 3.9525897143834496E8 ; 2.795121635743097E10 ; 0.0
148 ; 2761209.241569783 ; 2.0211724157042262E8 ; 3.98023549244266E8 ; 2.8153322083192448E10 ; 0.0
149 ; 2757531.8846871397 ; 2.021287231393768E8 ; 4.0078475848583573E8 ; 2.835543932476287E10 ; 0.0
150 ; 2756456.725918524 ; 2.021401702430547E8 ; 4.0354229037052286E8 ; 2.855756804790225E10 ; 0.0
151 ; 2749178.3068995983 ; 2.0215158265701044E8 ; 4.062987470964414E8 ; 2.87597082181453E10 ; 0.0
152 ; 2743649.5670738057 ; 2.0216296015763757E8 ; 4.09047925403341E8 ; 2.896185980080231E10 ; 0.0
153 ; 2744775.3744082754 ; 2.0217430252216724E8 ; 4.117915749704148E8 ; 2.916402276095995E10 ; 0.0
154 ; 2740217.871550912 ; 2.021856095286664E8 ; 4.145363503448231E8 ; 2.9366197063482117E10 ; 0.0
155 ; 2733821.6905529522 ; 2.021968809560365E8 ; 4.1727656821637404E8 ; 2.9568382673010784E10 ; 0.0
156 ; 2730544.453168561 ; 2.0220811658401227E8 ; 4.20010389906927E8 ; 2.977057955396682E10 ; 0.0
157 ; 2724688.5772078233 ; 2.022193161931606E8 ; 4.2274093436009556E8 ; 2.997278767055083E10 ; 0.0
158 ; 2721318.7229442075 ; 2.022304795648798E8 ; 4.2546562293730336E8 ; 3.017500698674399E10 ; 0.0
159 ; 2716139.322815247 ; 2.0224160648139897E8 ; 4.2818694166024756E8 ; 3.0377237466308872E10 ; 0.0
160 ; 2713838.165532651 ; 2.0225269672577757E8 ; 4.309030809830628E8 ; 3.057947907279027E10 ; 0.0
161 ; 2708808.903624313 ; 2.0226375008190495E8 ; 4.3361691914859545E8 ; 3.078173176951605E10 ; 0.0
162 ; 2706320.8794751223 ; 2.0227476633450046E8 ; 4.3632572805221975E8 ; 3.0983995519597954E10 ; 0.0
163 ; 2699918.7753892234 ; 2.022857452691133E8 ; 4.3903204893169487E8 ; 3.1186270285932453E10 ; 0.0
164 ; 2696380.7931480054 ; 2.0229668667212266E8 ; 4.4173196770708406E8 ; 3.1388556031201565E10 ; 0.0
165 ; 2695122.355824436 ; 2.0230759033073807E8 ; 4.4442834850023204E8 ; 3.1590852717873688E10 ; 0.0
166 ; 2689629.973505454 ; 2.0231845603299984E8 ; 4.4712347085605645E8 ; 3.1793160308204426E10 ; 0.0
167 ; 2684699.2083540773 ; 2.0232928356777954E8 ; 4.498131008295619E8 ; 3.1995478764237427E10 ; 0.0
168 ; 2681173.9440606968 ; 2.023400727247806E8 ; 4.5249780003791595E8 ; 3.2197808047805206E10 ; 0.0
169 ; 2679038.7182692583 ; 2.023508232945392E8 ; 4.551789739819766E8 ; 3.2400148120529987E10 ; 0.0
170 ; 2674409.924792614 ; 2.023615350684251E8 ; 4.5785801270024586E8 ; 3.2602498943824528E10 ; 0.0
171 ; 2669812.181673744 ; 2.0237220783864245E8 ; 4.6053242262503844E8 ; 3.2804860478892952E10 ; 0.0
172 ; 2662773.348141926 ; 2.0238284139823115E8 ; 4.632022348067122E8 ; 3.3007232686731594E10 ; 0.0
173 ; 2660553.9095788486 ; 2.023934355410677E8 ; 4.658650081548541E8 ; 3.3209615528129826E10 ; 0.0
174 ; 2658347.3499727375 ; 2.0240399006186658E8 ; 4.68525562064433E8 ; 3.3412008963670895E10 ; 0.0
175 ; 2656924.722351416 ; 2.024145047561816E8 ; 4.711839094144057E8 ; 3.361441295373276E10 ; 0.0
176 ; 2652561.486708171 ; 2.0242497942040718E8 ; 4.7384083413675714E8 ; 3.381682745848894E10 ; 0.0
177 ; 2646414.977938143 ; 2.0243541385177988E8 ; 4.764933956234653E8 ; 3.4019252437909348E10 ; 0.0
178 ; 2645447.584957343 ; 2.0244580784837997E8 ; 4.791398106014034E8 ; 3.4221687851761127E10 ; 0.0
179 ; 2644852.927342844 ; 2.0245616120913297E8 ; 4.817852581863608E8 ; 3.4424133659609505E10 ; 0.0
180 ; 2641170.0871851873 ; 2.0246647373381126E8 ; 4.844301111137036E8 ; 3.4626589820818634E10 ; 0.0
181 ; 2641019.055618422 ; 2.0247674522303596E8 ; 4.870712812008888E8 ; 3.4829056294552444E10 ; 0.0
182 ; 2633945.4491372486 ; 2.0248697547827858E8 ; 4.897123002565072E8 ; 3.503153303977548E10 ; 0.0
183 ; 2632407.2582147783 ; 2.0249716430186287E8 ; 4.923462457056445E8 ; 3.523402001525376E10 ; 0.0
184 ; 2630444.271943591 ; 2.0250731149696672E8 ; 4.9497865296385926E8 ; 3.5436517179555626E10 ; 0.0
185 ; 2629343.194227723 ; 2.025174168676241E8 ; 4.976090972358028E8 ; 3.563902449105259E10 ; 0.0
186 ; 2622718.4962023897 ; 2.02527480218727E8 ; 5.002384404300305E8 ; 3.584154190792021E10 ; 0.0
187 ; 2617544.856751064 ; 2.0253750135602748E8 ; 5.0286115892623293E8 ; 3.604406938813894E10 ; 0.0
188 ; 2619020.924041759 ; 2.0254748008613968E8 ; 5.05478703782984E8 ; 3.6246606889494965E10 ; 0.0
189 ; 2615630.169842855 ; 2.0255741621654198E8 ; 5.0809772470702577E8 ; 3.64491543695811E10 ; 0.0
190 ; 2612791.2460690853 ; 2.0256730955557907E8 ; 5.107133548768686E8 ; 3.6651711785797646E10 ; 0.0
191 ; 2608693.622061321 ; 2.0257715991246408E8 ; 5.133261461229377E8 ; 3.6854279095353226E10 ; 0.0
192 ; 2608318.491441115 ; 2.0258696709728098E8 ; 5.15934839744999E8 ; 3.7056856255265686E10 ; 0.0
193 ; 2603628.5324957813 ; 2.0259673092098647E8 ; 5.185431582364401E8 ; 3.725944322236297E10 ; 0.0
194 ; 2601213.6679828973 ; 2.0260645119541258E8 ; 5.211467867689359E8 ; 3.746203995328396E10 ; 0.0
195 ; 2598794.4094751203 ; 2.0261612773326868E8 ; 5.237480004369188E8 ; 3.766464640447937E10 ; 0.0
196 ; 2594120.6614071387 ; 2.0262576034814397E8 ; 5.2634679484639394E8 ; 3.786726253221264E10 ; 0.0
197 ; 2594981.1254367665 ; 2.0263534885450968E8 ; 5.2894091550780106E8 ; 3.806988829256078E10 ; 0.0
198 ; 2591008.8928782255 ; 2.026448930677215E8 ; 5.3153589663323784E8 ; 3.827252364141529E10 ; 0.0
199 ; 2588887.838088114 ; 2.0265439280402192E8 ; 5.341269055261161E8 ; 3.847516853448301E10 ; 0.0
