CSV File for the City 1 on Day 14
1 - Minute m 
2 - Power Consumed at minute m 
3 - Power Produced at minute m 
4 - Energy Consumed since the beginning of the day 
5 - Energy Produced since the beginning of the day 
6 - Energy Lost since the beginning of the day on lines starting from the city
 
0 ; 1.5984174310308063E7 ; 1.0525864925912324E8 ; 0.0 ; 0.0 ; 0.0
1 ; 1.6003575691416504E7 ; 1.0540979547483277E8 ; 1.5984174310308063E7 ; 1.0525864925912324E8 ; 0.0
2 ; 1.6015445912823446E7 ; 1.0586982353786412E8 ; 3.1987750001724567E7 ; 2.10668444733956E8 ; 0.0
3 ; 1.603936836180145E7 ; 1.0663875754263282E8 ; 4.800319591454801E7 ; 3.165382682718201E8 ; 0.0
4 ; 1.6060661336142149E7 ; 1.077166222578919E8 ; 6.4042564276349455E7 ; 4.2317702581445295E8 ; 0.0
5 ; 1.6090229616865404E7 ; 1.0910344241870767E8 ; 8.010322561249161E7 ; 5.3089364807234484E8 ; 0.0
6 ; 1.6131668010977184E7 ; 1.1079924181715968E8 ; 9.6193455229357E7 ; 6.399970904910525E8 ; 0.0
7 ; 1.6182066550838307E7 ; 1.1280404222723347E8 ; 1.1232512324033418E8 ; 7.507963323082122E8 ; 0.0
8 ; 1.6263167107710054E7 ; 1.1511786224126744E8 ; 1.2850718979117249E8 ; 8.636003745354457E8 ; 0.0
9 ; 1.6380673184140239E7 ; 1.1774071613584834E8 ; 1.4477035689888254E8 ; 9.787182367767131E8 ; 0.0
10 ; 1.6558707473876482E7 ; 1.2067261291074193E8 ; 1.6115103008302277E8 ; 1.0964589529125614E9 ; 0.0
11 ; 1.6845151906387024E7 ; 1.2391355564202121E8 ; 1.7770973755689925E8 ; 1.2171315658233032E9 ; 0.0
12 ; 1.7310031647798833E7 ; 1.2746354125361314E8 ; 1.9455488946328628E8 ; 1.3410451214653244E9 ; 0.0
13 ; 1.7752244905058827E7 ; 1.3132256074575198E8 ; 2.1186492111108512E8 ; 1.4685086627189376E9 ; 0.0
14 ; 1.780309391621382E7 ; 1.3549059984185106E8 ; 2.2961716601614395E8 ; 1.5998312234646897E9 ; 0.0
15 ; 1.7826415902663082E7 ; 1.3996763994957185E8 ; 2.4742025993235776E8 ; 1.7353218233065407E9 ; 0.0
16 ; 1.784894141946469E7 ; 1.4475365929492894E8 ; 2.6524667583502084E8 ; 1.8752894632561126E9 ; 0.0
17 ; 1.78678226514656E7 ; 1.498486340858427E8 ; 2.8309561725448555E8 ; 2.0200431225510416E9 ; 0.0
18 ; 1.78861713554048E7 ; 1.5525253958724684E8 ; 3.0096343990595114E8 ; 2.169891756636884E9 ; 0.0
19 ; 1.7914899488403864E7 ; 1.6096535103038833E8 ; 3.1884961126135594E8 ; 2.325144296224131E9 ; 0.0
20 ; 1.793047603214347E7 ; 1.669870443208516E8 ; 3.367645107497598E8 ; 2.4861096472545195E9 ; 0.0
21 ; 1.7954431009597205E7 ; 1.733175965438836E8 ; 3.5469498678190327E8 ; 2.6530966915753713E9 ; 0.0
22 ; 1.797473450710061E7 ; 1.7995698628803933E8 ; 3.7264941779150045E8 ; 2.826414288119255E9 ; 0.0
23 ; 1.799417896038334E7 ; 1.8690519381945622E8 ; 3.9062415229860103E8 ; 3.0063712744072943E9 ; 0.0
24 ; 1.8014910637632687E7 ; 1.941622011418656E8 ; 4.086183312589844E8 ; 3.1932764682267504E9 ; 0.0
25 ; 1.803576682704858E7 ; 2.0041603287310472E8 ; 4.2663324189661705E8 ; 3.387438669368616E9 ; 0.0
26 ; 1.8058900415194143E7 ; 2.0042022220606962E8 ; 4.4466900872366565E8 ; 3.5878547022417207E9 ; 0.0
27 ; 1.807714270726012E7 ; 2.0042452532489195E8 ; 4.627279091388598E8 ; 3.78827492444779E9 ; 0.0
28 ; 1.809876973250238E7 ; 2.0042893052609444E8 ; 4.8080505184611994E8 ; 3.988699449772682E9 ; 0.0
29 ; 1.8120572686815284E7 ; 2.004334273804855E8 ; 4.9890382157862234E8 ; 4.1891283802987766E9 ; 0.0
30 ; 1.8136338100014564E7 ; 2.004380066034904E8 ; 5.170243942654376E8 ; 4.389561807679262E9 ; 0.0
31 ; 1.8153579478639703E7 ; 2.0044265993177557E8 ; 5.351607323654522E8 ; 4.589999814282753E9 ; 0.0
32 ; 1.817091005461591E7 ; 2.0044738000877145E8 ; 5.533143118440919E8 ; 4.790442474214529E9 ; 0.0
33 ; 1.8190492908242166E7 ; 2.004521602803141E8 ; 5.714852218987077E8 ; 4.990889854223301E9 ; 0.0
34 ; 1.821075660352558E7 ; 2.0045699490071365E8 ; 5.896757148069499E8 ; 5.191342014503615E9 ; 0.0
35 ; 1.822487994462252E7 ; 2.0046187864898345E8 ; 6.078864714104755E8 ; 5.391799009404329E9 ; 0.0
36 ; 1.824273764778915E7 ; 2.004668068546279E8 ; 6.26111351355098E8 ; 5.592260888053312E9 ; 0.0
37 ; 1.8259750852270253E7 ; 2.0047177533221102E8 ; 6.443540890028871E8 ; 5.79272769490794E9 ; 0.0
38 ; 1.8272729530849732E7 ; 2.004767803238594E8 ; 6.626138398551574E8 ; 5.99319947024015E9 ; 0.0
39 ; 1.8292370326832555E7 ; 2.004818184488492E8 ; 6.808865693860071E8 ; 6.19367625056401E9 ; 0.0
40 ; 1.8302224712937664E7 ; 2.004868866594648E8 ; 6.991789397128396E8 ; 6.394158069012859E9 ; 0.0
41 ; 1.831304952297632E7 ; 2.004919822023755E8 ; 7.174811644257773E8 ; 6.594644955672324E9 ; 0.0
42 ; 1.8326206868861657E7 ; 2.004971025848454E8 ; 7.357942139487536E8 ; 6.7951369378747E9 ; 0.0
43 ; 1.8338705142421722E7 ; 2.0050224554516417E8 ; 7.541204208176153E8 ; 6.995634040459545E9 ; 0.0
44 ; 1.8352477455926463E7 ; 2.0050740902675575E8 ; 7.72459125960037E8 ; 7.196136286004709E9 ; 0.0
45 ; 1.8358717319462057E7 ; 2.005125911554881E8 ; 7.908116034159634E8 ; 7.396643695031465E9 ; 0.0
46 ; 1.8371565251304127E7 ; 2.0051779021976718E8 ; 8.091703207354255E8 ; 7.597156286186953E9 ; 0.0
47 ; 1.837739623571254E7 ; 2.005230046530518E8 ; 8.275418859867296E8 ; 7.79767407640672E9 ; 0.0
48 ; 1.8386521199421052E7 ; 2.0052823301847455E8 ; 8.459192822224422E8 ; 7.998197081059772E9 ; 0.0
49 ; 1.8391377720865626E7 ; 2.005334739952951E8 ; 8.643058034218632E8 ; 8.198725314078246E9 ; 0.0
50 ; 1.840141235893341E7 ; 2.0053872636694995E8 ; 8.826971811427288E8 ; 8.399258788073542E9 ; 0.0
51 ; 1.8401815741529845E7 ; 2.0054398901049328E8 ; 9.010985935016623E8 ; 8.59979751444049E9 ; 0.0
52 ; 1.8405960331746615E7 ; 2.0054926088725272E8 ; 9.195004092431921E8 ; 8.800341503450985E9 ; 0.0
53 ; 1.8409935743666906E7 ; 2.00554541034546E8 ; 9.379063695749387E8 ; 9.000890764338238E9 ; 0.0
54 ; 1.842271414564132E7 ; 2.0055982855832663E8 ; 9.563163053186055E8 ; 9.201445305372784E9 ; 0.0
55 ; 1.841771735183028E7 ; 2.0056512262664327E8 ; 9.747390194642469E8 ; 9.40200513393111E9 ; 0.0
56 ; 1.8426432150106132E7 ; 2.0057042246381325E8 ; 9.931567368160771E8 ; 9.602570256557755E9 ; 0.0
57 ; 1.8429120826723192E7 ; 2.005757273452239E8 ; 1.0115831689661832E9 ; 9.803140679021568E9 ; 0.0
58 ; 1.843564070392581E7 ; 2.0058103659268653E8 ; 1.0300122897929064E9 ; 1.0003716406366793E10 ; 0.0
59 ; 1.8438376536053896E7 ; 2.005863495702774E8 ; 1.0484479304968323E9 ; 1.0204297442959478E10 ; 0.0
60 ; 1.844299214995228E7 ; 2.005916656806092E8 ; 1.0668863070328861E9 ; 1.0404883792529757E10 ; 0.0
61 ; 1.844578006981144E7 ; 2.0059698436148274E8 ; 1.0853292991828384E9 ; 1.0605475458210365E10 ; 0.0
62 ; 1.8447398126639333E7 ; 2.0060230508287585E8 ; 1.1037750792526498E9 ; 1.0806072442571848E10 ; 0.0
63 ; 1.8451630172860418E7 ; 2.006076273442313E8 ; 1.1222224773792892E9 ; 1.1006674747654724E10 ; 0.0
64 ; 1.8459383817894105E7 ; 2.0061295067201048E8 ; 1.1406741075521495E9 ; 1.1207282374998955E10 ; 0.0
65 ; 1.845345796110231E7 ; 2.0061827461748338E8 ; 1.1591334913700438E9 ; 1.1407895325670965E10 ; 0.0
66 ; 1.8456976782966934E7 ; 2.006235987547297E8 ; 1.177586949331146E9 ; 1.1608513600288448E10 ; 0.0
67 ; 1.846233505250465E7 ; 2.0062892267882755E8 ; 1.1960439261141129E9 ; 1.1809137199043179E10 ; 0.0
68 ; 1.8466005396901123E7 ; 2.0063424600421107E8 ; 1.2145062611666174E9 ; 1.2009766121722006E10 ; 0.0
69 ; 1.8466461300061394E7 ; 2.0063956836317793E8 ; 1.2329722665635185E9 ; 1.2210400367726217E10 ; 0.0
70 ; 1.8470240121147167E7 ; 2.006448894045323E8 ; 1.25143872786358E9 ; 1.2411039936089396E10 ; 0.0
71 ; 1.8470077007566802E7 ; 2.0065020879234895E8 ; 1.2699089679847271E9 ; 1.2611684825493927E10 ; 0.0
72 ; 1.8468535202904366E7 ; 2.0065552620484594E8 ; 1.2883790449922938E9 ; 1.2812335034286276E10 ; 0.0
73 ; 1.8469715202624474E7 ; 2.0066084133335608E8 ; 1.3068475801951983E9 ; 1.3012990560491121E10 ; 0.0
74 ; 1.8471238249525588E7 ; 2.0066615388138628E8 ; 1.3253172953978229E9 ; 1.3213651401824478E10 ; 0.0
75 ; 1.8472845206970464E7 ; 2.00671463563757E8 ; 1.3437885336473484E9 ; 1.3414317555705864E10 ; 0.0
76 ; 1.8475072073748097E7 ; 2.006767701058137E8 ; 1.3622613788543189E9 ; 1.361498901926962E10 ; 0.0
77 ; 1.847252873030356E7 ; 2.0068207324270383E8 ; 1.380736450928067E9 ; 1.3815665789375435E10 ; 0.0
78 ; 1.847068479939614E7 ; 2.0068737271871272E8 ; 1.3992089796583705E9 ; 1.401634786261814E10 ; 0.0
79 ; 1.846303626814845E7 ; 2.0069266828665325E8 ; 1.4176796644577665E9 ; 1.4217035235336851E10 ; 0.0
80 ; 1.8457567397709828E7 ; 2.0069795970730442E8 ; 1.436142700725915E9 ; 1.4417727903623505E10 ; 0.0
81 ; 1.845033021805928E7 ; 2.0070324674889398E8 ; 1.4546002681236248E9 ; 1.4618425863330809E10 ; 0.0
82 ; 1.844955260045179E7 ; 2.007085291866216E8 ; 1.473050598341684E9 ; 1.4819129110079702E10 ; 0.0
83 ; 1.8441077992400244E7 ; 2.007138068022189E8 ; 1.4915001509421358E9 ; 1.5019837639266323E10 ; 0.0
84 ; 1.8436033989259027E7 ; 2.007190793835427E8 ; 1.509941228934536E9 ; 1.5220551446068542E10 ; 0.0
85 ; 1.8431081184650056E7 ; 2.0072434672419935E8 ; 1.528377262923795E9 ; 1.5421270525452085E10 ; 0.0
86 ; 1.8424987641474288E7 ; 2.007296086231968E8 ; 1.546808344108445E9 ; 1.5621994872176285E10 ; 0.0
87 ; 1.84166582589456E7 ; 2.0073486488462242E8 ; 1.5652333317499192E9 ; 1.5822724480799482E10 ; 0.0
88 ; 1.8411908340584874E7 ; 2.0074011531734434E8 ; 1.5836499900088649E9 ; 1.6023459345684105E10 ; 0.0
89 ; 1.840623629499612E7 ; 2.007453597347343E8 ; 1.6020618983494496E9 ; 1.622419946100145E10 ; 0.0
90 ; 1.839726626751923E7 ; 2.0075059795441025E8 ; 1.6204681346444457E9 ; 1.6424944820736183E10 ; 0.0
91 ; 1.838787747682439E7 ; 2.0075582979799742E8 ; 1.638865400911965E9 ; 1.6625695418690594E10 ; 0.0
92 ; 1.8381479316866316E7 ; 2.0076105509090555E8 ; 1.6572532783887892E9 ; 1.682645124848859E10 ; 0.0
93 ; 1.8372977041649792E7 ; 2.0076627366212213E8 ; 1.6756347577056556E9 ; 1.7027212303579496E10 ; 0.0
94 ; 1.8366730323833555E7 ; 2.0077148534401947E8 ; 1.6940077347473054E9 ; 1.722797857724162E10 ; 0.0
95 ; 1.8357514584894244E7 ; 2.007766899721749E8 ; 1.7123744650711389E9 ; 1.742875006258564E10 ; 0.0
96 ; 1.8348819382413004E7 ; 2.0078188738520312E8 ; 1.730731979656033E9 ; 1.7629526752557816E10 ; 0.0
97 ; 1.8340783555866256E7 ; 2.0078707742459965E8 ; 1.749080799038446E9 ; 1.783030863994302E10 ; 0.0
98 ; 1.833360028151711E7 ; 2.0079225993459457E8 ; 1.7674215825943122E9 ; 1.803109571736762E10 ; 0.0
99 ; 1.8324902163029417E7 ; 2.00797434762016E8 ; 1.7857551828758292E9 ; 1.823188797730221E10 ; 0.0
100 ; 1.831727910147823E7 ; 2.0080260175616205E8 ; 1.8040800850388587E9 ; 1.8432685412064228E10 ; 0.0
101 ; 1.830971670364574E7 ; 2.0080776076868132E8 ; 1.822397364140337E9 ; 1.863348801382039E10 ; 0.0
102 ; 1.8295671961097408E7 ; 2.008129116534609E8 ; 1.8407070808439827E9 ; 1.883429577458907E10 ; 0.0
103 ; 1.8287656066295832E7 ; 2.0081805426652116E8 ; 1.8590027528050802E9 ; 1.903510868624253E10 ; 0.0
104 ; 1.8277211374243207E7 ; 2.0082318846591756E8 ; 1.877290408871376E9 ; 1.9235926740509052E10 ; 0.0
105 ; 1.826665388861502E7 ; 2.0082831411164808E8 ; 1.8955676202456193E9 ; 1.9436749928974968E10 ; 0.0
106 ; 1.8259015381372288E7 ; 2.0083343106556675E8 ; 1.9138342741342344E9 ; 1.9637578243086617E10 ; 0.0
107 ; 1.8248093739145134E7 ; 2.0083853919130194E8 ; 1.9320932895156066E9 ; 1.9838411674152184E10 ; 0.0
108 ; 1.8235609995264556E7 ; 2.008436383541802E8 ; 1.9503413832547517E9 ; 2.0039250213343487E10 ; 0.0
109 ; 1.822827458493225E7 ; 2.00848728421154E8 ; 1.9685769932500162E9 ; 2.0240093851697666E10 ; 0.0
110 ; 1.8215385403251298E7 ; 2.0085380926073438E8 ; 1.9868052678349485E9 ; 2.044094258011882E10 ; 0.0
111 ; 1.8205259915420376E7 ; 2.0085888074292699E8 ; 2.0050206532382E9 ; 2.0641796389379555E10 ; 0.0
112 ; 1.8194450671097375E7 ; 2.008639427391724E8 ; 2.0232259131536202E9 ; 2.0842655270122482E10 ; 0.0
113 ; 1.8181736306324076E7 ; 2.0086899512228942E8 ; 2.0414203638247175E9 ; 2.1043519212861656E10 ; 0.0
114 ; 1.8173093356656127E7 ; 2.0087403776642197E8 ; 2.0596021001310415E9 ; 2.1244388207983944E10 ; 0.0
115 ; 1.816111685465577E7 ; 2.00879070546989E8 ; 2.0777751934876976E9 ; 2.1445262245750366E10 ; 0.0
116 ; 1.815222713857601E7 ; 2.0088409334063697E8 ; 2.0959363103423533E9 ; 2.1646141316297356E10 ; 0.0
117 ; 1.8134251742613096E7 ; 2.0088910602519533E8 ; 2.1140885374809294E9 ; 2.1847025409637993E10 ; 0.0
118 ; 1.8125104083120845E7 ; 2.008941084796344E8 ; 2.1322227892235425E9 ; 2.204791451566319E10 ; 0.0
119 ; 1.8112961412165597E7 ; 2.0089910058402544E8 ; 2.1503478933066635E9 ; 2.2248808624142822E10 ; 0.0
120 ; 1.8097984861494876E7 ; 2.009040822195031E8 ; 2.168460854718829E9 ; 2.244970772472685E10 ; 0.0
121 ; 1.8088153625092458E7 ; 2.0090905326822993E8 ; 2.186558839580324E9 ; 2.265061180694635E10 ; 0.0
122 ; 1.8073561020493336E7 ; 2.0091401361336273E8 ; 2.2046469932054167E9 ; 2.285152086021458E10 ; 0.0
123 ; 1.8061766454556797E7 ; 2.0091896313902083E8 ; 2.22272055422591E9 ; 2.305243487382794E10 ; 0.0
124 ; 1.8047094233875696E7 ; 2.00923901730256E8 ; 2.240782320680467E9 ; 2.325335383696696E10 ; 0.0
125 ; 1.8036847695743944E7 ; 2.00928829273024E8 ; 2.258829414914343E9 ; 2.3454277738697216E10 ; 0.0
126 ; 1.8023577574831802E7 ; 2.0093374565415764E8 ; 2.276866262610087E9 ; 2.365520656797024E10 ; 0.0
127 ; 1.800752121321282E7 ; 2.0093865076134148E8 ; 2.294889840184919E9 ; 2.3856140313624397E10 ; 0.0
128 ; 1.799147720436383E7 ; 2.0094354448308745E8 ; 2.312897361398132E9 ; 2.405707896438574E10 ; 0.0
129 ; 1.797677823155589E7 ; 2.0094842670871207E8 ; 2.3308888386024957E9 ; 2.4258022508868824E10 ; 0.0
130 ; 1.7960322829486135E7 ; 2.0095329732831484E8 ; 2.3488656168340516E9 ; 2.4458970935577538E10 ; 0.0
131 ; 1.7937886568307698E7 ; 2.0095815623275763E8 ; 2.366825939663538E9 ; 2.4659924232905853E10 ; 0.0
132 ; 1.7918645945506405E7 ; 2.009630033136453E8 ; 2.384763826231846E9 ; 2.486088238913861E10 ; 0.0
133 ; 1.790124981555176E7 ; 2.0096783846330708E8 ; 2.4026824721773524E9 ; 2.5061845392452255E10 ; 0.0
134 ; 1.7879320964714866E7 ; 2.009726615747793E8 ; 2.420583721992904E9 ; 2.526281323091556E10 ; 0.0
135 ; 1.7860744388180062E7 ; 2.009774725417885E8 ; 2.438463042957619E9 ; 2.546378589249034E10 ; 0.0
136 ; 1.7839014162780218E7 ; 2.0098227125873592E8 ; 2.4563237873457994E9 ; 2.566476336503213E10 ; 0.0
137 ; 1.78185212259387E7 ; 2.009870576206824E8 ; 2.4741628015085797E9 ; 2.5865745636290867E10 ; 0.0
138 ; 1.7801922126908917E7 ; 2.0099183152333426E8 ; 2.4919813227345185E9 ; 2.606673269391155E10 ; 0.0
139 ; 1.777891389654473E7 ; 2.009965928630298E8 ; 2.5097832448614273E9 ; 2.6267724525434883E10 ; 0.0
140 ; 1.7751358467918415E7 ; 2.0100134153672656E8 ; 2.5275621587579722E9 ; 2.6468721118297913E10 ; 0.0
141 ; 1.7729746430728566E7 ; 2.010060774419891E8 ; 2.5453135172258906E9 ; 2.666972245983464E10 ; 0.0
142 ; 1.7707746673979178E7 ; 2.0101080047697753E8 ; 2.563043263656619E9 ; 2.687072853727663E10 ; 0.0
143 ; 1.7689364303838607E7 ; 2.0101551054043663E8 ; 2.5807510103305984E9 ; 2.707173933775361E10 ; 0.0
144 ; 1.7662987459078483E7 ; 2.0102020753168526E8 ; 2.598440374634437E9 ; 2.7272754848294044E10 ; 0.0
145 ; 1.765087553488351E7 ; 2.0102489135060677E8 ; 2.6161033620935154E9 ; 2.747377505582573E10 ; 0.0
146 ; 1.763476387092001E7 ; 2.0102956189763942E8 ; 2.633754237628399E9 ; 2.7674799947176334E10 ; 0.0
147 ; 1.761735491464794E7 ; 2.010342190737675E8 ; 2.651389001499319E9 ; 2.7875829509073975E10 ; 0.0
148 ; 1.7604243611147266E7 ; 2.0103886278051302E8 ; 2.669006356413967E9 ; 2.8076863728147743E10 ; 0.0
149 ; 1.7590809786548518E7 ; 2.0104349291992748E8 ; 2.6866106000251145E9 ; 2.8277902590928257E10 ; 0.0
150 ; 1.757402350988324E7 ; 2.0104810939458445E8 ; 2.704201409811663E9 ; 2.8478946083848183E10 ; 0.0
151 ; 1.755857790732064E7 ; 2.0105271210757217E8 ; 2.7217754333215466E9 ; 2.8679994193242767E10 ; 0.0
152 ; 1.7541826917602986E7 ; 2.010573009624868E8 ; 2.739334011228867E9 ; 2.8881046905350338E10 ; 0.0
153 ; 1.7523421317454472E7 ; 2.0106187586342582E8 ; 2.75687583814647E9 ; 2.9082104206312824E10 ; 0.0
154 ; 1.7507403005823266E7 ; 2.0106643671498182E8 ; 2.7743992594639244E9 ; 2.928316608217625E10 ; 0.0
155 ; 1.7496108793289766E7 ; 2.0107098342223677E8 ; 2.7919066624697475E9 ; 2.948423251889123E10 ; 0.0
156 ; 1.748356279820124E7 ; 2.0107551589075622E8 ; 2.809402771263037E9 ; 2.968530350231347E10 ; 0.0
157 ; 1.746063065483498E7 ; 2.0108003402658418E8 ; 2.8268863340612383E9 ; 2.9886379018204224E10 ; 0.0
158 ; 1.744386725291032E7 ; 2.0108453773623806E8 ; 2.844346964716073E9 ; 3.008745905223081E10 ; 0.0
159 ; 1.7429097710958987E7 ; 2.010890269267039E8 ; 2.861790831968983E9 ; 3.0288543589967045E10 ; 0.0
160 ; 1.7412863978574976E7 ; 2.0109350150543177E8 ; 2.879219929679942E9 ; 3.048963261689375E10 ; 0.0
161 ; 1.739872433243462E7 ; 2.0109796138033164E8 ; 2.896632793658517E9 ; 3.069072611839918E10 ; 0.0
162 ; 1.7381721279750343E7 ; 2.0110240645976922E8 ; 2.9140315179909515E9 ; 3.0891824079779514E10 ; 0.0
163 ; 1.736175160902488E7 ; 2.0110683665256223E8 ; 2.931413239270702E9 ; 3.1092926486239285E10 ; 0.0
164 ; 1.7346134148209587E7 ; 2.0111125186797664E8 ; 2.948774990879727E9 ; 3.1294033322891846E10 ; 0.0
165 ; 1.732998749985495E7 ; 2.0111565201572323E8 ; 2.9661211250279365E9 ; 3.1495144574759823E10 ; 0.0
166 ; 1.73119958842649E7 ; 2.0112003700595447E8 ; 2.9834511125277915E9 ; 3.1696260226775547E10 ; 0.0
167 ; 1.7293808515990037E7 ; 2.0112440674926135E8 ; 3.0007631084120564E9 ; 3.18973802637815E10 ; 0.0
168 ; 1.7279675968049143E7 ; 2.0112876115667048E8 ; 3.0180569169280467E9 ; 3.209850467053076E10 ; 0.0
169 ; 1.7264745445024427E7 ; 2.0113310013964134E8 ; 3.0353365928960958E9 ; 3.229963343168743E10 ; 0.0
170 ; 1.7242115457224753E7 ; 2.011374236100637E8 ; 3.0526013383411202E9 ; 3.2500766531827072E10 ; 0.0
171 ; 1.7224975507182956E7 ; 2.011417314802552E8 ; 3.069843453798345E9 ; 3.2701903955437138E10 ; 0.0
172 ; 1.720894990218876E7 ; 2.0114602366295904E8 ; 3.087068429305528E9 ; 3.2903045686917393E10 ; 0.0
173 ; 1.7194409807670377E7 ; 2.0115030007134175E8 ; 3.104277379207717E9 ; 3.3104191710580353E10 ; 0.0
174 ; 1.7182536455452483E7 ; 2.011545606189913E8 ; 3.1214717890153875E9 ; 3.3305342010651695E10 ; 0.0
175 ; 1.7174549847874623E7 ; 2.0115880521991497E8 ; 3.13865432547084E9 ; 3.3506496571270687E10 ; 0.0
176 ; 1.716557282618671E7 ; 2.0116303378853786E8 ; 3.1558288753187146E9 ; 3.37076553764906E10 ; 0.0
177 ; 1.715590033464461E7 ; 2.0116724623970088E8 ; 3.1729944481449013E9 ; 3.3908818410279137E10 ; 0.0
178 ; 1.71383307566065E7 ; 2.0117144248865938E8 ; 3.190150348479546E9 ; 3.4109985656518837E10 ; 0.0
179 ; 1.712923120840659E7 ; 2.0117562245108163E8 ; 3.2072886792361526E9 ; 3.4311157099007496E10 ; 0.0
180 ; 1.711856823125409E7 ; 2.0117978604304746E8 ; 3.224417910444559E9 ; 3.451233272145858E10 ; 0.0
181 ; 1.710873647530633E7 ; 2.0118393318104696E8 ; 3.241536478675813E9 ; 3.4713512507501625E10 ; 0.0
182 ; 1.709807622691832E7 ; 2.0118806378197932E8 ; 3.2586452151511197E9 ; 3.491469644068267E10 ; 0.0
183 ; 1.7087519047021758E7 ; 2.0119217776315165E8 ; 3.275743291378038E9 ; 3.511588450446465E10 ; 0.0
184 ; 1.707574270630078E7 ; 2.011962750422781E8 ; 3.29283081042506E9 ; 3.5317076682227806E10 ; 0.0
185 ; 1.7066457928516876E7 ; 2.0120035553747886E8 ; 3.3099065531313605E9 ; 3.551827295727008E10 ; 0.0
186 ; 1.70550777217629E7 ; 2.0120441916727924E8 ; 3.3269730110598774E9 ; 3.5719473312807556E10 ; 0.0
187 ; 1.7046608012696277E7 ; 2.0120846585060892E8 ; 3.3440280887816405E9 ; 3.592067773197484E10 ; 0.0
188 ; 1.7036680400058776E7 ; 2.0121249550680134E8 ; 3.361074696794337E9 ; 3.612188619782545E10 ; 0.0
189 ; 1.7023877643858854E7 ; 2.0121650805559283E8 ; 3.3781113771943955E9 ; 3.6323098693332245E10 ; 0.0
190 ; 1.7014816031118747E7 ; 2.0122050341712224E8 ; 3.3951352548382545E9 ; 3.652431520138784E10 ; 0.0
191 ; 1.700274374097866E7 ; 2.012244815119303E8 ; 3.4121500708693733E9 ; 3.672553570480496E10 ; 0.0
192 ; 1.6994910157987602E7 ; 2.012284422609591E8 ; 3.429152814610352E9 ; 3.6926760186316895E10 ; 0.0
193 ; 1.6983750343867373E7 ; 2.0123238558555183E8 ; 3.4461477247683396E9 ; 3.712798862857785E10 ; 0.0
194 ; 1.697445138717292E7 ; 2.0123631140745232E8 ; 3.463131475112207E9 ; 3.73292210141634E10 ; 0.0
195 ; 1.6961729357085906E7 ; 2.0124021964880475E8 ; 3.4801059264993796E9 ; 3.7530457325570854E10 ; 0.0
