CSV File for the City 3 on Day 66
1 - Minute m 
2 - Power Consumed at minute m 
3 - Power Produced at minute m 
4 - Energy Consumed since the beginning of the day 
5 - Energy Produced since the beginning of the day 
6 - Energy Lost since the beginning of the day on lines starting from the city
 
0 ; 2377886.1187592912 ; 1.0546749093447122E8 ; 0.0 ; 0.0 ; 0.0
1 ; 2379144.9122264874 ; 1.0562037598013204E8 ; 2377886.1187592912 ; 1.0546749093447122E8 ; 0.0
2 ; 2381155.665444274 ; 1.060820480970858E8 ; 4757031.030985778 ; 2.1108786691460326E8 ; 0.0
3 ; 2384398.22943684 ; 1.0685250924307132E8 ; 7138186.696430052 ; 3.1716991501168907E8 ; 0.0
4 ; 2387307.5743369586 ; 1.0793176118047428E8 ; 9522584.92586689 ; 4.240224242547604E8 ; 0.0
5 ; 2392800.528627589 ; 1.0931980546392989E8 ; 1.190989250020385E7 ; 5.3195418543523467E8 ; 0.0
6 ; 2396707.788065054 ; 1.1101664342911586E8 ; 1.430269302883144E7 ; 6.412739908991646E8 ; 0.0
7 ; 2406413.0269822995 ; 1.130222761829195E8 ; 1.6699400816896493E7 ; 7.522906343282804E8 ; 0.0
8 ; 2416798.9834954254 ; 1.1533670459514505E8 ; 1.910581384387879E7 ; 8.653129105112E8 ; 0.0
9 ; 2432973.4693915127 ; 1.17959929291906E8 ; 2.1522612827374216E7 ; 9.806496151063449E8 ; 0.0
10 ; 2459606.363522686 ; 1.2089195065081787E8 ; 2.395558629676573E7 ; 1.098609544398251E9 ; 0.0
11 ; 2500486.201421251 ; 1.2413276879807886E8 ; 2.6415192660288416E7 ; 1.219501495049069E9 ; 0.0
12 ; 2567882.3856730834 ; 1.2768238360749075E8 ; 2.8915678861709666E7 ; 1.3436342638471477E9 ; 0.0
13 ; 2631314.028341496 ; 1.3154079470143801E8 ; 3.148356124738275E7 ; 1.4713166474546385E9 ; 0.0
14 ; 2637050.3889618115 ; 1.3570800145380723E8 ; 3.411487527572425E7 ; 1.6028574421560764E9 ; 0.0
15 ; 2640622.7094924124 ; 1.4018400299479407E8 ; 3.675192566468606E7 ; 1.7385654436098838E9 ; 0.0
16 ; 2643144.8069904577 ; 1.4496879821751133E8 ; 3.939254837417848E7 ; 1.878749446604678E9 ; 0.0
17 ; 2647820.7875409545 ; 1.500623857862812E8 ; 4.2035693181168936E7 ; 2.0237182448221893E9 ; 0.0
18 ; 2648949.0840958036 ; 1.5546476414646852E8 ; 4.468351396870989E7 ; 2.1737806306084704E9 ; 0.0
19 ; 2651898.913858518 ; 1.611759315356876E8 ; 4.73324630528057E7 ; 2.329245394754939E9 ; 0.0
20 ; 2655702.08341993 ; 1.6719588599619958E8 ; 4.998436196666422E7 ; 2.4904213262906265E9 ; 0.0
21 ; 2658365.841291054 ; 1.7352462538830462E8 ; 5.2640064050084144E7 ; 2.657617212286826E9 ; 0.0
22 ; 2660913.469203687 ; 1.801621474045239E8 ; 5.52984298913752E7 ; 2.831141837675131E9 ; 0.0
23 ; 2664764.1642303336 ; 1.8710844958436823E8 ; 5.795934336057889E7 ; 3.0113039850796547E9 ; 0.0
24 ; 2667689.703985256 ; 1.9436352932948995E8 ; 6.062410752480922E7 ; 3.198412434664023E9 ; 0.0
25 ; 2670376.2536406554 ; 2.006154248172076E8 ; 6.329179722879448E7 ; 3.392775963993513E9 ; 0.0
26 ; 2673138.305541653 ; 2.0061768105274785E8 ; 6.596217348243514E7 ; 3.593391388810721E9 ; 0.0
27 ; 2676064.2879237267 ; 2.00620064409331E8 ; 6.863531178797679E7 ; 3.7940090698634686E9 ; 0.0
28 ; 2679560.99239584 ; 2.0062257188980862E8 ; 7.131137607590051E7 ; 3.9946291342727995E9 ; 0.0
29 ; 2682167.7019109353 ; 2.0062520043432283E8 ; 7.399093706829634E7 ; 4.195251706162608E9 ; 0.0
30 ; 2684766.72775044 ; 2.0062794693415317E8 ; 7.667310477020729E7 ; 4.395876906596931E9 ; 0.0
31 ; 2688214.725613992 ; 2.0063080824490136E8 ; 7.935787149795772E7 ; 4.596504853531085E9 ; 0.0
32 ; 2691672.6687495364 ; 2.0063378119893706E8 ; 8.204608622357172E7 ; 4.797135661775987E9 ; 0.0
33 ; 2692709.0147525836 ; 2.0063686261704665E8 ; 8.473775889232126E7 ; 4.997769442974924E9 ; 0.0
34 ; 2695258.144841263 ; 2.0064004931924528E8 ; 8.743046790707384E7 ; 5.19840630559197E9 ; 0.0
35 ; 2697229.4508748073 ; 2.0064333813472724E8 ; 9.012572605191511E7 ; 5.399046354911216E9 ; 0.0
36 ; 2701940.6035177982 ; 2.006467259109462E8 ; 9.282295550278991E7 ; 5.599689693045943E9 ; 0.0
37 ; 2703165.4826849224 ; 2.0065020952182716E8 ; 9.552489610630772E7 ; 5.800336418956889E9 ; 0.0
38 ; 2706233.657645409 ; 2.006537858751258E8 ; 9.822806158899264E7 ; 6.000986628478716E9 ; 0.0
39 ; 2706365.4591410677 ; 2.006574519189575E8 ; 1.0093429524663804E8 ; 6.201640414353842E9 ; 0.0
40 ; 2708343.879414234 ; 2.0066120464752862E8 ; 1.036406607057791E8 ; 6.4022978662727995E9 ; 0.0
41 ; 2712278.5521907317 ; 2.0066504110610586E8 ; 1.0634900458519334E8 ; 6.602959070920328E9 ; 0.0
42 ; 2714633.953019101 ; 2.0066895839526668E8 ; 1.0906128313738407E8 ; 6.803624112026434E9 ; 0.0
43 ; 2715354.560256988 ; 2.0067295367447475E8 ; 1.1177591709040317E8 ; 7.0042930704217005E9 ; 0.0
44 ; 2717048.3057597405 ; 2.0067702416502818E8 ; 1.1449127165066016E8 ; 7.204966024096175E9 ; 0.0
45 ; 2718191.2293984964 ; 2.006811671524277E8 ; 1.172083199564199E8 ; 7.405643048261204E9 ; 0.0
46 ; 2719398.7047719397 ; 2.0068537998821342E8 ; 1.199265111858184E8 ; 7.606324215413631E9 ; 0.0
47 ; 2720500.3369722436 ; 2.0068966009131712E8 ; 1.2264590989059034E8 ; 7.807009595401845E9 ; 0.0
48 ; 2721450.7895879494 ; 2.006940049489765E8 ; 1.2536641022756258E8 ; 8.007699255493162E9 ; 0.0
49 ; 2724076.8745292006 ; 2.0069841211725566E8 ; 1.2808786101715052E8 ; 8.208393260442139E9 ; 0.0
50 ; 2722340.2406296083 ; 2.007028792212146E8 ; 1.3081193789167972E8 ; 8.409091672559394E9 ; 0.0
51 ; 2723868.0617871634 ; 2.007074039547671E8 ; 1.3353427813230933E8 ; 8.60979455178061E9 ; 0.0
52 ; 2724618.4254836566 ; 2.0071198408026552E8 ; 1.362581461940965E8 ; 8.810501955735376E9 ; 0.0
53 ; 2728308.0309209856 ; 2.0071661742784673E8 ; 1.3898276461958015E8 ; 9.011213939815641E9 ; 0.0
54 ; 2726377.262052027 ; 2.0072130189457235E8 ; 1.4171107265050113E8 ; 9.211930557243488E9 ; 0.0
55 ; 2728741.1039101286 ; 2.0072603544339234E8 ; 1.4443744991255316E8 ; 9.412651859138062E9 ; 0.0
56 ; 2727133.965319316 ; 2.0073081610195985E8 ; 1.4716619101646328E8 ; 9.613377894581453E9 ; 0.0
57 ; 2729044.7961576255 ; 2.0073564196132162E8 ; 1.498933249817826E8 ; 9.814108710683413E9 ; 0.0
58 ; 2729408.1285401965 ; 2.0074051117450657E8 ; 1.526223697779402E8 ; 1.0014844352644733E10 ; 0.0
59 ; 2730335.1979606836 ; 2.0074542195503256E8 ; 1.553517779064804E8 ; 1.021558486381924E10 ; 0.0
60 ; 2730544.5326891444 ; 2.0075037257534957E8 ; 1.5808211310444108E8 ; 1.0416330285774273E10 ; 0.0
61 ; 2733262.7776290574 ; 2.0075536136523485E8 ; 1.6081265763713023E8 ; 1.0617080658349623E10 ; 0.0
62 ; 2732251.0522603476 ; 2.007603867101548E8 ; 1.6354592041475928E8 ; 1.0817836019714857E10 ; 0.0
63 ; 2731314.7173640598 ; 2.0076544704960555E8 ; 1.6627817146701962E8 ; 1.1018596406425013E10 ; 0.0
64 ; 2731941.457366145 ; 2.0077054087544358E8 ; 1.690094861843837E8 ; 1.1219361853474619E10 ; 0.0
65 ; 2733508.889030582 ; 2.007756667302155E8 ; 1.7174142764174983E8 ; 1.1420132394350063E10 ; 0.0
66 ; 2734443.9198498223 ; 2.007808232054955E8 ; 1.744749365307804E8 ; 1.1620908061080278E10 ; 0.0
67 ; 2734930.2550291866 ; 2.0078600894023734E8 ; 1.7720938045063022E8 ; 1.1821688884285774E10 ; 0.0
68 ; 2734401.326580974 ; 2.007912226191469E8 ; 1.799443107056594E8 ; 1.2022474893226011E10 ; 0.0
69 ; 2734588.3521062033 ; 2.0079646297108033E8 ; 1.8267871203224036E8 ; 1.2223266115845158E10 ; 0.0
70 ; 2734096.9306458156 ; 2.00801728767472E8 ; 1.8541330038434657E8 ; 1.2424062578816238E10 ; 0.0
71 ; 2736111.0435078833 ; 2.0080701882079574E8 ; 1.881473973149924E8 ; 1.262486430758371E10 ; 0.0
72 ; 2735276.62726743 ; 2.0081233198306197E8 ; 1.9088350835850027E8 ; 1.2825671326404505E10 ; 0.0
73 ; 2735916.786332969 ; 2.0081766714435312E8 ; 1.936187849857677E8 ; 1.3026483658387568E10 ; 0.0
74 ; 2736834.8426524177 ; 2.00823023231399E8 ; 1.9635470177210066E8 ; 1.3227301325531921E10 ; 0.0
75 ; 2735300.3468025452 ; 2.008283992061929E8 ; 1.9909153661475307E8 ; 1.342812434876332E10 ; 0.0
76 ; 2736131.580047456 ; 2.0083379406465024E8 ; 2.018268369615556E8 ; 1.3628952747969513E10 ; 0.0
77 ; 2736139.1506381296 ; 2.0083920683530885E8 ; 2.0456296854160306E8 ; 1.3829786542034163E10 ; 0.0
78 ; 2736068.979157105 ; 2.0084463657807252E8 ; 2.072991076922412E8 ; 1.403062574886947E10 ; 0.0
79 ; 2733992.5519218305 ; 2.0085008238299662E8 ; 2.1003517667139828E8 ; 1.4231470385447542E10 ; 0.0
80 ; 2735532.3176878095 ; 2.008555433691162E8 ; 2.1276916922332013E8 ; 1.443232046783054E10 ; 0.0
81 ; 2733550.357285758 ; 2.0086101868331578E8 ; 2.1550470154100794E8 ; 1.4633176011199656E10 ; 0.0
82 ; 2732963.821346676 ; 2.0086650749924043E8 ; 2.182382518982937E8 ; 1.483403702988297E10 ; 0.0
83 ; 2732136.409322477 ; 2.0087200901624703E8 ; 2.2097121571964037E8 ; 1.5034903537382212E10 ; 0.0
84 ; 2730828.1361739417 ; 2.0087752245839554E8 ; 2.2370335212896284E8 ; 1.5235775546398458E10 ; 0.0
85 ; 2730253.2206074945 ; 2.0088304707347852E8 ; 2.2643418026513678E8 ; 1.5436653068856853E10 ; 0.0
86 ; 2730170.653092356 ; 2.0088858213208866E8 ; 2.2916443348574427E8 ; 1.5637536115930332E10 ; 0.0
87 ; 2728179.198922468 ; 2.0089412692672282E8 ; 2.3189460413883662E8 ; 1.583842469806242E10 ; 0.0
88 ; 2727235.927166271 ; 2.008996807709217E8 ; 2.3462278333775908E8 ; 1.6039318824989143E10 ; 0.0
89 ; 2725884.412004588 ; 2.0090524299844393E8 ; 2.3735001926492536E8 ; 1.6240218505760065E10 ; 0.0
90 ; 2726416.689747777 ; 2.009108129624735E8 ; 2.4007590367692995E8 ; 1.6441123748758509E10 ; 0.0
91 ; 2725049.933002156 ; 2.0091639003485975E8 ; 2.4280232036667773E8 ; 1.6642034561720982E10 ; 0.0
92 ; 2722987.9695437723 ; 2.009219736053879E8 ; 2.4552737029967988E8 ; 1.6842950951755842E10 ; 0.0
93 ; 2721940.269746531 ; 2.0092756308108023E8 ; 2.4825035826922366E8 ; 1.704387292536123E10 ; 0.0
94 ; 2720762.786436658 ; 2.0093315788552573E8 ; 2.509722985389702E8 ; 1.724480048844231E10 ; 0.0
95 ; 2719459.2301791282 ; 2.0093875745823777E8 ; 2.5369306132540685E8 ; 1.7445733646327835E10 ; 0.0
96 ; 2719475.0136673297 ; 2.0094436125403848E8 ; 2.5641252055558598E8 ; 1.764667240378607E10 ; 0.0
97 ; 2716393.6783121275 ; 2.009499687424688E8 ; 2.591319955692533E8 ; 1.784761676504011E10 ; 0.0
98 ; 2716617.1686815405 ; 2.009555794072235E8 ; 2.6184838924756542E8 ; 1.804856673378258E10 ; 0.0
99 ; 2715758.2008649325 ; 2.009611927456094E8 ; 2.6456500641624695E8 ; 1.8249522313189804E10 ; 0.0
100 ; 2713192.034052522 ; 2.0096680826802692E8 ; 2.672807646171119E8 ; 1.8450483505935413E10 ; 0.0
101 ; 2713749.7829411654 ; 2.00972425497473E8 ; 2.699939566511644E8 ; 1.865145031420344E10 ; 0.0
102 ; 2712380.6675203764 ; 2.0097804396906522E8 ; 2.727077064341056E8 ; 1.8852422739700916E10 ; 0.0
103 ; 2710470.5840223883 ; 2.009836632295857E8 ; 2.75420087101626E8 ; 1.9053400783669983E10 ; 0.0
104 ; 2707620.1589426138 ; 2.0098928283704454E8 ; 2.781305576856484E8 ; 1.925438444689957E10 ; 0.0
105 ; 2708501.047566375 ; 2.0099490236026114E8 ; 2.80838177844591E8 ; 1.9455373729736614E10 ; 0.0
106 ; 2707458.664058681 ; 2.0100052137846372E8 ; 2.835466788921574E8 ; 1.9656368632096874E10 ; 0.0
107 ; 2705337.456629953 ; 2.0100613948090518E8 ; 2.8625413755621606E8 ; 1.9857369153475338E10 ; 0.0
108 ; 2703046.1019079387 ; 2.010117562664953E8 ; 2.88959475012846E8 ; 2.005837529295624E10 ; 0.0
109 ; 2700837.090006508 ; 2.0101737134344834E8 ; 2.9166252111475396E8 ; 2.0259387049222736E10 ; 0.0
110 ; 2700548.361640684 ; 2.0102298432894546E8 ; 2.943633582047605E8 ; 2.0460404420566185E10 ; 0.0
111 ; 2698509.110610039 ; 2.0102859484881097E8 ; 2.970639065664012E8 ; 2.066142740489513E10 ; 0.0
112 ; 2695270.927959573 ; 2.0103420253720257E8 ; 2.9976241567701125E8 ; 2.0862455999743942E10 ; 0.0
113 ; 2696147.8450222583 ; 2.010398070363139E8 ; 3.024576866049708E8 ; 2.1063490202281143E10 ; 0.0
114 ; 2693427.1037802845 ; 2.0104540799608994E8 ; 3.051538344499931E8 ; 2.1264530009317455E10 ; 0.0
115 ; 2691109.1496416447 ; 2.0105100507395405E8 ; 3.0784726155377334E8 ; 2.1465575417313545E10 ; 0.0
116 ; 2690848.1783868335 ; 2.0105659793454605E8 ; 3.10538370703415E8 ; 2.16666264223875E10 ; 0.0
117 ; 2690911.9074006304 ; 2.0106218624947158E8 ; 3.132292188818018E8 ; 2.186768302032205E10 ; 0.0
118 ; 2686999.2407283 ; 2.010677696970612E8 ; 3.159201307892024E8 ; 2.2068745206571518E10 ; 0.0
119 ; 2685973.505240117 ; 2.0107334796214002E8 ; 3.186071300299307E8 ; 2.2269812976268578E10 ; 0.0
120 ; 2683833.261140705 ; 2.0107892073580614E8 ; 3.2129310353517085E8 ; 2.2470886324230717E10 ; 0.0
121 ; 2681399.39854848 ; 2.0108448771521848E8 ; 3.2397693679631156E8 ; 2.2671965244966522E10 ; 0.0
122 ; 2680940.525784139 ; 2.0109004860339326E8 ; 3.2665833619486004E8 ; 2.287304973268174E10 ; 0.0
123 ; 2679531.9060208756 ; 2.010956031090084E8 ; 3.293392767206442E8 ; 2.3074139781285133E10 ; 0.0
124 ; 2677207.580040511 ; 2.011011509462163E8 ; 3.3201880862666506E8 ; 2.3275235384394142E10 ; 0.0
125 ; 2675539.377084637 ; 2.011066918344637E8 ; 3.346960162067056E8 ; 2.347633653534036E10 ; 0.0
126 ; 2671866.181461746 ; 2.0111222549831918E8 ; 3.373715555837902E8 ; 2.3677443227174824E10 ; 0.0
127 ; 2670999.3543000896 ; 2.0111775166730717E8 ; 3.4004342176525193E8 ; 2.387855545267314E10 ; 0.0
128 ; 2669163.134247417 ; 2.0112327007574895E8 ; 3.42714421119552E8 ; 2.407967320434045E10 ; 0.0
129 ; 2666738.6791089834 ; 2.0112878046260968E8 ; 3.4538358425379944E8 ; 2.42807964744162E10 ; 0.0
130 ; 2664636.9122826285 ; 2.0113428257135168E8 ; 3.480503229329084E8 ; 2.4481925254878807E10 ; 0.0
131 ; 2661645.2315281997 ; 2.0113977614979336E8 ; 3.5071495984519106E8 ; 2.4683059537450157E10 ; 0.0
132 ; 2660033.688930475 ; 2.0114526094997382E8 ; 3.533766050767193E8 ; 2.488419931359995E10 ; 0.0
133 ; 2655103.126985849 ; 2.011507367280227E8 ; 3.5603663876564974E8 ; 2.5085344574549923E10 ; 0.0
134 ; 2652307.964214238 ; 2.011562032440351E8 ; 3.586917418926356E8 ; 2.5286495311277946E10 ; 0.0
135 ; 2651256.3354856805 ; 2.0116166026195136E8 ; 3.6134404985684985E8 ; 2.548765151452198E10 ; 0.0
136 ; 2648422.5364406463 ; 2.0116710754944158E8 ; 3.6399530619233555E8 ; 2.568881317478393E10 ; 0.0
137 ; 2643398.5717472783 ; 2.0117254487779456E8 ; 3.666437287287762E8 ; 2.5889980282333374E10 ; 0.0
138 ; 2641508.839646467 ; 2.011779720218109E8 ; 3.692871273005235E8 ; 2.609115282721117E10 ; 0.0
139 ; 2637579.02244522 ; 2.0118338875970036E8 ; 3.7192863614017E8 ; 2.6292330799232983E10 ; 0.0
140 ; 2635526.4704546155 ; 2.0118879487298313E8 ; 3.745662151626152E8 ; 2.6493514187992683E10 ; 0.0
141 ; 2632445.946121701 ; 2.0119419014639476E8 ; 3.772017416330698E8 ; 2.6694702982865665E10 ; 0.0
142 ; 2630587.4763538996 ; 2.0119957436779475E8 ; 3.798341875791915E8 ; 2.6895897173012062E10 ; 0.0
143 ; 2626170.6841684915 ; 2.012049473280786E8 ; 3.824647750555454E8 ; 2.7097096747379856E10 ; 0.0
144 ; 2622213.8879941474 ; 2.0121030882109317E8 ; 3.850909457397139E8 ; 2.7298301694707935E10 ; 0.0
145 ; 2621441.868114411 ; 2.0121565864355522E8 ; 3.877131596277081E8 ; 2.749951200352903E10 ; 0.0
146 ; 2618780.97777239 ; 2.0122099659497297E8 ; 3.903346014958225E8 ; 2.7700727662172585E10 ; 0.0
147 ; 2615580.839728115 ; 2.012263224775706E8 ; 3.929533824735949E8 ; 2.790194865876756E10 ; 0.0
148 ; 2615216.6026304658 ; 2.0123163609621552E8 ; 3.95568963313323E8 ; 2.810317498124513E10 ; 0.0
149 ; 2613501.79521807 ; 2.0123693725834846E8 ; 3.9818417991595346E8 ; 2.8304406617341343E10 ; 0.0
150 ; 2611081.284230531 ; 2.012422257739159E8 ; 4.007976817111715E8 ; 2.8505643554599693E10 ; 0.0
151 ; 2607391.3118159263 ; 2.0124750145530522E8 ; 4.0340876299540204E8 ; 2.8706885780373608E10 ; 0.0
152 ; 2606698.079057064 ; 2.0125276411728203E8 ; 4.0601615430721796E8 ; 2.8908133281828915E10 ; 0.0
153 ; 2603382.713045502 ; 2.0125801357692996E8 ; 4.08622852386275E8 ; 2.9109386045946198E10 ; 0.0
154 ; 2600551.3724949975 ; 2.0126324965359253E8 ; 4.112262350993205E8 ; 2.931064405952313E10 ; 0.0
155 ; 2599216.7264451175 ; 2.01268472168817E8 ; 4.1382678647181547E8 ; 2.951190730917672E10 ; 0.0
156 ; 2597846.494920793 ; 2.012736809463007E8 ; 4.164260031982606E8 ; 2.9713175781345535E10 ; 0.0
157 ; 2594376.5741600636 ; 2.012788758118385E8 ; 4.190238496931814E8 ; 2.9914449462291836E10 ; 0.0
158 ; 2594987.7894509505 ; 2.012840565932732E8 ; 4.2161822626734143E8 ; 3.0115728338103676E10 ; 0.0
159 ; 2590479.2323160456 ; 2.0128922312044668E8 ; 4.242132140567924E8 ; 3.031701239469695E10 ; 0.0
160 ; 2588891.8743222146 ; 2.0129437522515342E8 ; 4.268036932891084E8 ; 3.0518301617817394E10 ; 0.0
161 ; 2586491.645943034 ; 2.0129951274109545E8 ; 4.2939258516343063E8 ; 3.071959599304255E10 ; 0.0
162 ; 2582328.6751687713 ; 2.0130463550383905E8 ; 4.319790768093737E8 ; 3.0920895505783646E10 ; 0.0
163 ; 2580462.389141307 ; 2.0130974335077256E8 ; 4.345614054845424E8 ; 3.1122200141287483E10 ; 0.0
164 ; 2578236.299986539 ; 2.0131483612106627E8 ; 4.3714186787368375E8 ; 3.1323509884638256E10 ; 0.0
165 ; 2577208.6630479735 ; 2.0131991365563324E8 ; 4.397201041736703E8 ; 3.1524824720759323E10 ; 0.0
166 ; 2576194.528390184 ; 2.0132497579709163E8 ; 4.4229731283671826E8 ; 3.1726144634414955E10 ; 0.0
167 ; 2572234.0278318934 ; 2.0133002238972852E8 ; 4.4487350736510843E8 ; 3.1927469610212048E10 ; 0.0
168 ; 2570480.2183972914 ; 2.013350532794646E8 ; 4.4744574139294034E8 ; 3.2128799632601776E10 ; 0.0
169 ; 2567669.1066151042 ; 2.013400683138205E8 ; 4.5001622161133766E8 ; 3.233013468588124E10 ; 0.0
170 ; 2565622.52096387 ; 2.01345067341884E8 ; 4.525838907179528E8 ; 3.253147475419506E10 ; 0.0
171 ; 2561703.265357255 ; 2.0135005021427843E8 ; 4.5514951323891664E8 ; 3.2732819821536945E10 ; 0.0
172 ; 2560877.758650375 ; 2.013550167831322E8 ; 4.577112165042739E8 ; 3.2934169871751225E10 ; 0.0
173 ; 2558059.1866844823 ; 2.013599669020494E8 ; 4.6027209426292425E8 ; 3.3135524888534355E10 ; 0.0
174 ; 2554097.6852441556 ; 2.0136490042608118E8 ; 4.6283015344960874E8 ; 3.3336884855436405E10 ; 0.0
175 ; 2554309.9141761065 ; 2.0136981721169847E8 ; 4.653842511348529E8 ; 3.3538249755862488E10 ; 0.0
176 ; 2551346.858614605 ; 2.013747171167653E8 ; 4.67938561049029E8 ; 3.3739619573074184E10 ; 0.0
177 ; 2552550.1478305743 ; 2.013796000005131E8 ; 4.704899079076436E8 ; 3.394099429019095E10 ; 0.0
178 ; 2549435.124616639 ; 2.0138446572351605E8 ; 4.7304245805547416E8 ; 3.4142373890191463E10 ; 0.0
179 ; 2550213.883118136 ; 2.0138931414766693E8 ; 4.755918931800908E8 ; 3.4343758355914978E10 ; 0.0
180 ; 2546989.6234429292 ; 2.0139414513615412E8 ; 4.7814210706320894E8 ; 3.4545147670062645E10 ; 0.0
181 ; 2546520.5073744254 ; 2.013989585534391E8 ; 4.806890966866519E8 ; 3.47465418151988E10 ; 0.0
182 ; 2545147.969810338 ; 2.0140375426523492E8 ; 4.832356171940263E8 ; 3.4947940773752235E10 ; 0.0
183 ; 2543136.579496937 ; 2.014085321384851E8 ; 4.8578076516383666E8 ; 3.514934452801747E10 ; 0.0
184 ; 2542323.860864589 ; 2.0141329204134363E8 ; 4.883239017433336E8 ; 3.535075306015596E10 ; 0.0
185 ; 2541757.045369429 ; 2.0141803384315515E8 ; 4.9086622560419816E8 ; 3.55521663521973E10 ; 0.0
186 ; 2537768.012932327 ; 2.0142275741443625E8 ; 4.934079826495676E8 ; 3.575358438604046E10 ; 0.0
187 ; 2537340.765727622 ; 2.0142746262685713E8 ; 4.959457506624999E8 ; 3.5955007143454895E10 ; 0.0
188 ; 2536521.6429727245 ; 2.0143214935322377E8 ; 4.9848309142822754E8 ; 3.615643460608175E10 ; 0.0
189 ; 2533090.808295453 ; 2.0143681746746102E8 ; 5.0101961307120025E8 ; 3.6357866755434975E10 ; 0.0
190 ; 2534136.3512292136 ; 2.0144146684459588E8 ; 5.035527038794957E8 ; 3.6559303572902435E10 ; 0.0
191 ; 2532326.1982234735 ; 2.014460973607416E8 ; 5.060868402307249E8 ; 3.676074503974703E10 ; 0.0
192 ; 2531395.6104217363 ; 2.0145070889308214E8 ; 5.0861916642894834E8 ; 3.696219113710777E10 ; 0.0
193 ; 2529763.094879463 ; 2.0145530131985718E8 ; 5.1115056203937006E8 ; 3.7163641846000854E10 ; 0.0
194 ; 2526290.4858951704 ; 2.0145987452034765E8 ; 5.136803251342495E8 ; 3.736509714732071E10 ; 0.0
195 ; 2527129.3855398907 ; 2.0146442837486172E8 ; 5.1620661562014467E8 ; 3.756655702184106E10 ; 0.0
196 ; 2524059.135047689 ; 2.0146896276472104E8 ; 5.1873374500568455E8 ; 3.776802145021592E10 ; 0.0
197 ; 2523570.0007021846 ; 2.0147347757224795E8 ; 5.212578041407322E8 ; 3.7969490412980644E10 ; 0.0
198 ; 2521300.105280514 ; 2.0147797268075243E8 ; 5.2378137414143443E8 ; 3.8170963890552895E10 ; 0.0
199 ; 2520855.7658306523 ; 2.0148244797451997E8 ; 5.2630267424671495E8 ; 3.837244186323365E10 ; 0.0
200 ; 2519030.596253137 ; 2.014869033387996E8 ; 5.288235300125456E8 ; 3.857392431120817E10 ; 0.0
