CSV File for the City 6 on Day 56
1 - Minute m 
2 - Power Consumed at minute m 
3 - Power Produced at minute m 
4 - Energy Consumed since the beginning of the day 
5 - Energy Produced since the beginning of the day 
6 - Energy Lost since the beginning of the day on lines starting from the city
 
0 ; 1.1117597481072534E7 ; 1.0581882468600455E8 ; 0.0 ; 0.0 ; 0.0
1 ; 1.1133259954418942E7 ; 1.0596933875650781E8 ; 1.1117597481072534E7 ; 1.0581882468600455E8 ; 0.0
2 ; 1.1143905283134263E7 ; 1.0642887585364047E8 ; 2.2250857435491476E7 ; 2.1178816344251236E8 ; 0.0
3 ; 1.1156798406656839E7 ; 1.0719744229126441E8 ; 3.339476271862574E7 ; 3.1821703929615283E8 ; 0.0
4 ; 1.1174120053435273E7 ; 1.0827504378044045E8 ; 4.455156112528258E7 ; 4.2541448158741724E8 ; 0.0
5 ; 1.1191980818338567E7 ; 1.0966168538048375E8 ; 5.572568117871785E7 ; 5.336895253678577E8 ; 0.0
6 ; 1.1220824076590309E7 ; 1.113573714542639E8 ; 6.691766199705642E7 ; 6.433512107483414E8 ; 0.0
7 ; 1.1253322638134873E7 ; 1.1336210562863898E8 ; 7.813848607364672E7 ; 7.547085822026054E8 ; 0.0
8 ; 1.130790425291026E7 ; 1.1567589076084101E8 ; 8.939180871178159E7 ; 8.680706878312443E8 ; 0.0
9 ; 1.1390203325724997E7 ; 1.1829872891152972E8 ; 1.0069971296469185E8 ; 9.837465785920854E8 ; 0.0
10 ; 1.151473927765969E7 ; 1.2123062132510287E8 ; 1.1208991629041684E8 ; 1.1020453075036151E9 ; 0.0
11 ; 1.1709447719915498E7 ; 1.2447156841770259E8 ; 1.2360465556807652E8 ; 1.223275928828718E9 ; 0.0
12 ; 1.2029400245863665E7 ; 1.2802156977318671E8 ; 1.3531410328799203E8 ; 1.3477474972464206E9 ; 0.0
13 ; 1.2330734587196248E7 ; 1.3188062414715749E8 ; 1.473435035338557E8 ; 1.4757690670196073E9 ; 0.0
14 ; 1.2367023645322423E7 ; 1.3604872947895527E8 ; 1.5967423812105197E8 ; 1.6076496911667647E9 ; 0.0
15 ; 1.238157812332739E7 ; 1.4052588291134793E8 ; 1.7204126176637438E8 ; 1.74369842064572E9 ; 0.0
16 ; 1.239385013893176E7 ; 1.453120808174775E8 ; 1.8442283988970178E8 ; 1.8842243035570679E9 ; 0.0
17 ; 1.240842651940556E7 ; 1.504073188344743E8 ; 1.9681669002863353E8 ; 2.0295363843745453E9 ; 0.0
18 ; 1.2422858517350229E7 ; 1.5581159190302318E8 ; 2.092251165480391E8 ; 2.1799437032090197E9 ; 0.0
19 ; 1.2439359400355497E7 ; 1.6152489431206337E8 ; 2.2164797506538934E8 ; 2.335755295112043E9 ; 0.0
20 ; 1.2450740024486966E7 ; 1.675472197477329E8 ; 2.3408733446574482E8 ; 2.497280189424106E9 ; 0.0
21 ; 1.2466280083313942E7 ; 1.7387856134562775E8 ; 2.4653807449023178E8 ; 2.664827409171839E9 ; 0.0
22 ; 1.2481133513303062E7 ; 1.8051891174543327E8 ; 2.5900435457354572E8 ; 2.838705970517467E9 ; 0.0
23 ; 1.2497734731490763E7 ; 1.8746826314700305E8 ; 2.714854880868488E8 ; 3.0192248822629004E9 ; 0.0
24 ; 1.2508629650666777E7 ; 1.9472660736699998E8 ; 2.839832228183396E8 ; 3.2066931454099035E9 ; 0.0
25 ; 1.2522908358933697E7 ; 2.009819767934606E8 ; 2.9649185246900636E8 ; 3.4014197527769036E9 ; 0.0
26 ; 1.2534534496187579E7 ; 2.0098791047806615E8 ; 3.0901476082794005E8 ; 3.602401729570364E9 ; 0.0
27 ; 1.255336997867222E7 ; 2.0099416871476057E8 ; 3.215492953241276E8 ; 3.80338964004843E9 ; 0.0
28 ; 1.2568370799292797E7 ; 2.0100074233801925E8 ; 3.341026653027998E8 ; 4.0043838087631907E9 ; 0.0
29 ; 1.2578623435749E7 ; 2.0100762206491324E8 ; 3.466710361020926E8 ; 4.20538455110121E9 ; 0.0
30 ; 1.259413379327606E7 ; 2.010147985408934E8 ; 3.592496595378416E8 ; 4.406392173166123E9 ; 0.0
31 ; 1.2601574369451385E7 ; 2.010222623822755E8 ; 3.718437933311177E8 ; 4.607406971707017E9 ; 0.0
32 ; 1.2617402215027181E7 ; 2.0103000421525273E8 ; 3.844453677005691E8 ; 4.808429234089293E9 ; 0.0
33 ; 1.2634422593543742E7 ; 2.0103801471134335E8 ; 3.9706276991559625E8 ; 5.009459238304545E9 ; 0.0
34 ; 1.264212580602785E7 ; 2.010462846192517E8 ; 4.0969719250914E8 ; 5.210497253015889E9 ; 0.0
35 ; 1.2651210803879157E7 ; 2.010548047931842E8 ; 4.2233931831516784E8 ; 5.41154353763514E9 ; 0.0
36 ; 1.266732821976306E7 ; 2.0106356621771303E8 ; 4.34990529119047E8 ; 5.612598342428325E9 ; 0.0
37 ; 1.2674929697529847E7 ; 2.0107256002932188E8 ; 4.4765785733881E8 ; 5.813661908646038E9 ; 0.0
38 ; 1.268548116802961E7 ; 2.0108177753480121E8 ; 4.603327870363399E8 ; 6.01473446867536E9 ; 0.0
39 ; 1.269765322623235E7 ; 2.0109121022668406E8 ; 4.730182682043695E8 ; 6.215816246210161E9 ; 0.0
40 ; 1.2707742690730233E7 ; 2.0110084979592976E8 ; 4.8571592143060184E8 ; 6.416907456436845E9 ; 0.0
41 ; 1.2714591842111928E7 ; 2.0111068814207295E8 ; 4.9842366412133205E8 ; 6.618008306232775E9 ; 0.0
42 ; 1.2722500935268557E7 ; 2.0112071738105795E8 ; 5.11138255963444E8 ; 6.819118994374847E9 ; 0.0
43 ; 1.2731529546715103E7 ; 2.011309298509793E8 ; 5.238607568987126E8 ; 7.020239711755905E9 ; 0.0
44 ; 1.273509131247523E7 ; 2.011413181159429E8 ; 5.3659228644542766E8 ; 7.221370641606884E9 ; 0.0
45 ; 1.2744676700104084E7 ; 2.011518749682552E8 ; 5.493273777579029E8 ; 7.422511959722827E9 ; 0.0
46 ; 1.2753787636769745E7 ; 2.011625934291382E8 ; 5.62072054458007E8 ; 7.623663834691082E9 ; 0.0
47 ; 1.2756951792564524E7 ; 2.0117346674815518E8 ; 5.748258420947767E8 ; 7.82482642812022E9 ; 0.0
48 ; 1.2761676541586716E7 ; 2.0118448840152055E8 ; 5.875827938873413E8 ; 8.025999894868376E9 ; 0.0
49 ; 1.2764812778677123E7 ; 2.0119565208945343E8 ; 6.00344470428928E8 ; 8.2271843832698965E9 ; 0.0
50 ; 1.2769747599992692E7 ; 2.012069517327211E8 ; 6.131092832076051E8 ; 8.42838003535935E9 ; 0.0
51 ; 1.2777245200811623E7 ; 2.0121838146850497E8 ; 6.258790308075979E8 ; 8.629586987092072E9 ; 0.0
52 ; 1.2777722155973554E7 ; 2.0122993564570943E8 ; 6.386562760084095E8 ; 8.830805368560577E9 ; 0.0
53 ; 1.2781040282894498E7 ; 2.012416088198202E8 ; 6.51433998164383E8 ; 9.032035304206287E9 ; 0.0
54 ; 1.2782187317321448E7 ; 2.0125339574740845E8 ; 6.642150384472775E8 ; 9.233276913026108E9 ; 0.0
55 ; 1.2788793925859503E7 ; 2.0126529138036487E8 ; 6.76997225764599E8 ; 9.434530308773516E9 ; 0.0
56 ; 1.279318830025255E7 ; 2.012772908599378E8 ; 6.897860196904584E8 ; 9.635795600153881E9 ; 0.0
57 ; 1.2795330751513487E7 ; 2.012893895106404E8 ; 7.02579207990711E8 ; 9.837072891013819E9 ; 0.0
58 ; 1.2795470803632673E7 ; 2.013015828340831E8 ; 7.153745387422245E8 ; 1.003836228052446E10 ; 0.0
59 ; 1.2798759932830472E7 ; 2.013138665027789E8 ; 7.281700095458571E8 ; 1.0239663863358543E10 ; 0.0
60 ; 1.2801588451389298E7 ; 2.0132623635396376E8 ; 7.409687694786875E8 ; 1.0440977729861322E10 ; 0.0
61 ; 1.2802684646026984E7 ; 2.0133868838346624E8 ; 7.537703579300768E8 ; 1.0642303966215286E10 ; 0.0
62 ; 1.2807310234805217E7 ; 2.0135121873965552E8 ; 7.665730425761038E8 ; 1.0843642654598753E10 ; 0.0
63 ; 1.2809214668898318E7 ; 2.013638237174926E8 ; 7.79380352810909E8 ; 1.104499387333841E10 ; 0.0
64 ; 1.2808526852634732E7 ; 2.0137649975270373E8 ; 7.921895674798074E8 ; 1.1246357697055902E10 ; 0.0
65 ; 1.2811569577137766E7 ; 2.0138924341609228E8 ; 8.049980943324422E8 ; 1.1447734196808607E10 ; 0.0
66 ; 1.2813443087126356E7 ; 2.0140205140800172E8 ; 8.178096639095799E8 ; 1.1649123440224699E10 ; 0.0
67 ; 1.2814224177146586E7 ; 2.0141492055293846E8 ; 8.306231069967062E8 ; 1.18505254916327E10 ; 0.0
68 ; 1.2816224128778037E7 ; 2.0142784779436228E8 ; 8.434373311738528E8 ; 1.2051940412185638E10 ; 0.0
69 ; 1.2817674783399332E7 ; 2.0144083018964866E8 ; 8.562535553026308E8 ; 1.2253368259980001E10 ; 0.0
70 ; 1.2820355346022747E7 ; 2.0145386490522587E8 ; 8.690712300860301E8 ; 1.2454809090169651E10 ; 0.0
71 ; 1.2814766295160607E7 ; 2.0146694921188837E8 ; 8.818915854320529E8 ; 1.2656262955074877E10 ; 0.0
72 ; 1.2824042581670495E7 ; 2.0148008048028582E8 ; 8.947063517272135E8 ; 1.2857729904286766E10 ; 0.0
73 ; 1.2822290126082364E7 ; 2.0149325617658725E8 ; 9.07530394308884E8 ; 1.3059209984767052E10 ; 0.0
74 ; 1.2822103090157384E7 ; 2.0150647385831758E8 ; 9.203526844349664E8 ; 1.326070324094364E10 ; 0.0
75 ; 1.282519953795731E7 ; 2.015197311703639E8 ; 9.331747875251238E8 ; 1.3462209714801958E10 ; 0.0
76 ; 1.282339274339405E7 ; 2.0153302584114787E8 ; 9.459999870630811E8 ; 1.3663729445972322E10 ; 0.0
77 ; 1.282632504643238E7 ; 2.0154635567896008E8 ; 9.588233798064752E8 ; 1.386526247181347E10 ; 0.0
78 ; 1.2820079254267504E7 ; 2.015597185684523E8 ; 9.716497048529075E8 ; 1.4066808827492432E10 ; 0.0
79 ; 1.2814801618422639E7 ; 2.015731124672825E8 ; 9.84469784107175E8 ; 1.4268368546060884E10 ; 0.0
80 ; 1.28144565731508E7 ; 2.015865354029078E8 ; 9.972845857255976E8 ; 1.4469941658528168E10 ; 0.0
81 ; 1.280882603189689E7 ; 2.0159998546952054E8 ; 1.0100990422987484E9 ; 1.4671528193931076E10 ; 0.0
82 ; 1.2804766731553243E7 ; 2.0161346082512224E8 ; 1.0229078683306453E9 ; 1.4873128179400597E10 ; 0.0
83 ; 1.2801212697529411E7 ; 2.0162695968872982E8 ; 1.0357126350621985E9 ; 1.507474164022572E10 ; 0.0
84 ; 1.2797451934551036E7 ; 2.0164048033770964E8 ; 1.048513847759728E9 ; 1.527636859991445E10 ; 0.0
85 ; 1.2791236405941982E7 ; 2.0165402110523376E8 ; 1.061311299694279E9 ; 1.547800908025216E10 ; 0.0
86 ; 1.2786783577363612E7 ; 2.0166758037785342E8 ; 1.074102536100221E9 ; 1.5679663101357393E10 ; 0.0
87 ; 1.2785218101795692E7 ; 2.0168115659318507E8 ; 1.0868893196775846E9 ; 1.5881330681735247E10 ; 0.0
88 ; 1.2781661209446976E7 ; 2.016947482377035E8 ; 1.0996745377793803E9 ; 1.6083011838328432E10 ; 0.0
89 ; 1.277353200413688E7 ; 2.017083538446382E8 ; 1.1124561989888272E9 ; 1.6284706586566135E10 ; 0.0
90 ; 1.277325206169045E7 ; 2.0172197199196747E8 ; 1.125229730992964E9 ; 1.6486414940410774E10 ; 0.0
91 ; 1.276515682876215E7 ; 2.0173560130050653E8 ; 1.1380029830546546E9 ; 1.6688136912402742E10 ; 0.0
92 ; 1.2760840784180284E7 ; 2.01749240432085E8 ; 1.1507681398834167E9 ; 1.6889872513703249E10 ; 0.0
93 ; 1.2755468414268522E7 ; 2.017628880878096E8 ; 1.1635289806675968E9 ; 1.7091621754135334E10 ; 0.0
94 ; 1.2752064745160265E7 ; 2.0177654300640833E8 ; 1.1762844490818653E9 ; 1.7293384642223145E10 ; 0.0
95 ; 1.274337639255376E7 ; 2.017902039626519E8 ; 1.1890365138270257E9 ; 1.7495161185229553E10 ; 0.0
96 ; 1.2740034248719439E7 ; 2.0180386976584938E8 ; 1.2017798902195795E9 ; 1.7696951389192204E10 ; 0.0
97 ; 1.273252227290973E7 ; 2.018175392584136E8 ; 1.214519924468299E9 ; 1.7898755258958054E10 ; 0.0
98 ; 1.2729143823978996E7 ; 2.0183121131449404E8 ; 1.2272524467412086E9 ; 1.810057279821647E10 ; 0.0
99 ; 1.2722491978360297E7 ; 2.0184488483867308E8 ; 1.2399815905651875E9 ; 1.8302404009530964E10 ; 0.0
100 ; 1.2717550673049761E7 ; 2.0185855876472303E8 ; 1.2527040825435479E9 ; 1.8504248894369637E10 ; 0.0
101 ; 1.2710549414832283E7 ; 2.0187223205442077E8 ; 1.2654216332165976E9 ; 1.870610745313436E10 ; 0.0
102 ; 1.2702222773027217E7 ; 2.018859036964175E8 ; 1.27813218263143E9 ; 1.890797968518878E10 ; 0.0
103 ; 1.2700075643969461E7 ; 2.0189957270516044E8 ; 1.290834405404457E9 ; 1.91098655888852E10 ; 0.0
104 ; 1.2692603044859936E7 ; 2.019132381198645E8 ; 1.3035344810484266E9 ; 1.9311765161590363E10 ; 0.0
105 ; 1.2683550759914188E7 ; 2.0192689900353098E8 ; 1.3162270840932865E9 ; 1.9513678399710228E10 ; 0.0
106 ; 1.2679939904487027E7 ; 2.0194055444201148E8 ; 1.3289106348532007E9 ; 1.971560529871376E10 ; 0.0
107 ; 1.2670094380630795E7 ; 2.019542035431144E8 ; 1.3415905747576878E9 ; 1.9917545853155773E10 ; 0.0
108 ; 1.2663458274361636E7 ; 2.0196784543575218E8 ; 1.3542606691383185E9 ; 2.0119500056698887E10 ; 0.0
109 ; 1.26583191501105E7 ; 2.0198147926912737E8 ; 1.3669241274126801E9 ; 2.032146790213464E10 ; 0.0
110 ; 1.2648679482600264E7 ; 2.0199510421195534E8 ; 1.3795824465627906E9 ; 2.0523449381403767E10 ; 0.0
111 ; 1.2642171420049347E7 ; 2.0200871945172217E8 ; 1.3922311260453908E9 ; 2.0725444485615723E10 ; 0.0
112 ; 1.2635187531624949E7 ; 2.0202232419397587E8 ; 1.4048732974654403E9 ; 2.0927453205067444E10 ; 0.0
113 ; 1.262746655220562E7 ; 2.0203591766164917E8 ; 1.4175084849970653E9 ; 2.112947552926142E10 ; 0.0
114 ; 1.2615715923503587E7 ; 2.0204949909441277E8 ; 1.4301359515492709E9 ; 2.133151144692307E10 ; 0.0
115 ; 1.2607331751527779E7 ; 2.0206306774805713E8 ; 1.4427516674727745E9 ; 2.1533560946017483E10 ; 0.0
116 ; 1.2601816003674168E7 ; 2.0207662289390153E8 ; 1.4553589992243023E9 ; 2.173562401376554E10 ; 0.0
117 ; 1.2592955832842562E7 ; 2.020901638182295E8 ; 1.4679608152279766E9 ; 2.1937700636659443E10 ; 0.0
118 ; 1.2582942135633377E7 ; 2.0210368982174867E8 ; 1.4805537710608191E9 ; 2.2139790800477673E10 ; 0.0
119 ; 1.2577359302549707E7 ; 2.0211720021907443E8 ; 1.4931367131964526E9 ; 2.234189449029942E10 ; 0.0
120 ; 1.2570676406293355E7 ; 2.0213069433823603E8 ; 1.5057140724990022E9 ; 2.2544011690518494E10 ; 0.0
121 ; 1.2560140505792264E7 ; 2.0214417152020413E8 ; 1.5182847489052956E9 ; 2.274614238485673E10 ; 0.0
122 ; 1.254876992336147E7 ; 2.021576311184386E8 ; 1.530844889411088E9 ; 2.2948286556376934E10 ; 0.0
123 ; 1.254034520997779E7 ; 2.0217107249845594E8 ; 1.5433936593344495E9 ; 2.3150444187495373E10 ; 0.0
124 ; 1.253332733680257E7 ; 2.021844950374151E8 ; 1.5559340045444274E9 ; 2.3352615259993828E10 ; 0.0
125 ; 1.2523990059769591E7 ; 2.02197898123721E8 ; 1.5684673318812299E9 ; 2.3554799755031242E10 ; 0.0
126 ; 1.2512538468522621E7 ; 2.022112811566449E8 ; 1.5809913219409995E9 ; 2.3756997653154964E10 ; 0.0
127 ; 1.2504213664042527E7 ; 2.0222464354596075E8 ; 1.593503860409522E9 ; 2.395920893431161E10 ; 0.0
128 ; 1.2496528131590458E7 ; 2.022379847115968E8 ; 1.6060080740735645E9 ; 2.416143357785757E10 ; 0.0
129 ; 1.2485453348806698E7 ; 2.0225130408330202E8 ; 1.618504602205155E9 ; 2.4363671562569168E10 ; 0.0
130 ; 1.2474801586697882E7 ; 2.0226460110032615E8 ; 1.6309900555539615E9 ; 2.456592286665247E10 ; 0.0
131 ; 1.2458967468541892E7 ; 2.0227787521111333E8 ; 1.6434648571406593E9 ; 2.4768187467752796E10 ; 0.0
132 ; 1.2448102336989138E7 ; 2.022911258730081E8 ; 1.6559238246092012E9 ; 2.497046534296391E10 ; 0.0
133 ; 1.2433779987799658E7 ; 2.023043525519737E8 ; 1.6683719269461904E9 ; 2.5172756468836918E10 ; 0.0
134 ; 1.2420710470772723E7 ; 2.0231755472232193E8 ; 1.68080570693399E9 ; 2.5375060821388893E10 ; 0.0
135 ; 1.2405002402239617E7 ; 2.023307318664539E8 ; 1.6932264174047627E9 ; 2.5577378376111214E10 ; 0.0
136 ; 1.239046462209107E7 ; 2.0234388347461137E8 ; 1.7056314198070023E9 ; 2.577970910797767E10 ; 0.0
137 ; 1.2376141586656872E7 ; 2.0235700904463834E8 ; 1.7180218844290934E9 ; 2.5982052991452282E10 ; 0.0
138 ; 1.2364948126105746E7 ; 2.0237010808175182E8 ; 1.7303980260157502E9 ; 2.618441000049692E10 ; 0.0
139 ; 1.2347377071518015E7 ; 2.023831800983223E8 ; 1.742762974141856E9 ; 2.6386780108578674E10 ; 0.0
140 ; 1.2334893011870753E7 ; 2.023962246136626E8 ; 1.755110351213374E9 ; 2.6589163288677E10 ; 0.0
141 ; 1.2320033603024941E7 ; 2.0240924115382528E8 ; 1.7674452442252448E9 ; 2.679155951329066E10 ; 0.0
142 ; 1.2302086895289674E7 ; 2.0242222925140816E8 ; 1.7797652778282697E9 ; 2.6993968754444485E10 ; 0.0
143 ; 1.2288495519523928E7 ; 2.024351884453673E8 ; 1.7920673647235594E9 ; 2.7196390983695892E10 ; 0.0
144 ; 1.2272194972613359E7 ; 2.0244811828083742E8 ; 1.8043558602430832E9 ; 2.739882617214126E10 ; 0.0
145 ; 1.2264304548960129E7 ; 2.0246101830895948E8 ; 1.8166280552156966E9 ; 2.7601274290422096E10 ; 0.0
146 ; 1.2250231661963131E7 ; 2.024738880867148E8 ; 1.8288923597646568E9 ; 2.7803735308731056E10 ; 0.0
147 ; 1.2239395363005504E7 ; 2.0248672717676562E8 ; 1.84114259142662E9 ; 2.8006209196817772E10 ; 0.0
148 ; 1.2231054105470393E7 ; 2.0249953514730194E8 ; 1.8533819867896254E9 ; 2.8208695923994537E10 ; 0.0
149 ; 1.2223126074296376E7 ; 2.0251231157189417E8 ; 1.8656130408950958E9 ; 2.8411195459141838E10 ; 0.0
150 ; 1.2209595130628284E7 ; 2.025250560293514E8 ; 1.8778361669693923E9 ; 2.8613707770713734E10 ; 0.0
151 ; 1.2197540064272353E7 ; 2.0253776810358527E8 ; 1.8900457621000206E9 ; 2.8816232826743084E10 ; 0.0
152 ; 1.2188448446072867E7 ; 2.0255044738347864E8 ; 1.902243302164293E9 ; 2.901877059484667E10 ; 0.0
153 ; 1.2179108193329714E7 ; 2.0256309346275967E8 ; 1.9144317506103659E9 ; 2.922132104223015E10 ; 0.0
154 ; 1.216378530624905E7 ; 2.0257570593988034E8 ; 1.9266108588036957E9 ; 2.942388413569291E10 ; 0.0
155 ; 1.2157182910424965E7 ; 2.0258828441789964E8 ; 1.9387746441099448E9 ; 2.962645984163279E10 ; 0.0
156 ; 1.21480064117793E7 ; 2.0260082850437126E8 ; 1.9509318270203698E9 ; 2.982904812605069E10 ; 0.0
157 ; 1.213612878395092E7 ; 2.0261333781123513E8 ; 1.9630798334321492E9 ; 3.003164895455506E10 ; 0.0
158 ; 1.211946011229348E7 ; 2.026258119547134E8 ; 1.9752159622161E9 ; 3.0234262292366295E10 ; 0.0
159 ; 1.2112588318055753E7 ; 2.0263825055521E8 ; 1.9873354223283935E9 ; 3.0436888104321007E10 ; 0.0
160 ; 1.2101860739521092E7 ; 2.0265065323721394E8 ; 1.9994480106464493E9 ; 3.0639526354876217E10 ; 0.0
161 ; 1.2086467952806337E7 ; 2.026630196292063E8 ; 2.0115498713859704E9 ; 3.084217700811343E10 ; 0.0
162 ; 1.2081387269053167E7 ; 2.0267534936357045E8 ; 2.0236363393387766E9 ; 3.1044840027742638E10 ; 0.0
163 ; 1.2065873121007761E7 ; 2.0268764207650572E8 ; 2.0357177266078298E9 ; 3.124751537710621E10 ; 0.0
164 ; 1.205245628517794E7 ; 2.0269989740794402E8 ; 2.0477835997288375E9 ; 3.1450203019182716E10 ; 0.0
165 ; 1.2045013031961985E7 ; 2.0271211500146964E8 ; 2.0598360560140154E9 ; 3.165290291659066E10 ; 0.0
166 ; 1.202832614143048E7 ; 2.0272429450424194E8 ; 2.0718810690459774E9 ; 3.185561503159213E10 ; 0.0
167 ; 1.2021714697058765E7 ; 2.0273643556692067E8 ; 2.0839093951874077E9 ; 3.205833932609637E10 ; 0.0
168 ; 1.2009379442284135E7 ; 2.0274853784359422E8 ; 2.0959311098844664E9 ; 3.2261075761663292E10 ; 0.0
169 ; 1.2001976310077561E7 ; 2.0276060099171013E8 ; 2.1079404893267505E9 ; 3.2463824299506886E10 ; 0.0
170 ; 1.1983204843820006E7 ; 2.0277262467200834E8 ; 2.1199424656368282E9 ; 3.2666584900498596E10 ; 0.0
171 ; 1.1968370226563847E7 ; 2.0278460854845682E8 ; 2.1319256704806483E9 ; 3.2869357525170605E10 ; 0.0
172 ; 1.1959876648664357E7 ; 2.0279655228818917E8 ; 2.1438940407072122E9 ; 3.3072142133719063E10 ; 0.0
173 ; 1.1949640745217618E7 ; 2.0280845556144476E8 ; 2.1558539173558764E9 ; 3.327493868600725E10 ; 0.0
174 ; 1.1945740033414321E7 ; 2.028203180415109E8 ; 2.1678035581010942E9 ; 3.3477747141568695E10 ; 0.0
175 ; 1.1933523354122331E7 ; 2.028321394046669E8 ; 2.1797492981345086E9 ; 3.3680567459610207E10 ; 0.0
176 ; 1.192770452171482E7 ; 2.0284391933013025E8 ; 2.191682821488631E9 ; 3.3883399599014874E10 ; 0.0
177 ; 1.1920264139474314E7 ; 2.0285565750000462E8 ; 2.2036105260103455E9 ; 3.4086243518345005E10 ; 0.0
178 ; 1.1915287473528326E7 ; 2.028673535992297E8 ; 2.21553079014982E9 ; 3.428909917584501E10 ; 0.0
179 ; 1.1905149297151767E7 ; 2.0287900731553268E8 ; 2.227446077623348E9 ; 3.449196652944424E10 ; 0.0
180 ; 1.189995630920351E7 ; 2.028906183393816E8 ; 2.2393512269205E9 ; 3.4694845536759766E10 ; 0.0
181 ; 1.1893262470669651E7 ; 2.0290218636394018E8 ; 2.2512511832297034E9 ; 3.4897736155099144E10 ; 0.0
182 ; 1.188650276643951E7 ; 2.0291371108502412E8 ; 2.263144445700373E9 ; 3.510063834146308E10 ; 0.0
183 ; 1.1878798853472104E7 ; 2.0292519220105925E8 ; 2.2750309484668126E9 ; 3.53035520525481E10 ; 0.0
184 ; 1.1872076191083495E7 ; 2.029366294130407E8 ; 2.286909747320285E9 ; 3.550647724474916E10 ; 0.0
185 ; 1.1867324722955381E7 ; 2.0294802242449373E8 ; 2.2987818235113683E9 ; 3.57094138741622E10 ; 0.0
186 ; 1.1858097213739771E7 ; 2.0295937094143584E8 ; 2.3106491482343235E9 ; 3.591236189658669E10 ; 0.0
187 ; 1.1850696324261572E7 ; 2.029706746723402E8 ; 2.3225072454480634E9 ; 3.611532126752813E10 ; 0.0
188 ; 1.1843506886396935E7 ; 2.0298193332810023E8 ; 2.334357941772325E9 ; 3.631829194220047E10 ; 0.0
189 ; 1.1832988238584818E7 ; 2.0299314662199545E8 ; 2.346201448658722E9 ; 3.652127387552857E10 ; 0.0
190 ; 1.1827494087654974E7 ; 2.030043142696585E8 ; 2.358034436897307E9 ; 3.6724267022150566E10 ; 0.0
191 ; 1.182239322865768E7 ; 2.0301543598904333E8 ; 2.369861930984962E9 ; 3.692727133642023E10 ; 0.0
192 ; 1.181781537154437E7 ; 2.0302651150039428E8 ; 2.3816843242136197E9 ; 3.713028677240927E10 ; 0.0
193 ; 1.180595585999338E7 ; 2.0303754052621648E8 ; 2.393502139585164E9 ; 3.733331328390967E10 ; 0.0
194 ; 1.1802408063640926E7 ; 2.030485227912469E8 ; 2.4053080954451575E9 ; 3.753635082443588E10 ; 0.0
195 ; 1.17919029363294E7 ; 2.0305945802242678E8 ; 2.4171105035087986E9 ; 3.773939934722713E10 ; 0.0
