CSV File for the City 1 on Day 157
1 - Minute m 
2 - Power Consumed at minute m 
3 - Power Produced at minute m 
4 - Energy Consumed since the beginning of the day 
5 - Energy Produced since the beginning of the day 
6 - Energy Lost since the beginning of the day on lines starting from the city
 
0 ; 8053634.956617724 ; 1.055402939956418E8 ; 0.0 ; 0.0 ; 0.0
1 ; 8061080.014546223 ; 1.0569324475197583E8 ; 8053634.956617724 ; 1.055402939956418E8 ; 0.0
2 ; 8069213.507147133 ; 1.061549772081373E8 ; 1.6114714971163947E7 ; 2.1123353874761763E8 ; 0.0
3 ; 8084988.734604035 ; 1.0692549283275765E8 ; 2.418392847831108E7 ; 3.1738851595575494E8 ; 0.0
4 ; 8101098.09669888 ; 1.080047929418047E8 ; 3.2268917212915115E7 ; 4.243140087885126E8 ; 0.0
5 ; 8120801.1401986955 ; 1.0939287869135553E8 ; 4.0370015309613995E7 ; 5.323188017303173E8 ; 0.0
6 ; 8149977.853683232 ; 1.1108975107112643E8 ; 4.849081644981269E7 ; 6.417116804216728E8 ; 0.0
7 ; 8202173.28656399 ; 1.130954108988443E8 ; 5.664079430349592E7 ; 7.528014314927993E8 ; 0.0
8 ; 8272998.681236227 ; 1.1540985881553376E8 ; 6.484296759005991E7 ; 8.658968423916435E8 ; 0.0
9 ; 8380616.417443905 ; 1.1803309528178203E8 ; 7.311596627129614E7 ; 9.813067012071773E8 ; 0.0
10 ; 8556595.076986091 ; 1.209651205750342E8 ; 8.149658268874004E7 ; 1.0993397964889593E9 ; 0.0
11 ; 8839574.93489947 ; 1.242059347879549E8 ; 9.005317776572613E7 ; 1.2203049170639935E9 ; 0.0
12 ; 9290912.275107384 ; 1.2775553782787946E8 ; 9.88927527006256E7 ; 1.3445108518519483E9 ; 0.0
13 ; 9729995.427516429 ; 1.3161392941736281E8 ; 1.0818366497573298E8 ; 1.4722663896798277E9 ; 0.0
14 ; 9776507.78779144 ; 1.357811090958178E8 ; 1.1791366040324941E8 ; 1.6038803190971904E9 ; 0.0
15 ; 9791835.026206452 ; 1.402570762222197E8 ; 1.2769016819104086E8 ; 1.7396614281930082E9 ; 0.0
16 ; 9801200.758973226 ; 1.4504182997884175E8 ; 1.374820032172473E8 ; 1.879918504415228E9 ; 0.0
17 ; 9823020.545605136 ; 1.5013536937596753E8 ; 1.4728320397622055E8 ; 2.0249603343940697E9 ; 0.0
18 ; 9837339.278367572 ; 1.5553769325752002E8 ; 1.5710622452182567E8 ; 2.175095703770037E9 ; 0.0
19 ; 9849706.620496154 ; 1.612488003075314E8 ; 1.6694356380019325E8 ; 2.3306333970275574E9 ; 0.0
20 ; 9863281.448102215 ; 1.6726868905737016E8 ; 1.767932704206894E8 ; 2.4918821973350887E9 ; 0.0
21 ; 9879587.664761845 ; 1.7359735789363644E8 ; 1.866565518687916E8 ; 2.659150886392459E9 ; 0.0
22 ; 9891980.935831558 ; 1.8023480506662762E8 ; 1.9653613953355345E8 ; 2.832748244286095E9 ; 0.0
23 ; 9909054.746279545 ; 1.871810286992774E8 ; 2.06428120469385E8 ; 3.0129830493527226E9 ; 0.0
24 ; 9924036.384670995 ; 1.944360267964651E8 ; 2.1633717521566454E8 ; 3.200164078052E9 ; 0.0
25 ; 9939910.922615653 ; 2.0068783815278167E8 ; 2.2626121160033554E8 ; 3.394600104848465E9 ; 0.0
26 ; 9949253.813015763 ; 2.006900083991809E8 ; 2.362011225229512E8 ; 3.5952879430012465E9 ; 0.0
27 ; 9964340.65759804 ; 2.006923045377186E8 ; 2.4615037633596694E8 ; 3.7959779514004273E9 ; 0.0
28 ; 9976110.928369781 ; 2.0069472419815215E8 ; 2.56114716993565E8 ; 3.996670255938146E9 ; 0.0
29 ; 9992710.357755724 ; 2.0069726494092152E8 ; 2.6609082792193478E8 ; 4.197364980136298E9 ; 0.0
30 ; 1.000631037054973E7 ; 2.006999242667184E8 ; 2.760835382796905E8 ; 4.39806224507722E9 ; 0.0
31 ; 1.0020504577391E7 ; 2.007026996258209E8 ; 2.8608984865024024E8 ; 4.598762169343939E9 ; 0.0
32 ; 1.0030520457130007E7 ; 2.0070558842713463E8 ; 2.961103532276313E8 ; 4.79946486896976E9 ; 0.0
33 ; 1.0043540695856242E7 ; 2.007085880468882E8 ; 3.061408736847613E8 ; 5.000170457396894E9 ; 0.0
34 ; 1.005742607544094E7 ; 2.0071169583694145E8 ; 3.161844143806175E8 ; 5.200879045443783E9 ; 0.0
35 ; 1.006440396143008E7 ; 2.0071490913267097E8 ; 3.2624184045605844E8 ; 5.401590741280725E9 ; 0.0
36 ; 1.007373544955913E7 ; 2.007182252604066E8 ; 3.363062444174885E8 ; 5.602305650413396E9 ; 0.0
37 ; 1.008658742925275E7 ; 2.0072164154439965E8 ; 3.4637997986704767E8 ; 5.803023875673802E9 ; 0.0
38 ; 1.0098608806092348E7 ; 2.0072515531331027E8 ; 3.564665672963004E8 ; 6.003745517218202E9 ; 0.0
39 ; 1.0105791017798647E7 ; 2.0072876390620822E8 ; 3.6656517610239273E8 ; 6.204470672531512E9 ; 0.0
40 ; 1.0116801619200649E7 ; 2.007324646780866E8 ; 3.766709671201914E8 ; 6.40519943643772E9 ; 0.0
41 ; 1.0122328253537731E7 ; 2.0073625500489324E8 ; 3.8678776873939204E8 ; 6.605931901115807E9 ; 0.0
42 ; 1.0127198495925196E7 ; 2.0074013228808874E8 ; 3.9691009699292976E8 ; 6.8066681561207E9 ; 0.0
43 ; 1.0136471211939124E7 ; 2.0074409395874414E8 ; 4.0703729548885494E8 ; 7.007408288408789E9 ; 0.0
44 ; 1.0140262671957767E7 ; 2.007481374811939E8 ; 4.1717376670079404E8 ; 7.208152382367533E9 ; 0.0
45 ; 1.0143336186250992E7 ; 2.0075226035626265E8 ; 4.2731402937275183E8 ; 7.408900519848726E9 ; 0.0
46 ; 1.015034904121549E7 ; 2.0075646012408593E8 ; 4.374573655590028E8 ; 7.6096527802049885E9 ; 0.0
47 ; 1.0154916060181262E7 ; 2.0076073436654675E8 ; 4.476077146002183E8 ; 7.810409240329075E9 ; 0.0
48 ; 1.0153044102886371E7 ; 2.0076508070935047E8 ; 4.5776263066039956E8 ; 8.0111699746956215E9 ; 0.0
49 ; 1.0154089642390653E7 ; 2.0076949682376173E8 ; 4.6791567476328593E8 ; 8.211935055404972E9 ; 0.0
50 ; 1.0152201845765995E7 ; 2.0077398042802647E8 ; 4.780697644056766E8 ; 8.412704552228734E9 ; 0.0
51 ; 1.0154676269668229E7 ; 2.0077852928850263E8 ; 4.882219662514426E8 ; 8.613478532656761E9 ; 0.0
52 ; 1.0155753993310219E7 ; 2.007831412205229E8 ; 4.9837664252111083E8 ; 8.814257061945263E9 ; 0.0
53 ; 1.0153343923032057E7 ; 2.0078781408901155E8 ; 5.0853239651442105E8 ; 9.015040203165787E9 ; 0.0
54 ; 1.0154047930693293E7 ; 2.0079254580887768E8 ; 5.186857404374531E8 ; 9.215828017254799E9 ; 0.0
55 ; 1.0153488568790464E7 ; 2.0079733434520563E8 ; 5.2883978836814636E8 ; 9.416620563063677E9 ; 0.0
56 ; 1.015329586980398E7 ; 2.008021777132623E8 ; 5.389932769369369E8 ; 9.617417897408882E9 ; 0.0
57 ; 1.01523996929489E7 ; 2.0080707397834086E8 ; 5.491465728067409E8 ; 9.818220075122145E9 ; 0.0
58 ; 1.0150739654197885E7 ; 2.0081202125545835E8 ; 5.592989724996898E8 ; 1.0019027149100485E10 ; 0.0
59 ; 1.0152178610992892E7 ; 2.0081701770892397E8 ; 5.694497121538877E8 ; 1.0219839170355944E10 ; 0.0
60 ; 1.0147571486739218E7 ; 2.0082206155179378E8 ; 5.796018907648807E8 ; 1.0420656188064867E10 ; 0.0
61 ; 1.0147865209980762E7 ; 2.0082715104522648E8 ; 5.897494622516198E8 ; 1.0621478249616661E10 ; 0.0
62 ; 1.014593463477563E7 ; 2.008322844977533E8 ; 5.998973274616005E8 ; 1.0822305400661888E10 ; 0.0
63 ; 1.0147191263423648E7 ; 2.008374602644745E8 ; 6.100432620963762E8 ; 1.1023137685159641E10 ; 0.0
64 ; 1.014546886478078E7 ; 2.008426767461944E8 ; 6.201904533597999E8 ; 1.1223975145424116E10 ; 0.0
65 ; 1.0144155856592245E7 ; 2.00847932388504E8 ; 6.303359222245806E8 ; 1.1424817822170311E10 ; 0.0
66 ; 1.0141934356845051E7 ; 2.0085322568082207E8 ; 6.40480078081173E8 ; 1.1625665754558815E10 ; 0.0
67 ; 1.0135539371603584E7 ; 2.0085855515540197E8 ; 6.50622012438018E8 ; 1.1826518980239637E10 ; 0.0
68 ; 1.0133546432097146E7 ; 2.0086391938631284E8 ; 6.607575518096216E8 ; 1.2027377535395039E10 ; 0.0
69 ; 1.0132831616797378E7 ; 2.0086931698840135E8 ; 6.708910982417188E8 ; 1.2228241454781351E10 ; 0.0
70 ; 1.0130122056657398E7 ; 2.0087474661624062E8 ; 6.810239298585161E8 ; 1.2429110771769753E10 ; 0.0
71 ; 1.0129023846374558E7 ; 2.008802069630716E8 ; 6.911540519151735E8 ; 1.2629985518385994E10 ; 0.0
72 ; 1.0127058144465363E7 ; 2.0088569675974196E8 ; 7.01283075761548E8 ; 1.2830865725349066E10 ; 0.0
73 ; 1.0120593425879503E7 ; 2.0089121477364647E8 ; 7.114101339060134E8 ; 1.3031751422108809E10 ; 0.0
74 ; 1.0118490798898144E7 ; 2.0089675980767322E8 ; 7.215307273318928E8 ; 1.3232642636882456E10 ; 0.0
75 ; 1.0117459953856824E7 ; 2.0090233069915798E8 ; 7.31649218130791E8 ; 1.3433539396690128E10 ; 0.0
76 ; 1.0109598850427996E7 ; 2.0090792631885105E8 ; 7.417666780846478E8 ; 1.3634441727389286E10 ; 0.0
77 ; 1.0107492487229954E7 ; 2.009135455698972E8 ; 7.518762769350758E8 ; 1.3835349653708138E10 ; 0.0
78 ; 1.0097986711375328E7 ; 2.0091918738683262E8 ; 7.619837694223057E8 ; 1.4036263199278034E10 ; 0.0
79 ; 1.0088845882705811E7 ; 2.0092485073459914E8 ; 7.72081756133681E8 ; 1.4237182386664867E10 ; 0.0
80 ; 1.0082144385425046E7 ; 2.0093053460757828E8 ; 7.821706020163869E8 ; 1.4438107237399467E10 ; 0.0
81 ; 1.0075139655957606E7 ; 2.0093623802864558E8 ; 7.92252746401812E8 ; 1.4639037772007046E10 ; 0.0
82 ; 1.0065876795368679E7 ; 2.0094196004824665E8 ; 8.023278860577695E8 ; 1.4839974010035692E10 ; 0.0
83 ; 1.005164318366144E7 ; 2.0094769974349552E8 ; 8.123937628531382E8 ; 1.5040915970083939E10 ; 0.0
84 ; 1.0038927789228998E7 ; 2.0095345621729574E8 ; 8.224454060367997E8 ; 1.5241863669827435E10 ; 0.0
85 ; 1.0032135084398577E7 ; 2.0095922859748486E8 ; 8.324843338260287E8 ; 1.5442817126044731E10 ; 0.0
86 ; 1.0019633342526171E7 ; 2.0096501603600246E8 ; 8.425164689104273E8 ; 1.5643776354642216E10 ; 0.0
87 ; 1.001244360902611E7 ; 2.0097081770808178E8 ; 8.525361022529535E8 ; 1.5844741370678219E10 ; 0.0
88 ; 1.0004062600869602E7 ; 2.0097663281146502E8 ; 8.625485458619796E8 ; 1.6045712188386301E10 ; 0.0
89 ; 9990693.340467183 ; 2.0098246056564233E8 ; 8.725526084628493E8 ; 1.6246688821197765E10 ; 0.0
90 ; 9984301.7554257 ; 2.0098830021111393E8 ; 8.825433018033165E8 ; 1.6447671281763407E10 ; 0.0
91 ; 9971501.216685558 ; 2.0099415100867596E8 ; 8.925276035587422E8 ; 1.6648659581974522E10 ; 0.0
92 ; 9959996.411450386 ; 2.010000122387285E8 ; 9.024991047754277E8 ; 1.6849653732983198E10 ; 0.0
93 ; 9950382.120564835 ; 2.010058832006067E8 ; 9.124591011868781E8 ; 1.7050653745221926E10 ; 0.0
94 ; 9935657.492173845 ; 2.0101176321193373E8 ; 9.224094833074429E8 ; 1.725165962842253E10 ; 0.0
95 ; 9923368.350921256 ; 2.0101765160799536E8 ; 9.323451407996167E8 ; 1.7452671391634464E10 ; 0.0
96 ; 9917474.725283368 ; 2.0102354774113595E8 ; 9.42268509150538E8 ; 1.765368904324246E10 ; 0.0
97 ; 9906343.504032105 ; 2.0102945098017502E8 ; 9.521859838758214E8 ; 1.7854712590983593E10 ; 0.0
98 ; 9887305.93703853 ; 2.0103536070984402E8 ; 9.620923273798535E8 ; 1.8055742041963768E10 ; 0.0
99 ; 9878685.252896387 ; 2.0104127633024278E8 ; 9.71979633316892E8 ; 1.825677740267361E10 ; 0.0
100 ; 9864073.718126012 ; 2.0104719725631514E8 ; 9.818583185697885E8 ; 1.8457818679003853E10 ; 0.0
101 ; 9853321.421778318 ; 2.0105312291734308E8 ; 9.917223922879145E8 ; 1.8658865876260166E10 ; 0.0
102 ; 9841187.231964966 ; 2.0105905275645915E8 ; 1.0015757137096928E9 ; 1.885991899917751E10 ; 0.0
103 ; 9829088.622074753 ; 2.0106498623017594E8 ; 1.0114169009416578E9 ; 1.9060978051933968E10 ; 0.0
104 ; 9816888.666034542 ; 2.0107092280793306E8 ; 1.0212459895637325E9 ; 1.9262043038164143E10 ; 0.0
105 ; 9803999.648032367 ; 2.010768619716602E8 ; 1.0310628782297671E9 ; 1.9463113960972076E10 ; 0.0
106 ; 9788236.925239371 ; 2.0108280321535608E8 ; 1.0408668778777995E9 ; 1.9664190822943737E10 ; 0.0
107 ; 9776844.257948905 ; 2.0108874604468298E8 ; 1.0506551148030388E9 ; 1.9865273626159092E10 ; 0.0
108 ; 9760358.953236718 ; 2.0109468997657594E8 ; 1.0604319590609877E9 ; 2.0066362372203773E10 ; 0.0
109 ; 9750288.876409123 ; 2.011006345388663E8 ; 1.0701923180142244E9 ; 2.026745706218035E10 ; 0.0
110 ; 9734560.560774492 ; 2.0110657926991937E8 ; 1.0799426068906336E9 ; 2.046855769671922E10 ; 0.0
111 ; 9723975.00498845 ; 2.011125237182849E8 ; 1.0896771674514081E9 ; 2.066966427598914E10 ; 0.0
112 ; 9715001.778520336 ; 2.011184674423611E8 ; 1.0994011424563966E9 ; 2.0870776799707424E10 ; 0.0
113 ; 9693303.60791024 ; 2.0112441001007047E8 ; 1.109116144234917E9 ; 2.1071895267149784E10 ; 0.0
114 ; 9682968.74261614 ; 2.0113035099854824E8 ; 1.118809447842827E9 ; 2.1273019677159855E10 ; 0.0
115 ; 9669965.702240486 ; 2.011362899938417E8 ; 1.1284924165854433E9 ; 2.14741500281584E10 ; 0.0
116 ; 9656398.557272483 ; 2.0114222659062108E8 ; 1.1381623822876837E9 ; 2.1675286318152245E10 ; 0.0
117 ; 9641435.637189489 ; 2.0114816039190114E8 ; 1.1478187808449562E9 ; 2.1876428544742867E10 ; 0.0
118 ; 9626953.79020808 ; 2.0115409100877267E8 ; 1.1574602164821455E9 ; 2.207757670513477E10 ; 0.0
119 ; 9609471.744706409 ; 2.0116001806014448E8 ; 1.1670871702723536E9 ; 2.2278730796143543E10 ; 0.0
120 ; 9598076.540998256 ; 2.0116594117249447E8 ; 1.17669664201706E9 ; 2.247989081420369E10 ; 0.0
121 ; 9578863.906642266 ; 2.0117185997963023E8 ; 1.1862947185580583E9 ; 2.2681056755376183E10 ; 0.0
122 ; 9566115.83101276 ; 2.0117777412245813E8 ; 1.1958735824647005E9 ; 2.2882228615355812E10 ; 0.0
123 ; 9545248.157656474 ; 2.011836832487613E8 ; 1.2054396982957132E9 ; 2.308340638947827E10 ; 0.0
124 ; 9533807.358910024 ; 2.0118958701298553E8 ; 1.2149849464533696E9 ; 2.328459007272703E10 ; 0.0
125 ; 9515014.370932791 ; 2.011954850760332E8 ; 1.2245187538122797E9 ; 2.3485779659740017E10 ; 0.0
126 ; 9502434.061641937 ; 2.012013771050647E8 ; 1.2340337681832125E9 ; 2.368697514481605E10 ; 0.0
127 ; 9486000.797805658 ; 2.0120726277330703E8 ; 1.2435362022448545E9 ; 2.3888176521921116E10 ; 0.0
128 ; 9466846.034163885 ; 2.0121314175986972E8 ; 1.25302220304266E9 ; 2.4089383784694424E10 ; 0.0
129 ; 9451883.30303093 ; 2.0121901374956718E8 ; 1.262489049076824E9 ; 2.4290596926454292E10 ; 0.0
130 ; 9436445.95505101 ; 2.0122487843274763E8 ; 1.271940932379855E9 ; 2.449181594020386E10 ; 0.0
131 ; 9413871.406934984 ; 2.0123073550512835E8 ; 1.2813773783349059E9 ; 2.469304081863661E10 ; 0.0
132 ; 9393708.515728362 ; 2.0123658466763678E8 ; 1.2907912497418408E9 ; 2.4894271554141735E10 ; 0.0
133 ; 9366738.166767187 ; 2.0124242562625736E8 ; 1.3001849582575693E9 ; 2.5095508138809372E10 ; 0.0
134 ; 9346912.391740449 ; 2.0124825809188423E8 ; 1.3095516964243364E9 ; 2.529675056443563E10 ; 0.0
135 ; 9325158.76530323 ; 2.012540817801787E8 ; 1.318898608816077E9 ; 2.5497998822527515E10 ; 0.0
136 ; 9303412.926799385 ; 2.0125989641143245E8 ; 1.3282237675813801E9 ; 2.5699252904307693E10 ; 0.0
137 ; 9282171.77571338 ; 2.0126570171043512E8 ; 1.3375271805081794E9 ; 2.5900512800719128E10 ; 0.0
138 ; 9256270.048602631 ; 2.0127149740634704E8 ; 1.3468093522838929E9 ; 2.610177850242956E10 ; 0.0
139 ; 9235443.118509227 ; 2.012772832325763E8 ; 1.3560656223324955E9 ; 2.6303049999835907E10 ; 0.0
140 ; 9211439.53607622 ; 2.0128305892666024E8 ; 1.3653010654510047E9 ; 2.650432728306848E10 ; 0.0
141 ; 9186367.967418984 ; 2.0128882423015115E8 ; 1.374512504987081E9 ; 2.670561034199514E10 ; 0.0
142 ; 9163369.889274303 ; 2.012945788885061E8 ; 1.3836988729545E9 ; 2.6906899166225292E10 ; 0.0
143 ; 9142293.384467682 ; 2.0130032265098056E8 ; 1.3928622428437743E9 ; 2.71081937451138E10 ; 0.0
144 ; 9111938.9277227 ; 2.013060552705259E8 ; 1.402004536228242E9 ; 2.7309494067764782E10 ; 0.0
145 ; 9100061.499263903 ; 2.0131177650369033E8 ; 1.4111164751559646E9 ; 2.751080012303531E10 ; 0.0
146 ; 9080889.55368932 ; 2.013174861105234E8 ; 1.4202165366552286E9 ; 2.7712111899538998E10 ; 0.0
147 ; 9068706.011652688 ; 2.0132318385448396E8 ; 1.4292974262089179E9 ; 2.791342938564952E10 ; 0.0
148 ; 9048096.074186904 ; 2.013288695023511E8 ; 1.4383661322205706E9 ; 2.8114752569504005E10 ; 0.0
149 ; 9035697.372320803 ; 2.013345428241384E8 ; 1.4474142282947574E9 ; 2.8316081439006355E10 ; 0.0
150 ; 9015840.537712386 ; 2.0134020359301102E8 ; 1.4564499256670783E9 ; 2.8517415981830494E10 ; 0.0
151 ; 9004898.9079653 ; 2.0134585158520558E8 ; 1.4654657662047906E9 ; 2.8718756185423504E10 ; 0.0
152 ; 8982380.355468562 ; 2.0135148657995322E8 ; 1.4744706651127558E9 ; 2.892010203700871E10 ; 0.0
153 ; 8965603.690942096 ; 2.013571083594047E8 ; 1.4834530454682243E9 ; 2.912145352358866E10 ; 0.0
154 ; 8950100.767119527 ; 2.0136271670855856E8 ; 1.4924186491591663E9 ; 2.9322810631948067E10 ; 0.0
155 ; 8936888.091037739 ; 2.013683114151915E8 ; 1.5013687499262857E9 ; 2.9524173348656624E10 ; 0.0
156 ; 8917029.554113355 ; 2.0137389226979116E8 ; 1.5103056380173235E9 ; 2.9725541660071815E10 ; 0.0
157 ; 8901522.759871617 ; 2.0137945906549132E8 ; 1.519222667571437E9 ; 2.9926915552341606E10 ; 0.0
158 ; 8882555.799949218 ; 2.0138501159800908E8 ; 1.5281241903313086E9 ; 3.0128295011407097E10 ; 0.0
159 ; 8864954.351956848 ; 2.013905496655843E8 ; 1.5370067461312578E9 ; 3.0329680023005104E10 ; 0.0
160 ; 8847021.948177988 ; 2.0139607306892112E8 ; 1.5458717004832146E9 ; 3.053107057267069E10 ; 0.0
161 ; 8830593.467188032 ; 2.014015816111313E8 ; 1.5547187224313927E9 ; 3.073246664573961E10 ; 0.0
162 ; 8815226.690449258 ; 2.0140707509767962E8 ; 1.5635493158985808E9 ; 3.093386822735074E10 ; 0.0
163 ; 8799030.125780111 ; 2.0141255333633098E8 ; 1.57236454258903E9 ; 3.1135275302448418E10 ; 0.0
164 ; 8776934.815403257 ; 2.0141801613709924E8 ; 1.5811635727148101E9 ; 3.1336687855784748E10 ; 0.0
165 ; 8762945.272702938 ; 2.01423463312198E8 ; 1.5899405075302134E9 ; 3.153810587192185E10 ; 0.0
166 ; 8749632.273344472 ; 2.0142889467599276E8 ; 1.5987034528029163E9 ; 3.1739529335234047E10 ; 0.0
167 ; 8727975.857964018 ; 2.014343100449546E8 ; 1.6074530850762608E9 ; 3.1940958229910038E10 ; 0.0
168 ; 8707378.510266189 ; 2.0143970923761576E8 ; 1.6161810609342248E9 ; 3.2142392539954994E10 ; 0.0
169 ; 8688983.56109698 ; 2.014450920745263E8 ; 1.6248884394444911E9 ; 3.234383224919261E10 ; 0.0
170 ; 8673357.956207737 ; 2.014504583782124E8 ; 1.633577423005588E9 ; 3.254527734126714E10 ; 0.0
171 ; 8657378.146270981 ; 2.014558079731359E8 ; 1.6422507809617958E9 ; 3.274672779964535E10 ; 0.0
172 ; 8637860.222405648 ; 2.0146114068565515E8 ; 1.6509081591080668E9 ; 3.294818360761849E10 ; 0.0
173 ; 8620665.547105959 ; 2.0146645634398744E8 ; 1.6595460193304725E9 ; 3.3149644748304142E10 ; 0.0
174 ; 8605404.56065426 ; 2.0147175477817205E8 ; 1.6681666848775785E9 ; 3.335111120464813E10 ; 0.0
175 ; 8594307.39899646 ; 2.014770358200351E8 ; 1.6767720894382327E9 ; 3.35525829594263E10 ; 0.0
176 ; 8577084.467696086 ; 2.0148229930315524E8 ; 1.685366396837229E9 ; 3.3754059995246334E10 ; 0.0
177 ; 8561218.021638785 ; 2.0148754506283036E8 ; 1.6939434813049252E9 ; 3.3955542294549488E10 ; 0.0
178 ; 8552425.642345054 ; 2.0149277293604556E8 ; 1.702504699326564E9 ; 3.415702983961232E10 ; 0.0
179 ; 8538456.100753205 ; 2.0149798276144218E8 ; 1.711057124968909E9 ; 3.4358522612548367E10 ; 0.0
180 ; 8524112.348670807 ; 2.015031743792875E8 ; 1.7195955810696623E9 ; 3.456002059530981E10 ; 0.0
181 ; 8507709.82687056 ; 2.0150834763144583E8 ; 1.728119693418333E9 ; 3.4761523769689095E10 ; 0.0
182 ; 8495460.555178037 ; 2.0151350236135012E8 ; 1.7366274032452035E9 ; 3.496303211732054E10 ; 0.0
183 ; 8478217.081569646 ; 2.015186384139748E8 ; 1.7451228638003814E9 ; 3.516454561968189E10 ; 0.0
184 ; 8467693.132966496 ; 2.015237556358092E8 ; 1.753601080881951E9 ; 3.536606425809587E10 ; 0.0
185 ; 8454729.285761036 ; 2.0152885387483215E8 ; 1.7620687740149176E9 ; 3.556758801373168E10 ; 0.0
186 ; 8440119.53483313 ; 2.0153393298048693E8 ; 1.7705235033006787E9 ; 3.5769116867606514E10 ; 0.0
187 ; 8421925.975965273 ; 2.0153899280365735E8 ; 1.778963622835512E9 ; 3.5970650800587E10 ; 0.0
188 ; 8407909.86908725 ; 2.0154403319664457E8 ; 1.7873855488114772E9 ; 3.6172189793390656E10 ; 0.0
189 ; 8394155.24054796 ; 2.0154905401314437E8 ; 1.7957934586805644E9 ; 3.63737338265873E10 ; 0.0
190 ; 8382897.47438367 ; 2.015540551082255E8 ; 1.8041876139211123E9 ; 3.657528288060045E10 ; 0.0
191 ; 8362450.940731996 ; 2.0155903633830833E8 ; 1.812570511395496E9 ; 3.677683693570867E10 ; 0.0
192 ; 8354401.153249712 ; 2.015639975611445E8 ; 1.820932962336228E9 ; 3.697839597204698E10 ; 0.0
193 ; 8337662.164988376 ; 2.0156893863579693E8 ; 1.8292873634894776E9 ; 3.717995996960812E10 ; 0.0
194 ; 8325159.430056358 ; 2.015738594226207E8 ; 1.837625025654466E9 ; 3.738152890824392E10 ; 0.0
195 ; 8307902.010939435 ; 2.0157875978324425E8 ; 1.8459501850845222E9 ; 3.758310276766654E10 ; 0.0
196 ; 8297362.302311646 ; 2.0158363958055136E8 ; 1.8542580870954616E9 ; 3.778468152744978E10 ; 0.0
197 ; 8278818.481123876 ; 2.0158849867866364E8 ; 1.8625554493977733E9 ; 3.7986265167030334E10 ; 0.0
198 ; 8269927.4115635445 ; 2.0159333694292346E8 ; 1.8708342678788972E9 ; 3.8187853665709E10 ; 0.0
199 ; 8254035.797693694 ; 2.0159815423987758E8 ; 1.8791041952904608E9 ; 3.8389447002651924E10 ; 0.0
