CSV File for the City 2 on Day 11
1 - Minute m 
2 - Power Consumed at minute m 
3 - Power Produced at minute m 
4 - Energy Consumed since the beginning of the day 
5 - Energy Produced since the beginning of the day 
6 - Energy Lost since the beginning of the day on lines starting from the city
 
0 ; 1.0288186381933445E7 ; 1.2228094120637458E7 ; 0.0 ; 0.0 ; 0.0
1 ; 1.0302735244707732E7 ; 1.2228094120637458E7 ; 1.0288186381933445E7 ; 1.2228094120637458E7 ; 0.0
2 ; 1.0311180327454284E7 ; 1.2228094120637458E7 ; 2.0590921626641177E7 ; 2.4456188241274916E7 ; 0.0
3 ; 1.032198156037531E7 ; 1.2228094120637458E7 ; 3.090210195409546E7 ; 3.668428236191237E7 ; 0.0
4 ; 1.033722762567227E7 ; 1.2228094120637458E7 ; 4.122408351447077E7 ; 4.891237648254983E7 ; 0.0
5 ; 1.03549298212874E7 ; 1.2228094120637458E7 ; 5.156131114014304E7 ; 6.114047060318729E7 ; 0.0
6 ; 1.0379967098696671E7 ; 1.2228094120637458E7 ; 6.191624096143044E7 ; 7.336856472382475E7 ; 0.0
7 ; 1.0416606423198318E7 ; 1.2228094120637458E7 ; 7.229620806012711E7 ; 8.559665884446222E7 ; 0.0
8 ; 1.0467373903435053E7 ; 1.2228094120637458E7 ; 8.271281448332542E7 ; 9.782475296509968E7 ; 0.0
9 ; 1.0543291657734318E7 ; 1.2228094120637458E7 ; 9.318018838676047E7 ; 1.1005284708573714E8 ; 0.0
10 ; 1.0658137134737758E7 ; 1.2228094120637458E7 ; 1.037234800444948E8 ; 1.222809412063746E8 ; 0.0
11 ; 1.0847007664485719E7 ; 1.2228094120637458E7 ; 1.1438161717923255E8 ; 1.3450903532701206E8 ; 0.0
12 ; 1.1146811816027198E7 ; 1.2228094120637458E7 ; 1.2522862484371828E8 ; 1.467371294476495E8 ; 0.0
13 ; 1.143646777167419E7 ; 1.2228094120637458E7 ; 1.3637543665974548E8 ; 1.5896522356828696E8 ; 0.0
14 ; 1.14711979687341E7 ; 1.2228094120637458E7 ; 1.4781190443141967E8 ; 1.711933176889244E8 ; 0.0
15 ; 1.1484086499853905E7 ; 1.2228094120637458E7 ; 1.5928310240015376E8 ; 1.8342141180956185E8 ; 0.0
16 ; 1.1493928556146404E7 ; 1.2228094120637458E7 ; 1.7076718890000767E8 ; 1.956495059301993E8 ; 0.0
17 ; 1.1508163523050206E7 ; 1.2228094120637458E7 ; 1.8226111745615408E8 ; 2.0787760005083674E8 ; 0.0
18 ; 1.1523298081942502E7 ; 1.2228094120637458E7 ; 1.937692809792043E8 ; 2.201056941714742E8 ; 0.0
19 ; 1.1538746827694086E7 ; 1.2228094120637458E7 ; 2.052925790611468E8 ; 2.3233378829211164E8 ; 0.0
20 ; 1.1549585114422798E7 ; 1.2228094120637458E7 ; 2.1683132588884088E8 ; 2.4456188241274908E8 ; 0.0
21 ; 1.1561837163131263E7 ; 1.2228094120637458E7 ; 2.2838091100326368E8 ; 2.5678997653338653E8 ; 0.0
22 ; 1.1577487221215846E7 ; 1.2228094120637458E7 ; 2.3994274816639495E8 ; 2.69018070654024E8 ; 0.0
23 ; 1.1591046516602382E7 ; 1.2228094120637458E7 ; 2.515202353876108E8 ; 2.812461647746615E8 ; 0.0
24 ; 1.1601075466619054E7 ; 1.2228094120637458E7 ; 2.631112819042132E8 ; 2.9347425889529896E8 ; 0.0
25 ; 1.1614855257140609E7 ; 1.2228094120637458E7 ; 2.7471235737083226E8 ; 3.0570235301593643E8 ; 0.0
26 ; 1.1631706391476281E7 ; 1.2228094120637458E7 ; 2.863272126279729E8 ; 3.179304471365739E8 ; 0.0
27 ; 1.1644978941055432E7 ; 1.2228094120637458E7 ; 2.979589190194492E8 ; 3.301585412572114E8 ; 0.0
28 ; 1.1653997265785942E7 ; 1.2228094120637458E7 ; 3.096038979605046E8 ; 3.4238663537784886E8 ; 0.0
29 ; 1.1667972358873425E7 ; 1.2228094120637458E7 ; 3.212578952262905E8 ; 3.5461472949848634E8 ; 0.0
30 ; 1.1677721209228395E7 ; 1.2228094120637458E7 ; 3.3292586758516395E8 ; 3.668428236191238E8 ; 0.0
31 ; 1.1691107365203355E7 ; 1.2228094120637458E7 ; 3.4460358879439235E8 ; 3.790709177397613E8 ; 0.0
32 ; 1.17050962060672E7 ; 1.2228094120637458E7 ; 3.562946961595957E8 ; 3.9129901186039877E8 ; 0.0
33 ; 1.1712083948754327E7 ; 1.2228094120637458E7 ; 3.6799979236566293E8 ; 4.0352710598103625E8 ; 0.0
34 ; 1.1724145528460478E7 ; 1.2228094120637458E7 ; 3.7971187631441724E8 ; 4.157552001016737E8 ; 0.0
35 ; 1.1740707823248863E7 ; 1.2228094120637458E7 ; 3.9143602184287775E8 ; 4.279832942223112E8 ; 0.0
36 ; 1.1746322568766072E7 ; 1.2228094120637458E7 ; 4.031767296661266E8 ; 4.402113883429487E8 ; 0.0
37 ; 1.1755864099915056E7 ; 1.2228094120637458E7 ; 4.1492305223489267E8 ; 4.5243948246358615E8 ; 0.0
38 ; 1.1767047650762882E7 ; 1.2228094120637458E7 ; 4.266789163348077E8 ; 4.646675765842236E8 ; 0.0
39 ; 1.1775748901355091E7 ; 1.2228094120637458E7 ; 4.3844596398557055E8 ; 4.768956707048611E8 ; 0.0
40 ; 1.1785894106068032E7 ; 1.2228094120637458E7 ; 4.5022171288692564E8 ; 4.891237648254986E8 ; 0.0
41 ; 1.1790427966578038E7 ; 1.2228094120637458E7 ; 4.6200760699299365E8 ; 5.0135185894613606E8 ; 0.0
42 ; 1.1803445514792854E7 ; 1.2228094120637458E7 ; 4.737980349595717E8 ; 5.1357995306677353E8 ; 0.0
43 ; 1.1809754052062118E7 ; 1.2228094120637458E7 ; 4.856014804743646E8 ; 5.25808047187411E8 ; 0.0
44 ; 1.181924770965573E7 ; 1.2228094120637458E7 ; 4.974112345264267E8 ; 5.380361413080485E8 ; 0.0
45 ; 1.182058946432518E7 ; 1.2228094120637458E7 ; 5.092304822360824E8 ; 5.502642354286859E8 ; 0.0
46 ; 1.1828366899899093E7 ; 1.2228094120637458E7 ; 5.2105107170040756E8 ; 5.624923295493233E8 ; 0.0
47 ; 1.1833200853238152E7 ; 1.2228094120637458E7 ; 5.3287943860030663E8 ; 5.747204236699607E8 ; 0.0
48 ; 1.1836695881499317E7 ; 1.2228094120637458E7 ; 5.447126394535447E8 ; 5.869485177905982E8 ; 0.0
49 ; 1.184409832571249E7 ; 1.2228094120637458E7 ; 5.56549335335044E8 ; 5.991766119112356E8 ; 0.0
50 ; 1.1846055616672141E7 ; 1.2228094120637458E7 ; 5.683934336607565E8 ; 6.11404706031873E8 ; 0.0
51 ; 1.1850099182012353E7 ; 1.2228094120637458E7 ; 5.802394892774286E8 ; 6.236328001525104E8 ; 0.0
52 ; 1.1855206943076164E7 ; 1.2228094120637458E7 ; 5.92089588459441E8 ; 6.358608942731478E8 ; 0.0
53 ; 1.1853030505197449E7 ; 1.2228094120637458E7 ; 6.039447954025171E8 ; 6.480889883937852E8 ; 0.0
54 ; 1.1861066672547715E7 ; 1.2228094120637458E7 ; 6.157978259077145E8 ; 6.603170825144227E8 ; 0.0
55 ; 1.1862738340270631E7 ; 1.2228094120637458E7 ; 6.276588925802622E8 ; 6.725451766350601E8 ; 0.0
56 ; 1.1867683588953512E7 ; 1.2228094120637458E7 ; 6.395216309205328E8 ; 6.847732707556975E8 ; 0.0
57 ; 1.1867854025126314E7 ; 1.2228094120637458E7 ; 6.513893145094863E8 ; 6.970013648763349E8 ; 0.0
58 ; 1.1870862308762055E7 ; 1.2228094120637458E7 ; 6.632571685346127E8 ; 7.092294589969723E8 ; 0.0
59 ; 1.1876038635956042E7 ; 1.2228094120637458E7 ; 6.751280308433747E8 ; 7.214575531176097E8 ; 0.0
60 ; 1.1875628729114695E7 ; 1.2228094120637458E7 ; 6.870040694793308E8 ; 7.336856472382472E8 ; 0.0
61 ; 1.187845670177593E7 ; 1.2228094120637458E7 ; 6.988796982084454E8 ; 7.459137413588846E8 ; 0.0
62 ; 1.188066820010936E7 ; 1.2228094120637458E7 ; 7.107581549102213E8 ; 7.58141835479522E8 ; 0.0
63 ; 1.1881280826979479E7 ; 1.2228094120637458E7 ; 7.226388231103307E8 ; 7.703699296001594E8 ; 0.0
64 ; 1.1883623507291771E7 ; 1.2228094120637458E7 ; 7.345201039373102E8 ; 7.825980237207968E8 ; 0.0
65 ; 1.18815186280304E7 ; 1.2228094120637458E7 ; 7.46403727444602E8 ; 7.948261178414342E8 ; 0.0
66 ; 1.1887675121398816E7 ; 1.2228094120637458E7 ; 7.582852460726324E8 ; 8.070542119620717E8 ; 0.0
67 ; 1.1887074019550025E7 ; 1.2228094120637458E7 ; 7.701729211940312E8 ; 8.192823060827091E8 ; 0.0
68 ; 1.1888368016813064E7 ; 1.2228094120637458E7 ; 7.820599952135813E8 ; 8.315104002033465E8 ; 0.0
69 ; 1.1892264693754928E7 ; 1.2228094120637458E7 ; 7.939483632303944E8 ; 8.437384943239839E8 ; 0.0
70 ; 1.189260037309382E7 ; 1.2228094120637458E7 ; 8.058406279241493E8 ; 8.559665884446213E8 ; 0.0
71 ; 1.1894693323050965E7 ; 1.2228094120637458E7 ; 8.177332282972431E8 ; 8.681946825652587E8 ; 0.0
72 ; 1.1896318413509004E7 ; 1.2228094120637458E7 ; 8.296279216202941E8 ; 8.804227766858962E8 ; 0.0
73 ; 1.1892487622304933E7 ; 1.2228094120637458E7 ; 8.415242400338031E8 ; 8.926508708065336E8 ; 0.0
74 ; 1.1893781973246701E7 ; 1.2228094120637458E7 ; 8.53416727656108E8 ; 9.04878964927171E8 ; 0.0
75 ; 1.1898842016477631E7 ; 1.2228094120637458E7 ; 8.653105096293547E8 ; 9.171070590478084E8 ; 0.0
76 ; 1.1895982145381918E7 ; 1.2228094120637458E7 ; 8.772093516458323E8 ; 9.293351531684458E8 ; 0.0
77 ; 1.1894660621850234E7 ; 1.2228094120637458E7 ; 8.891053337912142E8 ; 9.415632472890832E8 ; 0.0
78 ; 1.1893783920178069E7 ; 1.2228094120637458E7 ; 9.009999944130645E8 ; 9.537913414097207E8 ; 0.0
79 ; 1.189152094909701E7 ; 1.2228094120637458E7 ; 9.128937783332425E8 ; 9.660194355303581E8 ; 0.0
80 ; 1.1887182819331057E7 ; 1.2228094120637458E7 ; 9.247852992823396E8 ; 9.782475296509955E8 ; 0.0
81 ; 1.1883594382655842E7 ; 1.2228094120637458E7 ; 9.366724821016706E8 ; 9.904756237716329E8 ; 0.0
82 ; 1.1878931089817202E7 ; 1.2228094120637458E7 ; 9.485560764843265E8 ; 1.0027037178922703E9 ; 0.0
83 ; 1.1877571243124122E7 ; 1.2228094120637458E7 ; 9.604350075741436E8 ; 1.0149318120129077E9 ; 0.0
84 ; 1.1871447102124654E7 ; 1.2228094120637458E7 ; 9.723125788172678E8 ; 1.0271599061335452E9 ; 0.0
85 ; 1.186826243309584E7 ; 1.2228094120637458E7 ; 9.841840259193925E8 ; 1.0393880002541826E9 ; 0.0
86 ; 1.1864990318668552E7 ; 1.2228094120637458E7 ; 9.960522883524883E8 ; 1.05161609437482E9 ; 0.0
87 ; 1.1863013059659068E7 ; 1.2228094120637458E7 ; 1.0079172786711569E9 ; 1.0638441884954574E9 ; 0.0
88 ; 1.1853683264131337E7 ; 1.2228094120637458E7 ; 1.019780291730816E9 ; 1.0760722826160948E9 ; 0.0
89 ; 1.1853248618671766E7 ; 1.2228094120637458E7 ; 1.0316339749949473E9 ; 1.0883003767367322E9 ; 0.0
90 ; 1.1847885329178555E7 ; 1.2228094120637458E7 ; 1.0434872236136191E9 ; 1.1005284708573697E9 ; 0.0
91 ; 1.1841688751820201E7 ; 1.2228094120637458E7 ; 1.0553351089427977E9 ; 1.112756564978007E9 ; 0.0
92 ; 1.1834938038536351E7 ; 1.2228094120637458E7 ; 1.0671767976946179E9 ; 1.1249846590986445E9 ; 0.0
93 ; 1.1833230938020034E7 ; 1.2228094120637458E7 ; 1.0790117357331543E9 ; 1.137212753219282E9 ; 0.0
94 ; 1.182889306029163E7 ; 1.2228094120637458E7 ; 1.0908449666711743E9 ; 1.1494408473399193E9 ; 0.0
95 ; 1.1822321652496329E7 ; 1.2228094120637458E7 ; 1.1026738597314658E9 ; 1.1616689414605567E9 ; 0.0
96 ; 1.1816452297272777E7 ; 1.2228094120637458E7 ; 1.1144961813839622E9 ; 1.1738970355811942E9 ; 0.0
97 ; 1.1812228208347319E7 ; 1.2228094120637458E7 ; 1.1263126336812348E9 ; 1.1861251297018316E9 ; 0.0
98 ; 1.1807810351519862E7 ; 1.2228094120637458E7 ; 1.1381248618895822E9 ; 1.198353223822469E9 ; 0.0
99 ; 1.1800187079573894E7 ; 1.2228094120637458E7 ; 1.149932672241102E9 ; 1.2105813179431064E9 ; 0.0
100 ; 1.1797922559118401E7 ; 1.2228094120637458E7 ; 1.1617328593206758E9 ; 1.2228094120637438E9 ; 0.0
101 ; 1.1791082534379834E7 ; 1.2228094120637458E7 ; 1.1735307818797944E9 ; 1.2350375061843812E9 ; 0.0
102 ; 1.1781269252355088E7 ; 1.2228094120637458E7 ; 1.185321864414174E9 ; 1.2472656003050187E9 ; 0.0
103 ; 1.1775691257426256E7 ; 1.2228094120637458E7 ; 1.1971031336665292E9 ; 1.259493694425656E9 ; 0.0
104 ; 1.1772654960395304E7 ; 1.2228094120637458E7 ; 1.2088788249239554E9 ; 1.2717217885462935E9 ; 0.0
105 ; 1.1765521915541492E7 ; 1.2228094120637458E7 ; 1.2206514798843508E9 ; 1.283949882666931E9 ; 0.0
106 ; 1.175953061443138E7 ; 1.2228094120637458E7 ; 1.2324170017998922E9 ; 1.2961779767875683E9 ; 0.0
107 ; 1.1754055176351165E7 ; 1.2228094120637458E7 ; 1.2441765324143236E9 ; 1.3084060709082057E9 ; 0.0
108 ; 1.1746707007345544E7 ; 1.2228094120637458E7 ; 1.2559305875906746E9 ; 1.3206341650288432E9 ; 0.0
109 ; 1.1742371998690194E7 ; 1.2228094120637458E7 ; 1.26767729459802E9 ; 1.3328622591494806E9 ; 0.0
110 ; 1.1733362847367344E7 ; 1.2228094120637458E7 ; 1.2794196665967102E9 ; 1.345090353270118E9 ; 0.0
111 ; 1.1722783245849958E7 ; 1.2228094120637458E7 ; 1.2911530294440775E9 ; 1.3573184473907554E9 ; 0.0
112 ; 1.1717550691031562E7 ; 1.2228094120637458E7 ; 1.3028758126899273E9 ; 1.3695465415113928E9 ; 0.0
113 ; 1.1712265128068956E7 ; 1.2228094120637458E7 ; 1.3145933633809588E9 ; 1.3817746356320302E9 ; 0.0
114 ; 1.1704060170213548E7 ; 1.2228094120637458E7 ; 1.3263056285090277E9 ; 1.3940027297526677E9 ; 0.0
115 ; 1.170144183490228E7 ; 1.2228094120637458E7 ; 1.3380096886792412E9 ; 1.406230823873305E9 ; 0.0
116 ; 1.1691016835542863E7 ; 1.2228094120637458E7 ; 1.3497111305141435E9 ; 1.4184589179939425E9 ; 0.0
117 ; 1.1682575871288233E7 ; 1.2228094120637458E7 ; 1.3614021473496864E9 ; 1.43068701211458E9 ; 0.0
118 ; 1.16717729271319E7 ; 1.2228094120637458E7 ; 1.3730847232209747E9 ; 1.4429151062352173E9 ; 0.0
119 ; 1.166941530015761E7 ; 1.2228094120637458E7 ; 1.3847564961481066E9 ; 1.4551432003558547E9 ; 0.0
120 ; 1.165677566667635E7 ; 1.2228094120637458E7 ; 1.3964259114482641E9 ; 1.4673712944764922E9 ; 0.0
121 ; 1.1653203932180533E7 ; 1.2228094120637458E7 ; 1.4080826871149404E9 ; 1.4795993885971296E9 ; 0.0
122 ; 1.1640074110059492E7 ; 1.2228094120637458E7 ; 1.419735891047121E9 ; 1.491827482717767E9 ; 0.0
123 ; 1.1633475665748803E7 ; 1.2228094120637458E7 ; 1.4313759651571805E9 ; 1.5040555768384044E9 ; 0.0
124 ; 1.1624160471724272E7 ; 1.2228094120637458E7 ; 1.4430094408229294E9 ; 1.5162836709590418E9 ; 0.0
125 ; 1.1617478691837817E7 ; 1.2228094120637458E7 ; 1.4546336012946537E9 ; 1.5285117650796793E9 ; 0.0
126 ; 1.1610254444938308E7 ; 1.2228094120637458E7 ; 1.4662510799864914E9 ; 1.5407398592003167E9 ; 0.0
127 ; 1.1598208668655962E7 ; 1.2228094120637458E7 ; 1.4778613344314299E9 ; 1.552967953320954E9 ; 0.0
128 ; 1.1593412902893195E7 ; 1.2228094120637458E7 ; 1.4894595431000857E9 ; 1.5651960474415915E9 ; 0.0
129 ; 1.1582418718482887E7 ; 1.2228094120637458E7 ; 1.501052956002979E9 ; 1.577424141562229E9 ; 0.0
130 ; 1.1570984086475328E7 ; 1.2228094120637458E7 ; 1.512635374721462E9 ; 1.5896522356828663E9 ; 0.0
131 ; 1.1558171602894131E7 ; 1.2228094120637458E7 ; 1.5242063588079374E9 ; 1.6018803298035038E9 ; 0.0
132 ; 1.1547164790561432E7 ; 1.2228094120637458E7 ; 1.5357645304108315E9 ; 1.6141084239241412E9 ; 0.0
133 ; 1.153288538593469E7 ; 1.2228094120637458E7 ; 1.547311695201393E9 ; 1.6263365180447786E9 ; 0.0
134 ; 1.1521612619539144E7 ; 1.2228094120637458E7 ; 1.5588445805873275E9 ; 1.638564612165416E9 ; 0.0
135 ; 1.1506693705988325E7 ; 1.2228094120637458E7 ; 1.5703661932068667E9 ; 1.6507927062860534E9 ; 0.0
136 ; 1.1489746207010712E7 ; 1.2228094120637458E7 ; 1.5818728869128551E9 ; 1.6630208004066908E9 ; 0.0
137 ; 1.1478340038054217E7 ; 1.2228094120637458E7 ; 1.593362633119866E9 ; 1.6752488945273283E9 ; 0.0
138 ; 1.146502457521075E7 ; 1.2228094120637458E7 ; 1.6048409731579201E9 ; 1.6874769886479657E9 ; 0.0
139 ; 1.145414711822823E7 ; 1.2228094120637458E7 ; 1.616305997733131E9 ; 1.699705082768603E9 ; 0.0
140 ; 1.1436733005481713E7 ; 1.2228094120637458E7 ; 1.6277601448513591E9 ; 1.7119331768892405E9 ; 0.0
141 ; 1.1424275015929244E7 ; 1.2228094120637458E7 ; 1.6391968778568408E9 ; 1.724161271009878E9 ; 0.0
142 ; 1.1410332939754913E7 ; 1.2228094120637458E7 ; 1.65062115287277E9 ; 1.7363893651305153E9 ; 0.0
143 ; 1.139519647625312E7 ; 1.2228094120637458E7 ; 1.662031485812525E9 ; 1.7486174592511528E9 ; 0.0
144 ; 1.1381855564970383E7 ; 1.2228094120637458E7 ; 1.673426682288778E9 ; 1.7608455533717902E9 ; 0.0
145 ; 1.1373843432751892E7 ; 1.2228094120637458E7 ; 1.6848085378537486E9 ; 1.7730736474924276E9 ; 0.0
146 ; 1.1362287266430316E7 ; 1.2228094120637458E7 ; 1.6961823812865005E9 ; 1.785301741613065E9 ; 0.0
147 ; 1.1353967075257543E7 ; 1.2228094120637458E7 ; 1.7075446685529308E9 ; 1.7975298357337024E9 ; 0.0
148 ; 1.1342410121263763E7 ; 1.2228094120637458E7 ; 1.7188986356281884E9 ; 1.8097579298543398E9 ; 0.0
149 ; 1.1334701780580306E7 ; 1.2228094120637458E7 ; 1.730241045749452E9 ; 1.8219860239749773E9 ; 0.0
150 ; 1.132474283096706E7 ; 1.2228094120637458E7 ; 1.7415757475300324E9 ; 1.8342141180956147E9 ; 0.0
151 ; 1.1312540813464107E7 ; 1.2228094120637458E7 ; 1.7529004903609993E9 ; 1.846442212216252E9 ; 0.0
152 ; 1.1304124078225654E7 ; 1.2228094120637458E7 ; 1.7642130311744635E9 ; 1.8586703063368895E9 ; 0.0
153 ; 1.1294458587101398E7 ; 1.2228094120637458E7 ; 1.7755171552526891E9 ; 1.870898400457527E9 ; 0.0
154 ; 1.1282758254647305E7 ; 1.2228094120637458E7 ; 1.7868116138397906E9 ; 1.8831264945781643E9 ; 0.0
155 ; 1.1274777007770583E7 ; 1.2228094120637458E7 ; 1.7980943720944378E9 ; 1.8953545886988018E9 ; 0.0
156 ; 1.1261362929565862E7 ; 1.2228094120637458E7 ; 1.8093691491022084E9 ; 1.9075826828194392E9 ; 0.0
157 ; 1.1254332035831539E7 ; 1.2228094120637458E7 ; 1.8206305120317743E9 ; 1.9198107769400766E9 ; 0.0
158 ; 1.1241975164170433E7 ; 1.2228094120637458E7 ; 1.8318848440676057E9 ; 1.932038871060714E9 ; 0.0
159 ; 1.123173730562693E7 ; 1.2228094120637458E7 ; 1.8431268192317762E9 ; 1.9442669651813514E9 ; 0.0
160 ; 1.1221457170514656E7 ; 1.2228094120637458E7 ; 1.854358556537403E9 ; 1.9564950593019888E9 ; 0.0
161 ; 1.1208862940033026E7 ; 1.2228094120637458E7 ; 1.8655800137079177E9 ; 1.9687231534226263E9 ; 0.0
162 ; 1.1204803640897967E7 ; 1.2228094120637458E7 ; 1.8767888766479506E9 ; 1.9809512475432637E9 ; 0.0
163 ; 1.1191321118888313E7 ; 1.2228094120637458E7 ; 1.8879936802888486E9 ; 1.993179341663901E9 ; 0.0
164 ; 1.1180468428900497E7 ; 1.2228094120637458E7 ; 1.899185001407737E9 ; 2.0054074357845385E9 ; 0.0
165 ; 1.1167243989552666E7 ; 1.2228094120637458E7 ; 1.9103654698366375E9 ; 2.017635529905176E9 ; 0.0
166 ; 1.1159551403930523E7 ; 1.2228094120637458E7 ; 1.9215327138261902E9 ; 2.0298636240258133E9 ; 0.0
167 ; 1.1146354954095263E7 ; 1.2228094120637458E7 ; 1.9326922652301207E9 ; 2.0420917181464508E9 ; 0.0
168 ; 1.113630348815708E7 ; 1.2228094120637458E7 ; 1.943838620184216E9 ; 2.0543198122670882E9 ; 0.0
169 ; 1.1125978975576492E7 ; 1.2228094120637458E7 ; 1.954974923672373E9 ; 2.0665479063877256E9 ; 0.0
170 ; 1.1115105131768972E7 ; 1.2228094120637458E7 ; 1.9661009026479495E9 ; 2.078776000508363E9 ; 0.0
171 ; 1.1099635943586696E7 ; 1.2228094120637458E7 ; 1.9772160077797184E9 ; 2.0910040946290004E9 ; 0.0
172 ; 1.1092385358304486E7 ; 1.2228094120637458E7 ; 1.988315643723305E9 ; 2.1032321887496378E9 ; 0.0
173 ; 1.1080584709464181E7 ; 1.2228094120637458E7 ; 1.9994080290816095E9 ; 2.1154602828702753E9 ; 0.0
174 ; 1.107666996021242E7 ; 1.2228094120637458E7 ; 2.0104886137910736E9 ; 2.1276883769909127E9 ; 0.0
175 ; 1.1068172758592267E7 ; 1.2228094120637458E7 ; 2.021565283751286E9 ; 2.13991647111155E9 ; 0.0
176 ; 1.106230396616819E7 ; 1.2228094120637458E7 ; 2.0326334565098784E9 ; 2.1521445652321877E9 ; 0.0
177 ; 1.1053870440958826E7 ; 1.2228094120637458E7 ; 2.0436957604760466E9 ; 2.164372659352825E9 ; 0.0
178 ; 1.104859195223736E7 ; 1.2228094120637458E7 ; 2.0547496309170053E9 ; 2.1766007534734626E9 ; 0.0
179 ; 1.1042982083011542E7 ; 1.2228094120637458E7 ; 2.0657982228692427E9 ; 2.1888288475941E9 ; 0.0
180 ; 1.1038545782638747E7 ; 1.2228094120637458E7 ; 2.0768412049522543E9 ; 2.2010569417147374E9 ; 0.0
181 ; 1.1026693254280146E7 ; 1.2228094120637458E7 ; 2.087879750734893E9 ; 2.213285035835375E9 ; 0.0
182 ; 1.1022933653763471E7 ; 1.2228094120637458E7 ; 2.0989064439891732E9 ; 2.2255131299560122E9 ; 0.0
183 ; 1.101648598031765E7 ; 1.2228094120637458E7 ; 2.1099293776429367E9 ; 2.2377412240766497E9 ; 0.0
184 ; 1.1003352386763146E7 ; 1.2228094120637458E7 ; 2.1209458636232543E9 ; 2.249969318197287E9 ; 0.0
185 ; 1.1002773742703594E7 ; 1.2228094120637458E7 ; 2.1319492160100174E9 ; 2.2621974123179245E9 ; 0.0
186 ; 1.099345672644589E7 ; 1.2228094120637458E7 ; 2.142951989752721E9 ; 2.274425506438562E9 ; 0.0
187 ; 1.0985774690997541E7 ; 1.2228094120637458E7 ; 2.153945446479167E9 ; 2.2866536005591993E9 ; 0.0
188 ; 1.0983846947785156E7 ; 1.2228094120637458E7 ; 2.1649312211701646E9 ; 2.2988816946798368E9 ; 0.0
189 ; 1.0972154752731862E7 ; 1.2228094120637458E7 ; 2.17591506811795E9 ; 2.311109788800474E9 ; 0.0
190 ; 1.096884993708285E7 ; 1.2228094120637458E7 ; 2.186887222870682E9 ; 2.3233378829211116E9 ; 0.0
191 ; 1.0961013657051371E7 ; 1.2228094120637458E7 ; 2.1978560728077645E9 ; 2.335565977041749E9 ; 0.0
192 ; 1.095572523201467E7 ; 1.2228094120637458E7 ; 2.208817086464816E9 ; 2.3477940711623864E9 ; 0.0
193 ; 1.0947488846535698E7 ; 1.2228094120637458E7 ; 2.2197728116968307E9 ; 2.360022165283024E9 ; 0.0
194 ; 1.094316711463703E7 ; 1.2228094120637458E7 ; 2.2307203005433664E9 ; 2.3722502594036613E9 ; 0.0
195 ; 1.0932204855387317E7 ; 1.2228094120637458E7 ; 2.2416634676580033E9 ; 2.3844783535242987E9 ; 0.0
