CSV File for the City 6 on Day 47
1 - Minute m 
2 - Power Consumed at minute m 
3 - Power Produced at minute m 
4 - Energy Consumed since the beginning of the day 
5 - Energy Produced since the beginning of the day 
6 - Energy Lost since the beginning of the day on lines starting from the city
 
0 ; 1.1111928986922042E7 ; 1.056984883748298E8 ; 0.0 ; 0.0 ; 0.0
1 ; 1.1129728115853256E7 ; 1.0584857420440012E8 ; 1.1111928986922042E7 ; 1.056984883748298E8 ; 0.0
2 ; 1.114017612365652E7 ; 1.0630771820461038E8 ; 2.2241657102775298E7 ; 2.1154706257922992E8 ; 0.0
3 ; 1.1150356121815557E7 ; 1.0707592973971182E8 ; 3.3381833226431817E7 ; 3.178547807838403E8 ; 0.0
4 ; 1.1168240290785832E7 ; 1.081532173581503E8 ; 4.453218934824737E7 ; 4.249307105235521E8 ; 0.0
5 ; 1.1189280533040687E7 ; 1.0953958869537383E8 ; 5.5700429639033206E7 ; 5.330839278817024E8 ; 0.0
6 ; 1.1215160403928109E7 ; 1.1123505038327882E8 ; 6.688971017207389E7 ; 6.426235165770762E8 ; 0.0
7 ; 1.1250585018149508E7 ; 1.132396079686619E8 ; 7.8104870576002E7 ; 7.53858566960355E8 ; 0.0
8 ; 1.1306257826865567E7 ; 1.1555326584292853E8 ; 8.935545559415151E7 ; 8.67098174929017E8 ; 0.0
9 ; 1.1388390157469753E7 ; 1.1817602718508607E8 ; 1.0066171342101708E8 ; 9.826514407719455E8 ; 0.0
10 ; 1.1507941620347286E7 ; 1.2110789391972268E8 ; 1.1205010357848683E8 ; 1.1008274679570315E9 ; 0.0
11 ; 1.1708638066281918E7 ; 1.2434886669125894E8 ; 1.2355804519883412E8 ; 1.2219353618767543E9 ; 0.0
12 ; 1.2023444536882862E7 ; 1.2789894485527423E8 ; 1.3526668326511604E8 ; 1.3462842285680132E9 ; 0.0
13 ; 1.2326412430773148E7 ; 1.3175812648718041E8 ; 1.472901278019989E8 ; 1.4741831734232874E9 ; 0.0
14 ; 1.2366196927627288E7 ; 1.359264084079702E8 ; 1.5961654023277205E8 ; 1.6059412999104679E9 ; 0.0
15 ; 1.238151943603364E7 ; 1.40403786226238E8 ; 1.7198273716039935E8 ; 1.741867708318438E9 ; 0.0
16 ; 1.239183239600391E7 ; 1.4519025439518735E8 ; 1.8436425659643298E8 ; 1.882271494544676E9 ; 0.0
17 ; 1.2408401508725706E7 ; 1.502858062829217E8 ; 1.967560889924369E8 ; 2.0274617489398634E9 ; 0.0
18 ; 1.2418867257793013E7 ; 1.556904342539931E8 ; 2.091644905011626E8 ; 2.177747555222785E9 ; 0.0
19 ; 1.2435435353153327E7 ; 1.6140412975995567E8 ; 2.215833577589556E8 ; 2.333437989476778E9 ; 0.0
20 ; 1.2446415280398268E7 ; 1.6742688343655816E8 ; 2.3401879311210892E8 ; 2.494842119236734E9 ; 0.0
21 ; 1.2465586867141934E7 ; 1.737586852051914E8 ; 2.464652083925072E8 ; 2.662269002673292E9 ; 0.0
22 ; 1.2473914864071568E7 ; 1.8039952437629104E8 ; 2.5893079525964913E8 ; 2.836027687878484E9 ; 0.0
23 ; 1.2492833428531772E7 ; 1.8734938975255376E8 ; 2.714047101237207E8 ; 3.016427212254775E9 ; 0.0
24 ; 1.2505267536037594E7 ; 1.946082697300492E8 ; 2.838975435522525E8 ; 3.203776602007329E9 ; 0.0
25 ; 1.2522661212467248E7 ; 2.0086419329375952E8 ; 2.964028110882901E8 ; 3.398384871737378E9 ; 0.0
26 ; 1.2535437969708469E7 ; 2.0087069614671567E8 ; 3.0892547230075735E8 ; 3.5992490650311375E9 ; 0.0
27 ; 1.2544772582553497E7 ; 2.00877535320964E8 ; 3.214609102704658E8 ; 3.800119761177853E9 ; 0.0
28 ; 1.2560460077957863E7 ; 2.0088469850345707E8 ; 3.340056828530193E8 ; 4.000997296498817E9 ; 0.0
29 ; 1.2573262507286986E7 ; 2.0089217340097696E8 ; 3.4656614293097717E8 ; 4.201881995002274E9 ; 0.0
30 ; 1.2589755327726787E7 ; 2.0089994780412525E8 ; 3.5913940543826413E8 ; 4.402774168403251E9 ; 0.0
31 ; 1.2604193686332187E7 ; 2.0090800964359027E8 ; 3.717291607659909E8 ; 4.603674116207376E9 ; 0.0
32 ; 1.2610575495012704E7 ; 2.009163470388369E8 ; 3.843333544523231E8 ; 4.8045821258509655E9 ; 0.0
33 ; 1.2626451764720382E7 ; 2.0092494833950728E8 ; 3.969439299473358E8 ; 5.005498472889802E9 ; 0.0
34 ; 1.2638496322376119E7 ; 2.0093380215993023E8 ; 4.0957038171205616E8 ; 5.206423421229309E9 ; 0.0
35 ; 1.2652589760556152E7 ; 2.0094289740721598E8 ; 4.222088780344323E8 ; 5.407357223389239E9 ; 0.0
36 ; 1.2663823156606557E7 ; 2.009522233034631E8 ; 4.3486146779498845E8 ; 5.608300120796455E9 ; 0.0
37 ; 1.267561931046732E7 ; 2.0096176940263155E8 ; 4.47525290951595E8 ; 5.809252344099918E9 ; 0.0
38 ; 1.2685452026597772E7 ; 2.0097152560264346E8 ; 4.602009102620623E8 ; 6.01021411350255E9 ; 0.0
39 ; 1.2693156923185853E7 ; 2.0098148215326437E8 ; 4.728863622886601E8 ; 6.211185639105193E9 ; 0.0
40 ; 1.2703908525322016E7 ; 2.009916296602988E8 ; 4.8557951921184593E8 ; 6.412167121258457E9 ; 0.0
41 ; 1.2709677100217955E7 ; 2.0100195908660328E8 ; 4.9828342773716795E8 ; 6.613158750918756E9 ; 0.0
42 ; 1.2721275894838694E7 ; 2.010124617503871E8 ; 5.109931048373859E8 ; 6.814160710005359E9 ; 0.0
43 ; 1.2727091280812405E7 ; 2.0102312932123113E8 ; 5.237143807322246E8 ; 7.015173171755746E9 ; 0.0
44 ; 1.273678036971741E7 ; 2.0103395381421635E8 ; 5.3644147201303697E8 ; 7.216196301076977E9 ; 0.0
45 ; 1.2746552626204256E7 ; 2.01044927582512E8 ; 5.491782523827543E8 ; 7.417230254891193E9 ; 0.0
46 ; 1.2747893767510228E7 ; 2.0105604330873552E8 ; 5.619248050089586E8 ; 7.618275182473705E9 ; 0.0
47 ; 1.2756956998626517E7 ; 2.0106729399535793E8 ; 5.746726987764688E8 ; 7.819331225782441E9 ; 0.0
48 ; 1.2762313382614225E7 ; 2.0107867295439282E8 ; 5.874296557750952E8 ; 8.020398519777799E9 ; 0.0
49 ; 1.2765555070854593E7 ; 2.010901737965757E8 ; 6.001919691577095E8 ; 8.221477192732191E9 ; 0.0
50 ; 1.277116429590316E7 ; 2.011017904202094E8 ; 6.12957524228564E8 ; 8.422567366528767E9 ; 0.0
51 ; 1.2772592966611682E7 ; 2.0111351699982515E8 ; 6.257286885244672E8 ; 8.623669156948977E9 ; 0.0
52 ; 1.2776008299576202E7 ; 2.011253479747843E8 ; 6.385012814910789E8 ; 8.824782673948801E9 ; 0.0
53 ; 1.2775770340980368E7 ; 2.0113727803792542E8 ; 6.51277289790655E8 ; 9.025908021923586E9 ; 0.0
54 ; 1.2784753146204427E7 ; 2.011493021243407E8 ; 6.640530601316354E8 ; 9.227045299961512E9 ; 0.0
55 ; 1.278374050559101E7 ; 2.0116141540035212E8 ; 6.768378132778399E8 ; 9.428194602085852E9 ; 0.0
56 ; 1.2790188140168363E7 ; 2.0117361325274074E8 ; 6.896215537834309E8 ; 9.629356017486204E9 ; 0.0
57 ; 1.2795128784565378E7 ; 2.0118589127827245E8 ; 7.024117419235992E8 ; 9.830529630738945E9 ; 0.0
58 ; 1.2792430748311324E7 ; 2.0119824527355173E8 ; 7.152068707081646E8 ; 1.0031715522017218E10 ; 0.0
59 ; 1.279434773100379E7 ; 2.0121067122522727E8 ; 7.279993014564759E8 ; 1.023291376729077E10 ; 0.0
60 ; 1.2799468580460731E7 ; 2.0122316530056468E8 ; 7.407936491874796E8 ; 1.0434124438515997E10 ; 0.0
61 ; 1.2799482246023867E7 ; 2.0123572383839607E8 ; 7.535931177679404E8 ; 1.063534760381656E10 ; 0.0
62 ; 1.2803245574614674E7 ; 2.0124834334045124E8 ; 7.663926000139643E8 ; 1.0836583327654957E10 ; 0.0
63 ; 1.2805727925127605E7 ; 2.0126102046307018E8 ; 7.791958455885789E8 ; 1.1037831670995407E10 ; 0.0
64 ; 1.2805999286018055E7 ; 2.0127375200929406E8 ; 7.920015735137066E8 ; 1.1239092691458477E10 ; 0.0
65 ; 1.2807864813317385E7 ; 2.012865349213285E8 ; 8.048075727997246E8 ; 1.1440366443467772E10 ; 0.0
66 ; 1.2810339885450503E7 ; 2.0129936627337125E8 ; 8.17615437613042E8 ; 1.16416529783891E10 ; 0.0
67 ; 1.2815887279799046E7 ; 2.0131224326479384E8 ; 8.304257774984925E8 ; 1.184295234466247E10 ; 0.0
68 ; 1.2814441791890776E7 ; 2.0132516321366706E8 ; 8.432416647782916E8 ; 1.2044264587927263E10 ; 0.0
69 ; 1.2813899374423176E7 ; 2.013381235506173E8 ; 8.560561065701823E8 ; 1.224558975114093E10 ; 0.0
70 ; 1.2816732043287626E7 ; 2.013511218130019E8 ; 8.688700059446055E8 ; 1.2446927874691547E10 ; 0.0
71 ; 1.2818796613807093E7 ; 2.0136415563938993E8 ; 8.816867379878931E8 ; 1.2648278996504549E10 ; 0.0
72 ; 1.281877020200482E7 ; 2.0137722276433566E8 ; 8.945055346017002E8 ; 1.2849643152143938E10 ; 0.0
73 ; 1.2824843228370775E7 ; 2.0139032101343104E8 ; 9.07324304803705E8 ; 1.3051020374908274E10 ; 0.0
74 ; 1.282276303768597E7 ; 2.014034482986247E8 ; 9.201491480320758E8 ; 1.3252410695921705E10 ; 0.0
75 ; 1.2819837376133375E7 ; 2.0141660261379382E8 ; 9.329719110697618E8 ; 1.345381414422033E10 ; 0.0
76 ; 1.2820111107536526E7 ; 2.0142978203055683E8 ; 9.457917484458951E8 ; 1.3655230746834124E10 ; 0.0
77 ; 1.282016683540493E7 ; 2.0144298469431442E8 ; 9.586118595534316E8 ; 1.3856660528864681E10 ; 0.0
78 ; 1.2817405733895361E7 ; 2.014562088205069E8 ; 9.714320263888365E8 ; 1.4058103513558996E10 ; 0.0
79 ; 1.281456332277747E7 ; 2.0146945269107684E8 ; 9.842494321227319E8 ; 1.4259559722379503E10 ; 0.0
80 ; 1.2808640292122832E7 ; 2.0148271465112537E8 ; 9.970639954455094E8 ; 1.446102917507058E10 ; 0.0
81 ; 1.2808376006844886E7 ; 2.0149599310575217E8 ; 1.0098726357376323E9 ; 1.4662511889721704E10 ; 0.0
82 ; 1.280572283785951E7 ; 2.0150928651706874E8 ; 1.0226810117444772E9 ; 1.4864007882827457E10 ; 0.0
83 ; 1.279696441336417E7 ; 2.0152259340137553E8 ; 1.0354867345823367E9 ; 1.5065517169344526E10 ; 0.0
84 ; 1.2794048034305267E7 ; 2.0153591232649368E8 ; 1.0482836989957008E9 ; 1.5267039762745901E10 ; 0.0
85 ; 1.279199903045138E7 ; 2.0154924190924263E8 ; 1.061077747030006E9 ; 1.5468575675072395E10 ; 0.0
86 ; 1.2785831393331282E7 ; 2.0156258081305555E8 ; 1.0738697460604575E9 ; 1.5670124916981638E10 ; 0.0
87 ; 1.2784779423542758E7 ; 2.0157592774572465E8 ; 1.0866555774537888E9 ; 1.5871687497794693E10 ; 0.0
88 ; 1.277697765998849E7 ; 2.01589281457269E8 ; 1.0994403568773315E9 ; 1.6073263425540417E10 ; 0.0
89 ; 1.277267980945033E7 ; 2.0160264073791796E8 ; 1.11221733453732E9 ; 1.6274852706997686E10 ; 0.0
90 ; 1.2765713028562862E7 ; 2.016160044162034E8 ; 1.1249900143467703E9 ; 1.6476455347735605E10 ; 0.0
91 ; 1.275957197914674E7 ; 2.016293713571548E8 ; 1.137755727375333E9 ; 1.6678071352151808E10 ; 0.0
92 ; 1.2759839268609896E7 ; 2.016427404605911E8 ; 1.1505152993544798E9 ; 1.6879700723508963E10 ; 0.0
93 ; 1.2749859657546906E7 ; 2.0165611065950397E8 ; 1.1632751386230898E9 ; 1.7081343463969553E10 ; 0.0
94 ; 1.2744960158142935E7 ; 2.01669480918527E8 ; 1.1760249982806368E9 ; 1.728299957462906E10 ; 0.0
95 ; 1.2740519575489437E7 ; 2.0168285023248616E8 ; 1.1887699584387798E9 ; 1.7484669055547585E10 ; 0.0
96 ; 1.2737082287706269E7 ; 2.016962176250268E8 ; 1.2015104780142694E9 ; 1.768635190578007E10 ; 0.0
97 ; 1.2730998632968891E7 ; 2.0170958214731282E8 ; 1.2142475603019757E9 ; 1.7888048123405098E10 ; 0.0
98 ; 1.2723782587463481E7 ; 2.0172294287679392E8 ; 1.2269785589349446E9 ; 1.808975770555241E10 ; 0.0
99 ; 1.2716529346095905E7 ; 2.017362989160371E8 ; 1.239702341522408E9 ; 1.8291480648429203E10 ; 0.0
100 ; 1.2708469778142171E7 ; 2.0174964939161858E8 ; 1.2524188708685038E9 ; 1.849321694734524E10 ; 0.0
101 ; 1.270208368797752E7 ; 2.0176299345307317E8 ; 1.265127340646646E9 ; 1.869496659673686E10 ; 0.0
102 ; 1.2694659553566655E7 ; 2.0177633027189738E8 ; 1.2778294243346236E9 ; 1.889672959018993E10 ; 0.0
103 ; 1.2691292788553642E7 ; 2.017896590406035E8 ; 1.2905240838881903E9 ; 1.9098505920461826E10 ; 0.0
104 ; 1.268369196019949E7 ; 2.0180297897182173E8 ; 1.303215376676744E9 ; 1.930029557950243E10 ; 0.0
105 ; 1.2678956901951322E7 ; 2.0181628929744798E8 ; 1.3158990686369436E9 ; 1.950209855847425E10 ; 0.0
106 ; 1.2671926838378113E7 ; 2.0182958926783407E8 ; 1.328578025538895E9 ; 1.9703914847771698E10 ; 0.0
107 ; 1.26635148359431E7 ; 2.0184287815101883E8 ; 1.341249952377273E9 ; 1.990574443703953E10 ; 0.0
108 ; 1.2653623506896848E7 ; 2.0185615523199743E8 ; 1.353913467213216E9 ; 2.010758731519055E10 ; 0.0
109 ; 1.2650813926535737E7 ; 2.0186941981202677E8 ; 1.3665670907201128E9 ; 2.030944347042255E10 ; 0.0
110 ; 1.2640217152631735E7 ; 2.0188267120796514E8 ; 1.3792179046466486E9 ; 2.0511312890234577E10 ; 0.0
111 ; 1.2631389096113507E7 ; 2.018959087516443E8 ; 1.3918581217992804E9 ; 2.0713195561442543E10 ; 0.0
112 ; 1.2625945459817879E7 ; 2.019091317892721E8 ; 1.4044895108953938E9 ; 2.0915091470194187E10 ; 0.0
113 ; 1.2619646097559236E7 ; 2.0192233968086395E8 ; 1.4171154563552117E9 ; 2.111700060198346E10 ; 0.0
114 ; 1.2611046107026232E7 ; 2.0193553179970196E8 ; 1.429735102452771E9 ; 2.131892294166432E10 ; 0.0
115 ; 1.2604186774732418E7 ; 2.0194870753181985E8 ; 1.4423461485597973E9 ; 2.1520858473464024E10 ; 0.0
116 ; 1.259460598355395E7 ; 2.0196186627551234E8 ; 1.4549503353345296E9 ; 2.1722807180995842E10 ; 0.0
117 ; 1.2583973674053365E7 ; 2.0197500744086796E8 ; 1.4675449413180835E9 ; 2.1924769047271355E10 ; 0.0
118 ; 1.2576262258721862E7 ; 2.019881304493239E8 ; 1.480128914992137E9 ; 2.2126744054712223E10 ; 0.0
119 ; 1.2568232881661173E7 ; 2.0200123473324153E8 ; 1.4927051772508588E9 ; 2.232873218516155E10 ; 0.0
120 ; 1.2560012118302446E7 ; 2.0201431973550215E8 ; 1.50527341013252E9 ; 2.253073341989479E10 ; 0.0
121 ; 1.2552097909265053E7 ; 2.02027384909121E8 ; 1.5178334222508223E9 ; 2.273274773963029E10 ; 0.0
122 ; 1.2540632245911023E7 ; 2.0204042971687946E8 ; 1.5303855201600873E9 ; 2.2934775124539413E10 ; 0.0
123 ; 1.2532556694454143E7 ; 2.0205345363097396E8 ; 1.5429261524059985E9 ; 2.3136815554256294E10 ; 0.0
124 ; 1.2523120662047204E7 ; 2.0206645613268104E8 ; 1.5554587091004527E9 ; 2.3338869007887268E10 ; 0.0
125 ; 1.251448617711228E7 ; 2.0207943671203747E8 ; 1.5679818297624998E9 ; 2.354093546401995E10 ; 0.0
126 ; 1.2501642183813507E7 ; 2.0209239486753494E8 ; 1.5804963159396122E9 ; 2.3743014900731987E10 ; 0.0
127 ; 1.24961245439102E7 ; 2.0210533010582852E8 ; 1.5929979581234257E9 ; 2.394510729559952E10 ; 0.0
128 ; 1.2485489216473864E7 ; 2.02118241941458E8 ; 1.605494082667336E9 ; 2.414721262570535E10 ; 0.0
129 ; 1.2472621976324923E7 ; 2.0213112989658168E8 ; 1.6179795718838098E9 ; 2.434933086764681E10 ; 0.0
130 ; 1.2460609731228057E7 ; 2.0214399350072205E8 ; 1.6304521938601348E9 ; 2.4551461997543392E10 ; 0.0
131 ; 1.2449121688675985E7 ; 2.0215683229052255E8 ; 1.642912803591363E9 ; 2.4753605991044113E10 ; 0.0
132 ; 1.2436049401099937E7 ; 2.0216964580951494E8 ; 1.6553619252800388E9 ; 2.4955762823334637E10 ; 0.0
133 ; 1.2420512366129288E7 ; 2.0218243360789695E8 ; 1.6677979746811388E9 ; 2.515793246914415E10 ; 0.0
134 ; 1.2408988153857755E7 ; 2.021951952423195E8 ; 1.6802184870472682E9 ; 2.536011490275205E10 ; 0.0
135 ; 1.2391391354889734E7 ; 2.02207930275683E8 ; 1.6926274752011259E9 ; 2.556231009799437E10 ; 0.0
136 ; 1.2378490618746618E7 ; 2.0222063827694246E8 ; 1.7050188665560155E9 ; 2.5764518028270054E10 ; 0.0
137 ; 1.2365079689651033E7 ; 2.0223331882092115E8 ; 1.717397357174762E9 ; 2.5966738666546997E10 ; 0.0
138 ; 1.2345902817941219E7 ; 2.0224597148813176E8 ; 1.729762436864413E9 ; 2.616897198536792E10 ; 0.0
139 ; 1.2332511737868011E7 ; 2.022585958646053E8 ; 1.7421083396823542E9 ; 2.6371217956856052E10 ; 0.0
140 ; 1.2319506512855187E7 ; 2.0227119154172745E8 ; 1.7544408514202223E9 ; 2.6573476552720657E10 ; 0.0
141 ; 1.2302458055676129E7 ; 2.022837581160813E8 ; 1.7667603579330776E9 ; 2.6775747744262386E10 ; 0.0
142 ; 1.229051333841776E7 ; 2.0229629518929705E8 ; 1.7790628159887538E9 ; 2.6978031502378468E10 ; 0.0
143 ; 1.227237833678385E7 ; 2.023088023679077E8 ; 1.7913533293271716E9 ; 2.7180327797567764E10 ; 0.0
144 ; 1.2256794626162918E7 ; 2.0232127926321077E8 ; 1.8036257076639555E9 ; 2.7382636599935673E10 ; 0.0
145 ; 1.2246604804911263E7 ; 2.0233372549113578E8 ; 1.8158825022901185E9 ; 2.7584957879198883E10 ; 0.0
146 ; 1.223881701686295E7 ; 2.0234614067211705E8 ; 1.8281291070950298E9 ; 2.7787291604690018E10 ; 0.0
147 ; 1.2226925672421452E7 ; 2.0235852443097165E8 ; 1.8403679241118927E9 ; 2.7989637745362133E10 ; 0.0
148 ; 1.2213622573685268E7 ; 2.023708763967825E8 ; 1.8525948497843142E9 ; 2.8191996269793106E10 ; 0.0
149 ; 1.2204296223543871E7 ; 2.0238319620278588E8 ; 1.8648084723579993E9 ; 2.8394367146189888E10 ; 0.0
150 ; 1.2194417253378345E7 ; 2.023954834862639E8 ; 1.8770127685815432E9 ; 2.8596750342392673E10 ; 0.0
151 ; 1.2183897228720773E7 ; 2.024077378884407E8 ; 1.8892071858349216E9 ; 2.8799145825878937E10 ; 0.0
152 ; 1.217163769690771E7 ; 2.0241995905438334E8 ; 1.9013910830636423E9 ; 2.9001553563767376E10 ; 0.0
153 ; 1.2160486221151805E7 ; 2.0243214663290626E8 ; 1.91356272076055E9 ; 2.920397352282176E10 ; 0.0
154 ; 1.2150529773630045E7 ; 2.024443002764797E8 ; 1.9257232069817019E9 ; 2.9406405669454666E10 ; 0.0
155 ; 1.2139708783584645E7 ; 2.0245641964114165E8 ; 1.937873736755332E9 ; 2.9608849969731144E10 ; 0.0
156 ; 1.2125156253785018E7 ; 2.024685043864133E8 ; 1.9500134455389166E9 ; 2.9811306389372284E10 ; 0.0
157 ; 1.2113544835908841E7 ; 2.0248055417521772E8 ; 1.9621386017927017E9 ; 3.0013774893758698E10 ; 0.0
158 ; 1.2104032987139862E7 ; 2.0249256867380178E8 ; 1.9742521466286106E9 ; 3.0216255447933914E10 ; 0.0
159 ; 1.209461353359171E7 ; 2.0250454755166104E8 ; 1.9863561796157506E9 ; 3.0418748016607716E10 ; 0.0
160 ; 1.2078971408956043E7 ; 2.0251649048146766E8 ; 1.9984507931493423E9 ; 3.0621252564159378E10 ; 0.0
161 ; 1.207183258699616E7 ; 2.025283971390009E8 ; 2.0105297645582983E9 ; 3.0823769054640846E10 ; 0.0
162 ; 1.2060095462952498E7 ; 2.0254026720308045E8 ; 2.0226015971452944E9 ; 3.1026297451779846E10 ; 0.0
163 ; 1.2049548031910662E7 ; 2.025521003555022E8 ; 2.034661692608247E9 ; 3.1228837718982925E10 ; 0.0
164 ; 1.2036946187996477E7 ; 2.0256389628097647E8 ; 2.0467112406401577E9 ; 3.143138981933843E10 ; 0.0
165 ; 1.202536072395513E7 ; 2.0257565466706878E8 ; 2.058748186828154E9 ; 3.1633953715619404E10 ; 0.0
166 ; 1.2009748002600648E7 ; 2.025873752041425E8 ; 2.0707735475521092E9 ; 3.1836529370286472E10 ; 0.0
167 ; 1.199839647551056E7 ; 2.02599057585304E8 ; 2.08278329555471E9 ; 3.2039116745490616E10 ; 0.0
168 ; 1.198821817625749E7 ; 2.026107015063496E8 ; 2.0947816920302205E9 ; 3.224171580307592E10 ; 0.0
169 ; 1.1974092792783933E7 ; 2.0262230666571474E8 ; 2.1067699102064779E9 ; 3.244432650458227E10 ; 0.0
170 ; 1.1962050935509535E7 ; 2.0263387276442495E8 ; 2.1187440029992619E9 ; 3.2646948811247986E10 ; 0.0
171 ; 1.194961111586121E7 ; 2.0264539950604856E8 ; 2.1307060539347713E9 ; 3.284958268401241E10 ; 0.0
172 ; 1.1935736759621149E7 ; 2.0265688659665135E8 ; 2.1426556650506325E9 ; 3.305222808351846E10 ; 0.0
173 ; 1.1926553873098614E7 ; 2.0266833374475265E8 ; 2.1545914018102536E9 ; 3.3254884970115112E10 ; 0.0
174 ; 1.1918861917833792E7 ; 2.0267974066128337E8 ; 2.1665179556833525E9 ; 3.3457553303859863E10 ; 0.0
175 ; 1.1915601323641809E7 ; 2.026911070595453E8 ; 2.1784368176011863E9 ; 3.3660233044521145E10 ; 0.0
176 ; 1.1906133230962299E7 ; 2.0270243265517205E8 ; 2.190352418924828E9 ; 3.386292415158069E10 ; 0.0
177 ; 1.1901313960581612E7 ; 2.0271371716609132E8 ; 2.2022585521557903E9 ; 3.406562658423586E10 ; 0.0
178 ; 1.1888857261704378E7 ; 2.0272496031248876E8 ; 2.214159866116372E9 ; 3.426834030140195E10 ; 0.0
179 ; 1.188419634955134E7 ; 2.0273616181677285E8 ; 2.2260487233780766E9 ; 3.447106526171444E10 ; 0.0
180 ; 1.187701506525148E7 ; 2.0274732140354142E8 ; 2.2379329197276278E9 ; 3.467380142353121E10 ; 0.0
181 ; 1.1871389053819662E7 ; 2.0275843879954892E8 ; 2.249809934792879E9 ; 3.487654874493475E10 ; 0.0
182 ; 1.1864449262923112E7 ; 2.0276951373367554E8 ; 2.2616813238466988E9 ; 3.50793071837343E10 ; 0.0
183 ; 1.1854286437662749E7 ; 2.0278054593689665E8 ; 2.273545773109622E9 ; 3.528207669746797E10 ; 0.0
184 ; 1.1848035034928221E7 ; 2.0279153514225405E8 ; 2.2854000595472846E9 ; 3.548485724340487E10 ; 0.0
185 ; 1.1841668413800126E7 ; 2.0280248108482787E8 ; 2.297248094582213E9 ; 3.568764877854713E10 ; 0.0
186 ; 1.183233606201859E7 ; 2.028133835017096E8 ; 2.309089762996013E9 ; 3.589045125963196E10 ; 0.0
187 ; 1.1825719089695275E7 ; 2.0282424213197607E8 ; 2.3209220990580316E9 ; 3.609326464313367E10 ; 0.0
188 ; 1.1816154782540506E7 ; 2.0283505671666437E8 ; 2.332747818147727E9 ; 3.629608888526564E10 ; 0.0
189 ; 1.1810851917920856E7 ; 2.028458269987477E8 ; 2.3445639729302673E9 ; 3.649892394198231E10 ; 0.0
190 ; 1.1801826181811608E7 ; 2.0285655272311208E8 ; 2.3563748248481884E9 ; 3.670176976898106E10 ; 0.0
191 ; 1.1799530976199426E7 ; 2.028672336365339E8 ; 2.36817665103E9 ; 3.690462632170417E10 ; 0.0
192 ; 1.1791517126387414E7 ; 2.0287786948765808E8 ; 2.3799761820062E9 ; 3.7107493555340706E10 ; 0.0
193 ; 1.1783542307965077E7 ; 2.0288846002697754E8 ; 2.3917676991325874E9 ; 3.731037142482836E10 ; 0.0
194 ; 1.1776801252003517E7 ; 2.0289900500681272E8 ; 2.4035512414405527E9 ; 3.751325988485534E10 ; 0.0
195 ; 1.1768550482292227E7 ; 2.0290950418129236E8 ; 2.4153280426925564E9 ; 3.771615888986215E10 ; 0.0
