CSV File for the City 4 on Day 58
1 - Minute m 
2 - Power Consumed at minute m 
3 - Power Produced at minute m 
4 - Energy Consumed since the beginning of the day 
5 - Energy Produced since the beginning of the day 
6 - Energy Lost since the beginning of the day on lines starting from the city
 
0 ; 6799720.779857408 ; 1.0591065742523572E8 ; 0.0 ; 0.0 ; 0.0
1 ; 6807899.51886038 ; 1.0606085499157214E8 ; 6799720.779857408 ; 1.0591065742523572E8 ; 0.0
2 ; 6813723.290495159 ; 1.0652010829097179E8 ; 1.360762029871779E7 ; 2.1197151241680786E8 ; 0.0
3 ; 6823960.1441692775 ; 1.0728842384574431E8 ; 2.0421343589212947E7 ; 3.1849162070777965E8 ; 0.0
4 ; 6831871.287401001 ; 1.0836580754811978E8 ; 2.7245303733382225E7 ; 4.2578004455352396E8 ; 0.0
5 ; 6844197.978873331 ; 1.0975226461208946E8 ; 3.407717502078322E7 ; 5.3414585210164374E8 ; 0.0
6 ; 6861451.999482279 ; 1.1144779952954122E8 ; 4.092137299965656E7 ; 6.438981167137332E8 ; 0.0
7 ; 6884527.347728157 ; 1.1345241603152275E8 ; 4.778282499913884E7 ; 7.553459162432745E8 ; 0.0
8 ; 6914565.665981454 ; 1.1576611705539507E8 ; 5.4667352346866995E7 ; 8.687983322747972E8 ; 0.0
9 ; 6965353.873521911 ; 1.1838890471854329E8 ; 6.158191801284845E7 ; 9.845644493301923E8 ; 0.0
10 ; 7045339.841455677 ; 1.2132078029918993E8 ; 6.854727188637036E7 ; 1.1029533540487356E9 ; 0.0
11 ; 7169237.221652108 ; 1.2456174422471616E8 ; 7.559261172782604E7 ; 1.2242741343479257E9 ; 0.0
12 ; 7365476.530367816 ; 1.2811179606774077E8 ; 8.276184894947815E7 ; 1.3488358785726418E9 ; 0.0
13 ; 7555511.318953312 ; 1.3197093455004126E8 ; 9.012732547984597E7 ; 1.4769476746403825E9 ; 0.0
14 ; 7579169.300620772 ; 1.361391575542326E8 ; 9.768283679879928E7 ; 1.6089186091904237E9 ; 0.0
15 ; 7588510.4586269595 ; 1.4061646214295363E8 ; 1.0526200609942004E8 ; 1.7450577667446563E9 ; 0.0
16 ; 7595243.074934005 ; 1.4540284458515683E8 ; 1.12850516558047E8 ; 1.88567422888761E9 ; 0.0
17 ; 7603375.665598171 ; 1.504983003889542E8 ; 1.20445759632981E8 ; 2.0310770734727669E9 ; 0.0
18 ; 7614132.978944844 ; 1.559028243403545E8 ; 1.2804913529857917E8 ; 2.181575373861721E9 ; 0.0
19 ; 7619614.151026917 ; 1.616164105471277E8 ; 1.3566326827752402E8 ; 2.3374781982020755E9 ; 0.0
20 ; 7630418.0438470645 ; 1.6763905248696408E8 ; 1.4328288242855093E8 ; 2.499094608749203E9 ; 0.0
21 ; 7640344.994834658 ; 1.7397074305905238E8 ; 1.5091330047239798E8 ; 2.6667336612361674E9 ; 0.0
22 ; 7648813.954961609 ; 1.8061147463818306E8 ; 1.5855364546723264E8 ; 2.84070440429522E9 ; 0.0
23 ; 7653847.526779505 ; 1.8756123913049453E8 ; 1.6620245942219424E8 ; 3.021315878933403E9 ; 0.0
24 ; 7667458.583332103 ; 1.948200280300104E8 ; 1.7385630694897375E8 ; 3.2088771180638976E9 ; 0.0
25 ; 7675512.0649265945 ; 2.010758733733525E8 ; 1.8152376553230584E8 ; 3.403697146093908E9 ; 0.0
26 ; 7683472.51970441 ; 2.0108231383242625E8 ; 1.8919927759723243E8 ; 3.6047730194672604E9 ; 0.0
27 ; 7688509.7253052015 ; 2.0108910929372168E8 ; 1.9688275011693683E8 ; 3.8058553332996864E9 ; 0.0
28 ; 7699589.225358241 ; 2.0109625015752736E8 ; 2.0457125984224203E8 ; 4.006944442593408E9 ; 0.0
29 ; 7707762.169653134 ; 2.011037266811878E8 ; 2.1227084906760028E8 ; 4.2080406927509356E9 ; 0.0
30 ; 7717042.331725207 ; 2.011115290263063E8 ; 2.1997861123725343E8 ; 4.409144419432123E9 ; 0.0
31 ; 7723708.333694802 ; 2.0111964730284745E8 ; 2.2769565356897864E8 ; 4.610255948458429E9 ; 0.0
32 ; 7731356.673130345 ; 2.011280716099348E8 ; 2.3541936190267345E8 ; 4.811375595761277E9 ; 0.0
33 ; 7739461.133790826 ; 2.0113679207321706E8 ; 2.431507185758038E8 ; 5.012503667371212E9 ; 0.0
34 ; 7745444.702525344 ; 2.0114579887874758E8 ; 2.508901797095946E8 ; 5.213640459444429E9 ; 0.0
35 ; 7754428.133073038 ; 2.011550823033843E8 ; 2.5863562441211995E8 ; 5.414786258323177E9 ; 0.0
36 ; 7759418.782968455 ; 2.011646327417696E8 ; 2.66390052545193E8 ; 5.615941340626562E9 ; 0.0
37 ; 7768987.01742656 ; 2.0117444072999495E8 ; 2.741494713281614E8 ; 5.817105973368332E9 ; 0.0
38 ; 7773642.784979623 ; 2.011844969660892E8 ; 2.8191845834558797E8 ; 6.018280414098327E9 ; 0.0
39 ; 7780721.628614393 ; 2.0119479232749763E8 ; 2.896921011305676E8 ; 6.219464911064416E9 ; 0.0
40 ; 7785156.829799188 ; 2.0120531788573846E8 ; 2.97472822759182E8 ; 6.420659703391913E9 ; 0.0
41 ; 7793086.649239693 ; 2.0121606491843596E8 ; 3.0525797958898115E8 ; 6.621865021277652E9 ; 0.0
42 ; 7796380.715876162 ; 2.0122702491893744E8 ; 3.130510662382209E8 ; 6.823081086196088E9 ; 0.0
43 ; 7800154.0295727635 ; 2.012381896037237E8 ; 3.2084744695409703E8 ; 7.0243081111150255E9 ; 0.0
44 ; 7805474.602992637 ; 2.012495509178202E8 ; 3.286476009836698E8 ; 7.225546300718749E9 ; 0.0
45 ; 7810129.1789441295 ; 2.0126110103841183E8 ; 3.364530755866625E8 ; 7.426795851636569E9 ; 0.0
46 ; 7815313.655494406 ; 2.0127283237685704E8 ; 3.442632047656066E8 ; 7.628056952674981E9 ; 0.0
47 ; 7818147.869751063 ; 2.0128473757928568E8 ; 3.52078518421101E8 ; 7.829329785051838E9 ; 0.0
48 ; 7822513.865062917 ; 2.0129680952595693E8 ; 3.59896666290852E8 ; 8.030614522631124E9 ; 0.0
49 ; 7822869.306851885 ; 2.013090413295389E8 ; 3.677191801559149E8 ; 8.231911332157081E9 ; 0.0
50 ; 7825495.633517863 ; 2.0132142633246183E8 ; 3.7554204946276677E8 ; 8.43322037348662E9 ; 0.0
51 ; 7827985.3534739865 ; 2.0133395810348246E8 ; 3.833675450962846E8 ; 8.634541799819082E9 ; 0.0
52 ; 7833175.3226226345 ; 2.0134663043358576E8 ; 3.911955304497586E8 ; 8.835875757922565E9 ; 0.0
53 ; 7830423.820792925 ; 2.0135943733133832E8 ; 3.9902870577238125E8 ; 9.037222388356152E9 ; 0.0
54 ; 7832957.870276068 ; 2.0137237301779565E8 ; 4.0685912959317416E8 ; 9.23858182568749E9 ; 0.0
55 ; 7833934.399357834 ; 2.0138543192105472E8 ; 4.1469208746345025E8 ; 9.439954198705286E9 ; 0.0
56 ; 7836306.301221157 ; 2.0139860867053363E8 ; 4.225260218628081E8 ; 9.64133963062634E9 ; 0.0
57 ; 7837056.4828137085 ; 2.0141189809104925E8 ; 4.3036232816402924E8 ; 9.842738239296875E9 ; 0.0
58 ; 7839455.113456583 ; 2.0142529519675657E8 ; 4.3819938464684296E8 ; 1.0044150137387924E10 ; 0.0
59 ; 7843568.825608401 ; 2.0143879518500373E8 ; 4.4603883976029956E8 ; 1.024557543258468E10 ; 0.0
60 ; 7841910.27677461 ; 2.0145239343015042E8 ; 4.5388240858590794E8 ; 1.0447014227769684E10 ; 0.0
61 ; 7846971.541972808 ; 2.0146608547739044E8 ; 4.617243188626825E8 ; 1.0648466621199835E10 ; 0.0
62 ; 7843278.014992307 ; 2.0147986703661275E8 ; 4.6957129040465534E8 ; 1.0849932706677225E10 ; 0.0
63 ; 7846537.403583417 ; 2.0149373397633028E8 ; 4.7741456841964763E8 ; 1.1051412573713839E10 ; 0.0
64 ; 7849898.856316888 ; 2.0150768231770104E8 ; 4.8526110582323104E8 ; 1.1252906307690168E10 ; 0.0
65 ; 7850929.025910387 ; 2.0152170822866178E8 ; 4.931110046795479E8 ; 1.145441399000787E10 ; 0.0
66 ; 7851506.26726151 ; 2.0153580801819012E8 ; 5.009619337054583E8 ; 1.1655935698236532E10 ; 0.0
67 ; 7850432.78091765 ; 2.015499781307088E8 ; 5.088134399727198E8 ; 1.1857471506254723E10 ; 0.0
68 ; 7855142.373638572 ; 2.0156421514064172E8 ; 5.1666387275363743E8 ; 1.2059021484385431E10 ; 0.0
69 ; 7855041.851935304 ; 2.0157851574712962E8 ; 5.24519015127276E8 ; 1.2260585699526073E10 ; 0.0
70 ; 7855690.626363518 ; 2.015928767689111E8 ; 5.3237405697921133E8 ; 1.2462164215273203E10 ; 0.0
71 ; 7855108.740179843 ; 2.01607295139372E8 ; 5.402297476055748E8 ; 1.2663757092042114E10 ; 0.0
72 ; 7856536.586985384 ; 2.016217679017658E8 ; 5.480848563457547E8 ; 1.2865364387181486E10 ; 0.0
73 ; 7857350.8126599975 ; 2.01636292204605E8 ; 5.559413929327401E8 ; 1.3066986155083252E10 ; 0.0
74 ; 7855531.361609677 ; 2.0165086529722357E8 ; 5.637987437454001E8 ; 1.3268622447287857E10 ; 0.0
75 ; 7855034.321943272 ; 2.016654845255081E8 ; 5.716542751070098E8 ; 1.3470273312585081E10 ; 0.0
76 ; 7856193.32296287 ; 2.0168014732779664E8 ; 5.79509309428953E8 ; 1.367193879711059E10 ; 0.0
77 ; 7859360.276248306 ; 2.0169485123094055E8 ; 5.873655027519159E8 ; 1.3873618944438387E10 ; 0.0
78 ; 7855098.701565906 ; 2.017095938465277E8 ; 5.952248630281643E8 ; 1.4075313795669327E10 ; 0.0
79 ; 7852520.126679252 ; 2.0172437286726138E8 ; 6.030799617297301E8 ; 1.4277023389515854E10 ; 0.0
80 ; 7852374.482941792 ; 2.01739186063492E8 ; 6.109324818564094E8 ; 1.4478747762383116E10 ; 0.0
81 ; 7848710.025129032 ; 2.0175403127989605E8 ; 6.187848563393512E8 ; 1.4680486948446608E10 ; 0.0
82 ; 7846681.412907443 ; 2.017689064322986E8 ; 6.266335663644803E8 ; 1.4882240979726503E10 ; 0.0
83 ; 7842522.855932767 ; 2.0178380950463337E8 ; 6.344802477773877E8 ; 1.5084009886158802E10 ; 0.0
84 ; 7842963.712811968 ; 2.0179873854603687E8 ; 6.423227706333205E8 ; 1.5285793695663435E10 ; 0.0
85 ; 7839900.212043839 ; 2.0181369166807035E8 ; 6.501657343461324E8 ; 1.5487592434209473E10 ; 0.0
86 ; 7836518.096352347 ; 2.0182866704206565E8 ; 6.580056345581763E8 ; 1.5689406125877542E10 ; 0.0
87 ; 7832000.369810571 ; 2.0184366289658973E8 ; 6.658421526545286E8 ; 1.589123479291961E10 ; 0.0
88 ; 7827774.785177834 ; 2.0185867751502302E8 ; 6.736741530243392E8 ; 1.6093078455816198E10 ; 0.0
89 ; 7826478.81552314 ; 2.0187370923324716E8 ; 6.81501927809517E8 ; 1.629493713333122E10 ; 0.0
90 ; 7825593.335755042 ; 2.018887564374371E8 ; 6.893284066250402E8 ; 1.6496810842564468E10 ; 0.0
91 ; 7822013.401671115 ; 2.0190381756195375E8 ; 6.971539999607952E8 ; 1.6698699599001905E10 ; 0.0
92 ; 7819338.928650722 ; 2.0191889108733225E8 ; 7.049760133624663E8 ; 1.690060341656386E10 ; 0.0
93 ; 7816408.114886433 ; 2.019339755383617E8 ; 7.127953522911171E8 ; 1.7102522307651192E10 ; 0.0
94 ; 7812968.098463853 ; 2.0194906948225275E8 ; 7.206117604060035E8 ; 1.7304456283189552E10 ; 0.0
95 ; 7809407.62247425 ; 2.0196417152688843E8 ; 7.284247285044674E8 ; 1.7506405352671806E10 ; 0.0
96 ; 7806271.023927853 ; 2.01979280319155E8 ; 7.362341361269416E8 ; 1.7708369524198696E10 ; 0.0
97 ; 7801946.179817593 ; 2.0199439454334894E8 ; 7.440404071508694E8 ; 1.7910348804517853E10 ; 0.0
98 ; 7798153.880777007 ; 2.0200951291965625E8 ; 7.518423533306869E8 ; 1.8112343199061203E10 ; 0.0
99 ; 7797164.281906119 ; 2.0202463420270145E8 ; 7.596405072114639E8 ; 1.8314352711980858E10 ; 0.0
100 ; 7793259.272467884 ; 2.020397571801624E8 ; 7.6743767149337E8 ; 1.851637734618356E10 ; 0.0
101 ; 7787405.278785809 ; 2.0205488067144784E8 ; 7.752309307658379E8 ; 1.871841710336372E10 ; 0.0
102 ; 7783886.662956478 ; 2.0207000352643543E8 ; 7.830183360446237E8 ; 1.8920471984035168E10 ; 0.0
103 ; 7779584.888446974 ; 2.0208512462426642E8 ; 7.908022227075802E8 ; 1.9122541987561604E10 ; 0.0
104 ; 7775229.364136414 ; 2.0210024287219515E8 ; 7.985818075960271E8 ; 1.932462711218587E10 ; 0.0
105 ; 7770911.882783804 ; 2.0211535720449024E8 ; 8.063570369601636E8 ; 1.9526727355058067E10 ; 0.0
106 ; 7767170.825853993 ; 2.0213046658138525E8 ; 8.141279488429474E8 ; 1.9728842712262558E10 ; 0.0
107 ; 7763929.250883197 ; 2.0214556998807645E8 ; 8.218951196688013E8 ; 1.9930973178843945E10 ; 0.0
108 ; 7760631.968853232 ; 2.0216066643376535E8 ; 8.296590489196845E8 ; 2.013311874883202E10 ; 0.0
109 ; 7756067.969082246 ; 2.0217575495074403E8 ; 8.374196808885378E8 ; 2.0335279415265785E10 ; 0.0
110 ; 7749302.914996594 ; 2.0219083459352124E8 ; 8.4517574885762E8 ; 2.053745517021653E10 ; 0.0
111 ; 7748016.602406855 ; 2.0220590443798685E8 ; 8.529250517726166E8 ; 2.073964600481005E10 ; 0.0
112 ; 7740108.121024741 ; 2.0222096358061385E8 ; 8.606730683750235E8 ; 2.094185190924804E10 ; 0.0
113 ; 7733645.427053065 ; 2.0223601113769493E8 ; 8.684131764960482E8 ; 2.114407287282865E10 ; 0.0
114 ; 7731132.913500172 ; 2.0225104624461287E8 ; 8.761468219231013E8 ; 2.1346308883966347E10 ; 0.0
115 ; 7730446.536230207 ; 2.0226606805514282E8 ; 8.838779548366015E8 ; 2.154855993021096E10 ; 0.0
116 ; 7721535.909723382 ; 2.02281075740785E8 ; 8.916084013728317E8 ; 2.17508259982661E10 ; 0.0
117 ; 7716751.358040119 ; 2.0229606849012616E8 ; 8.993299372825551E8 ; 2.1953107074006886E10 ; 0.0
118 ; 7712004.4314161455 ; 2.023110455082291E8 ; 9.070466886405952E8 ; 2.2155403142497013E10 ; 0.0
119 ; 7707966.224176769 ; 2.0232600601604804E8 ; 9.147586930720114E8 ; 2.235771418800524E10 ; 0.0
120 ; 7698523.873407981 ; 2.0234094924986947E8 ; 9.224666592961881E8 ; 2.256004019402129E10 ; 0.0
121 ; 7696012.683587098 ; 2.0235587446077657E8 ; 9.301651831695961E8 ; 2.276238114327116E10 ; 0.0
122 ; 7691629.614097949 ; 2.0237078091413683E8 ; 9.378611958531832E8 ; 2.2964737017731937E10 ; 0.0
123 ; 7685897.880066553 ; 2.0238566788911107E8 ; 9.455528254672811E8 ; 2.3167107798646072E10 ; 0.0
124 ; 7679872.092585991 ; 2.0240053467818344E8 ; 9.532387233473476E8 ; 2.3369493466535183E10 ; 0.0
125 ; 7675179.198728109 ; 2.02415380586711E8 ; 9.609185954399337E8 ; 2.3571894001213367E10 ; 0.0
126 ; 7670994.1393157 ; 2.0243020493249243E8 ; 9.685937746386617E8 ; 2.377430938180008E10 ; 0.0
127 ; 7663335.1022268 ; 2.0244500704535457E8 ; 9.762647687779775E8 ; 2.397673958673257E10 ; 0.0
128 ; 7658661.199437839 ; 2.0245978626675615E8 ; 9.839281038802043E8 ; 2.4179184593777924E10 ; 0.0
129 ; 7651340.898001861 ; 2.0247454194940796E8 ; 9.915867650796422E8 ; 2.438164438004468E10 ; 0.0
130 ; 7646927.609279595 ; 2.0248927345690888E8 ; 9.992381059776441E8 ; 2.458411892199409E10 ; 0.0
131 ; 7635722.293502543 ; 2.025039801633964E8 ; 1.0068850335869237E9 ; 2.4786608195451E10 ; 0.0
132 ; 7626146.974907177 ; 2.025186614532119E8 ; 1.0145207558804263E9 ; 2.4989112175614395E10 ; 0.0
133 ; 7620159.107077593 ; 2.0253331672057933E8 ; 1.0221469028553334E9 ; 2.5191630837067608E10 ; 0.0
134 ; 7611181.630676119 ; 2.0254794536929685E8 ; 1.029767061962411E9 ; 2.539416415378819E10 ; 0.0
135 ; 7602903.521164436 ; 2.025625468124412E8 ; 1.0373782435930872E9 ; 2.5596712099157486E10 ; 0.0
136 ; 7594755.422593606 ; 2.0257712047208366E8 ; 1.0449811471142516E9 ; 2.579927464596993E10 ; 0.0
137 ; 7584532.253719085 ; 2.025916657790175E8 ; 1.0525759025368452E9 ; 2.6001851766442013E10 ; 0.0
138 ; 7575262.313919305 ; 2.0260618217249647E8 ; 1.0601604347905643E9 ; 2.620444343222103E10 ; 0.0
139 ; 7567792.199855784 ; 2.0262066909998327E8 ; 1.0677356971044836E9 ; 2.6407049614393528E10 ; 0.0
140 ; 7557778.031120185 ; 2.026351260169085E8 ; 1.0753034893043394E9 ; 2.660967028349351E10 ; 0.0
141 ; 7550071.026831486 ; 2.0264955238643858E8 ; 1.0828612673354597E9 ; 2.6812305409510418E10 ; 0.0
142 ; 7540558.7290250035 ; 2.0266394767925313E8 ; 1.090411338362291E9 ; 2.701495496189686E10 ; 0.0
143 ; 7534375.229189625 ; 2.0267831137333098E8 ; 1.097951897091316E9 ; 2.721761890957611E10 ; 0.0
144 ; 7522865.805653722 ; 2.0269264295374435E8 ; 1.1054862723205056E9 ; 2.742029722094944E10 ; 0.0
145 ; 7514582.321537982 ; 2.0270694191246113E8 ; 1.1130091381261594E9 ; 2.7622989863903183E10 ; 0.0
146 ; 7510299.169569687 ; 2.0272120774815488E8 ; 1.1205237204476974E9 ; 2.7825696805815643E10 ; 0.0
147 ; 7502270.49513396 ; 2.0273543996602193E8 ; 1.1280340196172671E9 ; 2.8028418013563797E10 ; 0.0
148 ; 7495148.14917335 ; 2.027496380776056E8 ; 1.135536290112401E9 ; 2.823115345352982E10 ; 0.0
149 ; 7489734.069092973 ; 2.0276380160062715E8 ; 1.1430314382615743E9 ; 2.8433903091607426E10 ; 0.0
150 ; 7481919.663371087 ; 2.0277793005882305E8 ; 1.1505211723306673E9 ; 2.8636666893208054E10 ; 0.0
151 ; 7475369.171993932 ; 2.0279202298178852E8 ; 1.1580030919940383E9 ; 2.8839444823266876E10 ; 0.0
152 ; 7468779.661100692 ; 2.0280607990482682E8 ; 1.1654784611660323E9 ; 2.9042236846248665E10 ; 0.0
153 ; 7463710.874737086 ; 2.0282010036880443E8 ; 1.172947240827133E9 ; 2.9245042926153492E10 ; 0.0
154 ; 7456895.014831992 ; 2.0283408392001137E8 ; 1.18041095170187E9 ; 2.9447863026522297E10 ; 0.0
155 ; 7447638.251817226 ; 2.02848030110027E8 ; 1.187867846716702E9 ; 2.9650697110442307E10 ; 0.0
156 ; 7440484.341509207 ; 2.0286193849559045E8 ; 1.1953154849685192E9 ; 2.9853545140552334E10 ; 0.0
157 ; 7434081.394268871 ; 2.0287580863847637E8 ; 1.2027559693100283E9 ; 3.0056407079047924E10 ; 0.0
158 ; 7431500.579601449 ; 2.0288964010537466E8 ; 1.2101900507042973E9 ; 3.02592828876864E10 ; 0.0
159 ; 7421492.373862753 ; 2.0290343246777502E8 ; 1.2176215512838988E9 ; 3.0462172527791775E10 ; 0.0
160 ; 7415110.4708153885 ; 2.0291718530185562E8 ; 1.2250430436577616E9 ; 3.066507596025955E10 ; 0.0
161 ; 7408046.430450905 ; 2.029308981883758E8 ; 1.232458154128577E9 ; 3.0867993145561405E10 ; 0.0
162 ; 7402492.009270351 ; 2.0294457071257266E8 ; 1.239866200559028E9 ; 3.1070924043749783E10 ; 0.0
163 ; 7394074.878664604 ; 2.0295820246406147E8 ; 1.2472686925682983E9 ; 3.1273868614462357E10 ; 0.0
164 ; 7387939.812424313 ; 2.0297179303673947E8 ; 1.2546627674469628E9 ; 3.147682681692642E10 ; 0.0
165 ; 7380016.515559265 ; 2.0298534202869353E8 ; 1.2620507072593873E9 ; 3.1679798609963158E10 ; 0.0
166 ; 7373744.922724996 ; 2.0299884904211068E8 ; 1.2694307237749465E9 ; 3.188278395199185E10 ; 0.0
167 ; 7364258.996265578 ; 2.0301231368319204E8 ; 1.2768044686976714E9 ; 3.2085782801033962E10 ; 0.0
168 ; 7357692.131489626 ; 2.030257355620699E8 ; 1.284168727693937E9 ; 3.2288795114717155E10 ; 0.0
169 ; 7353584.561497192 ; 2.030391142927275E8 ; 1.2915264198254266E9 ; 3.2491820850279224E10 ; 0.0
170 ; 7342832.009102438 ; 2.0305244949292198E8 ; 1.2988800043869238E9 ; 3.2694859964571953E10 ; 0.0
171 ; 7335342.660446808 ; 2.0306574078410965E8 ; 1.3062228363960261E9 ; 3.2897912414064877E10 ; 0.0
172 ; 7327943.798673994 ; 2.0307898779137427E8 ; 1.313558179056473E9 ; 3.3100978154848988E10 ; 0.0
173 ; 7323511.828868905 ; 2.0309219014335757E8 ; 1.3208861228551471E9 ; 3.330405714264036E10 ; 0.0
174 ; 7317431.938086462 ; 2.0310534747219238E8 ; 1.328209634684016E9 ; 3.350714933278372E10 ; 0.0
175 ; 7313289.777386201 ; 2.031184594134379E8 ; 1.3355270666221025E9 ; 3.371025468025591E10 ; 0.0
176 ; 7311142.388294831 ; 2.0313152560601747E8 ; 1.3428403563994887E9 ; 3.3913373139669346E10 ; 0.0
177 ; 7304862.000923563 ; 2.031445456921583E8 ; 1.3501514987877836E9 ; 3.4116504665275364E10 ; 0.0
178 ; 7297475.374454765 ; 2.031575193173333E8 ; 1.3574563607887073E9 ; 3.431964921096752E10 ; 0.0
179 ; 7296372.095753111 ; 2.0317044613020507E8 ; 1.364753836163162E9 ; 3.452280673028486E10 ; 0.0
180 ; 7291703.611369465 ; 2.0318332578257158E8 ; 1.3720502082589152E9 ; 3.472597717641506E10 ; 0.0
181 ; 7282832.312017092 ; 2.03196157929314E8 ; 1.3793419118702846E9 ; 3.492916050219763E10 ; 0.0
182 ; 7284492.7243400235 ; 2.0320894222834596E8 ; 1.3866247441823018E9 ; 3.5132356660126945E10 ; 0.0
183 ; 7276207.458694214 ; 2.03221678340565E8 ; 1.3939092369066417E9 ; 3.533556560235529E10 ; 0.0
184 ; 7273623.600232776 ; 2.0323436592980516E8 ; 1.401185444365336E9 ; 3.553878728069586E10 ; 0.0
185 ; 7269102.700986433 ; 2.032470046627916E8 ; 1.4084590679655688E9 ; 3.574202164662566E10 ; 0.0
186 ; 7262144.536447813 ; 2.0325959420909655E8 ; 1.4157281706665552E9 ; 3.594526865128845E10 ; 0.0
187 ; 7261695.581060315 ; 2.032721342410968E8 ; 1.422990315203003E9 ; 3.614852824549755E10 ; 0.0
188 ; 7258182.626243302 ; 2.0328462443393254E8 ; 1.4302520107840633E9 ; 3.635180037973865E10 ; 0.0
189 ; 7252361.686450975 ; 2.0329706446546793E8 ; 1.4375101934103067E9 ; 3.655508500417258E10 ; 0.0
190 ; 7245505.37112997 ; 2.033094540162524E8 ; 1.4447625550967577E9 ; 3.675838206863805E10 ; 0.0
191 ; 7245047.351652095 ; 2.0332179276948386E8 ; 1.4520080604678876E9 ; 3.69616915226543E10 ; 0.0
192 ; 7237305.147561079 ; 2.033340804109727E8 ; 1.4592531078195398E9 ; 3.716501331542378E10 ; 0.0
193 ; 7235255.152296919 ; 2.033463166291073E8 ; 1.4664904129671009E9 ; 3.7368347395834755E10 ; 0.0
194 ; 7231196.647490772 ; 2.033585011148204E8 ; 1.4737256681193979E9 ; 3.757169371246386E10 ; 0.0
195 ; 7225524.766010809 ; 2.0337063356155697E8 ; 1.4809568647668886E9 ; 3.777505221357868E10 ; 0.0
196 ; 7220442.053294221 ; 2.033827136652427E8 ; 1.4881823895328994E9 ; 3.7978422847140236E10 ; 0.0
197 ; 7215723.554254686 ; 2.03394741124254E8 ; 1.4954028315861936E9 ; 3.818180556080548E10 ; 0.0
198 ; 7210995.265744332 ; 2.034067156393885E8 ; 1.5026185551404483E9 ; 3.838520030192973E10 ; 0.0
199 ; 7207389.006967939 ; 2.0341863691383708E8 ; 1.5098295504061928E9 ; 3.858860701756912E10 ; 0.0
200 ; 7204203.274144006 ; 1.9874619874673638E8 ; 1.5170369394131608E9 ; 3.8792025654482956E10 ; 0.0
201 ; 7197183.509654596 ; 1.546023253463863E8 ; 1.5242411426873047E9 ; 3.899077185322969E10 ; 0.0
