CSV File for the City 4 on Day 312
1 - Minute m 
2 - Power Consumed at minute m 
3 - Power Produced at minute m 
4 - Energy Consumed since the beginning of the day 
5 - Energy Produced since the beginning of the day 
6 - Energy Lost since the beginning of the day on lines starting from the city
 
0 ; 6905488.004910866 ; 1.0691098286986467E8 ; 0.0 ; 0.0 ; 0.0
1 ; 6911827.795477739 ; 1.0706125418881452E8 ; 6905488.004910866 ; 1.0691098286986467E8 ; 0.0
2 ; 6922467.776451152 ; 1.0752058495284829E8 ; 1.3817315800388604E7 ; 2.139722370586792E8 ; 0.0
3 ; 6928771.758740552 ; 1.0828897805562544E8 ; 2.0739783576839756E7 ; 3.214928220115275E8 ; 0.0
4 ; 6941562.909885563 ; 1.093664360756048E8 ; 2.7668555335580308E7 ; 4.297818000671529E8 ; 0.0
5 ; 6953366.458676884 ; 1.1075296126683682E8 ; 3.4610118245465875E7 ; 5.391482361427577E8 ; 0.0
6 ; 6970156.792359288 ; 1.1244855555081728E8 ; 4.156348470414276E7 ; 6.499011974095945E8 ; 0.0
7 ; 6992482.176538354 ; 1.1445322050947076E8 ; 4.853364149650204E7 ; 7.623497529604118E8 ; 0.0
8 ; 7025896.360418036 ; 1.1676695737932432E8 ; 5.55261236730404E7 ; 8.768029734698825E8 ; 0.0
9 ; 7078742.858877067 ; 1.1938976704692215E8 ; 6.2552020033458434E7 ; 9.935699308492068E8 ; 0.0
10 ; 7154731.900985598 ; 1.223216500455209E8 ; 6.96307628923355E7 ; 1.112959697896129E9 ; 0.0
11 ; 7276951.524916822 ; 1.2556260655309501E8 ; 7.67854947933211E7 ; 1.23528134794165E9 ; 0.0
12 ; 7476600.275874348 ; 1.2911263639167002E8 ; 8.406244631823793E7 ; 1.360843954494745E9 ; 0.0
13 ; 7666877.031610868 ; 1.3297173902798927E8 ; 9.153904659411228E7 ; 1.489956590886415E9 ; 0.0
14 ; 7689476.885490987 ; 1.3713991357550865E8 ; 9.920592362572314E7 ; 1.6229283299144044E9 ; 0.0
15 ; 7699976.514443004 ; 1.41617158797701E8 ; 1.0689540051121412E8 ; 1.760068243489913E9 ; 0.0
16 ; 7709725.000927631 ; 1.4640347311264184E8 ; 1.1459537702565713E8 ; 1.9016854022876139E9 ; 0.0
17 ; 7717803.344831925 ; 1.5149885459883532E8 ; 1.2230510202658476E8 ; 2.0480888754002557E9 ; 0.0
18 ; 7728637.286328298 ; 1.56903301002231E8 ; 1.3002290537141669E8 ; 2.199587729999091E9 ; 0.0
19 ; 7740878.140373691 ; 1.6261680974437007E8 ; 1.3775154265774497E8 ; 2.3564910310013223E9 ; 0.0
20 ; 7748602.275983059 ; 1.6863937793159303E8 ; 1.4549242079811865E8 ; 2.5191078407456923E9 ; 0.0
21 ; 7757487.735040614 ; 1.749710023652322E8 ; 1.5324102307410172E8 ; 2.687747218677285E9 ; 0.0
22 ; 7766550.74764407 ; 1.8161167955270576E8 ; 1.6099851080914232E8 ; 2.862718221042517E9 ; 0.0
23 ; 7778438.686868108 ; 1.8856140571942544E8 ; 1.687650615567864E8 ; 3.044329900595223E9 ; 0.0
24 ; 7786989.560294515 ; 1.9582017682142478E8 ; 1.765435002436545E8 ; 3.2328913063146486E9 ; 0.0
25 ; 7794660.183762922 ; 2.0207602945679724E8 ; 1.84330489803949E8 ; 3.4287114831360736E9 ; 0.0
26 ; 7806730.106476473 ; 2.0208250691637412E8 ; 1.921251499877119E8 ; 3.6307875125928707E9 ; 0.0
27 ; 7811512.7630442735 ; 2.020893737228422E8 ; 1.999318800941884E8 ; 3.832870019509245E9 ; 0.0
28 ; 7820737.026668299 ; 2.0209662489206383E8 ; 2.0774339285723266E8 ; 4.034959393232087E9 ; 0.0
29 ; 7832278.8667595135 ; 2.021042552411099E8 ; 2.1556412988390097E8 ; 4.2370560181241508E9 ; 0.0
30 ; 7839462.791977538 ; 2.0211225940319368E8 ; 2.2339640875066048E8 ; 4.439160273365261E9 ; 0.0
31 ; 7849855.874147624 ; 2.0212063184266302E8 ; 2.31235871542638E8 ; 4.641272532768455E9 ; 0.0
32 ; 7856077.301338299 ; 2.0212936686996564E8 ; 2.3908572741678563E8 ; 4.843393164611117E9 ; 0.0
33 ; 7866152.783142302 ; 2.021384586565083E8 ; 2.469418047181239E8 ; 5.045522531481083E9 ; 0.0
34 ; 7875356.542315265 ; 2.021479012493356E8 ; 2.548079575012662E8 ; 5.247660990137591E9 ; 0.0
35 ; 7881793.180194056 ; 2.021576885855602E8 ; 2.626833140435815E8 ; 5.449808891386927E9 ; 0.0
36 ; 7889520.908350472 ; 2.021678145064825E8 ; 2.7056510722377557E8 ; 5.6519665799724865E9 ; 0.0
37 ; 7898436.081973506 ; 2.0217827277134436E8 ; 2.7845462813212603E8 ; 5.854134394478969E9 ; 0.0
38 ; 7905987.734300076 ; 2.0218905707066733E8 ; 2.863530642140995E8 ; 6.056312667250313E9 ; 0.0
39 ; 7912767.670870695 ; 2.022001610391332E8 ; 2.942590519483996E8 ; 6.25850172432098E9 ; 0.0
40 ; 7918723.288295154 ; 2.022115782679704E8 ; 3.021718196192703E8 ; 6.460701885360113E9 ; 0.0
41 ; 7926529.428870125 ; 2.0222330231681627E8 ; 3.100905429075655E8 ; 6.662913463628083E9 ; 0.0
42 ; 7930103.6186457295 ; 2.0223532672503096E8 ; 3.180170723364356E8 ; 6.8651367659449E9 ; 0.0
43 ; 7935977.709846609 ; 2.0224764502244493E8 ; 3.2594717595508134E8 ; 7.06737209266993E9 ; 0.0
44 ; 7943159.584955796 ; 2.0226025073952687E8 ; 3.3388315366492796E8 ; 7.269619737692375E9 ; 0.0
45 ; 7946462.934436507 ; 2.0227313741696402E8 ; 3.418263132498838E8 ; 7.471879988431902E9 ; 0.0
46 ; 7952372.880746997 ; 2.022862986146517E8 ; 3.497727761843203E8 ; 7.6741531258488655E9 ; 0.0
47 ; 7956430.352320045 ; 2.0229972792009288E8 ; 3.577251490650673E8 ; 7.876439424463517E9 ; 0.0
48 ; 7960642.165226778 ; 2.023134189562122E8 ; 3.6568157941738737E8 ; 8.07873915238361E9 ; 0.0
49 ; 7962762.243080513 ; 2.0232736538859308E8 ; 3.736422215826141E8 ; 8.281052571339822E9 ; 0.0
50 ; 7969650.342844959 ; 2.023415609321486E8 ; 3.816049838256946E8 ; 8.483379936728415E9 ; 0.0
51 ; 7971729.667627113 ; 2.023559993572398E8 ; 3.895746341685396E8 ; 8.685721497660563E9 ; 0.0
52 ; 7972004.783702838 ; 2.0237067449525774E8 ; 3.975463638361667E8 ; 8.888077497017803E9 ; 0.0
53 ; 7976669.433046295 ; 2.023855802436865E8 ; 4.0551836861986953E8 ; 9.090448171513062E9 ; 0.0
54 ; 7980156.917528492 ; 2.0240071057066724E8 ; 4.134950380529158E8 ; 9.292833751756748E9 ; 0.0
55 ; 7983871.017346827 ; 2.0241605951908284E8 ; 4.214751949704443E8 ; 9.495234462327415E9 ; 0.0
56 ; 7986690.093146095 ; 2.0243162121018577E8 ; 4.294590659877911E8 ; 9.697650521846498E9 ; 0.0
57 ; 7991213.388013723 ; 2.0244738984679E8 ; 4.374457560809372E8 ; 9.900082143056684E9 ; 0.0
58 ; 7992336.775289719 ; 2.0246335971605062E8 ; 4.454369694689509E8 ; 1.0102529532903475E10 ; 0.0
59 ; 7995063.509987017 ; 2.0247952519185314E8 ; 4.5342930624424064E8 ; 1.0304992892619526E10 ; 0.0
60 ; 7998623.3222059775 ; 2.0249588073683542E8 ; 4.6142436975422764E8 ; 1.0507472417811378E10 ; 0.0
61 ; 7999283.868743 ; 2.0251242090406483E8 ; 4.694229930764336E8 ; 1.0709968298548214E10 ; 0.0
62 ; 8001949.429915033 ; 2.0252914033839288E8 ; 4.774222769451766E8 ; 1.0912480719452278E10 ; 0.0
63 ; 8004705.517910698 ; 2.0254603377750874E8 ; 4.854242263750916E8 ; 1.111500985979067E10 ; 0.0
64 ; 8003052.45907927 ; 2.0256309605271354E8 ; 4.9342893189300233E8 ; 1.131755589356818E10 ; 0.0
65 ; 8011624.346713998 ; 2.0258032208943546E8 ; 5.014319843520816E8 ; 1.1520118989620893E10 ; 0.0
66 ; 8011536.793726777 ; 2.0259770690750578E8 ; 5.094436086987956E8 ; 1.172269931171033E10 ; 0.0
67 ; 8009492.437373861 ; 2.0261524562121502E8 ; 5.174551454925224E8 ; 1.1925297018617834E10 ; 0.0
68 ; 7998987.616443917 ; 2.0263293343916747E8 ; 5.254646379298963E8 ; 1.212791226423905E10 ; 0.0
69 ; 7994373.576523977 ; 2.0265076566395146E8 ; 5.334636255463402E8 ; 1.2330545197678217E10 ; 0.0
70 ; 7984845.815834897 ; 2.0266873769164237E8 ; 5.414579991228642E8 ; 1.2533195963342169E10 ; 0.0
71 ; 7978883.888240642 ; 2.0268684501115373E8 ; 5.494428449386991E8 ; 1.2735864701033812E10 ; 0.0
72 ; 7972164.552258023 ; 2.0270508320345148E8 ; 5.574217288269398E8 ; 1.2938551546044966E10 ; 0.0
73 ; 7964126.855375217 ; 2.027234479406458E8 ; 5.653938933791978E8 ; 1.3141256629248417E10 ; 0.0
74 ; 7954793.5305324495 ; 2.0274193498497304E8 ; 5.73358020234573E8 ; 1.3343980077189062E10 ; 0.0
75 ; 7949318.427207155 ; 2.027605401876805E8 ; 5.813128137651055E8 ; 1.3546722012174036E10 ; 0.0
76 ; 7941555.80919943 ; 2.0277925948782596E8 ; 5.892621321923126E8 ; 1.3749482552361717E10 ; 0.0
77 ; 7933320.867883928 ; 2.0279808891100183E8 ; 5.97203688001512E8 ; 1.3952261811849543E10 ; 0.0
78 ; 7925082.096139398 ; 2.0281702456799492E8 ; 6.05137008869396E8 ; 1.4155059900760544E10 ; 0.0
79 ; 7914016.229060351 ; 2.028360626533906E8 ; 6.130620909655354E8 ; 1.4357876925328539E10 ; 0.0
80 ; 7904739.645286602 ; 2.028551994441297E8 ; 6.209761071945957E8 ; 1.456071298798193E10 ; 0.0
81 ; 7894394.069669122 ; 2.028744312980271E8 ; 6.288808468398823E8 ; 1.476356818742606E10 ; 0.0
82 ; 7882787.12162641 ; 2.028937546522579E8 ; 6.367752409095514E8 ; 1.4966442618724087E10 ; 0.0
83 ; 7872532.438296776 ; 2.0291316602181903E8 ; 6.446580280311778E8 ; 1.5169336373376345E10 ; 0.0
84 ; 7861428.143758299 ; 2.029326619979721E8 ; 6.525305604694746E8 ; 1.5372249539398163E10 ; 0.0
85 ; 7854903.74480063 ; 2.0295223924667257E8 ; 6.603919886132329E8 ; 1.5575182201396135E10 ; 0.0
86 ; 7844426.728071607 ; 2.0297189450699133E8 ; 6.682468923580335E8 ; 1.5778134440642807E10 ; 0.0
87 ; 7832723.010365849 ; 2.0299162458953226E8 ; 6.760913190861051E8 ; 1.5981106335149797E10 ; 0.0
88 ; 7822927.827932106 ; 2.0301142637485078E8 ; 6.83924042096471E8 ; 1.618409795973933E10 ; 0.0
89 ; 7811869.632354199 ; 2.0303129681187692E8 ; 6.917469699244031E8 ; 1.6387109386114182E10 ; 0.0
90 ; 7800230.368055441 ; 2.0305123291634595E8 ; 6.995588395567572E8 ; 1.6590140682926058E10 ; 0.0
91 ; 7789935.261847284 ; 2.0307123176924008E8 ; 7.073590699248127E8 ; 1.6793191915842403E10 ; 0.0
92 ; 7779493.896959822 ; 2.030912905152439E8 ; 7.151490051866599E8 ; 1.6996263147611643E10 ; 0.0
93 ; 7768039.1978285955 ; 2.031114063612155E8 ; 7.229284990836197E8 ; 1.719935443812689E10 ; 0.0
94 ; 7756277.004991376 ; 2.0313157657467607E8 ; 7.306965382814484E8 ; 1.7402465844488102E10 ; 0.0
95 ; 7747034.885762837 ; 2.0315179848231906E8 ; 7.384528152864398E8 ; 1.760559742106278E10 ; 0.0
96 ; 7737111.255142594 ; 2.0317206946854147E8 ; 7.461998501722026E8 ; 1.7808749219545097E10 ; 0.0
97 ; 7723405.200157337 ; 2.031923869739976E8 ; 7.539369614273452E8 ; 1.8011921289013638E10 ; 0.0
98 ; 7712680.3408584455 ; 2.0321274849417725E8 ; 7.616603666275024E8 ; 1.8215113675987637E10 ; 0.0
99 ; 7701905.223742303 ; 2.0323315157800925E8 ; 7.693730469683609E8 ; 1.8418326424481815E10 ; 0.0
100 ; 7693383.78952264 ; 2.0325359382649055E8 ; 7.770749521921031E8 ; 1.8621559576059826E10 ; 0.0
101 ; 7677158.733705426 ; 2.0327407289134252E8 ; 7.847683359816258E8 ; 1.882481316988632E10 ; 0.0
102 ; 7668096.561440126 ; 2.0329458647369412E8 ; 7.924454947153312E8 ; 1.902808724277766E10 ; 0.0
103 ; 7656062.616002347 ; 2.0331513232279292E8 ; 8.001135912767713E8 ; 1.9231381829251354E10 ; 0.0
104 ; 7644247.630173671 ; 2.0333570823474407E8 ; 8.077696538927736E8 ; 1.9434696961574146E10 ; 0.0
105 ; 7634758.458268026 ; 2.0335631205127728E8 ; 8.154139015229473E8 ; 1.963803266980889E10 ; 0.0
106 ; 7619353.850492594 ; 2.0337694165854216E8 ; 8.230486599812154E8 ; 1.984138898186017E10 ; 0.0
107 ; 7611091.681304213 ; 2.0339759498593175E8 ; 8.30668013831708E8 ; 2.004476592351871E10 ; 0.0
108 ; 7598086.410715274 ; 2.0341827000493434E8 ; 8.382791055130122E8 ; 2.0248163518504642E10 ; 0.0
109 ; 7589237.259653052 ; 2.0343896472801325E8 ; 8.458771919237274E8 ; 2.045158178850958E10 ; 0.0
110 ; 7575798.704831501 ; 2.034596772075144E8 ; 8.534664291833805E8 ; 2.065502075323759E10 ; 0.0
111 ; 7563143.411095871 ; 2.0348040553460184E8 ; 8.61042227888212E8 ; 2.0858480430445107E10 ; 0.0
112 ; 7549569.825900682 ; 2.0350114783822024E8 ; 8.686053712993078E8 ; 2.106196083597971E10 ; 0.0
113 ; 7539592.115095662 ; 2.035219022840846E8 ; 8.761549411252085E8 ; 2.126546198381793E10 ; 0.0
114 ; 7527503.864387175 ; 2.0354266707369658E8 ; 8.836945332403041E8 ; 2.1468983886102013E10 ; 0.0
115 ; 7515775.992267204 ; 2.0356344044338706E8 ; 8.912220371046913E8 ; 2.167252655317571E10 ; 0.0
116 ; 7503159.066414419 ; 2.0358422066338444E8 ; 8.987378130969585E8 ; 2.1876089993619095E10 ; 0.0
117 ; 7490290.470055543 ; 2.0360500603690836E8 ; 9.06240972163373E8 ; 2.207967421428248E10 ; 0.0
118 ; 7477255.451067999 ; 2.036257948992886E8 ; 9.137312626334286E8 ; 2.2283279220319386E10 ; 0.0
119 ; 7466082.305620207 ; 2.0364658561710778E8 ; 9.212085180844966E8 ; 2.2486905015218674E10 ; 0.0
120 ; 7452246.990966694 ; 2.0366737658736873E8 ; 9.286746003901168E8 ; 2.269055160083578E10 ; 0.0
121 ; 7436808.961797731 ; 2.036881662366847E8 ; 9.361268473810835E8 ; 2.289421897742315E10 ; 0.0
122 ; 7424937.693065917 ; 2.0370895302049294E8 ; 9.435636563428812E8 ; 2.3097907143659832E10 ; 0.0
123 ; 7414587.0775065925 ; 2.037297354222903E8 ; 9.509885940359471E8 ; 2.3301616096680325E10 ; 0.0
124 ; 7401186.176172768 ; 2.03750511952891E8 ; 9.584031811134536E8 ; 2.3505345832102615E10 ; 0.0
125 ; 7389646.859897214 ; 2.0377128114970565E8 ; 9.658043672896264E8 ; 2.3709096344055508E10 ; 0.0
126 ; 7377763.391376764 ; 2.0379204157604122E8 ; 9.731940141495236E8 ; 2.391286762520521E10 ; 0.0
127 ; 7360734.691995971 ; 2.038127918204212E8 ; 9.805717775409003E8 ; 2.4116659666781254E10 ; 0.0
128 ; 7348043.268900488 ; 2.0383353049592564E8 ; 9.879325122328963E8 ; 2.4320472458601673E10 ; 0.0
129 ; 7340663.120991217 ; 2.0385425623955065E8 ; 9.952805555017968E8 ; 2.45243059890976E10 ; 0.0
130 ; 7320810.924858111 ; 2.0387496771158642E8 ; 1.0026212186227881E9 ; 2.472816024533715E10 ; 0.0
131 ; 7307141.27772687 ; 2.038956635950138E8 ; 1.0099420295476462E9 ; 2.4932035213048737E10 ; 0.0
132 ; 7294862.629496015 ; 2.0391634259491858E8 ; 1.017249170825373E9 ; 2.513593087664375E10 ; 0.0
133 ; 7277950.49013415 ; 2.0393700343792307E8 ; 1.024544033454869E9 ; 2.5339847219238667E10 ; 0.0
134 ; 7260721.227196924 ; 2.039576448716347E8 ; 1.0318219839450032E9 ; 2.554378422267659E10 ; 0.0
135 ; 7245366.566015796 ; 2.0397826566411063E8 ; 1.0390827051722001E9 ; 2.5747741867548225E10 ; 0.0
136 ; 7226521.394947461 ; 2.0399886460333884E8 ; 1.0463280717382159E9 ; 2.5951720133212337E10 ; 0.0
137 ; 7211325.467202077 ; 2.0401944049673414E8 ; 1.0535545931331633E9 ; 2.6155718997815678E10 ; 0.0
138 ; 7197638.807878045 ; 2.0403999217064956E8 ; 1.0607659186003654E9 ; 2.6359738438312412E10 ; 0.0
139 ; 7182452.911882413 ; 2.0406051846990213E8 ; 1.0679635574082434E9 ; 2.6563778430483063E10 ; 0.0
140 ; 7165311.227558438 ; 2.04081018257313E8 ; 1.0751460103201258E9 ; 2.6767838948952965E10 ; 0.0
141 ; 7148268.3447058275 ; 2.041014904132612E8 ; 1.0823113215476842E9 ; 2.6971919967210278E10 ; 0.0
142 ; 7132850.529394982 ; 2.041219338352507E8 ; 1.08945958989239E9 ; 2.717602145762354E10 ; 0.0
143 ; 7113954.751502577 ; 2.0414234743749064E8 ; 1.0965924404217849E9 ; 2.738014339145879E10 ; 0.0
144 ; 7100221.155324397 ; 2.041627301504879E8 ; 1.1037063951732874E9 ; 2.7584285738896282E10 ; 0.0
145 ; 7087923.500148649 ; 2.0418308092065194E8 ; 1.1108066163286119E9 ; 2.778844846904677E10 ; 0.0
146 ; 7072549.382992331 ; 2.042033987099116E8 ; 1.1178945398287604E9 ; 2.799263154996742E10 ; 0.0
147 ; 7059327.594207878 ; 2.042236824953432E8 ; 1.1249670892117527E9 ; 2.819683494867733E10 ; 0.0
148 ; 7046456.73850088 ; 2.0424393126880977E8 ; 1.1320264168059604E9 ; 2.8401058631172672E10 ; 0.0
149 ; 7034076.00853473 ; 2.0426414403661126E8 ; 1.1390728735444613E9 ; 2.8605302562441483E10 ; 0.0
150 ; 7016927.376008126 ; 2.0428431981914505E8 ; 1.146106949552996E9 ; 2.8809566706478092E10 ; 0.0
151 ; 7005295.412503572 ; 2.043044576505766E8 ; 1.153123876929004E9 ; 2.9013851026297237E10 ; 0.0
152 ; 6987195.391089445 ; 2.0432455657852E8 ; 1.1601291723415074E9 ; 2.9218155483947815E10 ; 0.0
153 ; 6978433.362608285 ; 2.0434461566372812E8 ; 1.1671163677325969E9 ; 2.9422480040526337E10 ; 0.0
154 ; 6963730.716631879 ; 2.043646339797918E8 ; 1.174094801095205E9 ; 2.9626824656190063E10 ; 0.0
155 ; 6949678.960889298 ; 2.043846106128482E8 ; 1.181058531811837E9 ; 2.9831189290169857E10 ; 0.0
156 ; 6937802.172920659 ; 2.0440454466129774E8 ; 1.1880082107727263E9 ; 3.0035573900782703E10 ; 0.0
157 ; 6923973.872743948 ; 2.0442443523552948E8 ; 1.194946012945647E9 ; 3.0239978445444E10 ; 0.0
158 ; 6906169.321835839 ; 2.044442814576547E8 ; 1.2018699868183908E9 ; 3.044440288067953E10 ; 0.0
159 ; 6896756.201078759 ; 2.0446408246124828E8 ; 1.2087761561402266E9 ; 3.0648847162137184E10 ; 0.0
160 ; 6881765.440218707 ; 2.0448383739109775E8 ; 1.2156729123413053E9 ; 3.085331124459843E10 ; 0.0
161 ; 6867458.369799409 ; 2.045035454029601E8 ; 1.222554677781524E9 ; 3.105779508198953E10 ; 0.0
162 ; 6852944.954188149 ; 2.045232056633251E8 ; 1.2294221361513233E9 ; 3.126229862739249E10 ; 0.0
163 ; 6839741.762357846 ; 2.0454281734918648E8 ; 1.2362750811055114E9 ; 3.1466821833055817E10 ; 0.0
164 ; 6823801.345913607 ; 2.04562379647819E8 ; 1.2431148228678694E9 ; 3.1671364650405003E10 ; 0.0
165 ; 6810518.927760962 ; 2.0458189175656277E8 ; 1.249938624213783E9 ; 3.1875927030052822E10 ; 0.0
166 ; 6795915.6353085935 ; 2.0460135288261348E8 ; 1.256749143141544E9 ; 3.2080508921809383E10 ; 0.0
167 ; 6781195.729262372 ; 2.0462076224281898E8 ; 1.2635450587768526E9 ; 3.2285110274691998E10 ; 0.0
168 ; 6770837.339325674 ; 2.046401190634818E8 ; 1.270326254506115E9 ; 3.248973103693482E10 ; 0.0
169 ; 6753008.414748679 ; 2.0465942258016744E8 ; 1.2770970918454406E9 ; 3.26943711559983E10 ; 0.0
170 ; 6740317.094397329 ; 2.0467867203751823E8 ; 1.2838501002601893E9 ; 3.2899030578578465E10 ; 0.0
171 ; 6726772.24993378 ; 2.0469786668907273E8 ; 1.2905904173545866E9 ; 3.3103709250615982E10 ; 0.0
172 ; 6713701.180244922 ; 2.047E8 ; 1.2973171896045203E9 ; 3.3308407117305054E10 ; 0.0
173 ; 6698743.11926322 ; 2.047E8 ; 1.3040308907847652E9 ; 3.3513107117305054E10 ; 0.0
174 ; 6685615.772650407 ; 2.047E8 ; 1.3107296339040284E9 ; 3.3717807117305054E10 ; 0.0
175 ; 6674436.090321552 ; 2.047E8 ; 1.317415249676679E9 ; 3.3922507117305054E10 ; 0.0
176 ; 6662026.025026951 ; 2.047E8 ; 1.3240896857670004E9 ; 3.4127207117305054E10 ; 0.0
177 ; 6648306.23444401 ; 2.047E8 ; 1.3307517117920275E9 ; 3.4331907117305054E10 ; 0.0
178 ; 6637147.360356105 ; 2.047E8 ; 1.3374000180264714E9 ; 3.453660711730505E10 ; 0.0
179 ; 6624703.770095693 ; 2.047E8 ; 1.3440371653868275E9 ; 3.474130711730505E10 ; 0.0
180 ; 6614497.846137902 ; 2.047E8 ; 1.350661869156923E9 ; 3.494600711730505E10 ; 0.0
181 ; 6600111.157953456 ; 2.047E8 ; 1.357276367003061E9 ; 3.515070711730505E10 ; 0.0
182 ; 6588311.062022564 ; 2.047E8 ; 1.3638764781610146E9 ; 3.535540711730505E10 ; 0.0
183 ; 6577316.767557341 ; 2.047E8 ; 1.370464789223037E9 ; 3.556010711730505E10 ; 0.0
184 ; 6567729.519823957 ; 2.047E8 ; 1.3770421059905944E9 ; 3.576480711730505E10 ; 0.0
185 ; 6553496.169494677 ; 2.047E8 ; 1.3836098355104184E9 ; 3.596950711730505E10 ; 0.0
186 ; 6540533.642413436 ; 2.047E8 ; 1.390163331679913E9 ; 3.617420711730505E10 ; 0.0
187 ; 6528473.078324278 ; 2.047E8 ; 1.3967038653223264E9 ; 3.637890711730505E10 ; 0.0
188 ; 6515452.335178734 ; 2.047E8 ; 1.4032323384006507E9 ; 3.658360711730505E10 ; 0.0
189 ; 6504317.122501167 ; 2.047E8 ; 1.4097477907358296E9 ; 3.678830711730505E10 ; 0.0
190 ; 6492328.303649351 ; 2.047E8 ; 1.4162521078583307E9 ; 3.699300711730505E10 ; 0.0
191 ; 6480665.643600206 ; 2.047E8 ; 1.4227444361619802E9 ; 3.719770711730505E10 ; 0.0
192 ; 6466167.465163888 ; 2.047E8 ; 1.4292251018055804E9 ; 3.740240711730505E10 ; 0.0
193 ; 6453311.1640111515 ; 2.047E8 ; 1.4356912692707443E9 ; 3.760710711730505E10 ; 0.0
194 ; 6445139.8605365325 ; 2.047E8 ; 1.4421445804347556E9 ; 3.781180711730505E10 ; 0.0
195 ; 6430975.037439142 ; 2.047E8 ; 1.4485897202952921E9 ; 3.801650711730505E10 ; 0.0
196 ; 6418241.672579164 ; 2.047E8 ; 1.4550206953327312E9 ; 3.822120711730505E10 ; 0.0
197 ; 6407449.640987424 ; 2.047E8 ; 1.4614389370053103E9 ; 3.842590711730505E10 ; 0.0
198 ; 6396033.0823741425 ; 2.047E8 ; 1.4678463866462977E9 ; 3.863060711730505E10 ; 0.0
199 ; 6382053.317472225 ; 1.7205328565735134E8 ; 1.4742424197286718E9 ; 3.883530711730505E10 ; 0.0
200 ; 6371001.022188796 ; 1.5620807492166224E8 ; 1.480624473046144E9 ; 3.90073604029624E10 ; 0.0
201 ; 6358733.655315799 ; 1.5586000678114402E8 ; 1.486995474068333E9 ; 3.916356847788406E10 ; 0.0
202 ; 6346123.202012477 ; 1.555127382774142E8 ; 1.4933542077236488E9 ; 3.931942848466521E10 ; 0.0
203 ; 6333406.641125882 ; 1.5516626757342157E8 ; 1.4997003309256613E9 ; 3.947494122294262E10 ; 0.0
204 ; 6321295.3665069165 ; 1.548205928363353E8 ; 1.5060337375667872E9 ; 3.9630107490516045E10 ; 0.0
