CSV File for the City 1 on Day 63
1 - Minute m 
2 - Power Consumed at minute m 
3 - Power Produced at minute m 
4 - Energy Consumed since the beginning of the day 
5 - Energy Produced since the beginning of the day 
6 - Energy Lost since the beginning of the day on lines starting from the city
 
0 ; 1.5997765518467255E7 ; 1.0545564779813245E8 ; 0.0 ; 0.0 ; 0.0
1 ; 1.6011535118367279E7 ; 1.056085135913251E8 ; 1.5997765518467255E7 ; 1.0545564779813245E8 ; 0.0
2 ; 1.6028503881968405E7 ; 1.0607016808176944E8 ; 3.2009300636834532E7 ; 2.1106416138945755E8 ; 0.0
3 ; 1.6051235012888307E7 ; 1.0684061335314035E8 ; 4.803780451880294E7 ; 3.17134329471227E8 ; 0.0
4 ; 1.6071936578357449E7 ; 1.0791985128326046E8 ; 6.4089039531691246E7 ; 4.2397494282436734E8 ; 0.0
5 ; 1.61008320524482E7 ; 1.0930788353021687E8 ; 8.01609761100487E7 ; 5.318947941076278E8 ; 0.0
6 ; 1.6138034320491955E7 ; 1.110047115197812E8 ; 9.62618081624969E7 ; 6.412026776378447E8 ; 0.0
7 ; 1.6192869886570446E7 ; 1.1301033643435013E8 ; 1.1239984248298885E8 ; 7.522073891576259E8 ; 0.0
8 ; 1.6273336904336054E7 ; 1.1532475920360273E8 ; 1.2859271236955929E8 ; 8.65217725591976E8 ; 0.0
9 ; 1.6387758790957944E7 ; 1.1794798049704528E8 ; 1.4486604927389535E8 ; 9.805424847955787E8 ; 0.0
10 ; 1.656942255971626E7 ; 1.2088000071858245E8 ; 1.612538080648533E8 ; 1.098490465292624E9 ; 0.0
11 ; 1.685686502726429E7 ; 1.2412082000321814E8 ; 1.7782323062456957E8 ; 1.2193704660112064E9 ; 0.0
12 ; 1.732206436380501E7 ; 1.2767043821594843E8 ; 1.9468009565183386E8 ; 1.3434912860144246E9 ; 0.0
13 ; 1.7762494328722548E7 ; 1.3152885495286864E8 ; 2.120021600156389E8 ; 1.471161724230373E9 ; 0.0
14 ; 1.7818372707869876E7 ; 1.3569606954447258E8 ; 2.2976465434436142E8 ; 1.6026905791832416E9 ; 0.0
15 ; 1.7838960074124884E7 ; 1.4017208106108105E8 ; 2.475830270522313E8 ; 1.738386648727714E9 ; 0.0
16 ; 1.7858698531760722E7 ; 1.449568883202975E8 ; 2.6542198712635618E8 ; 1.878558729788795E9 ; 0.0
17 ; 1.7875416345021784E7 ; 1.5005048989635023E8 ; 2.8328068565811694E8 ; 2.0235156181090925E9 ; 0.0
18 ; 1.7897974368028745E7 ; 1.5545288413115215E8 ; 3.011561020031387E8 ; 2.1735661080054426E9 ; 0.0
19 ; 1.7918446627616942E7 ; 1.6116406914688066E8 ; 3.190540763711675E8 ; 2.329018992136595E9 ; 0.0
20 ; 1.7937282630058732E7 ; 1.671840428598608E8 ; 3.369725229987844E8 ; 2.4901830612834754E9 ; 0.0
21 ; 1.7960822840128865E7 ; 1.735128029955218E8 ; 3.549098056288431E8 ; 2.6573671041433363E9 ; 0.0
22 ; 1.7983519405732702E7 ; 1.8015034710419005E8 ; 3.7287062846897197E8 ; 2.8308799071388583E9 ; 0.0
23 ; 1.8002491844800748E7 ; 1.8709667257748014E8 ; 3.9085414787470466E8 ; 3.011030254243048E9 ; 0.0
24 ; 1.8023279478704974E7 ; 1.943517766650511E8 ; 4.088566397195054E8 ; 3.1981269268205285E9 ; 0.0
25 ; 1.8045336299139373E7 ; 2.006036973896896E8 ; 4.268799191982104E8 ; 3.3924787034855795E9 ; 0.0
26 ; 1.8064513047054753E7 ; 2.0060597960103944E8 ; 4.449252554973498E8 ; 3.593082400875269E9 ; 0.0
27 ; 1.808593568351408E7 ; 2.0060838951708415E8 ; 4.6298976854440457E8 ; 3.7936883804763083E9 ; 0.0
28 ; 1.8106851628300045E7 ; 2.006109239870739E8 ; 4.810757042279186E8 ; 3.9942967699933925E9 ; 0.0
29 ; 1.812457372800738E7 ; 2.006135798003545E8 ; 4.991825558562187E8 ; 4.1949076939804664E9 ; 0.0
30 ; 1.814198896123656E7 ; 2.0061635370125628E8 ; 5.173071295842261E8 ; 4.395521273780821E9 ; 0.0
31 ; 1.8159461644814964E7 ; 2.006192424031879E8 ; 5.354491185454626E8 ; 4.596137627482077E9 ; 0.0
32 ; 1.818203422518668E7 ; 2.0062224260185793E8 ; 5.536085801902776E8 ; 4.796756869885264E9 ; 0.0
33 ; 1.819926213826432E7 ; 2.0062535098756742E8 ; 5.717906144154643E8 ; 4.997379112487123E9 ; 0.0
34 ; 1.8216926628032766E7 ; 2.0062856425653812E8 ; 5.899898765537286E8 ; 5.1980044634746895E9 ; 0.0
35 ; 1.82336839273802E7 ; 2.006318791212585E8 ; 6.082068031817614E8 ; 5.398633027731228E9 ; 0.0
36 ; 1.8249447028901394E7 ; 2.0063529231984565E8 ; 6.264404871091416E8 ; 5.599264906852487E9 ; 0.0
37 ; 1.8268411023626663E7 ; 2.00638800624436E8 ; 6.446899341380429E8 ; 5.799900199172332E9 ; 0.0
38 ; 1.827951254326295E7 ; 2.0064240084862843E8 ; 6.629583451616696E8 ; 6.000538999796768E9 ; 0.0
39 ; 1.829316465715452E7 ; 2.0064608985401416E8 ; 6.812378577049326E8 ; 6.201181400645396E9 ; 0.0
40 ; 1.8309524383477733E7 ; 2.0064986455583456E8 ; 6.995310223620871E8 ; 6.401827490499411E9 ; 0.0
41 ; 1.8320943380875073E7 ; 2.0065372192781484E8 ; 7.178405467455648E8 ; 6.602477355055245E9 ; 0.0
42 ; 1.8334983565407693E7 ; 2.006576590062245E8 ; 7.361614901264399E8 ; 6.80313107698306E9 ; 0.0
43 ; 1.8350216877525784E7 ; 2.006616728932195E8 ; 7.544964736918476E8 ; 7.0037887359892845E9 ; 0.0
44 ; 1.835884121034418E7 ; 2.0066576075952116E8 ; 7.728466905693734E8 ; 7.204450408882504E9 ; 0.0
45 ; 1.8369316650064643E7 ; 2.0066991984648785E8 ; 7.912055317797176E8 ; 7.405116169642026E9 ; 0.0
46 ; 1.8375824047164854E7 ; 2.0067414746763483E8 ; 8.095748484297822E8 ; 7.605786089488514E9 ; 0.0
47 ; 1.838219046649056E7 ; 2.006784410096555E8 ; 8.27950672476947E8 ; 7.806460236956149E9 ; 0.0
48 ; 1.839046701893519E7 ; 2.0068279793299654E8 ; 8.463328629434375E8 ; 8.007138677965805E9 ; 0.0
49 ; 1.8398174624437716E7 ; 2.0068721577203563E8 ; 8.647233299623727E8 ; 8.207821475898802E9 ; 0.0
50 ; 1.840766265251226E7 ; 2.006916921349086E8 ; 8.831215045868104E8 ; 8.408508691670837E9 ; 0.0
51 ; 1.8407602183045752E7 ; 2.0069622470302966E8 ; 9.015291672393227E8 ; 8.609200383805746E9 ; 0.0
52 ; 1.8416563349543504E7 ; 2.0070081123034537E8 ; 9.199367694223684E8 ; 8.809896608508776E9 ; 0.0
53 ; 1.841923784538555E7 ; 2.00705449542359E8 ; 9.383533327719119E8 ; 9.01059741973912E9 ; 0.0
54 ; 1.842043191660631E7 ; 2.0071013753496072E8 ; 9.567725706172974E8 ; 9.211302869281479E9 ; 0.0
55 ; 1.8430979669975184E7 ; 2.0071487317309362E8 ; 9.751930025339037E8 ; 9.412013006816439E9 ; 0.0
56 ; 1.8436133994263083E7 ; 2.0071965448928487E8 ; 9.936239822038789E8 ; 9.612727879989532E9 ; 0.0
57 ; 1.8438792818209223E7 ; 2.007244795820667E8 ; 1.0120601161981419E9 ; 9.813447534478817E9 ; 0.0
58 ; 1.844252359966484E7 ; 2.007293466143105E8 ; 1.0304989090163511E9 ; 1.0014172014060884E10 ; 0.0
59 ; 1.844453648635791E7 ; 2.0073425381149396E8 ; 1.0489414326160159E9 ; 1.0214901360675196E10 ; 0.0
60 ; 1.845207710254365E7 ; 2.007391994599196E8 ; 1.0673859691023738E9 ; 1.041563561448669E10 ; 0.0
61 ; 1.845552212657679E7 ; 2.0074418190490028E8 ; 1.0858380462049174E9 ; 1.061637481394661E10 ; 0.0
62 ; 1.845583541951857E7 ; 2.0074919954892567E8 ; 1.1042935683314943E9 ; 1.081711899585151E10 ; 0.0
63 ; 1.8463992649909824E7 ; 2.0075425084982145E8 ; 1.1227494037510128E9 ; 1.1017868195400434E10 ; 0.0
64 ; 1.8460168876347657E7 ; 2.0075933431891212E8 ; 1.1412133964009225E9 ; 1.1218622446250256E10 ; 0.0
65 ; 1.8465055135392286E7 ; 2.0076444851919615E8 ; 1.15967356527727E9 ; 1.1419381780569168E10 ; 0.0
66 ; 1.846635948822461E7 ; 2.0076959206354076E8 ; 1.1781386204126623E9 ; 1.1620146229088364E10 ; 0.0
67 ; 1.847585887279896E7 ; 2.0077476361290318E8 ; 1.1966049799008868E9 ; 1.1820915821151905E10 ; 0.0
68 ; 1.8473644877065502E7 ; 2.0077996187458366E8 ; 1.2150808387736857E9 ; 1.2021690584764809E10 ; 0.0
69 ; 1.847493806873342E7 ; 2.007851856005142E8 ; 1.233554483650751E9 ; 1.2222470546639393E10 ; 0.0
70 ; 1.847821685653661E7 ; 2.0079043358558726E8 ; 1.2520294217194846E9 ; 1.2423255732239906E10 ; 0.0
71 ; 1.8480881801003218E7 ; 2.0079570466602632E8 ; 1.2705076385760212E9 ; 1.2624046165825493E10 ; 0.0
72 ; 1.847852319327193E7 ; 2.008009977178015E8 ; 1.2889885203770244E9 ; 1.282484187049152E10 ; 0.0
73 ; 1.848312128197836E7 ; 2.00806311655091E8 ; 1.3074670435702963E9 ; 1.3025642868209322E10 ; 0.0
74 ; 1.848418181550624E7 ; 2.008116454287897E8 ; 1.3259501648522747E9 ; 1.3226449179864412E10 ; 0.0
75 ; 1.8484869111276325E7 ; 2.00816998025066E8 ; 1.3444343466677809E9 ; 1.3427260825293201E10 ; 0.0
76 ; 1.8482795702055372E7 ; 2.0082236846396637E8 ; 1.3629192157790573E9 ; 1.3628077823318268E10 ; 0.0
77 ; 1.8482391256008804E7 ; 2.008277557980685E8 ; 1.3814020114811127E9 ; 1.3828900191782234E10 ; 0.0
78 ; 1.848221743255902E7 ; 2.0083315911118212E8 ; 1.3998844027371216E9 ; 1.4029727947580303E10 ; 0.0
79 ; 1.8481096271001313E7 ; 2.008385775170973E8 ; 1.4183666201696806E9 ; 1.4230561106691484E10 ; 0.0
80 ; 1.8467328308248844E7 ; 2.0084401015837938E8 ; 1.436847716440682E9 ; 1.4431399684208582E10 ; 0.0
81 ; 1.8469171781065717E7 ; 2.0084945620521E8 ; 1.4553150447489307E9 ; 1.463224369436696E10 ; 0.0
82 ; 1.8459746220882155E7 ; 2.008549148542728E8 ; 1.4737842165299964E9 ; 1.483309315057217E10 ; 0.0
83 ; 1.845858294336471E7 ; 2.00860385327683E8 ; 1.4922439627508786E9 ; 1.5033948065426443E10 ; 0.0
84 ; 1.8448436189643383E7 ; 2.0086586687195984E8 ; 1.5107025456942432E9 ; 1.5234808450754126E10 ; 0.0
85 ; 1.8445749435892694E7 ; 2.008713587570403E8 ; 1.5291509818838866E9 ; 1.5435674317626085E10 ; 0.0
86 ; 1.84395159976596E7 ; 2.008768602753332E8 ; 1.5475967313197792E9 ; 1.5636545676383125E10 ; 0.0
87 ; 1.843026692830476E7 ; 2.008823707408122E8 ; 1.5660362473174388E9 ; 1.5837422536658459E10 ; 0.0
88 ; 1.8423745461305596E7 ; 2.0088788948814645E8 ; 1.5844665142457435E9 ; 1.6038304907399271E10 ; 0.0
89 ; 1.8420942811863612E7 ; 2.0089341587186766E8 ; 1.6028902597070491E9 ; 1.6239192796887417E10 ; 0.0
90 ; 1.8409055347057402E7 ; 2.00898949265572E8 ; 1.6213112025189128E9 ; 1.6440086212759285E10 ; 0.0
91 ; 1.8404868994767595E7 ; 2.0090448906115627E8 ; 1.6397202578659701E9 ; 1.6640985162024857E10 ; 0.0
92 ; 1.839570741596902E7 ; 2.0091003466808587E8 ; 1.6581251268607378E9 ; 1.6841889651086014E10 ; 0.0
93 ; 1.839059171804505E7 ; 2.0091558551269454E8 ; 1.676520834276707E9 ; 1.7042799685754099E10 ; 0.0
94 ; 1.8379055110013153E7 ; 2.0092114103751388E8 ; 1.694911425994752E9 ; 1.7243715271266792E10 ; 0.0
95 ; 1.8379483894785583E7 ; 2.009267007006316E8 ; 1.7132904811047652E9 ; 1.7444636412304306E10 ; 0.0
96 ; 1.836586211801178E7 ; 2.0093226397507748E8 ; 1.7316699649995508E9 ; 1.7645563113004936E10 ; 0.0
97 ; 1.835335290742324E7 ; 2.0093783034823582E8 ; 1.7500358271175625E9 ; 1.7846495376980015E10 ; 0.0
98 ; 1.8351599569623236E7 ; 2.0094339932128316E8 ; 1.7683891800249858E9 ; 1.804743320732825E10 ; 0.0
99 ; 1.834413546447895E7 ; 2.0094897040865028E8 ; 1.786740779594609E9 ; 1.8248376606649532E10 ; 0.0
100 ; 1.8332416474978264E7 ; 2.009545431375076E8 ; 1.805084915059088E9 ; 1.844932557705818E10 ; 0.0
101 ; 1.8325844947425045E7 ; 2.0096011704727256E8 ; 1.8234173315340662E9 ; 1.865028012019569E10 ; 0.0
102 ; 1.832031749725906E7 ; 2.009656916891387E8 ; 1.8417431764814913E9 ; 1.885124023724296E10 ; 0.0
103 ; 1.8303931597031396E7 ; 2.009712666256246E8 ; 1.8600634939787505E9 ; 1.9052205928932102E10 ; 0.0
104 ; 1.8298206615479648E7 ; 2.0097684143014255E8 ; 1.8783674255757818E9 ; 1.9253177195557728E10 ; 0.0
105 ; 1.828950786845496E7 ; 2.0098241568658593E8 ; 1.8966656321912615E9 ; 1.945415403698787E10 ; 0.0
106 ; 1.8276911185829833E7 ; 2.0098798898893407E8 ; 1.9149551400597165E9 ; 1.9655136452674454E10 ; 0.0
107 ; 1.8269138913294137E7 ; 2.0099356094087437E8 ; 1.9332320512455463E9 ; 1.9856124441663387E10 ; 0.0
108 ; 1.8257269643851142E7 ; 2.0099913115544033E8 ; 1.9515011901588404E9 ; 2.0057118002604263E10 ; 0.0
109 ; 1.824795711982308E7 ; 2.0100469925466555E8 ; 1.9697584598026915E9 ; 2.0258117133759705E10 ; 0.0
110 ; 1.8237603106291156E7 ; 2.0101026486925203E8 ; 1.9880064169225144E9 ; 2.045912183301437E10 ; 0.0
111 ; 1.822295028174364E7 ; 2.0101582763825294E8 ; 2.0062440200288055E9 ; 2.066013209788362E10 ; 0.0
112 ; 1.8216032919700768E7 ; 2.0102138720876884E8 ; 2.024466970310549E9 ; 2.0861147925521873E10 ; 0.0
113 ; 1.8203983689408742E7 ; 2.010269432356568E8 ; 2.04268300323025E9 ; 2.1062169312730644E10 ; 0.0
114 ; 1.8198187402953114E7 ; 2.0103249538125157E8 ; 2.0608869869196587E9 ; 2.12631962559663E10 ; 0.0
115 ; 1.8182785984580595E7 ; 2.0103804331509915E8 ; 2.0790851743226118E9 ; 2.1464228751347553E10 ; 0.0
116 ; 1.8168443790565345E7 ; 2.0104358671370083E8 ; 2.0972679603071923E9 ; 2.166526679466265E10 ; 0.0
117 ; 1.816033929983714E7 ; 2.010491252602686E8 ; 2.1154364040977576E9 ; 2.186631038137635E10 ; 0.0
118 ; 1.8148872512000073E7 ; 2.0105465864449042E8 ; 2.1335967433975947E9 ; 2.206735950663662E10 ; 0.0
119 ; 1.81351611785119E7 ; 2.010601865623055E8 ; 2.1517456159095945E9 ; 2.226841416528111E10 ; 0.0
120 ; 1.812307122309922E7 ; 2.010657087156888E8 ; 2.1698807770881066E9 ; 2.2469474351843414E10 ; 0.0
121 ; 1.8111610240458976E7 ; 2.0107122481244448E8 ; 2.188003848311206E9 ; 2.2670540060559105E10 ; 0.0
122 ; 1.809872842110683E7 ; 2.0107673456600797E8 ; 2.206115458551665E9 ; 2.2871611285371548E10 ; 0.0
123 ; 1.8086000101888295E7 ; 2.0108223769525617E8 ; 2.2242141869727716E9 ; 2.3072688019937557E10 ; 0.0
124 ; 1.8075794461124662E7 ; 2.0108773392432538E8 ; 2.24230018707466E9 ; 2.3273770257632812E10 ; 0.0
125 ; 1.805649977940347E7 ; 2.0109322298243672E8 ; 2.2603759815357847E9 ; 2.3474857991557137E10 ; 0.0
126 ; 1.8049230474178586E7 ; 2.010987046037286E8 ; 2.2784324813151884E9 ; 2.3675951214539574E10 ; 0.0
127 ; 1.8032461686170265E7 ; 2.0110417852709615E8 ; 2.296481711789367E9 ; 2.3877049919143303E10 ; 0.0
128 ; 1.8019289181816276E7 ; 2.0110964449603707E8 ; 2.3145141734755373E9 ; 2.40781540976704E10 ; 0.0
129 ; 1.800813238124917E7 ; 2.011151022585035E8 ; 2.3325334626573534E9 ; 2.4279263742166435E10 ; 0.0
130 ; 1.7987510171292465E7 ; 2.0112055156676024E8 ; 2.3505415950386024E9 ; 2.448037884442494E10 ; 0.0
131 ; 1.7972745846342646E7 ; 2.0112599217724827E8 ; 2.3685291052098947E9 ; 2.46814993959917E10 ; 0.0
132 ; 1.795087361435364E7 ; 2.0113142385045388E8 ; 2.386501851056237E9 ; 2.488262538816895E10 ; 0.0
133 ; 1.793014315242189E7 ; 2.0113684635078308E8 ; 2.404452724670591E9 ; 2.50837568120194E10 ; 0.0
134 ; 1.7908781112194985E7 ; 2.0114225944644076E8 ; 2.422382867823013E9 ; 2.5284893658370186E10 ; 0.0
135 ; 1.7890670744088642E7 ; 2.0114766290931478E8 ; 2.440291648935208E9 ; 2.5486035917816628E10 ; 0.0
136 ; 1.7873122744490936E7 ; 2.011530565148646E8 ; 2.4581823196792965E9 ; 2.568718358072594E10 ; 0.0
137 ; 1.785424903232397E7 ; 2.0115844004201418E8 ; 2.4760554424237876E9 ; 2.5888336637240807E10 ; 0.0
138 ; 1.782400608915859E7 ; 2.0116381327304912E8 ; 2.4939096914561114E9 ; 2.608949507728282E10 ; 0.0
139 ; 1.7809311742092498E7 ; 2.0116917599351782E8 ; 2.51173369754527E9 ; 2.629065889055587E10 ; 0.0
140 ; 1.7788491031878285E7 ; 2.011745279921363E8 ; 2.5295430092873626E9 ; 2.649182806654939E10 ; 0.0
141 ; 1.7767241254649904E7 ; 2.0117986906069702E8 ; 2.547331500319241E9 ; 2.6693002594541527E10 ; 0.0
142 ; 1.7745034346742276E7 ; 2.0118519899398074E8 ; 2.565098741573891E9 ; 2.6894182463602222E10 ; 0.0
143 ; 1.7725238607106093E7 ; 2.0119051758967218E8 ; 2.5828437759206333E9 ; 2.7095367662596203E10 ; 0.0
144 ; 1.770147203882789E7 ; 2.0119582464827865E8 ; 2.6005690145277395E9 ; 2.7296558180185875E10 ; 0.0
145 ; 1.7686951582383834E7 ; 2.012011199730518E8 ; 2.6182704865665674E9 ; 2.7497754004834152E10 ; 0.0
146 ; 1.7672864474225055E7 ; 2.0120640336991236E8 ; 2.635957438148951E9 ; 2.7698955124807205E10 ; 0.0
147 ; 1.7654464375602487E7 ; 2.0121167464737776E8 ; 2.653630302623176E9 ; 2.7900161528177116E10 ; 0.0
148 ; 1.764125309562144E7 ; 2.0121693361649236E8 ; 2.671284766998779E9 ; 2.8101373202824493E10 ; 0.0
149 ; 1.762642982053297E7 ; 2.0122218009076035E8 ; 2.6889260200944004E9 ; 2.8302590136440987E10 ; 0.0
150 ; 1.7609418999376573E7 ; 2.0122741388608113E8 ; 2.706552449914933E9 ; 2.8503812316531746E10 ; 0.0
151 ; 1.7598716350902025E7 ; 2.0123263482068714E8 ; 2.72416186891431E9 ; 2.8705039730417828E10 ; 0.0
152 ; 1.758254196976132E7 ; 2.0123784271508393E8 ; 2.741760585265212E9 ; 2.8906272365238514E10 ; 0.0
153 ; 1.7565332510051996E7 ; 2.0124303739199233E8 ; 2.7593431272349734E9 ; 2.9107510207953598E10 ; 0.0
154 ; 1.755274995196703E7 ; 2.012482186762931E8 ; 2.7769084597450256E9 ; 2.930875324534559E10 ; 0.0
155 ; 1.753721942913912E7 ; 2.0125338639497316E8 ; 2.794461209696993E9 ; 2.951000146402188E10 ; 0.0
156 ; 1.7523283986934915E7 ; 2.0125854037707403E8 ; 2.811998429126132E9 ; 2.9711254850416855E10 ; 0.0
157 ; 1.7503279801991176E7 ; 2.0126368045364216E8 ; 2.829521713113067E9 ; 2.991251339079393E10 ; 0.0
158 ; 1.7486517810267624E7 ; 2.0126880645768094E8 ; 2.847024992915058E9 ; 3.0113777071247574E10 ; 0.0
159 ; 1.7472701090457212E7 ; 2.012739182241045E8 ; 2.8645115107253256E9 ; 3.0315045877705254E10 ; 0.0
160 ; 1.745615165223781E7 ; 2.0127901558969313E8 ; 2.881984211815783E9 ; 3.051631979592936E10 ; 0.0
161 ; 1.743938535850157E7 ; 2.0128409839305046E8 ; 2.899440363468021E9 ; 3.0717598811519054E10 ; 0.0
162 ; 1.7427649531575505E7 ; 2.0128916647456178E8 ; 2.9168797488265224E9 ; 3.0918882909912106E10 ; 0.0
163 ; 1.7411660801235165E7 ; 2.012942196763544E8 ; 2.934307398358098E9 ; 3.112017207638667E10 ; 0.0
164 ; 1.739326550205305E7 ; 2.0129925784225887E8 ; 2.951719059159333E9 ; 3.1321466296063023E10 ; 0.0
165 ; 1.737737989395343E7 ; 2.013042808177719E8 ; 2.9691123246613865E9 ; 3.152276555390528E10 ; 0.0
166 ; 1.736220959722611E7 ; 2.0130928845002055E8 ; 2.98648970455534E9 ; 3.1724069834723053E10 ; 0.0
167 ; 1.7342471155678544E7 ; 2.013142805877275E8 ; 3.003851914152566E9 ; 3.1925379123173073E10 ; 0.0
168 ; 1.7331082274051584E7 ; 2.013192570811777E8 ; 3.0211943853082447E9 ; 3.21266934037608E10 ; 0.0
169 ; 1.731321291584571E7 ; 2.0132421778218633E8 ; 3.0385254675822964E9 ; 3.2328012660841976E10 ; 0.0
170 ; 1.729336383478948E7 ; 2.0132916254406732E8 ; 3.0558386804981422E9 ; 3.252933687862416E10 ; 0.0
171 ; 1.7278741590500653E7 ; 2.013340912216036E8 ; 3.0731320443329315E9 ; 3.273066604116823E10 ; 0.0
172 ; 1.726038492400054E7 ; 2.0133900367101806E8 ; 3.0904107859234324E9 ; 3.293200013238983E10 ; 0.0
173 ; 1.7243821640933774E7 ; 2.013438997499454E8 ; 3.107671170847433E9 ; 3.313333913606085E10 ; 0.0
174 ; 1.7232571515539117E7 ; 2.0134877931740537E8 ; 3.124914992488367E9 ; 3.3334683035810795E10 ; 0.0
175 ; 1.7227183927694667E7 ; 2.0135364223377636E8 ; 3.1421475640039062E9 ; 3.35360318151282E10 ; 0.0
176 ; 1.7216428003623188E7 ; 2.0135848836077043E8 ; 3.159374747931601E9 ; 3.3737385457361977E10 ; 0.0
177 ; 1.7204049719818473E7 ; 2.0136331756140876E8 ; 3.176591175935224E9 ; 3.3938743945722748E10 ; 0.0
178 ; 1.7194032150081243E7 ; 2.013681296999983E8 ; 3.1937952256550426E9 ; 3.4140107263284157E10 ; 0.0
179 ; 1.7182358153838933E7 ; 2.0137292464210883E8 ; 3.210989257805124E9 ; 3.4341475392984154E10 ; 0.0
180 ; 1.7174680755906504E7 ; 2.0137770225455123E8 ; 3.228171615958963E9 ; 3.454284831762626E10 ; 0.0
181 ; 1.7159959010579888E7 ; 2.013824624053561E8 ; 3.2453462967148695E9 ; 3.474422601988081E10 ; 0.0
182 ; 1.7155904177074283E7 ; 2.0138720496375322E8 ; 3.2625062557254496E9 ; 3.494560848228617E10 ; 0.0
183 ; 1.7140573145403437E7 ; 2.0139192980015188E8 ; 3.279662159902524E9 ; 3.514699568724992E10 ; 0.0
184 ; 1.713088897676172E7 ; 2.0139663678612158E8 ; 3.2968027330479274E9 ; 3.534838761705008E10 ; 0.0
185 ; 1.7125617864744306E7 ; 2.0140132579437354E8 ; 3.313933622024689E9 ; 3.5549784253836205E10 ; 0.0
186 ; 1.711295948869831E7 ; 2.014059966987429E8 ; 3.3310592398894334E9 ; 3.575118557963058E10 ; 0.0
187 ; 1.7103447879980236E7 ; 2.014106493741713E8 ; 3.348172199378132E9 ; 3.595259157632932E10 ; 0.0
188 ; 1.7094362666498505E7 ; 2.0141528369669008E8 ; 3.365275647258112E9 ; 3.615400222570349E10 ; 0.0
189 ; 1.7081618351110484E7 ; 2.0141989954340434E8 ; 3.3823700099246106E9 ; 3.6355417509400185E10 ; 0.0
190 ; 1.7068341072339185E7 ; 2.0142449679247704E8 ; 3.399451628275721E9 ; 3.655683740894359E10 ; 0.0
191 ; 1.706038746225008E7 ; 2.0142907532311404E8 ; 3.41651996934806E9 ; 3.675826190573607E10 ; 0.0
192 ; 1.7050964294007685E7 ; 2.0143363501554936E8 ; 3.4335803568103104E9 ; 3.695969098105918E10 ; 0.0
193 ; 1.704061848998135E7 ; 2.014381757510311E8 ; 3.450631321104318E9 ; 3.716112461607473E10 ; 0.0
194 ; 1.70246872578194E7 ; 2.0144269741180772E8 ; 3.4676719395942993E9 ; 3.736256279182576E10 ; 0.0
195 ; 1.702036930307842E7 ; 2.0144719988111478E8 ; 3.4846966268521185E9 ; 3.7564005489237564E10 ; 0.0
