CSV File for the City 6 on Day 75
1 - Minute m 
2 - Power Consumed at minute m 
3 - Power Produced at minute m 
4 - Energy Consumed since the beginning of the day 
5 - Energy Produced since the beginning of the day 
6 - Energy Lost since the beginning of the day on lines starting from the city
 
0 ; 1.1146778081614267E7 ; 1.0600240319964048E8 ; 0.0 ; 0.0 ; 0.0
1 ; 1.1158561225869872E7 ; 1.061532266820811E8 ; 1.1146778081614267E7 ; 1.0600240319964048E8 ; 0.0
2 ; 1.117209688352318E7 ; 1.0661304715246138E8 ; 2.230533930748414E7 ; 2.121556298817216E8 ; 0.0
3 ; 1.1185455819227453E7 ; 1.0738186887579322E8 ; 3.3477436191007316E7 ; 3.1876867703418297E8 ; 0.0
4 ; 1.1200896749958022E7 ; 1.0845969568268633E8 ; 4.466289201023477E7 ; 4.261505459099762E8 ; 0.0
5 ; 1.1223701546369828E7 ; 1.098465309453072E8 ; 5.58637887601928E7 ; 5.346102415926625E8 ; 0.0
6 ; 1.1248658376281412E7 ; 1.1154237755575165E8 ; 6.7087490306562625E7 ; 6.444567725379697E8 ; 0.0
7 ; 1.1286012984530762E7 ; 1.1354723790714931E8 ; 7.833614868284404E7 ; 7.559991500937214E8 ; 0.0
8 ; 1.1336283604444072E7 ; 1.1586111387778431E8 ; 8.96221616673748E7 ; 8.695463880008707E8 ; 0.0
9 ; 1.14190297623014E7 ; 1.1848400681847733E8 ; 1.0095844527181888E8 ; 9.85407501878655E8 ; 0.0
10 ; 1.154244426583924E7 ; 1.2141591754342604E8 ; 1.1237747503412028E8 ; 1.1038915086971323E9 ; 0.0
11 ; 1.1738638113818718E7 ; 1.246568463246502E8 ; 1.2391991929995951E8 ; 1.2253074262405584E9 ; 0.0
12 ; 1.2057968108534891E7 ; 1.2820679289013001E8 ; 1.3565855741377822E8 ; 1.3499642725652087E9 ; 0.0
13 ; 1.236100705338645E7 ; 1.3206575642566782E8 ; 1.4771652552231312E8 ; 1.4781710654553387E9 ; 0.0
14 ; 1.2400611755442651E7 ; 1.3623373558044302E8 ; 1.6007753257569957E8 ; 1.6102368218810065E9 ; 0.0
15 ; 1.2411284355818976E7 ; 1.4071072847617137E8 ; 1.7247814433114222E8 ; 1.7464705574614496E9 ; 0.0
16 ; 1.24236089313096E7 ; 1.4549673271972337E8 ; 1.848894286869612E8 ; 1.887181285937621E9 ; 0.0
17 ; 1.2436084071791261E7 ; 1.505917454190031E8 ; 1.973130376182708E8 ; 2.0326780186573446E9 ; 0.0
18 ; 1.2452644881614022E7 ; 1.559957632018441E8 ; 2.0974912169006208E8 ; 2.183269764076348E9 ; 0.0
19 ; 1.2468085177888809E7 ; 1.6170878223763666E8 ; 2.222017665716761E8 ; 2.339265527278192E9 ; 0.0
20 ; 1.2480932064040884E7 ; 1.6773079826136884E8 ; 2.3466985174956492E8 ; 2.5009743095158286E9 ; 0.0
21 ; 1.2494351192148691E7 ; 1.740618065997406E8 ; 2.471507838136058E8 ; 2.6687051077771974E9 ; 0.0
22 ; 1.2512947224405004E7 ; 1.8070180219899178E8 ; 2.5964513500575447E8 ; 2.842766914376938E9 ; 0.0
23 ; 1.2527269541206572E7 ; 1.8765077965407938E8 ; 2.7215808223015946E8 ; 3.0234687165759296E9 ; 0.0
24 ; 1.253811368421288E7 ; 1.9490873323883784E8 ; 2.8468535177136606E8 ; 3.211119496230009E9 ; 0.0
25 ; 1.2557742501818698E7 ; 2.0116369783494824E8 ; 2.972234654555789E8 ; 3.406028229468847E9 ; 0.0
26 ; 1.256621846948692E7 ; 2.0116921499990174E8 ; 3.0978120795739764E8 ; 3.607191927303795E9 ; 0.0
27 ; 1.2583342750636851E7 ; 2.011750475229285E8 ; 3.2234742642688453E8 ; 3.8083611423036966E9 ; 0.0
28 ; 1.2593469997626256E7 ; 2.011811887024548E8 ; 3.349307691775214E8 ; 4.0095361898266253E9 ; 0.0
29 ; 1.2606942800167842E7 ; 2.0118763166942102E8 ; 3.4752423917514765E8 ; 4.2107173785290804E9 ; 0.0
30 ; 1.2623416610366235E7 ; 2.0119436941650242E8 ; 3.601311819753155E8 ; 4.411905010198502E9 ; 0.0
31 ; 1.2637387706227714E7 ; 2.0120139482627013E8 ; 3.7275459858568174E8 ; 4.613099379615004E9 ; 0.0
32 ; 1.2649267132947236E7 ; 2.0120870069811714E8 ; 3.8539198629190946E8 ; 4.814300774441274E9 ; 0.0
33 ; 1.2659047420940017E7 ; 2.012162797738067E8 ; 3.9804125342485666E8 ; 5.015509475139391E9 ; 0.0
34 ; 1.267647715053087E7 ; 2.012241247615326E8 ; 4.107003008457967E8 ; 5.2167257549131975E9 ; 0.0
35 ; 1.2685597941800904E7 ; 2.0123222835841018E8 ; 4.233767779963276E8 ; 5.41794987967473E9 ; 0.0
36 ; 1.2698306147574417E7 ; 2.0124058327134463E8 ; 4.360623759381285E8 ; 5.61918210803314E9 ; 0.0
37 ; 1.2707058071695158E7 ; 2.012491822362498E8 ; 4.487606820857029E8 ; 5.820422691304484E9 ; 0.0
38 ; 1.271793174705669E7 ; 2.0125801803561214E8 ; 4.6146774015739805E8 ; 6.021671873540734E9 ; 0.0
39 ; 1.2731463729179531E7 ; 2.012670835144152E8 ; 4.741856719044547E8 ; 6.222929891576346E9 ; 0.0
40 ; 1.273726226472157E7 ; 2.012763715944577E8 ; 4.869171356336342E8 ; 6.424196975090761E9 ; 0.0
41 ; 1.2749943576697517E7 ; 2.0128587528711176E8 ; 4.996543978983558E8 ; 6.625473346685219E9 ; 0.0
42 ; 1.275647273428557E7 ; 2.01295587704581E8 ; 5.124043414750533E8 ; 6.82675922197233E9 ; 0.0
43 ; 1.2765333502258766E7 ; 2.0130550206972614E8 ; 5.251608142093389E8 ; 7.028054809676911E9 ; 0.0
44 ; 1.277430063824407E7 ; 2.0131561172453475E8 ; 5.379261477115977E8 ; 7.229360311746637E9 ; 0.0
45 ; 1.278116460308385E7 ; 2.0132591013731492E8 ; 5.507004483498417E8 ; 7.430675923471172E9 ; 0.0
46 ; 1.27859272701966E7 ; 2.013363909086974E8 ; 5.634816129529256E8 ; 7.632001833608487E9 ; 0.0
47 ; 1.2794935650980288E7 ; 2.013470477765315E8 ; 5.762675402231221E8 ; 7.833338224517184E9 ; 0.0
48 ; 1.279985903737692E7 ; 2.013578746197603E8 ; 5.890624758741024E8 ; 8.0346852722937155E9 ; 0.0
49 ; 1.2803041155342862E7 ; 2.0136886546136078E8 ; 6.018623349114792E8 ; 8.236043146913476E9 ; 0.0
50 ; 1.2802551971217396E7 ; 2.013800144704305E8 ; 6.14665376066822E8 ; 8.437412012374837E9 ; 0.0
51 ; 1.281086097431266E7 ; 2.013913159635025E8 ; 6.274679280380394E8 ; 8.638792026845268E9 ; 0.0
52 ; 1.2814274864890056E7 ; 2.0140276440516436E8 ; 6.402787890123521E8 ; 8.840183342808771E9 ; 0.0
53 ; 1.2816325852471415E7 ; 2.01414354408055E8 ; 6.530930638772422E8 ; 9.041586107213936E9 ; 0.0
54 ; 1.2821266726638872E7 ; 2.014260807323085E8 ; 6.659093897297137E8 ; 9.24300046162199E9 ; 0.0
55 ; 1.282377494863023E7 ; 2.014379382845094E8 ; 6.787306564563526E8 ; 9.4444265423543E9 ; 0.0
56 ; 1.282952589452027E7 ; 2.0144992211622047E8 ; 6.915544314049828E8 ; 9.64586448063881E9 ; 0.0
57 ; 1.2832960687845994E7 ; 2.014620274221389E8 ; 7.043839572995031E8 ; 9.84731440275503E9 ; 0.0
58 ; 1.2834876710969867E7 ; 2.0147424953793222E8 ; 7.17216917987349E8 ; 1.0048776430177168E10 ; 0.0
59 ; 1.283438972200385E7 ; 2.0148658393780226E8 ; 7.30051794698319E8 ; 1.02502506797151E10 ; 0.0
60 ; 1.2843877889902519E7 ; 2.0149902623181963E8 ; 7.428861844203228E8 ; 1.04517372636529E10 ; 0.0
61 ; 1.2844959698634956E7 ; 2.0151157216306892E8 ; 7.557300623102252E8 ; 1.065323628988472E10 ; 0.0
62 ; 1.2843334937578961E7 ; 2.015242176046394E8 ; 7.685750220088602E8 ; 1.0854747862047789E10 ; 0.0
63 ; 1.2848291988327889E7 ; 2.0153695855649427E8 ; 7.814183569464391E8 ; 1.1056272079652428E10 ; 0.0
64 ; 1.2852686518432958E7 ; 2.0154979114224622E8 ; 7.94266648934767E8 ; 1.1257809038208921E10 ; 0.0
65 ; 1.2851510210860556E7 ; 2.0156271160586587E8 ; 8.071193354532E8 ; 1.1459358829351168E10 ; 0.0
66 ; 1.2858980380032359E7 ; 2.015757163083452E8 ; 8.199708456640606E8 ; 1.1660921540957033E10 ; 0.0
67 ; 1.285665332820706E7 ; 2.015888017243363E8 ; 8.328298260440929E8 ; 1.1862497257265379E10 ; 0.0
68 ; 1.2858773324528737E7 ; 2.0160196443878317E8 ; 8.456864793722999E8 ; 1.2064086058989716E10 ; 0.0
69 ; 1.2860182237676403E7 ; 2.0161520114356202E8 ; 8.585452526968286E8 ; 1.22656880234285E10 ; 0.0
70 ; 1.2860982676661344E7 ; 2.0162850863414314E8 ; 8.71405434934505E8 ; 1.2467303224572062E10 ; 0.0
71 ; 1.2865686973135399E7 ; 2.0164188380628654E8 ; 8.842664176111664E8 ; 1.2668931733206205E10 ; 0.0
72 ; 1.2863659245493708E7 ; 2.016553236527802E8 ; 8.971321045843017E8 ; 1.2870573617012491E10 ; 0.0
73 ; 1.2868888354892079E7 ; 2.016688252602306E8 ; 9.099957638297954E8 ; 1.3072228940665272E10 ; 0.0
74 ; 1.28695152457666E7 ; 2.0168238580591112E8 ; 9.228646521846875E8 ; 1.3273897765925503E10 ; 0.0
75 ; 1.287045665771421E7 ; 2.016960025546754E8 ; 9.357341674304541E8 ; 1.3475580151731415E10 ; 0.0
76 ; 1.2874396446821352E7 ; 2.0170967285593936E8 ; 9.486046240881684E8 ; 1.367727615428609E10 ; 0.0
77 ; 1.2871561279542876E7 ; 2.0172339414073628E8 ; 9.614790205349897E8 ; 1.387898582714203E10 ; 0.0
78 ; 1.2866610834783548E7 ; 2.017371639188474E8 ; 9.743505818145326E8 ; 1.4080709221282766E10 ; 0.0
79 ; 1.2862308886781324E7 ; 2.0175097977601063E8 ; 9.872171926493162E8 ; 1.4282446385201614E10 ; 0.0
80 ; 1.2862389617664421E7 ; 2.0176483937120828E8 ; 1.0000795015360975E9 ; 1.4484197364977625E10 ; 0.0
81 ; 1.2859468629952667E7 ; 2.017787404340353E8 ; 1.012941891153762E9 ; 1.4685962204348833E10 ; 0.0
82 ; 1.2857240490435213E7 ; 2.017926807621482E8 ; 1.0258013597837147E9 ; 1.4887740944782867E10 ; 0.0
83 ; 1.2850221544466501E7 ; 2.0180665821879447E8 ; 1.0386586002741499E9 ; 1.5089533625545015E10 ; 0.0
84 ; 1.2847471913782502E7 ; 2.018206707304222E8 ; 1.0515088218186164E9 ; 1.529134028376381E10 ; 0.0
85 ; 1.2839683155698925E7 ; 2.0183471628436953E8 ; 1.0643562937323989E9 ; 1.5493160954494232E10 ; 0.0
86 ; 1.2843457312148254E7 ; 2.018487929266324E8 ; 1.0771959768880978E9 ; 1.5694995670778603E10 ; 0.0
87 ; 1.283307102801293E7 ; 2.018628987597096E8 ; 1.090039434200246E9 ; 1.5896844463705235E10 ; 0.0
88 ; 1.2831197687463237E7 ; 2.0187703194052386E8 ; 1.102872505228259E9 ; 1.6098707362464945E10 ; 0.0
89 ; 1.2829312679050704E7 ; 2.0189119067841744E8 ; 1.1157037029157224E9 ; 1.6300584394405468E10 ; 0.0
90 ; 1.2818017130920257E7 ; 2.0190537323321992E8 ; 1.128533015594773E9 ; 1.6502475585083885E10 ; 0.0
91 ; 1.2818228000363952E7 ; 2.019195779133874E8 ; 1.1413510327256932E9 ; 1.6704380958317104E10 ; 0.0
92 ; 1.2813817997492913E7 ; 2.0193380307421038E8 ; 1.1541692607260573E9 ; 1.6906300536230492E10 ; 0.0
93 ; 1.2811654109778786E7 ; 2.019480471160889E8 ; 1.1669830787235503E9 ; 1.7108234339304703E10 ; 0.0
94 ; 1.2801106437973684E7 ; 2.019623084828727E8 ; 1.1797947328333292E9 ; 1.731018238642079E10 ; 0.0
95 ; 1.2798883426013077E7 ; 2.019765856602646E8 ; 1.192595839271303E9 ; 1.7512144694903664E10 ; 0.0
96 ; 1.2792405661536472E7 ; 2.0199087717428505E8 ; 1.205394722697316E9 ; 1.7714121280563927E10 ; 0.0
97 ; 1.2787305161641445E7 ; 2.0200518158979577E8 ; 1.2181871283588524E9 ; 1.7916112157738213E10 ; 0.0
98 ; 1.2781549485818844E7 ; 2.0201949750908056E8 ; 1.2309744335204937E9 ; 1.8118117339328007E10 ; 0.0
99 ; 1.2781848777132614E7 ; 2.020338235704815E8 ; 1.2437559830063126E9 ; 1.8320136836837086E10 ; 0.0
100 ; 1.2771866278761564E7 ; 2.0204815844708815E8 ; 1.2565378317834451E9 ; 1.8522170660407566E10 ; 0.0
101 ; 1.2763053833108267E7 ; 2.0206250084547833E8 ; 1.2693096980622067E9 ; 1.8724218818854652E10 ; 0.0
102 ; 1.2760692475291036E7 ; 2.0207684950450823E8 ; 1.282072751895315E9 ; 1.892628131970013E10 ; 0.0
103 ; 1.2752334180113167E7 ; 2.020912031941504E8 ; 1.294833444370606E9 ; 1.912835816920464E10 ; 0.0
104 ; 1.2751363229999427E7 ; 2.021055607143773E8 ; 1.307585778550719E9 ; 1.933044937239879E10 ; 0.0
105 ; 1.274171529324757E7 ; 2.0211992089408943E8 ; 1.3203371417807186E9 ; 1.9532554933113167E10 ; 0.0
106 ; 1.2737665009392124E7 ; 2.021342825900853E8 ; 1.333078857073966E9 ; 1.9734674854007256E10 ; 0.0
107 ; 1.2728554522566445E7 ; 2.021486446860728E8 ; 1.345816522083358E9 ; 1.993680913659734E10 ; 0.0
108 ; 1.272401971434728E7 ; 2.0216300609171945E8 ; 1.3585450766059246E9 ; 2.0138957781283413E10 ; 0.0
109 ; 1.2719484984502163E7 ; 2.0217736574174023E8 ; 1.371269096320272E9 ; 2.0341120787375134E10 ; 0.0
110 ; 1.2711485230138829E7 ; 2.0219172259502184E8 ; 1.383988581304774E9 ; 2.0543298153116875E10 ; 0.0
111 ; 1.270628116369247E7 ; 2.0220607563378152E8 ; 1.3967000665349128E9 ; 2.0745489875711895E10 ; 0.0
112 ; 1.2693992699434495E7 ; 2.0222042386275917E8 ; 1.4094063476986053E9 ; 2.0947695951345676E10 ; 0.0
113 ; 1.2688574082654547E7 ; 2.0223476630844152E8 ; 1.4221003403980398E9 ; 2.1149916375208435E10 ; 0.0
114 ; 1.268007670409937E7 ; 2.0224910201831698E8 ; 1.4347889144806943E9 ; 2.1352151141516876E10 ; 0.0
115 ; 1.267135516868951E7 ; 2.022634300601599E8 ; 1.4474689911847937E9 ; 2.1554400243535194E10 ; 0.0
116 ; 1.2668646388325144E7 ; 2.022777495213431E8 ; 1.4601403463534832E9 ; 2.1756663673595356E10 ; 0.0
117 ; 1.2661728928936953E7 ; 2.0229205950817755E8 ; 1.4728089927418084E9 ; 2.19589414231167E10 ; 0.0
118 ; 1.2651592168821862E7 ; 2.023063591452778E8 ; 1.4854707216707454E9 ; 2.2161233482624878E10 ; 0.0
119 ; 1.2646261923941584E7 ; 2.023206475749526E8 ; 1.4981223138395672E9 ; 2.2363539841770157E10 ; 0.0
120 ; 1.2635661430923333E7 ; 2.0233492395661926E8 ; 1.5107685757635088E9 ; 2.2565860489345108E10 ; 0.0
121 ; 1.2627144693949044E7 ; 2.0234918746624097E8 ; 1.523404237194432E9 ; 2.2768195413301727E10 ; 0.0
122 ; 1.2617897716241432E7 ; 2.0236343729578593E8 ; 1.536031381888381E9 ; 2.2970544600767967E10 ; 0.0
123 ; 1.2610586577733956E7 ; 2.0237767265270784E8 ; 1.5486492796046224E9 ; 2.3172908038063755E10 ; 0.0
124 ; 1.2607104649688846E7 ; 2.0239189275944626E8 ; 1.5612598661823564E9 ; 2.337528571071646E10 ; 0.0
125 ; 1.2595452322196828E7 ; 2.0240609685294664E8 ; 1.5738669708320453E9 ; 2.3577677603475906E10 ; 0.0
126 ; 1.2586929847718019E7 ; 2.0242028418419853E8 ; 1.586462423154242E9 ; 2.3780083700328854E10 ; 0.0
127 ; 1.2574644001944942E7 ; 2.0243445401779196E8 ; 1.59904935300196E9 ; 2.3982503984513054E10 ; 0.0
128 ; 1.2568200486469066E7 ; 2.024486056314907E8 ; 1.611623997003905E9 ; 2.4184938438530846E10 ; 0.0
129 ; 1.2562917758004261E7 ; 2.0246273831582198E8 ; 1.624192197490374E9 ; 2.438738704416234E10 ; 0.0
130 ; 1.2550723968297647E7 ; 2.0247685137368163E8 ; 1.6367551152483783E9 ; 2.458984978247816E10 ; 0.0
131 ; 1.2538487440903177E7 ; 2.024909441199548E8 ; 1.649305839216676E9 ; 2.479232663385184E10 ; 0.0
132 ; 1.2524319017192334E7 ; 2.0250501588115042E8 ; 1.6618443266575792E9 ; 2.4994817577971794E10 ; 0.0
133 ; 1.2511367560420366E7 ; 2.0251906599505025E8 ; 1.6743686456747715E9 ; 2.5197322593852943E10 ; 0.0
134 ; 1.2494099417462608E7 ; 2.025330938103706E8 ; 1.6868800132351918E9 ; 2.5399841659847992E10 ; 0.0
135 ; 1.2478894434484655E7 ; 2.0254709868643707E8 ; 1.6993741126526544E9 ; 2.5602374753658363E10 ; 0.0
136 ; 1.2469567486565432E7 ; 2.025610799928715E8 ; 1.7118530070871391E9 ; 2.58049218523448E10 ; 0.0
137 ; 1.2456398134058034E7 ; 2.0257503710929063E8 ; 1.7243225745737045E9 ; 2.600748293233767E10 ; 0.0
138 ; 1.2443912075914102E7 ; 2.0258896942501593E8 ; 1.7367789727077625E9 ; 2.621005796944696E10 ; 0.0
139 ; 1.242727367151532E7 ; 2.026028763387943E8 ; 1.7492228847836766E9 ; 2.6412646938871975E10 ; 0.0
140 ; 1.2416849340338998E7 ; 2.0261675725852913E8 ; 1.7616501584551919E9 ; 2.661524981521077E10 ; 0.0
141 ; 1.2400438078191785E7 ; 2.0263061160102135E8 ; 1.7740670077955308E9 ; 2.68178665724693E10 ; 0.0
142 ; 1.2386850933886707E7 ; 2.0264443879171982E8 ; 1.7864674458737226E9 ; 2.702049718407032E10 ; 0.0
143 ; 1.2370774161800584E7 ; 2.026582382644812E8 ; 1.7988542968076093E9 ; 2.722314162286204E10 ; 0.0
144 ; 1.235917065109338E7 ; 2.0267200946133822E8 ; 1.81122507096941E9 ; 2.7425799861126522E10 ; 0.0
145 ; 1.234886895358193E7 ; 2.0268575183227694E8 ; 1.8235842416205034E9 ; 2.762847187058786E10 ; 0.0
146 ; 1.2336327328032315E7 ; 2.026994648350215E8 ; 1.8359331105740852E9 ; 2.7831157622420135E10 ; 0.0
147 ; 1.232853311057363E7 ; 2.027131479348272E8 ; 1.8482694379021175E9 ; 2.8033857087255157E10 ; 0.0
148 ; 1.2318234162087282E7 ; 2.0272680060428068E8 ; 1.860597971012691E9 ; 2.8236570235189983E10 ; 0.0
149 ; 1.231227065979487E7 ; 2.0274042232310748E8 ; 1.8729162051747782E9 ; 2.8439297035794266E10 ; 0.0
150 ; 1.2299407944340348E7 ; 2.0275401257798663E8 ; 1.885228475834573E9 ; 2.8642037458117374E10 ; 0.0
151 ; 1.2289235209672427E7 ; 2.0276757086237147E8 ; 1.8975278837789135E9 ; 2.8844791470695362E10 ; 0.0
152 ; 1.2283446378025847E7 ; 2.027810966763173E8 ; 1.909817118988586E9 ; 2.9047559041557735E10 ; 0.0
153 ; 1.22674583239598E7 ; 2.0279458952631488E8 ; 1.9221005653666117E9 ; 2.9250340138234055E10 ; 0.0
154 ; 1.2260190352283077E7 ; 2.0280804892512998E8 ; 1.9343680236905715E9 ; 2.945313472776037E10 ; 0.0
155 ; 1.2247112618620865E7 ; 2.0282147439164844E8 ; 1.9466282140428545E9 ; 2.9655942776685497E10 ; 0.0
156 ; 1.2235788021925874E7 ; 2.0283486545072684E8 ; 1.9588753266614754E9 ; 2.9858764251077145E10 ; 0.0
157 ; 1.2227942380200017E7 ; 2.0284822163304833E8 ; 1.9711111146834013E9 ; 3.006159911652787E10 ; 0.0
158 ; 1.221916605865466E7 ; 2.0286154247498354E8 ; 1.9833390570636013E9 ; 3.026444733816092E10 ; 0.0
159 ; 1.2207240657911474E7 ; 2.0287482751845628E8 ; 1.9955582231222558E9 ; 3.0467308880635902E10 ; 0.0
160 ; 1.2194961887221728E7 ; 2.028880763108139E8 ; 2.0077654637801673E9 ; 3.0670183708154358E10 ; 0.0
161 ; 1.2187218602356687E7 ; 2.0290128840470225E8 ; 2.0199604256673892E9 ; 3.087307178446517E10 ; 0.0
162 ; 1.2174321590202138E7 ; 2.029144633579449E8 ; 2.0321476442697458E9 ; 3.1075973072869873E10 ; 0.0
163 ; 1.2163728743328732E7 ; 2.0292760073342642E8 ; 2.044321965859948E9 ; 3.1278887536227818E10 ; 0.0
164 ; 1.2156252795663467E7 ; 2.0294070009897983E8 ; 2.0564856946032767E9 ; 3.1481815136961243E10 ; 0.0
165 ; 1.2148320019816563E7 ; 2.029537610272778E8 ; 2.06864194739894E9 ; 3.1684755837060223E10 ; 0.0
166 ; 1.2134186941518707E7 ; 2.029667830957275E8 ; 2.0807902674187567E9 ; 3.18877095980875E10 ; 0.0
167 ; 1.2122093264815014E7 ; 2.029797658863693E8 ; 2.0929244543602755E9 ; 3.2090676381183228E10 ; 0.0
168 ; 1.2110105078634258E7 ; 2.029927089857784E8 ; 2.1050465476250906E9 ; 3.2293656147069595E10 ; 0.0
169 ; 1.2103413756791282E7 ; 2.0300561198497045E8 ; 2.1171566527037249E9 ; 3.2496648856055374E10 ; 0.0
170 ; 1.2091357937211901E7 ; 2.030184744793097E8 ; 2.1292600664605162E9 ; 3.2699654468040344E10 ; 0.0
171 ; 1.2076804606726548E7 ; 2.0303129606842077E8 ; 2.1413514243977282E9 ; 3.2902672942519653E10 ; 0.0
172 ; 1.2068729467842242E7 ; 2.0304407635610288E8 ; 2.1534282290044546E9 ; 3.3105704238588074E10 ; 0.0
173 ; 1.2055901541067293E7 ; 2.0305681495024744E8 ; 2.1654969584722967E9 ; 3.3308748314944176E10 ; 0.0
174 ; 1.2052467260958927E7 ; 2.0306951146275797E8 ; 2.177552860013364E9 ; 3.3511805129894424E10 ; 0.0
175 ; 1.204074833003872E7 ; 2.03082165509473E8 ; 2.189605327274323E9 ; 3.371487464135718E10 ; 0.0
176 ; 1.2040397323075354E7 ; 2.030947767100912E8 ; 2.2016460756043615E9 ; 3.3917956806866653E10 ; 0.0
177 ; 1.2033799516639827E7 ; 2.0310734468809938E8 ; 2.213686472927437E9 ; 3.4121051583576744E10 ; 0.0
178 ; 1.2025258704149643E7 ; 2.031198690707025E8 ; 2.2257202724440765E9 ; 3.4324158928264843E10 ; 0.0
179 ; 1.2016757107160795E7 ; 2.0313234948875618E8 ; 2.2377455311482263E9 ; 3.452727879733555E10 ; 0.0
180 ; 1.2014850842668308E7 ; 2.0314478557670128E8 ; 2.249762288255387E9 ; 3.47304111468243E10 ; 0.0
181 ; 1.2005364165833233E7 ; 2.0315717697250092E8 ; 2.2617771390980554E9 ; 3.4933555932401E10 ; 0.0
182 ; 1.1997424550722215E7 ; 2.031695233175791E8 ; 2.2737825032638884E9 ; 3.5136713109373505E10 ; 0.0
183 ; 1.199365720024635E7 ; 2.0318182425676167E8 ; 2.2857799278146105E9 ; 3.5339882632691086E10 ; 0.0
184 ; 1.1980232077208826E7 ; 2.0319407943821913E8 ; 2.297773585014857E9 ; 3.5543064456947845E10 ; 0.0
185 ; 1.1978892072464287E7 ; 2.0320628851341122E8 ; 2.309753817092066E9 ; 3.574625853638606E10 ; 0.0
186 ; 1.1970244079914434E7 ; 2.0321845113703337E8 ; 2.3217327091645303E9 ; 3.5949464824899475E10 ; 0.0
187 ; 1.1964376581172766E7 ; 2.0323056696696472E8 ; 2.333702953244445E9 ; 3.615268327603651E10 ; 0.0
188 ; 1.1957557712431142E7 ; 2.0324263566421813E8 ; 2.345667329825618E9 ; 3.635591384300347E10 ; 0.0
189 ; 1.1951293918538623E7 ; 2.032546568928914E8 ; 2.3576248875380487E9 ; 3.655915647866769E10 ; 0.0
190 ; 1.1945274887373503E7 ; 2.0326663032012045E8 ; 2.3695761814565873E9 ; 3.676241113556058E10 ; 0.0
191 ; 1.1936796090196708E7 ; 2.0327855561603358E8 ; 2.381521456343961E9 ; 3.69656777658807E10 ; 0.0
192 ; 1.1932785497077653E7 ; 2.0329043245370758E8 ; 2.3934582524341574E9 ; 3.7168956321496735E10 ; 0.0
193 ; 1.192465728782317E7 ; 2.0330226050912493E8 ; 2.405391037931235E9 ; 3.737224675395044E10 ; 0.0
194 ; 1.1917343452915624E7 ; 2.0331403946113262E8 ; 2.417315695219058E9 ; 3.7575549014459564E10 ; 0.0
195 ; 1.1908958286301207E7 ; 2.03325768991402E8 ; 2.4292330386719737E9 ; 3.77788630539207E10 ; 0.0
