CSV File for the City 6 on Day 211
1 - Minute m 
2 - Power Consumed at minute m 
3 - Power Produced at minute m 
4 - Energy Consumed since the beginning of the day 
5 - Energy Produced since the beginning of the day 
6 - Energy Lost since the beginning of the day on lines starting from the city
 
0 ; 725954.5184657002 ; 1.0559608516767606E8 ; 0.0 ; 0.0 ; 0.0
1 ; 735636.7440067399 ; 1.0574553267790031E8 ; 725954.5184657002 ; 1.0559608516767606E8 ; 0.0
2 ; 751962.8513478795 ; 1.0620408683238408E8 ; 1461591.26247244 ; 2.1134161784557638E8 ; 0.0
3 ; 765391.9040766396 ; 1.0697176255196536E8 ; 2213554.1138203195 ; 3.1754570467796046E8 ; 0.0
4 ; 782660.694370156 ; 1.080485736613524E8 ; 2978946.017896959 ; 4.245174672299258E8 ; 0.0
5 ; 805581.3741149914 ; 1.094345326754123E8 ; 3761606.7122671152 ; 5.325660408912782E8 ; 0.0
6 ; 832571.6777866782 ; 1.111296505933297E8 ; 4567188.086382107 ; 6.420005735666904E8 ; 0.0
7 ; 869942.2782407037 ; 1.1313393670783818E8 ; 5399759.764168785 ; 7.531302241600201E8 ; 0.0
8 ; 924443.0539943267 ; 1.154473984367693E8 ; 6269702.042409489 ; 8.662641608678583E8 ; 0.0
9 ; 1009093.6624170027 ; 1.1807004118375355E8 ; 7194145.096403816 ; 9.817115593046277E8 ; 0.0
10 ; 1132378.198475134 ; 1.2100186823402166E8 ; 8203238.758820819 ; 1.0997816004883811E9 ; 0.0
11 ; 1332811.8307660534 ; 1.2424288068992642E8 ; 9335616.957295952 ; 1.2207834687224028E9 ; 0.0
12 ; 1652044.301736288 ; 1.2779307744911501E8 ; 1.0668428788062006E7 ; 1.3450263494123292E9 ; 0.0
13 ; 1957555.784433167 ; 1.3165245522635669E8 ; 1.2320473089798294E7 ; 1.4728194268614442E9 ; 0.0
14 ; 1996044.9278669336 ; 1.3582100861802107E8 ; 1.4278028874231461E7 ; 1.604471882087801E9 ; 0.0
15 ; 2009905.9170952705 ; 1.4029873020627648E8 ; 1.6274073802098395E7 ; 1.740292890705822E9 ; 0.0
16 ; 2028938.4102987023 ; 1.4508561069838944E8 ; 1.8283979719193667E7 ; 1.8805916209120984E9 ; 0.0
17 ; 2043394.1316634626 ; 1.5018163909517524E8 ; 2.031291812949237E7 ; 2.025677231610488E9 ; 0.0
18 ; 2059747.503490664 ; 1.555868028817668E8 ; 2.2356312261155833E7 ; 2.175858870705663E9 ; 0.0
19 ; 2075325.7103663974 ; 1.6130108823345587E8 ; 2.4416059764646497E7 ; 2.33144567358743E9 ; 0.0
20 ; 2091832.3318204226 ; 1.6732448022940442E8 ; 2.6491385475012895E7 ; 2.4927467618208857E9 ; 0.0
21 ; 2110099.2100454476 ; 1.7365696306747237E8 ; 2.8583217806833316E7 ; 2.66007124205029E9 ; 0.0
22 ; 2126128.1075640013 ; 1.8029852027415943E8 ; 3.069331701687876E7 ; 2.8337282051177626E9 ; 0.0
23 ; 2142256.3017240153 ; 1.872491349046355E8 ; 3.2819445124442764E7 ; 3.014026725391922E9 ; 0.0
24 ; 2161405.3793019922 ; 1.9450878972890878E8 ; 3.496170142616678E7 ; 3.2012758602965574E9 ; 0.0
25 ; 2177545.067776773 ; 2.0076550829947275E8 ; 3.7123106805468775E7 ; 3.395784650025466E9 ; 0.0
26 ; 2192552.628544698 ; 2.0077282113916028E8 ; 3.930065187324555E7 ; 3.596550158324939E9 ; 0.0
27 ; 2209319.1191989677 ; 2.007804803976424E8 ; 4.149320450179025E7 ; 3.797322979464099E9 ; 0.0
28 ; 2226475.3259606967 ; 2.0078846921037006E8 ; 4.370252362098922E7 ; 3.9981034598617415E9 ; 0.0
29 ; 2241939.7842721194 ; 2.007967710851399E8 ; 4.5928998946949914E7 ; 4.1988919290721116E9 ; 0.0
30 ; 2258408.503072858 ; 2.008053699776249E8 ; 4.817093873122203E7 ; 4.399688700157251E9 ; 0.0
31 ; 2272577.69085174 ; 2.008142503505095E8 ; 5.042934723429489E7 ; 4.600494070134876E9 ; 0.0
32 ; 2289552.5168582117 ; 2.0082339721782908E8 ; 5.270192492514663E7 ; 4.801308320485386E9 ; 0.0
33 ; 2302653.2679404574 ; 2.008327961762131E8 ; 5.4991477442004845E7 ; 5.002131717703215E9 ; 0.0
34 ; 2314261.0246254248 ; 2.0084243342474347E8 ; 5.72941307099453E7 ; 5.202964513879428E9 ; 0.0
35 ; 2332495.602888006 ; 2.0085229577508822E8 ; 5.960839173457073E7 ; 5.403806947304172E9 ; 0.0
36 ; 2346224.803581239 ; 2.0086237065347356E8 ; 6.194088733745873E7 ; 5.60465924307926E9 ; 0.0
37 ; 2359890.913969065 ; 2.0087264609593108E8 ; 6.428711214103997E7 ; 5.805521613732734E9 ; 0.0
38 ; 2374669.0874014315 ; 2.0088311073811364E8 ; 6.664700305500903E7 ; 6.006394259828665E9 ; 0.0
39 ; 2386686.790458471 ; 2.0089375380082494E8 ; 6.902167214241046E7 ; 6.207277370566778E9 ; 0.0
40 ; 2396759.1575533063 ; 2.0090456507225937E8 ; 7.140835893286893E7 ; 6.408171124367603E9 ; 0.0
41 ; 2411715.2354642455 ; 2.0091553488780826E8 ; 7.380511809042223E7 ; 6.609075689439862E9 ; 0.0
42 ; 2423808.500461224 ; 2.0092665410815644E8 ; 7.621683332588647E7 ; 6.80999122432767E9 ; 0.0
43 ; 2433560.619943641 ; 2.009379140962749E8 ; 7.86406418263477E7 ; 7.010917878435826E9 ; 0.0
44 ; 2442879.3619706035 ; 2.0094930669380736E8 ; 8.107420244629133E7 ; 7.211855792532102E9 ; 0.0
45 ; 2451709.9471811582 ; 2.0096082419725624E8 ; 8.351708180826193E7 ; 7.412805099225909E9 ; 0.0
46 ; 2465901.9922733926 ; 2.0097245933429173E8 ; 8.59687917554431E7 ; 7.613765923423165E9 ; 0.0
47 ; 2473844.2229638426 ; 2.009842052404382E8 ; 8.843469374771649E7 ; 7.814738382757457E9 ; 0.0
48 ; 2482423.0645422246 ; 2.009960554363332E8 ; 9.090853797068033E7 ; 8.015722587997895E9 ; 0.0
49 ; 2489755.6297667376 ; 2.0100800380570573E8 ; 9.339096103522255E7 ; 8.216718643434229E9 ; 0.0
50 ; 2495335.731206564 ; 2.0102004457417813E8 ; 9.588071666498928E7 ; 8.417726647239935E9 ; 0.0
51 ; 2500772.877263119 ; 2.010321722889643E8 ; 9.837605239619584E7 ; 8.618746691814114E9 ; 0.0
52 ; 2510391.809427535 ; 2.010443817995074E8 ; 1.0087682527345896E8 ; 8.819778864103079E9 ; 0.0
53 ; 2516453.346974641 ; 2.0105666823908043E8 ; 1.0338721708288649E8 ; 9.020823245902586E9 ; 0.0
54 ; 2524082.190162125 ; 2.0106902700735444E8 ; 1.0590367042986113E8 ; 9.221879914141666E9 ; 0.0
55 ; 2530674.828905996 ; 2.0108145375392565E8 ; 1.0842775262002325E8 ; 9.422948941149021E9 ; 0.0
56 ; 2537139.2826221366 ; 2.010939443627834E8 ; 1.1095842744892925E8 ; 9.624030394902946E9 ; 0.0
57 ; 2543637.7396813603 ; 2.0110649493769148E8 ; 1.134955667315514E8 ; 9.82512433926573E9 ; 0.0
58 ; 2553309.211538778 ; 2.0111910178845134E8 ; 1.1603920447123276E8 ; 1.002623083420342E10 ; 0.0
59 ; 2557801.914376229 ; 2.011317614180106E8 ; 1.1859251368277153E8 ; 1.0227349935991873E10 ; 0.0
60 ; 2562597.1082374924 ; 2.011444705103782E8 ; 1.2115031559714776E8 ; 1.0428481697409883E10 ; 0.0
61 ; 2569718.944367491 ; 2.011572259193067E8 ; 1.2371291270538525E8 ; 1.0629626167920261E10 ; 0.0
62 ; 2577323.0517666666 ; 2.011700246577E8 ; 1.2628263164975275E8 ; 1.0830783393839567E10 ; 0.0
63 ; 2583150.35477167 ; 2.0118286388770723E8 ; 1.2885995470151941E8 ; 1.1031953418497267E10 ; 0.0
64 ; 2586893.1400496415 ; 2.011957409114619E8 ; 1.3144310505629109E8 ; 1.1233136282384974E10 ; 0.0
65 ; 2591610.916042492 ; 2.0120865316242814E8 ; 1.3402999819634072E8 ; 1.1434332023296436E10 ; 0.0
66 ; 2599822.954767066 ; 2.0122159819731635E8 ; 1.3662160911238322E8 ; 1.1635540676458864E10 ; 0.0
67 ; 2605278.2210056013 ; 2.012345736885321E8 ; 1.392214320671503E8 ; 1.1836762274656181E10 ; 0.0
68 ; 2610094.0387832145 ; 2.0124757741712412E8 ; 1.4182671028815588E8 ; 1.2037996848344713E10 ; 0.0
69 ; 2614504.592798161 ; 2.012606072661985E8 ; 1.444368043269391E8 ; 1.2239244425761837E10 ; 0.0
70 ; 2624275.672182259 ; 2.0127366121476865E8 ; 1.4705130891973728E8 ; 1.2440505033028036E10 ; 0.0
71 ; 2629123.1038765744 ; 2.0128673733201122E8 ; 1.4967558459191954E8 ; 1.2641778694242805E10 ; 0.0
72 ; 2630587.1093414216 ; 2.0129983377190116E8 ; 1.523047076957961E8 ; 1.2843065431574818E10 ; 0.0
73 ; 2640115.90481024 ; 2.0131294876819962E8 ; 1.5493529480513752E8 ; 1.304436526534672E10 ; 0.0
74 ; 2644941.2710297583 ; 2.013260806297712E8 ; 1.5757541070994776E8 ; 1.324567821411492E10 ; 0.0
75 ; 2648699.280852421 ; 2.0133922773620725E8 ; 1.6022035198097754E8 ; 1.344700429474469E10 ; 0.0
76 ; 2653750.0924659567 ; 2.0135238853373474E8 ; 1.6286905126182994E8 ; 1.3648343522480898E10 ; 0.0
77 ; 2661725.3203017414 ; 2.0136556153139088E8 ; 1.655228013542959E8 ; 1.3849695911014633E10 ; 0.0
78 ; 2660118.5830597645 ; 2.0137874529744488E8 ; 1.6818452667459765E8 ; 1.4051061472546024E10 ; 0.0
79 ; 2661421.8105326383 ; 2.0139193845605034E8 ; 1.708446452576574E8 ; 1.425244021784347E10 ; 0.0
80 ; 2661057.359298052 ; 2.0140513968411174E8 ; 1.7350606706819004E8 ; 1.445383215629952E10 ; 0.0
81 ; 2663694.48521592 ; 2.014183477083509E8 ; 1.761671244274881E8 ; 1.4655237295983633E10 ; 0.0
82 ; 2662767.5264520366 ; 2.014315613025592E8 ; 1.7883081891270402E8 ; 1.4856655643691984E10 ; 0.0
83 ; 2664662.597845548 ; 2.0144477928502315E8 ; 1.8149358643915606E8 ; 1.5058087204994543E10 ; 0.0
84 ; 2665451.4608500116 ; 2.0145800051611128E8 ; 1.841582490370016E8 ; 1.5259531984279566E10 ; 0.0
85 ; 2665868.105289475 ; 2.0147122389601138E8 ; 1.868237004978516E8 ; 1.5460989984795677E10 ; 0.0
86 ; 2667191.6157714915 ; 2.0148444836260784E8 ; 1.894895686031411E8 ; 1.5662461208691689E10 ; 0.0
87 ; 2669504.282452439 ; 2.0149767288948974E8 ; 1.921567602189126E8 ; 1.5863945657054296E10 ; 0.0
88 ; 2668109.3057054114 ; 2.0151089648408085E8 ; 1.9482626450136504E8 ; 1.6065443329943787E10 ; 0.0
89 ; 2668996.7910721614 ; 2.0152411818588307E8 ; 1.9749437380707043E8 ; 1.6266954226427868E10 ; 0.0
90 ; 2669842.6791470377 ; 2.0153733706482625E8 ; 2.001633705981426E8 ; 1.646847834461375E10 ; 0.0
91 ; 2668667.4105747784 ; 2.0155055221971685E8 ; 2.0283321327728963E8 ; 1.6670015681678577E10 ; 0.0
92 ; 2669186.4247213043 ; 2.0156376277677906E8 ; 2.055018806878644E8 ; 1.6871566233898294E10 ; 0.0
93 ; 2668517.5049547604 ; 2.0157696788828242E8 ; 2.081710671125857E8 ; 1.7073129996675074E10 ; 0.0
94 ; 2670040.5584395425 ; 2.0159016673125017E8 ; 2.1083958461754045E8 ; 1.7274706964563354E10 ; 0.0
95 ; 2669868.847843396 ; 2.0160335850624293E8 ; 2.1350962517598E8 ; 1.7476297131294605E10 ; 0.0
96 ; 2668756.5995529317 ; 2.0161654243621308E8 ; 2.161794940238234E8 ; 1.767790048980085E10 ; 0.0
97 ; 2667719.258996555 ; 2.0162971776542515E8 ; 2.1884825062337634E8 ; 1.7879517032237064E10 ; 0.0
98 ; 2669240.018989641 ; 2.01642883758438E8 ; 2.215159698823729E8 ; 1.808114675000249E10 ; 0.0
99 ; 2666500.961464121 ; 2.0165603969914493E8 ; 2.2418520990136254E8 ; 1.828278963376093E10 ; 0.0
100 ; 2664999.08338063 ; 2.0166918488986793E8 ; 2.2685171086282665E8 ; 1.8484445673460075E10 ; 0.0
101 ; 2667935.3797715297 ; 2.016823186505027E8 ; 2.2951670994620728E8 ; 1.8686114858349945E10 ; 0.0
102 ; 2669216.783335721 ; 2.0169544031771147E8 ; 2.3218464532597882E8 ; 1.8887797177000446E10 ; 0.0
103 ; 2663613.8952112375 ; 2.017085492441603E8 ; 2.3485386210931453E8 ; 1.9089492617318157E10 ; 0.0
104 ; 2664620.800689326 ; 2.0172164479779825E8 ; 2.3751747600452578E8 ; 1.9291201166562317E10 ; 0.0
105 ; 2663119.010412486 ; 2.0173472636117622E8 ; 2.4018209680521512E8 ; 1.9492922811360115E10 ; 0.0
106 ; 2662735.951705157 ; 2.0174779333080223E8 ; 2.428452158156276E8 ; 1.969465753772129E10 ; 0.0
107 ; 2661735.044238003 ; 2.017608451165319E8 ; 2.4550795176733276E8 ; 1.9896405331052094E10 ; 0.0
108 ; 2659789.2902983557 ; 2.0177388114099106E8 ; 2.4816968681157076E8 ; 2.0098166176168625E10 ; 0.0
109 ; 2658361.705447398 ; 2.017869008390294E8 ; 2.508294761018691E8 ; 2.0299940057309616E10 ; 0.0
110 ; 2658303.459777165 ; 2.017999036572028E8 ; 2.534878378073165E8 ; 2.0501726958148647E10 ; 0.0
111 ; 2655462.443218117 ; 2.0181288905328268E8 ; 2.561461412670937E8 ; 2.070352686180585E10 ; 0.0
112 ; 2655104.680831301 ; 2.0182585649579108E8 ; 2.588016037103118E8 ; 2.0905339750859135E10 ; 0.0
113 ; 2652717.728820017 ; 2.0183880546355978E8 ; 2.614567083911431E8 ; 2.1107165607354927E10 ; 0.0
114 ; 2649010.527597516 ; 2.018517354453118E8 ; 2.6410942611996314E8 ; 2.1309004412818485E10 ; 0.0
115 ; 2649933.8033665013 ; 2.0186464593926468E8 ; 2.6675843664756066E8 ; 2.1510856148263798E10 ; 0.0
116 ; 2649428.912337125 ; 2.0187753645275348E8 ; 2.6940837045092714E8 ; 2.1712720794203064E10 ; 0.0
117 ; 2645856.4043839923 ; 2.0189040650187308E8 ; 2.7205779936326426E8 ; 2.191459833065582E10 ; 0.0
118 ; 2643623.6167144254 ; 2.0190325561113816E8 ; 2.747036557676483E8 ; 2.2116488737157692E10 ; 0.0
119 ; 2642134.619525943 ; 2.019160833131603E8 ; 2.773472793843627E8 ; 2.231839199276883E10 ; 0.0
120 ; 2639492.2253699214 ; 2.0192888914834082E8 ; 2.7998941400388867E8 ; 2.252030807608199E10 ; 0.0
121 ; 2638289.560872086 ; 2.019416726645789E8 ; 2.826289062292586E8 ; 2.272223696523033E10 ; 0.0
122 ; 2634207.0120622804 ; 2.0195443341699386E8 ; 2.852671957901307E8 ; 2.292417863789491E10 ; 0.0
123 ; 2631149.323949827 ; 2.0196717096766087E8 ; 2.879014028021929E8 ; 2.31261330713119E10 ; 0.0
124 ; 2631295.404811018 ; 2.0197988488535956E8 ; 2.9053255212614274E8 ; 2.332810024227956E10 ; 0.0
125 ; 2627842.1824140633 ; 2.0199257474533448E8 ; 2.9316384753095376E8 ; 2.353008012716492E10 ; 0.0
126 ; 2625579.1362288245 ; 2.0200524012906712E8 ; 2.957916897133678E8 ; 2.3732072701910255E10 ; 0.0
127 ; 2620786.9816070152 ; 2.0201788062405866E8 ; 2.984172688495966E8 ; 2.393407794203932E10 ; 0.0
128 ; 2620166.8306258074 ; 2.0203049582362297E8 ; 3.0103805583120364E8 ; 2.413609582266338E10 ; 0.0
129 ; 2616454.922901647 ; 2.020430853266893E8 ; 3.036582226618295E8 ; 2.4338126318487003E10 ; 0.0
130 ; 2611897.719374543 ; 2.020556487376141E8 ; 3.062746775847311E8 ; 2.4540169403813694E10 ; 0.0
131 ; 2606317.177901042 ; 2.0206818566600165E8 ; 3.0888657530410564E8 ; 2.4742225052551308E10 ; 0.0
132 ; 2598844.8972632117 ; 2.020806957265329E8 ; 3.1149289248200667E8 ; 2.4944293238217308E10 ; 0.0
133 ; 2592496.6652712845 ; 2.0209317853880203E8 ; 3.140917373792699E8 ; 2.514637393394384E10 ; 0.0
134 ; 2583031.9726188863 ; 2.0210563372716063E8 ; 3.166842340445412E8 ; 2.5348467112482643E10 ; 0.0
135 ; 2576430.9428433436 ; 2.0211806092056885E8 ; 3.1926726601716006E8 ; 2.5550572746209805E10 ; 0.0
136 ; 2570557.8179904204 ; 2.0213045975245324E8 ; 3.218436969600034E8 ; 2.5752690807130375E10 ; 0.0
137 ; 2562404.4907951686 ; 2.0214282986057085E8 ; 3.244142547779938E8 ; 2.5954821266882828E10 ; 0.0
138 ; 2553964.5826388565 ; 2.0215517088687968E8 ; 3.26976659268789E8 ; 2.6156964096743397E10 ; 0.0
139 ; 2547489.0952207567 ; 2.0216748247741464E8 ; 3.2953062385142785E8 ; 2.6359119267630276E10 ; 0.0
140 ; 2542243.3898464134 ; 2.021797642821689E8 ; 3.320781129466486E8 ; 2.656128675010769E10 ; 0.0
141 ; 2534366.364154266 ; 2.021920159549807E8 ; 3.34620356336495E8 ; 2.676346651438986E10 ; 0.0
142 ; 2524731.336020644 ; 2.02204237153425E8 ; 3.3715472270064926E8 ; 2.6965658530344837E10 ; 0.0
143 ; 2518124.7084630826 ; 2.0221642753870976E8 ; 3.396794540366699E8 ; 2.716786276749826E10 ; 0.0
144 ; 2510752.4401930254 ; 2.0222858677557662E8 ; 3.42197578745133E8 ; 2.7370079195036972E10 ; 0.0
145 ; 2505815.824641206 ; 2.0224071453220633E8 ; 3.44708331185326E8 ; 2.757230778181255E10 ; 0.0
146 ; 2503248.5851320927 ; 2.0225281048012757E8 ; 3.472141470099672E8 ; 2.7774548496344757E10 ; 0.0
147 ; 2499615.2888315963 ; 2.0226487429413015E8 ; 3.4971739559509933E8 ; 2.7976801306824886E10 ; 0.0
148 ; 2498916.348990652 ; 2.022769056521817E8 ; 3.522170108839309E8 ; 2.8179066181119015E10 ; 0.0
149 ; 2494341.884895799 ; 2.022889042353479E8 ; 3.547159272329216E8 ; 2.83813430867712E10 ; 0.0
150 ; 2493605.6917790114 ; 2.0230086972771606E8 ; 3.572102691178174E8 ; 2.8583631991006546E10 ; 0.0
151 ; 2487764.5372362128 ; 2.0231280181632197E8 ; 3.597038748095964E8 ; 2.878593286073426E10 ; 0.0
152 ; 2486543.303337305 ; 2.0232470019107977E8 ; 3.6219163934683263E8 ; 2.8988245662550583E10 ; 0.0
153 ; 2482452.486374765 ; 2.0233656454471457E8 ; 3.646781826501699E8 ; 2.919057036274166E10 ; 0.0
154 ; 2479694.9242015295 ; 2.0234839457269827E8 ; 3.6716063513654464E8 ; 2.9392906927286377E10 ; 0.0
155 ; 2479778.291517441 ; 2.023601899731876E8 ; 3.696403300607462E8 ; 2.9595255321859074E10 ; 0.0
156 ; 2473300.59729186 ; 2.0237195044696483E8 ; 3.721201083522636E8 ; 2.979761551183226E10 ; 0.0
157 ; 2468760.2485890132 ; 2.0238367569738117E8 ; 3.745934089495555E8 ; 2.9999987462279224E10 ; 0.0
158 ; 2468693.2562804604 ; 2.0239536543030208E8 ; 3.7706216919814456E8 ; 3.0202371137976604E10 ; 0.0
159 ; 2462095.853314302 ; 2.0240701935405508E8 ; 3.7953086245442504E8 ; 3.0404766503406906E10 ; 0.0
160 ; 2459206.13306504 ; 2.024186371793796E8 ; 3.819929583077393E8 ; 3.060717352276096E10 ; 0.0
161 ; 2456440.5052188365 ; 2.0243021861937883E8 ; 3.8445216444080436E8 ; 3.080959215994034E10 ; 0.0
162 ; 2455452.2158477907 ; 2.024417633894735E8 ; 3.869086049460232E8 ; 3.1012022378559715E10 ; 0.0
163 ; 2450686.996269248 ; 2.0245327120735762E8 ; 3.89364057161871E8 ; 3.121446414194919E10 ; 0.0
164 ; 2448102.1112691825 ; 2.024647417929558E8 ; 3.9181474415814024E8 ; 3.1416917413156548E10 ; 0.0
165 ; 2446312.89688206 ; 2.0247617486838254E8 ; 3.942628462694094E8 ; 3.1619382154949505E10 ; 0.0
166 ; 2440577.478721916 ; 2.0248757015790296E8 ; 3.967091591662915E8 ; 3.1821858329817886E10 ; 0.0
167 ; 2438047.3634934705 ; 2.0249892738789505E8 ; 3.991497366450134E8 ; 3.202434589997579E10 ; 0.0
168 ; 2433267.0022235387 ; 2.0251024628681353E8 ; 4.0158778400850683E8 ; 3.222684482736368E10 ; 0.0
169 ; 2433641.4919772586 ; 2.025215265851552E8 ; 4.040210510107304E8 ; 3.2429355073650494E10 ; 0.0
170 ; 2427847.200375478 ; 2.025327680154254E8 ; 4.0645469250270766E8 ; 3.263187660023565E10 ; 0.0
171 ; 2425045.5741370725 ; 2.0254397031210616E8 ; 4.0888253970308316E8 ; 3.2834409368251076E10 ; 0.0
172 ; 2422890.406080092 ; 2.0255513321162516E8 ; 4.1130758527722025E8 ; 3.3036953338563183E10 ; 0.0
173 ; 2418470.048594767 ; 2.025662564523263E8 ; 4.137304756833003E8 ; 3.3239508471774807E10 ; 0.0
174 ; 2415817.327088602 ; 2.025773397744413E8 ; 4.161489457318951E8 ; 3.3442074728227135E10 ; 0.0
175 ; 2414239.5292804237 ; 2.0258838292006227E8 ; 4.185647630589837E8 ; 3.3644652068001575E10 ; 0.0
176 ; 2409966.276281819 ; 2.0259938563311547E8 ; 4.209790025882641E8 ; 3.384724045092164E10 ; 0.0
177 ; 2407854.774858425 ; 2.0261034765933618E8 ; 4.2338896886454594E8 ; 3.4049839836554752E10 ; 0.0
178 ; 2407971.695580757 ; 2.026212687462444E8 ; 4.2579682363940436E8 ; 3.425245018421409E10 ; 0.0
179 ; 2407284.9881034456 ; 2.026321486431215E8 ; 4.2820479533498514E8 ; 3.4455071452960335E10 ; 0.0
180 ; 2403074.5468075336 ; 2.0264298710098797E8 ; 4.306120803230886E8 ; 3.4657703601603455E10 ; 0.0
181 ; 2402660.791836304 ; 2.0265378387258172E8 ; 4.330151548698961E8 ; 3.4860346588704445E10 ; 0.0
182 ; 2399686.4902983154 ; 2.0266453871233752E8 ; 4.3541781566173244E8 ; 3.506300037257703E10 ; 0.0
183 ; 2395607.723271048 ; 2.026752513763671E8 ; 4.3781750215203077E8 ; 3.526566491128937E10 ; 0.0
184 ; 2395089.4598390497 ; 2.0268592162243995E8 ; 4.4021310987530184E8 ; 3.546834016266573E10 ; 0.0
185 ; 2392402.2667721855 ; 2.0269654920996514E8 ; 4.426081993351409E8 ; 3.567102608428817E10 ; 0.0
186 ; 2390644.8876018818 ; 2.0270713389997345E8 ; 4.450006016019131E8 ; 3.587372263349814E10 ; 0.0
187 ; 2387960.07540239 ; 2.0271767545510054E8 ; 4.4739124648951495E8 ; 3.607642976739811E10 ; 0.0
188 ; 2384700.9412547797 ; 2.0272817363957065E8 ; 4.497792065649173E8 ; 3.627914744285321E10 ; 0.0
189 ; 2381452.189722483 ; 2.0273862821918082E8 ; 4.521639075061721E8 ; 3.648187561649278E10 ; 0.0
190 ; 2383121.491534206 ; 2.027490389612859E8 ; 4.545453596958946E8 ; 3.668461424471196E10 ; 0.0
191 ; 2380474.871585536 ; 2.0275940563478404E8 ; 4.5692848118742883E8 ; 3.688736328367325E10 ; 0.0
192 ; 2376031.5389330424 ; 2.027697280101029E8 ; 4.593089560590144E8 ; 3.709012268930803E10 ; 0.0
193 ; 2376846.4828170454 ; 2.02780005859186E8 ; 4.616849875979474E8 ; 3.729289241731813E10 ; 0.0
194 ; 2373184.967451726 ; 2.0279023895548022E8 ; 4.640618340807645E8 ; 3.7495672423177315E10 ; 0.0
195 ; 2369936.027234331 ; 2.028004270739232E8 ; 4.664350190482162E8 ; 3.76984626621328E10 ; 0.0
196 ; 2365004.7121348586 ; 2.0281056999093154E8 ; 4.6880495507545054E8 ; 3.790126308920672E10 ; 0.0
197 ; 2367183.894876857 ; 2.0282066748438957E8 ; 4.711699597875854E8 ; 3.810407365919765E10 ; 0.0
198 ; 2365359.974529687 ; 2.028307193336381E8 ; 4.735371436824622E8 ; 3.830689432668204E10 ; 0.0
199 ; 2362486.996206583 ; 2.0284072531946424E8 ; 4.759025036569919E8 ; 3.850972504601568E10 ; 0.0
200 ; 2359672.9001226323 ; 2.0285068522409105E8 ; 4.782649906531985E8 ; 3.8712565771335144E10 ; 0.0
