CSV File for the City 4 on Day 316
1 - Minute m 
2 - Power Consumed at minute m 
3 - Power Produced at minute m 
4 - Energy Consumed since the beginning of the day 
5 - Energy Produced since the beginning of the day 
6 - Energy Lost since the beginning of the day on lines starting from the city
 
0 ; 6894125.636957693 ; 1.0689125504769525E8 ; 0.0 ; 0.0 ; 0.0
1 ; 6902901.846269591 ; 1.0704154365658647E8 ; 6894125.636957693 ; 1.0689125504769525E8 ; 0.0
2 ; 6911004.818542299 ; 1.0750088987161306E8 ; 1.3797027483227283E7 ; 2.1393279870428172E8 ; 0.0
3 ; 6919488.475989859 ; 1.0826929659234983E8 ; 2.070803230176958E7 ; 3.214336885758948E8 ; 0.0
4 ; 6929581.7904426865 ; 1.0934676640270716E8 ; 2.762752077775944E7 ; 4.297029851682446E8 ; 0.0
5 ; 6942887.178788775 ; 1.1073330156164062E8 ; 3.455710256820212E7 ; 5.390497515709517E8 ; 0.0
6 ; 6959300.877441938 ; 1.124289039949297E8 ; 4.14999897469909E7 ; 6.497830531325923E8 ; 0.0
7 ; 6981239.084389166 ; 1.1443357528809631E8 ; 4.845929062443283E7 ; 7.62211957127522E8 ; 0.0
8 ; 7016425.451890281 ; 1.1674731668052387E8 ; 5.5440529708822E7 ; 8.766455324156183E8 ; 0.0
9 ; 7067033.999909242 ; 1.193701290608285E8 ; 6.245695516071228E7 ; 9.933928490961422E8 ; 0.0
10 ; 7145856.817619287 ; 1.2230201296352255E8 ; 6.952398916062152E7 ; 1.1127629781569707E9 ; 0.0
11 ; 7270356.997217647 ; 1.2554296856700137E8 ; 7.666984597824082E7 ; 1.2350649911204934E9 ; 0.0
12 ; 7465552.453170347 ; 1.2909299569286957E8 ; 8.394020297545846E7 ; 1.3606079596874948E9 ; 0.0
13 ; 7660867.642269103 ; 1.3295209380661482E8 ; 9.14057554286288E7 ; 1.4897009553803644E9 ; 0.0
14 ; 7681193.597173987 ; 1.3712026201962107E8 ; 9.90666230708979E7 ; 1.6226530491869793E9 ; 0.0
15 ; 7692128.058826328 ; 1.415974990925048E8 ; 1.067478166680719E8 ; 1.7597733112066004E9 ; 0.0
16 ; 7697434.107819149 ; 1.463838034397442E8 ; 1.1443994472689822E8 ; 1.9013708102991052E9 ; 0.0
17 ; 7708557.626620175 ; 1.514791731355597E8 ; 1.2213737883471738E8 ; 2.0477546137388494E9 ; 0.0
18 ; 7722683.559340544 ; 1.5688360592099577E8 ; 1.2984593646133755E8 ; 2.199233786874409E9 ; 0.0
19 ; 7728087.553248801 ; 1.6259709921214202E8 ; 1.375686200206781E8 ; 2.356117392795405E9 ; 0.0
20 ; 7736848.796543284 ; 1.686196501094236E8 ; 1.452967075739269E8 ; 2.518714492007547E9 ; 0.0
21 ; 7748487.013817681 ; 1.749512554078838E8 ; 1.5303355637047017E8 ; 2.6873341421169705E9 ; 0.0
22 ; 7755018.068050105 ; 1.8159191160837412E8 ; 1.6078204338428783E8 ; 2.862285397524854E9 ; 0.0
23 ; 7764032.304827642 ; 1.8854161492956263E8 ; 1.6853706145233795E8 ; 3.0438773091332283E9 ; 0.0
24 ; 7775891.362944622 ; 1.9580036132066584E8 ; 1.7630109375716558E8 ; 3.232418924062791E9 ; 0.0
25 ; 7786910.6139822705 ; 2.020561873729923E8 ; 1.840769851201102E8 ; 3.4282192853834567E9 ; 0.0
26 ; 7794371.028875722 ; 2.0206263637072706E8 ; 1.9186389573409247E8 ; 3.630275472756449E9 ; 0.0
27 ; 7802043.439761365 ; 2.0206947283015427E8 ; 1.9965826676296818E8 ; 3.8323381091271763E9 ; 0.0
28 ; 7811909.123778343 ; 2.020766917610812E8 ; 2.0746031020272955E8 ; 4.0344075819573307E9 ; 0.0
29 ; 7820757.173582657 ; 2.0208428797497106E8 ; 2.152722193265079E8 ; 4.236484273718412E9 ; 0.0
30 ; 7830515.788526163 ; 2.0209225609997356E8 ; 2.2309297650009054E8 ; 4.438568561693383E9 ; 0.0
31 ; 7839562.854902446 ; 2.0210059059600794E8 ; 2.3092349228861672E8 ; 4.640660817793357E9 ; 0.0
32 ; 7847263.340720895 ; 2.0210928576981395E8 ; 2.3876305514351916E8 ; 4.842761408389365E9 ; 0.0
33 ; 7855735.511451784 ; 2.021183357898896E8 ; 2.4661031848424006E8 ; 5.044870694159179E9 ; 0.0
34 ; 7865125.568184363 ; 2.021277347012418E8 ; 2.5446605399569184E8 ; 5.246989029949068E9 ; 0.0
35 ; 7869630.842618528 ; 2.0213747643988085E8 ; 2.623311795638762E8 ; 5.44911676465031E9 ; 0.0
36 ; 7881092.118815572 ; 2.0214755484699652E8 ; 2.7020081040649474E8 ; 5.651254241090191E9 ; 0.0
37 ; 7884872.8207390355 ; 2.0215796368276015E8 ; 2.7808190252531034E8 ; 5.853401795937187E9 ; 0.0
38 ; 7893022.730975194 ; 2.0216869663970324E8 ; 2.8596677534604937E8 ; 6.055559759619947E9 ; 0.0
39 ; 7902025.100494974 ; 2.021797473556302E8 ; 2.938597980770246E8 ; 6.25772845625965E9 ; 0.0
40 ; 7905738.594249315 ; 2.0219110942602915E8 ; 3.0176182317751956E8 ; 6.45990820361528E9 ; 0.0
41 ; 7913018.48062352 ; 2.0220277641595066E8 ; 3.0966756177176887E8 ; 6.662099313041309E9 ; 0.0
42 ; 7921798.1712376205 ; 2.0221474187133092E8 ; 3.175805802523924E8 ; 6.86430208945726E9 ; 0.0
43 ; 7926601.079554885 ; 2.0222699932974118E8 ; 3.2550237842363006E8 ; 7.066516831328591E9 ; 0.0
44 ; 7931455.611962079 ; 2.0223954233055085E8 ; 3.334289795031849E8 ; 7.268743830658333E9 ; 0.0
45 ; 7936606.89659436 ; 2.0225236442449713E8 ; 3.41360435115147E8 ; 7.470983372988884E9 ; 0.0
46 ; 7943200.250423458 ; 2.022654591826574E8 ; 3.4929704201174134E8 ; 7.673235737413382E9 ; 0.0
47 ; 7945603.074076009 ; 2.022788202048269E8 ; 3.572402422621648E8 ; 7.875501196596039E9 ; 0.0
48 ; 7949294.853487035 ; 2.0229244112730584E8 ; 3.6518584533624077E8 ; 8.077780016800866E9 ; 0.0
49 ; 7953577.972132071 ; 2.0230631563010517E8 ; 3.731351401897278E8 ; 8.280072457928172E9 ; 0.0
50 ; 7957734.091447175 ; 2.0232043744358245E8 ; 3.8108871816185987E8 ; 8.482378773558277E9 ; 0.0
51 ; 7960381.285623508 ; 2.0233480035452193E8 ; 3.8904645225330704E8 ; 8.68469921100186E9 ; 0.0
52 ; 7962174.328425064 ; 2.0234939821167547E8 ; 3.9700683353893054E8 ; 8.887034011356382E9 ; 0.0
53 ; 7963682.858967458 ; 2.0236422493078205E8 ; 4.049690078673556E8 ; 9.089383409568058E9 ; 0.0
54 ; 7965372.343687991 ; 2.0237927449908665E8 ; 4.1293269072632307E8 ; 9.29174763449884E9 ; 0.0
55 ; 7972171.811044455 ; 2.0239454097937813E8 ; 4.208980630700111E8 ; 9.494126908997927E9 ; 0.0
56 ; 7974405.93145218 ; 2.0241001851356915E8 ; 4.2887023488105553E8 ; 9.696521449977304E9 ; 0.0
57 ; 7975850.647973105 ; 2.0242570132583982E8 ; 4.368446408125077E8 ; 9.898931468490873E9 ; 0.0
58 ; 7977725.381029264 ; 2.0244158372536838E8 ; 4.448204914604808E8 ; 1.0101357169816713E10 ; 0.0
59 ; 7981923.775584168 ; 2.0245766010867178E8 ; 4.5279821684151006E8 ; 1.0303798753542082E10 ; 0.0
60 ; 7984384.884028503 ; 2.0247392496157905E8 ; 4.607801406170942E8 ; 1.0506256413650753E10 ; 0.0
61 ; 7984107.228988733 ; 2.0249037286086035E8 ; 4.687645255011227E8 ; 1.0708730338612331E10 ; 0.0
62 ; 7985701.636077422 ; 2.0250699847553438E8 ; 4.767486327301114E8 ; 1.0911220711473192E10 ; 0.0
63 ; 7991960.497655447 ; 2.0252379656787562E8 ; 4.847343343661888E8 ; 1.1113727709948727E10 ; 0.0
64 ; 7993868.401968353 ; 2.025407619941434E8 ; 4.927262948638443E8 ; 1.1316251506516602E10 ; 0.0
65 ; 7995788.3812354095 ; 2.025578897050529E8 ; 5.0072016326581264E8 ; 1.1518792268510744E10 ; 0.0
66 ; 7996913.123546273 ; 2.025751747460089E8 ; 5.0871595164704806E8 ; 1.1721350158215797E10 ; 0.0
67 ; 8000743.436554015 ; 2.025926122571206E8 ; 5.1671286477059436E8 ; 1.1923925332961807E10 ; 0.0
68 ; 8001881.098687428 ; 2.0261019747301683E8 ; 5.247136082071484E8 ; 1.2126517945218927E10 ; 0.0
69 ; 8001889.173125354 ; 2.0262792572247836E8 ; 5.327154893058358E8 ; 1.2329128142691944E10 ; 0.0
70 ; 8006098.131886319 ; 2.0264579242790478E8 ; 5.407173784789611E8 ; 1.2531756068414423E10 ; 0.0
71 ; 8005726.75178941 ; 2.026637931046312E8 ; 5.487234766108475E8 ; 1.2734401860842327E10 ; 0.0
72 ; 8009585.141735813 ; 2.026819233601096E8 ; 5.567292033626369E8 ; 1.2937065653946959E10 ; 0.0
73 ; 8012628.06973644 ; 2.0270017889296985E8 ; 5.647387885043727E8 ; 1.3139747577307068E10 ; 0.0
74 ; 8012206.76908766 ; 2.0271855549197215E8 ; 5.727514165741092E8 ; 1.3342447756200037E10 ; 0.0
75 ; 8013711.816460696 ; 2.0273704903486454E8 ; 5.807636233431969E8 ; 1.3545166311692009E10 ; 0.0
76 ; 8016388.868709611 ; 2.0275565548715615E8 ; 5.887773351596576E8 ; 1.3747903360726873E10 ; 0.0
77 ; 8018054.868853839 ; 2.0277437090081748E8 ; 5.967937240283672E8 ; 1.395065901621403E10 ; 0.0
78 ; 8016163.1459613275 ; 2.0279319141291732E8 ; 6.04811778897221E8 ; 1.4153433387114847E10 ; 0.0
79 ; 8015536.317805236 ; 2.0281211324420583E8 ; 6.128279420431823E8 ; 1.4356226578527765E10 ; 0.0
80 ; 8014509.912409186 ; 2.0283113269765213E8 ; 6.208434783609875E8 ; 1.455903869177197E10 ; 0.0
81 ; 8012301.991851852 ; 2.0285024615694454E8 ; 6.288579882733967E8 ; 1.4761869824469624E10 ; 0.0
82 ; 8011973.759800307 ; 2.028694500849603E8 ; 6.368702902652485E8 ; 1.4964720070626568E10 ; 0.0
83 ; 8009509.610100803 ; 2.0288874102221185E8 ; 6.448822640250489E8 ; 1.5167589520711529E10 ; 0.0
84 ; 8010418.163794134 ; 2.0290811558527553E8 ; 6.528917736351496E8 ; 1.537047826173374E10 ; 0.0
85 ; 8007311.182739639 ; 2.029275704652083E8 ; 6.609021917989438E8 ; 1.5573386377319016E10 ; 0.0
86 ; 8008129.423420656 ; 2.029471024259574E8 ; 6.689095029816834E8 ; 1.5776313947784224E10 ; 0.0
87 ; 8005259.016791855 ; 2.0296670830276787E8 ; 6.76917632405104E8 ; 1.597926105021018E10 ; 0.0
88 ; 8003717.182558963 ; 2.029863850005915E8 ; 6.849228914218959E8 ; 1.6182227758512949E10 ; 0.0
89 ; 7999752.204101672 ; 2.0300612949250153E8 ; 6.929266086044549E8 ; 1.638521414351354E10 ; 0.0
90 ; 7999004.864741828 ; 2.0302593881811607E8 ; 7.009263608085566E8 ; 1.6588220273006042E10 ; 0.0
91 ; 8000051.8084498765 ; 2.0304581008203325E8 ; 7.089253656732984E8 ; 1.6791246211824158E10 ; 0.0
92 ; 7995702.947674877 ; 2.0306574045228094E8 ; 7.169254174817482E8 ; 1.699429202190619E10 ; 0.0
93 ; 7995364.646184814 ; 2.030857271587832E8 ; 7.249211204294231E8 ; 1.719735776235847E10 ; 0.0
94 ; 7992486.905341244 ; 2.031057674918457E8 ; 7.329164850756079E8 ; 1.7400443489517254E10 ; 0.0
95 ; 7989412.616161251 ; 2.0312585880066162E8 ; 7.409089719809492E8 ; 1.7603549257009098E10 ; 0.0
96 ; 7988899.119864875 ; 2.0314599849184003E8 ; 7.488983845971104E8 ; 1.780667511580976E10 ; 0.0
97 ; 7988190.501227578 ; 2.0316618402795768E8 ; 7.568872837169752E8 ; 1.80098211143016E10 ; 0.0
98 ; 7985229.905914831 ; 2.0318641292613572E8 ; 7.648754742182028E8 ; 1.821298729832956E10 ; 0.0
99 ; 7984444.069543492 ; 2.0320668275664198E8 ; 7.728607041241176E8 ; 1.8416173711255695E10 ; 0.0
100 ; 7980826.271850321 ; 2.0322699114151984E8 ; 7.808451481936611E8 ; 1.8619380394012337E10 ; 0.0
101 ; 7977779.680715236 ; 2.032473357532442E8 ; 7.888259744655114E8 ; 1.882260738515386E10 ; 0.0
102 ; 7977729.947835836 ; 2.0326771431340513E8 ; 7.968037541462266E8 ; 1.90258547209071E10 ; 0.0
103 ; 7970125.482040425 ; 2.032881245914197E8 ; 8.047814840940624E8 ; 1.9229122435220505E10 ; 0.0
104 ; 7970414.81898537 ; 2.0330856440327176E8 ; 8.127516095761029E8 ; 1.9432410559811924E10 ; 0.0
105 ; 7967227.190172689 ; 2.033290316102807E8 ; 8.207220243950882E8 ; 1.9635719124215195E10 ; 0.0
106 ; 7963323.002809474 ; 2.0334952411789808E8 ; 8.286892515852609E8 ; 1.9839048155825474E10 ; 0.0
107 ; 7961371.4340960635 ; 2.033700398745335E8 ; 8.366525745880704E8 ; 2.004239767994337E10 ; 0.0
108 ; 7960589.669510657 ; 2.0339057687040848E8 ; 8.446139460221665E8 ; 2.0245767719817905E10 ; 0.0
109 ; 7958712.202104928 ; 2.0341113313643846E8 ; 8.525745356916771E8 ; 2.0449158296688313E10 ; 0.0
110 ; 7947187.265310056 ; 2.0343170674314353E8 ; 8.60533247893782E8 ; 2.0652569429824753E10 ; 0.0
111 ; 7934268.551480425 ; 2.0345229579958618E8 ; 8.684804351590921E8 ; 2.0856001136567898E10 ; 0.0
112 ; 7925567.570006308 ; 2.0347289845233718E8 ; 8.764147037105725E8 ; 2.1059453432367485E10 ; 0.0
113 ; 7910975.7510257475 ; 2.0349351288446814E8 ; 8.843402712805787E8 ; 2.126292633081982E10 ; 0.0
114 ; 7895966.673743941 ; 2.0351413731457126E8 ; 8.922512470316045E8 ; 2.146641984370429E10 ; 0.0
115 ; 7882814.995653318 ; 2.0353476999580505E8 ; 9.001472137053485E8 ; 2.166993398101886E10 ; 0.0
116 ; 7871961.722401378 ; 2.0355540921496624E8 ; 9.080300287010018E8 ; 2.1873468751014664E10 ; 0.0
117 ; 7860478.743754259 ; 2.0357605329158697E8 ; 9.159019904234031E8 ; 2.207702416022963E10 ; 0.0
118 ; 7846701.005651416 ; 2.0359670057705703E8 ; 9.237624691671574E8 ; 2.2280600213521217E10 ; 0.0
119 ; 7831506.42501805 ; 2.0361734945377067E8 ; 9.316091701728089E8 ; 2.2484196914098274E10 ; 0.0
120 ; 7822623.361271359 ; 2.0363799833429718E8 ; 9.39440676597827E8 ; 2.2687814263552044E10 ; 0.0
121 ; 7805604.970057638 ; 2.0365864566057515E8 ; 9.472632999590983E8 ; 2.289145226188634E10 ; 0.0
122 ; 7793310.7741183005 ; 2.0367928990312955E8 ; 9.55068904929156E8 ; 2.3095110907546917E10 ; 0.0
123 ; 7782035.8945068205 ; 2.0369992956031135E8 ; 9.628622157032743E8 ; 2.3298790197450047E10 ; 0.0
124 ; 7764927.567444065 ; 2.037205631575588E8 ; 9.706442515977811E8 ; 2.3502490127010357E10 ; 0.0
125 ; 7751826.257688917 ; 2.0374118924668044E8 ; 9.784091791652251E8 ; 2.3706210690167915E10 ; 0.0
126 ; 7737484.515059426 ; 2.0376180640515876E8 ; 9.86161005422914E8 ; 2.3909951879414597E10 ; 0.0
127 ; 7726251.155956267 ; 2.0378241323547405E8 ; 9.938984899379735E8 ; 2.4113713685819756E10 ; 0.0
128 ; 7710694.210877339 ; 2.0380300836444837E8 ; 1.0016247410939298E9 ; 2.431749609905523E10 ; 0.0
129 ; 7698334.159631972 ; 2.038235904426086E8 ; 1.0093354353048071E9 ; 2.4521299107419678E10 ; 0.0
130 ; 7681344.759903653 ; 2.0384415814356825E8 ; 1.017033769464439E9 ; 2.4725122697862286E10 ; 0.0
131 ; 7664426.859892693 ; 2.0386471016342774E8 ; 1.0247151142243427E9 ; 2.4928966856005856E10 ; 0.0
132 ; 7649320.296301155 ; 2.0388524522019228E8 ; 1.0323795410842354E9 ; 2.5132831566169285E10 ; 0.0
133 ; 7633353.280904378 ; 2.039057620532072E8 ; 1.0400288613805366E9 ; 2.5336716811389477E10 ; 0.0
134 ; 7614886.198980642 ; 2.0392625942260972E8 ; 1.047662214661441E9 ; 2.5540622573442684E10 ; 0.0
135 ; 7599590.499774408 ; 2.0394673610879776E8 ; 1.0552771008604217E9 ; 2.5744548832865295E10 ; 0.0
136 ; 7582421.446626829 ; 2.0396719091191387E8 ; 1.0628766913601961E9 ; 2.5948495568974094E10 ; 0.0
137 ; 7565303.939240208 ; 2.0398762265134513E8 ; 1.0704591128068229E9 ; 2.615246275988601E10 ; 0.0
138 ; 7551495.108215766 ; 2.0400803016523764E8 ; 1.078024416746063E9 ; 2.6356450382537354E10 ; 0.0
139 ; 7532245.485758172 ; 2.0402841231002593E8 ; 1.0855759118542788E9 ; 2.656045841270259E10 ; 0.0
140 ; 7515953.792262804 ; 2.0404876795997614E8 ; 1.0931081573400369E9 ; 2.6764486825012615E10 ; 0.0
141 ; 7499219.36612026 ; 2.040690960067432E8 ; 1.1006241111322997E9 ; 2.696853559297259E10 ; 0.0
142 ; 7482367.749606615 ; 2.0408939535894102E8 ; 1.10812333049842E9 ; 2.7172604688979336E10 ; 0.0
143 ; 7464304.625405784 ; 2.0410966494172585E8 ; 1.1156056982480266E9 ; 2.7376694084338276E10 ; 0.0
144 ; 7447332.669153369 ; 2.0412990369639206E8 ; 1.1230700028734324E9 ; 2.7580803749280003E10 ; 0.0
145 ; 7432131.631053329 ; 2.0415011057997987E8 ; 1.1305173355425858E9 ; 2.7784933652976395E10 ; 0.0
146 ; 7418438.990637442 ; 2.0417028456489524E8 ; 1.1379494671736393E9 ; 2.7989083763556374E10 ; 0.0
147 ; 7408074.106300389 ; 2.041904246385409E8 ; 1.1453679061642768E9 ; 2.819325404812127E10 ; 0.0
148 ; 7393873.3627049085 ; 2.0421052980295843E8 ; 1.1527759802705772E9 ; 2.839744447275981E10 ; 0.0
149 ; 7376232.354330069 ; 2.0423059907448134E8 ; 1.1601698536332822E9 ; 2.860165500256277E10 ; 0.0
150 ; 7362182.25242183 ; 2.042506314833983E8 ; 1.1675460859876122E9 ; 2.8805885601637253E10 ; 0.0
151 ; 7348716.846439608 ; 2.0427062607362652E8 ; 1.174908268240034E9 ; 2.901013623312065E10 ; 0.0
152 ; 7333408.725175965 ; 2.0429058190239513E8 ; 1.1822569850864737E9 ; 2.921440685919428E10 ; 0.0
153 ; 7318545.996990472 ; 2.0431049803993765E8 ; 1.1895903938116496E9 ; 2.9418697441096672E10 ; 0.0
154 ; 7306981.975179037 ; 2.04330373569194E8 ; 1.19690893980864E9 ; 2.962300793913661E10 ; 0.0
155 ; 7290357.741184749 ; 2.0435020758552122E8 ; 1.204215921783819E9 ; 2.9827338312705803E10 ; 0.0
156 ; 7275131.982344074 ; 2.0436999919641298E8 ; 1.2115062795250037E9 ; 3.0031688520291325E10 ; 0.0
157 ; 7262025.298382238 ; 2.0438974752122727E8 ; 1.2187814115073478E9 ; 3.0236058519487736E10 ; 0.0
158 ; 7246600.624863713 ; 2.0440945169092235E8 ; 1.22604343680573E9 ; 3.0440448267008965E10 ; 0.0
159 ; 7231821.987008796 ; 2.0442911084780043E8 ; 1.2332900374305937E9 ; 3.0644857718699886E10 ; 0.0
160 ; 7216293.117661746 ; 2.044487241452592E8 ; 1.2405218594176025E9 ; 3.0849286829547688E10 ; 0.0
161 ; 7202805.486239786 ; 2.044682907475504E8 ; 1.2477381525352643E9 ; 3.1053735553692947E10 ; 0.0
162 ; 7190996.548020873 ; 2.044878098295458E8 ; 1.254940958021504E9 ; 3.12582038444405E10 ; 0.0
163 ; 7171727.406762367 ; 2.045072805765101E8 ; 1.2621319545695248E9 ; 3.1462691654270042E10 ; 0.0
164 ; 7160120.824598555 ; 2.0452670218388036E8 ; 1.2693036819762871E9 ; 3.1667198934846554E10 ; 0.0
165 ; 7146466.974771433 ; 2.045460738570521E8 ; 1.2764638028008857E9 ; 3.1871725637030434E10 ; 0.0
166 ; 7129071.321632907 ; 2.0456539481117165E8 ; 1.2836102697756572E9 ; 3.2076271710887486E10 ; 0.0
167 ; 7116071.073131958 ; 2.0458466427093476E8 ; 1.29073934109729E9 ; 3.2280837105698658E10 ; 0.0
168 ; 7101762.176878551 ; 2.0460388147039074E8 ; 1.297855412170422E9 ; 3.2485421769969593E10 ; 0.0
169 ; 7086455.359800569 ; 2.0462304565275282E8 ; 1.3049571743473005E9 ; 3.2690025651439983E10 ; 0.0
170 ; 7070489.356895524 ; 2.0464215607021374E8 ; 1.312043629707101E9 ; 3.2894648697092735E10 ; 0.0
171 ; 7055220.720868164 ; 2.0466121198376688E8 ; 1.3191141190639966E9 ; 3.309929085316295E10 ; 0.0
172 ; 7041529.533097895 ; 2.0468021266303265E8 ; 1.3261693397848647E9 ; 3.3303952065146717E10 ; 0.0
173 ; 7026450.326707279 ; 2.0469915738608965E8 ; 1.3332108693179626E9 ; 3.350863227780975E10 ; 0.0
174 ; 7015490.881000588 ; 2.047E8 ; 1.34023731964467E9 ; 3.371333143519584E10 ; 0.0
175 ; 6999931.568508375 ; 2.047E8 ; 1.3472528105256705E9 ; 3.391803143519584E10 ; 0.0
176 ; 6989303.2754852995 ; 2.047E8 ; 1.354252742094179E9 ; 3.412273143519584E10 ; 0.0
177 ; 6975498.927063814 ; 2.047E8 ; 1.3612420453696642E9 ; 3.432743143519584E10 ; 0.0
178 ; 6961255.166061494 ; 2.047E8 ; 1.368217544296728E9 ; 3.453213143519584E10 ; 0.0
179 ; 6951502.353454651 ; 2.047E8 ; 1.3751787994627893E9 ; 3.473683143519584E10 ; 0.0
180 ; 6936564.145284894 ; 2.047E8 ; 1.382130301816244E9 ; 3.494153143519584E10 ; 0.0
181 ; 6926279.801376356 ; 2.047E8 ; 1.3890668659615288E9 ; 3.514623143519584E10 ; 0.0
182 ; 6908735.202621743 ; 2.047E8 ; 1.3959931457629051E9 ; 3.535093143519584E10 ; 0.0
183 ; 6899593.313561997 ; 2.047E8 ; 1.4029018809655268E9 ; 3.555563143519584E10 ; 0.0
184 ; 6885787.854057355 ; 2.047E8 ; 1.4098014742790887E9 ; 3.576033143519584E10 ; 0.0
185 ; 6875787.326136737 ; 2.047E8 ; 1.416687262133146E9 ; 3.596503143519584E10 ; 0.0
186 ; 6860545.87217292 ; 2.047E8 ; 1.4235630494592829E9 ; 3.616973143519584E10 ; 0.0
187 ; 6848321.835287265 ; 2.047E8 ; 1.4304235953314557E9 ; 3.637443143519584E10 ; 0.0
188 ; 6835921.456607562 ; 2.047E8 ; 1.437271917166743E9 ; 3.657913143519584E10 ; 0.0
189 ; 6821865.092311394 ; 2.047E8 ; 1.4441078386233506E9 ; 3.678383143519584E10 ; 0.0
190 ; 6808862.677541276 ; 2.047E8 ; 1.450929703715662E9 ; 3.698853143519584E10 ; 0.0
191 ; 6797039.398735348 ; 2.047E8 ; 1.4577385663932033E9 ; 3.719323143519584E10 ; 0.0
192 ; 6782682.094488713 ; 2.047E8 ; 1.4645356057919385E9 ; 3.739793143519584E10 ; 0.0
193 ; 6769906.88175129 ; 2.047E8 ; 1.4713182878864272E9 ; 3.760263143519584E10 ; 0.0
194 ; 6756571.386333222 ; 2.047E8 ; 1.4780881947681785E9 ; 3.780733143519584E10 ; 0.0
195 ; 6745158.8810036 ; 2.047E8 ; 1.4848447661545117E9 ; 3.801203143519584E10 ; 0.0
196 ; 6731111.904641759 ; 2.047E8 ; 1.4915899250355153E9 ; 3.821673143519584E10 ; 0.0
197 ; 6718093.299379995 ; 2.047E8 ; 1.4983210369401572E9 ; 3.842143143519584E10 ; 0.0
198 ; 6704568.059352228 ; 2.047E8 ; 1.5050391302395372E9 ; 3.862613143519584E10 ; 0.0
199 ; 6695633.991616977 ; 1.7358560664637932E8 ; 1.5117436982988894E9 ; 3.883083143519584E10 ; 0.0
200 ; 6679915.652519113 ; 1.5620807492166224E8 ; 1.5184393322905064E9 ; 3.900441704184222E10 ; 0.0
201 ; 6667413.522078434 ; 1.5586000678114402E8 ; 1.5251192479430256E9 ; 3.916062511676388E10 ; 0.0
202 ; 6655092.464671345 ; 1.555127382774142E8 ; 1.531786661465104E9 ; 3.931648512354502E10 ; 0.0
203 ; 6642065.442846217 ; 1.5516626757342157E8 ; 1.5384417539297755E9 ; 3.947199786182243E10 ; 0.0
204 ; 6626983.857163993 ; 1.548205928363353E8 ; 1.5450838193726218E9 ; 3.962716412939586E10 ; 0.0
