CSV File for the City 1 on Day 167
1 - Minute m 
2 - Power Consumed at minute m 
3 - Power Produced at minute m 
4 - Energy Consumed since the beginning of the day 
5 - Energy Produced since the beginning of the day 
6 - Energy Lost since the beginning of the day on lines starting from the city
 
0 ; 5952919.247326217 ; 1.055217747079368E8 ; 0.0 ; 0.0 ; 0.0
1 ; 5965749.965327592 ; 1.0567471575314683E8 ; 5952919.247326217 ; 1.055217747079368E8 ; 0.0
2 ; 5980536.4768437445 ; 1.0613643923597726E8 ; 1.1918669212653808E7 ; 2.1119649046108362E8 ; 0.0
3 ; 5997820.177227974 ; 1.0690694671546924E8 ; 1.7899205689497553E7 ; 3.173329296970609E8 ; 0.0
4 ; 6013594.097021317 ; 1.0798623958988166E8 ; 2.3897025866725527E7 ; 4.242398764125301E8 ; 0.0
5 ; 6041064.812072396 ; 1.0937431908858061E8 ; 2.9910619963746846E7 ; 5.322261160024118E8 ; 0.0
6 ; 6073994.25802302 ; 1.1107118626476452E8 ; 3.595168477581924E7 ; 6.416004350909925E8 ; 0.0
7 ; 6123396.002308522 ; 1.1307684198912513E8 ; 4.2025679033842266E7 ; 7.52671621355757E8 ; 0.0
8 ; 6195513.019525806 ; 1.1539128694453138E8 ; 4.814907503615079E7 ; 8.657484633448821E8 ; 0.0
9 ; 6307915.049407645 ; 1.1801452162181288E8 ; 5.4344588055676594E7 ; 9.811397502894135E8 ; 0.0
10 ; 6487560.822502689 ; 1.2094654631670278E8 ; 6.065250310508424E7 ; 1.0991542719112263E9 ; 0.0
11 ; 6769144.335186833 ; 1.2418736112798575E8 ; 6.714006392758693E7 ; 1.220100818227929E9 ; 0.0
12 ; 7225540.477038517 ; 1.2773696595687708E8 ; 7.390920826277377E7 ; 1.3442881793559148E9 ; 0.0
13 ; 7670262.495295954 ; 1.3159536050764364E8 ; 8.113474873981228E7 ; 1.4720251453127918E9 ; 0.0
14 ; 7721893.942925835 ; 1.357625442894559E8 ; 8.880501123510824E7 ; 1.6036205058204355E9 ; 0.0
15 ; 7734034.496055321 ; 1.402385166194448E8 ; 9.652690517803408E7 ; 1.7393830501098914E9 ; 0.0
16 ; 7754827.511901006 ; 1.450232766269187E8 ; 1.042609396740894E8 ; 1.8796215667293363E9 ; 0.0
17 ; 7766441.540845997 ; 1.5011682325867912E8 ; 1.1201576718599041E8 ; 2.024644843356255E9 ; 0.0
18 ; 7787406.951491894 ; 1.5551915528535998E8 ; 1.197822087268364E8 ; 2.174761666614934E9 ; 0.0
19 ; 7805477.683546043 ; 1.6123027130870238E8 ; 1.2756961567832829E8 ; 2.330280821900294E9 ; 0.0
20 ; 7820164.187960989 ; 1.6725016976966515E8 ; 1.3537509336187434E8 ; 2.4915110932089963E9 ; 0.0
21 ; 7845174.793785015 ; 1.7357884895726565E8 ; 1.4319525754983532E8 ; 2.6587612629786615E9 ; 0.0
22 ; 7853556.822525022 ; 1.8021630701803637E8 ; 1.5104043234362033E8 ; 2.8323401119359274E9 ; 0.0
23 ; 7873135.091853581 ; 1.8716254196598214E8 ; 1.5889398916614535E8 ; 3.0125564189539638E9 ; 0.0
24 ; 7896522.8407175485 ; 1.9441755169292068E8 ; 1.6676712425799894E8 ; 3.1997189609199457E9 ; 0.0
25 ; 7908204.647611121 ; 2.0066937487727433E8 ; 1.746636470987165E8 ; 3.3941365126128664E9 ; 0.0
26 ; 7926235.5443990985 ; 2.0067155703172868E8 ; 1.825718517463276E8 ; 3.594805887490141E9 ; 0.0
27 ; 7944562.274989806 ; 2.0067386503894717E8 ; 1.9049808729072672E8 ; 3.7954774445218697E9 ; 0.0
28 ; 7965364.402688146 ; 2.0067629640910208E8 ; 1.9844264956571653E8 ; 3.996151309560817E9 ; 0.0
29 ; 7979150.331539708 ; 2.0067884858373353E8 ; 2.0640801396840468E8 ; 4.1968276059699187E9 ; 0.0
30 ; 7991873.944528281 ; 2.0068151894613484E8 ; 2.143871642999444E8 ; 4.397506454553652E9 ; 0.0
31 ; 8006785.339984147 ; 2.0068430483143568E8 ; 2.2237903824447268E8 ; 4.598187973499786E9 ; 0.0
32 ; 8024712.690215142 ; 2.006872035363187E8 ; 2.3038582358445683E8 ; 4.798872278331223E9 ; 0.0
33 ; 8042118.203418228 ; 2.0069021232831618E8 ; 2.3841053627467197E8 ; 4.999559481867541E9 ; 0.0
34 ; 8060071.96607374 ; 2.0069332845464233E8 ; 2.464526544780902E8 ; 5.200249694195857E9 ; 0.0
35 ; 8070951.707923267 ; 2.0069654915052688E8 ; 2.5451272644416395E8 ; 5.400943022650499E9 ; 0.0
36 ; 8085542.280819001 ; 2.0069987164702532E8 ; 2.625836781520872E8 ; 5.601639571801026E9 ; 0.0
37 ; 8097585.183641745 ; 2.0070329317828792E8 ; 2.706692204329062E8 ; 5.802339443448051E9 ; 0.0
38 ; 8108298.451809017 ; 2.0070681098827976E8 ; 2.7876680561654794E8 ; 6.003042736626339E9 ; 0.0
39 ; 8118790.65313942 ; 2.0071042233694914E8 ; 2.8687510406835693E8 ; 6.203749547614618E9 ; 0.0
40 ; 8135313.514335127 ; 2.007141245058487E8 ; 2.9499389472149634E8 ; 6.404459969951568E9 ; 0.0
41 ; 8141450.626862881 ; 2.0071791480321938E8 ; 3.031292082358315E8 ; 6.605174094457417E9 ; 0.0
42 ; 8153007.480143932 ; 2.007217905685509E8 ; 3.112706588626944E8 ; 6.805892009260636E9 ; 0.0
43 ; 8159539.342799782 ; 2.0072574917663735E8 ; 3.194236663428383E8 ; 7.006613799829187E9 ; 0.0
44 ; 8169863.54446799 ; 2.007297880411487E8 ; 3.2758320568563807E8 ; 7.207339549005825E9 ; 0.0
45 ; 8182470.692655751 ; 2.0073390461774173E8 ; 3.3575306923010606E8 ; 7.408069337046974E9 ; 0.0
46 ; 8189903.385619786 ; 2.0073809640673614E8 ; 3.439355399227618E8 ; 7.608803241664716E9 ; 0.0
47 ; 8190452.158074012 ; 2.0074236095538136E8 ; 3.5212544330838156E8 ; 7.809541338071452E9 ; 0.0
48 ; 8198014.72001722 ; 2.0074669585974246E8 ; 3.603158954664556E8 ; 8.010283699026834E9 ; 0.0
49 ; 8200422.722090486 ; 2.0075109876623118E8 ; 3.685139101864728E8 ; 8.211030394886576E9 ; 0.0
50 ; 8204965.447572964 ; 2.0075556737281057E8 ; 3.7671433290856326E8 ; 8.411781493652807E9 ; 0.0
51 ; 8211048.342979776 ; 2.0076009942989945E8 ; 3.849192983561362E8 ; 8.612537061025618E9 ; 0.0
52 ; 8208590.613072197 ; 2.007646927410027E8 ; 3.93130346699116E8 ; 8.813297160455517E9 ; 0.0
53 ; 8210457.8135652235 ; 2.0076934516309333E8 ; 4.013389373121882E8 ; 9.01406185319652E9 ; 0.0
54 ; 8217298.284782827 ; 2.0077405460676983E8 ; 4.095493951257534E8 ; 9.214831198359613E9 ; 0.0
55 ; 8220876.807389455 ; 2.007788190362123E8 ; 4.177666934105362E8 ; 9.415605252966383E9 ; 0.0
56 ; 8219220.616450343 ; 2.007836364689588E8 ; 4.2598757021792567E8 ; 9.616384072002596E9 ; 0.0
57 ; 8223600.404892917 ; 2.0078850497552258E8 ; 4.3420679083437604E8 ; 9.817167708471554E9 ; 0.0
58 ; 8227818.607309756 ; 2.0079342267886925E8 ; 4.4243039123926896E8 ; 1.0017956213447077E10 ; 0.0
59 ; 8225963.452879609 ; 2.007983877537716E8 ; 4.506582098465787E8 ; 1.0218749636125946E10 ; 0.0
60 ; 8229750.332999735 ; 2.0080339842605847E8 ; 4.588841732994583E8 ; 1.0419548023879717E10 ; 0.0
61 ; 8236860.362629869 ; 2.0080845297177303E8 ; 4.6711392363245803E8 ; 1.0620351422305775E10 ; 0.0
62 ; 8233035.033222745 ; 2.0081354971625385E8 ; 4.753507839950879E8 ; 1.0821159875277548E10 ; 0.0
63 ; 8236134.815542725 ; 2.0081868703315198E8 ; 4.8358381902831066E8 ; 1.1021973424993801E10 ; 0.0
64 ; 8237467.945009673 ; 2.008238633433952E8 ; 4.9181995384385335E8 ; 1.1222792112026953E10 ; 0.0
65 ; 8234626.359362686 ; 2.0082907711410972E8 ; 5.00057421788863E8 ; 1.1423615975370348E10 ; 0.0
66 ; 8238767.05509058 ; 2.008343268575093E8 ; 5.0829204814822567E8 ; 1.1624445052484457E10 ; 0.0
67 ; 8245541.103833827 ; 2.008396111297591E8 ; 5.165308152033163E8 ; 1.1825279379341967E10 ; 0.0
68 ; 8235801.771878777 ; 2.0084492852982333E8 ; 5.247763563071501E8 ; 1.2026118990471725E10 ; 0.0
69 ; 8239553.920238265 ; 2.008502776983016E8 ; 5.330121580790289E8 ; 1.2226963919001549E10 ; 0.0
70 ; 8241615.863046326 ; 2.008556573162615E8 ; 5.412517119992672E8 ; 1.242781419669985E10 ; 0.0
71 ; 8239484.9580250615 ; 2.0086106610407138E8 ; 5.494933278623135E8 ; 1.2628669854016111E10 ; 0.0
72 ; 8241277.753694889 ; 2.0086650282023856E8 ; 5.577328128203386E8 ; 1.2829530920120182E10 ; 0.0
73 ; 8238659.297038126 ; 2.008719662602569E8 ; 5.659740905740335E8 ; 1.303039742294042E10 ; 0.0
74 ; 8241625.548066084 ; 2.0087745525546658E8 ; 5.742127498710716E8 ; 1.3231269389200678E10 ; 0.0
75 ; 8243608.80168669 ; 2.0088296867192993E8 ; 5.824543754191377E8 ; 1.3432146844456144E10 ; 0.0
76 ; 8245462.480893964 ; 2.008885054093249E8 ; 5.906979842208244E8 ; 1.3633029813128075E10 ; 0.0
77 ; 8238267.002874608 ; 2.0089406439985898E8 ; 5.989434467017183E8 ; 1.38339183185374E10 ; 0.0
78 ; 8237788.757416878 ; 2.0089964460720465E8 ; 6.07181713704593E8 ; 1.4034812382937258E10 ; 0.0
79 ; 8228781.339976819 ; 2.0090524502545846E8 ; 6.154195024620098E8 ; 1.4235712027544462E10 ; 0.0
80 ; 8225707.119742238 ; 2.009108646781243E8 ; 6.236482838019866E8 ; 1.4436617272569921E10 ; 0.0
81 ; 8218373.335778295 ; 2.0091650261712217E8 ; 6.318739909217288E8 ; 1.4637528137248045E10 ; 0.0
82 ; 8207327.833156277 ; 2.0092215792182273E8 ; 6.400923642575071E8 ; 1.4838444639865168E10 ; 0.0
83 ; 8207545.783899101 ; 2.0092782969810817E8 ; 6.482996920906633E8 ; 1.5039366797786991E10 ; 0.0
84 ; 8198577.980355802 ; 2.009335170774602E8 ; 6.565072378745624E8 ; 1.52402946274851E10 ; 0.0
85 ; 8188024.826387062 ; 2.0093921921607432E8 ; 6.647058158549182E8 ; 1.544122814456256E10 ; 0.0
86 ; 8182578.571569434 ; 2.009449352940013E8 ; 6.728938406813053E8 ; 1.5642167363778633E10 ; 0.0
87 ; 8177525.815985732 ; 2.0095066451431522E8 ; 6.810764192528747E8 ; 1.5843112299072634E10 ; 0.0
88 ; 8169513.5491079325 ; 2.009564061023078E8 ; 6.892539450688604E8 ; 1.6044062963586948E10 ; 0.0
89 ; 8161846.051244562 ; 2.009621593047094E8 ; 6.974234586179683E8 ; 1.6245019369689257E10 ; 0.0
90 ; 8155986.01007966 ; 2.009679233889352E8 ; 7.055853046692129E8 ; 1.6445981528993965E10 ; 0.0
91 ; 8148354.143161162 ; 2.009736976423573E8 ; 7.137412906792926E8 ; 1.66469494523829E10 ; 0.0
92 ; 8138625.51561522 ; 2.009794813716012E8 ; 7.218896448224537E8 ; 1.6847923150025257E10 ; 0.0
93 ; 8126854.669709672 ; 2.009852739018672E8 ; 7.30028270338069E8 ; 1.7048902631396858E10 ; 0.0
94 ; 8125220.074393051 ; 2.0099107457627508E8 ; 7.381551250077786E8 ; 1.7249887905298725E10 ; 0.0
95 ; 8114093.734119012 ; 2.0099688275523221E8 ; 7.462803450821717E8 ; 1.7450878979875E10 ; 0.0
96 ; 8110055.713427187 ; 2.0100269781582433E8 ; 7.543944388162907E8 ; 1.7651875862630234E10 ; 0.0
97 ; 8098015.864699567 ; 2.0100851915122822E8 ; 7.625044945297179E8 ; 1.7852878560446056E10 ; 0.0
98 ; 8088612.492037316 ; 2.0101434617014566E8 ; 7.706025103944175E8 ; 1.8053887079597286E10 ; 0.0
99 ; 8078405.479880376 ; 2.0102017829625842E8 ; 7.786911228864548E8 ; 1.8254901425767433E10 ; 0.0
100 ; 8071011.915582266 ; 2.0102601496770287E8 ; 7.867695283663352E8 ; 1.845592160406369E10 ; 0.0
101 ; 8060931.594985161 ; 2.0103185563656443E8 ; 7.948405402819175E8 ; 1.8656947619031395E10 ; 0.0
102 ; 8053428.120970025 ; 2.010376997683907E8 ; 8.029014718769026E8 ; 1.885797947466796E10 ; 0.0
103 ; 8044685.081074076 ; 2.010435468417227E8 ; 8.109548999978726E8 ; 1.905901717443635E10 ; 0.0
104 ; 8037712.121980029 ; 2.010493963476439E8 ; 8.189995850789467E8 ; 1.9260060721278076E10 ; 0.0
105 ; 8029331.2019005045 ; 2.0105524778934607E8 ; 8.270372972009268E8 ; 1.946111011762572E10 ; 0.0
106 ; 8015041.158472291 ; 2.0106110068171152E8 ; 8.350666284028273E8 ; 1.9662165365415066E10 ; 0.0
107 ; 8008997.278387654 ; 2.0106695455091122E8 ; 8.430816695612996E8 ; 1.986322646609678E10 ; 0.0
108 ; 7995315.603460631 ; 2.01072808934018E8 ; 8.510906668396872E8 ; 2.006429342064769E10 ; 0.0
109 ; 7989261.667827062 ; 2.0107866337863466E8 ; 8.590859824431479E8 ; 2.0265366229581707E10 ; 0.0
110 ; 7978951.459227356 ; 2.010845174425361E8 ; 8.670752441109749E8 ; 2.0466444892960342E10 ; 0.0
111 ; 7966241.129181181 ; 2.010903706933248E8 ; 8.750541955702022E8 ; 2.0667529410402878E10 ; 0.0
112 ; 7951971.685476612 ; 2.010962227081E8 ; 8.830204366993834E8 ; 2.0868619781096203E10 ; 0.0
113 ; 7946693.483570544 ; 2.011020730731389E8 ; 8.9097240838486E8 ; 2.1069716003804302E10 ; 0.0
114 ; 7934473.111595178 ; 2.0110792138359022E8 ; 8.989191018684306E8 ; 2.127081807687744E10 ; 0.0
115 ; 7925915.021419379 ; 2.011137672431796E8 ; 9.068535749800258E8 ; 2.1471925998261032E10 ; 0.0
116 ; 7913043.623055265 ; 2.0111961026392588E8 ; 9.147794900014452E8 ; 2.167303976550421E10 ; 0.0
117 ; 7902666.6525517525 ; 2.0112545006586838E8 ; 9.226925336245004E8 ; 2.187415937576814E10 ; 0.0
118 ; 7888732.494131358 ; 2.0113128627680448E8 ; 9.305952002770522E8 ; 2.2075284825834007E10 ; 0.0
119 ; 7880725.512518811 ; 2.011371185320372E8 ; 9.384839327711835E8 ; 2.2276416112110813E10 ; 0.0
120 ; 7863252.950928447 ; 2.0114294647413233E8 ; 9.463646582837023E8 ; 2.247755323064285E10 ; 0.0
121 ; 7856254.828869635 ; 2.0114876975268465E8 ; 9.542279112346307E8 ; 2.267869617711698E10 ; 0.0
122 ; 7843602.268998267 ; 2.0115458802409324E8 ; 9.620841660635003E8 ; 2.2879844946869667E10 ; 0.0
123 ; 7833034.8794260025 ; 2.0116040095134503E8 ; 9.699277683324986E8 ; 2.308099953489376E10 ; 0.0
124 ; 7820586.373694424 ; 2.0116620820380655E8 ; 9.777608032119246E8 ; 2.3282159935845104E10 ; 0.0
125 ; 7808922.971005689 ; 2.0117200945702374E8 ; 9.85581389585619E8 ; 2.3483326144048912E10 ; 0.0
126 ; 7795885.152223024 ; 2.0117780439252895E8 ; 9.933903125566247E8 ; 2.3684498153505936E10 ; 0.0
127 ; 7781856.479973318 ; 2.0118359269765535E8 ; 1.0011861977088476E9 ; 2.3885675957898464E10 ; 0.0
128 ; 7768761.605734844 ; 2.011893740653583E8 ; 1.008968054188821E9 ; 2.408685955059612E10 ; 0.0
129 ; 7758806.174219343 ; 2.011951481940434E8 ; 1.0167368157945558E9 ; 2.4288048924661476E10 ; 0.0
130 ; 7739168.849386804 ; 2.012009147874007E8 ; 1.0244956219687752E9 ; 2.448924407285552E10 ; 0.0
131 ; 7723200.632429705 ; 2.0120667355424538E8 ; 1.032234790818162E9 ; 2.4690444987642918E10 ; 0.0
132 ; 7702860.561766341 ; 2.012124242083643E8 ; 1.0399579914505917E9 ; 2.4891651661197163E10 ; 0.0
133 ; 7688892.540869899 ; 2.012181664683679E8 ; 1.0476608520123581E9 ; 2.5092864085405525E10 ; 0.0
134 ; 7668679.2425079765 ; 2.0122390005754796E8 ; 1.055349744553228E9 ; 2.5294082251873894E10 ; 0.0
135 ; 7645454.7485083835 ; 2.0122962470374027E8 ; 1.063018423795736E9 ; 2.5495306151931442E10 ; 0.0
136 ; 7628464.960336098 ; 2.012353401391927E8 ; 1.0706638785442443E9 ; 2.569653577663518E10 ; 0.0
137 ; 7606842.045371378 ; 2.012410461004376E8 ; 1.0782923435045805E9 ; 2.5897771116774376E10 ; 0.0
138 ; 7588401.770061476 ; 2.0124674232816944E8 ; 1.0858991855499518E9 ; 2.6099012162874813E10 ; 0.0
139 ; 7574692.874869887 ; 2.012524285671262E8 ; 1.0934875873200133E9 ; 2.6300258905202984E10 ; 0.0
140 ; 7550435.702648478 ; 2.0125810456597587E8 ; 1.101062280194883E9 ; 2.650151133377011E10 ; 0.0
141 ; 7530987.353903804 ; 2.0126377007720634E8 ; 1.1086127158975315E9 ; 2.6702769438336086E10 ; 0.0
142 ; 7508214.958284828 ; 2.0126942485701963E8 ; 1.1161437032514353E9 ; 2.6904033208413292E10 ; 0.0
143 ; 7491905.63568164 ; 2.0127506866522992E8 ; 1.1236519182097201E9 ; 2.7105302633270313E10 ; 0.0
144 ; 7470872.364489397 ; 2.0128070126516506E8 ; 1.1311438238454018E9 ; 2.7306577701935543E10 ; 0.0
145 ; 7456943.541679447 ; 2.0128632242357174E8 ; 1.138614696209891E9 ; 2.7507858403200706E10 ; 0.0
146 ; 7444129.503509194 ; 2.01291931910524E8 ; 1.1460716397515705E9 ; 2.770914472562428E10 ; 0.0
147 ; 7429251.431432042 ; 2.0129752949933505E8 ; 1.1535157692550797E9 ; 2.79104366575348E10 ; 0.0
148 ; 7420519.864586359 ; 2.01303114966472E8 ; 1.1609450206865118E9 ; 2.8111734187034138E10 ; 0.0
149 ; 7405954.647142196 ; 2.013086880914739E8 ; 1.168365540551098E9 ; 2.831303730200061E10 ; 0.0
150 ; 7392063.913086079 ; 2.0131424865687245E8 ; 1.1757714951982403E9 ; 2.8514345990092083E10 ; 0.0
151 ; 7378004.797582472 ; 2.013197964481156E8 ; 1.1831635591113265E9 ; 2.8715660238748955E10 ; 0.0
152 ; 7364725.209794802 ; 2.013253312534936E8 ; 1.1905415639089088E9 ; 2.891698003519707E10 ; 0.0
153 ; 7349459.407973238 ; 2.013308528640682E8 ; 1.1979062891187036E9 ; 2.9118305366450565E10 ; 0.0
154 ; 7338971.912862527 ; 2.0133636107360354E8 ; 1.205255748526677E9 ; 2.9319636219314632E10 ; 0.0
155 ; 7324823.558852534 ; 2.0134185567849994E8 ; 1.2125947204395394E9 ; 2.9520972580388237E10 ; 0.0
156 ; 7308782.710166926 ; 2.0134733647772998E8 ; 1.2199195439983919E9 ; 2.972231443606674E10 ; 0.0
157 ; 7300881.609622294 ; 2.0135280327277648E8 ; 1.2272283267085588E9 ; 2.9923661772544468E10 ; 0.0
158 ; 7285032.967786577 ; 2.0135825586757296E8 ; 1.234529208318181E9 ; 3.0125014575817245E10 ; 0.0
159 ; 7270968.554279682 ; 2.013636940684458E8 ; 1.2418142412859676E9 ; 3.032637283168482E10 ; 0.0
160 ; 7255398.641016007 ; 2.0136911768405864E8 ; 1.2490852098402472E9 ; 3.0527736525753265E10 ; 0.0
161 ; 7240258.336305813 ; 2.0137452652535865E8 ; 1.2563406084812632E9 ; 3.0729105643437325E10 ; 0.0
162 ; 7230393.557870364 ; 2.013799204055243E8 ; 1.263580866817569E9 ; 3.0930480169962685E10 ; 0.0
163 ; 7216981.112231419 ; 2.0138529913991553E8 ; 1.2708112603754394E9 ; 3.113186009036821E10 ; 0.0
164 ; 7198975.028061393 ; 2.0139066254602477E8 ; 1.278028241487671E9 ; 3.1333245389508125E10 ; 0.0
165 ; 7187744.1718755085 ; 2.0139601044343048E8 ; 1.2852272165157323E9 ; 3.153463605205415E10 ; 0.0
166 ; 7172830.075953637 ; 2.0140134265375152E8 ; 1.2924149606876078E9 ; 3.173603206249758E10 ; 0.0
167 ; 7157593.048222982 ; 2.014066590006035E8 ; 1.2995877907635615E9 ; 3.1937433405151333E10 ; 0.0
168 ; 7142720.574176033 ; 2.0141195930955637E8 ; 1.3067453838117845E9 ; 3.2138840064151936E10 ; 0.0
169 ; 7130829.3473720215 ; 2.014172434080936E8 ; 1.3138881043859606E9 ; 3.234025202346149E10 ; 0.0
170 ; 7115776.046691316 ; 2.0142251112557247E8 ; 1.3210189337333326E9 ; 3.2541669266869583E10 ; 0.0
171 ; 7104948.448356309 ; 2.014277622931858E8 ; 1.328134709780024E9 ; 3.2743091777995155E10 ; 0.0
172 ; 7091219.197415231 ; 2.0143299674392506E8 ; 1.3352396582283804E9 ; 3.294451954028834E10 ; 0.0
173 ; 7075978.79127285 ; 2.014382143125445E8 ; 1.3423308774257956E9 ; 3.3145952537032265E10 ; 0.0
174 ; 7066243.18831902 ; 2.0144341483552656E8 ; 1.3494068562170684E9 ; 3.334739075134481E10 ; 0.0
175 ; 7054554.309427536 ; 2.0144859815104836E8 ; 1.3564730994053874E9 ; 3.3548834166180336E10 ; 0.0
176 ; 7041972.032963667 ; 2.014537640989493E8 ; 1.363527653714815E9 ; 3.3750282764331383E10 ; 0.0
177 ; 7031617.541595736 ; 2.0145891252069983E8 ; 1.3705696257477787E9 ; 3.3951736528430332E10 ; 0.0
178 ; 7022087.771659569 ; 2.014640432593709E8 ; 1.3776012432893744E9 ; 3.415319544095103E10 ; 0.0
179 ; 7011149.218866855 ; 2.014691561596049E8 ; 1.384623331061034E9 ; 3.4354659484210403E10 ; 0.0
180 ; 6995300.324797232 ; 2.0147425106758708E8 ; 1.3916344802799008E9 ; 3.455612864037001E10 ; 0.0
181 ; 6989170.016924847 ; 2.0147932783101806E8 ; 1.398629780604698E9 ; 3.47576028914376E10 ; 0.0
182 ; 6976117.545661193 ; 2.0148438629908738E8 ; 1.4056189506216228E9 ; 3.4959082219268616E10 ; 0.0
183 ; 6966547.821717884 ; 2.0148942632244763E8 ; 1.412595068167284E9 ; 3.51605666055677E10 ; 0.0
184 ; 6954748.389738003 ; 2.0149444775318956E8 ; 1.419561615989002E9 ; 3.536205603189015E10 ; 0.0
185 ; 6941629.061471986 ; 2.01499450444818E8 ; 1.42651636437874E9 ; 3.556355047964334E10 ; 0.0
186 ; 6930588.927814433 ; 2.0150443425222835E8 ; 1.433457993440212E9 ; 3.576504993008816E10 ; 0.0
187 ; 6922648.816726765 ; 2.0150939903168425E8 ; 1.4403885823680265E9 ; 3.5966554364340385E10 ; 0.0
188 ; 6909775.481093766 ; 2.015143446407953E8 ; 1.4473112311847532E9 ; 3.616806376337207E10 ; 0.0
189 ; 6897969.662810428 ; 2.015192709384962E8 ; 1.454221006665847E9 ; 3.636957810801286E10 ; 0.0
190 ; 6889343.19074703 ; 2.0152417778502598E8 ; 1.4611189763286574E9 ; 3.657109737895136E10 ; 0.0
191 ; 6876139.376495793 ; 2.015290650419082E8 ; 1.4680083195194044E9 ; 3.677262155673639E10 ; 0.0
192 ; 6864866.19308814 ; 2.015339325719317E8 ; 1.4748844588959002E9 ; 3.69741506217783E10 ; 0.0
193 ; 6859044.269632303 ; 2.015387802391318E8 ; 1.4817493250889883E9 ; 3.717568455435023E10 ; 0.0
194 ; 6846620.062889527 ; 2.015436079087724E8 ; 1.4886083693586206E9 ; 3.7377223334589355E10 ; 0.0
195 ; 6833796.886197944 ; 2.015484154473284E8 ; 1.4954549894215102E9 ; 3.757876694249813E10 ; 0.0
196 ; 6821855.5351907965 ; 2.0155320272246855E8 ; 1.5022887863077083E9 ; 3.778031535794546E10 ; 0.0
197 ; 6815307.536724608 ; 2.0155796960303932E8 ; 1.509110641842899E9 ; 3.798186856066792E10 ; 0.0
198 ; 6800188.691883875 ; 2.0156271595904872E8 ; 1.5159259493796237E9 ; 3.8183426530270966E10 ; 0.0
199 ; 6788047.923146739 ; 2.0156744166165093E8 ; 1.5227261380715075E9 ; 3.838498924623001E10 ; 0.0
200 ; 6782164.69435793 ; 2.0157214658313137E8 ; 1.5295141859946542E9 ; 3.858655668789166E10 ; 0.0
201 ; 6768133.282171222 ; 1.8773597117219654E8 ; 1.536296350689012E9 ; 3.878812883447479E10 ; 0.0
