CSV File for the City 4 on Day 202
1 - Minute m 
2 - Power Consumed at minute m 
3 - Power Produced at minute m 
4 - Energy Consumed since the beginning of the day 
5 - Energy Produced since the beginning of the day 
6 - Energy Lost since the beginning of the day on lines starting from the city
 
0 ; 568210.6244555833 ; 1.057893205732877E8 ; 0.0 ; 0.0 ; 0.0
1 ; 573315.4073242595 ; 1.059391442587949E8 ; 568210.6244555833 ; 1.057893205732877E8 ; 0.0
2 ; 583962.6496037376 ; 1.0639805471384302E8 ; 1141526.031779843 ; 2.117284648320826E8 ; 0.0
3 ; 592913.9317727674 ; 1.0716606103091651E8 ; 1725488.6813835804 ; 3.181265195459256E8 ; 0.0
4 ; 605689.5899861881 ; 1.0824317148395818E8 ; 2318402.613156348 ; 4.252925805768421E8 ; 0.0
5 ; 616616.4741859784 ; 1.0962939344213772E8 ; 2924092.203142536 ; 5.335357520608003E8 ; 0.0
6 ; 631606.2347679429 ; 1.1132473329006699E8 ; 3540708.6773285144 ; 6.43165145502938E8 ; 0.0
7 ; 658764.0520347685 ; 1.1332919635638255E8 ; 4172314.9120964576 ; 7.54489878793005E8 ; 0.0
8 ; 689468.6365611048 ; 1.156427868524965E8 ; 4831078.964131226 ; 8.678190751493876E8 ; 0.0
9 ; 738405.6536253529 ; 1.1826550782312465E8 ; 5520547.600692331 ; 9.834618620018841E8 ; 0.0
10 ; 820836.6182246234 ; 1.2119736110993111E8 ; 6258953.254317684 ; 1.1017273698250089E9 ; 0.0
11 ; 946256.8782947328 ; 1.2443834732929751E8 ; 7079789.872542308 ; 1.2229247309349399E9 ; 0.0
12 ; 1143411.0416062428 ; 1.279884658648422E8 ; 8026046.75083704 ; 1.3473630782642374E9 ; 0.0
13 ; 1334431.6198085137 ; 1.3184771487490106E8 ; 9169457.792443283 ; 1.4753515441290796E9 ; 0.0
14 ; 1360253.5179632427 ; 1.3601609131475836E8 ; 1.0503889412251797E7 ; 1.6071992590039806E9 ; 0.0
15 ; 1368442.002986776 ; 1.404935909730019E8 ; 1.1864142930215038E7 ; 1.743215350318739E9 ; 0.0
16 ; 1378099.4538712348 ; 1.4528020852099523E8 ; 1.3232584933201814E7 ; 1.883708941291741E9 ; 0.0
17 ; 1389217.9332141804 ; 1.503759375741264E8 ; 1.461068438707305E7 ; 2.028989149812736E9 ; 0.0
18 ; 1398018.1921745162 ; 1.5578077076322573E8 ; 1.599990232028723E7 ; 2.1793650873868623E9 ; 0.0
19 ; 1408537.4251479213 ; 1.6149469981435046E8 ; 1.7397920512461744E7 ; 2.335145858150088E9 ; 0.0
20 ; 1419027.2016850994 ; 1.6751771563501605E8 ; 1.8806457937609665E7 ; 2.4966405579644384E9 ; 0.0
21 ; 1427140.0845956833 ; 1.7384980840491912E8 ; 2.0225485139294766E7 ; 2.6641582735994544E9 ; 0.0
22 ; 1436437.8145249672 ; 1.8049096766922832E8 ; 2.165262522389045E7 ; 2.8380080820043736E9 ; 0.0
23 ; 1447129.9733168767 ; 1.8744118243261993E8 ; 2.3089063038415417E7 ; 3.018499049673602E9 ; 0.0
24 ; 1459161.5771721646 ; 1.9470044125238514E8 ; 2.4536193011732295E7 ; 3.205940232106222E9 ; 0.0
25 ; 1468733.8068126477 ; 2.0095677322731033E8 ; 2.599535458890446E7 ; 3.4006406733586073E9 ; 0.0
26 ; 1478195.7968529544 ; 2.0096371412159416E8 ; 2.7464088395717107E7 ; 3.6015974465859175E9 ; 0.0
27 ; 1488651.4290748497 ; 2.0097102097206172E8 ; 2.894228419257006E7 ; 3.8025611607075114E9 ; 0.0
28 ; 1498112.3033881204 ; 2.009786814117349E8 ; 3.043093562164491E7 ; 4.003532181679573E9 ; 0.0
29 ; 1509207.5505809512 ; 2.0098668303378507E8 ; 3.192904792503303E7 ; 4.204510863091308E9 ; 0.0
30 ; 1516194.3408133276 ; 2.0099501345578122E8 ; 3.343825547561398E7 ; 4.405497546125093E9 ; 0.0
31 ; 1527368.792899482 ; 2.0100366037729916E8 ; 3.4954449816427305E7 ; 4.606492559580874E9 ; 0.0
32 ; 1537784.9806344656 ; 2.0101261163087466E8 ; 3.648181860932679E7 ; 4.807496219958174E9 ; 0.0
33 ; 1543640.0520162159 ; 2.0102185522642308E8 ; 3.801960358996125E7 ; 5.008508831589048E9 ; 0.0
34 ; 1553042.290665439 ; 2.0103137938935816E8 ; 3.956324364197747E7 ; 5.209530686815472E9 ; 0.0
35 ; 1565072.097328087 ; 2.0104117259273046E8 ; 4.111628593264291E7 ; 5.41056206620483E9 ; 0.0
36 ; 1571630.9716125338 ; 2.010512235837685E8 ; 4.2681358029970996E7 ; 5.611603238797561E9 ; 0.0
37 ; 1580895.7041637816 ; 2.0106152140524787E8 ; 4.425298900158353E7 ; 5.81265446238133E9 ; 0.0
38 ; 1585935.0836744213 ; 2.0107205541213936E8 ; 4.5833884705747314E7 ; 6.013715983786577E9 ; 0.0
39 ; 1596464.4948935283 ; 2.0108281528399444E8 ; 4.741981978942174E7 ; 6.214788039198716E9 ; 0.0
40 ; 1603742.0956549656 ; 2.0109379103352538E8 ; 4.9016284284315266E7 ; 6.415870854482711E9 ; 0.0
41 ; 1613296.58065257 ; 2.011049730118233E8 ; 5.062002637997023E7 ; 6.616964645516236E9 ; 0.0
42 ; 1617983.5903272266 ; 2.0111635191063786E8 ; 5.22333229606228E7 ; 6.81806961852806E9 ; 0.0
43 ; 1624579.0758132294 ; 2.0112791876211694E8 ; 5.385130655095003E7 ; 7.019185970438698E9 ; 0.0
44 ; 1629839.8250260153 ; 2.011396649363766E8 ; 5.5475885626763254E7 ; 7.220313889200815E9 ; 0.0
45 ; 1633361.1283120797 ; 2.0115158213723978E8 ; 5.710572545178927E7 ; 7.421453554137192E9 ; 0.0
46 ; 1639884.7645197862 ; 2.011636623964524E8 ; 5.873908658010135E7 ; 7.622605136274431E9 ; 0.0
47 ; 1647349.317921468 ; 2.0117589806665307E8 ; 6.037897134462114E7 ; 7.823768798670883E9 ; 0.0
48 ; 1652275.4488787455 ; 2.0118828181334335E8 ; 6.2026320662542604E7 ; 8.024944696737536E9 ; 0.0
49 ; 1657546.6308540031 ; 2.01200806606076E8 ; 6.367859611142135E7 ; 8.2261329785508795E9 ; 0.0
50 ; 1659477.4194092231 ; 2.012134657090523E8 ; 6.533614274227535E7 ; 8.427333785156956E9 ; 0.0
51 ; 1662574.9004424151 ; 2.0122625267129374E8 ; 6.699562016168457E7 ; 8.628547250866009E9 ; 0.0
52 ; 1667972.6160355988 ; 2.012391613165311E8 ; 6.8658195062127E7 ; 8.829773503537302E9 ; 0.0
53 ; 1671712.592822931 ; 2.0125218573293266E8 ; 7.032616767816259E7 ; 9.031012664853832E9 ; 0.0
54 ; 1673497.7386928778 ; 2.0126532026277506E8 ; 7.199788027098551E7 ; 9.232264850586765E9 ; 0.0
55 ; 1681802.3340365926 ; 2.012785594921429E8 ; 7.36713780096784E7 ; 9.43353017084954E9 ; 0.0
56 ; 1682762.4585732203 ; 2.0129189824072894E8 ; 7.535318034371498E7 ; 9.634808730341684E9 ; 0.0
57 ; 1687246.3445822564 ; 2.0130533155179432E8 ; 7.70359428022882E7 ; 9.836100628582413E9 ; 0.0
58 ; 1691858.2781676243 ; 2.0131885468233478E8 ; 7.872318914687046E7 ; 1.0037405960134207E10 ; 0.0
59 ; 1694737.608508458 ; 2.0133246309349188E8 ; 8.041504742503808E7 ; 1.0238724814816542E10 ; 0.0
60 ; 1698644.2702296162 ; 2.0134615244123712E8 ; 8.210978503354654E7 ; 1.0440057277910034E10 ; 0.0
61 ; 1701242.848862982 ; 2.013599185673513E8 ; 8.380842930377616E7 ; 1.064140343035127E10 ; 0.0
62 ; 1707914.8277784837 ; 2.0137375749071446E8 ; 8.550967215263914E7 ; 1.0842763348918621E10 ; 0.0
63 ; 1712030.2147065855 ; 2.0138766539891624E8 ; 8.721758698041762E7 ; 1.1044137106409336E10 ; 0.0
64 ; 1712424.793845244 ; 2.0140163864019337E8 ; 8.892961719512421E7 ; 1.1245524771808252E10 ; 0.0
65 ; 1716953.7918120427 ; 2.014156737156953E8 ; 9.064204198896946E7 ; 1.1446926410448446E10 ; 0.0
66 ; 1721741.0543369185 ; 2.014297672720781E8 ; 9.235899578078151E7 ; 1.164834208416414E10 ; 0.0
67 ; 1722398.0076970586 ; 2.0144391609442258E8 ; 9.408073683511843E7 ; 1.1849771851436218E10 ; 0.0
68 ; 1725607.3780358862 ; 2.0145811709947157E8 ; 9.580313484281549E7 ; 1.2051215767530642E10 ; 0.0
69 ; 1731642.4856417666 ; 2.0147236732917914E8 ; 9.752874222085138E7 ; 1.2252673884630114E10 ; 0.0
70 ; 1736018.1483670746 ; 2.0148666394456404E8 ; 9.926038470649314E7 ; 1.2454146251959293E10 ; 0.0
71 ; 1736903.0607541858 ; 2.015010042198575E8 ; 1.0099640285486022E8 ; 1.2655632915903858E10 ; 0.0
72 ; 1738612.9572398216 ; 2.015153855369362E8 ; 1.027333059156144E8 ; 1.2857133920123716E10 ; 0.0
73 ; 1741095.2473475328 ; 2.0152980538002947E8 ; 1.0447191887285422E8 ; 1.3058649305660652E10 ; 0.0
74 ; 1742528.3721486083 ; 2.0154426133069107E8 ; 1.0621301412020175E8 ; 1.3260179111040682E10 ; 0.0
75 ; 1748444.7698199402 ; 2.0155875106302336E8 ; 1.0795554249235035E8 ; 1.3461723372371372E10 ; 0.0
76 ; 1748834.4296708615 ; 2.0157327233914447E8 ; 1.097039872621703E8 ; 1.3663282123434395E10 ; 0.0
77 ; 1755182.9085882574 ; 2.015878230048867E8 ; 1.1145282169184116E8 ; 1.3864855395773539E10 ; 0.0
78 ; 1752253.9236914332 ; 2.0160240098571613E8 ; 1.1320800460042942E8 ; 1.4066443218778425E10 ; 0.0
79 ; 1754344.5084077644 ; 2.016170042828629E8 ; 1.1496025852412085E8 ; 1.4268045619764141E10 ; 0.0
80 ; 1754405.735418956 ; 2.016316309696518E8 ; 1.1671460303252862E8 ; 1.4469662624047005E10 ; 0.0
81 ; 1757182.0689891633 ; 2.0164627918802342E8 ; 1.1846900876794758E8 ; 1.4671294255016657E10 ; 0.0
82 ; 1755731.612657237 ; 2.01660947145237E8 ; 1.2022619083693674E8 ; 1.487294053420468E10 ; 0.0
83 ; 1755970.3554183522 ; 2.0167563311074433E8 ; 1.2198192244959398E8 ; 1.5074601481349916E10 ; 0.0
84 ; 1757572.6227047027 ; 2.016903354132276E8 ; 1.2373789280501233E8 ; 1.527627711446066E10 ; 0.0
85 ; 1756746.565462779 ; 2.0170505243779126E8 ; 1.2549546542771703E8 ; 1.5477967449873888E10 ; 0.0
86 ; 1754859.8402608708 ; 2.017197826233008E8 ; 1.2725221199317981E8 ; 1.567967250231168E10 ; 0.0
87 ; 1755867.1314526198 ; 2.0173452445986018E8 ; 1.2900707183344069E8 ; 1.588139228493498E10 ; 0.0
88 ; 1755914.8248947603 ; 2.0174927648642072E8 ; 1.3076293896489331E8 ; 1.608312680939484E10 ; 0.0
89 ; 1753935.5694602919 ; 2.0176403728851435E8 ; 1.3251885378978807E8 ; 1.6284876085881262E10 ; 0.0
90 ; 1757142.5359971004 ; 2.0177880549610457E8 ; 1.3427278935924837E8 ; 1.6486640123169777E10 ; 0.0
91 ; 1756555.953489608 ; 2.0179357978154886E8 ; 1.3602993189524546E8 ; 1.6688418928665882E10 ; 0.0
92 ; 1753535.5001772053 ; 2.0180835885766637E8 ; 1.3778648784873506E8 ; 1.6890212508447432E10 ; 0.0
93 ; 1754916.5127386793 ; 2.0182314147590524E8 ; 1.3954002334891227E8 ; 1.7092020867305098E10 ; 0.0
94 ; 1754863.5512604795 ; 2.0183792642460412E8 ; 1.4129493986165094E8 ; 1.7293844008781002E10 ; 0.0
95 ; 1755313.1923714338 ; 2.018527125273429E8 ; 1.4304980341291142E8 ; 1.7495681935205605E10 ; 0.0
96 ; 1753220.5187524706 ; 2.0186749864137757E8 ; 1.4480511660528284E8 ; 1.769753464773295E10 ; 0.0
97 ; 1753181.3349567296 ; 2.018822836561549E8 ; 1.465583371240353E8 ; 1.7899402146374325E10 ; 0.0
98 ; 1753175.3711679657 ; 2.018970664919023E8 ; 1.4831151845899203E8 ; 1.810128443003048E10 ; 0.0
99 ; 1753375.6959220264 ; 2.0191184609828898E8 ; 1.5006469383016E8 ; 1.830318149652238E10 ; 0.0
100 ; 1754842.1167326777 ; 2.0192662145315465E8 ; 1.51818069526082E8 ; 1.850509334262067E10 ; 0.0
101 ; 1749560.6769276096 ; 2.019413915613017E8 ; 1.535729116428147E8 ; 1.8707019964073826E10 ; 0.0
102 ; 1751016.1034792878 ; 2.019561554533479E8 ; 1.553224723197423E8 ; 1.8908961355635128E10 ; 0.0
103 ; 1750349.0148699796 ; 2.0197091218463582E8 ; 1.570734884232216E8 ; 1.9110917511088474E10 ; 0.0
104 ; 1747115.5914050217 ; 2.0198566083419666E8 ; 1.5882383743809158E8 ; 1.931288842327311E10 ; 0.0
105 ; 1747499.5130016154 ; 2.0200040050376463E8 ; 1.605709530294966E8 ; 1.9514874084107307E10 ; 0.0
106 ; 1746826.2838376965 ; 2.0201513031684002E8 ; 1.6231845254249823E8 ; 1.9716874484611073E10 ; 0.0
107 ; 1744142.1495261504 ; 2.0202984941779786E8 ; 1.6406527882633594E8 ; 1.9918889614927914E10 ; 0.0
108 ; 1745705.1052162035 ; 2.020445569710399E8 ; 1.658094209758621E8 ; 2.012091946434571E10 ; 0.0
109 ; 1748040.7038636396 ; 2.020592521601875E8 ; 1.675551260810783E8 ; 2.032296402131675E10 ; 0.0
110 ; 1742709.0565966715 ; 2.0207393418731362E8 ; 1.6930316678494194E8 ; 2.0525023273476936E10 ; 0.0
111 ; 1742641.8773195916 ; 2.020886022722112E8 ; 1.710458758415386E8 ; 2.072709720766425E10 ; 0.0
112 ; 1741406.78096042 ; 2.0210325565169674E8 ; 1.727885177188582E8 ; 2.0929185809936462E10 ; 0.0
113 ; 1741581.996183484 ; 2.021178935789467E8 ; 1.7452992449981862E8 ; 2.1131289065588158E10 ; 0.0
114 ; 1740677.9140827898 ; 2.0213251532286534E8 ; 1.762715064960021E8 ; 2.1333406959167103E10 ; 0.0
115 ; 1736777.7864563405 ; 2.02147120167482E8 ; 1.780121844100849E8 ; 2.1535539474489967E10 ; 0.0
116 ; 1734900.0983272009 ; 2.0216170741137692E8 ; 1.7974896219654125E8 ; 2.1737686594657448E10 ; 0.0
117 ; 1732369.862096635 ; 2.0217627636713332E8 ; 1.8148386229486844E8 ; 2.1939848302068825E10 ; 0.0
118 ; 1731383.7416962283 ; 2.0219082636081514E8 ; 1.8321623215696508E8 ; 2.214202457843596E10 ; 0.0
119 ; 1731414.9914583585 ; 2.022053567314686E8 ; 1.8494761589866132E8 ; 2.2344215404796776E10 ; 0.0
120 ; 1733083.3869919349 ; 2.0221986683064663E8 ; 1.8667903089011967E8 ; 2.2546420761528244E10 ; 0.0
121 ; 1727463.2039557952 ; 2.0223435602195513E8 ; 1.8841211427711162E8 ; 2.274864062835889E10 ; 0.0
122 ; 1726175.957558693 ; 2.022488236806194E8 ; 1.9013957748106742E8 ; 2.2950874984380844E10 ; 0.0
123 ; 1727497.6965926122 ; 2.022632691930705E8 ; 1.918657534386261E8 ; 2.3153123808061462E10 ; 0.0
124 ; 1721793.380874531 ; 2.0227769195655003E8 ; 1.935932511352187E8 ; 2.335538707725453E10 ; 0.0
125 ; 1721121.7681545757 ; 2.022920913787324E8 ; 1.9531504451609325E8 ; 2.3557664769211082E10 ; 0.0
126 ; 1720725.1048274264 ; 2.0230646687736416E8 ; 1.9703616628424782E8 ; 2.3759956860589813E10 ; 0.0
127 ; 1719479.9405374117 ; 2.0232081787991887E8 ; 1.9875689138907525E8 ; 2.396226332746718E10 ; 0.0
128 ; 1715740.2429830057 ; 2.0233514382326764E8 ; 2.0047637132961267E8 ; 2.4164584145347095E10 ; 0.0
129 ; 1715779.738724407 ; 2.023494441533636E8 ; 2.021921115725957E8 ; 2.4366919289170364E10 ; 0.0
130 ; 1708480.3319567323 ; 2.0236371832494032E8 ; 2.039078913113201E8 ; 2.4569268733323727E10 ; 0.0
131 ; 1706439.1634474092 ; 2.0237796580122352E8 ; 2.0561637164327684E8 ; 2.4771632451648666E10 ; 0.0
132 ; 1701675.296213507 ; 2.0239218605365458E8 ; 2.0732281080672425E8 ; 2.497401041744989E10 ; 0.0
133 ; 1697462.7736267732 ; 2.0240637856162655E8 ; 2.0902448610293776E8 ; 2.5176402603503544E10 ; 0.0
134 ; 1692260.4671908112 ; 2.0242054281223115E8 ; 2.1072194887656453E8 ; 2.537880898206517E10 ; 0.0
135 ; 1685925.2368717387 ; 2.024346783000163E8 ; 2.1241420934375533E8 ; 2.5581229524877403E10 ; 0.0
136 ; 1680048.1280140958 ; 2.024487845267544E8 ; 2.1410013458062708E8 ; 2.5783664203177418E10 ; 0.0
137 ; 1675635.6671719712 ; 2.0246286100121984E8 ; 2.1578018270864117E8 ; 2.5986112987704174E10 ; 0.0
138 ; 1668518.234546929 ; 2.024769072389762E8 ; 2.1745581837581316E8 ; 2.6188575848705395E10 ; 0.0
139 ; 1666425.3389578017 ; 2.0249092276217207E8 ; 2.191243366103601E8 ; 2.639105275594437E10 ; 0.0
140 ; 1660348.5344890144 ; 2.025049070993455E8 ; 2.207907619493179E8 ; 2.6593543678706543E10 ; 0.0
141 ; 1660882.2462801153 ; 2.0251885978523633E8 ; 2.224511104838069E8 ; 2.679604858580589E10 ; 0.0
142 ; 1653021.8522457597 ; 2.0253278036060652E8 ; 2.24111992730087E8 ; 2.6998567445591125E10 ; 0.0
143 ; 1645962.5121226714 ; 2.0254666837206754E8 ; 2.2576501458233276E8 ; 2.7201100225951733E10 ; 0.0
144 ; 1639818.1172430671 ; 2.025605233719149E8 ; 2.2741097709445542E8 ; 2.74036468943238E10 ; 0.0
145 ; 1637181.1077162249 ; 2.0257434491796938E8 ; 2.290507952116985E8 ; 2.7606207417695713E10 ; 0.0
146 ; 1637623.9099520463 ; 2.025881325734248E8 ; 2.3068797631941473E8 ; 2.780878176261368E10 ; 0.0
147 ; 1634344.0799927872 ; 2.0260188590670156E8 ; 2.3232560022936678E8 ; 2.8011369895187107E10 ; 0.0
148 ; 1633152.0775914018 ; 2.0261560449130645E8 ; 2.3395994430935958E8 ; 2.8213971781093807E10 ; 0.0
149 ; 1627352.2610632533 ; 2.0262928790569767E8 ; 2.3559309638695097E8 ; 2.8416587385585114E10 ; 0.0
150 ; 1628959.7354305622 ; 2.0264293573315558E8 ; 2.3722044864801422E8 ; 2.861921667349081E10 ; 0.0
151 ; 1624031.1600784797 ; 2.0265654756165808E8 ; 2.388494083834448E8 ; 2.8821859609223965E10 ; 0.0
152 ; 1623945.303321972 ; 2.0267012298376146E8 ; 2.4047343954352325E8 ; 2.902451615678562E10 ; 0.0
153 ; 1622000.8837447916 ; 2.0268366159648535E8 ; 2.420973848468452E8 ; 2.9227186279769382E10 ; 0.0
154 ; 1618696.2642626956 ; 2.0269716300120255E8 ; 2.4371938573059002E8 ; 2.9429869941365868E10 ; 0.0
155 ; 1617939.417685778 ; 2.0271062680353308E8 ; 2.4533808199485272E8 ; 2.963256710436707E10 ; 0.0
156 ; 1614058.7887005936 ; 2.027240526132421E8 ; 2.469560214125385E8 ; 2.98352777311706E10 ; 0.0
157 ; 1612407.229736394 ; 2.0273744004414192E8 ; 2.4857008020123908E8 ; 3.0038001783783844E10 ; 0.0
158 ; 1609126.599823381 ; 2.0275078871399802E8 ; 2.5018248743097547E8 ; 3.0240739223827988E10 ; 0.0
159 ; 1606240.8696203053 ; 2.0276409824443814E8 ; 2.5179161403079885E8 ; 3.0443490012541985E10 ; 0.0
160 ; 1603391.4270382056 ; 2.0277736826086527E8 ; 2.5339785490041915E8 ; 3.0646254110786423E10 ; 0.0
161 ; 1603400.698907172 ; 2.0279059839237377E8 ; 2.5500124632745734E8 ; 3.0849031479047287E10 ; 0.0
162 ; 1601190.8402661143 ; 2.028037882716686E8 ; 2.566046470263645E8 ; 3.105182207743966E10 ; 0.0
163 ; 1598485.1433144298 ; 2.0281693753498784E8 ; 2.582058378666306E8 ; 3.1254625865711327E10 ; 0.0
164 ; 1595070.4676844692 ; 2.0283004582202774E8 ; 2.5980432300994503E8 ; 3.1457442803246315E10 ; 0.0
165 ; 1593577.663884631 ; 2.0284311277587107E8 ; 2.613993934776295E8 ; 3.1660272849068344E10 ; 0.0
166 ; 1590301.7866961837 ; 2.028561380429176E8 ; 2.6299297114151415E8 ; 3.1863115961844215E10 ; 0.0
167 ; 1589438.7267105312 ; 2.0286912127281764E8 ; 2.6458327292821035E8 ; 3.2065972099887135E10 ; 0.0
168 ; 1585929.2309870026 ; 2.0288206211840773E8 ; 2.6617271165492088E8 ; 3.2268841221159954E10 ; 0.0
169 ; 1582926.5332433973 ; 2.028949602356489E8 ; 2.677586408859079E8 ; 3.2471723283278362E10 ; 0.0
170 ; 1582714.6961736945 ; 2.02907815283567E8 ; 2.693415674191513E8 ; 3.267461824351401E10 ; 0.0
171 ; 1577683.1239688506 ; 2.0292062692419556E8 ; 2.70924282115325E8 ; 3.2877526058797577E10 ; 0.0
172 ; 1574050.409984097 ; 2.029333948225203E8 ; 2.725019652392938E8 ; 3.308044668572177E10 ; 0.0
173 ; 1572180.49630839 ; 2.0294611864642605E8 ; 2.740760156492779E8 ; 3.3283380080544292E10 ; 0.0
174 ; 1572690.646249411 ; 2.0295879806664544E8 ; 2.756481961455863E8 ; 3.348632619919072E10 ; 0.0
175 ; 1571649.4873014514 ; 2.0297143275670943E8 ; 2.772208867918357E8 ; 3.3689284997257366E10 ; 0.0
176 ; 1569954.9471435628 ; 2.0298402239289963E8 ; 2.787925362791372E8 ; 3.3892256430014076E10 ; 0.0
177 ; 1567993.1981213575 ; 2.0299656665420258E8 ; 2.8036249122628075E8 ; 3.4095240452406975E10 ; 0.0
178 ; 1564423.20296433 ; 2.0300906522226527E8 ; 2.819304844244021E8 ; 3.4298237019061176E10 ; 0.0
179 ; 1563124.892092071 ; 2.0302151778135255E8 ; 2.834949076273664E8 ; 3.450124608428344E10 ; 0.0
180 ; 1563560.5925369295 ; 2.030339240183061E8 ; 2.850580325194585E8 ; 3.470426760206479E10 ; 0.0
181 ; 1560105.1835329514 ; 2.0304628362250462E8 ; 2.866215931119954E8 ; 3.490730152608309E10 ; 0.0
182 ; 1560668.1734341695 ; 2.030585962858257E8 ; 2.8818169829552835E8 ; 3.51103478097056E10 ; 0.0
183 ; 1553758.954718664 ; 2.0307086170260888E8 ; 2.8974236646896255E8 ; 3.5313406405991425E10 ; 0.0
184 ; 1557560.7630737778 ; 2.0308307956962013E8 ; 2.912961254236812E8 ; 3.551647726769403E10 ; 0.0
185 ; 1554710.2469105467 ; 2.0309524958601755E8 ; 2.92853686186755E8 ; 3.571956034726365E10 ; 0.0
186 ; 1550722.7057614985 ; 2.031073714533182E8 ; 2.944083964336656E8 ; 3.592265559684966E10 ; 0.0
187 ; 1549673.3403405787 ; 2.0311944487536642E8 ; 2.9595911913942707E8 ; 3.612576296830298E10 ; 0.0
188 ; 1548843.0341532119 ; 2.0313146955830273E8 ; 2.975087924797676E8 ; 3.6328882413178345E10 ; 0.0
189 ; 1547722.6067785916 ; 2.0314344521053445E8 ; 2.9905763551392084E8 ; 3.653201388273665E10 ; 0.0
190 ; 1543590.3293634327 ; 2.0315537154270688E8 ; 3.006053581206994E8 ; 3.673515732794718E10 ; 0.0
191 ; 1543369.1929077436 ; 2.031672482676757E8 ; 3.021489484500628E8 ; 3.693831269948989E10 ; 0.0
192 ; 1543542.9893765722 ; 2.031790751004803E8 ; 3.0369231764297056E8 ; 3.714147994775757E10 ; 0.0
193 ; 1540071.0552581127 ; 2.0319085175831807E8 ; 3.052358606323471E8 ; 3.734465902285805E10 ; 0.0
194 ; 1540904.2414315338 ; 2.032025779605197E8 ; 3.067759316876052E8 ; 3.754784987461636E10 ; 0.0
195 ; 1534863.8314553516 ; 2.0321425342852494E8 ; 3.0831683592903674E8 ; 3.775105245257688E10 ; 0.0
196 ; 1533661.1196243898 ; 2.0322587788585985E8 ; 3.098516997604921E8 ; 3.795426670600541E10 ; 0.0
197 ; 1532576.973368145 ; 2.0323745105811417E8 ; 3.1138536088011646E8 ; 3.8157492583891266E10 ; 0.0
198 ; 1529080.44363264 ; 2.0324897267292005E8 ; 3.1291793785348463E8 ; 3.836073003494938E10 ; 0.0
199 ; 1530790.9851212157 ; 2.032604424599312E8 ; 3.144470182971173E8 ; 3.85639790076223E10 ; 0.0
