CSV File for the City 3 on Day 201
1 - Minute m 
2 - Power Consumed at minute m 
3 - Power Produced at minute m 
4 - Energy Consumed since the beginning of the day 
5 - Energy Produced since the beginning of the day 
6 - Energy Lost since the beginning of the day on lines starting from the city
 
0 ; 205699.8850594076 ; 1.0539522745718667E8 ; 0.0 ; 0.0 ; 0.0
1 ; 207243.72924686773 ; 1.0554793440547109E8 ; 205699.8850594076 ; 1.0539522745718667E8 ; 0.0
2 ; 211165.29026407853 ; 1.0600944332786444E8 ; 412943.6143062753 ; 2.1094316186265776E8 ; 0.0
3 ; 215837.21092610038 ; 1.0677975737684721E8 ; 624108.9045703539 ; 3.169526051905222E8 ; 0.0
4 ; 218132.37198446938 ; 1.0785887941781777E8 ; 839946.1154964543 ; 4.237323625673694E8 ; 0.0
5 ; 222503.65285621572 ; 1.0924681200022203E8 ; 1058078.4874809238 ; 5.315912419851872E8 ; 0.0
6 ; 229035.8673896796 ; 1.1094355733090737E8 ; 1280582.1403371394 ; 6.408380539854093E8 ; 0.0
7 ; 235527.49887683103 ; 1.1294911725032252E8 ; 1509618.007726819 ; 7.517816113163166E8 ; 0.0
8 ; 247713.57921877527 ; 1.1526349321214294E8 ; 1745145.50660365 ; 8.647307285666392E8 ; 0.0
9 ; 264935.0195969648 ; 1.178866862668379E8 ; 1992859.0858224253 ; 9.799942217787821E8 ; 0.0
10 ; 290751.62960198923 ; 1.2081869704960722E8 ; 2257794.10541939 ; 1.09788090804562E9 ; 0.0
11 ; 334284.993626712 ; 1.2405952577301076E8 ; 2548545.7350213793 ; 1.2186996050952272E9 ; 0.0
12 ; 400541.33081873914 ; 1.2760917222448865E8 ; 2882830.728648091 ; 1.342759130868238E9 ; 0.0
13 ; 463721.31916240964 ; 1.3146763576884103E8 ; 3283372.0594668305 ; 1.4703683030927267E9 ; 0.0
14 ; 471294.2619108635 ; 1.3563491535559875E8 ; 3747093.37862924 ; 1.6018359388615677E9 ; 0.0
15 ; 474243.68005382165 ; 1.401110095310862E8 ; 4218387.640540103 ; 1.7374708542171664E9 ; 0.0
16 ; 477873.71578387346 ; 1.4489591645485482E8 ; 4692631.320593925 ; 1.8775818637482526E9 ; 0.0
17 ; 481997.6606716831 ; 1.499896339200571E8 ; 5170505.036377799 ; 2.0224777802031074E9 ; 0.0
18 ; 484502.3722956491 ; 1.5539215937724715E8 ; 5652502.697049482 ; 2.1724674141231647E9 ; 0.0
19 ; 488401.40225424926 ; 1.6110348996102664E8 ; 6137005.069345131 ; 2.327859573500412E9 ; 0.0
20 ; 491787.2359502613 ; 1.6712362251891503E8 ; 6625406.47159938 ; 2.4889630634614387E9 ; 0.0
21 ; 496541.1120186157 ; 1.7345255364181045E8 ; 7117193.707549641 ; 2.656086685980354E9 ; 0.0
22 ; 498994.2358763528 ; 1.8009027969541162E8 ; 7613734.819568257 ; 2.8295392396221642E9 ; 0.0
23 ; 502224.20028438274 ; 1.870367968520009E8 ; 8112729.055444609 ; 3.009629519317576E9 ; 0.0
24 ; 506276.57411276025 ; 1.9429210112203407E8 ; 8614953.255728992 ; 3.1966663161695766E9 ; 0.0
25 ; 508862.2030603831 ; 2.005442292832241E8 ; 9121229.829841752 ; 3.3909584172916107E9 ; 0.0
26 ; 512663.62237367255 ; 2.0054672494721773E8 ; 9630092.032902135 ; 3.591502646574835E9 ; 0.0
27 ; 516225.2934912642 ; 2.0054935311280516E8 ; 1.0142755655275807E7 ; 3.792049371522053E9 ; 0.0
28 ; 518869.64239869395 ; 2.0055210943924162E8 ; 1.0658980948767072E7 ; 3.992598724634858E9 ; 0.0
29 ; 523484.3001005597 ; 2.005549895640755E8 ; 1.1177850591165766E7 ; 4.1931508340740995E9 ; 0.0
30 ; 523428.7167090644 ; 2.005579891256242E8 ; 1.1701334891266325E7 ; 4.393705823638175E9 ; 0.0
31 ; 528526.4307486751 ; 2.0056110378326383E8 ; 1.222476360797539E7 ; 4.5942638127638E9 ; 0.0
32 ; 531766.7328324012 ; 2.0056432923550966E8 ; 1.2753290038724065E7 ; 4.794824916547064E9 ; 0.0
33 ; 534013.8417893 ; 2.0056766123591056E8 ; 1.3285056771556467E7 ; 4.995389245782574E9 ; 0.0
34 ; 537301.4039138727 ; 2.0057109560681996E8 ; 1.3819070613345766E7 ; 5.195956907018484E9 ; 0.0
35 ; 541294.5009080368 ; 2.0057462825113598E8 ; 1.4356372017259639E7 ; 5.396528002625304E9 ; 0.0
36 ; 543756.5893202305 ; 2.0057825516212797E8 ; 1.4897666518167676E7 ; 5.59710263087644E9 ; 0.0
37 ; 548230.0221693034 ; 2.0058197243148115E8 ; 1.5441423107487908E7 ; 5.7976808860385685E9 ; 0.0
38 ; 551755.6238344174 ; 2.005857762557035E8 ; 1.598965312965721E7 ; 5.99826285847005E9 ; 0.0
39 ; 552441.2016147943 ; 2.0058966294104227E8 ; 1.6541408753491629E7 ; 6.198848634725754E9 ; 0.0
40 ; 554659.1133119223 ; 2.0059362890706027E8 ; 1.7093849955106422E7 ; 6.399438297666796E9 ; 0.0
41 ; 557508.5864892028 ; 2.0059767068901795E8 ; 1.7648509068418346E7 ; 6.600031926573856E9 ; 0.0
42 ; 560305.4293877456 ; 2.0060178493920317E8 ; 1.820601765490755E7 ; 6.800629597262875E9 ; 0.0
43 ; 562854.6619934659 ; 2.006059684273428E8 ; 1.8766323084295295E7 ; 7.001231382202078E9 ; 0.0
44 ; 563888.7558653078 ; 2.006102180402222E8 ; 1.932917774628876E7 ; 7.20183735062942E9 ; 0.0
45 ; 566716.0568063798 ; 2.0061453078062865E8 ; 1.989306650215407E7 ; 7.402447568669642E9 ; 0.0
46 ; 569490.4117512023 ; 2.0061890376572543E8 ; 2.045978255896045E7 ; 7.603062099450271E9 ; 0.0
47 ; 569783.8287738569 ; 2.0062333422495326E8 ; 2.1029272970711652E7 ; 7.803681003215996E9 ; 0.0
48 ; 570863.8176738883 ; 2.0062781949754506E8 ; 2.159905679948551E7 ; 8.004304337440949E9 ; 0.0
49 ; 572705.5091599821 ; 2.0063235702973223E8 ; 2.2169920617159396E7 ; 8.204932156938495E9 ; 0.0
50 ; 575977.9669334308 ; 2.006369443717098E8 ; 2.274262612631938E7 ; 8.405564513968227E9 ; 0.0
51 ; 577509.9272643822 ; 2.006415791744205E8 ; 2.3318604093252808E7 ; 8.606201458339937E9 ; 0.0
52 ; 577337.8753962866 ; 2.006462591862098E8 ; 2.389611402051719E7 ; 8.806843037514359E9 ; 0.0
53 ; 579098.7333505794 ; 2.006509822493962E8 ; 2.4473451895913474E7 ; 9.00748929670057E9 ; 0.0
54 ; 580390.554172743 ; 2.006557462967959E8 ; 2.5052550629264053E7 ; 9.208140278949965E9 ; 0.0
55 ; 582017.3542045973 ; 2.0066054934823322E8 ; 2.5632941183436796E7 ; 9.408796025246761E9 ; 0.0
56 ; 583478.7055397208 ; 2.0066538950706512E8 ; 2.6214958537641395E7 ; 9.609456574594994E9 ; 0.0
57 ; 584757.1664516558 ; 2.0067026495674163E8 ; 2.6798437243181117E7 ; 9.810121964102058E9 ; 0.0
58 ; 587203.6553838855 ; 2.0067517395742136E8 ; 2.7383194409632772E7 ; 1.00107922290588E10 ; 0.0
59 ; 587184.2495502153 ; 2.0068011484265652E8 ; 2.7970398065016657E7 ; 1.0211467403016222E10 ; 0.0
60 ; 587927.5881520872 ; 2.0068508601616E8 ; 2.8557582314566873E7 ; 1.041214751785888E10 ; 0.0
61 ; 590068.4008279785 ; 2.0069008594866332E8 ; 2.914550990271896E7 ; 1.0612832603875038E10 ; 0.0
62 ; 590698.4792067439 ; 2.0069511317487246E8 ; 2.973557830354694E7 ; 1.0813522689823702E10 ; 0.0
63 ; 592133.3623956433 ; 2.0070016629052663E8 ; 3.0326276782753684E7 ; 1.1014217802998575E10 ; 0.0
64 ; 592810.2627356928 ; 2.007052439495635E8 ; 3.0918410145149328E7 ; 1.1214917969289103E10 ; 0.0
65 ; 594994.5620973425 ; 2.007103448613922E8 ; 3.1511220407885022E7 ; 1.1415623213238667E10 ; 0.0
66 ; 596442.9982365128 ; 2.007154677882753E8 ; 3.2106214969982363E7 ; 1.161633355810006E10 ; 0.0
67 ; 595645.7977544232 ; 2.007206115428197E8 ; 3.2702657968218878E7 ; 1.1817049025888334E10 ; 0.0
68 ; 598246.0048030392 ; 2.0072577498557457E8 ; 3.32983037659733E7 ; 1.2017769637431154E10 ; 0.0
69 ; 599531.9379109223 ; 2.007309570227355E8 ; 3.389654977077634E7 ; 1.2218495412416729E10 ; 0.0
70 ; 599940.6495108488 ; 2.0073615660395235E8 ; 3.449608170868726E7 ; 1.2419226369439465E10 ; 0.0
71 ; 600588.262780718 ; 2.0074137272023785E8 ; 3.509602235819811E7 ; 1.2619962526043417E10 ; 0.0
72 ; 602185.340913536 ; 2.0074660440197453E8 ; 3.5696610620978825E7 ; 1.2820703898763655E10 ; 0.0
73 ; 603308.7786487107 ; 2.0075185071701658E8 ; 3.629879596189236E7 ; 1.3021450503165628E10 ; 0.0
74 ; 602947.5099132406 ; 2.007571107688832E8 ; 3.690210474054107E7 ; 1.3222202353882645E10 ; 0.0
75 ; 606089.2769415624 ; 2.007623836950403E8 ; 3.7505052250454314E7 ; 1.3422959464651527E10 ; 0.0
76 ; 605352.2819495593 ; 2.0076766866526666E8 ; 3.8111141527395874E7 ; 1.3623721848346567E10 ; 0.0
77 ; 607551.5157248158 ; 2.0077296488010162E8 ; 3.871649380934543E7 ; 1.3824489517011833E10 ; 0.0
78 ; 607640.065261398 ; 2.0077827156937E8 ; 3.932404532507025E7 ; 1.4025262481891935E10 ; 0.0
79 ; 607355.4400611907 ; 2.0078358799078166E8 ; 3.993168539033165E7 ; 1.4226040753461306E10 ; 0.0
80 ; 607233.4054620676 ; 2.007889134286017E8 ; 4.053904083039284E7 ; 1.4426824341452087E10 ; 0.0
81 ; 607939.4485667867 ; 2.007942471923881E8 ; 4.114627423585491E7 ; 1.462761325488069E10 ; 0.0
82 ; 608114.7897992503 ; 2.0079958861579376E8 ; 4.1754213684421696E7 ; 1.4828407502073078E10 ; 0.0
83 ; 608706.3107589331 ; 2.0080493705542976E8 ; 4.236232847422095E7 ; 1.5029207090688871E10 ; 0.0
84 ; 606762.313721271 ; 2.0081029188978645E8 ; 4.297103478497988E7 ; 1.52300120277443E10 ; 0.0
85 ; 607803.2525812302 ; 2.0081565251821005E8 ; 4.357779709870115E7 ; 1.5430822319634087E10 ; 0.0
86 ; 607941.5412872912 ; 2.008210183599316E8 ; 4.418560035128238E7 ; 1.5631637972152296E10 ; 0.0
87 ; 607559.0951697996 ; 2.008263888531453E8 ; 4.479354189256967E7 ; 1.5832458990512228E10 ; 0.0
88 ; 608262.8715928217 ; 2.008317634541347E8 ; 4.5401100987739466E7 ; 1.6033285379365374E10 ; 0.0
89 ; 607048.1506210228 ; 2.008371416364428E8 ; 4.6009363859332286E7 ; 1.6234117142819508E10 ; 0.0
90 ; 607264.2504232007 ; 2.008425228900852E8 ; 4.6616412009953305E7 ; 1.643495428445595E10 ; 0.0
91 ; 608876.1787269934 ; 2.0084790672080287E8 ; 4.7223676260376506E7 ; 1.6635796807346035E10 ; 0.0
92 ; 607611.2000537459 ; 2.0085329264935344E8 ; 4.78325524391035E7 ; 1.6836644714066837E10 ; 0.0
93 ; 607468.2692021412 ; 2.00858680210838E8 ; 4.844016363915724E7 ; 1.703749800671619E10 ; 0.0
94 ; 606337.5460448713 ; 2.008640689540623E8 ; 4.9047631908359386E7 ; 1.723835668692703E10 ; 0.0
95 ; 607186.5567063682 ; 2.0086945844093028E8 ; 4.965396945440426E7 ; 1.7439220755881092E10 ; 0.0
96 ; 607711.6548028095 ; 2.008748482458679E8 ; 5.0261156011110626E7 ; 1.764009021432202E10 ; 0.0
97 ; 604649.5656213231 ; 2.0088023795527616E8 ; 5.086886766591343E7 ; 1.784096506256789E10 ; 0.0
98 ; 605878.8070807017 ; 2.0088562716701144E8 ; 5.147351723153476E7 ; 1.8041845300523167E10 ; 0.0
99 ; 604428.4268130179 ; 2.0089101548989153E8 ; 5.207939603861546E7 ; 1.8242730927690178E10 ; 0.0
100 ; 606429.963383499 ; 2.0089640254322672E8 ; 5.268382446542848E7 ; 1.844362194318007E10 ; 0.0
101 ; 605568.7636919621 ; 2.0090178795637354E8 ; 5.3290254428811975E7 ; 1.8644518345723297E10 ; 0.0
102 ; 605633.6693525944 ; 2.0090717136831096E8 ; 5.389582319250394E7 ; 1.8845420133679672E10 ; 0.0
103 ; 606716.6038852416 ; 2.0091255242723718E8 ; 5.450145686185653E7 ; 1.9046327305047985E10 ; 0.0
104 ; 604695.3255824015 ; 2.0091793079018623E8 ; 5.510817346574177E7 ; 1.9247239857475224E10 ; 0.0
105 ; 604433.9779153327 ; 2.009233061226632E8 ; 5.571286879132417E7 ; 1.944815778826541E10 ; 0.0
106 ; 604295.2394626354 ; 2.0092867809829724E8 ; 5.63173027692395E7 ; 1.9649081094388073E10 ; 0.0
107 ; 603478.0019296544 ; 2.0093404639851126E8 ; 5.692159800870214E7 ; 1.985000977248637E10 ; 0.0
108 ; 602608.5997067956 ; 2.0093941071220762E8 ; 5.752507601063179E7 ; 2.005094381888488E10 ; 0.0
109 ; 601485.1320186417 ; 2.0094477073546857E8 ; 5.812768461033859E7 ; 2.0251883229597088E10 ; 0.0
110 ; 601662.180956532 ; 2.0095012617127147E8 ; 5.872916974235723E7 ; 2.0452828000332558E10 ; 0.0
111 ; 601992.1986074387 ; 2.00955476729217E8 ; 5.933083192331377E7 ; 2.065377812650383E10 ; 0.0
112 ; 602247.7032853855 ; 2.009608221252705E8 ; 5.9932824121921204E7 ; 2.0854733603233047E10 ; 0.0
113 ; 601803.894601577 ; 2.0096616208151534E8 ; 6.053507182520659E7 ; 2.105569442535832E10 ; 0.0
114 ; 601394.436801242 ; 2.0097149632591802E8 ; 6.113687571980817E7 ; 2.1256660587439835E10 ; 0.0
115 ; 599293.056890698 ; 2.009768245921038E8 ; 6.173827015660941E7 ; 2.145763208376575E10 ; 0.0
116 ; 600112.0500637715 ; 2.0098214661914325E8 ; 6.2337563213500105E7 ; 2.1658608908357853E10 ; 0.0
117 ; 599353.6552176899 ; 2.0098746215134805E8 ; 6.293767526356388E7 ; 2.1859591054976997E10 ; 0.0
118 ; 597785.6397416162 ; 2.0099277093807676E8 ; 6.353702891878157E7 ; 2.2060578517128345E10 ; 0.0
119 ; 597999.5259581077 ; 2.009980727335489E8 ; 6.4134814558523186E7 ; 2.226157128806642E10 ; 0.0
120 ; 597325.2263769127 ; 2.0100336729666793E8 ; 6.473281408448129E7 ; 2.246256936079997E10 ; 0.0
121 ; 596692.0572731306 ; 2.0100865439085177E8 ; 6.5330139310858205E7 ; 2.2663572728096638E10 ; 0.0
122 ; 595721.2366890545 ; 2.0101393378387147E8 ; 6.592683136813133E7 ; 2.2864581382487488E10 ; 0.0
123 ; 595548.0753976286 ; 2.0101920524769664E8 ; 6.6522552604820386E7 ; 2.306559531627136E10 ; 0.0
124 ; 594922.1779891619 ; 2.0102446855834794E8 ; 6.711810068021801E7 ; 2.3266614521519054E10 ; 0.0
125 ; 595489.7785955211 ; 2.0102972349575624E8 ; 6.771302285820717E7 ; 2.3467638990077404E10 ; 0.0
126 ; 592672.0151808329 ; 2.0103496984362766E8 ; 6.830851263680269E7 ; 2.3668668713573162E10 ; 0.0
127 ; 592920.7407557637 ; 2.010402073893149E8 ; 6.890118465198351E7 ; 2.386970368341679E10 ; 0.0
128 ; 589934.9340140881 ; 2.0104543592369387E8 ; 6.949410539273928E7 ; 2.4070743890806107E10 ; 0.0
129 ; 591665.6190558615 ; 2.0105065524104592E8 ; 7.008404032675336E7 ; 2.42717893267298E10 ; 0.0
130 ; 590210.3552273753 ; 2.0105586513894495E8 ; 7.067570594580923E7 ; 2.4472839981970848E10 ; 0.0
131 ; 589309.3222349398 ; 2.010610654181496E8 ; 7.126591630103661E7 ; 2.4673895847109795E10 ; 0.0
132 ; 586741.7678329832 ; 2.010662558824998E8 ; 7.185522562327155E7 ; 2.4874956912527943E10 ; 0.0
133 ; 585591.5048018994 ; 2.0107143633881807E8 ; 7.244196739110453E7 ; 2.5076023168410442E10 ; 0.0
134 ; 583490.8534277771 ; 2.0107660659681454E8 ; 7.302755889590643E7 ; 2.527709460474926E10 ; 0.0
135 ; 582221.4621267144 ; 2.010817664689964E8 ; 7.361104974933422E7 ; 2.5478171211346073E10 ; 0.0
136 ; 580366.1095592815 ; 2.0108691577058095E8 ; 7.419327121146093E7 ; 2.567925297781507E10 ; 0.0
137 ; 577993.0460675642 ; 2.0109205431941235E8 ; 7.477363732102022E7 ; 2.588033989358565E10 ; 0.0
138 ; 575465.9754185468 ; 2.010971819358817E8 ; 7.535163036708778E7 ; 2.6081431947905064E10 ; 0.0
139 ; 574749.6958974481 ; 2.011022984428507E8 ; 7.592709634250633E7 ; 2.6282529129840946E10 ; 0.0
140 ; 572251.6300369949 ; 2.011074036655781E8 ; 7.650184603840378E7 ; 2.64836314282838E10 ; 0.0
141 ; 571330.4974354777 ; 2.0111249743164948E8 ; 7.707409766844077E7 ; 2.6684738831949375E10 ; 0.0
142 ; 570721.091426025 ; 2.0111757957090974E8 ; 7.764542816587625E7 ; 2.6885851329381023E10 ; 0.0
143 ; 570132.1282719044 ; 2.011226499153984E8 ; 7.821614925730228E7 ; 2.7086968908951935E10 ; 0.0
144 ; 566327.7079481692 ; 2.0112770829928738E8 ; 7.878628138557419E7 ; 2.7288091558867332E10 ; 0.0
145 ; 566731.833756683 ; 2.0113275455882156E8 ; 7.935260909352235E7 ; 2.748921926716662E10 ; 0.0
146 ; 565093.0294502402 ; 2.0113778853226134E8 ; 7.991934092727904E7 ; 2.769035202172544E10 ; 0.0
147 ; 564776.9373284216 ; 2.0114281005982795E8 ; 8.048443395672928E7 ; 2.78914898102577E10 ; 0.0
148 ; 564902.6610285435 ; 2.0114781898365048E8 ; 8.10492108940577E7 ; 2.809263262031753E10 ; 0.0
149 ; 562885.6113196369 ; 2.011528151477154E8 ; 8.161411355508626E7 ; 2.829378043930118E10 ; 0.0
150 ; 561931.083201011 ; 2.0115779839781773E8 ; 8.217699916640589E7 ; 2.84949332544489E10 ; 0.0
151 ; 561124.5965186702 ; 2.0116276858151442E8 ; 8.273893024960689E7 ; 2.8696091052846718E10 ; 0.0
152 ; 560024.7469168941 ; 2.011677255480794E8 ; 8.330005484612556E7 ; 2.8897253821428234E10 ; 0.0
153 ; 559848.7718188238 ; 2.0117266914846033E8 ; 8.386007959304245E7 ; 2.9098421546976315E10 ; 0.0
154 ; 558598.1074119292 ; 2.0117759923523718E8 ; 8.441992836486126E7 ; 2.9299594216124775E10 ; 0.0
155 ; 558206.9766341043 ; 2.0118251566258225E8 ; 8.49785264722732E7 ; 2.9500771815360012E10 ; 0.0
156 ; 558148.1890386381 ; 2.0118741828622195E8 ; 8.55367334489073E7 ; 2.9701954331022594E10 ; 0.0
157 ; 556212.5774729702 ; 2.0119230696339974E8 ; 8.609488163794594E7 ; 2.9903141749308815E10 ; 0.0
158 ; 556749.4460915896 ; 2.0119718155284074E8 ; 8.66510942154189E7 ; 3.0104334056272213E10 ; 0.0
159 ; 554209.1449962499 ; 2.012020419147176E8 ; 8.72078436615105E7 ; 3.0305531237825054E10 ; 0.0
160 ; 554080.9980212634 ; 2.0120688791061768E8 ; 8.776205280650675E7 ; 3.0506733279739773E10 ; 0.0
161 ; 555640.3895173185 ; 2.0121171940351135E8 ; 8.831613380452801E7 ; 3.070794016765039E10 ; 0.0
162 ; 552057.4697459339 ; 2.0121653625772166E8 ; 8.887177419404534E7 ; 3.09091518870539E10 ; 0.0
163 ; 553590.8557317533 ; 2.0122133833889508E8 ; 8.942383166379127E7 ; 3.1110368423311623E10 ; 0.0
164 ; 551176.1612433122 ; 2.012261255139733E8 ; 8.997742251952302E7 ; 3.1311589761650517E10 ; 0.0
165 ; 550002.4913102778 ; 2.0123089765116608E8 ; 9.052859868076634E7 ; 3.151281588716449E10 ; 0.0
166 ; 550907.5101096383 ; 2.012356546199252E8 ; 9.107860117207663E7 ; 3.1714046784815655E10 ; 0.0
167 ; 548384.3757857368 ; 2.0124039629091918E8 ; 9.162950868218626E7 ; 3.191528243943558E10 ; 0.0
168 ; 546821.7163911565 ; 2.0124512253600925E8 ; 9.2177893057972E7 ; 3.21165228357265E10 ; 0.0
169 ; 546461.50642307 ; 2.0124983322822583E8 ; 9.272471477436316E7 ; 3.2317767958262512E10 ; 0.0
170 ; 547370.0437374838 ; 2.0125452824174613E8 ; 9.327117628078623E7 ; 3.2519017791490738E10 ; 0.0
171 ; 544739.3743873169 ; 2.012592074518725E8 ; 9.381854632452372E7 ; 3.2720272319732483E10 ; 0.0
172 ; 543992.916069412 ; 2.012638707350116E8 ; 9.436328569891104E7 ; 3.2921531527184357E10 ; 0.0
173 ; 543388.5015070956 ; 2.012685179686542E8 ; 9.490727861498046E7 ; 3.312279539791937E10 ; 0.0
174 ; 542807.920262219 ; 2.0127314903135574E8 ; 9.545066711648755E7 ; 3.3324063915888023E10 ; 0.0
175 ; 543163.150176918 ; 2.0127776380271792E8 ; 9.599347503674977E7 ; 3.352533706491938E10 ; 0.0
176 ; 542914.9039257199 ; 2.0128236216337046E8 ; 9.653663818692668E7 ; 3.37266148287221E10 ; 0.0
177 ; 541966.5092530665 ; 2.0128694399495375E8 ; 9.70795530908524E7 ; 3.392789719088547E10 ; 0.0
178 ; 541573.38139235 ; 2.0129150918010217E8 ; 9.762151960010546E7 ; 3.4129184134880424E10 ; 0.0
179 ; 540414.1604350519 ; 2.0129605760242805E8 ; 9.816309298149781E7 ; 3.4330475644060528E10 ; 0.0
180 ; 540456.2018296705 ; 2.0130058914650586E8 ; 9.870350714193286E7 ; 3.453177170166296E10 ; 0.0
181 ; 540591.6392549077 ; 2.0130510369785747E8 ; 9.924396334376253E7 ; 3.473307229080946E10 ; 0.0
182 ; 538665.7435816039 ; 2.0130960114293742E8 ; 9.978455498301744E7 ; 3.4934377394507324E10 ; 0.0
183 ; 538825.1655891478 ; 2.0131408136911923E8 ; 1.0032322072659905E8 ; 3.513568699565026E10 ; 0.0
184 ; 538403.2354852842 ; 2.0131854426468167E8 ; 1.008620458921882E8 ; 3.533700107701938E10 ; 0.0
185 ; 536693.502356041 ; 2.0132298971879598E8 ; 1.0140044912767349E8 ; 3.553831962128406E10 ; 0.0
186 ; 538281.9344037502 ; 2.013274176215132E8 ; 1.0193714263002953E8 ; 3.573964261100285E10 ; 0.0
187 ; 536338.4251370858 ; 2.013318278637521E8 ; 1.0247542456443328E8 ; 3.594097002862437E10 ; 0.0
188 ; 534879.8696513701 ; 2.013362203372876E8 ; 1.0301176298957036E8 ; 3.614230185648812E10 ; 0.0
189 ; 535020.0894553084 ; 2.013405949347394E8 ; 1.0354664285922174E8 ; 3.634363807682541E10 ; 0.0
190 ; 536596.0351927014 ; 2.0134495154956123E8 ; 1.0408166294867705E8 ; 3.654497867176015E10 ; 0.0
191 ; 534266.0671971766 ; 2.0134929007603022E8 ; 1.0461825898386975E8 ; 3.674632362330971E10 ; 0.0
192 ; 534197.632574679 ; 2.0135361040923694E8 ; 1.0515252505106692E8 ; 3.6947672913385735E10 ; 0.0
193 ; 533867.1644892712 ; 2.013579124450755E8 ; 1.056867226836416E8 ; 3.7149026523794975E10 ; 0.0
194 ; 531939.6672197854 ; 2.0136219608023426E8 ; 1.0622058984813087E8 ; 3.735038443624005E10 ; 0.0
195 ; 532302.2872443666 ; 2.0136646121218663E8 ; 1.0675252951535065E8 ; 3.755174663232028E10 ; 0.0
196 ; 532264.6922071503 ; 2.0137070773918232E8 ; 1.0728483180259502E8 ; 3.775311309353247E10 ; 0.0
197 ; 532747.4674697939 ; 2.013749355602389E8 ; 1.0781709649480218E8 ; 3.795448380127165E10 ; 0.0
198 ; 529726.9247128981 ; 2.013791445751336E8 ; 1.0834984396227197E8 ; 3.8155858736831894E10 ; 0.0
199 ; 530262.8668629274 ; 2.013833346843954E8 ; 1.0887957088698487E8 ; 3.835723788140703E10 ; 0.0
200 ; 529093.0257340219 ; 2.0138750578929746E8 ; 1.094098337538478E8 ; 3.855862121609142E10 ; 0.0
201 ; 527949.6302840131 ; 1.9710069941248405E8 ; 1.0993892677958182E8 ; 3.876000872188072E10 ; 0.0
202 ; 527992.18479837 ; 1.5220852887220588E8 ; 1.1046687640986583E8 ; 3.8957109421293205E10 ; 0.0
