CSV File for the City 1 on Day 6
1 - Minute m 
2 - Power Consumed at minute m 
3 - Power Produced at minute m 
4 - Energy Consumed since the beginning of the day 
5 - Energy Produced since the beginning of the day 
6 - Energy Lost since the beginning of the day on lines starting from the city
 
0 ; 1.5993527078828245E7 ; 1.0532939769662294E8 ; 0.0 ; 0.0 ; 0.0
1 ; 1.6015457098321116E7 ; 1.0548171995518774E8 ; 1.5993527078828245E7 ; 1.0532939769662294E8 ; 0.0
2 ; 1.6029819300623866E7 ; 1.0594287355030611E8 ; 3.2008984177149363E7 ; 2.1081111765181068E8 ; 0.0
3 ; 1.6051459540413179E7 ; 1.0671286494217831E8 ; 4.803880347777323E7 ; 3.167539912021168E8 ; 0.0
4 ; 1.6075841664221967E7 ; 1.0779170013494253E8 ; 6.4090263018186405E7 ; 4.234668561442951E8 ; 0.0
5 ; 1.610276268075384E7 ; 1.0917938457915556E8 ; 8.016610468240838E7 ; 5.312585562792376E8 ; 0.0
6 ; 1.6137367356651863E7 ; 1.1087592307719871E8 ; 9.626886736316222E7 ; 6.404379408583932E8 ; 0.0
7 ; 1.619422252405536E7 ; 1.1288131969507188E8 ; 1.1240623471981408E8 ; 7.513138639355919E8 ; 0.0
8 ; 1.6269722785544893E7 ; 1.1519557768410504E8 ; 1.2860045724386944E8 ; 8.641951836306639E8 ; 0.0
9 ; 1.6382671870840231E7 ; 1.178186994159491E8 ; 1.4487018002941433E8 ; 9.793907613147689E8 ; 0.0
10 ; 1.656982927358786E7 ; 1.2075068633379465E8 ; 1.6125285190025455E8 ; 1.0972094607307181E9 ; 0.0
11 ; 1.6861823272166654E7 ; 1.2399153892212197E8 ; 1.778226811738424E8 ; 1.2179601470645127E9 ; 0.0
12 ; 1.732405616117718E7 ; 1.2754125669645074E8 ; 1.9468450444600904E8 ; 1.3419516859866347E9 ; 0.0
13 ; 1.7763187556523204E7 ; 1.3139983821359038E8 ; 2.1200856060718623E8 ; 1.4694929426830854E9 ; 0.0
14 ; 1.781825138675865E7 ; 1.355672811018901E8 ; 2.2977174816370943E8 ; 1.6008927808966758E9 ; 0.0
15 ; 1.7837383064201985E7 ; 1.4004358211001974E8 ; 2.475899995504681E8 ; 1.736460061998566E9 ; 0.0
16 ; 1.785789046941203E7 ; 1.4482873717197958E8 ; 2.6542738261467007E8 ; 1.8765036441085856E9 ; 0.0
17 ; 1.7879998158421963E7 ; 1.499227414853882E8 ; 2.832852730840821E8 ; 2.0213323812805653E9 ; 0.0
18 ; 1.7897701379370734E7 ; 1.5532558959968883E8 ; 3.011652712425041E8 ; 2.1712551227659535E9 ; 0.0
19 ; 1.7921999504849326E7 ; 1.610372755107433E8 ; 3.1906297262187487E8 ; 2.3265807123656425E9 ; 0.0
20 ; 1.794007167119361E7 ; 1.670577927583513E8 ; 3.369849721267242E8 ; 2.4876179878763857E9 ; 0.0
21 ; 1.7961668831502542E7 ; 1.7338713452349558E8 ; 3.549250437979178E8 ; 2.654675780634737E9 ; 0.0
22 ; 1.7982470343012948E7 ; 1.8002529372252637E8 ; 3.7288671262942034E8 ; 2.8280629151582327E9 ; 0.0
23 ; 1.8007152528658997E7 ; 1.8697226309600812E8 ; 3.9086918297243327E8 ; 3.0080882088807592E9 ; 0.0
24 ; 1.802440397047134E7 ; 1.9422803529050088E8 ; 4.0887633550109226E8 ; 3.1950604719767675E9 ; 0.0
25 ; 1.8049009481322575E7 ; 2.0048064383028078E8 ; 4.269007394715636E8 ; 3.389288507267268E9 ; 0.0
26 ; 1.8064562972724173E7 ; 2.004836292188527E8 ; 4.4494974895288616E8 ; 3.589769151097549E9 ; 0.0
27 ; 1.808793744210169E7 ; 2.0048675351931852E8 ; 4.6301431192561036E8 ; 3.7902527803164015E9 ; 0.0
28 ; 1.8107224937957633E7 ; 2.0049000964759305E8 ; 4.811022493677121E8 ; 3.99073953383572E9 ; 0.0
29 ; 1.813027039106169E7 ; 2.0049339070348254E8 ; 4.992094743056697E8 ; 4.191229543483313E9 ; 0.0
30 ; 1.814333972685834E7 ; 2.0049689000052014E8 ; 5.173397446967314E8 ; 4.391722934186795E9 ; 0.0
31 ; 1.816604453440766E7 ; 2.0050050108854705E8 ; 5.354830844235897E8 ; 4.592219824187315E9 ; 0.0
32 ; 1.8184850431593042E7 ; 2.005042177698506E8 ; 5.536491289579973E8 ; 4.792720325275862E9 ; 0.0
33 ; 1.8202810818191953E7 ; 2.0050803410969347E8 ; 5.718339793895904E8 ; 4.993224543045712E9 ; 0.0
34 ; 1.8218912450858228E7 ; 2.0051194444204968E8 ; 5.900367902077824E8 ; 5.193732577155406E9 ; 0.0
35 ; 1.8238670802775387E7 ; 2.0051594337132233E8 ; 6.082557026586406E8 ; 5.394244521597456E9 ; 0.0
36 ; 1.825482739105298E7 ; 2.005200257707553E8 ; 6.26494373461416E8 ; 5.594760464968779E9 ; 0.0
37 ; 1.8267626054665737E7 ; 2.0052418677818355E8 ; 6.44749200852469E8 ; 5.795280490739534E9 ; 0.0
38 ; 1.8283275516579464E7 ; 2.005284217896895E8 ; 6.630168269071347E8 ; 5.995804677517718E9 ; 0.0
39 ; 1.829948007114577E7 ; 2.005327264516604E8 ; 6.813001024237142E8 ; 6.196333099307407E9 ; 0.0
40 ; 1.8311073332515873E7 ; 2.005370966516691E8 ; 6.995995824948599E8 ; 6.396865825759068E9 ; 0.0
41 ; 1.832948345303164E7 ; 2.005415285085347E8 ; 7.179106558273758E8 ; 6.597402922410737E9 ; 0.0
42 ; 1.833949398104499E7 ; 2.005460183618592E8 ; 7.362401392804074E8 ; 6.797944450919271E9 ; 0.0
43 ; 1.8352276612776186E7 ; 2.0055056276128244E8 ; 7.545796332614524E8 ; 6.998490469281131E9 ; 0.0
44 ; 1.8362010807866853E7 ; 2.005551584556509E8 ; 7.729319098742286E8 ; 7.199041032042414E9 ; 0.0
45 ; 1.836908550841174E7 ; 2.005598023822555E8 ; 7.912939206820954E8 ; 7.399596190498065E9 ; 0.0
46 ; 1.83796628478705E7 ; 2.0056449165625873E8 ; 8.096630061905072E8 ; 7.600155992880321E9 ; 0.0
47 ; 1.8389455710009225E7 ; 2.005692235604028E8 ; 8.280426690383776E8 ; 7.800720484536579E9 ; 0.0
48 ; 1.8393847933516573E7 ; 2.0057399553506634E8 ; 8.464321247483869E8 ; 8.001289708096982E9 ; 0.0
49 ; 1.84047229066994E7 ; 2.0057880516871694E8 ; 8.648259726819035E8 ; 8.201863703632049E9 ; 0.0
50 ; 1.8411022165467188E7 ; 2.005836501887914E8 ; 8.832306955886029E8 ; 8.402442508800766E9 ; 0.0
51 ; 1.841261867568544E7 ; 2.0058852845302176E8 ; 9.0164171775407E8 ; 8.603026158989557E9 ; 0.0
52 ; 1.8422114382628854E7 ; 2.0059343794121566E8 ; 9.200543364297554E8 ; 8.80361468744258E9 ; 0.0
53 ; 1.842316611250677E7 ; 2.0059837674749058E8 ; 9.384764508123842E8 ; 9.004208125383795E9 ; 0.0
54 ; 1.8431736472828902E7 ; 2.0060334307295653E8 ; 9.56899616924891E8 ; 9.204806502131285E9 ; 0.0
55 ; 1.8436077266349148E7 ; 2.0060833521883568E8 ; 9.753313533977199E8 ; 9.40540984520424E9 ; 0.0
56 ; 1.8442076441835783E7 ; 2.006133515800052E8 ; 9.93767430664069E8 ; 9.606018180423077E9 ; 0.0
57 ; 1.8443525067167692E7 ; 2.006183906389465E8 ; 1.0122095071059048E9 ; 9.806631532003082E9 ; 0.0
58 ; 1.8445169148214668E7 ; 2.006234509600825E8 ; 1.0306530321730725E9 ; 1.0007249922642029E10 ; 0.0
59 ; 1.845191496398944E7 ; 2.0062853118448374E8 ; 1.0490982013212872E9 ; 1.0207873373602112E10 ; 0.0
60 ; 1.8458320564358067E7 ; 2.0063363002492392E8 ; 1.0675501162852767E9 ; 1.0408501904786596E10 ; 0.0
61 ; 1.8457212812578876E7 ; 2.0063874626126462E8 ; 1.0860084368496346E9 ; 1.060913553481152E10 ; 0.0
62 ; 1.8456596385752324E7 ; 2.006438787361503E8 ; 1.1044656496622136E9 ; 1.0809774281072784E10 ; 0.0
63 ; 1.846507766212522E7 ; 2.0064902635099387E8 ; 1.122922246047966E9 ; 1.1010418159808935E10 ; 0.0
64 ; 1.8465959512513954E7 ; 2.0065418806223503E8 ; 1.141387323710091E9 ; 1.121106718615993E10 ; 0.0
65 ; 1.8474350686710875E7 ; 2.0065936287785313E8 ; 1.159853283222605E9 ; 1.1411721374222164E10 ; 0.0
66 ; 1.847456728824474E7 ; 2.006645498541182E8 ; 1.1783276339093158E9 ; 1.1612380737100018E10 ; 0.0
67 ; 1.8478058035190158E7 ; 2.0066974809256357E8 ; 1.1968022011975605E9 ; 1.1813045286954136E10 ; 0.0
68 ; 1.847854621070476E7 ; 2.0067495673716536E8 ; 1.2152802592327507E9 ; 1.20137150350467E10 ; 0.0
69 ; 1.848057729146144E7 ; 2.0068017497171438E8 ; 1.2337588054434555E9 ; 1.2214389991783865E10 ; 0.0
70 ; 1.84796651847744E7 ; 2.0068540201736698E8 ; 1.252239382734917E9 ; 1.2415070166755579E10 ; 0.0
71 ; 1.8484687168890417E7 ; 2.0069063713036245E8 ; 1.2707190479196913E9 ; 1.2615755568772945E10 ; 0.0
72 ; 1.8483908312586445E7 ; 2.0069587959989515E8 ; 1.2892037350885818E9 ; 1.2816446205903307E10 ; 0.0
73 ; 1.8489337222759318E7 ; 2.0070112874613026E8 ; 1.3076876434011683E9 ; 1.3017142085503202E10 ; 0.0
74 ; 1.849008220521171E7 ; 2.0070638391835323E8 ; 1.3261769806239276E9 ; 1.3217843214249332E10 ; 0.0
75 ; 1.848583579848858E7 ; 2.0071164449324325E8 ; 1.3446670628291392E9 ; 1.3418549598167686E10 ; 0.0
76 ; 1.8489229032157462E7 ; 2.0071690987326175E8 ; 1.3631528986276278E9 ; 1.361926124266093E10 ; 0.0
77 ; 1.849050162056108E7 ; 2.0072217948514837E8 ; 1.3816421276597853E9 ; 1.3819978152534193E10 ; 0.0
78 ; 1.8487898120400928E7 ; 2.0072745277851576E8 ; 1.4001326292803464E9 ; 1.402070033201934E10 ; 0.0
79 ; 1.84834333913207E7 ; 2.0073272922453701E8 ; 1.4186205274007473E9 ; 1.4221427784797855E10 ; 0.0
80 ; 1.8475715100655627E7 ; 2.0073800831471902E8 ; 1.437103960792068E9 ; 1.4422160514022392E10 ; 0.0
81 ; 1.8465393622649148E7 ; 2.0074328955975518E8 ; 1.4555796758927236E9 ; 1.462289852233711E10 ; 0.0
82 ; 1.8465660191885274E7 ; 2.007485724884525E8 ; 1.4740450695153728E9 ; 1.4823641811896866E10 ; 0.0
83 ; 1.8463829806454677E7 ; 2.0075385664672744E8 ; 1.492510729707258E9 ; 1.5024390384385319E10 ; 0.0
84 ; 1.845427139974E7 ; 2.0075914159666586E8 ; 1.5109745595137126E9 ; 1.5225144241032045E10 ; 0.0
85 ; 1.844873961677698E7 ; 2.0076442691564247E8 ; 1.5294288309134526E9 ; 1.5425903382628712E10 ; 0.0
86 ; 1.843821162678947E7 ; 2.0076971219549593E8 ; 1.5478775705302296E9 ; 1.5626667809544353E10 ; 0.0
87 ; 1.8438015512581944E7 ; 2.0077499704175526E8 ; 1.5663157821570191E9 ; 1.582743752173985E10 ; 0.0
88 ; 1.8428161635053217E7 ; 2.0078028107291463E8 ; 1.584753797669601E9 ; 1.6028212518781605E10 ; 0.0
89 ; 1.8426345599895164E7 ; 2.0078556391975266E8 ; 1.6031819593046541E9 ; 1.6228992799854519E10 ; 0.0
90 ; 1.841564446738994E7 ; 2.0079084522469357E8 ; 1.6216083049045494E9 ; 1.6429778363774271E10 ; 0.0
91 ; 1.840681418731681E7 ; 2.0079612464120725E8 ; 1.6400239493719392E9 ; 1.6630569208998964E10 ; 0.0
92 ; 1.8401465579338953E7 ; 2.0080140183324546E8 ; 1.658430763559256E9 ; 1.6831365333640171E10 ; 0.0
93 ; 1.8395763700175945E7 ; 2.0080667647471204E8 ; 1.676832229138595E9 ; 1.7032166735473417E10 ; 0.0
94 ; 1.8384495758448716E7 ; 2.0081194824896452E8 ; 1.695227992838771E9 ; 1.7232973411948128E10 ; 0.0
95 ; 1.8378261973289423E7 ; 2.0081721684834537E8 ; 1.7136124885972197E9 ; 1.7433785360197094E10 ; 0.0
96 ; 1.8369167711073063E7 ; 2.0082248197374085E8 ; 1.7319907505705092E9 ; 1.763460257704544E10 ; 0.0
97 ; 1.8363272298019376E7 ; 2.0082774333416533E8 ; 1.7503599182815824E9 ; 1.783542505901918E10 ; 0.0
98 ; 1.83564275399417E7 ; 2.0083300064637002E8 ; 1.7687231905796018E9 ; 1.8036252802353344E10 ; 0.0
99 ; 1.8345630924907457E7 ; 2.0083825363447398E8 ; 1.7870796181195436E9 ; 1.8237085802999714E10 ; 0.0
100 ; 1.8337908477511033E7 ; 2.008435020296164E8 ; 1.805425249044451E9 ; 1.843792405663419E10 ; 0.0
101 ; 1.8330199057558455E7 ; 2.008487455696283E8 ; 1.823763157521962E9 ; 1.8638767558663807E10 ; 0.0
102 ; 1.8319037731179684E7 ; 2.008539839987232E8 ; 1.8420933565795205E9 ; 1.8839616304233437E10 ; 0.0
103 ; 1.8309298052164014E7 ; 2.0085921706720456E8 ; 1.8604123943107002E9 ; 1.904047028823216E10 ; 0.0
104 ; 1.8303551887445122E7 ; 2.0086444453118986E8 ; 1.8787216923628643E9 ; 1.9241329505299362E10 ; 0.0
105 ; 1.8293765272575166E7 ; 2.0086966615234968E8 ; 1.8970252442503095E9 ; 1.944219394983055E10 ; 0.0
106 ; 1.828572941875738E7 ; 2.0087488169766113E8 ; 1.9153190095228846E9 ; 1.9643063615982903E10 ; 0.0
107 ; 1.8275091466150742E7 ; 2.008800909391748E8 ; 1.933604738941642E9 ; 1.9843938497680565E10 ; 0.0
108 ; 1.8262945789371505E7 ; 2.0088529365379405E8 ; 1.9518798304077928E9 ; 2.004481858861974E10 ; 0.0
109 ; 1.825311346999088E7 ; 2.008904896230663E8 ; 1.9701427761971643E9 ; 2.0245703882273533E10 ; 0.0
110 ; 1.8243282235516116E7 ; 2.0089567863298553E8 ; 1.9883958896671553E9 ; 2.04465943718966E10 ; 0.0
111 ; 1.823098213922064E7 ; 2.0090086047380498E8 ; 2.0066391719026713E9 ; 2.0647490050529583E10 ; 0.0
112 ; 1.822410219981801E7 ; 2.009060349398598E8 ; 2.024870154041892E9 ; 2.0848390911003387E10 ; 0.0
113 ; 1.8206270247212116E7 ; 2.0091120182939914E8 ; 2.04309425624171E9 ; 2.104929694594325E10 ; 0.0
114 ; 1.819990257012917E7 ; 2.009163609444265E8 ; 2.061300526488922E9 ; 2.1250208147772648E10 ; 0.0
115 ; 1.818644874284954E7 ; 2.0092151209054884E8 ; 2.0795004290590513E9 ; 2.1451124508717075E10 ; 0.0
116 ; 1.8175767660845313E7 ; 2.0092665507683298E8 ; 2.0976868778019009E9 ; 2.1652046020807625E10 ; 0.0
117 ; 1.8160684730591986E7 ; 2.0093178971566948E8 ; 2.1158626454627461E9 ; 2.1852972675884457E10 ; 0.0
118 ; 1.8154057370271903E7 ; 2.0093691582264346E8 ; 2.1340233301933382E9 ; 2.2053904465600124E10 ; 0.0
119 ; 1.813857825277052E7 ; 2.0094203321641162E8 ; 2.15217738756361E9 ; 2.2254841381422768E10 ; 0.0
120 ; 1.812718517237415E7 ; 2.0094714171858576E8 ; 2.1703159658163805E9 ; 2.245578341463918E10 ; 0.0
121 ; 1.811463488065149E7 ; 2.0095224115362173E8 ; 2.1884431509887547E9 ; 2.2656730556357765E10 ; 0.0
122 ; 1.8106280783322215E7 ; 2.0095733134871414E8 ; 2.206557785869406E9 ; 2.2857682797511387E10 ; 0.0
123 ; 1.8088860061370205E7 ; 2.009624121336959E8 ; 2.2246640666527286E9 ; 2.30586401288601E10 ; 0.0
124 ; 1.8080080180920053E7 ; 2.0096748334094298E8 ; 2.242752926714099E9 ; 2.3259602540993797E10 ; 0.0
125 ; 1.8063404500702277E7 ; 2.0097254480528352E8 ; 2.260833006895019E9 ; 2.346057002433474E10 ; 0.0
126 ; 1.8051193515471295E7 ; 2.0097759636391127E8 ; 2.2788964113957214E9 ; 2.3661542569140022E10 ; 0.0
127 ; 1.8035295794150893E7 ; 2.0098263785630357E8 ; 2.296947604911193E9 ; 2.3862520165503933E10 ; 0.0
128 ; 1.8023849695133742E7 ; 2.0098766912414265E8 ; 2.3149829007053437E9 ; 2.4063502803360237E10 ; 0.0
129 ; 1.8014824340781577E7 ; 2.0099269001124102E8 ; 2.3330067504004774E9 ; 2.426449047248438E10 ; 0.0
130 ; 1.7995073586090457E7 ; 2.009977003634702E8 ; 2.351021574741259E9 ; 2.446548316249562E10 ; 0.0
131 ; 1.797463489528907E7 ; 2.01002700028693E8 ; 2.3690166483273497E9 ; 2.4666480862859093E10 ; 0.0
132 ; 1.7957149846764524E7 ; 2.010076888566985E8 ; 2.3869912832226386E9 ; 2.4867483562887787E10 ; 0.0
133 ; 1.793688813052405E7 ; 2.0101266669914052E8 ; 2.404948433069403E9 ; 2.5068491251744484E10 ; 0.0
134 ; 1.7912586100559108E7 ; 2.0101763340947852E8 ; 2.4228853211999273E9 ; 2.5269503918443623E10 ; 0.0
135 ; 1.7897120311754104E7 ; 2.010225888429214E8 ; 2.4407979073004866E9 ; 2.54705215518531E10 ; 0.0
136 ; 1.7873309120290708E7 ; 2.0102753285637394E8 ; 2.458695027612241E9 ; 2.5671544140696022E10 ; 0.0
137 ; 1.7854221725219637E7 ; 2.0103246530838525E8 ; 2.4765683367325315E9 ; 2.5872571673552395E10 ; 0.0
138 ; 1.7830154776669648E7 ; 2.0103738605910006E8 ; 2.4944225584577513E9 ; 2.607360413886078E10 ; 0.0
139 ; 1.78134012893764E7 ; 2.0104229497021168E8 ; 2.512252713234421E9 ; 2.627464152491988E10 ; 0.0
140 ; 1.778901203059656E7 ; 2.0104719190491757E8 ; 2.530066114523797E9 ; 2.647568381989009E10 ; 0.0
141 ; 1.7763614800898854E7 ; 2.0105207672787634E8 ; 2.547855126554394E9 ; 2.667673101179501E10 ; 0.0
142 ; 1.7749154216343027E7 ; 2.0105694930516705E8 ; 2.565618741355293E9 ; 2.6877783088522884E10 ; 0.0
143 ; 1.772022837033452E7 ; 2.0106180950425008E8 ; 2.5833678955716357E9 ; 2.7078840037828053E10 ; 0.0
144 ; 1.7703373246750034E7 ; 2.0106665719392976E8 ; 2.6010881239419703E9 ; 2.7279901847332302E10 ; 0.0
145 ; 1.7688980770201042E7 ; 2.0107149224431863E8 ; 2.61879149718872E9 ; 2.7480968504526234E10 ; 0.0
146 ; 1.767845861715426E7 ; 2.0107631452680328E8 ; 2.6364804779589214E9 ; 2.7682039996770554E10 ; 0.0
147 ; 1.7660702800919753E7 ; 2.0108112391401154E8 ; 2.6541589365760756E9 ; 2.7883116311297356E10 ; 0.0
148 ; 1.7644130143772732E7 ; 2.010859202797811E8 ; 2.671819639376995E9 ; 2.808419743521137E10 ; 0.0
149 ; 1.7629605831947934E7 ; 2.0109070349912974E8 ; 2.6894637695207677E9 ; 2.828528335549115E10 ; 0.0
150 ; 1.761513246526756E7 ; 2.0109547344822627E8 ; 2.7070933753527155E9 ; 2.848637405899028E10 ; 0.0
151 ; 1.7599146854407E7 ; 2.0110023000436327E8 ; 2.724708507817983E9 ; 2.8687469532438507E10 ; 0.0
152 ; 1.7582593842973694E7 ; 2.0110497304593065E8 ; 2.74230765467239E9 ; 2.888856976244287E10 ; 0.0
153 ; 1.7569519727297332E7 ; 2.0110970245239034E8 ; 2.7598902485153637E9 ; 2.90896747354888E10 ; 0.0
154 ; 1.7554211209944777E7 ; 2.0111441810425216E8 ; 2.777459768242661E9 ; 2.929078443794119E10 ; 0.0
155 ; 1.7539388556532063E7 ; 2.0111911988305062E8 ; 2.7950139794526057E9 ; 2.949189885604544E10 ; 0.0
156 ; 1.751833355028408E7 ; 2.011238076713226E8 ; 2.8125533680091376E9 ; 2.969301797592849E10 ; 0.0
157 ; 1.7501690110159427E7 ; 2.0112848135258624E8 ; 2.8300717015594215E9 ; 2.989414178359981E10 ; 0.0
158 ; 1.7491270304942124E7 ; 2.0113314081132022E8 ; 2.847573391669581E9 ; 3.0095270264952396E10 ; 0.0
159 ; 1.747335068844557E7 ; 2.0113778593294436E8 ; 2.865064661974523E9 ; 3.0296403405763718E10 ; 0.0
160 ; 1.7461502832672797E7 ; 2.0114241660380077E8 ; 2.8825380126629686E9 ; 3.0497541191696663E10 ; 0.0
161 ; 1.7440003547029756E7 ; 2.011470327111359E8 ; 2.899999515495641E9 ; 3.0698683608300465E10 ; 0.0
162 ; 1.742463154637951E7 ; 2.01151634143083E8 ; 2.917439519042671E9 ; 3.08998306410116E10 ; 0.0
163 ; 1.7415475601889405E7 ; 2.011562207886458E8 ; 2.934864150589051E9 ; 3.1100982275154682E10 ; 0.0
164 ; 1.739231042353533E7 ; 2.0116079253768238E8 ; 2.9522796261909404E9 ; 3.130213849594333E10 ; 0.0
165 ; 1.737744417239741E7 ; 2.0116534928089008E8 ; 2.9696719366144757E9 ; 3.150329928848101E10 ; 0.0
166 ; 1.7365996114052154E7 ; 2.011698909097906E8 ; 2.9870493807868733E9 ; 3.17044646377619E10 ; 0.0
167 ; 1.7342529216109104E7 ; 2.0117441731671613E8 ; 3.0044153769009256E9 ; 3.190563452867169E10 ; 0.0
168 ; 1.7328774739147022E7 ; 2.0117892839479566E8 ; 3.021757906117035E9 ; 3.2106808945988407E10 ; 0.0
169 ; 1.731162822014732E7 ; 2.011834240379421E8 ; 3.039086680856182E9 ; 3.23079878743832E10 ; 0.0
170 ; 1.7296099805267155E7 ; 2.0118790414083987E8 ; 3.056398309076329E9 ; 3.2509171298421143E10 ; 0.0
171 ; 1.7279319315371487E7 ; 2.0119236859893277E8 ; 3.0736944088815966E9 ; 3.271035920256198E10 ; 0.0
172 ; 1.72618449898669E7 ; 2.0119681730841267E8 ; 3.090973728196968E9 ; 3.2911551571160915E10 ; 0.0
173 ; 1.724496076513646E7 ; 2.012012501662083E8 ; 3.108235573186835E9 ; 3.311274838846933E10 ; 0.0
174 ; 1.723536637930368E7 ; 2.0120566706997484E8 ; 3.125480533951971E9 ; 3.331394963863554E10 ; 0.0
175 ; 1.7225468749883987E7 ; 2.0121006791808355E8 ; 3.1427159003312745E9 ; 3.3515155305705513E10 ; 0.0
176 ; 1.721398452278536E7 ; 2.012144526096122E8 ; 3.1599413690811586E9 ; 3.3716365373623596E10 ; 0.0
177 ; 1.7209005987002816E7 ; 2.0121882104433548E8 ; 3.177155353603944E9 ; 3.3917579826233208E10 ; 0.0
178 ; 1.719021556972263E7 ; 2.0122317312271616E8 ; 3.1943643595909467E9 ; 3.4118798647277542E10 ; 0.0
179 ; 1.7185244896514025E7 ; 2.0122750874589625E8 ; 3.2115545751606693E9 ; 3.4320021820400257E10 ; 0.0
180 ; 1.7174490889152378E7 ; 2.0123182781568885E8 ; 3.2287398200571833E9 ; 3.452124932914616E10 ; 0.0
181 ; 1.7166257110124808E7 ; 2.0123613023456997E8 ; 3.245914310946336E9 ; 3.4722481156961845E10 ; 0.0
182 ; 1.7156331918818332E7 ; 2.012404159056711E8 ; 3.2630805680564604E9 ; 3.492371728719642E10 ; 0.0
183 ; 1.7141220926225625E7 ; 2.0124468473277155E8 ; 3.280236899975279E9 ; 3.512495770310209E10 ; 0.0
184 ; 1.7134480221338376E7 ; 2.0124893662029153E8 ; 3.2973781209015045E9 ; 3.532620238783486E10 ; 0.0
185 ; 1.7120760186382126E7 ; 2.012531714732854E8 ; 3.314512601122843E9 ; 3.5527451324455154E10 ; 0.0
186 ; 1.711075622276882E7 ; 2.0125738919743496E8 ; 3.331633361309225E9 ; 3.572870449592844E10 ; 0.0
187 ; 1.710181380704527E7 ; 2.0126158969904324E8 ; 3.348744117531994E9 ; 3.592996188512587E10 ; 0.0
188 ; 1.708885427862914E7 ; 2.0126577288502848E8 ; 3.3658459313390393E9 ; 3.613122347482491E10 ; 0.0
189 ; 1.7082730178919464E7 ; 2.012699386629184E8 ; 3.3829347856176686E9 ; 3.633248924770994E10 ; 0.0
190 ; 1.7074152860676784E7 ; 2.0127408694084445E8 ; 3.400017515796588E9 ; 3.6533759186372856E10 ; 0.0
191 ; 1.706241313973348E7 ; 2.0127821762753665E8 ; 3.4170916686572647E9 ; 3.67350332733137E10 ; 0.0
192 ; 1.7050700352683607E7 ; 2.0128233063231844E8 ; 3.434154081796998E9 ; 3.693631149094123E10 ; 0.0
193 ; 1.7036502009741846E7 ; 2.0128642586510155E8 ; 3.4512047821496816E9 ; 3.713759382157355E10 ; 0.0
194 ; 1.7032461202240787E7 ; 2.012905032363815E8 ; 3.4682412841594234E9 ; 3.733888024743865E10 ; 0.0
195 ; 1.7022123368959486E7 ; 2.0129456265723294E8 ; 3.4852737453616643E9 ; 3.754017075067503E10 ; 0.0
