CSV File for the City 4 on Day 259
1 - Minute m 
2 - Power Consumed at minute m 
3 - Power Produced at minute m 
4 - Energy Consumed since the beginning of the day 
5 - Energy Produced since the beginning of the day 
6 - Energy Lost since the beginning of the day on lines starting from the city
 
0 ; 2141466.72209544 ; 1.0601372850038531E8 ; 0.0 ; 0.0 ; 0.0
1 ; 2148474.728764891 ; 1.0616411596416241E8 ; 2141466.72209544 ; 1.0601372850038531E8 ; 0.0
2 ; 2152284.053276052 ; 1.0662354312625119E8 ; 4289941.450860331 ; 2.1217784446454772E8 ; 0.0
3 ; 2158674.0877654892 ; 1.0739201526924384E8 ; 6442225.504136383 ; 3.188013875907989E8 ; 0.0
4 ; 2165586.248314273 ; 1.084695371470527E8 ; 8600899.591901872 ; 4.2619340286004275E8 ; 0.0
5 ; 2178945.154418251 ; 1.0985611295197845E8 ; 1.0766485840216145E7 ; 5.3466294000709546E8 ; 0.0
6 ; 2193969.081256567 ; 1.1155174628496072E8 ; 1.2945430994634395E7 ; 6.445190529590739E8 ; 0.0
7 ; 2217129.784322062 ; 1.135564401294933E8 ; 1.5139400075890962E7 ; 7.560707992440346E8 ; 0.0
8 ; 2247393.2766315476 ; 1.1587019682963562E8 ; 1.7356529860213023E7 ; 8.69627239373528E8 ; 0.0
9 ; 2297494.64031947 ; 1.1849301807249886E8 ; 1.960392313684457E7 ; 9.854974362031636E8 ; 0.0
10 ; 2373965.8088093237 ; 1.2142490487550873E8 ; 2.1901417777164042E7 ; 1.1039904542756624E9 ; 0.0
11 ; 2494559.791688549 ; 1.2466585757867172E8 ; 2.4275383585973367E7 ; 1.2254153591511712E9 ; 0.0
12 ; 2692281.323751786 ; 1.2821587584198132E8 ; 2.6769943377661917E7 ; 1.350081216729843E9 ; 0.0
13 ; 2882356.1753222686 ; 1.320749586480118E8 ; 2.9462224701413702E7 ; 1.4782970925718243E9 ; 0.0
14 ; 2903255.240953721 ; 1.362431043096521E8 ; 3.234458087673597E7 ; 1.6103720512198362E9 ; 0.0
15 ; 2909541.184594146 ; 1.4072031048284262E8 ; 3.524783611768969E7 ; 1.7466151555294883E9 ; 0.0
16 ; 2917915.169926217 ; 1.4550657418408975E8 ; 3.815737730228384E7 ; 1.887335466012331E9 ; 0.0
17 ; 2924993.0243253424 ; 1.5060189181245372E8 ; 4.107529247221006E7 ; 2.0328420401964207E9 ; 0.0
18 ; 2934505.645952318 ; 1.560062591756339E8 ; 4.40002854965354E7 ; 2.1834439320088744E9 ; 0.0
19 ; 2945244.3626929414 ; 1.6171967151971796E8 ; 4.693479114248772E7 ; 2.3394501911845083E9 ; 0.0
20 ; 2950877.2265407178 ; 1.6774212356211367E8 ; 4.9880035505180664E7 ; 2.5011698627042265E9 ; 0.0
21 ; 2960168.8290033364 ; 1.7407360952714953E8 ; 5.283091273172138E7 ; 2.6689119862663403E9 ; 0.0
22 ; 2965363.012763725 ; 1.8071412318381125E8 ; 5.579108156072471E7 ; 2.84298559579349E9 ; 0.0
23 ; 2974125.443593504 ; 1.87663657885076E8 ; 5.875644457348844E7 ; 3.023699718977301E9 ; 0.0
24 ; 2979719.686998195 ; 1.9492220660831076E8 ; 6.173057001708194E7 ; 3.211363376862377E9 ; 0.0
25 ; 2987725.0071499697 ; 2.011778028944064E8 ; 6.4710289704080135E7 ; 3.406285583470688E9 ; 0.0
26 ; 2998967.64892258 ; 2.0118398692568862E8 ; 6.76980147112301E7 ; 3.607463386365094E9 ; 0.0
27 ; 3005757.187195584 ; 2.011905200914528E8 ; 7.069698236015268E7 ; 3.808647373290783E9 ; 0.0
28 ; 3013624.7354639354 ; 2.011973942745768E8 ; 7.370273954734826E7 ; 4.0098378933822355E9 ; 0.0
29 ; 3021195.302482378 ; 2.0120460118345568E8 ; 7.67163642828122E7 ; 4.211035287656812E9 ; 0.0
30 ; 3030316.8750586146 ; 2.0121213238923043E8 ; 7.973755958529457E7 ; 4.412239888840268E9 ; 0.0
31 ; 3033457.581285895 ; 2.0121997936129707E8 ; 8.27678764603532E7 ; 4.613452021229499E9 ; 0.0
32 ; 3045393.973706821 ; 2.0122813350088716E8 ; 8.580133404163909E7 ; 4.8146720005907955E9 ; 0.0
33 ; 3047898.8555419277 ; 2.012365861725604E8 ; 8.884672801534592E7 ; 5.015900134091682E9 ; 0.0
34 ; 3057948.136486854 ; 2.0124532873349568E8 ; 9.189462687088785E7 ; 5.217136720264243E9 ; 0.0
35 ; 3061955.279754159 ; 2.0125435256050977E8 ; 9.49525750073747E7 ; 5.418382048997739E9 ; 0.0
36 ; 3067124.2820970663 ; 2.0126364907477185E8 ; 9.801453028712887E7 ; 5.6196364015582485E9 ; 0.0
37 ; 3077845.259055715 ; 2.0127320976421568E8 ; 1.0108165456922594E8 ; 5.82090005063302E9 ; 0.0
38 ; 3081431.080824763 ; 2.0128302620368168E8 ; 1.0415949982828166E8 ; 6.022173260397236E9 ; 0.0
39 ; 3088435.370148636 ; 2.0129309007284606E8 ; 1.0724093090910642E8 ; 6.223456286600918E9 ; 0.0
40 ; 3093392.22913966 ; 2.0130339317201468E8 ; 1.1032936627925505E8 ; 6.424749376673764E9 ; 0.0
41 ; 3095629.1939604958 ; 2.0131392743587667E8 ; 1.134227585083947E8 ; 6.626052769845778E9 ; 0.0
42 ; 3100017.141781649 ; 2.0132468494532394E8 ; 1.165183877023552E8 ; 6.827366697281655E9 ; 0.0
43 ; 3108270.6747744875 ; 2.0133565793745413E8 ; 1.1961840484413685E8 ; 7.028691382226979E9 ; 0.0
44 ; 3111455.4774297676 ; 2.0134683881387812E8 ; 1.2272667551891133E8 ; 7.2300270401644335E9 ; 0.0
45 ; 3116427.415390009 ; 2.0135822014745808E8 ; 1.258381309963411E8 ; 7.431373878978312E9 ; 0.0
46 ; 3120348.300727532 ; 2.013697946876022E8 ; 1.2895455841173111E8 ; 7.63273209912577E9 ; 0.0
47 ; 3123186.2403098545 ; 2.0138155536424097E8 ; 1.3207490671245864E8 ; 7.834101893813372E9 ; 0.0
48 ; 3123484.397952069 ; 2.0139349529060787E8 ; 1.351980929527685E8 ; 8.035483449177612E9 ; 0.0
49 ; 3125192.938585265 ; 2.014056077649417E8 ; 1.3832157735072058E8 ; 8.23687694446822E9 ; 0.0
50 ; 3128638.090606117 ; 2.0141788627122495E8 ; 1.4144677028930584E8 ; 8.438282552233162E9 ; 0.0
51 ; 3129146.4946798985 ; 2.0143032447906438E8 ; 1.4457540837991196E8 ; 8.639700438504387E9 ; 0.0
52 ; 3131566.056082638 ; 2.0144291624281538E8 ; 1.4770455487459186E8 ; 8.841130762983452E9 ; 0.0
53 ; 3135323.3248825604 ; 2.014556556000442E8 ; 1.508361209306745E8 ; 9.042573679226267E9 ; 0.0
54 ; 3137854.2028059624 ; 2.014685367694157E8 ; 1.5397144425555706E8 ; 9.244029334826311E9 ; 0.0
55 ; 3137184.2747749425 ; 2.0148155414808694E8 ; 1.5710929845836303E8 ; 9.445497871595726E9 ; 0.0
56 ; 3142839.521047955 ; 2.014947023086809E8 ; 1.6024648273313797E8 ; 9.646979425743813E9 ; 0.0
57 ; 3141166.978173641 ; 2.0150797599590737E8 ; 1.6338932225418591E8 ; 9.848474128052494E9 ; 0.0
58 ; 3145773.910441505 ; 2.0152137012289256E8 ; 1.6653048923235956E8 ; 1.00499821040484E10 ; 0.0
59 ; 3146267.1946148174 ; 2.0153487976727188E8 ; 1.6967626314280108E8 ; 1.0251503474171293E10 ; 0.0
60 ; 3146718.567239823 ; 2.015485001670958E8 ; 1.728225303374159E8 ; 1.0453038353938564E10 ; 0.0
61 ; 3148397.9308725763 ; 2.0156222671659285E8 ; 1.7596924890465572E8 ; 1.065458685410566E10 ; 0.0
62 ; 3148773.2596869273 ; 2.0157605496182844E8 ; 1.791176468355283E8 ; 1.0856149080822252E10 ; 0.0
63 ; 3150287.489438108 ; 2.0158998059629497E8 ; 1.8226642009521523E8 ; 1.105772513578408E10 ; 0.0
64 ; 3151918.359731326 ; 2.0160399945646262E8 ; 1.8541670758465335E8 ; 1.1259315116380375E10 ; 0.0
65 ; 3154136.4308768003 ; 2.0161810751731804E8 ; 1.8856862594438466E8 ; 1.1460919115836838E10 ; 0.0
66 ; 3153779.334175281 ; 2.016323008879138E8 ; 1.9172276237526146E8 ; 1.1662537223354156E10 ; 0.0
67 ; 3153744.338937941 ; 2.0164657580694798E8 ; 1.9487654170943674E8 ; 1.1864169524242071E10 ; 0.0
68 ; 3154950.8835161026 ; 2.0166092863839164E8 ; 1.9803028604837468E8 ; 1.2065816100049019E10 ; 0.0
69 ; 3154638.6576503543 ; 2.0167535586717772E8 ; 2.011852369318908E8 ; 1.226747702868741E10 ; 0.0
70 ; 3159853.81919427 ; 2.016898540949639E8 ; 2.0433987558954114E8 ; 1.2469152384554588E10 ; 0.0
71 ; 3160636.747068731 ; 2.017044200359793E8 ; 2.074997294087354E8 ; 1.2670842238649551E10 ; 0.0
72 ; 3162245.382654467 ; 2.0171905051296288E8 ; 2.1066036615580413E8 ; 1.2872546658685532E10 ; 0.0
73 ; 3159002.2164754653 ; 2.0173374245320043E8 ; 2.138226115384586E8 ; 1.3074265709198494E10 ; 0.0
74 ; 3159079.804461997 ; 2.0174849288466498E8 ; 2.1698161375493404E8 ; 1.3275999451651695E10 ; 0.0
75 ; 3161591.571399155 ; 2.0176329893226427E8 ; 2.2014069355939603E8 ; 1.347774794453636E10 ; 0.0
76 ; 3160818.7683371226 ; 2.0177815781419837E8 ; 2.2330228513079518E8 ; 1.3679511243468624E10 ; 0.0
77 ; 3163054.782717935 ; 2.0179306683842894E8 ; 2.264631038991323E8 ; 1.3881289401282822E10 ; 0.0
78 ; 3157786.855853548 ; 2.0180802339926085E8 ; 2.2962615868185025E8 ; 1.408308246812125E10 ; 0.0
79 ; 3159847.584828776 ; 2.018230249740369E8 ; 2.327839455377038E8 ; 1.4284890491520512E10 ; 0.0
80 ; 3154032.2926614694 ; 2.0183806911994463E8 ; 2.3594379312253258E8 ; 1.4486713516494549E10 ; 0.0
81 ; 3154054.6692547607 ; 2.018531534709346E8 ; 2.3909782541519403E8 ; 1.4688551585614494E10 ; 0.0
82 ; 3154175.1708102655 ; 2.0186827573474863E8 ; 2.4225188008444878E8 ; 1.4890404739085428E10 ; 0.0
83 ; 3150658.484805721 ; 2.0188343369005644E8 ; 2.4540605525525904E8 ; 1.5092273014820177E10 ; 0.0
84 ; 3149057.068589496 ; 2.0189862518369842E8 ; 2.4855671374006477E8 ; 1.5294156448510233E10 ; 0.0
85 ; 3146240.6241588295 ; 2.0191384812803212E8 ; 2.5170577080865428E8 ; 1.5496055073693932E10 ; 0.0
86 ; 3143092.4118267642 ; 2.0192910049838066E8 ; 2.548520114328131E8 ; 1.5697968921821964E10 ; 0.0
87 ; 3142029.7974561783 ; 2.019443803305793E8 ; 2.5799510384463987E8 ; 1.5899898022320345E10 ; 0.0
88 ; 3139130.29502451 ; 2.0195968571861857E8 ; 2.6113713364209604E8 ; 1.6101842402650925E10 ; 0.0
89 ; 3138719.6940230024 ; 2.0197501481238008E8 ; 2.6427626393712056E8 ; 1.6303802088369543E10 ; 0.0
90 ; 3137493.593745655 ; 2.0199036581546304E8 ; 2.6741498363114357E8 ; 1.6505777103181923E10 ; 0.0
91 ; 3130051.6526657254 ; 2.0200573698309782E8 ; 2.705524772248892E8 ; 1.6707767468997385E10 ; 0.0
92 ; 3130479.330092691 ; 2.0202112662014395E8 ; 2.7368252887755495E8 ; 1.6909773205980482E10 ; 0.0
93 ; 3128371.5227535446 ; 2.020365330791696E8 ; 2.768130082076476E8 ; 1.7111794332600626E10 ; 0.0
94 ; 3122474.182032957 ; 2.0205195475860968E8 ; 2.7994137973040116E8 ; 1.7313830865679794E10 ; 0.0
95 ; 3120779.439580036 ; 2.020673901009994E8 ; 2.830638539124341E8 ; 1.7515882820438404E10 ; 0.0
96 ; 3118503.0341771333 ; 2.0208283759128082E8 ; 2.861846333520141E8 ; 1.7717950210539402E10 ; 0.0
97 ; 3117879.9835630897 ; 2.0209829575517944E8 ; 2.8930313638619125E8 ; 1.7920033048130684E10 ; 0.0
98 ; 3110974.3416195177 ; 2.0211376315764794E8 ; 2.924210163697543E8 ; 1.8122131343885864E10 ; 0.0
99 ; 3110900.3830003114 ; 2.0212923840137485E8 ; 2.955319907113738E8 ; 1.832424510704351E10 ; 0.0
100 ; 3108242.087495822 ; 2.021447201253551E8 ; 2.986428910943741E8 ; 1.8526374345444885E10 ; 0.0
101 ; 3103996.576319072 ; 2.0216020700352034E8 ; 3.017511331818699E8 ; 1.872851906557024E10 ; 0.0
102 ; 3098649.054043057 ; 2.021756977434262E8 ; 3.04855129758189E8 ; 1.893067927257376E10 ; 0.0
103 ; 3099357.110968781 ; 2.0219119108499452E8 ; 3.079537788122321E8 ; 1.913285497031719E10 ; 0.0
104 ; 3094586.267427174 ; 2.02206685799308E8 ; 3.1105313592320085E8 ; 1.9335046161402184E10 ; 0.0
105 ; 3091106.550770928 ; 2.0222218068745536E8 ; 3.14147722190628E8 ; 1.9537252847201492E10 ; 0.0
106 ; 3087656.6055186912 ; 2.0223767457942426E8 ; 3.1723882874139893E8 ; 1.9739475027888947E10 ; 0.0
107 ; 3082482.317111662 ; 2.0225316633304107E8 ; 3.203264853469176E8 ; 1.9941712702468372E10 ; 0.0
108 ; 3082942.952318046 ; 2.0226865483295414E8 ; 3.234089676640293E8 ; 2.0143965868801414E10 ; 0.0
109 ; 3079066.2504497175 ; 2.0228413898965985E8 ; 3.264919106163474E8 ; 2.034623452363437E10 ; 0.0
110 ; 3073305.728065259 ; 2.0229961773856905E8 ; 3.295709768667971E8 ; 2.0548518662624027E10 ; 0.0
111 ; 3073418.650599856 ; 2.023150900391121E8 ; 3.3264428259486234E8 ; 2.0750818280362595E10 ; 0.0
112 ; 3067738.3992614904 ; 2.0233055487388116E8 ; 3.357177012454622E8 ; 2.0953133370401707E10 ; 0.0
113 ; 3063891.699892904 ; 2.0234601124780798E8 ; 3.3878543964472365E8 ; 2.115546392527559E10 ; 0.0
114 ; 3059305.455906588 ; 2.0236145818737552E8 ; 3.4184933134461653E8 ; 2.1357809936523396E10 ; 0.0
115 ; 3056407.9991704235 ; 2.0237689473986208E8 ; 3.449086368005231E8 ; 2.156017139471077E10 ; 0.0
116 ; 3050545.6254605884 ; 2.023923199726166E8 ; 3.479650447996935E8 ; 2.176254828945063E10 ; 0.0
117 ; 3044636.9922115183 ; 2.024077329723635E8 ; 3.510155904251541E8 ; 2.196494060942325E10 ; 0.0
118 ; 3044793.5428633923 ; 2.024231328445362E8 ; 3.540602274173656E8 ; 2.216734834239561E10 ; 0.0
119 ; 3037443.3625625707 ; 2.0243851871263742E8 ; 3.57105020960229E8 ; 2.2369771475240147E10 ; 0.0
120 ; 3034320.0028277575 ; 2.0245388971762618E8 ; 3.601424643227916E8 ; 2.2572209993952785E10 ; 0.0
121 ; 3031565.562942227 ; 2.0246924501732886E8 ; 3.6317678432561934E8 ; 2.277466388367041E10 ; 0.0
122 ; 3026866.0673220926 ; 2.0248458378587466E8 ; 3.6620834988856155E8 ; 2.297713312868774E10 ; 0.0
123 ; 3022650.541360875 ; 2.0249990521315372E8 ; 3.692352159558836E8 ; 2.3179617712473614E10 ; 0.0
124 ; 3019837.9582904633 ; 2.025152085042968E8 ; 3.722578664972445E8 ; 2.3382117617686768E10 ; 0.0
125 ; 3014752.969480378 ; 2.0253049287917617E8 ; 3.7527770445553493E8 ; 2.3584632826191063E10 ; 0.0
126 ; 3006313.630004305 ; 2.0254575757192597E8 ; 3.7829245742501533E8 ; 2.378716331907024E10 ; 0.0
127 ; 3005012.9023857806 ; 2.0256100183048233E8 ; 3.812987710550196E8 ; 2.3989709076642166E10 ; 0.0
128 ; 2998982.451826533 ; 2.0257622491614106E8 ; 3.843037839574054E8 ; 2.419227007847265E10 ; 0.0
129 ; 2995839.3243849 ; 2.025914261031333E8 ; 3.873027664092319E8 ; 2.439484630338879E10 ; 0.0
130 ; 2990068.1928257993 ; 2.026066046782177E8 ; 3.902986057336168E8 ; 2.4597437729491924E10 ; 0.0
131 ; 2981258.0814188723 ; 2.0262175994028878E8 ; 3.932886739264426E8 ; 2.4800044334170143E10 ; 0.0
132 ; 2977991.4728443045 ; 2.0263689120000044E8 ; 3.962699320078615E8 ; 2.500266609411043E10 ; 0.0
133 ; 2971661.0634410353 ; 2.026519977794042E8 ; 3.992479234807058E8 ; 2.5205302985310432E10 ; 0.0
134 ; 2960526.239536898 ; 2.0266707901160175E8 ; 4.0221958454414684E8 ; 2.5407954983089836E10 ; 0.0
135 ; 2954329.372735454 ; 2.0268213424041066E8 ; 4.051801107836837E8 ; 2.5610622062101437E10 ; 0.0
136 ; 2946756.932332472 ; 2.026971628200431E8 ; 4.0813444015641916E8 ; 2.5813304196341846E10 ; 0.0
137 ; 2941362.118567086 ; 2.0271216411479694E8 ; 4.110811970887516E8 ; 2.601600135916189E10 ; 0.0
138 ; 2930977.584566526 ; 2.0272713749875882E8 ; 4.140225592073187E8 ; 2.6218713523276684E10 ; 0.0
139 ; 2924567.4433600768 ; 2.0274208235551834E8 ; 4.1695353679188526E8 ; 2.6421440660775444E10 ; 0.0
140 ; 2917388.4676900217 ; 2.0275699807789317E8 ; 4.1987810423524535E8 ; 2.6624182743130962E10 ; 0.0
141 ; 2909562.951398724 ; 2.027718840676648E8 ; 4.227954927029354E8 ; 2.6826939741208855E10 ; 0.0
142 ; 2901596.786934938 ; 2.0278673973532397E8 ; 4.257050556543341E8 ; 2.702971162527652E10 ; 0.0
143 ; 2893402.900523101 ; 2.0280156449982595E8 ; 4.2860665244126904E8 ; 2.7232498365011845E10 ; 0.0
144 ; 2884617.8157206327 ; 2.0281635778835487E8 ; 4.3150005534179217E8 ; 2.743529992951167E10 ; 0.0
145 ; 2883563.87956044 ; 2.028311190360968E8 ; 4.343846731575128E8 ; 2.7638116287300026E10 ; 0.0
146 ; 2878044.666271274 ; 2.0284584768602148E8 ; 4.372682370370732E8 ; 2.7840947406336124E10 ; 0.0
147 ; 2870599.0553825754 ; 2.0286054318867198E8 ; 4.4014628170334446E8 ; 2.8043793254022144E10 ; 0.0
148 ; 2866897.237546244 ; 2.0287520500196216E8 ; 4.43016880758727E8 ; 2.8246653797210815E10 ; 0.0
149 ; 2861480.012599886 ; 2.0288983259098166E8 ; 4.458837779962733E8 ; 2.8449529002212776E10 ; 0.0
150 ; 2855639.280712525 ; 2.029044254278081E8 ; 4.4874525800887316E8 ; 2.8652418834803757E10 ; 0.0
151 ; 2850387.000546651 ; 2.0291898299132589E8 ; 4.516008972895857E8 ; 2.8855323260231564E10 ; 0.0
152 ; 2847193.0765724913 ; 2.02933504767052E8 ; 4.5445128429013234E8 ; 2.905824224322289E10 ; 0.0
153 ; 2838015.8354524323 ; 2.0294799024696776E8 ; 4.572984773667048E8 ; 2.926117574798994E10 ; 0.0
154 ; 2835042.8044959046 ; 2.02962438929357E8 ; 4.6013649320215726E8 ; 2.9464123738236908E10 ; 0.0
155 ; 2832381.7786641493 ; 2.0297685031864977E8 ; 4.629715360066532E8 ; 2.9667086177166264E10 ; 0.0
156 ; 2828572.0121422363 ; 2.029912239252719E8 ; 4.6580391778531736E8 ; 2.9870063027484913E10 ; 0.0
157 ; 2821417.258899146 ; 2.0300555926549986E8 ; 4.686324897974596E8 ; 3.0073054251410183E10 ; 0.0
158 ; 2816685.5804271074 ; 2.0301985586132073E8 ; 4.7145390705635875E8 ; 3.0276059810675682E10 ; 0.0
159 ; 2812622.0740590766 ; 2.0303411324029738E8 ; 4.7427059263678586E8 ; 3.0479079666537003E10 ; 0.0
160 ; 2805470.6490656915 ; 2.0304833093543804E8 ; 4.7708321471084493E8 ; 3.06821137797773E10 ; 0.0
161 ; 2801707.014213364 ; 2.0306250848507097E8 ; 4.798886853599106E8 ; 3.0885162110712738E10 ; 0.0
162 ; 2796858.901686265 ; 2.0307664543272322E8 ; 4.82690392374124E8 ; 3.1088224619197807E10 ; 0.0
163 ; 2790256.600737904 ; 2.0309074132700354E8 ; 4.8548725127581024E8 ; 3.129130126463053E10 ; 0.0
164 ; 2785920.683205321 ; 2.0310479572148988E8 ; 4.882775078765482E8 ; 3.1494392005957535E10 ; 0.0
165 ; 2779425.3548392933 ; 2.031188081746202E8 ; 4.910634285597535E8 ; 3.1697496801679024E10 ; 0.0
166 ; 2774517.4232995682 ; 2.0313277824958766E8 ; 4.9384285391459274E8 ; 3.1900615609853645E10 ; 0.0
167 ; 2770646.733469964 ; 2.0314670551423892E8 ; 4.966173713378923E8 ; 3.2103748388103233E10 ; 0.0
168 ; 2762841.042626295 ; 2.031605895409764E8 ; 4.9938801807136226E8 ; 3.2306895093617474E10 ; 0.0
169 ; 2759594.12592194 ; 2.0317442990666357E8 ; 5.021508591139886E8 ; 3.251005568315845E10 ; 0.0
170 ; 2754966.20919274 ; 2.0318822619253364E8 ; 5.0491045323991054E8 ; 3.2713230113065113E10 ; 0.0
171 ; 2750298.1237700693 ; 2.0320197798410147E8 ; 5.076654194491033E8 ; 3.291641833925765E10 ; 0.0
172 ; 2744584.7708833604 ; 2.032156848710783E8 ; 5.1041571757287335E8 ; 3.311962031724175E10 ; 0.0
173 ; 2739788.071251955 ; 2.0322934644728947E8 ; 5.1316030234375674E8 ; 3.3322836002112827E10 ; 0.0
174 ; 2733416.1917004096 ; 2.0324296231059498E8 ; 5.1590009041500866E8 ; 3.3526065348560116E10 ; 0.0
175 ; 2728573.605602124 ; 2.0325653206281257E8 ; 5.1863350660670906E8 ; 3.3729308310870712E10 ; 0.0
176 ; 2726701.6079249997 ; 2.0327005530964372E8 ; 5.213620802123112E8 ; 3.3932564842933525E10 ; 0.0
177 ; 2721257.4687205483 ; 2.032835316606017E8 ; 5.240887818202362E8 ; 3.4135834898243168E10 ; 0.0
178 ; 2718430.706697462 ; 2.0329696072894248E8 ; 5.2681003928895676E8 ; 3.433911842990377E10 ; 0.0
179 ; 2712337.3294121465 ; 2.0331034213159758E8 ; 5.295284699956542E8 ; 3.454241539063271E10 ; 0.0
180 ; 2709458.6885927133 ; 2.0332367548910943E8 ; 5.322408073250664E8 ; 3.474572573276431E10 ; 0.0
181 ; 2707473.110930374 ; 2.0333696042556876E8 ; 5.349502660136591E8 ; 3.4949049408253426E10 ; 0.0
182 ; 2704711.987013208 ; 2.0335019656855404E8 ; 5.376577391245894E8 ; 3.515238636867899E10 ; 0.0
183 ; 2697279.33212995 ; 2.0336338354907307E8 ; 5.403624511116027E8 ; 3.535573656524755E10 ; 0.0
184 ; 2693109.8438102463 ; 2.0337652100150627E8 ; 5.430597304437326E8 ; 3.555909994879662E10 ; 0.0
185 ; 2690199.1662644427 ; 2.0338960856355214E8 ; 5.457528402875428E8 ; 3.576247646979813E10 ; 0.0
186 ; 2686169.707742922 ; 2.034026458761742E8 ; 5.484430394538072E8 ; 3.596586607836168E10 ; 0.0
187 ; 2681911.0652874797 ; 2.0341563258355E8 ; 5.511292091615502E8 ; 3.6169268724237854E10 ; 0.0
188 ; 2676384.8296135785 ; 2.0342856833302143E8 ; 5.538111202268376E8 ; 3.63726843568214E10 ; 0.0
189 ; 2676199.604683072 ; 2.0344145277504694E8 ; 5.564875050564512E8 ; 3.657611292515443E10 ; 0.0
190 ; 2669285.4504637867 ; 2.0345428556315532E8 ; 5.591637046611342E8 ; 3.6779554377929474E10 ; 0.0
191 ; 2665898.385005322 ; 2.0346706635390073E8 ; 5.61832990111598E8 ; 3.698300866349263E10 ; 0.0
192 ; 2662573.581173853 ; 2.034797948068194E8 ; 5.644988884966034E8 ; 3.718647572984653E10 ; 0.0
193 ; 2659326.9212301876 ; 2.0349247058438784E8 ; 5.671614620777773E8 ; 3.738995552465334E10 ; 0.0
194 ; 2654316.336989302 ; 2.0350509335198203E8 ; 5.698207889990075E8 ; 3.759344799523773E10 ; 0.0
195 ; 2647886.4808461764 ; 2.0351766277783823E8 ; 5.724751053359967E8 ; 3.7796953088589714E10 ; 0.0
196 ; 2645032.395904289 ; 2.03530178533015E8 ; 5.751229918168429E8 ; 3.800047075136755E10 ; 0.0
197 ; 2640231.333937724 ; 2.0354264029135653E8 ; 5.777680242127472E8 ; 3.8204000929900566E10 ; 0.0
198 ; 2636334.1808497612 ; 2.0355504772945672E8 ; 5.80408255546685E8 ; 3.8407543570191925E10 ; 0.0
199 ; 2632634.8817172274 ; 2.0356740052662504E8 ; 5.830445897275348E8 ; 3.861109861792138E10 ; 0.0
200 ; 2629122.100706489 ; 1.9132294610038933E8 ; 5.85677224609252E8 ; 3.8814666018448006E10 ; 0.0
