CSV File for the City 6 on Day 198
1 - Minute m 
2 - Power Consumed at minute m 
3 - Power Produced at minute m 
4 - Energy Consumed since the beginning of the day 
5 - Energy Produced since the beginning of the day 
6 - Energy Lost since the beginning of the day on lines starting from the city
 
0 ; 1118951.5314210893 ; 1.0578587539081404E8 ; 0.0 ; 0.0 ; 0.0
1 ; 1129745.6479171028 ; 1.0593629616083848E8 ; 1118951.5314210893 ; 1.0578587539081404E8 ; 0.0
2 ; 1143965.4864123953 ; 1.0639574775707117E8 ; 2248697.179338192 ; 2.1172217155165252E8 ; 0.0
3 ; 1158641.714415009 ; 1.0716423712033361E8 ; 3392662.6657505874 ; 3.181179193087237E8 ; 0.0
4 ; 1176200.1109223075 ; 1.0824177054127085E8 ; 4551304.3801655965 ; 4.252821564290573E8 ; 0.0
5 ; 1196856.0764391352 ; 1.096283536025266E8 ; 5727504.491087904 ; 5.3352392697032815E8 ; 0.0
6 ; 1224375.3503647544 ; 1.1132399112570634E8 ; 6924360.567527039 ; 6.431522805728548E8 ; 0.0
7 ; 1263529.9974039057 ; 1.1332868712425816E8 ; 8148735.917891793 ; 7.544762716985611E8 ; 0.0
8 ; 1318636.2920526615 ; 1.1564244476331681E8 ; 9412265.915295698 ; 8.678049588228192E8 ; 0.0
9 ; 1397945.3470614818 ; 1.1826526632743394E8 ; 1.073090220734836E7 ; 9.834474035861361E8 ; 0.0
10 ; 1521421.8951930334 ; 1.2119715319695431E8 ; 1.2128847554409841E7 ; 1.10171266991357E9 ; 0.0
11 ; 1724336.5176474974 ; 1.2443810583360681E8 ; 1.3650269449602874E7 ; 1.2229098231105242E9 ; 0.0
12 ; 2041407.1560990545 ; 1.2798812377566251E8 ; 1.5374605967250371E7 ; 1.347347928944131E9 ; 0.0
13 ; 2348116.460225075 ; 1.3184720564277667E8 ; 1.7416013123349424E7 ; 1.4753360527197933E9 ; 0.0
14 ; 2387010.0445582257 ; 1.3601534915039772E8 ; 1.97641295835745E7 ; 1.60718325836257E9 ; 0.0
15 ; 2399112.6085016504 ; 1.4049255113339078E8 ; 2.2151139628132727E7 ; 1.7431986075129678E9 ; 0.0
16 ; 2413212.5849261074 ; 1.452788075783079E8 ; 2.4550252236634377E7 ; 1.8836911586463585E9 ; 0.0
17 ; 2429121.8306158492 ; 1.503741136635435E8 ; 2.6963464821560483E7 ; 2.0289699662246664E9 ; 0.0
18 ; 2448273.3164474177 ; 1.5577846380645388E8 ; 2.939258665217633E7 ; 2.17934407988821E9 ; 0.0
19 ; 2461113.291808632 ; 1.6149185171639404E8 ; 3.184085996862375E7 ; 2.3351225436946635E9 ; 0.0
20 ; 2478189.943323719 ; 1.675142704525424E8 ; 3.4301973260432385E7 ; 2.4966143954110575E9 ; 0.0
21 ; 2497243.712035678 ; 1.7384571248534277E8 ; 3.67801632037561E7 ; 2.6641286658636E9 ; 0.0
22 ; 2508092.6365364506 ; 1.804861697603876E8 ; 3.927740691579178E7 ; 2.8379743783489428E9 ; 0.0
23 ; 2527576.1720156316 ; 1.8743563376360154E8 ; 4.178549955232823E7 ; 3.01846054810933E9 ; 0.0
24 ; 2538490.325072387 ; 1.9469409558664888E8 ; 4.431307572434386E7 ; 3.2058961818729315E9 ; 0.0
25 ; 2557783.4823755417 ; 2.009495868897625E8 ; 4.6851566049416244E7 ; 3.4005902774595804E9 ; 0.0
26 ; 2574638.674988079 ; 2.0095564600164548E8 ; 4.9409349531791784E7 ; 3.601539864349343E9 ; 0.0
27 ; 2591971.1898901416 ; 2.0096203250498855E8 ; 5.198398820677986E7 ; 3.8024955103509884E9 ; 0.0
28 ; 2602712.7362614917 ; 2.0096873654083824E8 ; 5.457595939667E7 ; 4.003457542855977E9 ; 0.0
29 ; 2620014.6493805256 ; 2.0097574815592632E8 ; 5.717867213293149E7 ; 4.2044262793968153E9 ; 0.0
30 ; 2639063.8971934505 ; 2.0098305735287362E8 ; 5.979868678231202E7 ; 4.405402027552742E9 ; 0.0
31 ; 2653554.3193644844 ; 2.0099065413626486E8 ; 6.243775067950547E7 ; 4.606385084905616E9 ; 0.0
32 ; 2666927.905979352 ; 2.0099852855445373E8 ; 6.5091304998869956E7 ; 4.807375739041881E9 ; 0.0
33 ; 2684135.826028653 ; 2.010066707370547E8 ; 6.77582329048493E7 ; 5.008374267596334E9 ; 0.0
34 ; 2698033.8466317197 ; 2.0101507092816055E8 ; 7.044236873087797E7 ; 5.209380938333389E9 ; 0.0
35 ; 2711002.516730383 ; 2.010237195153938E8 ; 7.314040257750969E7 ; 5.41039600926155E9 ; 0.0
36 ; 2724275.668710812 ; 2.0103260705495697E8 ; 7.585140509424007E7 ; 5.611419728776944E9 ; 0.0
37 ; 2736205.5682126386 ; 2.0104172429288873E8 ; 7.857568076295088E7 ; 5.812452335831902E9 ; 0.0
38 ; 2747276.117501993 ; 2.0105106218276533E8 ; 8.131188633116353E7 ; 6.01349406012479E9 ; 0.0
39 ; 2764862.0217895396 ; 2.01060611900107E8 ; 8.405916244866551E7 ; 6.214545122307555E9 ; 0.0
40 ; 2772422.169091205 ; 2.0107036485376215E8 ; 8.682402447045505E7 ; 6.415605734207663E9 ; 0.0
41 ; 2786504.904689567 ; 2.0108031269454494E8 ; 8.959644663954626E7 ; 6.616676099061424E9 ; 0.0
42 ; 2799356.707037111 ; 2.0109044732140157E8 ; 9.238295154423583E7 ; 6.817756411755969E9 ; 0.0
43 ; 2807378.3328297315 ; 2.0110076088537228E8 ; 9.518230825127293E7 ; 7.018846859077371E9 ; 0.0
44 ; 2821387.5693009654 ; 2.0111124579160607E8 ; 9.798968658410266E7 ; 7.219947619962743E9 ; 0.0
45 ; 2827465.835158128 ; 2.011218946996709E8 ; 1.0081107415340362E8 ; 7.421058865754349E9 ; 0.0
46 ; 2835244.0014341082 ; 2.0113270052238694E8 ; 1.0363853998856175E8 ; 7.62218076045402E9 ; 0.0
47 ; 2839040.22992935 ; 2.0114365642339322E8 ; 1.0647378398999585E8 ; 7.823313460976406E9 ; 0.0
48 ; 2854776.2853692295 ; 2.0115475581364062E8 ; 1.093128242199252E8 ; 8.024457117399799E9 ; 0.0
49 ; 2860081.0263269194 ; 2.0116599234698722E8 ; 1.1216760050529443E8 ; 8.22561187321344E9 ; 0.0
50 ; 2865438.0180758685 ; 2.0117735991505358E8 ; 1.1502768153162135E8 ; 8.426777865560427E9 ; 0.0
51 ; 2872202.700861206 ; 2.0118885264148057E8 ; 1.1789311954969722E8 ; 8.627955225475481E9 ; 0.0
52 ; 2879442.045201211 ; 2.0120046487571478E8 ; 1.2076532225055842E8 ; 8.829144078116962E9 ; 0.0
53 ; 2887783.4157634615 ; 2.0121219118643343E8 ; 1.2364476429575963E8 ; 9.030344542992678E9 ; 0.0
54 ; 2893132.6030158736 ; 2.012240263547055E8 ; 1.265325477115231E8 ; 9.231556734179111E9 ; 0.0
55 ; 2898599.751438321 ; 2.012359653669741E8 ; 1.2942568031453897E8 ; 9.432780760533817E9 ; 0.0
56 ; 2904601.291137369 ; 2.0124800340793288E8 ; 1.3232428006597729E8 ; 9.634016725900791E9 ; 0.0
57 ; 2908738.3702815864 ; 2.0126013585335964E8 ; 1.3522888135711467E8 ; 9.835264729308723E9 ; 0.0
58 ; 2917608.859255656 ; 2.0127235826295945E8 ; 1.3813761972739625E8 ; 1.0036524865162083E10 ; 0.0
59 ; 2919232.0774822417 ; 2.0128466637326297E8 ; 1.410552285866519E8 ; 1.0237797223425041E10 ; 0.0
60 ; 2928381.468969678 ; 2.012970560906164E8 ; 1.4397446066413414E8 ; 1.0439081889798304E10 ; 0.0
61 ; 2934694.0174678485 ; 2.0130952348429453E8 ; 1.4690284213310382E8 ; 1.064037894588892E10 ; 0.0
62 ; 2940444.658904783 ; 2.0132206477976114E8 ; 1.4983753615057167E8 ; 1.0841688469373215E10 ; 0.0
63 ; 2942312.073614639 ; 2.0133467635209656E8 ; 1.5277798080947646E8 ; 1.1043010534152975E10 ; 0.0
64 ; 2948458.2510233726 ; 2.0134735471960828E8 ; 1.557202928830911E8 ; 1.1244345210505072E10 ; 0.0
65 ; 2952358.8664862164 ; 2.013600965376355E8 ; 1.5866875113411447E8 ; 1.144569256522468E10 ; 0.0
66 ; 2962419.020161719 ; 2.013728985925563E8 ; 1.616211100006007E8 ; 1.1647052661762316E10 ; 0.0
67 ; 2964559.3376662126 ; 2.0138575779600275E8 ; 1.645835290207624E8 ; 1.1848425560354872E10 ; 0.0
68 ; 2968270.3407060215 ; 2.013986711792871E8 ; 1.6754808835842863E8 ; 1.2049811318150875E10 ; 0.0
69 ; 2973868.986400686 ; 2.0141163588804024E8 ; 1.7051635869913465E8 ; 1.2251209989330162E10 ; 0.0
70 ; 2981841.3761730017 ; 2.0142464917706147E8 ; 1.7349022768553534E8 ; 1.2452621625218203E10 ; 0.0
71 ; 2982455.4453256703 ; 2.014377084053781E8 ; 1.7647206906170833E8 ; 1.2654046274395264E10 ; 0.0
72 ; 2988164.473988739 ; 2.0145081103151166E8 ; 1.79454524507034E8 ; 1.2855483982800642E10 ; 0.0
73 ; 2997402.0155178388 ; 2.0146395460894623E8 ; 1.8244268898102275E8 ; 1.3056934793832153E10 ; 0.0
74 ; 2998049.818487712 ; 2.0147713678179485E8 ; 1.8544009099654058E8 ; 1.32583987484411E10 ; 0.0
75 ; 3001463.7308362667 ; 2.0149035528065822E8 ; 1.8843814081502828E8 ; 1.3459875885222895E10 ; 0.0
76 ; 3007877.777365597 ; 2.015036079186699E8 ; 1.9143960454586455E8 ; 1.3661366240503553E10 ; 0.0
77 ; 3010526.41907477 ; 2.015168925877224E8 ; 1.9444748232323015E8 ; 1.3862869848422224E10 ; 0.0
78 ; 3013878.8469262766 ; 2.0153020725486714E8 ; 1.9745800874230492E8 ; 1.4064386741009947E10 ; 0.0
79 ; 3008770.722099006 ; 2.0154354995888275E8 ; 2.004718875892312E8 ; 1.4265916948264814E10 ; 0.0
80 ; 3014407.256959927 ; 2.0155691880700433E8 ; 2.034806583113302E8 ; 1.4467460498223698E10 ; 0.0
81 ; 3016248.9224923197 ; 2.015703119718078E8 ; 2.064950655682901E8 ; 1.4669017417030703E10 ; 0.0
82 ; 3013720.370709624 ; 2.0158372768824285E8 ; 2.0951131449078244E8 ; 1.487058772900251E10 ; 0.0
83 ; 3011240.725883871 ; 2.015971642508077E8 ; 2.1252503486149207E8 ; 1.5072171456690752E10 ; 0.0
84 ; 3012250.4871656317 ; 2.0161062001086003E8 ; 2.1553627558737594E8 ; 1.5273768620941559E10 ; 0.0
85 ; 3015483.1012606304 ; 2.016240933740575E8 ; 2.1854852607454157E8 ; 1.547537924095242E10 ; 0.0
86 ; 3015601.3316947185 ; 2.0163758279792237E8 ; 2.215640091758022E8 ; 1.5677003334326477E10 ; 0.0
87 ; 3015576.566702228 ; 2.0165108678952405E8 ; 2.2457961050749692E8 ; 1.58786409171244E10 ; 0.0
88 ; 3015007.7723736055 ; 2.0166460390327418E8 ; 2.2759518707419914E8 ; 1.6080292003913923E10 ; 0.0
89 ; 3016878.31532164 ; 2.0167813273882923E8 ; 2.3061019484657276E8 ; 1.6281956607817198E10 ; 0.0
90 ; 3011849.347394441 ; 2.0169167193909475E8 ; 2.336270731618944E8 ; 1.6483634740556026E10 ; 0.0
91 ; 3013632.6447282834 ; 2.01705220188327E8 ; 2.3663892250928885E8 ; 1.6685326412495121E10 ; 0.0
92 ; 3014753.157914869 ; 2.017187762103267E8 ; 2.3965255515401712E8 ; 1.6887031632683449E10 ; 0.0
93 ; 3012043.5455992776 ; 2.0173233876672065E8 ; 2.42667308311932E8 ; 1.7088750408893776E10 ; 0.0
94 ; 3007560.2100111353 ; 2.0174590665532687E8 ; 2.4567935185753128E8 ; 1.7290482747660496E10 ; 0.0
95 ; 3010924.2959833196 ; 2.0175947870859864E8 ; 2.486869120675424E8 ; 1.7492228654315823E10 ; 0.0
96 ; 3006609.6837071544 ; 2.0177305379214427E8 ; 2.5169783636352572E8 ; 1.769398813302442E10 ; 0.0
97 ; 3005571.206323187 ; 2.0178663080331814E8 ; 2.5470444604723287E8 ; 1.7895761186816566E10 ; 0.0
98 ; 3005814.9169234154 ; 2.018002086698795E8 ; 2.5771001725355604E8 ; 1.8097547817619884E10 ; 0.0
99 ; 3001071.9134275476 ; 2.0181378634871614E8 ; 2.6071583217047945E8 ; 1.8299348026289764E10 ; 0.0
100 ; 3001378.193854468 ; 2.0182736282462886E8 ; 2.63716904083907E8 ; 1.850116181263848E10 ; 0.0
101 ; 3000777.689215421 ; 2.0184093710917434E8 ; 2.667182822777615E8 ; 1.870298917546311E10 ; 0.0
102 ; 3002970.1583620314 ; 2.0185450823956305E8 ; 2.697190599669769E8 ; 1.8904830112572285E10 ; 0.0
103 ; 2997526.418631836 ; 2.018680752776095E8 ; 2.727220301253389E8 ; 1.9106684620811848E10 ; 0.0
104 ; 2998363.839105596 ; 2.0188163730873236E8 ; 2.7571955654397076E8 ; 1.930855269608946E10 ; 0.0
105 ; 2993773.2283899104 ; 2.0189519344100162E8 ; 2.7871792038307637E8 ; 1.951043433339819E10 ; 0.0
106 ; 2994743.6975332825 ; 2.0190874280423072E8 ; 2.817116936114663E8 ; 1.971232952683919E10 ; 0.0
107 ; 2990148.1743146405 ; 2.0192228454911104E8 ; 2.847064373089996E8 ; 1.991423826964342E10 ; 0.0
108 ; 2987980.7170762056 ; 2.01935817846387E8 ; 2.876965854833142E8 ; 2.011616055419253E10 ; 0.0
109 ; 2988091.0915176054 ; 2.0194934188606933E8 ; 2.906845662003904E8 ; 2.0318096372038918E10 ; 0.0
110 ; 2987339.5709142196 ; 2.01962855876685E8 ; 2.93672657291908E8 ; 2.0520045713924988E10 ; 0.0
111 ; 2979678.3020246583 ; 2.0197635904456156E8 ; 2.9665999686282223E8 ; 2.0722008569801674E10 ; 0.0
112 ; 2981147.15809312 ; 2.0198985063314447E8 ; 2.996396751648469E8 ; 2.0923984928846237E10 ; 0.0
113 ; 2978987.682315222 ; 2.020033299023456E8 ; 3.0262082232294E8 ; 2.112597477947938E10 ; 0.0
114 ; 2978206.927503286 ; 2.020167961279215E8 ; 3.055998100052552E8 ; 2.1327978109381725E10 ; 0.0
115 ; 2971677.8943779324 ; 2.0203024860087976E8 ; 3.085780169327585E8 ; 2.1529994905509647E10 ; 0.0
116 ; 2973695.1432942147 ; 2.0204368662691233E8 ; 3.1154969482713646E8 ; 2.1732025154110527E10 ; 0.0
117 ; 2969359.8666036204 ; 2.0205710952585414E8 ; 3.145233899704307E8 ; 2.193406884073744E10 ; 0.0
118 ; 2965503.631467741 ; 2.0207051663116616E8 ; 3.174927498370343E8 ; 2.2136125950263294E10 ; 0.0
119 ; 2959912.800536849 ; 2.0208390728944132E8 ; 3.2045825346850204E8 ; 2.233819646689446E10 ; 0.0
120 ; 2962069.2151251715 ; 2.0209728085993248E8 ; 3.234181662690389E8 ; 2.25402803741839E10 ; 0.0
121 ; 2957559.724988775 ; 2.0211063671410117E8 ; 3.2638023548416406E8 ; 2.274237765504383E10 ; 0.0
122 ; 2951766.459324059 ; 2.0212397423518625E8 ; 3.293377952091528E8 ; 2.294448829175793E10 ; 0.0
123 ; 2948226.498282786 ; 2.0213729281779137E8 ; 3.322895616684769E8 ; 2.314661226599312E10 ; 0.0
124 ; 2946296.0341023616 ; 2.021505918674905E8 ; 3.3523778816675967E8 ; 2.334874955881091E10 ; 0.0
125 ; 2944421.9771078215 ; 2.021638708004504E8 ; 3.3818408420086205E8 ; 2.35509001506784E10 ; 0.0
126 ; 2938264.8356372262 ; 2.0217712904306963E8 ; 3.411285061779699E8 ; 2.3753064021478848E10 ; 0.0
127 ; 2936302.0701595857 ; 2.0219036603163287E8 ; 3.440667710136071E8 ; 2.3955241150521915E10 ; 0.0
128 ; 2933149.420121793 ; 2.0220358121198013E8 ; 3.470030730837667E8 ; 2.4157431516553547E10 ; 0.0
129 ; 2929121.52347248 ; 2.0221677403919E8 ; 3.499362225038885E8 ; 2.4359635097765526E10 ; 0.0
130 ; 2921898.431525375 ; 2.0222994397727633E8 ; 3.52865344027361E8 ; 2.4561851871804714E10 ; 0.0
131 ; 2913523.019175708 ; 2.022430904988978E8 ; 3.557872424588863E8 ; 2.476408181578199E10 ; 0.0
132 ; 2906558.6079852274 ; 2.0225621308507958E8 ; 3.5870076547806203E8 ; 2.4966324906280888E10 ; 0.0
133 ; 2902078.908391517 ; 2.022693112249466E8 ; 3.6160732408604723E8 ; 2.5168581119365967E10 ; 0.0
134 ; 2888980.731268245 ; 2.0228238441546798E8 ; 3.6450940299443877E8 ; 2.537085043059091E10 ; 0.0
135 ; 2884908.330609677 ; 2.0229543216121224E8 ; 3.67398383725707E8 ; 2.557313281500638E10 ; 0.0
136 ; 2875918.803271291 ; 2.0230845397411212E8 ; 3.702832920563167E8 ; 2.577542824716759E10 ; 0.0
137 ; 2868327.8740959787 ; 2.0232144937323958E8 ; 3.7315921085958797E8 ; 2.5977736701141705E10 ; 0.0
138 ; 2855774.8656733045 ; 2.023344178845896E8 ; 3.7602753873368394E8 ; 2.6180058150514946E10 ; 0.0
139 ; 2847965.50946346 ; 2.0234735904087317E8 ; 3.7888331359935725E8 ; 2.6382392568399536E10 ; 0.0
140 ; 2842189.3974536615 ; 2.0236027238131812E8 ; 3.8173127910882074E8 ; 2.658473992744041E10 ; 0.0
141 ; 2836683.7072868734 ; 2.0237315745147863E8 ; 3.845734685062744E8 ; 2.6787100199821728E10 ; 0.0
142 ; 2825857.603508361 ; 2.0238601380305177E8 ; 3.874101522135613E8 ; 2.6989473357273205E10 ; 0.0
143 ; 2819700.2980584204 ; 2.0239884099370196E8 ; 3.9023600981706965E8 ; 2.7191859371076256E10 ; 0.0
144 ; 2812346.3720955416 ; 2.0241163858689186E8 ; 3.9305571011512804E8 ; 2.7394258212069958E10 ; 0.0
145 ; 2808432.1192180975 ; 2.0242440615172037E8 ; 3.9586805648722357E8 ; 2.759666985065685E10 ; 0.0
146 ; 2804094.96706604 ; 2.024371432627669E8 ; 3.986764886064417E8 ; 2.779909425680857E10 ; 0.0
147 ; 2797403.030649963 ; 2.0244984949994162E8 ; 4.014805835735077E8 ; 2.800153140007134E10 ; 0.0
148 ; 2796860.9987224224 ; 2.0246252444834182E8 ; 4.042779866041577E8 ; 2.820398124957128E10 ; 0.0
149 ; 2787316.5497463136 ; 2.0247516769811365E8 ; 4.070748476028801E8 ; 2.8406443774019623E10 ; 0.0
150 ; 2787285.5773815415 ; 2.0248777884431937E8 ; 4.0986216415262645E8 ; 2.8608918941717735E10 ; 0.0
151 ; 2779237.1592208142 ; 2.0250035748680973E8 ; 4.12649449730008E8 ; 2.8811406720562054E10 ; 0.0
152 ; 2776543.397224834 ; 2.0251290323010102E8 ; 4.154286868892288E8 ; 2.9013907078048862E10 ; 0.0
153 ; 2772406.740445974 ; 2.025254156832573E8 ; 4.1820523028645366E8 ; 2.9216419981278965E10 ; 0.0
154 ; 2769889.750940382 ; 2.0253789445977658E8 ; 4.2097763702689964E8 ; 2.9418945396962223E10 ; 0.0
155 ; 2766422.2932161596 ; 2.0255033917748186E8 ; 4.2374752677784E8 ; 2.9621483291422E10 ; 0.0
156 ; 2759079.652552763 ; 2.0256274945841584E8 ; 4.265139490710562E8 ; 2.9824033630599483E10 ; 0.0
157 ; 2757655.4527939283 ; 2.025751249287399E8 ; 4.29273028723609E8 ; 3.00265963800579E10 ; 0.0
158 ; 2757697.8455150803 ; 2.0258746521863687E8 ; 4.320306841764029E8 ; 3.022917150498664E10 ; 0.0
159 ; 2744831.0962467534 ; 2.0259976996221718E8 ; 4.34788382021918E8 ; 3.0431758970205276E10 ; 0.0
160 ; 2745249.1544761807 ; 2.0261203879742888E8 ; 4.375332131181648E8 ; 3.0634358740167492E10 ; 0.0
161 ; 2740601.5367528126 ; 2.0262427136597067E8 ; 4.4027846227264094E8 ; 3.083697077896492E10 ; 0.0
162 ; 2734415.120198905 ; 2.0263646731320852E8 ; 4.4301906380939376E8 ; 3.103959505033089E10 ; 0.0
163 ; 2727305.139328453 ; 2.026486262880949E8 ; 4.4575347892959267E8 ; 3.12422315176441E10 ; 0.0
164 ; 2728491.75188163 ; 2.0266074794309145E8 ; 4.4848078406892115E8 ; 3.1444880143932194E10 ; 0.0
165 ; 2725543.9775255616 ; 2.0267283193409413E8 ; 4.512092758208028E8 ; 3.1647540891875286E10 ; 0.0
166 ; 2718587.457064073 ; 2.0268487792036146E8 ; 4.5393481979832834E8 ; 3.185021372380938E10 ; 0.0
167 ; 2714474.2336635124 ; 2.026968855644449E8 ; 4.5665340725539243E8 ; 3.205289860172974E10 ; 0.0
168 ; 2712503.2715460937 ; 2.0270885453212228E8 ; 4.5936788148905593E8 ; 3.2255595487294186E10 ; 0.0
169 ; 2707813.9053818695 ; 2.0272078449233326E8 ; 4.62080384760602E8 ; 3.245830434182631E10 ; 0.0
170 ; 2705149.747140466 ; 2.027326751171173E8 ; 4.6478819866598386E8 ; 3.266102512631864E10 ; 0.0
171 ; 2697003.51062152 ; 2.0274452608155376E8 ; 4.674933484131243E8 ; 3.286375780143576E10 ; 0.0
172 ; 2694776.6732296688 ; 2.027563370637043E8 ; 4.701903519237459E8 ; 3.3066502327517315E10 ; 0.0
173 ; 2691314.6202272987 ; 2.0276810774455714E8 ; 4.7288512859697556E8 ; 3.326925866458102E10 ; 0.0
174 ; 2685711.8006307734 ; 2.0277983780797353E8 ; 4.7557644321720284E8 ; 3.3472026772325577E10 ; 0.0
175 ; 2683076.2082184716 ; 2.027915269406359E8 ; 4.782621550178336E8 ; 3.367480661013355E10 ; 0.0
176 ; 2679524.576443744 ; 2.02803174831998E8 ; 4.8094523122605205E8 ; 3.3877598137074184E10 ; 0.0
177 ; 2677771.2064130884 ; 2.0281478117423677E8 ; 4.836247558024958E8 ; 3.408040131190618E10 ; 0.0
178 ; 2673763.832905851 ; 2.0282634566220593E8 ; 4.8630252700890887E8 ; 3.4283216093080418E10 ; 0.0
179 ; 2667210.0858955467 ; 2.0283786799339113E8 ; 4.889762908418147E8 ; 3.448604243874262E10 ; 0.0
180 ; 2666682.241387626 ; 2.0284934786786672E8 ; 4.9164350092771024E8 ; 3.4688880306736015E10 ; 0.0
181 ; 2665295.7030630787 ; 2.0286078498825407E8 ; 4.9431018316909784E8 ; 3.489172965460388E10 ; 0.0
182 ; 2662378.4098793846 ; 2.028721790596813E8 ; 4.969754788721609E8 ; 3.509459043959213E10 ; 0.0
183 ; 2660432.609807775 ; 2.028835297897444E8 ; 4.996378572820403E8 ; 3.529746261865182E10 ; 0.0
184 ; 2659528.1289187106 ; 2.0289483688846976E8 ; 5.022982898918481E8 ; 3.550034614844156E10 ; 0.0
185 ; 2655916.4711072124 ; 2.0290610006827796E8 ; 5.049578180207668E8 ; 3.570324098533003E10 ; 0.0
186 ; 2655163.909716327 ; 2.029173190439489E8 ; 5.07613734491874E8 ; 3.590614708539831E10 ; 0.0
187 ; 2652435.9750147 ; 2.0292849353258786E8 ; 5.102688984015903E8 ; 3.610906440444225E10 ; 0.0
188 ; 2647101.608825913 ; 2.0293962325359318E8 ; 5.12921334376605E8 ; 3.631199289797484E10 ; 0.0
189 ; 2646827.0444955663 ; 2.0295070792862466E8 ; 5.155684359854309E8 ; 3.651493252122843E10 ; 0.0
190 ; 2639298.136805092 ; 2.0296174728157324E8 ; 5.182152630299265E8 ; 3.671788322915706E10 ; 0.0
191 ; 2637966.9156871513 ; 2.029727410385317E8 ; 5.208545611667316E8 ; 3.692084497643863E10 ; 0.0
192 ; 2634538.4321769923 ; 2.029836889277663E8 ; 5.2349252808241874E8 ; 3.712381771747716E10 ; 0.0
193 ; 2631166.1920654047 ; 2.029945906796894E8 ; 5.2612706651459575E8 ; 3.732680140640492E10 ; 0.0
194 ; 2630647.8410724755 ; 2.030054460268332E8 ; 5.2875823270666116E8 ; 3.752979599708461E10 ; 0.0
195 ; 2625502.7269755686 ; 2.0301625470382413E8 ; 5.3138888054773366E8 ; 3.773280144311144E10 ; 0.0
196 ; 2620901.5979654887 ; 2.0302701644735813E8 ; 5.340143832747092E8 ; 3.793581769781527E10 ; 0.0
197 ; 2620063.713509455 ; 2.0303773099617702E8 ; 5.366352848726747E8 ; 3.813884471426263E10 ; 0.0
198 ; 2616736.453867177 ; 2.030483980910454E8 ; 5.392553485861841E8 ; 3.8341882445258804E10 ; 0.0
199 ; 2612640.760425382 ; 2.0305901747472858E8 ; 5.418720850400513E8 ; 3.854493084334985E10 ; 0.0
200 ; 2612107.386929847 ; 2.0306958889197087E8 ; 5.444847258004767E8 ; 3.8747989860824585E10 ; 0.0
