CSV File for the City 4 on Day 68
1 - Minute m 
2 - Power Consumed at minute m 
3 - Power Produced at minute m 
4 - Energy Consumed since the beginning of the day 
5 - Energy Produced since the beginning of the day 
6 - Energy Lost since the beginning of the day on lines starting from the city
 
0 ; 6806853.810843189 ; 1.0602358267824623E8 ; 0.0 ; 0.0 ; 0.0
1 ; 6812783.415818098 ; 1.0617398383402365E8 ; 6806853.810843189 ; 1.0602358267824623E8 ; 0.0
2 ; 6823525.3835820975 ; 1.0663342353578952E8 ; 1.3619637226661287E7 ; 2.1219756651226988E8 ; 0.0
3 ; 6830098.6713587595 ; 1.0740190697507417E8 ; 2.0443162610243384E7 ; 3.188309900480594E8 ; 0.0
4 ; 6844475.093464246 ; 1.0847943882245433E8 ; 2.7273261281602144E7 ; 4.262328970231336E8 ; 0.0
5 ; 6853964.69134945 ; 1.098660231956541E8 ; 3.411773637506639E7 ; 5.347123358455879E8 ; 0.0
6 ; 6868391.867406129 ; 1.1156166363074628E8 ; 4.097170106641584E7 ; 6.44578359041242E8 ; 0.0
7 ; 6889497.253282353 ; 1.1356636305691499E8 ; 4.784009293382197E7 ; 7.561400226719882E8 ; 0.0
8 ; 6922104.89652706 ; 1.1588012377519137E8 ; 5.472959018710432E7 ; 8.697063857289033E8 ; 0.0
9 ; 6972365.451706479 ; 1.1850294744152254E8 ; 6.165169508363138E7 ; 9.855865095040946E8 ; 0.0
10 ; 7051263.803414551 ; 1.2143483505446178E8 ; 6.862406053533787E7 ; 1.1040894569456172E9 ; 0.0
11 ; 7173200.729453649 ; 1.246757869476954E8 ; 7.567532433875242E7 ; 1.225524292000079E9 ; 0.0
12 ; 7373697.069898775 ; 1.2822580278753707E8 ; 8.284852506820607E7 ; 1.3502000789477744E9 ; 0.0
13 ; 7561095.562510168 ; 1.320848815754335E8 ; 9.022222213810484E7 ; 1.4784258817353115E9 ; 0.0
14 ; 7587990.312714029 ; 1.3625302165543765E8 ; 9.7783317700615E7 ; 1.610510763310745E9 ; 0.0
15 ; 7595726.338737141 ; 1.4073022072651827E8 ; 1.0537130801332903E8 ; 1.7467637849661827E9 ; 0.0
16 ; 7603928.744499634 ; 1.4551647585949138E8 ; 1.1296703435206617E8 ; 1.8874940056927009E9 ; 0.0
17 ; 7612378.1322842715 ; 1.5061178351828405E8 ; 1.2057096309656581E8 ; 2.0330104815521922E9 ; 0.0
18 ; 7620306.804755814 ; 1.5601613958517224E8 ; 1.2818334122885008E8 ; 2.183622265070476E9 ; 0.0
19 ; 7628742.196256609 ; 1.617295393895792E8 ; 1.358036480336059E8 ; 2.339638404655648E9 ; 0.0
20 ; 7638602.788327497 ; 1.677519777399746E8 ; 1.434323902298625E8 ; 2.5013679440452275E9 ; 0.0
21 ; 7648633.922662718 ; 1.740834489583839E8 ; 1.5107099301819E8 ; 2.669119921785202E9 ; 0.0
22 ; 7656178.464986498 ; 1.807239469169975E8 ; 1.587196269408527E8 ; 2.843203370743586E9 ; 0.0
23 ; 7662128.77466165 ; 1.876734650763632E8 ; 1.663758054058392E8 ; 3.0239273176605835E9 ; 0.0
24 ; 7674457.452804184 ; 1.949319965246507E8 ; 1.7403793418050086E8 ; 3.2116007827369466E9 ; 0.0
25 ; 7682645.676778511 ; 2.0118757491567758E8 ; 1.8171239163330504E8 ; 3.406532779261597E9 ; 0.0
26 ; 7689919.903812576 ; 2.011937405457559E8 ; 1.8939503731008357E8 ; 3.6077203541772747E9 ; 0.0
27 ; 7696883.245405187 ; 2.0120025491822085E8 ; 1.9708495721389616E8 ; 3.8089140947230306E9 ; 0.0
28 ; 7706133.931498016 ; 2.0120711002910712E8 ; 2.0478184045930135E8 ; 4.0101143496412516E9 ; 0.0
29 ; 7714708.915653508 ; 2.01214297698227E8 ; 2.1248797439079937E8 ; 4.2113214596703587E9 ; 0.0
30 ; 7725571.33747562 ; 2.0122180960562813E8 ; 2.2020268330645287E8 ; 4.412535757368586E9 ; 0.0
31 ; 7730459.614818839 ; 2.01229637326422E8 ; 2.279282546439285E8 ; 4.613757566974214E9 ; 0.0
32 ; 7735898.630784788 ; 2.0123777236377552E8 ; 2.3565871425874734E8 ; 4.814987204300635E9 ; 0.0
33 ; 7749159.453573695 ; 2.0124620617990634E8 ; 2.4339461288953212E8 ; 5.016224976664411E9 ; 0.0
34 ; 7756576.938345879 ; 2.012549302249661E8 ; 2.5114377234310582E8 ; 5.2174711828443165E9 ; 0.0
35 ; 7763366.239052249 ; 2.0126393596373728E8 ; 2.589003492814517E8 ; 5.418726113069283E9 ; 0.0
36 ; 7769422.773536351 ; 2.0127321490010658E8 ; 2.6666371552050394E8 ; 5.61999004903302E9 ; 0.0
37 ; 7776248.200197481 ; 2.0128275859931162E8 ; 2.7443313829404026E8 ; 5.821263263933126E9 ; 0.0
38 ; 7783237.563930194 ; 2.0129255870798618E8 ; 2.822093864942377E8 ; 6.022546022532438E9 ; 0.0
39 ; 7787596.0036008125 ; 2.0130260697205478E8 ; 2.8999262405816793E8 ; 6.223838581240424E9 ; 0.0
40 ; 7796344.3868632745 ; 2.013128952525473E8 ; 2.977802200617688E8 ; 6.425141188212479E9 ; 0.0
41 ; 7799594.808744962 ; 2.0132341553942105E8 ; 3.0557656444863206E8 ; 6.626454083465026E9 ; 0.0
42 ; 7806066.481709881 ; 2.0133415996349108E8 ; 3.13376159257377E8 ; 6.827777499004447E9 ; 0.0
43 ; 7811089.406692042 ; 2.013451208065779E8 ; 3.211822257390869E8 ; 7.029111658967938E9 ; 0.0
44 ; 7814051.572074116 ; 2.0135629050998917E8 ; 3.2899331514577895E8 ; 7.230456779774516E9 ; 0.0
45 ; 7815571.333424525 ; 2.013676616814548E8 ; 3.3680736671785307E8 ; 7.431813070284505E9 ; 0.0
46 ; 7823782.670950631 ; 2.0137922710063648E8 ; 3.446229380512776E8 ; 7.63318073196596E9 ; 0.0
47 ; 7826407.656888134 ; 2.013909797233321E8 ; 3.524467207222282E8 ; 7.834559959066596E9 ; 0.0
48 ; 7830490.407677381 ; 2.0140291268449306E8 ; 3.6027312837911636E8 ; 8.035950938789928E9 ; 0.0
49 ; 7831567.738755455 ; 2.0141501930016908E8 ; 3.681036187867937E8 ; 8.2373538514744215E9 ; 0.0
50 ; 7833765.778516764 ; 2.014272930684903E8 ; 3.759351865255492E8 ; 8.4387688707745905E9 ; 0.0
51 ; 7838720.2640598565 ; 2.014397276697912E8 ; 3.8376895230406594E8 ; 8.64019616384308E9 ; 0.0
52 ; 7838819.082705543 ; 2.0145231696597522E8 ; 3.916076725681258E8 ; 8.84163589151287E9 ; 0.0
53 ; 7840956.797319816 ; 2.01465054999212E8 ; 3.9944649165083134E8 ; 9.043088208478846E9 ; 0.0
54 ; 7843191.073039018 ; 2.0147793599005347E8 ; 4.072874484481512E8 ; 9.244553263478058E9 ; 0.0
55 ; 7846516.561315813 ; 2.0149095433504826E8 ; 4.1513063952119017E8 ; 9.446031199468111E9 ; 0.0
56 ; 7847632.491847973 ; 2.01504104603927E8 ; 4.22977156082506E8 ; 9.64752215380316E9 ; 0.0
57 ; 7849653.920264598 ; 2.015173815364256E8 ; 4.30824788574354E8 ; 9.849026258407087E9 ; 0.0
58 ; 7850448.352872958 ; 2.015307800388069E8 ; 4.386744424946186E8 ; 1.0050543639943512E10 ; 0.0
59 ; 7853010.716079838 ; 2.0154429518013555E8 ; 4.4652489084749156E8 ; 1.0252074419982319E10 ; 0.0
60 ; 7852761.126764753 ; 2.015579221883553E8 ; 4.543779015635714E8 ; 1.0453618715162455E10 ; 0.0
61 ; 7856310.757032586 ; 2.0157165644621292E8 ; 4.6223066269033617E8 ; 1.065517663735081E10 ; 0.0
62 ; 7857563.4549735375 ; 2.015854934870681E8 ; 4.7008697344736874E8 ; 1.0856748293797022E10 ; 0.0
63 ; 7858849.574173832 ; 2.015994289906237E8 ; 4.7794453690234226E8 ; 1.105833378728409E10 ; 0.0
64 ; 7861120.772530932 ; 2.0161345877860773E8 ; 4.8580338647651607E8 ; 1.1259933216274714E10 ; 0.0
65 ; 7863455.362120758 ; 2.0162757881043315E8 ; 4.93664507249047E8 ; 1.1461546675053322E10 ; 0.0
66 ; 7862354.776401772 ; 2.0164178517885938E8 ; 5.015279626111677E8 ; 1.1663174253863754E10 ; 0.0
67 ; 7865959.402490635 ; 2.0165607410567558E8 ; 5.093903173875695E8 ; 1.1864816039042614E10 ; 0.0
68 ; 7864297.378064676 ; 2.0167044193742305E8 ; 5.172562767900601E8 ; 1.2066472113148289E10 ; 0.0
69 ; 7865172.608378989 ; 2.0168488514117143E8 ; 5.251205741681248E8 ; 1.2268142555085712E10 ; 0.0
70 ; 7867281.401229224 ; 2.0169940030036157E8 ; 5.329857467765038E8 ; 1.2469827440226883E10 ; 0.0
71 ; 7867348.180890145 ; 2.0171398411072508E8 ; 5.408530281777331E8 ; 1.2671526840527245E10 ; 0.0
72 ; 7867471.116523215 ; 2.01728633376289E8 ; 5.487203763586233E8 ; 1.287324082463797E10 ; 0.0
73 ; 7867893.24554225 ; 2.0174334500547338E8 ; 5.565878474751465E8 ; 1.307496945801426E10 ; 0.0
74 ; 7871323.519822135 ; 2.0175811600728574E8 ; 5.644557407206888E8 ; 1.3276712803019733E10 ; 0.0
75 ; 7870535.785266958 ; 2.0177294348761845E8 ; 5.72327064240511E8 ; 1.347847091902702E10 ; 0.0
76 ; 7872696.343350988 ; 2.0178782464565024E8 ; 5.801976000257779E8 ; 1.3680243862514637E10 ; 0.0
77 ; 7873156.725370652 ; 2.0180275677035552E8 ; 5.88070296369129E8 ; 1.3882031687160288E10 ; 0.0
78 ; 7871224.922497457 ; 2.018177372371217E8 ; 5.959434530944996E8 ; 1.4083834443930643E10 ; 0.0
79 ; 7866955.695501939 ; 2.0183276350447553E8 ; 6.038146780169971E8 ; 1.4285652181167765E10 ; 0.0
80 ; 7864505.500830477 ; 2.018478331109181E8 ; 6.11681633712499E8 ; 1.448748494467224E10 ; 0.0
81 ; 7863048.318510704 ; 2.0186294367186815E8 ; 6.195461392133296E8 ; 1.4689332777783157E10 ; 0.0
82 ; 7861080.131387774 ; 2.0187809287671226E8 ; 6.274091875318402E8 ; 1.4891195721455025E10 ; 0.0
83 ; 7860544.893739997 ; 2.018932784859605E8 ; 6.35270267663228E8 ; 1.5093073814331738E10 ; 0.0
84 ; 7856272.2973683765 ; 2.0190849832850605E8 ; 6.43130812556968E8 ; 1.5294967092817698E10 ; 0.0
85 ; 7853431.577005834 ; 2.0192375029898596E8 ; 6.509870848543364E8 ; 1.5496875591146204E10 ; 0.0
86 ; 7850123.514341624 ; 2.0193903235524186E8 ; 6.588405164313422E8 ; 1.569879934144519E10 ; 0.0
87 ; 7847917.648446652 ; 2.01954342515877E8 ; 6.666906399456838E8 ; 1.5900738373800432E10 ; 0.0
88 ; 7844738.772796103 ; 2.0196967885790795E8 ; 6.745385575941305E8 ; 1.6102692716316309E10 ; 0.0
89 ; 7842736.731510746 ; 2.0198503951450762E8 ; 6.823832963669267E8 ; 1.6304662395174217E10 ; 0.0
90 ; 7840635.508547281 ; 2.0200042267283744E8 ; 6.902260330984374E8 ; 1.6506647434688725E10 ; 0.0
91 ; 7837062.912394336 ; 2.020158265719653E8 ; 6.980666686069847E8 ; 1.6708647857361563E10 ; 0.0
92 ; 7833071.140393293 ; 2.0203124950086698E8 ; 7.05903731519379E8 ; 1.6910663683933529E10 ; 0.0
93 ; 7830112.139426427 ; 2.0204668979650778E8 ; 7.137368026597723E8 ; 1.7112694933434397E10 ; 0.0
94 ; 7825610.858855331 ; 2.020621458420019E8 ; 7.215669147991987E8 ; 1.7314741623230904E10 ; 0.0
95 ; 7819979.093511857 ; 2.0207761606484663E8 ; 7.293925256580541E8 ; 1.7516803769072906E10 ; 0.0
96 ; 7822514.579268082 ; 2.0209309893522874E8 ; 7.372125047515659E8 ; 1.7718881385137753E10 ; 0.0
97 ; 7818652.434676224 ; 2.0210859296439984E8 ; 7.45035019330834E8 ; 1.7920974484072983E10 ; 0.0
98 ; 7815823.561623345 ; 2.0212409670311913E8 ; 7.528536717655102E8 ; 1.8123083077037384E10 ; 0.0
99 ; 7809812.988211963 ; 2.0213960874015972E8 ; 7.606694953271335E8 ; 1.83252071737405E10 ; 0.0
100 ; 7807197.430257204 ; 2.0215512770087698E8 ; 7.684793083153455E8 ; 1.852734678248066E10 ; 0.0
101 ; 7803662.559441836 ; 2.021706522458359E8 ; 7.762865057456027E8 ; 1.8729501910181538E10 ; 0.0
102 ; 7800744.981923469 ; 2.0218618106949526E8 ; 7.840901683050445E8 ; 1.8931672562427372E10 ; 0.0
103 ; 7794203.698172991 ; 2.0220171289894643E8 ; 7.91890913286968E8 ; 1.913385874349687E10 ; 0.0
104 ; 7793061.532135475 ; 2.022172464927043E8 ; 7.99685116985141E8 ; 1.9336060456395813E10 ; 0.0
105 ; 7788882.389478837 ; 2.0223278063954833E8 ; 8.074781785172765E8 ; 1.9538277702888515E10 ; 0.0
106 ; 7787373.395969791 ; 2.0224831415741172E8 ; 8.152670609067553E8 ; 1.9740510483528065E10 ; 0.0
107 ; 7781747.384463168 ; 2.0226384589231658E8 ; 8.230544343027251E8 ; 1.994275879768548E10 ; 0.0
108 ; 7777510.712920295 ; 2.02279374717353E8 ; 8.308361816871883E8 ; 2.0145022643577793E10 ; 0.0
109 ; 7770217.195926656 ; 2.0229489953170058E8 ; 8.386136924001086E8 ; 2.0347302018295147E10 ; 0.0
110 ; 7769360.990971805 ; 2.0231041925969028E8 ; 8.463839095960352E8 ; 2.0549596917826847E10 ; 0.0
111 ; 7764643.74133967 ; 2.023259328499049E8 ; 8.54153270587007E8 ; 2.0751907337086536E10 ; 0.0
112 ; 7760627.735525395 ; 2.023414392743167E8 ; 8.619179143283467E8 ; 2.095423326993644E10 ; 0.0
113 ; 7752902.71970679 ; 2.0235693752746055E8 ; 8.696785420638721E8 ; 2.1156574709210754E10 ; 0.0
114 ; 7751534.135772369 ; 2.0237242662564072E8 ; 8.774314447835789E8 ; 2.1358931646738216E10 ; 0.0
115 ; 7746510.105248898 ; 2.0238790560617068E8 ; 8.851829789193512E8 ; 2.1561304073363857E10 ; 0.0
116 ; 7741277.276713812 ; 2.0240337352664334E8 ; 8.929294890246001E8 ; 2.1763691978970028E10 ; 0.0
117 ; 7735658.161714362 ; 2.0241882946423167E8 ; 9.00670766301314E8 ; 2.196609535249667E10 ; 0.0
118 ; 7732769.516917083 ; 2.024342725150172E8 ; 9.084064244630283E8 ; 2.2168514181960903E10 ; 0.0
119 ; 7728748.145765584 ; 2.024497017933464E8 ; 9.161391939799454E8 ; 2.237094845447592E10 ; 0.0
120 ; 7721963.798554548 ; 2.0246511643121237E8 ; 9.23867942125711E8 ; 2.2573398156269268E10 ; 0.0
121 ; 7716497.927391335 ; 2.024805155776622E8 ; 9.315899059242655E8 ; 2.277586327270048E10 ; 0.0
122 ; 7712542.516299791 ; 2.0249589839822775E8 ; 9.393064038516568E8 ; 2.2978343788278145E10 ; 0.0
123 ; 7705116.115159021 ; 2.0251126407437944E8 ; 9.470189463679566E8 ; 2.3180839686676373E10 ; 0.0
124 ; 7700668.455725257 ; 2.0252661180300176E8 ; 9.547240624831157E8 ; 2.338335095075075E10 ; 0.0
125 ; 7695808.493860202 ; 2.0254194079588997E8 ; 9.62424730938841E8 ; 2.3585877562553753E10 ; 0.0
126 ; 7690120.987046072 ; 2.025572502792666E8 ; 9.701205394327012E8 ; 2.3788419503349644E10 ; 0.0
127 ; 7685013.66682524 ; 2.0257253949331707E8 ; 9.778106604197474E8 ; 2.399097675362891E10 ; 0.0
128 ; 7679367.46014378 ; 2.0258780769174394E8 ; 9.854956740865726E8 ; 2.4193549293122227E10 ; 0.0
129 ; 7673091.297683285 ; 2.0260305414133856E8 ; 9.931750415467165E8 ; 2.4396137100813972E10 ; 0.0
130 ; 7666838.224952392 ; 2.0261827812156937E8 ; 1.0008481328443997E9 ; 2.459874015495531E10 ; 0.0
131 ; 7658021.851547597 ; 2.0263347892418662E8 ; 1.008514971069352E9 ; 2.480135843307688E10 ; 0.0
132 ; 7650880.8927955255 ; 2.0264865585284242E8 ; 1.0161729929208996E9 ; 2.500399191200107E10 ; 0.0
133 ; 7641440.075499446 ; 2.0266380822272533E8 ; 1.0238238738136952E9 ; 2.5206640567853912E10 ; 0.0
134 ; 7635458.566579996 ; 2.0267893536020947E8 ; 1.0314653138891946E9 ; 2.5409304376076637E10 ; 0.0
135 ; 7623989.794728597 ; 2.0269403660251686E8 ; 1.0391007724557745E9 ; 2.5611983311436848E10 ; 0.0
136 ; 7619443.092622583 ; 2.02709111297393E8 ; 1.0467247622505032E9 ; 2.5814677348039364E10 ; 0.0
137 ; 7608780.475521775 ; 2.0272415880279464E8 ; 1.0543442053431258E9 ; 2.6017386459336758E10 ; 0.0
138 ; 7600813.689506231 ; 2.027391784865897E8 ; 1.0619529858186476E9 ; 2.6220110618139553E10 ; 0.0
139 ; 7590250.439541991 ; 2.0275416972626853E8 ; 1.0695537995081538E9 ; 2.6422849796626144E10 ; 0.0
140 ; 7581945.886396096 ; 2.0276913190866607E8 ; 1.0771440499476957E9 ; 2.6625603966352413E10 ; 0.0
141 ; 7574234.148126557 ; 2.0278406442969453E8 ; 1.084725995834092E9 ; 2.6828373098261078E10 ; 0.0
142 ; 7565041.3235587515 ; 2.027989666940862E8 ; 1.0923002299822185E9 ; 2.7031157162690773E10 ; 0.0
143 ; 7554495.635244212 ; 2.028138381151459E8 ; 1.0998652713057773E9 ; 2.723395612938486E10 ; 0.0
144 ; 7548330.066995329 ; 2.028286781145126E8 ; 1.1074197669410214E9 ; 2.7436769967500008E10 ; 0.0
145 ; 7542661.495300548 ; 2.0284348612193E8 ; 1.1149680970080168E9 ; 2.763959864561452E10 ; 0.0
146 ; 7533118.617436211 ; 2.0285826157502568E8 ; 1.1225107585033174E9 ; 2.784244213173645E10 ; 0.0
147 ; 7527421.665147 ; 2.028730039190982E8 ; 1.1300438771207535E9 ; 2.8045300393311478E10 ; 0.0
148 ; 7521818.353534521 ; 2.028877126069124E8 ; 1.1375712987859006E9 ; 2.8248173397230576E10 ; 0.0
149 ; 7516022.147349102 ; 2.0290238709850183E8 ; 1.145093117139435E9 ; 2.8451061109837486E10 ; 0.0
150 ; 7511663.273323306 ; 2.0291702686097872E8 ; 1.1526091392867842E9 ; 2.865396349693599E10 ; 0.0
151 ; 7502735.078578085 ; 2.0293163136835068E8 ; 1.1601208025601075E9 ; 2.8856880523796967E10 ; 0.0
152 ; 7494267.663263839 ; 2.0294620010134423E8 ; 1.1676235376386855E9 ; 2.9059812155165318E10 ; 0.0
153 ; 7488406.95460744 ; 2.0296073254723462E8 ; 1.1751178053019493E9 ; 2.9262758355266663E10 ; 0.0
154 ; 7483201.634504527 ; 2.029752281996817E8 ; 1.1826062122565567E9 ; 2.9465719087813896E10 ; 0.0
155 ; 7477735.35859458 ; 2.0298968655857196E8 ; 1.1900894138910613E9 ; 2.9668694316013577E10 ; 0.0
156 ; 7471822.01023836 ; 2.0300410712986597E8 ; 1.197567149249656E9 ; 2.9871684002572147E10 ; 0.0
157 ; 7465406.062988432 ; 2.030184894254514E8 ; 1.2050389712598944E9 ; 3.0074688109702015E10 ; 0.0
158 ; 7458760.75385218 ; 2.0303283296300125E8 ; 1.212504377322883E9 ; 3.027770659912747E10 ; 0.0
159 ; 7451538.602489647 ; 2.0304713726583716E8 ; 1.219963138076735E9 ; 3.048073943209047E10 ; 0.0
160 ; 7444661.418308073 ; 2.0306140186279744E8 ; 1.2274146766792247E9 ; 3.0683786569356308E10 ; 0.0
161 ; 7436547.700411481 ; 2.0307562628810975E8 ; 1.2348593380975327E9 ; 3.0886847971219105E10 ; 0.0
162 ; 7431540.745242151 ; 2.030898100812685E8 ; 1.2422958857979443E9 ; 3.1089923597507214E10 ; 0.0
163 ; 7425980.142528011 ; 2.0310395278691614E8 ; 1.2497274265431864E9 ; 3.129301340758848E10 ; 0.0
164 ; 7417902.84073959 ; 2.0311805395472908E8 ; 1.2571534066857145E9 ; 3.1496117360375397E10 ; 0.0
165 ; 7411004.388939595 ; 2.0313211313930702E8 ; 1.264571309526454E9 ; 3.1699235414330124E10 ; 0.0
166 ; 7402015.069837372 ; 2.031461299000666E8 ; 1.2719823139153936E9 ; 3.190236752746943E10 ; 0.0
167 ; 7395578.401409498 ; 2.031601038011385E8 ; 1.279384328985231E9 ; 3.2105513657369495E10 ; 0.0
168 ; 7390431.234483749 ; 2.0317403441126806E8 ; 1.2867799073866403E9 ; 3.2308673761170635E10 ; 0.0
169 ; 7380281.390382636 ; 2.0318792130371946E8 ; 1.294170338621124E9 ; 3.25118477955819E10 ; 0.0
170 ; 7376293.512585882 ; 2.0320176405618307E8 ; 1.3015506200115066E9 ; 3.271503571688562E10 ; 0.0
171 ; 7371990.474468231 ; 2.0321556225068596E8 ; 1.3089269135240924E9 ; 3.2918237480941803E10 ; 0.0
172 ; 7360262.306434798 ; 2.0322931547350553E8 ; 1.3162989039985607E9 ; 3.312145304319249E10 ; 0.0
173 ; 7356932.000860005 ; 2.0324302331508604E8 ; 1.3236591663049955E9 ; 3.3324682358665997E10 ; 0.0
174 ; 7349588.640695567 ; 2.0325668536995786E8 ; 1.3310160983058555E9 ; 3.3527925381981083E10 ; 0.0
175 ; 7346686.19641648 ; 2.0327030123665977E8 ; 1.338365686946551E9 ; 3.373118206735104E10 ; 0.0
176 ; 7342176.944022827 ; 2.032838705176634E8 ; 1.3457123731429675E9 ; 3.39344523685877E10 ; 0.0
177 ; 7341116.657282245 ; 2.0329739281930056E8 ; 1.3530545500869904E9 ; 3.4137736239105362E10 ; 0.0
178 ; 7332812.32337055 ; 2.03310867751693E8 ; 1.3603956667442727E9 ; 3.4341033631924664E10 ; 0.0
179 ; 7331702.591657601 ; 2.0332429492868423E8 ; 1.3677284790676432E9 ; 3.454434449967635E10 ; 0.0
180 ; 7325782.751469493 ; 2.0333767396777394E8 ; 1.3750601816593008E9 ; 3.474766879460504E10 ; 0.0
181 ; 7321503.780969681 ; 2.033510044900544E8 ; 1.3823859644107704E9 ; 3.4951006468572815E10 ; 0.0
182 ; 7317026.819982598 ; 2.0336428612014905E8 ; 1.38970746819174E9 ; 3.515435747306287E10 ; 0.0
183 ; 7311328.756037679 ; 2.0337751848615298E8 ; 1.3970244950117226E9 ; 3.5357721759183014E10 ; 0.0
184 ; 7307496.742689294 ; 2.0339070121957573E8 ; 1.4043358237677603E9 ; 3.556109927766917E10 ; 0.0
185 ; 7304002.910631036 ; 2.0340383395528546E8 ; 1.4116433205104496E9 ; 3.576448997888874E10 ; 0.0
186 ; 7299041.824942675 ; 2.0341691633145535E8 ; 1.4189473234210806E9 ; 3.5967893812844025E10 ; 0.0
187 ; 7293083.928573843 ; 2.034299479895117E8 ; 1.4262463652460232E9 ; 3.617131072917548E10 ; 0.0
188 ; 7292340.349817517 ; 2.0344292857408345E8 ; 1.433539449174597E9 ; 3.637474067716499E10 ; 0.0
189 ; 7288047.67600779 ; 2.0345585773295373E8 ; 1.4408317895244145E9 ; 3.6578183605739075E10 ; 0.0
190 ; 7282204.571556601 ; 2.0346873511701268E8 ; 1.4481198372004223E9 ; 3.678163946347203E10 ; 0.0
191 ; 7278175.364803673 ; 2.0348156038021204E8 ; 1.4554020417719789E9 ; 3.698510819858904E10 ; 0.0
192 ; 7274045.32884116 ; 2.0349433317952096E8 ; 1.4626802171367826E9 ; 3.718858975896925E10 ; 0.0
193 ; 7270329.851033188 ; 2.035070531748835E8 ; 1.4699542624656239E9 ; 3.739208409214877E10 ; 0.0
194 ; 7266587.47343054 ; 2.035197200291773E8 ; 1.477224592316657E9 ; 3.7595591145323654E10 ; 0.0
195 ; 7261407.4351416025 ; 2.035323334081737E8 ; 1.4844911797900877E9 ; 3.779911086535283E10 ; 0.0
196 ; 7259896.134399919 ; 2.0354489298049903E8 ; 1.4917525872252293E9 ; 3.8002643198761E10 ; 0.0
197 ; 7251434.999365829 ; 2.035573984175973E8 ; 1.4990124833596292E9 ; 3.82061880917415E10 ; 0.0
198 ; 7246118.588184398 ; 2.0356984939369395E8 ; 1.506263918358995E9 ; 3.8409745490159096E10 ; 0.0
199 ; 7244592.7922227755 ; 2.0358224558576086E8 ; 1.5135100369471793E9 ; 3.861331533955279E10 ; 0.0
200 ; 7238428.457656554 ; 1.9060521536300102E8 ; 1.520754629739402E9 ; 3.881689758513855E10 ; 0.0
201 ; 7234421.1744592 ; 1.5476687912036633E8 ; 1.5279930581970587E9 ; 3.900750280050155E10 ; 0.0
