CSV File for the City 4 on Day 95
1 - Minute m 
2 - Power Consumed at minute m 
3 - Power Produced at minute m 
4 - Energy Consumed since the beginning of the day 
5 - Energy Produced since the beginning of the day 
6 - Energy Lost since the beginning of the day on lines starting from the city
 
0 ; 6850621.105622113 ; 1.0620610201536486E8 ; 0.0 ; 0.0 ; 0.0
1 ; 6855187.384236745 ; 1.0635665596352792E8 ; 6850621.105622113 ; 1.0620610201536486E8 ; 0.0
2 ; 6865921.538100053 ; 1.0681623605060765E8 ; 1.3705808489858858E7 ; 2.1256275797889277E8 ; 0.0
3 ; 6871194.051212351 ; 1.0758484630368948E8 ; 2.057173002795891E7 ; 3.193789940295004E8 ; 0.0
4 ; 6882238.777968532 ; 1.0866249033108753E8 ; 2.7442924079171263E7 ; 4.269638403331899E8 ; 0.0
5 ; 6896303.6216544835 ; 1.1004917130258024E8 ; 3.4325162857139796E7 ; 5.3562633066427743E8 ; 0.0
6 ; 6913377.253080851 ; 1.117448919317204E8 ; 4.122146647879428E7 ; 6.456755019668577E8 ; 0.0
7 ; 6935144.291941255 ; 1.137496544604463E8 ; 4.813484373187513E7 ; 7.57420393898578E8 ; 0.0
8 ; 6967725.593085474 ; 1.1606346064619595E8 ; 5.5069988023816384E7 ; 8.711700483590243E8 ; 0.0
9 ; 7015605.820176308 ; 1.1868631175169778E8 ; 6.203771361690186E7 ; 9.872335090052202E8 ; 0.0
10 ; 7094786.819041771 ; 1.216182085375756E8 ; 6.905331943707816E7 ; 1.105919820756918E9 ; 0.0
11 ; 7217767.79699657 ; 1.2485915125787064E8 ; 7.614810625611994E7 ; 1.2275380292944937E9 ; 0.0
12 ; 7417189.437033867 ; 1.2840913965854165E8 ; 8.33658740531165E7 ; 1.3523971805523643E9 ; 0.0
13 ; 7606358.081318045 ; 1.322681729789648E8 ; 9.078306349015036E7 ; 1.480806320210906E9 ; 0.0
14 ; 7630192.051538902 ; 1.3643624995641178E8 ; 9.838942157146841E7 ; 1.6130744931898708E9 ; 0.0
15 ; 7640582.515185776 ; 1.4091336883344442E8 ; 1.0601961362300731E8 ; 1.7495107431462827E9 ; 0.0
16 ; 7648055.479904217 ; 1.4569952736812457E8 ; 1.1366019613819309E8 ; 1.890424111979727E9 ; 0.0
17 ; 7660403.916550598 ; 1.5079472284689936E8 ; 1.213082516180973E8 ; 2.0361236393478515E9 ; 0.0
18 ; 7666174.526590775 ; 1.5619895209999037E8 ; 1.289686555346479E8 ; 2.186918362194751E9 ; 0.0
19 ; 7674547.613410048 ; 1.6191221151908347E8 ; 1.3663483006123868E8 ; 2.343117314294741E9 ; 0.0
20 ; 7687608.60373526 ; 1.679344970770932E8 ; 1.4430937767464873E8 ; 2.5050295258138247E9 ; 0.0
21 ; 7695544.983397308 ; 1.7426580434975353E8 ; 1.51996986278384E8 ; 2.672964022890918E9 ; 0.0
22 ; 7700294.892948331 ; 1.8090612853877413E8 ; 1.596925312617813E8 ; 2.847229827240671E9 ; 0.0
23 ; 7710801.532036717 ; 1.8785546449629158E8 ; 1.6739282615472963E8 ; 3.028135955779445E9 ; 0.0
24 ; 7718451.899911818 ; 1.951138067503407E8 ; 1.7510362768676636E8 ; 3.215991420275737E9 ; 0.0
25 ; 7726942.106583964 ; 2.0136919042925727E8 ; 1.8282207958667818E8 ; 3.4111052270260773E9 ; 0.0
26 ; 7738275.865484268 ; 2.0137515732527298E8 ; 1.9054902169326213E8 ; 3.6124744174553347E9 ; 0.0
27 ; 7744934.678597165 ; 2.0138147044634226E8 ; 1.982872975587464E8 ; 3.8138495747806077E9 ; 0.0
28 ; 7754633.526394959 ; 2.0138812328981936E8 ; 2.0603223223734355E8 ; 4.01523104522695E9 ; 0.0
29 ; 7766279.516201485 ; 2.0139510916236338E8 ; 2.137868657637385E8 ; 4.2166191685167694E9 ; 0.0
30 ; 7774138.7098657135 ; 2.0140242120614773E8 ; 2.2155314527994E8 ; 4.418014277679132E9 ; 0.0
31 ; 7777399.467646026 ; 2.0141005242443293E8 ; 2.2932728398980573E8 ; 4.619416698885281E9 ; 0.0
32 ; 7787417.315743281 ; 2.0141799570634055E8 ; 2.3710468345745176E8 ; 4.820826751309713E9 ; 0.0
33 ; 7796915.388088859 ; 2.0142624385068744E8 ; 2.4489210077319503E8 ; 5.022244747016054E9 ; 0.0
34 ; 7803687.175263893 ; 2.0143478958876333E8 ; 2.5268901616128388E8 ; 5.223670990866741E9 ; 0.0
35 ; 7814721.494214569 ; 2.0144362560595614E8 ; 2.6049270333654776E8 ; 5.425105780455504E9 ; 0.0
36 ; 7818656.347954577 ; 2.0145274456215224E8 ; 2.6830742483076233E8 ; 5.6265494060614605E9 ; 0.0
37 ; 7827120.150509093 ; 2.0146213911085743E8 ; 2.761260811787169E8 ; 5.828002150623612E9 ; 0.0
38 ; 7832873.424680159 ; 2.0147180191700533E8 ; 2.83953201329226E8 ; 6.029464289734469E9 ; 0.0
39 ; 7839955.317975804 ; 2.0148172567343524E8 ; 2.917860747539062E8 ; 6.230936091651475E9 ; 0.0
40 ; 7845945.603054745 ; 2.0149190311603886E8 ; 2.99626030071882E8 ; 6.43241781732491E9 ; 0.0
41 ; 7850842.152186682 ; 2.015023270375875E8 ; 3.074719756749368E8 ; 6.633909720440949E9 ; 0.0
42 ; 7857341.5025589205 ; 2.015129903002645E8 ; 3.1532281782712346E8 ; 6.835412047478537E9 ; 0.0
43 ; 7864043.062509223 ; 2.0152388584693727E8 ; 3.231801593296824E8 ; 7.036925037778801E9 ; 0.0
44 ; 7868718.141362055 ; 2.0153500671121162E8 ; 3.3104420239219165E8 ; 7.238448923625738E9 ; 0.0
45 ; 7870432.46173372 ; 2.0154634602631876E8 ; 3.389129205335537E8 ; 7.439983930336949E9 ; 0.0
46 ; 7875296.011052184 ; 2.0155789703288954E8 ; 3.467833529952874E8 ; 7.641530276363268E9 ; 0.0
47 ; 7884054.48338627 ; 2.015696530856758E8 ; 3.546586490063396E8 ; 7.843088173396157E9 ; 0.0
48 ; 7883142.023890079 ; 2.0158160765927982E8 ; 3.625427034897259E8 ; 8.044657826481833E9 ; 0.0
49 ; 7888198.648454658 ; 2.015937543529563E8 ; 3.7042584551361597E8 ; 8.246239434141113E9 ; 0.0
50 ; 7888121.060584442 ; 2.0160608689455047E8 ; 3.7831404416207063E8 ; 8.44783318849407E9 ; 0.0
51 ; 7893118.985951271 ; 2.0161859914363658E8 ; 3.8620216522265506E8 ; 8.64943927538862E9 ; 0.0
52 ; 7892584.1347452635 ; 2.0163128509391975E8 ; 3.940952842086063E8 ; 8.851057874532257E9 ; 0.0
53 ; 7896093.444267221 ; 2.0164413887496287E8 ; 4.0198786834335154E8 ; 9.052689159626177E9 ; 0.0
54 ; 7900256.8541883435 ; 2.0165715475329837E8 ; 4.0988396178761876E8 ; 9.25433329850114E9 ; 0.0
55 ; 7898793.794616532 ; 2.01670327132982E8 ; 4.177842186418071E8 ; 9.455990453254438E9 ; 0.0
56 ; 7902154.85912341 ; 2.0168365055564353E8 ; 4.256830124364236E8 ; 9.65766078038742E9 ; 0.0
57 ; 7907157.197385812 ; 2.0169711970008636E8 ; 4.33585167295547E8 ; 9.859344430943064E9 ; 0.0
58 ; 7910281.119507563 ; 2.0171072938148472E8 ; 4.414923244929328E8 ; 1.006104155064315E10 ; 0.0
59 ; 7912602.743490952 ; 2.0172447455022496E8 ; 4.4940260561244035E8 ; 1.0262752280024635E10 ; 0.0
60 ; 7914520.683877262 ; 2.0173835029043302E8 ; 4.573152083559313E8 ; 1.046447675457486E10 ; 0.0
61 ; 7914429.596563337 ; 2.0175235181822884E8 ; 4.652297290398086E8 ; 1.0666215104865294E10 ; 0.0
62 ; 7919256.340094349 ; 2.017664744797437E8 ; 4.731441586363719E8 ; 1.0867967456683523E10 ; 0.0
63 ; 7919461.824705202 ; 2.0178071374893513E8 ; 4.8106341497646624E8 ; 1.1069733931163267E10 ; 0.0
64 ; 7920988.313705554 ; 2.0179506522522992E8 ; 4.889828768011714E8 ; 1.1271514644912203E10 ; 0.0
65 ; 7924157.978106485 ; 2.0180952463102418E8 ; 4.96903865114877E8 ; 1.1473309710137432E10 ; 0.0
66 ; 7921466.09113546 ; 2.0182408780906573E8 ; 5.048280230929835E8 ; 1.1675119234768456E10 ; 0.0
67 ; 7925986.497435875 ; 2.0183875071974295E8 ; 5.127494891841189E8 ; 1.187694332257752E10 ; 0.0
68 ; 7926323.06218828 ; 2.018535094383004E8 ; 5.206754756815548E8 ; 1.2078782073297264E10 ; 0.0
69 ; 7928351.5426776875 ; 2.0186836015200108E8 ; 5.2860179874374306E8 ; 1.2280635582735565E10 ; 0.0
70 ; 7930721.706573325 ; 2.0188329915725157E8 ; 5.3653015028642076E8 ; 1.2482503942887566E10 ; 0.0
71 ; 7931190.833761883 ; 2.0189832285670575E8 ; 5.444608719929941E8 ; 1.2684387242044817E10 ; 0.0
72 ; 7930427.784548513 ; 2.0191342775636023E8 ; 5.52392062826756E8 ; 1.2886285564901524E10 ; 0.0
73 ; 7931665.132175446 ; 2.0192861046265352E8 ; 5.603224906113045E8 ; 1.3088198992657885E10 ; 0.0
74 ; 7935192.21491307 ; 2.0194386767957923E8 ; 5.6825415574348E8 ; 1.3290127603120539E10 ; 0.0
75 ; 7933404.096085922 ; 2.019591962058226E8 ; 5.761893479583931E8 ; 1.3492071470800117E10 ; 0.0
76 ; 7935447.309515746 ; 2.019745929319278E8 ; 5.84122752054479E8 ; 1.369403066700594E10 ; 0.0
77 ; 7937701.936593329 ; 2.0199005483750358E8 ; 5.920581993639947E8 ; 1.3896005259937868E10 ; 0.0
78 ; 7935611.576663811 ; 2.0200557898847207E8 ; 5.99995901300588E8 ; 1.4097995314775372E10 ; 0.0
79 ; 7935306.627807522 ; 2.020211625343664E8 ; 6.079315128772519E8 ; 1.4300000893763844E10 ; 0.0
80 ; 7932891.669165893 ; 2.0203680270568082E8 ; 6.158668195050594E8 ; 1.450202205629821E10 ; 0.0
81 ; 7932620.907369311 ; 2.0205249681127688E8 ; 6.237997111742252E8 ; 1.4704058859003891E10 ; 0.0
82 ; 7930357.035894947 ; 2.0206824223584822E8 ; 6.317323320815945E8 ; 1.4906111355815168E10 ; 0.0
83 ; 7928732.973345645 ; 2.0208403643744618E8 ; 6.396626891174895E8 ; 1.5108179598051016E10 ; 0.0
84 ; 7925344.705712311 ; 2.0209987694506767E8 ; 6.475914220908351E8 ; 1.5310263634488462E10 ; 0.0
85 ; 7923376.1799528785 ; 2.0211576135630676E8 ; 6.555167667965474E8 ; 1.551236351143353E10 ; 0.0
86 ; 7924098.180812902 ; 2.0213168733507037E8 ; 6.634401429765003E8 ; 1.5714479272789837E10 ; 0.0
87 ; 7919955.173413008 ; 2.0214765260935873E8 ; 6.713642411573132E8 ; 1.5916610960124907E10 ; 0.0
88 ; 7915971.914727268 ; 2.0216365496911046E8 ; 6.792841963307263E8 ; 1.6118758612734264E10 ; 0.0
89 ; 7915935.345199741 ; 2.0217969226411211E8 ; 6.872001682454535E8 ; 1.6320922267703375E10 ; 0.0
90 ; 7914237.090365078 ; 2.021957624019721E8 ; 6.951161035906532E8 ; 1.6523101959967487E10 ; 0.0
91 ; 7911279.2129496755 ; 2.022118633461575E8 ; 7.030303406810182E8 ; 1.672529772236946E10 ; 0.0
92 ; 7904883.667694524 ; 2.022279931140941E8 ; 7.109416198939679E8 ; 1.6927509585715616E10 ; 0.0
93 ; 7907325.936041738 ; 2.0224414977532762E8 ; 7.188465035616624E8 ; 1.712973757882971E10 ; 0.0
94 ; 7902550.72263342 ; 2.0226033144974574E8 ; 7.267538294977041E8 ; 1.7331981728605038E10 ; 0.0
95 ; 7897655.631009401 ; 2.0227653630585945E8 ; 7.346563802203375E8 ; 1.7534242060054783E10 ; 0.0
96 ; 7897141.236082284 ; 2.0229276255914256E8 ; 7.42554035851347E8 ; 1.773651859636064E10 ; 0.0
97 ; 7894231.029624458 ; 2.0230900847042784E8 ; 7.504511770874293E8 ; 1.7938811358919785E10 ; 0.0
98 ; 7892111.484120582 ; 2.0232527234435883E8 ; 7.583454081170537E8 ; 1.8141120367390213E10 ; 0.0
99 ; 7889142.33241566 ; 2.023415525278952E8 ; 7.662375196011744E8 ; 1.8343445639734573E10 ; 0.0
100 ; 7887273.320317165 ; 2.0235784740887102E8 ; 7.7412666193359E8 ; 1.854578719226247E10 ; 0.0
101 ; 7881637.395191313 ; 2.0237415541460374E8 ; 7.820139352539072E8 ; 1.874814503967134E10 ; 0.0
102 ; 7880688.700549351 ; 2.023904750105529E8 ; 7.898955726490985E8 ; 1.8950519195085945E10 ; 0.0
103 ; 7879237.671620599 ; 2.0240680469902673E8 ; 7.977762613496479E8 ; 1.9152909670096497E10 ; 0.0
104 ; 7871882.07085347 ; 2.0242314301793545E8 ; 8.056554990212685E8 ; 1.9355316474795525E10 ; 0.0
105 ; 7870137.150318096 ; 2.024394885395895E8 ; 8.13527381092122E8 ; 1.955773961781346E10 ; 0.0
106 ; 7866455.488071377 ; 2.0245583986954167E8 ; 8.213975182424401E8 ; 1.976017910635305E10 ; 0.0
107 ; 7865813.91351957 ; 2.0247219564547107E8 ; 8.292639737305114E8 ; 1.996263494622259E10 ; 0.0
108 ; 7862123.865974825 ; 2.0248855453610823E8 ; 8.37129787644031E8 ; 2.016510714186806E10 ; 0.0
109 ; 7857289.417149874 ; 2.0250491524019933E8 ; 8.449919115100058E8 ; 2.036759569640417E10 ; 0.0
110 ; 7852004.309200537 ; 2.025212764855086E8 ; 8.528492009271557E8 ; 2.057010061164437E10 ; 0.0
111 ; 7848624.201734895 ; 2.0253763702785745E8 ; 8.607012052363563E8 ; 2.077262188812988E10 ; 0.0
112 ; 7846886.395198114 ; 2.0255399565019897E8 ; 8.685498294380912E8 ; 2.0975159525157738E10 ; 0.0
113 ; 7844253.005220854 ; 2.0257035116172642E8 ; 8.763967158332893E8 ; 2.1177713520807938E10 ; 0.0
114 ; 7839391.276168118 ; 2.0258670239701495E8 ; 8.842409688385102E8 ; 2.1380283871969666E10 ; 0.0
115 ; 7833792.203149984 ; 2.0260304821519485E8 ; 8.920803601146783E8 ; 2.158287057436668E10 ; 0.0
116 ; 7831984.878003712 ; 2.0261938749915528E8 ; 8.999141523178283E8 ; 2.1785473622581875E10 ; 0.0
117 ; 7828080.67481883 ; 2.0263571915477768E8 ; 9.07746137195832E8 ; 2.198809301008103E10 ; 0.0
118 ; 7820863.045759488 ; 2.0265204211019725E8 ; 9.155742178706509E8 ; 2.219072872923581E10 ; 0.0
119 ; 7820003.62139753 ; 2.026683553150919E8 ; 9.233950809164103E8 ; 2.239338077134601E10 ; 0.0
120 ; 7811595.525881385 ; 2.0268465773999748E8 ; 9.312150845378078E8 ; 2.25960491266611E10 ; 0.0
121 ; 7809388.068080695 ; 2.0270094837564808E8 ; 9.390266800636892E8 ; 2.2798733784401096E10 ; 0.0
122 ; 7805989.932417958 ; 2.027172262323409E8 ; 9.468360681317699E8 ; 2.3001434732776745E10 ; 0.0
123 ; 7799056.80978125 ; 2.0273349033932436E8 ; 9.546420580641879E8 ; 2.3204151959009087E10 ; 0.0
124 ; 7793262.643059172 ; 2.0274973974420884E8 ; 9.624411148739691E8 ; 2.340688544934841E10 ; 0.0
125 ; 7791183.926530054 ; 2.0276597351239893E8 ; 9.702343775170282E8 ; 2.360963518909262E10 ; 0.0
126 ; 7784985.646751597 ; 2.0278219072654667E8 ; 9.780255614435582E8 ; 2.381240116260502E10 ; 0.0
127 ; 7781889.7405246785 ; 2.027983904860248E8 ; 9.858105470903099E8 ; 2.4015183353331566E10 ; 0.0
128 ; 7777952.034240714 ; 2.0281457190641913E8 ; 9.935924368308345E8 ; 2.421798174381759E10 ; 0.0
129 ; 7770324.74451602 ; 2.0283073411903962E8 ; 1.0013703888650752E9 ; 2.4420796315724007E10 ; 0.0
130 ; 7766126.705083161 ; 2.0284687627044922E8 ; 1.0091407136095912E9 ; 2.462362704984305E10 ; 0.0
131 ; 7758149.192314185 ; 2.0286299752200982E8 ; 1.0169068403146744E9 ; 2.48264739261135E10 ; 0.0
132 ; 7748007.963316066 ; 2.028790970494447E8 ; 1.0246649895069885E9 ; 2.502933692363551E10 ; 0.0
133 ; 7743472.538224895 ; 2.0289517404241693E8 ; 1.0324129974703046E9 ; 2.5232216020684956E10 ; 0.0
134 ; 7735180.193553717 ; 2.0291122770412278E8 ; 1.0401564700085295E9 ; 2.543511119472737E10 ; 0.0
135 ; 7729267.906896297 ; 2.0292725725090006E8 ; 1.0478916502020832E9 ; 2.5638022422431496E10 ; 0.0
136 ; 7721116.038630328 ; 2.0294326191185036E8 ; 1.0556209181089796E9 ; 2.5840949679682396E10 ; 0.0
137 ; 7709791.800876049 ; 2.029592409284749E8 ; 1.06334203414761E9 ; 2.6043892941594246E10 ; 0.0
138 ; 7707146.209568453 ; 2.0297519355432346E8 ; 1.071051825948486E9 ; 2.624685218252272E10 ; 0.0
139 ; 7697505.351261261 ; 2.029911190546559E8 ; 1.0787589721580544E9 ; 2.6449827376077045E10 ; 0.0
140 ; 7687961.542249431 ; 2.030070167061155E8 ; 1.0864564775093157E9 ; 2.6652818495131702E10 ; 0.0
141 ; 7680843.099028747 ; 2.0302288579641426E8 ; 1.0941444390515652E9 ; 2.685582551183782E10 ; 0.0
142 ; 7671700.941632738 ; 2.0303872562402892E8 ; 1.101825282150594E9 ; 2.705884839763423E10 ; 0.0
143 ; 7663826.613941661 ; 2.030545354979082E8 ; 1.1094969830922267E9 ; 2.726188712325826E10 ; 0.0
144 ; 7655585.858751151 ; 2.030703147371901E8 ; 1.1171608097061684E9 ; 2.746494165875617E10 ; 0.0
145 ; 7650312.744799776 ; 2.0308606267092896E8 ; 1.1248163955649195E9 ; 2.766801197349336E10 ; 0.0
146 ; 7646295.881414331 ; 2.0310177863783252E8 ; 1.1324667083097193E9 ; 2.7871098036164288E10 ; 0.0
147 ; 7640927.779229428 ; 2.0311746198600793E8 ; 1.1401130041911337E9 ; 2.807419981480212E10 ; 0.0
148 ; 7634574.486694477 ; 2.031331120727165E8 ; 1.1477539319703631E9 ; 2.8277317276788128E10 ; 0.0
149 ; 7630384.856872565 ; 2.0314872826413718E8 ; 1.1553885064570577E9 ; 2.8480450388860844E10 ; 0.0
150 ; 7623669.528942295 ; 2.031643099351382E8 ; 1.1630188913139303E9 ; 2.868359911712498E10 ; 0.0
151 ; 7616516.895914787 ; 2.0317985646905652E8 ; 1.1706425608428726E9 ; 2.888676342706012E10 ; 0.0
152 ; 7612442.715098446 ; 2.0319536725748506E8 ; 1.1782590777387874E9 ; 2.9089943283529175E10 ; 0.0
153 ; 7609063.851387163 ; 2.032108417000669E8 ; 1.1858715204538858E9 ; 2.929313865078666E10 ; 0.0
154 ; 7600858.029506272 ; 2.0322627920429692E8 ; 1.193480584305273E9 ; 2.9496349492486725E10 ; 0.0
155 ; 7592778.319629331 ; 2.0324167918533006E8 ; 1.2010814423347793E9 ; 2.969957577169102E10 ; 0.0
156 ; 7590602.526318472 ; 2.0325704106579602E8 ; 1.2086742206544087E9 ; 2.990281745087635E10 ; 0.0
157 ; 7585264.181228266 ; 2.032723642756203E8 ; 1.2162648231807272E9 ; 3.0106074491942146E10 ; 0.0
158 ; 7575377.015468394 ; 2.0328764825185156E8 ; 1.2238500873619554E9 ; 3.0309346856217766E10 ; 0.0
159 ; 7573157.8576632645 ; 2.0330289243849432E8 ; 1.2314254643774238E9 ; 3.0512634504469616E10 ; 0.0
160 ; 7565132.3662651405 ; 2.033180962863478E8 ; 1.238998622235087E9 ; 3.071593739690811E10 ; 0.0
161 ; 7560831.199799762 ; 2.0333325925284985E8 ; 1.246563754601352E9 ; 3.0919255493194458E10 ; 0.0
162 ; 7553989.209850941 ; 2.033483808019261E8 ; 1.2541245858011518E9 ; 3.1122588752447308E10 ; 0.0
163 ; 7546777.892583967 ; 2.0336346040384448E8 ; 1.2616785750110028E9 ; 3.1325937133249233E10 ; 0.0
164 ; 7542869.021912902 ; 2.0337849753507417E8 ; 1.2692253529035869E9 ; 3.1529300593653076E10 ; 0.0
165 ; 7534641.114205111 ; 2.0339349167814955E8 ; 1.2767682219254997E9 ; 3.173267909118815E10 ; 0.0
166 ; 7528843.690547377 ; 2.0340844232153833E8 ; 1.2843028630397048E9 ; 3.19360725828663E10 ; 0.0
167 ; 7525089.030343687 ; 2.0342334895951447E8 ; 1.2918317067302523E9 ; 3.2139481025187836E10 ; 0.0
168 ; 7519814.005839553 ; 2.034382110920349E8 ; 1.299356795760596E9 ; 3.234290437414735E10 ; 0.0
169 ; 7517525.087114117 ; 2.0345302822462046E8 ; 1.3068766097664356E9 ; 3.2546342585239384E10 ; 0.0
170 ; 7505829.820243323 ; 2.0346779986824074E8 ; 1.3143941348535497E9 ; 3.2749795613464005E10 ; 0.0
171 ; 7502777.0134067545 ; 2.0348252553920257E8 ; 1.321899964673793E9 ; 3.2953263413332245E10 ; 0.0
172 ; 7496993.213417571 ; 2.0349720475904238E8 ; 1.3294027416871998E9 ; 3.315674593887145E10 ; 0.0
173 ; 7491600.614781808 ; 2.0351183705442178E8 ; 1.3368997349006174E9 ; 3.336024314363049E10 ; 0.0
174 ; 7486435.813382515 ; 2.0352642195702663E8 ; 1.3443913355153992E9 ; 3.356375498068491E10 ; 0.0
175 ; 7482018.061527575 ; 2.0354095900346953E8 ; 1.3518777713287818E9 ; 3.3767281402641937E10 ; 0.0
176 ; 7477968.061201036 ; 2.035554477351951E8 ; 1.3593597893903093E9 ; 3.397082236164541E10 ; 0.0
177 ; 7474285.844139036 ; 2.0356988769838876E8 ; 1.3668377574515104E9 ; 3.4174377809380604E10 ; 0.0
178 ; 7471449.498932764 ; 2.0358427844388798E8 ; 1.3743120432956495E9 ; 3.4377947697078995E10 ; 0.0
179 ; 7467670.418342463 ; 2.035986195270967E8 ; 1.3817834927945824E9 ; 3.458153197552288E10 ; 0.0
180 ; 7462680.917862824 ; 2.0361291050790223E8 ; 1.3892511632129247E9 ; 3.478513059504998E10 ; 0.0
181 ; 7459158.827430676 ; 2.036271509505952E8 ; 1.3967138441307876E9 ; 3.4988743505557884E10 ; 0.0
182 ; 7453813.504957478 ; 2.036413404237914E8 ; 1.4041730029582183E9 ; 3.519237065650848E10 ; 0.0
183 ; 7451003.980863697 ; 2.036554785003568E8 ; 1.4116268164631758E9 ; 3.539601199693227E10 ; 0.0
184 ; 7447331.285717851 ; 2.0366956475733435E8 ; 1.4190778204440396E9 ; 3.5599667475432625E10 ; 0.0
185 ; 7443341.451616693 ; 2.0368359877587357E8 ; 1.4265251517297575E9 ; 3.580333704018996E10 ; 0.0
186 ; 7439582.7746666735 ; 2.0369758014116195E8 ; 1.4339684931813743E9 ; 3.600702063896583E10 ; 0.0
187 ; 7435113.335775314 ; 2.037115084423588E8 ; 1.441408075956041E9 ; 3.621071821910699E10 ; 0.0
188 ; 7429776.212641608 ; 2.03725383272531E8 ; 1.4488431892918165E9 ; 3.641442972754935E10 ; 0.0
189 ; 7429325.64890507 ; 2.0373920422859088E8 ; 1.4562729655044582E9 ; 3.661815511082188E10 ; 0.0
190 ; 7423126.92171754 ; 2.0375297091123578E8 ; 1.4637022911533632E9 ; 3.682189431505047E10 ; 0.0
191 ; 7420769.04244062 ; 2.0376668292488998E8 ; 1.4711254180750809E9 ; 3.70256472859617E10 ; 0.0
192 ; 7418108.033449083 ; 2.0378033987764782E8 ; 1.4785461871175215E9 ; 3.722941396888659E10 ; 0.0
193 ; 7415026.839462183 ; 2.0379394138121915E8 ; 1.4859642951509707E9 ; 3.743319430876424E10 ; 0.0
194 ; 7409980.935615231 ; 2.0380748705087602E8 ; 1.493379321990433E9 ; 3.7636988250145454E10 ; 0.0
195 ; 7406372.547449433 ; 2.0382097650540128E8 ; 1.5007893029260483E9 ; 3.784079573719633E10 ; 0.0
196 ; 7403074.516162221 ; 2.0383440936703876E8 ; 1.5081956754734976E9 ; 3.804461671370173E10 ; 0.0
197 ; 7400914.630707014 ; 2.0384778526144472E8 ; 1.5155987499896598E9 ; 3.824845112306877E10 ; 0.0
198 ; 7395268.435571476 ; 2.0386110381764114E8 ; 1.5229996646203668E9 ; 3.8452298908330215E10 ; 0.0
199 ; 7387364.456320772 ; 2.038743646679703E8 ; 1.5303949330559382E9 ; 3.865616001214786E10 ; 0.0
200 ; 7386306.521362179 ; 1.7711139164627248E8 ; 1.537782297512259E9 ; 3.886003437681583E10 ; 0.0
201 ; 7385228.486081354 ; 1.5506071857787776E8 ; 1.545168604033621E9 ; 3.90371457684621E10 ; 0.0
