CSV File for the City 6 on Day 314
1 - Minute m 
2 - Power Consumed at minute m 
3 - Power Produced at minute m 
4 - Energy Consumed since the beginning of the day 
5 - Energy Produced since the beginning of the day 
6 - Energy Lost since the beginning of the day on lines starting from the city
 
0 ; 1.1287869446328608E7 ; 1.0674457775146821E8 ; 0.0 ; 0.0 ; 0.0
1 ; 1.1296280763523234E7 ; 1.06895223696648E8 ; 1.1287869446328608E7 ; 1.0674457775146821E8 ; 0.0
2 ; 1.1307458263976417E7 ; 1.0735489044676217E8 ; 2.2584150209851842E7 ; 2.136398014481162E8 ; 0.0
3 ; 1.1323918555102991E7 ; 1.081235806345368E8 ; 3.3891608473828256E7 ; 3.209946918948784E8 ; 0.0
4 ; 1.1339369359130414E7 ; 1.0920129660598677E8 ; 4.5215527028931245E7 ; 4.291182725294152E8 ; 0.0
5 ; 1.1366727996968897E7 ; 1.1058804041201478E8 ; 5.655489638806166E7 ; 5.38319569135402E8 ; 0.0
6 ; 1.1389408183875807E7 ; 1.1228381380097821E8 ; 6.792162438503055E7 ; 6.489076095474167E8 ; 0.0
7 ; 1.1425270381869225E7 ; 1.1428861821228677E8 ; 7.931103256890637E7 ; 7.611914233483949E8 ; 0.0
8 ; 1.1478193198062316E7 ; 1.1660245477108568E8 ; 9.07363029507756E7 ; 8.754800415606816E8 ; 0.0
9 ; 1.1563137202295575E7 ; 1.1922532428407127E8 ; 1.0221449614883791E8 ; 9.920824963317673E8 ; 0.0
10 ; 1.168726428021517E7 ; 1.2215722723647517E8 ; 1.1377763335113348E8 ; 1.1113078206158385E9 ; 0.0
11 ; 1.1885667254837181E7 ; 1.2539816379024413E8 ; 1.2546489763134865E8 ; 1.2334650478523138E9 ; 0.0
12 ; 1.2200560339940825E7 ; 1.2894813378343138E8 ; 1.3735056488618582E8 ; 1.3588632116425579E9 ; 0.0
13 ; 1.2504728032858279E7 ; 1.3280713673080528E8 ; 1.4955112522612664E8 ; 1.4878113454259892E9 ; 0.0
14 ; 1.2546948154649042E7 ; 1.369751718256696E8 ; 1.6205585325898492E8 ; 1.6206184821567945E9 ; 0.0
15 ; 1.2560483428571688E7 ; 1.4145223794287896E8 ; 1.7460280141363397E8 ; 1.757593653982464E9 ; 0.0
16 ; 1.2573568592409538E7 ; 1.4623833364302382E8 ; 1.8716328484220567E8 ; 1.899045891925343E9 ; 0.0
17 ; 1.2592628587394243E7 ; 1.5133345717774668E8 ; 1.9973685343461522E8 ; 2.0452842255683668E9 ; 0.0
18 ; 1.2606155942879021E7 ; 1.567376064961449E8 ; 2.1232948202200946E8 ; 2.1966176827461133E9 ; 0.0
19 ; 1.2619772052966675E7 ; 1.6245077925220355E8 ; 2.2493563796488848E8 ; 2.353355289242258E9 ; 0.0
20 ; 1.2634794834854808E7 ; 1.6847297281319657E8 ; 2.3755541001785517E8 ; 2.5158060684944615E9 ; 0.0
21 ; 1.2652286296307553E7 ; 1.7480418426898554E8 ; 2.5019020485270998E8 ; 2.684279041307658E9 ; 0.0
22 ; 1.2666680904864524E7 ; 1.814444104421404E8 ; 2.6284249114901754E8 ; 2.859083225576644E9 ; 0.0
23 ; 1.2682656367053779E7 ; 1.8839364789880133E8 ; 2.7550917205388206E8 ; 3.0405276360187845E9 ; 0.0
24 ; 1.2700843638285445E7 ; 1.956518929601974E8 ; 2.8819182842093587E8 ; 3.228921283917586E9 ; 0.0
25 ; 1.2711615236636974E7 ; 2.0190718261291757E8 ; 3.008926720592213E8 ; 3.4245731768777833E9 ; 0.0
26 ; 1.2727007462365888E7 ; 2.0191306055837554E8 ; 3.136042872958583E8 ; 3.6264803594907007E9 ; 0.0
27 ; 1.2744180861429123E7 ; 2.019192917506729E8 ; 3.263312947582242E8 ; 3.828393420049076E9 ; 0.0
28 ; 1.2760853708689561E7 ; 2.019258716566353E8 ; 3.390754756196533E8 ; 4.030312711799749E9 ; 0.0
29 ; 1.2773448187399333E7 ; 2.0193279556253722E8 ; 3.5183632932834285E8 ; 4.232238583456384E9 ; 0.0
30 ; 1.2789177896649709E7 ; 2.019400585877137E8 ; 3.646097775157422E8 ; 4.434171379018922E9 ; 0.0
31 ; 1.2805240329750054E7 ; 2.0194765569822297E8 ; 3.773989554123919E8 ; 4.636111437606635E9 ; 0.0
32 ; 1.2816625038014231E7 ; 2.019555817204824E8 ; 3.9020419574214196E8 ; 4.838059093304858E9 ; 0.0
33 ; 1.2829346255558241E7 ; 2.0196383135480592E8 ; 4.030208207801562E8 ; 5.040014675025341E9 ; 0.0
34 ; 1.2843821842591094E7 ; 2.019723991887741E8 ; 4.1585016703571445E8 ; 5.241978506380147E9 ; 0.0
35 ; 1.2855803631778093E7 ; 2.019812797103766E8 ; 4.2869398887830555E8 ; 5.443950905568921E9 ; 0.0
36 ; 1.2869215420975644E7 ; 2.0199046732086837E8 ; 4.415497925100837E8 ; 5.645932185279298E9 ; 0.0
37 ; 1.2884182433028687E7 ; 2.0199995634729087E8 ; 4.544190079310593E8 ; 5.847922652600166E9 ; 0.0
38 ; 1.2891717250042409E7 ; 2.0200974105461246E8 ; 4.67303190364088E8 ; 6.049922608947457E9 ; 0.0
39 ; 1.2903440236376429E7 ; 2.0201981565744966E8 ; 4.801949076141304E8 ; 6.251932350002069E9 ; 0.0
40 ; 1.2916947309478028E7 ; 2.020301743313363E8 ; 4.930983478505068E8 ; 6.453952165659519E9 ; 0.0
41 ; 1.292629638513173E7 ; 2.0204081122351328E8 ; 5.060152951599848E8 ; 6.655982339990855E9 ; 0.0
42 ; 1.2936743725398364E7 ; 2.0205172046321744E8 ; 5.1894159154511654E8 ; 6.858023151214369E9 ; 0.0
43 ; 1.2948696838070657E7 ; 2.0206289617145228E8 ; 5.318783352705149E8 ; 7.060074871677587E9 ; 0.0
44 ; 1.2955179403614007E7 ; 2.020743324702299E8 ; 5.448270321085856E8 ; 7.262137767849039E9 ; 0.0
45 ; 1.29599602123449E7 ; 2.0208602349127617E8 ; 5.577822115121996E8 ; 7.464212100319269E9 ; 0.0
46 ; 1.2973032724567046E7 ; 2.020979633841966E8 ; 5.707421717245445E8 ; 7.666298123810545E9 ; 0.0
47 ; 1.297954138491515E7 ; 2.0211014632410425E8 ; 5.837152044491116E8 ; 7.868396087194741E9 ; 0.0
48 ; 1.298339572227215E7 ; 2.021225665187132E8 ; 5.966947458340267E8 ; 8.070506233518846E9 ; 0.0
49 ; 1.2988832887489589E7 ; 2.0213521821490636E8 ; 6.096781415562989E8 ; 8.272628800037559E9 ; 0.0
50 ; 1.2996088438597724E7 ; 2.021480957047866E8 ; 6.226669744437884E8 ; 8.474764018252465E9 ; 0.0
51 ; 1.2998832347369758E7 ; 2.021611933312249E8 ; 6.356630628823861E8 ; 8.676912113957253E9 ; 0.0
52 ; 1.3007289167794619E7 ; 2.0217450549291953E8 ; 6.486618952297559E8 ; 8.879073307288477E9 ; 0.0
53 ; 1.301096454358571E7 ; 2.0218802664898297E8 ; 6.616691843975505E8 ; 9.081247812781397E9 ; 0.0
54 ; 1.3013247288939424E7 ; 2.0220175132307395E8 ; 6.746801489411361E8 ; 9.28343583943038E9 ; 0.0
55 ; 1.3020211172142636E7 ; 2.0221567410709378E8 ; 6.876933962300756E8 ; 9.485637590753454E9 ; 0.0
56 ; 1.3024267824126149E7 ; 2.0222978966446638E8 ; 7.007136074022182E8 ; 9.687853264860548E9 ; 0.0
57 ; 1.3028000729876025E7 ; 2.0224409273302248E8 ; 7.137378752263443E8 ; 9.890083054525015E9 ; 0.0
58 ; 1.303089052940319E7 ; 2.0225857812750816E8 ; 7.267658759562204E8 ; 1.0092327147258038E10 ; 0.0
59 ; 1.3040883872789731E7 ; 2.0227324074173918E8 ; 7.397967664856236E8 ; 1.0294585725385546E10 ; 0.0
60 ; 1.3039998249985557E7 ; 2.0228807555042088E8 ; 7.528376503584133E8 ; 1.0496858966127285E10 ; 0.0
61 ; 1.3048918722756833E7 ; 2.0230307761065534E8 ; 7.658776486083989E8 ; 1.0699147041677706E10 ; 0.0
62 ; 1.3047533022364615E7 ; 2.0231824206315523E8 ; 7.789265673311558E8 ; 1.090145011928836E10 ; 0.0
63 ; 1.3055857196451683E7 ; 2.0233356413318458E8 ; 7.919741003535204E8 ; 1.1103768361351517E10 ; 0.0
64 ; 1.3060246533103416E7 ; 2.0234903913124576E8 ; 8.05029957549972E8 ; 1.1306101925484701E10 ; 0.0
65 ; 1.3064082477484023E7 ; 2.0236466245353174E8 ; 8.180902040830755E8 ; 1.1508450964615948E10 ; 0.0
66 ; 1.3064273193911076E7 ; 2.0238042958216116E8 ; 8.311542865605595E8 ; 1.1710815627069479E10 ; 0.0
67 ; 1.3065877497146687E7 ; 2.0239633608521426E8 ; 8.442185597544706E8 ; 1.191319605665164E10 ; 0.0
68 ; 1.3070865471993212E7 ; 2.0241237761658597E8 ; 8.572844372516173E8 ; 1.2115592392736855E10 ; 0.0
69 ; 1.3071499954352539E7 ; 2.024285499156723E8 ; 8.703553027236105E8 ; 1.2318004770353441E10 ; 0.0
70 ; 1.3084062408967525E7 ; 2.02444848806905E8 ; 8.83426802677963E8 ; 1.2520433320269114E10 ; 0.0
71 ; 1.308095105764076E7 ; 2.0246127019914898E8 ; 8.965108650869305E8 ; 1.272287816907602E10 ; 0.0
72 ; 1.3086922219472E7 ; 2.0247781008497602E8 ; 9.095918161445713E8 ; 1.2925339439275167E10 ; 0.0
73 ; 1.3087237566843478E7 ; 2.024944645398275E8 ; 9.226787383640434E8 ; 1.3127817249360144E10 ; 0.0
74 ; 1.3091753071279675E7 ; 2.0251122972107813E8 ; 9.357659759308869E8 ; 1.3330311713899971E10 ; 0.0
75 ; 1.3093342565397507E7 ; 2.0252810186701214E8 ; 9.488577290021665E8 ; 1.353282294362105E10 ; 0.0
76 ; 1.3091115265338775E7 ; 2.0254507729572204E8 ; 9.61951071567564E8 ; 1.3735351045488062E10 ; 0.0
77 ; 1.3098616632964103E7 ; 2.0256215240394E8 ; 9.750421868329028E8 ; 1.3937896122783785E10 ; 0.0
78 ; 1.3095011197213564E7 ; 2.0257932366581112E8 ; 9.881408034658669E8 ; 1.4140458275187725E10 ; 0.0
79 ; 1.3092975357670764E7 ; 2.0259658763161656E8 ; 1.0012358146630805E9 ; 1.4343037598853537E10 ; 0.0
80 ; 1.3095224253140602E7 ; 2.0261394092645466E8 ; 1.0143287900207512E9 ; 1.4545634186485153E10 ; 0.0
81 ; 1.3089372228762684E7 ; 2.026313802488872E8 ; 1.0274240142738918E9 ; 1.4748248127411608E10 ; 0.0
82 ; 1.3092002427387113E7 ; 2.0264890236955732E8 ; 1.0405133865026544E9 ; 1.4950879507660496E10 ; 0.0
83 ; 1.3087505903934764E7 ; 2.0266650412978527E8 ; 1.0536053889300416E9 ; 1.5153528410030052E10 ; 0.0
84 ; 1.3085890417473119E7 ; 2.0268418244014752E8 ; 1.0666928948339763E9 ; 1.5356194914159838E10 ; 0.0
85 ; 1.3083958891506463E7 ; 2.0270193427904427E8 ; 1.0797787852514493E9 ; 1.5558879096599985E10 ; 0.0
86 ; 1.3082798065167114E7 ; 2.0271975669125998E8 ; 1.0928627441429558E9 ; 1.576158103087903E10 ; 0.0
87 ; 1.308140049330519E7 ; 2.027376467865212E8 ; 1.105945542208123E9 ; 1.596430078757029E10 ; 0.0
88 ; 1.3076315632691175E7 ; 2.0275560173805532E8 ; 1.1190269427014282E9 ; 1.6167038434356812E10 ; 0.0
89 ; 1.3067271475835295E7 ; 2.0277361878115386E8 ; 1.1321032583341193E9 ; 1.6369794036094868E10 ; 0.0
90 ; 1.304961072958528E7 ; 2.0279169521174315E8 ; 1.1451705298099546E9 ; 1.6572567654876022E10 ; 0.0
91 ; 1.3035184561619883E7 ; 2.0280982838496536E8 ; 1.1582201405395398E9 ; 1.6775359350087765E10 ; 0.0
92 ; 1.301479479370817E7 ; 2.0282801571377212E8 ; 1.1712553251011598E9 ; 1.697816917847273E10 ; 0.0
93 ; 1.2996112634203162E7 ; 2.0284625466753298E8 ; 1.184270119894868E9 ; 1.7180997194186504E10 ; 0.0
94 ; 1.2976381166398661E7 ; 2.0286454277066073E8 ; 1.197266232529071E9 ; 1.738384344885404E10 ; 0.0
95 ; 1.2960734136987431E7 ; 2.0288287760125503E8 ; 1.2102426136954699E9 ; 1.75867079916247E10 ; 0.0
96 ; 1.2940900208839452E7 ; 2.0290125678976598E8 ; 1.2232033478324573E9 ; 1.7789590869225952E10 ; 0.0
97 ; 1.2922401574158607E7 ; 2.029196780176788E8 ; 1.2361442480412967E9 ; 1.7992492126015717E10 ; 0.0
98 ; 1.2902940116797391E7 ; 2.0293813901622057E8 ; 1.2490666496154554E9 ; 1.8195411804033394E10 ; 0.0
99 ; 1.28862027398936E7 ; 2.0295663756509045E8 ; 1.2619695897322528E9 ; 1.8398349943049614E10 ; 0.0
100 ; 1.2865614844150566E7 ; 2.0297517149121317E8 ; 1.2748557924721465E9 ; 1.8601306580614704E10 ; 0.0
101 ; 1.2847894532577544E7 ; 2.0299373866751745E8 ; 1.287721407316297E9 ; 1.880428175210592E10 ; 0.0
102 ; 1.2825166073617293E7 ; 2.0301233701173913E8 ; 1.3005693018488746E9 ; 1.9007275490773438E10 ; 0.0
103 ; 1.2809539443386033E7 ; 2.0303096448524955E8 ; 1.3133944679224918E9 ; 1.9210287827785175E10 ; 0.0
104 ; 1.278954188980492E7 ; 2.0304961909190953E8 ; 1.3262040073658779E9 ; 1.9413318792270424E10 ; 0.0
105 ; 1.276993159267174E7 ; 2.0306829887694907E8 ; 1.3389935492556827E9 ; 1.9616368411362335E10 ; 0.0
106 ; 1.2751202048097255E7 ; 2.030870019258729E8 ; 1.3517634808483543E9 ; 1.9819436710239285E10 ; 0.0
107 ; 1.2727762524666563E7 ; 2.031057263633915E8 ; 1.3645146828964517E9 ; 2.0022523712165157E10 ; 0.0
108 ; 1.2707432083843123E7 ; 2.0312447035237834E8 ; 1.3772424454211183E9 ; 2.022562943852855E10 ; 0.0
109 ; 1.269193399986565E7 ; 2.031432320928522E8 ; 1.3899498775049615E9 ; 2.0428753908880928E10 ; 0.0
110 ; 1.2670848209550556E7 ; 2.0316200982098535E8 ; 1.402641811504827E9 ; 2.063189714097378E10 ; 0.0
111 ; 1.2650071397954306E7 ; 2.0318080180813652E8 ; 1.4153126597143776E9 ; 2.0835059150794765E10 ; 0.0
112 ; 1.2629404817626048E7 ; 2.031996063599091E8 ; 1.4279627311123319E9 ; 2.10382399526029E10 ; 0.0
113 ; 1.2607398363228712E7 ; 2.0321842181523368E8 ; 1.4405921359299579E9 ; 2.124143955896281E10 ; 0.0
114 ; 1.2588102103490027E7 ; 2.0323724654547518E8 ; 1.4531995342931867E9 ; 2.1444657980778046E10 ; 0.0
115 ; 1.2570831277971672E7 ; 2.032560789535635E8 ; 1.4657876363966768E9 ; 2.164789522732352E10 ; 0.0
116 ; 1.2545978543301258E7 ; 2.0327491747314802E8 ; 1.4783584676746485E9 ; 2.1851151306277084E10 ; 0.0
117 ; 1.252708652595834E7 ; 2.032937605677749E8 ; 1.4909044462179499E9 ; 2.2054426223750233E10 ; 0.0
118 ; 1.2507670787170902E7 ; 2.033126067300872E8 ; 1.5034315327439082E9 ; 2.225771998431801E10 ; 0.0
119 ; 1.2482673218868367E7 ; 2.0333145448104742E8 ; 1.515939203531079E9 ; 2.2461032591048096E10 ; 0.0
120 ; 1.2465642566193203E7 ; 2.0335030236918136E8 ; 1.5284218767499473E9 ; 2.2664364045529144E10 ; 0.0
121 ; 1.2442460774661014E7 ; 2.0336914896984378E8 ; 1.5408875193161404E9 ; 2.2867714347898327E10 ; 0.0
122 ; 1.2420411932913242E7 ; 2.033879928845044E8 ; 1.5533299800908015E9 ; 2.307108349686817E10 ; 0.0
123 ; 1.2400542014056033E7 ; 2.0340683274005494E8 ; 1.5657503920237148E9 ; 2.3274471489752678E10 ; 0.0
124 ; 1.2379976088397715E7 ; 2.0342566718813533E8 ; 1.5781509340377707E9 ; 2.3477878322492733E10 ; 0.0
125 ; 1.2355695102526342E7 ; 2.0344449490447992E8 ; 1.5905309101261685E9 ; 2.368130398968087E10 ; 0.0
126 ; 1.2334655064633334E7 ; 2.034633145882824E8 ; 1.602886605228695E9 ; 2.388474848458535E10 ; 0.0
127 ; 1.2314088939636478E7 ; 2.0348212496157917E8 ; 1.6152212602933283E9 ; 2.4088211799173634E10 ; 0.0
128 ; 1.2294175066928992E7 ; 2.035009247686508E8 ; 1.6275353492329648E9 ; 2.4291693924135212E10 ; 0.0
129 ; 1.2268792440986456E7 ; 2.0351971277544114E8 ; 1.6398295242998939E9 ; 2.4495194848903862E10 ; 0.0
130 ; 1.2246236466311194E7 ; 2.0353848776899326E8 ; 1.6520983167408803E9 ; 2.4698714561679302E10 ; 0.0
131 ; 1.2218508048673619E7 ; 2.0355724855690223E8 ; 1.6643445532071915E9 ; 2.4902253049448296E10 ; 0.0
132 ; 1.2192090329687512E7 ; 2.0357599396678406E8 ; 1.676563061255865E9 ; 2.51058102980052E10 ; 0.0
133 ; 1.216825013047591E7 ; 2.0359472284576032E8 ; 1.6887551515855527E9 ; 2.5309386291971985E10 ; 0.0
134 ; 1.2143274091478866E7 ; 2.0361343405995798E8 ; 1.7009234017160287E9 ; 2.5512981014817745E10 ; 0.0
135 ; 1.2114117389598155E7 ; 2.0363212649402443E8 ; 1.7130666758075075E9 ; 2.5716594448877705E10 ; 0.0
136 ; 1.2087731758715088E7 ; 2.0365079905065656E8 ; 1.7251807931971056E9 ; 2.592022657537173E10 ; 0.0
137 ; 1.206126427297804E7 ; 2.036694506501442E8 ; 1.7372685249558208E9 ; 2.6123877374422386E10 ; 0.0
138 ; 1.2038640985801624E7 ; 2.036880802299271E8 ; 1.7493297892287989E9 ; 2.632754682507253E10 ; 0.0
139 ; 1.2009036847439468E7 ; 2.037066867441651E8 ; 1.7613684302146006E9 ; 2.6531234905302456E10 ; 0.0
140 ; 1.1984321613851944E7 ; 2.0372526916332114E8 ; 1.77337746706204E9 ; 2.673494159204662E10 ; 0.0
141 ; 1.1953841129897423E7 ; 2.0374382647375703E8 ; 1.785361788675892E9 ; 2.693866686120994E10 ; 0.0
142 ; 1.1923432338211223E7 ; 2.0376235767734087E8 ; 1.7973156298057895E9 ; 2.71424106876837E10 ; 0.0
143 ; 1.1897359282152778E7 ; 2.037808617910667E8 ; 1.8092390621440008E9 ; 2.7346173045361042E10 ; 0.0
144 ; 1.1868775249417655E7 ; 2.037993378466853E8 ; 1.8211364214261537E9 ; 2.7549953907152107E10 ; 0.0
145 ; 1.1853579784145886E7 ; 2.0381778489034593E8 ; 1.8330051966755712E9 ; 2.775375324499879E10 ; 0.0
146 ; 1.182932384010566E7 ; 2.0383620198224926E8 ; 1.844858776459717E9 ; 2.7957571029889137E10 ; 0.0
147 ; 1.180513188852536E7 ; 2.0385458819631028E8 ; 1.8566881002998228E9 ; 2.8161407231871387E10 ; 0.0
148 ; 1.1780741046275811E7 ; 2.038729426198314E8 ; 1.868493232188348E9 ; 2.83652618200677E10 ; 0.0
149 ; 1.1760229415447079E7 ; 2.0389126435318556E8 ; 1.880273973234624E9 ; 2.856913476268753E10 ; 0.0
150 ; 1.1735960681361387E7 ; 2.0390955250950855E8 ; 1.892034202650071E9 ; 2.8773026027040714E10 ; 0.0
151 ; 1.1712093280983232E7 ; 2.0392780621440074E8 ; 1.9037701633314323E9 ; 2.8976935579550224E10 ; 0.0
152 ; 1.1692408842383195E7 ; 2.039460246056375E8 ; 1.9154822566124156E9 ; 2.9180863385764626E10 ; 0.0
153 ; 1.1667905511873968E7 ; 2.0396420683288866E8 ; 1.9271746654547987E9 ; 2.9384809410370262E10 ; 0.0
154 ; 1.1644932420923792E7 ; 2.0398235205744588E8 ; 1.9388425709666727E9 ; 2.958877361720315E10 ; 0.0
155 ; 1.162525461481026E7 ; 2.0400045945195854E8 ; 1.9504875033875964E9 ; 2.9792755969260597E10 ; 0.0
156 ; 1.1600347281214625E7 ; 2.0401852820017722E8 ; 1.9621127580024066E9 ; 2.9996756428712555E10 ; 0.0
157 ; 1.1575086354982996E7 ; 2.0403655749670509E8 ; 1.9737131052836213E9 ; 3.020077495691273E10 ; 0.0
158 ; 1.1551941449586978E7 ; 2.0405454654675636E8 ; 1.9852881916386044E9 ; 3.0404811514409435E10 ; 0.0
159 ; 1.1530463055685513E7 ; 2.0407249456592226E8 ; 1.9968401330881913E9 ; 3.0608866060956192E10 ; 0.0
160 ; 1.150703245796438E7 ; 2.0409040077994373E8 ; 2.0083705961438768E9 ; 3.0812938555522114E10 ; 0.0
161 ; 1.1484705459074037E7 ; 2.0410826442449087E8 ; 2.0198776286018412E9 ; 3.101702895630206E10 ; 0.0
162 ; 1.1464757528731503E7 ; 2.0412608474494907E8 ; 2.0313623340609152E9 ; 3.122113722072655E10 ; 0.0
163 ; 1.14388526656546E7 ; 2.041438609962113E8 ; 2.0428270915896468E9 ; 3.14252633054715E10 ; 0.0
164 ; 1.1418283178015918E7 ; 2.0416159244247645E8 ; 2.0542659442553015E9 ; 3.1629407166467712E10 ; 0.0
165 ; 1.1393304055329531E7 ; 2.0417927835705405E8 ; 2.0656842274333174E9 ; 3.183356875891019E10 ; 0.0
166 ; 1.136787497016195E7 ; 2.041969180221742E8 ; 2.077077531488647E9 ; 3.2037748037267246E10 ; 0.0
167 ; 1.134094819659969E7 ; 2.0421451072880346E8 ; 2.088445406458809E9 ; 3.224194495528942E10 ; 0.0
168 ; 1.1324356094991077E7 ; 2.0423205577646583E8 ; 2.0997863546554086E9 ; 3.2446159466018223E10 ; 0.0
169 ; 1.130028907846862E7 ; 2.0424955247306943E8 ; 2.1111107107503996E9 ; 3.265039152179469E10 ; 0.0
170 ; 1.1272931480331253E7 ; 2.042670001347378E8 ; 2.1224109998288682E9 ; 3.2854641074267757E10 ; 0.0
171 ; 1.1254843030439572E7 ; 2.0428439808564627E8 ; 2.1336839313091993E9 ; 3.3058908074402496E10 ; 0.0
172 ; 1.1227174716346994E7 ; 2.043E8 ; 2.144938774339639E9 ; 3.3263192472488144E10 ; 0.0
173 ; 1.1208376040377708E7 ; 2.043E8 ; 2.156165949055986E9 ; 3.3467492472488144E10 ; 0.0
174 ; 1.1181126079314634E7 ; 2.043E8 ; 2.1673743250963635E9 ; 3.3671792472488144E10 ; 0.0
175 ; 1.1165757890305553E7 ; 2.043E8 ; 2.1785554511756783E9 ; 3.3876092472488144E10 ; 0.0
176 ; 1.114386370302063E7 ; 2.043E8 ; 2.189721209065984E9 ; 3.4080392472488144E10 ; 0.0
177 ; 1.1124504911175523E7 ; 2.043E8 ; 2.2008650727690043E9 ; 3.4284692472488144E10 ; 0.0
178 ; 1.1103014233495586E7 ; 2.043E8 ; 2.21198957768018E9 ; 3.4488992472488144E10 ; 0.0
179 ; 1.1082813480204668E7 ; 2.043E8 ; 2.223092591913676E9 ; 3.4693292472488144E10 ; 0.0
180 ; 1.1062105518906372E7 ; 2.043E8 ; 2.2341754053938804E9 ; 3.4897592472488144E10 ; 0.0
181 ; 1.1041493473023426E7 ; 2.043E8 ; 2.245237510912787E9 ; 3.5101892472488144E10 ; 0.0
182 ; 1.1024359359323427E7 ; 2.043E8 ; 2.2562790043858104E9 ; 3.5306192472488144E10 ; 0.0
183 ; 1.1002350731611189E7 ; 2.043E8 ; 2.267303363745134E9 ; 3.5510492472488144E10 ; 0.0
184 ; 1.0981356860153995E7 ; 2.043E8 ; 2.278305714476745E9 ; 3.5714792472488144E10 ; 0.0
185 ; 1.0962438058617651E7 ; 2.043E8 ; 2.2892870713368993E9 ; 3.5919092472488144E10 ; 0.0
186 ; 1.0941212406203054E7 ; 2.043E8 ; 2.300249509395517E9 ; 3.6123392472488144E10 ; 0.0
187 ; 1.0919685770136748E7 ; 2.043E8 ; 2.31119072180172E9 ; 3.6327692472488144E10 ; 0.0
188 ; 1.0899660871883044E7 ; 2.043E8 ; 2.322110407571857E9 ; 3.6531992472488144E10 ; 0.0
189 ; 1.0880946092540547E7 ; 2.043E8 ; 2.33301006844374E9 ; 3.6736292472488144E10 ; 0.0
190 ; 1.0860569065585485E7 ; 2.043E8 ; 2.3438910145362806E9 ; 3.6940592472488144E10 ; 0.0
191 ; 1.0839455732290406E7 ; 2.043E8 ; 2.3547515836018662E9 ; 3.7144892472488144E10 ; 0.0
192 ; 1.081864771827361E7 ; 2.043E8 ; 2.3655910393341565E9 ; 3.7349192472488144E10 ; 0.0
193 ; 1.0799123201123102E7 ; 2.043E8 ; 2.37640968705243E9 ; 3.7553492472488144E10 ; 0.0
194 ; 1.0780322336048428E7 ; 2.043E8 ; 2.3872088102535534E9 ; 3.7757792472488144E10 ; 0.0
195 ; 1.0759392374088805E7 ; 2.043E8 ; 2.397989132589602E9 ; 3.7962092472488144E10 ; 0.0
196 ; 1.0741591794710834E7 ; 2.043E8 ; 2.4087485249636908E9 ; 3.8166392472488144E10 ; 0.0
197 ; 1.0719862878062053E7 ; 2.043E8 ; 2.4194901167584014E9 ; 3.8370692472488144E10 ; 0.0
198 ; 1.0697320834289916E7 ; 2.043E8 ; 2.4302099796364636E9 ; 3.8574992472488144E10 ; 0.0
