CSV File for the City 4 on Day 5
1 - Minute m 
2 - Power Consumed at minute m 
3 - Power Produced at minute m 
4 - Energy Consumed since the beginning of the day 
5 - Energy Produced since the beginning of the day 
6 - Energy Lost since the beginning of the day on lines starting from the city
 
0 ; 6805086.2380101 ; 1.0565076087730631E8 ; 0.0 ; 0.0 ; 0.0
1 ; 6808769.940210705 ; 1.0579980928987557E8 ; 6805086.2380101 ; 1.0565076087730631E8 ; 0.0
2 ; 6817807.2240143735 ; 1.0625800443676451E8 ; 1.3613856178220805E7 ; 2.1145057016718188E8 ; 0.0
3 ; 6823125.726157023 ; 1.0702536188175416E8 ; 2.043166340223518E7 ; 3.177085746039464E8 ; 0.0
4 ; 6837063.716392122 ; 1.0810189601690173E8 ; 2.7254789128392205E7 ; 4.2473393648570055E8 ; 0.0
5 ; 6848211.03010103 ; 1.0948761984741676E8 ; 3.409185284478433E7 ; 5.328358325026023E8 ; 0.0
6 ; 6867318.872331258 ; 1.1118254478538498E8 ; 4.094006387488536E7 ; 6.42323452350019E8 ; 0.0
7 ; 6886973.72449844 ; 1.1318668045933533E8 ; 4.780738274721661E7 ; 7.53505997135404E8 ; 0.0
8 ; 6921380.536902165 ; 1.1550003454663163E8 ; 5.469435647171505E7 ; 8.666926775947393E8 ; 0.0
9 ; 6971249.9207659485 ; 1.1812261263523448E8 ; 6.1615737008617215E7 ; 9.82192712141371E8 ; 0.0
10 ; 7049510.616157389 ; 1.2105441812050062E8 ; 6.858698692938316E7 ; 1.1003153247766056E9 ; 0.0
11 ; 7172963.012690194 ; 1.2429545214140734E8 ; 7.563649754554054E7 ; 1.2213697428971062E9 ; 0.0
12 ; 7370654.960922578 ; 1.2784571355897734E8 ; 8.280946055823073E7 ; 1.3456651950385134E9 ; 0.0
13 ; 7560476.564202091 ; 1.3170519897785383E8 ; 9.018011551915331E7 ; 1.4735109085974908E9 ; 0.0
14 ; 7585968.723891315 ; 1.3587390281007636E8 ; 9.77405920833554E7 ; 1.6052161075753446E9 ; 0.0
15 ; 7592024.937387044 ; 1.4035181737828094E8 ; 1.0532656080724671E8 ; 1.7410900103854208E9 ; 0.0
16 ; 7600016.397998444 ; 1.4513893305393878E8 ; 1.1291858574463376E8 ; 1.8814418277637017E9 ; 0.0
17 ; 7609418.977145085 ; 1.5023523842496404E8 ; 1.205186021426322E8 ; 2.0265807608176405E9 ; 0.0
18 ; 7616260.197956277 ; 1.5564072048614722E8 ; 1.2812802111977729E8 ; 2.1768159992426047E9 ; 0.0
19 ; 7628390.798077418 ; 1.6135536484543112E8 ; 1.3574428131773356E8 ; 2.332456719728752E9 ; 0.0
20 ; 7634115.856136082 ; 1.6737915593903467E8 ; 1.4337267211581096E8 ; 2.4938120845741835E9 ; 0.0
21 ; 7644319.00341128 ; 1.737120772488E8 ; 1.5100678797194704E8 ; 2.661191240513218E9 ; 0.0
22 ; 7652047.750476476 ; 1.8035411151580697E8 ; 1.5865110697535834E8 ; 2.8349033177620177E9 ; 0.0
23 ; 7660770.00402422 ; 1.873052409451869E8 ; 1.6630315472583482E8 ; 3.015257429277825E9 ; 0.0
24 ; 7668772.173942738 ; 1.9456544739807558E8 ; 1.7396392472985902E8 ; 3.202562670223012E9 ; 0.0
25 ; 7679226.787968909 ; 2.008227534658726E8 ; 1.8163269690380177E8 ; 3.3971281176210876E9 ; 0.0
26 ; 7687556.783637068 ; 2.008306886653303E8 ; 1.8931192369177067E8 ; 3.5979508710869603E9 ; 0.0
27 ; 7697577.266912623 ; 2.008390041026831E8 ; 1.9699948047540775E8 ; 3.7987815597522907E9 ; 0.0
28 ; 7706990.161424397 ; 2.008476818403904E8 ; 2.0469705774232036E8 ; 3.999620563854974E9 ; 0.0
29 ; 7711049.308729478 ; 2.008567042914632E8 ; 2.1240404790374476E8 ; 4.200468245695364E9 ; 0.0
30 ; 7722092.520486443 ; 2.0086605430252922E8 ; 2.2011509721247423E8 ; 4.401324949986827E9 ; 0.0
31 ; 7732371.4711145675 ; 2.008757152201217E8 ; 2.2783718973296067E8 ; 4.602191004289356E9 ; 0.0
32 ; 7735838.6926558325 ; 2.00885670941672E8 ; 2.3556956120407525E8 ; 4.803066719509478E9 ; 0.0
33 ; 7743154.640534371 ; 2.008959059528189E8 ; 2.4330539989673108E8 ; 5.00395239045115E9 ; 0.0
34 ; 7751655.958043126 ; 2.0090640535269296E8 ; 2.5104855453726545E8 ; 5.204848296403969E9 ; 0.0
35 ; 7761112.7198599 ; 2.009171548688101E8 ; 2.5880021049530858E8 ; 5.405754701756661E9 ; 0.0
36 ; 7766465.564694384 ; 2.0092814086313614E8 ; 2.6656132321516848E8 ; 5.606671856625471E9 ; 0.0
37 ; 7775615.997768779 ; 2.009393503307766E8 ; 2.743277887798629E8 ; 5.807599997488607E9 ; 0.0
38 ; 7779050.933654577 ; 2.0095077089261696E8 ; 2.8210340477763164E8 ; 6.008539347819384E9 ; 0.0
39 ; 7788807.703196633 ; 2.0096239078310102E8 ; 2.898824557112862E8 ; 6.209490118712001E9 ; 0.0
40 ; 7791798.171974903 ; 2.0097419883419284E8 ; 2.9767126341448283E8 ; 6.410452509495102E9 ; 0.0
41 ; 7797310.343645672 ; 2.009861844564306E8 ; 3.054630615864577E8 ; 6.611426708329295E9 ; 0.0
42 ; 7800039.559840625 ; 2.0099833761785054E8 ; 3.132603719301034E8 ; 6.812412892785726E9 ; 0.0
43 ; 7807345.829807196 ; 2.010106488214387E8 ; 3.2106041148994404E8 ; 7.013411230403576E9 ; 0.0
44 ; 7813555.837334439 ; 2.0102310908165967E8 ; 3.2886775731975126E8 ; 7.214421879225015E9 ; 0.0
45 ; 7813962.733827471 ; 2.0103570990051517E8 ; 3.366813131570857E8 ; 7.415444988306674E9 ; 0.0
46 ; 7820890.437767966 ; 2.010484432434993E8 ; 3.444952758909132E8 ; 7.61648069820719E9 ; 0.0
47 ; 7824478.75196032 ; 2.0106130151574558E8 ; 3.523161663286812E8 ; 7.817529141450689E9 ; 0.0
48 ; 7826274.12065677 ; 2.0107427753859538E8 ; 3.601406450806415E8 ; 8.0185904429664345E9 ; 0.0
49 ; 7828979.489782554 ; 2.010873645267665E8 ; 3.679669192012983E8 ; 8.21966472050503E9 ; 0.0
50 ; 7831155.744500112 ; 2.01100556066254E8 ; 3.7579589869108087E8 ; 8.420752085031796E9 ; 0.0
51 ; 7831363.789616906 ; 2.0111384609305862E8 ; 3.8362705443558097E8 ; 8.621852641098051E9 ; 0.0
52 ; 7834642.230854723 ; 2.011272288728078E8 ; 3.9145841822519785E8 ; 8.82296648719111E9 ; 0.0
53 ; 7838183.083665187 ; 2.01140698981309E8 ; 3.992930604560526E8 ; 9.02409371606392E9 ; 0.0
54 ; 7841313.761985547 ; 2.011542512860548E8 ; 4.071312435397178E8 ; 9.225234415045229E9 ; 0.0
55 ; 7844684.740162148 ; 2.0116788092868346E8 ; 4.1497255730170333E8 ; 9.426388666331284E9 ; 0.0
56 ; 7843320.975004381 ; 2.0118158330838636E8 ; 4.2281724204186547E8 ; 9.627556547259968E9 ; 0.0
57 ; 7846734.197278174 ; 2.0119535406624302E8 ; 4.3066056301686984E8 ; 9.828738130568354E9 ; 0.0
58 ; 7847715.640194936 ; 2.0120918907045892E8 ; 4.3850729721414804E8 ; 1.0029933484634596E10 ; 0.0
59 ; 7847598.660531408 ; 2.0122308440247384E8 ; 4.46355012854343E8 ; 1.0231142673705055E10 ; 0.0
60 ; 7851424.91523259 ; 2.012370363439068E8 ; 4.542026115148744E8 ; 1.0432365758107529E10 ; 0.0
61 ; 7852499.092738601 ; 2.012510413642999E8 ; 4.62054036430107E8 ; 1.0633602794451435E10 ; 0.0
62 ; 7851346.617027604 ; 2.0126509610962233E8 ; 4.699065355228456E8 ; 1.0834853835815735E10 ; 0.0
63 ; 7857067.796260958 ; 2.012791973914957E8 ; 4.777578821398732E8 ; 1.1036118931925358E10 ; 0.0
64 ; 7858190.455428921 ; 2.0129334217710105E8 ; 4.8561494993613416E8 ; 1.1237398129316853E10 ; 0.0
65 ; 7859409.16703379 ; 2.0130752757972932E8 ; 4.9347314039156306E8 ; 1.1438691471493954E10 ; 0.0
66 ; 7860255.923827591 ; 2.013217508499374E8 ; 5.0133254955859685E8 ; 1.1639998999073683E10 ; 0.0
67 ; 7863451.517606307 ; 2.0133600936727345E8 ; 5.0919280548242444E8 ; 1.184132074992362E10 ; 0.0
68 ; 7863187.066696436 ; 2.0135030063253608E8 ; 5.1705625700003076E8 ; 1.2042656759290894E10 ; 0.0
69 ; 7862140.654829516 ; 2.0136462226053444E8 ; 5.249194440667272E8 ; 1.224400705992343E10 ; 0.0
70 ; 7864086.497580265 ; 2.013789719733164E8 ; 5.327815847215567E8 ; 1.2445371682183964E10 ; 0.0
71 ; 7863085.868576859 ; 2.013933475938356E8 ; 5.40645671219137E8 ; 1.264675065415728E10 ; 0.0
72 ; 7865177.865534765 ; 2.014077470400277E8 ; 5.485087570877138E8 ; 1.2848144001751116E10 ; 0.0
73 ; 7864613.019233492 ; 2.014221683192695E8 ; 5.563739349532486E8 ; 1.3049551748791143E10 ; 0.0
74 ; 7864054.46903871 ; 2.0143660952319533E8 ; 5.642385479724821E8 ; 1.3250973917110413E10 ; 0.0
75 ; 7865324.368308196 ; 2.0145106882284662E8 ; 5.721026024415208E8 ; 1.3452410526633608E10 ; 0.0
76 ; 7867755.594216957 ; 2.0146554446413288E8 ; 5.79967926809829E8 ; 1.3653861595456455E10 ; 0.0
77 ; 7865213.834042526 ; 2.0148003476358235E8 ; 5.878356824040459E8 ; 1.3855327139920588E10 ; 0.0
78 ; 7865454.409834644 ; 2.0149453810436377E8 ; 5.957008962380885E8 ; 1.405680717468417E10 ; 0.0
79 ; 7862528.89226079 ; 2.0150905293255988E8 ; 6.035663506479231E8 ; 1.4258301712788534E10 ; 0.0
80 ; 7861788.684371011 ; 2.0152357775367677E8 ; 6.114288795401839E8 ; 1.4459810765721094E10 ; 0.0
81 ; 7858400.276775518 ; 2.0153811112937215E8 ; 6.192906682245549E8 ; 1.4661334343474771E10 ; 0.0
82 ; 7854442.389974682 ; 2.0155265167438874E8 ; 6.271490685013304E8 ; 1.4862872454604143E10 ; 0.0
83 ; 7852892.70836383 ; 2.0156719805367798E8 ; 6.350035108913051E8 ; 1.5064425106278532E10 ; 0.0
84 ; 7853513.363986758 ; 2.0158174897970226E8 ; 6.428564035996689E8 ; 1.526599230433221E10 ; 0.0
85 ; 7849100.002379085 ; 2.0159630320990285E8 ; 6.507099169636556E8 ; 1.5467574053311913E10 ; 0.0
86 ; 7843354.19863704 ; 2.01610859544323E8 ; 6.585590169660347E8 ; 1.5669170356521816E10 ; 0.0
87 ; 7843924.966354848 ; 2.0162541682337573E8 ; 6.664023711646717E8 ; 1.587078121606614E10 ; 0.0
88 ; 7841843.766551355 ; 2.0163997392574653E8 ; 6.742462961310265E8 ; 1.6072406632889515E10 ; 0.0
89 ; 7835339.97660073 ; 2.016545297664223E8 ; 6.820881398975779E8 ; 1.6274046606815262E10 ; 0.0
90 ; 7835665.652604315 ; 2.0166908329483807E8 ; 6.899234798741786E8 ; 1.6475701136581684E10 ; 0.0
91 ; 7836922.313141063 ; 2.0168363349313378E8 ; 6.97759145526783E8 ; 1.6677370219876522E10 ; 0.0
92 ; 7830253.856055554 ; 2.016981793745139E8 ; 7.055960678399241E8 ; 1.6879053853369656E10 ; 0.0
93 ; 7824375.880137299 ; 2.017127199817034E8 ; 7.134263216959796E8 ; 1.708075203274417E10 ; 0.0
94 ; 7824301.492803695 ; 2.017272543854935E8 ; 7.212506975761169E8 ; 1.7282464752725872E10 ; 0.0
95 ; 7820582.218991715 ; 2.0174178168337178E8 ; 7.290749990689206E8 ; 1.7484192007111366E10 ; 0.0
96 ; 7815714.675116684 ; 2.0175630099823105E8 ; 7.368955812879124E8 ; 1.768593378879474E10 ; 0.0
97 ; 7810967.4057527855 ; 2.017708114771518E8 ; 7.44711295963029E8 ; 1.788769008979297E10 ; 0.0
98 ; 7810562.053130006 ; 2.017853122902542E8 ; 7.525222633687818E8 ; 1.808946090127012E10 ; 0.0
99 ; 7806398.549539285 ; 2.017998026296142E8 ; 7.603328254219118E8 ; 1.829124621356037E10 ; 0.0
100 ; 7801034.9512265865 ; 2.0181428170824105E8 ; 7.681392239714512E8 ; 1.8493046016189987E10 ; 0.0
101 ; 7798309.705789382 ; 2.0182874875911108E8 ; 7.759402589226778E8 ; 1.8694860297898228E10 ; 0.0
102 ; 7794799.410044972 ; 2.018432030342554E8 ; 7.837385686284671E8 ; 1.8896689046657337E10 ; 0.0
103 ; 7788579.113634775 ; 2.018576438038973E8 ; 7.915333680385121E8 ; 1.9098532249691593E10 ; 0.0
104 ; 7787528.021615299 ; 2.0187207035563698E8 ; 7.993219471521469E8 ; 1.930038989349549E10 ; 0.0
105 ; 7783082.300515307 ; 2.0188648199368027E8 ; 8.071094751737622E8 ; 1.9502261963851128E10 ; 0.0
106 ; 7780518.009803363 ; 2.019008780381089E8 ; 8.148925574742775E8 ; 1.9704148445844807E10 ; 0.0
107 ; 7775950.789650861 ; 2.019152578241898E8 ; 8.226730754840809E8 ; 1.9906049323882915E10 ; 0.0
108 ; 7769954.844758312 ; 2.0192962070172125E8 ; 8.304490262737318E8 ; 2.0107964581707104E10 ; 0.0
109 ; 7766887.440191654 ; 2.0194396603441313E8 ; 8.382189811184901E8 ; 2.0309894202408825E10 ; 0.0
110 ; 7758894.5588229485 ; 2.019582931993E8 ; 8.459858685586817E8 ; 2.0511838168443237E10 ; 0.0
111 ; 7756463.864350719 ; 2.019726015861846E8 ; 8.537447631175047E8 ; 2.0713796461642536E10 ; 0.0
112 ; 7751837.144641421 ; 2.0198689059711024E8 ; 8.615012269818554E8 ; 2.091576906322872E10 ; 0.0
113 ; 7747337.446420588 ; 2.020011596458601E8 ; 8.692530641264968E8 ; 2.1117755953825832E10 ; 0.0
114 ; 7745567.739868481 ; 2.0201540815748233E8 ; 8.770004015729173E8 ; 2.131975711347169E10 ; 0.0
115 ; 7739752.249464217 ; 2.020296355678391E8 ; 8.847459693127859E8 ; 2.1521772521629173E10 ; 0.0
116 ; 7733271.0182438735 ; 2.0204384132317838E8 ; 8.924857215622501E8 ; 2.1723802157197014E10 ; 0.0
117 ; 7731719.08723536 ; 2.0205802487972727E8 ; 9.00218992580494E8 ; 2.192584599852019E10 ; 0.0
118 ; 7727452.097193833 ; 2.0207218570330554E8 ; 9.079507116677294E8 ; 2.2127904023399918E10 ; 0.0
119 ; 7719820.271679125 ; 2.0208632326895812E8 ; 9.156781637649232E8 ; 2.232997620910322E10 ; 0.0
120 ; 7714979.615643118 ; 2.0210043706060597E8 ; 9.233979840366024E8 ; 2.253206253237218E10 ; 0.0
121 ; 7709194.57330444 ; 2.0211452657071367E8 ; 9.311129636522455E8 ; 2.2734162969432785E10 ; 0.0
122 ; 7702503.219006777 ; 2.0212859129997337E8 ; 9.388221582255499E8 ; 2.2936277496003498E10 ; 0.0
123 ; 7699305.763853471 ; 2.0214263075700396E8 ; 9.465246614445567E8 ; 2.313840608730347E10 ; 0.0
124 ; 7692488.785066729 ; 2.0215664445806453E8 ; 9.542239672084101E8 ; 2.3340548718060474E10 ; 0.0
125 ; 7687112.293749315 ; 2.0217063192678168E8 ; 9.619164559934769E8 ; 2.354270536251854E10 ; 0.0
126 ; 7686384.122900491 ; 2.0218459269388965E8 ; 9.696035682872262E8 ; 2.374487599444532E10 ; 0.0
127 ; 7676974.217022808 ; 2.0219852629698265E8 ; 9.772899524101267E8 ; 2.394706058713921E10 ; 0.0
128 ; 7670889.855301727 ; 2.0221243228027895E8 ; 9.849669266271495E8 ; 2.414925911343619E10 ; 0.0
129 ; 7665969.940183646 ; 2.0222631019439575E8 ; 9.926378164824512E8 ; 2.435147154571647E10 ; 0.0
130 ; 7659213.389926509 ; 2.022401595961347E8 ; 1.0003037864226348E9 ; 2.4553697855910866E10 ; 0.0
131 ; 7649427.352982818 ; 2.02253980048277E8 ; 1.0079629998125614E9 ; 2.4755938015507E10 ; 0.0
132 ; 7640130.295388767 ; 2.022677711193882E8 ; 1.0156124271655442E9 ; 2.495819199555528E10 ; 0.0
133 ; 7633754.200653468 ; 2.0228153238363174E8 ; 1.023252557460933E9 ; 2.5160459766674667E10 ; 0.0
134 ; 7625427.232449569 ; 2.0229526342059082E8 ; 1.0308863116615864E9 ; 2.53627412990583E10 ; 0.0
135 ; 7613304.369133955 ; 2.0230896381509858E8 ; 1.0385117388940359E9 ; 2.556503656247889E10 ; 0.0
136 ; 7608712.129611668 ; 2.0232263315707558E8 ; 1.0461250432631699E9 ; 2.5767345526293987E10 ; 0.0
137 ; 7600284.591513147 ; 2.0233627104137465E8 ; 1.0537337553927815E9 ; 2.596966815945106E10 ; 0.0
138 ; 7591438.316900672 ; 2.0234987706763273E8 ; 1.0613340399842947E9 ; 2.6172004430492435E10 ; 0.0
139 ; 7585264.992331546 ; 2.0236345084012908E8 ; 1.0689254783011954E9 ; 2.637435430756007E10 ; 0.0
140 ; 7573965.125412832 ; 2.0237699196764976E8 ; 1.076510743293527E9 ; 2.65767177584002E10 ; 0.0
141 ; 7561865.385533129 ; 2.0239050006335813E8 ; 1.0840847084189398E9 ; 2.677909475036785E10 ; 0.0
142 ; 7556069.802887089 ; 2.0240397474467072E8 ; 1.091646573804473E9 ; 2.698148525043121E10 ; 0.0
143 ; 7546316.369750801 ; 2.024174156331388E8 ; 1.0992026436073601E9 ; 2.718388922517588E10 ; 0.0
144 ; 7535878.907147713 ; 2.0243082235433477E8 ; 1.1067489599771109E9 ; 2.738630664080902E10 ; 0.0
145 ; 7531344.566384163 ; 2.024441945377436E8 ; 1.1142848388842585E9 ; 2.7588737463163357E10 ; 0.0
146 ; 7523053.592947814 ; 2.0245753181665874E8 ; 1.1218161834506426E9 ; 2.77911816577011E10 ; 0.0
147 ; 7518031.64072821 ; 2.0247083382808265E8 ; 1.1293392370435903E9 ; 2.7993639189517757E10 ; 0.0
148 ; 7512376.9826729065 ; 2.0248410021263131E8 ; 1.1368572686843185E9 ; 2.819611002334584E10 ; 0.0
149 ; 7501960.627420453 ; 2.0249733061444288E8 ; 1.1443696456669915E9 ; 2.839859412355847E10 ; 0.0
150 ; 7497199.6535697635 ; 2.025105246810902E8 ; 1.151871606294412E9 ; 2.8601091454172916E10 ; 0.0
151 ; 7492386.80674129 ; 2.025236820634968E8 ; 1.1593688059479816E9 ; 2.8803601978854008E10 ; 0.0
152 ; 7486037.261447461 ; 2.0253680241585666E8 ; 1.1668611927547228E9 ; 2.9006125660917503E10 ; 0.0
153 ; 7477563.75230138 ; 2.0254988539555693E8 ; 1.1743472300161703E9 ; 2.920866246333336E10 ; 0.0
154 ; 7473119.345750088 ; 2.0256293066310415E8 ; 1.1818247937684717E9 ; 2.9411212348728916E10 ; 0.0
155 ; 7466549.177504587 ; 2.0257593788205346E8 ; 1.1892979131142218E9 ; 2.961377527939202E10 ; 0.0
156 ; 7459562.128243612 ; 2.025889067189404E8 ; 1.1967644622917264E9 ; 2.9816351217274075E10 ; 0.0
157 ; 7452653.697285148 ; 2.026018368432159E8 ; 1.20422402441997E9 ; 3.0018940123993015E10 ; 0.0
158 ; 7446735.538880355 ; 2.026147279271837E8 ; 1.2116766781172552E9 ; 3.022154196083623E10 ; 0.0
159 ; 7441274.322565775 ; 2.026275796459402E8 ; 1.2191234136561356E9 ; 3.0424156688763416E10 ; 0.0
160 ; 7432570.211679978 ; 2.026403916773171E8 ; 1.2265646879787014E9 ; 3.0626784268409355E10 ; 0.0
161 ; 7424274.750979321 ; 2.026531637018259E8 ; 1.2339972581903813E9 ; 3.0829424660086674E10 ; 0.0
162 ; 7418201.564596985 ; 2.0266589540260485E8 ; 1.2414215329413607E9 ; 3.1032077823788498E10 ; 0.0
163 ; 7411120.20610185 ; 2.0267858646536812E8 ; 1.2488397345059576E9 ; 3.12347437191911E10 ; 0.0
164 ; 7406513.588517471 ; 2.0269123657835683E8 ; 1.2562508547120595E9 ; 3.1437422305656467E10 ; 0.0
165 ; 7397939.237092676 ; 2.0270384543229204E8 ; 1.263657368300577E9 ; 3.1640113542234825E10 ; 0.0
166 ; 7390650.408684294 ; 2.0271641272032967E8 ; 1.2710553075376697E9 ; 3.1842817387667118E10 ; 0.0
167 ; 7383297.547574423 ; 2.0272893813801715E8 ; 1.278445957946354E9 ; 3.2045533800387447E10 ; 0.0
168 ; 7378873.3227628805 ; 2.0274142138325176E8 ; 1.2858292554939284E9 ; 3.2248262738525463E10 ; 0.0
169 ; 7370710.118868977 ; 2.027538621562407E8 ; 1.2932081288166914E9 ; 3.2451004159908714E10 ; 0.0
170 ; 7363011.648066143 ; 2.0276626015946272E8 ; 1.3005788389355605E9 ; 3.2653758022064957E10 ; 0.0
171 ; 7355759.651385071 ; 2.02778615097631E8 ; 1.3079418505836265E9 ; 3.285652428222442E10 ; 0.0
172 ; 7347547.606030056 ; 2.0279092667765793E8 ; 1.3152976102350116E9 ; 3.305930289732205E10 ; 0.0
173 ; 7340174.382886721 ; 2.028031946086208E8 ; 1.3226451578410416E9 ; 3.3262093823999706E10 ; 0.0
174 ; 7337865.306175586 ; 2.0281541860172918E8 ; 1.3299853322239282E9 ; 3.3464897018608326E10 ; 0.0
175 ; 7332443.394191229 ; 2.0282759837029338E8 ; 1.3373231975301037E9 ; 3.3667712437210056E10 ; 0.0
176 ; 7329560.222004243 ; 2.0283973362969413E8 ; 1.344655640924295E9 ; 3.387054003558035E10 ; 0.0
177 ; 7322418.684126635 ; 2.0285182409735358E8 ; 1.3519852011462991E9 ; 3.4073379769210045E10 ; 0.0
178 ; 7319843.752563903 ; 2.0286386949270722E8 ; 1.3593076198304257E9 ; 3.42762315933074E10 ; 0.0
179 ; 7317591.4516667845 ; 2.028758695371771E8 ; 1.3666274635829897E9 ; 3.447909546280011E10 ; 0.0
180 ; 7311365.189157106 ; 2.0288782395414588E8 ; 1.3739450550346565E9 ; 3.468197133233729E10 ; 0.0
181 ; 7308762.0843386445 ; 2.0289973246893203E8 ; 1.3812564202238135E9 ; 3.4884859156291435E10 ; 0.0
182 ; 7301371.162023923 ; 2.0291159480876586E8 ; 1.3885651823081522E9 ; 3.508775888876037E10 ; 0.0
183 ; 7295316.405449776 ; 2.029234107027667E8 ; 1.3958665534701762E9 ; 3.529067048356914E10 ; 0.0
184 ; 7291620.2836091 ; 2.0293517988192055E8 ; 1.403161869875626E9 ; 3.5493593894271904E10 ; 0.0
185 ; 7290721.59321167 ; 2.029469020790591E8 ; 1.4104534901592352E9 ; 3.5696529074153824E10 ; 0.0
186 ; 7285302.041630505 ; 2.0295857702883914E8 ; 1.417744211752447E9 ; 3.589947597623288E10 ; 0.0
187 ; 7280139.926613854 ; 2.0297020446772298E8 ; 1.4250295137940774E9 ; 3.610243455326172E10 ; 0.0
188 ; 7274107.719576131 ; 2.0298178413395956E8 ; 1.4323096537206912E9 ; 3.630540475772944E10 ; 0.0
189 ; 7273208.258370572 ; 2.0299331576756626E8 ; 1.4395837614402673E9 ; 3.6508386541863396E10 ; 0.0
190 ; 7267153.578704625 ; 2.0300479911031145E8 ; 1.446856969698638E9 ; 3.671137985763096E10 ; 0.0
191 ; 7262901.23723977 ; 2.030162339056978E8 ; 1.4541241232773426E9 ; 3.691438465674127E10 ; 0.0
192 ; 7257251.579865296 ; 2.03027619898946E8 ; 1.4613870245145824E9 ; 3.711740089064697E10 ; 0.0
193 ; 7254305.329441838 ; 2.0303895683697927E8 ; 1.4686442760944476E9 ; 3.732042851054592E10 ; 0.0
194 ; 7249713.320956163 ; 2.030502444684086E8 ; 1.4758985814238894E9 ; 3.7523467467382904E10 ; 0.0
195 ; 7244719.659675764 ; 2.0306148254351825E8 ; 1.4831482947448456E9 ; 3.772651771185131E10 ; 0.0
196 ; 7241649.912989765 ; 2.0307267081425196E8 ; 1.4903930144045215E9 ; 3.792957919439483E10 ; 0.0
197 ; 7236460.131554684 ; 2.0308380903419983E8 ; 1.4976346643175113E9 ; 3.813265186520908E10 ; 0.0
198 ; 7232014.983888799 ; 2.030948969585855E8 ; 1.504871124449066E9 ; 3.8335735674243286E10 ; 0.0
199 ; 7227593.227265767 ; 2.0310593434425396E8 ; 1.5121031394329548E9 ; 3.853883057120187E10 ; 0.0
200 ; 7221519.172737613 ; 2.0311692094965976E8 ; 1.5193307326602206E9 ; 3.874193650554613E10 ; 0.0
201 ; 7218983.862077375 ; 1.677251975508409E8 ; 1.5265522518329582E9 ; 3.894505342649579E10 ; 0.0
