CSV File for the City 1 on Day 310
1 - Minute m 
2 - Power Consumed at minute m 
3 - Power Produced at minute m 
4 - Energy Consumed since the beginning of the day 
5 - Energy Produced since the beginning of the day 
6 - Energy Lost since the beginning of the day on lines starting from the city
 
0 ; 1.6244199567697851E7 ; 1.057992050821602E8 ; 0.0 ; 0.0 ; 0.0
1 ; 1.6261384561933447E7 ; 1.0595205201801193E8 ; 1.6244199567697851E7 ; 1.057992050821602E8 ; 0.0
2 ; 1.6281351419140533E7 ; 1.0641369288992694E8 ; 3.2505584129631296E7 ; 2.1175125710017213E8 ; 0.0
3 ; 1.6299709458902199E7 ; 1.0718412874969107E8 ; 4.878693554877183E7 ; 3.181649499900991E8 ; 0.0
4 ; 1.6322681326549208E7 ; 1.0826336053450662E8 ; 6.508664500767402E7 ; 4.2534907873979014E8 ; 0.0
5 ; 1.6351885448775921E7 ; 1.0965138906365085E8 ; 8.140932633422323E7 ; 5.3361243927429676E8 ; 0.0
6 ; 1.6396247207162755E7 ; 1.1134821503551933E8 ; 9.776121178299914E7 ; 6.432638283379476E8 ; 0.0
7 ; 1.645006208552945E7 ; 1.1335383902507985E8 ; 1.141574589901619E8 ; 7.54612043373467E8 ; 0.0
8 ; 1.6529447594088877E7 ; 1.1566826148175812E8 ; 1.3060752107569134E8 ; 8.679658823985468E8 ; 0.0
9 ; 1.6644373285982566E7 ; 1.182914827277739E8 ; 1.4713696866978022E8 ; 9.836341438803049E8 ; 0.0
10 ; 1.6832500933740683E7 ; 1.212235029569416E8 ; 1.637813419557628E8 ; 1.101925626608079E9 ; 0.0
11 ; 1.711864293079818E7 ; 1.2446432223394677E8 ; 1.8061384288950348E8 ; 1.2231491295650206E9 ; 0.0
12 ; 1.7582821659190733E7 ; 1.2801394049410382E8 ; 1.9773248582030165E8 ; 1.3476134517989674E9 ; 0.0
13 ; 1.803165576559938E7 ; 1.3187235754359835E8 ; 2.153153074794924E8 ; 1.4756273922930713E9 ; 0.0
14 ; 1.8083729655128673E7 ; 1.360395730602107E8 ; 2.3334696324509177E8 ; 1.6074997498366697E9 ; 0.0
15 ; 1.8107002393883467E7 ; 1.4051558659451503E8 ; 2.5143069290022045E8 ; 1.7435393228968804E9 ; 0.0
16 ; 1.8125306745723672E7 ; 1.4530039757154366E8 ; 2.695376952941039E8 ; 1.8840549094913955E9 ; 0.0
17 ; 1.81490750655253E7 ; 1.5039400529290095E8 ; 2.876630020398276E8 ; 2.0293553070629392E9 ; 0.0
18 ; 1.817194735633316E7 ; 1.5579640893930966E8 ; 3.058120771053529E8 ; 2.17974931235584E9 ; 0.0
19 ; 1.8192514558958065E7 ; 1.6150760757356748E8 ; 3.23984024461686E8 ; 2.33554572129515E9 ; 0.0
20 ; 1.8216598702565398E7 ; 1.6752760014388856E8 ; 3.4217653902064407E8 ; 2.497053328868717E9 ; 0.0
21 ; 1.823918460223999E7 ; 1.7385638548760256E8 ; 3.6039313772320944E8 ; 2.6645809290126057E9 ; 0.0
22 ; 1.826359074266848E7 ; 1.804939623351813E8 ; 3.786323223254494E8 ; 2.8384373145002084E9 ; 0.0
23 ; 1.828791321259692E7 ; 1.874403293145609E8 ; 3.9689591306811786E8 ; 3.0189312768353896E9 ; 0.0
24 ; 1.8307856100463696E7 ; 1.946954849557253E8 ; 4.1518382628071475E8 ; 3.2063716061499505E9 ; 0.0
25 ; 1.832704887060781E7 ; 2.0094746859370145E8 ; 4.3349168238117844E8 ; 3.4010670911056757E9 ; 0.0
26 ; 1.8349417944772996E7 ; 2.009498264104582E8 ; 4.5181873125178623E8 ; 3.602014559699377E9 ; 0.0
27 ; 1.8373901148959987E7 ; 2.0095232596497002E8 ; 4.7016814919655925E8 ; 3.802964386109835E9 ; 0.0
28 ; 1.8398693031443495E7 ; 2.0095496544527113E8 ; 4.8854205034551924E8 ; 4.0039167120748053E9 ; 0.0
29 ; 1.841817375473578E7 ; 2.009577429670701E8 ; 5.069407433769627E8 ; 4.2048716775200763E9 ; 0.0
30 ; 1.8438196810642593E7 ; 2.009606565791727E8 ; 5.253589171316985E8 ; 4.405829420487146E9 ; 0.0
31 ; 1.84579294320381E7 ; 2.0096370426892626E8 ; 5.437971139423411E8 ; 4.606790077066319E9 ; 0.0
32 ; 1.8482524585038297E7 ; 2.0096688396765488E8 ; 5.622550433743792E8 ; 4.807753781335246E9 ; 0.0
33 ; 1.850334318890884E7 ; 2.0097019355605644E8 ; 5.807375679594175E8 ; 5.008720665302901E9 ; 0.0
34 ; 1.851858697746417E7 ; 2.0097363086953464E8 ; 5.992409111483263E8 ; 5.209690858858957E9 ; 0.0
35 ; 1.854188472317828E7 ; 2.0097719370344132E8 ; 6.177594981257905E8 ; 5.410664489728492E9 ; 0.0
36 ; 1.8559144667290557E7 ; 2.0098087981820637E8 ; 6.363013828489687E8 ; 5.611641683431933E9 ; 0.0
37 ; 1.857452716651254E7 ; 2.0098468694433516E8 ; 6.548605275162593E8 ; 5.81262256325014E9 ; 0.0
38 ; 1.859056444225593E7 ; 2.0098861278725582E8 ; 6.734350546827718E8 ; 6.013607250194475E9 ; 0.0
39 ; 1.860758361821752E7 ; 2.0099265503200045E8 ; 6.920256191250278E8 ; 6.214595862981731E9 ; 0.0
40 ; 1.8623655986654177E7 ; 2.009968113477073E8 ; 7.106332027432452E8 ; 6.415588518013732E9 ; 0.0
41 ; 1.8639379748828895E7 ; 2.0100107939193317E8 ; 7.292568587298994E8 ; 6.61658532936144E9 ; 0.0
42 ; 1.8653494588868223E7 ; 2.010054568147668E8 ; 7.478962384787283E8 ; 6.817586408753373E9 ; 0.0
43 ; 1.865759369507842E7 ; 2.0100994126273698E8 ; 7.665497330675966E8 ; 7.01859186556814E9 ; 0.0
44 ; 1.8647878660645332E7 ; 2.0101453038251045E8 ; 7.852073267626749E8 ; 7.219601806830877E9 ; 0.0
45 ; 1.8641300702891875E7 ; 2.0101922182437652E8 ; 8.038552054233203E8 ; 7.4206163372133875E9 ; 0.0
46 ; 1.863252892419489E7 ; 2.0102401324551743E8 ; 8.224965061262121E8 ; 7.621635559037764E9 ; 0.0
47 ; 1.862037915870836E7 ; 2.010289023130646E8 ; 8.41129035050407E8 ; 7.822659572283281E9 ; 0.0
48 ; 1.8611812499188147E7 ; 2.0103388670694232E8 ; 8.597494142091154E8 ; 8.023688474596346E9 ; 0.0
49 ; 1.859968122925063E7 ; 2.0103896412250194E8 ; 8.783612267083036E8 ; 8.224722361303288E9 ; 0.0
50 ; 1.8587245125025667E7 ; 2.0104413227295053E8 ; 8.969609079375542E8 ; 8.425761325425791E9 ; 0.0
51 ; 1.8570105101994645E7 ; 2.0104938889157888E8 ; 9.155481530625799E8 ; 8.626805457698742E9 ; 0.0
52 ; 1.856070254049603E7 ; 2.0105473173379475E8 ; 9.341182581645745E8 ; 8.82785484659032E9 ; 0.0
53 ; 1.8545058012413424E7 ; 2.0106015857896733E8 ; 9.526789607050705E8 ; 9.028909578324116E9 ; 0.0
54 ; 1.85335497660325E7 ; 2.0106566723209083E8 ; 9.712240187174839E8 ; 9.229969736903084E9 ; 0.0
55 ; 1.852058202587513E7 ; 2.0107125552527347E8 ; 9.897575684835163E8 ; 9.431035404135174E9 ; 0.0
56 ; 1.850573050988617E7 ; 2.0107692131906056E8 ; 1.0082781505093914E9 ; 9.632106659660448E9 ; 0.0
57 ; 1.8490429586390786E7 ; 2.010826625035993E8 ; 1.0267838810192776E9 ; 9.83318358097951E9 ; 0.0
58 ; 1.8475102492383696E7 ; 2.0108847699965337E8 ; 1.0452743106056683E9 ; 1.0034266243483109E10 ; 0.0
59 ; 1.8459502831145927E7 ; 2.0109436275947592E8 ; 1.063749413098052E9 ; 1.0235354720482761E10 ; 0.0
60 ; 1.8450781555167362E7 ; 2.011003177675485E8 ; 1.082208915929198E9 ; 1.0436449083242237E10 ; 0.0
61 ; 1.8438651427119397E7 ; 2.0110634004119518E8 ; 1.1006596974843655E9 ; 1.0637549401009785E10 ; 0.0
62 ; 1.8418932543468527E7 ; 2.0111242763107866E8 ; 1.119098348911485E9 ; 1.083865574105098E10 ; 0.0
63 ; 1.840156688200616E7 ; 2.0111857862158743E8 ; 1.1375172814549534E9 ; 1.1039768168682058E10 ; 0.0
64 ; 1.8391357922746774E7 ; 2.0112479113112074E8 ; 1.1559188483369596E9 ; 1.1240886747303646E10 ; 0.0
65 ; 1.8375919207192056E7 ; 2.011310633122797E8 ; 1.1743102062597063E9 ; 1.1442011538434767E10 ; 0.0
66 ; 1.83606510397092E7 ; 2.011373933519711E8 ; 1.1926861254668982E9 ; 1.1643142601747047E10 ; 0.0
67 ; 1.8346186777886257E7 ; 2.0114377947143093E8 ; 1.2110467765066073E9 ; 1.1844279995099018E10 ; 0.0
68 ; 1.832804889081532E7 ; 2.01150219926175E8 ; 1.2293929632844934E9 ; 1.204542377457045E10 ; 0.0
69 ; 1.8312808741137214E7 ; 2.0115671300588197E8 ; 1.2477210121753087E9 ; 1.2246573994496624E10 ; 0.0
70 ; 1.8300090430580355E7 ; 2.0116325703421557E8 ; 1.266033820916446E9 ; 1.2447730707502506E10 ; 0.0
71 ; 1.8280639888893396E7 ; 2.0116985036859143E8 ; 1.2843339113470263E9 ; 1.2648893964536722E10 ; 0.0
72 ; 1.8266390979626738E7 ; 2.0117649139989403E8 ; 1.3026145512359197E9 ; 1.2850063814905313E10 ; 0.0
73 ; 1.824785812941348E7 ; 2.0118317855214906E8 ; 1.3208809422155464E9 ; 1.3051240306305208E10 ; 0.0
74 ; 1.8225688539639916E7 ; 2.0118991028215542E8 ; 1.3391288003449597E9 ; 1.3252423484857357E10 ; 0.0
75 ; 1.8213617497985523E7 ; 2.0119668507908213E8 ; 1.3573544888845997E9 ; 1.3453613395139513E10 ; 0.0
76 ; 1.820046260482698E7 ; 2.012035014640337E8 ; 1.3755681063825853E9 ; 1.3654810080218596E10 ; 0.0
77 ; 1.8180815537372496E7 ; 2.012103579895883E8 ; 1.3937685689874122E9 ; 1.3856013581682629E10 ; 0.0
78 ; 1.8159926444676794E7 ; 2.0121725323931217E8 ; 1.4119493845247848E9 ; 1.4057223939672216E10 ; 0.0
79 ; 1.813585533430194E7 ; 2.0122418582725376E8 ; 1.4301093109694617E9 ; 1.425844119291153E10 ; 0.0
80 ; 1.811115230690952E7 ; 2.0123115439742064E8 ; 1.4482451663037636E9 ; 1.4459665378738783E10 ; 0.0
81 ; 1.808837578921149E7 ; 2.0123815762324208E8 ; 1.4663563186106732E9 ; 1.4660896533136204E10 ; 0.0
82 ; 1.806933563645038E7 ; 2.0124519420702013E8 ; 1.4844446943998847E9 ; 1.4862134690759445E10 ; 0.0
83 ; 1.8043239552505065E7 ; 2.0125226287937137E8 ; 1.502514030036335E9 ; 1.5063379884966465E10 ; 0.0
84 ; 1.8020630347162254E7 ; 2.0125936239866164E8 ; 1.52055726958884E9 ; 1.5264632147845837E10 ; 0.0
85 ; 1.7998467812149543E7 ; 2.0126649155043623E8 ; 1.5385778999360023E9 ; 1.54658915102445E10 ; 0.0
86 ; 1.7975717258930594E7 ; 2.0127364914684638E8 ; 1.5565763677481518E9 ; 1.5667158001794935E10 ; 0.0
87 ; 1.794681589987512E7 ; 2.0128083402607518E8 ; 1.5745520850070825E9 ; 1.5868431650941782E10 ; 0.0
88 ; 1.7926747777005177E7 ; 2.0128804505176288E8 ; 1.5924989009069576E9 ; 1.6069712484967857E10 ; 0.0
89 ; 1.7899766724952355E7 ; 2.0129528111243427E8 ; 1.6104256486839628E9 ; 1.627100053001962E10 ; 0.0
90 ; 1.7877884751815237E7 ; 2.0130254112092865E8 ; 1.6283254154089153E9 ; 1.6472295811132055E10 ; 0.0
91 ; 1.785209389473505E7 ; 2.0130982401383358E8 ; 1.6462033001607306E9 ; 1.6673598352252983E10 ; 0.0
92 ; 1.7828167054202825E7 ; 2.013171287509238E8 ; 1.6640553940554657E9 ; 1.6874908176266817E10 ; 0.0
93 ; 1.780551003078789E7 ; 2.013244543146056E8 ; 1.6818835611096685E9 ; 1.707622530501774E10 ; 0.0
94 ; 1.7778962890071474E7 ; 2.0133179970936784E8 ; 1.6996890711404564E9 ; 1.7277549759332344E10 ; 0.0
95 ; 1.7755008336238023E7 ; 2.013391639612402E8 ; 1.7174680340305278E9 ; 1.7478881559041714E10 ; 0.0
96 ; 1.7730086910092223E7 ; 2.0134654611725935E8 ; 1.7352230423667657E9 ; 1.7680220723002953E10 ; 0.0
97 ; 1.770398394464464E7 ; 2.0135394524494302E8 ; 1.7529531292768579E9 ; 1.7881567269120213E10 ; 0.0
98 ; 1.7679707044041473E7 ; 2.0136136043177336E8 ; 1.7706571132215025E9 ; 1.8082921214365154E10 ; 0.0
99 ; 1.7653985367289014E7 ; 2.0136879078468898E8 ; 1.788336820265544E9 ; 1.828428257479693E10 ; 0.0
100 ; 1.7629002450208433E7 ; 2.013762354295866E8 ; 1.805990805632833E9 ; 1.848565136558162E10 ; 0.0
101 ; 1.7601520366085723E7 ; 2.013836935108324E8 ; 1.8236198080830414E9 ; 1.8687027601011208E10 ; 0.0
102 ; 1.7573316469758462E7 ; 2.013911641907831E8 ; 1.8412213284491272E9 ; 1.888841129452204E10 ; 0.0
103 ; 1.7544494613895684E7 ; 2.0139864664931732E8 ; 1.8587946449188857E9 ; 1.9089802458712826E10 ; 0.0
104 ; 1.7519364414812736E7 ; 2.0140614008337674E8 ; 1.8763391395327814E9 ; 1.9291201105362144E10 ; 0.0
105 ; 1.749586839185949E7 ; 2.0141364370651767E8 ; 1.8938585039475942E9 ; 1.9492607245445522E10 ; 0.0
106 ; 1.74683730106738E7 ; 2.0142115674847296E8 ; 1.9113543723394537E9 ; 1.969402088915204E10 ; 0.0
107 ; 1.7440948498719193E7 ; 2.014286784547239E8 ; 1.9288227453501275E9 ; 1.9895442045900513E10 ; 0.0
108 ; 1.7415537401857678E7 ; 2.0143620808608255E8 ; 1.9462636938488467E9 ; 2.0096870724355236E10 ; 0.0
109 ; 1.739292926506068E7 ; 2.0144374491828415E8 ; 1.9636792312507043E9 ; 2.029830693244132E10 ; 0.0
110 ; 1.736087960327032E7 ; 2.0145128824158975E8 ; 1.981072160515765E9 ; 2.0499750677359604E10 ; 0.0
111 ; 1.7336900656058166E7 ; 2.0145883736039886E8 ; 1.9984330401190352E9 ; 2.0701201965601192E10 ; 0.0
112 ; 1.730859682406516E7 ; 2.0146639159287181E8 ; 2.0157699407750933E9 ; 2.090266080296159E10 ; 0.0
113 ; 1.7281105573131595E7 ; 2.0147395027056226E8 ; 2.0330785375991585E9 ; 2.1104127194554462E10 ; 0.0
114 ; 1.7248564148683928E7 ; 2.0148151273805922E8 ; 2.05035964317229E9 ; 2.1305601144825024E10 ; 0.0
115 ; 1.72208696171558E7 ; 2.0148907835263848E8 ; 2.067608207320974E9 ; 2.1507082657563084E10 ; 0.0
116 ; 1.7196876993413527E7 ; 2.0149664648392367E8 ; 2.08482907693813E9 ; 2.170857173591572E10 ; 0.0
117 ; 1.7163152319838338E7 ; 2.0150421651355642E8 ; 2.1020259539315434E9 ; 2.1910068382399647E10 ; 0.0
118 ; 1.71340336387307E7 ; 2.015117878348755E8 ; 2.1191891062513816E9 ; 2.2111572598913204E10 ; 0.0
119 ; 1.710972257836802E7 ; 2.0151935985260496E8 ; 2.1363231398901124E9 ; 2.231308438674808E10 ; 0.0
120 ; 1.7076895003239855E7 ; 2.015269319825509E8 ; 2.1534328624684806E9 ; 2.2514603746600685E10 ; 0.0
121 ; 1.704902922503969E7 ; 2.0153450365130678E8 ; 2.17050975747172E9 ; 2.2716130678583237E10 ; 0.0
122 ; 1.7021375903773423E7 ; 2.015420742959672E8 ; 2.1875587866967597E9 ; 2.2917665182234543E10 ; 0.0
123 ; 1.6993870117345672E7 ; 2.0154964336384943E8 ; 2.204580162600533E9 ; 2.311920725653051E10 ; 0.0
124 ; 1.6957893012947205E7 ; 2.0155721031222337E8 ; 2.221574032717879E9 ; 2.332075689989436E10 ; 0.0
125 ; 1.6935177229532845E7 ; 2.0156477460804904E8 ; 2.238531925730826E9 ; 2.352231411020658E10 ; 0.0
126 ; 1.6904230989914764E7 ; 2.0157233572772157E8 ; 2.2554671029603586E9 ; 2.372387888481463E10 ; 0.0
127 ; 1.687495818219632E7 ; 2.015798931568239E8 ; 2.2723713339502735E9 ; 2.392545122054235E10 ; 0.0
128 ; 1.6842844133847393E7 ; 2.0158744638988635E8 ; 2.2892462921324697E9 ; 2.4127031113699173E10 ; 0.0
129 ; 1.681219572562964E7 ; 2.0159499493015328E8 ; 2.306089136266317E9 ; 2.4328618560089058E10 ; 0.0
130 ; 1.677719996581872E7 ; 2.0160253828935695E8 ; 2.3229013319919467E9 ; 2.453021355501921E10 ; 0.0
131 ; 1.6744191537446557E7 ; 2.0161007598749742E8 ; 2.3396785319577656E9 ; 2.4731816093308567E10 ; 0.0
132 ; 1.6704396357609974E7 ; 2.0161760755262956E8 ; 2.356422723495212E9 ; 2.4933426169296066E10 ; 0.0
133 ; 1.666968546957669E7 ; 2.016251325206558E8 ; 2.373127119852822E9 ; 2.5135043776848698E10 ; 0.0
134 ; 1.6635230908802653E7 ; 2.0163265043512556E8 ; 2.3897968053223987E9 ; 2.5336668909369354E10 ; 0.0
135 ; 1.6599798129000468E7 ; 2.016401608470401E8 ; 2.406432036231201E9 ; 2.553830155980448E10 ; 0.0
136 ; 1.6559872875400819E7 ; 2.0164766331466356E8 ; 2.423031834360202E9 ; 2.573994172065152E10 ; 0.0
137 ; 1.6521715486538598E7 ; 2.0165515740333953E8 ; 2.439591707235603E9 ; 2.5941589383966183E10 ; 0.0
138 ; 1.6485872929388488E7 ; 2.0166264268531293E8 ; 2.4561134227221413E9 ; 2.6143244541369522E10 ; 0.0
139 ; 1.6448749498674283E7 ; 2.0167011873955745E8 ; 2.47259929565153E9 ; 2.6344907184054836E10 ; 0.0
140 ; 1.6412687693420872E7 ; 2.016775851516078E8 ; 2.489048045150204E9 ; 2.6546577302794395E10 ; 0.0
141 ; 1.637764952947774E7 ; 2.0168504151339754E8 ; 2.505460732843625E9 ; 2.6748254887946003E10 ; 0.0
142 ; 1.6334489351589737E7 ; 2.0169248742310107E8 ; 2.5218383823731027E9 ; 2.69499399294594E10 ; 0.0
143 ; 1.6302447469742747E7 ; 2.0169992248498076E8 ; 2.5381728717246923E9 ; 2.71516324168825E10 ; 0.0
144 ; 1.6264908666912632E7 ; 2.017073463092388E8 ; 2.554475319194435E9 ; 2.735333233936748E10 ; 0.0
145 ; 1.6231697885795377E7 ; 2.017147585118729E8 ; 2.5707402278613477E9 ; 2.755503968567672E10 ; 0.0
146 ; 1.6197591866768936E7 ; 2.017221587145369E8 ; 2.5869719257471433E9 ; 2.775675444418859E10 ; 0.0
147 ; 1.6164356431697508E7 ; 2.0172954654440534E8 ; 2.603169517613912E9 ; 2.795847660290313E10 ; 0.0
148 ; 1.6139656059715541E7 ; 2.017369216340419E8 ; 2.6193338740456095E9 ; 2.8160206149447536E10 ; 0.0
149 ; 1.6105582572039686E7 ; 2.0174428362127197E8 ; 2.635473530105325E9 ; 2.8361943071081577E10 ; 0.0
150 ; 1.6078266331990143E7 ; 2.0175163214905903E8 ; 2.651579112677365E9 ; 2.856368735470285E10 ; 0.0
151 ; 1.6048348858440492E7 ; 2.0175896686538476E8 ; 2.667657379009355E9 ; 2.876543898685191E10 ; 0.0
152 ; 1.60119548158829E7 ; 2.017662874231324E8 ; 2.6837057278677955E9 ; 2.8967197953717293E10 ; 0.0
153 ; 1.5983376616167234E7 ; 2.0177359347997406E8 ; 2.699717682683678E9 ; 2.9168964241140427E10 ; 0.0
154 ; 1.5950585331732027E7 ; 2.0178088469826114E8 ; 2.715701059299845E9 ; 2.93707378346204E10 ; 0.0
155 ; 1.5921531668686507E7 ; 2.017881607449179E8 ; 2.731651644631577E9 ; 2.957251871931866E10 ; 0.0
156 ; 1.5890409474678606E7 ; 2.017954212913385E8 ; 2.7475731763002634E9 ; 2.977430688006358E10 ; 0.0
157 ; 1.5858449455067163E7 ; 2.018026660132868E8 ; 2.763463585774942E9 ; 2.997610230135492E10 ; 0.0
158 ; 1.582604301957647E7 ; 2.0180989459079942E8 ; 2.779322035230009E9 ; 3.0177904967368206E10 ; 0.0
159 ; 1.5793224432160724E7 ; 2.0181710670809135E8 ; 2.7951480782495856E9 ; 3.0379714861959007E10 ; 0.0
160 ; 1.5762592500066562E7 ; 2.0182430205346468E8 ; 2.8109413026817465E9 ; 3.05815319686671E10 ; 0.0
161 ; 1.572997259242156E7 ; 2.0183148031921986E8 ; 2.8267038951818132E9 ; 3.0783356270720562E10 ; 0.0
162 ; 1.5697649288795942E7 ; 2.0183864120156947E8 ; 2.842433867774235E9 ; 3.0985187751039783E10 ; 0.0
163 ; 1.566864407800149E7 ; 2.0184578440055493E8 ; 2.8581315170630307E9 ; 3.1187026392241352E10 ; 0.0
164 ; 1.5634205732893448E7 ; 2.0185290961996517E8 ; 2.873800161141032E9 ; 3.1388872176641907E10 ; 0.0
165 ; 1.5603462664877407E7 ; 2.01860016567258E8 ; 2.8894343668739257E9 ; 3.159072508626187E10 ; 0.0
166 ; 1.5572177809233667E7 ; 2.0186710495348385E8 ; 2.905037829538803E9 ; 3.179258510282913E10 ; 0.0
167 ; 1.5535407601413395E7 ; 2.018741744932114E8 ; 2.920610007348037E9 ; 3.199445220778261E10 ; 0.0
168 ; 1.5507414279374283E7 ; 2.018812249044558E8 ; 2.93614541494945E9 ; 3.219632638227582E10 ; 0.0
169 ; 1.5473490264387203E7 ; 2.0188825590860873E8 ; 2.951652829228824E9 ; 3.239820760718028E10 ; 0.0
170 ; 1.5446002539461156E7 ; 2.0189526723037055E8 ; 2.9671263194932113E9 ; 3.2600095863088886E10 ; 0.0
171 ; 1.541132901324495E7 ; 2.019E8 ; 2.9825723220326724E9 ; 3.2801991130319256E10 ; 0.0
172 ; 1.5378854840857936E7 ; 2.019E8 ; 2.9979836510459175E9 ; 3.3003891130319256E10 ; 0.0
173 ; 1.5347729775173679E7 ; 2.019E8 ; 3.0133625058867755E9 ; 3.3205791130319256E10 ; 0.0
174 ; 1.531693717762346E7 ; 2.019E8 ; 3.028710235661949E9 ; 3.3407691130319256E10 ; 0.0
175 ; 1.5294252287386553E7 ; 2.019E8 ; 3.0440271728395724E9 ; 3.3609591130319256E10 ; 0.0
176 ; 1.5265511890678026E7 ; 2.019E8 ; 3.059321425126959E9 ; 3.3811491130319256E10 ; 0.0
177 ; 1.5234439304948062E7 ; 2.019E8 ; 3.074586937017637E9 ; 3.4013391130319256E10 ; 0.0
178 ; 1.5209342188408341E7 ; 2.019E8 ; 3.0898213763225846E9 ; 3.4215291130319256E10 ; 0.0
179 ; 1.5180077069873363E7 ; 2.019E8 ; 3.105030718510993E9 ; 3.441719113031926E10 ; 0.0
180 ; 1.51525659160695E7 ; 2.019E8 ; 3.1202107955808663E9 ; 3.461909113031926E10 ; 0.0
181 ; 1.5125961758854948E7 ; 2.019E8 ; 3.135363361496936E9 ; 3.482099113031926E10 ; 0.0
182 ; 1.5099030658205941E7 ; 2.019E8 ; 3.1504893232557907E9 ; 3.502289113031926E10 ; 0.0
183 ; 1.506988198417205E7 ; 2.019E8 ; 3.1655883539139967E9 ; 3.522479113031926E10 ; 0.0
184 ; 1.5039755798778856E7 ; 2.019E8 ; 3.1806582358981686E9 ; 3.542669113031926E10 ; 0.0
185 ; 1.5016545822742704E7 ; 2.019E8 ; 3.1956979916969476E9 ; 3.562859113031926E10 ; 0.0
186 ; 1.4982788103784211E7 ; 2.019E8 ; 3.2107145375196905E9 ; 3.583049113031926E10 ; 0.0
187 ; 1.4954785544770423E7 ; 2.019E8 ; 3.2256973256234746E9 ; 3.603239113031926E10 ; 0.0
188 ; 1.4928227510400252E7 ; 2.019E8 ; 3.240652111168245E9 ; 3.623429113031926E10 ; 0.0
189 ; 1.490357495902893E7 ; 2.019E8 ; 3.255580338678645E9 ; 3.643619113031926E10 ; 0.0
190 ; 1.4877257346330523E7 ; 2.019E8 ; 3.270483913637674E9 ; 3.663809113031926E10 ; 0.0
191 ; 1.4848076801958881E7 ; 2.019E8 ; 3.2853611709840045E9 ; 3.683999113031926E10 ; 0.0
192 ; 1.48221005409315E7 ; 2.019E8 ; 3.3002092477859635E9 ; 3.704189113031926E10 ; 0.0
193 ; 1.4790923641607292E7 ; 2.019E8 ; 3.315031348326895E9 ; 3.724379113031926E10 ; 0.0
194 ; 1.4763944534010403E7 ; 2.019E8 ; 3.3298222719685025E9 ; 3.744569113031926E10 ; 0.0
195 ; 1.4733765479800044E7 ; 2.019E8 ; 3.344586216502513E9 ; 3.764759113031926E10 ; 0.0
196 ; 1.4711019073415354E7 ; 2.019E8 ; 3.359319981982313E9 ; 3.784949113031926E10 ; 0.0
197 ; 1.4676772288284568E7 ; 2.019E8 ; 3.3740310010557284E9 ; 3.805139113031926E10 ; 0.0
198 ; 1.4654509081396535E7 ; 2.019E8 ; 3.388707773344013E9 ; 3.825329113031926E10 ; 0.0
199 ; 1.462047364443372E7 ; 2.019E8 ; 3.40336228242541E9 ; 3.845519113031926E10 ; 0.0
