CSV File for the City 2 on Day 8
1 - Minute m 
2 - Power Consumed at minute m 
3 - Power Produced at minute m 
4 - Energy Consumed since the beginning of the day 
5 - Energy Produced since the beginning of the day 
6 - Energy Lost since the beginning of the day on lines starting from the city
 
0 ; 1.0290743672672478E7 ; 1.224559781233329E7 ; 0.0 ; 0.0 ; 0.0
1 ; 1.0300921745114954E7 ; 1.224559781233329E7 ; 1.0290743672672478E7 ; 1.224559781233329E7 ; 0.0
2 ; 1.0314199040516235E7 ; 1.224559781233329E7 ; 2.0591665417787433E7 ; 2.449119562466658E7 ; 0.0
3 ; 1.032526173279483E7 ; 1.224559781233329E7 ; 3.0905864458303668E7 ; 3.673679343699987E7 ; 0.0
4 ; 1.0339347795914987E7 ; 1.224559781233329E7 ; 4.12311261910985E7 ; 4.898239124933316E7 ; 0.0
5 ; 1.0359484217050117E7 ; 1.224559781233329E7 ; 5.157047398701348E7 ; 6.1227989061666444E7 ; 0.0
6 ; 1.0386409511367189E7 ; 1.224559781233329E7 ; 6.1929958204063594E7 ; 7.347358687399973E7 ; 0.0
7 ; 1.0417572625955539E7 ; 1.224559781233329E7 ; 7.231636771543078E7 ; 8.571918468633302E7 ; 0.0
8 ; 1.04658033479852E7 ; 1.224559781233329E7 ; 8.273394034138632E7 ; 9.79647824986663E7 ; 0.0
9 ; 1.0544919606663287E7 ; 1.224559781233329E7 ; 9.319974368937153E7 ; 1.1021038031099959E8 ; 0.0
10 ; 1.0661271571524847E7 ; 1.224559781233329E7 ; 1.0374466329603481E8 ; 1.2245597812333287E8 ; 0.0
11 ; 1.0850333722732097E7 ; 1.224559781233329E7 ; 1.1440593486755966E8 ; 1.3470157593566617E8 ; 0.0
12 ; 1.1148180821927242E7 ; 1.224559781233329E7 ; 1.2525626859029175E8 ; 1.4694717374799946E8 ; 0.0
13 ; 1.1437866541566342E7 ; 1.224559781233329E7 ; 1.36404449412219E8 ; 1.5919277156033275E8 ; 0.0
14 ; 1.147137111053339E7 ; 1.224559781233329E7 ; 1.4784231595378533E8 ; 1.7143836937266603E8 ; 0.0
15 ; 1.1483191728755692E7 ; 1.224559781233329E7 ; 1.5931368706431872E8 ; 1.8368396718499932E8 ; 0.0
16 ; 1.1496115050351322E7 ; 1.224559781233329E7 ; 1.707968787930744E8 ; 1.959295649973326E8 ; 0.0
17 ; 1.1513950189024834E7 ; 1.224559781233329E7 ; 1.8229299384342572E8 ; 2.081751628096659E8 ; 0.0
18 ; 1.1529336367212508E7 ; 1.224559781233329E7 ; 1.9380694403245056E8 ; 2.2042076062199917E8 ; 0.0
19 ; 1.1537129872393211E7 ; 1.224559781233329E7 ; 2.0533628039966306E8 ; 2.3266635843433246E8 ; 0.0
20 ; 1.1551514954827458E7 ; 1.224559781233329E7 ; 2.1687341027205628E8 ; 2.4491195624666575E8 ; 0.0
21 ; 1.1565364423368294E7 ; 1.224559781233329E7 ; 2.2842492522688374E8 ; 2.5715755405899903E8 ; 0.0
22 ; 1.1582231668855194E7 ; 1.224559781233329E7 ; 2.3999028965025204E8 ; 2.6940315187133235E8 ; 0.0
23 ; 1.1594642652526485E7 ; 1.224559781233329E7 ; 2.5157252131910723E8 ; 2.8164874968366563E8 ; 0.0
24 ; 1.1607353629598022E7 ; 1.224559781233329E7 ; 2.6316716397163373E8 ; 2.938943474959989E8 ; 0.0
25 ; 1.162068477520223E7 ; 1.224559781233329E7 ; 2.7477451760123175E8 ; 3.061399453083322E8 ; 0.0
26 ; 1.163090533359976E7 ; 1.224559781233329E7 ; 2.8639520237643397E8 ; 3.183855431206655E8 ; 0.0
27 ; 1.1645787381440999E7 ; 1.224559781233329E7 ; 2.980261077100337E8 ; 3.306311409329988E8 ; 0.0
28 ; 1.1658670666184004E7 ; 1.224559781233329E7 ; 3.096718950914747E8 ; 3.4287673874533206E8 ; 0.0
29 ; 1.1668164156938354E7 ; 1.224559781233329E7 ; 3.213305657576587E8 ; 3.5512233655766535E8 ; 0.0
30 ; 1.168273710474721E7 ; 1.224559781233329E7 ; 3.329987299145971E8 ; 3.6736793436999863E8 ; 0.0
31 ; 1.1693142454728354E7 ; 1.224559781233329E7 ; 3.4468146701934433E8 ; 3.796135321823319E8 ; 0.0
32 ; 1.170470497347239E7 ; 1.224559781233329E7 ; 3.563746094740727E8 ; 3.918591299946652E8 ; 0.0
33 ; 1.1719203910812324E7 ; 1.224559781233329E7 ; 3.680793144475451E8 ; 4.041047278069985E8 ; 0.0
34 ; 1.1730265737991905E7 ; 1.224559781233329E7 ; 3.797985183583574E8 ; 4.163503256193318E8 ; 0.0
35 ; 1.1739186160756327E7 ; 1.224559781233329E7 ; 3.9152878409634936E8 ; 4.2859592343166506E8 ; 0.0
36 ; 1.1750251674512638E7 ; 1.224559781233329E7 ; 4.032679702571057E8 ; 4.4084152124399835E8 ; 0.0
37 ; 1.1765097903573938E7 ; 1.224559781233329E7 ; 4.1501822193161833E8 ; 4.5308711905633163E8 ; 0.0
38 ; 1.176971763164071E7 ; 1.224559781233329E7 ; 4.2678331983519226E8 ; 4.653327168686649E8 ; 0.0
39 ; 1.178145151267155E7 ; 1.224559781233329E7 ; 4.38553037466833E8 ; 4.775783146809982E8 ; 0.0
40 ; 1.1789297175245976E7 ; 1.224559781233329E7 ; 4.503344889795045E8 ; 4.898239124933315E8 ; 0.0
41 ; 1.1797979311333256E7 ; 1.224559781233329E7 ; 4.621237861547505E8 ; 5.020695103056648E8 ; 0.0
42 ; 1.1807407635029092E7 ; 1.224559781233329E7 ; 4.7392176546608377E8 ; 5.1431510811799806E8 ; 0.0
43 ; 1.181502198193245E7 ; 1.224559781233329E7 ; 4.8572917310111284E8 ; 5.2656070593033135E8 ; 0.0
44 ; 1.1819945857874833E7 ; 1.224559781233329E7 ; 4.975441950830453E8 ; 5.388063037426647E8 ; 0.0
45 ; 1.1827830837158611E7 ; 1.224559781233329E7 ; 5.093641409409201E8 ; 5.51051901554998E8 ; 0.0
46 ; 1.1829415760736987E7 ; 1.224559781233329E7 ; 5.2119197177807873E8 ; 5.632974993673314E8 ; 0.0
47 ; 1.1840198697602753E7 ; 1.224559781233329E7 ; 5.3302138753881574E8 ; 5.755430971796647E8 ; 0.0
48 ; 1.18398684619172E7 ; 1.224559781233329E7 ; 5.448615862364185E8 ; 5.877886949919981E8 ; 0.0
49 ; 1.1843603475200908E7 ; 1.224559781233329E7 ; 5.567014546983356E8 ; 6.000342928043314E8 ; 0.0
50 ; 1.1850173882103276E7 ; 1.224559781233329E7 ; 5.685450581735365E8 ; 6.122798906166648E8 ; 0.0
51 ; 1.1853669644262617E7 ; 1.224559781233329E7 ; 5.803952320556399E8 ; 6.245254884289981E8 ; 0.0
52 ; 1.1857024088372262E7 ; 1.224559781233329E7 ; 5.922489016999025E8 ; 6.367710862413315E8 ; 0.0
53 ; 1.18586609476705E7 ; 1.224559781233329E7 ; 6.041059257882748E8 ; 6.490166840536648E8 ; 0.0
54 ; 1.1858086868834065E7 ; 1.224559781233329E7 ; 6.159645867359452E8 ; 6.612622818659981E8 ; 0.0
55 ; 1.186628125018513E7 ; 1.224559781233329E7 ; 6.278226736047792E8 ; 6.735078796783315E8 ; 0.0
56 ; 1.1867951254316976E7 ; 1.224559781233329E7 ; 6.396889548549644E8 ; 6.857534774906648E8 ; 0.0
57 ; 1.187444368701633E7 ; 1.224559781233329E7 ; 6.515569061092813E8 ; 6.979990753029982E8 ; 0.0
58 ; 1.187472213092812E7 ; 1.224559781233329E7 ; 6.634313497962977E8 ; 7.102446731153315E8 ; 0.0
59 ; 1.1876100203633225E7 ; 1.224559781233329E7 ; 6.753060719272258E8 ; 7.224902709276649E8 ; 0.0
60 ; 1.187942126639921E7 ; 1.224559781233329E7 ; 6.87182172130859E8 ; 7.347358687399982E8 ; 0.0
61 ; 1.1880162681407597E7 ; 1.224559781233329E7 ; 6.990615933972583E8 ; 7.469814665523316E8 ; 0.0
62 ; 1.1885122017082717E7 ; 1.224559781233329E7 ; 7.109417560786659E8 ; 7.592270643646649E8 ; 0.0
63 ; 1.1881999709652115E7 ; 1.224559781233329E7 ; 7.228268780957485E8 ; 7.714726621769983E8 ; 0.0
64 ; 1.1884706403678386E7 ; 1.224559781233329E7 ; 7.347088778054006E8 ; 7.837182599893316E8 ; 0.0
65 ; 1.1890047748039026E7 ; 1.224559781233329E7 ; 7.46593584209079E8 ; 7.95963857801665E8 ; 0.0
66 ; 1.1890234442849586E7 ; 1.224559781233329E7 ; 7.58483631957118E8 ; 8.082094556139983E8 ; 0.0
67 ; 1.1893290980085665E7 ; 1.224559781233329E7 ; 7.703738663999677E8 ; 8.204550534263316E8 ; 0.0
68 ; 1.1892087875765523E7 ; 1.224559781233329E7 ; 7.822671573800533E8 ; 8.32700651238665E8 ; 0.0
69 ; 1.1893870956541393E7 ; 1.224559781233329E7 ; 7.941592452558188E8 ; 8.449462490509983E8 ; 0.0
70 ; 1.1895774552805327E7 ; 1.224559781233329E7 ; 8.060531162123603E8 ; 8.571918468633317E8 ; 0.0
71 ; 1.1897792014813254E7 ; 1.224559781233329E7 ; 8.179488907651656E8 ; 8.69437444675665E8 ; 0.0
72 ; 1.1897448815281225E7 ; 1.224559781233329E7 ; 8.298466827799789E8 ; 8.816830424879984E8 ; 0.0
73 ; 1.1898068266216528E7 ; 1.224559781233329E7 ; 8.417441315952601E8 ; 8.939286403003317E8 ; 0.0
74 ; 1.1899291761347132E7 ; 1.224559781233329E7 ; 8.536421998614767E8 ; 9.06174238112665E8 ; 0.0
75 ; 1.18986512625796E7 ; 1.224559781233329E7 ; 8.655414916228238E8 ; 9.184198359249984E8 ; 0.0
76 ; 1.1900439644335268E7 ; 1.224559781233329E7 ; 8.774401428854034E8 ; 9.306654337373317E8 ; 0.0
77 ; 1.1903167039892556E7 ; 1.224559781233329E7 ; 8.893405825297387E8 ; 9.429110315496651E8 ; 0.0
78 ; 1.1898381262268882E7 ; 1.224559781233329E7 ; 9.012437495696312E8 ; 9.551566293619984E8 ; 0.0
79 ; 1.1893544341951504E7 ; 1.224559781233329E7 ; 9.131421308319001E8 ; 9.674022271743318E8 ; 0.0
80 ; 1.1892792313242115E7 ; 1.224559781233329E7 ; 9.250356751738516E8 ; 9.796478249866651E8 ; 0.0
81 ; 1.1889037732025854E7 ; 1.224559781233329E7 ; 9.369284674870937E8 ; 9.918934227989985E8 ; 0.0
82 ; 1.1883427674832422E7 ; 1.224559781233329E7 ; 9.488175052191195E8 ; 1.0041390206113318E9 ; 0.0
83 ; 1.1879745316996315E7 ; 1.224559781233329E7 ; 9.60700932893952E8 ; 1.0163846184236652E9 ; 0.0
84 ; 1.1877293756618083E7 ; 1.224559781233329E7 ; 9.725806782109483E8 ; 1.0286302162359985E9 ; 0.0
85 ; 1.1873028682036E7 ; 1.224559781233329E7 ; 9.844579719675665E8 ; 1.0408758140483319E9 ; 0.0
86 ; 1.1866735255851971E7 ; 1.224559781233329E7 ; 9.963310006496025E8 ; 1.0531214118606652E9 ; 0.0
87 ; 1.186752294525587E7 ; 1.224559781233329E7 ; 1.0081977359054545E9 ; 1.0653670096729985E9 ; 0.0
88 ; 1.186444590712682E7 ; 1.224559781233329E7 ; 1.0200652588507104E9 ; 1.0776126074853318E9 ; 0.0
89 ; 1.1855827566117179E7 ; 1.224559781233329E7 ; 1.0319297047578372E9 ; 1.089858205297665E9 ; 0.0
90 ; 1.1849825212385071E7 ; 1.224559781233329E7 ; 1.0437855323239543E9 ; 1.1021038031099985E9 ; 0.0
91 ; 1.1846490074461576E7 ; 1.224559781233329E7 ; 1.0556353575363394E9 ; 1.1143494009223318E9 ; 0.0
92 ; 1.1845714659634646E7 ; 1.224559781233329E7 ; 1.067481847610801E9 ; 1.1265949987346652E9 ; 0.0
93 ; 1.183832408975854E7 ; 1.224559781233329E7 ; 1.0793275622704356E9 ; 1.1388405965469985E9 ; 0.0
94 ; 1.1834674089292744E7 ; 1.224559781233329E7 ; 1.0911658863601942E9 ; 1.1510861943593318E9 ; 0.0
95 ; 1.1829927002981879E7 ; 1.224559781233329E7 ; 1.103000560449487E9 ; 1.1633317921716652E9 ; 0.0
96 ; 1.1825514419626052E7 ; 1.224559781233329E7 ; 1.1148304874524689E9 ; 1.1755773899839985E9 ; 0.0
97 ; 1.18179567824116E7 ; 1.224559781233329E7 ; 1.1266560018720949E9 ; 1.187822987796332E9 ; 0.0
98 ; 1.1813343093782349E7 ; 1.224559781233329E7 ; 1.1384739586545064E9 ; 1.2000685856086652E9 ; 0.0
99 ; 1.1807469443997812E7 ; 1.224559781233329E7 ; 1.1502873017482889E9 ; 1.2123141834209986E9 ; 0.0
100 ; 1.1800954788393721E7 ; 1.224559781233329E7 ; 1.1620947711922867E9 ; 1.224559781233332E9 ; 0.0
101 ; 1.1799544687019572E7 ; 1.224559781233329E7 ; 1.1738957259806805E9 ; 1.2368053790456653E9 ; 0.0
102 ; 1.1788633737593347E7 ; 1.224559781233329E7 ; 1.1856952706677E9 ; 1.2490509768579986E9 ; 0.0
103 ; 1.178344268828267E7 ; 1.224559781233329E7 ; 1.1974839044052935E9 ; 1.261296574670332E9 ; 0.0
104 ; 1.1778339418871885E7 ; 1.224559781233329E7 ; 1.2092673470935762E9 ; 1.2735421724826653E9 ; 0.0
105 ; 1.1769957669970362E7 ; 1.224559781233329E7 ; 1.221045686512448E9 ; 1.2857877702949986E9 ; 0.0
106 ; 1.1763975532509271E7 ; 1.224559781233329E7 ; 1.2328156441824183E9 ; 1.298033368107332E9 ; 0.0
107 ; 1.175912459380524E7 ; 1.224559781233329E7 ; 1.2445796197149277E9 ; 1.3102789659196653E9 ; 0.0
108 ; 1.1753424114904422E7 ; 1.224559781233329E7 ; 1.256338744308733E9 ; 1.3225245637319987E9 ; 0.0
109 ; 1.1745292087460464E7 ; 1.224559781233329E7 ; 1.2680921684236374E9 ; 1.334770161544332E9 ; 0.0
110 ; 1.1740304987215945E7 ; 1.224559781233329E7 ; 1.279837460511098E9 ; 1.3470157593566654E9 ; 0.0
111 ; 1.1733377423106786E7 ; 1.224559781233329E7 ; 1.291577765498314E9 ; 1.3592613571689987E9 ; 0.0
112 ; 1.1726492947463287E7 ; 1.224559781233329E7 ; 1.3033111429214206E9 ; 1.371506954981332E9 ; 0.0
113 ; 1.1717785713757517E7 ; 1.224559781233329E7 ; 1.3150376358688838E9 ; 1.3837525527936654E9 ; 0.0
114 ; 1.1710834177509977E7 ; 1.224559781233329E7 ; 1.3267554215826414E9 ; 1.3959981506059988E9 ; 0.0
115 ; 1.1703356594571574E7 ; 1.224559781233329E7 ; 1.3384662557601514E9 ; 1.408243748418332E9 ; 0.0
116 ; 1.1697173981972838E7 ; 1.224559781233329E7 ; 1.350169612354723E9 ; 1.4204893462306654E9 ; 0.0
117 ; 1.1689148793479603E7 ; 1.224559781233329E7 ; 1.361866786336696E9 ; 1.4327349440429988E9 ; 0.0
118 ; 1.167839590321089E7 ; 1.224559781233329E7 ; 1.3735559351301756E9 ; 1.4449805418553321E9 ; 0.0
119 ; 1.167747592113664E7 ; 1.224559781233329E7 ; 1.3852343310333865E9 ; 1.4572261396676655E9 ; 0.0
120 ; 1.166782759775328E7 ; 1.224559781233329E7 ; 1.396911806954523E9 ; 1.4694717374799988E9 ; 0.0
121 ; 1.165590568086915E7 ; 1.224559781233329E7 ; 1.4085796345522764E9 ; 1.4817173352923322E9 ; 0.0
122 ; 1.1648007229900444E7 ; 1.224559781233329E7 ; 1.4202355402331455E9 ; 1.4939629331046655E9 ; 0.0
123 ; 1.1642737421853067E7 ; 1.224559781233329E7 ; 1.4318835474630458E9 ; 1.5062085309169989E9 ; 0.0
124 ; 1.163304212011752E7 ; 1.224559781233329E7 ; 1.443526284884899E9 ; 1.5184541287293322E9 ; 0.0
125 ; 1.1626392316967692E7 ; 1.224559781233329E7 ; 1.4551593270050163E9 ; 1.5306997265416656E9 ; 0.0
126 ; 1.1616637194410592E7 ; 1.224559781233329E7 ; 1.466785719321984E9 ; 1.542945324353999E9 ; 0.0
127 ; 1.1603539029341545E7 ; 1.224559781233329E7 ; 1.4784023565163946E9 ; 1.5551909221663322E9 ; 0.0
128 ; 1.1602129200254329E7 ; 1.224559781233329E7 ; 1.490005895545736E9 ; 1.5674365199786656E9 ; 0.0
129 ; 1.1591264355350714E7 ; 1.224559781233329E7 ; 1.5016080247459905E9 ; 1.579682117790999E9 ; 0.0
130 ; 1.1581261865658127E7 ; 1.224559781233329E7 ; 1.5131992891013412E9 ; 1.5919277156033323E9 ; 0.0
131 ; 1.1565764266353266E7 ; 1.224559781233329E7 ; 1.5247805509669993E9 ; 1.6041733134156656E9 ; 0.0
132 ; 1.155851687312113E7 ; 1.224559781233329E7 ; 1.5363463152333527E9 ; 1.616418911227999E9 ; 0.0
133 ; 1.154386961504721E7 ; 1.224559781233329E7 ; 1.5479048321064737E9 ; 1.6286645090403323E9 ; 0.0
134 ; 1.1529787138209479E7 ; 1.224559781233329E7 ; 1.559448701721521E9 ; 1.6409101068526657E9 ; 0.0
135 ; 1.1517938490075663E7 ; 1.224559781233329E7 ; 1.5709784888597305E9 ; 1.653155704664999E9 ; 0.0
136 ; 1.1507190431095406E7 ; 1.224559781233329E7 ; 1.582496427349806E9 ; 1.6654013024773324E9 ; 0.0
137 ; 1.1489739210849857E7 ; 1.224559781233329E7 ; 1.5940036177809014E9 ; 1.6776469002896657E9 ; 0.0
138 ; 1.147400059962039E7 ; 1.224559781233329E7 ; 1.6054933569917512E9 ; 1.689892498101999E9 ; 0.0
139 ; 1.1460231189604271E7 ; 1.224559781233329E7 ; 1.6169673575913715E9 ; 1.7021380959143324E9 ; 0.0
140 ; 1.144534548631294E7 ; 1.224559781233329E7 ; 1.6284275887809758E9 ; 1.7143836937266657E9 ; 0.0
141 ; 1.1432741191490537E7 ; 1.224559781233329E7 ; 1.6398729342672887E9 ; 1.726629291538999E9 ; 0.0
142 ; 1.1419313756747738E7 ; 1.224559781233329E7 ; 1.6513056754587793E9 ; 1.7388748893513324E9 ; 0.0
143 ; 1.1405737255006272E7 ; 1.224559781233329E7 ; 1.662724989215527E9 ; 1.7511204871636658E9 ; 0.0
144 ; 1.1391312585085016E7 ; 1.224559781233329E7 ; 1.6741307264705334E9 ; 1.763366084975999E9 ; 0.0
145 ; 1.138242770931414E7 ; 1.224559781233329E7 ; 1.6855220390556183E9 ; 1.7756116827883325E9 ; 0.0
146 ; 1.1370346731154481E7 ; 1.224559781233329E7 ; 1.6969044667649324E9 ; 1.7878572806006658E9 ; 0.0
147 ; 1.136384516989931E7 ; 1.224559781233329E7 ; 1.7082748134960868E9 ; 1.8001028784129992E9 ; 0.0
148 ; 1.1354857016200874E7 ; 1.224559781233329E7 ; 1.719638658665986E9 ; 1.8123484762253325E9 ; 0.0
149 ; 1.134434281841932E7 ; 1.224559781233329E7 ; 1.7309935156821868E9 ; 1.8245940740376658E9 ; 0.0
150 ; 1.133515860418412E7 ; 1.224559781233329E7 ; 1.742337858500606E9 ; 1.8368396718499992E9 ; 0.0
151 ; 1.1327565376237804E7 ; 1.224559781233329E7 ; 1.7536730171047902E9 ; 1.8490852696623325E9 ; 0.0
152 ; 1.1314268205324823E7 ; 1.224559781233329E7 ; 1.765000582481028E9 ; 1.8613308674746659E9 ; 0.0
153 ; 1.1306536164300866E7 ; 1.224559781233329E7 ; 1.776314850686353E9 ; 1.8735764652869992E9 ; 0.0
154 ; 1.1294896025830206E7 ; 1.224559781233329E7 ; 1.787621386850654E9 ; 1.8858220630993326E9 ; 0.0
155 ; 1.1285596589814704E7 ; 1.224559781233329E7 ; 1.7989162828764842E9 ; 1.898067660911666E9 ; 0.0
156 ; 1.1276791549784634E7 ; 1.224559781233329E7 ; 1.8102018794662988E9 ; 1.9103132587239993E9 ; 0.0
157 ; 1.1263206563734496E7 ; 1.224559781233329E7 ; 1.8214786710160835E9 ; 1.9225588565363326E9 ; 0.0
158 ; 1.1251118730733892E7 ; 1.224559781233329E7 ; 1.832741877579818E9 ; 1.934804454348666E9 ; 0.0
159 ; 1.1244026206321185E7 ; 1.224559781233329E7 ; 1.843992996310552E9 ; 1.9470500521609993E9 ; 0.0
160 ; 1.1234195847792994E7 ; 1.224559781233329E7 ; 1.8552370225168731E9 ; 1.9592956499733326E9 ; 0.0
161 ; 1.1223445687804205E7 ; 1.224559781233329E7 ; 1.8664712183646662E9 ; 1.971541247785666E9 ; 0.0
162 ; 1.1213225461265476E7 ; 1.224559781233329E7 ; 1.8776946640524704E9 ; 1.9837868455979993E9 ; 0.0
163 ; 1.1201319155351553E7 ; 1.224559781233329E7 ; 1.888907889513736E9 ; 1.9960324434103327E9 ; 0.0
164 ; 1.1189839191981195E7 ; 1.224559781233329E7 ; 1.9001092086690876E9 ; 2.008278041222666E9 ; 0.0
165 ; 1.1185032925982699E7 ; 1.224559781233329E7 ; 1.9112990478610687E9 ; 2.0205236390349994E9 ; 0.0
166 ; 1.1172101719068836E7 ; 1.224559781233329E7 ; 1.9224840807870514E9 ; 2.0327692368473327E9 ; 0.0
167 ; 1.1160434441711226E7 ; 1.224559781233329E7 ; 1.9336561825061202E9 ; 2.045014834659666E9 ; 0.0
168 ; 1.1149476964752262E7 ; 1.224559781233329E7 ; 1.9448166169478314E9 ; 2.0572604324719994E9 ; 0.0
169 ; 1.1136730820688687E7 ; 1.224559781233329E7 ; 1.9559660939125836E9 ; 2.0695060302843328E9 ; 0.0
170 ; 1.1128923149987947E7 ; 1.224559781233329E7 ; 1.9671028247332723E9 ; 2.081751628096666E9 ; 0.0
171 ; 1.1120059607619142E7 ; 1.224559781233329E7 ; 1.9782317478832603E9 ; 2.0939972259089994E9 ; 0.0
172 ; 1.1107020698544413E7 ; 1.224559781233329E7 ; 1.9893518074908793E9 ; 2.1062428237213328E9 ; 0.0
173 ; 1.1094893297812494E7 ; 1.224559781233329E7 ; 2.0004588281894238E9 ; 2.1184884215336661E9 ; 0.0
174 ; 1.1087042142280923E7 ; 1.224559781233329E7 ; 2.0115537214872363E9 ; 2.1307340193459995E9 ; 0.0
175 ; 1.108360042896671E7 ; 1.224559781233329E7 ; 2.022640763629517E9 ; 2.1429796171583328E9 ; 0.0
176 ; 1.1075796317610964E7 ; 1.224559781233329E7 ; 2.0337243640584838E9 ; 2.155225214970666E9 ; 0.0
177 ; 1.1067410877744721E7 ; 1.224559781233329E7 ; 2.0448001603760948E9 ; 2.167470812782999E9 ; 0.0
178 ; 1.106095330130061E7 ; 1.224559781233329E7 ; 2.0558675712538395E9 ; 2.179716410595332E9 ; 0.0
179 ; 1.105577112022916E7 ; 1.224559781233329E7 ; 2.06692852455514E9 ; 2.1919620084076653E9 ; 0.0
180 ; 1.1048267881642647E7 ; 1.224559781233329E7 ; 2.0779842956753693E9 ; 2.2042076062199984E9 ; 0.0
181 ; 1.1043781470737996E7 ; 1.224559781233329E7 ; 2.0890325635570118E9 ; 2.2164532040323315E9 ; 0.0
182 ; 1.1035574849435547E7 ; 1.224559781233329E7 ; 2.1000763450277498E9 ; 2.2286988018446646E9 ; 0.0
183 ; 1.1027706912076473E7 ; 1.224559781233329E7 ; 2.1111119198771853E9 ; 2.2409443996569977E9 ; 0.0
184 ; 1.1022530965637958E7 ; 1.224559781233329E7 ; 2.1221396267892618E9 ; 2.253189997469331E9 ; 0.0
185 ; 1.1013828187080797E7 ; 1.224559781233329E7 ; 2.1331621577548997E9 ; 2.265435595281664E9 ; 0.0
186 ; 1.1009169084744526E7 ; 1.224559781233329E7 ; 2.1441759859419806E9 ; 2.277681193093997E9 ; 0.0
187 ; 1.1006267483145889E7 ; 1.224559781233329E7 ; 2.1551851550267253E9 ; 2.28992679090633E9 ; 0.0
188 ; 1.0993883250950515E7 ; 1.224559781233329E7 ; 2.166191422509871E9 ; 2.302172388718663E9 ; 0.0
189 ; 1.099196169518565E7 ; 1.224559781233329E7 ; 2.1771853057608213E9 ; 2.3144179865309963E9 ; 0.0
190 ; 1.0979183060851943E7 ; 1.224559781233329E7 ; 2.188177267456007E9 ; 2.3266635843433294E9 ; 0.0
191 ; 1.0975583154974697E7 ; 1.224559781233329E7 ; 2.199156450516859E9 ; 2.3389091821556625E9 ; 0.0
192 ; 1.0969654191521443E7 ; 1.224559781233329E7 ; 2.2101320336718335E9 ; 2.3511547799679956E9 ; 0.0
193 ; 1.0962982433370534E7 ; 1.224559781233329E7 ; 2.221101687863355E9 ; 2.3634003777803288E9 ; 0.0
194 ; 1.0957582586110715E7 ; 1.224559781233329E7 ; 2.2320646702967257E9 ; 2.375645975592662E9 ; 0.0
195 ; 1.0948179378124435E7 ; 1.224559781233329E7 ; 2.2430222528828363E9 ; 2.387891573404995E9 ; 0.0
196 ; 1.0941544442817573E7 ; 1.224559781233329E7 ; 2.2539704322609606E9 ; 2.400137171217328E9 ; 0.0
197 ; 1.093665094974752E7 ; 1.224559781233329E7 ; 2.2649119767037783E9 ; 2.412382769029661E9 ; 0.0
