CSV File for the City 6 on Day 25
1 - Minute m 
2 - Power Consumed at minute m 
3 - Power Produced at minute m 
4 - Energy Consumed since the beginning of the day 
5 - Energy Produced since the beginning of the day 
6 - Energy Lost since the beginning of the day on lines starting from the city
 
0 ; 1.111268330269168E7 ; 1.053540078844268E8 ; 0.0 ; 0.0 ; 0.0
1 ; 1.1126496418041453E7 ; 1.0549839792196816E8 ; 1.111268330269168E7 ; 1.053540078844268E8 ; 0.0
2 ; 1.1135902242240036E7 ; 1.0595199156804088E8 ; 2.2239179720733132E7 ; 2.1085240580639496E8 ; 0.0
3 ; 1.115076892829253E7 ; 1.0671488549807495E8 ; 3.337508196297317E7 ; 3.1680439737443584E8 ; 0.0
4 ; 1.1166542638243869E7 ; 1.0778719024447072E8 ; 4.45258508912657E7 ; 4.235192828725108E8 ; 0.0
5 ; 1.1187817747044127E7 ; 1.091690289079898E8 ; 5.569239352950957E7 ; 5.313064731169815E8 ; 0.0
6 ; 1.1212819080535043E7 ; 1.1086053346192512E8 ; 6.688021127655369E7 ; 6.404755020249712E8 ; 0.0
7 ; 1.125019216790418E7 ; 1.1286183785366148E8 ; 7.809303035708873E7 ; 7.513360354868964E8 ; 0.0
8 ; 1.1301631026068833E7 ; 1.1517306762606233E8 ; 8.934322252499291E7 ; 8.641978733405578E8 ; 0.0
9 ; 1.1383833179951832E7 ; 1.1779432689610451E8 ; 1.0064485355106175E8 ; 9.793709409666202E8 ; 0.0
10 ; 1.150781577176151E7 ; 1.2072568502147764E8 ; 1.1202868673101358E8 ; 1.0971652678627248E9 ; 0.0
11 ; 1.1706977123767463E7 ; 1.2396716640227738E8 ; 1.2353650250277509E8 ; 1.2178909528842025E9 ; 0.0
12 ; 1.2025495685336221E7 ; 1.2751874663840804E8 ; 1.3524347962654254E8 ; 1.34185811928648E9 ; 0.0
13 ; 1.232808925759691E7 ; 1.3138035637217999E8 ; 1.4726897531187877E8 ; 1.469376865924888E9 ; 0.0
14 ; 1.236463940995784E7 ; 1.355518914866165E8 ; 1.5959706456947568E8 ; 1.6007572222970679E9 ; 0.0
15 ; 1.2380179488820763E7 ; 1.4003322643885398E8 ; 1.719617039794335E8 ; 1.7363091137836843E9 ; 0.0
16 ; 1.2391847396311875E7 ; 1.4482422728150776E8 ; 1.8434188346825427E8 ; 1.8763423402225382E9 ; 0.0
17 ; 1.2406946662318552E7 ; 1.4992476204128483E8 ; 1.9673373086456615E8 ; 2.021166567504046E9 ; 0.0
18 ; 1.2422350963674508E7 ; 1.553347076174236E8 ; 2.091406775268847E8 ; 2.171091329545331E9 ; 0.0
19 ; 1.243653167922778E7 ; 1.610539534775237E8 ; 2.2156302849055922E8 ; 2.3264260371627545E9 ; 0.0
20 ; 1.2451427866396807E7 ; 1.6708240294615516E8 ; 2.33999560169787E8 ; 2.4874799906402783E9 ; 0.0
21 ; 1.2461371829774652E7 ; 1.7341997294509414E8 ; 2.464509880361838E8 ; 2.6545623935864334E9 ; 0.0
22 ; 1.247930854137563E7 ; 1.8006659288332236E8 ; 2.5891235986595845E8 ; 2.8279823665315275E9 ; 0.0
23 ; 1.2491896582671361E7 ; 1.8702220317916387E8 ; 2.713916684073341E8 ; 3.0080489594148498E9 ; 0.0
24 ; 1.2508744920807421E7 ; 1.9428675370927215E8 ; 2.8388356499000543E8 ; 3.1950711625940137E9 ; 0.0
25 ; 1.2524132954004876E7 ; 2.0054824324209473E8 ; 2.9639230991081285E8 ; 3.3893579163032856E9 ; 0.0
26 ; 1.2539652683157412E7 ; 2.005601841690896E8 ; 3.0891644286481774E8 ; 3.58990615954538E9 ; 0.0
27 ; 1.2550847315831544E7 ; 2.005723159051173E8 ; 3.214560955479751E8 ; 3.79046634371447E9 ; 0.0
28 ; 1.2565426814642938E7 ; 2.0058461318712476E8 ; 3.3400694286380666E8 ; 3.9910386596195874E9 ; 0.0
29 ; 1.2579527777389282E7 ; 2.0059705457849544E8 ; 3.4657236967844963E8 ; 4.191623272806712E9 ; 0.0
30 ; 1.2594042872839116E7 ; 2.006096218177587E8 ; 3.591518974558389E8 ; 4.392220327385207E9 ; 0.0
31 ; 1.2606209401034087E7 ; 2.0062229928319916E8 ; 3.71745940328678E8 ; 4.592829949202966E9 ; 0.0
32 ; 1.2618767114874646E7 ; 2.006350735535369E8 ; 3.843521497297121E8 ; 4.793452248486165E9 ; 0.0
33 ; 1.263022230093374E7 ; 2.0064793304746845E8 ; 3.969709168445868E8 ; 4.994087322039701E9 ; 0.0
34 ; 1.2641267154456621E7 ; 2.006608677275744E8 ; 4.096011391455205E8 ; 5.19473525508717E9 ; 0.0
35 ; 1.2655078339513093E7 ; 2.0067386885661253E8 ; 4.222424062999771E8 ; 5.395396122814744E9 ; 0.0
36 ; 1.2667130621964412E7 ; 2.0068692879640594E8 ; 4.3489748463949025E8 ; 5.596069991671356E9 ; 0.0
37 ; 1.2674401440899165E7 ; 2.0070004084138027E8 ; 4.4756461526145464E8 ; 5.796756920467762E9 ; 0.0
38 ; 1.2683819096710615E7 ; 2.0071319908032548E8 ; 4.6023901670235384E8 ; 5.997456961309142E9 ; 0.0
39 ; 1.2697071326306976E7 ; 2.0072639828119868E8 ; 4.7292283579906446E8 ; 6.198170160389467E9 ; 0.0
40 ; 1.2708545067209043E7 ; 2.0073963379478383E8 ; 4.8561990712537146E8 ; 6.398896558670666E9 ; 0.0
41 ; 1.2714978215314368E7 ; 2.0075290147383046E8 ; 4.983284521925805E8 ; 6.599636192465449E9 ; 0.0
42 ; 1.2725831144977443E7 ; 2.007661976049382E8 ; 5.110434304078949E8 ; 6.80038909393928E9 ; 0.0
43 ; 1.2732592144971771E7 ; 2.0077951885097203E8 ; 5.2376926155287236E8 ; 7.001155291544218E9 ; 0.0
44 ; 1.2736858427585687E7 ; 2.0079286220220694E8 ; 5.3650185369784415E8 ; 7.20193481039519E9 ; 0.0
45 ; 1.2743807775287056E7 ; 2.00806224934735E8 ; 5.492387121254299E8 ; 7.402727672597397E9 ; 0.0
46 ; 1.2753248942183789E7 ; 2.0081960457493383E8 ; 5.619825199007169E8 ; 7.603533897532132E9 ; 0.0
47 ; 1.2760425957690535E7 ; 2.0083299886901292E8 ; 5.747357688429006E8 ; 7.804353502107066E9 ; 0.0
48 ; 1.2763562774157524E7 ; 2.0084640575682712E8 ; 5.874961948005911E8 ; 8.005186500976079E9 ; 0.0
49 ; 1.2768843341291616E7 ; 2.0085982334928885E8 ; 6.002597575747486E8 ; 8.206032906732906E9 ; 0.0
50 ; 1.277177555755679E7 ; 2.00873249908825E8 ; 6.130286009160403E8 ; 8.406892730082195E9 ; 0.0
51 ; 1.2776393586422777E7 ; 2.0088668383241796E8 ; 6.25800376473597E8 ; 8.60776597999102E9 ; 0.0
52 ; 1.277874619440244E7 ; 2.0090012363684705E8 ; 6.385767700600199E8 ; 8.808652663823439E9 ; 0.0
53 ; 1.278120017584743E7 ; 2.0091356794580898E8 ; 6.513555162544223E8 ; 9.009552787460285E9 ; 0.0
54 ; 1.2786117609602436E7 ; 2.0092701547864822E8 ; 6.641367164302697E8 ; 9.210466355406094E9 ; 0.0
55 ; 1.2788794042451262E7 ; 2.009404650404701E8 ; 6.769228340398722E8 ; 9.411393370884743E9 ; 0.0
56 ; 1.279471028670777E7 ; 2.0095391551344538E8 ; 6.897116280823234E8 ; 9.612333835925213E9 ; 0.0
57 ; 1.2793481414879836E7 ; 2.00967365849144E8 ; 7.025063383690312E8 ; 9.813287751438658E9 ; 0.0
58 ; 1.2799141171829227E7 ; 2.0098081506176043E8 ; 7.15299819783911E8 ; 1.0014255117287802E10 ; 0.0
59 ; 1.2799473680302426E7 ; 2.009942622221129E8 ; 7.280989609557402E8 ; 1.0215235932349562E10 ; 0.0
60 ; 1.280393674514925E7 ; 2.010077064523169E8 ; 7.408984346360426E8 ; 1.0416230194571674E10 ; 0.0
61 ; 1.2806611592806472E7 ; 2.010211469210471E8 ; 7.537023713811918E8 ; 1.061723790102399E10 ; 0.0
62 ; 1.280968770952768E7 ; 2.0103458283931306E8 ; 7.665089829739983E8 ; 1.0818259047945038E10 ; 0.0
63 ; 1.2808474624564689E7 ; 2.0104801345668718E8 ; 7.79318670683526E8 ; 1.1019293630784351E10 ; 0.0
64 ; 1.2813235300666442E7 ; 2.0106143805792812E8 ; 7.921271453080907E8 ; 1.122034164424104E10 ; 0.0
65 ; 1.2813599433959266E7 ; 2.0107485595995408E8 ; 8.049403806087571E8 ; 1.1421403082298967E10 ; 0.0
66 ; 1.2816032114370639E7 ; 2.0108826650912377E8 ; 8.177539800427164E8 ; 1.162247793825892E10 ; 0.0
67 ; 1.281714372689662E7 ; 2.0110166907879013E8 ; 8.30570012157087E8 ; 1.1823566204768044E10 ; 0.0
68 ; 1.2819636023194164E7 ; 2.0111506306709516E8 ; 8.433871558839836E8 ; 1.2024667873846834E10 ; 0.0
69 ; 1.282102220399727E7 ; 2.011284478949795E8 ; 8.562067919071778E8 ; 1.2225782936913929E10 ; 0.0
70 ; 1.281966798633345E7 ; 2.011418230043822E8 ; 8.690278141111751E8 ; 1.2426911384808908E10 ; 0.0
71 ; 1.2822974664515859E7 ; 2.011551878566105E8 ; 8.818474820975085E8 ; 1.2628053207813292E10 ; 0.0
72 ; 1.2822253897333493E7 ; 2.0116854193086135E8 ; 8.946704567620244E8 ; 1.2829208395669903E10 ; 0.0
73 ; 1.2824842411415443E7 ; 2.0118188472287825E8 ; 9.074927106593579E8 ; 1.3030376937600763E10 ; 0.0
74 ; 1.2822215190764172E7 ; 2.0119521574372962E8 ; 9.203175530707734E8 ; 1.323155882232364E10 ; 0.0
75 ; 1.2824536470307918E7 ; 2.01208534518696E8 ; 9.331397682615376E8 ; 1.3432754038067371E10 ; 0.0
76 ; 1.2825685904478427E7 ; 2.0122184058625525E8 ; 9.459643047318455E8 ; 1.3633962572586067E10 ; 0.0
77 ; 1.2827312340093715E7 ; 2.0123513349715552E8 ; 9.587899906363239E8 ; 1.3835184413172323E10 ; 0.0
78 ; 1.2821365744252099E7 ; 2.0124841281356782E8 ; 9.716173029764177E8 ; 1.403641954666948E10 ; 0.0
79 ; 1.2818683711908894E7 ; 2.0126167810831013E8 ; 9.844386687206697E8 ; 1.4237667959483047E10 ; 0.0
80 ; 1.2814845584956361E7 ; 2.012749289641362E8 ; 9.972573524325787E8 ; 1.4438929637591358E10 ; 0.0
81 ; 1.2811775062640863E7 ; 2.012881649730829E8 ; 1.0100721980175351E9 ; 1.4640204566555494E10 ; 0.0
82 ; 1.2804485121490588E7 ; 2.0130138573587072E8 ; 1.022883973080176E9 ; 1.4841492731528578E10 ; 0.0
83 ; 1.280615866462283E7 ; 2.0131459086135244E8 ; 1.0356884582016666E9 ; 1.5042794117264448E10 ; 0.0
84 ; 1.279944457329752E7 ; 2.0132777996600547E8 ; 1.0484946168662894E9 ; 1.5244108708125801E10 ; 0.0
85 ; 1.279273173319383E7 ; 2.013409526734642E8 ; 1.0612940614395869E9 ; 1.5445436488091806E10 ; 0.0
86 ; 1.2788771800645793E7 ; 2.0135410861408845E8 ; 1.0740867931727808E9 ; 1.564677744076527E10 ; 0.0
87 ; 1.2786463614964748E7 ; 2.013672474245649E8 ; 1.0868755649734266E9 ; 1.5848131549379358E10 ; 0.0
88 ; 1.2782095082389945E7 ; 2.0138036874753916E8 ; 1.0996620285883913E9 ; 1.6049498796803923E10 ; 0.0
89 ; 1.2774518096368667E7 ; 2.0139347223127478E8 ; 1.1124441236707811E9 ; 1.6250879165551462E10 ; 0.0
90 ; 1.2770650042603953E7 ; 2.014065575293382E8 ; 1.1252186417671497E9 ; 1.6452272637782738E10 ; 0.0
91 ; 1.2767909086269338E7 ; 2.0141962430030623E8 ; 1.1379892918097537E9 ; 1.6653679195312077E10 ; 0.0
92 ; 1.2761066771491595E7 ; 2.0143267220749515E8 ; 1.150757200896023E9 ; 1.6855098819612383E10 ; 0.0
93 ; 1.2757085515030503E7 ; 2.0144570091870907E8 ; 1.1635182676675146E9 ; 1.7056531491819878E10 ; 0.0
94 ; 1.2749315093333218E7 ; 2.0145871010600626E8 ; 1.1762753531825452E9 ; 1.7257977192738586E10 ; 0.0
95 ; 1.274070842067673E7 ; 2.01471699445482E8 ; 1.1890246682758784E9 ; 1.7459435902844593E10 ; 0.0
96 ; 1.2738758473827152E7 ; 2.0148466861706626E8 ; 1.2017653766965551E9 ; 1.7660907602290073E10 ; 0.0
97 ; 1.2730324022846412E7 ; 2.0149761730433583E8 ; 1.2145041351703823E9 ; 1.786239227090714E10 ; 0.0
98 ; 1.2728751972808242E7 ; 2.015105451943389E8 ; 1.2272344591932287E9 ; 1.8063889888211475E10 ; 0.0
99 ; 1.2718409169143058E7 ; 2.015234519774316E8 ; 1.239963211166037E9 ; 1.8265400433405815E10 ; 0.0
100 ; 1.271705393165922E7 ; 2.0153633734712583E8 ; 1.25268162033518E9 ; 1.8466923885383247E10 ; 0.0
101 ; 1.270720813679804E7 ; 2.015492009999468E8 ; 1.2653986742668393E9 ; 1.8668460222730373E10 ; 0.0
102 ; 1.2701708595028121E7 ; 2.0156204263530028E8 ; 1.2781058824036374E9 ; 1.887000942373032E10 ; 0.0
103 ; 1.2695587162942344E7 ; 2.0157486195534834E8 ; 1.2908075909986656E9 ; 1.907157146636562E10 ; 0.0
104 ; 1.2687896409014542E7 ; 2.0158765866489336E8 ; 1.303503178161608E9 ; 1.927314632832097E10 ; 0.0
105 ; 1.268016283835179E7 ; 2.0160043247126937E8 ; 1.3161910745706224E9 ; 1.9474733986985863E10 ; 0.0
106 ; 1.2670763924238695E7 ; 2.0161318308424044E8 ; 1.3288712374089742E9 ; 1.967633441945713E10 ; 0.0
107 ; 1.266633993822012E7 ; 2.0162591021590537E8 ; 1.3415420013332129E9 ; 1.987794760254137E10 ; 0.0
108 ; 1.2658405373015046E7 ; 2.0163861358060864E8 ; 1.3542083412714329E9 ; 2.0079573512757275E10 ; 0.0
109 ; 1.265041612462664E7 ; 2.016512928948567E8 ; 1.3668667466444478E9 ; 2.0281212126337883E10 ; 0.0
110 ; 1.264338558329305E7 ; 2.0166394787723953E8 ; 1.3795171627690744E9 ; 2.048286341923274E10 ; 0.0
111 ; 1.2637872213473039E7 ; 2.0167657824835715E8 ; 1.3921605483523674E9 ; 2.0684527367109978E10 ; 0.0
112 ; 1.263165245365127E7 ; 2.0168918373075062E8 ; 1.4047984205658405E9 ; 2.0886203945358334E10 ; 0.0
113 ; 1.2620854959852552E7 ; 2.0170176404883704E8 ; 1.4174300730194917E9 ; 2.1087893129089085E10 ; 0.0
114 ; 1.2613659442130819E7 ; 2.0171431892884883E8 ; 1.4300509279793441E9 ; 2.128959489313792E10 ; 0.0
115 ; 1.2605747865435857E7 ; 2.017268480987764E8 ; 1.442664587421475E9 ; 2.149130921206677E10 ; 0.0
116 ; 1.259683918861723E7 ; 2.0173935128831443E8 ; 1.4552703352869108E9 ; 2.1693036060165546E10 ; 0.0
117 ; 1.2588070602982903E7 ; 2.0175182822881135E8 ; 1.467867174475528E9 ; 2.189477541145386E10 ; 0.0
118 ; 1.25809135062731E7 ; 2.017642786532217E8 ; 1.480455245078511E9 ; 2.2096527239682674E10 ; 0.0
119 ; 1.2573496274294494E7 ; 2.0177670229606146E8 ; 1.493036158584784E9 ; 2.2298291518335896E10 ; 0.0
120 ; 1.256126769215349E7 ; 2.0178909889336598E8 ; 1.5056096548590784E9 ; 2.2500068220631958E10 ; 0.0
121 ; 1.2553170787909944E7 ; 2.0180146818265027E8 ; 1.5181709225512319E9 ; 2.2701857319525326E10 ; 0.0
122 ; 1.2544235243470406E7 ; 2.018138099028719E8 ; 1.5307240933391418E9 ; 2.2903658787707977E10 ; 0.0
123 ; 1.253473981209917E7 ; 2.018261237943957E8 ; 1.5432683285826123E9 ; 2.3105472597610847E10 ; 0.0
124 ; 1.2525020066568715E7 ; 2.0183840959896082E8 ; 1.5558030683947115E9 ; 2.3307298721405243E10 ; 0.0
125 ; 1.2516202373108946E7 ; 2.018506670596496E8 ; 1.56832808846128E9 ; 2.3509137131004204E10 ; 0.0
126 ; 1.2507933252908677E7 ; 2.018628959208582E8 ; 1.580844290834389E9 ; 2.3710987798063854E10 ; 0.0
127 ; 1.2495864798281606E7 ; 2.01875095928269E8 ; 1.5933522240872977E9 ; 2.391285069398471E10 ; 0.0
128 ; 1.2487635509930167E7 ; 2.0188726682882464E8 ; 1.6058480888855793E9 ; 2.411472578991298E10 ; 0.0
129 ; 1.2477139966402592E7 ; 2.0189940837070337E8 ; 1.6183357243955095E9 ; 2.4316613056741802E10 ; 0.0
130 ; 1.2466253573813004E7 ; 2.0191152030329618E8 ; 1.630812864361912E9 ; 2.4518512465112507E10 ; 0.0
131 ; 1.2450218065898785E7 ; 2.0192360237718487E8 ; 1.643279117935725E9 ; 2.4720423985415802E10 ; 0.0
132 ; 1.2436976584204437E7 ; 2.0193565434412158E8 ; 1.6557293360016239E9 ; 2.4922347587792988E10 ; 0.0
133 ; 1.242614882721723E7 ; 2.019476759570096E8 ; 1.6681663125858283E9 ; 2.5124283242137108E10 ; 0.0
134 ; 1.2407298584996862E7 ; 2.0195966696988514E8 ; 1.6805924614130456E9 ; 2.5326230918094116E10 ; 0.0
135 ; 1.2395686126724482E7 ; 2.0197162713790017E8 ; 1.6929997599980426E9 ; 2.5528190585064003E10 ; 0.0
136 ; 1.2382508927442072E7 ; 2.0198355621730638E8 ; 1.705395446124767E9 ; 2.5730162212201904E10 ; 0.0
137 ; 1.2365123885063006E7 ; 2.0199545396544E8 ; 1.7177779550522091E9 ; 2.5932145768419212E10 ; 0.0
138 ; 1.2350368081769958E7 ; 2.0200732014070752E8 ; 1.730143078937272E9 ; 2.613414122238465E10 ; 0.0
139 ; 1.233832501255989E7 ; 2.0201915450257224E8 ; 1.742493447019042E9 ; 2.633614854252536E10 ; 0.0
140 ; 1.2321055285263298E7 ; 2.0203095681154168E8 ; 1.754831772031602E9 ; 2.653816769702793E10 ; 0.0
141 ; 1.2305554397750003E7 ; 2.0204272682915574E8 ; 1.7671528273168652E9 ; 2.6740198653839474E10 ; 0.0
142 ; 1.229216010402477E7 ; 2.020544643179755E8 ; 1.779458381714615E9 ; 2.694224138066863E10 ; 0.0
143 ; 1.2275551680856347E7 ; 2.0206616904157275E8 ; 1.79175054181864E9 ; 2.7144295844986603E10 ; 0.0
144 ; 1.2258629252047872E7 ; 2.0207784076452017E8 ; 1.8040260934994965E9 ; 2.7346362014028175E10 ; 0.0
145 ; 1.2247057312331531E7 ; 2.0208947925238216E8 ; 1.8162847227515442E9 ; 2.7548439854792694E10 ; 0.0
146 ; 1.2237428088139238E7 ; 2.0210108427170607E8 ; 1.8285317800638757E9 ; 2.7750529334045074E10 ; 0.0
147 ; 1.2228466913081337E7 ; 2.021126555900143E8 ; 1.840769208152015E9 ; 2.795263041831678E10 ; 0.0
148 ; 1.2215773813635016E7 ; 2.0212419297579652E8 ; 1.8529976750650964E9 ; 2.8154743073906796E10 ; 0.0
149 ; 1.2204612257964369E7 ; 2.0213569619850272E8 ; 1.8652134488787315E9 ; 2.835686726688259E10 ; 0.0
150 ; 1.2193689499690278E7 ; 2.021471650285365E8 ; 1.8774180611366959E9 ; 2.8559002963081093E10 ; 0.0
151 ; 1.217961791674804E7 ; 2.0215859923724905E8 ; 1.8896117506363862E9 ; 2.876115012810963E10 ; 0.0
152 ; 1.2170853545652576E7 ; 2.0216999859693322E8 ; 1.9017913685531342E9 ; 2.8963308727346878E10 ; 0.0
153 ; 1.21582140158826E7 ; 2.0218136288081825E8 ; 1.9139622220987868E9 ; 2.916547872594381E10 ; 0.0
154 ; 1.2148047327468075E7 ; 2.0219269186306483E8 ; 1.9261204361146693E9 ; 2.9367660088824627E10 ; 0.0
155 ; 1.2138715687061256E7 ; 2.0220398531876042E8 ; 1.9382684834421375E9 ; 2.956985278068769E10 ; 0.0
156 ; 1.2126749810908776E7 ; 2.022152430239151E8 ; 1.9504071991291988E9 ; 2.977205676600645E10 ; 0.0
157 ; 1.2115238627111983E7 ; 2.022264647554575E8 ; 1.9625339489401076E9 ; 2.9974272009030365E10 ; 0.0
158 ; 1.2103919486322254E7 ; 2.0223765029123122E8 ; 1.9746491875672195E9 ; 3.0176498473785824E10 ; 0.0
159 ; 1.209320424463895E7 ; 2.0224879940999153E8 ; 1.9867531070535417E9 ; 3.0378736124077057E10 ; 0.0
160 ; 1.2082023167659706E7 ; 2.022599118914023E8 ; 1.9988463112981806E9 ; 3.058098492348705E10 ; 0.0
161 ; 1.2064447116896888E7 ; 2.022709875160332E8 ; 2.0109283344658403E9 ; 3.0783244835378452E10 ; 0.0
162 ; 1.205572821573224E7 ; 2.022820260653572E8 ; 2.0229927815827372E9 ; 3.0985515822894485E10 ; 0.0
163 ; 1.204205525133383E7 ; 2.022930273217483E8 ; 2.0350485097984695E9 ; 3.1187797848959843E10 ; 0.0
164 ; 1.203066941780611E7 ; 2.023039910684793E8 ; 2.0470905650498033E9 ; 3.139009087628159E10 ; 0.0
165 ; 1.2017756983001012E7 ; 2.023149170897203E8 ; 2.0591212344676094E9 ; 3.1592394867350067E10 ; 0.0
166 ; 1.2010267856902914E7 ; 2.0232580517053673E8 ; 2.0711389914506104E9 ; 3.179470978443979E10 ; 0.0
167 ; 1.1996611327168962E7 ; 2.0233665509688815E8 ; 2.0831492593075132E9 ; 3.1997035589610325E10 ; 0.0
168 ; 1.1985011883867754E7 ; 2.0234746665562695E8 ; 2.0951458706346822E9 ; 3.2199372244707214E10 ; 0.0
169 ; 1.197434995293156E7 ; 2.0235823963449717E8 ; 2.10713088251855E9 ; 3.2401719711362843E10 ; 0.0
170 ; 1.1960313619585222E7 ; 2.023689738221338E8 ; 2.1191052324714816E9 ; 3.260407795099734E10 ; 0.0
171 ; 1.1947230223855887E7 ; 2.0237966900806206E8 ; 2.1310655460910668E9 ; 3.2806446924819473E10 ; 0.0
172 ; 1.1931963411060086E7 ; 2.023903249826966E8 ; 2.1430127763149228E9 ; 3.3008826593827534E10 ; 0.0
173 ; 1.1924825653993767E7 ; 2.0240094153734133E8 ; 2.1549447397259827E9 ; 3.321121691881023E10 ; 0.0
174 ; 1.1913347927747833E7 ; 2.0241151846418905E8 ; 2.1668695653799763E9 ; 3.3413617860347572E10 ; 0.0
175 ; 1.1913662591640752E7 ; 2.0242205555632135E8 ; 2.178782913307724E9 ; 3.361602937881176E10 ; 0.0
176 ; 1.1900655142300999E7 ; 2.0243255260770857E8 ; 2.190696575899365E9 ; 3.381845143436808E10 ; 0.0
177 ; 1.1892312721064867E7 ; 2.0244300941320986E8 ; 2.202597231041666E9 ; 3.402088398697579E10 ; 0.0
178 ; 1.1884316057075903E7 ; 2.0245342576857358E8 ; 2.214489543762731E9 ; 3.4223326996388996E10 ; 0.0
179 ; 1.1880185803861639E7 ; 2.024638014704375E8 ; 2.226373859819807E9 ; 3.442578042215757E10 ; 0.0
180 ; 1.1873427186120797E7 ; 2.024741363163292E8 ; 2.2382540456236687E9 ; 3.4628244223628006E10 ; 0.0
181 ; 1.186608551660986E7 ; 2.024844301046669E8 ; 2.2501274728097897E9 ; 3.4830718359944336E10 ; 0.0
182 ; 1.186019565618319E7 ; 2.0249468263475972E8 ; 2.2619935583263993E9 ; 3.5033202790049E10 ; 0.0
183 ; 1.1849994691388275E7 ; 2.025048937068088E8 ; 2.2738537539825826E9 ; 3.523569747268376E10 ; 0.0
184 ; 1.1842848690243471E7 ; 2.0251506312190786E8 ; 2.2857037486739707E9 ; 3.543820236639057E10 ; 0.0
185 ; 1.1837062000764983E7 ; 2.025251906820442E8 ; 2.297546597364214E9 ; 3.564071742951248E10 ; 0.0
186 ; 1.1828087169108585E7 ; 2.025352761900998E8 ; 2.309383659364979E9 ; 3.584324262019453E10 ; 0.0
187 ; 1.1822618860377409E7 ; 2.0254531944985217E8 ; 2.321211746534087E9 ; 3.604577789638463E10 ; 0.0
188 ; 1.1816415870977543E7 ; 2.0255532026597565E8 ; 2.3330343653944645E9 ; 3.624832321583448E10 ; 0.0
189 ; 1.180672135601676E7 ; 2.0256527844404262E8 ; 2.344850781265442E9 ; 3.645087853610046E10 ; 0.0
190 ; 1.1799808504160868E7 ; 2.0257519379052472E8 ; 2.3566575026214585E9 ; 3.66534438145445E10 ; 0.0
191 ; 1.1792738197670063E7 ; 2.025850661127942E8 ; 2.3684573111256194E9 ; 3.685601900833503E10 ; 0.0
192 ; 1.1784424435658505E7 ; 2.0259489521912527E8 ; 2.3802500493232894E9 ; 3.705860407444782E10 ; 0.0
193 ; 1.1780344231437286E7 ; 2.0260468091869572E8 ; 2.392034473758948E9 ; 3.726119896966695E10 ; 0.0
194 ; 1.1770876372339595E7 ; 2.026144230215882E8 ; 2.403814817990385E9 ; 3.746380365058564E10 ; 0.0
195 ; 1.1763185192250613E7 ; 2.0262412133879197E8 ; 2.415585694362725E9 ; 3.766641807360723E10 ; 0.0
