CSV File for the City 3 on Day 233
1 - Minute m 
2 - Power Consumed at minute m 
3 - Power Produced at minute m 
4 - Energy Consumed since the beginning of the day 
5 - Energy Produced since the beginning of the day 
6 - Energy Lost since the beginning of the day on lines starting from the city
 
0 ; 238689.26094739538 ; 1.0523408958568558E8 ; 0.0 ; 0.0 ; 0.0
1 ; 242488.76353318157 ; 1.0538420339040458E8 ; 238689.26094739538 ; 1.0523408958568558E8 ; 0.0
2 ; 244708.18387759727 ; 1.0584316905170354E8 ; 481178.024480577 ; 2.1061829297609016E8 ; 0.0
3 ; 246924.09059099352 ; 1.0661102831470561E8 ; 725886.2083581742 ; 3.164614620277937E8 ; 0.0
4 ; 250280.15823469782 ; 1.0768783081292719E8 ; 972810.2989491677 ; 4.230724903424993E8 ; 0.0
5 ; 255338.64035454745 ; 1.0907363422618705E8 ; 1223090.4571838656 ; 5.307603211554265E8 ; 0.0
6 ; 261996.9795965978 ; 1.1076850323134324E8 ; 1478429.097538413 ; 6.398339553816135E8 ; 0.0
7 ; 268344.8868625115 ; 1.1277250652108872E8 ; 1740426.0771350109 ; 7.506024586129568E8 ; 0.0
8 ; 279461.58797010174 ; 1.150857113152504E8 ; 2008770.9639975224 ; 8.633749651340455E8 ; 0.0
9 ; 297206.73840157595 ; 1.1770817548240054E8 ; 2288232.551967624 ; 9.784606764492959E8 ; 0.0
10 ; 323825.3072469986 ; 1.2063993865627933E8 ; 2585439.2903692 ; 1.0961688519316964E9 ; 0.0
11 ; 366074.8162887069 ; 1.238810149885734E8 ; 2909264.5976161985 ; 1.2168087905879757E9 ; 0.0
12 ; 432621.5394625818 ; 1.274313903275961E8 ; 3275339.4139049053 ; 1.340689805576549E9 ; 0.0
13 ; 495983.50197280914 ; 1.3129102503960723E8 ; 3707960.953367487 ; 1.4681211959041452E9 ; 0.0
14 ; 502749.4923740146 ; 1.354598612560346E8 ; 4203944.455340296 ; 1.5994122209437525E9 ; 0.0
15 ; 506536.1703645654 ; 1.3993783175705123E8 ; 4706693.94771431 ; 1.7348720821997871E9 ; 0.0
16 ; 508171.13438807 ; 1.4472486784996423E8 ; 5213230.118078875 ; 1.8748099139568384E9 ; 0.0
17 ; 513756.23859014414 ; 1.498209048579155E8 ; 5721401.252466945 ; 2.0195347818068025E9 ; 0.0
18 ; 516879.24223178497 ; 1.5522588510108626E8 ; 6235157.4910570895 ; 2.169355686664718E9 ; 0.0
19 ; 519253.0752189802 ; 1.6093975894596013E8 ; 6752036.733288875 ; 2.3245815717658043E9 ; 0.0
20 ; 523873.59988885245 ; 1.6696248464741394E8 ; 7271289.808507855 ; 2.4855213307117643E9 ; 0.0
21 ; 527854.9160219112 ; 1.7329402757490185E8 ; 7795163.408396708 ; 2.652483815359178E9 ; 0.0
22 ; 529387.1085634315 ; 1.7993435921145695E8 ; 8323018.324418619 ; 2.82577784293408E9 ; 0.0
23 ; 534249.705707041 ; 1.8688345614366192E8 ; 8852405.43298205 ; 3.005712202145537E9 ; 0.0
24 ; 537917.0703335538 ; 1.9414129914629602E8 ; 9386655.138689091 ; 3.192595658289199E9 ; 0.0
25 ; 540404.4804051247 ; 2.0039591329687417E8 ; 9924572.209022645 ; 3.386736957435495E9 ; 0.0
26 ; 542564.4335014654 ; 2.0040083336314306E8 ; 1.0464976689427769E7 ; 3.587132870732369E9 ; 0.0
27 ; 547184.8635330641 ; 2.0040581779991773E8 ; 1.1007541122929234E7 ; 3.787533704095512E9 ; 0.0
28 ; 550733.075556139 ; 2.0041085757099012E8 ; 1.1554725986462299E7 ; 3.9879395218954296E9 ; 0.0
29 ; 554409.6748907488 ; 2.0041594510236466E8 ; 1.2105459062018437E7 ; 4.1883503794664197E9 ; 0.0
30 ; 557423.1243096513 ; 2.0042107401066148E8 ; 1.2659868736909186E7 ; 4.388766324568785E9 ; 0.0
31 ; 559394.2473867891 ; 2.0042623888606665E8 ; 1.3217291861218838E7 ; 4.589187398579446E9 ; 0.0
32 ; 563508.584796136 ; 2.004314351185224E8 ; 1.3776686108605627E7 ; 4.789613637465512E9 ; 0.0
33 ; 566209.296766017 ; 2.0043665875811532E8 ; 1.4340194693401763E7 ; 4.990045072584035E9 ; 0.0
34 ; 570289.495241034 ; 2.0044190640251008E8 ; 1.490640399016778E7 ; 5.190481731342151E9 ; 0.0
35 ; 572605.8124658179 ; 2.0044717510580814E8 ; 1.5476693485408815E7 ; 5.39092363774466E9 ; 0.0
36 ; 577659.9242813297 ; 2.0045246230442208E8 ; 1.6049299297874633E7 ; 5.591370812850469E9 ; 0.0
37 ; 578390.9813835726 ; 2.0045776575651038E8 ; 1.6626959222155962E7 ; 5.791823275154891E9 ; 0.0
38 ; 581101.3828088349 ; 2.00463083492261E8 ; 1.7205350203539535E7 ; 5.992281040911402E9 ; 0.0
39 ; 584275.5156391396 ; 2.004684137728894E8 ; 1.778645158634837E7 ; 6.192744124403663E9 ; 0.0
40 ; 586370.7829665004 ; 2.0047375505666837E8 ; 1.837072710198751E7 ; 6.393212538176552E9 ; 0.0
41 ; 588764.6759057846 ; 2.0047910597065592E8 ; 1.8957097884954013E7 ; 6.59368629323322E9 ; 0.0
42 ; 591882.6669602495 ; 2.0048446528706187E8 ; 1.95458625608598E7 ; 6.7941653992038765E9 ; 0.0
43 ; 594441.8429269533 ; 2.004898319034071E8 ; 2.013774522782005E7 ; 6.994649864490938E9 ; 0.0
44 ; 593788.8563909682 ; 2.0049520482579753E8 ; 2.0732187070747003E7 ; 7.195139696394345E9 ; 0.0
45 ; 597861.6210020579 ; 2.0050058315476686E8 ; 2.132597592713797E7 ; 7.395634901220142E9 ; 0.0
46 ; 599548.3632484183 ; 2.005059660732471E8 ; 2.192383754814003E7 ; 7.596135484374909E9 ; 0.0
47 ; 601807.4286963304 ; 2.0051135283630866E8 ; 2.252338591138845E7 ; 7.796641450448156E9 ; 0.0
48 ; 603664.8525381276 ; 2.005167427623777E8 ; 2.312519334008478E7 ; 7.997152803284465E9 ; 0.0
49 ; 604947.4628890478 ; 2.0052213522569215E8 ; 2.3728858192622907E7 ; 8.197669546046843E9 ; 0.0
50 ; 606540.2585303079 ; 2.0052752964979973E8 ; 2.4333805655511957E7 ; 8.398191681272534E9 ; 0.0
51 ; 606919.5773869836 ; 2.0053292550193575E8 ; 2.4940345914042264E7 ; 8.598719210922335E9 ; 0.0
52 ; 609522.5769027821 ; 2.0053832228814662E8 ; 2.5547265491429247E7 ; 8.79925213642427E9 ; 0.0
53 ; 610039.8254714782 ; 2.0054371954904753E8 ; 2.6156788068332028E7 ; 8.999790458712418E9 ; 0.0
54 ; 611529.7427639085 ; 2.0054911685612088E8 ; 2.6766827893803507E7 ; 9.200334178261465E9 ; 0.0
55 ; 612414.5459921866 ; 2.0055451380847767E8 ; 2.7378357636567414E7 ; 9.400883295117586E9 ; 0.0
56 ; 612539.9682538928 ; 2.0055991003001633E8 ; 2.7990772182559602E7 ; 9.601437808926064E9 ; 0.0
57 ; 614876.2347273844 ; 2.0056530516692373E8 ; 2.8603312150813494E7 ; 9.80199771895608E9 ; 0.0
58 ; 615536.0436979335 ; 2.005706988854717E8 ; 2.9218188385540877E7 ; 1.0002563024123003E10 ; 0.0
59 ; 617111.3326365494 ; 2.0057609087006932E8 ; 2.983372442923881E7 ; 1.0203133723008474E10 ; 0.0
60 ; 619179.466908588 ; 2.005814808215374E8 ; 3.045083576187536E7 ; 1.0403709813878544E10 ; 0.0
61 ; 619884.6953277002 ; 2.0058686845557645E8 ; 3.107001522878395E7 ; 1.060429129470008E10 ; 0.0
62 ; 621205.4102509986 ; 2.0059225350140315E8 ; 3.168989992411165E7 ; 1.0804878163155657E10 ; 0.0
63 ; 622787.0881327264 ; 2.005976357005347E8 ; 3.231110533436265E7 ; 1.100547041665706E10 ; 0.0
64 ; 623395.4889957821 ; 2.0060301480570254E8 ; 3.2933892422495376E7 ; 1.1206068052357595E10 ; 0.0
65 ; 625313.7158137405 ; 2.0060839057987982E8 ; 3.3557287911491156E7 ; 1.1406671067163298E10 ; 0.0
66 ; 627274.3319202923 ; 2.0061376279540914E8 ; 3.41826016273049E7 ; 1.1607279457743177E10 ; 0.0
67 ; 627252.2363473299 ; 2.0061913123321873E8 ; 3.480987595922519E7 ; 1.1807893220538586E10 ; 0.0
68 ; 628671.9743652546 ; 2.0062449568211687E8 ; 3.5437128195572525E7 ; 1.2008512351771805E10 ; 0.0
69 ; 629066.662534397 ; 2.0062985593815562E8 ; 3.606580016993778E7 ; 1.2209136847453922E10 ; 0.0
70 ; 628565.624182855 ; 2.0063521180405638E8 ; 3.6694866832472175E7 ; 1.2409766703392078E10 ; 0.0
71 ; 632250.4219229681 ; 2.0064056308868986E8 ; 3.732343245665503E7 ; 1.2610401915196135E10 ; 0.0
72 ; 632321.0255745307 ; 2.006459096066052E8 ; 3.7955682878578E7 ; 1.2811042478284824E10 ; 0.0
73 ; 632503.8631351341 ; 2.006512511776026E8 ; 3.858800390415253E7 ; 1.301168838789143E10 ; 0.0
74 ; 633684.6928398712 ; 2.0065658762634498E8 ; 3.9220507767287664E7 ; 1.3212339639069033E10 ; 0.0
75 ; 635715.2505209638 ; 2.006619187820046E8 ; 3.985419246012753E7 ; 1.3412996226695377E10 ; 0.0
76 ; 636784.0186299706 ; 2.0066724447794098E8 ; 4.04899077106485E7 ; 1.3613658145477383E10 ; 0.0
77 ; 637817.2067124257 ; 2.006725645514072E8 ; 4.112669172927847E7 ; 1.3814325389955324E10 ; 0.0
78 ; 636678.5939337811 ; 2.006778788432814E8 ; 4.176450893599089E7 ; 1.4014997954506731E10 ; 0.0
79 ; 636838.4143650396 ; 2.0068318719782117E8 ; 4.2401187529924676E7 ; 1.4215675833350012E10 ; 0.0
80 ; 636490.0164281026 ; 2.0068848946243894E8 ; 4.3038025944289714E7 ; 1.4416359020547832E10 ; 0.0
81 ; 637316.790102061 ; 2.0069378548749548E8 ; 4.367451596071782E7 ; 1.4617047510010271E10 ; 0.0
82 ; 636732.6085122052 ; 2.0069907512611088E8 ; 4.4311832750819884E7 ; 1.4817741295497766E10 ; 0.0
83 ; 637986.2570615415 ; 2.0070435823399055E8 ; 4.494856535933209E7 ; 1.5018440370623877E10 ; 0.0
84 ; 637564.5096632106 ; 2.007096346692652E8 ; 4.558655161639363E7 ; 1.5219144728857866E10 ; 0.0
85 ; 638581.4631522605 ; 2.0071490429234368E8 ; 4.622411612605684E7 ; 1.5419854363527132E10 ; 0.0
86 ; 637542.8350261234 ; 2.0072016696577692E8 ; 4.68626975892091E7 ; 1.5620569267819475E10 ; 0.0
87 ; 636638.4762460168 ; 2.0072542255413294E8 ; 4.7500240424235225E7 ; 1.5821289434785252E10 ; 0.0
88 ; 636683.3921677157 ; 2.0073067092388096E8 ; 4.813687890048124E7 ; 1.6022014857339384E10 ; 0.0
89 ; 637674.616230638 ; 2.0073591194328445E8 ; 4.8773562292648956E7 ; 1.6222745528263266E10 ; 0.0
90 ; 637115.7797069526 ; 2.0074114548230228E8 ; 4.941123690887959E7 ; 1.642348144020655E10 ; 0.0
91 ; 636546.4979022243 ; 2.0074637141249698E8 ; 5.004835268858655E7 ; 1.6624222585688852E10 ; 0.0
92 ; 637322.6442550822 ; 2.007515896069499E8 ; 5.068489918648877E7 ; 1.6824968957101349E10 ; 0.0
93 ; 638112.2304630567 ; 2.0075679994018242E8 ; 5.132222183074385E7 ; 1.70257205467083E10 ; 0.0
94 ; 638533.0860150729 ; 2.0076200228808296E8 ; 5.196033406120691E7 ; 1.7226477346648483E10 ; 0.0
95 ; 635276.0770511233 ; 2.0076719652783886E8 ; 5.259886714722198E7 ; 1.7427239348936565E10 ; 0.0
96 ; 636893.4541559466 ; 2.0077238253787357E8 ; 5.323414322427311E7 ; 1.7628006545464405E10 ; 0.0
97 ; 635003.0762543002 ; 2.0077756019778764E8 ; 5.387103667842905E7 ; 1.7828778928002277E10 ; 0.0
98 ; 634672.3934581673 ; 2.0078272938830435E8 ; 5.450603975468335E7 ; 1.8029556488200066E10 ; 0.0
99 ; 636194.8890690854 ; 2.0078788999121866E8 ; 5.514071214814152E7 ; 1.823033921758837E10 ; 0.0
100 ; 634264.451447763 ; 2.0079304188934973E8 ; 5.5776907037210606E7 ; 1.843112710757959E10 ; 0.0
101 ; 636077.9996649292 ; 2.0079818496649688E8 ; 5.641117148865837E7 ; 1.863192014946894E10 ; 0.0
102 ; 634349.8547602115 ; 2.0080331910739818E8 ; 5.70472494883233E7 ; 1.8832718334435436E10 ; 0.0
103 ; 634110.2708708124 ; 2.0080844419769186E8 ; 5.7681599343083516E7 ; 1.9033521653542835E10 ; 0.0
104 ; 634957.3570115921 ; 2.0081356012388054E8 ; 5.831570961395433E7 ; 1.923433009774053E10 ; 0.0
105 ; 633192.474219651 ; 2.008186667732973E8 ; 5.895066697096592E7 ; 1.943514365786441E10 ; 0.0
106 ; 633216.063070943 ; 2.0082376403407452E8 ; 5.958385944518557E7 ; 1.9635962324637707E10 ; 0.0
107 ; 633206.8580088499 ; 2.0082885179511422E8 ; 6.021707550825652E7 ; 1.983678608867178E10 ; 0.0
108 ; 632031.6713247929 ; 2.008339299460607E8 ; 6.0850282366265364E7 ; 2.0037614940466892E10 ; 0.0
109 ; 631549.0267051071 ; 2.008389983772746E8 ; 6.148231403759015E7 ; 2.0238448870412952E10 ; 0.0
110 ; 630946.054671141 ; 2.0084405697980893E8 ; 6.211386306429526E7 ; 2.0439287868790226E10 ; 0.0
111 ; 629842.6317252422 ; 2.0084910564538625E8 ; 6.27448091189664E7 ; 2.0640131925770035E10 ; 0.0
112 ; 629089.0310039943 ; 2.0085414426637763E8 ; 6.3374651750691645E7 ; 2.084098103141542E10 ; 0.0
113 ; 627955.7562591591 ; 2.008591727357827E8 ; 6.400374078169564E7 ; 2.1041835175681797E10 ; 0.0
114 ; 629599.6511717826 ; 2.0086419094721103E8 ; 6.46316965379548E7 ; 2.124269434841758E10 ; 0.0
115 ; 628707.8519067903 ; 2.008691987948645E8 ; 6.526129618912658E7 ; 2.144355853936479E10 ; 0.0
116 ; 628846.5545208475 ; 2.008741961735211E8 ; 6.589000404103337E7 ; 2.1644427738159657E10 ; 0.0
117 ; 626786.9738769922 ; 2.008791829785194E8 ; 6.651885059555422E7 ; 2.184530193433318E10 ; 0.0
118 ; 626262.6923939971 ; 2.008841591057441E8 ; 6.714563756943122E7 ; 2.20461811173117E10 ; 0.0
119 ; 627262.4969687815 ; 2.0088912445161235E8 ; 6.777190026182522E7 ; 2.2247065276417442E10 ; 0.0
120 ; 625881.8802273885 ; 2.0089407891306126E8 ; 6.8399162758794E7 ; 2.2447954400869053E10 ; 0.0
121 ; 626098.9753442988 ; 2.008990223875356E8 ; 6.902504463902138E7 ; 2.2648848479782116E10 ; 0.0
122 ; 623417.6869240995 ; 2.009039547729768E8 ; 6.965114361436568E7 ; 2.284974750216965E10 ; 0.0
123 ; 622394.1655002694 ; 2.0090887596781218E8 ; 7.027456130128978E7 ; 2.3050651456942627E10 ; 0.0
124 ; 620668.6681608881 ; 2.0091378587094525E8 ; 7.089695546679005E7 ; 2.325156033291044E10 ; 0.0
125 ; 622347.1412740564 ; 2.0091868438174614E8 ; 7.151762413495094E7 ; 2.3452474118781384E10 ; 0.0
126 ; 619438.0671923705 ; 2.00923571400043E8 ; 7.213997127622499E7 ; 2.3653392803163128E10 ; 0.0
127 ; 619862.9171959908 ; 2.0092844682611373E8 ; 7.275940934341736E7 ; 2.385431637456317E10 ; 0.0
128 ; 619278.0922263867 ; 2.0093331056067818E8 ; 7.337927226061335E7 ; 2.4055244821389286E10 ; 0.0
129 ; 618649.9213772751 ; 2.00938162504891E8 ; 7.399855035283974E7 ; 2.4256178131949963E10 ; 0.0
130 ; 618577.8739708085 ; 2.0094300256033477E8 ; 7.461720027421701E7 ; 2.4457116294454853E10 ; 0.0
131 ; 615558.0947664314 ; 2.0094783062901363E8 ; 7.523577814818782E7 ; 2.4658059297015186E10 ; 0.0
132 ; 613807.7221033263 ; 2.0095264661334714E8 ; 7.585133624295425E7 ; 2.48590071276442E10 ; 0.0
133 ; 613522.8136956545 ; 2.009574504161649E8 ; 7.646514396505758E7 ; 2.5059959774257545E10 ; 0.0
134 ; 611832.015258424 ; 2.0096224194070104E8 ; 7.707866677875324E7 ; 2.526091722467371E10 ; 0.0
135 ; 610671.353701658 ; 2.0096702109058934E8 ; 7.769049879401165E7 ; 2.546187946661441E10 ; 0.0
136 ; 606045.6098524844 ; 2.009717877698587E8 ; 7.83011701477133E7 ; 2.5662846487704998E10 ; 0.0
137 ; 606834.4756264193 ; 2.0097654188292858E8 ; 7.890721575756578E7 ; 2.5863818275474857E10 ; 0.0
138 ; 603527.2572794008 ; 2.009812833346051E8 ; 7.95140502331922E7 ; 2.6064794817357784E10 ; 0.0
139 ; 601832.4924494918 ; 2.0098601203007722E8 ; 8.01175774904716E7 ; 2.626577610069239E10 ; 0.0
140 ; 600438.5020212472 ; 2.0099072787491307E8 ; 8.07194099829211E7 ; 2.646676211272247E10 ; 0.0
141 ; 598412.316307776 ; 2.0099543077505675E8 ; 8.131984848494235E7 ; 2.666775284059738E10 ; 0.0
142 ; 598787.8017178116 ; 2.0100012063682523E8 ; 8.191826080125013E7 ; 2.6868748271372437E10 ; 0.0
143 ; 596456.2367568319 ; 2.0100479736690536E8 ; 8.251704860296795E7 ; 2.7069748392009262E10 ; 0.0
144 ; 593769.8865534496 ; 2.0100946087235126E8 ; 8.311350483972478E7 ; 2.7270753189376167E10 ; 0.0
145 ; 591709.7807944815 ; 2.010141110605818E8 ; 8.370727472627823E7 ; 2.747176265024852E10 ; 0.0
146 ; 590321.0833670173 ; 2.0101874783937836E8 ; 8.429898450707272E7 ; 2.76727767613091E10 ; 0.0
147 ; 590455.6798167414 ; 2.0102337111688256E8 ; 8.488930559043974E7 ; 2.787379550914848E10 ; 0.0
148 ; 589832.7582694137 ; 2.0102798080159426E8 ; 8.547976127025647E7 ; 2.807481888026536E10 ; 0.0
149 ; 590745.4996502751 ; 2.010325768023699E8 ; 8.606959402852589E7 ; 2.8275846861066956E10 ; 0.0
150 ; 588479.2255789004 ; 2.0103715902842063E8 ; 8.666033952817616E7 ; 2.8476879437869324E10 ; 0.0
151 ; 588094.7683543892 ; 2.0104172738931084E8 ; 8.724881875375506E7 ; 2.8677916596897743E10 ; 0.0
152 ; 587914.60594617 ; 2.010462817949567E8 ; 8.783691352210945E7 ; 2.8878958324287056E10 ; 0.0
153 ; 586383.9583819037 ; 2.0105082215562493E8 ; 8.842482812805562E7 ; 2.9080004606082012E10 ; 0.0
154 ; 585081.2869963781 ; 2.010553483819315E8 ; 8.901121208643752E7 ; 2.9281055428237637E10 ; 0.0
155 ; 583979.4968090098 ; 2.0105986038484067E8 ; 8.95962933734339E7 ; 2.9482110776619568E10 ; 0.0
156 ; 584217.3275198599 ; 2.0106435807566395E8 ; 9.018027287024291E7 ; 2.968317063700441E10 ; 0.0
157 ; 583732.0745516391 ; 2.0106884136605933E8 ; 9.076449019776277E7 ; 2.9884234995080074E10 ; 0.0
158 ; 582538.1523916598 ; 2.0107331016803038E8 ; 9.134822227231441E7 ; 3.0085303836446133E10 ; 0.0
159 ; 580580.6277391319 ; 2.0107776439392567E8 ; 9.193076042470607E7 ; 3.0286377146614162E10 ; 0.0
160 ; 580518.1116593027 ; 2.0108220395643815E8 ; 9.25113410524452E7 ; 3.0487454911008087E10 ; 0.0
161 ; 580117.5145936606 ; 2.0108662876860467E8 ; 9.30918591641045E7 ; 3.0688537114964527E10 ; 0.0
162 ; 578569.7697935597 ; 2.0109103874380547E8 ; 9.367197667869817E7 ; 3.088962374373313E10 ; 0.0
163 ; 577293.3084163739 ; 2.010954337957639E8 ; 9.425054644849172E7 ; 3.1090714782476936E10 ; 0.0
164 ; 575062.5914327994 ; 2.010998138385462E8 ; 9.482783975690809E7 ; 3.12918102162727E10 ; 0.0
165 ; 576632.8150914856 ; 2.01104178786561E8 ; 9.540290234834088E7 ; 3.1492910030111248E10 ; 0.0
166 ; 574922.0340671707 ; 2.0110852855455956E8 ; 9.597953516343237E7 ; 3.1694014208897808E10 ; 0.0
167 ; 575287.3099096776 ; 2.0111286305763534E8 ; 9.655445719749954E7 ; 3.1895122737452366E10 ; 0.0
168 ; 573653.0810105021 ; 2.0111718221122414E8 ; 9.712974450740921E7 ; 3.2096235600510002E10 ; 0.0
169 ; 574420.3052414308 ; 2.011214859311041E8 ; 9.770339758841972E7 ; 3.2297352782721226E10 ; 0.0
170 ; 571767.6698732848 ; 2.0112577413339573E8 ; 9.827781789366116E7 ; 3.249847426865233E10 ; 0.0
171 ; 570646.4919705975 ; 2.011300467345621E8 ; 9.884958556353444E7 ; 3.2699600042785725E10 ; 0.0
172 ; 570604.1119994697 ; 2.0113430365140888E8 ; 9.942023205550504E7 ; 3.2900730089520287E10 ; 0.0
173 ; 569561.9419321351 ; 2.0113854480108467E8 ; 9.99908361675045E7 ; 3.3101864393171696E10 ; 0.0
174 ; 569053.0349355884 ; 2.011427701010813E8 ; 1.0056039810943665E8 ; 3.3303002937972782E10 ; 0.0
175 ; 567087.6671619148 ; 2.0114697946923396E8 ; 1.0112945114437224E8 ; 3.3504145708073864E10 ; 0.0
176 ; 567259.6071561476 ; 2.0115117282372165E8 ; 1.0169653881153415E8 ; 3.37052926875431E10 ; 0.0
177 ; 567455.5576657951 ; 2.0115535008306757E8 ; 1.022637984186903E8 ; 3.390644386036682E10 ; 0.0
178 ; 566812.7385405856 ; 2.0115951116613945E8 ; 1.0283125397635609E8 ; 3.410759921044989E10 ; 0.0
179 ; 565889.4167434322 ; 2.011636559921501E8 ; 1.0339806671489668E8 ; 3.4308758721616028E10 ; 0.0
180 ; 565586.6339112627 ; 2.011677844806578E8 ; 1.039639561316401E8 ; 3.450992237760818E10 ; 0.0
181 ; 565234.2026017159 ; 2.0117189655156675E8 ; 1.0452954276555137E8 ; 3.471109016208884E10 ; 0.0
182 ; 565788.0167031799 ; 2.0117599212512782E8 ; 1.0509477696815309E8 ; 3.49122620586404E10 ; 0.0
183 ; 565190.3668988076 ; 2.0118007112193888E8 ; 1.0566056498485626E8 ; 3.511343805076553E10 ; 0.0
184 ; 562175.5876056243 ; 2.0118413346294552E8 ; 1.0622575535175507E8 ; 3.5314618121887474E10 ; 0.0
185 ; 562357.101997785 ; 2.011881790694416E8 ; 1.067879309393607E8 ; 3.551580225535042E10 ; 0.0
186 ; 562734.6822497445 ; 2.0119220786306992E8 ; 1.0735028804135847E8 ; 3.571699043441986E10 ; 0.0
187 ; 559260.9392482685 ; 2.0119621976582292E8 ; 1.0791302272360821E8 ; 3.591818264228293E10 ; 0.0
188 ; 559947.383647838 ; 2.0120021470004323E8 ; 1.0847228366285647E8 ; 3.611937886204875E10 ; 0.0
189 ; 560879.6247093809 ; 2.0120419258842447E8 ; 1.0903223104650432E8 ; 3.6320579076748795E10 ; 0.0
190 ; 560139.7542705437 ; 2.0120815335401198E8 ; 1.095931106712137E8 ; 3.652178326933722E10 ; 0.0
191 ; 558974.4461064347 ; 2.0121209692020348E8 ; 1.1015325042548424E8 ; 3.672299142269123E10 ; 0.0
192 ; 558062.820040399 ; 2.0121602321074986E8 ; 1.1071222487159067E8 ; 3.6924203519611435E10 ; 0.0
193 ; 556728.0609998943 ; 2.01219932149756E8 ; 1.1127028769163108E8 ; 3.712541954282218E10 ; 0.0
194 ; 556612.3134952252 ; 2.0122382366168147E8 ; 1.1182701575263098E8 ; 3.732663947497194E10 ; 0.0
195 ; 556530.5892683569 ; 2.0122769767134142E8 ; 1.123836280661262E8 ; 3.752786329863362E10 ; 0.0
196 ; 556846.9117292413 ; 2.0123155410390723E8 ; 1.1294015865539455E8 ; 3.772909099630496E10 ; 0.0
197 ; 554375.3363252822 ; 2.0123539288490754E8 ; 1.134970055671238E8 ; 3.793032255040887E10 ; 0.0
198 ; 555023.3219836087 ; 2.01239213940229E8 ; 1.1405138090344909E8 ; 3.813155794329378E10 ; 0.0
199 ; 554617.4029084796 ; 2.0124301719611704E8 ; 1.146064042254327E8 ; 3.833279715723401E10 ; 0.0
200 ; 552745.7038635426 ; 2.0124680257917684E8 ; 1.1516102162834117E8 ; 3.853404017443012E10 ; 0.0
201 ; 553862.8546281894 ; 2.012505700163742E8 ; 1.1571376733220471E8 ; 3.87352869770093E10 ; 0.0
