CSV File for the City 1 on Day 317
1 - Minute m 
2 - Power Consumed at minute m 
3 - Power Produced at minute m 
4 - Energy Consumed since the beginning of the day 
5 - Energy Produced since the beginning of the day 
6 - Energy Lost since the beginning of the day on lines starting from the city
 
0 ; 1.6207754710547049E7 ; 1.0578780287796536E8 ; 0.0 ; 0.0 ; 0.0
1 ; 1.622639870202957E7 ; 1.0594065979392678E8 ; 1.6207754710547049E7 ; 1.0578780287796536E8 ; 0.0
2 ; 1.6244154255801853E7 ; 1.0640230958437029E8 ; 3.2434153412576616E7 ; 2.1172846267189214E8 ; 0.0
3 ; 1.6262831566704577E7 ; 1.0717275330452907E8 ; 4.867830766837847E7 ; 3.181307722562624E8 ; 0.0
4 ; 1.6288619984584041E7 ; 1.0825199189478195E8 ; 6.494113923508305E7 ; 4.253035255607915E8 ; 0.0
5 ; 1.6316440202511745E7 ; 1.0964002617726368E8 ; 8.122975921966709E7 ; 5.3355551745557344E8 ; 0.0
6 ; 1.6356945848538829E7 ; 1.1133685685286513E8 ; 9.754619942217883E7 ; 6.43195543632837E8 ; 0.0
7 ; 1.6411990013906304E7 ; 1.1334248449864942E8 ; 1.1390314527071767E8 ; 7.545324004857022E8 ; 0.0
8 ; 1.6494586279779205E7 ; 1.1565690956570584E8 ; 1.3031513528462397E8 ; 8.678748849843516E8 ; 0.0
9 ; 1.6608740664138606E7 ; 1.1828013237746066E8 ; 1.4680972156440318E8 ; 9.835317945500574E8 ; 0.0
10 ; 1.6793164109567862E7 ; 1.2121215312845975E8 ; 1.634184622285418E8 ; 1.1018119269275181E9 ; 0.0
11 ; 1.708093317395857E7 ; 1.2445297188363352E8 ; 1.8021162633810964E8 ; 1.2230240800559778E9 ; 0.0
12 ; 1.754779069900985E7 ; 1.2800258857805154E8 ; 1.972925595120682E8 ; 1.3474770519396114E9 ; 0.0
13 ; 1.799358642967671E7 ; 1.3186100301716793E8 ; 2.1484035021107805E8 ; 1.475479640517663E9 ; 0.0
14 ; 1.8038220431676533E7 ; 1.360282148775565E8 ; 2.3283393664075476E8 ; 1.607340643534831E9 ; 0.0
15 ; 1.8065723810027692E7 ; 1.4050422370812786E8 ; 2.508721570724313E8 ; 1.7433688584123876E9 ; 0.0
16 ; 1.8094565781280387E7 ; 1.45289028931819E8 ; 2.68937880882459E8 ; 1.8838730821205153E9 ; 0.0
17 ; 1.810760244818851E7 ; 1.5038262984773895E8 ; 2.870324466637394E8 ; 2.0291621110523343E9 ; 0.0
18 ; 1.8134887969825953E7 ; 1.55785025633753E8 ; 3.0514004911192787E8 ; 2.179544740900073E9 ; 0.0
19 ; 1.81528668137225E7 ; 1.6149621534948233E8 ; 3.2327493708175385E8 ; 2.335329766533826E9 ; 0.0
20 ; 1.8173643837445002E7 ; 1.6751619793969372E8 ; 3.4142780389547634E8 ; 2.4968259818833084E9 ; 0.0
21 ; 1.8199330192352142E7 ; 1.7384497223805103E8 ; 3.5960144773292136E8 ; 2.6643421798230023E9 ; 0.0
22 ; 1.822047606508712E7 ; 1.8048253697119737E8 ; 3.778007779252735E8 ; 2.8381871520610533E9 ; 0.0
23 ; 1.8244533605200127E7 ; 1.874288907631356E8 ; 3.960212539903606E8 ; 3.0186696890322504E9 ; 0.0
24 ; 1.826776549123513E7 ; 1.9468403213987225E8 ; 4.142657875955607E8 ; 3.206098579795386E9 ; 0.0
25 ; 1.8289174882364478E7 ; 2.0093600043247375E8 ; 4.3253355308679587E8 ; 3.400782611935258E9 ; 0.0
26 ; 1.8306685499255396E7 ; 2.009383418190271E8 ; 4.508227279691603E8 ; 3.6017186123677316E9 ; 0.0
27 ; 1.8329202901418284E7 ; 2.0094082385476458E8 ; 4.6912941346841574E8 ; 3.8026569541867585E9 ; 0.0
28 ; 1.8351908208626997E7 ; 2.0094344472417825E8 ; 4.87458616369834E8 ; 4.003597778041523E9 ; 0.0
29 ; 1.83762601346417E7 ; 2.0094620253969243E8 ; 5.05810524578461E8 ; 4.2045412227657013E9 ; 0.0
30 ; 1.8393593766117398E7 ; 2.0094909534714252E8 ; 5.241867847131027E8 ; 4.405487425305394E9 ; 0.0
31 ; 1.8416684383321833E7 ; 2.0095212113127246E8 ; 5.425803784792202E8 ; 4.606436520652536E9 ; 0.0
32 ; 1.843437355610434E7 ; 2.009552778212193E8 ; 5.60997062862542E8 ; 4.807388641783809E9 ; 0.0
33 ; 1.8456571544015754E7 ; 2.0095856329595608E8 ; 5.794314364186463E8 ; 5.008343919605028E9 ; 0.0
34 ; 1.847402969207105E7 ; 2.0096197538966545E8 ; 5.978880079626621E8 ; 5.209302482900984E9 ; 0.0
35 ; 1.849655356669889E7 ; 2.0096551189701936E8 ; 6.163620376547332E8 ; 5.410264458290649E9 ; 0.0
36 ; 1.8513515205081288E7 ; 2.0096917057834157E8 ; 6.348585912214321E8 ; 5.611229970187669E9 ; 0.0
37 ; 1.8530607115336023E7 ; 2.009729491646335E8 ; 6.533721064265134E8 ; 5.81219914076601E9 ; 0.0
38 ; 1.8546618103160806E7 ; 2.0097684536244467E8 ; 6.719027135418495E8 ; 6.013172089930644E9 ; 0.0
39 ; 1.856223035492747E7 ; 2.009808568585727E8 ; 6.904493316450104E8 ; 6.214148935293089E9 ; 0.0
40 ; 1.8579542108597755E7 ; 2.0098498132457975E8 ; 7.090115619999378E8 ; 6.415129792151662E9 ; 0.0
41 ; 1.8595429355287928E7 ; 2.0098921642111447E8 ; 7.275911041085355E8 ; 6.616114773476242E9 ; 0.0
42 ; 1.8607027725219008E7 ; 2.0099355980203083E8 ; 7.461865334638234E8 ; 6.817103989897357E9 ; 0.0
43 ; 1.8623185759684905E7 ; 2.0099800911829743E8 ; 7.647935611890424E8 ; 7.018097549699388E9 ; 0.0
44 ; 1.8633309165339272E7 ; 2.0100256202169248E8 ; 7.834167469487274E8 ; 7.219095558817685E9 ; 0.0
45 ; 1.864588810296342E7 ; 2.0100721616828257E8 ; 8.020500561140666E8 ; 7.420098120839377E9 ; 0.0
46 ; 1.8658786089805067E7 ; 2.0101196922168288E8 ; 8.2069594421703E8 ; 7.62110533700766E9 ; 0.0
47 ; 1.8668034838447735E7 ; 2.010168188561009E8 ; 8.393547303068352E8 ; 7.822117306229342E9 ; 0.0
48 ; 1.8674071542486805E7 ; 2.0102176275916448E8 ; 8.580227651452829E8 ; 8.0231341250854435E9 ; 0.0
49 ; 1.8687880119035482E7 ; 2.01026798634538E8 ; 8.766968366877697E8 ; 8.224155887844608E9 ; 0.0
50 ; 1.869571856745664E7 ; 2.0103192420433074E8 ; 8.953847168068051E8 ; 8.425182686479146E9 ; 0.0
51 ; 1.870327965864107E7 ; 2.010371372113028E8 ; 9.140804353742617E8 ; 8.626214610683477E9 ; 0.0
52 ; 1.870826636464335E7 ; 2.0104243542087433E8 ; 9.327837150329028E8 ; 8.827251747894781E9 ; 0.0
53 ; 1.871337464632107E7 ; 2.0104781662294516E8 ; 9.514919813975462E8 ; 9.028294183315655E9 ; 0.0
54 ; 1.872147021164914E7 ; 2.01053278633532E8 ; 9.702053560438672E8 ; 9.2293419999386E9 ; 0.0
55 ; 1.872894738086363E7 ; 2.010588192962303E8 ; 9.889268262555164E8 ; 9.430395278572132E9 ; 0.0
56 ; 1.8730149582342498E7 ; 2.0106443648350993E8 ; 1.0076557736363801E9 ; 9.631454097868362E9 ; 0.0
57 ; 1.874157126036941E7 ; 2.010701280978516E8 ; 1.0263859232187226E9 ; 9.832518534351871E9 ; 0.0
58 ; 1.8742431201355744E7 ; 2.010758920727335E8 ; 1.045127494479092E9 ; 1.0033588662449722E10 ; 0.0
59 ; 1.875134159754359E7 ; 2.0108172637347567E8 ; 1.0638699256804477E9 ; 1.0234664554522455E10 ; 0.0
60 ; 1.875736163206375E7 ; 2.010876289979513E8 ; 1.0826212672779913E9 ; 1.0435746280895931E10 ; 0.0
61 ; 1.8765167529654555E7 ; 2.0109359797717258E8 ; 1.1013786289100552E9 ; 1.0636833909893883E10 ; 0.0
62 ; 1.8769578230992634E7 ; 2.010996313757597E8 ; 1.1201437964397097E9 ; 1.0837927507871056E10 ; 0.0
63 ; 1.878086498302331E7 ; 2.0110572729230112E8 ; 1.1389133746707022E9 ; 1.1039027139246815E10 ; 0.0
64 ; 1.8781520967474062E7 ; 2.0111188385961238E8 ; 1.1576942396537256E9 ; 1.1240132866539116E10 ; 0.0
65 ; 1.8783866780752733E7 ; 2.0111809924490172E8 ; 1.1764757606211996E9 ; 1.1441244750398727E10 ; 0.0
66 ; 1.8794944076005813E7 ; 2.011243716498492E8 ; 1.1952596274019523E9 ; 1.164236284964363E10 ; 0.0
67 ; 1.8794248102157533E7 ; 2.0113069931060666E8 ; 1.214054571477958E9 ; 1.1843487221293478E10 ; 0.0
68 ; 1.8799708062481243E7 ; 2.0113708049772525E8 ; 1.2328488195801156E9 ; 1.2044617920604084E10 ; 0.0
69 ; 1.880383936394984E7 ; 2.0114351351601657E8 ; 1.2516485276425967E9 ; 1.2245755001101809E10 ; 0.0
70 ; 1.8813435677824732E7 ; 2.0114999670435402E8 ; 1.2704523670065465E9 ; 1.2446898514617825E10 ; 0.0
71 ; 1.881446896884792E7 ; 2.0115652843541965E8 ; 1.2892658026843712E9 ; 1.2648048511322178E10 ; 0.0
72 ; 1.881789850911837E7 ; 2.0116310711540222E8 ; 1.3080802716532192E9 ; 1.2849205039757597E10 ; 0.0
73 ; 1.8822775096647054E7 ; 2.011697311836514E8 ; 1.3268981701623375E9 ; 1.3050368146873E10 ; 0.0
74 ; 1.882641641533861E7 ; 2.01176399112293E8 ; 1.3457209452589846E9 ; 1.325153787805665E10 ; 0.0
75 ; 1.8828002988625485E7 ; 2.0118310940580985E8 ; 1.364547361674323E9 ; 1.3452714277168943E10 ; 0.0
76 ; 1.8831911229156267E7 ; 2.011898606005922E8 ; 1.3833753646629486E9 ; 1.3653897386574753E10 ; 0.0
77 ; 1.8838249728361618E7 ; 2.0119665126446185E8 ; 1.4022072758921049E9 ; 1.3855087247175344E10 ; 0.0
78 ; 1.8834029273722097E7 ; 2.012034799961734E8 ; 1.4210455256204665E9 ; 1.4056283898439806E10 ; 0.0
79 ; 1.8833649107801225E7 ; 2.0121034542489636E8 ; 1.4398795548941886E9 ; 1.425748737843598E10 ; 0.0
80 ; 1.8827573029622775E7 ; 2.0121724620968044E8 ; 1.4587132040019898E9 ; 1.4458697723860876E10 ; 0.0
81 ; 1.88274352769695E7 ; 2.01224181038908E8 ; 1.4775407770316126E9 ; 1.4659914970070557E10 ; 0.0
82 ; 1.8821608083133344E7 ; 2.012311486297353E8 ; 1.496368212308582E9 ; 1.4861139151109465E10 ; 0.0
83 ; 1.882289351375382E7 ; 2.012381477275253E8 ; 1.5151898203917155E9 ; 1.50623702997392E10 ; 0.0
84 ; 1.8816088650862373E7 ; 2.012451771052747E8 ; 1.5340127139054694E9 ; 1.5263608447466726E10 ; 0.0
85 ; 1.8814859182547495E7 ; 2.0125223556303617E8 ; 1.5528288025563319E9 ; 1.5464853624572E10 ; 0.0
86 ; 1.8809343604189206E7 ; 2.012593219273387E8 ; 1.5716436617388794E9 ; 1.5666105860135036E10 ; 0.0
87 ; 1.8812059166117392E7 ; 2.0126643505060697E8 ; 1.5904530053430686E9 ; 1.5867365182062376E10 ; 0.0
88 ; 1.8802699008049298E7 ; 2.0127357381058165E8 ; 1.609265064509186E9 ; 1.6068631617112984E10 ; 0.0
89 ; 1.879882023689966E7 ; 2.012807371097418E8 ; 1.6280677635172353E9 ; 1.6269905190923565E10 ; 0.0
90 ; 1.87948180113611E7 ; 2.012879238747304E8 ; 1.646866583754135E9 ; 1.6471185928033306E10 ; 0.0
91 ; 1.8789743772120178E7 ; 2.0129513305578464E8 ; 1.665661401765496E9 ; 1.6672473851908037E10 ; 0.0
92 ; 1.8786195558395576E7 ; 2.0130236362617132E8 ; 1.6844511455376163E9 ; 1.6873768984963821E10 ; 0.0
93 ; 1.8782384164301828E7 ; 2.0130961458162853E8 ; 1.7032373410960119E9 ; 1.7075071348589993E10 ; 0.0
94 ; 1.8775217241657607E7 ; 2.0131688493981442E8 ; 1.7220197252603137E9 ; 1.727638096317162E10 ; 0.0
95 ; 1.8770957566560738E7 ; 2.0132417373976332E8 ; 1.7407949425019712E9 ; 1.7477697848111435E10 ; 0.0
96 ; 1.8773602594143454E7 ; 2.0133148004135033E8 ; 1.759565900068532E9 ; 1.76790220218512E10 ; 0.0
97 ; 1.8763112547091585E7 ; 2.013388029247644E8 ; 1.7783395026626754E9 ; 1.788035350189255E10 ; 0.0
98 ; 1.875687276071152E7 ; 2.013461414899904E8 ; 1.7971026152097669E9 ; 1.8081692304817314E10 ; 0.0
99 ; 1.8749627403991945E7 ; 2.0135349485630104E8 ; 1.8158594879704783E9 ; 1.8283038446307304E10 ; 0.0
100 ; 1.874786279840905E7 ; 2.013608621617578E8 ; 1.8346091153744702E9 ; 1.8484391941163605E10 ; 0.0
101 ; 1.8742690520741813E7 ; 2.0136824256272244E8 ; 1.8533569781728792E9 ; 1.8685752803325363E10 ; 0.0
102 ; 1.8736793532801285E7 ; 2.013756352333784E8 ; 1.872099668693621E9 ; 1.8887121045888084E10 ; 0.0
103 ; 1.8732258228792686E7 ; 2.013830393652622E8 ; 1.8908364622264223E9 ; 1.9088496681121464E10 ; 0.0
104 ; 1.8722473590738304E7 ; 2.0139045416680557E8 ; 1.909568720455215E9 ; 1.9289879720486725E10 ; 0.0
105 ; 1.87153662965963E7 ; 2.0139787886288777E8 ; 1.9282911940459533E9 ; 1.949127017465353E10 ; 0.0
106 ; 1.8710704801579736E7 ; 2.0140531269439825E8 ; 1.9470065603425496E9 ; 1.969266805351642E10 ; 0.0
107 ; 1.8701009807907768E7 ; 2.0141275491781002E8 ; 1.9657172651441293E9 ; 1.9894073366210815E10 ; 0.0
108 ; 1.8698542917038117E7 ; 2.0142020480476302E8 ; 1.984418274952037E9 ; 2.0095486121128624E10 ; 0.0
109 ; 1.8688481824228324E7 ; 2.01427661641658E8 ; 2.0031168178690753E9 ; 2.0296906325933388E10 ; 0.0
110 ; 1.8682097550226748E7 ; 2.0143512472926074E8 ; 2.0218052996933036E9 ; 2.0498333987575047E10 ; 0.0
111 ; 1.8671348693625048E7 ; 2.0144259338231617E8 ; 2.0404873972435303E9 ; 2.0699769112304306E10 ; 0.0
112 ; 1.8668355357131813E7 ; 2.0145006692917264E8 ; 2.0591587459371552E9 ; 2.0901211705686623E10 ; 0.0
113 ; 1.8655215068309896E7 ; 2.01457544711416E8 ; 2.077827101294287E9 ; 2.1102661772615795E10 ; 0.0
114 ; 1.8649444931813553E7 ; 2.014650260835137E8 ; 2.0964823163625968E9 ; 2.130411931732721E10 ; 0.0
115 ; 1.864332687307176E7 ; 2.0147251041246808E8 ; 2.1151317612944102E9 ; 2.1505584343410725E10 ; 0.0
116 ; 1.8634563293716017E7 ; 2.0147999707747924E8 ; 2.133775088167482E9 ; 2.1707056853823193E10 ; 0.0
117 ; 1.862560944172944E7 ; 2.0148748546961752E8 ; 2.152409651461198E9 ; 2.1908536850900673E10 ; 0.0
118 ; 1.8619448532138813E7 ; 2.0149497499150452E8 ; 2.1710352609029274E9 ; 2.211002433637029E10 ; 0.0
119 ; 1.8605393457701445E7 ; 2.0150246505700335E8 ; 2.189654709435066E9 ; 2.2311519311361794E10 ; 0.0
120 ; 1.8585413426328894E7 ; 2.015099550909177E8 ; 2.208260102892768E9 ; 2.2513021776418797E10 ; 0.0
121 ; 1.8557174380764045E7 ; 2.0151744452869904E8 ; 2.2268455163190966E9 ; 2.2714531731509716E10 ; 0.0
122 ; 1.8523715995061673E7 ; 2.015249328161627E8 ; 2.2454026906998606E9 ; 2.2916049176038414E10 ; 0.0
123 ; 1.8492231462714322E7 ; 2.0153241940921167E8 ; 2.2639264066949224E9 ; 2.3117574108854576E10 ; 0.0
124 ; 1.845903987002812E7 ; 2.0153990377356857E8 ; 2.2824186381576366E9 ; 2.3319106528263786E10 ; 0.0
125 ; 1.8426542471313957E7 ; 2.0154738538451535E8 ; 2.3008776780276647E9 ; 2.3520646432037354E10 ; 0.0
126 ; 1.8393777736062106E7 ; 2.0155486372664064E8 ; 2.3193042204989786E9 ; 2.3722193817421867E10 ; 0.0
127 ; 1.836191050840747E7 ; 2.0156233829359433E8 ; 2.3376979982350407E9 ; 2.3923748681148506E10 ; 0.0
128 ; 1.8327824063030917E7 ; 2.0156980858784956E8 ; 2.3560599087434483E9 ; 2.41253110194421E10 ; 0.0
129 ; 1.8297538158392314E7 ; 2.015772741204715E8 ; 2.374387732806479E9 ; 2.432688082802995E10 ; 0.0
130 ; 1.8255963047220964E7 ; 2.015847344108932E8 ; 2.3926852709648714E9 ; 2.452845810215042E10 ; 0.0
131 ; 1.822146562710515E7 ; 2.0159218898669776E8 ; 2.4109412340120926E9 ; 2.4730042836561314E10 ; 0.0
132 ; 1.8179875533379998E7 ; 2.0159963738340735E8 ; 2.429162699639198E9 ; 2.493163502554801E10 ; 0.0
133 ; 1.8144602933038883E7 ; 2.016070791442783E8 ; 2.447342575172578E9 ; 2.513323466293142E10 ; 0.0
134 ; 1.810564510841446E7 ; 2.0161451382010207E8 ; 2.4654871781056166E9 ; 2.53348417420757E10 ; 0.0
135 ; 1.8062685720753357E7 ; 2.0162194096901274E8 ; 2.483592823214031E9 ; 2.55364562558958E10 ; 0.0
136 ; 1.8021941163311876E7 ; 2.0162936015629977E8 ; 2.5016555089347844E9 ; 2.5738078196864815E10 ; 0.0
137 ; 1.798769508553545E7 ; 2.016367709542265E8 ; 2.5196774500980964E9 ; 2.5939707557021114E10 ; 0.0
138 ; 1.7944739531090703E7 ; 2.0164417294185412E8 ; 2.537665145183632E9 ; 2.614134432797534E10 ; 0.0
139 ; 1.7905227063940506E7 ; 2.0165156570487106E8 ; 2.5556098847147226E9 ; 2.6342988500917194E10 ; 0.0
140 ; 1.7861491882518098E7 ; 2.0165894883542717E8 ; 2.573515111778663E9 ; 2.6544640066622066E10 ; 0.0
141 ; 1.7823691402880527E7 ; 2.016663219319732E8 ; 2.5913766036611814E9 ; 2.6746299015457493E10 ; 0.0
142 ; 1.7783270660088975E7 ; 2.016736845991049E8 ; 2.609200295064062E9 ; 2.6947965337389465E10 ; 0.0
143 ; 1.7743056967450473E7 ; 2.0168103644741204E8 ; 2.626983565724151E9 ; 2.714963902198857E10 ; 0.0
144 ; 1.7702140174260687E7 ; 2.0168837709333158E8 ; 2.6447266226916018E9 ; 2.735132005843598E10 ; 0.0
145 ; 1.7667338892324336E7 ; 2.0169570615900567E8 ; 2.6624287628658624E9 ; 2.7553008435529312E10 ; 0.0
146 ; 1.7630185264268216E7 ; 2.017030232721438E8 ; 2.680096101758187E9 ; 2.7754704141688316E10 ; 0.0
147 ; 1.7601450773587022E7 ; 2.0171032806588885E8 ; 2.697726287022455E9 ; 2.795640716496046E10 ; 0.0
148 ; 1.756374085398691E7 ; 2.0171762017868748E8 ; 2.7153277377960424E9 ; 2.815811749302635E10 ; 0.0
149 ; 1.7532925487218224E7 ; 2.0172489925416425E8 ; 2.732891478650029E9 ; 2.8359835113205036E10 ; 0.0
150 ; 1.7499330261932787E7 ; 2.017321649409996E8 ; 2.7504244041372476E9 ; 2.85615600124592E10 ; 0.0
151 ; 1.746493435019656E7 ; 2.0173941689281142E8 ; 2.7679237343991804E9 ; 2.87632921774002E10 ; 0.0
152 ; 1.7427880910325825E7 ; 2.017466547680402E8 ; 2.785388668749377E9 ; 2.896503159429301E10 ; 0.0
153 ; 1.7394768595585205E7 ; 2.0175387822983763E8 ; 2.802816549659703E9 ; 2.916677824906105E10 ; 0.0
154 ; 1.7360847831260756E7 ; 2.0176108694595852E8 ; 2.820211318255288E9 ; 2.936853212729089E10 ; 0.0
155 ; 1.732538648803702E7 ; 2.0176828058865607E8 ; 2.837572166086549E9 ; 2.9570293214236847E10 ; 0.0
156 ; 1.728801818905562E7 ; 2.0177545883457994E8 ; 2.854897552574586E9 ; 2.9772061494825504E10 ; 0.0
157 ; 1.725604993717818E7 ; 2.017826213646778E8 ; 2.8721855707636414E9 ; 2.9973836953660084E10 ; 0.0
158 ; 1.722288189143841E7 ; 2.0178976786409947E8 ; 2.8894416207008195E9 ; 3.017561957502476E10 ; 0.0
159 ; 1.7189296238884658E7 ; 2.0179689802210414E8 ; 2.906664502592258E9 ; 3.037740934288886E10 ; 0.0
160 ; 1.7156312792881347E7 ; 2.0180401153197017E8 ; 2.9238537988311424E9 ; 3.057920624091096E10 ; 0.0
161 ; 1.7119620474385317E7 ; 2.0181110809090772E8 ; 2.941010111624024E9 ; 3.0781010252442932E10 ; 0.0
162 ; 1.7082899738121655E7 ; 2.0181818739997384E8 ; 2.958129732098409E9 ; 3.098282136053384E10 ; 0.0
163 ; 1.7049906142104242E7 ; 2.0182524916399023E8 ; 2.9752126318365307E9 ; 3.1184639547933815E10 ; 0.0
164 ; 1.7018890259149853E7 ; 2.0183229309146333E8 ; 2.992262537978635E9 ; 3.1386464797097805E10 ; 0.0
165 ; 1.6980037501452062E7 ; 2.0183931889450663E8 ; 3.009281428237785E9 ; 3.158829709018927E10 ; 0.0
166 ; 1.6947105341095384E7 ; 2.0184632628876573E8 ; 3.026261465739237E9 ; 3.179013640908378E10 ; 0.0
167 ; 1.6904806375421345E7 ; 2.0185331499334502E8 ; 3.0432085710803323E9 ; 3.1991982735372543E10 ; 0.0
168 ; 1.687573342709673E7 ; 2.01860284730737E8 ; 3.060113377455754E9 ; 3.2193836050365887E10 ; 0.0
169 ; 1.6836275403226893E7 ; 2.0186723522675335E8 ; 3.0769891108828506E9 ; 3.2395696335096622E10 ; 0.0
170 ; 1.680567214271755E7 ; 2.0187416621045825E8 ; 3.0938253862860775E9 ; 3.2597563570323376E10 ; 0.0
171 ; 1.6768507862307534E7 ; 2.018810774141035E8 ; 3.110631058428795E9 ; 3.2799437736533833E10 ; 0.0
172 ; 1.6733090854909228E7 ; 2.0188796857306558E8 ; 3.1273995662911024E9 ; 3.3001318813947937E10 ; 0.0
173 ; 1.6697734633725941E7 ; 2.0189483942578465E8 ; 3.144132657146012E9 ; 3.3203206782521004E10 ; 0.0
174 ; 1.6668843183637353E7 ; 2.019E8 ; 3.160830391779738E9 ; 3.340510162194679E10 ; 0.0
175 ; 1.663979473878894E7 ; 2.019E8 ; 3.177499234963375E9 ; 3.360700162194679E10 ; 0.0
176 ; 1.6607667330978185E7 ; 2.019E8 ; 3.194139029702164E9 ; 3.380890162194679E10 ; 0.0
177 ; 1.6574355695986649E7 ; 2.019E8 ; 3.2107466970331426E9 ; 3.401080162194679E10 ; 0.0
178 ; 1.6545320734067718E7 ; 2.019E8 ; 3.2273210527291293E9 ; 3.421270162194679E10 ; 0.0
179 ; 1.6513992558830105E7 ; 2.019E8 ; 3.243866373463197E9 ; 3.441460162194679E10 ; 0.0
180 ; 1.6485053628812935E7 ; 2.019E8 ; 3.2603803660220275E9 ; 3.461650162194679E10 ; 0.0
181 ; 1.645563608442503E7 ; 2.019E8 ; 3.2768654196508403E9 ; 3.481840162194679E10 ; 0.0
182 ; 1.6424213626245337E7 ; 2.019E8 ; 3.2933210557352653E9 ; 3.502030162194679E10 ; 0.0
183 ; 1.6391632203273958E7 ; 2.019E8 ; 3.3097452693615108E9 ; 3.522220162194679E10 ; 0.0
184 ; 1.6367013040960902E7 ; 2.019E8 ; 3.3261369015647845E9 ; 3.542410162194679E10 ; 0.0
185 ; 1.6334178191282226E7 ; 2.019E8 ; 3.3425039146057453E9 ; 3.562600162194679E10 ; 0.0
186 ; 1.6307486877461063E7 ; 2.019E8 ; 3.3588380927970276E9 ; 3.582790162194679E10 ; 0.0
187 ; 1.6273880493260603E7 ; 2.019E8 ; 3.3751455796744885E9 ; 3.602980162194679E10 ; 0.0
188 ; 1.6241951692190157E7 ; 2.019E8 ; 3.391419460167749E9 ; 3.623170162194679E10 ; 0.0
189 ; 1.6209274944488177E7 ; 2.019E8 ; 3.407661411859939E9 ; 3.643360162194679E10 ; 0.0
190 ; 1.6179552222627703E7 ; 2.019E8 ; 3.423870686804427E9 ; 3.663550162194679E10 ; 0.0
191 ; 1.6148584132892128E7 ; 2.019E8 ; 3.440050239027055E9 ; 3.683740162194679E10 ; 0.0
192 ; 1.6119143685424037E7 ; 2.019E8 ; 3.456198823159947E9 ; 3.703930162194679E10 ; 0.0
193 ; 1.6090476903934926E7 ; 2.019E8 ; 3.472317966845371E9 ; 3.724120162194679E10 ; 0.0
194 ; 1.6058289328199925E7 ; 2.019E8 ; 3.4884084437493057E9 ; 3.744310162194679E10 ; 0.0
195 ; 1.6028075858530533E7 ; 2.019E8 ; 3.5044667330775056E9 ; 3.764500162194679E10 ; 0.0
196 ; 1.5995509887221824E7 ; 2.019E8 ; 3.520494808936036E9 ; 3.784690162194679E10 ; 0.0
197 ; 1.5968064117847946E7 ; 2.019E8 ; 3.536490318823258E9 ; 3.804880162194679E10 ; 0.0
198 ; 1.5933921534581631E7 ; 2.019E8 ; 3.552458382941106E9 ; 3.825070162194679E10 ; 0.0
