CSV File for the City 6 on Day 229
1 - Minute m 
2 - Power Consumed at minute m 
3 - Power Produced at minute m 
4 - Energy Consumed since the beginning of the day 
5 - Energy Produced since the beginning of the day 
6 - Energy Lost since the beginning of the day on lines starting from the city
 
0 ; 927367.5078779317 ; 1.0533384185517547E8 ; 0.0 ; 0.0 ; 0.0
1 ; 941401.0215371116 ; 1.0547706824482065E8 ; 927367.5078779317 ; 1.0533384185517547E8 ; 0.0
2 ; 955348.9321813091 ; 1.059294115882996E8 ; 1868768.5294150433 ; 2.1081091009999612E8 ; 0.0
3 ; 967434.2122165478 ; 1.066909803362909E8 ; 2824117.4615963525 ; 3.167403216882957E8 ; 0.0
4 ; 986079.8617538299 ; 1.0776190905845124E8 ; 3791551.6738129 ; 4.234313020245866E8 ; 0.0
5 ; 1008771.3180357214 ; 1.0914236183732253E8 ; 4777631.53556673 ; 5.3119321108303785E8 ; 0.0
6 ; 1035538.3368106522 ; 1.1083253259770659E8 ; 5786402.853602452 ; 6.403355729203603E8 ; 0.0
7 ; 1073303.2337935884 ; 1.128326390030185E8 ; 6821941.190413104 ; 7.511681055180669E8 ; 0.0
8 ; 1122913.203444151 ; 1.1514290597219592E8 ; 7895244.424206693 ; 8.640007445210854E8 ; 0.0
9 ; 1210277.0433580563 ; 1.177635368101669E8 ; 9018157.627650844 ; 9.791436504932814E8 ; 0.0
10 ; 1335942.1144326755 ; 1.2069467603849453E8 ; 1.02284346710089E7 ; 1.0969071873034482E9 ; 0.0
11 ; 1534825.2714865978 ; 1.2393637631633976E8 ; 1.1564376785441576E7 ; 1.2176018633419428E9 ; 0.0
12 ; 1849560.356297361 ; 1.2748858498454162E8 ; 1.3099202056928173E7 ; 1.3415382396582825E9 ; 0.0
13 ; 2157898.4754038416 ; 1.31351157521537E8 ; 1.4948762413225533E7 ; 1.4690268246428242E9 ; 0.0
14 ; 2195727.07600361 ; 1.3552389062239796E8 ; 1.7106660888629377E7 ; 1.6003779821643612E9 ; 0.0
15 ; 2212198.2564938213 ; 1.400065593681867E8 ; 1.9302387964632988E7 ; 1.7359018727867591E9 ; 0.0
16 ; 2225744.5224034884 ; 1.4479894609548828E8 ; 2.151458622112681E7 ; 1.8759084321549459E9 ; 0.0
17 ; 2245081.6984581207 ; 1.4990085687950078E8 ; 2.37403307435303E7 ; 2.0207073782504342E9 ; 0.0
18 ; 2260467.467480118 ; 1.5531212763768232E8 ; 2.598541244198842E7 ; 2.170608235129935E9 ; 0.0
19 ; 2277702.2300845636 ; 1.610326238003762E8 ; 2.824587990946854E7 ; 2.325920362767617E9 ; 0.0
20 ; 2289482.525978015 ; 1.6706223691690382E8 ; 3.0523582139553104E7 ; 2.4869529865679936E9 ; 0.0
21 ; 2310145.4797945498 ; 1.734008803140714E8 ; 3.2813064665531117E7 ; 2.6540152234848976E9 ; 0.0
22 ; 2324025.616178929 ; 1.8004848488498437E8 ; 3.512321014532567E7 ; 2.827416103798969E9 ; 0.0
23 ; 2337318.938793317 ; 1.8700499544218135E8 ; 3.74472357615046E7 ; 3.0074645886839533E9 ; 0.0
24 ; 2355955.750182593 ; 1.9427036773492235E8 ; 3.9784554700297914E7 ; 3.194469584126135E9 ; 0.0
25 ; 2373934.0479973867 ; 2.0053260698138288E8 ; 4.2140510450480506E7 ; 3.3887399518610573E9 ; 0.0
26 ; 2391708.314189657 ; 2.0054523205871317E8 ; 4.451444449847789E7 ; 3.58927255884244E9 ; 0.0
27 ; 2407726.01981873 ; 2.0055798859713313E8 ; 4.690615281266755E7 ; 3.789817790901153E9 ; 0.0
28 ; 2424496.7560112965 ; 2.0057085712067345E8 ; 4.931387883248628E7 ; 3.9903757794982862E9 ; 0.0
29 ; 2438379.649745899 ; 2.0058382148450154E8 ; 5.173837558849758E7 ; 4.19094663661896E9 ; 0.0
30 ; 2457522.7774620363 ; 2.0059686821042252E8 ; 5.4176755238243476E7 ; 4.391530458103461E9 ; 0.0
31 ; 2471097.9013598072 ; 2.0060998596864155E8 ; 5.663427801570551E7 ; 4.592127326313884E9 ; 0.0
32 ; 2485270.126324414 ; 2.006231651714251E8 ; 5.9105375917065315E7 ; 4.792737312282525E9 ; 0.0
33 ; 2500196.6731577604 ; 2.0063639765264013E8 ; 6.159064604338973E7 ; 4.99336047745395E9 ; 0.0
34 ; 2515568.6418406214 ; 2.0064967641348648E8 ; 6.409084271654749E7 ; 5.19399687510659E9 ; 0.0
35 ; 2526273.292123031 ; 2.006629954195099E8 ; 6.660641135838811E7 ; 5.394646551520077E9 ; 0.0
36 ; 2542938.201530028 ; 2.0067634943756074E8 ; 6.913268465051115E7 ; 5.595309546939587E9 ; 0.0
37 ; 2553882.5196158383 ; 2.0068973390404975E8 ; 7.167562285204117E7 ; 5.795985896377148E9 ; 0.0
38 ; 2570357.7995782723 ; 2.007031448178673E8 ; 7.422950537165701E7 ; 5.996675630281198E9 ; 0.0
39 ; 2584603.2701861085 ; 2.0071657865285322E8 ; 7.67998631712353E7 ; 6.197378775099065E9 ; 0.0
40 ; 2592302.9364005267 ; 2.0073003228585348E8 ; 7.93844664414214E7 ; 6.398095353751918E9 ; 0.0
41 ; 2606552.593083829 ; 2.0074350293727475E8 ; 8.197676937782194E7 ; 6.598825386037771E9 ; 0.0
42 ; 2613055.372596349 ; 2.007569881217149E8 ; 8.458332197090577E7 ; 6.799568888975046E9 ; 0.0
43 ; 2627629.460562325 ; 2.0077048560676125E8 ; 8.719637734350212E7 ; 7.000325877096761E9 ; 0.0
44 ; 2640085.784733942 ; 2.0078399337844366E8 ; 8.982400680406444E7 ; 7.201096362703522E9 ; 0.0
45 ; 2645585.471526879 ; 2.007975096121372E8 ; 9.246409258879837E7 ; 7.401880356081965E9 ; 0.0
46 ; 2660134.9255880644 ; 2.0081103264794916E8 ; 9.510967806032525E7 ; 7.602677865694102E9 ; 0.0
47 ; 2664237.0871359394 ; 2.008245609698136E8 ; 9.776981298591332E7 ; 7.8034888983420515E9 ; 0.0
48 ; 2673597.1124729803 ; 2.008380931876642E8 ; 1.0043405007304926E8 ; 8.004313459311865E9 ; 0.0
49 ; 2678483.52856256 ; 2.0085162802217495E8 ; 1.0310764718552224E8 ; 8.205151552499529E9 ; 0.0
50 ; 2689112.6430790606 ; 2.0086516429165104E8 ; 1.057861307140848E8 ; 8.406003180521704E9 ; 0.0
51 ; 2693884.4203150226 ; 2.008787009007281E8 ; 1.0847524335716386E8 ; 8.606868344813354E9 ; 0.0
52 ; 2701728.1618071017 ; 2.008922368305975E8 ; 1.1116912777747889E8 ; 8.807747045714083E9 ; 0.0
53 ; 2707787.0074423836 ; 2.0090577113052452E8 ; 1.13870855939286E8 ; 9.00863928254468E9 ; 0.0
54 ; 2711879.522348444 ; 2.0091930291046613E8 ; 1.1657864294672838E8 ; 9.209545053675203E9 ; 0.0
55 ; 2721511.5127968993 ; 2.009328313346265E8 ; 1.1929052246907683E8 ; 9.410464356585669E9 ; 0.0
56 ; 2727681.064031107 ; 2.0094635561581516E8 ; 1.2201203398187372E8 ; 9.611397187920296E9 ; 0.0
57 ; 2731963.875766486 ; 2.009598750104947E8 ; 1.2473971504590483E8 ; 9.81234354353611E9 ; 0.0
58 ; 2739577.929401368 ; 2.0097338881442198E8 ; 1.2747167892167132E8 ; 1.0013303418546604E10 ; 0.0
59 ; 2745567.763190157 ; 2.0098689635880223E8 ; 1.3021125685107268E8 ; 1.0214276807361027E10 ; 0.0
60 ; 2749843.3612094014 ; 2.0100039700688747E8 ; 1.3295682461426283E8 ; 1.041526370371983E10 ; 0.0
61 ; 2755120.4786799573 ; 2.0101389015096086E8 ; 1.3570666797547224E8 ; 1.0616264100726717E10 ; 0.0
62 ; 2767450.574658107 ; 2.0102737520965707E8 ; 1.384617884541522E8 ; 1.0817277990877678E10 ; 0.0
63 ; 2768883.4843029873 ; 2.0104085162557626E8 ; 1.412292390288103E8 ; 1.1018305366087336E10 ; 0.0
64 ; 2771633.046093646 ; 2.010543188631548E8 ; 1.439981225131133E8 ; 1.1219346217712912E10 ; 0.0
65 ; 2782801.922534081 ; 2.0106777640676162E8 ; 1.4676975555920693E8 ; 1.1420400536576067E10 ; 0.0
66 ; 2784897.592060703 ; 2.010812237589927E8 ; 1.49552557481741E8 ; 1.1621468312982828E10 ; 0.0
67 ; 2791161.3310157363 ; 2.010946604391401E8 ; 1.5233745507380173E8 ; 1.1822549536741821E10 ; 0.0
68 ; 2799171.2262631175 ; 2.011080859818158E8 ; 1.5512861640481746E8 ; 1.2023644197180962E10 ; 0.0
69 ; 2803322.3875305164 ; 2.0112149993571138E8 ; 1.5792778763108057E8 ; 1.2224752283162777E10 ; 0.0
70 ; 2808214.7856560447 ; 2.0113490186247984E8 ; 1.6073111001861107E8 ; 1.2425873783098488E10 ; 0.0
71 ; 2812861.758972681 ; 2.011482913357242E8 ; 1.635393248042671E8 ; 1.2627008684960968E10 ; 0.0
72 ; 2814539.844018638 ; 2.011616679400825E8 ; 1.6635218656323978E8 ; 1.2828156976296692E10 ; 0.0
73 ; 2821434.1568706627 ; 2.01175031270398E8 ; 1.6916672640725842E8 ; 1.3029318644236774E10 ; 0.0
74 ; 2827358.294101 ; 2.0118838093096608E8 ; 1.7198816056412908E8 ; 1.3230493675507172E10 ; 0.0
75 ; 2831779.7265453734 ; 2.0120171653484938E8 ; 1.7481551885823008E8 ; 1.3431682056438137E10 ; 0.0
76 ; 2837730.663896004 ; 2.012150377032541E8 ; 1.7764729858477545E8 ; 1.3632883772972986E10 ; 0.0
77 ; 2843503.208303055 ; 2.0122834406496173E8 ; 1.8048502924867144E8 ; 1.383409881067624E10 ; 0.0
78 ; 2842620.9180019978 ; 2.0124163525580993E8 ; 1.833285324569745E8 ; 1.4035327154741203E10 ; 0.0
79 ; 2843862.5559522174 ; 2.0125491091821843E8 ; 1.8617115337497652E8 ; 1.4236568789997013E10 ; 0.0
80 ; 2845088.5762176495 ; 2.0126817070075488E8 ; 1.8901501593092874E8 ; 1.4437823700915232E10 ; 0.0
81 ; 2847596.3382580583 ; 2.0128141425773722E8 ; 1.918601045071464E8 ; 1.4639091871615986E10 ; 0.0
82 ; 2848836.7136569093 ; 2.0129464124886897E8 ; 1.9470770084540445E8 ; 1.4840373285873724E10 ; 0.0
83 ; 2844590.4019508525 ; 2.0130785133890426E8 ; 1.9755653755906135E8 ; 1.5041667927122593E10 ; 0.0
84 ; 2848208.031739282 ; 2.0132104419734007E8 ; 2.004011279610122E8 ; 1.5242975778461496E10 ; 0.0
85 ; 2846166.991294169 ; 2.013342194981329E8 ; 2.032493359927515E8 ; 1.5444296822658836E10 ; 0.0
86 ; 2848751.955867733 ; 2.0134737691943797E8 ; 2.0609550298404568E8 ; 1.564563104215697E10 ; 0.0
87 ; 2846817.848664697 ; 2.013605161433685E8 ; 2.0894425493991342E8 ; 1.5846978419076406E10 ; 0.0
88 ; 2849432.3246600125 ; 2.0137363685577396E8 ; 2.1179107278857812E8 ; 1.6048338935219774E10 ; 0.0
89 ; 2847985.158814413 ; 2.0138673874603486E8 ; 2.1464050511323813E8 ; 1.6249712572075548E10 ; 0.0
90 ; 2845622.3209491973 ; 2.0139982150687343E8 ; 2.1748849027205253E8 ; 1.6451099310821583E10 ; 0.0
91 ; 2846497.4076608582 ; 2.014128848341781E8 ; 2.2033411259300172E8 ; 1.6652499132328457E10 ; 0.0
92 ; 2846056.3802671 ; 2.0142592842684123E8 ; 2.231806100006626E8 ; 1.6853912017162636E10 ; 0.0
93 ; 2845723.5743905436 ; 2.0143895198660865E8 ; 2.260266663809297E8 ; 1.7055337945589478E10 ; 0.0
94 ; 2846445.8991775634 ; 2.0145195521794018E8 ; 2.2887238995532024E8 ; 1.7256776897576088E10 ; 0.0
95 ; 2846836.142574279 ; 2.014649378278801E8 ; 2.317188358544978E8 ; 1.745822885279403E10 ; 0.0
96 ; 2842910.1544816224 ; 2.014778995259369E8 ; 2.3456567199707207E8 ; 1.765969379062191E10 ; 0.0
97 ; 2840716.5218865634 ; 2.014908400239716E8 ; 2.374085821515537E8 ; 1.7861171690147846E10 ; 0.0
98 ; 2846191.350473456 ; 2.0150375903609374E8 ; 2.4024929867344025E8 ; 1.8062662530171818E10 ; 0.0
99 ; 2841592.9373364155 ; 2.0151665627856493E8 ; 2.430954900239137E8 ; 1.8264166289207912E10 ; 0.0
100 ; 2843460.2767715887 ; 2.015295314697085E8 ; 2.4593708296125013E8 ; 1.8465682945486477E10 ; 0.0
101 ; 2839713.697473742 ; 2.0154238432982606E8 ; 2.487805432380217E8 ; 1.8667212476956184E10 ; 0.0
102 ; 2839970.182757578 ; 2.0155521458111903E8 ; 2.5162025693549544E8 ; 1.886875486128601E10 ; 0.0
103 ; 2834163.423844357 ; 2.0156802194761592E8 ; 2.5446022711825302E8 ; 1.907031007586713E10 ; 0.0
104 ; 2834607.202876724 ; 2.0158080615510437E8 ; 2.572943905420974E8 ; 1.9271878097814747E10 ; 0.0
105 ; 2834625.053039991 ; 2.015935669310677E8 ; 2.601289977449741E8 ; 1.9473458903969852E10 ; 0.0
106 ; 2829304.047875818 ; 2.0160630400462568E8 ; 2.629636227980141E8 ; 1.967505247090092E10 ; 0.0
107 ; 2833765.4799298644 ; 2.0161901710647905E8 ; 2.6579292684588993E8 ; 1.987665877490555E10 ; 0.0
108 ; 2830188.259527555 ; 2.0163170596885803E8 ; 2.686266923258198E8 ; 2.0078277792012028E10 ; 0.0
109 ; 2829407.8197919335 ; 2.0164437032547387E8 ; 2.7145688058534735E8 ; 2.0279909497980885E10 ; 0.0
110 ; 2827729.21610418 ; 2.0165700991147366E8 ; 2.7428628840513927E8 ; 2.048155386830636E10 ; 0.0
111 ; 2823654.7998442193 ; 2.0166962446339807E8 ; 2.771140176212435E8 ; 2.068321087821783E10 ; 0.0
112 ; 2824447.8379249186 ; 2.016822137191418E8 ; 2.799376724210877E8 ; 2.088488050268123E10 ; 0.0
113 ; 2821917.7990539046 ; 2.0169477741791654E8 ; 2.827621202590126E8 ; 2.108656271640037E10 ; 0.0
114 ; 2819868.3266815315 ; 2.0170731530021632E8 ; 2.855840380580665E8 ; 2.1288257493818287E10 ; 0.0
115 ; 2817721.9398306897 ; 2.0171982710778522E8 ; 2.8840390638474804E8 ; 2.1489964809118504E10 ; 0.0
116 ; 2815512.293577338 ; 2.0173231258358678E8 ; 2.912216283245787E8 ; 2.1691684636226288E10 ; 0.0
117 ; 2812670.25414742 ; 2.017447714717757E8 ; 2.94037140618156E8 ; 2.1893416948809875E10 ; 0.0
118 ; 2810204.404594097 ; 2.0175720351767132E8 ; 2.968498108723034E8 ; 2.209516172028165E10 ; 0.0
119 ; 2806790.6779312603 ; 2.0176960846773243E8 ; 2.9966001527689755E8 ; 2.229691892379932E10 ; 0.0
120 ; 2806569.348568611 ; 2.017819860695341E8 ; 3.024668059548288E8 ; 2.249868853226705E10 ; 0.0
121 ; 2803096.648785417 ; 2.0179433607174584E8 ; 3.052733753033974E8 ; 2.2700470518336586E10 ; 0.0
122 ; 2801194.838732089 ; 2.0180665822411102E8 ; 3.080764719521828E8 ; 2.2902264854408333E10 ; 0.0
123 ; 2796323.0815428724 ; 2.018189522774278E8 ; 3.108776667909149E8 ; 2.3104071512632442E10 ; 0.0
124 ; 2794896.3106868924 ; 2.018312179835311E8 ; 3.1367398987245774E8 ; 2.330589046490987E10 ; 0.0
125 ; 2788349.6196142235 ; 2.0184345509527588E8 ; 3.164688861831446E8 ; 2.3507721682893402E10 ; 0.0
126 ; 2784968.983376006 ; 2.0185566336652145E8 ; 3.192572358027589E8 ; 2.3709565137988678E10 ; 0.0
127 ; 2784529.244832523 ; 2.0186784255211672E8 ; 3.220422047861349E8 ; 2.3911420801355198E10 ; 0.0
128 ; 2779562.3437843546 ; 2.0187999240788648E8 ; 3.248267340309674E8 ; 2.4113288643907314E10 ; 0.0
129 ; 2780845.974468091 ; 2.0189211269061857E8 ; 3.2760629637475175E8 ; 2.43151686363152E10 ; 0.0
130 ; 2774575.496287543 ; 2.0190420315805197E8 ; 3.3038714234921986E8 ; 2.451706074900582E10 ; 0.0
131 ; 2764160.0576281277 ; 2.0191626356886542E8 ; 3.331617178455074E8 ; 2.471896495216387E10 ; 0.0
132 ; 2759779.056511594 ; 2.019282936826672E8 ; 3.3592587790313554E8 ; 2.492088121573274E10 ; 0.0
133 ; 2752890.2471625125 ; 2.0194029325998527E8 ; 3.386856569596471E8 ; 2.5122809509415405E10 ; 0.0
134 ; 2741032.0693670223 ; 2.0195226206225815E8 ; 3.4143854720680964E8 ; 2.5324749802675392E10 ; 0.0
135 ; 2734801.5932468385 ; 2.0196419985182667E8 ; 3.441795792761767E8 ; 2.552670206473765E10 ; 0.0
136 ; 2726182.2764259544 ; 2.0197610639192602E8 ; 3.469143808694235E8 ; 2.5728666264589478E10 ; 0.0
137 ; 2720603.893451003 ; 2.0198798144667837E8 ; 3.4964056314584947E8 ; 2.5930642370981403E10 ; 0.0
138 ; 2712839.3546808893 ; 2.0199982478108636E8 ; 3.5236116703930044E8 ; 2.613263035242808E10 ; 0.0
139 ; 2703127.890493203 ; 2.0201163616102663E8 ; 3.5507400639398134E8 ; 2.6334630177209167E10 ; 0.0
140 ; 2697192.915429349 ; 2.0202341535324413E8 ; 3.5777713428447455E8 ; 2.6536641813370193E10 ; 0.0
141 ; 2688647.4295093673 ; 2.020351621253469E8 ; 3.604743271999039E8 ; 2.673866522872344E10 ; 0.0
142 ; 2677938.2704588436 ; 2.020468762458009E8 ; 3.6316297462941325E8 ; 2.6940700390848785E10 ; 0.0
143 ; 2670571.993997889 ; 2.0205855748392582E8 ; 3.6584091289987206E8 ; 2.7142747267094585E10 ; 0.0
144 ; 2662639.4115455598 ; 2.0207020560989067E8 ; 3.6851148489386994E8 ; 2.734480582457851E10 ; 0.0
145 ; 2658559.369278493 ; 2.020818203947102E8 ; 3.711741243054155E8 ; 2.75468760301884E10 ; 0.0
146 ; 2657563.11680312 ; 2.0209340161024147E8 ; 3.73832683674694E8 ; 2.774895785058311E10 ; 0.0
147 ; 2654290.5752124595 ; 2.0210494902918056E8 ; 3.764902467914971E8 ; 2.795105125219335E10 ; 0.0
148 ; 2651873.316049354 ; 2.0211646242505994E8 ; 3.791445373667096E8 ; 2.8153156201222534E10 ; 0.0
149 ; 2646733.410533065 ; 2.02127941572246E8 ; 3.817964106827589E8 ; 2.8355272663647594E10 ; 0.0
150 ; 2641828.862244829 ; 2.0213938624593657E8 ; 3.84443144093292E8 ; 2.855740060521984E10 ; 0.0
151 ; 2639290.3300419925 ; 2.0215079622215924E8 ; 3.8708497295553684E8 ; 2.875953999146578E10 ; 0.0
152 ; 2636833.6622529244 ; 2.0216217127776933E8 ; 3.8972426328557885E8 ; 2.896169078768794E10 ; 0.0
153 ; 2634999.495233546 ; 2.0217351119044867E8 ; 3.9236109694783175E8 ; 2.916385295896571E10 ; 0.0
154 ; 2629556.682728661 ; 2.021848157387041E8 ; 3.949960964430653E8 ; 2.936602647015616E10 ; 0.0
155 ; 2623670.912028987 ; 2.021960847018665E8 ; 3.9762565312579393E8 ; 2.9568211285894863E10 ; 0.0
156 ; 2622404.4987985264 ; 2.0220731786008993E8 ; 4.002493240378229E8 ; 2.977040737059673E10 ; 0.0
157 ; 2618762.8399708294 ; 2.0221851499435088E8 ; 4.0287172853662145E8 ; 2.9972614688456818E10 ; 0.0
158 ; 2615013.546420196 ; 2.0222967588644788E8 ; 4.054904913765923E8 ; 3.0174833203451168E10 ; 0.0
159 ; 2607890.4263703832 ; 2.0224080031900105E8 ; 4.081055049230125E8 ; 3.0377062879337616E10 ; 0.0
160 ; 2605759.3456457076 ; 2.02251888075452E8 ; 4.107133953493829E8 ; 3.0579303679656616E10 ; 0.0
161 ; 2603525.187560958 ; 2.022629389400638E8 ; 4.133191546950286E8 ; 3.0781555567732067E10 ; 0.0
162 ; 2599641.149115622 ; 2.0227395269792113E8 ; 4.159226798825896E8 ; 3.098381850667213E10 ; 0.0
163 ; 2597170.444498894 ; 2.0228492913493046E8 ; 4.185223210317052E8 ; 3.1186092459370052E10 ; 0.0
164 ; 2593412.914675745 ; 2.022958680378206E8 ; 4.211194914762041E8 ; 3.1388377388504982E10 ; 0.0
165 ; 2587834.9107506517 ; 2.0230676919414312E8 ; 4.2371290439087987E8 ; 3.15906732565428E10 ; 0.0
166 ; 2582830.8257380812 ; 2.0231763239227298E8 ; 4.263007393016305E8 ; 3.1792980025736942E10 ; 0.0
167 ; 2580816.544762043 ; 2.0232845742140943E8 ; 4.2888357012736857E8 ; 3.1995297658129215E10 ; 0.0
168 ; 2575201.8210908 ; 2.0233924407157663E8 ; 4.314643866721306E8 ; 3.2197626115550625E10 ; 0.0
169 ; 2575162.67193597 ; 2.023499921336249E8 ; 4.340395884932214E8 ; 3.23999653596222E10 ; 0.0
170 ; 2568142.575568741 ; 2.0236070139923158E8 ; 4.366147511651574E8 ; 3.2602315351755825E10 ; 0.0
171 ; 2563209.8694720846 ; 2.0237137166090226E8 ; 4.391828937407261E8 ; 3.2804676053155056E10 ; 0.0
172 ; 2560667.95334057 ; 2.0238200271197203E8 ; 4.417461036101982E8 ; 3.300704742481596E10 ; 0.0
173 ; 2557496.7821236276 ; 2.023925943466068E8 ; 4.443067715635388E8 ; 3.320942942752793E10 ; 0.0
174 ; 2557972.5634024437 ; 2.0240314635980463E8 ; 4.468642683456624E8 ; 3.341182202187454E10 ; 0.0
175 ; 2557092.600653934 ; 2.0241365854739735E8 ; 4.494222409090648E8 ; 3.3614225168234344E10 ; 0.0
176 ; 2548911.285131277 ; 2.02424130706052E8 ; 4.519793335097188E8 ; 3.3816638826781742E10 ; 0.0
177 ; 2548355.9461880885 ; 2.024345626332725E8 ; 4.5452824479485005E8 ; 3.4019062957487793E10 ; 0.0
178 ; 2544279.1668774816 ; 2.0244495412740132E8 ; 4.5707660074103814E8 ; 3.4221497520121067E10 ; 0.0
179 ; 2542337.883079549 ; 2.024553049876212E8 ; 4.5962087990791565E8 ; 3.442394247424847E10 ; 0.0
180 ; 2541219.4980423115 ; 2.0246561501395693E8 ; 4.621632177909952E8 ; 3.4626397779236084E10 ; 0.0
181 ; 2533621.583446309 ; 2.024758840072773E8 ; 4.6470443728903747E8 ; 3.482886339425004E10 ; 0.0
182 ; 2532906.6826265375 ; 2.0248611176929688E8 ; 4.672380588724838E8 ; 3.503133927825732E10 ; 0.0
183 ; 2530883.2571636243 ; 2.0249629810257813E8 ; 4.6977096555511034E8 ; 3.523382539002661E10 ; 0.0
184 ; 2530305.0581160286 ; 2.0250644281053317E8 ; 4.72301848812274E8 ; 3.543632168812919E10 ; 0.0
185 ; 2528145.1132607325 ; 2.0251654569742605E8 ; 4.7483215387039E8 ; 3.563882813093972E10 ; 0.0
186 ; 2525076.662831324 ; 2.0252660656837472E8 ; 4.7736029898365074E8 ; 3.5841344676637146E10 ; 0.0
187 ; 2522670.0390054695 ; 2.0253662522935316E8 ; 4.7988537564648205E8 ; 3.604387128320552E10 ; 0.0
188 ; 2521380.6204785905 ; 2.0254660148719352E8 ; 4.824080456854875E8 ; 3.6246407908434875E10 ; 0.0
189 ; 2516669.910975411 ; 2.025565351495884E8 ; 4.849294263059661E8 ; 3.6448954509922066E10 ; 0.0
190 ; 2515118.8653679634 ; 2.0256642602509302E8 ; 4.874460962169415E8 ; 3.6651511045071655E10 ; 0.0
191 ; 2510332.8809483554 ; 2.025762739231274E8 ; 4.899612150823094E8 ; 3.685407747109675E10 ; 0.0
192 ; 2510100.528487318 ; 2.0258607865397885E8 ; 4.924715479632578E8 ; 3.7056653745019875E10 ; 0.0
193 ; 2504381.4691580534 ; 2.0259584002880403E8 ; 4.949816484917451E8 ; 3.725923982367385E10 ; 0.0
194 ; 2506247.4630429633 ; 2.0260555785963148E8 ; 4.9748602996090317E8 ; 3.746183566370265E10 ; 0.0
195 ; 2501423.401812934 ; 2.0261523195936388E8 ; 4.9999227742394614E8 ; 3.766444122156229E10 ; 0.0
196 ; 2499805.8192516826 ; 2.0262486214178053E8 ; 5.0249370082575905E8 ; 3.786705645352165E10 ; 0.0
197 ; 2501083.4194736956 ; 2.0263444822153965E8 ; 5.049935066450107E8 ; 3.806968131566343E10 ; 0.0
198 ; 2496980.2952531073 ; 2.0264399001418084E8 ; 5.074945900644844E8 ; 3.827231576388497E10 ; 0.0
199 ; 2491748.206783629 ; 2.0265348733612755E8 ; 5.099915703597375E8 ; 3.8474959753899155E10 ; 0.0
200 ; 2490883.4407282798 ; 2.0266294000468954E8 ; 5.1248331856652117E8 ; 3.867761324123528E10 ; 0.0
