CSV File for the City 6 on Day 86
1 - Minute m 
2 - Power Consumed at minute m 
3 - Power Produced at minute m 
4 - Energy Consumed since the beginning of the day 
5 - Energy Produced since the beginning of the day 
6 - Energy Lost since the beginning of the day on lines starting from the city
 
0 ; 1.1174809723275019E7 ; 1.0607117725864038E8 ; 0.0 ; 0.0 ; 0.0
1 ; 1.1184794427068615E7 ; 1.0622205374997056E8 ; 1.1174809723275019E7 ; 1.0607117725864038E8 ; 0.0
2 ; 1.1196576303443622E7 ; 1.0668192295343122E8 ; 2.2359604150343634E7 ; 2.1229323100861093E8 ; 0.0
3 ; 1.121203666539352E7 ; 1.0745078872049707E8 ; 3.355618045378725E7 ; 3.1897515396204215E8 ; 0.0
4 ; 1.1227260130226258E7 ; 1.0852865450480944E8 ; 4.476821711918077E7 ; 4.264259426825392E8 ; 0.0
5 ; 1.1247858799510295E7 ; 1.0991552334235632E8 ; 5.599547724940702E7 ; 5.3495459718734866E8 ; 0.0
6 ; 1.1278101215586277E7 ; 1.1161139783370277E8 ; 6.724333604891732E7 ; 6.44870120529705E8 ; 0.0
7 ; 1.1312197291525198E7 ; 1.1361628012851125E8 ; 7.85214372645036E7 ; 7.564815183634079E8 ; 0.0
8 ; 1.1367670586952023E7 ; 1.15930171912565E8 ; 8.98336345560288E7 ; 8.70097798491919E8 ; 0.0
9 ; 1.1447889436614063E7 ; 1.1855307439747632E8 ; 1.0120130514298081E8 ; 9.86027970404484E8 ; 0.0
10 ; 1.1572104006855587E7 ; 1.2148498831322706E8 ; 1.1264919457959488E8 ; 1.1045810448019605E9 ; 0.0
11 ; 1.1768152881365312E7 ; 1.2472591390364918E8 ; 1.2422129858645047E8 ; 1.2260660331151876E9 ; 0.0
12 ; 1.2084695291553816E7 ; 1.282758509249107E8 ; 1.359894514678158E8 ; 1.3507919470188367E9 ; 0.0
13 ; 1.2390223914868182E7 ; 1.3213479864702976E8 ; 1.480741467593696E8 ; 1.4790677979437475E9 ; 0.0
14 ; 1.2425366485691728E7 ; 1.3630275585839415E8 ; 1.604643706742378E8 ; 1.6112025965907774E9 ; 0.0
15 ; 1.2438095908183668E7 ; 1.407797208732205E8 ; 1.728897371599295E8 ; 1.7475053524491715E9 ; 0.0
16 ; 1.245469301842215E7 ; 1.4556569154184648E8 ; 1.8532783306811318E8 ; 1.888285073322392E9 ; 0.0
17 ; 1.2471107047683623E7 ; 1.5066066526370695E8 ; 1.9778252608653533E8 ; 2.0338507648642385E9 ; 0.0
18 ; 1.248429277705714E7 ; 1.5606463900281394E8 ; 2.1025363313421896E8 ; 2.1845114301279454E9 ; 0.0
19 ; 1.24976315025839E7 ; 1.617776093055261E8 ; 2.227379259112761E8 ; 2.3405760691307592E9 ; 0.0
20 ; 1.251280502647186E7 ; 1.6779957232036874E8 ; 2.3523555741386E8 ; 2.5023536784362855E9 ; 0.0
21 ; 1.252946436951018E7 ; 1.7413052381964585E8 ; 2.4774836244033185E8 ; 2.6701532507566543E9 ; 0.0
22 ; 1.2542774754762998E7 ; 1.8077045922257078E8 ; 2.6027782680984202E8 ; 2.8442837745763E9 ; 0.0
23 ; 1.2557118477864087E7 ; 1.8771937361963397E8 ; 2.72820601564605E8 ; 3.025054233798871E9 ; 0.0
24 ; 1.2569998216495175E7 ; 1.9497726179792392E8 ; 2.853777200424691E8 ; 3.212773607418505E9 ; 0.0
25 ; 1.2584409178812575E7 ; 2.0123215916530386E8 ; 2.9794771825896424E8 ; 3.407750869216429E9 ; 0.0
26 ; 1.2598395836847214E7 ; 2.0123760781369853E8 ; 3.105321274377768E8 ; 3.608983028381733E9 ; 0.0
27 ; 1.261248121572941E7 ; 2.0124337107052678E8 ; 3.23130523274624E8 ; 3.8102206361954317E9 ; 0.0
28 ; 1.2626024730401427E7 ; 2.0124944277189514E8 ; 3.357430044903534E8 ; 4.0114640072659583E9 ; 0.0
29 ; 1.264231980292631E7 ; 2.012558165819308E8 ; 3.4836902922075486E8 ; 4.2127134500378532E9 ; 0.0
30 ; 1.2654329286127692E7 ; 2.0126248601833072E8 ; 3.6101134902368116E8 ; 4.413969266619784E9 ; 0.0
31 ; 1.2668336192575835E7 ; 2.0126944447719112E8 ; 3.7366567830980885E8 ; 4.615231752638115E9 ; 0.0
32 ; 1.2685596692049008E7 ; 2.0127668525695863E8 ; 3.8633401450238466E8 ; 4.816501197115306E9 ; 0.0
33 ; 1.2695538564582046E7 ; 2.012842015813704E8 ; 3.990196111944337E8 ; 5.017777882372265E9 ; 0.0
34 ; 1.2706830445192503E7 ; 2.012919866212733E8 ; 4.1171514975901574E8 ; 5.219062083953635E9 ; 0.0
35 ; 1.2720811175246764E7 ; 2.01300033515236E8 ; 4.2442198020420825E8 ; 5.420354070574908E9 ; 0.0
36 ; 1.2731910404556533E7 ; 2.0130833538888997E8 ; 4.3714279137945503E8 ; 5.621654104090144E9 ; 0.0
37 ; 1.2740863715669924E7 ; 2.0131688537295628E8 ; 4.4987470178401154E8 ; 5.822962439479034E9 ; 0.0
38 ; 1.2752584732466046E7 ; 2.013256766199337E8 ; 4.626155654996815E8 ; 6.024279324851991E9 ; 0.0
39 ; 1.2763259560460474E7 ; 2.0133470231944102E8 ; 4.753681502321475E8 ; 6.225605001471925E9 ; 0.0
40 ; 1.2769882633237144E7 ; 2.0134395571222234E8 ; 4.8813140979260796E8 ; 6.426939703791366E9 ; 0.0
41 ; 1.2784634543445317E7 ; 2.0135343010283616E8 ; 5.009012924258451E8 ; 6.628283659503588E9 ; 0.0
42 ; 1.2788705468996173E7 ; 2.013631188710619E8 ; 5.136859269692904E8 ; 6.829637089606424E9 ; 0.0
43 ; 1.2802180558878543E7 ; 2.013730154820656E8 ; 5.2647463243828654E8 ; 7.031000208477487E9 ; 0.0
44 ; 1.2804971027006E7 ; 2.0138311349537563E8 ; 5.392768129971651E8 ; 7.232373223959552E9 ; 0.0
45 ; 1.2818102300916305E7 ; 2.0139340657272393E8 ; 5.520817840241711E8 ; 7.433756337454927E9 ; 0.0
46 ; 1.2818771163162235E7 ; 2.0140388848481336E8 ; 5.648998863250874E8 ; 7.635149744027652E9 ; 0.0
47 ; 1.2827144966925146E7 ; 2.0141455311707565E8 ; 5.777186574882497E8 ; 7.8365536325124655E9 ; 0.0
48 ; 1.283106008061646E7 ; 2.0142539447448453E8 ; 5.905458024551748E8 ; 8.037968185629541E9 ; 0.0
49 ; 1.2839724564912634E7 ; 2.014364066854912E8 ; 6.033768625357913E8 ; 8.239393580104026E9 ; 0.0
50 ; 1.2840023249310477E7 ; 2.014475840051483E8 ; 6.16216587100704E8 ; 8.440829986789517E9 ; 0.0
51 ; 1.2845385762867251E7 ; 2.0145892081748727E8 ; 6.290566103500144E8 ; 8.642277570794666E9 ; 0.0
52 ; 1.285318830517048E7 ; 2.0147041163721398E8 ; 6.419019961128817E8 ; 8.843736491612154E9 ; 0.0
53 ; 1.2852949108910877E7 ; 2.014820511107832E8 ; 6.547551844180522E8 ; 9.045206903249369E9 ; 0.0
54 ; 1.2858471357599972E7 ; 2.014938340169124E8 ; 6.676081335269631E8 ; 9.246688954360151E9 ; 0.0
55 ; 1.2863702876913186E7 ; 2.0150575526659083E8 ; 6.804666048845631E8 ; 9.448182788377064E9 ; 0.0
56 ; 1.286466150552838E7 ; 2.0151780990263718E8 ; 6.933303077614763E8 ; 9.649688543643654E9 ; 0.0
57 ; 1.286734930837413E7 ; 2.0152999309885702E8 ; 7.061949692670046E8 ; 9.851206353546291E9 ; 0.0
58 ; 1.2870781763208462E7 ; 2.0154230015884647E8 ; 7.190623185753788E8 ; 1.005273634664515E10 ; 0.0
59 ; 1.2872898493278408E7 ; 2.0155472651448646E8 ; 7.319331003385873E8 ; 1.0254278646803995E10 ; 0.0
60 ; 1.2877349079806475E7 ; 2.0156726772416803E8 ; 7.448059988318657E8 ; 1.0455833373318481E10 ; 0.0
61 ; 1.2882113077178832E7 ; 2.0157991947078633E8 ; 7.576833479116721E8 ; 1.065740064104265E10 ; 0.0
62 ; 1.2886684242803996E7 ; 2.0159267755953777E8 ; 7.70565460988851E8 ; 1.0858980560513437E10 ; 0.0
63 ; 1.2884494731197817E7 ; 2.0160553791555184E8 ; 7.83452145231655E8 ; 1.1060573238072975E10 ; 0.0
64 ; 1.2890950766206553E7 ; 2.0161849658138618E8 ; 7.963366399628528E8 ; 1.1262178775988527E10 ; 0.0
65 ; 1.2890814822927877E7 ; 2.0163154971441105E8 ; 8.092275907290593E8 ; 1.1463797272569914E10 ; 0.0
66 ; 1.2893931496868858E7 ; 2.016446935841065E8 ; 8.221184055519872E8 ; 1.1665428822284325E10 ; 0.0
67 ; 1.2892827239374444E7 ; 2.016579245692935E8 ; 8.35012337048856E8 ; 1.1867073515868431E10 ; 0.0
68 ; 1.2901779855932541E7 ; 2.0167123915531763E8 ; 8.479051642882304E8 ; 1.2068731440437725E10 ; 0.0
69 ; 1.2901959064016467E7 ; 2.0168463393120265E8 ; 8.60806944144163E8 ; 1.2270402679593042E10 ; 0.0
70 ; 1.2901140536360232E7 ; 2.0169810558678818E8 ; 8.737089032081795E8 ; 1.2472087313524244E10 ; 0.0
71 ; 1.2905448853436926E7 ; 2.0171165090986526E8 ; 8.866100437445397E8 ; 1.2673785419111032E10 ; 0.0
72 ; 1.2905068866954122E7 ; 2.0172526678332105E8 ; 8.995154925979767E8 ; 1.2875497070020897E10 ; 0.0
73 ; 1.2908414360438531E7 ; 2.017389501823027E8 ; 9.124205614649308E8 ; 1.3077222336804218E10 ; 0.0
74 ; 1.2910445494206715E7 ; 2.0175269817140922E8 ; 9.253289758253694E8 ; 1.327896128698652E10 ; 0.0
75 ; 1.2907148428780729E7 ; 2.0176650790191898E8 ; 9.38239421319576E8 ; 1.348071398515793E10 ; 0.0
76 ; 1.2915011209398802E7 ; 2.0178037660905904E8 ; 9.511465697483567E8 ; 1.3682480493059849E10 ; 0.0
77 ; 1.2914090346465636E7 ; 2.0179430160932177E8 ; 9.640615809577554E8 ; 1.3884260869668907E10 ; 0.0
78 ; 1.2907869767033605E7 ; 2.0180828029783347E8 ; 9.76975671304221E8 ; 1.4086055171278229E10 ; 0.0
79 ; 1.2905250868683996E7 ; 2.0182231014577836E8 ; 9.898835410712546E8 ; 1.4287863451576063E10 ; 0.0
80 ; 1.2906539994250618E7 ; 2.0183638869788137E8 ; 1.0027887919399387E9 ; 1.4489685761721842E10 ; 0.0
81 ; 1.290246117060418E7 ; 2.0185051356995168E8 ; 1.0156953319341893E9 ; 1.4691522150419724E10 ; 0.0
82 ; 1.2900659607709834E7 ; 2.0186468244648916E8 ; 1.0285977931047935E9 ; 1.4893372663989676E10 ; 0.0
83 ; 1.2896015222373683E7 ; 2.018788930783545E8 ; 1.0414984527125034E9 ; 1.5095237346436165E10 ; 0.0
84 ; 1.289262242942736E7 ; 2.0189314328050467E8 ; 1.0543944679348772E9 ; 1.5297116239514519E10 ; 0.0
85 ; 1.2886001696402851E7 ; 2.0190743092979333E8 ; 1.0672870903643045E9 ; 1.5499009382795023E10 ; 0.0
86 ; 1.288498691358286E7 ; 2.019217539628367E8 ; 1.0801730920607073E9 ; 1.5700916813724815E10 ; 0.0
87 ; 1.2883990228445701E7 ; 2.0193611037394506E8 ; 1.0930580789742901E9 ; 1.5902838567687653E10 ; 0.0
88 ; 1.2877488448082523E7 ; 2.0195049821311852E8 ; 1.105942069202736E9 ; 1.6104774678061598E10 ; 0.0
89 ; 1.2873837030296028E7 ; 2.0196491558410743E8 ; 1.1188195576508183E9 ; 1.6306725176274715E10 ; 0.0
90 ; 1.287211298458056E7 ; 2.01979360642536E8 ; 1.1316933946811144E9 ; 1.6508690091858824E10 ; 0.0
91 ; 1.2865359846330414E7 ; 2.0199383159408826E8 ; 1.144565507665695E9 ; 1.671066945250136E10 ; 0.0
92 ; 1.2860269325449742E7 ; 2.020083266927551E8 ; 1.1574308675120254E9 ; 1.6912663284095448E10 ; 0.0
93 ; 1.2856654304567032E7 ; 2.020228442391417E8 ; 1.170291136837475E9 ; 1.7114671610788202E10 ; 0.0
94 ; 1.2853009460688252E7 ; 2.0203738257883334E8 ; 1.1831477911420422E9 ; 1.7316694455027344E10 ; 0.0
95 ; 1.2849256131907696E7 ; 2.020519401008185E8 ; 1.1960008006027305E9 ; 1.751873183760618E10 ; 0.0
96 ; 1.2842869049213907E7 ; 2.02066515235968E8 ; 1.2088500567346382E9 ; 1.7720783777706997E10 ; 0.0
97 ; 1.2838482168159338E7 ; 2.0208110645556822E8 ; 1.221692925783852E9 ; 1.7922850292942966E10 ; 0.0
98 ; 1.2831510490582742E7 ; 2.0209571226990762E8 ; 1.2345314079520113E9 ; 1.8124931399398533E10 ; 0.0
99 ; 1.2826286293025162E7 ; 2.0211033122691387E8 ; 1.247362918442594E9 ; 1.832702711166844E10 ; 0.0
100 ; 1.2822802131427774E7 ; 2.021249619108415E8 ; 1.2601892047356193E9 ; 1.8529137442895355E10 ; 0.0
101 ; 1.2812892114882668E7 ; 2.021396029410072E8 ; 1.273012006867047E9 ; 1.87312624048062E10 ; 0.0
102 ; 1.2812911431908496E7 ; 2.0215425297057223E8 ; 1.2858248989819298E9 ; 1.8933402007747204E10 ; 0.0
103 ; 1.2807562887565544E7 ; 2.0216891068536958E8 ; 1.2986378104138384E9 ; 1.9135556260717777E10 ; 0.0
104 ; 1.280115837723916E7 ; 2.021835748027752E8 ; 1.311445373301404E9 ; 1.933772517140315E10 ; 0.0
105 ; 1.2795728611479415E7 ; 2.0219824407062125E8 ; 1.3242465316786432E9 ; 1.9539908746205925E10 ; 0.0
106 ; 1.2790591892627457E7 ; 2.0221291726614988E8 ; 1.3370422602901227E9 ; 1.9742106990276546E10 ; 0.0
107 ; 1.278442163172591E7 ; 2.0222759319500673E8 ; 1.3498328521827502E9 ; 1.9944319907542698E10 ; 0.0
108 ; 1.2779420425270526E7 ; 2.0224227069027188E8 ; 1.3626172738144763E9 ; 2.0146547500737705E10 ; 0.0
109 ; 1.2771570409148524E7 ; 2.0225694861152774E8 ; 1.3753966942397468E9 ; 2.034878977142798E10 ; 0.0
110 ; 1.2764175416979952E7 ; 2.0227162584396186E8 ; 1.3881682646488953E9 ; 2.0551046720039505E10 ; 0.0
111 ; 1.2756590154579425E7 ; 2.022863012975037E8 ; 1.4009324400658753E9 ; 2.075331834588347E10 ; 0.0
112 ; 1.2749818948845066E7 ; 2.0230097390599433E8 ; 1.4136890302204547E9 ; 2.0955604647180973E10 ; 0.0
113 ; 1.274769799539275E7 ; 2.0231564262638712E8 ; 1.4264388491692998E9 ; 2.1157905621086967E10 ; 0.0
114 ; 1.2742395009554602E7 ; 2.0233030643797904E8 ; 1.4391865471646926E9 ; 2.1360221263713356E10 ; 0.0
115 ; 1.2730902567003269E7 ; 2.0234496434167096E8 ; 1.4519289421742473E9 ; 2.1562551570151337E10 ; 0.0
116 ; 1.2725040372440493E7 ; 2.0235961535925585E8 ; 1.4646598447412505E9 ; 2.1764896534493008E10 ; 0.0
117 ; 1.2719155876123104E7 ; 2.0237425853273404E8 ; 1.477384885113691E9 ; 2.1967256149852264E10 ; 0.0
118 ; 1.2711785997950776E7 ; 2.023888929236543E8 ; 1.4901040409898143E9 ; 2.2169630408385E10 ; 0.0
119 ; 1.2701540895289905E7 ; 2.0240351761247984E8 ; 1.502815826987765E9 ; 2.237201930130865E10 ; 0.0
120 ; 1.2697563845517898E7 ; 2.0241813169797826E8 ; 1.515517367883055E9 ; 2.257442281892113E10 ; 0.0
121 ; 1.2687639263419418E7 ; 2.0243273429663438E8 ; 1.5282149317285728E9 ; 2.277684095061911E10 ; 0.0
122 ; 1.268183343680676E7 ; 2.0244732454208532E8 ; 1.5409025709919922E9 ; 2.2979273684915745E10 ; 0.0
123 ; 1.2674165270437354E7 ; 2.0246190158457673E8 ; 1.553584404428799E9 ; 2.318172100945783E10 ; 0.0
124 ; 1.266335399673957E7 ; 2.0247646459043938E8 ; 1.5662585696992362E9 ; 2.3384182911042404E10 ; 0.0
125 ; 1.265759379206668E7 ; 2.0249101274158555E8 ; 1.5789219236959758E9 ; 2.3586659375632843E10 ; 0.0
126 ; 1.2648970377893846E7 ; 2.0250554523502398E8 ; 1.5915795174880424E9 ; 2.3789150388374428E10 ; 0.0
127 ; 1.263996226379436E7 ; 2.025200612823932E8 ; 1.6042284878659363E9 ; 2.399165593360945E10 ; 0.0
128 ; 1.2634648686458401E7 ; 2.0253456010951197E8 ; 1.6168684501297307E9 ; 2.4194175994891846E10 ; 0.0
129 ; 1.2622466082429318E7 ; 2.0254904095594674E8 ; 1.629503098816189E9 ; 2.4396710555001358E10 ; 0.0
130 ; 1.2613196698689016E7 ; 2.0256350307459486E8 ; 1.6421255648986185E9 ; 2.4599259595957306E10 ; 0.0
131 ; 1.2600638480639955E7 ; 2.0257794573128334E8 ; 1.6547387615973074E9 ; 2.4801823099031902E10 ; 0.0
132 ; 1.258795185871979E7 ; 2.025923682043824E8 ; 1.6673394000779474E9 ; 2.5004401044763187E10 ; 0.0
133 ; 1.2575461331439536E7 ; 2.026067697844334E8 ; 1.6799273519366672E9 ; 2.520699341296757E10 ; 0.0
134 ; 1.2564162976251118E7 ; 2.0262114977379006E8 ; 1.6925028132681067E9 ; 2.5409600182752007E10 ; 0.0
135 ; 1.2547692192616835E7 ; 2.0263550748627335E8 ; 1.7050669762443578E9 ; 2.5612221332525795E10 ; 0.0
136 ; 1.2538227956191065E7 ; 2.0264984224683848E8 ; 1.7176146684369748E9 ; 2.581485684001207E10 ; 0.0
137 ; 1.2525681474121774E7 ; 2.026641533912543E8 ; 1.7301528963931658E9 ; 2.6017506682258907E10 ; 0.0
138 ; 1.2509528075220227E7 ; 2.0267844026579443E8 ; 1.7426785778672876E9 ; 2.622017083565016E10 ; 0.0
139 ; 1.249951011360496E7 ; 2.026927022269393E8 ; 1.7551881059425077E9 ; 2.6422849275915955E10 ; 0.0
140 ; 1.2484564630869722E7 ; 2.0270693864108917E8 ; 1.7676876160561128E9 ; 2.6625541978142895E10 ; 0.0
141 ; 1.2467467992982706E7 ; 2.027211488842876E8 ; 1.7801721806869824E9 ; 2.6828248916783985E10 ; 0.0
142 ; 1.2453683719262954E7 ; 2.027353323419544E8 ; 1.792639648679965E9 ; 2.7030970065668274E10 ; 0.0
143 ; 1.244380439939657E7 ; 2.0274948840862876E8 ; 1.8050933323992279E9 ; 2.7233705398010227E10 ; 0.0
144 ; 1.2429958655130675E7 ; 2.0276361648772103E8 ; 1.8175371367986245E9 ; 2.7436454886418858E10 ; 0.0
145 ; 1.2420466492931334E7 ; 2.027777159912737E8 ; 1.8299670954537551E9 ; 2.7639218502906578E10 ; 0.0
146 ; 1.2412329884643365E7 ; 2.027917863397307E8 ; 1.8423875619466865E9 ; 2.784199621889785E10 ; 0.0
147 ; 1.2400589201332644E7 ; 2.028058269617149E8 ; 1.8547998918313298E9 ; 2.804478800523758E10 ; 0.0
148 ; 1.2393997515788142E7 ; 2.028198372938134E8 ; 1.8672004810326624E9 ; 2.8247593832199295E10 ; 0.0
149 ; 1.2382116303279608E7 ; 2.028338167803707E8 ; 1.8795944785484505E9 ; 2.8450413669493107E10 ; 0.0
150 ; 1.237547349870851E7 ; 2.0284776487328857E8 ; 1.89197659485173E9 ; 2.8653247486273476E10 ; 0.0
151 ; 1.2366830685301535E7 ; 2.0286168103183344E8 ; 1.9043520683504386E9 ; 2.8856095251146763E10 ; 0.0
152 ; 1.2356728627729775E7 ; 2.0287556472245026E8 ; 1.9167188990357401E9 ; 2.9058956932178596E10 ; 0.0
153 ; 1.234782933151271E7 ; 2.0288941541858292E8 ; 1.92907562766347E9 ; 2.9261832496901047E10 ; 0.0
154 ; 1.2338435838701217E7 ; 2.029032326005008E8 ; 1.9414234569949827E9 ; 2.946472191231963E10 ; 0.0
155 ; 1.2324702231365692E7 ; 2.0291701575513136E8 ; 1.953761892833684E9 ; 2.966762514492013E10 ; 0.0
156 ; 1.2318312244065024E7 ; 2.0293076437589866E8 ; 1.9660865950650496E9 ; 2.9870542160675262E10 ; 0.0
157 ; 1.2305752415945748E7 ; 2.0294447796256712E8 ; 1.9784049073091147E9 ; 3.0073472925051163E10 ; 0.0
158 ; 1.2298692504015582E7 ; 2.0295815602109092E8 ; 1.9907106597250605E9 ; 3.027641740301373E10 ; 0.0
159 ; 1.228915253415866E7 ; 2.029717980634684E8 ; 2.0030093522290761E9 ; 3.047937555903482E10 ; 0.0
160 ; 1.2276108098394498E7 ; 2.029854036076014E8 ; 2.0152985047632349E9 ; 3.068234735709829E10 ; 0.0
161 ; 1.227044976022624E7 ; 2.0299897217715952E8 ; 2.0275746128616292E9 ; 3.088533276070589E10 ; 0.0
162 ; 1.2256199601734247E7 ; 2.0301250330144876E8 ; 2.0398450626218555E9 ; 3.108833173288305E10 ; 0.0
163 ; 1.2246032078124763E7 ; 2.0302599651528478E8 ; 2.0521012622235897E9 ; 3.1291344236184498E10 ; 0.0
164 ; 1.2239713750850178E7 ; 2.0303945135887042E8 ; 2.0643472943017144E9 ; 3.1494370232699783E10 ; 0.0
165 ; 1.2226754451177688E7 ; 2.0305286737767717E8 ; 2.0765870080525646E9 ; 3.1697409684058655E10 ; 0.0
166 ; 1.221548986771549E7 ; 2.030662441223307E8 ; 2.0888137625037422E9 ; 3.1900462551436333E10 ; 0.0
167 ; 1.2210421883659646E7 ; 2.0307958114850035E8 ; 2.1010292523714578E9 ; 3.2103528795558662E10 ; 0.0
168 ; 1.2196008559754156E7 ; 2.03092878016792E8 ; 2.1132396742551174E9 ; 3.230660837670716E10 ; 0.0
169 ; 1.2185861419823347E7 ; 2.0310613429264474E8 ; 2.1254356828148715E9 ; 3.2509701254723953E10 ; 0.0
170 ; 1.2178497902505968E7 ; 2.031193495462309E8 ; 2.137621544234695E9 ; 3.2712807389016598E10 ; 0.0
171 ; 1.2166434170571955E7 ; 2.031325233523593E8 ; 2.149800042137201E9 ; 3.2915926738562828E10 ; 0.0
172 ; 1.2158092924770374E7 ; 2.0314565529038176E8 ; 2.1619664763077726E9 ; 3.3119059261915188E10 ; 0.0
173 ; 1.2145657390906973E7 ; 2.0315874494410262E8 ; 2.174124569232543E9 ; 3.332220491720557E10 ; 0.0
174 ; 1.2142008739121165E7 ; 2.0317179190169132E8 ; 2.18627022662345E9 ; 3.3525363662149673E10 ; 0.0
175 ; 1.2134806592265468E7 ; 2.031847957555977E8 ; 2.198412235362571E9 ; 3.3728535454051365E10 ; 0.0
176 ; 1.2126905045281043E7 ; 2.031977561024702E8 ; 2.2105470419548364E9 ; 3.393172024980696E10 ; 0.0
177 ; 1.2117991353451714E7 ; 2.032106725430765E8 ; 2.2226739470001173E9 ; 3.413491800590943E10 ; 0.0
178 ; 1.2113302425049588E7 ; 2.0322354468222702E8 ; 2.234791938353569E9 ; 3.4338128678452507E10 ; 0.0
179 ; 1.2106697443950094E7 ; 2.0323637212870067E8 ; 2.246905240778619E9 ; 3.4541352223134735E10 ; 0.0
180 ; 1.2105660788838802E7 ; 2.032491544951731E8 ; 2.259011938222569E9 ; 3.4744588595263435E10 ; 0.0
181 ; 1.209495872128104E7 ; 2.0326189139814705E8 ; 2.271117599011408E9 ; 3.4947837749758606E10 ; 0.0
182 ; 1.2087148339863086E7 ; 2.0327458245788532E8 ; 2.283212557732689E9 ; 3.515109964115675E10 ; 0.0
183 ; 1.208026650384509E7 ; 2.0328722729834557E8 ; 2.295299706072552E9 ; 3.535437422361464E10 ; 0.0
184 ; 1.2074149029206272E7 ; 2.0329982554711723E8 ; 2.3073799725763974E9 ; 3.555766145091299E10 ; 0.0
185 ; 1.2071574703167778E7 ; 2.033123768353605E8 ; 2.3194541216056037E9 ; 3.5760961276460106E10 ; 0.0
186 ; 1.2059335590493819E7 ; 2.0332488079774737E8 ; 2.3315256963087716E9 ; 3.596427365329546E10 ; 0.0
187 ; 1.2055712878487224E7 ; 2.0333733707240424E8 ; 2.3435850318992653E9 ; 3.616759853409321E10 ; 0.0
188 ; 1.2048851963935534E7 ; 2.0334974530085662E8 ; 2.3556407447777524E9 ; 3.637093587116561E10 ; 0.0
189 ; 1.204498747056798E7 ; 2.0336210512797543E8 ; 2.367689596741688E9 ; 3.657428561646647E10 ; 0.0
190 ; 1.2038768673774222E7 ; 2.0337441620192504E8 ; 2.379734584212256E9 ; 3.6777647721594444E10 ; 0.0
191 ; 1.2031308649188034E7 ; 2.0338667817411292E8 ; 2.39177335288603E9 ; 3.698102213779637E10 ; 0.0
192 ; 1.2028308203193465E7 ; 2.0339889069914082E8 ; 2.4038046615352182E9 ; 3.718440881597048E10 ; 0.0
193 ; 1.2020780927833429E7 ; 2.0341105343475765E8 ; 2.415832969738412E9 ; 3.7387807706669624E10 ; 0.0
194 ; 1.2013749414818728E7 ; 2.034231660418136E8 ; 2.4278537506662455E9 ; 3.7591218760104385E10 ; 0.0
195 ; 1.2007579358440645E7 ; 2.0343522818421593E8 ; 2.439867500081064E9 ; 3.77946419261462E10 ; 0.0
