CSV File for the City 1 on Day 50
1 - Minute m 
2 - Power Consumed at minute m 
3 - Power Produced at minute m 
4 - Energy Consumed since the beginning of the day 
5 - Energy Produced since the beginning of the day 
6 - Energy Lost since the beginning of the day on lines starting from the city
 
0 ; 1.598172442457767E7 ; 1.0539323411449626E8 ; 0.0 ; 0.0 ; 0.0
1 ; 1.5994995470300619E7 ; 1.0554593353634787E8 ; 1.598172442457767E7 ; 1.0539323411449626E8 ; 0.0
2 ; 1.6012938649324471E7 ; 1.0600743554881057E8 ; 3.197671989487829E7 ; 2.1093916765084413E8 ; 0.0
3 ; 1.6032950156030098E7 ; 1.067777433582825E8 ; 4.798965854420276E7 ; 3.169466031996547E8 ; 0.0
4 ; 1.6056138804326467E7 ; 1.0785685988034481E8 ; 6.4022608700232856E7 ; 4.237243465579372E8 ; 0.0
5 ; 1.6084206377070837E7 ; 1.0924478771002889E8 ; 8.007874750455932E7 ; 5.31581206438282E8 ; 0.0
6 ; 1.6127084619414967E7 ; 1.1094152909435049E8 ; 9.616295388163015E7 ; 6.408259941483109E8 ; 0.0
7 ; 1.6177424385469193E7 ; 1.1294708590775901E8 ; 1.1229003850104512E8 ; 7.517675232426614E8 ; 0.0
8 ; 1.6257763370061914E7 ; 1.152614596311065E8 ; 1.2846746288651432E8 ; 8.647146091504204E8 ; 0.0
9 ; 1.6373934225280218E7 ; 1.1788465133467668E8 ; 1.4472522625657624E8 ; 9.799760687815269E8 ; 0.0
10 ; 1.6557894749759916E7 ; 1.2081666166572261E8 ; 1.6109916048185647E8 ; 1.0978607201162035E9 ; 0.0
11 ; 1.684442758734231E7 ; 1.2405749084084955E8 ; 1.7765705523161638E8 ; 1.2186773817819262E9 ; 0.0
12 ; 1.7306041545294292E7 ; 1.276071386434522E8 ; 1.945014828189587E8 ; 1.3427348726227758E9 ; 0.0
13 ; 1.775145112197032E7 ; 1.3146560442627752E8 ; 2.1180752436425298E8 ; 1.470342011266228E9 ; 0.0
14 ; 1.7805358553200375E7 ; 1.3563288711904186E8 ; 2.295589754862233E8 ; 1.6018076156925054E9 ; 0.0
15 ; 1.7824519428523228E7 ; 1.4010898524089307E8 ; 2.4736433403942367E8 ; 1.7374405028115473E9 ; 0.0
16 ; 1.7840979577301335E7 ; 1.4489389691738185E8 ; 2.651888534679469E8 ; 1.8775494880524404E9 ; 0.0
17 ; 1.7866305955612008E7 ; 1.499876199014924E8 ; 2.830298330452482E8 ; 2.0224433849698222E9 ; 0.0
18 ; 1.7885606161071286E7 ; 1.553901515981933E8 ; 3.008961390008602E8 ; 2.1724310048713145E9 ; 0.0
19 ; 1.7907157877444714E7 ; 1.6110148909190342E8 ; 3.187817451619315E8 ; 2.3278211564695077E9 ; 0.0
20 ; 1.7925929888339352E7 ; 1.6712162917622462E8 ; 3.3668890303937626E8 ; 2.488922645561411E9 ; 0.0
21 ; 1.794564836946325E7 ; 1.73450568385281E8 ; 3.546148329277156E8 ; 2.6560442747376356E9 ; 0.0
22 ; 1.7973350449138522E7 ; 1.800883030260107E8 ; 3.7256048129717886E8 ; 2.8294948431229167E9 ; 0.0
23 ; 1.7991022901313853E7 ; 1.8703482921078998E8 ; 3.905338317463174E8 ; 3.009583146148927E9 ; 0.0
24 ; 1.801140307916929E7 ; 1.9429014288981426E8 ; 4.085248546476312E8 ; 3.1966179753597174E9 ; 0.0
25 ; 1.8032153742895912E7 ; 2.0054228078091013E8 ; 4.265362577268005E8 ; 3.3909081182495317E9 ; 0.0
26 ; 1.8054320720101323E7 ; 2.0054478643686587E8 ; 4.445684114696964E8 ; 3.5914503990304418E9 ; 0.0
27 ; 1.807185691906065E7 ; 2.0054742479921302E8 ; 4.626227321897977E8 ; 3.7919951854673076E9 ; 0.0
28 ; 1.809141662585834E7 ; 2.0055019147203484E8 ; 4.8069458910885835E8 ; 3.9925426102665205E9 ; 0.0
29 ; 1.811290679548136E7 ; 2.005530820401952E8 ; 4.987860057347167E8 ; 4.1930928017385554E9 ; 0.0
30 ; 1.812922918385033E7 ; 2.005560920921314E8 ; 5.168989125301981E8 ; 4.39364588377875E9 ; 0.0
31 ; 1.815252338093575E7 ; 2.0055921724038166E8 ; 5.3502814171404845E8 ; 4.594201975870882E9 ; 0.0
32 ; 1.816385830258833E7 ; 2.0056245313982943E8 ; 5.531806650949842E8 ; 4.794761193111263E9 ; 0.0
33 ; 1.8185262059453838E7 ; 2.0056579550369537E8 ; 5.713445233975725E8 ; 4.995323646251093E9 ; 0.0
34 ; 1.8201029845221505E7 ; 2.005692401173468E8 ; 5.895297854570264E8 ; 5.195889441754788E9 ; 0.0
35 ; 1.821785933787948E7 ; 2.005727828500257E8 ; 6.077308153022479E8 ; 5.396458681872135E9 ; 0.0
36 ; 1.8237202765656233E7 ; 2.0057641966461974E8 ; 6.259486746401274E8 ; 5.597031464722161E9 ; 0.0
37 ; 1.8257482663262993E7 ; 2.005801466256162E8 ; 6.441858774057837E8 ; 5.797607884386781E9 ; 0.0
38 ; 1.826910368102045E7 ; 2.0058395990539E8 ; 6.624433600690466E8 ; 5.998188031012397E9 ; 0.0
39 ; 1.8283324078588843E7 ; 2.005878557889796E8 ; 6.807124637500671E8 ; 6.198771990917787E9 ; 0.0
40 ; 1.829550262740784E7 ; 2.0059183067750657E8 ; 6.98995787828656E8 ; 6.399359846706766E9 ; 0.0
41 ; 1.8310275776277572E7 ; 2.005958810903908E8 ; 7.172912904560637E8 ; 6.599951677384273E9 ; 0.0
42 ; 1.831941925073868E7 ; 2.0060000366650653E8 ; 7.356015662323413E8 ; 6.800547558474664E9 ; 0.0
43 ; 1.8336856198048472E7 ; 2.0060419516441813E8 ; 7.539209854830799E8 ; 7.0011475621411705E9 ; 0.0
44 ; 1.8342245997970942E7 ; 2.0060845246182412E8 ; 7.722578416811284E8 ; 7.201751757305589E9 ; 0.0
45 ; 1.8352879229419235E7 ; 2.0061277255432826E8 ; 7.906000876790993E8 ; 7.402360209767413E9 ; 0.0
46 ; 1.836100984201377E7 ; 2.0061715255364642E8 ; 8.089529669085186E8 ; 7.602972982321741E9 ; 0.0
47 ; 1.837030798026949E7 ; 2.006215896853471E8 ; 8.273139767505323E8 ; 7.803590134875387E9 ; 0.0
48 ; 1.8379348912796594E7 ; 2.006260812862134E8 ; 8.456842847308018E8 ; 8.004211724560735E9 ; 0.0
49 ; 1.8389962704904065E7 ; 2.0063062480130443E8 ; 8.640636336435984E8 ; 8.204837805846949E9 ; 0.0
50 ; 1.8392366768981293E7 ; 2.0063521778078473E8 ; 8.824535963485025E8 ; 8.405468430648253E9 ; 0.0
51 ; 1.8393562376012906E7 ; 2.006398578765818E8 ; 9.008459631174839E8 ; 8.606103648429039E9 ; 0.0
52 ; 1.839825811741627E7 ; 2.0064454283892328E8 ; 9.192395254934968E8 ; 8.80674350630562E9 ; 0.0
53 ; 1.840562360090925E7 ; 2.0064927051279917E8 ; 9.37637783610913E8 ; 9.007388049144543E9 ; 0.0
54 ; 1.8407688536948506E7 ; 2.0065403883438638E8 ; 9.560434072118223E8 ; 9.208037319657341E9 ; 0.0
55 ; 1.841317585393752E7 ; 2.0065884582746816E8 ; 9.744510957487708E8 ; 9.408691358491728E9 ; 0.0
56 ; 1.8419119545307975E7 ; 2.006636895998752E8 ; 9.928642716027083E8 ; 9.609350204319197E9 ; 0.0
57 ; 1.8423635681186102E7 ; 2.0066856833997083E8 ; 1.0112833911480163E9 ; 9.810013893919071E9 ; 0.0
58 ; 1.8424449562919043E7 ; 2.0067348031319767E8 ; 1.0297070268292024E9 ; 1.0010682462259043E10 ; 0.0
59 ; 1.84262881295678E7 ; 2.0067842385870156E8 ; 1.0481314763921214E9 ; 1.021135594257224E10 ; 0.0
60 ; 1.8436321530662782E7 ; 2.006833973860427E8 ; 1.0665577645216892E9 ; 1.0412034366430943E10 ; 0.0
61 ; 1.8435564684878293E7 ; 2.0068839937200427E8 ; 1.084994086052352E9 ; 1.0612717763816986E10 ; 0.0
62 ; 1.8441675417863734E7 ; 2.006934283575037E8 ; 1.1034296507372303E9 ; 1.081340616318899E10 ; 0.0
63 ; 1.8443088308017742E7 ; 2.0069848294461226E8 ; 1.1218713261550941E9 ; 1.1014099591546494E10 ; 0.0
64 ; 1.844320443655572E7 ; 2.007035617936848E8 ; 1.1403144144631119E9 ; 1.1214798074491106E10 ; 0.0
65 ; 1.84475392203456E7 ; 2.0070866362060228E8 ; 1.1587576188996675E9 ; 1.141550163628479E10 ; 0.0
66 ; 1.845530812290066E7 ; 2.0071378719412622E8 ; 1.177205158120013E9 ; 1.1616210299905392E10 ; 0.0
67 ; 1.8451124501796834E7 ; 2.007189313333657E8 ; 1.1956604662429137E9 ; 1.1816924087099518E10 ; 0.0
68 ; 1.845658938320257E7 ; 2.007240949053545E8 ; 1.2141115907447104E9 ; 1.2017643018432884E10 ; 0.0
69 ; 1.845712795904093E7 ; 2.0072927682273707E8 ; 1.232568180127913E9 ; 1.2218367113338238E10 ; 0.0
70 ; 1.8459539476040702E7 ; 2.0073447604156062E8 ; 1.2510253080869539E9 ; 1.2419096390160975E10 ; 0.0
71 ; 1.84628511729464E7 ; 2.007396915591703E8 ; 1.2694848475629945E9 ; 1.2619830866202536E10 ; 0.0
72 ; 1.8464286511573263E7 ; 2.0074492241220468E8 ; 1.287947698735941E9 ; 1.2820570557761705E10 ; 0.0
73 ; 1.8464965746908564E7 ; 2.0075016767468765E8 ; 1.3064119852475142E9 ; 1.302131548017391E10 ; 0.0
74 ; 1.8462339106689487E7 ; 2.007554264562139E8 ; 1.324876950994423E9 ; 1.3222065647848598E10 ; 0.0
75 ; 1.846217508081411E7 ; 2.0076069790022346E8 ; 1.3433392901011124E9 ; 1.3422821074304811E10 ; 0.0
76 ; 1.846536510723189E7 ; 2.0076598118236282E8 ; 1.3618014651819265E9 ; 1.3623581772205034E10 ; 0.0
77 ; 1.8466620475886352E7 ; 2.0077127550892773E8 ; 1.3802668302891583E9 ; 1.3824347753387398E10 ; 0.0
78 ; 1.8460176537144054E7 ; 2.0077658011538506E8 ; 1.3987334507650447E9 ; 1.4025119028896326E10 ; 0.0
79 ; 1.84531112264825E7 ; 2.0078189426496953E8 ; 1.4171936273021886E9 ; 1.4225895609011711E10 ; 0.0
80 ; 1.8451670921842072E7 ; 2.0078721724735215E8 ; 1.435646738528671E9 ; 1.442667750327668E10 ; 0.0
81 ; 1.8446096958229255E7 ; 2.0079254837737682E8 ; 1.4540984094505131E9 ; 1.4627464720524033E10 ; 0.0
82 ; 1.843973684510997E7 ; 2.0079788699386165E8 ; 1.4725445064087424E9 ; 1.482825726890141E10 ; 0.0
83 ; 1.842899630147862E7 ; 2.0080323245846206E8 ; 1.4909842432538524E9 ; 1.5029055155895271E10 ; 0.0
84 ; 1.842412406598465E7 ; 2.0080858415459254E8 ; 1.509413239555331E9 ; 1.5229858388353733E10 ; 0.0
85 ; 1.8422041431189958E7 ; 2.0081394148640364E8 ; 1.5278373636213157E9 ; 1.5430666972508326E10 ; 0.0
86 ; 1.841467179350627E7 ; 2.0081930387781215E8 ; 1.5462594050525057E9 ; 1.563148091399473E10 ; 0.0
87 ; 1.8405170382480565E7 ; 2.0082467077158087E8 ; 1.564674076846012E9 ; 1.5832300217872541E10 ; 0.0
88 ; 1.8402323256338246E7 ; 2.0083004162844607E8 ; 1.5830792472284927E9 ; 1.6033124888644123E10 ; 0.0
89 ; 1.8394771587459713E7 ; 2.0083541592628974E8 ; 1.601481570484831E9 ; 1.623395493027257E10 ; 0.0
90 ; 1.8389385177315287E7 ; 2.0084079315935433E8 ; 1.619876342072291E9 ; 1.643479034619886E10 ; 0.0
91 ; 1.8378628301412117E7 ; 2.0084617283749783E8 ; 1.6382657272496061E9 ; 1.6635631139358215E10 ; 0.0
92 ; 1.8374186942601707E7 ; 2.0085155448548704E8 ; 1.6566443555510182E9 ; 1.6836477312195713E10 ; 0.0
93 ; 1.8363130933681164E7 ; 2.008569376423268E8 ; 1.67501854249362E9 ; 1.70373288666812E10 ; 0.0
94 ; 1.8357778968228627E7 ; 2.008623218606234E8 ; 1.6933816734273012E9 ; 1.723818580432353E10 ; 0.0
95 ; 1.834808777685224E7 ; 2.0086770670598054E8 ; 1.7117394523955297E9 ; 1.743904812618415E10 ; 0.0
96 ; 1.834077332079822E7 ; 2.0087309175642556E8 ; 1.7300875401723819E9 ; 1.7639915832890133E10 ; 0.0
97 ; 1.8330657833467048E7 ; 2.0087847660186484E8 ; 1.74842831349318E9 ; 1.7840788924646557E10 ; 0.0
98 ; 1.8325797338264905E7 ; 2.008838608435666E8 ; 1.766758971326647E9 ; 1.804166740124842E10 ; 0.0
99 ; 1.8315598818535373E7 ; 2.008892440936694E8 ; 1.785084768664912E9 ; 1.8242551262091988E10 ; 0.0
100 ; 1.830806174835933E7 ; 2.0089462597471562E8 ; 1.8034003674834473E9 ; 1.8443440506185658E10 ; 0.0
101 ; 1.829417569357302E7 ; 2.0090000611920747E8 ; 1.8217084292318068E9 ; 1.8644335132160374E10 ; 0.0
102 ; 1.8286152397005167E7 ; 2.0090538416918585E8 ; 1.8400026049253798E9 ; 1.8845235138279583E10 ; 0.0
103 ; 1.827667274878219E7 ; 2.009107597758292E8 ; 1.8582887573223848E9 ; 1.904614052244877E10 ; 0.0
104 ; 1.8267609709410127E7 ; 2.009161325990725E8 ; 1.876565430071167E9 ; 1.9247051282224598E10 ; 0.0
105 ; 1.8255816860679973E7 ; 2.009215023072449E8 ; 1.8948330397805772E9 ; 1.944796741482367E10 ; 0.0
106 ; 1.8247328693360876E7 ; 2.009268685767247E8 ; 1.913088856641257E9 ; 1.9648888917130913E10 ; 0.0
107 ; 1.8238609670999505E7 ; 2.0093223109161153E8 ; 1.9313361853346179E9 ; 1.9849815785707638E10 ; 0.0
108 ; 1.8229541422656793E7 ; 2.009375895434138E8 ; 1.9495747950056174E9 ; 2.0050748016799248E10 ; 0.0
109 ; 1.8215999165960856E7 ; 2.009429436307516E8 ; 1.9678043364282742E9 ; 2.0251685606342663E10 ; 0.0
110 ; 1.820794950530908E7 ; 2.009482930590737E8 ; 1.986020335594235E9 ; 2.0452628549973415E10 ; 0.0
111 ; 1.8192835007877942E7 ; 2.009536375403878E8 ; 2.004228285099544E9 ; 2.065357684303249E10 ; 0.0
112 ; 1.8184184864534695E7 ; 2.0095897679300395E8 ; 2.0224211201074219E9 ; 2.0854530480572876E10 ; 0.0
113 ; 1.817450073244522E7 ; 2.0096431054128966E8 ; 2.0406053049719565E9 ; 2.105548945736588E10 ; 0.0
114 ; 1.8160075660434276E7 ; 2.009696385154367E8 ; 2.0587798057044017E9 ; 2.125645376790717E10 ; 0.0
115 ; 1.8149057878103193E7 ; 2.0097496045123896E8 ; 2.076939881364836E9 ; 2.1457423406422607E10 ; 0.0
116 ; 1.813205138641276E7 ; 2.0098027608988017E8 ; 2.0950889392429392E9 ; 2.1658398366873848E10 ; 0.0
117 ; 1.8125899819341995E7 ; 2.009855851777318E8 ; 2.113220990629352E9 ; 2.185937864296373E10 ; 0.0
118 ; 1.811090597350459E7 ; 2.009908874661603E8 ; 2.131346890448694E9 ; 2.206036422814146E10 ; 0.0
119 ; 1.8097921326285385E7 ; 2.0099618271134275E8 ; 2.149457796422199E9 ; 2.226135511560762E10 ; 0.0
120 ; 1.808465000786569E7 ; 2.010014706740914E8 ; 2.167555717748484E9 ; 2.2462351298318962E10 ; 0.0
121 ; 1.807424460548398E7 ; 2.0100675111968574E8 ; 2.18564036775635E9 ; 2.2663352768993053E10 ; 0.0
122 ; 1.8063395497553166E7 ; 2.010120238177125E8 ; 2.203714612361834E9 ; 2.286435952011274E10 ; 0.0
123 ; 1.8050942300213855E7 ; 2.0101728854191247E8 ; 2.2217780078593874E9 ; 2.306537154393045E10 ; 0.0
124 ; 1.8032825947577756E7 ; 2.010225450700346E8 ; 2.239828950159601E9 ; 2.3266388832472363E10 ; 0.0
125 ; 1.8022778820460126E7 ; 2.0102779318369603E8 ; 2.257861776107179E9 ; 2.3467411377542397E10 ; 0.0
126 ; 1.8010785755426515E7 ; 2.0103303266824886E8 ; 2.2758845549276395E9 ; 2.3668439170726093E10 ; 0.0
127 ; 1.7990625691463765E7 ; 2.0103826331265235E8 ; 2.293895340683066E9 ; 2.386947220339434E10 ; 0.0
128 ; 1.7979100174301047E7 ; 2.0104348490935093E8 ; 2.31188596637453E9 ; 2.4070510466706993E10 ; 0.0
129 ; 1.79627033317767E7 ; 2.0104869725415748E8 ; 2.329865066548831E9 ; 2.4271553951616344E10 ; 0.0
130 ; 1.7946191681910645E7 ; 2.0105390014614174E8 ; 2.3478277698806076E9 ; 2.4472602648870502E10 ; 0.0
131 ; 1.7926675553786587E7 ; 2.0105909338752326E8 ; 2.365773961562518E9 ; 2.4673656549016644E10 ; 0.0
132 ; 1.7907679325818397E7 ; 2.0106427678356934E8 ; 2.383700637116305E9 ; 2.4874715642404167E10 ; 0.0
133 ; 1.7888231193598E7 ; 2.0106945014249697E8 ; 2.4016083164421234E9 ; 2.5075779919187737E10 ; 0.0
134 ; 1.7867392701412387E7 ; 2.0107461327537924E8 ; 2.419496547635721E9 ; 2.5276849369330235E10 ; 0.0
135 ; 1.784749392901831E7 ; 2.0107976599605533E8 ; 2.4373639403371334E9 ; 2.5477923982605614E10 ; 0.0
136 ; 1.782653882437182E7 ; 2.010849081210448E8 ; 2.455211434266152E9 ; 2.567900374860167E10 ; 0.0
137 ; 1.7804435817570947E7 ; 2.0109003946946496E8 ; 2.4730379730905237E9 ; 2.5880088656722713E10 ; 0.0
138 ; 1.7783979670011874E7 ; 2.0109515986295202E8 ; 2.490842408908095E9 ; 2.6081178696192177E10 ; 0.0
139 ; 1.7761432284279138E7 ; 2.0110026912558532E8 ; 2.508626388578107E9 ; 2.628227385605513E10 ; 0.0
140 ; 1.7738790477628455E7 ; 2.011053670838149E8 ; 2.526387820862386E9 ; 2.6483374125180714E10 ; 0.0
141 ; 1.771847106858576E7 ; 2.0111045356639177E8 ; 2.5441266113400145E9 ; 2.668447949226453E10 ; 0.0
142 ; 1.769237071317653E7 ; 2.0111552840430132E8 ; 2.5618450824086003E9 ; 2.688558994583092E10 ; 0.0
143 ; 1.7672920942448627E7 ; 2.0112059143069917E8 ; 2.579537453121777E9 ; 2.708670547423522E10 ; 0.0
144 ; 1.7648001400641836E7 ; 2.011256424808499E8 ; 2.5972103740642257E9 ; 2.728782606566592E10 ; 0.0
145 ; 1.7635394186018385E7 ; 2.0113068139206797E8 ; 2.6148583754648676E9 ; 2.748895170814677E10 ; 0.0
146 ; 1.7622029703631233E7 ; 2.0113570800366125E8 ; 2.632493769650886E9 ; 2.7690082389538837E10 ; 0.0
147 ; 1.759942217326756E7 ; 2.0114072215687665E8 ; 2.6501157993545175E9 ; 2.78912180975425E10 ; 0.0
148 ; 1.7588621597180292E7 ; 2.0114572369484806E8 ; 2.667715221527785E9 ; 2.8092358819699375E10 ; 0.0
149 ; 1.7572181327724647E7 ; 2.0115071246254617E8 ; 2.685303843124965E9 ; 2.8293504543394222E10 ; 0.0
150 ; 1.755257183725192E7 ; 2.0115568830673054E8 ; 2.7028760244526896E9 ; 2.849465525585677E10 ; 0.0
151 ; 1.7540505197262377E7 ; 2.0116065107590318E8 ; 2.720428596289942E9 ; 2.86958109441635E10 ; 0.0
152 ; 1.752508826389171E7 ; 2.0116560062026432E8 ; 2.737969101487204E9 ; 2.8896971595239407E10 ; 0.0
153 ; 1.7508757790774398E7 ; 2.0117053679166973E8 ; 2.755494189751096E9 ; 2.9098137195859673E10 ; 0.0
154 ; 1.7496707232070785E7 ; 2.0117545944358966E8 ; 2.77300294754187E9 ; 2.929930773265134E10 ; 0.0
155 ; 1.7478739991166104E7 ; 2.0118036843106946E8 ; 2.790499654773941E9 ; 2.950048319209493E10 ; 0.0
156 ; 1.7458758635967866E7 ; 2.011852636106917E8 ; 2.807978394765107E9 ; 2.9701663560525997E10 ; 0.0
157 ; 1.7443078871035073E7 ; 2.0119014484053972E8 ; 2.825437153401075E9 ; 2.990284882413669E10 ; 0.0
158 ; 1.742931122925538E7 ; 2.0119501198016256E8 ; 2.84288023227211E9 ; 3.0104038968977226E10 ; 0.0
159 ; 1.741143069580848E7 ; 2.011998648905413E8 ; 2.860309543501365E9 ; 3.030523398095739E10 ; 0.0
160 ; 1.7390119236829102E7 ; 2.0120470343405655E8 ; 2.8777209741971736E9 ; 3.050643384584793E10 ; 0.0
161 ; 1.7376291851760387E7 ; 2.0120952747445738E8 ; 2.895111093434003E9 ; 3.0707638549281986E10 ; 0.0
162 ; 1.7362641863493748E7 ; 2.0121433687683114E8 ; 2.9124873852857633E9 ; 3.0908848076756443E10 ; 0.0
163 ; 1.7349201127540912E7 ; 2.012191315075747E8 ; 2.929850027149257E9 ; 3.1110062413633274E10 ; 0.0
164 ; 1.7333817453972854E7 ; 2.0122391123436654E8 ; 2.9471992282767982E9 ; 3.131128154514085E10 ; 0.0
165 ; 1.731366519773603E7 ; 2.0122867592614E8 ; 2.964533045730771E9 ; 3.1512505456375217E10 ; 0.0
166 ; 1.729346575108945E7 ; 2.012334254530576E8 ; 2.9818467109285073E9 ; 3.1713734132301357E10 ; 0.0
167 ; 1.727537901066886E7 ; 2.0123815968648595E8 ; 2.999140176679597E9 ; 3.1914967557754414E10 ; 0.0
168 ; 1.7258114997760613E7 ; 2.0124287849897215E8 ; 3.0164155556902657E9 ; 3.21162057174409E10 ; 0.0
169 ; 1.7243167047546174E7 ; 2.012475817642206E8 ; 3.0336736706880264E9 ; 3.2317448595939873E10 ; 0.0
170 ; 1.7223296505486704E7 ; 2.012522693570708E8 ; 3.050916837735573E9 ; 3.2518696177704094E10 ; 0.0
171 ; 1.7207548340128254E7 ; 2.0125694115347612E8 ; 3.0681401342410593E9 ; 3.2719948447061165E10 ; 0.0
172 ; 1.7189279476361055E7 ; 2.0126159703048304E8 ; 3.0853476825811877E9 ; 3.292120538821464E10 ; 0.0
173 ; 1.7173050445893973E7 ; 2.0126623686621138E8 ; 3.102536962057549E9 ; 3.3122466985245125E10 ; 0.0
174 ; 1.716240722201445E7 ; 2.0127086053983524E8 ; 3.119710012503443E9 ; 3.3323733222111336E10 ; 0.0
175 ; 1.7151775386973146E7 ; 2.012754679315645E8 ; 3.136872419725457E9 ; 3.3525004082651173E10 ; 0.0
176 ; 1.714201001911815E7 ; 2.0128005892262712E8 ; 3.1540241951124306E9 ; 3.3726279550582737E10 ; 0.0
177 ; 1.7131813218228277E7 ; 2.0128463339525193E8 ; 3.171166205131549E9 ; 3.3927559609505363E10 ; 0.0
178 ; 1.712413495211994E7 ; 2.0128919123265216E8 ; 3.188298018349777E9 ; 3.4128844242900616E10 ; 0.0
179 ; 1.7113553946184386E7 ; 2.0129373231900966E8 ; 3.205422153301897E9 ; 3.4330133434133266E10 ; 0.0
180 ; 1.7100948383723162E7 ; 2.012982565394593E8 ; 3.222535707248081E9 ; 3.453142716645228E10 ; 0.0
181 ; 1.709221980854753E7 ; 2.013027637800744E8 ; 3.2396366556318045E9 ; 3.473272542299174E10 ; 0.0
182 ; 1.70813354258217E7 ; 2.013072539278523E8 ; 3.256728875440352E9 ; 3.493402818677181E10 ; 0.0
183 ; 1.7069154549618565E7 ; 2.013117268707008E8 ; 3.2738102108661737E9 ; 3.513533544069966E10 ; 0.0
184 ; 1.705601411076306E7 ; 2.013161824974246E8 ; 3.2908793654157925E9 ; 3.533664716757036E10 ; 0.0
185 ; 1.7048256804971684E7 ; 2.0132062069771278E8 ; 3.3079353795265555E9 ; 3.553796335006778E10 ; 0.0
186 ; 1.703685023733776E7 ; 2.0132504136212623E8 ; 3.324983636331527E9 ; 3.5739283970765495E10 ; 0.0
187 ; 1.702348178082472E7 ; 2.0132944438208586E8 ; 3.342020486568865E9 ; 3.5940609012127625E10 ; 0.0
188 ; 1.701646779620629E7 ; 2.0133382964986107E8 ; 3.3590439683496895E9 ; 3.614193845650971E10 ; 0.0
189 ; 1.7004133855976973E7 ; 2.0133819705855867E8 ; 3.376060436145896E9 ; 3.634327228615958E10 ; 0.0
190 ; 1.699346058222196E7 ; 2.0134254650211215E8 ; 3.393064570001873E9 ; 3.654461048321813E10 ; 0.0
191 ; 1.6982688914333496E7 ; 2.0134687787527135E8 ; 3.410058030584095E9 ; 3.6745953029720245E10 ; 0.0
192 ; 1.6973399936539683E7 ; 2.0135119107359254E8 ; 3.4270407194984283E9 ; 3.694729990759552E10 ; 0.0
193 ; 1.6962990715278104E7 ; 2.013554859934288E8 ; 3.444014119434968E9 ; 3.714865109866911E10 ; 0.0
194 ; 1.694915462444183E7 ; 2.013597625319207E8 ; 3.460977110150246E9 ; 3.7350006584662544E10 ; 0.0
195 ; 1.693941644226179E7 ; 2.0136402058698732E8 ; 3.477926264774688E9 ; 3.7551366347194466E10 ; 0.0
