CSV File for the City 4 on Day 201
1 - Minute m 
2 - Power Consumed at minute m 
3 - Power Produced at minute m 
4 - Energy Consumed since the beginning of the day 
5 - Energy Produced since the beginning of the day 
6 - Energy Lost since the beginning of the day on lines starting from the city
 
0 ; 593017.4822012921 ; 1.0580452732599786E8 ; 0.0 ; 0.0 ; 0.0
1 ; 600027.0864573068 ; 1.0595440970538509E8 ; 593017.4822012921 ; 1.0580452732599786E8 ; 0.0
2 ; 612936.8590918288 ; 1.0641337405678168E8 ; 1193044.5686585987 ; 2.1175893703138295E8 ; 0.0
3 ; 620570.3905163244 ; 1.0718142904950887E8 ; 1805981.4277504275 ; 3.181723110881646E8 ; 0.0
4 ; 630600.1864249208 ; 1.0825858256341255E8 ; 2426551.818266752 ; 4.253537401376735E8 ; 0.0
5 ; 640032.6278219173 ; 1.096448416094687E8 ; 3057152.004691673 ; 5.3361232270108604E8 ; 0.0
6 ; 660428.0561860452 ; 1.1134021225650766E8 ; 3697184.63251359 ; 6.432571643105547E8 ; 0.0
7 ; 684440.8428172183 ; 1.1334469956576353E8 ; 4357612.688699636 ; 7.545973765670624E8 ; 0.0
8 ; 718021.3792235968 ; 1.1565830753484386E8 ; 5042053.531516854 ; 8.679420761328259E8 ; 0.0
9 ; 768972.131521822 ; 1.1828103905253881E8 ; 5760074.91074045 ; 9.836003836676698E8 ; 0.0
10 ; 848159.2722816115 ; 1.2121289586564833E8 ; 6529047.042262272 ; 1.1018814227202086E9 ; 0.0
11 ; 970111.0095778588 ; 1.2445387855871168E8 ; 7377206.314543883 ; 1.223094318585857E9 ; 0.0
12 ; 1170908.9769554674 ; 1.2800398654718956E8 ; 8347317.3241217425 ; 1.3475481971445687E9 ; 0.0
13 ; 1359790.5482576278 ; 1.3186321808428204E8 ; 9518226.30107721 ; 1.4755521836917582E9 ; 0.0
14 ; 1384502.621923739 ; 1.3603157028119904E8 ; 1.0878016849334838E7 ; 1.60741540177604E9 ; 0.0
15 ; 1395314.3191542653 ; 1.4050903914033288E8 ; 1.2262519471258577E7 ; 1.743446972057239E9 ; 0.0
16 ; 1404388.5810374357 ; 1.452956196004496E8 ; 1.3657833790412843E7 ; 1.883956011197572E9 ; 0.0
17 ; 1413884.9887120605 ; 1.5039130559271875E8 ; 1.5062222371450279E7 ; 2.0292516307980216E9 ; 0.0
18 ; 1423240.7768035473 ; 1.557960901061644E8 ; 1.647610736016234E7 ; 2.1796429363907404E9 ; 0.0
19 ; 1432614.8515665305 ; 1.6150996526094064E8 ; 1.7899348136965886E7 ; 2.335439026496905E9 ; 0.0
20 ; 1444705.7967536466 ; 1.6753292238772622E8 ; 1.9331962988532417E7 ; 2.4969489917578454E9 ; 0.0
21 ; 1455985.6301678354 ; 1.7386495211149123E8 ; 2.077666878528606E7 ; 2.6644819141455717E9 ; 0.0
22 ; 1463765.7776915564 ; 1.805060444379068E8 ; 2.2232654415453896E7 ; 2.838346866257063E9 ; 0.0
23 ; 1474116.5537369335 ; 1.8745618884074944E8 ; 2.3696420193145454E7 ; 3.0188529106949697E9 ; 0.0
24 ; 1482985.359556495 ; 1.9471537434877276E8 ; 2.5170536746882387E7 ; 3.206309099535719E9 ; 0.0
25 ; 1494009.482364532 ; 2.0097163052886626E8 ; 2.6653522106438883E7 ; 3.401024473884492E9 ; 0.0
26 ; 1505071.8089933936 ; 2.0097849360484874E8 ; 2.8147531588803414E7 ; 3.601996104413358E9 ; 0.0
27 ; 1516400.3633571682 ; 2.009857210602142E8 ; 2.965260339779681E7 ; 3.802974598018207E9 ; 0.0
28 ; 1524441.6301448485 ; 2.0099330095791444E8 ; 3.1169003761153977E7 ; 4.003960319078421E9 ; 0.0
29 ; 1534771.3855431555 ; 2.0100122130120766E8 ; 3.2693445391298827E7 ; 4.2049536200363355E9 ; 0.0
30 ; 1543026.1579739435 ; 2.0100947009546658E8 ; 3.422821677684198E7 ; 4.4059548413375435E9 ; 0.0
31 ; 1551710.781864126 ; 2.0101803540397555E8 ; 3.577124293481593E7 ; 4.60696431143301E9 ; 0.0
32 ; 1559654.8880615693 ; 2.0102690539765158E8 ; 3.732295371668006E7 ; 4.807982346836986E9 ; 0.0
33 ; 1569758.2318071697 ; 2.010360683987541E8 ; 3.8882608604741625E7 ; 5.009009252234637E9 ; 0.0
34 ; 1577642.417800854 ; 2.0104551291875485E8 ; 4.04523668365488E7 ; 5.210045320633391E9 ; 0.0
35 ; 1589891.2522887087 ; 2.0105522769062394E8 ; 4.203000925434965E7 ; 5.411090833552146E9 ; 0.0
36 ; 1595633.135788959 ; 2.010652016958519E8 ; 4.3619900506638356E7 ; 5.61214606124277E9 ; 0.0
37 ; 1603662.3748709261 ; 2.010754241865732E8 ; 4.521553364242732E7 ; 5.813211262938622E9 ; 0.0
38 ; 1613228.9866121989 ; 2.0108588470318463E8 ; 4.6819196017298244E7 ; 6.0142866871251955E9 ; 0.0
39 ; 1622739.31989738 ; 2.0109657308786622E8 ; 4.8432425003910445E7 ; 6.215372571828381E9 ; 0.0
40 ; 1628865.0306886162 ; 2.0110747949441573E8 ; 5.005516432380783E7 ; 6.416469144916246E9 ; 0.0
41 ; 1635698.3228932214 ; 2.0111859439479938E8 ; 5.168402935449644E7 ; 6.617576624410662E9 ; 0.0
42 ; 1643215.8989137989 ; 2.0112990858280873E8 ; 5.331972767738967E7 ; 6.818695218805461E9 ; 0.0
43 ; 1648773.279906838 ; 2.011414131751927E8 ; 5.496294357630347E7 ; 7.019825127388269E9 ; 0.0
44 ; 1653285.8908928607 ; 2.0115309961061105E8 ; 5.661171685621031E7 ; 7.220966540563462E9 ; 0.0
45 ; 1659997.9848334936 ; 2.0116495964672875E8 ; 5.826500274710317E7 ; 7.422119640174073E9 ; 0.0
46 ; 1667489.1642740138 ; 2.01176985355745E8 ; 5.992500073193666E7 ; 7.623284599820802E9 ; 0.0
47 ; 1672468.4655675464 ; 2.0118916911862147E8 ; 6.159248989621068E7 ; 7.824461585176547E9 ; 0.0
48 ; 1677130.4880892294 ; 2.012015036182489E8 ; 6.326495836177822E7 ; 8.025650754295169E9 ; 0.0
49 ; 1682962.819745564 ; 2.012139818317636E8 ; 6.494208884986745E7 ; 8.226852257913418E9 ; 0.0
50 ; 1683649.1761405258 ; 2.012265970222019E8 ; 6.662505166961301E7 ; 8.428066239745181E9 ; 0.0
51 ; 1691524.1583579595 ; 2.0123934272965637E8 ; 6.830870084575354E7 ; 8.629292836767384E9 ; 0.0
52 ; 1692086.2894611568 ; 2.012522127620769E8 ; 7.00002250041115E7 ; 8.83053217949704E9 ; 0.0
53 ; 1697939.289355518 ; 2.012652011858396E8 ; 7.169231129357265E7 ; 9.031784392259117E9 ; 0.0
54 ; 1701101.051232991 ; 2.0127830231618875E8 ; 7.339025058292817E7 ; 9.233049593444956E9 ; 0.0
55 ; 1705411.820753899 ; 2.012915107076414E8 ; 7.509135163416116E7 ; 9.434327895761145E9 ; 0.0
56 ; 1709244.6016726529 ; 2.013048211444291E8 ; 7.679676345491506E7 ; 9.635619406468786E9 ; 0.0
57 ; 1712470.0240066627 ; 2.0131822863103953E8 ; 7.850600805658771E7 ; 9.836924227613214E9 ; 0.0
58 ; 1717393.6140273707 ; 2.0133172838290876E8 ; 8.021847808059438E7 ; 1.0038242456244253E10 ; 0.0
59 ; 1722456.6233223842 ; 2.0134531581730545E8 ; 8.193587169462174E7 ; 1.0239574184627161E10 ; 0.0
60 ; 1722126.1852938647 ; 2.0135898654444006E8 ; 8.365832831794412E7 ; 1.0440919500444466E10 ; 0.0
61 ; 1727279.6815280805 ; 2.013727363588242E8 ; 8.538045450323799E7 ; 1.0642278486988905E10 ; 0.0
62 ; 1732053.477399767 ; 2.0138656123089924E8 ; 8.710773418476607E7 ; 1.0843651223347729E10 ; 0.0
63 ; 1735616.9003359063 ; 2.0140045729894826E8 ; 8.883978766216584E7 ; 1.1045037784578629E10 ; 0.0
64 ; 1736553.430394904 ; 2.0141442086129966E8 ; 9.057540456250174E7 ; 1.1246438241877577E10 ; 0.0
65 ; 1742084.3099449386 ; 2.014284483688285E8 ; 9.231195799289665E7 ; 1.1447852662738876E10 ; 0.0
66 ; 1743309.0240773018 ; 2.0144253641775712E8 ; 9.405404230284159E7 ; 1.1649281111107704E10 ; 0.0
67 ; 1748148.0382641363 ; 2.0145668174275422E8 ; 9.579735132691889E7 ; 1.1850723647525461E10 ; 0.0
68 ; 1751400.354918915 ; 2.0147088121033007E8 ; 9.754549936518303E7 ; 1.2052180329268215E10 ; 0.0
69 ; 1753035.0424492133 ; 2.0148513181252268E8 ; 9.929689972010194E7 ; 1.2253651210478546E10 ; 0.0
70 ; 1756698.0164336017 ; 2.01499430660869E8 ; 1.0104993476255114E8 ; 1.2455136342291069E10 ; 0.0
71 ; 1760540.373545595 ; 2.015137749806541E8 ; 1.0280663277898474E8 ; 1.2656635772951939E10 ; 0.0
72 ; 1764102.190922268 ; 2.0152816210542995E8 ; 1.0456717315253034E8 ; 1.2858149547932592E10 ; 0.0
73 ; 1770698.274173667 ; 2.0154258947179556E8 ; 1.0633127534345262E8 ; 1.3059677710038023E10 ; 0.0
74 ; 1770199.272715445 ; 2.015570546144288E8 ; 1.0810197361762628E8 ; 1.3261220299509819E10 ; 0.0
75 ; 1772782.1931084676 ; 2.015715551613608E8 ; 1.0987217289034173E8 ; 1.3462777354124249E10 ; 0.0
76 ; 1774231.0174807557 ; 2.0158608882948336E8 ; 1.116449550834502E8 ; 1.366434890928561E10 ; 0.0
77 ; 1779136.191398188 ; 2.0160065342027947E8 ; 1.1341918610093096E8 ; 1.3865934998115093E10 ; 0.0
78 ; 1779869.9402887127 ; 2.0161524681576753E8 ; 1.1519832229232915E8 ; 1.4067535651535372E10 ; 0.0
79 ; 1777674.2203399502 ; 2.016298669746496E8 ; 1.1697819223261786E8 ; 1.426915089835114E10 ; 0.0
80 ; 1779379.2378467831 ; 2.0164451192865467E8 ; 1.1875586645295781E8 ; 1.4470780765325788E10 ; 0.0
81 ; 1779056.9274651883 ; 2.0165917977906722E8 ; 1.2053524569080459E8 ; 1.4672425277254444E10 ; 0.0
82 ; 1778545.6810940262 ; 2.0167386869343284E8 ; 1.2231430261826977E8 ; 1.4874084457033512E10 ; 0.0
83 ; 1779422.0018361248 ; 2.0168857690243182E8 ; 1.2409284829936379E8 ; 1.5075758325726946E10 ; 0.0
84 ; 1779536.9806784145 ; 2.017033026969127E8 ; 1.2587227030119991E8 ; 1.5277446902629377E10 ; 0.0
85 ; 1778631.1518974109 ; 2.0171804442507768E8 ; 1.2765180728187832E8 ; 1.547915020532629E10 ; 0.0
86 ; 1780617.8630458936 ; 2.0173280048981187E8 ; 1.2943043843377574E8 ; 1.5680868249751368E10 ; 0.0
87 ; 1778736.642171358 ; 2.0174756934614962E8 ; 1.3121105629682162E8 ; 1.5882601050241179E10 ; 0.0
88 ; 1780506.7846654104 ; 2.017623494988704E8 ; 1.3298979293899298E8 ; 1.6084348619587328E10 ; 0.0
89 ; 1779066.4284471662 ; 2.017771395002177E8 ; 1.3477029972365838E8 ; 1.6286110969086199E10 ; 0.0
90 ; 1778967.6329613929 ; 2.0179193794773427E8 ; 1.3654936615210554E8 ; 1.6487888108586416E10 ; 0.0
91 ; 1780132.3623212674 ; 2.0180674348220795E8 ; 1.3832833378506693E8 ; 1.6689680046534151E10 ; 0.0
92 ; 1780604.2094765839 ; 2.0182155478572202E8 ; 1.401084661473882E8 ; 1.689148679001636E10 ; 0.0
93 ; 1779231.2113939363 ; 2.018363705798045E8 ; 1.4188907035686478E8 ; 1.7093308344802082E10 ; 0.0
94 ; 1777342.5295156774 ; 2.0185118962367135E8 ; 1.436683015682587E8 ; 1.7295144715381886E10 ; 0.0
95 ; 1780606.3925955195 ; 2.0186601071255824E8 ; 1.454456440977744E8 ; 1.7496995905005558E10 ; 0.0
96 ; 1778214.294134121 ; 2.018808326761367E8 ; 1.4722625049036992E8 ; 1.7698861915718117E10 ; 0.0
97 ; 1777658.8790120648 ; 2.0189565437700948E8 ; 1.4900446478450403E8 ; 1.7900742748394253E10 ; 0.0
98 ; 1775566.0739572647 ; 2.0191047470928144E8 ; 1.507821236635161E8 ; 1.8102638402771263E10 ; 0.0
99 ; 1774772.738312896 ; 2.0192529259720173E8 ; 1.5255768973747337E8 ; 1.8304548877480545E10 ; 0.0
100 ; 1775522.0689438006 ; 2.0194010699387348E8 ; 1.5433246247578627E8 ; 1.8506474170077747E10 ; 0.0
101 ; 1774466.734052523 ; 2.0195491688002723E8 ; 1.5610798454473007E8 ; 1.870841427707162E10 ; 0.0
102 ; 1775334.557821916 ; 2.0196972126285514E8 ; 1.5788245127878258E8 ; 1.891036919395165E10 ; 0.0
103 ; 1773422.3908820632 ; 2.0198451917490226E8 ; 1.596577858366045E8 ; 1.9112338915214504E10 ; 0.0
104 ; 1773166.604534804 ; 2.0199930967301214E8 ; 1.6143120822748658E8 ; 1.931432343438941E10 ; 0.0
105 ; 1772097.4349307402 ; 2.0201409183732376E8 ; 1.632043748320214E8 ; 1.951632274406242E10 ; 0.0
106 ; 1770942.029864372 ; 2.0202886477031738E8 ; 1.6497647226695213E8 ; 1.9718336835899742E10 ; 0.0
107 ; 1769630.586080844 ; 2.0204362759590596E8 ; 1.667474142968165E8 ; 1.992036570067006E10 ; 0.0
108 ; 1767997.3656385932 ; 2.020583794585709E8 ; 1.6851704488289735E8 ; 2.0122409328265965E10 ; 0.0
109 ; 1767552.8494366216 ; 2.020731195225386E8 ; 1.7028504224853593E8 ; 2.0324467707724537E10 ; 0.0
110 ; 1765502.2631143483 ; 2.020878469709966E8 ; 1.7205259509797254E8 ; 2.0526540827247074E10 ; 0.0
111 ; 1762105.7435559004 ; 2.0210256100534678E8 ; 1.738180973610869E8 ; 2.072862867421807E10 ; 0.0
112 ; 1762622.9176047798 ; 2.0211726084449384E8 ; 1.755802031046428E8 ; 2.093073123522342E10 ; 0.0
113 ; 1764117.8552916748 ; 2.021319457241672E8 ; 1.7734282602224758E8 ; 2.1132848496067913E10 ; 0.0
114 ; 1763067.266663327 ; 2.0214661489627454E8 ; 1.7910694387753925E8 ; 2.133498044179208E10 ; 0.0
115 ; 1761707.7524394286 ; 2.021612676282855E8 ; 1.8087001114420256E8 ; 2.1537127056688354E10 ; 0.0
116 ; 1757418.3132233648 ; 2.021759032026439E8 ; 1.82631718896642E8 ; 2.173928832431664E10 ; 0.0
117 ; 1756346.1444978982 ; 2.0219052091620716E8 ; 1.8438913720986536E8 ; 2.1941464227519283E10 ; 0.0
118 ; 1753991.6858515881 ; 2.022051200797111E8 ; 1.8614548335436326E8 ; 2.214365474843549E10 ; 0.0
119 ; 1753187.2995185812 ; 2.0221970001725954E8 ; 1.8789947504021484E8 ; 2.23458598685152E10 ; 0.0
120 ; 1753381.7726703559 ; 2.022342600658368E8 ; 1.8965266233973342E8 ; 2.254807956853246E10 ; 0.0
121 ; 1748106.616545904 ; 2.0224879957484236E8 ; 1.9140604411240378E8 ; 2.2750313828598297E10 ; 0.0
122 ; 1746514.2180716307 ; 2.0226331790564653E8 ; 1.931541507289497E8 ; 2.2952562628173138E10 ; 0.0
123 ; 1746327.9678334226 ; 2.0227781443116572E8 ; 1.9490066494702134E8 ; 2.3154825946078785E10 ; 0.0
124 ; 1747057.5461976612 ; 2.0229228853545684E8 ; 1.9664699291485476E8 ; 2.3357103760509953E10 ; 0.0
125 ; 1741950.4809214526 ; 2.0230673961332965E8 ; 1.9839405046105242E8 ; 2.355939604904541E10 ; 0.0
126 ; 1740221.9498529502 ; 2.0232116706997606E8 ; 2.0013600094197387E8 ; 2.376170278865874E10 ; 0.0
127 ; 1740237.8633202761 ; 2.0233557032061598E8 ; 2.018762228918268E8 ; 2.3964023955728718E10 ; 0.0
128 ; 1736675.1323308253 ; 2.0234994879015815E8 ; 2.036164607551471E8 ; 2.4166359526049335E10 ; 0.0
129 ; 1732644.7158259077 ; 2.0236430191287625E8 ; 2.0535313588747793E8 ; 2.4368709474839493E10 ; 0.0
130 ; 1732443.163035626 ; 2.023786291320986E8 ; 2.0708578060330385E8 ; 2.457107377675237E10 ; 0.0
131 ; 1724788.1324003504 ; 2.0239292989991137E8 ; 2.0881822376633948E8 ; 2.4773452405884468E10 ; 0.0
132 ; 1721246.59406998 ; 2.024072036768745E8 ; 2.1054301189873984E8 ; 2.4975845335784378E10 ; 0.0
133 ; 1717645.0657566094 ; 2.024214499317497E8 ; 2.1226425849280983E8 ; 2.5178252539461254E10 ; 0.0
134 ; 1711307.7908487385 ; 2.0243566814123997E8 ; 2.1398190355856645E8 ; 2.5380673989393005E10 ; 0.0
135 ; 1708140.6196729862 ; 2.024498577897401E8 ; 2.1569321134941518E8 ; 2.5583109657534245E10 ; 0.0
136 ; 1701726.8467809446 ; 2.0246401836909762E8 ; 2.1740135196908817E8 ; 2.5785559515323986E10 ; 0.0
137 ; 1699212.1460869757 ; 2.0247814937838393E8 ; 2.1910307881586912E8 ; 2.5988023533693085E10 ; 0.0
138 ; 1690798.349882117 ; 2.024922503236747E8 ; 2.2080229096195608E8 ; 2.619050168307147E10 ; 0.0
139 ; 1687264.8038144654 ; 2.0250632071783942E8 ; 2.224930893118382E8 ; 2.639299393339514E10 ; 0.0
140 ; 1682250.939489129 ; 2.0252036008033973E8 ; 2.2418035411565268E8 ; 2.659550025411298E10 ; 0.0
141 ; 1680140.6124805296 ; 2.0253436793703604E8 ; 2.258626050551418E8 ; 2.679802061419332E10 ; 0.0
142 ; 1675410.8062802488 ; 2.0254834382000178E8 ; 2.2754274566762233E8 ; 2.7000554982130356E10 ; 0.0
143 ; 1666945.0385859078 ; 2.025622872673456E8 ; 2.2921815647390258E8 ; 2.720310332595036E10 ; 0.0
144 ; 1660642.4798942136 ; 2.0257619782304034E8 ; 2.3088510151248848E8 ; 2.7405665613217705E10 ; 0.0
145 ; 1659624.324584745 ; 2.0259007503675926E8 ; 2.325457439923827E8 ; 2.7608241811040745E10 ; 0.0
146 ; 1660719.371159257 ; 2.026039184637187E8 ; 2.3420536831696746E8 ; 2.7810831886077503E10 ; 0.0
147 ; 1656195.9445469528 ; 2.0261772766452685E8 ; 2.358660876881267E8 ; 2.801343580454122E10 ; 0.0
148 ; 1653365.1916019965 ; 2.0263150220503882E8 ; 2.3752228363267368E8 ; 2.821605353220575E10 ; 0.0
149 ; 1649384.324620661 ; 2.026452416562173E8 ; 2.3917564882427567E8 ; 2.841868503441079E10 ; 0.0
150 ; 1650521.0864771863 ; 2.0265894559399873E8 ; 2.4082503314889634E8 ; 2.8621330276067005E10 ; 0.0
151 ; 1646033.566821678 ; 2.0267261359916466E8 ; 2.4247555423537353E8 ; 2.8823989221661003E10 ; 0.0
152 ; 1644262.1807475928 ; 2.0268624525721836E8 ; 2.441215878021952E8 ; 2.9026661835260166E10 ; 0.0
153 ; 1641078.1645519664 ; 2.0269984015826592E8 ; 2.457658499829428E8 ; 2.9229348080517384E10 ; 0.0
154 ; 1636227.1387870382 ; 2.0271339789690223E8 ; 2.4740692814749476E8 ; 2.9432047920675648E10 ; 0.0
155 ; 1634212.587826935 ; 2.027269180721012E8 ; 2.490431552862818E8 ; 2.963476131857255E10 ; 0.0
156 ; 1633736.156930962 ; 2.0274040028711036E8 ; 2.5067736787410873E8 ; 2.9837488236644653E10 ; 0.0
157 ; 1633998.3502243545 ; 2.0275384414934927E8 ; 2.5231110403103969E8 ; 3.0040228636931763E10 ; 0.0
158 ; 1631821.0275737625 ; 2.0276724927031204E8 ; 2.5394510238126403E8 ; 3.0242982481081112E10 ; 0.0
159 ; 1629899.7664715974 ; 2.0278061526547346E8 ; 2.555769234088378E8 ; 3.0445749730351425E10 ; 0.0
160 ; 1627098.3928740276 ; 2.0279394175419867E8 ; 2.572068231753094E8 ; 3.0648530345616898E10 ; 0.0
161 ; 1623580.6659753788 ; 2.028072283596562E8 ; 2.5883392156818342E8 ; 3.0851324287371098E10 ; 0.0
162 ; 1619200.4772583514 ; 2.028204747087346E8 ; 2.604575022341588E8 ; 3.1054131515730755E10 ; 0.0
163 ; 1616068.5203920084 ; 2.028336804319615E8 ; 2.6207670271141717E8 ; 3.125695199043949E10 ; 0.0
164 ; 1614475.9152808003 ; 2.028468451634266E8 ; 2.6369277123180917E8 ; 3.1459785670871452E10 ; 0.0
165 ; 1613518.2619281528 ; 2.0285996854070675E8 ; 2.6530724714708996E8 ; 3.1662632516034878E10 ; 0.0
166 ; 1611095.0790848858 ; 2.0287305020479426E8 ; 2.669207654090181E8 ; 3.1865492484575584E10 ; 0.0
167 ; 1607850.1779778253 ; 2.0288608980002776E8 ; 2.68531860488103E8 ; 3.206836553478038E10 ; 0.0
168 ; 1604478.070178536 ; 2.0289908697402543E8 ; 2.701397106660808E8 ; 3.2271251624580406E10 ; 0.0
169 ; 1601613.715986248 ; 2.02912041377621E8 ; 2.717441887362593E8 ; 3.2474150711554432E10 ; 0.0
170 ; 1599094.496013903 ; 2.0292495266480184E8 ; 2.7334580245224553E8 ; 3.2677062752932053E10 ; 0.0
171 ; 1596784.7740459393 ; 2.029378204926494E8 ; 2.749448969482594E8 ; 3.2879987705596855E10 ; 0.0
172 ; 1595532.794992398 ; 2.0295064452128193E8 ; 2.7654168172230536E8 ; 3.3082925526089504E10 ; 0.0
173 ; 1592827.8623524415 ; 2.02963424413799E8 ; 2.7813721451729774E8 ; 3.3285876170610786E10 ; 0.0
174 ; 1589969.5033282635 ; 2.0297615983622828E8 ; 2.797300423796502E8 ; 3.3488839595024586E10 ; 0.0
175 ; 1589515.5631370437 ; 2.0298885045747432E8 ; 2.8132001188297844E8 ; 3.3691815754860813E10 ; 0.0
176 ; 1585197.6203882194 ; 2.0300149594926876E8 ; 2.829095274461155E8 ; 3.3894804605318287E10 ; 0.0
177 ; 1586907.0287240657 ; 2.030140959861228E8 ; 2.844947250665037E8 ; 3.4097806101267555E10 ; 0.0
178 ; 1582935.767453512 ; 2.03026650245281E8 ; 2.860816320952278E8 ; 3.4300820197253677E10 ; 0.0
179 ; 1583358.2688434462 ; 2.0303915840667713E8 ; 2.8766456786268127E8 ; 3.4503846847498955E10 ; 0.0
180 ; 1579197.0939463817 ; 2.0305162015289113E8 ; 2.8924792613152474E8 ; 3.470688600590563E10 ; 0.0
181 ; 1579547.2544299122 ; 2.03064035169108E8 ; 2.9082712322547114E8 ; 3.4909937626058525E10 ; 0.0
182 ; 1575822.530768677 ; 2.030764031430779E8 ; 2.924066704799011E8 ; 3.511300166122763E10 ; 0.0
183 ; 1574407.7143564688 ; 2.0308872376507786E8 ; 2.9398249301066977E8 ; 3.531607806437071E10 ; 0.0
184 ; 1574449.6400379243 ; 2.031009967278746E8 ; 2.9555690072502625E8 ; 3.551916678813579E10 ; 0.0
185 ; 1572981.431613623 ; 2.0311322172668895E8 ; 2.971313503650642E8 ; 3.572226778486366E10 ; 0.0
186 ; 1571224.7361132533 ; 2.0312539845916125E8 ; 2.987043317966778E8 ; 3.5925381006590355E10 ; 0.0
187 ; 1566763.6246479342 ; 2.0313752662531826E8 ; 3.002755565327911E8 ; 3.6128506405049515E10 ; 0.0
188 ; 1564458.8881984972 ; 2.031496059275409E8 ; 3.01842320157439E8 ; 3.6331643931674835E10 ; 0.0
189 ; 1565418.0632245685 ; 2.031616360705334E8 ; 3.034067790456375E8 ; 3.653479353760238E10 ; 0.0
190 ; 1564478.946041092 ; 2.0317361676129338E8 ; 3.0497219710886204E8 ; 3.673795517367291E10 ; 0.0
191 ; 1563849.5747682552 ; 2.031855477090831E8 ; 3.0653667605490315E8 ; 3.6941128790434204E10 ; 0.0
192 ; 1559381.307863806 ; 2.0319742862540156E8 ; 3.081005256296714E8 ; 3.714431433814329E10 ; 0.0
193 ; 1555083.9611202285 ; 2.0320925922395763E8 ; 3.096599069375352E8 ; 3.734751176676869E10 ; 0.0
194 ; 1553760.1540777194 ; 2.032210392206442E8 ; 3.112149908986555E8 ; 3.755072102599265E10 ; 0.0
195 ; 1553275.9551046963 ; 2.032327683335132E8 ; 3.127687510527332E8 ; 3.7753942065213295E10 ; 0.0
196 ; 1553715.7746801781 ; 2.0324444628275135E8 ; 3.143220270078379E8 ; 3.795717483354681E10 ; 0.0
197 ; 1550628.3611586674 ; 2.0325607279065695E8 ; 3.158757427825181E8 ; 3.816041927982956E10 ; 0.0
198 ; 1548422.4334454557 ; 2.032676475816174E8 ; 3.1742637114367676E8 ; 3.836367535262022E10 ; 0.0
199 ; 1547395.165059144 ; 2.0327917038208738E8 ; 3.189747935771222E8 ; 3.8566943000201836E10 ; 0.0
