CSV File for the City 6 on Day 90
1 - Minute m 
2 - Power Consumed at minute m 
3 - Power Produced at minute m 
4 - Energy Consumed since the beginning of the day 
5 - Energy Produced since the beginning of the day 
6 - Energy Lost since the beginning of the day on lines starting from the city
 
0 ; 1.1187488558886869E7 ; 1.0609057761164704E8 ; 0.0 ; 0.0 ; 0.0
1 ; 1.1196946041261967E7 ; 1.062414646777932E8 ; 1.1187488558886869E7 ; 1.0609057761164704E8 ; 0.0
2 ; 1.1212111652907874E7 ; 1.0670134364634207E8 ; 2.2384434600148834E7 ; 2.1233204228944024E8 ; 0.0
3 ; 1.1224902117877679E7 ; 1.074702182723406E8 ; 3.3596546253056705E7 ; 3.190333859357823E8 ; 0.0
4 ; 1.1240074099416738E7 ; 1.0854809192165285E8 ; 4.482144837093438E7 ; 4.265036042081229E8 ; 0.0
5 ; 1.12616266931088E7 ; 1.0993496755208462E8 ; 5.606152247035112E7 ; 5.3505169612977576E8 ; 0.0
6 ; 1.1286843104269965E7 ; 1.116308476964753E8 ; 6.732314916345993E7 ; 6.449866636818604E8 ; 0.0
7 ; 1.1325361862994734E7 ; 1.1363573444797873E8 ; 7.86099922677299E7 ; 7.566175113783357E8 ; 0.0
8 ; 1.1375894220924584E7 ; 1.1594962944773126E8 ; 8.993535413072462E7 ; 8.702532458263144E8 ; 0.0
9 ; 1.1457511635324102E7 ; 1.1857253387507641E8 ; 1.0131124835164921E8 ; 9.862028752740457E8 ; 0.0
10 ; 1.15830325775955E7 ; 1.2150444844048196E8 ; 1.1276875998697332E8 ; 1.1047754091491222E9 ; 0.0
11 ; 1.1780658244839605E7 ; 1.2474537338124928E8 ; 1.2435179256456882E8 ; 1.2262798575896041E9 ; 0.0
12 ; 1.2099575691889273E7 ; 1.2829530846007696E8 ; 1.3613245080940843E8 ; 1.3510252309708533E9 ; 0.0
13 ; 1.2403144697689276E7 ; 1.3215425296649724E8 ; 1.482320265012977E8 ; 1.4793205394309304E9 ; 0.0
14 ; 1.2439951451827645E7 ; 1.3632220572116667E8 ; 1.6063517119898698E8 ; 1.6114747923974276E9 ; 0.0
15 ; 1.2447675903109433E7 ; 1.407991650829488E8 ; 1.7307512265081462E8 ; 1.7477969981185942E9 ; 0.0
16 ; 1.2464927098428644E7 ; 1.455851289586899E8 ; 1.8552279855392405E8 ; 1.8885961632015429E9 ; 0.0
17 ; 1.247833685344267E7 ; 1.5068009481555048E8 ; 1.979877256523527E8 ; 2.0341812921602328E9 ; 0.0
18 ; 1.2496505059339715E7 ; 1.560840596957248E8 ; 2.1046606250579536E8 ; 2.1848613869757833E9 ; 0.0
19 ; 1.2510395089563446E7 ; 1.6179702023334876E8 ; 2.2296256756513506E8 ; 2.3409454466715083E9 ; 0.0
20 ; 1.2526007049074547E7 ; 1.678189726733754E8 ; 2.3547296265469852E8 ; 2.502742466904857E9 ; 0.0
21 ; 1.2538477689064864E7 ; 1.741499128921754E8 ; 2.4799896970377308E8 ; 2.670561439578233E9 ; 0.0
22 ; 1.2553495852724843E7 ; 1.807898364196086E8 ; 2.6053744739283794E8 ; 2.844711352470408E9 ; 0.0
23 ; 1.2568033378692545E7 ; 1.8773873846230292E8 ; 2.730909432455628E8 ; 3.0255011888900166E9 ; 0.0
24 ; 1.257850506669649E7 ; 1.9499661392787415E8 ; 2.8565897662425536E8 ; 3.2132399273523197E9 ; 0.0
25 ; 1.2596918552567134E7 ; 2.012514983480066E8 ; 2.982374816909518E8 ; 3.408236541280194E9 ; 0.0
26 ; 1.2610483817900777E7 ; 2.0125693394066447E8 ; 3.1083440024351895E8 ; 3.6094880396282005E9 ; 0.0
27 ; 1.2626147273534888E7 ; 2.012626841604837E8 ; 3.234448840614197E8 ; 3.810744973568865E9 ; 0.0
28 ; 1.263961161651385E7 ; 2.0126874297097176E8 ; 3.360710313349546E8 ; 4.0120076577293487E9 ; 0.0
29 ; 1.265650487896673E7 ; 2.01275104162905E8 ; 3.4871064295146847E8 ; 4.2132764007003202E9 ; 0.0
30 ; 1.2671578424564105E7 ; 2.0128176137900808E8 ; 3.613671478304352E8 ; 4.414551504863225E9 ; 0.0
31 ; 1.2680477662931627E7 ; 2.0128870813798672E8 ; 3.7403872625499934E8 ; 4.615833266242233E9 ; 0.0
32 ; 1.2694734865120929E7 ; 2.012959378577601E8 ; 3.8671920391793096E8 ; 4.81712197438022E9 ; 0.0
33 ; 1.2705283546768848E7 ; 2.0130344387776238E8 ; 3.994139387830519E8 ; 5.018417912237981E9 ; 0.0
34 ; 1.2718667770880876E7 ; 2.013112194802053E8 ; 4.1211922232982075E8 ; 5.219721356115744E9 ; 0.0
35 ; 1.2733193828781094E7 ; 2.0131925791021517E8 ; 4.2483789010070163E8 ; 5.421032575595949E9 ; 0.0
36 ; 1.2741428578610329E7 ; 2.0132755239477858E8 ; 4.375710839294827E8 ; 5.622351833506165E9 ; 0.0
37 ; 1.275448337821768E7 ; 2.0133609616045108E8 ; 4.50312512508093E8 ; 5.823679385900943E9 ; 0.0
38 ; 1.276862934451974E7 ; 2.0134488244980043E8 ; 4.630669958863107E8 ; 6.025015482061394E9 ; 0.0
39 ; 1.2774699817205664E7 ; 2.0135390453657344E8 ; 4.7583562523083043E8 ; 6.226360364511194E9 ; 0.0
40 ; 1.2788519882800566E7 ; 2.0136315573958948E8 ; 4.886103250480361E8 ; 6.427714269047768E9 ; 0.0
41 ; 1.279668382972683E7 ; 2.0137262943537655E8 ; 5.013988449308367E8 ; 6.629077424787357E9 ; 0.0
42 ; 1.280305406304324E7 ; 2.013823190695779E8 ; 5.141955287605635E8 ; 6.8304500542227335E9 ; 0.0
43 ; 1.2813533219603343E7 ; 2.0139221816716537E8 ; 5.269985828236067E8 ; 7.031832373292312E9 ; 0.0
44 ; 1.2822608031845791E7 ; 2.0140232034150398E8 ; 5.3981211604321E8 ; 7.233224591459477E9 ; 0.0
45 ; 1.2828818368553469E7 ; 2.014126193023189E8 ; 5.526347240750558E8 ; 7.4346269118009815E9 ; 0.0
46 ; 1.2835547812443968E7 ; 2.014231088626191E8 ; 5.654635424436094E8 ; 7.6360395311033E9 ; 0.0
47 ; 1.2843014452406336E7 ; 2.0143378294463733E8 ; 5.782990902560533E8 ; 7.8374626399659195E9 ; 0.0
48 ; 1.2844764681264283E7 ; 2.014446355848469E8 ; 5.911421047084596E8 ; 8.038896422910557E9 ; 0.0
49 ; 1.2850801983997438E7 ; 2.0145566093811712E8 ; 6.039868693897239E8 ; 8.240341058495403E9 ; 0.0
50 ; 1.2858906077626176E7 ; 2.0146685328106982E8 ; 6.168376713737214E8 ; 8.44179671943352E9 ; 0.0
51 ; 1.2864290111149464E7 ; 2.014782070146993E8 ; 6.296965774513476E8 ; 8.64326357271459E9 ; 0.0
52 ; 1.286634342763094E7 ; 2.0148971666631517E8 ; 6.42560867562497E8 ; 8.84474177972929E9 ; 0.0
53 ; 1.287106976223817E7 ; 2.015013768908681E8 ; 6.554272109901279E8 ; 9.046231496395605E9 ; 0.0
54 ; 1.2873403331475236E7 ; 2.0151318247171468E8 ; 6.682982807523661E8 ; 9.247732873286472E9 ; 0.0
55 ; 1.2877628098231247E7 ; 2.0152512832087606E8 ; 6.811716840838413E8 ; 9.449246055758186E9 ; 0.0
56 ; 1.28782606058445E7 ; 2.015372094788417E8 ; 6.940493121820725E8 ; 9.650771184079062E9 ; 0.0
57 ; 1.288249438845627E7 ; 2.0154942111396763E8 ; 7.06927572787917E8 ; 9.852308393557903E9 ; 0.0
58 ; 1.2890318428286541E7 ; 2.0156175852151453E8 ; 7.198100671763732E8 ; 1.0053857814671871E10 ; 0.0
59 ; 1.289228722105536E7 ; 2.015742171223688E8 ; 7.327003856046598E8 ; 1.0255419573193386E10 ; 0.0
60 ; 1.2893442354276959E7 ; 2.015867924614866E8 ; 7.455926728257152E8 ; 1.0456993790315754E10 ; 0.0
61 ; 1.2897802415571725E7 ; 2.0159948020609736E8 ; 7.584861151799922E8 ; 1.065858058277724E10 ; 0.0
62 ; 1.2902110820092954E7 ; 2.0161227614370126E8 ; 7.713839175955639E8 ; 1.0860180062983337E10 ; 0.0
63 ; 1.2903079453940403E7 ; 2.016251761798916E8 ; 7.842860284156568E8 ; 1.1061792339127039E10 ; 0.0
64 ; 1.2903004464885151E7 ; 2.0163817633603042E8 ; 7.971891078695972E8 ; 1.126341751530693E10 ; 0.0
65 ; 1.2908909634621698E7 ; 2.0165127274680403E8 ; 8.100921123344823E8 ; 1.1465055691642962E10 ; 0.0
66 ; 1.291112235089373E7 ; 2.0166446165768075E8 ; 8.23001021969104E8 ; 1.1666706964389765E10 ; 0.0
67 ; 1.2915771741530277E7 ; 2.0167773942229337E8 ; 8.359121443199978E8 ; 1.1868371426047445E10 ; 0.0
68 ; 1.2915022133473858E7 ; 2.0169110249976453E8 ; 8.488279160615281E8 ; 1.2070049165469738E10 ; 0.0
69 ; 1.2916768031183813E7 ; 2.0170454745199236E8 ; 8.61742938195002E8 ; 1.2271740267969503E10 ; 0.0
70 ; 1.2919900618032433E7 ; 2.0171807094091162E8 ; 8.746597062261858E8 ; 1.2473444815421495E10 ; 0.0
71 ; 1.2922221836849976E7 ; 2.0173166972574392E8 ; 8.875796068442183E8 ; 1.2675162886362408E10 ; 0.0
72 ; 1.292349969665344E7 ; 2.017453406602485E8 ; 9.005018286810682E8 ; 1.2876894556088152E10 ; 0.0
73 ; 1.2925498823418245E7 ; 2.0175908068998444E8 ; 9.134253283777217E8 ; 1.30786398967484E10 ; 0.0
74 ; 1.292842595845002E7 ; 2.0177288684959355E8 ; 9.263508272011399E8 ; 1.3280398977438385E10 ; 0.0
75 ; 1.292812963005633E7 ; 2.0178675626011097E8 ; 9.3927925315959E8 ; 1.348217186428798E10 ; 0.0
76 ; 1.2931022979820518E7 ; 2.0180068612631142E8 ; 9.522073827896464E8 ; 1.368395862054809E10 ; 0.0
77 ; 1.293421421497799E7 ; 2.0181467373409602E8 ; 9.651384057694669E8 ; 1.3885759306674402E10 ; 0.0
78 ; 1.2928204555996094E7 ; 2.0182871644792503E8 ; 9.780726199844449E8 ; 1.4087573980408499E10 ; 0.0
79 ; 1.2925096331439188E7 ; 2.0184281170830056E8 ; 9.910008245404409E8 ; 1.4289402696856424E10 ; 0.0
80 ; 1.2922594503398448E7 ; 2.018569570293023E8 ; 1.00392592087188E9 ; 1.4491245508564724E10 ; 0.0
81 ; 1.2917755011294402E7 ; 2.0187114999617928E8 ; 1.0168485153752785E9 ; 1.4693102465594027E10 ; 0.0
82 ; 1.291836338553496E7 ; 2.0188538826299986E8 ; 1.0297662703865728E9 ; 1.4894973615590206E10 ; 0.0
83 ; 1.291671972768288E7 ; 2.0189966955036125E8 ; 1.0426846337721078E9 ; 1.5096859003853207E10 ; 0.0
84 ; 1.2911734083296876E7 ; 2.0191399164315975E8 ; 1.0556013534997907E9 ; 1.5298758673403568E10 ; 0.0
85 ; 1.2912398296265258E7 ; 2.019283523884228E8 ; 1.0685130875830876E9 ; 1.5500672665046728E10 ; 0.0
86 ; 1.290347933229673E7 ; 2.0194274969320294E8 ; 1.0814254858793528E9 ; 1.570260101743515E10 ; 0.0
87 ; 1.2900384230274731E7 ; 2.019571815225337E8 ; 1.0943289652116494E9 ; 1.5904543767128353E10 ; 0.0
88 ; 1.2897516565823758E7 ; 2.019716458974476E8 ; 1.107229349441924E9 ; 1.6106500948650887E10 ; 0.0
89 ; 1.2894590579418546E7 ; 2.019861408930552E8 ; 1.120126866007748E9 ; 1.6308472594548334E10 ; 0.0
90 ; 1.2888848854731068E7 ; 2.0200066463668567E8 ; 1.1330214565871665E9 ; 1.651045873544139E10 ; 0.0
91 ; 1.2885735601555767E7 ; 2.0201521530608663E8 ; 1.1459103054418976E9 ; 1.6712459400078075E10 ; 0.0
92 ; 1.2883790544779703E7 ; 2.0202979112768367E8 ; 1.1587960410434535E9 ; 1.6914474615384163E10 ; 0.0
93 ; 1.2875092185390938E7 ; 2.0204439037489772E8 ; 1.1716798315882332E9 ; 1.7116504406511847E10 ; 0.0
94 ; 1.2875100993024087E7 ; 2.0205901136651942E8 ; 1.1845549237736242E9 ; 1.7318548796886745E10 ; 0.0
95 ; 1.2869057060285991E7 ; 2.02073652465139E8 ; 1.1974300247666483E9 ; 1.7520607808253265E10 ; 0.0
96 ; 1.2861819922730193E7 ; 2.020883120756307E8 ; 1.2102990818269343E9 ; 1.7722681460718403E10 ; 0.0
97 ; 1.2861739183352325E7 ; 2.0210298864369014E8 ; 1.2231609017496645E9 ; 1.7924769772794033E10 ; 0.0
98 ; 1.2855926370248456E7 ; 2.021176806544233E8 ; 1.2360226409330168E9 ; 1.8126872761437725E10 ; 0.0
99 ; 1.2853308944144705E7 ; 2.0213238663098583E8 ; 1.2488785673032653E9 ; 1.8328990442092148E10 ; 0.0
100 ; 1.284566909508001E7 ; 2.0214710513327086E8 ; 1.26173187624741E9 ; 1.8531122828723133E10 ; 0.0
101 ; 1.2841649827255256E7 ; 2.021618347566444E8 ; 1.27457754534249E9 ; 1.8733269933856403E10 ; 0.0
102 ; 1.2835647078360049E7 ; 2.0217657413072664E8 ; 1.2874191951697452E9 ; 1.893543176861305E10 ; 0.0
103 ; 1.2828628236682575E7 ; 2.0219132191821733E8 ; 1.3002548422481053E9 ; 1.9137608342743774E10 ; 0.0
104 ; 1.2824383367836332E7 ; 2.0220607681376475E8 ; 1.313083470484788E9 ; 1.933979966466199E10 ; 0.0
105 ; 1.2816617315050416E7 ; 2.022208375428758E8 ; 1.3259078538526242E9 ; 1.9542005741475758E10 ; 0.0
106 ; 1.281438985550839E7 ; 2.0223560286086643E8 ; 1.3387244711676745E9 ; 1.9744226579018635E10 ; 0.0
107 ; 1.2806873769977517E7 ; 2.0225037155185112E8 ; 1.3515388610231829E9 ; 1.99464621818795E10 ; 0.0
108 ; 1.2800442517839305E7 ; 2.0226514242776972E8 ; 1.3643457347931604E9 ; 2.014871255343135E10 ; 0.0
109 ; 1.2794690094205773E7 ; 2.0227991432745034E8 ; 1.3771461773109996E9 ; 2.035097769585912E10 ; 0.0
110 ; 1.2788329448116018E7 ; 2.0229468611570734E8 ; 1.3899408674052055E9 ; 2.055325761018657E10 ; 0.0
111 ; 1.2784287783019282E7 ; 2.0230945668247306E8 ; 1.4027291968533216E9 ; 2.0755552296302277E10 ; 0.0
112 ; 1.277624047555602E7 ; 2.0232422494196168E8 ; 1.4155134846363409E9 ; 2.095786175298475E10 ; 0.0
113 ; 1.277050051258733E7 ; 2.0233898983186454E8 ; 1.428289725111897E9 ; 2.1160185977926712E10 ; 0.0
114 ; 1.27615799481232E7 ; 2.0235375031257558E8 ; 1.4410602256244843E9 ; 2.1362524967758575E10 ; 0.0
115 ; 1.2759405046761433E7 ; 2.0236850536644563E8 ; 1.4538218055726075E9 ; 2.156487871807115E10 ; 0.0
116 ; 1.2747459083181087E7 ; 2.023832539970648E8 ; 1.466581210619369E9 ; 2.17672472234376E10 ; 0.0
117 ; 1.2742340350102808E7 ; 2.0239799522857136E8 ; 1.4793286697025502E9 ; 2.1969630477434666E10 ; 0.0
118 ; 1.2736401196610503E7 ; 2.0241272810498688E8 ; 1.492071010052653E9 ; 2.217202847266324E10 ; 0.0
119 ; 1.2732943951207627E7 ; 2.0242745168957594E8 ; 1.5048074112492635E9 ; 2.2374441200768227E10 ; 0.0
120 ; 1.2720690760852773E7 ; 2.0244216506422994E8 ; 1.5175403552004712E9 ; 2.25768686524578E10 ; 0.0
121 ; 1.2715437649687948E7 ; 2.024568673288736E8 ; 1.530261045961324E9 ; 2.277931081752203E10 ; 0.0
122 ; 1.2704403055015244E7 ; 2.0247155760089397E8 ; 1.542976483611012E9 ; 2.2981767684850903E10 ; 0.0
123 ; 1.2700216788310062E7 ; 2.0248623501459044E8 ; 1.5556808866660273E9 ; 2.3184239242451797E10 ; 0.0
124 ; 1.269343669681537E7 ; 2.0250089872064516E8 ; 1.5683811034543374E9 ; 2.338672547746639E10 ; 0.0
125 ; 1.2684311313384429E7 ; 2.0251554788561335E8 ; 1.5810745401511526E9 ; 2.3589226376187035E10 ; 0.0
126 ; 1.2675717455490604E7 ; 2.0253018169143224E8 ; 1.5937588514645371E9 ; 2.3791741924072647E10 ; 0.0
127 ; 1.2665672964907106E7 ; 2.0254479933494836E8 ; 1.6064345689200277E9 ; 2.399427210576408E10 ; 0.0
128 ; 1.265736387654151E7 ; 2.025594000274622E8 ; 1.619100241884935E9 ; 2.419681690509903E10 ; 0.0
129 ; 1.2652208127341185E7 ; 2.025739829942896E8 ; 1.6317576057614765E9 ; 2.439937630512649E10 ; 0.0
130 ; 1.2639949524121953E7 ; 2.0258854747433943E8 ; 1.6444098138888178E9 ; 2.460195028812078E10 ; 0.0
131 ; 1.262923860252912E7 ; 2.026030927197065E8 ; 1.6570497634129398E9 ; 2.480453883559512E10 ; 0.0
132 ; 1.2614021143372014E7 ; 2.0261761799527973E8 ; 1.6696790020154688E9 ; 2.5007141928314827E10 ; 0.0
133 ; 1.2602376237977589E7 ; 2.026321225783643E8 ; 1.682293023158841E9 ; 2.520975954631011E10 ; 0.0
134 ; 1.258963885147163E7 ; 2.0264660575831786E8 ; 1.6948953993968184E9 ; 2.5412391668888474E10 ; 0.0
135 ; 1.2580221647167578E7 ; 2.0266106683619964E8 ; 1.70748503824829E9 ; 2.561503827464679E10 ; 0.0
136 ; 1.256595184822455E7 ; 2.0267550512443256E8 ; 1.7200652598954577E9 ; 2.581769934148299E10 ; 0.0
137 ; 1.2552648468914038E7 ; 2.0268991994647753E8 ; 1.7326312117436824E9 ; 2.602037484660742E10 ; 0.0
138 ; 1.2537152176686913E7 ; 2.0270431063651928E8 ; 1.7451838602125964E9 ; 2.6223064766553898E10 ; 0.0
139 ; 1.2524855937677685E7 ; 2.0271867653916386E8 ; 1.7577210123892834E9 ; 2.642576907719042E10 ; 0.0
140 ; 1.2513381915227352E7 ; 2.027330170091466E8 ; 1.770245868326961E9 ; 2.6628487753729584E10 ; 0.0
141 ; 1.2497389396882165E7 ; 2.0274733141105083E8 ; 1.7827592502421885E9 ; 2.683122077073873E10 ; 0.0
142 ; 1.2485006346569104E7 ; 2.027616191190365E8 ; 1.7952566396390705E9 ; 2.7033968102149784E10 ; 0.0
143 ; 1.247175265761108E7 ; 2.0277587951657847E8 ; 1.8077416459856396E9 ; 2.723672972126882E10 ; 0.0
144 ; 1.2456950321959306E7 ; 2.0279011199621415E8 ; 1.8202133986432507E9 ; 2.74395056007854E10 ; 0.0
145 ; 1.245020514969876E7 ; 2.028043159593E8 ; 1.83267034896521E9 ; 2.7642295712781616E10 ; 0.0
146 ; 1.2439783983000351E7 ; 2.0281849081577665E8 ; 1.8451205541149087E9 ; 2.7845100028740917E10 ; 0.0
147 ; 1.2432161844065588E7 ; 2.0283263598394224E8 ; 1.857560338097909E9 ; 2.8047918519556694E10 ; 0.0
148 ; 1.2421421570099834E7 ; 2.0284675089023393E8 ; 1.8699924999419746E9 ; 2.8250751155540638E10 ; 0.0
149 ; 1.2415219030960342E7 ; 2.0286083496901673E8 ; 1.8824139215120745E9 ; 2.845359790643087E10 ; 0.0
150 ; 1.240437593416443E7 ; 2.0287488766237986E8 ; 1.8948291405430348E9 ; 2.8656458741399887E10 ; 0.0
151 ; 1.2393065207496552E7 ; 2.0288890841994032E8 ; 1.9072335164771993E9 ; 2.8859333629062267E10 ; 0.0
152 ; 1.2386831176913662E7 ; 2.0290289669865304E8 ; 1.919626581684696E9 ; 2.906222253748221E10 ; 0.0
153 ; 1.2375120040644221E7 ; 2.029168519626277E8 ; 1.9320134128616097E9 ; 2.9265125434180862E10 ; 0.0
154 ; 1.23661924996965E7 ; 2.029307736829519E8 ; 1.9443885329022539E9 ; 2.946804228614349E10 ; 0.0
155 ; 1.2356985324190887E7 ; 2.0294466133752036E8 ; 1.9567547254019504E9 ; 2.9670973059826443E10 ; 0.0
156 ; 1.2349097357908541E7 ; 2.0295851441087E8 ; 1.9691117107261412E9 ; 2.9873917721163963E10 ; 0.0
157 ; 1.2341380380747326E7 ; 2.0297233239402062E8 ; 1.9814608080840497E9 ; 3.0076876235574833E10 ; 0.0
158 ; 1.2330751896175286E7 ; 2.029861147843211E8 ; 1.993802188464797E9 ; 3.0279848567968853E10 ; 0.0
159 ; 1.2321144262907863E7 ; 2.0299986108530065E8 ; 2.0061329403609724E9 ; 3.0482834682753174E10 ; 0.0
160 ; 1.231375203230384E7 ; 2.0301357080652532E8 ; 2.0184540846238804E9 ; 3.0685834543838474E10 ; 0.0
161 ; 1.2301678375106165E7 ; 2.030272434634591E8 ; 2.0307678366561842E9 ; 3.0888848114645E10 ; 0.0
162 ; 1.2292103196571603E7 ; 2.030408785773301E8 ; 2.0430695150312903E9 ; 3.109187535810846E10 ; 0.0
163 ; 1.2279240463223156E7 ; 2.0305447567500067E8 ; 2.055361618227862E9 ; 3.129491623668579E10 ; 0.0
164 ; 1.2275774212198885E7 ; 2.0306803428884232E8 ; 2.067640858691085E9 ; 3.149797071236079E10 ; 0.0
165 ; 1.2260354646028029E7 ; 2.030815539566147E8 ; 2.079916632903284E9 ; 3.170103874664963E10 ; 0.0
166 ; 1.2250807060228737E7 ; 2.0309503422134843E8 ; 2.092176987549312E9 ; 3.1904120300606247E10 ; 0.0
167 ; 1.2243022108777424E7 ; 2.0310847463123214E8 ; 2.104427794609541E9 ; 3.2107215334827595E10 ; 0.0
168 ; 1.223270679589947E7 ; 2.031218747395029E8 ; 2.1166708167183185E9 ; 3.2310323809458828E10 ; 0.0
169 ; 1.221812775456061E7 ; 2.0313523410434055E8 ; 2.1289035235142179E9 ; 3.251344568419833E10 ; 0.0
170 ; 1.2213415024730094E7 ; 2.031485522887653E8 ; 2.1411216512687786E9 ; 3.271658091830267E10 ; 0.0
171 ; 1.2201426981041957E7 ; 2.0316182886053893E8 ; 2.1533350662935085E9 ; 3.2919729470591434E10 ; 0.0
172 ; 1.2190464501873167E7 ; 2.031750633920689E8 ; 2.1655364932745504E9 ; 3.3122891299451973E10 ; 0.0
173 ; 1.2182885863357363E7 ; 2.031882554603159E8 ; 2.1777269577764235E9 ; 3.3326066362844044E10 ; 0.0
174 ; 1.2176567566953989E7 ; 2.032014046467043E8 ; 2.189909843639781E9 ; 3.352925461830436E10 ; 0.0
175 ; 1.2169307318797765E7 ; 2.0321451053703538E8 ; 2.202086411206735E9 ; 3.3732456022951065E10 ; 0.0
176 ; 1.2162253848928662E7 ; 2.0322757272140354E8 ; 2.2142557185255327E9 ; 3.3935670533488102E10 ; 0.0
177 ; 1.215748610393594E7 ; 2.032405907941152E8 ; 2.226417972374461E9 ; 3.4138898106209507E10 ; 0.0
178 ; 1.215213383878036E7 ; 2.0325356435361016E8 ; 2.238575458478397E9 ; 3.4342138697003624E10 ; 0.0
179 ; 1.2144035923772069E7 ; 2.0326649300238574E8 ; 2.2507275923171773E9 ; 3.454539226135723E10 ; 0.0
180 ; 1.2139739758429393E7 ; 2.032793763469231E8 ; 2.262871628240949E9 ; 3.474865875435962E10 ; 0.0
181 ; 1.2132309127732977E7 ; 2.0329221399761605E8 ; 2.2750113679993787E9 ; 3.495193813070654E10 ; 0.0
182 ; 1.2123995916509455E7 ; 2.0330500556870213E8 ; 2.2871436771271114E9 ; 3.515523034470416E10 ; 0.0
183 ; 1.2118682762277702E7 ; 2.0331775067819586E8 ; 2.299267673043621E9 ; 3.5358535350272865E10 ; 0.0
184 ; 1.21186528802351E7 ; 2.033304489478241E8 ; 2.3113863558058987E9 ; 3.556185310095106E10 ; 0.0
185 ; 1.2106015831900744E7 ; 2.0334310000296342E8 ; 2.323505008686134E9 ; 3.576518354989888E10 ; 0.0
186 ; 1.21033882143204E7 ; 2.0335570347257963E8 ; 2.3356110245180345E9 ; 3.596852664990184E10 ; 0.0
187 ; 1.2096039350353364E7 ; 2.0336825898916888E8 ; 2.3477144127323546E9 ; 3.617188235337442E10 ; 0.0
188 ; 1.2089119439691659E7 ; 2.0338076618870103E8 ; 2.359810452082708E9 ; 3.637525061236359E10 ; 0.0
189 ; 1.2081198369049108E7 ; 2.0339322471056443E8 ; 2.3718995715223994E9 ; 3.6578631378552284E10 ; 0.0
190 ; 1.2074403338235883E7 ; 2.0340563419751263E8 ; 2.3839807698914485E9 ; 3.678202460326285E10 ; 0.0
191 ; 1.2070252046319285E7 ; 2.034179942956127E8 ; 2.3960551732296844E9 ; 3.698543023746036E10 ; 0.0
192 ; 1.2061594641831478E7 ; 2.0343030465419522E8 ; 2.408125425276004E9 ; 3.7188848231755974E10 ; 0.0
193 ; 1.2057268427538073E7 ; 2.034425649258057E8 ; 2.420187019917835E9 ; 3.739227853641017E10 ; 0.0
194 ; 1.2052264240456102E7 ; 2.0345477476615757E8 ; 2.432244288345373E9 ; 3.7595721101335976E10 ; 0.0
195 ; 1.2045431340281742E7 ; 2.034669338340868E8 ; 2.4442965525858293E9 ; 3.7799175876102135E10 ; 0.0
