CSV File for the City 4 on Day 345
1 - Minute m 
2 - Power Consumed at minute m 
3 - Power Produced at minute m 
4 - Energy Consumed since the beginning of the day 
5 - Energy Produced since the beginning of the day 
6 - Energy Lost since the beginning of the day on lines starting from the city
 
0 ; 6838579.201097593 ; 1.0637881922380194E8 ; 0.0 ; 0.0 ; 0.0
1 ; 6844545.655101246 ; 1.065293946206215E8 ; 6838579.201097593 ; 1.0637881922380194E8 ; 0.0
2 ; 6851938.049011161 ; 1.0698899567105106E8 ; 1.368312485619884E7 ; 2.1290821384442344E8 ; 0.0
3 ; 6865184.914615228 ; 1.0775762583708668E8 ; 2.053506290521E7 ; 3.198972095154745E8 ; 0.0
4 ; 6870885.178821899 ; 1.0883528821367794E8 ; 2.740024781982523E7 ; 4.276548353525612E8 ; 0.0
5 ; 6884149.386103682 ; 1.1022198551417315E8 ; 3.427113299864712E7 ; 5.364901235662391E8 ; 0.0
6 ; 6901396.272728587 ; 1.1191772005735335E8 ; 4.1155282384750806E7 ; 6.467121090804123E8 ; 0.0
7 ; 6921515.433596343 ; 1.1392249375619984E8 ; 4.805667865747939E7 ; 7.586298291377656E8 ; 0.0
8 ; 6956367.961097314 ; 1.1623630810852057E8 ; 5.497819409107573E7 ; 8.725523228939655E8 ; 0.0
9 ; 7006323.259065619 ; 1.1885916418954444E8 ; 6.193456205217305E7 ; 9.88788631002486E8 ; 0.0
10 ; 7084543.288266377 ; 1.2179106264656788E8 ; 6.894088531123866E7 ; 1.1076477951920304E9 ; 0.0
11 ; 7209730.335510195 ; 1.250320036957173E8 ; 7.602542859950504E7 ; 1.2294388578385983E9 ; 0.0
12 ; 7408687.5196294775 ; 1.2858198712086627E8 ; 8.323515893501523E7 ; 1.3544708615343156E9 ; 0.0
13 ; 7597134.130785493 ; 1.3244101227471834E8 ; 9.064384645464471E7 ; 1.483052848655182E9 ; 0.0
14 ; 7621977.4611398615 ; 1.3660907808204472E8 ; 9.82409805854302E7 ; 1.6154938609299002E9 ; 0.0
15 ; 7626965.771142171 ; 1.4108618304503733E8 ; 1.0586295804657006E8 ; 1.7521029390119448E9 ; 0.0
16 ; 7636786.453050606 ; 1.45872325250715E8 ; 1.1348992381771223E8 ; 1.893189122056982E9 ; 0.0
17 ; 7644954.459422576 ; 1.5096750238029656E8 ; 1.2112671027076283E8 ; 2.039061447307697E9 ; 0.0
18 ; 7654550.054359514 ; 1.5637171172043377E8 ; 1.287716647301854E8 ; 2.1900289496879935E9 ; 0.0
19 ; 7660540.67351064 ; 1.6208495017617705E8 ; 1.3642621478454491E8 ; 2.3464006614084272E9 ; 0.0
20 ; 7670790.162771379 ; 1.681072142855303E8 ; 1.4408675545805556E8 ; 2.5084856115846043E9 ; 0.0
21 ; 7681862.050561294 ; 1.7443850023543844E8 ; 1.5175754562082693E8 ; 2.6765928258701344E9 ; 0.0
22 ; 7689662.994825659 ; 1.8107880387903804E8 ; 1.594394076713882E8 ; 2.8510313261055727E9 ; 0.0
23 ; 7697900.190122865 ; 1.880281207539963E8 ; 1.6712907066621387E8 ; 3.0321101299846106E9 ; 0.0
24 ; 7707009.195815654 ; 1.952864461017558E8 ; 1.7482697085633674E8 ; 3.220138250738607E9 ; 0.0
25 ; 7717809.857963177 ; 2.0154181578568685E8 ; 1.825339800521524E8 ; 3.4154246968403625E9 ; 0.0
26 ; 7727395.648415261 ; 2.0154777234849396E8 ; 1.9025178991011557E8 ; 3.6169665126260495E9 ; 0.0
27 ; 7732481.100879408 ; 2.0155407955799365E8 ; 1.9797918555853084E8 ; 3.8185142849745436E9 ; 0.0
28 ; 7745063.267402301 ; 2.015607316749529E8 ; 2.0571166665941024E8 ; 4.0200683645325375E9 ; 0.0
29 ; 7754023.351941411 ; 2.0156772276742902E8 ; 2.1345672992681253E8 ; 4.2216290962074904E9 ; 0.0
30 ; 7761161.742911677 ; 2.0157504673173836E8 ; 2.2121075327875394E8 ; 4.423196818974919E9 ; 0.0
31 ; 7769653.699436877 ; 2.0158269731315714E8 ; 2.289719150216656E8 ; 4.624771865706657E9 ; 0.0
32 ; 7777635.956593186 ; 2.0159066812622502E8 ; 2.3674156872110248E8 ; 4.8263545630198145E9 ; 0.0
33 ; 7786239.98724428 ; 2.0159895267453456E8 ; 2.4451920467769566E8 ; 5.02794523114604E9 ; 0.0
34 ; 7792492.41205777 ; 2.016075443699047E8 ; 2.5230544466493994E8 ; 5.229544183820575E9 ; 0.0
35 ; 7800704.3548017545 ; 2.016164365508497E8 ; 2.600979370769977E8 ; 5.431151728190479E9 ; 0.0
36 ; 7807243.788126976 ; 2.0162562250026903E8 ; 2.6789864143179944E8 ; 5.632768164741329E9 ; 0.0
37 ; 7814812.733869364 ; 2.0163509546229774E8 ; 2.757058852199264E8 ; 5.834393787241598E9 ; 0.0
38 ; 7818238.40842477 ; 2.0164484865826952E8 ; 2.835206979537958E8 ; 6.036028882703896E9 ; 0.0
39 ; 7825606.730314491 ; 2.0165487530175737E8 ; 2.913389363622206E8 ; 6.237673731362165E9 ; 0.0
40 ; 7831680.316559351 ; 2.0166516861266813E8 ; 2.991645430925351E8 ; 6.439328606663923E9 ; 0.0
41 ; 7837979.765933906 ; 2.0167572183037847E8 ; 3.0699622340909445E8 ; 6.640993775276591E9 ; 0.0
42 ; 7845610.52545027 ; 2.0168652822590894E8 ; 3.148342031750284E8 ; 6.84266949710697E9 ; 0.0
43 ; 7851133.365232756 ; 2.0169758111314178E8 ; 3.226798137004787E8 ; 7.044356025332879E9 ; 0.0
44 ; 7854769.159089898 ; 2.0170887385909602E8 ; 3.3053094706571144E8 ; 7.246053606446021E9 ; 0.0
45 ; 7859604.579156282 ; 2.0172039989328E8 ; 3.3838571622480136E8 ; 7.447762480305117E9 ; 0.0
46 ; 7863998.400670305 ; 2.0173215271614683E8 ; 3.4624532080395764E8 ; 7.649482880198397E9 ; 0.0
47 ; 7870617.771315454 ; 2.017441259066836E8 ; 3.5410931920462793E8 ; 7.851215032914543E9 ; 0.0
48 ; 7871291.691360717 ; 2.017563131291687E8 ; 3.619799369759434E8 ; 8.052959158821227E9 ; 0.0
49 ; 7872708.886165195 ; 2.0176870813913462E8 ; 3.698512286673041E8 ; 8.254715471950396E9 ; 0.0
50 ; 7876884.263827943 ; 2.0178130478857622E8 ; 3.777239375534693E8 ; 8.45648418008953E9 ; 0.0
51 ; 7878802.026430766 ; 2.0179409703044534E8 ; 3.856008218172972E8 ; 8.658265484878107E9 ; 0.0
52 ; 7883229.066349345 ; 2.0180707892247462E8 ; 3.93479623843728E8 ; 8.860059581908552E9 ; 0.0
53 ; 7883249.690184901 ; 2.0182024463037285E8 ; 4.0136285291007733E8 ; 9.061866660831026E9 ; 0.0
54 ; 7885680.492417329 ; 2.0183358843043435E8 ; 4.092461026002622E8 ; 9.2636869054614E9 ; 0.0
55 ; 7889564.566384829 ; 2.0184710471160513E8 ; 4.1713178309267956E8 ; 9.465520493891834E9 ; 0.0
56 ; 7889383.01072771 ; 2.0186078797704664E8 ; 4.250213476590644E8 ; 9.66736759860344E9 ; 0.0
57 ; 7892585.947312726 ; 2.018746328452376E8 ; 4.329107306697921E8 ; 9.869228386580486E9 ; 0.0
58 ; 7893718.684776322 ; 2.018886340506527E8 ; 4.408033166171048E8 ; 1.0071103019425724E10 ; 0.0
59 ; 7896512.144870393 ; 2.019027864440559E8 ; 4.4869703530188113E8 ; 1.0272991653476377E10 ; 0.0
60 ; 7897557.966512292 ; 2.0191708499244332E8 ; 4.5659354744675153E8 ; 1.0474894439920433E10 ; 0.0
61 ; 7900223.796044332 ; 2.019315247786706E8 ; 4.644911054132638E8 ; 1.0676811524912876E10 ; 0.0
62 ; 7901500.705973474 ; 2.0194610100079617E8 ; 4.7239132920930815E8 ; 1.0878743049691547E10 ; 0.0
63 ; 7902606.598439041 ; 2.019608089711708E8 ; 4.802928299152816E8 ; 1.1080689150692343E10 ; 0.0
64 ; 7905397.669492635 ; 2.0197564411530232E8 ; 4.8819543651372063E8 ; 1.1282649959663513E10 ; 0.0
65 ; 7909243.166395827 ; 2.0199060197052097E8 ; 4.961008341832133E8 ; 1.1484625603778816E10 ; 0.0
66 ; 7907560.509498548 ; 2.0200567818447143E8 ; 5.0401007734960914E8 ; 1.1686616205749336E10 ; 0.0
67 ; 7908087.918324002 ; 2.02020868513453E8 ; 5.119176378591077E8 ; 1.1888621883933807E10 ; 0.0
68 ; 7911352.424322914 ; 2.0203616882063034E8 ; 5.1982572577743167E8 ; 1.209064275244726E10 ; 0.0
69 ; 7910146.596040963 ; 2.0205157507413298E8 ; 5.2773707820175457E8 ; 1.229267892126789E10 ; 0.0
70 ; 7915658.461351219 ; 2.0206708334506267E8 ; 5.3564722479779553E8 ; 1.2494730496342024E10 ; 0.0
71 ; 7916172.206438151 ; 2.0208268980542412E8 ; 5.435628832591468E8 ; 1.2696797579687086E10 ; 0.0
72 ; 7917129.843630999 ; 2.0209839072599393E8 ; 5.51479055465585E8 ; 1.289888026949251E10 ; 0.0
73 ; 7915100.402823406 ; 2.0211418247414204E8 ; 5.59396185309216E8 ; 1.3100978660218504E10 ; 0.0
74 ; 7919994.606288264 ; 2.0213006151161703E8 ; 5.673112857120395E8 ; 1.3303092842692646E10 ; 0.0
75 ; 7923278.610014565 ; 2.0214602439230692E8 ; 5.752312803183278E8 ; 1.3505222904204264E10 ; 0.0
76 ; 7921078.507826246 ; 2.0216206775998482E8 ; 5.831545589283423E8 ; 1.3707368928596571E10 ; 0.0
77 ; 7920648.08529358 ; 2.021781883460492E8 ; 5.910756374361686E8 ; 1.3909530996356556E10 ; 0.0
78 ; 7918835.406120765 ; 2.021943829672654E8 ; 5.989962855214621E8 ; 1.4111709184702604E10 ; 0.0
79 ; 7917859.61573468 ; 2.0221064852351695E8 ; 6.069151209275829E8 ; 1.431390356766987E10 ; 0.0
80 ; 7918875.345004383 ; 2.0222698199557126E8 ; 6.148329805433176E8 ; 1.4516114216193388E10 ; 0.0
81 ; 7915693.224847825 ; 2.0224338044286653E8 ; 6.22751855888322E8 ; 1.471834119818896E10 ; 0.0
82 ; 7912654.264806572 ; 2.022598410013237E8 ; 6.306675491131698E8 ; 1.4920584578631826E10 ; 0.0
83 ; 7909738.120537782 ; 2.0227636088118804E8 ; 6.385802033779764E8 ; 1.512284441963315E10 ; 0.0
84 ; 7906641.8091223985 ; 2.0229293736490354E8 ; 6.464899414985142E8 ; 1.5325120780514338E10 ; 0.0
85 ; 7904035.695507345 ; 2.0230956780502367E8 ; 6.543965833076366E8 ; 1.5527413717879242E10 ; 0.0
86 ; 7905911.934485597 ; 2.0232624962216035E8 ; 6.623006190031439E8 ; 1.5729723285684265E10 ; 0.0
87 ; 7905073.72453013 ; 2.0234298030297378E8 ; 6.702065309376295E8 ; 1.5932049535306425E10 ; 0.0
88 ; 7901168.217344364 ; 2.023597573982046E8 ; 6.781116046621596E8 ; 1.61343925156094E10 ; 0.0
89 ; 7896764.518494463 ; 2.0237657852074972E8 ; 6.86012772879504E8 ; 1.6336752273007605E10 ; 0.0
90 ; 7894004.678772133 ; 2.0239344134378317E8 ; 6.939095373979985E8 ; 1.6539128851528355E10 ; 0.0
91 ; 7893479.72336085 ; 2.0241034359892222E8 ; 7.018035420767705E8 ; 1.6741522292872137E10 ; 0.0
92 ; 7892578.888113339 ; 2.024272830744398E8 ; 7.096970218001314E8 ; 1.694393263647106E10 ; 0.0
93 ; 7886909.229625345 ; 2.0244425761352322E8 ; 7.175896006882448E8 ; 1.71463599195455E10 ; 0.0
94 ; 7883353.8503934955 ; 2.0246126511257938E8 ; 7.254765099178702E8 ; 1.7348804177159023E10 ; 0.0
95 ; 7882475.309322895 ; 2.024783035195865E8 ; 7.333598637682637E8 ; 1.7551265442271603E10 ; 0.0
96 ; 7878939.001862099 ; 2.0249537083249187E8 ; 7.412423390775867E8 ; 1.7753743745791187E10 ; 0.0
97 ; 7877435.158305174 ; 2.0251246509765556E8 ; 7.491212780794487E8 ; 1.795623911662368E10 ; 0.0
98 ; 7872901.3212427655 ; 2.0252958440833944E8 ; 7.569987132377539E8 ; 1.8158751581721336E10 ; 0.0
99 ; 7870197.521252061 ; 2.0254672690324107E8 ; 7.648716145589967E8 ; 1.8361281166129677E10 ; 0.0
100 ; 7866167.390309193 ; 2.0256389076507157E8 ; 7.727418120802487E8 ; 1.8563827893032917E10 ; 0.0
101 ; 7865179.549909028 ; 2.02581074219177E8 ; 7.806079794705579E8 ; 1.876639178379799E10 ; 0.0
102 ; 7860979.985758698 ; 2.0259827553220236E8 ; 7.884731590204669E8 ; 1.8968972858017166E10 ; 0.0
103 ; 7853867.513524678 ; 2.026154930107973E8 ; 7.963341390062256E8 ; 1.917157113354937E10 ; 0.0
104 ; 7855395.738128025 ; 2.026327250003626E8 ; 8.041880065197502E8 ; 1.9374186626560165E10 ; 0.0
105 ; 7849226.992305028 ; 2.0264996988383698E8 ; 8.120434022578783E8 ; 1.9576819351560528E10 ; 0.0
106 ; 7850321.336760873 ; 2.0266722608052248E8 ; 8.198926292501833E8 ; 1.9779469321444366E10 ; 0.0
107 ; 7842789.748398753 ; 2.0268449204494813E8 ; 8.277429505869442E8 ; 1.9982136547524887E10 ; 0.0
108 ; 7839196.963456318 ; 2.0270176626577073E8 ; 8.35585740335343E8 ; 2.0184821039569836E10 ; 0.0
109 ; 7838760.141283883 ; 2.0271904726471165E8 ; 8.434249372987993E8 ; 2.0387522805835606E10 ; 0.0
110 ; 7829993.898422495 ; 2.0273633359552875E8 ; 8.512636974400831E8 ; 2.059024185310032E10 ; 0.0
111 ; 7827380.743878158 ; 2.0275362384302244E8 ; 8.590936913385056E8 ; 2.0792978186695847E10 ; 0.0
112 ; 7823005.827257615 ; 2.0277091662207493E8 ; 8.669210720823838E8 ; 2.0995731810538868E10 ; 0.0
113 ; 7820522.266881504 ; 2.0278821057672158E8 ; 8.747440779096414E8 ; 2.1198502727160942E10 ; 0.0
114 ; 7817147.076912128 ; 2.028055043792535E8 ; 8.825646001765229E8 ; 2.1401290937737663E10 ; 0.0
115 ; 7812822.042930561 ; 2.028227967293505E8 ; 8.90381747253435E8 ; 2.1604096442116917E10 ; 0.0
116 ; 7809762.09762724 ; 2.028400863532432E8 ; 8.981945692963656E8 ; 2.1806919238846268E10 ; 0.0
117 ; 7805574.678733126 ; 2.0285737200290358E8 ; 9.060043313939929E8 ; 2.2009759325199512E10 ; 0.0
118 ; 7801856.776077512 ; 2.028746524552633E8 ; 9.13809906072726E8 ; 2.2212616697202415E10 ; 0.0
119 ; 7793997.100679931 ; 2.0289192651145807E8 ; 9.216117628488035E8 ; 2.241549134965768E10 ; 0.0
120 ; 7791300.881283874 ; 2.029091929960985E8 ; 9.294057599494834E8 ; 2.261838327616914E10 ; 0.0
121 ; 7784169.615556552 ; 2.0292645075656512E8 ; 9.371970608307673E8 ; 2.2821292469165237E10 ; 0.0
122 ; 7778846.902773935 ; 2.029436986623281E8 ; 9.449812304463239E8 ; 2.3024218919921803E10 ; 0.0
123 ; 7776677.815723495 ; 2.0296093560428986E8 ; 9.527600773490978E8 ; 2.322716261858413E10 ; 0.0
124 ; 7772051.014391893 ; 2.0297816049415022E8 ; 9.605367551648214E8 ; 2.343012355418842E10 ; 0.0
125 ; 7767868.718982995 ; 2.0299537226379347E8 ; 9.683088061792133E8 ; 2.363310171468257E10 ; 0.0
126 ; 7765633.669129972 ; 2.030125698646962E8 ; 9.760766748981962E8 ; 2.3836097086946365E10 ; 0.0
127 ; 7756374.466074114 ; 2.030297522673556E8 ; 9.838423085673262E8 ; 2.403910965681106E10 ; 0.0
128 ; 7749766.6830875985 ; 2.0304691846073714E8 ; 9.915986830334003E8 ; 2.424213940907842E10 ; 0.0
129 ; 7747341.737774409 ; 2.030640674517413E8 ; 9.993484497164879E8 ; 2.4445186327539154E10 ; 0.0
130 ; 7741257.237885736 ; 2.0308119826468843E8 ; 1.0070957914542623E9 ; 2.4648250394990894E10 ; 0.0
131 ; 7734261.410371935 ; 2.0309830994082126E8 ; 1.014837048692148E9 ; 2.485133159325558E10 ; 0.0
132 ; 7724989.0161549095 ; 2.0311540153782445E8 ; 1.0225713101025199E9 ; 2.5054429903196404E10 ; 0.0
133 ; 7716053.647026933 ; 2.0313247212936044E8 ; 1.0302962991186748E9 ; 2.5257545304734226E10 ; 0.0
134 ; 7710784.893934631 ; 2.031495208046211E8 ; 1.0380123527657017E9 ; 2.5460677776863586E10 ; 0.0
135 ; 7701339.803711988 ; 2.0316654666789484E8 ; 1.0457231376596363E9 ; 2.566382729766821E10 ; 0.0
136 ; 7695582.5264941 ; 2.0318354883814812E8 ; 1.0534244774633483E9 ; 2.5866993844336105E10 ; 0.0
137 ; 7683049.748478243 ; 2.0320052644862148E8 ; 1.0611200599898424E9 ; 2.6070177393174255E10 ; 0.0
138 ; 7676914.566203879 ; 2.0321747864643905E8 ; 1.0688031097383207E9 ; 2.6273377919622875E10 ; 0.0
139 ; 7670284.467308798 ; 2.032344045922314E8 ; 1.0764800243045247E9 ; 2.6476595398269314E10 ; 0.0
140 ; 7664504.418654465 ; 2.0325130345977104E8 ; 1.0841503087718334E9 ; 2.6679829802861546E10 ; 0.0
141 ; 7652231.711161596 ; 2.032681744356203E8 ; 1.0918148131904879E9 ; 2.6883081106321316E10 ; 0.0
142 ; 7645837.158166222 ; 2.0328501671879107E8 ; 1.0994670449016495E9 ; 2.7086349280756935E10 ; 0.0
143 ; 7634397.93832581 ; 2.033018295204159E8 ; 1.1071128820598156E9 ; 2.7289634297475727E10 ; 0.0
144 ; 7629132.917073979 ; 2.033186120634302E8 ; 1.1147472799981415E9 ; 2.7492936126996143E10 ; 0.0
145 ; 7623131.481704716 ; 2.03335363582265E8 ; 1.1223764129152155E9 ; 2.7696254739059574E10 ; 0.0
146 ; 7616725.683480019 ; 2.0335208332255015E8 ; 1.1299995443969202E9 ; 2.7899590102641838E10 ; 0.0
147 ; 7610698.545032544 ; 2.033687705408273E8 ; 1.1376162700804002E9 ; 2.810294218596439E10 ; 0.0
148 ; 7603748.599898481 ; 2.0338542450427237E8 ; 1.1452269686254327E9 ; 2.830631095650522E10 ; 0.0
149 ; 7598967.882853366 ; 2.0340204449042735E8 ; 1.1528307172253313E9 ; 2.850969638100949E10 ; 0.0
150 ; 7595433.0664499635 ; 2.03418629786941E8 ; 1.1604296851081846E9 ; 2.871309842549992E10 ; 0.0
151 ; 7588301.122940272 ; 2.0343517969131798E8 ; 1.1680251181746345E9 ; 2.891651705528686E10 ; 0.0
152 ; 7584112.318498511 ; 2.0345169351067644E8 ; 1.1756134192975748E9 ; 2.911995223497818E10 ; 0.0
153 ; 7576354.4376972485 ; 2.0346817056151348E8 ; 1.1831975316160734E9 ; 2.9323403928488857E10 ; 0.0
154 ; 7572053.546016549 ; 2.0348461016947833E8 ; 1.1907738860537705E9 ; 2.952687209905037E10 ; 0.0
155 ; 7563615.651703667 ; 2.0350101166915295E8 ; 1.198345939599787E9 ; 2.973035670921985E10 ; 0.0
156 ; 7559890.766467459 ; 2.0351737440383986E8 ; 1.2059095552514906E9 ; 2.9933857720889E10 ; 0.0
157 ; 7552953.739520667 ; 2.0353369772535685E8 ; 1.2134694460179582E9 ; 3.013737509529284E10 ; 0.0
158 ; 7547558.456624493 ; 2.035499809938383E8 ; 1.2210223997574787E9 ; 3.0340908793018196E10 ; 0.0
159 ; 7538847.740801275 ; 2.035662235775432E8 ; 1.2285699582141032E9 ; 3.0544458774012035E10 ; 0.0
160 ; 7533809.836873968 ; 2.0358242485266897E8 ; 1.2361088059549046E9 ; 3.0748024997589577E10 ; 0.0
161 ; 7529209.742430868 ; 2.0359858420317167E8 ; 1.2436426157917786E9 ; 3.0951607422442245E10 ; 0.0
162 ; 7524205.442587353 ; 2.0361470102059188E8 ; 1.2511718255342095E9 ; 3.1155206006645416E10 ; 0.0
163 ; 7514686.642092423 ; 2.0363077470388612E8 ; 1.2586960309767969E9 ; 3.1358820707666008E10 ; 0.0
164 ; 7510308.509020004 ; 2.0364680465926367E8 ; 1.2662107176188893E9 ; 3.1562451482369896E10 ; 0.0
165 ; 7504462.438770019 ; 2.0366279030002883E8 ; 1.2737210261279094E9 ; 3.176609828702916E10 ; 0.0
166 ; 7502080.504400944 ; 2.036787310464278E8 ; 1.2812254885666795E9 ; 3.196976107732919E10 ; 0.0
167 ; 7492434.8322165115 ; 2.0369462632550088E8 ; 1.2887275690710804E9 ; 3.2173439808375618E10 ; 0.0
168 ; 7486751.164388529 ; 2.0371047557093906E8 ; 1.296220003903297E9 ; 3.237713443470112E10 ; 0.0
169 ; 7480164.482070157 ; 2.0372627822294533E8 ; 1.3037067550676854E9 ; 3.2580844910272057E10 ; 0.0
170 ; 7472579.384650544 ; 2.0374203372810018E8 ; 1.3111869195497556E9 ; 3.2784571188495003E10 ; 0.0
171 ; 7469120.408374026 ; 2.0375774153923157E8 ; 1.318659498934406E9 ; 3.2988313222223103E10 ; 0.0
172 ; 7462446.59662659 ; 2.0377340111528885E8 ; 1.32612861934278E9 ; 3.3192070963762333E10 ; 0.0
173 ; 7455125.540476115 ; 2.0378901192122063E8 ; 1.3335910659394066E9 ; 3.339584436487762E10 ; 0.0
174 ; 7450602.542226449 ; 2.0380457342785653E8 ; 1.3410461914798827E9 ; 3.359963337679884E10 ; 0.0
175 ; 7444317.760878401 ; 2.0382008511179262E8 ; 1.3484967940221093E9 ; 3.3803437950226696E10 ; 0.0
176 ; 7443019.646121273 ; 2.038355464552804E8 ; 1.3559411117829876E9 ; 3.400725803533849E10 ; 0.0
177 ; 7438794.476634237 ; 2.0385095694611913E8 ; 1.3633841314291089E9 ; 3.421109358179377E10 ; 0.0
178 ; 7436474.548594945 ; 2.0386631607755184E8 ; 1.3708229259057431E9 ; 3.441494453873989E10 ; 0.0
179 ; 7431642.030330315 ; 2.038816233481641E8 ; 1.378259400454338E9 ; 3.4618810854817444E10 ; 0.0
180 ; 7428824.077481293 ; 2.0389687826178628E8 ; 1.3856910424846685E9 ; 3.482269247816561E10 ; 0.0
181 ; 7423384.166937341 ; 2.0391208032739857E8 ; 1.3931198665621498E9 ; 3.50265893564274E10 ; 0.0
182 ; 7417973.388127207 ; 2.0392722905903915E8 ; 1.400543250729087E9 ; 3.52305014367548E10 ; 0.0
183 ; 7415494.8764771465 ; 2.039423239757149E8 ; 1.4079612241172142E9 ; 3.5434428665813835E10 ; 0.0
184 ; 7412101.145503111 ; 2.039573646013152E8 ; 1.4153767189936914E9 ; 3.563837098978955E10 ; 0.0
185 ; 7407267.459252866 ; 2.039723504645279E8 ; 1.4227888201391945E9 ; 3.584232835439087E10 ; 0.0
186 ; 7400781.692866375 ; 2.0398728109875837E8 ; 1.4301960875984473E9 ; 3.60463007048554E10 ; 0.0
187 ; 7399497.432182861 ; 2.0400215604205048E8 ; 1.4375968692913136E9 ; 3.6250287985954155E10 ; 0.0
188 ; 7395972.381911764 ; 2.0401697483701047E8 ; 1.4449963667234964E9 ; 3.645429014199621E10 ; 0.0
189 ; 7393766.010531841 ; 2.0403173703073272E8 ; 1.4523923391054082E9 ; 3.665830711683322E10 ; 0.0
190 ; 7388464.072734397 ; 2.0404644217472804E8 ; 1.45978610511594E9 ; 3.686233885386395E10 ; 0.0
191 ; 7385434.399521779 ; 2.04061089824854E8 ; 1.4671745691886744E9 ; 3.706638529603868E10 ; 0.0
192 ; 7379566.228440124 ; 2.0407567954124725E8 ; 1.4745600035881963E9 ; 3.727044638586353E10 ; 0.0
193 ; 7377026.531175686 ; 2.0409021088825822E8 ; 1.4819395698166363E9 ; 3.747452206540478E10 ; 0.0
194 ; 7371778.806778052 ; 2.0410468343438733E8 ; 1.489316596347812E9 ; 3.767861227629304E10 ; 0.0
195 ; 7369852.227272292 ; 2.0411909675222346E8 ; 1.49668837515459E9 ; 3.7882716959727425E10 ; 0.0
196 ; 7364565.566614724 ; 2.0413345041838402E8 ; 1.5040582273818622E9 ; 3.8086836056479645E10 ; 0.0
197 ; 7359714.584527673 ; 2.0414774401345703E8 ; 1.5114227929484768E9 ; 3.8290969506898026E10 ; 0.0
198 ; 7358019.255094004 ; 2.041619771219447E8 ; 1.5187825075330045E9 ; 3.849511725091148E10 ; 0.0
199 ; 7350822.693127758 ; 2.0417614933220875E8 ; 1.5261405267880986E9 ; 3.869927922803343E10 ; 0.0
200 ; 7348823.683986542 ; 1.6424785792149118E8 ; 1.5334913494812264E9 ; 3.890345537736564E10 ; 0.0
201 ; 7344808.150372143 ; 1.5536431621163845E8 ; 1.5408401731652129E9 ; 3.906770323528713E10 ; 0.0
