CSV File for the City 3 on Day 217
1 - Minute m 
2 - Power Consumed at minute m 
3 - Power Produced at minute m 
4 - Energy Consumed since the beginning of the day 
5 - Energy Produced since the beginning of the day 
6 - Energy Lost since the beginning of the day on lines starting from the city
 
0 ; 150877.4321367224 ; 1.052953092564511E8 ; 0.0 ; 0.0 ; 0.0
1 ; 153952.19029037093 ; 1.0544723935763258E8 ; 150877.4321367224 ; 1.052953092564511E8 ; 0.0
2 ; 156474.94575106958 ; 1.0590802516469017E8 ; 304829.62242709333 ; 2.1074254861408368E8 ; 0.0
3 ; 158892.03364713173 ; 1.0667767780122715E8 ; 461304.5681781629 ; 3.1665057377877384E8 ; 0.0
4 ; 163419.99055439656 ; 1.0775620789395541E8 ; 620196.6018252947 ; 4.23328251580001E8 ; 0.0
5 ; 167418.62795783285 ; 1.0914362533702064E8 ; 783616.5923796912 ; 5.310844594739564E8 ; 0.0
6 ; 174107.1432541647 ; 1.1083993904784349E8 ; 951035.2203375241 ; 6.40228084810977E8 ; 0.0
7 ; 181127.6245156967 ; 1.1284515672612494E8 ; 1125142.3635916887 ; 7.510680238588204E8 ; 0.0
8 ; 193644.4606103359 ; 1.1515928462945563E8 ; 1306269.9881073853 ; 8.639131805849454E8 ; 0.0
9 ; 210231.40638832035 ; 1.177823273796323E8 ; 1499914.4487177213 ; 9.79072465214401E8 ; 0.0
10 ; 236948.81562899987 ; 1.2071428781300008E8 ; 1710145.8551060415 ; 1.0968547925940332E9 ; 0.0
11 ; 278992.69740186684 ; 1.2395516688580516E8 ; 1947094.6707350414 ; 1.2175690804070334E9 ; 0.0
12 ; 345089.60720083956 ; 1.2750496364180133E8 ; 2226087.3681369084 ; 1.3415242472928386E9 ; 0.0
13 ; 409180.5270768467 ; 1.3136367524464345E8 ; 2571176.975337748 ; 1.46902921093464E9 ; 0.0
14 ; 415654.5340795393 ; 1.3553129707253486E8 ; 2980357.5024145944 ; 1.6003928861792834E9 ; 0.0
15 ; 420270.2591912603 ; 1.400078228678848E8 ; 3396012.0364941335 ; 1.7359241832518182E9 ; 0.0
16 ; 423029.5780374496 ; 1.4479324493099245E8 ; 3816282.2956853937 ; 1.875932006119703E9 ; 0.0
17 ; 425655.4679386333 ; 1.4988755434443703E8 ; 4239311.873722844 ; 2.0207252510506954E9 ; 0.0
18 ; 429936.4635006374 ; 1.5529074121407288E8 ; 4664967.341661477 ; 2.1706128053951325E9 ; 0.0
19 ; 434603.0744502207 ; 1.6100279491318813E8 ; 5094903.805162115 ; 2.3259035466092052E9 ; 0.0
20 ; 437114.25830475544 ; 1.6702370431817946E8 ; 5529506.879612336 ; 2.486906341522393E9 ; 0.0
21 ; 440507.90320665826 ; 1.7335345802659658E8 ; 5966621.137917091 ; 2.653930045840573E9 ; 0.0
22 ; 444274.00416203553 ; 1.799920445511924E8 ; 6407129.04112375 ; 2.8272835038671694E9 ; 0.0
23 ; 446823.6573435569 ; 1.869394524863143E8 ; 6851403.045285786 ; 3.0072755484183617E9 ; 0.0
24 ; 451484.99420364894 ; 1.9419567064532983E8 ; 7298226.702629343 ; 3.194215000904676E9 ; 0.0
25 ; 454933.4533733855 ; 2.0044872906784403E8 ; 7749711.696832991 ; 3.388410671550006E9 ; 0.0
26 ; 458020.0601219909 ; 2.0045216513915908E8 ; 8204645.150206377 ; 3.58885940061785E9 ; 0.0
27 ; 461375.04032784404 ; 2.004557381740561E8 ; 8662665.210328368 ; 3.789311565757009E9 ; 0.0
28 ; 464209.6335350603 ; 2.0045943870198357E8 ; 9124040.250656212 ; 3.989767303931065E9 ; 0.0
29 ; 467227.5403997003 ; 2.0046325778159425E8 ; 9588249.884191273 ; 4.1902267426330485E9 ; 0.0
30 ; 472713.1059932554 ; 2.0046718700813353E8 ; 1.0055477424590973E7 ; 4.390690000414642E9 ; 0.0
31 ; 475918.04944272013 ; 2.0047121850987935E8 ; 1.052819053058423E7 ; 4.591157187422776E9 ; 0.0
32 ; 477996.32455690537 ; 2.0047534493624184E8 ; 1.1004108580026949E7 ; 4.791628405932655E9 ; 0.0
33 ; 481780.5355991875 ; 2.004795594397531E8 ; 1.1482104904583855E7 ; 4.992103750868897E9 ; 0.0
34 ; 484971.7261056529 ; 2.0048385565380168E8 ; 1.1963885440183042E7 ; 5.192583310308651E9 ; 0.0
35 ; 488113.1491797053 ; 2.004882276676186E8 ; 1.2448857166288694E7 ; 5.393067165962453E9 ; 0.0
36 ; 491891.5178595314 ; 2.0049266999970865E8 ; 1.2936970315468399E7 ; 5.593555393630072E9 ; 0.0
37 ; 493124.62987544393 ; 2.004971775706531E8 ; 1.342886183332793E7 ; 5.79404806362978E9 ; 0.0
38 ; 496561.71139887074 ; 2.005017456759818E8 ; 1.3921986463203374E7 ; 5.994545241200433E9 ; 0.0
39 ; 499044.102719463 ; 2.0050636995962787E8 ; 1.4418548174602246E7 ; 6.195046986876414E9 ; 0.0
40 ; 502682.18927188596 ; 2.005110463883278E8 ; 1.491759227732171E7 ; 6.395553356836042E9 ; 0.0
41 ; 504437.7798033509 ; 2.0051577122721034E8 ; 1.5420274466593595E7 ; 6.59606440322437E9 ; 0.0
42 ; 507409.94841816305 ; 2.005205410167258E8 ; 1.5924712246396946E7 ; 6.79658017445158E9 ; 0.0
43 ; 508887.47782551474 ; 2.00525352550997E8 ; 1.6432122194815109E7 ; 6.997100715468306E9 ; 0.0
44 ; 511505.99792480835 ; 2.0053020285761926E8 ; 1.694100967264062E7 ; 7.197626068019302E9 ; 0.0
45 ; 514188.4102661189 ; 2.0053508917889982E8 ; 1.745251567056543E7 ; 7.398156270876922E9 ; 0.0
46 ; 515481.46064903354 ; 2.005400089544978E8 ; 1.796670408083155E7 ; 7.598691360055821E9 ; 0.0
47 ; 518160.32426048827 ; 2.0054495980540863E8 ; 1.8482185541480582E7 ; 7.799231369010319E9 ; 0.0
48 ; 519666.9229496932 ; 2.0054993951922384E8 ; 1.900034586574107E7 ; 7.999776328815727E9 ; 0.0
49 ; 520476.98085269233 ; 2.0055494603659052E8 ; 1.9520012788690764E7 ; 8.200326268334951E9 ; 0.0
50 ; 522180.05930667074 ; 2.005599774387912E8 ; 2.0040489769543458E7 ; 8.400881214371542E9 ; 0.0
51 ; 524295.0240039072 ; 2.0056503193636426E8 ; 2.0562669828850128E7 ; 8.601441191810333E9 ; 0.0
52 ; 526844.0936301622 ; 2.0057010785868713E8 ; 2.1086964852854036E7 ; 8.802006223746698E9 ; 0.0
53 ; 528316.2288081882 ; 2.005752036444457E8 ; 2.1613808946484197E7 ; 9.002576331605385E9 ; 0.0
54 ; 528161.1568543654 ; 2.0058031783291873E8 ; 2.2142125175292384E7 ; 9.20315153524983E9 ; 0.0
55 ; 530275.9406452572 ; 2.0058544905600902E8 ; 2.267028633214675E7 ; 9.403731853082748E9 ; 0.0
56 ; 531551.4474477827 ; 2.005905960309575E8 ; 2.3200562272792008E7 ; 9.604317302138758E9 ; 0.0
57 ; 532833.8025231413 ; 2.0059575755368185E8 ; 2.3732113720239792E7 ; 9.804907898169716E9 ; 0.0
58 ; 534091.8520152075 ; 2.006009324926845E8 ; 2.4264947522762932E7 ; 1.0005503655723398E10 ; 0.0
59 ; 535982.4199484095 ; 2.0060611978348032E8 ; 2.479903937477814E7 ; 1.0206104588216084E10 ; 0.0
60 ; 537898.4047743583 ; 2.0061131842349723E8 ; 2.533502179472655E7 ; 1.0406710707999563E10 ; 0.0
61 ; 537862.983569593 ; 2.0061652746740833E8 ; 2.5872920199500907E7 ; 1.0607322026423061E10 ; 0.0
62 ; 540294.8313755279 ; 2.0062174602285647E8 ; 2.64107831830705E7 ; 1.080793855389047E10 ; 0.0
63 ; 541004.354158552 ; 2.006269732465364E8 ; 2.6951078014446028E7 ; 1.1008560299913326E10 ; 0.0
64 ; 542690.74334363 ; 2.0063220834060258E8 ; 2.7492082368604578E7 ; 1.1209187273159863E10 ; 0.0
65 ; 543043.5963864431 ; 2.006374505493733E8 ; 2.8034773111948207E7 ; 1.1409819481500465E10 ; 0.0
66 ; 544852.9662052649 ; 2.006426991563052E8 ; 2.857781670833465E7 ; 1.1610456932049839E10 ; 0.0
67 ; 545151.462579026 ; 2.006479534812137E8 ; 2.9122669674539916E7 ; 1.1811099631206144E10 ; 0.0
68 ; 546651.509438099 ; 2.006532128777181E8 ; 2.9667821137118943E7 ; 1.2011747584687359E10 ; 0.0
69 ; 548485.8524847961 ; 2.0065847673089087E8 ; 3.021447264655704E7 ; 1.2212400797565077E10 ; 0.0
70 ; 549817.7126058746 ; 2.0066374445509422E8 ; 3.0762958499041837E7 ; 1.2413059274295967E10 ; 0.0
71 ; 550473.425610711 ; 2.0066901549198666E8 ; 3.131277621164771E7 ; 1.261372301875106E10 ; 0.0
72 ; 552313.0063538296 ; 2.006742893086854E8 ; 3.186324963725842E7 ; 1.2814392034243048E10 ; 0.0
73 ; 552466.2349146302 ; 2.0067956539607123E8 ; 3.241556264361225E7 ; 1.3015066323551733E10 ; 0.0
74 ; 554289.7752024233 ; 2.0068484326722315E8 ; 3.296802887852688E7 ; 1.3215745888947803E10 ; 0.0
75 ; 555801.0439709588 ; 2.0069012245597258E8 ; 3.3522318653729305E7 ; 1.3416430732215027E10 ; 0.0
76 ; 555541.3176262644 ; 2.0069540251556602E8 ; 3.407811969770026E7 ; 1.3617120854671E10 ; 0.0
77 ; 556370.0433757273 ; 2.0070068301742822E8 ; 3.463366101532653E7 ; 1.3817816257186565E10 ; 0.0
78 ; 556092.423370924 ; 2.007059635500165E8 ; 3.519003105870226E7 ; 1.4018516940203993E10 ; 0.0
79 ; 557400.2046489825 ; 2.007112437177594E8 ; 3.574612348207319E7 ; 1.421922290375401E10 ; 0.0
80 ; 559427.4656747859 ; 2.0071652314007246E8 ; 3.630352368672217E7 ; 1.441993414747177E10 ; 0.0
81 ; 558284.197595711 ; 2.0072180145044482E8 ; 3.6862951152396955E7 ; 1.4620650670611841E10 ; 0.0
82 ; 559157.646166174 ; 2.0072707829559115E8 ; 3.742123534999266E7 ; 1.4821372472062286E10 ; 0.0
83 ; 558176.5100018714 ; 2.0073235333466357E8 ; 3.798039299615884E7 ; 1.5022099550357878E10 ; 0.0
84 ; 558246.3478036573 ; 2.0073762623851877E8 ; 3.853856950616071E7 ; 1.5222831903692541E10 ; 0.0
85 ; 559389.1180574077 ; 2.0074289668903607E8 ; 3.9096815853964366E7 ; 1.542356952993106E10 ; 0.0
86 ; 558854.788617751 ; 2.0074816437848237E8 ; 3.965620497202177E7 ; 1.5624312426620096E10 ; 0.0
87 ; 559420.919341209 ; 2.0075342900892055E8 ; 4.0215059760639526E7 ; 1.5825060590998579E10 ; 0.0
88 ; 558833.5973017524 ; 2.0075869029165772E8 ; 4.077448067998073E7 ; 1.60258140200075E10 ; 0.0
89 ; 559053.545488202 ; 2.007639479467305E8 ; 4.1333314277282484E7 ; 1.6226572710299158E10 ; 0.0
90 ; 560521.7155155644 ; 2.007692017024245E8 ; 4.1892367822770685E7 ; 1.6427336658245888E10 ; 0.0
91 ; 558904.6517823151 ; 2.0077445129482532E8 ; 4.245288953828625E7 ; 1.6628105859948313E10 ; 0.0
92 ; 559168.3322641423 ; 2.007796964673989E8 ; 4.301179419006856E7 ; 1.6828880311243137E10 ; 0.0
93 ; 558234.5393869458 ; 2.0078493697059906E8 ; 4.35709625223327E7 ; 1.7029660007710537E10 ; 0.0
94 ; 559706.09680864 ; 2.0079017256149998E8 ; 4.412919706171964E7 ; 1.7230444944681137E10 ; 0.0
95 ; 558948.6691615081 ; 2.0079540300345233E8 ; 4.468890315852828E7 ; 1.7431235117242638E10 ; 0.0
96 ; 559203.64486768 ; 2.0080062806576067E8 ; 4.524785182768979E7 ; 1.763203052024609E10 ; 0.0
97 ; 559459.0739754778 ; 2.0080584752338135E8 ; 4.580705547255747E7 ; 1.783283114831185E10 ; 0.0
98 ; 558465.5146310413 ; 2.0081106115663892E8 ; 4.636651454653295E7 ; 1.803363699583523E10 ; 0.0
99 ; 559566.8559699494 ; 2.008162687509599E8 ; 4.692498006116399E7 ; 1.823444805699187E10 ; 0.0
100 ; 557656.1100005787 ; 2.0082147009662288E8 ; 4.748454691713394E7 ; 1.8435264325742832E10 ; 0.0
101 ; 557916.1171280287 ; 2.008266649885236E8 ; 4.804220302713452E7 ; 1.8636085795839455E10 ; 0.0
102 ; 558532.7157631221 ; 2.008318532259542E8 ; 4.860011914426255E7 ; 1.883691246082798E10 ; 0.0
103 ; 557409.7800131149 ; 2.008370346123954E8 ; 4.9158651860025674E7 ; 1.9037744314053936E10 ; 0.0
104 ; 557636.0257079914 ; 2.0084220895532107E8 ; 4.971606164003879E7 ; 1.9238581348666332E10 ; 0.0
105 ; 557706.1003033113 ; 2.0084737606601405E8 ; 5.027369766574678E7 ; 1.9439423557621655E10 ; 0.0
106 ; 558660.4651319816 ; 2.008525357593929E8 ; 5.083140376605009E7 ; 1.9640270933687668E10 ; 0.0
107 ; 557159.390609396 ; 2.0085768785384828E8 ; 5.1390064231182076E7 ; 1.984112346944706E10 ; 0.0
108 ; 556477.724942185 ; 2.0086283217108893E8 ; 5.1947223621791475E7 ; 2.0041981157300907E10 ; 0.0
109 ; 557042.8064543746 ; 2.0086796853599626E8 ; 5.250370134673366E7 ; 2.0242843989471996E10 ; 0.0
110 ; 555592.4800867148 ; 2.0087309677648687E8 ; 5.3060744153188035E7 ; 2.044371195800799E10 ; 0.0
111 ; 556433.0050456395 ; 2.008782167233833E8 ; 5.361633663327475E7 ; 2.0644585054784477E10 ; 0.0
112 ; 555117.2986912796 ; 2.0088332821029133E8 ; 5.417276963832039E7 ; 2.0845463271507862E10 ; 0.0
113 ; 555153.7121333646 ; 2.008884310734843E8 ; 5.472788693701167E7 ; 2.1046346599718155E10 ; 0.0
114 ; 554688.320838261 ; 2.0089352515179375E8 ; 5.528304064914503E7 ; 2.1247235030791637E10 ; 0.0
115 ; 554454.3186043424 ; 2.0089861028650588E8 ; 5.583772896998329E7 ; 2.144812855594343E10 ; 0.0
116 ; 555103.9938135562 ; 2.0090368632126367E8 ; 5.639218328858763E7 ; 2.164902716622994E10 ; 0.0
117 ; 554289.33211933 ; 2.0090875310197395E8 ; 5.694728728240119E7 ; 2.18499308525512E10 ; 0.0
118 ; 552470.1192039787 ; 2.009138104767199E8 ; 5.750157661452052E7 ; 2.2050839605653175E10 ; 0.0
119 ; 553741.4447588883 ; 2.0091885829567754E8 ; 5.80540467337245E7 ; 2.2251753416129894E10 ; 0.0
120 ; 554245.6656098028 ; 2.0092389641103706E8 ; 5.860778817848338E7 ; 2.245267227442557E10 ; 0.0
121 ; 551910.0249522727 ; 2.0092892467692798E8 ; 5.916203384409318E7 ; 2.265359617083661E10 ; 0.0
122 ; 552199.7002181727 ; 2.0093394294934833E8 ; 5.971394386904545E7 ; 2.285452509551354E10 ; 0.0
123 ; 551432.2089832325 ; 2.0093895108609715E8 ; 6.026614356926362E7 ; 2.3055459038462887E10 ; 0.0
124 ; 550469.7469103877 ; 2.0094394894671085E8 ; 6.081757577824686E7 ; 2.3256397989548985E10 ; 0.0
125 ; 549029.3184793007 ; 2.0094893639240247E8 ; 6.136804552515724E7 ; 2.3457341938495697E10 ; 0.0
126 ; 548732.990813138 ; 2.0095391328600404E8 ; 6.191707484363654E7 ; 2.36582908748881E10 ; 0.0
127 ; 549042.8205304662 ; 2.0095887949191195E8 ; 6.246580783444968E7 ; 2.3859244788174103E10 ; 0.0
128 ; 548357.4855666356 ; 2.009638348760349E8 ; 6.3014850654980145E7 ; 2.4060203667666016E10 ; 0.0
129 ; 548152.3499838687 ; 2.0096877930574438E8 ; 6.3563208140546784E7 ; 2.426116750254205E10 ; 0.0
130 ; 546502.1485881797 ; 2.0097371264982784E8 ; 6.4111360490530655E7 ; 2.4462136281847794E10 ; 0.0
131 ; 545125.2170578053 ; 2.0097863477844378E8 ; 6.4657862639118835E7 ; 2.466310999449762E10 ; 0.0
132 ; 542246.3710854689 ; 2.0098354556307927E8 ; 6.520298785617664E7 ; 2.4864088629276062E10 ; 0.0
133 ; 542239.7725396319 ; 2.0098844487650937E8 ; 6.574523422726211E7 ; 2.506507217483914E10 ; 0.0
134 ; 541053.0383853668 ; 2.0099333259275866E8 ; 6.628747399980174E7 ; 2.5266060619715652E10 ; 0.0
135 ; 539531.4413182484 ; 2.0099820858706445E8 ; 6.682852703818711E7 ; 2.546705395230841E10 ; 0.0
136 ; 538212.0856495741 ; 2.010030727358418E8 ; 6.736805847950536E7 ; 2.5668052160895473E10 ; 0.0
137 ; 536970.2834599066 ; 2.0100792491665018E8 ; 6.790627056515494E7 ; 2.5869055233631317E10 ; 0.0
138 ; 535900.4449309225 ; 2.010127650081617E8 ; 6.844324084861484E7 ; 2.6070063158547966E10 ; 0.0
139 ; 533092.2451453963 ; 2.010175928901308E8 ; 6.897914129354577E7 ; 2.627107592355613E10 ; 0.0
140 ; 531403.233595266 ; 2.010224084433654E8 ; 6.951223353869116E7 ; 2.647209351644626E10 ; 0.0
141 ; 529781.4327011046 ; 2.0102721154969937E8 ; 7.004363677228643E7 ; 2.6673115924889626E10 ; 0.0
142 ; 528936.5958645924 ; 2.0103200209196624E8 ; 7.057341820498754E7 ; 2.6874143136439323E10 ; 0.0
143 ; 526697.3046737721 ; 2.0103677995397413E8 ; 7.110235480085213E7 ; 2.707517513853129E10 ; 0.0
144 ; 525773.0670558264 ; 2.0104154502048177E8 ; 7.162905210552591E7 ; 2.7276211918485264E10 ; 0.0
145 ; 525388.623380988 ; 2.010462971771758E8 ; 7.215482517258173E7 ; 2.7477253463505745E10 ; 0.0
146 ; 524659.4971039578 ; 2.010510363106488E8 ; 7.268021379596272E7 ; 2.7678299760682922E10 ; 0.0
147 ; 523522.8726778502 ; 2.010557623083787E8 ; 7.320487329306668E7 ; 2.7879350796993572E10 ; 0.0
148 ; 522344.82979543717 ; 2.010604750587087E8 ; 7.372839616574453E7 ; 2.8080406559301952E10 ; 0.0
149 ; 522250.31429403194 ; 2.010651744508283E8 ; 7.425074099553996E7 ; 2.828146703436066E10 ; 0.0
150 ; 522292.4712680891 ; 2.0106986037475535E8 ; 7.477299130983399E7 ; 2.848253220881149E10 ; 0.0
151 ; 521366.92833562323 ; 2.010745327213185E8 ; 7.529528378110208E7 ; 2.8683602069186245E10 ; 0.0
152 ; 521250.99297918077 ; 2.0107919138214076E8 ; 7.58166507094377E7 ; 2.8884676601907562E10 ; 0.0
153 ; 520323.18396934046 ; 2.010838362496236E8 ; 7.633790170241688E7 ; 2.9085755793289703E10 ; 0.0
154 ; 520181.0734492126 ; 2.0108846721693197E8 ; 7.685822488638622E7 ; 2.9286839629539326E10 ; 0.0
155 ; 518653.72565119294 ; 2.0109308417797962E8 ; 7.737840595983543E7 ; 2.9487928096756256E10 ; 0.0
156 ; 518922.38726961496 ; 2.0109768702741542E8 ; 7.789705968548661E7 ; 2.9689021180934235E10 ; 0.0
157 ; 518372.1497789252 ; 2.0110227566061014E8 ; 7.841598207275623E7 ; 2.989011886796165E10 ; 0.0
158 ; 517041.27559396136 ; 2.0110684997364375E8 ; 7.893435422253516E7 ; 3.009122114362226E10 ; 0.0
159 ; 516826.53641955316 ; 2.0111140986329332E8 ; 7.945139549812913E7 ; 3.0292327993595905E10 ; 0.0
160 ; 515962.6551145535 ; 2.0111595522702155E8 ; 7.996822203454868E7 ; 3.0493439403459198E10 ; 0.0
161 ; 515276.41962283687 ; 2.0112048596296564E8 ; 8.048418468966323E7 ; 3.069455535868622E10 ; 0.0
162 ; 513352.7546287709 ; 2.0112500196992663E8 ; 8.099946110928607E7 ; 3.0895675844649185E10 ; 0.0
163 ; 514589.9187236022 ; 2.0112950314735946E8 ; 8.151281386391485E7 ; 3.109680084661911E10 ; 0.0
164 ; 512730.68770238425 ; 2.011339893953632E8 ; 8.202740378263845E7 ; 3.1297930349766468E10 ; 0.0
165 ; 513227.8904684376 ; 2.011384606146717E8 ; 8.254013447034083E7 ; 3.149906433916183E10 ; 0.0
166 ; 511828.06351130985 ; 2.0114291670664492E8 ; 8.305336236080927E7 ; 3.1700202799776505E10 ; 0.0
167 ; 511559.6454428416 ; 2.0114735757326025E8 ; 8.356519042432058E7 ; 3.190134571648315E10 ; 0.0
168 ; 510053.05057331664 ; 2.0115178311710453E8 ; 8.407675006976342E7 ; 3.210249307405641E10 ; 0.0
169 ; 509949.07931596384 ; 2.0115619324136627E8 ; 8.458680312033674E7 ; 3.2303644857173515E10 ; 0.0
170 ; 509776.14185928606 ; 2.0116058784982815E8 ; 8.50967521996527E7 ; 3.2504801050414883E10 ; 0.0
171 ; 508212.98754266364 ; 2.0116496684686005E8 ; 8.5606528341512E7 ; 3.270596163826471E10 ; 0.0
172 ; 507500.6168045592 ; 2.011693301374121E8 ; 8.611474132905465E7 ; 3.290712660511157E10 ; 0.0
173 ; 508333.15532682976 ; 2.0117367762700838E8 ; 8.662224194585921E7 ; 3.310829593524898E10 ; 0.0
174 ; 506352.015608519 ; 2.0117800922174042E8 ; 8.713057510118604E7 ; 3.3309469612875988E10 ; 0.0
175 ; 506607.2544014992 ; 2.0118232482826155E8 ; 8.763692711679456E7 ; 3.351064762209773E10 ; 0.0
176 ; 505726.9208352923 ; 2.01186624353781E8 ; 8.814353437119606E7 ; 3.371182994692599E10 ; 0.0
177 ; 506458.77074650384 ; 2.0119090770605862E8 ; 8.864926129203135E7 ; 3.3913016571279774E10 ; 0.0
178 ; 505614.1017841146 ; 2.0119517479339945E8 ; 8.915572006277785E7 ; 3.4114207478985832E10 ; 0.0
179 ; 504555.717848233 ; 2.0119942552464902E8 ; 8.966133416456196E7 ; 3.4315402653779232E10 ; 0.0
180 ; 505303.77537581144 ; 2.0120365980918843E8 ; 9.016588988241018E7 ; 3.451660207930388E10 ; 0.0
181 ; 503562.2076674196 ; 2.012078775569298E8 ; 9.0671193657786E7 ; 3.471780573911307E10 ; 0.0
182 ; 503888.25395365315 ; 2.0121207867831203E8 ; 9.117475586545342E7 ; 3.491901361667E10 ; 0.0
183 ; 504028.97960451205 ; 2.0121626308429655E8 ; 9.167864411940707E7 ; 3.512022569534831E10 ; 0.0
184 ; 503231.82294992066 ; 2.0122043068636343E8 ; 9.218267309901159E7 ; 3.532144195843261E10 ; 0.0
185 ; 502489.0910662834 ; 2.0122458139650747E8 ; 9.26859049219615E7 ; 3.552266238911897E10 ; 0.0
186 ; 502697.9633352361 ; 2.012287151272348E8 ; 9.318839401302779E7 ; 3.572388697051548E10 ; 0.0
187 ; 501239.68417458015 ; 2.0123283179155916E8 ; 9.369109197636302E7 ; 3.5925115685642715E10 ; 0.0
188 ; 500963.67973363295 ; 2.0123693130299887E8 ; 9.41923316605376E7 ; 3.612634851743427E10 ; 0.0
189 ; 500093.51224197185 ; 2.0124101357557344E8 ; 9.469329534027123E7 ; 3.6327585448737274E10 ; 0.0
190 ; 500760.4822721686 ; 2.012450785238008E8 ; 9.519338885251321E7 ; 3.652882646231285E10 ; 0.0
191 ; 499809.7475249722 ; 2.012491260626942E8 ; 9.569414933478537E7 ; 3.6730071540836655E10 ; 0.0
192 ; 499064.4757317193 ; 2.0125315610775977E8 ; 9.619395908231035E7 ; 3.6931320666899345E10 ; 0.0
193 ; 499569.1179383006 ; 2.0125716857499367E8 ; 9.669302355804206E7 ; 3.71325738230071E10 ; 0.0
194 ; 498838.64169308345 ; 2.0126116338087973E8 ; 9.719259267598036E7 ; 3.73338309915821E10 ; 0.0
195 ; 498897.1458518107 ; 2.012651404423871E8 ; 9.769143131767344E7 ; 3.753509215496298E10 ; 0.0
196 ; 497480.4245584061 ; 2.01269099676968E8 ; 9.819032846352525E7 ; 3.773635729540537E10 ; 0.0
197 ; 498734.6705265523 ; 2.0127304100255555E8 ; 9.868780888808365E7 ; 3.7937626395082344E10 ; 0.0
198 ; 497692.43464851874 ; 2.0127696433756176E8 ; 9.91865435586102E7 ; 3.81388994360849E10 ; 0.0
199 ; 497494.35305813025 ; 2.0128086960087574E8 ; 9.968423599325871E7 ; 3.834017640042246E10 ; 0.0
200 ; 495774.1761471196 ; 2.012847567118616E8 ; 1.0018173034631684E8 ; 3.854145727002334E10 ; 0.0
201 ; 494823.4666153404 ; 2.01288625590357E8 ; 1.0067750452246396E8 ; 3.87427420267352E10 ; 0.0
