CSV File for the City 1 on Day 200
1 - Minute m 
2 - Power Consumed at minute m 
3 - Power Produced at minute m 
4 - Energy Consumed since the beginning of the day 
5 - Energy Produced since the beginning of the day 
6 - Energy Lost since the beginning of the day on lines starting from the city
 
0 ; 1461841.793939211 ; 1.0540064723193547E8 ; 0.0 ; 0.0 ; 0.0
1 ; 1477921.4030465656 ; 1.05553373734559E8 ; 1461841.793939211 ; 1.0540064723193547E8 ; 0.0
2 ; 1502366.4320359172 ; 1.0601490060312083E8 ; 2939763.1969857765 ; 2.1095402096649447E8 ; 0.0
3 ; 1517983.4617534422 ; 1.0678523085172445E8 ; 4442129.629021694 ; 3.169689215696153E8 ; 0.0
4 ; 1541180.7816669983 ; 1.0786436721713334E8 ; 5960113.090775136 ; 4.2375415242133975E8 ; 0.0
5 ; 1573280.044645798 ; 1.092523121320684E8 ; 7501293.872442134 ; 5.316185196384731E8 ; 0.0
6 ; 1615939.7723577165 ; 1.1094906770061901E8 ; 9074573.917087931 ; 6.408708317705414E8 ; 0.0
7 ; 1668307.6809236333 ; 1.1295463567632324E8 ; 1.0690513689445648E7 ; 7.518198994711604E8 ; 0.0
8 ; 1751963.7629251373 ; 1.152690174434334E8 ; 1.2358821370369282E7 ; 8.647745351474836E8 ; 0.0
9 ; 1869503.4784753465 ; 1.1789221400182611E8 ; 1.4110785133294418E7 ; 9.80043552590917E8 ; 0.0
10 ; 2053712.714040219 ; 1.2082422595593601E8 ; 1.5980288611769766E7 ; 1.0979357665927432E9 ; 0.0
11 ; 2339934.484873475 ; 1.2406505350799897E8 ; 1.8034001325809985E7 ; 1.218759992548679E9 ; 0.0
12 ; 2806047.68813187 ; 1.276146964557791E8 ; 2.037393581068346E7 ; 1.342825046056678E9 ; 0.0
13 ; 3250964.2821726776 ; 1.3147315419484174E8 ; 2.3179983498815328E7 ; 1.4704397425124571E9 ; 0.0
14 ; 3307251.5450718594 ; 1.356404257253104E8 ; 2.6430947780988004E7 ; 1.6019128967072988E9 ; 0.0
15 ; 3328858.318933635 ; 1.4011650966293257E8 ; 2.9738199326059863E7 ; 1.737553322432609E9 ; 0.0
16 ; 3354112.9044932853 ; 1.449014042541704E8 ; 3.30670576449935E7 ; 1.8776698320955417E9 ; 0.0
17 ; 3377410.173625259 ; 1.4999510739493433E8 ; 3.6421170549486786E7 ; 2.0225712363497121E9 ; 0.0
18 ; 3396559.7583378134 ; 1.5539761665250355E8 ; 3.979858072311205E7 ; 2.1725663437446465E9 ; 0.0
19 ; 3423773.489982765 ; 1.6110892929011455E8 ; 4.319514048144986E7 ; 2.32796396039715E9 ; 0.0
20 ; 3446179.9704095563 ; 1.6712904229366383E8 ; 4.6618913971432626E7 ; 2.4890728896872644E9 ; 0.0
21 ; 3468561.1084643262 ; 1.7345795239995334E8 ; 5.006509394184218E7 ; 2.6562019319809284E9 ; 0.0
22 ; 3489968.8057129476 ; 1.8009565612591147E8 ; 5.353365505030651E7 ; 2.829659884380882E9 ; 0.0
23 ; 3516571.7121925084 ; 1.870421497982437E8 ; 5.702362385601945E7 ; 3.009755540506793E9 ; 0.0
24 ; 3545140.3206078038 ; 1.942974295830053E8 ; 6.054019556821196E7 ; 3.1967976903050365E9 ; 0.0
25 ; 3562166.2879502433 ; 2.0054953241282156E8 ; 6.408533588881976E7 ; 3.391095119888042E9 ; 0.0
26 ; 3586855.7646068265 ; 2.0055200205188254E8 ; 6.764750217677E7 ; 3.5916446523008637E9 ; 0.0
27 ; 3609712.441381772 ; 2.005546036476722E8 ; 7.123435794137684E7 ; 3.7921966543527465E9 ; 0.0
28 ; 3632632.272663607 ; 2.0055733300302136E8 ; 7.48440703827586E7 ; 3.9927512580004187E9 ; 0.0
29 ; 3657272.0767069035 ; 2.0056018589288133E8 ; 7.847670265542221E7 ; 4.19330859100344E9 ; 0.0
30 ; 3677604.5561261117 ; 2.0056315808595586E8 ; 8.213397473212911E7 ; 4.393868776896321E9 ; 0.0
31 ; 3699438.164766076 ; 2.0056624536434785E8 ; 8.581157928825523E7 ; 4.594431934982277E9 ; 0.0
32 ; 3725021.4710999196 ; 2.005694435411838E8 ; 8.95110174530213E7 ; 4.794998180346624E9 ; 0.0
33 ; 3742423.1548710945 ; 2.0057274847622275E8 ; 9.323603892412122E7 ; 4.995567623887808E9 ; 0.0
34 ; 3765533.541131728 ; 2.005761560894936E8 ; 9.69784620789923E7 ; 5.196140372364031E9 ; 0.0
35 ; 3788297.4146538195 ; 2.00579662373034E8 ; 1.0074399562012404E8 ; 5.396716528453525E9 ; 0.0
36 ; 3806255.4861850454 ; 2.0058326340082803E8 ; 1.0453229303477786E8 ; 5.597296190826559E9 ; 0.0
37 ; 3827569.8253107285 ; 2.0058695533705607E8 ; 1.0833854852096291E8 ; 5.797879454227387E9 ; 0.0
38 ; 3843326.0105882417 ; 2.005907344427823E8 ; 1.1216611834627363E8 ; 5.998466409564444E9 ; 0.0
39 ; 3860400.120108594 ; 2.0059459708121127E8 ; 1.1600944435686187E8 ; 6.199057144007226E9 ; 0.0
40 ; 3879809.935583881 ; 2.0059853972164792E8 ; 1.1986984447697046E8 ; 6.399651741088437E9 ; 0.0
41 ; 3898352.5467155925 ; 2.0060255894229466E8 ; 1.2374965441255434E8 ; 6.600250280810085E9 ; 0.0
42 ; 3909061.8275271393 ; 2.0060665143201512E8 ; 1.2764800695926993E8 ; 6.80085283975238E9 ; 0.0
43 ; 3925786.1624181205 ; 2.006108139911895E8 ; 1.3155706878679706E8 ; 7.001459491184396E9 ; 0.0
44 ; 3941012.6408359 ; 2.0061504353177884E8 ; 1.3548285494921517E8 ; 7.202070305175586E9 ; 0.0
45 ; 3956168.2765260017 ; 2.0061933707670796E8 ; 1.3942386759005108E8 ; 7.402685348707365E9 ; 0.0
46 ; 3969854.3112394297 ; 2.0062369175866833E8 ; 1.433800358665771E8 ; 7.603304685784073E9 ; 0.0
47 ; 3983085.818524595 ; 2.006281048184329E8 ; 1.473498901778165E8 ; 7.803928377542741E9 ; 0.0
48 ; 3991084.435637942 ; 2.0063257360276693E8 ; 1.513329759963411E8 ; 8.004556482361174E9 ; 0.0
49 ; 4003374.4055799386 ; 2.006370955620092E8 ; 1.5532406043197906E8 ; 8.205189055963941E9 ; 0.0
50 ; 4013776.0618513115 ; 2.0064166824739105E8 ; 1.5932743483755898E8 ; 8.4058261515259495E9 ; 0.0
51 ; 4021780.783568646 ; 2.0064628930815127E8 ; 1.633412108994103E8 ; 8.60646781977334E9 ; 0.0
52 ; 4031894.027305047 ; 2.006509564884995E8 ; 1.6736299168297896E8 ; 8.807114109081491E9 ; 0.0
53 ; 4046957.4979790314 ; 2.0065566762447193E8 ; 1.71394885710284E8 ; 9.00776506556999E9 ; 0.0
54 ; 4050300.2201529136 ; 2.00660420640719E8 ; 1.7544184320826304E8 ; 9.208420733194462E9 ; 0.0
55 ; 4062697.999074103 ; 2.006652135472577E8 ; 1.7949214342841595E8 ; 9.40908115383518E9 ; 0.0
56 ; 4067444.670114455 ; 2.0067004443621668E8 ; 1.8355484142749006E8 ; 9.609746367382439E9 ; 0.0
57 ; 4077570.421997159 ; 2.0067491147859824E8 ; 1.876222860976045E8 ; 9.810416411818655E9 ; 0.0
58 ; 4087719.0278649377 ; 2.0067981292107615E8 ; 1.9169985651960167E8 ; 1.0011091323297253E10 ; 0.0
59 ; 4097047.803815526 ; 2.0068474708284622E8 ; 1.957875755474666E8 ; 1.0211771136218328E10 ; 0.0
60 ; 4104875.46075429 ; 2.0068971235254207E8 ; 1.9988462335128212E8 ; 1.0412455883301174E10 ; 0.0
61 ; 4107778.8895836608 ; 2.0069470718522713E8 ; 2.039894988120364E8 ; 1.0613145595653717E10 ; 0.0
62 ; 4120505.355876902 ; 2.0069973009947032E8 ; 2.0809727770162004E8 ; 1.0813840302838943E10 ; 0.0
63 ; 4128529.0987052103 ; 2.007047796745121E8 ; 2.1221778305749694E8 ; 1.1014540032938414E10 ; 0.0
64 ; 4133572.7766001043 ; 2.0070985454752463E8 ; 2.1634631215620214E8 ; 1.1215244812612926E10 ; 0.0
65 ; 4147889.4658148987 ; 2.007149534109697E8 ; 2.2047988493280223E8 ; 1.1415954667160452E10 ; 0.0
66 ; 4149426.9958071792 ; 2.0072007501005533E8 ; 2.2462777439861712E8 ; 1.161666962057142E10 ; 0.0
67 ; 4160634.2544343285 ; 2.007252181402923E8 ; 2.287772013944243E8 ; 1.1817389695581476E10 ; 0.0
68 ; 4164441.1553819412 ; 2.007303816451499E8 ; 2.329378356488586E8 ; 1.201811491372177E10 ; 0.0
69 ; 4170896.4466837514 ; 2.007355644138106E8 ; 2.3710227680424055E8 ; 1.2218845295366919E10 ; 0.0
70 ; 4182150.883250112 ; 2.0074076537902153E8 ; 2.4127317325092432E8 ; 1.241958085978073E10 ; 0.0
71 ; 4185753.4845661805 ; 2.0074598351504084E8 ; 2.4545532413417444E8 ; 1.262032162515975E10 ; 0.0
72 ; 4193823.1853091475 ; 2.007512178356774E8 ; 2.4964107761874062E8 ; 1.2821067608674791E10 ; 0.0
73 ; 4201800.541589131 ; 2.0075646739242005E8 ; 2.5383490080404976E8 ; 1.302181882651047E10 ; 0.0
74 ; 4208161.987175773 ; 2.007617312726547E8 ; 2.580367013456389E8 ; 1.322257529390289E10 ; 0.0
75 ; 4213735.70518553 ; 2.0076700859796527E8 ; 2.6224486333281466E8 ; 1.3423337025175545E10 ; 0.0
76 ; 4218277.615323498 ; 2.0077229852251634E8 ; 2.664585990380002E8 ; 1.362410403377351E10 ; 0.0
77 ; 4225155.714055088 ; 2.0077760023151377E8 ; 2.706768766533237E8 ; 1.3824876332296026E10 ; 0.0
78 ; 4232641.898820905 ; 2.0078291293974033E8 ; 2.749020323673788E8 ; 1.402565393252754E10 ; 0.0
79 ; 4230561.330830303 ; 2.007882358901632E8 ; 2.7913467426619965E8 ; 1.4226436845467281E10 ; 0.0
80 ; 4230231.3685017675 ; 2.0079356835261023E8 ; 2.833652355970299E8 ; 1.4427225081357445E10 ; 0.0
81 ; 4229934.784503866 ; 2.007989096225117E8 ; 2.875954669655317E8 ; 1.4628018649710054E10 ; 0.0
82 ; 4229030.860128573 ; 2.0080425901970512E8 ; 2.918254017500356E8 ; 1.4828817559332565E10 ; 0.0
83 ; 4235070.239303388 ; 2.008096158872992E8 ; 2.9605443261016417E8 ; 1.502962181835227E10 ; 0.0
84 ; 4234281.293969393 ; 2.0081497959059536E8 ; 3.002895028494676E8 ; 1.5230431434239569E10 ; 0.0
85 ; 4231188.752318781 ; 2.0082034951606277E8 ; 3.0452378414343697E8 ; 1.5431246413830164E10 ; 0.0
86 ; 4229611.833013682 ; 2.008257250703653E8 ; 3.0875497289575577E8 ; 1.5632066763346228E10 ; 0.0
87 ; 4231421.314351744 ; 2.008311056794373E8 ; 3.129845847287694E8 ; 1.5832892488416594E10 ; 0.0
88 ; 4233195.311874796 ; 2.0083649078760567E8 ; 3.1721600604312116E8 ; 1.6033723594096031E10 ; 0.0
89 ; 4232343.052620297 ; 2.008418798567563E8 ; 3.2144920135499597E8 ; 1.6234560084883636E10 ; 0.0
90 ; 4226761.225300294 ; 2.0084727236554235E8 ; 3.2568154440761626E8 ; 1.6435401964740393E10 ; 0.0
91 ; 4226957.5646154275 ; 2.0085266780863222E8 ; 3.2990830563291657E8 ; 1.6636249237105934E10 ; 0.0
92 ; 4226647.071321931 ; 2.0085806569599515E8 ; 3.34135263197532E8 ; 1.6837101904914566E10 ; 0.0
93 ; 4229537.128898265 ; 2.0086346555222282E8 ; 3.383619102688539E8 ; 1.7037959970610561E10 ; 0.0
94 ; 4228154.067210309 ; 2.008688669158845E8 ; 3.4259144739775217E8 ; 1.7238823436162785E10 ; 0.0
95 ; 4226925.810146801 ; 2.008742693389145E8 ; 3.468196014649625E8 ; 1.743969230307867E10 ; 0.0
96 ; 4224456.372259857 ; 2.0087967238603032E8 ; 3.510465272751093E8 ; 1.7640566572417583E10 ; 0.0
97 ; 4223443.775936364 ; 2.0088507563417897E8 ; 3.5527098364736915E8 ; 1.7841446244803616E10 ; 0.0
98 ; 4221136.756485558 ; 2.0089047867201138E8 ; 3.594944274233055E8 ; 1.8042331320437794E10 ; 0.0
99 ; 4217445.328471356 ; 2.0089588109938234E8 ; 3.637155641797911E8 ; 1.8243221799109806E10 ; 0.0
100 ; 4218519.381754833 ; 2.0090128252687496E8 ; 3.6793300950826246E8 ; 1.8444117680209187E10 ; 0.0
101 ; 4213655.683970379 ; 2.009066825753486E8 ; 3.721515288900173E8 ; 1.864501896273606E10 ; 0.0
102 ; 4214820.980798763 ; 2.0091208087550864E8 ; 3.7636518457398766E8 ; 1.884592564531141E10 ; 0.0
103 ; 4210652.657889629 ; 2.0091747706749743E8 ; 3.8058000555478644E8 ; 1.9046837726186916E10 ; 0.0
104 ; 4209457.115976388 ; 2.0092287080050465E8 ; 3.8479065821267605E8 ; 1.9247755203254414E10 ; 0.0
105 ; 4207831.498853729 ; 2.0092826173239684E8 ; 3.8900011532865244E8 ; 1.9448678074054916E10 ; 0.0
106 ; 4207158.492398203 ; 2.0093364952936444E8 ; 3.932079468275062E8 ; 1.964960633578731E10 ; 0.0
107 ; 4204615.8258476565 ; 2.009390338655858E8 ; 3.974151053199044E8 ; 1.9850539985316677E10 ; 0.0
108 ; 4199724.038935996 ; 2.0094441442290735E8 ; 4.016197211457521E8 ; 2.0051479019182262E10 ; 0.0
109 ; 4194972.221567033 ; 2.0094979089053854E8 ; 4.058194451846881E8 ; 2.025242343360517E10 ; 0.0
110 ; 4195606.928842348 ; 2.0095516296476158E8 ; 4.100144174062551E8 ; 2.045337322449571E10 ; 0.0
111 ; 4193783.6022428344 ; 2.009605303486547E8 ; 4.142100243350975E8 ; 2.065432838746047E10 ; 0.0
112 ; 4185682.0964582846 ; 2.00965892751828E8 ; 4.184038079373403E8 ; 2.0855288917809124E10 ; 0.0
113 ; 4183255.1758947815 ; 2.0097124989017236E8 ; 4.225894900337986E8 ; 2.105625481056095E10 ; 0.0
114 ; 4178510.535169184 ; 2.009766014856191E8 ; 4.267727452096934E8 ; 2.1257226060451122E10 ; 0.0
115 ; 4173520.118555082 ; 2.009819472659115E8 ; 4.3095125574486256E8 ; 2.145820266193674E10 ; 0.0
116 ; 4172288.6243589744 ; 2.0098728696438617E8 ; 4.351247758634176E8 ; 2.1659184609202652E10 ; 0.0
117 ; 4167716.095536165 ; 2.0099262031976497E8 ; 4.392970644877766E8 ; 2.1860171896167038E10 ; 0.0
118 ; 4160419.4730933956 ; 2.0099794707595602E8 ; 4.4346478058331275E8 ; 2.20611645164868E10 ; 0.0
119 ; 4161194.3356375555 ; 2.010032669818638E8 ; 4.4762520005640614E8 ; 2.2262162463562756E10 ; 0.0
120 ; 4154761.348837964 ; 2.0100857979120794E8 ; 4.517863943920437E8 ; 2.246316573054462E10 ; 0.0
121 ; 4151275.102787293 ; 2.0101388526234993E8 ; 4.559411557408817E8 ; 2.2664174310335827E10 ; 0.0
122 ; 4143973.384910357 ; 2.0101918315812778E8 ; 4.60092430843669E8 ; 2.2865188195598175E10 ; 0.0
123 ; 4143657.4012032 ; 2.0102447324569783E8 ; 4.6423640422857934E8 ; 2.30662073787563E10 ; 0.0
124 ; 4137677.1315796687 ; 2.0102975529638356E8 ; 4.6838006162978256E8 ; 2.3267231852002E10 ; 0.0
125 ; 4134263.481655324 ; 2.0103502908553138E8 ; 4.7251773876136225E8 ; 2.346826160729838E10 ; 0.0
126 ; 4125287.0111593995 ; 2.0104029439237216E8 ; 4.7665200224301755E8 ; 2.3669296636383915E10 ; 0.0
127 ; 4122332.887334098 ; 2.010455509998893E8 ; 4.80777289254177E8 ; 2.3870336930776287E10 ; 0.0
128 ; 4117742.202951396 ; 2.0105079869469234E8 ; 4.848996221415111E8 ; 2.4071382481776176E10 ; 0.0
129 ; 4109036.184130808 ; 2.0105603726689586E8 ; 4.8901736434446245E8 ; 2.4272433280470867E10 ; 0.0
130 ; 4102911.963634004 ; 2.0106126651000378E8 ; 4.9312640052859324E8 ; 2.4473489317737762E10 ; 0.0
131 ; 4093077.2712436984 ; 2.0106648622079864E8 ; 4.9722931249222726E8 ; 2.4674550584247765E10 ; 0.0
132 ; 4080943.37372257 ; 2.010716961992354E8 ; 5.0132238976347095E8 ; 2.4875617070468563E10 ; 0.0
133 ; 4070009.9509691014 ; 2.0107689624833992E8 ; 5.054033331371935E8 ; 2.5076688766667797E10 ; 0.0
134 ; 4057986.1989847 ; 2.010820861741115E8 ; 5.094733430881626E8 ; 2.5277765662916138E10 ; 0.0
135 ; 4048745.7869213787 ; 2.0108726578542975E8 ; 5.135313292871473E8 ; 2.547884774909025E10 ; 0.0
136 ; 4036531.118727336 ; 2.0109243489396518E8 ; 5.1758007507406867E8 ; 2.567993501487568E10 ; 0.0
137 ; 4022139.777092166 ; 2.0109759331409362E8 ; 5.21616606192796E8 ; 2.5881027449769646E10 ; 0.0
138 ; 4011134.3467185283 ; 2.01102740862814E8 ; 5.2563874596988815E8 ; 2.608212504308374E10 ; 0.0
139 ; 4001238.954848375 ; 2.0110787735966977E8 ; 5.296498803166067E8 ; 2.6283227783946556E10 ; 0.0
140 ; 3990053.486866965 ; 2.011130026266733E8 ; 5.3365111927145505E8 ; 2.6484335661306225E10 ; 0.0
141 ; 3974799.2056801612 ; 2.0111811648823348E8 ; 5.37641172758322E8 ; 2.66854486639329E10 ; 0.0
142 ; 3967157.810338873 ; 2.0112321877108625E8 ; 5.416159719640021E8 ; 2.688656678042113E10 ; 0.0
143 ; 3948914.678490633 ; 2.0112830930422795E8 ; 5.45583129774341E8 ; 2.708768999919222E10 ; 0.0
144 ; 3933993.504212128 ; 2.0113338791885135E8 ; 5.495320444528316E8 ; 2.728881830849645E10 ; 0.0
145 ; 3933480.6678449158 ; 2.011384544482841E8 ; 5.534660379570438E8 ; 2.74899516964153E10 ; 0.0
146 ; 3927845.751506579 ; 2.0114350872792995E8 ; 5.573995186248887E8 ; 2.7691090150863583E10 ; 0.0
147 ; 3918137.4136428325 ; 2.0114855059521198E8 ; 5.613273643763952E8 ; 2.789223365959151E10 ; 0.0
148 ; 3914200.2251713877 ; 2.011535798895182E8 ; 5.652455017900381E8 ; 2.809338221018672E10 ; 0.0
149 ; 3910417.828149581 ; 2.0115859645214942E8 ; 5.691597020152096E8 ; 2.829453579007624E10 ; 0.0
150 ; 3902303.4279845 ; 2.0116360012626895E8 ; 5.730701198433591E8 ; 2.849569438652839E10 ; 0.0
151 ; 3900795.710072324 ; 2.011685907568544E8 ; 5.769724232713436E8 ; 2.869685798665466E10 ; 0.0
152 ; 3896033.166108553 ; 2.011735681906512E8 ; 5.808732189814159E8 ; 2.8898026577411514E10 ; 0.0
153 ; 3886252.0585007593 ; 2.0117853227612835E8 ; 5.847692521475245E8 ; 2.9099200145602165E10 ; 0.0
154 ; 3881850.3011442134 ; 2.0118348286343518E8 ; 5.886555042060252E8 ; 2.9300378677878292E10 ; 0.0
155 ; 3869788.91147081 ; 2.0118841980436036E8 ; 5.925373545071695E8 ; 2.9501562160741726E10 ; 0.0
156 ; 3870879.097907529 ; 2.011933429522923E8 ; 5.964071434186403E8 ; 2.9702750580546085E10 ; 0.0
157 ; 3862367.9893429033 ; 2.0119825216218093E8 ; 6.002780225165478E8 ; 2.990394392349838E10 ; 0.0
158 ; 3858053.2231610096 ; 2.0120314729050112E8 ; 6.041403905058907E8 ; 3.010514217566056E10 ; 0.0
159 ; 3853899.6858030804 ; 2.012080281952173E8 ; 6.079984437290517E8 ; 3.030634532295106E10 ; 0.0
160 ; 3846380.516055279 ; 2.012128947357497E8 ; 6.118523434148548E8 ; 3.050755335114628E10 ; 0.0
161 ; 3838621.7061592224 ; 2.012177467729414E8 ; 6.1569872393091E8 ; 3.0708766245882027E10 ; 0.0
162 ; 3836963.0558697805 ; 2.0122258416902718E8 ; 6.195373456370692E8 ; 3.090998399265497E10 ; 0.0
163 ; 3827344.2162404447 ; 2.0122740678760305E8 ; 6.23374308692939E8 ; 3.1111206576823994E10 ; 0.0
164 ; 3823141.5441539357 ; 2.0123221449359715E8 ; 6.272016529091794E8 ; 3.1312433983611595E10 ; 0.0
165 ; 3816235.6600148333 ; 2.0123700715324166E8 ; 6.310247944533334E8 ; 3.1513666198105194E10 ; 0.0
166 ; 3808376.048725132 ; 2.0124178463404584E8 ; 6.348410301133482E8 ; 3.1714903205258434E10 ; 0.0
167 ; 3803084.2198294112 ; 2.012465468047699E8 ; 6.386494061620734E8 ; 3.191614498989248E10 ; 0.0
168 ; 3799754.130086751 ; 2.0125129353539997E8 ; 6.424524903819028E8 ; 3.211739153669725E10 ; 0.0
169 ; 3791999.061633171 ; 2.0125602469712394E8 ; 6.462522445119896E8 ; 3.231864283023265E10 ; 0.0
170 ; 3788335.8868544595 ; 2.0126074016230816E8 ; 6.500442435736228E8 ; 3.2519898854929775E10 ; 0.0
171 ; 3781532.210665082 ; 2.0126543980447495E8 ; 6.538325794604772E8 ; 3.2721159595092083E10 ; 0.0
172 ; 3776420.587832013 ; 2.012701234982811E8 ; 6.576141116711423E8 ; 3.2922425034896557E10 ; 0.0
173 ; 3772538.2488712985 ; 2.0127479111949685E8 ; 6.613905322589743E8 ; 3.3123695158394836E10 ; 0.0
174 ; 3760892.273060991 ; 2.01279442544986E8 ; 6.651630705078456E8 ; 3.332496994951433E10 ; 0.0
175 ; 3758404.954085327 ; 2.012840776526864E8 ; 6.689239627809067E8 ; 3.352624939205932E10 ; 0.0
176 ; 3757489.483719932 ; 2.012886963215913E8 ; 6.72682367734992E8 ; 3.3727533469712006E10 ; 0.0
177 ; 3751272.5641584555 ; 2.0129329843173134E8 ; 6.76439857218712E8 ; 3.3928822166033596E10 ; 0.0
178 ; 3746811.672110518 ; 2.0129788386415726E8 ; 6.801911297828704E8 ; 3.413011546446533E10 ; 0.0
179 ; 3746061.7107864018 ; 2.0130245250092307E8 ; 6.83937941454981E8 ; 3.4331413348329487E10 ; 0.0
180 ; 3736101.0865643728 ; 2.0130700422506982E8 ; 6.876840031657673E8 ; 3.453271580083041E10 ; 0.0
181 ; 3734357.725468828 ; 2.013115389206103E8 ; 6.914201042523317E8 ; 3.473402280505547E10 ; 0.0
182 ; 3732008.513236108 ; 2.0131605647251365E8 ; 6.951544619778006E8 ; 3.493533434397608E10 ; 0.0
183 ; 3724706.4689234304 ; 2.0132055676669115E8 ; 6.988864704910368E8 ; 3.513665040044859E10 ; 0.0
184 ; 3722221.3336970345 ; 2.0132503968998206E8 ; 7.026111769599602E8 ; 3.533797095721529E10 ; 0.0
185 ; 3718331.307993181 ; 2.0132950513014016E8 ; 7.063333982936573E8 ; 3.5539295996905266E10 ; 0.0
186 ; 3717145.226286718 ; 2.0133395297582078E8 ; 7.100517296016505E8 ; 3.574062550203541E10 ; 0.0
187 ; 3707994.549317403 ; 2.0133838311656818E8 ; 7.137688748279372E8 ; 3.594195945501123E10 ; 0.0
188 ; 3710212.7263141475 ; 2.0134279544280338E8 ; 7.174768693772546E8 ; 3.61432978381278E10 ; 0.0
189 ; 3700732.0168780168 ; 2.013471898458126E8 ; 7.211870821035688E8 ; 3.63446406335706E10 ; 0.0
190 ; 3693235.651785883 ; 2.013515662177357E8 ; 7.248878141204468E8 ; 3.654598782341641E10 ; 0.0
191 ; 3694905.1949712643 ; 2.0135592445155558E8 ; 7.285810497722327E8 ; 3.674733938963415E10 ; 0.0
192 ; 3691032.310615608 ; 2.0136026444108742E8 ; 7.32275954967204E8 ; 3.69486953140857E10 ; 0.0
193 ; 3688810.7215796267 ; 2.0136458608096862E8 ; 7.359669872778196E8 ; 3.715005557852679E10 ; 0.0
194 ; 3682409.990174117 ; 2.0136888926664895E8 ; 7.396557979993993E8 ; 3.735142016460776E10 ; 0.0
195 ; 3677206.63919246 ; 2.013731738943811E8 ; 7.433382079895735E8 ; 3.7552789053874405E10 ; 0.0
196 ; 3673743.47246691 ; 2.013774398612115E8 ; 7.47015414628766E8 ; 3.775416222776878E10 ; 0.0
197 ; 3665892.8700043038 ; 2.013816870649716E8 ; 7.506891581012329E8 ; 3.795553966763E10 ; 0.0
198 ; 3661160.9393419223 ; 2.013859154042692E8 ; 7.543550509712372E8 ; 3.815692135469497E10 ; 0.0
199 ; 3664274.9116149647 ; 2.013901247784802E8 ; 7.580162119105791E8 ; 3.8358307270099236E10 ; 0.0
200 ; 3659738.254421657 ; 2.0139431508774096E8 ; 7.616804868221941E8 ; 3.8559697394877716E10 ; 0.0
