CSV File for the City 4 on Day 21
1 - Minute m 
2 - Power Consumed at minute m 
3 - Power Produced at minute m 
4 - Energy Consumed since the beginning of the day 
5 - Energy Produced since the beginning of the day 
6 - Energy Lost since the beginning of the day on lines starting from the city
 
0 ; 4714968.737506669 ; 5.151971851919682E7 ; 0.0 ; 0.0 ; 0.0
1 ; 4723676.5588158425 ; 5.167403950685112E7 ; 4714968.737506669 ; 5.151971851919682E7 ; 613.6199999999999
2 ; 4726575.167911021 ; 5.213700246981408E7 ; 9438645.296322512 ; 1.0319375802604795E8 ; 1227.2399999999998
3 ; 4732777.864536782 ; 5.290860740808569E7 ; 1.4165220464233533E7 ; 1.55330760495862E8 ; 1840.8599999999997
4 ; 4738321.283291646 ; 5.398885432166593E7 ; 1.8897998328770313E7 ; 2.082393679039477E8 ; 2454.4799999999996
5 ; 4747341.358489617 ; 5.537774321055482E7 ; 2.363631961206196E7 ; 2.6222822222561365E8 ; 3068.0999999999995
6 ; 4758157.652672169 ; 5.707527407475233E7 ; 2.8383660970551576E7 ; 3.176059654361685E8 ; 3681.7199999999993
7 ; 4773132.043129297 ; 5.908144691425851E7 ; 3.3141818623223744E7 ; 3.746812395109208E8 ; 4295.339999999999
8 ; 4795468.754291955 ; 6.1396261729073316E7 ; 3.791495066635304E7 ; 4.3376268642517936E8 ; 4908.959999999999
9 ; 4828561.233846027 ; 6.401971851919678E7 ; 4.2710419420645E7 ; 4.9515894815425265E8 ; 5522.579999999999
10 ; 4877072.233718345 ; 6.69518172846289E7 ; 4.753898065449102E7 ; 5.591786666734494E8 ; 6136.199999999999
11 ; 4959120.862105907 ; 7.019255802536964E7 ; 5.2416052888209365E7 ; 6.261304839580783E8 ; 6749.819999999999
12 ; 5087435.276667912 ; 7.374194074141902E7 ; 5.737517375031527E7 ; 6.963230419834479E8 ; 7363.439999999999
13 ; 5207130.998628913 ; 7.759996543277702E7 ; 6.246260902698319E7 ; 7.700649827248669E8 ; 7977.059999999999
14 ; 5223169.778787989 ; 8.17666320994437E7 ; 6.76697400256121E7 ; 8.476649481576439E8 ; 8590.679999999998
15 ; 5227154.853511619 ; 8.624194074141899E7 ; 7.289290980440009E7 ; 9.294315802570876E8 ; 9204.3
16 ; 5236214.9357285965 ; 9.102589135870296E7 ; 7.81200646579117E7 ; 1.0156735209985065E9 ; 9817.919999999998
17 ; 5240584.667292202 ; 9.611848395129555E7 ; 8.33562795936403E7 ; 1.1066994123572094E9 ; 10431.539999999997
18 ; 5245779.836447315 ; 1.0151971851919678E8 ; 8.85968642609325E7 ; 1.202817896308505E9 ; 11045.159999999996
19 ; 5251718.1713917395 ; 1.0722959506240663E8 ; 9.384264409737982E7 ; 1.3043376148277018E9 ; 11658.779999999995
20 ; 5258945.682273653 ; 1.1324811358092514E8 ; 9.909436226877156E7 ; 1.4115672098901083E9 ; 12272.399999999994
21 ; 5264156.624267421 ; 1.195752740747523E8 ; 1.0435330795104522E8 ; 1.5248153234710336E9 ; 12886.019999999993
22 ; 5267990.093129993 ; 1.2621107654388809E8 ; 1.0961746457531263E8 ; 1.644390597545786E9 ; 13499.639999999992
23 ; 5274274.513998737 ; 1.3315552098833257E8 ; 1.1488545466844262E8 ; 1.770601674089674E9 ; 14113.259999999991
24 ; 5282270.125070434 ; 1.4040860740808564E8 ; 1.2015972918244135E8 ; 1.9037571950780065E9 ; 14726.87999999999
25 ; 5287522.721484423 ; 1.4665837670133084E8 ; 1.2544199930751179E8 ; 2.044165802486092E9 ; 15340.499999999989
26 ; 5293806.744220827 ; 1.4665837670133084E8 ; 1.3072952202899621E8 ; 2.1908241791874228E9 ; 15954.119999999988
27 ; 5299627.334485559 ; 1.4665837670133084E8 ; 1.3602332877321705E8 ; 2.3374825558887534E9 ; 16567.739999999987
28 ; 5304645.002464619 ; 1.4665837670133084E8 ; 1.413229561077026E8 ; 2.484140932590084E9 ; 17181.359999999986
29 ; 5310576.2845386695 ; 1.4665837670133084E8 ; 1.4662760111016724E8 ; 2.6307993092914147E9 ; 17794.979999999985
30 ; 5315574.6387808 ; 1.4665837670133084E8 ; 1.519381773947059E8 ; 2.7774576859927454E9 ; 18408.599999999984
31 ; 5322698.606870341 ; 1.4665837670133084E8 ; 1.572537520334867E8 ; 2.924116062694076E9 ; 19022.219999999983
32 ; 5328611.260754547 ; 1.4665837670133084E8 ; 1.6257645064035705E8 ; 3.0707744393954067E9 ; 19635.839999999982
33 ; 5329749.105956944 ; 1.4665837670133084E8 ; 1.679050619011116E8 ; 3.2174328160967374E9 ; 20249.45999999998
34 ; 5336433.292753413 ; 1.4665837670133084E8 ; 1.7323481100706854E8 ; 3.364091192798068E9 ; 20863.07999999998
35 ; 5340747.474505455 ; 1.4665837670133084E8 ; 1.7857124429982197E8 ; 3.5107495694993987E9 ; 21476.69999999998
36 ; 5345786.555725049 ; 1.4665837670133084E8 ; 1.8391199177432743E8 ; 3.6574079462007294E9 ; 22090.319999999978
37 ; 5350570.180476219 ; 1.4665837670133084E8 ; 1.8925777833005247E8 ; 3.80406632290206E9 ; 22703.939999999977
38 ; 5354244.361132166 ; 1.4665837670133084E8 ; 1.9460834851052868E8 ; 3.9507246996033907E9 ; 23317.559999999976
39 ; 5358820.613468171 ; 1.4665837670133084E8 ; 1.9996259287166086E8 ; 4.0973830763047214E9 ; 23931.179999999975
40 ; 5363031.666418341 ; 1.4665837670133084E8 ; 2.0532141348512903E8 ; 4.244041453006052E9 ; 24544.799999999974
41 ; 5366284.282594166 ; 1.4665837670133084E8 ; 2.1068444515154737E8 ; 4.390699829707383E9 ; 25158.419999999973
42 ; 5370264.721630772 ; 1.4665837670133084E8 ; 2.1605072943414155E8 ; 4.537358206408714E9 ; 25772.03999999997
43 ; 5371647.759267923 ; 1.4665837670133084E8 ; 2.2142099415577233E8 ; 4.684016583110045E9 ; 26385.65999999997
44 ; 5376085.995646226 ; 1.4665837670133084E8 ; 2.2679264191504025E8 ; 4.830674959811377E9 ; 26999.27999999997
45 ; 5379434.068489316 ; 1.4665837670133084E8 ; 2.321687279106865E8 ; 4.977333336512708E9 ; 27612.89999999997
46 ; 5383618.516440485 ; 1.4665837670133084E8 ; 2.375481619791758E8 ; 5.123991713214039E9 ; 28226.519999999968
47 ; 5382829.483974655 ; 1.4665837670133084E8 ; 2.429317804956163E8 ; 5.27065008991537E9 ; 28840.139999999967
48 ; 5386026.885874803 ; 1.4665837670133084E8 ; 2.4831460997959095E8 ; 5.417308466616701E9 ; 29453.759999999966
49 ; 5390352.565651446 ; 1.4665837670133084E8 ; 2.5370063686546576E8 ; 5.563966843318032E9 ; 30067.379999999965
50 ; 5387328.182862096 ; 1.4665837670133084E8 ; 2.590909894311172E8 ; 5.710625220019363E9 ; 30680.999999999964
51 ; 5391156.065887033 ; 1.4665837670133084E8 ; 2.644783176139793E8 ; 5.857283596720695E9 ; 31294.619999999963
52 ; 5393524.3877257705 ; 1.4665837670133084E8 ; 2.698694736798663E8 ; 6.003941973422026E9 ; 31908.23999999996
53 ; 5394124.752672639 ; 1.4665837670133084E8 ; 2.752629980675921E8 ; 6.150600350123357E9 ; 32521.85999999996
54 ; 5396387.826400226 ; 1.4665837670133084E8 ; 2.806571228202647E8 ; 6.297258726824688E9 ; 33135.47999999996
55 ; 5396418.959176299 ; 1.4665837670133084E8 ; 2.860535106466649E8 ; 6.443917103526019E9 ; 33749.09999999996
56 ; 5398254.995133341 ; 1.4665837670133084E8 ; 2.914499296058412E8 ; 6.59057548022735E9 ; 34362.719999999965
57 ; 5399840.569412976 ; 1.4665837670133084E8 ; 2.9684818460097456E8 ; 6.737233856928681E9 ; 34976.33999999997
58 ; 5399107.38333213 ; 1.4665837670133084E8 ; 3.022480251703875E8 ; 6.8838922336300125E9 ; 35589.95999999997
59 ; 5401813.176509413 ; 1.4665837670133084E8 ; 3.0764713255371964E8 ; 7.030550610331344E9 ; 36203.57999999997
60 ; 5402867.925659984 ; 1.4665837670133084E8 ; 3.130489457302291E8 ; 7.177208987032675E9 ; 36817.199999999975
61 ; 5403732.603818103 ; 1.4665837670133084E8 ; 3.1845181365588903E8 ; 7.323867363734006E9 ; 37430.81999999998
62 ; 5405498.112972558 ; 1.4665837670133084E8 ; 3.2385554625970715E8 ; 7.470525740435337E9 ; 38044.43999999998
63 ; 5405597.099947631 ; 1.4665837670133084E8 ; 3.292610443726797E8 ; 7.617184117136668E9 ; 38658.05999999998
64 ; 5407886.344152857 ; 1.4665837670133084E8 ; 3.3466664147262734E8 ; 7.763842493837999E9 ; 39271.679999999986
65 ; 5404637.479343032 ; 1.4665837670133084E8 ; 3.400745278167802E8 ; 7.9105008705393305E9 ; 39885.29999999999
66 ; 5408165.0646119695 ; 1.4665837670133084E8 ; 3.4547916529612327E8 ; 8.057159247240662E9 ; 40498.91999999999
67 ; 5407534.86697885 ; 1.4665837670133084E8 ; 3.5088733036073524E8 ; 8.203817623941993E9 ; 41112.53999999999
68 ; 5409210.591937299 ; 1.4665837670133084E8 ; 3.5629486522771406E8 ; 8.350476000643324E9 ; 41726.159999999996
69 ; 5408249.057235586 ; 1.4665837670133084E8 ; 3.6170407581965137E8 ; 8.497134377344655E9 ; 42339.78
70 ; 5410103.667156505 ; 1.4665837670133084E8 ; 3.6711232487688696E8 ; 8.643792754045986E9 ; 42953.4
71 ; 5410267.944027506 ; 1.4665837670133084E8 ; 3.725224285440435E8 ; 8.790451130747316E9 ; 43567.020000000004
72 ; 5410479.757294676 ; 1.4665837670133084E8 ; 3.7793269648807096E8 ; 8.937109507448647E9 ; 44180.64000000001
73 ; 5411192.063403105 ; 1.4665837670133084E8 ; 3.833431762453656E8 ; 9.083767884149977E9 ; 44794.26000000001
74 ; 5409845.259960162 ; 1.4665837670133084E8 ; 3.8875436830876875E8 ; 9.230426260851307E9 ; 45407.88000000001
75 ; 5410395.277171554 ; 1.4665837670133084E8 ; 3.941642135687289E8 ; 9.377084637552637E9 ; 46021.500000000015
76 ; 5413155.613430695 ; 1.4665837670133084E8 ; 3.995746088459005E8 ; 9.523743014253967E9 ; 46635.12000000002
77 ; 5411743.765294493 ; 1.4665837670133084E8 ; 4.0498776445933115E8 ; 9.670401390955297E9 ; 47248.74000000002
78 ; 5410208.826185927 ; 1.4665837670133084E8 ; 4.1039950822462565E8 ; 9.817059767656628E9 ; 47862.36000000002
79 ; 5411097.560281525 ; 1.4665837670133084E8 ; 4.158097170508116E8 ; 9.963718144357958E9 ; 48475.980000000025
80 ; 5407505.4498737855 ; 1.4665837670133084E8 ; 4.212208146110931E8 ; 1.0110376521059288E10 ; 49089.60000000003
81 ; 5408484.810221695 ; 1.4665837670133084E8 ; 4.266283200609669E8 ; 1.0257034897760618E10 ; 49703.22000000003
82 ; 5403557.280096568 ; 1.4665837670133084E8 ; 4.320368048711886E8 ; 1.0403693274461948E10 ; 50316.84000000003
83 ; 5404613.644549983 ; 1.4665837670133084E8 ; 4.374403621512852E8 ; 1.0550351651163279E10 ; 50930.460000000036
84 ; 5399684.019472413 ; 1.4665837670133084E8 ; 4.4284497579583514E8 ; 1.0697010027864609E10 ; 51544.08000000004
85 ; 5397876.1964544095 ; 1.4665837670133084E8 ; 4.4824465981530756E8 ; 1.0843668404565939E10 ; 52157.70000000004
86 ; 5395898.237501095 ; 1.4665837670133084E8 ; 4.5364253601176196E8 ; 1.099032678126727E10 ; 52771.32000000004
87 ; 5393788.29869101 ; 1.4665837670133084E8 ; 4.5903843424926305E8 ; 1.11369851579686E10 ; 53384.940000000046
88 ; 5393856.698448315 ; 1.4665837670133084E8 ; 4.644322225479541E8 ; 1.128364353466993E10 ; 53998.56000000005
89 ; 5391545.279418822 ; 1.4665837670133084E8 ; 4.698260792464024E8 ; 1.143030191137126E10 ; 54612.18000000005
90 ; 5391223.73864757 ; 1.4665837670133084E8 ; 4.752176245258212E8 ; 1.157696028807259E10 ; 55225.800000000054
91 ; 5387629.97020967 ; 1.4665837670133084E8 ; 4.806088482644688E8 ; 1.172361866477392E10 ; 55839.42000000006
92 ; 5384878.363043738 ; 1.4665837670133084E8 ; 4.8599647823467845E8 ; 1.187027704147525E10 ; 56453.04000000006
93 ; 5381070.745358191 ; 1.4665837670133084E8 ; 4.913813565977222E8 ; 1.201693541817658E10 ; 57066.66000000006
94 ; 5377884.885233089 ; 1.4665837670133084E8 ; 4.9676242734308034E8 ; 1.216359379487791E10 ; 57680.280000000064
95 ; 5377413.533442106 ; 1.4665837670133084E8 ; 5.0214031222831345E8 ; 1.231025217157924E10 ; 58293.90000000007
96 ; 5376155.286861256 ; 1.4665837670133084E8 ; 5.075177257617555E8 ; 1.2456910548280571E10 ; 58907.52000000007
97 ; 5372741.4723333735 ; 1.4665837670133084E8 ; 5.1289388104861677E8 ; 1.2603568924981901E10 ; 59521.14000000007
98 ; 5371463.1707682945 ; 1.4665837670133084E8 ; 5.1826662252095014E8 ; 1.2750227301683231E10 ; 60134.760000000075
99 ; 5369336.228201974 ; 1.4665837670133084E8 ; 5.2363808569171846E8 ; 1.2896885678384562E10 ; 60748.38000000008
100 ; 5363470.089170958 ; 1.4665837670133084E8 ; 5.2900742191992044E8 ; 1.3043544055085892E10 ; 61362.00000000008
101 ; 5363130.991733508 ; 1.4665837670133084E8 ; 5.343708920090914E8 ; 1.3190202431787222E10 ; 61975.62000000008
102 ; 5360073.607302818 ; 1.4665837670133084E8 ; 5.397340230008249E8 ; 1.3336860808488552E10 ; 62589.240000000085
103 ; 5358537.527821818 ; 1.4665837670133084E8 ; 5.450940966081277E8 ; 1.3483519185189882E10 ; 63202.86000000009
104 ; 5354045.190339036 ; 1.4665837670133084E8 ; 5.504526341359495E8 ; 1.3630177561891212E10 ; 63816.48000000009
105 ; 5351358.088016781 ; 1.4665837670133084E8 ; 5.558066793262886E8 ; 1.3776835938592543E10 ; 64430.10000000009
106 ; 5349294.965372392 ; 1.4665837670133084E8 ; 5.611580374143053E8 ; 1.3923494315293873E10 ; 65043.720000000096
107 ; 5345675.069564921 ; 1.4665837670133084E8 ; 5.665073323796778E8 ; 1.4070152691995203E10 ; 65657.3400000001
108 ; 5341275.757070916 ; 1.4665837670133084E8 ; 5.718530074492427E8 ; 1.4216811068696533E10 ; 66270.9600000001
109 ; 5341868.219000519 ; 1.4665837670133084E8 ; 5.771942832063136E8 ; 1.4363469445397863E10 ; 66884.58000000009
110 ; 5334558.654634148 ; 1.4665837670133084E8 ; 5.825361514253142E8 ; 1.4510127822099194E10 ; 67498.20000000008
111 ; 5334013.935454103 ; 1.4665837670133084E8 ; 5.878707100799483E8 ; 1.4656786198800524E10 ; 68111.82000000008
112 ; 5329929.155714628 ; 1.4665837670133084E8 ; 5.932047240154024E8 ; 1.4803444575501854E10 ; 68725.44000000008
113 ; 5326955.312542677 ; 1.4665837670133084E8 ; 5.985346531711171E8 ; 1.4950102952203184E10 ; 69339.06000000007
114 ; 5325571.407703967 ; 1.4665837670133084E8 ; 6.038616084836597E8 ; 1.5096761328904514E10 ; 69952.68000000007
115 ; 5320741.244882696 ; 1.4665837670133084E8 ; 6.091871798913637E8 ; 1.5243419705605844E10 ; 70566.30000000006
116 ; 5315621.912194748 ; 1.4665837670133084E8 ; 6.145079211362464E8 ; 1.5390078082307175E10 ; 71179.92000000006
117 ; 5313173.910331621 ; 1.4665837670133084E8 ; 6.198235430484412E8 ; 1.5536736459008505E10 ; 71793.54000000005
118 ; 5311372.503102408 ; 1.4665837670133084E8 ; 6.251367169587728E8 ; 1.5683394835709835E10 ; 72407.16000000005
119 ; 5308075.880358053 ; 1.4665837670133084E8 ; 6.304480894618752E8 ; 1.5830053212411165E10 ; 73020.78000000004
120 ; 5303171.98941108 ; 1.4665837670133084E8 ; 6.357561653422333E8 ; 1.5976711589112495E10 ; 73634.40000000004
121 ; 5298933.924999224 ; 1.4665837670133084E8 ; 6.410593373316444E8 ; 1.6123369965813826E10 ; 74248.02000000003
122 ; 5296067.758006552 ; 1.4665837670133084E8 ; 6.463582712566437E8 ; 1.6270028342515156E10 ; 74861.64000000003
123 ; 5293062.830459939 ; 1.4665837670133084E8 ; 6.516543390146502E8 ; 1.6416686719216486E10 ; 75475.26000000002
124 ; 5288997.548686163 ; 1.4665837670133084E8 ; 6.569474018451102E8 ; 1.6563345095917816E10 ; 76088.88000000002
125 ; 5282396.081130124 ; 1.4665837670133084E8 ; 6.622363993937963E8 ; 1.6710003472619146E10 ; 76702.50000000001
126 ; 5280452.483103488 ; 1.4665837670133084E8 ; 6.675187954749265E8 ; 1.6856661849320477E10 ; 77316.12000000001
127 ; 5276615.099101172 ; 1.4665837670133084E8 ; 6.7279924795803E8 ; 1.7003320226021807E10 ; 77929.74
128 ; 5272113.9842540305 ; 1.4665837670133084E8 ; 6.780758630571312E8 ; 1.7149978602723137E10 ; 78543.36
129 ; 5267347.995935015 ; 1.4665837670133084E8 ; 6.833479770413852E8 ; 1.729663697942447E10 ; 79156.98
130 ; 5263156.886977995 ; 1.4665837670133084E8 ; 6.886153250373201E8 ; 1.74432953561258E10 ; 79770.59999999999
131 ; 5257477.993003437 ; 1.4665837670133084E8 ; 6.938784819242982E8 ; 1.7589953732827133E10 ; 80384.21999999999
132 ; 5251858.289598477 ; 1.4665837670133084E8 ; 6.991359599173017E8 ; 1.7736612109528465E10 ; 80997.83999999998
133 ; 5246011.571909676 ; 1.4665837670133084E8 ; 7.043878182069001E8 ; 1.7883270486229797E10 ; 81611.45999999998
134 ; 5240707.1183276605 ; 1.4665837670133084E8 ; 7.096338297788098E8 ; 1.802992886293113E10 ; 82225.07999999997
135 ; 5233832.042643684 ; 1.4665837670133084E8 ; 7.148745368971374E8 ; 1.817658723963246E10 ; 82838.69999999997
136 ; 5228876.476274972 ; 1.4665837670133084E8 ; 7.201083689397811E8 ; 1.8323245616333794E10 ; 83452.31999999996
137 ; 5222342.120182167 ; 1.4665837670133084E8 ; 7.25337245416056E8 ; 1.8469903993035126E10 ; 84065.93999999996
138 ; 5217081.778147716 ; 1.4665837670133084E8 ; 7.305595875362382E8 ; 1.8616562369736458E10 ; 84679.55999999995
139 ; 5210433.226022484 ; 1.4665837670133084E8 ; 7.357766693143859E8 ; 1.876322074643779E10 ; 85293.17999999995
140 ; 5203630.103548164 ; 1.4665837670133084E8 ; 7.409871025404084E8 ; 1.8909879123139122E10 ; 85906.79999999994
141 ; 5199133.876967291 ; 1.4665837670133084E8 ; 7.461907326439565E8 ; 1.9056537499840454E10 ; 86520.41999999994
142 ; 5194782.346323832 ; 1.4665837670133084E8 ; 7.513898665209239E8 ; 1.9203195876541786E10 ; 87134.03999999994
143 ; 5187218.348468724 ; 1.4665837670133084E8 ; 7.565846488672477E8 ; 1.934985425324312E10 ; 87747.65999999993
144 ; 5178064.3374891 ; 1.4665837670133084E8 ; 7.617718672157165E8 ; 1.949651262994445E10 ; 88361.27999999993
145 ; 5175074.224139436 ; 1.4665837670133084E8 ; 7.669499315532056E8 ; 1.9643171006645782E10 ; 88974.89999999992
146 ; 5170767.560022779 ; 1.4665837670133084E8 ; 7.721250057773451E8 ; 1.9789829383347115E10 ; 89588.51999999992
147 ; 5166694.924139935 ; 1.4665837670133084E8 ; 7.772957733373679E8 ; 1.9936487760048447E10 ; 90202.13999999991
148 ; 5163721.195888473 ; 1.4665837670133084E8 ; 7.824624682615079E8 ; 2.008314613674978E10 ; 90815.75999999991
149 ; 5156468.95542179 ; 1.4665837670133084E8 ; 7.876261894573964E8 ; 2.022980451345111E10 ; 91429.3799999999
150 ; 5153411.381566053 ; 1.4665837670133084E8 ; 7.927826584128182E8 ; 2.0376462890152443E10 ; 92042.9999999999
151 ; 5149117.409925606 ; 1.4665837670133084E8 ; 7.979360697943842E8 ; 2.0523121266853775E10 ; 92656.6199999999
152 ; 5142749.582543553 ; 1.4665837670133084E8 ; 8.030851872043098E8 ; 2.0669779643555107E10 ; 93270.23999999989
153 ; 5138073.80793787 ; 1.4665837670133084E8 ; 8.082279367868534E8 ; 2.081643802025644E10 ; 93883.85999999988
154 ; 5135388.759863378 ; 1.4665837670133084E8 ; 8.133660105947913E8 ; 2.096309639695777E10 ; 94497.47999999988
155 ; 5129696.085290383 ; 1.4665837670133084E8 ; 8.185013993546547E8 ; 2.1109754773659103E10 ; 95111.09999999987
156 ; 5125300.987578954 ; 1.4665837670133084E8 ; 8.236310954399451E8 ; 2.1256413150360435E10 ; 95724.71999999987
157 ; 5120997.307709272 ; 1.4665837670133084E8 ; 8.287563964275241E8 ; 2.1403071527061768E10 ; 96338.33999999987
158 ; 5118103.033473186 ; 1.4665837670133084E8 ; 8.338773937352333E8 ; 2.15497299037631E10 ; 96951.95999999986
159 ; 5113131.576577416 ; 1.4665837670133084E8 ; 8.389954967687064E8 ; 2.169638828046443E10 ; 97565.57999999986
160 ; 5107303.2421096675 ; 1.4665837670133084E8 ; 8.441086283452839E8 ; 2.1843046657165764E10 ; 98179.19999999985
161 ; 5103819.198982771 ; 1.4665837670133084E8 ; 8.492159315873935E8 ; 2.1989705033867096E10 ; 98792.81999999985
162 ; 5099970.108611817 ; 1.4665837670133084E8 ; 8.543197507863762E8 ; 2.2136363410568428E10 ; 99406.43999999984
163 ; 5092835.646038587 ; 1.4665837670133084E8 ; 8.594197208949881E8 ; 2.228302178726976E10 ; 100020.05999999984
164 ; 5089003.4514161255 ; 1.4665837670133084E8 ; 8.645125565410266E8 ; 2.2429680163971092E10 ; 100633.67999999983
165 ; 5082927.235997834 ; 1.4665837670133084E8 ; 8.696015599924427E8 ; 2.2576338540672424E10 ; 101247.29999999983
166 ; 5079123.006611764 ; 1.4665837670133084E8 ; 8.746844872284405E8 ; 2.2722996917373756E10 ; 101860.91999999982
167 ; 5075065.995947358 ; 1.4665837670133084E8 ; 8.797636102350523E8 ; 2.286965529407509E10 ; 102474.53999999982
168 ; 5068338.684995656 ; 1.4665837670133084E8 ; 8.848386762309997E8 ; 2.301631367077642E10 ; 103088.15999999981
169 ; 5062560.204689072 ; 1.4665837670133084E8 ; 8.899070149159954E8 ; 2.3162972047477753E10 ; 103701.77999999981
170 ; 5060078.995147278 ; 1.4665837670133084E8 ; 8.949695751206844E8 ; 2.3309630424179085E10 ; 104315.3999999998
171 ; 5054629.197198393 ; 1.4665837670133084E8 ; 9.000296541158316E8 ; 2.3456288800880417E10 ; 104929.0199999998
172 ; 5050703.5239105765 ; 1.4665837670133084E8 ; 9.0508428331303E8 ; 2.360294717758175E10 ; 105542.6399999998
173 ; 5046993.117823813 ; 1.4665837670133084E8 ; 9.101349868369405E8 ; 2.374960555428308E10 ; 106156.25999999979
174 ; 5040455.142797845 ; 1.4665837670133084E8 ; 9.151819799547644E8 ; 2.3896263930984413E10 ; 106769.87999999979
175 ; 5041634.756169787 ; 1.4665837670133084E8 ; 9.202224350975622E8 ; 2.4042922307685745E10 ; 107383.49999999978
176 ; 5035865.778151243 ; 1.4665837670133084E8 ; 9.25264069853732E8 ; 2.4189580684387077E10 ; 107997.11999999978
