CSV File for the City 2 on Day 119
1 - Minute m 
2 - Power Consumed at minute m 
3 - Power Produced at minute m 
4 - Energy Consumed since the beginning of the day 
5 - Energy Produced since the beginning of the day 
6 - Energy Lost since the beginning of the day on lines starting from the city
 
0 ; 1805347.7390269248 ; 1.0526143956109539E8 ; 0.0 ; 0.0 ; 0.0
1 ; 1806039.0712072344 ; 1.054154196619578E8 ; 1805347.7390269248 ; 1.0526143956109539E8 ; 0.0
2 ; 1810000.609263451 ; 1.0587807656046596E8 ; 3611386.810234159 ; 2.106768592230532E8 ; 0.0
3 ; 1811081.325241744 ; 1.0664941060240841E8 ; 5421387.41949761 ; 3.1655493578351915E8 ; 0.0
4 ; 1813178.7858196206 ; 1.0772942209734917E8 ; 7232468.744739354 ; 4.2320434638592756E8 ; 0.0
5 ; 1817851.645475269 ; 1.091181113170225E8 ; 9045647.530558974 ; 5.309337684832767E8 ; 0.0
6 ; 1822556.1113088499 ; 1.1081547849389896E8 ; 1.0863499176034242E7 ; 6.400518798002992E8 ; 0.0
7 ; 1829436.0184329601 ; 1.1282152381993932E8 ; 1.2686055287343092E7 ; 7.508673582941982E8 ; 0.0
8 ; 1839026.4410122475 ; 1.15136247445553E8 ; 1.4515491305776052E7 ; 8.636888821141374E8 ; 0.0
9 ; 1852200.2599740583 ; 1.1775964947877365E8 ; 1.63545177467883E7 ; 9.788251295596905E8 ; 0.0
10 ; 1872978.5880856852 ; 1.2069172998466241E8 ; 1.820671800676236E7 ; 1.096584779038464E9 ; 0.0
11 ; 1908141.693489907 ; 1.2393248898494652E8 ; 2.0079696594848044E7 ; 1.2172765090231266E9 ; 0.0
12 ; 1961251.2752468146 ; 1.274819264578987E8 ; 2.198783828833795E7 ; 1.341208998008073E9 ; 0.0
13 ; 2013955.0709059348 ; 1.3134004233845782E8 ; 2.3949089563584764E7 ; 1.4686909244659717E9 ; 0.0
14 ; 2021088.9207729932 ; 1.3550683651859033E8 ; 2.59630446344907E7 ; 1.6000309668044295E9 ; 0.0
15 ; 2022614.5985099413 ; 1.3998230884788668E8 ; 2.798413355526369E7 ; 1.73553780332302E9 ; 0.0
16 ; 2025131.874606246 ; 1.447664591343862E8 ; 3.0006748153773632E7 ; 1.8755201121709065E9 ; 0.0
17 ; 2028381.690126622 ; 1.498592871456183E8 ; 3.2031880028379876E7 ; 2.0202865713052928E9 ; 0.0
18 ; 2030581.5858384268 ; 1.5526079260984868E8 ; 3.40602617185065E7 ; 2.170145858450911E9 ; 0.0
19 ; 2031943.7628691655 ; 1.6097097521751335E8 ; 3.609084330434493E7 ; 2.3254066510607595E9 ; 0.0
20 ; 2035301.421626449 ; 1.6698983462282375E8 ; 3.8122787067214094E7 ; 2.486377626278273E9 ; 0.0
21 ; 2037948.8932315179 ; 1.7331737044552436E8 ; 4.015808848884054E7 ; 2.653367460901097E9 ; 0.0
22 ; 2040810.4182594428 ; 1.7995358227278137E8 ; 4.219603738207206E7 ; 2.826684831346621E9 ; 0.0
23 ; 2043952.9430866134 ; 1.8689846966118276E8 ; 4.42368478003315E7 ; 3.0066384136194024E9 ; 0.0
24 ; 2046125.582010603 ; 1.9415203213882703E8 ; 4.628080074341812E7 ; 3.1935368832805853E9 ; 0.0
25 ; 2048366.0251748092 ; 2.0040231010566366E8 ; 4.8326926325428724E7 ; 3.387688915419412E9 ; 0.0
26 ; 2051182.9310476854 ; 2.0040285087259245E8 ; 5.0375292350603536E7 ; 3.588091225525076E9 ; 0.0
27 ; 2054837.4472298555 ; 2.0040342318859655E8 ; 5.242647528165122E7 ; 3.7884940763976684E9 ; 0.0
28 ; 2056198.4039770854 ; 2.0040402648975137E8 ; 5.4481312728881076E7 ; 3.988897499586265E9 ; 0.0
29 ; 2058746.8596379815 ; 2.0040466019469485E8 ; 5.6537511132858165E7 ; 4.1893015260760164E9 ; 0.0
30 ; 2061901.609591393 ; 2.004053237068241E8 ; 5.859625799249615E7 ; 4.389706186270711E9 ; 0.0
31 ; 2063193.676323529 ; 2.0040601641644818E8 ; 6.065815960208754E7 ; 4.590111509977535E9 ; 0.0
32 ; 2065533.7339761835 ; 2.004067377028837E8 ; 6.272135327841107E7 ; 4.790517526393984E9 ; 0.0
33 ; 2069261.266739789 ; 2.004074869364805E8 ; 6.478688701238725E7 ; 4.990924264096868E9 ; 0.0
34 ; 2070276.8625020925 ; 2.0040826348056808E8 ; 6.685614827912704E7 ; 5.191331751033348E9 ; 0.0
35 ; 2072269.3999597658 ; 2.0040906669331357E8 ; 6.892642514162913E7 ; 5.391740014513916E9 ; 0.0
36 ; 2074359.3772956776 ; 2.0040989592948458E8 ; 7.09986945415889E7 ; 5.59214908120723E9 ; 0.0
37 ; 2076319.2068447643 ; 2.00410750542112E8 ; 7.307305391888458E7 ; 5.792558977136714E9 ; 0.0
38 ; 2078753.5612915389 ; 2.004116298840485E8 ; 7.514937312572934E7 ; 5.992969727678826E9 ; 0.0
39 ; 2080148.4873828709 ; 2.004125333094211E8 ; 7.722812668702088E7 ; 6.193381357562875E9 ; 0.0
40 ; 2082848.440477056 ; 2.0041346017497587E8 ; 7.930827517440376E7 ; 6.393793890872296E9 ; 0.0
41 ; 2085335.2695101511 ; 2.00414409841316E8 ; 8.139112361488082E7 ; 6.594207351047272E9 ; 0.0
42 ; 2086576.3353981187 ; 2.0041538167403328E8 ; 8.347645888439097E7 ; 6.794621760888588E9 ; 0.0
43 ; 2088762.6008089944 ; 2.0041637504473576E8 ; 8.556303521978909E7 ; 6.995037142562621E9 ; 0.0
44 ; 2089346.427865146 ; 2.0041738933197433E8 ; 8.765179782059808E7 ; 7.195453517607357E9 ; 0.0
45 ; 2090503.8670489658 ; 2.004184239220711E8 ; 8.974114424846323E7 ; 7.395870906939331E9 ; 0.0
46 ; 2092248.4932078621 ; 2.0041947820985416E8 ; 9.183164811551219E7 ; 7.5962893308614025E9 ; 0.0
47 ; 2093918.4570906633 ; 2.0042055159930262E8 ; 9.392389660872005E7 ; 7.796708809071257E9 ; 0.0
48 ; 2095024.1563199617 ; 2.0042164350410694E8 ; 9.601781506581071E7 ; 7.997129360670559E9 ; 0.0
49 ; 2095231.0772446585 ; 2.0042275334814873E8 ; 9.811283922213067E7 ; 8.197551004174665E9 ; 0.0
50 ; 2095524.7174470164 ; 2.0042388056590605E8 ; 1.0020807029937533E8 ; 8.397973757522814E9 ; 0.0
51 ; 2097512.496010043 ; 2.00425024602788E8 ; 1.0230359501682234E8 ; 8.59839763808872E9 ; 0.0
52 ; 2097537.7102563097 ; 2.0042618491540468E8 ; 1.0440110751283239E8 ; 8.79882266269151E9 ; 0.0
53 ; 2099565.7191950544 ; 2.0042736097177675E8 ; 1.064986452230887E8 ; 8.999248847606915E9 ; 0.0
54 ; 2100019.428688551 ; 2.0042855225148982E8 ; 1.0859821094228375E8 ; 9.199676208578691E9 ; 0.0
55 ; 2100187.822958328 ; 2.0042975824579832E8 ; 1.106982303709723E8 ; 9.400104760830181E9 ; 0.0
56 ; 2103363.452495 ; 2.0043097845768312E8 ; 1.1279841819393063E8 ; 9.60053451907598E9 ; 0.0
57 ; 2105037.3369767824 ; 2.0043221240186766E8 ; 1.1490178164642562E8 ; 9.800965497533663E9 ; 0.0
58 ; 2103061.8819088624 ; 2.0043345960479638E8 ; 1.170068189834024E8 ; 1.000139770993553E10 ; 0.0
59 ; 2104578.5458670002 ; 2.004347196045796E8 ; 1.1910988086531126E8 ; 1.0201831169540325E10 ; 0.0
60 ; 2105549.419004066 ; 2.0043599195090815E8 ; 1.2121445941117826E8 ; 1.0402265889144905E10 ; 0.0
61 ; 2105500.7027329965 ; 2.004372762049418E8 ; 1.2332000883018233E8 ; 1.0602701881095814E10 ; 0.0
62 ; 2105791.1598246885 ; 2.0043857193917406E8 ; 1.2542550953291532E8 ; 1.0803139157300756E10 ; 0.0
63 ; 2105587.2292103725 ; 2.004398787372768E8 ; 1.2753130069274001E8 ; 1.1003577729239931E10 ; 0.0
64 ; 2106030.938684417 ; 2.0044119619392717E8 ; 1.2963688792195038E8 ; 1.1204017607977207E10 ; 0.0
65 ; 2107823.946372471 ; 2.0044252391461954E8 ; 1.317429188606348E8 ; 1.1404458804171135E10 ; 0.0
66 ; 2108361.490573555 ; 2.004438615154646E8 ; 1.3385074280700727E8 ; 1.1604901328085754E10 ; 0.0
67 ; 2107657.3958282596 ; 2.004452086229781E8 ; 1.3595910429758084E8 ; 1.180534518960122E10 ; 0.0
68 ; 2105831.022814716 ; 2.0044656487386063E8 ; 1.380667616934091E8 ; 1.2005790398224197E10 ; 0.0
69 ; 2102629.5439797677 ; 2.0044792991477066E8 ; 1.401725927162238E8 ; 1.2206236963098059E10 ; 0.0
70 ; 2101598.463521912 ; 2.004493034020924E8 ; 1.4227522226020357E8 ; 1.2406684893012829E10 ; 0.0
71 ; 2098933.459789515 ; 2.004506850016995E8 ; 1.4437682072372547E8 ; 1.260713419641492E10 ; 0.0
72 ; 2098158.5207971875 ; 2.0045207438871643E8 ; 1.4647575418351498E8 ; 1.280758488141662E10 ; 0.0
73 ; 2097113.2849547572 ; 2.004534712472782E8 ; 1.4857391270431218E8 ; 1.3008036955805336E10 ; 0.0
74 ; 2094833.0586746074 ; 2.0045487527028984E8 ; 1.5067102598926693E8 ; 1.3208490427052614E10 ; 0.0
75 ; 2090980.0393080302 ; 2.0045628615918624E8 ; 1.5276585904794154E8 ; 1.3408945302322905E10 ; 0.0
76 ; 2090028.7468926765 ; 2.0045770362369335E8 ; 1.5485683908724958E8 ; 1.360940158848209E10 ; 0.0
77 ; 2088985.6525591335 ; 2.0045912738159114E8 ; 1.5694686783414227E8 ; 1.3809859292105783E10 ; 0.0
78 ; 2086908.840578604 ; 2.0046055715847957E8 ; 1.590358534867014E8 ; 1.4010318419487375E10 ; 0.0
79 ; 2083052.489080772 ; 2.00461992687547E8 ; 1.6112276232728E8 ; 1.4210778976645855E10 ; 0.0
80 ; 2081193.4977758483 ; 2.004634337093429E8 ; 1.632058148163608E8 ; 1.4411240969333403E10 ; 0.0
81 ; 2078985.0850093304 ; 2.004648799715537E8 ; 1.6528700831413665E8 ; 1.4611704403042746E10 ; 0.0
82 ; 2076544.5563301132 ; 2.004663312287836E8 ; 1.67365993399146E8 ; 1.48121692830143E10 ; 0.0
83 ; 2073054.5924023995 ; 2.004677872423393E8 ; 1.694425379554761E8 ; 1.5012635614243084E10 ; 0.0
84 ; 2069348.9477935685 ; 2.0046924778001985E8 ; 1.715155925478785E8 ; 1.5213103401485424E10 ; 0.0
85 ; 2066380.620920101 ; 2.00470712615911E8 ; 1.7358494149567208E8 ; 1.5413572649265444E10 ; 0.0
86 ; 2064969.870172476 ; 2.00472181530185E8 ; 1.7565132211659217E8 ; 1.5614043361881355E10 ; 0.0
87 ; 2060713.770374356 ; 2.0047365430890515E8 ; 1.7771629198676464E8 ; 1.5814515543411541E10 ; 0.0
88 ; 2058177.8452593056 ; 2.004751307438356E8 ; 1.79777005757139E8 ; 1.6014989197720446E10 ; 0.0
89 ; 2055876.8861041982 ; 2.0047661063225648E8 ; 1.818351836023983E8 ; 1.6215464328464281E10 ; 0.0
90 ; 2054581.9502511283 ; 2.0047809377678406E8 ; 1.838910604885025E8 ; 1.6415940939096537E10 ; 0.0
91 ; 2049818.4376497257 ; 2.004795799851962E8 ; 1.8594564243875363E8 ; 1.6616419032873322E10 ; 0.0
92 ; 2047608.6993703805 ; 2.0048106907026297E8 ; 1.8799546087640336E8 ; 1.6816898612858519E10 ; 0.0
93 ; 2044018.641272604 ; 2.0048256084958243E8 ; 1.9004306957577375E8 ; 1.7017379681928782E10 ; 0.0
94 ; 2041388.871323074 ; 2.0048405514542127E8 ; 1.9208708821704635E8 ; 1.7217862242778362E10 ; 0.0
95 ; 2039288.0162481174 ; 2.0048555178456074E8 ; 1.9412847708836943E8 ; 1.7418346297923782E10 ; 0.0
96 ; 2036594.3874206461 ; 2.0048705059814724E8 ; 1.9616776510461754E8 ; 1.7618831849708344E10 ; 0.0
97 ; 2033859.7061605444 ; 2.0048855142154795E8 ; 1.982043594920382E8 ; 1.781931890030649E10 ; 0.0
98 ; 2031232.2560771317 ; 2.004900540942109E8 ; 2.0023821919819874E8 ; 1.801980745172804E10 ; 0.0
99 ; 2026134.602719954 ; 2.0049155845952994E8 ; 2.0226945145427588E8 ; 1.822029750582225E10 ; 0.0
100 ; 2024071.4704618573 ; 2.0049306436471412E8 ; 2.0429558605699584E8 ; 1.842078906428178E10 ; 0.0
101 ; 2020380.31023522 ; 2.0049457166066137E8 ; 2.0631965752745768E8 ; 1.8621282128646496E10 ; 0.0
102 ; 2017045.1850321922 ; 2.0049608020183665E8 ; 2.0834003783769292E8 ; 1.8821776700307156E10 ; 0.0
103 ; 2014671.2690220193 ; 2.0049758984615415E8 ; 2.103570830227251E8 ; 1.902227278050899E10 ; 0.0
104 ; 2011286.865708896 ; 2.0049910045486367E8 ; 2.1237175429174712E8 ; 1.9222770370355145E10 ; 0.0
105 ; 2008436.6548118014 ; 2.0050061189244074E8 ; 2.14383041157456E8 ; 1.942326947081001E10 ; 0.0
106 ; 2005229.5156916094 ; 2.0050212402648076E8 ; 2.163914778122678E8 ; 1.962377008270245E10 ; 0.0
107 ; 2001463.4612359642 ; 2.0050363672759685E8 ; 2.1839670732795942E8 ; 1.982427220672893E10 ; 0.0
108 ; 1998250.382233918 ; 2.0050514986932114E8 ; 2.203981707891954E8 ; 2.0024775843456528E10 ; 0.0
109 ; 1995653.706218466 ; 2.005066633280097E8 ; 2.223964211714293E8 ; 2.0225280993325848E10 ; 0.0
110 ; 1992980.360331858 ; 2.005081769827507E8 ; 2.2439207487764776E8 ; 2.042578765665386E10 ; 0.0
111 ; 1988541.944861803 ; 2.0050969071527618E8 ; 2.2638505523797962E8 ; 2.062629583363661E10 ; 0.0
112 ; 1986106.9882840419 ; 2.0051120440987626E8 ; 2.2837359718284142E8 ; 2.0826805524351883E10 ; 0.0
113 ; 1982951.9717255025 ; 2.005127179533173E8 ; 2.3035970417112547E8 ; 2.102731672876176E10 ; 0.0
114 ; 1980421.5808004017 ; 2.005142312347623E8 ; 2.3234265614285097E8 ; 2.1227829446715076E10 ; 0.0
115 ; 1976880.2297356687 ; 2.0051574414569446E8 ; 2.3432307772365138E8 ; 2.142834367794984E10 ; 0.0
116 ; 1974172.5342062935 ; 2.0051725657984343E8 ; 2.3629995795338705E8 ; 2.1628859422095535E10 ; 0.0
117 ; 1969788.2480967378 ; 2.005187684331142E8 ; 2.3827413048759335E8 ; 2.1829376678675377E10 ; 0.0
118 ; 1966498.7697164454 ; 2.0052027960351855E8 ; 2.402439187356901E8 ; 2.202989544710849E10 ; 0.0
119 ; 1963479.3926168445 ; 2.0052178999110892E8 ; 2.4221041750540653E8 ; 2.223041572671201E10 ; 0.0
120 ; 1959664.0179639065 ; 2.005232994979148E8 ; 2.4417389689802337E8 ; 2.2430937516703117E10 ; 0.0
121 ; 1957413.0636253697 ; 2.0052480802788123E8 ; 2.4613356091598728E8 ; 2.263146081620103E10 ; 0.0
122 ; 1955451.2941795485 ; 2.0052631548680958E8 ; 2.4809097397961265E8 ; 2.2831985624228912E10 ; 0.0
123 ; 1950134.6981452978 ; 2.0052782178230047E8 ; 2.500464252737922E8 ; 2.303251193971572E10 ; 0.0
124 ; 1945050.3377242696 ; 2.0052932682369885E8 ; 2.519965599719375E8 ; 2.323303976149802E10 ; 0.0
125 ; 1943012.7703861615 ; 2.0053083052204072E8 ; 2.5394161030966178E8 ; 2.343356908832172E10 ; 0.0
126 ; 1939485.5905751216 ; 2.0053233279000217E8 ; 2.5588462308004794E8 ; 2.363409991884376E10 ; 0.0
127 ; 1936448.405430512 ; 2.005338335418499E8 ; 2.5782410867062306E8 ; 2.3834632251633762E10 ; 0.0
128 ; 1932743.8351532957 ; 2.005353326933939E8 ; 2.597605570760536E8 ; 2.4035166085175613E10 ; 0.0
129 ; 1929149.9781545901 ; 2.0053683016194117E8 ; 2.6169330091120687E8 ; 2.4235701417869007E10 ; 0.0
130 ; 1924389.719967852 ; 2.0053832586625195E8 ; 2.6362245088936147E8 ; 2.443623824803095E10 ; 0.0
131 ; 1919514.773662828 ; 2.005398197264968E8 ; 2.655468406093293E8 ; 2.46367765738972E10 ; 0.0
132 ; 1917234.3650402236 ; 2.0054131166421548E8 ; 2.6746635538299215E8 ; 2.48373163936237E10 ; 0.0
133 ; 1912945.2546451641 ; 2.0054280160227737E8 ; 2.693835897480324E8 ; 2.5037857705287914E10 ; 0.0
134 ; 1907910.5188759817 ; 2.0054428946484312E8 ; 2.7129653500267756E8 ; 2.523840050689019E10 ; 0.0
135 ; 1903810.97799968 ; 2.005457751773278E8 ; 2.732044455215535E8 ; 2.5438944796355034E10 ; 0.0
136 ; 1898564.699911926 ; 2.0054725866636524E8 ; 2.751082564995532E8 ; 2.563949057153236E10 ; 0.0
137 ; 1895126.4660557904 ; 2.0054873985977367E8 ; 2.7700682119946516E8 ; 2.5840037830198727E10 ; 0.0
138 ; 1890498.5037125454 ; 2.0055021868652254E8 ; 2.7890194766552097E8 ; 2.6040586570058502E10 ; 0.0
139 ; 1885639.8476884556 ; 2.0055169507670072E8 ; 2.807924461692335E8 ; 2.6241136788745026E10 ; 0.0
140 ; 1882491.6513851052 ; 2.0055316896148533E8 ; 2.8267808601692194E8 ; 2.6441688483821728E10 ; 0.0
141 ; 1877631.081632621 ; 2.0055464027311215E8 ; 2.8456057766830707E8 ; 2.6642241652783215E10 ; 0.0
142 ; 1873390.0097109259 ; 2.0055610894484687E8 ; 2.864382087499397E8 ; 2.6842796293056328E10 ; 0.0
143 ; 1868184.034832438 ; 2.0055757491095722E8 ; 2.883115987596506E8 ; 2.7043352402001175E10 ; 0.0
144 ; 1864066.3648101955 ; 2.0055903810668626E8 ; 2.90179782794483E8 ; 2.7243909976912132E10 ; 0.0
145 ; 1862041.7084563216 ; 2.0056049846822658E8 ; 2.920438491592932E8 ; 2.7444469015018818E10 ; 0.0
146 ; 1857653.7474047546 ; 2.005619559326951E8 ; 2.939058908677495E8 ; 2.7645029513487045E10 ; 0.0
147 ; 1852758.5615622145 ; 2.0056341043810922E8 ; 2.9576354461515427E8 ; 2.784559146941974E10 ; 0.0
148 ; 1849212.1005957518 ; 2.0056486192336336E8 ; 2.976163031767165E8 ; 2.804615487985785E10 ; 0.0
149 ; 1846159.4117517667 ; 2.005663103282065E8 ; 2.994655152773123E8 ; 2.824671974178121E10 ; 0.0
150 ; 1844032.490528437 ; 2.0056775559322056E8 ; 3.01311674689064E8 ; 2.8447286052109417E10 ; 0.0
151 ; 1839961.2952462109 ; 2.0056919765979925E8 ; 3.031557071795925E8 ; 2.8647853807702637E10 ; 0.0
152 ; 1835155.309417858 ; 2.0057063647012797E8 ; 3.049956684748387E8 ; 2.8848423005362434E10 ; 0.0
153 ; 1833018.4909038492 ; 2.0057207196716407E8 ; 3.068308237842565E8 ; 2.904899364183256E10 ; 0.0
154 ; 1827549.8927352207 ; 2.0057350409461805E8 ; 3.086638422751604E8 ; 2.9249565713799725E10 ; 0.0
155 ; 1824158.880937088 ; 2.0057493279693523E8 ; 3.104913921678956E8 ; 2.9450139217894344E10 ; 0.0
156 ; 1822155.0231781176 ; 2.0057635801927805E8 ; 3.123155510488327E8 ; 2.965071415069128E10 ; 0.0
157 ; 1815834.545480554 ; 2.00577779707509E8 ; 3.141377060720108E8 ; 2.985129050871056E10 ; 0.0
158 ; 1813799.9263085702 ; 2.0057919780817425E8 ; 3.1595354061749136E8 ; 3.0051868288418068E10 ; 0.0
159 ; 1810311.886991268 ; 2.0058061226848745E8 ; 3.1776734054379994E8 ; 3.0252447486226242E10 ; 0.0
160 ; 1805389.6437236578 ; 2.0058202303631446E8 ; 3.195776524307912E8 ; 3.0453028098494728E10 ; 0.0
161 ; 1801424.4427322284 ; 2.005834300601584E8 ; 3.2138304207451487E8 ; 3.0653610121531044E10 ; 0.0
162 ; 1798190.5463647905 ; 2.005848332891453E8 ; 3.231844665172471E8 ; 3.08541935515912E10 ; 0.0
163 ; 1794847.9671362056 ; 2.0058623267300996E8 ; 3.2498265706361187E8 ; 3.105477838488035E10 ; 0.0
164 ; 1790946.091786715 ; 2.0058762816208267E8 ; 3.2677750503074807E8 ; 3.125536461755336E10 ; 0.0
165 ; 1784998.586243348 ; 2.0058901970727608E8 ; 3.285684511225348E8 ; 3.1455952245715443E10 ; 0.0
166 ; 1784309.3369885522 ; 2.0059040726007253E8 ; 3.3035344970877814E8 ; 3.1656541265422718E10 ; 0.0
167 ; 1781103.825175638 ; 2.005917907725119E8 ; 3.321377590457667E8 ; 3.185713167268279E10 ; 0.0
168 ; 1777211.5554451353 ; 2.005931701971798E8 ; 3.3391886287094235E8 ; 3.20577234634553E10 ; 0.0
169 ; 1772787.8255311416 ; 2.005945454871961E8 ; 3.356960744263875E8 ; 3.225831663365248E10 ; 0.0
170 ; 1767679.6837648302 ; 2.0059591659620392E8 ; 3.374688622519186E8 ; 3.245891117913968E10 ; 0.0
171 ; 1764099.582044094 ; 2.0059728347835892E8 ; 3.392365419356834E8 ; 3.265950709573588E10 ; 0.0
172 ; 1761403.0942996528 ; 2.005986460883189E8 ; 3.410006415177275E8 ; 3.286010437921424E10 ; 0.0
173 ; 1755989.5464106181 ; 2.0060000438123387E8 ; 3.4276204461202717E8 ; 3.306070302530256E10 ; 0.0
174 ; 1753950.4376289642 ; 2.0060135831273615E8 ; 3.445180341584378E8 ; 3.3261303029683792E10 ; 0.0
175 ; 1750218.3085306787 ; 2.006027078389312E8 ; 3.462719845960668E8 ; 3.346190438799653E10 ; 0.0
176 ; 1747193.7813363865 ; 2.0060405291638845E8 ; 3.4802220290459746E8 ; 3.366250709583546E10 ; 0.0
177 ; 1744694.0200462327 ; 2.0060539350213242E8 ; 3.497693966859338E8 ; 3.386311114875185E10 ; 0.0
178 ; 1741656.6941061798 ; 2.0060672955363426E8 ; 3.5151409070598006E8 ; 3.4063716542253983E10 ; 0.0
179 ; 1737328.4437852963 ; 2.0060806102880347E8 ; 3.532557474000862E8 ; 3.4264323271807617E10 ; 0.0
180 ; 1733859.5026697256 ; 2.0060938788597998E8 ; 3.5499307584387153E8 ; 3.446493133283642E10 ; 0.0
181 ; 1731183.7636592926 ; 2.0061071008392623E8 ; 3.567269353465413E8 ; 3.46655407207224E10 ; 0.0
182 ; 1729503.2913489693 ; 2.0061202758181986E8 ; 3.584581191102006E8 ; 3.486615143080632E10 ; 0.0
183 ; 1726059.5659605684 ; 2.0061334033924636E8 ; 3.601876224015496E8 ; 3.506676345838814E10 ; 0.0
184 ; 1721569.5036663052 ; 2.0061464831619194E8 ; 3.6191368196751016E8 ; 3.526737679872739E10 ; 0.0
185 ; 1718506.1672244237 ; 2.0061595147303692E8 ; 3.6363525147117645E8 ; 3.546799144704358E10 ; 0.0
186 ; 1715261.3485893146 ; 2.006172497705489E8 ; 3.6535375763840085E8 ; 3.566860739851662E10 ; 0.0
187 ; 1713450.8160502596 ; 2.0061854316987655E8 ; 3.6706901898699015E8 ; 3.586922464828716E10 ; 0.0
188 ; 1709228.6252224643 ; 2.0061983163254315E8 ; 3.687824698030404E8 ; 3.606984319145704E10 ; 0.0
189 ; 1705679.3507208196 ; 2.0062111512044093E8 ; 3.704916984282628E8 ; 3.6270463023089584E10 ; 0.0
190 ; 1702142.3528792085 ; 2.0062239359582493E8 ; 3.7219737777898365E8 ; 3.647108413821002E10 ; 0.0
191 ; 1699418.0355584507 ; 2.0062366702130747E8 ; 3.738995201318629E8 ; 3.667170653180585E10 ; 0.0
192 ; 1696420.604383595 ; 2.0062493535985273E8 ; 3.7559893816742134E8 ; 3.6872330198827156E10 ; 0.0
193 ; 1692674.2737795417 ; 2.0062619857477134E8 ; 3.772953587718049E8 ; 3.707295513418701E10 ; 0.0
194 ; 1690365.3066219534 ; 2.006274566297153E8 ; 3.789880330455845E8 ; 3.727358133276178E10 ; 0.0
195 ; 1686166.175648925 ; 2.0062870948867297E8 ; 3.8067839835220647E8 ; 3.7474208789391495E10 ; 0.0
196 ; 1682499.3440357593 ; 2.006299571159642E8 ; 3.823645645278554E8 ; 3.7674837498880165E10 ; 0.0
197 ; 1679804.7907864563 ; 2.0063119947623575E8 ; 3.8404706387189114E8 ; 3.787546745599613E10 ; 0.0
198 ; 1677766.6949213222 ; 2.0063243653445658E8 ; 3.857268686626776E8 ; 3.807609865547237E10 ; 0.0
199 ; 1672823.1719056289 ; 2.006336682559136E8 ; 3.874046353575989E8 ; 3.827673109200682E10 ; 0.0
