CSV File for the City 1 on Day 86
1 - Minute m 
2 - Power Consumed at minute m 
3 - Power Produced at minute m 
4 - Energy Consumed since the beginning of the day 
5 - Energy Produced since the beginning of the day 
6 - Energy Lost since the beginning of the day on lines starting from the city
 
0 ; 1.6066386308818404E7 ; 1.055252759941757E8 ; 0.0 ; 0.0 ; 0.0
1 ; 1.6084535589052072E7 ; 1.0567821918330038E8 ; 1.6066386308818404E7 ; 1.055252759941757E8 ; 0.0
2 ; 1.6099514399986997E7 ; 1.061399446424624E8 ; 3.2150921897870474E7 ; 2.1120349517747608E8 ; 0.0
3 ; 1.6115919219135389E7 ; 1.0691045391225171E8 ; 4.825043629785747E7 ; 3.173434398199385E8 ; 0.0
4 ; 1.6142439950309096E7 ; 1.0798974837412483E8 ; 6.436635551699286E7 ; 4.242538937321902E8 ; 0.0
5 ; 1.617244026551959E7 ; 1.0937782924247688E8 ; 8.050879546730195E7 ; 5.32243642106315E8 ; 0.0
6 ; 1.621254365589917E7 ; 1.1107469755753395E8 ; 9.668123573282154E7 ; 6.416214713487918E8 ; 0.0
7 ; 1.6263811879351364E7 ; 1.1308035417916107E8 ; 1.128937793887207E8 ; 7.526961689063258E8 ; 0.0
8 ; 1.6344343260217251E7 ; 1.1539479978167146E8 ; 1.2915759126807207E8 ; 8.657765230854869E8 ; 0.0
9 ; 1.645973413700993E7 ; 1.1801803484971005E8 ; 1.4550193452828932E8 ; 9.811713228671584E8 ; 0.0
10 ; 1.6640194936461518E7 ; 1.2095005967526966E8 ; 1.6196166866529924E8 ; 1.0991893577168684E9 ; 0.0
11 ; 1.6928685856790267E7 ; 1.2419087435588291E8 ; 1.7860186360176075E8 ; 1.220139417392138E9 ; 0.0
12 ; 1.7393842889575385E7 ; 1.2774047879401717E8 ; 1.9553054945855102E8 ; 1.344330291748021E9 ; 0.0
13 ; 1.783365185248806E7 ; 1.3159887269767958E8 ; 2.129243923481264E8 ; 1.472070770542038E9 ; 0.0
14 ; 1.7894153516556047E7 ; 1.3576605558222532E8 ; 2.3075804420061448E8 ; 1.6036696432397175E9 ; 0.0
15 ; 1.7911371932045218E7 ; 1.4024202677334106E8 ; 2.4865219771717054E8 ; 1.7394356988219428E9 ; 0.0
16 ; 1.792666392528907E7 ; 1.4502678541116187E8 ; 2.6656356964921576E8 ; 1.879677725595284E9 ; 0.0
17 ; 1.795230079333873E7 ; 1.501203304554616E8 ; 2.8449023357450485E8 ; 2.024704511006446E9 ; 0.0
18 ; 1.7970921735188942E7 ; 1.5552266069184512E8 ; 3.0244253436784357E8 ; 2.1748248414619074E9 ; 0.0
19 ; 1.799747669014517E7 ; 1.6123377473885593E8 ; 3.204134561030325E8 ; 2.3303475021537523E9 ; 0.0
20 ; 1.801561116665055E7 ; 1.6725367105590406E8 ; 3.384109327931777E8 ; 2.491581276892608E9 ; 0.0
21 ; 1.8037374992231715E7 ; 1.7358234795191124E8 ; 3.5642654395982826E8 ; 2.658834947948512E9 ; 0.0
22 ; 1.805888398694558E7 ; 1.8021980359456265E8 ; 3.7446391895206E8 ; 2.8324172959004235E9 ; 0.0
23 ; 1.8080610083999597E7 ; 1.8716603602005464E8 ; 3.9252280293900555E8 ; 3.012637099494986E9 ; 0.0
24 ; 1.809915470265461E7 ; 1.9442104314322245E8 ; 4.106034130230051E8 ; 3.199803135515041E9 ; 0.0
25 ; 1.812221418437053E7 ; 2.0067286366612154E8 ; 4.287025677256597E8 ; 3.394224178658263E9 ; 0.0
26 ; 1.814352349978537E7 ; 2.006750431254794E8 ; 4.4682478191003025E8 ; 3.5948970423243847E9 ; 0.0
27 ; 1.816505746003848E7 ; 2.006773484282107E8 ; 4.649683054098156E8 ; 3.795572085449864E9 ; 0.0
28 ; 1.818564250851656E7 ; 2.0067977710875806E8 ; 4.831333628698541E8 ; 3.9962494338780746E9 ; 0.0
29 ; 1.820656674225552E7 ; 2.0068232663277233E8 ; 5.0131900537837064E8 ; 4.1969292109868326E9 ; 0.0
30 ; 1.8223651999864615E7 ; 2.006849944073323E8 ; 5.1952557212062615E8 ; 4.397611537619605E9 ; 0.0
31 ; 1.8242576737713933E7 ; 2.0068777779087645E8 ; 5.377492241204908E8 ; 4.5982965320269375E9 ; 0.0
32 ; 1.8264215055903047E7 ; 2.0069067410278344E8 ; 5.559918008582047E8 ; 4.798984309817814E9 ; 0.0
33 ; 1.8283417233487528E7 ; 2.0069368063254815E8 ; 5.742560159141078E8 ; 4.999674983920597E9 ; 0.0
34 ; 1.8299927866085067E7 ; 2.0069679464850932E8 ; 5.925394331475953E8 ; 5.200368664553145E9 ; 0.0
35 ; 1.8314927302272037E7 ; 2.007000134060944E8 ; 6.108393610136803E8 ; 5.401065459201654E9 ; 0.0
36 ; 1.8333685351133026E7 ; 2.00703334155556E8 ; 6.291542883159524E8 ; 5.601765472607749E9 ; 0.0
37 ; 1.8348488351050936E7 ; 2.0070675414918253E8 ; 6.474879736670854E8 ; 5.802468806763305E9 ; 0.0
38 ; 1.8365875243771985E7 ; 2.0071027064797348E8 ; 6.658364620181364E8 ; 6.003175560912487E9 ; 0.0
39 ; 1.838180530488461E7 ; 2.0071388092777643E8 ; 6.842023372619084E8 ; 6.20388583156046E9 ; 0.0
40 ; 1.8391932976361636E7 ; 2.0071758228488895E8 ; 7.02584142566793E8 ; 6.404599712488236E9 ; 0.0
41 ; 1.8409589615079623E7 ; 2.0072137204113448E8 ; 7.209760755431546E8 ; 6.605317294773126E9 ; 0.0
42 ; 1.8424867827424195E7 ; 2.0072524754842475E8 ; 7.393856651582342E8 ; 6.8060386668142605E9 ; 0.0
43 ; 1.8428944814318437E7 ; 2.0072920619282624E8 ; 7.578105329856584E8 ; 7.006763914362685E9 ; 0.0
44 ; 1.844638934813151E7 ; 2.0073324539815027E8 ; 7.762394777999768E8 ; 7.207493120555511E9 ; 0.0
45 ; 1.8455461258207828E7 ; 2.0073736262908956E8 ; 7.946858671481084E8 ; 7.408226365953662E9 ; 0.0
46 ; 1.8465938358268846E7 ; 2.0074155539392534E8 ; 8.131413284063162E8 ; 7.608963728582751E9 ; 0.0
47 ; 1.8472591580340747E7 ; 2.0074582124683025E8 ; 8.31607266764585E8 ; 7.809705283976677E9 ; 0.0
48 ; 1.848315401165069E7 ; 2.0075015778979382E8 ; 8.500798583449258E8 ; 8.010451105223507E9 ; 0.0
49 ; 1.8493522402677167E7 ; 2.0075456267419648E8 ; 8.685630123565764E8 ; 8.211201263013301E9 ; 0.0
50 ; 1.849457398485898E7 ; 2.007590336020593E8 ; 8.870565347592536E8 ; 8.411955825687497E9 ; 0.0
51 ; 1.8505878680280104E7 ; 2.0076356832699493E8 ; 9.055511087441126E8 ; 8.612714859289557E9 ; 0.0
52 ; 1.850632607796913E7 ; 2.007681646548856E8 ; 9.240569874243927E8 ; 8.813478427616552E9 ; 0.0
53 ; 1.8510732575550452E7 ; 2.0077282044431326E8 ; 9.425633135023618E8 ; 9.014246592271439E9 ; 0.0
54 ; 1.851607693719219E7 ; 2.0077753360676497E8 ; 9.610740460779122E8 ; 9.215019412715752E9 ; 0.0
55 ; 1.8522324352981903E7 ; 2.0078230210663635E8 ; 9.795901230151044E8 ; 9.415796946322517E9 ; 0.0
56 ; 1.8531738763748277E7 ; 2.0078712396105486E8 ; 9.981124473680863E8 ; 9.616579248429153E9 ; 0.0
57 ; 1.853414946924079E7 ; 2.007919972395428E8 ; 1.0166441861318346E9 ; 9.81736637239021E9 ; 0.0
58 ; 1.8539631832649097E7 ; 2.0079692006353858E8 ; 1.0351783356010754E9 ; 1.0018158369629751E10 ; 0.0
59 ; 1.854358611314833E7 ; 2.0080189060579458E8 ; 1.0537179674337245E9 ; 1.021895528969329E10 ; 0.0
60 ; 1.8548511547696784E7 ; 2.008069070896672E8 ; 1.0722615535468729E9 ; 1.0419757180299086E10 ; 0.0
61 ; 1.854553380025237E7 ; 2.0081196778831452E8 ; 1.0908100650945697E9 ; 1.0620564087388752E10 ; 0.0
62 ; 1.8557915232030448E7 ; 2.008170710238151E8 ; 1.1093555988948221E9 ; 1.0821376055177067E10 ; 0.0
63 ; 1.8561833920007788E7 ; 2.0082221516622072E8 ; 1.1279135141268525E9 ; 1.1022193126200882E10 ; 0.0
64 ; 1.8566873668631755E7 ; 2.0082739863255447E8 ; 1.1464753480468602E9 ; 1.1223015341367104E10 ; 0.0
65 ; 1.856559664825944E7 ; 2.0083261988576442E8 ; 1.165042221715492E9 ; 1.1423842739999659E10 ; 0.0
66 ; 1.8571890696208283E7 ; 2.008378774336426E8 ; 1.1836078183637514E9 ; 1.1624675359885424E10 ; 0.0
67 ; 1.857452170144107E7 ; 2.008431698277174E8 ; 1.2021797090599597E9 ; 1.1825513237319067E10 ; 0.0
68 ; 1.857680696460513E7 ; 2.0084849566212705E8 ; 1.2207542307614007E9 ; 1.2026356407146784E10 ; 0.0
69 ; 1.858196550963699E7 ; 2.0085385357248107E8 ; 1.2393310377260058E9 ; 1.222720490280891E10 ; 0.0
70 ; 1.8584616465529058E7 ; 2.0085924223471525E8 ; 1.2579130032356427E9 ; 1.2428058756381392E10 ; 0.0
71 ; 1.85877610404684E7 ; 2.008646603639461E8 ; 1.2764976197011716E9 ; 1.2628917998616106E10 ; 0.0
72 ; 1.858782582654916E7 ; 2.0087010671332842E8 ; 1.29508538074164E9 ; 1.2829782658980053E10 ; 0.0
73 ; 1.8592163323117733E7 ; 2.008755800729211E8 ; 1.3136732065681891E9 ; 1.3030652765693382E10 ; 0.0
74 ; 1.859183094698795E7 ; 2.008810792685637E8 ; 1.3322653698913069E9 ; 1.3231528345766304E10 ; 0.0
75 ; 1.8594807616943438E7 ; 2.0088660316076759E8 ; 1.3508572008382947E9 ; 1.3432409425034868E10 ; 0.0
76 ; 1.859648918046095E7 ; 2.0089215064362362E8 ; 1.369452008455238E9 ; 1.3633296028195637E10 ; 0.0
77 ; 1.859776365394886E7 ; 2.008977206437287E8 ; 1.388048497635699E9 ; 1.383418817883926E10 ; 0.0
78 ; 1.8591236997498434E7 ; 2.0090331211913338E8 ; 1.4066462612896478E9 ; 1.4035085899482988E10 ; 0.0
79 ; 1.859021593894322E7 ; 2.0090892405831134E8 ; 1.4252374982871463E9 ; 1.4235989211602121E10 ; 0.0
80 ; 1.8585282381371904E7 ; 2.0091455547915256E8 ; 1.4438277142260895E9 ; 1.4436898135660433E10 ; 0.0
81 ; 1.8581109965771735E7 ; 2.009202054279807E8 ; 1.4624129966074615E9 ; 1.4637812691139585E10 ; 0.0
82 ; 1.857729519650387E7 ; 2.0092587297859567E8 ; 1.4809941065732331E9 ; 1.4838732896567566E10 ; 0.0
83 ; 1.8570883169063907E7 ; 2.009315572313418E8 ; 1.499571401769737E9 ; 1.5039658769546162E10 ; 0.0
84 ; 1.8566775560415704E7 ; 2.009372573122019E8 ; 1.5181422849388008E9 ; 1.5240590326777504E10 ; 0.0
85 ; 1.8560919767464634E7 ; 2.0094297237191734E8 ; 1.5367090604992166E9 ; 1.5441527584089706E10 ; 0.0
86 ; 1.8556266661400575E7 ; 2.0094870158513469E8 ; 1.5552699802666812E9 ; 1.5642470556461624E10 ; 0.0
87 ; 1.8552955535713345E7 ; 2.0095444414957803E8 ; 1.5738262469280818E9 ; 1.5843419258046759E10 ; 0.0
88 ; 1.8549653280749787E7 ; 2.0096019928524742E8 ; 1.5923792024637952E9 ; 1.6044373702196337E10 ; 0.0
89 ; 1.854439117620436E7 ; 2.0096596623364297E8 ; 1.610928855744545E9 ; 1.6245333901481585E10 ; 0.0
90 ; 1.8534883475668523E7 ; 2.0097174425701442E8 ; 1.6294732469207494E9 ; 1.6446299867715227E10 ; 0.0
91 ; 1.8530804904622436E7 ; 2.009775326376353E8 ; 1.6480081303964179E9 ; 1.6647271611972242E10 ; 0.0
92 ; 1.8522857326088168E7 ; 2.0098333067710203E8 ; 1.6665389353010402E9 ; 1.6848249144609879E10 ; 0.0
93 ; 1.8515567109514516E7 ; 2.009891376956567E8 ; 1.6850617926271284E9 ; 1.704923247528698E10 ; 0.0
94 ; 1.850646047547583E7 ; 2.0099495303153333E8 ; 1.7035773597366428E9 ; 1.7250221612982635E10 ; 0.0
95 ; 1.8500083581533797E7 ; 2.010007760403274E8 ; 1.7220838202121186E9 ; 1.7451216566014168E10 ; 0.0
96 ; 1.8498445076825257E7 ; 2.010066060943872E8 ; 1.7405839037936525E9 ; 1.7652217342054497E10 ; 0.0
97 ; 1.8493668885040414E7 ; 2.010124425822273E8 ; 1.7590823488704777E9 ; 1.7853223948148884E10 ; 0.0
98 ; 1.8478806967339788E7 ; 2.0101828490796304E8 ; 1.7775760177555182E9 ; 1.805423639073111E10 ; 0.0
99 ; 1.8474099314063944E7 ; 2.0102413249076554E8 ; 1.796054824722858E9 ; 1.8255254675639072E10 ; 0.0
100 ; 1.8465438204921417E7 ; 2.010299847643366E8 ; 1.814528924036922E9 ; 1.8456278808129837E10 ; 0.0
101 ; 1.8459192488755852E7 ; 2.010358411764029E8 ; 1.8329943622418435E9 ; 1.8657308792894173E10 ; 0.0
102 ; 1.845032493747057E7 ; 2.0104170118822888E8 ; 1.8514535547305994E9 ; 1.8858344634070576E10 ; 0.0
103 ; 1.8441936770544954E7 ; 2.0104756427414784E8 ; 1.86990387966807E9 ; 1.9059386335258804E10 ; 0.0
104 ; 1.8434634364953626E7 ; 2.010534299211101E8 ; 1.888345816438615E9 ; 1.926043389953295E10 ; 0.0
105 ; 1.842814315682152E7 ; 2.010592976282485E8 ; 1.9067804508035686E9 ; 1.946148732945406E10 ; 0.0
106 ; 1.8416115882661708E7 ; 2.0106516690645996E8 ; 1.92520859396039E9 ; 1.966254662708231E10 ; 0.0
107 ; 1.8410661339799576E7 ; 2.0107103727800268E8 ; 1.943624709843052E9 ; 1.986361179398877E10 ; 0.0
108 ; 1.8400011433339935E7 ; 2.0107690827610877E8 ; 1.9620353711828516E9 ; 2.0064682831266773E10 ; 0.0
109 ; 1.8394534916953437E7 ; 2.010827794446111E8 ; 1.9804353826161914E9 ; 2.026575973954288E10 ; 0.0
110 ; 1.838415940680812E7 ; 2.0108865033758473E8 ; 1.9988299175331447E9 ; 2.046684251898749E10 ; 0.0
111 ; 1.8374971933141112E7 ; 2.0109452051900148E8 ; 2.0172140769399529E9 ; 2.0667931169325077E10 ; 0.0
112 ; 1.836029481805262E7 ; 2.0110038956239772E8 ; 2.035589048873094E9 ; 2.0869025689844078E10 ; 0.0
113 ; 1.8352930652427442E7 ; 2.0110625705055484E8 ; 2.0539493436911466E9 ; 2.1070126079406475E10 ; 0.0
114 ; 1.8346066894246332E7 ; 2.0111212257519162E8 ; 2.072302274343574E9 ; 2.127123233645703E10 ; 0.0
115 ; 1.833703070131296E7 ; 2.0111798573666838E8 ; 2.0906483412378204E9 ; 2.1472344459032223E10 ; 0.0
116 ; 1.83217519806669E7 ; 2.0112384614370233E8 ; 2.1089853719391334E9 ; 2.167346244476889E10 ; 0.0
117 ; 1.8310967064104166E7 ; 2.011297034130936E8 ; 2.1273071239198003E9 ; 2.1874586290912594E10 ; 0.0
118 ; 1.8302759897471946E7 ; 2.011355571694617E8 ; 2.1456180909839044E9 ; 2.2075715994325687E10 ; 0.0
119 ; 1.829190523717351E7 ; 2.0114140704499194E8 ; 2.1639208508813763E9 ; 2.2276851551495148E10 ; 0.0
120 ; 1.8280398593276322E7 ; 2.011472526791913E8 ; 2.18221275611855E9 ; 2.247799295854014E10 ; 0.0
121 ; 1.8271091632226016E7 ; 2.0115309371865377E8 ; 2.2004931547118263E9 ; 2.267914021121933E10 ; 0.0
122 ; 1.82581833592482E7 ; 2.0115892981683412E8 ; 2.2187642463440523E9 ; 2.2880293304937984E10 ; 0.0
123 ; 1.824703087174366E7 ; 2.011647606338307E8 ; 2.2370224297033005E9 ; 2.3081452234754818E10 ; 0.0
124 ; 1.8235008682949986E7 ; 2.0117058583617577E8 ; 2.255269460575044E9 ; 2.328261699538865E10 ; 0.0
125 ; 1.8223644307840284E7 ; 2.011764050966342E8 ; 2.273504469257994E9 ; 2.3483787581224823E10 ; 0.0
126 ; 1.8210168423709784E7 ; 2.0118221809400958E8 ; 2.2917281135658345E9 ; 2.3684963986321457E10 ; 0.0
127 ; 1.819757114223675E7 ; 2.0118802451295727E8 ; 2.3099382819895444E9 ; 2.3886146204415466E10 ; 0.0
128 ; 1.8188664714060303E7 ; 2.011938240438048E8 ; 2.328135853131781E9 ; 2.4087334228928425E10 ; 0.0
129 ; 1.8169373203163054E7 ; 2.011996163823787E8 ; 2.3463245178458414E9 ; 2.428852805297223E10 ; 0.0
130 ; 1.8158058388311207E7 ; 2.0120540122983795E8 ; 2.3644938910490046E9 ; 2.4489727669354607E10 ; 0.0
131 ; 1.8139974367026974E7 ; 2.0121117829251334E8 ; 2.382651949437316E9 ; 2.4690933070584446E10 ; 0.0
132 ; 1.8123555797835328E7 ; 2.0121694728175297E8 ; 2.4007919238043427E9 ; 2.489214424887696E10 ; 0.0
133 ; 1.8104487987436898E7 ; 2.0122270791377336E8 ; 2.418915479602178E9 ; 2.5093361196158714E10 ; 0.0
134 ; 1.808746729666867E7 ; 2.0122845990951604E8 ; 2.437019967589615E9 ; 2.5294583904072487E10 ; 0.0
135 ; 1.8069409534780547E7 ; 2.0123420299450934E8 ; 2.4551074348862834E9 ; 2.5495812363982002E10 ; 0.0
136 ; 1.8048916130398687E7 ; 2.012399368987354E8 ; 2.473176844421064E9 ; 2.5697046566976513E10 ; 0.0
137 ; 1.8027643047979683E7 ; 2.0124566135650173E8 ; 2.4912257605514627E9 ; 2.5898286503875248E10 ; 0.0
138 ; 1.8016036779209636E7 ; 2.0125137610631776E8 ; 2.5092534035994425E9 ; 2.609953216523175E10 ; 0.0
139 ; 1.7985488395667706E7 ; 2.012570808907757E8 ; 2.527269440378652E9 ; 2.630078354133807E10 ; 0.0
140 ; 1.796843031160606E7 ; 2.0126277545643568E8 ; 2.5452549287743196E9 ; 2.6502040622228848E10 ; 0.0
141 ; 1.7951621729022868E7 ; 2.0126845955371502E8 ; 2.5632233590859256E9 ; 2.6703303397685284E10 ; 0.0
142 ; 1.7929715012990147E7 ; 2.0127413293678176E8 ; 2.5811749808149486E9 ; 2.6904571857239E10 ; 0.0
143 ; 1.7905709718156837E7 ; 2.012797953634515E8 ; 2.5991046958279386E9 ; 2.710584599017578E10 ; 0.0
144 ; 1.788513941894102E7 ; 2.0128544659508842E8 ; 2.6170104055460954E9 ; 2.7307125785539234E10 ; 0.0
145 ; 1.7876314192186415E7 ; 2.0129108639650947E8 ; 2.6348955449650364E9 ; 2.7508411232134323E10 ; 0.0
146 ; 1.786095536335021E7 ; 2.0129671453589228E8 ; 2.6527718591572227E9 ; 2.7709702318530834E10 ; 0.0
147 ; 1.7849411796412025E7 ; 2.0130233078468597E8 ; 2.670632814520573E9 ; 2.7910999033066727E10 ; 0.0
148 ; 1.7838833692988064E7 ; 2.0130793491752538E8 ; 2.688482226316985E9 ; 2.8112301363851414E10 ; 0.0
149 ; 1.782432968869096E7 ; 2.0131352671214828E8 ; 2.706321060009973E9 ; 2.831360929876894E10 ; 0.0
150 ; 1.7805642132623978E7 ; 2.0131910594931543E8 ; 2.724145389698664E9 ; 2.8514922825481087E10 ; 0.0
151 ; 1.77952635876526E7 ; 2.0132467241273338E8 ; 2.7419510318312883E9 ; 2.87162419314304E10 ; 0.0
152 ; 1.7781324770141296E7 ; 2.013302258889801E8 ; 2.759746295418941E9 ; 2.8917566603843136E10 ; 0.0
153 ; 1.776959069020242E7 ; 2.0133576616743317E8 ; 2.777527620189082E9 ; 2.9118896829732117E10 ; 0.0
154 ; 1.7755536283272047E7 ; 2.0134129304020032E8 ; 2.7952972108792844E9 ; 2.932023259589955E10 ; 0.0
155 ; 1.7740217841163967E7 ; 2.0134680630205256E8 ; 2.8130527471625566E9 ; 2.952157388893975E10 ; 0.0
156 ; 1.7725724146423776E7 ; 2.0135230575035945E8 ; 2.8307929650037208E9 ; 2.9722920695241802E10 ; 0.0
157 ; 1.7713607662009466E7 ; 2.0135779118502685E8 ; 2.8485186891501446E9 ; 2.992427300099216E10 ; 0.0
158 ; 1.7698134400158755E7 ; 2.0136326240843636E8 ; 2.866232296812154E9 ; 3.012563079217719E10 ; 0.0
159 ; 1.7682189971274167E7 ; 2.0136871922538736E8 ; 2.8839304312123127E9 ; 3.0326994054585625E10 ; 0.0
160 ; 1.766672738900267E7 ; 2.0137416144304058E8 ; 2.901612621183587E9 ; 3.0528362773811012E10 ; 0.0
161 ; 1.7652635366907567E7 ; 2.013795888708638E8 ; 2.91927934857259E9 ; 3.072973693525405E10 ; 0.0
162 ; 1.7640096695138384E7 ; 2.013850013205795E8 ; 2.9369319839394975E9 ; 3.0931116524124916E10 ; 0.0
163 ; 1.7621716080521747E7 ; 2.013903986061139E8 ; 2.954572080634636E9 ; 3.1132501525445496E10 ; 0.0
164 ; 1.761142655889543E7 ; 2.0139578054354817E8 ; 2.9721937967151575E9 ; 3.133389192405161E10 ; 0.0
165 ; 1.7597036602572393E7 ; 2.0140114695107087E8 ; 2.989805223274053E9 ; 3.1535287704595158E10 ; 0.0
166 ; 1.7583999337008707E7 ; 2.0140649764893228E8 ; 3.0074022598766255E9 ; 3.173668885154623E10 ; 0.0
167 ; 1.7568335380636677E7 ; 2.0141183245940015E8 ; 3.024986259213634E9 ; 3.1938095349195164E10 ; 0.0
168 ; 1.75533429044903E7 ; 2.014171512067168E8 ; 3.0425545945942707E9 ; 3.2139507181654564E10 ; 0.0
169 ; 1.7536862467568953E7 ; 2.0142245371705788E8 ; 3.060107937498761E9 ; 3.2340924332861282E10 ; 0.0
170 ; 1.7521993468502194E7 ; 2.0142773981849235E8 ; 3.07764479996633E9 ; 3.254234678657834E10 ; 0.0
171 ; 1.750894500364524E7 ; 2.0143300934094372E8 ; 3.095166793434832E9 ; 3.274377452639683E10 ; 0.0
172 ; 1.749396358281784E7 ; 2.014382621161527E8 ; 3.1126757384384775E9 ; 3.2945207535737774E10 ; 0.0
173 ; 1.747692090073314E7 ; 2.0144349797764105E8 ; 3.1301697020212955E9 ; 3.3146645797853928E10 ; 0.0
174 ; 1.747341477155776E7 ; 2.0144871676067653E8 ; 3.1476466229220285E9 ; 3.334808929583157E10 ; 0.0
175 ; 1.7459023016029015E7 ; 2.014539183022391E8 ; 3.1651200376935863E9 ; 3.3549538012592247E10 ; 0.0
176 ; 1.745460026857604E7 ; 2.0145910244098806E8 ; 3.182579060709615E9 ; 3.3750991930894485E10 ; 0.0
177 ; 1.744080602755249E7 ; 2.014642690172306E8 ; 3.2000336609781914E9 ; 3.3952451033335472E10 ; 0.0
178 ; 1.7433110153505158E7 ; 2.014694178728908E8 ; 3.217474467005744E9 ; 3.4153915302352703E10 ; 0.0
179 ; 1.7421172358555026E7 ; 2.0147454885148028E8 ; 3.2349075771592493E9 ; 3.4355384720225594E10 ; 0.0
180 ; 1.742165140317139E7 ; 2.0147966179806924E8 ; 3.252328749517804E9 ; 3.455685926907707E10 ; 0.0
181 ; 1.740555343845437E7 ; 2.0148475655925882E8 ; 3.2697504009209757E9 ; 3.4758338930875145E10 ; 0.0
182 ; 1.7394089767537452E7 ; 2.0148983298315415E8 ; 3.28715595435943E9 ; 3.49598236874344E10 ; 0.0
183 ; 1.7386394526617844E7 ; 2.0149489091933823E8 ; 3.3045500441269674E9 ; 3.516131352041756E10 ; 0.0
184 ; 1.7381214282601904E7 ; 2.014999302188469E8 ; 3.3219364386535854E9 ; 3.53628084113369E10 ; 0.0
185 ; 1.7367038869306512E7 ; 2.015049507341442E8 ; 3.3393176529361873E9 ; 3.556430834155575E10 ; 0.0
186 ; 1.7355904570115443E7 ; 2.0150995231909895E8 ; 3.356684691805494E9 ; 3.5765813292289894E10 ; 0.0
187 ; 1.7348197614172585E7 ; 2.015149348289617E8 ; 3.3740405963756094E9 ; 3.596732324460899E10 ; 0.0
188 ; 1.733765547029011E7 ; 2.0151989812034264E8 ; 3.391388793989782E9 ; 3.616883817943796E10 ; 0.0
189 ; 1.7331652250291098E7 ; 2.0152484205119017E8 ; 3.408726449460072E9 ; 3.6370358077558304E10 ; 0.0
190 ; 1.7319131444545083E7 ; 2.0152976648077002E8 ; 3.426058101710363E9 ; 3.65718829196095E10 ; 0.0
191 ; 1.7311543943268422E7 ; 2.0153467126964515E8 ; 3.443377233154908E9 ; 3.677341268609026E10 ; 0.0
192 ; 1.730283735722956E7 ; 2.0153955627965632E8 ; 3.4606887770981765E9 ; 3.697494735735991E10 ; 0.0
193 ; 1.7291717775689706E7 ; 2.0154442137390307E8 ; 3.477991614455406E9 ; 3.7176486913639565E10 ; 0.0
194 ; 1.7281394744050097E7 ; 2.0154926641672546E8 ; 3.495283332231096E9 ; 3.7378031335013466E10 ; 0.0
195 ; 1.727319670361359E7 ; 2.0155409127368638E8 ; 3.512564726975146E9 ; 3.757958060143019E10 ; 0.0
