CSV File for the City 2 on Day 9
1 - Minute m 
2 - Power Consumed at minute m 
3 - Power Produced at minute m 
4 - Energy Consumed since the beginning of the day 
5 - Energy Produced since the beginning of the day 
6 - Energy Lost since the beginning of the day on lines starting from the city
 
0 ; 1.0288516583228104E7 ; 1.223881743021257E7 ; 0.0 ; 0.0 ; 0.0
1 ; 1.0302949164322669E7 ; 1.223881743021257E7 ; 1.0288516583228104E7 ; 1.223881743021257E7 ; 0.0
2 ; 1.0314224262873448E7 ; 1.223881743021257E7 ; 2.059146574755077E7 ; 2.447763486042514E7 ; 0.0
3 ; 1.0324732576708589E7 ; 1.223881743021257E7 ; 3.090569001042422E7 ; 3.671645229063771E7 ; 0.0
4 ; 1.034091662260419E7 ; 1.223881743021257E7 ; 4.123042258713281E7 ; 4.895526972085028E7 ; 0.0
5 ; 1.0357695267740821E7 ; 1.223881743021257E7 ; 5.1571339209737E7 ; 6.119408715106285E7 ; 0.0
6 ; 1.03818475707107E7 ; 1.223881743021257E7 ; 6.1929034477477826E7 ; 7.343290458127542E7 ; 0.0
7 ; 1.0416759975980815E7 ; 1.223881743021257E7 ; 7.231088204818852E7 ; 8.567172201148799E7 ; 0.0
8 ; 1.046555224008235E7 ; 1.223881743021257E7 ; 8.272764202416934E7 ; 9.791053944170056E7 ; 0.0
9 ; 1.0543065565304553E7 ; 1.223881743021257E7 ; 9.31931942642517E7 ; 1.1014935687191314E8 ; 0.0
10 ; 1.0657246679108245E7 ; 1.223881743021257E7 ; 1.0373625982955624E8 ; 1.223881743021257E8 ; 0.0
11 ; 1.0848790301987065E7 ; 1.223881743021257E7 ; 1.1439350650866449E8 ; 1.3462699173233828E8 ; 0.0
12 ; 1.1152216494235141E7 ; 1.223881743021257E7 ; 1.2524229681065156E8 ; 1.4686580916255084E8 ; 0.0
13 ; 1.1434901384186894E7 ; 1.223881743021257E7 ; 1.363945133048867E8 ; 1.591046265927634E8 ; 0.0
14 ; 1.1473709660779113E7 ; 1.223881743021257E7 ; 1.478294146890736E8 ; 1.7134344402297595E8 ; 0.0
15 ; 1.1485696669273956E7 ; 1.223881743021257E7 ; 1.593031243498527E8 ; 1.835822614531885E8 ; 0.0
16 ; 1.1498033707560342E7 ; 1.223881743021257E7 ; 1.7078882101912665E8 ; 1.9582107888340107E8 ; 0.0
17 ; 1.1512699708754329E7 ; 1.223881743021257E7 ; 1.8228685472668698E8 ; 2.0805989631361362E8 ; 0.0
18 ; 1.1522142848337803E7 ; 1.223881743021257E7 ; 1.9379955443544132E8 ; 2.2029871374382618E8 ; 0.0
19 ; 1.1537933910797752E7 ; 1.223881743021257E7 ; 2.053216972837791E8 ; 2.3253753117403874E8 ; 0.0
20 ; 1.1552408707524074E7 ; 1.223881743021257E7 ; 2.1685963119457686E8 ; 2.447763486042513E8 ; 0.0
21 ; 1.1565439749745596E7 ; 1.223881743021257E7 ; 2.2841203990210092E8 ; 2.5701516603446385E8 ; 0.0
22 ; 1.1577306894556584E7 ; 1.223881743021257E7 ; 2.3997747965184653E8 ; 2.6925398346467644E8 ; 0.0
23 ; 1.1592326407680854E7 ; 1.223881743021257E7 ; 2.515547865464031E8 ; 2.81492800894889E8 ; 0.0
24 ; 1.160351633053316E7 ; 1.223881743021257E7 ; 2.6314711295408398E8 ; 2.9373161832510155E8 ; 0.0
25 ; 1.1620491503624018E7 ; 1.223881743021257E7 ; 2.747506292846171E8 ; 3.059704357553141E8 ; 0.0
26 ; 1.1632584049853629E7 ; 1.223881743021257E7 ; 2.8637112078824115E8 ; 3.1820925318552667E8 ; 0.0
27 ; 1.1645581597436452E7 ; 1.223881743021257E7 ; 2.980037048380948E8 ; 3.304480706157392E8 ; 0.0
28 ; 1.165427422125668E7 ; 1.223881743021257E7 ; 3.096492864355312E8 ; 3.426868880459518E8 ; 0.0
29 ; 1.1669263739569003E7 ; 1.223881743021257E7 ; 3.213035606567879E8 ; 3.5492570547616434E8 ; 0.0
30 ; 1.1679795284244759E7 ; 1.223881743021257E7 ; 3.329728243963569E8 ; 3.671645229063769E8 ; 0.0
31 ; 1.1693193643650679E7 ; 1.223881743021257E7 ; 3.4465261968060166E8 ; 3.7940334033658946E8 ; 0.0
32 ; 1.1707300514947725E7 ; 1.223881743021257E7 ; 3.563458133242523E8 ; 3.91642157766802E8 ; 0.0
33 ; 1.171457741294308E7 ; 1.223881743021257E7 ; 3.680531138392E8 ; 4.038809751970146E8 ; 0.0
34 ; 1.1728627192965087E7 ; 1.223881743021257E7 ; 3.797676912521431E8 ; 4.161197926272271E8 ; 0.0
35 ; 1.1739498019536512E7 ; 1.223881743021257E7 ; 3.914963184451082E8 ; 4.283586100574397E8 ; 0.0
36 ; 1.174919318008246E7 ; 1.223881743021257E7 ; 4.032358164646447E8 ; 4.4059742748765224E8 ; 0.0
37 ; 1.1760655469884606E7 ; 1.223881743021257E7 ; 4.149850096447271E8 ; 4.528362449178648E8 ; 0.0
38 ; 1.1766925124152107E7 ; 1.223881743021257E7 ; 4.2674566511461174E8 ; 4.6507506234807736E8 ; 0.0
39 ; 1.1777533056886736E7 ; 1.223881743021257E7 ; 4.3851259023876387E8 ; 4.773138797782899E8 ; 0.0
40 ; 1.178629343087151E7 ; 1.223881743021257E7 ; 4.502901232956506E8 ; 4.895526972085025E8 ; 0.0
41 ; 1.1794142021726176E7 ; 1.223881743021257E7 ; 4.620764167265221E8 ; 5.01791514638715E8 ; 0.0
42 ; 1.1805582771868518E7 ; 1.223881743021257E7 ; 4.738705587482483E8 ; 5.140303320689276E8 ; 0.0
43 ; 1.180962042393371E7 ; 1.223881743021257E7 ; 4.856761415201168E8 ; 5.2626914949914014E8 ; 0.0
44 ; 1.181707229228532E7 ; 1.223881743021257E7 ; 4.974857619440505E8 ; 5.385079669293528E8 ; 0.0
45 ; 1.1822254699851574E7 ; 1.223881743021257E7 ; 5.093028342363358E8 ; 5.507467843595654E8 ; 0.0
46 ; 1.183076767938532E7 ; 1.223881743021257E7 ; 5.211250889361874E8 ; 5.62985601789778E8 ; 0.0
47 ; 1.183814948535955E7 ; 1.223881743021257E7 ; 5.329558566155727E8 ; 5.752244192199906E8 ; 0.0
48 ; 1.1840932068674238E7 ; 1.223881743021257E7 ; 5.447940061009322E8 ; 5.874632366502032E8 ; 0.0
49 ; 1.1845168864201734E7 ; 1.223881743021257E7 ; 5.566349381696064E8 ; 5.997020540804158E8 ; 0.0
50 ; 1.1849871431757707E7 ; 1.223881743021257E7 ; 5.684801070338082E8 ; 6.119408715106285E8 ; 0.0
51 ; 1.1850274367682885E7 ; 1.223881743021257E7 ; 5.803299784655659E8 ; 6.241796889408411E8 ; 0.0
52 ; 1.1855816012434304E7 ; 1.223881743021257E7 ; 5.921802528332489E8 ; 6.364185063710537E8 ; 0.0
53 ; 1.1859424412337588E7 ; 1.223881743021257E7 ; 6.040360688456831E8 ; 6.486573238012663E8 ; 0.0
54 ; 1.1860107762380369E7 ; 1.223881743021257E7 ; 6.158954932580206E8 ; 6.608961412314789E8 ; 0.0
55 ; 1.1865905659577405E7 ; 1.223881743021257E7 ; 6.27755601020401E8 ; 6.731349586616915E8 ; 0.0
56 ; 1.186841093151556E7 ; 1.223881743021257E7 ; 6.396215066799784E8 ; 6.853737760919042E8 ; 0.0
57 ; 1.1868123858268047E7 ; 1.223881743021257E7 ; 6.51489917611494E8 ; 6.976125935221168E8 ; 0.0
58 ; 1.187099267907906E7 ; 1.223881743021257E7 ; 6.63358041469762E8 ; 7.098514109523294E8 ; 0.0
59 ; 1.1876158384299608E7 ; 1.223881743021257E7 ; 6.75229034148841E8 ; 7.22090228382542E8 ; 0.0
60 ; 1.1881065921387408E7 ; 1.223881743021257E7 ; 6.871051925331407E8 ; 7.343290458127546E8 ; 0.0
61 ; 1.187673979286276E7 ; 1.223881743021257E7 ; 6.989862584545281E8 ; 7.465678632429672E8 ; 0.0
62 ; 1.1880917348011317E7 ; 1.223881743021257E7 ; 7.108629982473909E8 ; 7.588066806731799E8 ; 0.0
63 ; 1.1885509116389897E7 ; 1.223881743021257E7 ; 7.227439155954022E8 ; 7.710454981033925E8 ; 0.0
64 ; 1.1887898646768907E7 ; 1.223881743021257E7 ; 7.346294247117921E8 ; 7.832843155336051E8 ; 0.0
65 ; 1.1888098331659112E7 ; 1.223881743021257E7 ; 7.46517323358561E8 ; 7.955231329638177E8 ; 0.0
66 ; 1.188946404070324E7 ; 1.223881743021257E7 ; 7.584054216902201E8 ; 8.077619503940303E8 ; 0.0
67 ; 1.1890912024292411E7 ; 1.223881743021257E7 ; 7.702948857309234E8 ; 8.20000767824243E8 ; 0.0
68 ; 1.1892822448497884E7 ; 1.223881743021257E7 ; 7.821857977552159E8 ; 8.322395852544556E8 ; 0.0
69 ; 1.189313472945339E7 ; 1.223881743021257E7 ; 7.940786202037138E8 ; 8.444784026846682E8 ; 0.0
70 ; 1.189412136851785E7 ; 1.223881743021257E7 ; 8.059717549331672E8 ; 8.567172201148808E8 ; 0.0
71 ; 1.1895794334001727E7 ; 1.223881743021257E7 ; 8.178658763016851E8 ; 8.689560375450934E8 ; 0.0
72 ; 1.1894096920231182E7 ; 1.223881743021257E7 ; 8.297616706356869E8 ; 8.81194854975306E8 ; 0.0
73 ; 1.1897505563724022E7 ; 1.223881743021257E7 ; 8.416557675559181E8 ; 8.934336724055187E8 ; 0.0
74 ; 1.1897576725594748E7 ; 1.223881743021257E7 ; 8.535532731196421E8 ; 9.056724898357313E8 ; 0.0
75 ; 1.1900200072117312E7 ; 1.223881743021257E7 ; 8.654508498452369E8 ; 9.179113072659439E8 ; 0.0
76 ; 1.1897943778210629E7 ; 1.223881743021257E7 ; 8.773510499173542E8 ; 9.301501246961565E8 ; 0.0
77 ; 1.1897818454238055E7 ; 1.223881743021257E7 ; 8.892489936955649E8 ; 9.423889421263691E8 ; 0.0
78 ; 1.1898464792153303E7 ; 1.223881743021257E7 ; 9.011468121498029E8 ; 9.546277595565817E8 ; 0.0
79 ; 1.1893768767635472E7 ; 1.223881743021257E7 ; 9.130452769419563E8 ; 9.668665769867944E8 ; 0.0
80 ; 1.18889399170537E7 ; 1.223881743021257E7 ; 9.249390457095917E8 ; 9.79105394417007E8 ; 0.0
81 ; 1.1885035749405926E7 ; 1.223881743021257E7 ; 9.368279856266454E8 ; 9.913442118472196E8 ; 0.0
82 ; 1.1884679374056956E7 ; 1.223881743021257E7 ; 9.487130213760514E8 ; 1.0035830292774322E9 ; 0.0
83 ; 1.1880243174562637E7 ; 1.223881743021257E7 ; 9.605977007501084E8 ; 1.0158218467076448E9 ; 0.0
84 ; 1.1875788375514546E7 ; 1.223881743021257E7 ; 9.72477943924671E8 ; 1.0280606641378574E9 ; 0.0
85 ; 1.1869407598262975E7 ; 1.223881743021257E7 ; 9.843537323001856E8 ; 1.04029948156807E9 ; 0.0
86 ; 1.1869183836384736E7 ; 1.223881743021257E7 ; 9.962231398984486E8 ; 1.0525382989982827E9 ; 0.0
87 ; 1.1862079735345824E7 ; 1.223881743021257E7 ; 1.0080923237348334E9 ; 1.0647771164284953E9 ; 0.0
88 ; 1.1858221734302867E7 ; 1.223881743021257E7 ; 1.0199544034701792E9 ; 1.077015933858708E9 ; 0.0
89 ; 1.1850702973870935E7 ; 1.223881743021257E7 ; 1.0318126252044821E9 ; 1.0892547512889204E9 ; 0.0
90 ; 1.1849962281177057E7 ; 1.223881743021257E7 ; 1.0436633281783531E9 ; 1.101493568719133E9 ; 0.0
91 ; 1.1848261854491083E7 ; 1.223881743021257E7 ; 1.0555132904595301E9 ; 1.1137323861493454E9 ; 0.0
92 ; 1.1842027191367052E7 ; 1.223881743021257E7 ; 1.0673615523140212E9 ; 1.125971203579558E9 ; 0.0
93 ; 1.183659199270113E7 ; 1.223881743021257E7 ; 1.0792035795053883E9 ; 1.1382100210097704E9 ; 0.0
94 ; 1.1832671881693078E7 ; 1.223881743021257E7 ; 1.0910401714980893E9 ; 1.150448838439983E9 ; 0.0
95 ; 1.1827871558064548E7 ; 1.223881743021257E7 ; 1.1028728433797824E9 ; 1.1626876558701954E9 ; 0.0
96 ; 1.1819860482144525E7 ; 1.223881743021257E7 ; 1.114700714937847E9 ; 1.174926473300408E9 ; 0.0
97 ; 1.1819514859951286E7 ; 1.223881743021257E7 ; 1.1265205754199915E9 ; 1.1871652907306204E9 ; 0.0
98 ; 1.1809702315194212E7 ; 1.223881743021257E7 ; 1.1383400902799428E9 ; 1.199404108160833E9 ; 0.0
99 ; 1.1806282488552338E7 ; 1.223881743021257E7 ; 1.150149792595137E9 ; 1.2116429255910454E9 ; 0.0
100 ; 1.1799192621911332E7 ; 1.223881743021257E7 ; 1.1619560750836892E9 ; 1.2238817430212579E9 ; 0.0
101 ; 1.1794562218881387E7 ; 1.223881743021257E7 ; 1.1737552677056005E9 ; 1.2361205604514704E9 ; 0.0
102 ; 1.1787180326212464E7 ; 1.223881743021257E7 ; 1.1855498299244819E9 ; 1.2483593778816829E9 ; 0.0
103 ; 1.1783239170753444E7 ; 1.223881743021257E7 ; 1.1973370102506943E9 ; 1.2605981953118954E9 ; 0.0
104 ; 1.17749532379759E7 ; 1.223881743021257E7 ; 1.2091202494214478E9 ; 1.2728370127421079E9 ; 0.0
105 ; 1.1770900122779414E7 ; 1.223881743021257E7 ; 1.2208952026594236E9 ; 1.2850758301723204E9 ; 0.0
106 ; 1.1760297914079832E7 ; 1.223881743021257E7 ; 1.232666102782203E9 ; 1.2973146476025329E9 ; 0.0
107 ; 1.175474568836861E7 ; 1.223881743021257E7 ; 1.2444264006962829E9 ; 1.3095534650327454E9 ; 0.0
108 ; 1.1749035554768058E7 ; 1.223881743021257E7 ; 1.2561811463846514E9 ; 1.3217922824629579E9 ; 0.0
109 ; 1.1743370489804318E7 ; 1.223881743021257E7 ; 1.2679301819394195E9 ; 1.3340310998931704E9 ; 0.0
110 ; 1.1738620159700394E7 ; 1.223881743021257E7 ; 1.2796735524292238E9 ; 1.3462699173233829E9 ; 0.0
111 ; 1.1727232510687243E7 ; 1.223881743021257E7 ; 1.2914121725889242E9 ; 1.3585087347535954E9 ; 0.0
112 ; 1.1724187620022878E7 ; 1.223881743021257E7 ; 1.3031394050996115E9 ; 1.3707475521838078E9 ; 0.0
113 ; 1.171262790972633E7 ; 1.223881743021257E7 ; 1.3148635927196343E9 ; 1.3829863696140203E9 ; 0.0
114 ; 1.1710759307881232E7 ; 1.223881743021257E7 ; 1.3265762206293607E9 ; 1.3952251870442328E9 ; 0.0
115 ; 1.1702324807504997E7 ; 1.223881743021257E7 ; 1.3382869799372418E9 ; 1.4074640044744453E9 ; 0.0
116 ; 1.1692693117338233E7 ; 1.223881743021257E7 ; 1.3499893047447467E9 ; 1.4197028219046578E9 ; 0.0
117 ; 1.1686521373134576E7 ; 1.223881743021257E7 ; 1.3616819978620849E9 ; 1.4319416393348703E9 ; 0.0
118 ; 1.1681411042322038E7 ; 1.223881743021257E7 ; 1.3733685192352195E9 ; 1.4441804567650828E9 ; 0.0
119 ; 1.1670471603958298E7 ; 1.223881743021257E7 ; 1.3850499302775414E9 ; 1.4564192741952953E9 ; 0.0
120 ; 1.16641915207472E7 ; 1.223881743021257E7 ; 1.3967204018814998E9 ; 1.4686580916255078E9 ; 0.0
121 ; 1.1656188146651726E7 ; 1.223881743021257E7 ; 1.408384593402247E9 ; 1.4808969090557203E9 ; 0.0
122 ; 1.16497577218194E7 ; 1.223881743021257E7 ; 1.4200407815488987E9 ; 1.4931357264859328E9 ; 0.0
123 ; 1.163950835464504E7 ; 1.223881743021257E7 ; 1.431690539270718E9 ; 1.5053745439161453E9 ; 0.0
124 ; 1.1631431309030926E7 ; 1.223881743021257E7 ; 1.443330047625363E9 ; 1.5176133613463578E9 ; 0.0
125 ; 1.1620641143449472E7 ; 1.223881743021257E7 ; 1.4549614789343941E9 ; 1.5298521787765703E9 ; 0.0
126 ; 1.161277794148938E7 ; 1.223881743021257E7 ; 1.4665821200778437E9 ; 1.5420909962067828E9 ; 0.0
127 ; 1.1605439295857284E7 ; 1.223881743021257E7 ; 1.4781948980193331E9 ; 1.5543298136369953E9 ; 0.0
128 ; 1.1595073884680057E7 ; 1.223881743021257E7 ; 1.4898003373151903E9 ; 1.5665686310672078E9 ; 0.0
129 ; 1.1587958138478288E7 ; 1.223881743021257E7 ; 1.5013954111998703E9 ; 1.5788074484974203E9 ; 0.0
130 ; 1.1577206617588723E7 ; 1.223881743021257E7 ; 1.5129833693383486E9 ; 1.5910462659276328E9 ; 0.0
131 ; 1.1563817765359966E7 ; 1.223881743021257E7 ; 1.5245605759559374E9 ; 1.6032850833578453E9 ; 0.0
132 ; 1.1550408109154787E7 ; 1.223881743021257E7 ; 1.5361243937212973E9 ; 1.6155239007880578E9 ; 0.0
133 ; 1.1540103428118637E7 ; 1.223881743021257E7 ; 1.547674801830452E9 ; 1.6277627182182703E9 ; 0.0
134 ; 1.1528638617406044E7 ; 1.223881743021257E7 ; 1.5592149052585707E9 ; 1.6400015356484828E9 ; 0.0
135 ; 1.1514219298773581E7 ; 1.223881743021257E7 ; 1.5707435438759768E9 ; 1.6522403530786953E9 ; 0.0
136 ; 1.1497586876703663E7 ; 1.223881743021257E7 ; 1.5822577631747503E9 ; 1.6644791705089078E9 ; 0.0
137 ; 1.148555131315395E7 ; 1.223881743021257E7 ; 1.593755350051454E9 ; 1.6767179879391203E9 ; 0.0
138 ; 1.1473583081144914E7 ; 1.223881743021257E7 ; 1.605240901364608E9 ; 1.6889568053693328E9 ; 0.0
139 ; 1.1463055846011309E7 ; 1.223881743021257E7 ; 1.6167144844457529E9 ; 1.7011956227995453E9 ; 0.0
140 ; 1.1444505560460603E7 ; 1.223881743021257E7 ; 1.6281775402917643E9 ; 1.7134344402297578E9 ; 0.0
141 ; 1.1432769195770405E7 ; 1.223881743021257E7 ; 1.6396220458522248E9 ; 1.7256732576599703E9 ; 0.0
142 ; 1.1419208840582054E7 ; 1.223881743021257E7 ; 1.6510548150479953E9 ; 1.7379120750901828E9 ; 0.0
143 ; 1.140235599228932E7 ; 1.223881743021257E7 ; 1.6624740238885775E9 ; 1.7501508925203953E9 ; 0.0
144 ; 1.1387361651395109E7 ; 1.223881743021257E7 ; 1.6738763798808668E9 ; 1.7623897099506078E9 ; 0.0
145 ; 1.1378359720339542E7 ; 1.223881743021257E7 ; 1.6852637415322618E9 ; 1.7746285273808203E9 ; 0.0
146 ; 1.1371230337446593E7 ; 1.223881743021257E7 ; 1.6966421012526014E9 ; 1.7868673448110328E9 ; 0.0
147 ; 1.136102118159541E7 ; 1.223881743021257E7 ; 1.708013331590048E9 ; 1.7991061622412453E9 ; 0.0
148 ; 1.1347212872008486E7 ; 1.223881743021257E7 ; 1.7193743527716434E9 ; 1.8113449796714578E9 ; 0.0
149 ; 1.1337409265337108E7 ; 1.223881743021257E7 ; 1.730721565643652E9 ; 1.8235837971016703E9 ; 0.0
150 ; 1.1330452798476312E7 ; 1.223881743021257E7 ; 1.742058974908989E9 ; 1.8358226145318828E9 ; 0.0
151 ; 1.1322834555421812E7 ; 1.223881743021257E7 ; 1.7533894277074652E9 ; 1.8480614319620953E9 ; 0.0
152 ; 1.1309201274871739E7 ; 1.223881743021257E7 ; 1.764712262262887E9 ; 1.8603002493923078E9 ; 0.0
153 ; 1.1301797284074297E7 ; 1.223881743021257E7 ; 1.7760214635377588E9 ; 1.8725390668225203E9 ; 0.0
154 ; 1.1292216703895174E7 ; 1.223881743021257E7 ; 1.7873232608218331E9 ; 1.8847778842527328E9 ; 0.0
155 ; 1.1280580025150046E7 ; 1.223881743021257E7 ; 1.7986154775257282E9 ; 1.8970167016829453E9 ; 0.0
156 ; 1.1272864711190214E7 ; 1.223881743021257E7 ; 1.8098960575508783E9 ; 1.9092555191131577E9 ; 0.0
157 ; 1.1258762549475856E7 ; 1.223881743021257E7 ; 1.8211689222620685E9 ; 1.9214943365433702E9 ; 0.0
158 ; 1.1251788201653637E7 ; 1.223881743021257E7 ; 1.8324276848115444E9 ; 1.9337331539735827E9 ; 0.0
159 ; 1.124076093236489E7 ; 1.223881743021257E7 ; 1.8436794730131981E9 ; 1.9459719714037952E9 ; 0.0
160 ; 1.1232067790149802E7 ; 1.223881743021257E7 ; 1.854920233945563E9 ; 1.9582107888340077E9 ; 0.0
161 ; 1.1216725235678377E7 ; 1.223881743021257E7 ; 1.8661523017357128E9 ; 1.9704496062642202E9 ; 0.0
162 ; 1.1208605436424049E7 ; 1.223881743021257E7 ; 1.8773690269713912E9 ; 1.9826884236944327E9 ; 0.0
163 ; 1.1199300875043318E7 ; 1.223881743021257E7 ; 1.8885776324078152E9 ; 1.9949272411246452E9 ; 0.0
164 ; 1.1185517169915682E7 ; 1.223881743021257E7 ; 1.8997769332828586E9 ; 2.0071660585548577E9 ; 0.0
165 ; 1.1175793633396668E7 ; 1.223881743021257E7 ; 1.9109624504527743E9 ; 2.0194048759850702E9 ; 0.0
166 ; 1.11647876816131E7 ; 1.223881743021257E7 ; 1.922138244086171E9 ; 2.0316436934152827E9 ; 0.0
167 ; 1.1154576157732558E7 ; 1.223881743021257E7 ; 1.933303031767784E9 ; 2.0438825108454952E9 ; 0.0
168 ; 1.1143601784700865E7 ; 1.223881743021257E7 ; 1.9444576079255166E9 ; 2.0561213282757077E9 ; 0.0
169 ; 1.1131654605834993E7 ; 1.223881743021257E7 ; 1.9556012097102175E9 ; 2.0683601457059202E9 ; 0.0
170 ; 1.1125051549293945E7 ; 1.223881743021257E7 ; 1.9667328643160524E9 ; 2.0805989631361327E9 ; 0.0
171 ; 1.1113679318436109E7 ; 1.223881743021257E7 ; 1.9778579158653464E9 ; 2.0928377805663452E9 ; 0.0
172 ; 1.1102109740611237E7 ; 1.223881743021257E7 ; 1.9889715951837826E9 ; 2.1050765979965577E9 ; 0.0
173 ; 1.1092919931285528E7 ; 1.223881743021257E7 ; 2.000073704924394E9 ; 2.1173154154267702E9 ; 0.0
174 ; 1.1083776678057771E7 ; 1.223881743021257E7 ; 2.0111666248556795E9 ; 2.1295542328569827E9 ; 0.0
175 ; 1.1074414006599218E7 ; 1.223881743021257E7 ; 2.0222504015337372E9 ; 2.1417930502871952E9 ; 0.0
176 ; 1.1067926745501226E7 ; 1.223881743021257E7 ; 2.0333248155403364E9 ; 2.1540318677174077E9 ; 0.0
177 ; 1.1065678288295127E7 ; 1.223881743021257E7 ; 2.0443927422858377E9 ; 2.16627068514762E9 ; 0.0
178 ; 1.105920695213001E7 ; 1.223881743021257E7 ; 2.0554584205741327E9 ; 2.1785095025778327E9 ; 0.0
179 ; 1.1050363243163649E7 ; 1.223881743021257E7 ; 2.0665176275262628E9 ; 2.190748320008045E9 ; 0.0
180 ; 1.1043255853768075E7 ; 1.223881743021257E7 ; 2.0775679907694263E9 ; 2.2029871374382577E9 ; 0.0
181 ; 1.1039554815460777E7 ; 1.223881743021257E7 ; 2.0886112466231945E9 ; 2.21522595486847E9 ; 0.0
182 ; 1.1027584777099969E7 ; 1.223881743021257E7 ; 2.0996508014386551E9 ; 2.2274647722986827E9 ; 0.0
183 ; 1.1025709189434491E7 ; 1.223881743021257E7 ; 2.1106783862157552E9 ; 2.239703589728895E9 ; 0.0
184 ; 1.1017120355232675E7 ; 1.223881743021257E7 ; 2.1217040954051898E9 ; 2.2519424071591077E9 ; 0.0
185 ; 1.1012342413327368E7 ; 1.223881743021257E7 ; 2.1327212157604225E9 ; 2.26418122458932E9 ; 0.0
186 ; 1.1004060740436552E7 ; 1.223881743021257E7 ; 2.14373355817375E9 ; 2.2764200420195327E9 ; 0.0
187 ; 1.0995771706032906E7 ; 1.223881743021257E7 ; 2.1547376189141865E9 ; 2.288658859449745E9 ; 0.0
188 ; 1.0989493929085307E7 ; 1.223881743021257E7 ; 2.165733390620219E9 ; 2.3008976768799577E9 ; 0.0
189 ; 1.0980978788353581E7 ; 1.223881743021257E7 ; 2.1767228845493045E9 ; 2.31313649431017E9 ; 0.0
190 ; 1.0972973576856907E7 ; 1.223881743021257E7 ; 2.187703863337658E9 ; 2.3253753117403827E9 ; 0.0
191 ; 1.0968041298183262E7 ; 1.223881743021257E7 ; 2.198676836914515E9 ; 2.337614129170595E9 ; 0.0
192 ; 1.0966698188959239E7 ; 1.223881743021257E7 ; 2.2096448782126985E9 ; 2.3498529466008077E9 ; 0.0
193 ; 1.0957364805544103E7 ; 1.223881743021257E7 ; 2.2206115764016576E9 ; 2.36209176403102E9 ; 0.0
194 ; 1.095128050264922E7 ; 1.223881743021257E7 ; 2.2315689412072015E9 ; 2.3743305814612327E9 ; 0.0
195 ; 1.0941670191907335E7 ; 1.223881743021257E7 ; 2.242520221709851E9 ; 2.386569398891445E9 ; 0.0
196 ; 1.0934646313354997E7 ; 1.223881743021257E7 ; 2.253461891901758E9 ; 2.3988082163216577E9 ; 0.0
197 ; 1.0928644171348417E7 ; 1.223881743021257E7 ; 2.264396538215113E9 ; 2.41104703375187E9 ; 0.0
