CSV File for the City 6 on Day 214
1 - Minute m 
2 - Power Consumed at minute m 
3 - Power Produced at minute m 
4 - Energy Consumed since the beginning of the day 
5 - Energy Produced since the beginning of the day 
6 - Energy Lost since the beginning of the day on lines starting from the city
 
0 ; 710813.7649451495 ; 1.0554671807322618E8 ; 0.0 ; 0.0 ; 0.0
1 ; 724794.4963672612 ; 1.0569570310135078E8 ; 710813.7649451495 ; 1.0554671807322618E8 ; 0.0
2 ; 735722.8778589424 ; 1.0615382635287711E8 ; 1435608.2613124107 ; 2.1124242117457697E8 ; 0.0
3 ; 752117.2925132167 ; 1.0692110763077796E8 ; 2171331.139171353 ; 3.173962475274541E8 ; 0.0
4 ; 769147.0116024164 ; 1.0799756550469106E8 ; 2923448.43168457 ; 4.2431735515823203E8 ; 0.0
5 ; 790663.4462807087 ; 1.0938321696981692E8 ; 3692595.443286986 ; 5.323149206629231E8 ; 0.0
6 ; 816644.6987482202 ; 1.1107807710911861E8 ; 4483258.889567695 ; 6.4169813763274E8 ; 0.0
7 ; 858821.0727362828 ; 1.1308215877263916E8 ; 5299903.588315915 ; 7.527762147418586E8 ; 0.0
8 ; 911392.6457110125 ; 1.153954722885468E8 ; 6158724.661052198 ; 8.658583735144978E8 ; 0.0
9 ; 993682.143798903 ; 1.1801802522025126E8 ; 7070117.30676321 ; 9.812538458030446E8 ; 0.0
10 ; 1119050.1137637754 ; 1.2094982218246317E8 ; 8063799.450562113 ; 1.0992718710232959E9 ; 0.0
11 ; 1317438.4189895834 ; 1.2419086472642413E8 ; 9182849.564325888 ; 1.220221693205759E9 ; 0.0
12 ; 1635955.5323994462 ; 1.277411513008925E8 ; 1.0500287983315472E7 ; 1.3444125579321833E9 ; 0.0
13 ; 1941885.7403598777 ; 1.3160067729115766E8 ; 1.2136243515714917E7 ; 1.4721537092330759E9 ; 0.0
14 ; 1979657.317290228 ; 1.3576943513380998E8 ; 1.4078129256074795E7 ; 1.6037543865242336E9 ; 0.0
15 ; 1997437.963310565 ; 1.402474145006811E8 ; 1.6057786573365023E7 ; 1.7395238216580436E9 ; 0.0
16 ; 2012784.2807619984 ; 1.450346025417281E8 ; 1.8055224536675587E7 ; 1.8797712361587248E9 ; 0.0
17 ; 2028726.7252817391 ; 1.5013098417398784E8 ; 2.0068008817437585E7 ; 2.0248058387004528E9 ; 0.0
18 ; 2045482.1481223356 ; 1.555365424022599E8 ; 2.2096735542719323E7 ; 2.1749368228744407E9 ; 0.0
19 ; 2062331.915003304 ; 1.6125125865690634E8 ; 2.414221769084166E7 ; 2.3304733652767005E9 ; 0.0
20 ; 2077799.305130449 ; 1.6727511313495454E8 ; 2.6204549605844963E7 ; 2.4917246239336066E9 ; 0.0
21 ; 2093356.2401698565 ; 1.736080851323314E8 ; 2.828234891097541E7 ; 2.658999737068561E9 ; 0.0
22 ; 2110944.661075415 ; 1.8025015335725898E8 ; 3.037570515114527E7 ; 2.8326078222008924E9 ; 0.0
23 ; 2127818.8386837807 ; 1.8720129621730697E8 ; 3.2486649812220685E7 ; 3.0128579755581512E9 ; 0.0
24 ; 2144039.7356858696 ; 1.9446149207507902E8 ; 3.461446865090447E7 ; 3.2000592717754583E9 ; 0.0
25 ; 2159425.7242277088 ; 2.0071876036798418E8 ; 3.675850838659034E7 ; 3.3945207638505373E9 ; 0.0
26 ; 2176919.602667383 ; 2.0072662783185977E8 ; 3.891793411081805E7 ; 3.5952395242185216E9 ; 0.0
27 ; 2193464.6443765536 ; 2.0073484317856124E8 ; 4.1094853713485435E7 ; 3.795966152050381E9 ; 0.0
28 ; 2208731.901601835 ; 2.0074338646337408E8 ; 4.328831835786199E7 ; 3.9967009952289424E9 ; 0.0
29 ; 2224105.1288150907 ; 2.007522384696417E8 ; 4.5497050259463824E7 ; 4.1974443816923165E9 ; 0.0
30 ; 2239103.1342634354 ; 2.007613807741431E8 ; 4.772115538827892E7 ; 4.398196620161959E9 ; 0.0
31 ; 2257815.3210333474 ; 2.0077079578990975E8 ; 4.996025852254235E7 ; 4.598958000936102E9 ; 0.0
32 ; 2271945.0433965437 ; 2.0078046678990984E8 ; 5.22180738435757E7 ; 4.799728796726011E9 ; 0.0
33 ; 2286380.3038460705 ; 2.0079037791486534E8 ; 5.449001888697225E7 ; 5.000509263515921E9 ; 0.0
34 ; 2303020.4873383674 ; 2.0080051416820708E8 ; 5.677639919081832E7 ; 5.201299641430786E9 ; 0.0
35 ; 2317898.688871784 ; 2.0081086140085825E8 ; 5.907941967815668E7 ; 5.402100155598993E9 ; 0.0
36 ; 2330212.0809448096 ; 2.0082140628820014E8 ; 6.139731836702847E7 ; 5.602911016999851E9 ; 0.0
37 ; 2347105.5504554277 ; 2.008321363012362E8 ; 6.372753044797327E7 ; 5.803732423288052E9 ; 0.0
38 ; 2355639.704953967 ; 2.0084303967365152E8 ; 6.60746359984287E7 ; 6.004564559589288E9 ; 0.0
39 ; 2372597.2651635925 ; 2.008541053661697E8 ; 6.843027570338267E7 ; 6.205407599262939E9 ; 0.0
40 ; 2383545.6950757103 ; 2.008653230293468E8 ; 7.080287296854626E7 ; 6.406261704629109E9 ; 0.0
41 ; 2396268.115962293 ; 2.0087668296571213E8 ; 7.318641866362196E7 ; 6.607127027658456E9 ; 0.0
42 ; 2406201.034955662 ; 2.008881760919684E8 ; 7.558268677958426E7 ; 6.808003710624168E9 ; 0.0
43 ; 2419463.6404929757 ; 2.0089979390179753E8 ; 7.798888781453992E7 ; 7.008891886716137E9 ; 0.0
44 ; 2426517.007440535 ; 2.0091152842968044E8 ; 8.04083514550329E7 ; 7.209791680617934E9 ; 0.0
45 ; 2437861.597253731 ; 2.0092337221602455E8 ; 8.283486846247344E7 ; 7.410703209047615E9 ; 0.0
46 ; 2447113.735575316 ; 2.0093531827380174E8 ; 8.527273005972716E7 ; 7.611626581263639E9 ; 0.0
47 ; 2457525.4689658573 ; 2.009473600568257E8 ; 8.771984379530248E7 ; 7.812561899537441E9 ; 0.0
48 ; 2463312.4126849803 ; 2.009594914297394E8 ; 9.017736926426834E7 ; 8.013509259594267E9 ; 0.0
49 ; 2471160.019590094 ; 2.0097170663973892E8 ; 9.264068167695332E7 ; 8.214468751024006E9 ; 0.0
50 ; 2481179.6057373076 ; 2.0098400029002526E8 ; 9.511184169654341E7 ; 8.415440457663745E9 ; 0.0
51 ; 2487547.283983717 ; 2.0099636731494978E8 ; 9.759302130228072E7 ; 8.61642445795377E9 ; 0.0
52 ; 2493397.2690704535 ; 2.0100880295680162E8 ; 1.0008056858626445E8 ; 8.817420825268719E9 ; 0.0
53 ; 2498646.039305809 ; 2.010213027441707E8 ; 1.025739658553349E8 ; 9.018429628225521E9 ; 0.0
54 ; 2508757.476778627 ; 2.0103386247181255E8 ; 1.050726118946407E8 ; 9.219450930969692E9 ; 0.0
55 ; 2517413.395177578 ; 2.010464781819357E8 ; 1.0758136937141933E8 ; 9.420484793441505E9 ; 0.0
56 ; 2521364.5238540187 ; 2.0105914614682975E8 ; 1.100987827665969E8 ; 9.621531271623442E9 ; 0.0
57 ; 2528456.0146077503 ; 2.0107186285275194E8 ; 1.1262014729045092E8 ; 9.822590417770271E9 ; 0.0
58 ; 2534404.9049300267 ; 2.0108462498499107E8 ; 1.1514860330505867E8 ; 1.0023662280623024E10 ; 0.0
59 ; 2540754.544504232 ; 2.010974294140297E8 ; 1.176830082099887E8 ; 1.0224746905608015E10 ; 0.0
60 ; 2548248.6170655214 ; 2.0111027318272832E8 ; 1.2022376275449292E8 ; 1.0425844335022045E10 ; 0.0
61 ; 2554066.324444633 ; 2.011231534944595E8 ; 1.2277201137155844E8 ; 1.0626954608204773E10 ; 0.0
62 ; 2560939.47226834 ; 2.0113606770212203E8 ; 1.2532607769600308E8 ; 1.0828077761699232E10 ; 0.0
63 ; 2564805.589970639 ; 2.0114901329797104E8 ; 1.2788701716827142E8 ; 1.1029213829401354E10 ; 0.0
64 ; 2570801.757400061 ; 2.0116198790420273E8 ; 1.3045182275824206E8 ; 1.1230362842699326E10 ; 0.0
65 ; 2580845.3554516067 ; 2.0117498926423645E8 ; 1.3302262451564212E8 ; 1.1431524830603529E10 ; 0.0
66 ; 2583600.43030992 ; 2.0118801523464155E8 ; 1.3560346987109372E8 ; 1.1632699819867765E10 ; 0.0
67 ; 2589461.040662525 ; 2.0120106377765912E8 ; 1.3818707030140364E8 ; 1.1833887835102407E10 ; 0.0
68 ; 2594648.23128655 ; 2.0121413295427305E8 ; 1.4077653134206617E8 ; 1.2035088898880066E10 ; 0.0
69 ; 2600831.700638679 ; 2.0122722091778794E8 ; 1.4337117957335272E8 ; 1.223630303183434E10 ; 0.0
70 ; 2608118.039175106 ; 2.012403259078746E8 ; 1.459720112739914E8 ; 1.2437530252752127E10 ; 0.0
71 ; 2613999.180940264 ; 2.0125344624504703E8 ; 1.485801293131665E8 ; 1.2638770578660002E10 ; 0.0
72 ; 2618560.5269511077 ; 2.0126658032553735E8 ; 1.5119412849410677E8 ; 1.2840024024905048E10 ; 0.0
73 ; 2622843.25616379 ; 2.0127972661653808E8 ; 1.5381268902105787E8 ; 1.3041290605230585E10 ; 0.0
74 ; 2628403.4091667794 ; 2.012928836517833E8 ; 1.5643553227722165E8 ; 1.3242570331847124E10 ; 0.0
75 ; 2634023.5153691266 ; 2.0130605002744249E8 ; 1.5906393568638843E8 ; 1.3443863215498907E10 ; 0.0
76 ; 2639199.9535412253 ; 2.0131922439830336E8 ; 1.6169795920175755E8 ; 1.364516926552635E10 ; 0.0
77 ; 2643380.643413889 ; 2.0133240547422123E8 ; 1.6433715915529877E8 ; 1.3846488489924654E10 ; 0.0
78 ; 2646433.4085230595 ; 2.0134559201681486E8 ; 1.6698053979871267E8 ; 1.4047820895398876E10 ; 0.0
79 ; 2647430.134136833 ; 2.0135878283638984E8 ; 1.6962697320723572E8 ; 1.4249166487415691E10 ; 0.0
80 ; 2646120.5530899884 ; 2.0137197678907257E8 ; 1.7227440334137255E8 ; 1.445052527025208E10 ; 0.0
81 ; 2649550.259705808 ; 2.013851727741389E8 ; 1.7492052389446253E8 ; 1.4651897247041153E10 ; 0.0
82 ; 2650202.6100822934 ; 2.013983697315227E8 ; 1.7757007415416834E8 ; 1.4853282419815292E10 ; 0.0
83 ; 2649177.787448322 ; 2.0141156663949147E8 ; 1.8022027676425064E8 ; 1.5054680789546816E10 ; 0.0
84 ; 2650585.651240297 ; 2.0142476251247594E8 ; 1.8286945455169895E8 ; 1.5256092356186308E10 ; 0.0
85 ; 2649998.769762481 ; 2.01437956399043E8 ; 1.8552004020293924E8 ; 1.5457517118698784E10 ; 0.0
86 ; 2652117.9694354013 ; 2.014511473800012E8 ; 1.8817003897270173E8 ; 1.5658955075097826E10 ; 0.0
87 ; 2654924.755173271 ; 2.01464334566629E8 ; 1.9082215694213712E8 ; 1.5860406222477827E10 ; 0.0
88 ; 2651903.372541671 ; 2.0147751709901747E8 ; 1.934770816973104E8 ; 1.6061870557044456E10 ; 0.0
89 ; 2654001.752672499 ; 2.0149069414451852E8 ; 1.9612898506985205E8 ; 1.6263348074143475E10 ; 0.0
90 ; 2653685.8807424307 ; 2.015038648962919E8 ; 1.9878298682252455E8 ; 1.6464838768287992E10 ; 0.0
91 ; 2653606.486209961 ; 2.0151702857194337E8 ; 2.0143667270326698E8 ; 1.6666342633184284E10 ; 0.0
92 ; 2654550.7266239673 ; 2.0153018441224796E8 ; 2.0409027918947694E8 ; 1.6867859661756227E10 ; 0.0
93 ; 2653455.0500797965 ; 2.0154333167995235E8 ; 2.0674482991610092E8 ; 1.7069389846168476E10 ; 0.0
94 ; 2654961.545075054 ; 2.0155646965865082E8 ; 2.093982849661807E8 ; 1.7270933177848427E10 ; 0.0
95 ; 2656131.073033279 ; 2.015695976517297E8 ; 2.1205324651125577E8 ; 1.7472489647507076E10 ; 0.0
96 ; 2655687.2213884853 ; 2.015827149813759E8 ; 2.1470937758428904E8 ; 1.7674059245158806E10 ; 0.0
97 ; 2652978.764273575 ; 2.0159582098764467E8 ; 2.1736506480567753E8 ; 1.7875641960140182E10 ; 0.0
98 ; 2654756.778488468 ; 2.0160891502758303E8 ; 2.2001804356995112E8 ; 1.8077237781127827E10 ; 0.0
99 ; 2654263.294335045 ; 2.016219964744052E8 ; 2.2267280034843957E8 ; 1.827884669615541E10 ; 0.0
100 ; 2653807.910230415 ; 2.0163506471671608E8 ; 2.253270636427746E8 ; 1.8480468692629814E10 ; 0.0
101 ; 2650551.673363251 ; 2.0164811915778017E8 ; 2.2798087155300504E8 ; 1.868210375734653E10 ; 0.0
102 ; 2651289.623144873 ; 2.0166115921483263E8 ; 2.3063142322636828E8 ; 1.888375187650431E10 ; 0.0
103 ; 2652430.860257228 ; 2.0167418431842995E8 ; 2.3328271284951314E8 ; 1.9085413035719143E10 ; 0.0
104 ; 2649756.3145818664 ; 2.016871939118373E8 ; 2.3593514370977038E8 ; 1.9287087220037575E10 ; 0.0
105 ; 2650995.4206034984 ; 2.0170018745045093E8 ; 2.3858490002435225E8 ; 1.9488774413949413E10 ; 0.0
106 ; 2649350.8924777117 ; 2.0171316440125245E8 ; 2.4123589544495574E8 ; 1.9690474601399864E10 ; 0.0
107 ; 2646553.4194565723 ; 2.0172612424229386E8 ; 2.4388524633743346E8 ; 1.9892187765801117E10 ; 0.0
108 ; 2642153.5698018107 ; 2.017390664622108E8 ; 2.4653179975689003E8 ; 2.009391389004341E10 ; 0.0
109 ; 2644728.36476824 ; 2.0175199055976266E8 ; 2.4917395332669184E8 ; 2.0295652956505623E10 ; 0.0
110 ; 2642937.8480072576 ; 2.0176489604339755E8 ; 2.5181868169146007E8 ; 2.0497404947065384E10 ; 0.0
111 ; 2641322.0153040206 ; 2.017777824308409E8 ; 2.5446161953946733E8 ; 2.069916984310878E10 ; 0.0
112 ; 2640865.8427813575 ; 2.0179064924870613E8 ; 2.5710294155477136E8 ; 2.090094762553962E10 ; 0.0
113 ; 2638907.782805208 ; 2.01803496032126E8 ; 2.5974380739755273E8 ; 2.1102738274788326E10 ; 0.0
114 ; 2637342.218688475 ; 2.018163223244035E8 ; 2.6238271518035793E8 ; 2.1304541770820454E10 ; 0.0
115 ; 2634025.978508811 ; 2.0182912767668107E8 ; 2.6502005739904642E8 ; 2.1506358093144855E10 ; 0.0
116 ; 2634173.2064041644 ; 2.0184191164762717E8 ; 2.6765408337755522E8 ; 2.1708187220821537E10 ; 0.0
117 ; 2629805.4114605947 ; 2.0185467380313888E8 ; 2.702882565839594E8 ; 2.1910029132469166E10 ; 0.0
118 ; 2630530.669933956 ; 2.0186741371606E8 ; 2.7291806199542E8 ; 2.2111883806272305E10 ; 0.0
119 ; 2628510.592783212 ; 2.018801309659136E8 ; 2.7554859266535395E8 ; 2.2313751219988365E10 ; 0.0
120 ; 2626345.1190677034 ; 2.0189282513864782E8 ; 2.7817710325813717E8 ; 2.2515631350954277E10 ; 0.0
121 ; 2624202.5125714485 ; 2.01905495826395E8 ; 2.808034483772049E8 ; 2.2717524176092926E10 ; 0.0
122 ; 2621015.0497212647 ; 2.019181426272424E8 ; 2.8342765088977635E8 ; 2.291942967191932E10 ; 0.0
123 ; 2619164.6280630766 ; 2.0193076514501458E8 ; 2.860486659394976E8 ; 2.3121347814546562E10 ; 0.0
124 ; 2615354.304779783 ; 2.0194336298906666E8 ; 2.886678305675607E8 ; 2.3323278579691578E10 ; 0.0
125 ; 2614855.2101187618 ; 2.0195593577408743E8 ; 2.9128318487234044E8 ; 2.3525221942680645E10 ; 0.0
126 ; 2610566.3525854773 ; 2.0196848311991236E8 ; 2.938980400824592E8 ; 2.372717787845473E10 ; 0.0
127 ; 2608643.874436871 ; 2.0198100465134555E8 ; 2.965086064350447E8 ; 2.3929146361574642E10 ; 0.0
128 ; 2606293.2943179426 ; 2.0199349999799037E8 ; 2.9911725030948156E8 ; 2.4131127366225986E10 ; 0.0
129 ; 2604350.144494837 ; 2.0200596879408807E8 ; 3.017235436037995E8 ; 2.4333120866223976E10 ; 0.0
130 ; 2596048.3665505145 ; 2.020184106783643E8 ; 3.0432789374829435E8 ; 2.4535126835018063E10 ; 0.0
131 ; 2592730.598187841 ; 2.0203082529388276E8 ; 3.0692394211484486E8 ; 2.4737145245696426E10 ; 0.0
132 ; 2582879.492054115 ; 2.0204321228790575E8 ; 3.095166727130327E8 ; 2.493917607099031E10 ; 0.0
133 ; 2577187.517921656 ; 2.0205557131176144E8 ; 3.120995522050868E8 ; 2.5141219283278217E10 ; 0.0
134 ; 2570320.673978345 ; 2.02067902020717E8 ; 3.1467673972300845E8 ; 2.5343274854589977E10 ; 0.0
135 ; 2564749.880700634 ; 2.0208020407385802E8 ; 3.172470603969868E8 ; 2.5545342756610695E10 ; 0.0
136 ; 2555804.3851715587 ; 2.020924771339731E8 ; 3.1981181027768743E8 ; 2.574742296068455E10 ; 0.0
137 ; 2551234.3219383783 ; 2.02104720867444E8 ; 3.2236761466285896E8 ; 2.5949515437818523E10 ; 0.0
138 ; 2546134.574761456 ; 2.0211693494414085E8 ; 3.2491884898479736E8 ; 2.6151620158685966E10 ; 0.0
139 ; 2535488.853483548 ; 2.021291190373217E8 ; 3.274649835595588E8 ; 2.6353737093630108E10 ; 0.0
140 ; 2525750.00177259 ; 2.0214127282353714E8 ; 3.3000047241304237E8 ; 2.655586621266743E10 ; 0.0
141 ; 2521133.0761867543 ; 2.0215339598253894E8 ; 3.3252622241481495E8 ; 2.6758007485490967E10 ; 0.0
142 ; 2514362.464296748 ; 2.0216548819719267E8 ; 3.350473554910017E8 ; 2.6960160881473507E10 ; 0.0
143 ; 2502672.964142324 ; 2.0217754915339455E8 ; 3.375617179552985E8 ; 2.71623263696707E10 ; 0.0
144 ; 2495205.977802312 ; 2.0218957853999168E8 ; 3.400643909194408E8 ; 2.7364503918824093E10 ; 0.0
145 ; 2495294.24252033 ; 2.0220157604870582E8 ; 3.4255959689724314E8 ; 2.7566693497364086E10 ; 0.0
146 ; 2490193.531248768 ; 2.0221354137406078E8 ; 3.450548911397635E8 ; 2.7768895073412792E10 ; 0.0
147 ; 2489727.5058001145 ; 2.0222547421331266E8 ; 3.475450846710122E8 ; 2.7971108614786854E10 ; 0.0
148 ; 2487797.4032801143 ; 2.022373742663834E8 ; 3.5003481217681235E8 ; 2.8173334089000168E10 ; 0.0
149 ; 2482694.876531092 ; 2.0224924123579696E8 ; 3.525226095800925E8 ; 2.8375571463266552E10 ; 0.0
150 ; 2482237.405075686 ; 2.0226107482661843E8 ; 3.5500530445662355E8 ; 2.857782070450235E10 ; 0.0
151 ; 2477437.4334312566 ; 2.022728747463958E8 ; 3.574875418616992E8 ; 2.8780081779328968E10 ; 0.0
152 ; 2474530.065179441 ; 2.0228464070510402E8 ; 3.599649792951305E8 ; 2.8982354654075363E10 ; 0.0
153 ; 2469935.9926655856 ; 2.0229637241509166E8 ; 3.6243950936030996E8 ; 2.9184639294780468E10 ; 0.0
154 ; 2470024.9174106647 ; 2.023080695910297E8 ; 3.6490944535297555E8 ; 2.938693566719556E10 ; 0.0
155 ; 2463760.2721708175 ; 2.0231973194986266E8 ; 3.673794702703862E8 ; 2.958924373678659E10 ; 0.0
156 ; 2459655.0426700376 ; 2.023313592107615E8 ; 3.6984323054255706E8 ; 2.9791563468736454E10 ; 0.0
157 ; 2457563.5270828977 ; 2.023429510950789E8 ; 3.723028855852271E8 ; 2.9993894827947216E10 ; 0.0
158 ; 2455566.5245665936 ; 2.0235450732630605E8 ; 3.7476044911231E8 ; 3.0196237779042294E10 ; 0.0
159 ; 2453134.5450802227 ; 2.023660276300315E8 ; 3.772160156368766E8 ; 3.03985922863686E10 ; 0.0
160 ; 2451190.3192068604 ; 2.0237751173390168E8 ; 3.796691501819568E8 ; 3.060095831399863E10 ; 0.0
161 ; 2446685.5804848974 ; 2.0238895936758286E8 ; 3.8212034050116366E8 ; 3.0803335825732533E10 ; 0.0
162 ; 2444062.6408541244 ; 2.024003702627251E8 ; 3.845670260816486E8 ; 3.1005724785100117E10 ; 0.0
163 ; 2440328.649471086 ; 2.0241174415292728E8 ; 3.870110887225027E8 ; 3.1208125155362843E10 ; 0.0
164 ; 2437380.9799901037 ; 2.0242308077370378E8 ; 3.894514173719738E8 ; 3.141053689951577E10 ; 0.0
165 ; 2433129.844408619 ; 2.024343798624526E8 ; 3.9188879835196394E8 ; 3.1612959980289474E10 ; 0.0
166 ; 2432685.0023684264 ; 2.0244564115842465E8 ; 3.9432192819637257E8 ; 3.1815394360151928E10 ; 0.0
167 ; 2430229.150781468 ; 2.0245686440269426E8 ; 3.96754613198741E8 ; 3.2017840001310352E10 ; 0.0
168 ; 2425372.1731926207 ; 2.0246804933813122E8 ; 3.991848423495225E8 ; 3.2220296865713047E10 ; 0.0
169 ; 2420808.873991479 ; 2.024791957093736E8 ; 4.016102145227151E8 ; 3.2422764915051178E10 ; 0.0
170 ; 2418742.4356637746 ; 2.024903032628018E8 ; 4.040310233967066E8 ; 3.262524411076055E10 ; 0.0
171 ; 2415771.637620766 ; 2.0250137174651378E8 ; 4.0644976583237034E8 ; 3.2827734414023354E10 ; 0.0
172 ; 2409935.5278635304 ; 2.0251240091030124E8 ; 4.088655374699911E8 ; 3.3030235785769867E10 ; 0.0
173 ; 2408225.641534215 ; 2.025233905056266E8 ; 4.112754729978546E8 ; 3.323274818668017E10 ; 0.0
174 ; 2405985.4064754453 ; 2.0253434028560126E8 ; 4.136836986393888E8 ; 3.3435271577185795E10 ; 0.0
175 ; 2406539.200468417 ; 2.0254525000496438E8 ; 4.160896840458642E8 ; 3.3637805917471397E10 ; 0.0
176 ; 2401092.761351304 ; 2.0255611942006284E8 ; 4.1849622324633265E8 ; 3.384035116747636E10 ; 0.0
177 ; 2400808.005252133 ; 2.025669482888318E8 ; 4.2089731600768393E8 ; 3.4042907286896423E10 ; 0.0
178 ; 2397073.231876173 ; 2.0257773637077615E8 ; 4.2329812401293606E8 ; 3.4245474235185257E10 ; 0.0
179 ; 2392132.376800062 ; 2.0258848342695263E8 ; 4.2569519724481225E8 ; 3.444805197155603E10 ; 0.0
180 ; 2396467.504222964 ; 2.0259918921995294E8 ; 4.280873296216123E8 ; 3.465064045498299E10 ; 0.0
181 ; 2392058.302748563 ; 2.026098535138871E8 ; 4.304837971258353E8 ; 3.485323964420294E10 ; 0.0
182 ; 2389839.9903370407 ; 2.0262047607436794E8 ; 4.3287585542858386E8 ; 3.505584949771683E10 ; 0.0
183 ; 2391520.471211922 ; 2.026310566684959E8 ; 4.352656954189209E8 ; 3.52584699737912E10 ; 0.0
184 ; 2385967.240246201 ; 2.0264159506484458E8 ; 4.376572158901328E8 ; 3.5461101030459694E10 ; 0.0
185 ; 2383048.3492060546 ; 2.0265209103344694E8 ; 4.4004318313037896E8 ; 3.5663742625524536E10 ; 0.0
186 ; 2382808.958185957 ; 2.0266254434578198E8 ; 4.42426231479585E8 ; 3.586639471655798E10 ; 0.0
187 ; 2380410.212380324 ; 2.0267295477476197E8 ; 4.4480904043777096E8 ; 3.606905726090376E10 ; 0.0
188 ; 2376350.6760757994 ; 2.026833220947202E8 ; 4.471894506501513E8 ; 3.627173021567853E10 ; 0.0
189 ; 2373589.193539582 ; 2.0269364608139938E8 ; 4.495658013262271E8 ; 3.647441353777325E10 ; 0.0
190 ; 2373869.1377866045 ; 2.027039265119403E8 ; 4.519393905197667E8 ; 3.6677107183854645E10 ; 0.0
191 ; 2367223.3624629006 ; 2.0271416316487104E8 ; 4.543132596575533E8 ; 3.6879811110366585E10 ; 0.0
192 ; 2366897.5745811057 ; 2.0272435582009682E8 ; 4.566804830200162E8 ; 3.7082525273531456E10 ; 0.0
193 ; 2366920.2235112623 ; 2.0273450425888994E8 ; 4.590473805945973E8 ; 3.7285249629351555E10 ; 0.0
194 ; 2365586.6504596863 ; 2.0274460826388043E8 ; 4.6141430081810856E8 ; 3.748798413361044E10 ; 0.0
195 ; 2361939.9351403876 ; 2.027546676190469E8 ; 4.6377988746856827E8 ; 3.769072874187432E10 ; 0.0
196 ; 2359773.9843342886 ; 2.0276468210970795E8 ; 4.6614182740370864E8 ; 3.789348340949337E10 ; 0.0
197 ; 2355928.490663197 ; 2.0277465152251378E8 ; 4.685016013880429E8 ; 3.809624809160308E10 ; 0.0
198 ; 2354251.8416851205 ; 2.0278457564543822E8 ; 4.708575298787061E8 ; 3.8299022743125595E10 ; 0.0
199 ; 2353237.1687205937 ; 2.0279445426777127E8 ; 4.732117817203912E8 ; 3.8501807318771034E10 ; 0.0
