CSV File for the City 4 on Day 219
1 - Minute m 
2 - Power Consumed at minute m 
3 - Power Produced at minute m 
4 - Energy Consumed since the beginning of the day 
5 - Energy Produced since the beginning of the day 
6 - Energy Lost since the beginning of the day on lines starting from the city
 
0 ; 441923.63918322616 ; 1.0549272487507775E8 ; 0.0 ; 0.0 ; 0.0
1 ; 448739.6696478249 ; 1.056398483247208E8 ; 441923.63918322616 ; 1.0549272487507775E8 ; 0.0
2 ; 458292.2211300478 ; 1.0609623163769391E8 ; 890663.308831051 ; 2.1113257319979855E8 ; 0.0
3 ; 464954.27385271684 ; 1.0686191446327746E8 ; 1348955.529961099 ; 3.1722880483749247E8 ; 0.0
4 ; 477445.41021245817 ; 1.0793693538648361E8 ; 1813909.8038138158 ; 4.240907193007699E8 ; 0.0
5 ; 491474.17546091665 ; 1.0932133095948702E8 ; 2291355.214026274 ; 5.3202765468725353E8 ; 0.0
6 ; 507913.49129546416 ; 1.1101513464916328E8 ; 2782829.3894871906 ; 6.413489856467406E8 ; 0.0
7 ; 531503.7905610412 ; 1.1301837575478369E8 ; 3290742.880782655 ; 7.523641202959038E8 ; 0.0
8 ; 565167.5357459991 ; 1.1533107836492074E8 ; 3822246.6713436963 ; 8.653824960506876E8 ; 0.0
9 ; 618414.1797975579 ; 1.1795326043160617E8 ; 4387414.207089695 ; 9.807135744156083E8 ; 0.0
10 ; 696428.8627672376 ; 1.2088493303962845E8 ; 5005828.386887253 ; 1.0986668348472145E9 ; 0.0
11 ; 819967.9094497953 ; 1.2412609993777904E8 ; 5702257.2496544905 ; 1.219551767886843E9 ; 0.0
12 ; 1019151.6178284932 ; 1.2767675737726644E8 ; 6522225.159104286 ; 1.343677867824622E9 ; 0.0
13 ; 1208656.726474264 ; 1.315368942733022E8 ; 7541376.776932779 ; 1.4713546252018883E9 ; 0.0
14 ; 1233074.3045182142 ; 1.3570649267385465E8 ; 8750033.503407042 ; 1.6028915194751906E9 ; 0.0
15 ; 1243294.65009177 ; 1.401855284903512E8 ; 9983107.807925256 ; 1.7385980121490452E9 ; 0.0
16 ; 1254012.4343939207 ; 1.4497397242352065E8 ; 1.1226402458017025E7 ; 1.8787835406393964E9 ; 0.0
17 ; 1263863.678719973 ; 1.5007179100648734E8 ; 1.2480414892410945E7 ; 2.023757513062917E9 ; 0.0
18 ; 1273603.3967377874 ; 1.5547894768707663E8 ; 1.3744278571130918E7 ; 2.173829304069404E9 ; 0.0
19 ; 1284183.6867260886 ; 1.6119540388027635E8 ; 1.5017881967868706E7 ; 2.3293082517564807E9 ; 0.0
20 ; 1294028.956450621 ; 1.672211199368061E8 ; 1.6302065654594794E7 ; 2.490503655636757E9 ; 0.0
21 ; 1304555.4219134087 ; 1.7355605599128303E8 ; 1.7596094611045416E7 ; 2.657724775573563E9 ; 0.0
22 ; 1314100.593932845 ; 1.802001726705504E8 ; 1.8900650032958824E7 ; 2.831280831564846E9 ; 0.0
23 ; 1325796.6646215082 ; 1.8715343165729624E8 ; 2.021475062689167E7 ; 3.0114810042353964E9 ; 0.0
24 ; 1336327.2054105788 ; 1.944157961150965E8 ; 2.154054729151318E7 ; 3.1986344358926926E9 ; 0.0
25 ; 1344324.0358074028 ; 2.0067527188649872E8 ; 2.2876874496923756E7 ; 3.393050232007789E9 ; 0.0
26 ; 1354175.0479526531 ; 2.006853737220877E8 ; 2.422119853273116E7 ; 3.593725503894288E9 ; 0.0
27 ; 1364821.304343964 ; 2.006958399086175E8 ; 2.5575373580683812E7 ; 3.794410877616376E9 ; 0.0
28 ; 1374892.1940402854 ; 2.0070664154838508E8 ; 2.6940194885027777E7 ; 3.9951067175249934E9 ; 0.0
29 ; 1384902.5898594877 ; 2.0071775183114055E8 ; 2.8315087079068065E7 ; 4.1958133590733786E9 ; 0.0
30 ; 1395610.1159022094 ; 2.007291459732856E8 ; 2.9699989668927554E7 ; 4.396531110904519E9 ; 0.0
31 ; 1403066.649004637 ; 2.0074080112966153E8 ; 3.109559978482976E7 ; 4.597260256877805E9 ; 0.0
32 ; 1411469.750979696 ; 2.007526962876366E8 ; 3.24986664338344E7 ; 4.798001058007466E9 ; 0.0
33 ; 1424308.5540581103 ; 2.00764812151077E8 ; 3.3910136184814095E7 ; 4.998753754295103E9 ; 0.0
34 ; 1432950.4650651403 ; 2.0077713101995155E8 ; 3.533444473887221E7 ; 5.19951856644618E9 ; 0.0
35 ; 1440542.289165257 ; 2.007896366697959E8 ; 3.676739520393735E7 ; 5.400295697466132E9 ; 0.0
36 ; 1447712.702856142 ; 2.0080231423403138E8 ; 3.820793749310261E7 ; 5.601085334135928E9 ; 0.0
37 ; 1459864.924457399 ; 2.0081515009116805E8 ; 3.965565019595875E7 ; 5.80188764836996E9 ; 0.0
38 ; 1467147.3169399768 ; 2.0082813175817877E8 ; 4.111551512041615E7 ; 6.002702798461128E9 ; 0.0
39 ; 1472375.5938357122 ; 2.008412477907737E8 ; 4.258266243735613E7 ; 6.203530930219307E9 ; 0.0
40 ; 1482374.353913446 ; 2.0085448769089684E8 ; 4.405503803119184E7 ; 6.40437217801008E9 ; 0.0
41 ; 1488066.76812517 ; 2.008678418214752E8 ; 4.553741238510529E7 ; 6.605226665700977E9 ; 0.0
42 ; 1496788.3952813435 ; 2.008813013282489E8 ; 4.702547915323046E7 ; 6.806094507522452E9 ; 0.0
43 ; 1503283.1456029727 ; 2.008948580683782E8 ; 4.85222675485118E7 ; 7.006975808850701E9 ; 0.0
44 ; 1508320.1997445521 ; 2.0090850454544207E8 ; 5.0025550694114774E7 ; 7.20787066691908E9 ; 0.0
45 ; 1516784.1302596657 ; 2.0092223385039538E8 ; 5.153387089385933E7 ; 7.408779171464521E9 ; 0.0
46 ; 1522362.874123747 ; 2.009360396080366E8 ; 5.305065502411899E7 ; 7.609701405314917E9 ; 0.0
47 ; 1527344.0646318076 ; 2.0094991592853495E8 ; 5.4573017898242734E7 ; 7.810637444922954E9 ; 0.0
48 ; 1532447.0880837843 ; 2.0096385736357987E8 ; 5.610036196287454E7 ; 8.011587360851488E9 ; 0.0
49 ; 1538790.5506967008 ; 2.0097785886673632E8 ; 5.763280905095832E7 ; 8.212551218215068E9 ; 0.0
50 ; 1542257.546405202 ; 2.009919157576143E8 ; 5.917159960165502E7 ; 8.413529077081804E9 ; 0.0
51 ; 1544525.5445960972 ; 2.0100602368948895E8 ; 6.0713857148060225E7 ; 8.614520992839418E9 ; 0.0
52 ; 1549846.4561769187 ; 2.010201786200364E8 ; 6.225838269265632E7 ; 8.815527016528908E9 ; 0.0
53 ; 1555834.7195164643 ; 2.0103437678487962E8 ; 6.3808229148833245E7 ; 9.016547195148945E9 ; 0.0
54 ; 1560359.0126589995 ; 2.010486146736648E8 ; 6.536406386834971E7 ; 9.217581571933825E9 ; 0.0
55 ; 1563608.7543647168 ; 2.0106288900841624E8 ; 6.692442288100871E7 ; 9.418630186607489E9 ; 0.0
56 ; 1567217.9266250161 ; 2.0107719672394085E8 ; 6.848803163537343E7 ; 9.619693075615906E9 ; 0.0
57 ; 1570599.8995089629 ; 2.010915349500772E8 ; 7.005524956199844E7 ; 9.820770272339848E9 ; 0.0
58 ; 1575456.0304728716 ; 2.011059009956032E8 ; 7.162584946150741E7 ; 1.0021861807289925E10 ; 0.0
59 ; 1579654.967726052 ; 2.0112029233363667E8 ; 7.320130549198028E7 ; 1.0222967708285528E10 ; 0.0
60 ; 1581382.0098940781 ; 2.0113470658837932E8 ; 7.478096045970634E7 ; 1.0424088000619165E10 ; 0.0
61 ; 1586757.2716718914 ; 2.0114914152307016E8 ; 7.636234246960041E7 ; 1.0625222707207544E10 ; 0.0
62 ; 1590266.1226252264 ; 2.011635950290288E8 ; 7.79490997412723E7 ; 1.0826371848730614E10 ; 0.0
63 ; 1592993.5004323106 ; 2.0117806511568058E8 ; 7.953936586389753E7 ; 1.1027535443759642E10 ; 0.0
64 ; 1597960.2279980332 ; 2.0119254990146756E8 ; 8.113235936432984E7 ; 1.1228713508875322E10 ; 0.0
65 ; 1600424.6287300545 ; 2.0120704760555896E8 ; 8.273031959232788E7 ; 1.142990605877679E10 ; 0.0
66 ; 1604741.7162841924 ; 2.0122155654028374E8 ; 8.433074422105794E7 ; 1.1631113106382349E10 ; 0.0
67 ; 1606983.0412127746 ; 2.0123607510421565E8 ; 8.593548593734212E7 ; 1.1832334662922632E10 ; 0.0
68 ; 1610464.2990615682 ; 2.0125060177584898E8 ; 8.754246897855489E7 ; 1.2033570738026848E10 ; 0.0
69 ; 1614641.834248883 ; 2.0126513510780868E8 ; 8.915293327761646E7 ; 1.2234821339802696E10 ; 0.0
70 ; 1618310.1923616743 ; 2.0127967372154516E8 ; 9.076757511186534E7 ; 1.2436086474910505E10 ; 0.0
71 ; 1621690.8959105194 ; 2.0129421630246827E8 ; 9.238588530422701E7 ; 1.263736614863205E10 ; 0.0
72 ; 1623284.071475892 ; 2.0130876159548032E8 ; 9.400757620013753E7 ; 1.2838660364934517E10 ; 0.0
73 ; 1628208.5744129093 ; 2.0132330840087125E8 ; 9.563086027161342E7 ; 1.3039969126529997E10 ; 0.0
74 ; 1632340.1780523355 ; 2.013378555705437E8 ; 9.725906884602633E7 ; 1.3241292434930868E10 ; 0.0
75 ; 1633888.8979626806 ; 2.0135240200453794E8 ; 9.889140902407867E7 ; 1.3442630290501411E10 ; 0.0
76 ; 1638996.6288363861 ; 2.0136694664782977E8 ; 1.0052529792204134E8 ; 1.3643982692505949E10 ; 0.0
77 ; 1640946.3210987097 ; 2.013814884873783E8 ; 1.0216429455087774E8 ; 1.3845349639153778E10 ; 0.0
78 ; 1641969.6842819261 ; 2.0139602654940057E8 ; 1.0380524087197645E8 ; 1.4046731127641157E10 ; 0.0
79 ; 1643616.3179587533 ; 2.0141055989685422E8 ; 1.0544721055625838E8 ; 1.4248127154190557E10 ; 0.0
80 ; 1642398.5238238238 ; 2.014250876271102E8 ; 1.0709082687421714E8 ; 1.4449537714087412E10 ; 0.0
81 ; 1642309.5579661075 ; 2.014396088697992E8 ; 1.0873322539804097E8 ; 1.4650962801714521E10 ; 0.0
82 ; 1644098.9707899662 ; 2.014541227848173E8 ; 1.1037553495600708E8 ; 1.485240241058432E10 ; 0.0
83 ; 1645215.4654358076 ; 2.0146862856047773E8 ; 1.1201963392679705E8 ; 1.5053856533369137E10 ; 0.0
84 ; 1645461.9188587419 ; 2.014831254117964E8 ; 1.1366484939223285E8 ; 1.5255325161929615E10 ; 0.0
85 ; 1646615.5950840216 ; 2.0149761257890055E8 ; 1.1531031131109159E8 ; 1.5456808287341412E10 ; 0.0
86 ; 1645883.279720953 ; 2.0151208932555038E8 ; 1.1695692690617561E8 ; 1.5658305899920313E10 ; 0.0
87 ; 1644657.6858206568 ; 2.0152655493776459E8 ; 1.1860281018589656E8 ; 1.5859817989245863E10 ; 0.0
88 ; 1646900.4130508674 ; 2.0154100872254178E8 ; 1.2024746787171721E8 ; 1.6061344544183628E10 ; 0.0
89 ; 1647506.8053985748 ; 2.0155545000666982E8 ; 1.2189436828476807E8 ; 1.626288555290617E10 ; 0.0
90 ; 1646236.8494660875 ; 2.015698781356167E8 ; 1.2354187509016664E8 ; 1.646444100291284E10 ; 0.0
91 ; 1643767.1542080014 ; 2.0158429247249642E8 ; 1.2518811193963273E8 ; 1.6666010881048456E10 ; 0.0
92 ; 1648201.2640327031 ; 2.01598692397104E8 ; 1.2683187909384073E8 ; 1.6867595173520952E10 ; 0.0
93 ; 1646702.4370427446 ; 2.016130773050146E8 ; 1.2848008035787344E8 ; 1.7069193865918056E10 ; 0.0
94 ; 1645632.2198910513 ; 2.0162744660674214E8 ; 1.3012678279491618E8 ; 1.7270806943223072E10 ; 0.0
95 ; 1647317.243463664 ; 2.0164179972695217E8 ; 1.3177241501480724E8 ; 1.7472434389829815E10 ; 0.0
96 ; 1647221.4606226543 ; 2.0165613610372606E8 ; 1.334197322582709E8 ; 1.7674076189556767E10 ; 0.0
97 ; 1646853.56897122 ; 2.0167045518787202E8 ; 1.3506695371889356E8 ; 1.7875732325660492E10 ; 0.0
98 ; 1646791.0220987597 ; 2.0168475644227988E8 ; 1.3671380728786477E8 ; 1.8077402780848366E10 ; 0.0
99 ; 1647533.0614807443 ; 2.0169903934131616E8 ; 1.3836059830996352E8 ; 1.8279087537290646E10 ; 0.0
100 ; 1646952.2169702193 ; 2.017133033702572E8 ; 1.4000813137144426E8 ; 1.848078657663196E10 ; 0.0
101 ; 1644490.1340856494 ; 2.0172754802475688E8 ; 1.4165508358841446E8 ; 1.868249988000222E10 ; 0.0
102 ; 1645822.8018677193 ; 2.017417728103472E8 ; 1.4329957372250012E8 ; 1.8884227428026978E10 ; 0.0
103 ; 1646175.2495560003 ; 2.01755977241969E8 ; 1.4494539652436784E8 ; 1.9085969200837326E10 ; 0.0
104 ; 1644058.7088892893 ; 2.0177016084353083E8 ; 1.4659157177392384E8 ; 1.9287725178079296E10 ; 0.0
105 ; 1645878.760231427 ; 2.0178432314749452E8 ; 1.4823563048281312E8 ; 1.948949533892283E10 ; 0.0
106 ; 1643427.1693098866 ; 2.0179846369448465E8 ; 1.4988150924304456E8 ; 1.9691279662070324E10 ; 0.0
107 ; 1642119.6797815983 ; 2.0181258203292152E8 ; 1.5152493641235444E8 ; 1.989307812576481E10 ; 0.0
108 ; 1641051.1355059964 ; 2.01826677718675E8 ; 1.5316705609213603E8 ; 2.009489070779773E10 ; 0.0
109 ; 1640406.704162866 ; 2.0184075031473875E8 ; 1.5480810722764203E8 ; 2.0296717385516403E10 ; 0.0
110 ; 1640819.6379790918 ; 2.018547993909229E8 ; 1.564485139318049E8 ; 2.0498558135831142E10 ; 0.0
111 ; 1638143.1060202077 ; 2.018688245235641E8 ; 1.58089333569784E8 ; 2.0700412935222065E10 ; 0.0
112 ; 1639402.1895037824 ; 2.0188282529525217E8 ; 1.597274766758042E8 ; 2.090228175974563E10 ; 0.0
113 ; 1636081.261330008 ; 2.0189680129457182E8 ; 1.61366878865308E8 ; 2.1104164585040882E10 ; 0.0
114 ; 1635244.9668950958 ; 2.0191075211585885E8 ; 1.63002960126638E8 ; 2.1306061386335453E10 ; 0.0
115 ; 1633710.7833709207 ; 2.0192467735896975E8 ; 1.646382050935331E8 ; 2.1507972138451313E10 ; 0.0
116 ; 1634569.508785969 ; 2.019385766290639E8 ; 1.66271915876904E8 ; 2.1709896815810284E10 ; 0.0
117 ; 1632703.4808608494 ; 2.0195244953639758E8 ; 1.6790648538568997E8 ; 2.1911835392439346E10 ; 0.0
118 ; 1631404.5527930742 ; 2.0196629569612914E8 ; 1.6953918886655083E8 ; 2.2113787841975742E10 ; 0.0
119 ; 1629387.9629428247 ; 2.0198011472813466E8 ; 1.7117059341934392E8 ; 2.231575413767187E10 ; 0.0
120 ; 1629605.1452461465 ; 2.0199390625683323E8 ; 1.7279998138228676E8 ; 2.2517734252400005E10 ; 0.0
121 ; 1629352.5116322224 ; 2.0200766991102162E8 ; 1.744295865275329E8 ; 2.2719728158656837E10 ; 0.0
122 ; 1626242.1860595853 ; 2.020214053237177E8 ; 1.7605893903916514E8 ; 2.292173582856786E10 ; 0.0
123 ; 1626200.5206633375 ; 2.0203511213201186E8 ; 1.7768518122522473E8 ; 2.312375723389158E10 ; 0.0
124 ; 1624558.2806718699 ; 2.0204878997692606E8 ; 1.7931138174588808E8 ; 2.332579234602359E10 ; 0.0
125 ; 1622505.0075308573 ; 2.020624385032805E8 ; 1.8093594002655995E8 ; 2.3527841136000515E10 ; 0.0
126 ; 1618935.7063132357 ; 2.0207605735956672E8 ; 1.8255844503409082E8 ; 2.3729903574503796E10 ; 0.0
127 ; 1619063.6763653872 ; 2.020896461978275E8 ; 1.8417738074040404E8 ; 2.393197963186336E10 ; 0.0
128 ; 1613999.9309918804 ; 2.021032046735424E8 ; 1.8579644441676942E8 ; 2.4134069278061188E10 ; 0.0
129 ; 1615068.7106534224 ; 2.0211673244551963E8 ; 1.874104443477613E8 ; 2.433617248273473E10 ; 0.0
130 ; 1611426.557908462 ; 2.0213022917579275E8 ; 1.8902551305841473E8 ; 2.453828921518025E10 ; 0.0
131 ; 1609588.9976869891 ; 2.0214369452952296E8 ; 1.906369396163232E8 ; 2.474041944435604E10 ; 0.0
132 ; 1603491.342493181 ; 2.0215712817490587E8 ; 1.9224652861401019E8 ; 2.4942563138885563E10 ; 0.0
133 ; 1600065.0757359865 ; 2.0217052978308317E8 ; 1.9385001995650336E8 ; 2.514472026706047E10 ; 0.0
134 ; 1594359.681158979 ; 2.021838990280584E8 ; 1.9545008503223935E8 ; 2.5346890796843555E10 ; 0.0
135 ; 1590656.0950583785 ; 2.0219723558661696E8 ; 1.9704444471339834E8 ; 2.5549074695871613E10 ; 0.0
136 ; 1587301.3690123837 ; 2.022105391382498E8 ; 1.9863510080845672E8 ; 2.575127193145823E10 ; 0.0
137 ; 1581614.6275812644 ; 2.0222380936508116E8 ; 2.002224021774691E8 ; 2.5953482470596478E10 ; 0.0
138 ; 1575404.2999167356 ; 2.0223704595179927E8 ; 2.0180401680505037E8 ; 2.615570627996156E10 ; 0.0
139 ; 1574073.3304932255 ; 2.022502485855909E8 ; 2.0337942110496712E8 ; 2.6357943325913357E10 ; 0.0
140 ; 1569025.9470838516 ; 2.022634169560786E8 ; 2.0495349443546033E8 ; 2.6560193574498947E10 ; 0.0
141 ; 1564229.566706878 ; 2.0227655075526112E8 ; 2.065225203825442E8 ; 2.6762456991455025E10 ; 0.0
142 ; 1559717.5746097034 ; 2.0228964967745674E8 ; 2.0808674994925106E8 ; 2.6964733542210285E10 ; 0.0
143 ; 1554412.1906889237 ; 2.0230271341924885E8 ; 2.0964646752386075E8 ; 2.716702319188774E10 ; 0.0
144 ; 1549412.6034187446 ; 2.023157416794347E8 ; 2.112008797145497E8 ; 2.736932590530699E10 ; 0.0
145 ; 1548329.7126271054 ; 2.02328734158976E8 ; 2.1275029231796843E8 ; 2.7571641646986427E10 ; 0.0
146 ; 1547248.5734459225 ; 2.0234169056095204E8 ; 2.1429862203059554E8 ; 2.7773970381145405E10 ; 0.0
147 ; 1543194.6880738246 ; 2.0235461059051508E8 ; 2.1584587060404146E8 ; 2.7976312071706356E10 ; 0.0
148 ; 1541715.659482972 ; 2.0236749395484763E8 ; 2.1738906529211527E8 ; 2.817866668229687E10 ; 0.0
149 ; 1538972.9281321953 ; 2.023803403631218E8 ; 2.1893078095159826E8 ; 2.838103417625172E10 ; 0.0
150 ; 1537629.1751116973 ; 2.0239314952646044E8 ; 2.2046975387973046E8 ; 2.858341451661484E10 ; 0.0
151 ; 1535727.5124245454 ; 2.0240592115790024E8 ; 2.2200738305484217E8 ; 2.87858076661413E10 ; 0.0
152 ; 1534318.538795345 ; 2.0241865497235626E8 ; 2.2354311056726673E8 ; 2.8988213587299202E10 ; 0.0
153 ; 1533952.786869541 ; 2.0243135068658832E8 ; 2.2507742910606208E8 ; 2.9190632242271557E10 ; 0.0
154 ; 1530606.4087140139 ; 2.0244400801916876E8 ; 2.2661138189293164E8 ; 2.9393063592958145E10 ; 0.0
155 ; 1528443.3008558918 ; 2.0245662669045186E8 ; 2.2814198830164567E8 ; 2.9595507600977314E10 ; 0.0
156 ; 1525861.5490550522 ; 2.024692064225444E8 ; 2.2967043160250157E8 ; 2.9797964227667767E10 ; 0.0
157 ; 1523671.535805543 ; 2.0248174693927765E8 ; 2.311962931515566E8 ; 3.000043343409031E10 ; 0.0
158 ; 1522787.4383862203 ; 2.0249424796618092E8 ; 2.3271996468736216E8 ; 3.0202915181029587E10 ; 0.0
159 ; 1520821.6855678756 ; 2.0250670923045576E8 ; 2.342427521257484E8 ; 3.040540942899577E10 ; 0.0
160 ; 1518099.0552538354 ; 2.0251913046095183E8 ; 2.3576357381131628E8 ; 3.0607916138226227E10 ; 0.0
161 ; 1514944.886896935 ; 2.0253151138814357E8 ; 2.3728167286657012E8 ; 3.081043526868718E10 ; 0.0
162 ; 1514910.0071610431 ; 2.0254385174410808E8 ; 2.3879661775346705E8 ; 3.1012966780075325E10 ; 0.0
163 ; 1510959.8906713931 ; 2.025561512625039E8 ; 2.403115277606281E8 ; 3.121551063181943E10 ; 0.0
164 ; 1511950.1035395965 ; 2.025684096785508E8 ; 2.418224876512995E8 ; 3.1418066783081936E10 ; 0.0
165 ; 1509136.098486791 ; 2.0258062672901058E8 ; 2.433344377548391E8 ; 3.1620635192760487E10 ; 0.0
166 ; 1505925.433043427 ; 2.0259280215216854E8 ; 2.4484357385332587E8 ; 3.18232158194895E10 ; 0.0
167 ; 1503284.2141235906 ; 2.0260493568781596E8 ; 2.463494992863693E8 ; 3.2025808621641666E10 ; 0.0
168 ; 1502012.4174807395 ; 2.0261702707723325E8 ; 2.4785278350049287E8 ; 3.2228413557329483E10 ; 0.0
169 ; 1500276.381235237 ; 2.0262907606317413E8 ; 2.493547959179736E8 ; 3.2431030584406715E10 ; 0.0
170 ; 1497640.3469801259 ; 2.026410823898501E8 ; 2.5085507229920885E8 ; 3.263365966046989E10 ; 0.0
171 ; 1497289.7599943983 ; 2.0265304580291608E8 ; 2.5235271264618897E8 ; 3.283630074285974E10 ; 0.0
172 ; 1492939.2544482271 ; 2.026649660494564E8 ; 2.5385000240618336E8 ; 3.303895378866266E10 ; 0.0
173 ; 1489708.3052010098 ; 2.0267684287797153E8 ; 2.553429416606316E8 ; 3.3241618754712116E10 ; 0.0
174 ; 1490061.6096238329 ; 2.0268867603836554E8 ; 2.5683264996583262E8 ; 3.3444295597590088E10 ; 0.0
175 ; 1488415.006625848 ; 2.027004652819339E8 ; 2.5832271157545644E8 ; 3.3646984273628452E10 ; 0.0
176 ; 1486748.223023818 ; 2.0271221036135215E8 ; 2.598111265820823E8 ; 3.3849684738910385E10 ; 0.0
177 ; 1487693.2690558622 ; 2.027239110306647E8 ; 2.6129787480510613E8 ; 3.4052396949271736E10 ; 0.0
178 ; 1484290.946018369 ; 2.0273556704527476E8 ; 2.62785568074162E8 ; 3.4255120860302402E10 ; 0.0
179 ; 1483155.454462604 ; 2.0274717816193402E8 ; 2.6426985902018037E8 ; 3.445785642734768E10 ; 0.0
180 ; 1482676.1359093941 ; 2.0275874413873342E8 ; 2.65753014474643E8 ; 3.466060360550961E10 ; 0.0
181 ; 1481382.8069639392 ; 2.0277026473509413E8 ; 2.672356906105524E8 ; 3.4863362349648346E10 ; 0.0
182 ; 1477745.354650272 ; 2.0278173971175885E8 ; 2.6871707341751635E8 ; 3.506613261438344E10 ; 0.0
183 ; 1478304.2979786762 ; 2.027931688307838E8 ; 2.701948187721666E8 ; 3.52689143540952E10 ; 0.0
184 ; 1476839.7998122433 ; 2.0280455185553086E8 ; 2.716731230701453E8 ; 3.547170752292598E10 ; 0.0
185 ; 1474873.836175551 ; 2.0281588855066025E8 ; 2.7314996286995757E8 ; 3.567451207478151E10 ; 0.0
186 ; 1474686.9326023425 ; 2.0282717868212354E8 ; 2.746248367061331E8 ; 3.587732796333217E10 ; 0.0
187 ; 1471923.552853491 ; 2.02838422017157E8 ; 2.760995236387355E8 ; 3.608015514201429E10 ; 0.0
188 ; 1469538.8469833601 ; 2.028496183242752E8 ; 2.7757144719158894E8 ; 3.628299356403145E10 ; 0.0
189 ; 1468529.853696035 ; 2.0286076737326524E8 ; 2.790409860385723E8 ; 3.648584318235572E10 ; 0.0
190 ; 1470027.2071196071 ; 2.028718689351809E8 ; 2.8050951589226836E8 ; 3.668870394972899E10 ; 0.0
191 ; 1467692.947583225 ; 2.0288292278233737E8 ; 2.8197954309938794E8 ; 3.689157581866417E10 ; 0.0
192 ; 1465070.0843195945 ; 2.028939286883061E8 ; 2.8344723604697114E8 ; 3.709445874144651E10 ; 0.0
193 ; 1465052.590475015 ; 2.0290488642791003E8 ; 2.8491230613129073E8 ; 3.729735267013482E10 ; 0.0
194 ; 1463134.065714121 ; 2.0291579577721915E8 ; 2.8637735872176576E8 ; 3.750025755656273E10 ; 0.0
195 ; 1460859.9104787046 ; 2.0292665651354602E8 ; 2.878404927874799E8 ; 3.770317335233995E10 ; 0.0
196 ; 1458760.127578017 ; 2.02937468415442E8 ; 2.893013526979586E8 ; 3.79061000088535E10 ; 0.0
197 ; 1459639.3508765444 ; 2.0294823126269314E8 ; 2.907601128255366E8 ; 3.810903747726894E10 ; 0.0
198 ; 1457883.4407106673 ; 2.0295894483631688E8 ; 2.922197521764132E8 ; 3.831198570853164E10 ; 0.0
199 ; 1456492.1954498705 ; 2.0296960891855857E8 ; 2.9367763561712384E8 ; 3.851494465336796E10 ; 0.0
