CSV File for the City 1 on Day 254
1 - Minute m 
2 - Power Consumed at minute m 
3 - Power Produced at minute m 
4 - Energy Consumed since the beginning of the day 
5 - Energy Produced since the beginning of the day 
6 - Energy Lost since the beginning of the day on lines starting from the city
 
0 ; 4168588.1549164914 ; 1.0541832006991044E8 ; 0.0 ; 0.0 ; 0.0
1 ; 4184171.99611995 ; 1.055711020068025E8 ; 4168588.1549164914 ; 1.0541832006991044E8 ; 0.0
2 ; 4204766.791809535 ; 1.060326797039999E8 ; 8352760.151036441 ; 2.1098942207671294E8 ; 0.0
3 ; 4221013.975596088 ; 1.0680305579564321E8 ; 1.2557526942845976E7 ; 3.1702210178071284E8 ; 0.0
4 ; 4237312.876115773 ; 1.0788223266645294E8 ; 1.6778540918442063E7 ; 4.2382515757635605E8 ; 0.0
5 ; 4269181.385087392 ; 1.0927021243064177E8 ; 2.1015853794557836E7 ; 5.31707390242809E8 ; 0.0
6 ; 4303522.261156546 ; 1.1096699691261837E8 ; 2.528503517964523E7 ; 6.409776026734507E8 ; 0.0
7 ; 4352832.884836968 ; 1.1297258762988132E8 ; 2.9588557440801777E7 ; 7.519445995860691E8 ; 0.0
8 ; 4438703.457096105 ; 1.1528698577846503E8 ; 3.394139032563874E7 ; 8.649171872159505E8 ; 0.0
9 ; 4543819.8957902 ; 1.179101922212612E8 ; 3.838009378273485E7 ; 9.802041729944155E8 ; 0.0
10 ; 4727060.610738263 ; 1.2084220747947788E8 ; 4.2923913678525046E7 ; 1.0981143652156768E9 ; 0.0
11 ; 5016112.512340349 ; 1.2408303172743407E8 ; 4.765097428926331E7 ; 1.2189565726951547E9 ; 0.0
12 ; 5476791.281934737 ; 1.2763266479081073E8 ; 5.266708680160366E7 ; 1.3430396044225888E9 ; 0.0
13 ; 5919704.001409976 ; 1.3149110614839983E8 ; 5.81438780835384E7 ; 1.4706722692133996E9 ; 0.0
14 ; 5967995.991332681 ; 1.3565835493730974E8 ; 6.4063582084948376E7 ; 1.6021633753617995E9 ; 0.0
15 ; 5990205.270662116 ; 1.4013440996150595E8 ; 7.003157807628106E7 ; 1.7378217302991092E9 ; 0.0
16 ; 6012052.93792804 ; 1.4491926970349E8 ; 7.602178334694317E7 ; 1.877956140260615E9 ; 0.0
17 ; 6030361.329976876 ; 1.500129323388531E8 ; 8.20338362848712E7 ; 2.0228754099641051E9 ; 0.0
18 ; 6048069.150501486 ; 1.5541539575338262E8 ; 8.806419761484808E7 ; 2.172888342302958E9 ; 0.0
19 ; 6068010.402728357 ; 1.6112665756235805E8 ; 9.411226676534957E7 ; 2.3283037380563407E9 ; 0.0
20 ; 6090128.638280016 ; 1.671467151316388E8 ; 1.0018027716807793E8 ; 2.4894303956186986E9 ; 0.0
21 ; 6112452.1951084705 ; 1.734755656001331E8 ; 1.0627040580635795E8 ; 2.6565771107503376E9 ; 0.0
22 ; 6129777.859355684 ; 1.8011320590323132E8 ; 1.1238285800146642E8 ; 2.8300526763504705E9 ; 0.0
23 ; 6147944.22248312 ; 1.8705963279679692E8 ; 1.1851263586082211E8 ; 3.0101658822537017E9 ; 0.0
24 ; 6170056.759243653 ; 1.9431484288132882E8 ; 1.2466058008330522E8 ; 3.1972255150504985E9 ; 0.0
25 ; 6189275.5211479645 ; 2.0056687352412185E8 ; 1.3083063684254888E8 ; 3.3915403579318275E9 ; 0.0
26 ; 6210251.746583977 ; 2.0056926891963315E8 ; 1.3701991236369684E8 ; 3.5921072314559493E9 ; 0.0
27 ; 6231841.056522839 ; 2.0057179463706988E8 ; 1.432301641102808E8 ; 3.7926765003755827E9 ; 0.0
28 ; 6251337.900973642 ; 2.0057444688882548E8 ; 1.4946200516680366E8 ; 3.9932482950126524E9 ; 0.0
29 ; 6267912.12362444 ; 2.005772218441773E8 ; 1.557133430677773E8 ; 4.193822741901478E9 ; 0.0
30 ; 6286346.496071147 ; 2.005801156483822E8 ; 1.6198125519140175E8 ; 4.394399963745655E9 ; 0.0
31 ; 6306003.547322765 ; 2.005831244403113E8 ; 1.682676016874729E8 ; 4.594980079394037E9 ; 0.0
32 ; 6323897.459242656 ; 2.0058624436855993E8 ; 1.745736052347957E8 ; 4.795563203834349E9 ; 0.0
33 ; 6341358.906028948 ; 2.0058947160600245E8 ; 1.8089750269403833E8 ; 4.9961494482029085E9 ; 0.0
34 ; 6360594.501735507 ; 2.005928023627943E8 ; 1.872388616000673E8 ; 5.196738919808911E9 ; 0.0
35 ; 6373307.185242627 ; 2.005962328978479E8 ; 1.935994561018028E8 ; 5.397331722171705E9 ; 0.0
36 ; 6393670.562675839 ; 2.005997595288315E8 ; 1.9997276328704542E8 ; 5.597927955069553E9 ; 0.0
37 ; 6409569.66230981 ; 2.0060337864075786E8 ; 2.0636643384972125E8 ; 5.798527714598385E9 ; 0.0
38 ; 6420486.886586835 ; 2.006070866932402E8 ; 2.1277600351203105E8 ; 5.999131093239142E9 ; 0.0
39 ; 6439988.698753942 ; 2.0061088022650513E8 ; 2.191964903986179E8 ; 6.199738179932383E9 ; 0.0
40 ; 6451803.3843006445 ; 2.0061475586625555E8 ; 2.2563647909737185E8 ; 6.400349060158888E9 ; 0.0
41 ; 6465423.821071064 ; 2.0061871032748097E8 ; 2.320882824816725E8 ; 6.600963816025144E9 ; 0.0
42 ; 6478263.031188625 ; 2.00622740417313E8 ; 2.3855370630274355E8 ; 6.801582526352625E9 ; 0.0
43 ; 6493242.6838823175 ; 2.0062684303702176E8 ; 2.450319693339322E8 ; 7.0022052667699375E9 ; 0.0
44 ; 6500860.48124476 ; 2.0063101518324712E8 ; 2.5152521201781452E8 ; 7.202832109806959E9 ; 0.0
45 ; 6511625.479030047 ; 2.0063525394855377E8 ; 2.580260724990593E8 ; 7.403463124990207E9 ; 0.0
46 ; 6522666.097733214 ; 2.0063955652139413E8 ; 2.6453769797808933E8 ; 7.604098378938761E9 ; 0.0
47 ; 6526050.172813003 ; 2.006439201855584E8 ; 2.7106036407582253E8 ; 7.804737935460155E9 ; 0.0
48 ; 6537525.419366039 ; 2.006483423191841E8 ; 2.7758641424863553E8 ; 8.005381855645713E9 ; 0.0
49 ; 6543182.773767204 ; 2.0065282039339194E8 ; 2.841239396680016E8 ; 8.206030197964897E9 ; 0.0
50 ; 6548877.132752799 ; 2.0065735197060904E8 ; 2.906671224417688E8 ; 8.406683018358289E9 ; 0.0
51 ; 6555973.348500488 ; 2.0066193470263422E8 ; 2.972159995745216E8 ; 8.607340370328897E9 ; 0.0
52 ; 6562312.224211598 ; 2.0066656632849404E8 ; 3.037719729230221E8 ; 8.808002305031532E9 ; 0.0
53 ; 6568780.574660126 ; 2.0067124467213428E8 ; 3.1033428514723366E8 ; 9.008668871360025E9 ; 0.0
54 ; 6574103.638804678 ; 2.006759676399845E8 ; 3.169030657218938E8 ; 9.20934011603216E9 ; 0.0
55 ; 6575845.647621606 ; 2.006807332184303E8 ; 3.2347716936069846E8 ; 9.410016083672144E9 ; 0.0
56 ; 6583098.060924682 ; 2.0068553947122267E8 ; 3.300530150083201E8 ; 9.610696816890574E9 ; 0.0
57 ; 6587064.340732782 ; 2.006903845368499E8 ; 3.366361130692448E8 ; 9.811382356361795E9 ; 0.0
58 ; 6594905.36820357 ; 2.0069526662589413E8 ; 3.4322317740997756E8 ; 1.0012072740898645E10 ; 0.0
59 ; 6597041.284549449 ; 2.0070018401839167E8 ; 3.4981808277818114E8 ; 1.021276800752454E10 ; 0.0
60 ; 6604585.087593979 ; 2.0070513506121233E8 ; 3.564151240627306E8 ; 1.0413468191542933E10 ; 0.0
61 ; 6605022.932691483 ; 2.0071011816547132E8 ; 3.630197091503246E8 ; 1.0614173326604145E10 ; 0.0
62 ; 6612425.397687491 ; 2.0071513180398488E8 ; 3.6962473208301604E8 ; 1.0814883444769617E10 ; 0.0
63 ; 6611564.902289148 ; 2.0072017450877827E8 ; 3.7623715748070353E8 ; 1.1015598576573603E10 ; 0.0
64 ; 6622066.650379303 ; 2.007252448686533E8 ; 3.828487223829927E8 ; 1.121631875108238E10 ; 0.0
65 ; 6625994.701692407 ; 2.0073034152682108E8 ; 3.89470789033372E8 ; 1.1417043995951035E10 ; 0.0
66 ; 6627057.169871966 ; 2.0073546317860445E8 ; 3.960967837350644E8 ; 1.1617774337477856E10 ; 0.0
67 ; 6632977.5963966 ; 2.0074060856921294E8 ; 4.027238409049364E8 ; 1.181850980065646E10 ; 0.0
68 ; 6635867.255284827 ; 2.0074577649159214E8 ; 4.09356818501333E8 ; 1.2019250409225674E10 ; 0.0
69 ; 6638124.023770279 ; 2.0075096578434953E8 ; 4.1599268575661784E8 ; 1.2219996185717266E10 ; 0.0
70 ; 6640889.061436014 ; 2.007561753297564E8 ; 4.226308097803881E8 ; 1.2420747151501616E10 ; 0.0
71 ; 6650736.049259493 ; 2.0076140405182648E8 ; 4.292716988418241E8 ; 1.2621503326831371E10 ; 0.0
72 ; 6647861.527099467 ; 2.0076665091447037E8 ; 4.359224348910836E8 ; 1.2822264730883198E10 ; 0.0
73 ; 6652153.4774274565 ; 2.007719149197248E8 ; 4.425702964181831E8 ; 1.3023031381797668E10 ; 0.0
74 ; 6655719.1012029275 ; 2.0077719510605553E8 ; 4.492224498956106E8 ; 1.3223803296717394E10 ; 0.0
75 ; 6654713.310752756 ; 2.007824905467324E8 ; 4.558781689968135E8 ; 1.342458049182345E10 ; 0.0
76 ; 6662928.50728282 ; 2.007878003482741E8 ; 4.625328823075662E8 ; 1.3625362982370182E10 ; 0.0
77 ; 6663571.785116743 ; 2.007931236489617E8 ; 4.69195810814849E8 ; 1.3826150782718456E10 ; 0.0
78 ; 6657066.264289045 ; 2.0079845961741772E8 ; 4.7585938259996575E8 ; 1.4026943906367418E10 ; 0.0
79 ; 6659094.692801058 ; 2.0080380745124966E8 ; 4.825164488642548E8 ; 1.4227742365984837E10 ; 0.0
80 ; 6651278.611768641 ; 2.0080916637575462E8 ; 4.8917554355705583E8 ; 1.4428546173436087E10 ; 0.0
81 ; 6647448.390872149 ; 2.0081453564268377E8 ; 4.958268221688245E8 ; 1.4629355339811842E10 ; 0.0
82 ; 6645337.9708305355 ; 2.0081991452906358E8 ; 5.024742705596966E8 ; 1.4830169875454525E10 ; 0.0
83 ; 6638286.523785191 ; 2.0082530233607197E8 ; 5.091196085305272E8 ; 1.503098978998359E10 ; 0.0
84 ; 6633815.227717804 ; 2.0083069838796708E8 ; 5.1575789505431235E8 ; 1.523181509231966E10 ; 0.0
85 ; 6632707.390807598 ; 2.0083610203106624E8 ; 5.2239171028203017E8 ; 1.5432645790707626E10 ; 0.0
86 ; 6631140.78291106 ; 2.0084151263277307E8 ; 5.2902441767283773E8 ; 1.5633481892738693E10 ; 0.0
87 ; 6621177.188256734 ; 2.008469295806508E8 ; 5.356555584557488E8 ; 1.5834323405371466E10 ; 0.0
88 ; 6622171.241228068 ; 2.0085235228153923E8 ; 5.422767356440055E8 ; 1.6035170334952116E10 ; 0.0
89 ; 6621575.304770357 ; 2.008577801607138E8 ; 5.488989068852336E8 ; 1.6236022687233656E10 ; 0.0
90 ; 6611461.806235334 ; 2.0086321266108468E8 ; 5.55520482190004E8 ; 1.643688046739437E10 ; 0.0
91 ; 6606923.966753303 ; 2.0086864924243402E8 ; 5.621319439962393E8 ; 1.6637743680055454E10 ; 0.0
92 ; 6605617.760398609 ; 2.0087408938068932E8 ; 5.687388679629925E8 ; 1.6838612329297888E10 ; 0.0
93 ; 6596748.829573868 ; 2.008795325672316E8 ; 5.753444857233912E8 ; 1.7039486418678577E10 ; 0.0
94 ; 6592288.978441199 ; 2.0088497830823636E8 ; 5.81941234552965E8 ; 1.7240365951245808E10 ; 0.0
95 ; 6584654.6811401965 ; 2.0089042612404612E8 ; 5.885335235314063E8 ; 1.7441250929554043E10 ; 0.0
96 ; 6578822.920706695 ; 2.0089587554857242E8 ; 5.951181782125465E8 ; 1.764214135567809E10 ; 0.0
97 ; 6578564.298292899 ; 2.0090132612872645E8 ; 6.016970011332532E8 ; 1.784303723122666E10 ; 0.0
98 ; 6570508.256650321 ; 2.0090677742387658E8 ; 6.082755654315461E8 ; 1.804393855735539E10 ; 0.0
99 ; 6566715.05469312 ; 2.0091222900533152E8 ; 6.148460736881964E8 ; 1.8244845334779266E10 ; 0.0
100 ; 6555763.948079224 ; 2.0091768045584777E8 ; 6.214127887428895E8 ; 1.84457575637846E10 ; 0.0
101 ; 6552441.038865971 ; 2.0092313136916053E8 ; 6.279685526909688E8 ; 1.8646675244240448E10 ; 0.0
102 ; 6548861.699492399 ; 2.009285813495362E8 ; 6.345209937298347E8 ; 1.8847598375609608E10 ; 0.0
103 ; 6538802.999076942 ; 2.0093403001134628E8 ; 6.410698554293271E8 ; 1.9048526956959145E10 ; 0.0
104 ; 6531177.588857585 ; 2.0093947697866076E8 ; 6.476086584284041E8 ; 1.924946098697049E10 ; 0.0
105 ; 6525667.216821355 ; 2.0094492188486075E8 ; 6.541398360172616E8 ; 1.945040046394915E10 ; 0.0
106 ; 6519027.014231514 ; 2.0095036437226883E8 ; 6.606655032340829E8 ; 1.965134538583401E10 ; 0.0
107 ; 6512115.611715663 ; 2.0095580409179658E8 ; 6.671845302483145E8 ; 1.985229575020628E10 ; 0.0
108 ; 6504774.8990780795 ; 2.0096124070260853E8 ; 6.736966458600302E8 ; 2.0053251554298077E10 ; 0.0
109 ; 6499873.744409773 ; 2.0096667387180114E8 ; 6.802014207591083E8 ; 2.0254212795000687E10 ; 0.0
110 ; 6491670.146872679 ; 2.0097210327409682E8 ; 6.867012945035181E8 ; 2.0455179468872486E10 ; 0.0
111 ; 6484542.499852352 ; 2.009775285915517E8 ; 6.931929646503907E8 ; 2.0656151572146584E10 ; 0.0
112 ; 6477043.35297686 ; 2.009829495132768E8 ; 6.99677507150243E8 ; 2.0857129100738136E10 ; 0.0
113 ; 6468192.75814979 ; 2.009883657351716E8 ; 7.0615455050322E8 ; 2.105811205025141E10 ; 0.0
114 ; 6456574.66717267 ; 2.0099377695966983E8 ; 7.126227432613697E8 ; 2.1259100415986584E10 ; 0.0
115 ; 6452102.28664343 ; 2.0099918289549655E8 ; 7.190793179285424E8 ; 2.1460094192946255E10 ; 0.0
116 ; 6447129.848942882 ; 2.01004583257436E8 ; 7.255314202151858E8 ; 2.166109337584175E10 ; 0.0
117 ; 6434986.975995993 ; 2.0100997776611006E8 ; 7.319785500641286E8 ; 2.1862097959099186E10 ; 0.0
118 ; 6430706.022821025 ; 2.0101536614776614E8 ; 7.384135370401247E8 ; 2.2063107936865295E10 ; 0.0
119 ; 6417380.8004881395 ; 2.0102074813407472E8 ; 7.448442430629457E8 ; 2.226412330301306E10 ; 0.0
120 ; 6417012.472368713 ; 2.0102612346193564E8 ; 7.512616238634338E8 ; 2.2465144051147137E10 ; 0.0
121 ; 6400532.974040692 ; 2.0103149187329286E8 ; 7.576786363358026E8 ; 2.2666170174609074E10 ; 0.0
122 ; 6391595.217706646 ; 2.010368531149575E8 ; 7.640791693098433E8 ; 2.2867201666482365E10 ; 0.0
123 ; 6383152.498503791 ; 2.010422069384381E8 ; 7.7047076452755E8 ; 2.306823851959732E10 ; 0.0
124 ; 6377146.809022911 ; 2.0104755309977868E8 ; 7.768539170260538E8 ; 2.326928072653576E10 ; 0.0
125 ; 6362875.05209757 ; 2.010528913594035E8 ; 7.832310638350767E8 ; 2.3470328279635536E10 ; 0.0
126 ; 6356422.11070458 ; 2.0105822148196843E8 ; 7.895939388871742E8 ; 2.3671381170994938E10 ; 0.0
127 ; 6349619.13744321 ; 2.010635432362189E8 ; 7.959503609978788E8 ; 2.3872439392476906E10 ; 0.0
128 ; 6337707.1909958795 ; 2.0106885639485353E8 ; 8.02299980135322E8 ; 2.4073502935713123E10 ; 0.0
129 ; 6326315.890165453 ; 2.010741607343938E8 ; 8.086376873263179E8 ; 2.4274571792107975E10 ; 0.0
130 ; 6316004.320766655 ; 2.010794560350591E8 ; 8.149640032164834E8 ; 2.447564595284237E10 ; 0.0
131 ; 6305158.565344345 ; 2.0108474208064687E8 ; 8.2128000753725E8 ; 2.467672540887743E10 ; 0.0
132 ; 6285801.509467773 ; 2.0109001865841797E8 ; 8.275851661025944E8 ; 2.4877810150958076E10 ; 0.0
133 ; 6271411.64506326 ; 2.010952855589867E8 ; 8.338709676120621E8 ; 2.5078900169616493E10 ; 0.0
134 ; 6250437.677764929 ; 2.011005425762152E8 ; 8.401423792571254E8 ; 2.527999545517548E10 ; 0.0
135 ; 6242856.779393924 ; 2.0110578950711253E8 ; 8.463928169348903E8 ; 2.5481095997751694E10 ; 0.0
136 ; 6220163.124565525 ; 2.0111102615173757E8 ; 8.526356737142842E8 ; 2.568220178725881E10 ; 0.0
137 ; 6200411.482234458 ; 2.0111625231310603E8 ; 8.588558368388497E8 ; 2.5883312813410545E10 ; 0.0
138 ; 6194249.26283546 ; 2.011214677971011E8 ; 8.650562483210841E8 ; 2.608442906572365E10 ; 0.0
139 ; 6170642.072329427 ; 2.0112667241238797E8 ; 8.712504975839196E8 ; 2.6285550533520752E10 ; 0.0
140 ; 6158664.970200099 ; 2.0113186597033152E8 ; 8.77421139656249E8 ; 2.648667720593314E10 ; 0.0
141 ; 6143622.791105523 ; 2.0113704828491738E8 ; 8.835798046264491E8 ; 2.6687809071903473E10 ; 0.0
142 ; 6120911.346800443 ; 2.0114221917267615E8 ; 8.897234274175546E8 ; 2.688894612018839E10 ; 0.0
143 ; 6101916.172945463 ; 2.0114737845261076E8 ; 8.958443387643551E8 ; 2.7090088339361065E10 ; 0.0
144 ; 6086052.16065958 ; 2.0115252594612646E8 ; 9.019462549373006E8 ; 2.7291235717813675E10 ; 0.0
145 ; 6078540.568176052 ; 2.0115766147696364E8 ; 9.080323070979601E8 ; 2.74923882437598E10 ; 0.0
146 ; 6068047.228174525 ; 2.011627848711335E8 ; 9.141108476661361E8 ; 2.7693545905236763E10 ; 0.0
147 ; 6058554.399953529 ; 2.0116789595685586E8 ; 9.201788948943107E8 ; 2.7894708690107895E10 ; 0.0
148 ; 6046026.393137896 ; 2.0117299456449977E8 ; 9.262374492942642E8 ; 2.809587658606475E10 ; 0.0
149 ; 6035812.694310664 ; 2.01178080526526E8 ; 9.322834756874021E8 ; 2.829704958062925E10 ; 0.0
150 ; 6023269.831321591 ; 2.0118315367743224E8 ; 9.383192883817128E8 ; 2.8498227661155777E10 ; 0.0
151 ; 6020673.146248323 ; 2.0118821385369992E8 ; 9.443425582130344E8 ; 2.869941081483321E10 ; 0.0
152 ; 6007153.523298943 ; 2.0119326089374337E8 ; 9.503632313592827E8 ; 2.890059902868691E10 ; 0.0
153 ; 5993677.490372327 ; 2.0119829463786092E8 ; 9.563703848825817E8 ; 2.910179228958065E10 ; 0.0
154 ; 5990552.371597022 ; 2.0120331492818755E8 ; 9.62364062372954E8 ; 2.930299058421851E10 ; 0.0
155 ; 5978474.994893729 ; 2.012083216086498E8 ; 9.683546147445511E8 ; 2.9504193899146698E10 ; 0.0
156 ; 5965519.429305895 ; 2.012133145249219E8 ; 9.743330897394447E8 ; 2.970540222075535E10 ; 0.0
157 ; 5957377.271918884 ; 2.0121829352438393E8 ; 9.802986091687506E8 ; 2.990661553528027E10 ; 0.0
158 ; 5944193.788964349 ; 2.0122325845608127E8 ; 9.862559864406695E8 ; 3.0107833828804653E10 ; 0.0
159 ; 5933834.154055343 ; 2.0122820917068577E8 ; 9.922001802296339E8 ; 3.0309057087260735E10 ; 0.0
160 ; 5922040.124324319 ; 2.0123314552045816E8 ; 9.981340143836893E8 ; 3.051028529643142E10 ; 0.0
161 ; 5912640.731142498 ; 2.01238067359212E8 ; 1.0040560545080136E9 ; 3.0711518441951878E10 ; 0.0
162 ; 5901068.190208043 ; 2.0124297454227895E8 ; 1.0099686952391561E9 ; 3.091275650931109E10 ; 0.0
163 ; 5890975.556742985 ; 2.0124786692647523E8 ; 1.0158697634293642E9 ; 3.1113999483853367E10 ; 0.0
164 ; 5878100.014284789 ; 2.0125274437006932E8 ; 1.0217607389861072E9 ; 3.1315247350779842E10 ; 0.0
165 ; 5871160.982816764 ; 2.0125760673275092E8 ; 1.027638839000392E9 ; 3.151650009514991E10 ; 0.0
166 ; 5860166.021532627 ; 2.01262453875601E8 ; 1.0335099999832088E9 ; 3.171775770188266E10 ; 0.0
167 ; 5847313.808495961 ; 2.0126728566106278E8 ; 1.0393701660047414E9 ; 3.1919020155758263E10 ; 0.0
168 ; 5839913.799283816 ; 2.0127210195291412E8 ; 1.0452174798132374E9 ; 3.2120287441419327E10 ; 0.0
169 ; 5828714.310834717 ; 2.0127690261624053E8 ; 1.0510573936125213E9 ; 3.2321559543372242E10 ; 0.0
170 ; 5816449.768879155 ; 2.012816875174093E8 ; 1.056886107923356E9 ; 3.2522836445988483E10 ; 0.0
171 ; 5802994.914995291 ; 2.012864565240446E8 ; 1.0627025576922352E9 ; 3.2724118133505894E10 ; 0.0
172 ; 5793931.21479586 ; 2.0129120950500345E8 ; 1.0685055526072305E9 ; 3.2925404590029938E10 ; 0.0
173 ; 5785637.542038994 ; 2.0129594633035237E8 ; 1.0742994838220265E9 ; 3.3126695799534943E10 ; 0.0
174 ; 5778611.729654915 ; 2.0130066687134522E8 ; 1.0800851213640654E9 ; 3.3327991745865295E10 ; 0.0
175 ; 5768745.354622425 ; 2.013053710004014E8 ; 1.0858637330937204E9 ; 3.352929241273664E10 ; 0.0
176 ; 5758733.878922022 ; 2.0131005859108517E8 ; 1.0916324784483428E9 ; 3.373059778373704E10 ; 0.0
177 ; 5753998.48839689 ; 2.0131472951808548E8 ; 1.0973912123272648E9 ; 3.3931907842328125E10 ; 0.0
178 ; 5744536.191878228 ; 2.0131938365719658E8 ; 1.1031452108156617E9 ; 3.413322257184621E10 ; 0.0
179 ; 5734623.36342496 ; 2.0132402088529935E8 ; 1.10888974700754E9 ; 3.4334541955503407E10 ; 0.0
180 ; 5725258.036156065 ; 2.013286410803432E8 ; 1.114624370370965E9 ; 3.45358659763887E10 ; 0.0
181 ; 5719325.250471275 ; 2.0133324412132856E8 ; 1.1203496284071212E9 ; 3.473719461746905E10 ; 0.0
182 ; 5713800.688815575 ; 2.0133782988829032E8 ; 1.1260689536575925E9 ; 3.493852786159038E10 ; 0.0
183 ; 5702458.198719018 ; 2.0134239826228124E8 ; 1.1317827543464081E9 ; 3.513986569147867E10 ; 0.0
184 ; 5698208.557535399 ; 2.0134694912535653E8 ; 1.1374852125451272E9 ; 3.534120808974095E10 ; 0.0
185 ; 5688029.224061512 ; 2.013514823605585E8 ; 1.1431834211026626E9 ; 3.554255503886631E10 ; 0.0
186 ; 5678219.773721658 ; 2.0135599785190222E8 ; 1.148871450326724E9 ; 3.574390652122687E10 ; 0.0
187 ; 5668521.491816169 ; 2.0136049548436105E8 ; 1.1545496701004457E9 ; 3.594526251907877E10 ; 0.0
188 ; 5663429.802858165 ; 2.013649751438533E8 ; 1.160218191592262E9 ; 3.614662301456313E10 ; 0.0
189 ; 5650319.625857525 ; 2.0136943671722886E8 ; 1.1658816213951201E9 ; 3.6347987989706985E10 ; 0.0
190 ; 5649945.35301812 ; 2.0137388009225667E8 ; 1.1715319410209777E9 ; 3.654935742642422E10 ; 0.0
191 ; 5634669.804142252 ; 2.013783051576122E8 ; 1.1771818863739958E9 ; 3.675073130651647E10 ; 0.0
192 ; 5625372.65156247 ; 2.0138271180286583E8 ; 1.182816556178138E9 ; 3.695210961167409E10 ; 0.0
193 ; 5625291.749222901 ; 2.0138709991847122E8 ; 1.1884419288297005E9 ; 3.715349232347695E10 ; 0.0
194 ; 5612660.150409037 ; 2.0139146939575428E8 ; 1.1940672205789235E9 ; 3.7354879423395424E10 ; 0.0
195 ; 5607934.202116376 ; 2.013958201269025E8 ; 1.1996798807293324E9 ; 3.7556270892791176E10 ; 0.0
196 ; 5595456.404098509 ; 2.0140015200495455E8 ; 1.205287814931449E9 ; 3.7757666712918076E10 ; 0.0
197 ; 5590074.673346654 ; 2.0140446492379043E8 ; 1.2108832713355474E9 ; 3.795906686492303E10 ; 0.0
198 ; 5577627.454762288 ; 2.0140875877812156E8 ; 1.2164733460088942E9 ; 3.816047132984682E10 ; 0.0
199 ; 5571486.714300397 ; 2.0141303346348178E8 ; 1.2220509734636564E9 ; 3.836188008862494E10 ; 0.0
200 ; 5562195.684733577 ; 2.014172888762181E8 ; 1.2276224601779568E9 ; 3.856329312208842E10 ; 0.0
201 ; 5555182.249419639 ; 1.954491420586345E8 ; 1.2331846558626904E9 ; 3.876471041096464E10 ; 0.0
