CSV File for the City 6 on Day 266
1 - Minute m 
2 - Power Consumed at minute m 
3 - Power Produced at minute m 
4 - Energy Consumed since the beginning of the day 
5 - Energy Produced since the beginning of the day 
6 - Energy Lost since the beginning of the day on lines starting from the city
 
0 ; 4428130.903116188 ; 1.061187404039292E8 ; 0.0 ; 0.0 ; 0.0
1 ; 4435395.591647098 ; 1.0626963981099313E8 ; 4428130.903116188 ; 1.061187404039292E8 ; 0.0
2 ; 4447442.654784891 ; 1.0672953022057638E8 ; 8863526.494763285 ; 2.1238838021492234E8 ; 0.0
3 ; 4457030.946091908 ; 1.0749841526074845E8 ; 1.3310969149548177E7 ; 3.191179104354987E8 ; 0.0
4 ; 4466648.708530309 ; 1.0857629818185562E8 ; 1.7768000095640086E7 ; 4.2661632569624716E8 ; 0.0
5 ; 4485162.538192612 ; 1.0996318183886844E8 ; 2.2234648804170392E7 ; 5.351926238781028E8 ; 0.0
6 ; 4506790.702652442 ; 1.1165906867558572E8 ; 2.6719811342363004E7 ; 6.451558057169712E8 ; 0.0
7 ; 4542427.914827135 ; 1.1366396071089679E8 ; 3.1226602045015447E7 ; 7.568148743925569E8 ; 0.0
8 ; 4595435.256284916 ; 1.1597785952728087E8 ; 3.5769029959842585E7 ; 8.704788351034536E8 ; 0.0
9 ; 4668168.737712273 ; 1.186007662616967E8 ; 4.03644652161275E7 ; 9.864566946307344E8 ; 0.0
10 ; 4790425.149948243 ; 1.2153268159898424E8 ; 4.503263395383977E7 ; 1.1050574608924313E9 ; 0.0
11 ; 4983736.018587213 ; 1.2477360576786956E8 ; 4.982305910378802E7 ; 1.2265901424914155E9 ; 0.0
12 ; 5295939.853133911 ; 1.2832353853962657E8 ; 5.4806795122375235E7 ; 1.351363748259285E9 ; 0.0
13 ; 5600322.789719164 ; 1.321824792294153E8 ; 6.0102734975509144E7 ; 1.4796872867989116E9 ; 0.0
14 ; 5629045.1817296175 ; 1.363504267002771E8 ; 6.570305776522831E7 ; 1.611869766028327E9 ; 0.0
15 ; 5641502.594205564 ; 1.4082737936973262E8 ; 7.133210294695793E7 ; 1.748220192728604E9 ; 0.0
16 ; 5658312.609737488 ; 1.4561333521889266E8 ; 7.697360554116349E7 ; 1.8890475720983367E9 ; 0.0
17 ; 5667414.948424901 ; 1.5070829180395833E8 ; 8.263191815090097E7 ; 2.0346609073172293E9 ; 0.0
18 ; 5678890.936427915 ; 1.561122462699591E8 ; 8.829933309932588E7 ; 2.1853691991211877E9 ; 0.0
19 ; 5687866.865924329 ; 1.618251953665487E8 ; 9.39782240357538E7 ; 2.3414814453911467E9 ; 0.0
20 ; 5700846.132384142 ; 1.6784713546565756E8 ; 9.966609090167813E7 ; 2.503306640757695E9 ; 0.0
21 ; 5713354.739535883 ; 1.741780625807843E8 ; 1.0536693703406227E8 ; 2.671153776223353E9 ; 0.0
22 ; 5725388.011695863 ; 1.8081797238769227E8 ; 1.1108029177359815E8 ; 2.845331838804137E9 ; 0.0
23 ; 5734702.579840626 ; 1.8776686024627328E8 ; 1.1680567978529401E8 ; 3.0261498111918297E9 ; 0.0
24 ; 5745293.61994887 ; 1.9502472122333294E8 ; 1.2254038236513464E8 ; 3.2139166714381027E9 ; 0.0
25 ; 5760053.794157871 ; 2.012795910142403E8 ; 1.282856759850835E8 ; 3.4089413926614356E9 ; 0.0
26 ; 5773074.618347833 ; 2.0128501200373158E8 ; 1.3404572977924138E8 ; 3.610220983675676E9 ; 0.0
27 ; 5787504.259326211 ; 2.0129074781493568E8 ; 1.398188043975892E8 ; 3.8115059956794076E9 ; 0.0
28 ; 5794499.969427889 ; 2.0129679258026618E8 ; 1.4560630865691543E8 ; 4.0127967434943433E9 ; 0.0
29 ; 5804908.497510216 ; 2.0130314025858197E8 ; 1.514008086263433E8 ; 4.2140935360746093E9 ; 0.0
30 ; 5815987.296475489 ; 2.0130978465871406E8 ; 1.5720571712385353E8 ; 4.415396676333191E9 ; 0.0
31 ; 5828940.378974514 ; 2.0131671946243757E8 ; 1.6302170442032903E8 ; 4.616706460991905E9 ; 0.0
32 ; 5839027.520612406 ; 2.0132393824674225E8 ; 1.6885064479930356E8 ; 4.818023180454343E9 ; 0.0
33 ; 5847247.236345697 ; 2.0133143450527567E8 ; 1.7468967231991598E8 ; 5.019347118701085E9 ; 0.0
34 ; 5856722.298640364 ; 2.013392016688523E8 ; 1.805369195562617E8 ; 5.220678553206361E9 ; 0.0
35 ; 5864914.715811695 ; 2.013472331249429E8 ; 1.8639364185490206E8 ; 5.422017754875213E9 ; 0.0
36 ; 5872796.976404872 ; 2.013555222360762E8 ; 1.9225855657071376E8 ; 5.623364988000155E9 ; 0.0
37 ; 5883974.479158233 ; 2.0136406235710433E8 ; 1.9813135354711863E8 ; 5.824720510236232E9 ; 0.0
38 ; 5891792.187446783 ; 2.0137284685129938E8 ; 2.0401532802627686E8 ; 6.026084572593336E9 ; 0.0
39 ; 5902826.82012635 ; 2.0138186910526454E8 ; 2.0990712021372363E8 ; 6.227457419444635E9 ; 0.0
40 ; 5905360.343909676 ; 2.013911225426568E8 ; 2.1580994703384998E8 ; 6.4288392885499E9 ; 0.0
41 ; 5915259.864336863 ; 2.0140060063673073E8 ; 2.2171530737775967E8 ; 6.630230411092557E9 ; 0.0
42 ; 5920372.433733374 ; 2.014102969217236E8 ; 2.2763056724209654E8 ; 6.831631011729288E9 ; 0.0
43 ; 5927277.773472594 ; 2.0142020500311157E8 ; 2.3355093967582992E8 ; 7.033041308651011E9 ; 0.0
44 ; 5933187.1707744915 ; 2.0143031856677392E8 ; 2.3947821744930252E8 ; 7.234461513654123E9 ; 0.0
45 ; 5938451.916712132 ; 2.014406313871088E8 ; 2.45411404620077E8 ; 7.435891832220898E9 ; 0.0
46 ; 5942839.361748771 ; 2.0145113733414915E8 ; 2.5134985653678915E8 ; 7.6373324636080065E9 ; 0.0
47 ; 5948539.45043441 ; 2.014618303797304E8 ; 2.5729269589853793E8 ; 7.838783600942156E9 ; 0.0
48 ; 5948208.695451934 ; 2.0147270460276523E8 ; 2.6324123534897235E8 ; 8.040245431321886E9 ; 0.0
49 ; 5951887.963278999 ; 2.0148375419368094E8 ; 2.691894440444243E8 ; 8.241718135924651E9 ; 0.0
50 ; 5952708.159330488 ; 2.01494973458077E8 ; 2.751413320077033E8 ; 8.443201890118332E9 ; 0.0
51 ; 5957641.982840372 ; 2.0150635681965932E8 ; 2.810940401670338E8 ; 8.644696863576408E9 ; 0.0
52 ; 5959532.798054414 ; 2.0151789882250753E8 ; 2.8705168214987415E8 ; 8.846203220396069E9 ; 0.0
53 ; 5962373.305159578 ; 2.0152959413273036E8 ; 2.9301121494792855E8 ; 9.047721119218576E9 ; 0.0
54 ; 5963886.742992937 ; 2.015414375395624E8 ; 2.989735882530881E8 ; 9.249250713351307E9 ; 0.0
55 ; 5962294.25242751 ; 2.0155342395595372E8 ; 3.0493747499608105E8 ; 9.45079215089087E9 ; 0.0
56 ; 5964797.87118048 ; 2.015655484187012E8 ; 3.108997692485086E8 ; 9.652345574846823E9 ; 0.0
57 ; 5963394.632418278 ; 2.015778060881685E8 ; 3.1686456711968905E8 ; 9.853911123265524E9 ; 0.0
58 ; 5968835.850683587 ; 2.0159019224763837E8 ; 3.228279617521073E8 ; 1.0055488929353693E10 ; 0.0
59 ; 5967620.231470632 ; 2.016027023023391E8 ; 3.287967976027909E8 ; 1.0257079121601332E10 ; 0.0
60 ; 5968377.741835573 ; 2.0161533177818307E8 ; 3.3476441783426154E8 ; 1.0458681823903671E10 ; 0.0
61 ; 5968052.6488274755 ; 2.0162807632025436E8 ; 3.4073279557609713E8 ; 1.0660297155681854E10 ; 0.0
62 ; 5973073.30589357 ; 2.016409316910775E8 ; 3.467008482249246E8 ; 1.086192523200211E10 ; 0.0
63 ; 5971359.492595426 ; 2.016538937686994E8 ; 3.526739215308182E8 ; 1.1063566163693188E10 ; 0.0
64 ; 5970450.289421302 ; 2.0166695854461136E8 ; 3.5864528102341366E8 ; 1.1265220057461887E10 ; 0.0
65 ; 5974246.36142351 ; 2.0168012212153792E8 ; 3.64615731312835E8 ; 1.1466887016006498E10 ; 0.0
66 ; 5974313.330113834 ; 2.016933807111155E8 ; 3.705899776742585E8 ; 1.1668567138128036E10 ; 0.0
67 ; 5973044.8880061535 ; 2.0170673063148248E8 ; 3.765642910043723E8 ; 1.1870260518839151E10 ; 0.0
68 ; 5975765.999509945 ; 2.0172016830479965E8 ; 3.8253733589237845E8 ; 1.2071967249470634E10 ; 0.0
69 ; 5976637.650834894 ; 2.0173369025471857E8 ; 3.885131018918884E8 ; 1.2273687417775434E10 ; 0.0
70 ; 5968983.023007746 ; 2.017472931038135E8 ; 3.944897395427233E8 ; 1.2475421108030153E10 ; 0.0
71 ; 5969806.017590411 ; 2.0176097357099038E8 ; 4.0045872256573105E8 ; 1.2677168401133966E10 ; 0.0
72 ; 5972275.662377058 ; 2.017747284688857E8 ; 4.0642852858332145E8 ; 1.2878929374704956E10 ; 0.0
73 ; 5974311.737290103 ; 2.017885547012656E8 ; 4.124008042456985E8 ; 1.3080704103173841E10 ; 0.0
74 ; 5975282.18769584 ; 2.018024492604354E8 ; 4.183751159829886E8 ; 1.3282492657875107E10 ; 0.0
75 ; 5971452.066278591 ; 2.0181640922466737E8 ; 4.2435039817068446E8 ; 1.3484295107135542E10 ; 0.0
76 ; 5972272.970769998 ; 2.0183043175565448E8 ; 4.3032185023696303E8 ; 1.3686111516360209E10 ; 0.0
77 ; 5967559.304246124 ; 2.0184451409599614E8 ; 4.3629412320773304E8 ; 1.3887941948115864E10 ; 0.0
78 ; 5969500.126003964 ; 2.0185865356672156E8 ; 4.4226168251197916E8 ; 1.408978646221186E10 ; 0.0
79 ; 5964881.500573714 ; 2.0187284756485486E8 ; 4.4823118263798314E8 ; 1.4291645115778582E10 ; 0.0
80 ; 5957949.383441822 ; 2.0188709356102657E8 ; 4.5419606413855684E8 ; 1.4493517963343437E10 ; 0.0
81 ; 5954982.550823736 ; 2.0190138909713373E8 ; 4.6015401352199864E8 ; 1.4695405056904465E10 ; 0.0
82 ; 5952093.242924362 ; 2.0191573178405184E8 ; 4.661089960728224E8 ; 1.4897306446001598E10 ; 0.0
83 ; 5941181.9656192735 ; 2.019301192994004E8 ; 4.720610893157468E8 ; 1.509922217778565E10 ; 0.0
84 ; 5940252.919192564 ; 2.019445493853638E8 ; 4.7800227128136605E8 ; 1.530115229708505E10 ; 0.0
85 ; 5933042.497114401 ; 2.019590198465683E8 ; 4.839425242005586E8 ; 1.5503096846470415E10 ; 0.0
86 ; 5929557.923771494 ; 2.019735285480165E8 ; 4.89875566697673E8 ; 1.5705055866316984E10 ; 0.0
87 ; 5928431.230149223 ; 2.019880734130791E8 ; 4.958051246214445E8 ; 1.5907029394865E10 ; 0.0
88 ; 5921318.745881165 ; 2.0200265242154458E8 ; 5.0173355585159373E8 ; 1.6109017468278078E10 ; 0.0
89 ; 5913048.075451198 ; 2.0201726360772628E8 ; 5.076548745974749E8 ; 1.6311020120699623E10 ; 0.0
90 ; 5907232.177574813 ; 2.0203190505862695E8 ; 5.1356792267292607E8 ; 1.651303738430735E10 ; 0.0
91 ; 5905070.186311208 ; 2.0204657491216022E8 ; 5.194751548505009E8 ; 1.6715069289365976E10 ; 0.0
92 ; 5896561.535966226 ; 2.020612713554278E8 ; 5.2538022503681207E8 ; 1.6917115864278137E10 ; 0.0
93 ; 5891384.905916663 ; 2.020759926230524E8 ; 5.312767865727783E8 ; 1.7119177135633566E10 ; 0.0
94 ; 5887311.973817169 ; 2.0209073699556473E8 ; 5.371681714786949E8 ; 1.732125312825662E10 ; 0.0
95 ; 5881482.734450512 ; 2.0210550279784417E8 ; 5.43055483452512E8 ; 1.7523343865252182E10 ; 0.0
96 ; 5872515.576750565 ; 2.0212028839761144E8 ; 5.489369661869625E8 ; 1.7725449368050026E10 ; 0.0
97 ; 5871978.177852545 ; 2.021350922039724E8 ; 5.54809481763713E8 ; 1.7927569656447636E10 ; 0.0
98 ; 5862433.0448983 ; 2.02149912666012E8 ; 5.606814599415655E8 ; 1.8129704748651608E10 ; 0.0
99 ; 5854825.851776317 ; 2.0216474827143645E8 ; 5.665438929864638E8 ; 1.833185466131762E10 ; 0.0
100 ; 5852603.538649263 ; 2.0217959754526302E8 ; 5.723987188382401E8 ; 1.8534019409589054E10 ; 0.0
101 ; 5843318.733776495 ; 2.021944590485558E8 ; 5.782513223768895E8 ; 1.8736199007134315E10 ; 0.0
102 ; 5837215.170048408 ; 2.02209331377206E8 ; 5.840946411106659E8 ; 1.8938393466182873E10 ; 0.0
103 ; 5833801.282112087 ; 2.0222421316075605E8 ; 5.899318562807143E8 ; 1.9140602797560078E10 ; 0.0
104 ; 5822891.63721286 ; 2.0223910306126523E8 ; 5.957656575628264E8 ; 1.9342827010720833E10 ; 0.0
105 ; 5818353.289304921 ; 2.0225399977221653E8 ; 6.015885492000393E8 ; 1.9545066113782097E10 ; 0.0
106 ; 5805141.474458228 ; 2.0226890201746276E8 ; 6.074069024893442E8 ; 1.9747320113554314E10 ; 0.0
107 ; 5803766.777472386 ; 2.0228380855021074E8 ; 6.132120439638025E8 ; 1.9949589015571777E10 ; 0.0
108 ; 5797164.222289763 ; 2.0229871815204275E8 ; 6.190158107412748E8 ; 2.0151872824121986E10 ; 0.0
109 ; 5789444.138919947 ; 2.0231362963197324E8 ; 6.248129749635646E8 ; 2.035417154227403E10 ; 0.0
110 ; 5780248.759917284 ; 2.0232854182554024E8 ; 6.306024191024846E8 ; 2.0556485171906002E10 ; 0.0
111 ; 5773666.700859368 ; 2.023434535939301E8 ; 6.363826678624018E8 ; 2.075881371373154E10 ; 0.0
112 ; 5766680.9015624765 ; 2.02358363823134E8 ; 6.421563345632613E8 ; 2.096115716732547E10 ; 0.0
113 ; 5757697.276046917 ; 2.0237327142313588E8 ; 6.479230154648237E8 ; 2.1163515531148605E10 ; 0.0
114 ; 5748173.783273372 ; 2.0238817532712966E8 ; 6.536807127408706E8 ; 2.1365888802571743E10 ; 0.0
115 ; 5744307.324736802 ; 2.0240307449076587E8 ; 6.594288865241439E8 ; 2.1568276977898872E10 ; 0.0
116 ; 5736303.272718043 ; 2.0241796789142555E8 ; 6.651731938488808E8 ; 2.1770680052389637E10 ; 0.0
117 ; 5728231.583188447 ; 2.0243285452752098E8 ; 6.709094971215988E8 ; 2.1973098020281063E10 ; 0.0
118 ; 5720433.700288476 ; 2.024477334178223E8 ; 6.766377287047873E8 ; 2.2175530874808582E10 ; 0.0
119 ; 5711434.344325908 ; 2.0246260360080874E8 ; 6.823581624050758E8 ; 2.2377978608226406E10 ; 0.0
120 ; 5705063.223344124 ; 2.0247746413404375E8 ; 6.880695967494017E8 ; 2.2580441211827213E10 ; 0.0
121 ; 5697954.639088137 ; 2.0249231409357327E8 ; 6.937746599727458E8 ; 2.2782918675961258E10 ; 0.0
122 ; 5686661.597352833 ; 2.0250715257334575E8 ; 6.994726146118339E8 ; 2.2985410990054832E10 ; 0.0
123 ; 5682498.96667806 ; 2.025219786846539E8 ; 7.051592762091868E8 ; 2.3187918142628178E10 ; 0.0
124 ; 5670861.543458421 ; 2.0253679155559653E8 ; 7.108417751758648E8 ; 2.339044012131283E10 ; 0.0
125 ; 5662027.731297966 ; 2.025515903305603E8 ; 7.165126367193233E8 ; 2.3592976912868427E10 ; 0.0
126 ; 5650824.15226792 ; 2.0256637416972038E8 ; 7.221746644506212E8 ; 2.3795528503198986E10 ; 0.0
127 ; 5642321.433423006 ; 2.0258114224855933E8 ; 7.278254886028892E8 ; 2.3998094877368706E10 ; 0.0
128 ; 5633798.283214795 ; 2.0259589375740355E8 ; 7.334678100363122E8 ; 2.4200676019617264E10 ; 0.0
129 ; 5624378.865394947 ; 2.0261062790097654E8 ; 7.39101608319527E8 ; 2.440327191337467E10 ; 0.0
130 ; 5614569.83926125 ; 2.0262534389796838E8 ; 7.44725987184922E8 ; 2.4605882541275646E10 ; 0.0
131 ; 5601125.558706784 ; 2.0264004098062104E8 ; 7.503405570241833E8 ; 2.4808507885173615E10 ; 0.0
132 ; 5584946.179300647 ; 2.0265471839432833E8 ; 7.5594168258289E8 ; 2.5011147926154236E10 ; 0.0
133 ; 5574227.91586709 ; 2.0266937539725062E8 ; 7.615266287621907E8 ; 2.5213802644548565E10 ; 0.0
134 ; 5563778.87962203 ; 2.026840112599433E8 ; 7.671008566780578E8 ; 2.5416472019945816E10 ; 0.0
135 ; 5549254.532028307 ; 2.026986252649986E8 ; 7.726646355576798E8 ; 2.561915603120576E10 ; 0.0
136 ; 5533869.830336543 ; 2.0271321670670033E8 ; 7.782138900897081E8 ; 2.582185465647076E10 ; 0.0
137 ; 5522146.43389332 ; 2.027277848906907E8 ; 7.837477599200447E8 ; 2.602456787317746E10 ; 0.0
138 ; 5506230.327878253 ; 2.0274232913364974E8 ; 7.89269906353938E8 ; 2.622729565806815E10 ; 0.0
139 ; 5490931.557262612 ; 2.0275684876298508E8 ; 7.947761366818162E8 ; 2.6430037987201797E10 ; 0.0
140 ; 5478567.572916899 ; 2.0277134311653388E8 ; 8.002670682390789E8 ; 2.6632794835964783E10 ; 0.0
141 ; 5465570.156733171 ; 2.0278581154227433E8 ; 8.057456358119957E8 ; 2.6835566179081318E10 ; 0.0
142 ; 5451888.281162677 ; 2.028002533980481E8 ; 8.112112059687289E8 ; 2.7038351990623592E10 ; 0.0
143 ; 5437883.88101911 ; 2.0281466805129215E8 ; 8.166630942498915E8 ; 2.724115224402164E10 ; 0.0
144 ; 5422546.1829465665 ; 2.028290548787801E8 ; 8.221009781309106E8 ; 2.7443966912072933E10 ; 0.0
145 ; 5415448.304304473 ; 2.0284341326637268E8 ; 8.275235243138572E8 ; 2.7646795966951714E10 ; 0.0
146 ; 5407012.769608183 ; 2.0285774260877684E8 ; 8.329389726181617E8 ; 2.7849639380218086E10 ; 0.0
147 ; 5395495.004248544 ; 2.0287204230931342E8 ; 8.383459853877698E8 ; 2.8052497122826862E10 ; 0.0
148 ; 5385620.102105334 ; 2.0288631177969268E8 ; 8.437414803920183E8 ; 2.8255369165136177E10 ; 0.0
149 ; 5376552.894909472 ; 2.0290055043979776E8 ; 8.491271004941237E8 ; 2.845825547691587E10 ; 0.0
150 ; 5364518.527549048 ; 2.0291475771747565E8 ; 8.545036533890332E8 ; 2.8661156027355667E10 ; 0.0
151 ; 5356022.461675654 ; 2.029289330483352E8 ; 8.598681719165822E8 ; 2.8864070785073143E10 ; 0.0
152 ; 5349840.345308984 ; 2.0294307587555233E8 ; 8.652241943782579E8 ; 2.906699971812148E10 ; 0.0
153 ; 5339488.272124868 ; 2.029571856496817E8 ; 8.705740347235669E8 ; 2.9269942793997032E10 ; 0.0
154 ; 5328842.762474503 ; 2.0297126182847485E8 ; 8.759135229956918E8 ; 2.9472899979646713E10 ; 0.0
155 ; 5321932.35027749 ; 2.0298530387670478E8 ; 8.812423657581663E8 ; 2.967587124147519E10 ; 0.0
156 ; 5311942.385146709 ; 2.029993112659961E8 ; 8.865642981084439E8 ; 2.9878856545351894E10 ; 0.0
157 ; 5300093.059293849 ; 2.030132834746613E8 ; 8.918762404935906E8 ; 3.008185585661789E10 ; 0.0
158 ; 5289348.510342553 ; 2.0302721998754224E8 ; 8.971763335528845E8 ; 3.0284869140092552E10 ; 0.0
159 ; 5282224.796641007 ; 2.030411202958574E8 ; 9.02465682063227E8 ; 3.0487896360080093E10 ; 0.0
160 ; 5272629.26806225 ; 2.0305498389705375E8 ; 9.07747906859868E8 ; 3.069093748037595E10 ; 0.0
161 ; 5262563.094212984 ; 2.0306881029466397E8 ; 9.130205361279303E8 ; 3.0893992464273003E10 ; 0.0
162 ; 5250642.939410585 ; 2.0308259899816835E8 ; 9.182830992221433E8 ; 3.1097061274567665E10 ; 0.0
163 ; 5244183.306582519 ; 2.030963495228612E8 ; 9.235337421615539E8 ; 3.1300143873565834E10 ; 0.0
164 ; 5233419.151119927 ; 2.0311006138972184E8 ; 9.287779254681364E8 ; 3.1503240223088696E10 ; 0.0
165 ; 5222638.311678243 ; 2.031237341252896E8 ; 9.340113446192564E8 ; 3.1706350284478416E10 ; 0.0
166 ; 5212270.040389463 ; 2.0313736726154336E8 ; 9.392339829309347E8 ; 3.1909474018603706E10 ; 0.0
167 ; 5201471.360670772 ; 2.0315096033578482E8 ; 9.444462529713241E8 ; 3.211261138586525E10 ; 0.0
168 ; 5190386.400956732 ; 2.0316451289052546E8 ; 9.496477243319949E8 ; 3.2315762346201035E10 ; 0.0
169 ; 5186658.906016889 ; 2.0317802447337753E8 ; 9.548381107329516E8 ; 3.251892685909156E10 ; 0.0
170 ; 5171708.602722855 ; 2.0319149463694838E8 ; 9.600247696389686E8 ; 3.2722104883564938E10 ; 0.0
171 ; 5162522.371382304 ; 2.032049229387383E8 ; 9.651964782416915E8 ; 3.2925296378201885E10 ; 0.0
172 ; 5154758.120990032 ; 2.032183089410417E8 ; 9.703590006130738E8 ; 3.3128501301140625E10 ; 0.0
173 ; 5142732.125310742 ; 2.0323165221085152E8 ; 9.755137587340639E8 ; 3.3331719610081665E10 ; 0.0
174 ; 5135183.481301105 ; 2.0324495231976664E8 ; 9.806564908593746E8 ; 3.3534951262292515E10 ; 0.0
175 ; 5128920.792824624 ; 2.0325820884390226E8 ; 9.857916743406757E8 ; 3.373819621461228E10 ; 0.0
176 ; 5120801.20524812 ; 2.0327142136380336E8 ; 9.909205951335003E8 ; 3.3941454423456184E10 ; 0.0
177 ; 5115581.299216807 ; 2.0328458946436074E8 ; 9.960413963387485E8 ; 3.414472584481999E10 ; 0.0
178 ; 5104947.775919678 ; 2.032977127347298E8 ; 1.0011569776379652E9 ; 3.4348010434284348E10 ; 0.0
179 ; 5097457.367156536 ; 2.0331079076825196E8 ; 1.0062619254138849E9 ; 3.455130814701908E10 ; 0.0
180 ; 5087645.50881757 ; 2.033238231623785E8 ; 1.0113593827810414E9 ; 3.475461893778733E10 ; 0.0
181 ; 5078617.088368792 ; 2.0333680951859692E8 ; 1.0164470282898589E9 ; 3.495794276094971E10 ; 0.0
182 ; 5076012.183246825 ; 2.0334974944235957E8 ; 1.0215256453782277E9 ; 3.516127957046831E10 ; 0.0
183 ; 5067578.004540205 ; 2.0336264254301453E8 ; 1.0266016575614746E9 ; 3.536462931991067E10 ; 0.0
184 ; 5056217.210413112 ; 2.0337548843373874E8 ; 1.0316692355660148E9 ; 3.556799196245368E10 ; 0.0
185 ; 5049125.236838625 ; 2.0338828673147303E8 ; 1.0367254527764279E9 ; 3.577136745088742E10 ; 0.0
186 ; 5042059.7150057405 ; 2.0340103705685955E8 ; 1.0417745780132664E9 ; 3.59747557376189E10 ; 0.0
187 ; 5034852.167471983 ; 2.0341373903418085E8 ; 1.0468166377282722E9 ; 3.617815677467576E10 ; 0.0
188 ; 5028449.580589089 ; 2.0342639229130092E8 ; 1.0518514898957442E9 ; 3.638157051370994E10 ; 0.0
189 ; 5018256.300155869 ; 2.0343899645960823E8 ; 1.0568799394763333E9 ; 3.6584996906001236E10 ; 0.0
190 ; 5009220.128824752 ; 2.0345155117396027E8 ; 1.0618981957764891E9 ; 3.6788435902460846E10 ; 0.0
191 ; 5000111.566588478 ; 2.0346405607263014E8 ; 1.0669074159053138E9 ; 3.69918874536348E10 ; 0.0
192 ; 4994034.397419403 ; 2.0347651079725453E8 ; 1.0719075274719024E9 ; 3.7195351509707436E10 ; 0.0
193 ; 4989271.969702015 ; 2.0348891499278346E8 ; 1.0769015618693218E9 ; 3.739882802050469E10 ; 0.0
194 ; 4978284.726519296 ; 2.0350126830743134E8 ; 1.0818908338390238E9 ; 3.7602316935497475E10 ; 0.0
195 ; 4971985.4510579435 ; 2.0351357039263E8 ; 1.0868691185655432E9 ; 3.780581820380491E10 ; 0.0
196 ; 4965701.405183098 ; 2.0352582090298265E8 ; 1.091841104016601E9 ; 3.800933177419754E10 ; 0.0
197 ; 4958481.8551343195 ; 2.0353801949621958E8 ; 1.0968068054217842E9 ; 3.8212857595100525E10 ; 0.0
198 ; 4947200.644701916 ; 2.03550165833155E8 ; 1.1017652872769184E9 ; 3.841639561459674E10 ; 0.0
199 ; 4941029.891781266 ; 2.035622595776455E8 ; 1.1067124879216204E9 ; 3.861994578042989E10 ; 0.0
200 ; 4935536.889599095 ; 1.847172752405043E8 ; 1.1116535178134017E9 ; 3.882350804000754E10 ; 0.0
201 ; 4926544.834145675 ; 1.5474629474083188E8 ; 1.1165890547030008E9 ; 3.900822531524804E10 ; 0.0
