CSV File for the City 2 on Day 344
1 - Minute m 
2 - Power Consumed at minute m 
3 - Power Produced at minute m 
4 - Energy Consumed since the beginning of the day 
5 - Energy Produced since the beginning of the day 
6 - Energy Lost since the beginning of the day on lines starting from the city
 
0 ; 1788307.4333788306 ; 1.0527438378392974E8 ; 0.0 ; 0.0 ; 0.0
1 ; 1790182.0629729212 ; 1.0542836390441781E8 ; 1788307.4333788306 ; 1.0527438378392974E8 ; 0.0
2 ; 1793297.6432047824 ; 1.0589102093469456E8 ; 3578489.4963517515 ; 2.1070274768834755E8 ; 0.0
3 ; 1794634.8307069691 ; 1.0666235518410361E8 ; 5371787.139556534 ; 3.165937686230421E8 ; 0.0
4 ; 1797693.88423402 ; 1.0774236692911899E8 ; 7166421.970263503 ; 4.232561238071457E8 ; 0.0
5 ; 1801355.9177581533 ; 1.0913105641206998E8 ; 8964115.854497522 ; 5.309984907362647E8 ; 0.0
6 ; 1805695.7180869381 ; 1.108284238400056E8 ; 1.0765471772255676E7 ; 6.401295471483347E8 ; 0.0
7 ; 1811874.6558404393 ; 1.1283446938371152E8 ; 1.2571167490342613E7 ; 7.509579709883404E8 ; 0.0
8 ; 1821810.7251650414 ; 1.151491931768896E8 ; 1.4383042146183053E7 ; 8.63792440372052E8 ; 0.0
9 ; 1834773.0602613473 ; 1.1777259531551063E8 ; 1.6204852871348094E7 ; 9.789416335489416E8 ; 0.0
10 ; 1857179.4110627098 ; 1.2070467585734576E8 ; 1.803962593160944E7 ; 1.0967142288644524E9 ; 0.0
11 ; 1889625.406306479 ; 1.239454348216835E8 ; 1.989680534267215E7 ; 1.2174189047217982E9 ; 0.0
12 ; 1943129.2051469495 ; 1.274948721892353E8 ; 2.178643074897863E7 ; 1.3413643395434816E9 ; 0.0
13 ; 1995923.806111126 ; 1.3135298790223002E8 ; 2.372955995412558E7 ; 1.4688592117327168E9 ; 0.0
14 ; 2003379.9351606518 ; 1.3551978186469698E8 ; 2.5725483760236707E7 ; 1.6002121996349468E9 ; 0.0
15 ; 2005929.758685472 ; 1.3999525394293416E8 ; 2.772886369539736E7 ; 1.7357319814996438E9 ; 0.0
16 ; 2007615.9159276546 ; 1.4477940396615604E8 ; 2.973479345408283E7 ; 1.8757272354425778E9 ; 0.0
17 ; 2010719.0706933814 ; 1.498722317273135E8 ; 3.1742409370010488E7 ; 2.0205066394087338E9 ; 0.0
18 ; 2013071.5781401885 ; 1.5527373698407727E8 ; 3.375312844070387E7 ; 2.1703788711360474E9 ; 0.0
19 ; 2014224.0939806532 ; 1.6098391945997337E8 ; 3.576620001884406E7 ; 2.325652608120125E9 ; 0.0
20 ; 2018306.7838424467 ; 1.670027788456581E8 ; 3.7780424112824716E7 ; 2.486636527580098E9 ; 0.0
21 ; 2020130.3761092243 ; 1.7333031480032012E8 ; 3.979873089666716E7 ; 2.6536393064257565E9 ; 0.0
22 ; 2022381.2740194278 ; 1.7996652695319366E8 ; 4.181886127277639E7 ; 2.8269696212260766E9 ; 0.0
23 ; 2025028.1631695912 ; 1.8691141490516907E8 ; 4.3841242546795815E7 ; 3.0069361481792703E9 ; 0.0
24 ; 2026174.420472892 ; 1.941649782304836E8 ; 4.586627070996541E7 ; 3.1938475630844393E9 ; 0.0
25 ; 2029724.4681703965 ; 2.0041525737666163E8 ; 4.78924451304383E7 ; 3.388012541314923E9 ; 0.0
26 ; 2031799.6716357835 ; 2.004157997032163E8 ; 4.9922169598608695E7 ; 3.5884277986915846E9 ; 0.0
27 ; 2034304.9555486278 ; 2.0041637400839263E8 ; 5.195396927024448E7 ; 3.788843598394801E9 ; 0.0
28 ; 2039035.902898485 ; 2.0041697977779862E8 ; 5.398827422579311E7 ; 3.989259972403194E9 ; 0.0
29 ; 2040347.991506364 ; 2.0041761647951427E8 ; 5.602731012869159E7 ; 4.1896769521809926E9 ; 0.0
30 ; 2041608.8744183532 ; 2.0041828356594628E8 ; 5.806765812019795E7 ; 4.390094568660507E9 ; 0.0
31 ; 2045194.3230341193 ; 2.0041898047566184E8 ; 6.010926699461631E7 ; 4.590512852226454E9 ; 0.0
32 ; 2045698.7307970924 ; 2.004197066351896E8 ; 6.215446131765043E7 ; 4.790931832702116E9 ; 0.0
33 ; 2047444.288915388 ; 2.004204614607777E8 ; 6.420016004844752E7 ; 4.991351539337306E9 ; 0.0
34 ; 2050736.058900642 ; 2.0042124436009982E8 ; 6.624760433736291E7 ; 5.191772000798083E9 ; 0.0
35 ; 2053443.7181218679 ; 2.0042205473390105E8 ; 6.829834039626355E7 ; 5.392193245158183E9 ; 0.0
36 ; 2054280.3131328668 ; 2.0042289197757745E8 ; 7.035178411438543E7 ; 5.592615299892084E9 ; 0.0
37 ; 2056859.9689419589 ; 2.004237554826829E8 ; 7.24060644275183E7 ; 5.793038191869661E9 ; 0.0
38 ; 2058588.0305871605 ; 2.004246446383598E8 ; 7.446292439646025E7 ; 5.9934619473523445E9 ; 0.0
39 ; 2060960.8907929142 ; 2.0042555883268967E8 ; 7.652151242704742E7 ; 6.193886591990705E9 ; 0.0
40 ; 2061923.5471412616 ; 2.004264974539612E8 ; 7.858247331784034E7 ; 6.394312150823394E9 ; 0.0
41 ; 2063273.5842634528 ; 2.004274598918554E8 ; 8.06443968649816E7 ; 6.594738648277355E9 ; 0.0
42 ; 2064641.0074049027 ; 2.0042844553854597E8 ; 8.270767044924507E7 ; 6.79516610816921E9 ; 0.0
43 ; 2068114.1765654497 ; 2.0042945378971636E8 ; 8.477231145664997E7 ; 6.995594553707756E9 ; 0.0
44 ; 2067973.1865246082 ; 2.0043048404549363E8 ; 8.684042563321543E7 ; 7.196024007497473E9 ; 0.0
45 ; 2070035.656671849 ; 2.0043153571130136E8 ; 8.890839881974004E7 ; 7.396454491542967E9 ; 0.0
46 ; 2071381.6263074088 ; 2.0043260819863296E8 ; 9.09784344764119E7 ; 7.596886027254269E9 ; 0.0
47 ; 2071989.107149821 ; 2.0043370092574868E8 ; 9.30498161027193E7 ; 7.797318635452902E9 ; 0.0
48 ; 2073581.1876922047 ; 2.004348133182985E8 ; 9.512180520986913E7 ; 7.997752336378651E9 ; 0.0
49 ; 2074564.167116837 ; 2.004359448098746E8 ; 9.719538639756134E7 ; 8.198187149696949E9 ; 0.0
50 ; 2074732.448014431 ; 2.0043709484249625E8 ; 9.926995056467818E7 ; 8.398623094506824E9 ; 0.0
51 ; 2075622.3060445348 ; 2.0043826286703116E8 ; 1.0134468301269262E8 ; 8.59906018934932E9 ; 0.0
52 ; 2076011.3820441659 ; 2.0043944834355673E8 ; 1.0342030531873715E8 ; 8.79949845221635E9 ; 0.0
53 ; 2077068.2208448967 ; 2.004406507416646E8 ; 1.0549631670078132E8 ; 8.999937900559908E9 ; 0.0
54 ; 2077769.9763242113 ; 2.004418695407126E8 ; 1.0757338492162621E8 ; 9.200378551301573E9 ; 0.0
55 ; 2077828.663321412 ; 2.0044310423002785E8 ; 1.0965115489795043E8 ; 9.400820420842285E9 ; 0.0
56 ; 2077635.6136187755 ; 2.0044435430906397E8 ; 1.1172898356127183E8 ; 9.601263525072313E9 ; 0.0
57 ; 2079469.6860406667 ; 2.0044561928751653E8 ; 1.1380661917489061E8 ; 9.801707879381378E9 ; 0.0
58 ; 2079526.3839831813 ; 2.0044689868540022E8 ; 1.1588608886093128E8 ; 1.0002153498668894E10 ; 0.0
59 ; 2080723.0324975105 ; 2.0044819203309032E8 ; 1.1796561524491446E8 ; 1.0202600397354294E10 ; 0.0
60 ; 2081034.796273634 ; 2.004494988713326E8 ; 1.2004633827741197E8 ; 1.0403048589387384E10 ; 0.0
61 ; 2082223.544244353 ; 2.0045081875122383E8 ; 1.221273730736856E8 ; 1.0603498088258717E10 ; 0.0
62 ; 2082241.232855414 ; 2.004521512341662E8 ; 1.2420959661792995E8 ; 1.0803948907009941E10 ; 0.0
63 ; 2082036.2991376694 ; 2.0045349589179844E8 ; 1.2629183785078536E8 ; 1.1004401058244108E10 ; 0.0
64 ; 2083164.8557664785 ; 2.0045485230590552E8 ; 1.2837387414992303E8 ; 1.1204854554135906E10 ; 0.0
65 ; 2082641.18289554 ; 2.0045622006831035E8 ; 1.304570390056895E8 ; 1.1405309406441813E10 ; 0.0
66 ; 2084248.7405191872 ; 2.004575987807487E8 ; 1.3253968018858504E8 ; 1.1605765626510122E10 ; 0.0
67 ; 2083975.705685704 ; 2.0045898805472997E8 ; 1.3462392892910424E8 ; 1.180622322529087E10 ; 0.0
68 ; 2083896.5393688127 ; 2.0046038751138568E8 ; 1.3670790463478994E8 ; 1.20066822133456E10 ; 0.0
69 ; 2085227.784208958 ; 2.0046179678130707E8 ; 1.3879180117415875E8 ; 1.2207142600856985E10 ; 0.0
70 ; 2084685.5725864577 ; 2.0046321550437412E8 ; 1.408770289583677E8 ; 1.2407604397638292E10 ; 0.0
71 ; 2085508.8955361706 ; 2.0046464332957652E8 ; 1.4296171453095415E8 ; 1.2608067613142666E10 ; 0.0
72 ; 2086323.2712290415 ; 2.0046607991482908E8 ; 1.4504722342649034E8 ; 1.2808532256472242E10 ; 0.0
73 ; 2087377.2128219644 ; 2.0046752492678177E8 ; 1.4713354669771937E8 ; 1.3008998336387072E10 ; 0.0
74 ; 2086740.4577520452 ; 2.004689780406263E8 ; 1.4922092391054133E8 ; 1.3209465861313854E10 ; 0.0
75 ; 2085884.5319328618 ; 2.0047043893989965E8 ; 1.5130766436829337E8 ; 1.340993483935448E10 ; 0.0
76 ; 2086469.910303631 ; 2.004719073162861E8 ; 1.5339354890022624E8 ; 1.361040527829438E10 ; 0.0
77 ; 2086196.2354756778 ; 2.0047338286941785E8 ; 1.5548001881052986E8 ; 1.3810877185610666E10 ; 0.0
78 ; 2086433.625768609 ; 2.0047486530667582E8 ; 1.5756621504600555E8 ; 1.4011350568480083E10 ; 0.0
79 ; 2086046.1895555055 ; 2.0047635434299037E8 ; 1.5965264867177415E8 ; 1.4211825433786758E10 ; 0.0
80 ; 2086216.527886897 ; 2.0047784970064333E8 ; 1.6173869486132964E8 ; 1.441230178812975E10 ; 0.0
81 ; 2084308.076096909 ; 2.004793511090713E8 ; 1.6382491138921654E8 ; 1.4612779637830393E10 ; 0.0
82 ; 2085439.176862564 ; 2.0048085830467102E8 ; 1.6590921946531346E8 ; 1.4813258988939465E10 ; 0.0
83 ; 2084676.702767302 ; 2.0048237103060687E8 ; 1.6799465864217603E8 ; 1.5013739847244135E10 ; 0.0
84 ; 2083726.1813525904 ; 2.0048388903662136E8 ; 1.7007933534494334E8 ; 1.5214222218274742E10 ; 0.0
85 ; 2082858.5442727325 ; 2.0048541207884827E8 ; 1.7216306152629593E8 ; 1.5414706107311363E10 ; 0.0
86 ; 2082600.1006639008 ; 2.0048693991962904E8 ; 1.7424592007056865E8 ; 1.5615191519390211E10 ; 0.0
87 ; 2081289.1376237518 ; 2.004884723273328E8 ; 1.7632852017123255E8 ; 1.581567845930984E10 ; 0.0
88 ; 2081142.0184243321 ; 2.004900090761797E8 ; 1.784098093088563E8 ; 1.6016166931637173E10 ; 0.0
89 ; 2080885.7087032038 ; 2.0049154994606826E8 ; 1.8049095132728064E8 ; 1.6216656940713352E10 ; 0.0
90 ; 2080157.772930999 ; 2.0049309472240624E8 ; 1.8257183703598383E8 ; 1.641714849065942E10 ; 0.0
91 ; 2078570.0392677146 ; 2.0049464319594574E8 ; 1.8465199480891484E8 ; 1.6617641585381826E10 ; 0.0
92 ; 2077711.9079163102 ; 2.0049619516262203E8 ; 1.8673056484818256E8 ; 1.6818136228577772E10 ; 0.0
93 ; 2077595.3231096047 ; 2.004977504233968E8 ; 1.8880827675609887E8 ; 1.7018632423740395E10 ; 0.0
94 ; 2077795.3663445283 ; 2.0049930878410482E8 ; 1.9088587207920846E8 ; 1.721913017416379E10 ; 0.0
95 ; 2077326.5911878522 ; 2.0050087005530548E8 ; 1.92963667445553E8 ; 1.7419629482947895E10 ; 0.0
96 ; 2074606.150399926 ; 2.0050243405213758E8 ; 1.9504099403674087E8 ; 1.76201303530032E10 ; 0.0
97 ; 2074895.944764542 ; 2.0050400059417877E8 ; 1.971156001871408E8 ; 1.782063278705534E10 ; 0.0
98 ; 2073534.7224317263 ; 2.0050556950530863E8 ; 1.9919049613190535E8 ; 1.8021136787649517E10 ; 0.0
99 ; 2072681.8072924167 ; 2.005071406135759E8 ; 2.0126403085433707E8 ; 1.8221642357154827E10 ; 0.0
100 ; 2072201.682645053 ; 2.0050871375106943E8 ; 2.033367126616295E8 ; 1.8422149497768402E10 ; 0.0
101 ; 2070514.9209090988 ; 2.0051028875379318E8 ; 2.0540891434427455E8 ; 1.862265821151947E10 ; 0.0
102 ; 2070465.8396257055 ; 2.0051186546154487E8 ; 2.0747942926518366E8 ; 1.8823168500273262E10 ; 0.0
103 ; 2069638.8610258442 ; 2.0051344371779838E8 ; 2.0954989510480937E8 ; 1.9023680365734806E10 ; 0.0
104 ; 2068465.5489913556 ; 2.005150233695898E8 ; 2.116195339658352E8 ; 1.9224193809452606E10 ; 0.0
105 ; 2067996.1536362797 ; 2.0051660426740712E8 ; 2.1368799951482657E8 ; 1.9424708832822197E10 ; 0.0
106 ; 2067324.243486299 ; 2.0051818626508322E8 ; 2.1575599566846284E8 ; 1.9625225437089603E10 ; 0.0
107 ; 2065895.1413549809 ; 2.0051976921969244E8 ; 2.1782331991194913E8 ; 1.9825743623354687E10 ; 0.0
108 ; 2065115.2714127456 ; 2.005213529914504E8 ; 2.198892150533041E8 ; 2.002626339257438E10 ; 0.0
109 ; 2063584.785936172 ; 2.0052293744361708E8 ; 2.2195433032471687E8 ; 2.022678474556583E10 ; 0.0
110 ; 2061346.1128149468 ; 2.0052452244240296E8 ; 2.2401791511065304E8 ; 2.042730768300945E10 ; 0.0
111 ; 2062026.6095428085 ; 2.0052610785687843E8 ; 2.2607926122346798E8 ; 2.062783220545185E10 ; 0.0
112 ; 2061032.1105152185 ; 2.0052769355888602E8 ; 2.281412878330108E8 ; 2.082835831330873E10 ; 0.0
113 ; 2060501.6883766898 ; 2.0052927942295548E8 ; 2.30202319943526E8 ; 2.102888600686762E10 ; 0.0
114 ; 2057686.1459565153 ; 2.0053086532622185E8 ; 2.322628216319027E8 ; 2.1229415286290573E10 ; 0.0
115 ; 2056304.5140815792 ; 2.0053245114834616E8 ; 2.343205077778592E8 ; 2.1429946151616795E10 ; 0.0
116 ; 2055041.068500354 ; 2.0053403677143872E8 ; 2.3637681229194078E8 ; 2.163047860276514E10 ; 0.0
117 ; 2054348.8588957621 ; 2.0053562207998514E8 ; 2.3843185336044112E8 ; 2.183101263953658E10 ; 0.0
118 ; 2054469.760436494 ; 2.0053720696077466E8 ; 2.4048620221933687E8 ; 2.2031548261616566E10 ; 0.0
119 ; 2052170.507202056 ; 2.00538791302831E8 ; 2.4254067197977337E8 ; 2.223208546857734E10 ; 0.0
120 ; 2051065.8439282714 ; 2.0054037499734554E8 ; 2.4459284248697543E8 ; 2.243262425988017E10 ; 0.0
121 ; 2049154.5826562983 ; 2.0054195793761268E8 ; 2.466439083309037E8 ; 2.2633164634877514E10 ; 0.0
122 ; 2047848.3287768506 ; 2.0054354001896745E8 ; 2.4869306291356E8 ; 2.283370659281513E10 ; 0.0
123 ; 2047554.6891385901 ; 2.0054512113872516E8 ; 2.5074091124233684E8 ; 2.3034250132834095E10 ; 0.0
124 ; 2046155.8089867637 ; 2.005467011961233E8 ; 2.5278846593147543E8 ; 2.323479525397282E10 ; 0.0
125 ; 2044447.433874242 ; 2.0054828009226504E8 ; 2.5483462174046218E8 ; 2.3435341955168945E10 ; 0.0
126 ; 2043798.761994166 ; 2.0054985773006505E8 ; 2.5687906917433643E8 ; 2.363589023526121E10 ; 0.0
127 ; 2041202.0913848588 ; 2.0055143401419687E8 ; 2.589228679363306E8 ; 2.3836440092991276E10 ; 0.0
128 ; 2041019.4378937597 ; 2.0055300885104218E8 ; 2.6096407002771544E8 ; 2.4036991527005474E10 ; 0.0
129 ; 2038188.9351256797 ; 2.0055458214864177E8 ; 2.630050894656092E8 ; 2.4237544535856518E10 ; 0.0
130 ; 2036713.577047892 ; 2.0055615381664816E8 ; 2.6504327840073487E8 ; 2.443809911800516E10 ; 0.0
131 ; 2035974.738139983 ; 2.005577237662799E8 ; 2.6707999197778276E8 ; 2.4638655271821808E10 ; 0.0
132 ; 2034174.0464472263 ; 2.005592919102773E8 ; 2.691159667159227E8 ; 2.483921299558809E10 ; 0.0
133 ; 2031373.9248012789 ; 2.0056085816285974E8 ; 2.7115014076236993E8 ; 2.5039772287498367E10 ; 0.0
134 ; 2028454.9071780997 ; 2.005624224396843E8 ; 2.731815146871712E8 ; 2.524033314566123E10 ; 0.0
135 ; 2026289.1218646886 ; 2.005639846578061E8 ; 2.752099695943493E8 ; 2.5440895568100914E10 ; 0.0
136 ; 2025272.7767461254 ; 2.005655447356395E8 ; 2.77236258716214E8 ; 2.564145955275872E10 ; 0.0
137 ; 2021143.1314676201 ; 2.0056710259292114E8 ; 2.7926153149296016E8 ; 2.5842025097494358E10 ; 0.0
138 ; 2019027.7382466034 ; 2.005686581506737E8 ; 2.812826746244278E8 ; 2.604259220008728E10 ; 0.0
139 ; 2017169.1299524244 ; 2.005702113311712E8 ; 2.833017023626744E8 ; 2.6243160858237953E10 ; 0.0
140 ; 2015588.3341739199 ; 2.0057176205790558E8 ; 2.8531887149262685E8 ; 2.6443731069569126E10 ; 0.0
141 ; 2012179.4026952279 ; 2.0057331025555393E8 ; 2.8733445982680076E8 ; 2.6644302831627033E10 ; 0.0
142 ; 2011539.9777870593 ; 2.0057485584994733E8 ; 2.89346639229496E8 ; 2.6844876141882587E10 ; 0.0
143 ; 2008918.156235469 ; 2.0057639876804033E8 ; 2.913581792072831E8 ; 2.7045450997732536E10 ; 0.0
144 ; 2005323.0571692965 ; 2.005779389378817E8 ; 2.9336709736351854E8 ; 2.7246027396500576E10 ; 0.0
145 ; 2005241.9819439857 ; 2.0057947628858608E8 ; 2.9537242042068785E8 ; 2.7446605335438457E10 ; 0.0
146 ; 2003596.663660207 ; 2.0058101075030652E8 ; 2.973776624026318E8 ; 2.7647184811727043E10 ; 0.0
147 ; 2002042.4692828294 ; 2.0058254225420803E8 ; 2.9938125906629205E8 ; 2.784776582247735E10 ; 0.0
148 ; 2000051.7597161985 ; 2.0058407073244178E8 ; 3.0138330153557485E8 ; 2.8048348364731556E10 ; 0.0
149 ; 1999217.5110396922 ; 2.0058559611812058E8 ; 3.0338335329529107E8 ; 2.8248932435463997E10 ; 0.0
150 ; 1998202.1522949743 ; 2.0058711834529468E8 ; 3.0538257080633074E8 ; 2.844951803158212E10 ; 0.0
151 ; 1995630.5129759351 ; 2.005886373489287E8 ; 3.0738077295862573E8 ; 2.8650105149927414E10 ; 0.0
152 ; 1992190.2766999216 ; 2.0059015306487912E8 ; 3.0937640347160167E8 ; 2.8850693787276344E10 ; 0.0
153 ; 1992042.5556903235 ; 2.0059166542987275E8 ; 3.1136859374830157E8 ; 2.9051283940341225E10 ; 0.0
154 ; 1988674.4081322846 ; 2.0059317438148552E8 ; 3.133606363039919E8 ; 2.92518756057711E10 ; 0.0
155 ; 1989353.793407052 ; 2.0059467985812244E8 ; 3.1534931071212417E8 ; 2.9452468780152584E10 ; 0.0
156 ; 1985635.8616732266 ; 2.005961817989977E8 ; 3.173386645055312E8 ; 2.9653063460010708E10 ; 0.0
157 ; 1987641.6117691847 ; 2.005976801441159E8 ; 3.193243003672044E8 ; 2.9853659641809704E10 ; 0.0
158 ; 1982924.0126094115 ; 2.005991748342535E8 ; 3.213119419789736E8 ; 3.005425732195382E10 ; 0.0
159 ; 1982781.2324071806 ; 2.006006658109411E8 ; 3.2329486599158305E8 ; 3.0254856496788074E10 ; 0.0
160 ; 1980947.6409317898 ; 2.0060215301644626E8 ; 3.252776472239902E8 ; 3.0455457162599014E10 ; 0.0
161 ; 1978869.3300759527 ; 2.006036363937567E8 ; 3.27258594864922E8 ; 3.065605931561546E10 ; 0.0
162 ; 1977949.621668943 ; 2.0060511588656428E8 ; 3.2923746419499797E8 ; 3.0856662952009216E10 ; 0.0
163 ; 1975817.9166478044 ; 2.006065914392494E8 ; 3.312154138166669E8 ; 3.1057268067895782E10 ; 0.0
164 ; 1974201.2143020614 ; 2.0060806299686578E8 ; 3.331912317333147E8 ; 3.1257874659335033E10 ; 0.0
165 ; 1971682.4830068608 ; 2.006095305051259E8 ; 3.3516543294761676E8 ; 3.1458482722331898E10 ; 0.0
166 ; 1971830.752630588 ; 2.0061099391038686E8 ; 3.371371154306236E8 ; 3.1659092252837025E10 ; 0.0
167 ; 1969304.1533913421 ; 2.0061245315963647E8 ; 3.391089461832542E8 ; 3.185970324674741E10 ; 0.0
168 ; 1966821.7647944007 ; 2.0061390820048022E8 ; 3.4107825033664554E8 ; 3.2060315699907047E10 ; 0.0
169 ; 1965029.1393078987 ; 2.0061535898112825E8 ; 3.4304507210143995E8 ; 3.226092960810753E10 ; 0.0
170 ; 1963288.56990659 ; 2.006168054503829E8 ; 3.4501010124074787E8 ; 3.2461544967088657E10 ; 0.0
171 ; 1962077.557461851 ; 2.006182475576266E8 ; 3.4697338981065446E8 ; 3.266216177253904E10 ; 0.0
172 ; 1960541.0594486387 ; 2.0061968525281036E8 ; 3.489354673681163E8 ; 3.2862780020096664E10 ; 0.0
173 ; 1958967.26117258 ; 2.006211184864422E8 ; 3.50896008427565E8 ; 3.3063399705349476E10 ; 0.0
174 ; 1957988.9161072874 ; 2.0062254720957634E8 ; 3.528549756887376E8 ; 3.326402082383592E10 ; 0.0
175 ; 1957414.2377799528 ; 2.006239713738024E8 ; 3.5481296460484487E8 ; 3.3464643371045494E10 ; 0.0
176 ; 1954911.7717477565 ; 2.006253909312353E8 ; 3.5677037884262484E8 ; 3.3665267342419296E10 ; 0.0
177 ; 1954497.5583369702 ; 2.0062680583450514E8 ; 3.587252906143726E8 ; 3.3865892733350533E10 ; 0.0
178 ; 1953684.013233138 ; 2.006282160367475E8 ; 3.606797881727096E8 ; 3.406651953918504E10 ; 0.0
179 ; 1952441.1361167647 ; 2.0062962149159408E8 ; 3.626334721859427E8 ; 3.4267147755221786E10 ; 0.0
180 ; 1950577.5930208713 ; 2.0063102215316376E8 ; 3.6458591332205945E8 ; 3.446777737671338E10 ; 0.0
181 ; 1949470.7666164176 ; 2.0063241797605354E8 ; 3.665364909150803E8 ; 3.466840839886654E10 ; 0.0
182 ; 1948909.54710927 ; 2.0063380891533008E8 ; 3.684859616816967E8 ; 3.486904081684259E10 ; 0.0
183 ; 1947572.0761160315 ; 2.0063519492652157E8 ; 3.7043487122880596E8 ; 3.506967462575792E10 ; 0.0
184 ; 1947416.5845449946 ; 2.006365759656095E8 ; 3.72382443304922E8 ; 3.527030982068444E10 ; 0.0
185 ; 1944756.2467173173 ; 2.0063795198902085E8 ; 3.74329859889467E8 ; 3.547094639665005E10 ; 0.0
186 ; 1944599.7610905634 ; 2.0063932295362082E8 ; 3.7627461613618433E8 ; 3.567158434863907E10 ; 0.0
187 ; 1942585.4054416844 ; 2.0064068881670517E8 ; 3.782192158972749E8 ; 3.587222367159269E10 ; 0.0
188 ; 1942915.1886603788 ; 2.006420495359933E8 ; 3.801618013027166E8 ; 3.607286436040939E10 ; 0.0
189 ; 1941990.1348258434 ; 2.0064340506962138E8 ; 3.82104716491377E8 ; 3.627350640994539E10 ; 0.0
190 ; 1939510.6437514538 ; 2.0064475537613556E8 ; 3.840467066262028E8 ; 3.647414981501501E10 ; 0.0
191 ; 1939258.470485296 ; 2.0064610041448557E8 ; 3.8598621726995426E8 ; 3.667479457039114E10 ; 0.0
192 ; 1939225.341993478 ; 2.0064744014401838E8 ; 3.8792547574043953E8 ; 3.6875440670805626E10 ; 0.0
193 ; 1937669.7398411233 ; 2.0064877452447218E8 ; 3.89864701082433E8 ; 3.7076088110949646E10 ; 0.0
194 ; 1937860.151021307 ; 2.0065010351597035E8 ; 3.918023708222741E8 ; 3.727673688547412E10 ; 0.0
195 ; 1936283.1437287761 ; 2.0065142707901585E8 ; 3.937402309732954E8 ; 3.747738698899009E10 ; 0.0
196 ; 1934424.9772298415 ; 2.006527451744855E8 ; 3.956765141170242E8 ; 3.767803841606911E10 ; 0.0
197 ; 1933308.3286115061 ; 2.0065405776362473E8 ; 3.97610939094254E8 ; 3.787869116124359E10 ; 0.0
198 ; 1932422.5955711093 ; 2.0065536480804226E8 ; 3.995442474228655E8 ; 3.807934521900722E10 ; 0.0
199 ; 1930269.3206420378 ; 2.0065666626970494E8 ; 4.014766700184366E8 ; 3.828000058381526E10 ; 0.0
