CSV File for the City 1 on Day 357
1 - Minute m 
2 - Power Consumed at minute m 
3 - Power Produced at minute m 
4 - Energy Consumed since the beginning of the day 
5 - Energy Produced since the beginning of the day 
6 - Energy Lost since the beginning of the day on lines starting from the city
 
0 ; 1.6032456241303574E7 ; 1.054823355599536E8 ; 0.0 ; 0.0 ; 0.0
1 ; 1.6049761212670317E7 ; 1.0563524073885298E8 ; 1.6032456241303574E7 ; 1.054823355599536E8 ; 0.0
2 ; 1.6065176786441572E7 ; 1.0609693129623756E8 ; 3.208221745397389E7 ; 2.1111757629880658E8 ; 0.0
3 ; 1.6088599989539186E7 ; 1.0686740905539596E8 ; 4.814739424041546E7 ; 3.1721450759504414E8 ; 0.0
4 ; 1.6107422155093055E7 ; 1.079466756556955E8 ; 6.4235994229954645E7 ; 4.240819166504401E8 ; 0.0
5 ; 1.6138049117579162E7 ; 1.0933473254170156E8 ; 8.03434163850477E7 ; 5.320285923061356E8 ; 0.0
6 ; 1.6180057333954012E7 ; 1.110315809533672E8 ; 9.648146550262687E7 ; 6.413633248478372E8 ; 0.0
7 ; 1.623014605100982E7 ; 1.1303722191744417E8 ; 1.1266152283658087E8 ; 7.523949058012044E8 ; 0.0
8 ; 1.6313133732257562E7 ; 1.153516562402538E8 ; 1.2889166888759069E8 ; 8.654321277186487E8 ; 0.0
9 ; 1.6425218919122592E7 ; 1.1797488450193417E8 ; 1.4520480261984825E8 ; 9.807837839589025E8 ; 0.0
10 ; 1.6606719301839007E7 ; 1.2090690705226022E8 ; 1.6163002153897083E8 ; 1.0987586684608366E9 ; 0.0
11 ; 1.689622409543358E7 ; 1.2414772400810704E8 ; 1.7823674084080982E8 ; 1.2196655755130968E9 ; 0.0
12 ; 1.735701567346272E7 ; 1.2769733525259951E8 ; 1.951329649362434E8 ; 1.3438132995212038E9 ; 0.0
13 ; 1.78094168800756E7 ; 1.3155574043596268E8 ; 2.1248998060970613E8 ; 1.4715106347738032E9 ; 0.0
14 ; 1.7852644531959526E7 ; 1.3572293897805858E8 ; 2.3029939748978174E8 ; 1.603066375209766E9 ; 0.0
15 ; 1.7874746239240173E7 ; 1.4019893007256573E8 ; 2.4815204202174127E8 ; 1.7387893141878245E9 ; 0.0
16 ; 1.7896302120364126E7 ; 1.4498371269273254E8 ; 2.6602678826098144E8 ; 1.8789882442603903E9 ; 0.0
17 ; 1.7916962752771232E7 ; 1.5007728559860584E8 ; 2.8392309038134557E8 ; 2.0239719569531229E9 ; 0.0
18 ; 1.7944093093516506E7 ; 1.5547964734562027E8 ; 3.018400531341168E8 ; 2.1740492425517287E9 ; 0.0
19 ; 1.7963854497825865E7 ; 1.6119079629440853E8 ; 3.1978414622763336E8 ; 2.329528889897349E9 ; 0.0
20 ; 1.7981290983179532E7 ; 1.6721073062168196E8 ; 3.377480007254592E8 ; 2.490719686191757E9 ; 0.0
21 ; 1.7998060378804978E7 ; 1.735394483320181E8 ; 3.557292917086387E8 ; 2.6579304168134394E9 ; 0.0
22 ; 1.8022419510800388E7 ; 1.801769472703852E8 ; 3.737273520874437E8 ; 2.8314698651454573E9 ; 0.0
23 ; 1.8046958810018044E7 ; 1.8712322513523132E8 ; 3.917497715982441E8 ; 3.0116468124158425E9 ; 0.0
24 ; 1.806633433673145E7 ; 1.9437827949196607E8 ; 4.0979673040826213E8 ; 3.198770037551074E9 ; 0.0
25 ; 1.808652975657855E7 ; 2.0063014868485385E8 ; 4.2786306474499357E8 ; 3.3931483170430403E9 ; 0.0
26 ; 1.810648667993159E7 ; 2.0063237788768587E8 ; 4.4594959450157213E8 ; 3.5937784657278943E9 ; 0.0
27 ; 1.81275912432734E7 ; 2.006347336423813E8 ; 4.640560811815037E8 ; 3.79441084361558E9 ; 0.0
28 ; 1.8147849497066524E7 ; 2.006372131192422E8 ; 4.821836724247771E8 ; 3.9950455772579613E9 ; 0.0
29 ; 1.816600124989541E7 ; 2.0063981342334569E8 ; 5.003315219218436E8 ; 4.1956827903772035E9 ; 0.0
30 ; 1.818892183362079E7 ; 2.006425316072503E8 ; 5.18497523171739E8 ; 4.3963226038005495E9 ; 0.0
31 ; 1.8205044205097895E7 ; 2.006453646831715E8 ; 5.3668644500535977E8 ; 4.5969651354078E9 ; 0.0
32 ; 1.8223954730960924E7 ; 2.0064830963455313E8 ; 5.548914892104577E8 ; 4.797610500090971E9 ; 0.0
33 ; 1.8242331682442386E7 ; 2.006513634269765E8 ; 5.731154439414186E8 ; 4.998258809725524E9 ; 0.0
34 ; 1.8259140729540154E7 ; 2.0065452301836395E8 ; 5.913577756238611E8 ; 5.1989101731525E9 ; 0.0
35 ; 1.8277790527439892E7 ; 2.006577853684477E8 ; 6.096169163534012E8 ; 5.399564696170864E9 ; 0.0
36 ; 1.829379405416355E7 ; 2.006611474474871E8 ; 6.27894706880841E8 ; 5.600222481539311E9 ; 0.0
37 ; 1.8311201168992728E7 ; 2.0066460624422964E8 ; 6.461885009350046E8 ; 5.800883628986798E9 ; 0.0
38 ; 1.832810219655104E7 ; 2.0066815877312052E8 ; 6.644997021039973E8 ; 6.001548235231028E9 ; 0.0
39 ; 1.834566784083937E7 ; 2.0067180208077434E8 ; 6.828278043005484E8 ; 6.2022163940041485E9 ; 0.0
40 ; 1.8355491980599035E7 ; 2.0067553325173038E8 ; 7.011734721413878E8 ; 6.402888196084923E9 ; 0.0
41 ; 1.836996943434946E7 ; 2.0067934941351822E8 ; 7.195289641219869E8 ; 6.603563729336653E9 ; 0.0
42 ; 1.8382945660889268E7 ; 2.006832477410655E8 ; 7.378989335563363E8 ; 6.804243078750171E9 ; 0.0
43 ; 1.8396009661339868E7 ; 2.0068722546048322E8 ; 7.562818792172256E8 ; 7.004926326491236E9 ; 0.0
44 ; 1.8407395975597642E7 ; 2.0069127985226664E8 ; 7.746778888785654E8 ; 7.205613551951719E9 ; 0.0
45 ; 1.8416530633373868E7 ; 2.0069540825395074E8 ; 7.93085284854163E8 ; 7.406304831803986E9 ; 0.0
46 ; 1.842525986313096E7 ; 2.0069960806226146E8 ; 8.115018154875369E8 ; 7.607000240057937E9 ; 0.0
47 ; 1.8431965176404115E7 ; 2.00703876734802E8 ; 8.299270753506678E8 ; 7.807699848120198E9 ; 0.0
48 ; 1.844058022301404E7 ; 2.0070821179131517E8 ; 8.48359040527072E8 ; 8.0084037248550005E9 ; 0.0
49 ; 1.844810563316201E7 ; 2.007126108145598E8 ; 8.66799620750086E8 ; 8.209111936646316E9 ; 0.0
50 ; 1.8455326328349017E7 ; 2.007170714508396E8 ; 8.85247726383248E8 ; 8.4098245474608755E9 ; 0.0
51 ; 1.8460427477491144E7 ; 2.007215914102201E8 ; 9.03703052711597E8 ; 8.610541618911715E9 ; 0.0
52 ; 1.8466690850080613E7 ; 2.007261684664674E8 ; 9.221634801890881E8 ; 8.811263210321934E9 ; 0.0
53 ; 1.8472379900900494E7 ; 2.0073080045674226E8 ; 9.406301710391687E8 ; 9.0119893787884E9 ; 0.0
54 ; 1.8479156703739587E7 ; 2.0073548528107753E8 ; 9.591025509400692E8 ; 9.212720179245142E9 ; 0.0
55 ; 1.848039426963917E7 ; 2.0074022090166876E8 ; 9.775817076438088E8 ; 9.41345566452622E9 ; 0.0
56 ; 1.848688785920976E7 ; 2.0074500534200272E8 ; 9.96062101913448E8 ; 9.614195885427889E9 ; 0.0
57 ; 1.8492831263174493E7 ; 2.007498366858477E8 ; 1.0145489897726578E9 ; 9.814940890769892E9 ; 0.0
58 ; 1.8498326195665542E7 ; 2.007547130761275E8 ; 1.0330418210358323E9 ; 1.001569072745574E10 ; 0.0
59 ; 1.8503451130227298E7 ; 2.007596327136982E8 ; 1.0515401472314979E9 ; 1.0216445440531868E10 ; 0.0
60 ; 1.850650082136053E7 ; 2.0076459385604644E8 ; 1.0700435983617252E9 ; 1.0417205073245565E10 ; 0.0
61 ; 1.8508269985189445E7 ; 2.0076959481592393E8 ; 1.0885500991830857E9 ; 1.0617969667101612E10 ; 0.0
62 ; 1.85135318891281E7 ; 2.0077463395993382E8 ; 1.107058369168275E9 ; 1.0818739261917536E10 ; 0.0
63 ; 1.851716131309712E7 ; 2.0077970970708075E8 ; 1.1255719010574033E9 ; 1.101951389587747E10 ; 0.0
64 ; 1.8520037842517894E7 ; 2.007848205272963E8 ; 1.1440890623705006E9 ; 1.122029360558455E10 ; 0.0
65 ; 1.852288040593344E7 ; 2.0078996493994972E8 ; 1.1626091002130184E9 ; 1.1421078426111847E10 ; 0.0
66 ; 1.8526402614287708E7 ; 2.0079514151235276E8 ; 1.1811319806189518E9 ; 1.1621868391051796E10 ; 0.0
67 ; 1.8532448879806265E7 ; 2.0080034885826617E8 ; 1.1996583832332394E9 ; 1.1822663532564148E10 ; 0.0
68 ; 1.8535794844511617E7 ; 2.008055856364144E8 ; 1.2181908321130457E9 ; 1.2023463881422415E10 ; 0.0
69 ; 1.8534584465215623E7 ; 2.0081085054901436E8 ; 1.2367266269575572E9 ; 1.2224269467058828E10 ; 0.0
70 ; 1.8537143145679664E7 ; 2.0081614234032282E8 ; 1.255261211422773E9 ; 1.2425080317607843E10 ; 0.0
71 ; 1.8537132689095557E7 ; 2.0082145979520693E8 ; 1.2737983545684526E9 ; 1.2625896459948166E10 ; 0.0
72 ; 1.854099622057895E7 ; 2.0082680173774076E8 ; 1.292335487257548E9 ; 1.2826717919743372E10 ; 0.0
73 ; 1.8541462731572658E7 ; 2.008321670298312E8 ; 1.310876483478127E9 ; 1.3027544721481113E10 ; 0.0
74 ; 1.85464168330892E7 ; 2.008375545698751E8 ; 1.3294179462096996E9 ; 1.3228376888510944E10 ; 0.0
75 ; 1.8544679814540274E7 ; 2.0084296329144967E8 ; 1.3479643630427887E9 ; 1.342921444308082E10 ; 0.0
76 ; 1.8548824319330297E7 ; 2.0084839216203746E8 ; 1.3665090428573291E9 ; 1.363005740637227E10 ; 0.0
77 ; 1.8552828717731554E7 ; 2.0085384018178698E8 ; 1.3850578671766593E9 ; 1.3830905798534307E10 ; 0.0
78 ; 1.8547034817595784E7 ; 2.0085930638230962E8 ; 1.4036106958943908E9 ; 1.4031759638716095E10 ; 0.0
79 ; 1.854033215225292E7 ; 2.0086478982551324E8 ; 1.4221577307119865E9 ; 1.4232618945098404E10 ; 0.0
80 ; 1.8536042430677477E7 ; 2.0087028960247287E8 ; 1.4406980628642395E9 ; 1.4433483734923918E10 ; 0.0
81 ; 1.8531644266898826E7 ; 2.0087580483233812E8 ; 1.4592341052949169E9 ; 1.463435402452639E10 ; 0.0
82 ; 1.8525227439293176E7 ; 2.0088133466127732E8 ; 1.4777657495618157E9 ; 1.4835229829358728E10 ; 0.0
83 ; 1.852280149859594E7 ; 2.0088687826145798E8 ; 1.496290977001109E9 ; 1.5036111164020006E10 ; 0.0
84 ; 1.8516853851211894E7 ; 2.0089243483006322E8 ; 1.5148137784997048E9 ; 1.5236998042281464E10 ; 0.0
85 ; 1.850932089646032E7 ; 2.0089800358834323E8 ; 1.5333306323509166E9 ; 1.5437890477111526E10 ; 0.0
86 ; 1.850651805265035E7 ; 2.009035837807015E8 ; 1.551839953247377E9 ; 1.563878848069987E10 ; 0.0
87 ; 1.8501133316656377E7 ; 2.009091746738146E8 ; 1.5703464713000274E9 ; 1.583969206448057E10 ; 0.0
88 ; 1.8489807177693095E7 ; 2.0091477555578527E8 ; 1.5888476046166837E9 ; 1.6040601239154385E10 ; 0.0
89 ; 1.8488444993048213E7 ; 2.0092038573532742E8 ; 1.6073374117943769E9 ; 1.624151601471017E10 ; 0.0
90 ; 1.8476421238340005E7 ; 2.0092600454098246E8 ; 1.625825856787425E9 ; 1.6442436400445498E10 ; 0.0
91 ; 1.846832174206151E7 ; 2.0093163132036582E8 ; 1.644302278025765E9 ; 1.664336240498648E10 ; 0.0
92 ; 1.846724318847659E7 ; 2.009372654394432E8 ; 1.6627705997678266E9 ; 1.6844294036306847E10 ; 0.0
93 ; 1.8461012672139872E7 ; 2.00942906281835E8 ; 1.6812378429563031E9 ; 1.704523130174629E10 ; 0.0
94 ; 1.84562533143697E7 ; 2.009485532481482E8 ; 1.699698855628443E9 ; 1.7246174208028126E10 ; 0.0
95 ; 1.8446597125660837E7 ; 2.0095420575533515E8 ; 1.7181551089428127E9 ; 1.7447122761276276E10 ; 0.0
96 ; 1.844062155717016E7 ; 2.0095986323607785E8 ; 1.7366017060684736E9 ; 1.7648076967031612E10 ; 0.0
97 ; 1.8433608934282545E7 ; 2.0096552513819668E8 ; 1.7550423276256437E9 ; 1.784903683026769E10 ; 0.0
98 ; 1.8426574140215825E7 ; 2.009711909240835E8 ; 1.7734759365599263E9 ; 1.8050002355405884E10 ; 0.0
99 ; 1.8414603557625495E7 ; 2.0097686007015726E8 ; 1.7919025107001421E9 ; 1.8250973546329967E10 ; 0.0
100 ; 1.840936517104222E7 ; 2.0098253206634176E8 ; 1.8103171142577677E9 ; 1.8451950406400124E10 ; 0.0
101 ; 1.840121647937977E7 ; 2.0098820641556484E8 ; 1.82872647942881E9 ; 1.8652932938466465E10 ; 0.0
102 ; 1.8393357432803415E7 ; 2.009938826332776E8 ; 1.8471276959081895E9 ; 1.885392114488203E10 ; 0.0
103 ; 1.8381704378482405E7 ; 2.0099956024699354E8 ; 1.865521053340993E9 ; 1.905491502751531E10 ; 0.0
104 ; 1.837485901771276E7 ; 2.0100523879584634E8 ; 1.8839027577194753E9 ; 1.9255914587762302E10 ; 0.0
105 ; 1.8363279174685933E7 ; 2.0101091783016568E8 ; 1.902277616737188E9 ; 1.9456919826558147E10 ; 0.0
106 ; 1.8357525642333154E7 ; 2.0101659691107038E8 ; 1.920640895911874E9 ; 1.9657930744388313E10 ; 0.0
107 ; 1.834366949567352E7 ; 2.0102227561007828E8 ; 1.9389984215542073E9 ; 1.9858947341299385E10 ; 0.0
108 ; 1.833727973350334E7 ; 2.0102795350873184E8 ; 1.9573420910498807E9 ; 2.0059969616909462E10 ; 0.0
109 ; 1.8326547425530948E7 ; 2.0103363019823915E8 ; 1.975679370783384E9 ; 2.0260997570418194E10 ; 0.0
110 ; 1.8317473694322716E7 ; 2.0103930527912956E8 ; 1.994005918208915E9 ; 2.0462031200616432E10 ; 0.0
111 ; 1.8304568414504603E7 ; 2.0104497836092323E8 ; 2.0123233919032378E9 ; 2.066307050589556E10 ; 0.0
112 ; 1.829848012334525E7 ; 2.0105064906181434E8 ; 2.0306279603177423E9 ; 2.0864115484256485E10 ; 0.0
113 ; 1.828891086325811E7 ; 2.0105631700836685E8 ; 2.0489264404410875E9 ; 2.10651661333183E10 ; 0.0
114 ; 1.827627232252785E7 ; 2.010619818352229E8 ; 2.0672153513043456E9 ; 2.1266222450326664E10 ; 0.0
115 ; 1.826860137444624E7 ; 2.0106764318482286E8 ; 2.0854916236268735E9 ; 2.146728443216189E10 ; 0.0
116 ; 1.825585383422875E7 ; 2.010733007071366E8 ; 2.1037602250013196E9 ; 2.166835207534671E10 ; 0.0
117 ; 1.82472218259608E7 ; 2.0107895405940595E8 ; 2.1220160788355484E9 ; 2.186942537605385E10 ; 0.0
118 ; 1.8230930296232972E7 ; 2.0108460290589705E8 ; 2.1402633006615093E9 ; 2.2070504330113255E10 ; 0.0
119 ; 1.8221225883634586E7 ; 2.0109024691766304E8 ; 2.158494230957742E9 ; 2.227158893301915E10 ; 0.0
120 ; 1.821530789193208E7 ; 2.0109588577231598E8 ; 2.176715456841377E9 ; 2.2472679179936813E10 ; 0.0
121 ; 1.8199451087442644E7 ; 2.0110151915380812E8 ; 2.194930764733309E9 ; 2.267377506570913E10 ; 0.0
122 ; 1.8188416574772127E7 ; 2.0110714675222164E8 ; 2.2131302158207517E9 ; 2.2874876584862938E10 ; 0.0
123 ; 1.8176547241354834E7 ; 2.0111276826356697E8 ; 2.231318632395524E9 ; 2.3075983731615158E10 ; 0.0
124 ; 1.816719899640375E7 ; 2.011183833895889E8 ; 2.249495179636879E9 ; 2.3277096499878723E10 ; 0.0
125 ; 1.815267216356813E7 ; 2.011239918375806E8 ; 2.2676623786332827E9 ; 2.347821488326831E10 ; 0.0
126 ; 1.8139379307104696E7 ; 2.0112959332020468E8 ; 2.2858150507968507E9 ; 2.3679338875105892E10 ; 0.0
127 ; 1.8127170348818883E7 ; 2.0113518755532148E8 ; 2.3039544301039553E9 ; 2.3880468468426098E10 ; 0.0
128 ; 1.811483431010174E7 ; 2.0114077426582414E8 ; 2.322081600452774E9 ; 2.408160365598142E10 ; 0.0
129 ; 1.8099612318746757E7 ; 2.0114635317947978E8 ; 2.3401964347628756E9 ; 2.4282744430247242E10 ; 0.0
130 ; 1.8086970644730724E7 ; 2.011519240287773E8 ; 2.358296047081622E9 ; 2.4483890783426723E10 ; 0.0
131 ; 1.8064312223065104E7 ; 2.0115748655078074E8 ; 2.3763830177263527E9 ; 2.46850427074555E10 ; 0.0
132 ; 1.80466459734915E7 ; 2.0116304048698854E8 ; 2.3944473299494176E9 ; 2.4886200194006283E10 ; 0.0
133 ; 1.802685607971809E7 ; 2.0116858558319804E8 ; 2.4124939759229093E9 ; 2.508736323449327E10 ; 0.0
134 ; 1.8006940530272584E7 ; 2.0117412158937526E8 ; 2.4305208320026274E9 ; 2.528853182007647E10 ; 0.0
135 ; 1.7990107146466248E7 ; 2.011796482595299E8 ; 2.4485277725329E9 ; 2.5489705941665844E10 ; 0.0
136 ; 1.79676507318475E7 ; 2.0118516535159454E8 ; 2.466517879679366E9 ; 2.5690885589925373E10 ; 0.0
137 ; 1.794849666811785E7 ; 2.0119067262730914E8 ; 2.4844855304112134E9 ; 2.5892070755276966E10 ; 0.0
138 ; 1.7936343982535172E7 ; 2.0119616985210937E8 ; 2.5024340270793314E9 ; 2.6093261427904274E10 ; 0.0
139 ; 1.791012531543438E7 ; 2.012016567950194E8 ; 2.5203703710618668E9 ; 2.6294457597756382E10 ; 0.0
140 ; 1.78934368701498E7 ; 2.0120713322854868E8 ; 2.538280496377301E9 ; 2.6495659254551403E10 ; 0.0
141 ; 1.7868546265974805E7 ; 2.0121259892859262E8 ; 2.556173933247451E9 ; 2.6696866387779953E10 ; 0.0
142 ; 1.7845451914347306E7 ; 2.01218053674337E8 ; 2.574042479513426E9 ; 2.6898078986708546E10 ; 0.0
143 ; 1.7827897180912845E7 ; 2.012234972481658E8 ; 2.591887931427773E9 ; 2.709929704038288E10 ; 0.0
144 ; 1.7803983117322467E7 ; 2.0122892943557265E8 ; 2.609715828608686E9 ; 2.7300520537631046E10 ; 0.0
145 ; 1.7792904508703504E7 ; 2.0123435002507544E8 ; 2.6275198117260084E9 ; 2.750174946706662E10 ; 0.0
146 ; 1.7777989460943792E7 ; 2.0123975880813405E8 ; 2.645312716234712E9 ; 2.7702983817091694E10 ; 0.0
147 ; 1.7765695039106093E7 ; 2.0124515557907128E8 ; 2.663090705695656E9 ; 2.7904223575899826E10 ; 0.0
148 ; 1.7751791412661526E7 ; 2.012505401349964E8 ; 2.6808564007347617E9 ; 2.8105468731478897E10 ; 0.0
149 ; 1.773321909994846E7 ; 2.012559122757318E8 ; 2.6986081921474233E9 ; 2.830671927161389E10 ; 0.0
150 ; 1.7718472904025942E7 ; 2.0126127180374196E8 ; 2.7163414112473717E9 ; 2.850797518388962E10 ; 0.0
151 ; 1.7706875981246762E7 ; 2.0126661852406543E8 ; 2.7340598841513977E9 ; 2.8709236455693363E10 ; 0.0
152 ; 1.769374676513188E7 ; 2.0127195224424878E8 ; 2.7517667601326447E9 ; 2.891050307421743E10 ; 0.0
153 ; 1.767862834322758E7 ; 2.0127727277428332E8 ; 2.7694605068977766E9 ; 2.9111775026461678E10 ; 0.0
154 ; 1.7663302979044702E7 ; 2.0128257992654386E8 ; 2.787139135241004E9 ; 2.9313052299235962E10 ; 0.0
155 ; 1.7647667538614556E7 ; 2.0128787351572984E8 ; 2.804802438220049E9 ; 2.9514334879162506E10 ; 0.0
156 ; 1.7633901422269695E7 ; 2.0129315335880837E8 ; 2.8224501057586637E9 ; 2.9715622752678234E10 ; 0.0
157 ; 1.7622862977699507E7 ; 2.012984192749593E8 ; 2.8400840071809335E9 ; 2.991691590603704E10 ; 0.0
158 ; 1.759969698846331E7 ; 2.0130367108552256E8 ; 2.8577068701586328E9 ; 3.0118214325312E10 ; 0.0
159 ; 1.7590358002565686E7 ; 2.0130890861394688E8 ; 2.875306567147096E9 ; 3.0319517996397522E10 ; 0.0
160 ; 1.7573746658617333E7 ; 2.0131413168574062E8 ; 2.892896925149662E9 ; 3.0520826905011467E10 ; 0.0
161 ; 1.7560630057983767E7 ; 2.013193401284243E8 ; 2.9104706718082795E9 ; 3.072214103669721E10 ; 0.0
162 ; 1.754475094286844E7 ; 2.0132453377148458E8 ; 2.9280313018662634E9 ; 3.0923460376825634E10 ; 0.0
163 ; 1.7529109302332297E7 ; 2.0132971244633025E8 ; 2.9455760528091316E9 ; 3.112478491059712E10 ; 0.0
164 ; 1.751220468481301E7 ; 2.0133487598624927E8 ; 2.963105162111464E9 ; 3.132611462304345E10 ; 0.0
165 ; 1.7498140881454702E7 ; 2.0134002422636753E8 ; 2.980617366796277E9 ; 3.1527449499029697E10 ; 0.0
166 ; 1.7480959674060047E7 ; 2.0134515700360924E8 ; 2.9981155076777315E9 ; 3.1728789523256065E10 ; 0.0
167 ; 1.746797041488468E7 ; 2.013502741566582E8 ; 3.0155964673517914E9 ; 3.1930134680259674E10 ; 0.0
168 ; 1.7455483025090225E7 ; 2.0135537552592084E8 ; 3.033064437766676E9 ; 3.2131484954416332E10 ; 0.0
169 ; 1.7437492411228508E7 ; 2.013604609534902E8 ; 3.050519920791766E9 ; 3.2332840329942253E10 ; 0.0
170 ; 1.7420953197122913E7 ; 2.0136553028311142E8 ; 3.067957413202995E9 ; 3.2534200790895744E10 ; 0.0
171 ; 1.7403157274660263E7 ; 2.0137058336014822E8 ; 3.085378366400118E9 ; 3.2735566321178856E10 ; 0.0
172 ; 1.7391228660697713E7 ; 2.0137562003155053E8 ; 3.102781523674778E9 ; 3.2936936904539005E10 ; 0.0
173 ; 1.7373548550304823E7 ; 2.0138064014582327E8 ; 3.120172752335476E9 ; 3.3138312524570557E10 ; 0.0
174 ; 1.7365569092815492E7 ; 2.0138564355299607E8 ; 3.137546300885781E9 ; 3.333969316471638E10 ; 0.0
175 ; 1.7355263154819578E7 ; 2.013906301045943E8 ; 3.154911869978596E9 ; 3.354107880826938E10 ; 0.0
176 ; 1.7344385154032327E7 ; 2.0139559965361056E8 ; 3.1722671331334157E9 ; 3.3742469438373974E10 ; 0.0
177 ; 1.7336809224308662E7 ; 2.0140055205447775E8 ; 3.189611518287448E9 ; 3.3943865038027584E10 ; 0.0
178 ; 1.732953887063273E7 ; 2.0140548716304243E8 ; 3.2069483275117564E9 ; 3.414526559008206E10 ; 0.0
179 ; 1.7314671390957527E7 ; 2.014104048365395E8 ; 3.224277866382389E9 ; 3.4346671077245106E10 ; 0.0
180 ; 1.7304385207352817E7 ; 2.0141530493356755E8 ; 3.2415925377733464E9 ; 3.454808148208164E10 ; 0.0
181 ; 1.729512769835403E7 ; 2.0142018731406495E8 ; 3.258896922980699E9 ; 3.474949678701521E10 ; 0.0
182 ; 1.7284153357563477E7 ; 2.0142505183928692E8 ; 3.2761920506790533E9 ; 3.495091697432928E10 ; 0.0
183 ; 1.727807289444008E7 ; 2.0142989837178323E8 ; 3.293476204036617E9 ; 3.5152342026168564E10 ; 0.0
184 ; 1.726642156099407E7 ; 2.0143472677537653E8 ; 3.310754276931057E9 ; 3.5353771924540344E10 ; 0.0
185 ; 1.725485121730972E7 ; 2.0143953691514176E8 ; 3.328020698492051E9 ; 3.555520665131572E10 ; 0.0
186 ; 1.7244854901222896E7 ; 2.0144432865738568E8 ; 3.345275549709361E9 ; 3.575664618823086E10 ; 0.0
187 ; 1.7239483095886234E7 ; 2.014491018696276E8 ; 3.362520404610584E9 ; 3.5958090516888245E10 ; 0.0
188 ; 1.723033763463886E7 ; 2.014538564205804E8 ; 3.37975988770647E9 ; 3.615953961875787E10 ; 0.0
189 ; 1.7219814661715504E7 ; 2.014585921801323E8 ; 3.396990225341109E9 ; 3.636099347517845E10 ; 0.0
190 ; 1.7211874630283806E7 ; 2.0146330901932922E8 ; 3.4142100400028243E9 ; 3.656245206735858E10 ; 0.0
191 ; 1.7198057526136946E7 ; 2.0146800681035757E8 ; 3.431421914633108E9 ; 3.6763915376377914E10 ; 0.0
192 ; 1.719144076501998E7 ; 2.0147268542652786E8 ; 3.448619972159245E9 ; 3.696538338318827E10 ; 0.0
193 ; 1.7179496952774175E7 ; 2.0147734474225852E8 ; 3.465811412924265E9 ; 3.71668560686148E10 ; 0.0
194 ; 1.7171609909206547E7 ; 2.0148198463306054E8 ; 3.482990909877039E9 ; 3.7368333413357056E10 ; 0.0
195 ; 1.7160523726513773E7 ; 2.0148660497552243E8 ; 3.5001625197862453E9 ; 3.756981539799012E10 ; 0.0
