CSV File for the City 4 on Day 251
1 - Minute m 
2 - Power Consumed at minute m 
3 - Power Produced at minute m 
4 - Energy Consumed since the beginning of the day 
5 - Energy Produced since the beginning of the day 
6 - Energy Lost since the beginning of the day on lines starting from the city
 
0 ; 1575188.0834369056 ; 1.0578132175533792E8 ; 0.0 ; 0.0 ; 0.0
1 ; 1582383.590335567 ; 1.0593111291917068E8 ; 1575188.0834369056 ; 1.0578132175533792E8 ; 0.0
2 ; 1587784.4661421436 ; 1.0638999349703076E8 ; 3157571.673772473 ; 2.117124346745086E8 ; 0.0
3 ; 1598005.3686154943 ; 1.0715797281951618E8 ; 4745356.139914617 ; 3.1810242817153937E8 ; 0.0
4 ; 1608791.8066451957 ; 1.0823505938266087E8 ; 6343361.508530111 ; 4.2526040099105555E8 ; 0.0
5 ; 1617730.388808179 ; 1.0962126075776178E8 ; 7952153.315175307 ; 5.334954603737164E8 ; 0.0
6 ; 1635616.3797215088 ; 1.1131658350783214E8 ; 9569883.703983486 ; 6.431167211314782E8 ; 0.0
7 ; 1655963.6426339925 ; 1.133210331127258E8 ; 1.1205500083704995E7 ; 7.544333046393104E8 ; 0.0
8 ; 1688201.7528581352 ; 1.156346139048577E8 ; 1.2861463726338988E7 ; 8.677543377520361E8 ; 0.0
9 ; 1738038.803907885 ; 1.1825732901724267E8 ; 1.4549665479197124E7 ; 9.833889516568937E8 ; 0.0
10 ; 1816757.1832273663 ; 1.2118918034528714E8 ; 1.6287704283105008E7 ; 1.1016462806741364E9 ; 0.0
11 ; 1938356.0491348568 ; 1.2443016852341554E8 ; 1.8104461466332376E7 ; 1.2228354610194235E9 ; 0.0
12 ; 2136957.821601784 ; 1.279802929172034E8 ; 2.0042817515467234E7 ; 1.347265629542839E9 ; 0.0
13 ; 2328026.45558455 ; 1.318395516312443E8 ; 2.217977533706902E7 ; 1.4752459224600425E9 ; 0.0
14 ; 2349076.0889809425 ; 1.360079415325235E8 ; 2.4507801792653568E7 ; 1.6070854740912867E9 ; 0.0
15 ; 2354867.0904833646 ; 1.4048545828862596E8 ; 2.685687788163451E7 ; 1.7430934156238103E9 ; 0.0
16 ; 2366479.898292533 ; 1.452720964196979E8 ; 2.9211744972117875E7 ; 1.8835788739124362E9 ; 0.0
17 ; 2373990.2711447985 ; 1.5036784936272606E8 ; 3.157822487041041E7 ; 2.0288509703321342E9 ; 0.0
18 ; 2386133.2890601023 ; 1.5577270954641348E8 ; 3.3952215141555205E7 ; 2.1792188196948605E9 ; 0.0
19 ; 2391658.0170935844 ; 1.6148666847472623E8 ; 3.6338348430615306E7 ; 2.334991529241274E9 ; 0.0
20 ; 2399991.1660877382 ; 1.6750971681706628E8 ; 3.873000644770889E7 ; 2.496478197716E9 ; 0.0
21 ; 2407049.879311635 ; 1.7384184450299105E8 ; 4.112999761379663E7 ; 2.6639879145330663E9 ; 0.0
22 ; 2420155.846703624 ; 1.804830408194428E8 ; 4.3537047493108265E7 ; 2.8378297590360575E9 ; 0.0
23 ; 2428072.5006762464 ; 1.874332945085643E8 ; 4.595720333981189E7 ; 3.0183127998555E9 ; 0.0
24 ; 2436558.398591404 ; 1.9469259386434186E8 ; 4.8385275840488136E7 ; 3.2057460943640647E9 ; 0.0
25 ; 2442468.4483617623 ; 2.0094896772471333E8 ; 5.082183423907954E7 ; 3.4004386882284064E9 ; 0.0
26 ; 2453716.4916997496 ; 2.0095595159835553E8 ; 5.3264302687441304E7 ; 3.6013876559531198E9 ; 0.0
27 ; 2461812.8229915123 ; 2.0096330227438316E8 ; 5.571801917914105E7 ; 3.8023436075514755E9 ; 0.0
28 ; 2470937.638723631 ; 2.0097100714800555E8 ; 5.8179832002132565E7 ; 4.0033069098258586E9 ; 0.0
29 ; 2480753.660359497 ; 2.0097905358616915E8 ; 6.06507696408562E7 ; 4.204277916973864E9 ; 0.0
30 ; 2487825.8171932367 ; 2.0098742899311316E8 ; 6.313152330121569E7 ; 4.405256970560033E9 ; 0.0
31 ; 2495382.166863265 ; 2.0099612086892667E8 ; 6.561934911840893E7 ; 4.606244399553146E9 ; 0.0
32 ; 2505019.6592829977 ; 2.0100511686112154E8 ; 6.81147312852722E7 ; 4.807240520422073E9 ; 0.0
33 ; 2510943.2677557403 ; 2.0101440480937704E8 ; 7.06197509445552E7 ; 5.008245637283195E9 ; 0.0
34 ; 2520255.455580539 ; 2.010239727837276E8 ; 7.313069421231094E7 ; 5.209260042092571E9 ; 0.0
35 ; 2524955.82120509 ; 2.010338091165505E8 ; 7.565094966789147E7 ; 5.410284014876299E9 ; 0.0
36 ; 2533756.4193133996 ; 2.0104390242877433E8 ; 7.817590548909657E7 ; 5.611317823992849E9 ; 0.0
37 ; 2539675.698152035 ; 2.010542416507686E8 ; 8.070966190840997E7 ; 5.812361726421623E9 ; 0.0
38 ; 2547927.7831949512 ; 2.0106481603839722E8 ; 8.3249337606562E7 ; 6.0134159680723915E9 ; 0.0
39 ; 2554101.779530599 ; 2.0107561518472448E8 ; 8.579726538975695E7 ; 6.214480784110788E9 ; 0.0
40 ; 2559756.6321623274 ; 2.0108662902785563E8 ; 8.835136716928755E7 ; 6.415556399295513E9 ; 0.0
41 ; 2565072.3014916335 ; 2.0109784785537848E8 ; 9.091112380144988E7 ; 6.616643028323369E9 ; 0.0
42 ; 2570449.693352851 ; 2.0110926230584824E8 ; 9.347619610294151E7 ; 6.817740876178747E9 ; 0.0
43 ; 2575682.9332280643 ; 2.0112086336773035E8 ; 9.604664579629436E7 ; 7.018850138484595E9 ; 0.0
44 ; 2579682.8915472575 ; 2.0113264237618327E8 ; 9.862232872952242E7 ; 7.219971001852325E9 ; 0.0
45 ; 2586801.0094337594 ; 2.0114459100803137E8 ; 1.0120201162106968E8 ; 7.421103644228509E9 ; 0.0
46 ; 2590178.110242264 ; 2.0115670127524295E8 ; 1.0378881263050345E8 ; 7.62224823523654E9 ; 0.0
47 ; 2593896.5161669 ; 2.011689655171964E8 ; 1.0637899074074571E8 ; 7.823404936511783E9 ; 0.0
48 ; 2595027.5700519076 ; 2.0118137639198455E8 ; 1.089728872569126E8 ; 8.024573902028979E9 ; 0.0
49 ; 2601740.2581442916 ; 2.0119392686697817E8 ; 1.1156791482696451E8 ; 8.225755278420964E9 ; 0.0
50 ; 2606645.306714598 ; 2.0120661020883995E8 ; 1.141696550851088E8 ; 8.426949205287943E9 ; 0.0
51 ; 2606370.2792874873 ; 2.012194199731554E8 ; 1.167763003918234E8 ; 8.628155815496782E9 ; 0.0
52 ; 2610517.649765425 ; 2.01232349993823E8 ; 1.1938267067111088E8 ; 8.829375235469938E9 ; 0.0
53 ; 2611608.072818281 ; 2.0124539437232423E8 ; 1.2199318832087632E8 ; 9.03060758546376E9 ; 0.0
54 ; 2615971.388777937 ; 2.0125854746697563E8 ; 1.246047963936946E8 ; 9.231852979836084E9 ; 0.0
55 ; 2616923.5985103208 ; 2.012718038822469E8 ; 1.2722076778247254E8 ; 9.43311152730306E9 ; 0.0
56 ; 2619550.440491251 ; 2.012851584582159E8 ; 1.2983769138098286E8 ; 9.634383331185307E9 ; 0.0
57 ; 2620532.2258907496 ; 2.012986062602156E8 ; 1.324572418214741E8 ; 9.835668489643522E9 ; 0.0
58 ; 2623840.1576523506 ; 2.013121425687199E8 ; 1.3507777404736486E8 ; 1.0036967095903738E10 ; 0.0
59 ; 2626556.985098329 ; 2.0132576286950183E8 ; 1.377016142050172E8 ; 1.0238279238472458E10 ; 0.0
60 ; 2628240.252024142 ; 2.0133946284409246E8 ; 1.4032817119011554E8 ; 1.0439605001341959E10 ; 0.0
61 ; 2631903.946077846 ; 2.0135323836055884E8 ; 1.429564114421397E8 ; 1.0640944464186052E10 ; 0.0
62 ; 2631237.3037143145 ; 2.0136708546461543E8 ; 1.4558831538821754E8 ; 1.0842297702546612E10 ; 0.0
63 ; 2635527.135299449 ; 2.0138100037107643E8 ; 1.4821955269193184E8 ; 1.1043664788011227E10 ; 0.0
64 ; 2636428.6121575925 ; 2.0139497945565367E8 ; 1.508550798272313E8 ; 1.1245045788382303E10 ; 0.0
65 ; 2637060.492378937 ; 2.0140901924709985E8 ; 1.5349150843938887E8 ; 1.1446440767837957E10 ; 0.0
66 ; 2639750.2348994305 ; 2.014231164196953E8 ; 1.5612856893176782E8 ; 1.1647849787085056E10 ; 0.0
67 ; 2642838.5208328525 ; 2.0143726778607267E8 ; 1.5876831916666725E8 ; 1.1849272903504751E10 ; 0.0
68 ; 2644479.7920952686 ; 2.0145147029037333E8 ; 1.6141115768750012E8 ; 1.2050710171290823E10 ; 0.0
69 ; 2647543.9184801984 ; 2.014657210017268E8 ; 1.640556374795954E8 ; 1.2252161641581196E10 ; 0.0
70 ; 2646599.768012415 ; 2.0148001710804456E8 ; 1.6670318139807558E8 ; 1.2453627362582922E10 ; 0.0
71 ; 2648289.5989148533 ; 2.014943559101168E8 ; 1.6934978116608799E8 ; 1.2655107379690966E10 ; 0.0
72 ; 2651993.9038061723 ; 2.0150873481600267E8 ; 1.7199807076500285E8 ; 1.2856601735601082E10 ; 0.0
73 ; 2654041.6789092347 ; 2.0152315133570185E8 ; 1.7465006466880903E8 ; 1.3058110470417084E10 ; 0.0
74 ; 2654977.6208700496 ; 2.0153760307609653E8 ; 1.7730410634771827E8 ; 1.3259633621752785E10 ; 0.0
75 ; 2655282.234167674 ; 2.0155208773615196E8 ; 1.7995908396858832E8 ; 1.346117122482888E10 ; 0.0
76 ; 2658620.528674256 ; 2.015666031023644E8 ; 1.82614366202756E8 ; 1.3662723312565033E10 ; 0.0
77 ; 2660776.446328029 ; 2.0158114704444504E8 ; 1.8527298673143023E8 ; 1.3864289915667397E10 ; 0.0
78 ; 2659262.7360451682 ; 2.015957175112288E8 ; 1.8793376317775828E8 ; 1.4065871062711842E10 ; 0.0
79 ; 2658147.2151077962 ; 2.0161031252679688E8 ; 1.9059302591380346E8 ; 1.426746678022307E10 ; 0.0
80 ; 2655509.174420486 ; 2.016249301868029E8 ; 1.9325117312891126E8 ; 1.4469077092749866E10 ; 0.0
81 ; 2652642.916070845 ; 2.0163956865499222E8 ; 1.9590668230333173E8 ; 1.467070202293667E10 ; 0.0
82 ; 2654140.2509511313 ; 2.016542261599045E8 ; 1.9855932521940258E8 ; 1.4872341591591663E10 ; 0.0
83 ; 2649470.781743948 ; 2.0166890099175015E8 ; 2.0121346547035372E8 ; 1.5073995817751568E10 ; 0.0
84 ; 2650200.141011848 ; 2.0168359149945146E8 ; 2.0386293625209767E8 ; 1.5275664718743319E10 ; 0.0
85 ; 2648827.902085982 ; 2.0169829608783987E8 ; 2.065131363931095E8 ; 1.547734831024277E10 ; 0.0
86 ; 2650142.707641933 ; 2.017130132150009E8 ; 2.091619642951955E8 ; 1.5679046606330608E10 ; 0.0
87 ; 2650531.108867226 ; 2.0172774138975883E8 ; 2.1181210700283742E8 ; 1.5880759619545609E10 ; 0.0
88 ; 2646050.653556216 ; 2.0174247916929373E8 ; 2.1446263811170465E8 ; 1.6082487360935368E10 ; 0.0
89 ; 2641553.5620585456 ; 2.0175722515688366E8 ; 2.1710868876526088E8 ; 1.6284229840104662E10 ; 0.0
90 ; 2642854.880338481 ; 2.017719779997647E8 ; 2.197502423273194E8 ; 1.6485987065261545E10 ; 0.0
91 ; 2639023.724245245 ; 2.0178673638710353E8 ; 2.223930972076579E8 ; 1.668775904326131E10 ; 0.0
92 ; 2636391.406606742 ; 2.0180149904807484E8 ; 2.2503212093190315E8 ; 1.6889545779648415E10 ; 0.0
93 ; 2635164.119666372 ; 2.018162647500395E8 ; 2.276685123385099E8 ; 1.709134727869649E10 ; 0.0
94 ; 2633888.3752686717 ; 2.0183103229681626E8 ; 2.3030367645817626E8 ; 1.729316354344653E10 ; 0.0
95 ; 2633162.8690514113 ; 2.0184580052704358E8 ; 2.3293756483344492E8 ; 1.7494994575743347E10 ; 0.0
96 ; 2630220.9403346805 ; 2.0186056831262493E8 ; 2.3557072770249632E8 ; 1.769684037627039E10 ; 0.0
97 ; 2630416.983037939 ; 2.018753345572544E8 ; 2.38200948642831E8 ; 1.7898700944583015E10 ; 0.0
98 ; 2626449.94372103 ; 2.0189009819501725E8 ; 2.4083136562586895E8 ; 1.810057627914027E10 ; 0.0
99 ; 2626459.841820328 ; 2.0190485818906173E8 ; 2.4345781556958997E8 ; 1.830246637733529E10 ; 0.0
100 ; 2621776.5536978394 ; 2.0191961353033844E8 ; 2.460842754114103E8 ; 1.850437123552435E10 ; 0.0
101 ; 2621882.690866086 ; 2.019343632364027E8 ; 2.4870605196510816E8 ; 1.8706290849054688E10 ; 0.0
102 ; 2618561.2264615367 ; 2.0194910635027775E8 ; 2.5132793465597424E8 ; 1.8908225212291092E10 ; 0.0
103 ; 2614848.3963816473 ; 2.019638419393742E8 ; 2.5394649588243577E8 ; 1.911017431864137E10 ; 0.0
104 ; 2615436.740092379 ; 2.019785690944638E8 ; 2.5656134427881742E8 ; 1.931213816058074E10 ; 0.0
105 ; 2611687.647229429 ; 2.019932869287034E8 ; 2.5917678101890978E8 ; 1.9514116729675205E10 ; 0.0
106 ; 2611447.4316271306 ; 2.0200799457670772E8 ; 2.6178846866613922E8 ; 1.971611001660391E10 ; 0.0
107 ; 2605243.2961218613 ; 2.0202269119366723E8 ; 2.6439991609776634E8 ; 1.9918118011180614E10 ; 0.0
108 ; 2601794.4117933568 ; 2.0203737595450914E8 ; 2.670051593938882E8 ; 2.0120140702374283E10 ; 0.0
109 ; 2602441.1389370663 ; 2.020520480530992E8 ; 2.696069538056816E8 ; 2.0322178078328793E10 ; 0.0
110 ; 2600480.2268232955 ; 2.020667067014822E8 ; 2.7220939494461864E8 ; 2.0524230126381893E10 ; 0.0
111 ; 2595822.159722599 ; 2.0208135112915894E8 ; 2.748098751714419E8 ; 2.0726296833083374E10 ; 0.0
112 ; 2591558.46107577 ; 2.0209598058239776E8 ; 2.7740569733116454E8 ; 2.0928378184212532E10 ; 0.0
113 ; 2590347.659255011 ; 2.0211059432357892E8 ; 2.799972557922403E8 ; 2.113047416479493E10 ; 0.0
114 ; 2588776.9107116587 ; 2.0212519163057014E8 ; 2.8258760345149535E8 ; 2.1332584759118507E10 ; 0.0
115 ; 2585950.761655128 ; 2.0213977179613143E8 ; 2.85176380362207E8 ; 2.1534709950749077E10 ; 0.0
116 ; 2579599.486886052 ; 2.0215433412734798E8 ; 2.8776233112386215E8 ; 2.1736849722545208E10 ; 0.0
117 ; 2577368.0942767044 ; 2.0216887794508934E8 ; 2.903419306107482E8 ; 2.1939004056672558E10 ; 0.0
118 ; 2575276.7075617043 ; 2.0218340258349407E8 ; 2.929192987050249E8 ; 2.2141172934617645E10 ; 0.0
119 ; 2575233.985129173 ; 2.0219790738947776E8 ; 2.954945754125866E8 ; 2.2343356337201138E10 ; 0.0
120 ; 2566967.798206248 ; 2.022123917222639E8 ; 2.980698093977158E8 ; 2.2545554244590614E10 ; 0.0
121 ; 2565917.8583373404 ; 2.022268549529363E8 ; 3.006367771959221E8 ; 2.2747766636312878E10 ; 0.0
122 ; 2558635.8106391523 ; 2.0224129646401155E8 ; 3.032026950542594E8 ; 2.2949993491265816E10 ; 0.0
123 ; 2559425.6541111157 ; 2.022557156490312E8 ; 3.0576133086489856E8 ; 2.3152234787729828E10 ; 0.0
124 ; 2553137.084478197 ; 2.02270111912172E8 ; 3.0832075651900965E8 ; 2.335449050337886E10 ; 0.0
125 ; 2551298.5967959203 ; 2.0228448466787374E8 ; 3.1087389360348785E8 ; 2.355676061529103E10 ; 0.0
126 ; 2547013.5831395527 ; 2.0229883334048373E8 ; 3.1342519220028377E8 ; 2.3759045099958904E10 ; 0.0
127 ; 2545475.503604844 ; 2.023131573639169E8 ; 3.159722057834233E8 ; 2.396134393329939E10 ; 0.0
128 ; 2541087.4276590436 ; 2.02327456181331E8 ; 3.1851768128702813E8 ; 2.4163657090663307E10 ; 0.0
129 ; 2538021.606122007 ; 2.0234172924481598E8 ; 3.2105876871468717E8 ; 2.436598454684464E10 ; 0.0
130 ; 2533776.9604827696 ; 2.0235597601509708E8 ; 3.235967903208092E8 ; 2.4568326276089455E10 ; 0.0
131 ; 2525357.149900373 ; 2.0237019596125054E8 ; 3.2613056728129196E8 ; 2.4770682252104553E10 ; 0.0
132 ; 2519730.8932116055 ; 2.0238438856043202E8 ; 3.2865592443119234E8 ; 2.4973052448065804E10 ; 0.0
133 ; 2516895.6505687214 ; 2.0239855329761627E8 ; 3.3117565532440394E8 ; 2.5175436836626236E10 ; 0.0
134 ; 2508988.7388468473 ; 2.024126896653482E8 ; 3.3369255097497267E8 ; 2.537783538992385E10 ; 0.0
135 ; 2502226.810131976 ; 2.0242679716350454E8 ; 3.362015397138195E8 ; 2.55802480795892E10 ; 0.0
136 ; 2491871.0812714538 ; 2.0244087529906553E8 ; 3.387037665239515E8 ; 2.5782674876752705E10 ; 0.0
137 ; 2490567.2464272627 ; 2.0245492358589628E8 ; 3.4119563760522294E8 ; 2.598511575205177E10 ; 0.0
138 ; 2480641.072460415 ; 2.0246894154453725E8 ; 3.436862048516502E8 ; 2.6187570675637665E10 ; 0.0
139 ; 2472551.4094346347 ; 2.0248292870200363E8 ; 3.461668459241106E8 ; 2.63900396171822E10 ; 0.0
140 ; 2466656.1519646067 ; 2.0249688459159288E8 ; 3.486393973335452E8 ; 2.6592522545884205E10 ; 0.0
141 ; 2461802.86941859 ; 2.0251080875270045E8 ; 3.511060534855098E8 ; 2.67950194304758E10 ; 0.0
142 ; 2454942.1403395 ; 2.0252470073064286E8 ; 3.535678563549284E8 ; 2.69975302392285E10 ; 0.0
143 ; 2447874.6031373725 ; 2.0253856007648817E8 ; 3.5602279849526787E8 ; 2.7200054939959145E10 ; 0.0
144 ; 2442579.981645565 ; 2.025523863468934E8 ; 3.5847067309840524E8 ; 2.7402593500035633E10 ; 0.0
145 ; 2436748.5173704033 ; 2.025661791039485E8 ; 3.609132530800508E8 ; 2.7605145886382526E10 ; 0.0
146 ; 2431967.476394658 ; 2.0257993791502658E8 ; 3.633500015974212E8 ; 2.7807712065486473E10 ; 0.0
147 ; 2431211.058152952 ; 2.0259366235264033E8 ; 3.657819690738159E8 ; 2.80102920034015E10 ; 0.0
148 ; 2424701.9334090855 ; 2.02607351994304E8 ; 3.6821318013196886E8 ; 2.8212885665754143E10 ; 0.0
149 ; 2421676.9449695805 ; 2.0262100642240113E8 ; 3.7063788206537795E8 ; 2.8415493017748447E10 ; 0.0
150 ; 2417077.3241521097 ; 2.0263462522405726E8 ; 3.7305955901034755E8 ; 2.861811402417085E10 ; 0.0
151 ; 2411470.1103186454 ; 2.0264820799101794E8 ; 3.7547663633449966E8 ; 2.8820748649394905E10 ; 0.0
152 ; 2410203.3230569093 ; 2.026617543195314E8 ; 3.778881064448183E8 ; 2.902339685738592E10 ; 0.0
153 ; 2404094.6082597035 ; 2.026752638102359E8 ; 3.8029830976787525E8 ; 2.9226058611705452E10 ; 0.0
154 ; 2401166.4540275396 ; 2.026887360680513E8 ; 3.8270240437613493E8 ; 2.9428733875515686E10 ; 0.0
155 ; 2397268.5766183343 ; 2.0270217070207527E8 ; 3.8510357083016247E8 ; 2.9631422611583736E10 ; 0.0
156 ; 2394624.1441123006 ; 2.0271556732548305E8 ; 3.875008394067808E8 ; 2.9834124782285812E10 ; 0.0
157 ; 2388010.139778706 ; 2.0272892555543137E8 ; 3.8989546355089307E8 ; 3.0036840349611294E10 ; 0.0
158 ; 2384003.717654617 ; 2.0274224501296598E8 ; 3.922834736906718E8 ; 3.0239569275166725E10 ; 0.0
159 ; 2381214.1503358637 ; 2.0275552532293284E8 ; 3.9466747740832645E8 ; 3.044231152017969E10 ; 0.0
160 ; 2374914.689638773 ; 2.0276876611389247E8 ; 3.970486915586623E8 ; 3.0645067045502625E10 ; 0.0
161 ; 2374360.2282868316 ; 2.027819670180378E8 ; 3.994236062483011E8 ; 3.0847835811616516E10 ; 0.0
162 ; 2365552.894103179 ; 2.0279512767111498E8 ; 4.017979664765879E8 ; 3.1050617778634552E10 ; 0.0
163 ; 2364161.55773244 ; 2.0280824771234733E8 ; 4.0416351937069106E8 ; 3.1253412906305668E10 ; 0.0
164 ; 2359790.3146031355 ; 2.0282132678436196E8 ; 4.065276809284235E8 ; 3.1456221154018017E10 ; 0.0
165 ; 2356494.8703461173 ; 2.0283436453311935E8 ; 4.088874712430267E8 ; 3.165904248080238E10 ; 0.0
166 ; 2350781.7285180152 ; 2.0284736060784537E8 ; 4.112439661133728E8 ; 3.18618768453355E10 ; 0.0
167 ; 2344595.019020452 ; 2.0286031466096613E8 ; 4.135947478418908E8 ; 3.2064724205943344E10 ; 0.0
168 ; 2343425.7342904564 ; 2.028732263480448E8 ; 4.1593934286091125E8 ; 3.226758452060431E10 ; 0.0
169 ; 2339008.050759428 ; 2.0288609532772127E8 ; 4.1828276859520173E8 ; 3.2470457746952354E10 ; 0.0
170 ; 2333225.168137004 ; 2.0289892126165366E8 ; 4.2062177664596117E8 ; 3.2673343842280075E10 ; 0.0
171 ; 2332931.7565879133 ; 2.029117038144622E8 ; 4.229550018140982E8 ; 3.287624276354173E10 ; 0.0
172 ; 2326277.628599172 ; 2.0292444265367514E8 ; 4.252879335706861E8 ; 3.307915446735619E10 ; 0.0
173 ; 2322189.9865450975 ; 2.0293713744967642E8 ; 4.2761421119928527E8 ; 3.3282078910009865E10 ; 0.0
174 ; 2318565.3677008855 ; 2.0294978787565574E8 ; 4.2993640118583035E8 ; 3.348501604745954E10 ; 0.0
175 ; 2318616.864641599 ; 2.0296239360755992E8 ; 4.322549665535312E8 ; 3.3687965835335197E10 ; 0.0
176 ; 2310458.415960791 ; 2.0297495432404628E8 ; 4.3457358341817284E8 ; 3.3890928228942757E10 ; 0.0
177 ; 2308667.677932645 ; 2.0298746970643786E8 ; 4.368840418341336E8 ; 3.4093903183266804E10 ; 0.0
178 ; 2305594.341241172 ; 2.029999394386799E8 ; 4.3919270951206625E8 ; 3.429689065297324E10 ; 0.0
179 ; 2303980.1454016184 ; 2.030123632072982E8 ; 4.414983038533074E8 ; 3.449989059241192E10 ; 0.0
180 ; 2300798.6211069264 ; 2.030247407013588E8 ; 4.43802283998709E8 ; 3.470290295561922E10 ; 0.0
181 ; 2294034.5426614354 ; 2.030370716124292E8 ; 4.4610308261981595E8 ; 3.490592769632057E10 ; 0.0
182 ; 2293951.1369839194 ; 2.0304935563454103E8 ; 4.483971171624774E8 ; 3.5108964767933E10 ; 0.0
183 ; 2288774.6261381707 ; 2.030615924641538E8 ; 4.506910682994613E8 ; 3.531201412356754E10 ; 0.0
184 ; 2286557.627783336 ; 2.0307378180012026E8 ; 4.5297984292559946E8 ; 3.55150757160317E10 ; 0.0
185 ; 2284029.8381189196 ; 2.030859233436528E8 ; 4.552664005533828E8 ; 3.571814949783182E10 ; 0.0
186 ; 2283000.63206689 ; 2.0309801679829118E8 ; 4.575504303915017E8 ; 3.592123542117547E10 ; 0.0
187 ; 2277573.407454059 ; 2.0311006186987108E8 ; 4.5983343102356863E8 ; 3.612433343797376E10 ; 0.0
188 ; 2277647.6823660084 ; 2.031220582664944E8 ; 4.621110044310227E8 ; 3.6327443499843636E10 ; 0.0
189 ; 2270342.01401355 ; 2.0313400569849992E8 ; 4.643886521133887E8 ; 3.653056555811013E10 ; 0.0
190 ; 2269132.788561049 ; 2.0314590387843546E8 ; 4.6665899412740225E8 ; 3.673369956380863E10 ; 0.0
191 ; 2263275.121139469 ; 2.031577525210308E8 ; 4.689281269159633E8 ; 3.6936845467687065E10 ; 0.0
192 ; 2260696.1003782917 ; 2.0316955134317172E8 ; 4.7119140203710276E8 ; 3.71400032202081E10 ; 0.0
193 ; 2257466.4219482006 ; 2.0318130006387472E8 ; 4.7345209813748103E8 ; 3.734317277155127E10 ; 0.0
194 ; 2255875.8514107424 ; 2.0319299840426302E8 ; 4.757095645594292E8 ; 3.754635407161514E10 ; 0.0
195 ; 2252379.1255587596 ; 2.032046460875429E8 ; 4.7796544041084E8 ; 3.774954707001941E10 ; 0.0
196 ; 2251013.545728024 ; 2.0321624283898127E8 ; 4.802178195363987E8 ; 3.795275171610695E10 ; 0.0
197 ; 2243599.5625334596 ; 2.0322778838588393E8 ; 4.8246883308212674E8 ; 3.815596795894593E10 ; 0.0
198 ; 2242746.626961471 ; 2.0323928245757455E8 ; 4.847124326446602E8 ; 3.835919574733182E10 ; 0.0
199 ; 2239298.8423279673 ; 2.0325072478537428E8 ; 4.8695517927162164E8 ; 3.856243502978939E10 ; 0.0
200 ; 2236172.855652804 ; 2.032621151025824E8 ; 4.891944781139496E8 ; 3.876568575457477E10 ; 0.0
