CSV File for the City 3 on Day 64
1 - Minute m 
2 - Power Consumed at minute m 
3 - Power Produced at minute m 
4 - Energy Consumed since the beginning of the day 
5 - Energy Produced since the beginning of the day 
6 - Energy Lost since the beginning of the day on lines starting from the city
 
0 ; 2375307.663829718 ; 1.0545969768873164E8 ; 0.0 ; 0.0 ; 0.0
1 ; 2378894.046774031 ; 1.056125704083938E8 ; 2375307.663829718 ; 1.0545969768873164E8 ; 0.0
2 ; 2380629.594731151 ; 1.0607423123995999E8 ; 4754201.710603749 ; 2.1107226809712544E8 ; 0.0
3 ; 2382636.9346017065 ; 1.0684468222195494E8 ; 7134831.3053349005 ; 3.171464993370854E8 ; 0.0
4 ; 2386243.5267719976 ; 1.0792392519079226E8 ; 9517468.239936607 ; 4.2399118155904037E8 ; 0.0
5 ; 2391121.6669956874 ; 1.0931196176743084E8 ; 1.1903711766708605E7 ; 5.3191510674983263E8 ; 0.0
6 ; 2397399.6951652956 ; 1.1100879334529439E8 ; 1.4294833433704292E7 ; 6.412270685172634E8 ; 0.0
7 ; 2402970.8890832304 ; 1.1301442107965845E8 ; 1.6692233128869588E7 ; 7.522358618625578E8 ; 0.0
8 ; 2413975.888614719 ; 1.1532884587869018E8 ; 1.909520401795282E7 ; 8.652502829422162E8 ; 0.0
9 ; 2432112.842515873 ; 1.1795206839630246E8 ; 2.1509179906567536E7 ; 9.805791288209064E8 ; 0.0
10 ; 2459349.415350012 ; 1.208840890269512E8 ; 2.3941292749083407E7 ; 1.0985311972172089E9 ; 0.0
11 ; 2498561.068306773 ; 1.2412490790247533E8 ; 2.640064216443342E7 ; 1.2194152862441602E9 ; 0.0
12 ; 2566048.997722677 ; 1.2767452489103588E8 ; 2.8899203232740194E7 ; 1.3435401941466355E9 ; 0.0
13 ; 2629379.3112396807 ; 1.3153293959817696E8 ; 3.146525223046287E7 ; 1.4712147190376713E9 ; 0.0
14 ; 2637827.3563555484 ; 1.3570015136998576E8 ; 3.409463154170255E7 ; 1.6027476586358483E9 ; 0.0
15 ; 2642168.5267736223 ; 1.4017615929829502E8 ; 3.67324588980581E7 ; 1.738447810005834E9 ; 0.0
16 ; 2642621.6330083283 ; 1.449609622278293E8 ; 3.9374627424831726E7 ; 1.8786239693041291E9 ; 0.0
17 ; 2645012.893661526 ; 1.5005455876516482E8 ; 4.201724905784006E7 ; 2.0235849315319583E9 ; 0.0
18 ; 2649138.975641636 ; 1.554569472893427E8 ; 4.4662261951501586E7 ; 2.173639490297123E9 ; 0.0
19 ; 2651022.3911502976 ; 1.6116812596394935E8 ; 4.731140092714322E7 ; 2.329096437586466E9 ; 0.0
20 ; 2653959.602067637 ; 1.6718809275046E8 ; 4.996242331829352E7 ; 2.490264563550415E9 ; 0.0
21 ; 2657658.633934028 ; 1.7351684542262724E8 ; 5.2616382920361154E7 ; 2.657452656300875E9 ; 0.0
22 ; 2660618.15519352 ; 1.8015438158169055E8 ; 5.527404155429518E7 ; 2.8309695017235026E9 ; 0.0
23 ; 2662433.383349595 ; 1.8710069867217982E8 ; 5.7934659709488705E7 ; 3.011123883305193E9 ; 0.0
24 ; 2666193.085177484 ; 1.943557939980927E8 ; 6.05970930928383E7 ; 3.1982245819773726E9 ; 0.0
25 ; 2670021.2714471337 ; 2.0060770563741535E8 ; 6.326328617801578E7 ; 3.3925803759754653E9 ; 0.0
26 ; 2673319.2383818533 ; 2.006099784953172E8 ; 6.593330744946292E7 ; 3.5931880816128807E9 ; 0.0
27 ; 2676853.83108713 ; 2.006123788451319E8 ; 6.860662668784477E7 ; 3.7937980601081977E9 ; 0.0
28 ; 2680173.821839439 ; 2.0061490359082314E8 ; 7.12834805189319E7 ; 3.9944104389533296E9 ; 0.0
29 ; 2681288.97964867 ; 2.0061754957539594E8 ; 7.396365434077133E7 ; 4.1950253425441527E9 ; 0.0
30 ; 2683850.376293924 ; 2.0062031359541532E8 ; 7.664494332042E7 ; 4.395642892119549E9 ; 0.0
31 ; 2686067.0699913967 ; 2.0062319241477823E8 ; 7.932879369671392E7 ; 4.596263205714964E9 ; 0.0
32 ; 2689111.5668725856 ; 2.0062618277766177E8 ; 8.201486076670532E7 ; 4.796886398129742E9 ; 0.0
33 ; 2693038.370782717 ; 2.0062928142059043E8 ; 8.47039723335779E7 ; 4.997512580907403E9 ; 0.0
34 ; 2695277.880721645 ; 2.0063248508358508E8 ; 8.739701070436062E7 ; 5.198141862327993E9 ; 0.0
35 ; 2696600.5728449062 ; 2.006357905203735E8 ; 9.009228858508226E7 ; 5.398774347411578E9 ; 0.0
36 ; 2700825.301829839 ; 2.006391945076573E8 ; 9.278888915792717E7 ; 5.5994101379319515E9 ; 0.0
37 ; 2702958.292464857 ; 2.006426938534448E8 ; 9.548971445975702E7 ; 5.800049332439609E9 ; 0.0
38 ; 2705571.7982708765 ; 2.0064628540447024E8 ; 9.819267275222187E7 ; 6.000692026293054E9 ; 0.0
39 ; 2706246.6589888544 ; 2.0064996605272877E8 ; 1.0089824455049275E8 ; 6.201338311697524E9 ; 0.0
40 ; 2709036.8762230817 ; 2.006537327411662E8 ; 1.036044912094816E8 ; 6.401988277750253E9 ; 0.0
41 ; 2708893.6116371406 ; 2.0065758246856603E8 ; 1.0631352808570468E8 ; 6.602642010491419E9 ; 0.0
42 ; 2713255.9531836724 ; 2.0066151229368252E8 ; 1.0902242169734183E8 ; 6.803299592959985E9 ; 0.0
43 ; 2714319.5041757873 ; 2.006655193386702E8 ; 1.117356776505255E8 ; 7.003961105253667E9 ; 0.0
44 ; 2715897.81904728 ; 2.006696007918627E8 ; 1.1444999715470128E8 ; 7.204626624592337E9 ; 0.0
45 ; 2717390.040953861 ; 2.006737539099536E8 ; 1.1716589497374856E8 ; 7.405296225384199E9 ; 0.0
46 ; 2718544.6942183594 ; 2.0067797601963195E8 ; 1.1988328501470242E8 ; 7.605969979294153E9 ; 0.0
47 ; 2720267.9985522125 ; 2.0068226451872426E8 ; 1.2260182970892078E8 ; 7.806647955313786E9 ; 0.0
48 ; 2720245.07356073 ; 2.0068661687689212E8 ; 1.25322097707473E8 ; 8.00733021983251E9 ; 0.0
49 ; 2723226.0676791947 ; 2.0069103063593394E8 ; 1.2804234278103372E8 ; 8.208016836709402E9 ; 0.0
50 ; 2722936.8379904344 ; 2.0069550340973508E8 ; 1.3076556884871292E8 ; 8.408707867345336E9 ; 0.0
51 ; 2725133.6793705565 ; 2.0070003288390943E8 ; 1.3348850568670335E8 ; 8.609403370755072E9 ; 0.0
52 ; 2724194.8909954303 ; 2.0070461681517142E8 ; 1.362136393660739E8 ; 8.81010340363898E9 ; 0.0
53 ; 2726721.530878043 ; 2.0070925303047544E8 ; 1.3893783425706935E8 ; 9.010808020454153E9 ; 0.0
54 ; 2727106.491885633 ; 2.007139394259562E8 ; 1.416645557879474E8 ; 9.211517273484629E9 ; 0.0
55 ; 2726376.0265739113 ; 2.0071867396570063E8 ; 1.4439166227983302E8 ; 9.412231212910585E9 ; 0.0
56 ; 2725619.948497772 ; 2.0072345468037945E8 ; 1.4711803830640692E8 ; 9.612949886876286E9 ; 0.0
57 ; 2728406.6414100523 ; 2.0072827966576356E8 ; 1.498436582549047E8 ; 9.813673341556665E9 ; 0.0
58 ; 2729172.9616294624 ; 2.007331470811479E8 ; 1.5257206489631474E8 ; 1.001440162122243E10 ; 0.0
59 ; 2728887.0004022936 ; 2.0073805514770317E8 ; 1.553012378579442E8 ; 1.0215134768303577E10 ; 0.0
60 ; 2730012.29968807 ; 2.0074300214677322E8 ; 1.580301248583465E8 ; 1.041587282345128E10 ; 0.0
61 ; 2730024.3384934803 ; 2.0074798641813427E8 ; 1.6076013715803456E8 ; 1.0616615825598053E10 ; 0.0
62 ; 2731080.6080705747 ; 2.0075300635822982E8 ; 1.6349016149652803E8 ; 1.0817363812016188E10 ; 0.0
63 ; 2732289.9674109896 ; 2.0075806041839325E8 ; 1.662212421045986E8 ; 1.1018116818374418E10 ; 0.0
64 ; 2733219.408546184 ; 2.0076314710306948E8 ; 1.689535320720096E8 ; 1.1218874878792812E10 ; 0.0
65 ; 2732526.18256974 ; 2.0076826496804363E8 ; 1.7168675148055577E8 ; 1.1419638025895882E10 ; 0.0
66 ; 2732963.2214843505 ; 2.0077341261868584E8 ; 1.7441927766312551E8 ; 1.1620406290863926E10 ; 0.0
67 ; 2733299.798614553 ; 2.0077858870821774E8 ; 1.7715224088460988E8 ; 1.1821179703482613E10 ; 0.0
68 ; 2735315.8421299197 ; 2.0078379193600693E8 ; 1.7988554068322444E8 ; 1.202195829219083E10 ; 0.0
69 ; 2732917.9003331447 ; 2.0078902104589376E8 ; 1.8262085652535436E8 ; 1.2222742084126837E10 ; 0.0
70 ; 2733481.2995682876 ; 2.0079427482455406E8 ; 1.853537744256875E8 ; 1.2423531105172731E10 ; 0.0
71 ; 2734820.6857093936 ; 2.0079955209990123E8 ; 1.880872557252558E8 ; 1.2624325379997286E10 ; 0.0
72 ; 2733448.7348352056 ; 2.0080485173952988E8 ; 1.9082207641096517E8 ; 1.2825124932097187E10 ; 0.0
73 ; 2734268.8991528857 ; 2.0081017264920256E8 ; 1.9355552514580038E8 ; 1.3025929783836718E10 ; 0.0
74 ; 2734087.4570630467 ; 2.008155137713814E8 ; 1.9628979404495326E8 ; 1.322673995648592E10 ; 0.0
75 ; 2734410.357591354 ; 2.008208740838052E8 ; 1.990238815020163E8 ; 1.3427555470257301E10 ; 0.0
76 ; 2734811.9248722335 ; 2.0082625259811243E8 ; 2.0175829185960767E8 ; 1.3628376344341106E10 ; 0.0
77 ; 2735269.6393691874 ; 2.0083164835851046E8 ; 2.044931037844799E8 ; 1.3829202596939219E10 ; 0.0
78 ; 2734773.881760304 ; 2.0083706044049087E8 ; 2.0722837342384908E8 ; 1.403003424529773E10 ; 0.0
79 ; 2733421.9553389396 ; 2.008424879495904E8 ; 2.0996314730560938E8 ; 1.423087130573822E10 ; 0.0
80 ; 2732816.6292638285 ; 2.008479300201972E8 ; 2.126965692609483E8 ; 1.443171379368781E10 ; 0.0
81 ; 2731118.384678184 ; 2.0085338581440142E8 ; 2.1542938589021212E8 ; 1.4632561723708008E10 ; 0.0
82 ; 2732244.164493431 ; 2.0085885452088934E8 ; 2.181605042748903E8 ; 1.483341510952241E10 ; 0.0
83 ; 2731713.8809040426 ; 2.0086433535388044E8 ; 2.2089274843938375E8 ; 1.5034273964043299E10 ; 0.0
84 ; 2728764.6052945675 ; 2.0086982755210587E8 ; 2.236244623202878E8 ; 1.5235138299397179E10 ; 0.0
85 ; 2728874.4839959363 ; 2.008753303778276E8 ; 2.2635322692558235E8 ; 1.5436008126949284E10 ; 0.0
86 ; 2729081.793401326 ; 2.008808431158967E8 ; 2.290821014095783E8 ; 1.563688345732711E10 ; 0.0
87 ; 2727709.6558774174 ; 2.0088636507285008E8 ; 2.3181118320297962E8 ; 1.5837764300443007E10 ; 0.0
88 ; 2726825.5221045357 ; 2.008918955760439E8 ; 2.3453889285885704E8 ; 1.6038650665515856E10 ; 0.0
89 ; 2725247.019901934 ; 2.00897433972823E8 ; 2.3726571838096157E8 ; 1.62395425610919E10 ; 0.0
90 ; 2724658.0730055273 ; 2.0090297962972456E8 ; 2.399909654008635E8 ; 1.6440439995064722E10 ; 0.0
91 ; 2722136.7652655607 ; 2.00908531931715E8 ; 2.4271562347386903E8 ; 1.6641342974694447E10 ; 0.0
92 ; 2723329.7777810777 ; 2.0091409028145918E8 ; 2.4543776023913458E8 ; 1.6842251506626162E10 ; 0.0
93 ; 2721375.0895246714 ; 2.0091965409862006E8 ; 2.4816109001691565E8 ; 1.7043165596907621E10 ; 0.0
94 ; 2720351.281326827 ; 2.0092522281918824E8 ; 2.508824651064403E8 ; 1.724408525100624E10 ; 0.0
95 ; 2719214.132164559 ; 2.0093079589483988E8 ; 2.5360281638776714E8 ; 1.7445010473825428E10 ; 0.0
96 ; 2717126.5112003474 ; 2.0093637279232192E8 ; 2.563220305199317E8 ; 1.764594126972027E10 ; 0.0
97 ; 2715535.871611666 ; 2.009419529928635E8 ; 2.5903915703113204E8 ; 1.784687764251259E10 ; 0.0
98 ; 2714577.9128966676 ; 2.0094753599161267E8 ; 2.617546929027437E8 ; 1.804781959550545E10 ; 0.0
99 ; 2713224.628874366 ; 2.00953121297097E8 ; 2.6446927081564036E8 ; 1.8248767131497063E10 ; 0.0
100 ; 2712648.2234423878 ; 2.0095870843070737E8 ; 2.6718249544451472E8 ; 1.844972025279416E10 ; 0.0
101 ; 2712118.1948848576 ; 2.009642969262039E8 ; 2.698951436679571E8 ; 1.8650678961224865E10 ; 0.0
102 ; 2710279.4754358735 ; 2.0096988632924303E8 ; 2.7260726186284196E8 ; 1.885164325815107E10 ; 0.0
103 ; 2708298.567655625 ; 2.0097547619692466E8 ; 2.753175413382778E8 ; 1.9052613144480312E10 ; 0.0
104 ; 2708486.6733496087 ; 2.0098106609735897E8 ; 2.7802583990593344E8 ; 1.925358862067724E10 ; 0.0
105 ; 2704577.099871483 ; 2.0098665560925165E8 ; 2.8073432657928306E8 ; 1.9454569686774597E10 ; 0.0
106 ; 2705487.890008044 ; 2.0099224432150662E8 ; 2.834389036791545E8 ; 1.965555634238385E10 ; 0.0
107 ; 2702891.088301212 ; 2.009978318328461E8 ; 2.8614439156916255E8 ; 1.9856548586705357E10 ; 0.0
108 ; 2702401.7151301187 ; 2.0100341775144657E8 ; 2.888472826574638E8 ; 2.0057546418538204E10 ; 0.0
109 ; 2700373.9242234537 ; 2.0100900169459033E8 ; 2.915496843725939E8 ; 2.025854983628965E10 ; 0.0
110 ; 2698437.955951559 ; 2.010145832883318E8 ; 2.9425005829681736E8 ; 2.045955883798424E10 ; 0.0
111 ; 2697238.6300570406 ; 2.0102016216717803E8 ; 2.9694849625276893E8 ; 2.066057342127257E10 ; 0.0
112 ; 2695986.2545991684 ; 2.0102573797378263E8 ; 2.99645734882826E8 ; 2.086159358343975E10 ; 0.0
113 ; 2694465.5537895276 ; 2.0103131035865268E8 ; 3.023417211374251E8 ; 2.1062619321413532E10 ; 0.0
114 ; 2692081.4422324747 ; 2.0103687897986796E8 ; 3.050361866912147E8 ; 2.1263650631772186E10 ; 0.0
115 ; 2690619.1335488805 ; 2.010424435028119E8 ; 3.077282681334472E8 ; 2.1464687510752056E10 ; 0.0
116 ; 2688593.6925085303 ; 2.0104800359991395E8 ; 3.10418887266996E8 ; 2.1665729954254868E10 ; 0.0
117 ; 2688259.7870922973 ; 2.010535589504024E8 ; 3.1310748095950454E8 ; 2.1866777957854782E10 ; 0.0
118 ; 2684991.1531177345 ; 2.0105910924006787E8 ; 3.157957407465968E8 ; 2.2067831516805183E10 ; 0.0
119 ; 2683496.267406201 ; 2.010646541610363E8 ; 3.184807318997145E8 ; 2.226889062604525E10 ; 0.0
120 ; 2681936.1043316307 ; 2.0107019341155162E8 ; 3.2116422816712075E8 ; 2.2469955280206287E10 ; 0.0
121 ; 2680866.2493278976 ; 2.0107572669576693E8 ; 3.2384616427145237E8 ; 2.267102547361784E10 ; 0.0
122 ; 2677488.7913219593 ; 2.010812537235448E8 ; 3.2652703052078027E8 ; 2.2872101200313606E10 ; 0.0
123 ; 2675899.805410012 ; 2.0108677421026546E8 ; 3.292045193121022E8 ; 2.307318245403715E10 ; 0.0
124 ; 2675137.975438691 ; 2.0109228787664273E8 ; 3.318804191175122E8 ; 2.3274269228247417E10 ; 0.0
125 ; 2672315.970299499 ; 2.0109779444854775E8 ; 3.3455555709295094E8 ; 2.347536151612406E10 ; 0.0
126 ; 2669916.6033753185 ; 2.011032936568395E8 ; 3.372278730632504E8 ; 2.367645931057261E10 ; 0.0
127 ; 2669465.303633841 ; 2.0110878523720244E8 ; 3.3989778966662574E8 ; 2.387756260422945E10 ; 0.0
128 ; 2667014.5645033745 ; 2.011142689299907E8 ; 3.425672549702596E8 ; 2.4078671389466652E10 ; 0.0
129 ; 2663613.6063960562 ; 2.011197444800782E8 ; 3.45234269534763E8 ; 2.427978565839664E10 ; 0.0
130 ; 2662423.928523332 ; 2.0112521163671508E8 ; 3.4789788314115906E8 ; 2.448090540287672E10 ; 0.0
131 ; 2659674.291741874 ; 2.0113067015338987E8 ; 3.5056030706968236E8 ; 2.4682030614513435E10 ; 0.0
132 ; 2657824.3418318443 ; 2.0113611978769675E8 ; 3.532199813614242E8 ; 2.4883161284666824E10 ; 0.0
133 ; 2654451.338424066 ; 2.011415603012085E8 ; 3.558778057032561E8 ; 2.508429740445452E10 ; 0.0
134 ; 2652721.592817637 ; 2.0114699145935428E8 ; 3.5853225704168016E8 ; 2.528543896475573E10 ; 0.0
135 ; 2648707.8758770255 ; 2.0115241303130206E8 ; 3.611849786344978E8 ; 2.5486585956215084E10 ; 0.0
136 ; 2644357.864700581 ; 2.011578247898459E8 ; 3.6383368651037484E8 ; 2.5687738369246387E10 ; 0.0
137 ; 2641935.004084723 ; 2.0116322651129746E8 ; 3.664780443750754E8 ; 2.5888896194036232E10 ; 0.0
138 ; 2637643.60344547 ; 2.011686179753818E8 ; 3.691199793791601E8 ; 2.609005942054753E10 ; 0.0
139 ; 2635901.5195508865 ; 2.0117399896513706E8 ; 3.717576229826056E8 ; 2.629122803852291E10 ; 0.0
140 ; 2633416.0560076805 ; 2.0117936926681826E8 ; 3.7439352450215644E8 ; 2.649240203748805E10 ; 0.0
141 ; 2631004.7371537406 ; 2.0118472866980457E8 ; 3.770269405581641E8 ; 2.6693581406754868E10 ; 0.0
142 ; 2627621.7935373075 ; 2.0119007696651024E8 ; 3.796579452953179E8 ; 2.689476613542467E10 ; 0.0
143 ; 2624767.826075542 ; 2.0119541395229876E8 ; 3.822855670888552E8 ; 2.7095956212391182E10 ; 0.0
144 ; 2621484.1446462637 ; 2.012007394254006E8 ; 3.8491033491493076E8 ; 2.729715162634348E10 ; 0.0
145 ; 2619415.744900764 ; 2.012060531868337E8 ; 3.8753181905957705E8 ; 2.749835236576888E10 ; 0.0
146 ; 2616116.34965314 ; 2.0121135504032722E8 ; 3.901512348044778E8 ; 2.769955841895571E10 ; 0.0
147 ; 2614010.197491717 ; 2.0121664479224792E8 ; 3.9276735115413094E8 ; 2.790076977399604E10 ; 0.0
148 ; 2613312.1960830623 ; 2.0122192225152948E8 ; 3.9538136135162264E8 ; 2.810198641878829E10 ; 0.0
149 ; 2612341.3195815347 ; 2.0122718722960445E8 ; 3.979946735477057E8 ; 2.8303208341039818E10 ; 0.0
150 ; 2609033.455338836 ; 2.0123243954033855E8 ; 4.006070148672872E8 ; 2.850443552826942E10 ; 0.0
151 ; 2606287.431344056 ; 2.0123767899996758E8 ; 4.0321604832262605E8 ; 2.870566796780976E10 ; 0.0
152 ; 2603943.2845768044 ; 2.0124290542703655E8 ; 4.058223357539701E8 ; 2.890690564680973E10 ; 0.0
153 ; 2601840.1604167144 ; 2.0124811864234108E8 ; 4.084262790385469E8 ; 2.9108148552236767E10 ; 0.0
154 ; 2598295.4808723517 ; 2.0125331846887094E8 ; 4.1102811919896364E8 ; 2.930939667087911E10 ; 0.0
155 ; 2597381.0897259507 ; 2.0125850473175564E8 ; 4.13626414679836E8 ; 2.951064998934798E10 ; 0.0
156 ; 2593712.0590553796 ; 2.0126367725821203E8 ; 4.1622379576956195E8 ; 2.9711908494079735E10 ; 0.0
157 ; 2593571.316012357 ; 2.0126883587749374E8 ; 4.1881750782861733E8 ; 2.9913172171337948E10 ; 0.0
158 ; 2589121.3701605666 ; 2.0127398042084244E8 ; 4.214110791446297E8 ; 3.0114441007215443E10 ; 0.0
159 ; 2587680.130171319 ; 2.012791107214409E8 ; 4.240002005147903E8 ; 3.0315714987636284E10 ; 0.0
160 ; 2586528.2895844355 ; 2.0128422661436784E8 ; 4.265878806449616E8 ; 3.0516994098357723E10 ; 0.0
161 ; 2582706.999510326 ; 2.0128932793655396E8 ; 4.2917440893454605E8 ; 3.071827832497209E10 ; 0.0
162 ; 2581149.2223741612 ; 2.012944145267401E8 ; 4.317571159340564E8 ; 3.0919567652908646E10 ; 0.0
163 ; 2578039.340495042 ; 2.0129948622543657E8 ; 4.3433826515643054E8 ; 3.1120862067435387E10 ; 0.0
164 ; 2577314.7452673 ; 2.0130454287488386E8 ; 4.369163044969256E8 ; 3.1322161553660824E10 ; 0.0
165 ; 2573996.266091069 ; 2.0130958431901488E8 ; 4.3949361924219286E8 ; 3.152346609653571E10 ; 0.0
166 ; 2572377.1663399693 ; 2.013146104034185E8 ; 4.420676155082839E8 ; 3.1724775680854725E10 ; 0.0
167 ; 2569209.975772488 ; 2.0131962097530445E8 ; 4.446399926746239E8 ; 3.1926090291258144E10 ; 0.0
168 ; 2566759.7619912066 ; 2.013246158834691E8 ; 4.472092026503964E8 ; 3.2127409912233448E10 ; 0.0
169 ; 2563070.9681554087 ; 2.0132959497826284E8 ; 4.497759624123876E8 ; 3.2328734528116917E10 ; 0.0
170 ; 2562239.1774490573 ; 2.013345581115584E8 ; 4.52339033380543E8 ; 3.253006412309518E10 ; 0.0
171 ; 2560720.372743015 ; 2.0133950513672027E8 ; 4.5490127255799204E8 ; 3.2731398681206738E10 ; 0.0
172 ; 2557960.7642893307 ; 2.0134443590857512E8 ; 4.5746199293073505E8 ; 3.2932738186343456E10 ; 0.0
173 ; 2553820.6773974732 ; 2.0134935028338343E8 ; 4.600199536950244E8 ; 3.3134082622252033E10 ; 0.0
174 ; 2554455.177034746 ; 2.0135424811881185E8 ; 4.6257377437242186E8 ; 3.3335431972535416E10 ; 0.0
175 ; 2551681.8211660692 ; 2.0135912927390674E8 ; 4.651282295494566E8 ; 3.353678622065423E10 ; 0.0
176 ; 2552211.712696354 ; 2.0136399360906833E8 ; 4.676799113706227E8 ; 3.3738145349928135E10 ; 0.0
177 ; 2549958.503362454 ; 2.0136884098602608E8 ; 4.7023212308331907E8 ; 3.3939509343537205E10 ; 0.0
178 ; 2549274.1616243776 ; 2.0137367126781455E8 ; 4.7278208158668154E8 ; 3.414087818452323E10 ; 0.0
179 ; 2546527.466632786 ; 2.0137848431875038E8 ; 4.753313557483059E8 ; 3.4342251855791046E10 ; 0.0
180 ; 2545875.962404313 ; 2.013832800044099E8 ; 4.778778832149387E8 ; 3.4543630340109795E10 ; 0.0
181 ; 2544610.0267119682 ; 2.013880581916074E8 ; 4.80423759177343E8 ; 3.4745013620114204E10 ; 0.0
182 ; 2542741.440261555 ; 2.013928187483743E8 ; 4.8296836920405495E8 ; 3.494640167830581E10 ; 0.0
183 ; 2541178.1155193797 ; 2.01397561543939E8 ; 4.855111106443165E8 ; 3.5147794497054184E10 ; 0.0
184 ; 2539316.5912014074 ; 2.014022864487072E8 ; 4.880522887598359E8 ; 3.534919205859812E10 ; 0.0
185 ; 2538390.6756892325 ; 2.0140699333424324E8 ; 4.905916053510373E8 ; 3.555059434504683E10 ; 0.0
186 ; 2536064.726897728 ; 2.0141168207325166E8 ; 4.9312999602672654E8 ; 3.575200133838107E10 ; 0.0
187 ; 2534105.175883198 ; 2.014163525395596E8 ; 4.9566606075362426E8 ; 3.595341302045432E10 ; 0.0
188 ; 2535384.4600578514 ; 2.014210046080998E8 ; 4.9820016592950743E8 ; 3.615482937299388E10 ; 0.0
189 ; 2534353.129561761 ; 2.0142563815489405E8 ; 5.007355503895653E8 ; 3.635625037760198E10 ; 0.0
190 ; 2531525.1598870694 ; 2.0143025305703723E8 ; 5.032699035191271E8 ; 3.6557676015756874E10 ; 0.0
191 ; 2528376.9736785227 ; 2.0143484919268188E8 ; 5.0580142867901415E8 ; 3.675910626881391E10 ; 0.0
192 ; 2528081.557164918 ; 2.014394264410233E8 ; 5.083298056526927E8 ; 3.696054111800659E10 ; 0.0
193 ; 2527278.857869028 ; 2.0144398468228504E8 ; 5.108578872098576E8 ; 3.716198054444762E10 ; 0.0
194 ; 2525842.9831245346 ; 2.0144852379770508E8 ; 5.133851660677266E8 ; 3.73634245291299E10 ; 0.0
195 ; 2523555.5188411875 ; 2.014530436695221E8 ; 5.1591100905085117E8 ; 3.7564873052927605E10 ; 0.0
196 ; 2522228.224659254 ; 2.0145754418096262E8 ; 5.184345645696924E8 ; 3.776632609659713E10 ; 0.0
197 ; 2519945.025946438 ; 2.0146202521622822E8 ; 5.2095679279435164E8 ; 3.796778364077809E10 ; 0.0
198 ; 2519967.211556829 ; 2.0146648666048336E8 ; 5.234767378202981E8 ; 3.8169245665994316E10 ; 0.0
199 ; 2519142.6703677643 ; 2.0147092839984348E8 ; 5.259967050318549E8 ; 3.83707121526548E10 ; 0.0
200 ; 2516852.8462055093 ; 2.0147535032136366E8 ; 5.285158477022227E8 ; 3.857218308105464E10 ; 0.0
