CSV File for the City 6 on Day 200
1 - Minute m 
2 - Power Consumed at minute m 
3 - Power Produced at minute m 
4 - Energy Consumed since the beginning of the day 
5 - Energy Produced since the beginning of the day 
6 - Energy Lost since the beginning of the day on lines starting from the city
 
0 ; 1014037.1234651537 ; 1.0575960535303971E8 ; 0.0 ; 0.0 ; 0.0
1 ; 1028218.5225923811 ; 1.0590994012811714E8 ; 1014037.1234651537 ; 1.0575960535303971E8 ; 0.0
2 ; 1045093.5519280628 ; 1.063693128550773E8 ; 2042255.646057535 ; 2.1166954548115686E8 ; 0.0
3 ; 1053244.4640353222 ; 1.0713773106917894E8 ; 3087349.197985598 ; 3.1803885833623415E8 ; 0.0
4 ; 1076613.0508967072 ; 1.082152016123308E8 ; 4140593.66202092 ; 4.251765894054131E8 ; 0.0
5 ; 1094236.4677557866 ; 1.0960173056633508E8 ; 5217206.712917627 ; 5.333917910177439E8 ; 0.0
6 ; 1126522.9919425868 ; 1.1129732319141534E8 ; 6311443.180673413 ; 6.42993521584079E8 ; 0.0
7 ; 1160364.3805949106 ; 1.1330198387141669E8 ; 7437966.172615999 ; 7.542908447754943E8 ; 0.0
8 ; 1212942.641914891 ; 1.1561571606696987E8 ; 8598330.55321091 ; 8.67592828646911E8 ; 0.0
9 ; 1294022.501326545 ; 1.1823852227776635E8 ; 9811273.195125801 ; 9.832085447138809E8 ; 0.0
10 ; 1420598.7431696896 ; 1.2117040401489305E8 ; 1.1105295696452346E7 ; 1.1014470669916472E9 ; 0.0
11 ; 1619957.284679159 ; 1.2441136178393921E8 ; 1.2525894439622035E7 ; 1.2226174710065403E9 ; 0.0
12 ; 1941187.7374292985 ; 1.2796139507931557E8 ; 1.4145851724301195E7 ; 1.3470288327904794E9 ; 0.0
13 ; 2248200.5239335014 ; 1.318205023899352E8 ; 1.6087039461730493E7 ; 1.474990227869795E9 ; 0.0
14 ; 2283724.072210932 ; 1.359886812161067E8 ; 1.8335239985663995E7 ; 1.6068107302597303E9 ; 0.0
15 ; 2297883.329611036 ; 1.4046592809719926E8 ; 2.0618964057874925E7 ; 1.742799411475837E9 ; 0.0
16 ; 2315007.6401589573 ; 1.4525223864936784E8 ; 2.2916847387485962E7 ; 1.8832653395730362E9 ; 0.0
17 ; 2326555.7600882743 ; 1.5034760761238882E8 ; 2.523185502764492E7 ; 2.028517578222404E9 ; 0.0
18 ; 2346023.161009526 ; 1.5575202890446E8 ; 2.7558410787733197E7 ; 2.1788651858347926E9 ; 0.0
19 ; 2360106.719374787 ; 1.614654956836727E8 ; 2.9904433948742725E7 ; 2.3346172147392526E9 ; 0.0
20 ; 2378655.800346098 ; 1.6748800041476807E8 ; 3.2264540668117512E7 ; 2.4960827104229255E9 ; 0.0
21 ; 2393828.1890559886 ; 1.7381953493975118E8 ; 3.464319646846361E7 ; 2.6635707108376937E9 ; 0.0
22 ; 2408742.7422585622 ; 1.8046009055094278E8 ; 3.7037024657519594E7 ; 2.837390245777445E9 ; 0.0
23 ; 2428888.803855383 ; 1.8740965806510657E8 ; 3.944576739977816E7 ; 3.0178503363283877E9 ; 0.0
24 ; 2442098.656786804 ; 1.9466822789738107E8 ; 4.187465620363354E7 ; 3.205259994393494E9 ; 0.0
25 ; 2457644.706442704 ; 2.0092383103205392E8 ; 4.4316754860420346E7 ; 3.3999282222908754E9 ; 0.0
26 ; 2475296.5257127592 ; 2.0093000512970632E8 ; 4.677439956686305E7 ; 3.6008520533229294E9 ; 0.0
27 ; 2492045.341067736 ; 2.009365091191805E8 ; 4.924969609257581E7 ; 3.801782058452636E9 ; 0.0
28 ; 2504965.1071556564 ; 2.0094333250755337E8 ; 5.174174143364355E7 ; 4.0027185675718164E9 ; 0.0
29 ; 2521654.952610776 ; 2.009504647322033E8 ; 5.424670654079921E7 ; 4.20366190007937E9 ; 0.0
30 ; 2537090.334467222 ; 2.0095789521488968E8 ; 5.6768361493409984E7 ; 4.404612364811573E9 ; 0.0
31 ; 2553605.6418998446 ; 2.0096561341086963E8 ; 5.930545182787721E7 ; 4.605570260026463E9 ; 0.0
32 ; 2566940.7784207487 ; 2.0097360885295945E8 ; 6.1859057469777055E7 ; 4.806535873437332E9 ; 0.0
33 ; 2583224.652110342 ; 2.0098187119055685E8 ; 6.44259982481978E7 ; 5.007509482290292E9 ; 0.0
34 ; 2600185.9813859076 ; 2.0099039022373402E8 ; 6.700922290030815E7 ; 5.208491353480848E9 ; 0.0
35 ; 2611413.7797269276 ; 2.0099915593258503E8 ; 6.960940888169405E7 ; 5.409481743704582E9 ; 0.0
36 ; 2622723.082481968 ; 2.010081585020701E8 ; 7.222082266142097E7 ; 5.610480899637167E9 ; 0.0
37 ; 2641180.276270551 ; 2.010173883426402E8 ; 7.484354574390294E7 ; 5.811489058139237E9 ; 0.0
38 ; 2653834.1337992367 ; 2.0102683610695574E8 ; 7.748472602017349E7 ; 6.012506446481877E9 ; 0.0
39 ; 2665968.637464887 ; 2.0103649270302814E8 ; 8.013856015397273E7 ; 6.213533282588833E9 ; 0.0
40 ; 2675977.85963643 ; 2.010463493041198E8 ; 8.280452879143761E7 ; 6.414569775291861E9 ; 0.0
41 ; 2689563.284520009 ; 2.0105639735573664E8 ; 8.548050665107404E7 ; 6.615616124595981E9 ; 0.0
42 ; 2695109.1604061746 ; 2.010666285800378E8 ; 8.817006993559405E7 ; 6.816672521951717E9 ; 0.0
43 ; 2707249.287875999 ; 2.0107703497797376E8 ; 9.086517909600022E7 ; 7.017739150531755E9 ; 0.0
44 ; 2723245.3339585005 ; 2.010876088294471E8 ; 9.357242838387622E7 ; 7.218816185509729E9 ; 0.0
45 ; 2725934.137581271 ; 2.010983426917699E8 ; 9.629567371783473E7 ; 7.419903794339176E9 ; 0.0
46 ; 2735644.0060098665 ; 2.0110922939667082E8 ; 9.9021607855416E7 ; 7.621002137030946E9 ; 0.0
47 ; 2746177.74940011 ; 2.0112026204608226E8 ; 1.0175725186142586E8 ; 7.822111366427616E9 ; 0.0
48 ; 2753852.953612499 ; 2.011314340069173E8 ; 1.0450342961082597E8 ; 8.023231628473699E9 ; 0.0
49 ; 2759268.7383341496 ; 2.01142738905023E8 ; 1.0725728256443846E8 ; 8.224363062480616E9 ; 0.0
50 ; 2769528.0155751472 ; 2.0115417061847758E8 ; 1.1001655130277261E8 ; 8.425505801385638E9 ; 0.0
51 ; 2775395.148353165 ; 2.011657232703782E8 ; 1.1278607931834775E8 ; 8.626659972004116E9 ; 0.0
52 ; 2781939.4580399394 ; 2.0117739122124878E8 ; 1.1556147446670091E8 ; 8.827825695274494E9 ; 0.0
53 ; 2791883.9303914215 ; 2.0118916906117985E8 ; 1.1834341392474085E8 ; 9.029003086495743E9 ; 0.0
54 ; 2798003.2040213523 ; 2.0120105160179752E8 ; 1.2113529785513227E8 ; 9.230192255556923E9 ; 0.0
55 ; 2799661.9374979963 ; 2.0121303386814418E8 ; 1.2393330105915362E8 ; 9.43139330715872E9 ; 0.0
56 ; 2804513.239493471 ; 2.012251110905417E8 ; 1.2673296299665162E8 ; 9.632606341026865E9 ; 0.0
57 ; 2814844.1212585405 ; 2.012372786964956E8 ; 1.295374762361451E8 ; 9.833831452117407E9 ; 0.0
58 ; 2820649.5425697044 ; 2.0124953230269042E8 ; 1.3235232035740364E8 ; 1.0035068730813902E10 ; 0.0
59 ; 2826629.3216720633 ; 2.0126186770711556E8 ; 1.3517296989997333E8 ; 1.0236318263116592E10 ; 0.0
60 ; 2828621.5890486543 ; 2.012742808813552E8 ; 1.3799959922164539E8 ; 1.0437580130823708E10 ; 0.0
61 ; 2836902.5746602146 ; 2.012867679630678E8 ; 1.4082822081069404E8 ; 1.0638854411705063E10 ; 0.0
62 ; 2842801.9126891824 ; 2.012993252486758E8 ; 1.4366512338535425E8 ; 1.084014117966813E10 ; 0.0
63 ; 2848872.037784499 ; 2.013119491862802E8 ; 1.4650792529804343E8 ; 1.1041440504916807E10 ; 0.0
64 ; 2856331.421193635 ; 2.0132463636881155E8 ; 1.4935679733582792E8 ; 1.1242752454103086E10 ; 0.0
65 ; 2857947.90597996 ; 2.0133738352742425E8 ; 1.5221312875702155E8 ; 1.1444077090471897E10 ; 0.0
66 ; 2863619.8061806005 ; 2.0135018752513835E8 ; 1.550710766630015E8 ; 1.1645414473999321E10 ; 0.0
67 ; 2869512.8191329897 ; 2.013630453507307E8 ; 1.579346964691821E8 ; 1.184676466152446E10 ; 0.0
68 ; 2872688.170339278 ; 2.0137595411287472E8 ; 1.608042092883151E8 ; 1.204812770687519E10 ; 0.0
69 ; 2884119.973127871 ; 2.0138891103452653E8 ; 1.6367689745865437E8 ; 1.2249503660988066E10 ; 0.0
70 ; 2883584.5924587054 ; 2.0140191344755378E8 ; 1.6656101743178225E8 ; 1.2450892572022593E10 ; 0.0
71 ; 2892174.990341846 ; 2.0141495878760207E8 ; 1.6944460202424094E8 ; 1.2652294485470146E10 ; 0.0
72 ; 2897899.023618336 ; 2.0142804458919346E8 ; 1.7233677701458278E8 ; 1.2853709444257748E10 ; 0.0
73 ; 2900541.8578897314 ; 2.0144116848105016E8 ; 1.7523467603820112E8 ; 1.3055137488846941E10 ; 0.0
74 ; 2903997.7367655514 ; 2.0145432818163675E8 ; 1.7813521789609087E8 ; 1.3256578657327991E10 ; 0.0
75 ; 2909430.1021864745 ; 2.0146752149491316E8 ; 1.8103921563285643E8 ; 1.3458032985509628E10 ; 0.0
76 ; 2913264.694415255 ; 2.0148074630629084E8 ; 1.839486457350429E8 ; 1.3659500507004541E10 ; 0.0
77 ; 2917297.2764391657 ; 2.014940005787844E8 ; 1.8686191042945814E8 ; 1.3860981253310833E10 ; 0.0
78 ; 2923900.293962401 ; 2.0150728234935084E8 ; 1.897792077058973E8 ; 1.4062475253889618E10 ; 0.0
79 ; 2922790.9241635646 ; 2.0152058972540805E8 ; 1.927031079998597E8 ; 1.4263982536238968E10 ; 0.0
80 ; 2919687.0590062984 ; 2.0153392088152558E8 ; 1.9562589892402324E8 ; 1.4465503125964376E10 ; 0.0
81 ; 2921063.7690454735 ; 2.0154727405627927E8 ; 1.9854558598302954E8 ; 1.4667037046845901E10 ; 0.0
82 ; 2920379.7228754433 ; 2.0156064754926276E8 ; 2.0146664975207502E8 ; 1.4868584320902182E10 ; 0.0
83 ; 2919792.4641884733 ; 2.01574039718248E8 ; 2.0438702947495046E8 ; 1.5070144968451445E10 ; 0.0
84 ; 2919806.772560391 ; 2.0158744897648838E8 ; 2.0730682193913895E8 ; 1.5271719008169693E10 ; 0.0
85 ; 2922783.5701607675 ; 2.016008737901569E8 ; 2.1022662871169934E8 ; 1.5473306457146181E10 ; 0.0
86 ; 2923579.185854837 ; 2.016143126759133E8 ; 2.131494122818601E8 ; 1.5674907330936338E10 ; 0.0
87 ; 2924257.6908429256 ; 2.016277641985933E8 ; 2.1607299146771494E8 ; 1.5876521643612251E10 ; 0.0
88 ; 2921117.68199684 ; 2.0164122696901417E8 ; 2.1899724915855786E8 ; 1.6078149407810844E10 ; 0.0
89 ; 2919566.7712807003 ; 2.0165469964189073E8 ; 2.219183668405547E8 ; 1.6279790634779858E10 ; 0.0
90 ; 2919314.0315259453 ; 2.0166818091385588E8 ; 2.2483793361183542E8 ; 1.648144533442175E10 ; 0.0
91 ; 2921774.2936745835 ; 2.0168166952158052E8 ; 2.2775724764336136E8 ; 1.6683113515335606E10 ; 0.0
92 ; 2918388.4624955766 ; 2.016951642399879E8 ; 2.3067902193703595E8 ; 1.6884795184857185E10 ; 0.0
93 ; 2919463.253277131 ; 2.0170866388055706E8 ; 2.335974103995315E8 ; 1.7086490349097174E10 ; 0.0
94 ; 2922011.091231442 ; 2.017221672897112E8 ; 2.3651687365280864E8 ; 1.728819901297773E10 ; 0.0
95 ; 2917628.1391693787 ; 2.017356733472863E8 ; 2.3943888474404007E8 ; 1.748992118026744E10 ; 0.0
96 ; 2917947.415296731 ; 2.017491809650758E8 ; 2.4235651288320944E8 ; 1.7691656853614727E10 ; 0.0
97 ; 2914507.8857877585 ; 2.0176268908544737E8 ; 2.4527446029850617E8 ; 1.7893406034579803E10 ; 0.0
98 ; 2915494.7617852706 ; 2.0177619668002844E8 ; 2.4818896818429393E8 ; 1.8095168723665253E10 ; 0.0
99 ; 2917073.050349907 ; 2.0178970274845582E8 ; 2.511044629460792E8 ; 1.829694492034528E10 ; 0.0
100 ; 2913773.787627712 ; 2.0180320631718737E8 ; 2.5402153599642912E8 ; 1.8498734623093735E10 ; 0.0
101 ; 2916026.671076899 ; 2.0181670643837145E8 ; 2.5693530978405684E8 ; 1.8700537829410923E10 ; 0.0
102 ; 2911613.598333814 ; 2.0183020218877164E8 ; 2.5985133645513374E8 ; 1.8902354535849293E10 ; 0.0
103 ; 2912588.173921863 ; 2.0184369266874358E8 ; 2.6276295005346754E8 ; 1.9104184738038063E10 ; 0.0
104 ; 2912468.299047519 ; 2.0185717700126168E8 ; 2.656755382273894E8 ; 1.9306028430706806E10 ; 0.0
105 ; 2908865.8414963814 ; 2.0187065433099213E8 ; 2.685880065264369E8 ; 1.950788560770807E10 ; 0.0
106 ; 2908949.1490524723 ; 2.018841238234111E8 ; 2.7149687236793333E8 ; 1.9709756262039062E10 ; 0.0
107 ; 2904506.194768959 ; 2.0189758466396454E8 ; 2.7440582151698583E8 ; 1.9911640385862473E10 ; 0.0
108 ; 2908784.3651943863 ; 2.0191103605726835E8 ; 2.773103277117548E8 ; 2.0113537970526436E10 ; 0.0
109 ; 2900345.8415360656 ; 2.019244772263463E8 ; 2.802191120769492E8 ; 2.0315449006583706E10 ; 0.0
110 ; 2897267.7551683127 ; 2.0193790741190398E8 ; 2.831194579184852E8 ; 2.051737348381005E10 ; 0.0
111 ; 2896206.036676565 ; 2.019513258716367E8 ; 2.8601672567365354E8 ; 2.0719311391221954E10 ; 0.0
112 ; 2891775.074780304 ; 2.0196473187957E8 ; 2.889129317103301E8 ; 2.092126271709359E10 ; 0.0
113 ; 2894727.1972957947 ; 2.0197812472543088E8 ; 2.918047067851104E8 ; 2.112322744897316E10 ; 0.0
114 ; 2890509.4330442185 ; 2.019915037140478E8 ; 2.946994339824062E8 ; 2.132520557369859E10 ; 0.0
115 ; 2889390.7079774407 ; 2.020048681647787E8 ; 2.975899434154504E8 ; 2.1527197077412636E10 ; 0.0
116 ; 2883431.4517223923 ; 2.0201821741096538E8 ; 3.004793341234278E8 ; 2.1729201945577415E10 ; 0.0
117 ; 2881746.510626293 ; 2.0203155079941243E8 ; 3.033627655751502E8 ; 2.193122016298838E10 ; 0.0
118 ; 2876728.7602744396 ; 2.0204486768989003E8 ; 3.062445120857765E8 ; 2.2133251713787792E10 ; 0.0
119 ; 2877076.643641798 ; 2.020581674546595E8 ; 3.091212408460509E8 ; 2.2335296581477684E10 ; 0.0
120 ; 2871166.911538609 ; 2.0207144947801986E8 ; 3.119983174896927E8 ; 2.2537354748932343E10 ; 0.0
121 ; 2871885.2008706345 ; 2.0208471315587485E8 ; 3.148694844012313E8 ; 2.2739426198410362E10 ; 0.0
122 ; 2867417.8916623164 ; 2.020979578953195E8 ; 3.177413696021019E8 ; 2.294151091156624E10 ; 0.0
123 ; 2864981.230498853 ; 2.0211118311424452E8 ; 3.206087874937642E8 ; 2.314360886946156E10 ; 0.0
124 ; 2861445.1100200196 ; 2.0212438824095893E8 ; 3.234737687242631E8 ; 2.3345720052575806E10 ; 0.0
125 ; 2859358.162264571 ; 2.021375727138284E8 ; 3.263352138342831E8 ; 2.3547844440816765E10 ; 0.0
126 ; 2854319.447993734 ; 2.021507359809304E8 ; 3.291945719965477E8 ; 2.3749982013530594E10 ; 0.0
127 ; 2853202.2019701893 ; 2.0216387749972332E8 ; 3.3204889144454145E8 ; 2.3952132749511524E10 ; 0.0
128 ; 2844707.5725021968 ; 2.021769967367309E8 ; 3.349020936465116E8 ; 2.4154296627011246E10 ; 0.0
129 ; 2841536.204776977 ; 2.0219009316723964E8 ; 3.377468012190138E8 ; 2.435647362374798E10 ; 0.0
130 ; 2838117.897663266 ; 2.0220316627500942E8 ; 3.405883374237908E8 ; 2.455866371691522E10 ; 0.0
131 ; 2830220.8121557734 ; 2.022162155519966E8 ; 3.434264553214541E8 ; 2.4760866883190228E10 ; 0.0
132 ; 2823469.877322838 ; 2.0222924049808854E8 ; 3.462566761336099E8 ; 2.4963083098742226E10 ; 0.0
133 ; 2816240.002509205 ; 2.0224224062084982E8 ; 3.4908014601093274E8 ; 2.5165312339240314E10 ; 0.0
134 ; 2809296.3339731917 ; 2.0225521543527874E8 ; 3.518963860134419E8 ; 2.5367554579861164E10 ; 0.0
135 ; 2802799.8675973094 ; 2.0226816446357435E8 ; 3.547056823474151E8 ; 2.5569809795296444E10 ; 0.0
136 ; 2794179.0288853757 ; 2.0228108723491293E8 ; 3.575084822150124E8 ; 2.5772077959760017E10 ; 0.0
137 ; 2785729.1433714605 ; 2.0229398328523403E8 ; 3.6030266124389774E8 ; 2.597435904699493E10 ; 0.0
138 ; 2775332.2430230454 ; 2.02306852157035E8 ; 3.630883903872692E8 ; 2.6176653030280163E10 ; 0.0
139 ; 2769000.515460235 ; 2.0231969339917445E8 ; 3.6586372263029224E8 ; 2.63789598824372E10 ; 0.0
140 ; 2763508.4240321037 ; 2.0233250656668323E8 ; 3.686327231457525E8 ; 2.6581279575836372E10 ; 0.0
141 ; 2752304.902175384 ; 2.0234529122058368E8 ; 3.713962315697846E8 ; 2.6783612082403057E10 ; 0.0
142 ; 2743427.9507900914 ; 2.023580469277156E8 ; 3.7414853647195995E8 ; 2.6985957373623642E10 ; 0.0
143 ; 2739046.1685586 ; 2.0237077326056987E8 ; 3.7689196442275006E8 ; 2.7188315420551357E10 ; 0.0
144 ; 2727684.4904604307 ; 2.0238346979712835E8 ; 3.7963101059130865E8 ; 2.7390686193811928E10 ; 0.0
145 ; 2726218.8998816074 ; 2.0239613612071025E8 ; 3.823586950817691E8 ; 2.7593069663609055E10 ; 0.0
146 ; 2721172.5121904756 ; 2.0240877181982487E8 ; 3.850849139816507E8 ; 2.7795465799729763E10 ; 0.0
147 ; 2714427.6921254713 ; 2.0242137648802993E8 ; 3.878060864938412E8 ; 2.7997874571549587E10 ; 0.0
148 ; 2711598.1486753905 ; 2.024339497237955E8 ; 3.905205141859667E8 ; 2.8200295948037617E10 ; 0.0
149 ; 2705244.4621202196 ; 2.0244649113037357E8 ; 3.9323211233464205E8 ; 2.8402729897761414E10 ; 0.0
150 ; 2708052.944303968 ; 2.0245900031567237E8 ; 3.959373567967623E8 ; 2.860517638889179E10 ; 0.0
151 ; 2703765.0616373545 ; 2.0247147689213595E8 ; 3.986454097410663E8 ; 2.8807635389207462E10 ; 0.0
152 ; 2696045.2085555536 ; 2.0248392047662807E8 ; 4.013491748027036E8 ; 2.9010106866099598E10 ; 0.0
153 ; 2695378.9438010547 ; 2.024963306903209E8 ; 4.040452200112592E8 ; 2.9212590786576225E10 ; 0.0
154 ; 2689883.123260195 ; 2.0250870715858793E8 ; 4.0674059895506024E8 ; 2.9415087117266544E10 ; 0.0
155 ; 2686626.0033836486 ; 2.025210495109009E8 ; 4.0943048207832044E8 ; 2.9617595824425133E10 ; 0.0
156 ; 2677808.4476209925 ; 2.0253335738073075E8 ; 4.121171080817041E8 ; 2.9820116873936035E10 ; 0.0
157 ; 2678604.816454961 ; 2.0254563040545234E8 ; 4.1479491652932507E8 ; 3.0022650231316765E10 ; 0.0
158 ; 2674077.63809304 ; 2.0255786822625276E8 ; 4.1747352134578E8 ; 3.0225195861722218E10 ; 0.0
159 ; 2672127.6351503576 ; 2.0257007048804325E8 ; 4.2014759898387307E8 ; 3.042775372994847E10 ; 0.0
160 ; 2666711.579475834 ; 2.025822368393742E8 ; 4.2281972661902344E8 ; 3.0630323800436516E10 ; 0.0
161 ; 2662419.147577806 ; 2.025943669323535E8 ; 4.2548643819849926E8 ; 3.083290603727589E10 ; 0.0
162 ; 2655973.165080061 ; 2.02606460422568E8 ; 4.281488573460771E8 ; 3.1035500404208244E10 ; 0.0
163 ; 2652323.3770071445 ; 2.0261851696900767E8 ; 4.3080483051115716E8 ; 3.1238106864630814E10 ; 0.0
164 ; 2648778.755580006 ; 2.0263053623399287E8 ; 4.334571538881643E8 ; 3.1440725381599823E10 ; 0.0
165 ; 2646314.020305023 ; 2.0264251788310418E8 ; 4.361059326437443E8 ; 3.1643355917833817E10 ; 0.0
166 ; 2644255.504511875 ; 2.026544615851146E8 ; 4.387522466640493E8 ; 3.184599843571692E10 ; 0.0
167 ; 2639328.3268327597 ; 2.0266636701192474E8 ; 4.413965021685612E8 ; 3.2048652897302032E10 ; 0.0
168 ; 2634047.6941177137 ; 2.0267823383849996E8 ; 4.44035830495394E8 ; 3.2251319264313957E10 ; 0.0
169 ; 2629118.299498397 ; 2.026900617428099E8 ; 4.466698781895117E8 ; 3.245399749815246E10 ; 0.0
170 ; 2626602.382370526 ; 2.0270185040577042E8 ; 4.492989964890101E8 ; 3.2656687559895267E10 ; 0.0
171 ; 2626238.542471526 ; 2.027135995111874E8 ; 4.519255988713806E8 ; 3.2859389410301037E10 ; 0.0
172 ; 2621114.753563426 ; 2.0272530874570274E8 ; 4.5455183741385216E8 ; 3.3062103009812225E10 ; 0.0
173 ; 2615419.3075780375 ; 2.0273697779874215E8 ; 4.5717295216741556E8 ; 3.326482831855793E10 ; 0.0
174 ; 2610547.8682703576 ; 2.0274860636246502E8 ; 4.597883714749936E8 ; 3.346756529635667E10 ; 0.0
175 ; 2605109.1199351647 ; 2.02760194131716E8 ; 4.623989193432639E8 ; 3.3670313902719135E10 ; 0.0
176 ; 2608166.0202083145 ; 2.0277174080397823E8 ; 4.650040284631991E8 ; 3.3873074096850853E10 ; 0.0
177 ; 2605400.0543379127 ; 2.0278324607932836E8 ; 4.676121944834074E8 ; 3.407584583765483E10 ; 0.0
178 ; 2599794.575192875 ; 2.0279470966039318E8 ; 4.702175945377453E8 ; 3.4278629083734158E10 ; 0.0
179 ; 2597955.4136051796 ; 2.0280613125230762E8 ; 4.7281738911293817E8 ; 3.4481423793394554E10 ; 0.0
180 ; 2592989.4806843824 ; 2.0281751056267458E8 ; 4.754153445265433E8 ; 3.468422992464686E10 ; 0.0
181 ; 2591959.1463700323 ; 2.0282884730152574E8 ; 4.780083340072277E8 ; 3.488704743520953E10 ; 0.0
182 ; 2592052.58287398 ; 2.0284014118128413E8 ; 4.806002931535978E8 ; 3.508987628251106E10 ; 0.0
183 ; 2585759.3311367813 ; 2.0285139191672787E8 ; 4.831923457364718E8 ; 3.5292716423692345E10 ; 0.0
184 ; 2588267.7743101637 ; 2.028625992249551E8 ; 4.8577810506760854E8 ; 3.549556781560907E10 ; 0.0
185 ; 2580430.248990794 ; 2.0287376282535037E8 ; 4.883663728419187E8 ; 3.569843041483402E10 ; 0.0
186 ; 2581342.294463443 ; 2.0288488243955195E8 ; 4.909468030909095E8 ; 3.590130417765937E10 ; 0.0
187 ; 2578584.731351587 ; 2.0289595779142043E8 ; 4.9352814538537294E8 ; 3.610418906009892E10 ; 0.0
188 ; 2574429.7402484864 ; 2.029069886070085E8 ; 4.9610673011672455E8 ; 3.630708501789034E10 ; 0.0
189 ; 2571765.1525981124 ; 2.029179746145315E8 ; 4.9868115985697305E8 ; 3.650999200649735E10 ; 0.0
190 ; 2567843.4090082003 ; 2.0292891554433927E8 ; 5.0125292500957114E8 ; 3.6712909981111885E10 ; 0.0
191 ; 2567057.0386556163 ; 2.02939811128889E8 ; 5.0382076841857934E8 ; 3.691583889665623E10 ; 0.0
192 ; 2560387.997804134 ; 2.029506611027186E8 ; 5.06387825457235E8 ; 3.711877870778512E10 ; 0.0
193 ; 2560673.7564022676 ; 2.0296146520242158E8 ; 5.089482134550391E8 ; 3.732172936888784E10 ; 0.0
194 ; 2556291.684603025 ; 2.0297222316662237E8 ; 5.1150888721144134E8 ; 3.752469083409026E10 ; 0.0
195 ; 2550700.0210087937 ; 2.0298293473595273E8 ; 5.140651788960444E8 ; 3.772766305725689E10 ; 0.0
196 ; 2551586.576296755 ; 2.029935996530288E8 ; 5.1661587891705316E8 ; 3.793064599199284E10 ; 0.0
197 ; 2550125.124057804 ; 2.03004217662429E8 ; 5.191674654933499E8 ; 3.8133639591645874E10 ; 0.0
198 ; 2544726.095582877 ; 2.0301478851067293E8 ; 5.2171759061740774E8 ; 3.8336643809308304E10 ; 0.0
199 ; 2545947.403168273 ; 2.0302531194620055E8 ; 5.2426231671299064E8 ; 3.853965859781898E10 ; 0.0
