CSV File for the City 1 on Day 122
1 - Minute m 
2 - Power Consumed at minute m 
3 - Power Produced at minute m 
4 - Energy Consumed since the beginning of the day 
5 - Energy Produced since the beginning of the day 
6 - Energy Lost since the beginning of the day on lines starting from the city
 
0 ; 1.6232914198302366E7 ; 1.0556239675901148E8 ; 0.0 ; 0.0 ; 0.0
1 ; 1.6252210284951648E7 ; 1.0571535433636522E8 ; 1.6232914198302366E7 ; 1.0556239675901148E8 ; 0.0
2 ; 1.6271435106412329E7 ; 1.061770931713976E8 ; 3.2485124483254015E7 ; 2.112777510953767E8 ; 0.0
3 ; 1.6285683845496314E7 ; 1.0694761464489484E8 ; 4.8756559589666344E7 ; 3.174548442667743E8 ; 0.0
4 ; 1.6313278852988685E7 ; 1.0802691999296188E8 ; 6.5042243435162656E7 ; 4.2440245891166914E8 ; 0.0
5 ; 1.634497574447185E7 ; 1.09415010300623E8 ; 8.135552228815134E7 ; 5.32429378904631E8 ; 0.0
6 ; 1.6388391602420675E7 ; 1.111118864961051E8 ; 9.770049803262319E7 ; 6.418443892052541E8 ; 0.0
7 ; 1.6437104631740678E7 ; 1.1311754934587216E8 ; 1.1408888963504386E8 ; 7.529562757013592E8 ; 0.0
8 ; 1.6512950277691556E7 ; 1.1543199945047355E8 ; 1.3052599426678453E8 ; 8.660738250472313E8 ; 0.0
9 ; 1.6638009922024034E7 ; 1.1805523724125743E8 ; 1.470389445444761E8 ; 9.815058244977049E8 ; 0.0
10 ; 1.6820167669057664E7 ; 1.2098726297799295E8 ; 1.6367695446650013E8 ; 1.0995610617389622E9 ; 0.0
11 ; 1.7107398470700163E7 ; 1.242280767474303E8 ; 1.804971221355578E8 ; 1.2205483247169552E9 ; 0.0
12 ; 1.7572753942657E7 ; 1.2777767846281925E8 ; 1.9760452060625798E8 ; 1.3447764014643855E9 ; 0.0
13 ; 1.801919857864935E7 ; 1.3163606786439067E8 ; 2.1517727454891497E8 ; 1.4725540799272048E9 ; 0.0
14 ; 1.806976783794315E7 ; 1.3580324452079648E8 ; 2.331964731275643E8 ; 1.6041901477915955E9 ; 0.0
15 ; 1.808807854044459E7 ; 1.4027920783148718E8 ; 2.5126624096550745E8 ; 1.739993392312392E9 ; 0.0
16 ; 1.8116324730862517E7 ; 1.4506395702999893E8 ; 2.6935431950595206E8 ; 1.8802726001438792E9 ; 0.0
17 ; 1.8134894917228732E7 ; 1.5015749118810472E8 ; 2.8747064423681456E8 ; 2.0253365571738782E9 ; 0.0
18 ; 1.8158729781836405E7 ; 1.555598092207803E8 ; 3.056055391540433E8 ; 2.175494048361983E9 ; 0.0
19 ; 1.8184181809389394E7 ; 1.6127090989192078E8 ; 3.237642689358797E8 ; 2.331053857582763E9 ; 0.0
20 ; 1.8201724380188506E7 ; 1.6729079182073984E8 ; 3.419484507452691E8 ; 2.492324767474684E9 ; 0.0
21 ; 1.8221772082920942E7 ; 1.7361945348877534E8 ; 3.6015017512545764E8 ; 2.6596155592954235E9 ; 0.0
22 ; 1.8250769129354484E7 ; 1.802568932474203E8 ; 3.783719472083786E8 ; 2.8332350127841988E9 ; 0.0
23 ; 1.8271671115282714E7 ; 1.8720310932589674E8 ; 3.966227163377331E8 ; 3.013491906031619E9 ; 0.0
24 ; 1.8291806608870354E7 ; 1.944580998395847E8 ; 4.148943874530158E8 ; 3.200695015357516E9 ; 0.0
25 ; 1.831161538589408E7 ; 2.007099036968078E8 ; 4.3318619406188613E8 ; 3.3951531151971006E9 ; 0.0
26 ; 1.8333995117274325E7 ; 2.0071206664451665E8 ; 4.514978094477802E8 ; 3.5958630188939085E9 ; 0.0
27 ; 1.83607678642194E7 ; 2.007143558020863E8 ; 4.6983180456505454E8 ; 3.796575085538425E9 ; 0.0
28 ; 1.8381184217007637E7 ; 2.007167689170105E8 ; 4.8819257242927396E8 ; 3.9972894413405113E9 ; 0.0
29 ; 1.8404772089927968E7 ; 2.0071930366702372E8 ; 5.065737566462816E8 ; 4.1980062102575216E9 ; 0.0
30 ; 1.842078300791096E7 ; 2.0072195766886622E8 ; 5.249785287362096E8 ; 4.398725513924545E9 ; 0.0
31 ; 1.84196443231893E7 ; 2.0072472848687488E8 ; 5.433993117441205E8 ; 4.599447471593411E9 ; 0.0
32 ; 1.842465572299395E7 ; 2.0072761364134648E8 ; 5.618189560673097E8 ; 4.800172200080286E9 ; 0.0
33 ; 1.841993994692318E7 ; 2.0073061061662462E8 ; 5.802436117903037E8 ; 5.000899813721633E9 ; 0.0
34 ; 1.8417717854536735E7 ; 2.0073371686886963E8 ; 5.986635517372268E8 ; 5.201630424338258E9 ; 0.0
35 ; 1.842022680833463E7 ; 2.0073692983347785E8 ; 6.170812695917636E8 ; 5.402364141207128E9 ; 0.0
36 ; 1.841964012127452E7 ; 2.0074024693212214E8 ; 6.355014964000982E8 ; 5.603101071040606E9 ; 0.0
37 ; 1.841334299639283E7 ; 2.007436655793934E8 ; 6.539211365213727E8 ; 5.803841317972728E9 ; 0.0
38 ; 1.841253514483426E7 ; 2.0074718318902758E8 ; 6.723344795177655E8 ; 6.004584983552121E9 ; 0.0
39 ; 1.8405818152620435E7 ; 2.0075079717970946E8 ; 6.907470146625998E8 ; 6.205332166741149E9 ; 0.0
40 ; 1.8401755657535773E7 ; 2.007545049804482E8 ; 7.091528328152202E8 ; 6.406082963920858E9 ; 0.0
41 ; 1.8399012977591164E7 ; 2.0075830403552592E8 ; 7.27554588472756E8 ; 6.606837468901306E9 ; 0.0
42 ; 1.839181311504511E7 ; 2.0076219180902317E8 ; 7.459536014503472E8 ; 6.807595772936832E9 ; 0.0
43 ; 1.8388080557865776E7 ; 2.0076616578892943E8 ; 7.643454145653923E8 ; 7.008357964745855E9 ; 0.0
44 ; 1.8377607070665527E7 ; 2.0077022349084994E8 ; 7.82733495123258E8 ; 7.209124130534784E9 ; 0.0
45 ; 1.837242158362369E7 ; 2.0077436246132198E8 ; 8.011111021939235E8 ; 7.409894354025634E9 ; 0.0
46 ; 1.8360302673531175E7 ; 2.0077858028075656E8 ; 8.194835237775471E8 ; 7.610668716486956E9 ; 0.0
47 ; 1.835153411312686E7 ; 2.0078287456602257E8 ; 8.378438264510783E8 ; 7.811447296767713E9 ; 0.0
48 ; 1.8338429274358258E7 ; 2.0078724297269195E8 ; 8.561953605642052E8 ; 8.012230171333735E9 ; 0.0
49 ; 1.8327454443475746E7 ; 2.0079168319696483E8 ; 8.745337898385634E8 ; 8.213017414306427E9 ; 0.0
50 ; 1.8315151787729874E7 ; 2.007961929772949E8 ; 8.928612442820392E8 ; 8.413809097503392E9 ; 0.0
51 ; 1.830183555539356E7 ; 2.0080077009573442E8 ; 9.11176396069769E8 ; 8.614605290480686E9 ; 0.0
52 ; 1.8289446485374693E7 ; 2.008054123790194E8 ; 9.294782316251626E8 ; 8.81540606057642E9 ; 0.0
53 ; 1.8276228381817516E7 ; 2.0081011769941446E8 ; 9.477676781105373E8 ; 9.016211472955439E9 ; 0.0
54 ; 1.827035179141765E7 ; 2.008148839753363E8 ; 9.660439064923548E8 ; 9.217021590654854E9 ; 0.0
55 ; 1.825365419046674E7 ; 2.0081970917177546E8 ; 9.843142582837723E8 ; 9.41783647463019E9 ; 0.0
56 ; 1.8235116985202935E7 ; 2.0082459130053324E8 ; 1.0025679124742391E9 ; 9.618656183801966E9 ; 0.0
57 ; 1.8225015694739774E7 ; 2.0082952842029247E8 ; 1.020803029459442E9 ; 9.819480775102499E9 ; 0.0
58 ; 1.8208726519409806E7 ; 2.0083451863653722E8 ; 1.0390280451541818E9 ; 1.002031030352279E10 ; 0.0
59 ; 1.819671441007775E7 ; 2.0083956010133806E8 ; 1.0572367716735916E9 ; 1.0221144822159328E10 ; 0.0
60 ; 1.8183263113787424E7 ; 2.008446510130171E8 ; 1.0754334860836694E9 ; 1.0421984382260666E10 ; 0.0
61 ; 1.8168005133768808E7 ; 2.0084978961570653E8 ; 1.0936167491974568E9 ; 1.0622829033273684E10 ; 0.0
62 ; 1.815521648691216E7 ; 2.008549741988139E8 ; 1.1117847543312256E9 ; 1.082367882288939E10 ; 0.0
63 ; 1.813373792117291E7 ; 2.0086020309640533E8 ; 1.129939970818138E9 ; 1.1024533797088205E10 ; 0.0
64 ; 1.8123080321554385E7 ; 2.0086547468651855E8 ; 1.1480737087393107E9 ; 1.122539400018461E10 ; 0.0
65 ; 1.8111188828154948E7 ; 2.0087078739041513E8 ; 1.1661967890608652E9 ; 1.1426259474871128E10 ; 0.0
66 ; 1.8092339953701712E7 ; 2.008761396717818E8 ; 1.1843079778890202E9 ; 1.1627130262261543E10 ; 0.0
67 ; 1.808097833500179E7 ; 2.0088153003588897E8 ; 1.202400317842722E9 ; 1.1828006401933325E10 ; 0.0
68 ; 1.8062645370059025E7 ; 2.008869570287146E8 ; 1.2204812961777236E9 ; 1.2028887931969213E10 ; 0.0
69 ; 1.8047455219965998E7 ; 2.0089241923603997E8 ; 1.2385439415477827E9 ; 1.2229774888997929E10 ; 0.0
70 ; 1.8035104590412684E7 ; 2.008979152825243E8 ; 1.2565913967677486E9 ; 1.2430667308233969E10 ; 0.0
71 ; 1.8014936264033537E7 ; 2.0090344383076343E8 ; 1.2746265013581612E9 ; 1.2631565223516493E10 ; 0.0
72 ; 1.8003316546895932E7 ; 2.00909003580338E8 ; 1.2926414376221948E9 ; 1.2832468667347256E10 ; 0.0
73 ; 1.798534711571934E7 ; 2.0091459326685575E8 ; 1.3106447541690907E9 ; 1.3033377670927593E10 ; 0.0
74 ; 1.7969205527015246E7 ; 2.0092021166099164E8 ; 1.32863010128481E9 ; 1.3234292264194448E10 ; 0.0
75 ; 1.7951224865760732E7 ; 2.0092585756753E8 ; 1.3465993068118253E9 ; 1.343521247585544E10 ; 0.0
76 ; 1.7934441906235103E7 ; 2.0093152982441145E8 ; 1.364550531677586E9 ; 1.363613833342297E10 ; 0.0
77 ; 1.7918596883380264E7 ; 2.009372273017874E8 ; 1.3824849735838213E9 ; 1.3837069863247381E10 ; 0.0
78 ; 1.7897751363834824E7 ; 2.0094294890108487E8 ; 1.4004035704672015E9 ; 1.403800709054917E10 ; 0.0
79 ; 1.787361570861696E7 ; 2.0094869355408335E8 ; 1.4183013218310363E9 ; 1.4238950039450254E10 ; 0.0
80 ; 1.785007850860931E7 ; 2.0095446022200567E8 ; 1.4361749375396533E9 ; 1.4439898733004337E10 ; 0.0
81 ; 1.78255475689066E7 ; 2.0096024789462465E8 ; 1.4540250160482626E9 ; 1.4640853193226343E10 ; 0.0
82 ; 1.780387593210884E7 ; 2.0096605558938614E8 ; 1.4718505636171691E9 ; 1.4841813441120968E10 ; 0.0
83 ; 1.778388311286596E7 ; 2.009718823505503E8 ; 1.489654439549278E9 ; 1.5042779496710354E10 ; 0.0
84 ; 1.775802629682595E7 ; 2.009777272483514E8 ; 1.507438322662144E9 ; 1.5243751379060904E10 ; 0.0
85 ; 1.7736563560970332E7 ; 2.0098358937817705E8 ; 1.5251963489589698E9 ; 1.5444729106309256E10 ; 0.0
86 ; 1.771304595173054E7 ; 2.009894678597675E8 ; 1.5429329125199401E9 ; 1.5645712695687433E10 ; 0.0
87 ; 1.7684741796238866E7 ; 2.00995361836435E8 ; 1.5606459584716706E9 ; 1.5846702163547201E10 ; 0.0
88 ; 1.7667599557193667E7 ; 2.0100127047430396E8 ; 1.5783307002679095E9 ; 1.6047697525383636E10 ; 0.0
89 ; 1.7638642192826554E7 ; 2.0100719296157172E8 ; 1.5959982998251033E9 ; 1.624869879585794E10 ; 0.0
90 ; 1.761586225193158E7 ; 2.0101312850779E8 ; 1.6136369420179298E9 ; 1.6449705988819513E10 ; 0.0
91 ; 1.759353474702972E7 ; 2.0101907634316725E8 ; 1.6312528042698615E9 ; 1.6650719117327303E10 ; 0.0
92 ; 1.7568624884147696E7 ; 2.0102503571789148E8 ; 1.6488463390168912E9 ; 1.685173819367047E10 ; 0.0
93 ; 1.7541853332582854E7 ; 2.010310059014735E8 ; 1.666414963901039E9 ; 1.7052763229388361E10 ; 0.0
94 ; 1.751937388971608E7 ; 2.010369861821104E8 ; 1.6839568172336218E9 ; 1.7253794235289833E10 ; 0.0
95 ; 1.7495264735437013E7 ; 2.01042975866069E8 ; 1.701476191123338E9 ; 1.7454831221471943E10 ; 0.0
96 ; 1.747234319407116E7 ; 2.0104897427708876E8 ; 1.718971455858775E9 ; 1.7655874197338013E10 ; 0.0
97 ; 1.744866258987871E7 ; 2.010549807558041E8 ; 1.736443799052846E9 ; 1.78569231716151E10 ; 0.0
98 ; 1.74215853371012E7 ; 2.0106099465918535E8 ; 1.7538924616427248E9 ; 1.8057978152370907E10 ; 0.0
99 ; 1.7394443779156942E7 ; 2.0106701535999838E8 ; 1.771314046979826E9 ; 1.825903914703009E10 ; 0.0
100 ; 1.737127561887718E7 ; 2.010730422462821E8 ; 1.788708490758983E9 ; 1.8460106162390087E10 ; 0.0
101 ; 1.734397323962194E7 ; 2.010790747208436E8 ; 1.80607976637786E9 ; 1.8661179204636368E10 ; 0.0
102 ; 1.731239188813392E7 ; 2.010851122007705E8 ; 1.823423739617482E9 ; 1.8862258279357212E10 ; 0.0
103 ; 1.72874201809098E7 ; 2.010911541169598E8 ; 1.840736131505616E9 ; 1.9063343391557983E10 ; 0.0
104 ; 1.72652750438743E7 ; 2.0109719991366312E8 ; 1.8580235516865258E9 ; 1.9264434545674942E10 ; 0.0
105 ; 1.723632235210804E7 ; 2.0110324904804763E8 ; 1.8752888267304E9 ; 1.9465531745588604E10 ; 0.0
106 ; 1.721515201236512E7 ; 2.0110930098977235E8 ; 1.892525149082508E9 ; 1.966663499463665E10 ; 0.0
107 ; 1.7186027329030465E7 ; 2.0111535522057903E8 ; 1.9097403010948732E9 ; 1.9867744295626423E10 ; 0.0
108 ; 1.715533794081961E7 ; 2.011214112338979E8 ; 1.9269263284239037E9 ; 2.0068859650847E10 ; 0.0
109 ; 1.713389962189109E7 ; 2.0112746853446674E8 ; 1.9440816663647232E9 ; 2.02699810620809E10 ; 0.0
110 ; 1.7105443388698466E7 ; 2.0113352663796395E8 ; 1.9612155659866142E9 ; 2.0471108530615364E10 ; 0.0
111 ; 1.707886328181434E7 ; 2.0113958507065436E8 ; 1.9783210093753128E9 ; 2.0672242057253326E10 ; 0.0
112 ; 1.7049868110235404E7 ; 2.011456433690477E8 ; 1.9953998726571271E9 ; 2.0873381642323982E10 ; 0.0
113 ; 1.702505129913226E7 ; 2.011517010795694E8 ; 2.0124497407673626E9 ; 2.107452728569303E10 ; 0.0
114 ; 1.699461852894421E7 ; 2.0115775775824288E8 ; 2.029474792066495E9 ; 2.1275678986772602E10 ; 0.0
115 ; 1.696673139863233E7 ; 2.011638129703836E8 ; 2.0464694105954392E9 ; 2.1476836744530846E10 ; 0.0
116 ; 1.6943783568181455E7 ; 2.0116986629030374E8 ; 2.0634361419940715E9 ; 2.167800055750123E10 ; 0.0
117 ; 1.6909236443195313E7 ; 2.0117591730102754E8 ; 2.080379925562253E9 ; 2.187917042379153E10 ; 0.0
118 ; 1.687877921895993E7 ; 2.0118196559401703E8 ; 2.0972891620054483E9 ; 2.208034634109256E10 ; 0.0
119 ; 1.68555319241325E7 ; 2.011880107689075E8 ; 2.1141679412244084E9 ; 2.2281528306686577E10 ; 0.0
120 ; 1.68279260932599E7 ; 2.0119405243325233E8 ; 2.131023473148541E9 ; 2.2482716317455482E10 ; 0.0
121 ; 1.6799547446220264E7 ; 2.0120009020227736E8 ; 2.147851399241801E9 ; 2.2683910369888733E10 ; 0.0
122 ; 1.676254649336935E7 ; 2.0120612369864368E8 ; 2.164650946688021E9 ; 2.288511046009101E10 ; 0.0
123 ; 1.6734383484900406E7 ; 2.012121525522191E8 ; 2.181413493181391E9 ; 2.3086316583789654E10 ; 0.0
124 ; 1.671014488435807E7 ; 2.0121817639985797E8 ; 2.198147876666291E9 ; 2.3287528736341873E10 ; 0.0
125 ; 1.667790539761462E7 ; 2.0122419488518858E8 ; 2.214858021550649E9 ; 2.348874691274173E10 ; 0.0
126 ; 1.6651706489233447E7 ; 2.0123020765840852E8 ; 2.2315359269482636E9 ; 2.368997110762692E10 ; 0.0
127 ; 1.6622737914983477E7 ; 2.0123621437608707E8 ; 2.248187633437497E9 ; 2.3891201315285328E10 ; 0.0
128 ; 1.6591465366128458E7 ; 2.012422147009748E8 ; 2.2648103713524804E9 ; 2.4092437529661415E10 ; 0.0
129 ; 1.6558358402740065E7 ; 2.0124820830181995E8 ; 2.281401836718609E9 ; 2.429367974436239E10 ; 0.0
130 ; 1.6527518329893032E7 ; 2.0125419485319138E8 ; 2.297960195121349E9 ; 2.4494927952664207E10 ; 0.0
131 ; 1.6491372691746946E7 ; 2.012601740353077E8 ; 2.314487713451242E9 ; 2.46961821475174E10 ; 0.0
132 ; 1.6457044433237303E7 ; 2.0126614553387272E8 ; 2.3309790861429887E9 ; 2.4897442321552708E10 ; 0.0
133 ; 1.6419900409013972E7 ; 2.0127210903991637E8 ; 2.3474361305762258E9 ; 2.5098708467086582E10 ; 0.0
134 ; 1.6382623125043716E7 ; 2.0127806424964166E8 ; 2.3638560309852395E9 ; 2.52999805761265E10 ; 0.0
135 ; 1.6348600534135694E7 ; 2.0128401086427665E8 ; 2.3802386541102834E9 ; 2.550125864037614E10 ; 0.0
136 ; 1.6308382321126577E7 ; 2.0128994858993205E8 ; 2.396587254644419E9 ; 2.5702542651240417E10 ; 0.0
137 ; 1.6275892438919567E7 ; 2.0129587713746348E8 ; 2.4128956369655457E9 ; 2.590383259983035E10 ; 0.0
138 ; 1.6236558295610208E7 ; 2.013017962223388E8 ; 2.429171529404465E9 ; 2.610512847696781E10 ; 0.0
139 ; 1.620055939044849E7 ; 2.0130770556450984E8 ; 2.4454080877000756E9 ; 2.630643027319015E10 ; 0.0
140 ; 1.6161061854442747E7 ; 2.0131360488828903E8 ; 2.461608647090524E9 ; 2.650773797875466E10 ; 0.0
141 ; 1.6124822389006846E7 ; 2.0131949392222992E8 ; 2.477769708944967E9 ; 2.6709051583642952E10 ; 0.0
142 ; 1.60876706814061E7 ; 2.0132537239901197E8 ; 2.4938945313339734E9 ; 2.691037107756518E10 ; 0.0
143 ; 1.6052240129284289E7 ; 2.0133124005532962E8 ; 2.5099822020153794E9 ; 2.7111696449964195E10 ; 0.0
144 ; 1.6016805040344732E7 ; 2.013370966317847E8 ; 2.526034442144664E9 ; 2.7313027690019524E10 ; 0.0
145 ; 1.5982137780958913E7 ; 2.013429418727831E8 ; 2.5420512471850085E9 ; 2.751436478665131E10 ; 0.0
146 ; 1.5952041595030453E7 ; 2.0134877552643448E8 ; 2.5580333849659677E9 ; 2.7715707728524094E10 ; 0.0
147 ; 1.5923133356053056E7 ; 2.0135459734445593E8 ; 2.573985426560998E9 ; 2.791705650405053E10 ; 0.0
148 ; 1.588857595229995E7 ; 2.0136040708207855E8 ; 2.589908559917051E9 ; 2.8118411101394985E10 ; 0.0
149 ; 1.5858720099911477E7 ; 2.0136620449795732E8 ; 2.605797135869351E9 ; 2.8319771508477062E10 ; 0.0
150 ; 1.582575183297365E7 ; 2.013719893540843E8 ; 2.6216558559692626E9 ; 2.852113771297502E10 ; 0.0
151 ; 1.5799737082931412E7 ; 2.0137776141570437E8 ; 2.637481607802236E9 ; 2.8722509702329105E10 ; 0.0
152 ; 1.5766370942723228E7 ; 2.013835204512341E8 ; 2.6532813448851676E9 ; 2.892388746374481E10 ; 0.0
153 ; 1.5736217009564659E7 ; 2.0138926623218337E8 ; 2.669047715827891E9 ; 2.912527098419604E10 ; 0.0
154 ; 1.5702689113778224E7 ; 2.0139499853307948E8 ; 2.6847839328374557E9 ; 2.9326660250428223E10 ; 0.0
155 ; 1.5675408955341509E7 ; 2.0140071713139394E8 ; 2.700486621951234E9 ; 2.9528055248961304E10 ; 0.0
156 ; 1.5639068951812495E7 ; 2.0140642180747175E8 ; 2.716162030906575E9 ; 2.9729455966092697E10 ; 0.0
157 ; 1.5610051071959365E7 ; 2.0141211234446284E8 ; 2.7318010998583875E9 ; 2.993086238790017E10 ; 0.0
158 ; 1.5579759794325808E7 ; 2.0141778852825603E8 ; 2.747411150930347E9 ; 3.0132274500244633E10 ; 0.0
159 ; 1.5548117131885294E7 ; 2.014234501474151E8 ; 2.762990910724673E9 ; 3.033369228877289E10 ; 0.0
160 ; 1.551512653148389E7 ; 2.0142909699311703E8 ; 2.7785390278565583E9 ; 3.0535115738920303E10 ; 0.0
161 ; 1.5487248703950569E7 ; 2.0143472885909212E8 ; 2.7940541543880424E9 ; 3.073654483591342E10 ; 0.0
162 ; 1.5456895264988344E7 ; 2.0144034554156628E8 ; 2.809541403091993E9 ; 3.0937979564772514E10 ; 0.0
163 ; 1.5420203566524243E7 ; 2.0144594683920515E8 ; 2.8249982983569813E9 ; 3.113941991031408E10 ; 0.0
164 ; 1.5386318136332538E7 ; 2.0145153255306008E8 ; 2.8404185019235053E9 ; 3.1340865857153286E10 ; 0.0
165 ; 1.5358040116891457E7 ; 2.0145710248651582E8 ; 2.855804820059838E9 ; 3.1542317389706345E10 ; 0.0
166 ; 1.5325573900460921E7 ; 2.0146265644523993E8 ; 2.871162860176729E9 ; 3.174377449219286E10 ; 0.0
167 ; 1.5291554286298217E7 ; 2.0146819423713395E8 ; 2.88648843407719E9 ; 3.19452371486381E10 ; 0.0
168 ; 1.5264113837374695E7 ; 2.0147371567228603E8 ; 2.901779988363488E9 ; 3.2146705342875233E10 ; 0.0
169 ; 1.523106117979722E7 ; 2.014792205629251E8 ; 2.917044102200863E9 ; 3.234817905854752E10 ; 0.0
170 ; 1.519803051943385E7 ; 2.014847087233766E8 ; 2.93227516338066E9 ; 3.2549658279110443E10 ; 0.0
171 ; 1.517246499894977E7 ; 2.014901799700196E8 ; 2.947473193900094E9 ; 3.275114298783382E10 ; 0.0
172 ; 1.513403330838111E7 ; 2.0149563412124535E8 ; 2.962645658899044E9 ; 3.295263316780384E10 ; 0.0
173 ; 1.5101491707661234E7 ; 2.01501070997417E8 ; 2.977779692207425E9 ; 3.3154128801925087E10 ; 0.0
174 ; 1.5075660955674728E7 ; 2.0150649042083076E8 ; 2.9928811839150863E9 ; 3.3355629872922504E10 ; 0.0
175 ; 1.5044764624399006E7 ; 2.0151189221567827E8 ; 3.007956844870761E9 ; 3.3557136363343334E10 ; 0.0
176 ; 1.50254478315337E7 ; 2.0151727620801026E8 ; 3.02300160949516E9 ; 3.3758648255559013E10 ; 0.0
177 ; 1.4994068348933434E7 ; 2.0152264222570097E8 ; 3.038027057326694E9 ; 3.3960165531767025E10 ; 0.0
178 ; 1.4964959590510176E7 ; 2.0152799009841436E8 ; 3.053021125675627E9 ; 3.4161688173992725E10 ; 0.0
179 ; 1.4941354010593437E7 ; 2.015333196575707E8 ; 3.0679860852661376E9 ; 3.436321616409114E10 ; 0.0
180 ; 1.4910915484691694E7 ; 2.0153863073631465E8 ; 3.082927439276731E9 ; 3.456474948374871E10 ; 0.0
181 ; 1.4886519355754917E7 ; 2.0154392316948438E8 ; 3.0978383547614226E9 ; 3.476628811448502E10 ; 0.0
182 ; 1.4859571088209469E7 ; 2.0154919679358116E8 ; 3.1127248741171775E9 ; 3.496783203765451E10 ; 0.0
183 ; 1.4828791508657876E7 ; 2.0155445144674054E8 ; 3.127584445205387E9 ; 3.516938123444809E10 ; 0.0
184 ; 1.480340436755498E7 ; 2.0155968696870402E8 ; 3.142413236714045E9 ; 3.537093568589483E10 ; 0.0
185 ; 1.4777589019835752E7 ; 2.0156490320079163E8 ; 3.1572166410816E9 ; 3.557249537286353E10 ; 0.0
186 ; 1.4748172643846853E7 ; 2.015700999858757E8 ; 3.171994230101436E9 ; 3.577406027606432E10 ; 0.0
187 ; 1.4715605637476848E7 ; 2.0157527716835487E8 ; 3.186742402745283E9 ; 3.59756303760502E10 ; 0.0
188 ; 1.4689199173199588E7 ; 2.015804345941295E8 ; 3.20145800838276E9 ; 3.617720565321856E10 ; 0.0
189 ; 1.466680959829244E7 ; 2.0158557211057737E8 ; 3.2161472075559597E9 ; 3.637878608781269E10 ; 0.0
190 ; 1.4634718196980255E7 ; 2.0159068956653047E8 ; 3.230814017154252E9 ; 3.658037165992327E10 ; 0.0
191 ; 1.4606952025615461E7 ; 2.0159578681225225E8 ; 3.2454487353512325E9 ; 3.67819623494898E10 ; 0.0
192 ; 1.4578292400739802E7 ; 2.0160086369941574E8 ; 3.260055687376848E9 ; 3.6983558136302055E10 ; 0.0
193 ; 1.4549490059087396E7 ; 2.0160592008108228E8 ; 3.274633979777588E9 ; 3.718515900000147E10 ; 0.0
194 ; 1.4531048826079885E7 ; 2.0161095581168082E8 ; 3.289183469836675E9 ; 3.738676492008256E10 ; 0.0
195 ; 1.4493336709049786E7 ; 2.0161597074698803E8 ; 3.303714518662755E9 ; 3.758837587589424E10 ; 0.0
