CSV File for the City 3 on Day 224
1 - Minute m 
2 - Power Consumed at minute m 
3 - Power Produced at minute m 
4 - Energy Consumed since the beginning of the day 
5 - Energy Produced since the beginning of the day 
6 - Energy Lost since the beginning of the day on lines starting from the city
 
0 ; 165344.97474343833 ; 1.0525028097309485E8 ; 0.0 ; 0.0 ; 0.0
1 ; 167234.8130909092 ; 1.0540114600591177E8 ; 165344.97474343833 ; 1.0525028097309485E8 ; 0.0
2 ; 169765.6591239822 ; 1.058608930807539E8 ; 332579.7878343476 ; 2.1065142697900662E8 ; 0.0
3 ; 173562.39116768428 ; 1.0662955166093785E8 ; 502345.44695832976 ; 3.165123200597605E8 ; 0.0
4 ; 178736.22287889838 ; 1.0770715306046164E8 ; 675907.838126014 ; 4.2314187172069836E8 ; 0.0
5 ; 182639.79539932555 ; 1.090937296058144E8 ; 854644.0610049124 ; 5.3084902478116E8 ; 0.0
6 ; 188295.01788641786 ; 1.1078931340353379E8 ; 1037283.8564042379 ; 6.399427543869743E8 ; 0.0
7 ; 194825.16293790328 ; 1.127939347225967E8 ; 1225578.8742906558 ; 7.507320677905082E8 ; 0.0
8 ; 208182.47025681753 ; 1.1510762009068751E8 ; 1420404.0372285591 ; 8.635260025131049E8 ; 0.0
9 ; 224459.93387448098 ; 1.1773039031046641E8 ; 1628586.5074853767 ; 9.786336226037924E8 ; 0.0
10 ; 250660.19703489312 ; 1.2066225869113511E8 ; 1853046.4413598576 ; 1.096364012914259E9 ; 0.0
11 ; 293191.2588490109 ; 1.2390322981663927E8 ; 2103706.6383947507 ; 1.2170262716053941E9 ; 0.0
12 ; 359208.5940170358 ; 1.2745329910303321E8 ; 2396897.8972437615 ; 1.3409295014220333E9 ; 0.0
13 ; 423311.9129327052 ; 1.3131245324111521E8 ; 2756106.4912607973 ; 1.4683828005250666E9 ; 0.0
14 ; 430750.6271155439 ; 1.3548067142822516E8 ; 3179418.4041935024 ; 1.599695253766182E9 ; 0.0
15 ; 433889.87521103653 ; 1.3995792713667858E8 ; 3610169.0313090463 ; 1.735175925194407E9 ; 0.0
16 ; 438037.6144057788 ; 1.447441900974987E8 ; 4044058.9065200826 ; 1.8751338523310857E9 ; 0.0
17 ; 440480.4501573084 ; 1.4983942820414773E8 ; 4482096.520925862 ; 2.0198780424285843E9 ; 0.0
18 ; 443762.8727804146 ; 1.552436091301366E8 ; 4922576.97108317 ; 2.169717470632732E9 ; 0.0
19 ; 447194.1978016208 ; 1.6095670156146732E8 ; 5366339.843863584 ; 2.3249610797628684E9 ; 0.0
20 ; 450864.9046414106 ; 1.669786760348232E8 ; 5813534.041665205 ; 2.4859177813243356E9 ; 0.0
21 ; 454340.0981140822 ; 1.733095054298419E8 ; 6264398.946306615 ; 2.652896457359159E9 ; 0.0
22 ; 458707.8336225519 ; 1.79949165189538E8 ; 6718739.044420698 ; 2.826205962789001E9 ; 0.0
23 ; 463634.31934861385 ; 1.8689763334588575E8 ; 7177446.878043249 ; 3.006155127978539E9 ; 0.0
24 ; 465222.3610824827 ; 1.941548904178418E8 ; 7641081.197391863 ; 3.1930527613244247E9 ; 0.0
25 ; 469672.86834840395 ; 2.004089601327036E8 ; 8106303.558474346 ; 3.3872076517422667E9 ; 0.0
26 ; 473904.0020203028 ; 2.0041337524940726E8 ; 8575976.42682275 ; 3.5876166118749704E9 ; 0.0
27 ; 474746.4030187773 ; 2.0041789185869896E8 ; 9049880.428843053 ; 3.7880299871243777E9 ; 0.0
28 ; 480401.59711620427 ; 2.0042249841011533E8 ; 9524626.831861831 ; 3.9884478789830766E9 ; 0.0
29 ; 483614.19765488646 ; 2.00427184799593E8 ; 1.0005028428978035E7 ; 4.188870377393192E9 ; 0.0
30 ; 486762.7727823875 ; 2.0043194218256137E8 ; 1.0488642626632921E7 ; 4.389297562192785E9 ; 0.0
31 ; 489863.77610862016 ; 2.004367628073545E8 ; 1.0975405399415309E7 ; 4.589729504375346E9 ; 0.0
32 ; 491889.3417567147 ; 2.0044163986872602E8 ; 1.146526917552393E7 ; 4.790166267182701E9 ; 0.0
33 ; 496344.54990614235 ; 2.004465673802387E8 ; 1.1957158517280644E7 ; 4.990607907051427E9 ; 0.0
34 ; 498831.88818179845 ; 2.0045154006380466E8 ; 1.2453503067186786E7 ; 5.191054474431665E9 ; 0.0
35 ; 501724.5997895825 ; 2.0045655325447375E8 ; 1.2952334955368584E7 ; 5.39150601449547E9 ; 0.0
36 ; 504754.8149335781 ; 2.0046160281858087E8 ; 1.3454059555158166E7 ; 5.591962567749944E9 ; 0.0
37 ; 508709.4193803593 ; 2.0046668508347723E8 ; 1.3958814370091744E7 ; 5.792424170568524E9 ; 0.0
38 ; 512261.875227967 ; 2.0047179677723783E8 ; 1.4467523789472103E7 ; 5.992890855652001E9 ; 0.0
39 ; 512421.71876785456 ; 2.0047693497691843E8 ; 1.497978566470007E7 ; 6.193362652429239E9 ; 0.0
40 ; 518262.58439854457 ; 2.0048209706411886E8 ; 1.5492207383467926E7 ; 6.3938395874061575E9 ; 0.0
41 ; 519047.5543069897 ; 2.004872806867777E8 ; 1.6010469967866471E7 ; 6.594321684470276E9 ; 0.0
42 ; 521842.93902836076 ; 2.004924837262779E8 ; 1.652951752217346E7 ; 6.794808965157054E9 ; 0.0
43 ; 524603.7811334135 ; 2.0049770426907814E8 ; 1.705136046120182E7 ; 6.995301448883332E9 ; 0.0
44 ; 527258.8993762073 ; 2.0050294058220258E8 ; 1.7575964242335234E7 ; 7.1957991531524105E9 ; 0.0
45 ; 527627.6113433376 ; 2.005081910920224E8 ; 1.810322314171144E7 ; 7.396302093734613E9 ; 0.0
46 ; 529805.1516759247 ; 2.0051345436584982E8 ; 1.863085075305478E7 ; 7.596810284826635E9 ; 0.0
47 ; 531653.5750827265 ; 2.005187290959383E8 ; 1.9160655904730704E7 ; 7.797323739192485E9 ; 0.0
48 ; 534056.234721322 ; 2.0052401408554396E8 ; 1.969230947981343E7 ; 7.997842468288424E9 ; 0.0
49 ; 535045.4544968545 ; 2.005293082367574E8 ; 2.0226365714534752E7 ; 8.198366482373967E9 ; 0.0
50 ; 538305.79462678 ; 2.005346105398571E8 ; 2.0761411169031605E7 ; 8.398895790610724E9 ; 0.0
51 ; 537943.1357335087 ; 2.005399200639748E8 ; 2.1299716963658385E7 ; 8.599430401150581E9 ; 0.0
52 ; 540114.0703814966 ; 2.0054523594889325E8 ; 2.1837660099391893E7 ; 8.799970321214556E9 ; 0.0
53 ; 542859.5331834428 ; 2.005505573978241E8 ; 2.237777416977339E7 ; 9.000515557163448E9 ; 0.0
54 ; 542470.1248970557 ; 2.0055588367103502E8 ; 2.2920633702956833E7 ; 9.201066114561272E9 ; 0.0
55 ; 544663.6183539667 ; 2.005612140802153E8 ; 2.346310382785389E7 ; 9.401621998232307E9 ; 0.0
56 ; 546004.5360560763 ; 2.005665479834839E8 ; 2.4007767446207855E7 ; 9.602183212312523E9 ; 0.0
57 ; 546637.9838607238 ; 2.005718847809581E8 ; 2.455377198226393E7 ; 9.802749760296007E9 ; 0.0
58 ; 548436.0869221262 ; 2.0057722391081205E8 ; 2.5100409966124654E7 ; 1.0003321645076965E10 ; 0.0
59 ; 549604.5349486292 ; 2.0058256484576496E8 ; 2.564884605304678E7 ; 1.0203898868987778E10 ; 0.0
60 ; 551561.7672336659 ; 2.0058790708994547E8 ; 2.619845058799541E7 ; 1.0404481433833542E10 ; 0.0
61 ; 553489.0271489804 ; 2.0059325017608768E8 ; 2.6750012355229076E7 ; 1.0605069340923487E10 ; 0.0
62 ; 552724.5633222145 ; 2.0059859366301873E8 ; 2.7303501382378057E7 ; 1.0805662591099575E10 ; 0.0
63 ; 554295.9321930506 ; 2.0060393713340423E8 ; 2.7856225945700273E7 ; 1.1006261184762594E10 ; 0.0
64 ; 557333.2872256142 ; 2.0060928019172126E8 ; 2.8410521877893325E7 ; 1.1206865121895998E10 ; 0.0
65 ; 557197.4168345121 ; 2.0061462246243334E8 ; 2.896785516511894E7 ; 1.1407474402087719E10 ; 0.0
66 ; 558397.097059177 ; 2.0061996358834442E8 ; 2.952505258195345E7 ; 1.1608089024550152E10 ; 0.0
67 ; 560404.2468282452 ; 2.006253032291121E8 ; 3.0083449679012626E7 ; 1.1808708988138496E10 ; 0.0
68 ; 561085.742247796 ; 2.006306410599026E8 ; 3.0643853925840873E7 ; 1.2009334291367609E10 ; 0.0
69 ; 561685.0678577651 ; 2.0063597677017248E8 ; 3.120493966808867E7 ; 1.2209964932427511E10 ; 0.0
70 ; 563102.3466440219 ; 2.0064131006256273E8 ; 3.1766624735946435E7 ; 1.2410600909197683E10 ; 0.0
71 ; 564504.1846772963 ; 2.0064664065189484E8 ; 3.2329727082590457E7 ; 1.2611242219260246E10 ; 0.0
72 ; 566101.7287488829 ; 2.006519682642567E8 ; 3.2894231267267752E7 ; 1.2811888859912142E10 ; 0.0
73 ; 565600.1580071894 ; 2.0065729263617024E8 ; 3.3460332996016636E7 ; 1.30125408281764E10 ; 0.0
74 ; 567945.7164249048 ; 2.0066261351383233E8 ; 3.4025933154023826E7 ; 1.3213198120812569E10 ; 0.0
75 ; 569054.6858357623 ; 2.0066793065242112E8 ; 3.459387887044873E7 ; 1.34138607343264E10 ; 0.0
76 ; 569355.5089545674 ; 2.00673243815462E8 ; 3.5162933556284495E7 ; 1.3614528664978823E10 ; 0.0
77 ; 570904.98986993 ; 2.0067855277424708E8 ; 3.5732289065239064E7 ; 1.3815201908794285E10 ; 0.0
78 ; 571736.5633094212 ; 2.0068385730730304E8 ; 3.6303194055108994E7 ; 1.4015880461568531E10 ; 0.0
79 ; 572676.1627858081 ; 2.0068915719990283E8 ; 3.687493061841842E7 ; 1.4216564318875834E10 ; 0.0
80 ; 571901.7457153939 ; 2.0069445224361724E8 ; 3.744760678120422E7 ; 1.4417253476075737E10 ; 0.0
81 ; 573560.9082513783 ; 2.0069974223590225E8 ; 3.801950852691962E7 ; 1.4617947928319355E10 ; 0.0
82 ; 572483.7972256641 ; 2.0070502697971946E8 ; 3.859306943517099E7 ; 1.4818647670555258E10 ; 0.0
83 ; 571307.8017434857 ; 2.0071030628318602E8 ; 3.9165553232396655E7 ; 1.5019352697534977E10 ; 0.0
84 ; 571980.1453732387 ; 2.007155799592519E8 ; 3.973686103414014E7 ; 1.5220063003818163E10 ; 0.0
85 ; 571569.6056323195 ; 2.007208478254018E8 ; 4.030884117951338E7 ; 1.5420778583777414E10 ; 0.0
86 ; 573355.6291956904 ; 2.0072610970337978E8 ; 4.08804107851457E7 ; 1.5621499431602816E10 ; 0.0
87 ; 571816.3745721015 ; 2.0073136541893432E8 ; 4.145376641434139E7 ; 1.5822225541306196E10 ; 0.0
88 ; 571778.4687588026 ; 2.007366148015824E8 ; 4.202558278891349E7 ; 1.602295690672513E10 ; 0.0
89 ; 571925.5185460498 ; 2.007418576843909E8 ; 4.259736125767229E7 ; 1.6223693521526712E10 ; 0.0
90 ; 571617.2236222912 ; 2.0074709390377384E8 ; 4.316928677621834E7 ; 1.6424435379211103E10 ; 0.0
91 ; 573302.6568645968 ; 2.0075232329930398E8 ; 4.374090399984063E7 ; 1.6625182473114878E10 ; 0.0
92 ; 571947.0945065784 ; 2.0075754571353808E8 ; 4.431420665670523E7 ; 1.682593479641418E10 ; 0.0
93 ; 572515.2206157058 ; 2.0076276099185425E8 ; 4.488615375121181E7 ; 1.7026692342127718E10 ; 0.0
94 ; 571517.8828397499 ; 2.0076796898230052E8 ; 4.5458668971827514E7 ; 1.722745510311957E10 ; 0.0
95 ; 572950.4835885412 ; 2.007731695354542E8 ; 4.603018685466726E7 ; 1.742822307210187E10 ; 0.0
96 ; 572878.9917244492 ; 2.007783625042904E8 ; 4.66031373382558E7 ; 1.7628996241637325E10 ; 0.0
97 ; 571640.962073737 ; 2.0078354774405962E8 ; 4.717601632998025E7 ; 1.7829774604141617E10 ; 0.0
98 ; 571364.357528446 ; 2.0078872511217365E8 ; 4.774765729205398E7 ; 1.8030558151885677E10 ; 0.0
99 ; 572370.3989367004 ; 2.0079389446809864E8 ; 4.831902164958243E7 ; 1.8231346876997852E10 ; 0.0
100 ; 571902.4085202476 ; 2.007990556732557E8 ; 4.8891392048519135E7 ; 1.843214077146595E10 ; 0.0
101 ; 572947.3658284497 ; 2.008042085909275E8 ; 4.946329445703938E7 ; 1.8632939827139206E10 ; 0.0
102 ; 569663.1314291358 ; 2.0080935308617112E8 ; 5.0036241822867826E7 ; 1.8833744035730133E10 ; 0.0
103 ; 571263.3825126145 ; 2.0081448902573642E8 ; 5.060590495429696E7 ; 1.9034553388816303E10 ; 0.0
104 ; 572072.8480422073 ; 2.0081961627798954E8 ; 5.1177168336809576E7 ; 1.923536787784204E10 ; 0.0
105 ; 571484.9681651057 ; 2.0082473471284136E8 ; 5.174924118485178E7 ; 1.943618749412003E10 ; 0.0
106 ; 570390.2276626595 ; 2.0082984420168015E8 ; 5.232072615301689E7 ; 1.963701222883287E10 ; 0.0
107 ; 571312.2212306041 ; 2.0083494461730853E8 ; 5.289111638067955E7 ; 1.983784207303455E10 ; 0.0
108 ; 569803.578864704 ; 2.0084003583388433E8 ; 5.346242860191015E7 ; 2.003867701765186E10 ; 0.0
109 ; 571394.0490904445 ; 2.00845117726865E8 ; 5.403223218077485E7 ; 2.0239517053485744E10 ; 0.0
110 ; 568967.2553814115 ; 2.0085019017295527E8 ; 5.46036262298653E7 ; 2.044036217121261E10 ; 0.0
111 ; 569470.8970132464 ; 2.0085525305005816E8 ; 5.517259348524671E7 ; 2.0641212361385563E10 ; 0.0
112 ; 569385.8545839839 ; 2.0086030623722863E8 ; 5.574206438225996E7 ; 2.084206761443562E10 ; 0.0
113 ; 567588.8031820875 ; 2.0086534961463022E8 ; 5.631145023684394E7 ; 2.1042927920672848E10 ; 0.0
114 ; 567565.8965902367 ; 2.008703830634941E8 ; 5.687903904002603E7 ; 2.124379327028748E10 ; 0.0
115 ; 567164.1607064843 ; 2.0087540646608046E8 ; 5.744660493661627E7 ; 2.1444663653350975E10 ; 0.0
116 ; 566090.2812848506 ; 2.0088041970564225E8 ; 5.8013769097322755E7 ; 2.1645539059817055E10 ; 0.0
117 ; 566063.0205448447 ; 2.0088542266639093E8 ; 5.857985937860761E7 ; 2.1846419479522697E10 ; 0.0
118 ; 564733.4596481805 ; 2.008904152334642E8 ; 5.914592239915245E7 ; 2.2047304902189087E10 ; 0.0
119 ; 565875.5083917024 ; 2.0089539729289553E8 ; 5.971065585880063E7 ; 2.224819531742255E10 ; 0.0
120 ; 566063.6854710678 ; 2.0090036873158547E8 ; 6.027653136719233E7 ; 2.2449090714715446E10 ; 0.0
121 ; 563957.6428325924 ; 2.0090532943727443E8 ; 6.084259505266339E7 ; 2.2649991083447033E10 ; 0.0
122 ; 564151.5250989998 ; 2.0091027929851726E8 ; 6.1406552695495985E7 ; 2.2850896412884308E10 ; 0.0
123 ; 562454.5338118303 ; 2.0091521820465887E8 ; 6.197070422059499E7 ; 2.3051806692182827E10 ; 0.0
124 ; 563860.5380571318 ; 2.0092014604581153E8 ; 6.253315875440682E7 ; 2.3252721910387486E10 ; 0.0
125 ; 561404.5879292769 ; 2.0092506271283314E8 ; 6.309701929246395E7 ; 2.3453642056433296E10 ; 0.0
126 ; 561703.7730778782 ; 2.00929968097307E8 ; 6.365842388039323E7 ; 2.365456711914613E10 ; 0.0
127 ; 560568.4317455057 ; 2.0093486209152237E8 ; 6.4220127653471105E7 ; 2.3855497087243435E10 ; 0.0
128 ; 560512.2612214112 ; 2.009397445884562E8 ; 6.478069608521661E7 ; 2.4056431949334957E10 ; 0.0
129 ; 559333.5979088129 ; 2.009446154817561E8 ; 6.534120834643802E7 ; 2.4257371693923412E10 ; 0.0
130 ; 558561.426811949 ; 2.0094947466572362E8 ; 6.590054194434683E7 ; 2.4458316309405167E10 ; 0.0
131 ; 557343.7174813584 ; 2.0095432203529924E8 ; 6.645910337115878E7 ; 2.465926578407089E10 ; 0.0
132 ; 555953.015586989 ; 2.009591574860474E8 ; 6.701644708864014E7 ; 2.4860220106106186E10 ; 0.0
133 ; 554512.5248556129 ; 2.0096398091414276E8 ; 6.757240010422713E7 ; 2.506117926359223E10 ; 0.0
134 ; 552967.9804638599 ; 2.009687922163572E8 ; 6.812691262908274E7 ; 2.5262143244506374E10 ; 0.0
135 ; 551449.1465053019 ; 2.009735912900473E8 ; 6.86798806095466E7 ; 2.5463112036722733E10 ; 0.0
136 ; 550145.6348723312 ; 2.009783780331425E8 ; 6.92313297560519E7 ; 2.566408562801278E10 ; 0.0
137 ; 548746.0533636818 ; 2.009831523441343E8 ; 6.978147539092423E7 ; 2.586506400604592E10 ; 0.0
138 ; 546120.1740474616 ; 2.009879141220653E8 ; 7.033022144428791E7 ; 2.6066047158390057E10 ; 0.0
139 ; 545743.6942633755 ; 2.0099266326651958E8 ; 7.087634161833537E7 ; 2.6267035072512123E10 ; 0.0
140 ; 543459.7335275667 ; 2.0099739967761296E8 ; 7.142208531259874E7 ; 2.6468027735778645E10 ; 0.0
141 ; 542923.7915653992 ; 2.010021232559843E8 ; 7.19655450461263E7 ; 2.6669025135456257E10 ; 0.0
142 ; 540101.1064156102 ; 2.0100683390278685E8 ; 7.250846883769171E7 ; 2.6870027258712242E10 ; 0.0
143 ; 538971.377711583 ; 2.0101153151968026E8 ; 7.304856994410732E7 ; 2.707103409261503E10 ; 0.0
144 ; 536465.6824013282 ; 2.01016216008823E8 ; 7.35875413218189E7 ; 2.727204562413471E10 ; 0.0
145 ; 537086.0419250603 ; 2.0102088727286515E8 ; 7.412400700422023E7 ; 2.747306184014353E10 ; 0.0
146 ; 534775.7727127529 ; 2.0102554521494156E8 ; 7.466109304614529E7 ; 2.7674082727416397E10 ; 0.0
147 ; 534952.0807455361 ; 2.0103018973866546E8 ; 7.519586881885804E7 ; 2.787510827263134E10 ; 0.0
148 ; 535253.8065128324 ; 2.010348207481222E8 ; 7.573082089960358E7 ; 2.8076138462370007E10 ; 0.0
149 ; 533058.7383921708 ; 2.0103943814786363E8 ; 7.626607470611641E7 ; 2.827717328311813E10 ; 0.0
150 ; 532968.477601646 ; 2.0104404184290257E8 ; 7.679913344450858E7 ; 2.8478212721265995E10 ; 0.0
151 ; 532836.7549383929 ; 2.0104863173870763E8 ; 7.733210192211023E7 ; 2.86792567631089E10 ; 0.0
152 ; 532282.7700233826 ; 2.0105320774119824E8 ; 7.786493867704862E7 ; 2.8880305394847607E10 ; 0.0
153 ; 530735.7197591815 ; 2.0105776975674018E8 ; 7.8397221447072E7 ; 2.9081358602588806E10 ; 0.0
154 ; 529710.1649622793 ; 2.0106231769214103E8 ; 7.892795716683118E7 ; 2.9282416372345547E10 ; 0.0
155 ; 530162.2363858653 ; 2.010668514546462E8 ; 7.945766733179346E7 ; 2.948347869003769E10 ; 0.0
156 ; 528095.4816608174 ; 2.0107137095193487E8 ; 7.998782956817932E7 ; 2.9684545541492336E10 ; 0.0
157 ; 529362.6224780267 ; 2.010758760921165E8 ; 8.051592504984014E7 ; 2.988561691244427E10 ; 0.0
158 ; 529251.5599477664 ; 2.0108036678372714E8 ; 8.104528767231816E7 ; 3.008669278853639E10 ; 0.0
159 ; 527340.0100369776 ; 2.0108484293572623E8 ; 8.157453923226592E7 ; 3.0287773155320114E10 ; 0.0
160 ; 526450.458804771 ; 2.0108930445749366E8 ; 8.21018792423029E7 ; 3.048885799825584E10 ; 0.0
161 ; 527099.5725442413 ; 2.010937512588266E8 ; 8.262832970110767E7 ; 3.0689947302713333E10 ; 0.0
162 ; 525603.2287674472 ; 2.0109818324993703E8 ; 8.315542927365191E7 ; 3.089104105397216E10 ; 0.0
163 ; 524609.4570494322 ; 2.0110260034144893E8 ; 8.368103250241935E7 ; 3.1092139237222095E10 ; 0.0
164 ; 523854.51285400597 ; 2.01107002444396E8 ; 8.420564195946878E7 ; 3.1293241837563545E10 ; 0.0
165 ; 522768.32923466887 ; 2.0111138947021937E8 ; 8.472949647232279E7 ; 3.1494348840007942E10 ; 0.0
166 ; 522200.4141759976 ; 2.0111576133076552E8 ; 8.525226480155747E7 ; 3.169546022947816E10 ; 0.0
167 ; 521054.3164376261 ; 2.0112011793828413E8 ; 8.577446521573347E7 ; 3.1896575990808926E10 ; 0.0
168 ; 522202.61063514627 ; 2.0112445920542642E8 ; 8.62955195321711E7 ; 3.209769610874721E10 ; 0.0
169 ; 519579.72584963386 ; 2.011287850452433E8 ; 8.681772214280625E7 ; 3.2298820567952637E10 ; 0.0
170 ; 519744.7382107909 ; 2.011330953711837E8 ; 8.733730186865588E7 ; 3.249994935299788E10 ; 0.0
171 ; 519808.30566884275 ; 2.011373900970932E8 ; 8.785704660686667E7 ; 3.2701082448369064E10 ; 0.0
172 ; 518416.7184140288 ; 2.0114166913721254E8 ; 8.837685491253552E7 ; 3.2902219838466156E10 ; 0.0
173 ; 517708.29760873335 ; 2.011459324061764E8 ; 8.889527163094954E7 ; 3.3103361507603367E10 ; 0.0
174 ; 517599.0308211269 ; 2.0115017981901202E8 ; 8.941297992855828E7 ; 3.3304507440009544E10 ; 0.0
175 ; 516845.54716525954 ; 2.0115441129113832E8 ; 8.99305789593794E7 ; 3.3505657619828556E10 ; 0.0
176 ; 516709.96377483616 ; 2.0115862673836476E8 ; 9.044742450654466E7 ; 3.3706812031119694E10 ; 0.0
177 ; 515026.73599850916 ; 2.011628260768904E8 ; 9.09641344703195E7 ; 3.390797065785806E10 ; 0.0
178 ; 515095.83433953463 ; 2.0116700922330308E8 ; 9.1479161206318E7 ; 3.4109133483934948E10 ; 0.0
179 ; 515050.36342333676 ; 2.011711760945787E8 ; 9.199425704065754E7 ; 3.4310300493158253E10 ; 0.0
180 ; 514950.8219895434 ; 2.0117532660808042E8 ; 9.250930740408087E7 ; 3.451147166925283E10 ; 0.0
181 ; 514365.75779839983 ; 2.0117946068155807E8 ; 9.30242582260704E7 ; 3.471264699586091E10 ; 0.0
182 ; 513555.8302871673 ; 2.0118357823314768E8 ; 9.353862398386881E7 ; 3.4913826456542465E10 ; 0.0
183 ; 512361.6357540216 ; 2.0118767918137082E8 ; 9.405217981415598E7 ; 3.511501003477561E10 ; 0.0
184 ; 512891.2998680181 ; 2.0119176344513434E8 ; 9.456454144991E7 ; 3.5316197713956985E10 ; 0.0
185 ; 512166.5153122055 ; 2.0119583094372988E8 ; 9.507743274977802E7 ; 3.551738947740212E10 ; 0.0
186 ; 512384.5036087092 ; 2.011998815968336E8 ; 9.558959926509023E7 ; 3.5718585308345856E10 ; 0.0
187 ; 511598.14548290113 ; 2.0120391532450593E8 ; 9.610198376869893E7 ; 3.591978518994269E10 ; 0.0
188 ; 512132.919156728 ; 2.0120793204719132E8 ; 9.661358191418183E7 ; 3.61209891052672E10 ; 0.0
189 ; 510184.517062874 ; 2.0121193168571818E8 ; 9.712571483333856E7 ; 3.6322197037314384E10 ; 0.0
190 ; 510686.23609557445 ; 2.0121591416129863E8 ; 9.763589935040143E7 ; 3.65234089690001E10 ; 0.0
191 ; 510219.9925330745 ; 2.0121987939552853E8 ; 9.814658558649701E7 ; 3.67246248831614E10 ; 0.0
192 ; 509164.4714756985 ; 2.0122382731038743E8 ; 9.865680557903008E7 ; 3.692584476255693E10 ; 0.0
193 ; 509861.63001522736 ; 2.0122775782823864E8 ; 9.916597005050579E7 ; 3.712706858986732E10 ; 0.0
194 ; 509672.0115356146 ; 2.0123167087182918E8 ; 9.967583168052101E7 ; 3.732829634769556E10 ; 0.0
195 ; 508591.387373794 ; 2.0123556636428997E8 ; 1.0018550369205663E8 ; 3.752952801856738E10 ; 0.0
196 ; 506647.54718294315 ; 2.0123944422913596E8 ; 1.0069409507943042E8 ; 3.773076358493167E10 ; 0.0
197 ; 506329.79361814307 ; 2.0124330439026624E8 ; 1.0120074262661336E8 ; 3.7932003029160805E10 ; 0.0
198 ; 505115.12875898834 ; 2.0124714677196428E8 ; 1.017070724202315E8 ; 3.813324633355107E10 ; 0.0
199 ; 506651.74980776245 ; 2.012509712988982E8 ; 1.0221218754899049E8 ; 3.833449348032304E10 ; 0.0
200 ; 506487.58277752163 ; 2.0125477789612097E8 ; 1.0271883929879825E8 ; 3.853574445162193E10 ; 0.0
201 ; 506301.3238492057 ; 2.012585664890707E8 ; 1.0322532688157576E8 ; 3.873699922951805E10 ; 0.0
