CSV File for the City 2 on Day 44
1 - Minute m 
2 - Power Consumed at minute m 
3 - Power Produced at minute m 
4 - Energy Consumed since the beginning of the day 
5 - Energy Produced since the beginning of the day 
6 - Energy Lost since the beginning of the day on lines starting from the city
 
0 ; 1776848.071746734 ; 1.0521056008972612E8 ; 0.0 ; 0.0 ; 0.0
1 ; 1777841.172024328 ; 1.0536443369177389E8 ; 1776848.071746734 ; 1.0521056008972612E8 ; 0.0
2 ; 1779735.8364392961 ; 1.058269927620444E8 ; 3554689.243771062 ; 2.105749937815E8 ; 0.0
3 ; 1782463.0633483804 ; 1.0659823842939627E8 ; 5334425.080210358 ; 3.164019865435444E8 ; 0.0
4 ; 1784791.7517014334 ; 1.0767817172986633E8 ; 7116888.143558739 ; 4.230002249729407E8 ; 0.0
5 ; 1788920.1586540584 ; 1.0906679359330106E8 ; 8901679.895260172 ; 5.30678396702807E8 ; 0.0
6 ; 1793044.3204034823 ; 1.1076410483075342E8 ; 1.069060005391423E7 ; 6.39745190296108E8 ; 0.0
7 ; 1800075.9179539604 ; 1.1277010612301612E8 ; 1.2483644374317713E7 ; 7.505092951268615E8 ; 0.0
8 ; 1808610.0453613284 ; 1.1508479801065296E8 ; 1.4283720292271674E7 ; 8.632794012498776E8 ; 0.0
9 ; 1821960.7897202685 ; 1.1770818088585806E8 ; 1.6092330337633003E7 ; 9.783641992605305E8 ; 0.0
10 ; 1844206.8312914472 ; 1.2064025498642367E8 ; 1.791429112735327E7 ; 1.0960723801463885E9 ; 0.0
11 ; 1878082.1761195618 ; 1.2388102039203092E8 ; 1.9758497958644718E7 ; 1.2167126351328123E9 ; 0.0
12 ; 1931180.633985694 ; 1.2743047702299866E8 ; 2.163658013476428E7 ; 1.3405936555248432E9 ; 0.0
13 ; 1983694.8964245457 ; 1.3128862464153463E8 ; 2.3567760768749975E7 ; 1.4680241325478418E9 ; 0.0
14 ; 1989052.4574311967 ; 1.354554628554448E8 ; 2.555145566517452E7 ; 1.5993127571893764E9 ; 0.0
15 ; 1991861.630114621 ; 1.3993099112416524E8 ; 2.754050812260572E7 ; 1.7347682200448213E9 ; 0.0
16 ; 1995147.5342557065 ; 1.4471520876690337E8 ; 2.953236975272034E7 ; 1.8746992111689866E9 ; 0.0
17 ; 1996376.5533432367 ; 1.4980811497260615E8 ; 3.1527517286976047E7 ; 2.01941441993589E9 ; 0.0
18 ; 1999975.6856417703 ; 1.5520970881142712E8 ; 3.3523893840319283E7 ; 2.169222534908496E9 ; 0.0
19 ; 2001856.0020118782 ; 1.6091998924732944E8 ; 3.552386952596106E7 ; 2.324432243719923E9 ; 0.0
20 ; 2004169.7746045322 ; 1.6693895515145448E8 ; 3.752572552797294E7 ; 2.4853522329672523E9 ; 0.0
21 ; 2006282.0873745915 ; 1.7326660531589004E8 ; 3.9529895302577466E7 ; 2.6522911881187067E9 ; 0.0
22 ; 2009814.4090440355 ; 1.7990293846749502E8 ; 4.1536177389952056E7 ; 2.8255577934345965E9 ; 0.0
23 ; 2012227.3874520562 ; 1.868479532814737E8 ; 4.354599179899609E7 ; 3.0054607319020915E9 ; 0.0
24 ; 2014314.204641491 ; 1.9410164839443332E8 ; 4.555821918644815E7 ; 3.192308685183565E9 ; 0.0
25 ; 2017178.2308918193 ; 2.0035206331489503E8 ; 4.757253339108964E7 ; 3.3864103335779986E9 ; 0.0
26 ; 2019371.924676593 ; 2.0035274447161886E8 ; 4.958971162198146E7 ; 3.586762396892894E9 ; 0.0
27 ; 2021135.8417045507 ; 2.0035345974892405E8 ; 5.160908354665805E7 ; 3.7871151413645124E9 ; 0.0
28 ; 2025542.386664741 ; 2.0035420774279386E8 ; 5.3630219388362594E7 ; 3.9874686011134367E9 ; 0.0
29 ; 2026009.9269819024 ; 2.0035498706233904E8 ; 5.5655761775027335E7 ; 4.1878228088562307E9 ; 0.0
30 ; 2029159.8919618553 ; 2.0035579633690593E8 ; 5.768177170200924E7 ; 4.38817779591857E9 ; 0.0
31 ; 2030781.8886028954 ; 2.0035663422210667E8 ; 5.9710931593971096E7 ; 4.588533592255475E9 ; 0.0
32 ; 2033081.6076748369 ; 2.0035749940482473E8 ; 6.174171348257399E7 ; 4.788890226477582E9 ; 0.0
33 ; 2034266.4321112202 ; 2.0035839060726622E8 ; 6.377479509024883E7 ; 4.989247725882406E9 ; 0.0
34 ; 2036762.7768488307 ; 2.0035930659013546E8 ; 6.580906152236005E7 ; 5.189606116489673E9 ; 0.0
35 ; 2038823.2449279376 ; 2.0036024615502164E8 ; 6.784582429920888E7 ; 5.389965423079808E9 ; 0.0
36 ; 2041589.8717484414 ; 2.003612081460831E8 ; 6.988464754413682E7 ; 5.59032566923483E9 ; 0.0
37 ; 2044161.2949040602 ; 2.003621914511162E8 ; 7.192623741588527E7 ; 5.790686877380913E9 ; 0.0
38 ; 2044614.1990595139 ; 2.0036319500209242E8 ; 7.397039871078932E7 ; 5.991049068832029E9 ; 0.0
39 ; 2046565.1087132401 ; 2.003642177752411E8 ; 7.601501290984884E7 ; 6.191412263834122E9 ; 0.0
40 ; 2048264.9164636054 ; 2.0036525879075167E8 ; 7.806157801856208E7 ; 6.391776481609363E9 ; 0.0
41 ; 2049582.2400738571 ; 2.003663171121601E8 ; 8.010984293502568E7 ; 6.592141740400114E9 ; 0.0
42 ; 2051373.8382991222 ; 2.0036739184547982E8 ; 8.215942517509954E7 ; 6.792508057512274E9 ; 0.0
43 ; 2051872.9969340293 ; 2.0036848213812894E8 ; 8.421079901339866E7 ; 6.992875449357754E9 ; 0.0
44 ; 2052719.615345331 ; 2.0036958717769992E8 ; 8.626267201033269E7 ; 7.193243931495883E9 ; 0.0
45 ; 2054202.2521377744 ; 2.003707061906117E8 ; 8.831539162567802E7 ; 7.393613518673583E9 ; 0.0
46 ; 2055681.0314352906 ; 2.003718384406779E8 ; 9.03695938778158E7 ; 7.593984224864195E9 ; 0.0
47 ; 2056506.3019115592 ; 2.0037298322762075E8 ; 9.24252749092511E7 ; 7.7943560633048725E9 ; 0.0
48 ; 2058559.8797841503 ; 2.003741398855543E8 ; 9.448178121116266E7 ; 7.994729046532494E9 ; 0.0
49 ; 2058657.2128714735 ; 2.0037530778145733E8 ; 9.654034109094681E7 ; 8.195103186418048E9 ; 0.0
50 ; 2059307.2484675262 ; 2.003764863136526E8 ; 9.859899830381829E7 ; 8.395478494199505E9 ; 0.0
51 ; 2058330.448104145 ; 2.0037767491030526E8 ; 1.006583055522858E8 ; 8.595854980513157E9 ; 0.0
52 ; 2060554.831420045 ; 2.0037887302795145E8 ; 1.0271663600038995E8 ; 8.796232655423462E9 ; 0.0
53 ; 2061186.1691143955 ; 2.0038008015006495E8 ; 1.0477719083181E8 ; 8.996611528451414E9 ; 0.0
54 ; 2060521.8678964672 ; 2.003812957856683E8 ; 1.068383770009244E8 ; 9.196991608601479E9 ; 0.0
55 ; 2062788.5558604875 ; 2.003825194679927E8 ; 1.0889889886882086E8 ; 9.397372904387146E9 ; 0.0
56 ; 2062902.796104049 ; 2.0038375075319E8 ; 1.1096168742468135E8 ; 9.597755423855139E9 ; 0.0
57 ; 2063010.433275871 ; 2.003849892190989E8 ; 1.130245902207854E8 ; 9.798139174608328E9 ; 0.0
58 ; 2062727.9018348057 ; 2.003862344640657E8 ; 1.1508760065406126E8 ; 9.998524163827427E9 ; 0.0
59 ; 2064244.0125449046 ; 2.0038748610582078E8 ; 1.1715032855589606E8 ; 1.0198910398291492E10 ; 0.0
60 ; 2064304.6886270735 ; 2.0038874378040975E8 ; 1.1921457256844096E8 ; 1.0399297884397314E10 ; 0.0
61 ; 2064624.4400255196 ; 2.0039000714117864E8 ; 1.2127887725706804E8 ; 1.0599686628177723E10 ; 0.0
62 ; 2063197.9832881333 ; 2.0039127585781196E8 ; 1.2334350169709356E8 ; 1.0800076635318901E10 ; 0.0
63 ; 2064529.8422867397 ; 2.003925496154219E8 ; 1.254066996803817E8 ; 1.1000467911176714E10 ; 0.0
64 ; 2064617.5060362925 ; 2.003938281136871E8 ; 1.2747122952266844E8 ; 1.1200860460792135E10 ; 0.0
65 ; 2066100.8210589855 ; 2.003951110660392E8 ; 1.2953584702870473E8 ; 1.1401254288905823E10 ; 0.0
66 ; 2066133.9317561025 ; 2.0039639819889474E8 ; 1.3160194784976372E8 ; 1.1601649399971863E10 ; 0.0
67 ; 2066791.4663200916 ; 2.003976892509308E8 ; 1.3366808178151983E8 ; 1.1802045798170757E10 ; 0.0
68 ; 2067054.6469774072 ; 2.0039898397240216E8 ; 1.3573487324783993E8 ; 1.2002443487421688E10 ; 0.0
69 ; 2066850.8421768474 ; 2.0040028212449795E8 ; 1.3780192789481732E8 ; 1.220284247139409E10 ; 0.0
70 ; 2067657.8839263534 ; 2.0040158347873574E8 ; 1.3986877873699418E8 ; 1.2403242753518589E10 ; 0.0
71 ; 2067458.7065519423 ; 2.004028878163909E8 ; 1.4193643662092054E8 ; 1.2603644336997324E10 ; 0.0
72 ; 2066938.825320424 ; 2.0040419492795962E8 ; 1.4400389532747248E8 ; 1.2804047224813715E10 ; 0.0
73 ; 2068158.760674871 ; 2.0040550461265352E8 ; 1.460708341527929E8 ; 1.3004451419741674E10 ; 0.0
74 ; 2067341.3761139626 ; 2.0040681667792416E8 ; 1.4813899291346776E8 ; 1.3204856924354328E10 ; 0.0
75 ; 2067353.9999980333 ; 2.0040813093901545E8 ; 1.5020633428958172E8 ; 1.3405263741032253E10 ; 0.0
76 ; 2068183.111339075 ; 2.0040944721854267E8 ; 1.5227368828957975E8 ; 1.360567187197127E10 ; 0.0
77 ; 2067953.013674139 ; 2.004107653460964E8 ; 1.543418714009188E8 ; 1.3806081319189812E10 ; 0.0
78 ; 2067332.0411759191 ; 2.0041208515786988E8 ; 1.5640982441459295E8 ; 1.4006492084535908E10 ; 0.0
79 ; 2066165.8453893529 ; 2.00413406496308E8 ; 1.5847715645576888E8 ; 1.4206904169693777E10 ; 0.0
80 ; 2065714.6186557657 ; 2.0041472920977756E8 ; 1.6054332230115825E8 ; 1.4407317576190084E10 ; 0.0
81 ; 2065536.090407906 ; 2.0041605315225637E8 ; 1.6260903691981402E8 ; 1.4607732305399862E10 ; 0.0
82 ; 2063730.9087151126 ; 2.004173781830409E8 ; 1.6467457301022193E8 ; 1.4808148358552118E10 ; 0.0
83 ; 2063797.6311416635 ; 2.004187041664708E8 ; 1.6673830391893703E8 ; 1.5008565736735159E10 ; 0.0
84 ; 2063339.0674693987 ; 2.0042003097166967E8 ; 1.688021015500787E8 ; 1.520898444090163E10 ; 0.0
85 ; 2062538.0560629293 ; 2.0042135847230083E8 ; 1.7086544061754808E8 ; 1.54094044718733E10 ; 0.0
86 ; 2061937.7573016006 ; 2.0042268654633695E8 ; 1.7292797867361102E8 ; 1.5609825830345602E10 ; 0.0
87 ; 2062016.89388733 ; 2.004240150758434E8 ; 1.749899164309126E8 ; 1.581024851689194E10 ; 0.0
88 ; 2059884.2304551052 ; 2.0042534394677368E8 ; 1.7705193332479995E8 ; 1.6010672531967783E10 ; 0.0
89 ; 2059666.4447507686 ; 2.0042667304877657E8 ; 1.7911181755525506E8 ; 1.6211097875914557E10 ; 0.0
90 ; 2058519.7000785777 ; 2.004280022750145E8 ; 1.811714840000058E8 ; 1.6411524548963333E10 ; 0.0
91 ; 2057744.2763893118 ; 2.0042933152199173E8 ; 1.832300037000844E8 ; 1.6611952551238348E10 ; 0.0
92 ; 2057315.6906605025 ; 2.0043066068939278E8 ; 1.852877479764737E8 ; 1.681238188276034E10 ; 0.0
93 ; 2055125.68012468 ; 2.0043198967992926E8 ; 1.873450636671342E8 ; 1.7012812543449732E10 ; 0.0
94 ; 2054141.2284884255 ; 2.0043331839919588E8 ; 1.8940018934725887E8 ; 1.721324453312966E10 ; 0.0
95 ; 2054358.6971697027 ; 2.0043464675553384E8 ; 1.9145433057574728E8 ; 1.741367785152886E10 ; 0.0
96 ; 2053396.8915396107 ; 2.004359746599023E8 ; 1.9350868927291697E8 ; 1.7614112498284393E10 ; 0.0
97 ; 2051873.495942106 ; 2.0043730202575636E8 ; 1.9556208616445658E8 ; 1.7814548472944294E10 ; 0.0
98 ; 2051168.5484339723 ; 2.0043862876893216E8 ; 1.976139596603987E8 ; 1.801498577497005E10 ; 0.0
99 ; 2050738.8910821509 ; 2.0043995480753785E8 ; 1.9966512820883265E8 ; 1.8215424403738983E10 ; 0.0
100 ; 2049691.1637581314 ; 2.0044128006185073E8 ; 2.017158670999148E8 ; 1.841586435854652E10 ; 0.0
101 ; 2046959.336854201 ; 2.004426044542196E8 ; 2.0376555826367292E8 ; 1.861630563860837E10 ; 0.0
102 ; 2045828.1535813592 ; 2.004439279089726E8 ; 2.058125176005271E8 ; 1.881674824306259E10 ; 0.0
103 ; 2046835.6892333354 ; 2.0044525035232964E8 ; 2.0785834575410846E8 ; 1.9017192170971565E10 ; 0.0
104 ; 2042962.2473891806 ; 2.004465717123198E8 ; 2.099051814433418E8 ; 1.9217637421323895E10 ; 0.0
105 ; 2042878.9762131416 ; 2.0044789191870266E8 ; 2.1194814369073096E8 ; 1.9418083993036213E10 ; 0.0
106 ; 2041370.7299040062 ; 2.00449210902894E8 ; 2.139910226669441E8 ; 1.9618531884954914E10 ; 0.0
107 ; 2040098.6730920768 ; 2.0045052859789526E8 ; 2.1603239339684808E8 ; 1.9818981095857807E10 ; 0.0
108 ; 2039641.5434124458 ; 2.0045184493822655E8 ; 2.1807249206994015E8 ; 2.0019431624455704E10 ; 0.0
109 ; 2039578.4935196452 ; 2.0045315985986325E8 ; 2.201121336133526E8 ; 2.021988346939393E10 ; 0.0
110 ; 2036613.506733168 ; 2.0045447330017564E8 ; 2.2215171210687223E8 ; 2.042033662925379E10 ; 0.0
111 ; 2035283.6432721915 ; 2.004557851978717E8 ; 2.241883256136054E8 ; 2.0620791102553967E10 ; 0.0
112 ; 2033279.3003471398 ; 2.0045709549294278E8 ; 2.262236092568776E8 ; 2.082124688775184E10 ; 0.0
113 ; 2033061.1524799953 ; 2.004584041266119E8 ; 2.2825688855722475E8 ; 2.102170398324478E10 ; 0.0
114 ; 2031386.604628374 ; 2.0045971104128468E8 ; 2.3028994970970476E8 ; 2.1222162387371395E10 ; 0.0
115 ; 2031069.3189515003 ; 2.004610161805028E8 ; 2.3232133631433314E8 ; 2.142262209841268E10 ; 0.0
116 ; 2028347.235874464 ; 2.0046231948889935E8 ; 2.3435240563328463E8 ; 2.1623083114593185E10 ; 0.0
117 ; 2027387.5536121647 ; 2.004636209121569E8 ; 2.363807528691591E8 ; 2.1823545434082085E10 ; 0.0
118 ; 2026172.988628751 ; 2.0046492039696714E8 ; 2.3840814042277128E8 ; 2.202400905499424E10 ; 0.0
119 ; 2024698.348595886 ; 2.0046621789099267E8 ; 2.4043431341140002E8 ; 2.222447397539121E10 ; 0.0
120 ; 2022986.7099166072 ; 2.004675133428307E8 ; 2.424590117599959E8 ; 2.24249401932822E10 ; 0.0
121 ; 2021620.1954652758 ; 2.0046880670197827E8 ; 2.4448199846991253E8 ; 2.262540770662503E10 ; 0.0
122 ; 2020055.9015841694 ; 2.0047009791879925E8 ; 2.465036186653778E8 ; 2.2825876513327007E10 ; 0.0
123 ; 2018405.7537700988 ; 2.0047138694449285E8 ; 2.4852367456696197E8 ; 2.3026346611245808E10 ; 0.0
124 ; 2017370.2051466254 ; 2.0047267373106363E8 ; 2.505420803207321E8 ; 2.32268179981903E10 ; 0.0
125 ; 2015281.329978942 ; 2.004739582312929E8 ; 2.525594505258787E8 ; 2.3427290671921364E10 ; 0.0
126 ; 2012560.6683995784 ; 2.0047524039871138E8 ; 2.5457473185585764E8 ; 2.3627764630152657E10 ; 0.0
127 ; 2010984.4024251755 ; 2.0047652018757325E8 ; 2.565872925242572E8 ; 2.382823987055137E10 ; 0.0
128 ; 2009889.0812587938 ; 2.004777975528312E8 ; 2.5859827692668238E8 ; 2.402871639073894E10 ; 0.0
129 ; 2008113.242957347 ; 2.0047907245011285E8 ; 2.606081660079412E8 ; 2.422919418829177E10 ; 0.0
130 ; 2004914.9743392186 ; 2.0048034483569798E8 ; 2.6261627925089854E8 ; 2.4429673260741882E10 ; 0.0
131 ; 2004536.4852750122 ; 2.0048161466649696E8 ; 2.6462119422523776E8 ; 2.463015360557758E10 ; 0.0
132 ; 2001610.505907485 ; 2.0048288190003017E8 ; 2.6662573071051276E8 ; 2.4830635220244076E10 ; 0.0
133 ; 1998619.1700421383 ; 2.0048414649440813E8 ; 2.6862734121642023E8 ; 2.5031118102144108E10 ; 0.0
134 ; 1996495.641842115 ; 2.0048540840831274E8 ; 2.706259603864624E8 ; 2.5231602248638515E10 ; 0.0
135 ; 1994556.167066107 ; 2.0048666760097927E8 ; 2.726224560283045E8 ; 2.543208765704683E10 ; 0.0
136 ; 1991755.1538934913 ; 2.0048792403217894E8 ; 2.746170121953706E8 ; 2.5632574324647808E10 ; 0.0
137 ; 1990165.2785122902 ; 2.004891776622027E8 ; 2.766087673492641E8 ; 2.583306224867999E10 ; 0.0
138 ; 1986074.677721639 ; 2.004904284518452E8 ; 2.785989326277764E8 ; 2.603355142634219E10 ; 0.0
139 ; 1984305.560767415 ; 2.0049167636238992E8 ; 2.80585007305498E8 ; 2.6234041854794037E10 ; 0.0
140 ; 1982458.875951156 ; 2.0049292135559455E8 ; 2.825693128662654E8 ; 2.6434533531156425E10 ; 0.0
141 ; 1978905.2149385458 ; 2.004941633936772E8 ; 2.845517717422166E8 ; 2.663502645251202E10 ; 0.0
142 ; 1977082.1890944508 ; 2.004954024393033E8 ; 2.865306769571551E8 ; 2.6835520615905697E10 ; 0.0
143 ; 1972599.7522709952 ; 2.0049663845557275E8 ; 2.8850775914624953E8 ; 2.7036016018345E10 ; 0.0
144 ; 1970445.3271650241 ; 2.004978714060078E8 ; 2.904803588985205E8 ; 2.7236512656800575E10 ; 0.0
145 ; 1968330.1416374978 ; 2.004991012545415E8 ; 2.9245080422568554E8 ; 2.7437010528206585E10 ; 0.0
146 ; 1968761.0199426305 ; 2.0050032796550646E8 ; 2.9441913436732304E8 ; 2.763750962946113E10 ; 0.0
147 ; 1966106.224829737 ; 2.0050155150362426E8 ; 2.963878953872657E8 ; 2.7838009957426636E10 ; 0.0
148 ; 1964249.2163109626 ; 2.0050277183399507E8 ; 2.983540016120954E8 ; 2.803851150893026E10 ; 0.0
149 ; 1962798.7933044943 ; 2.0050398892208794E8 ; 3.003182508284064E8 ; 2.8239014280764256E10 ; 0.0
150 ; 1960767.2875009158 ; 2.0050520273373133E8 ; 3.022810496217109E8 ; 2.8439518269686344E10 ; 0.0
151 ; 1959039.5122093486 ; 2.0050641323510408E8 ; 3.042418169092118E8 ; 2.8640023472420074E10 ; 0.0
152 ; 1957001.1808185033 ; 2.0050762039272675E8 ; 3.062008564214212E8 ; 2.8840529885655178E10 ; 0.0
153 ; 1954231.5436818728 ; 2.005088241734533E8 ; 3.0815785760223967E8 ; 2.9041037506047905E10 ; 0.0
154 ; 1952970.7328189984 ; 2.00510024544463E8 ; 3.101120891459215E8 ; 2.924154633022136E10 ; 0.0
155 ; 1950250.4132758602 ; 2.0051122147325304E8 ; 3.1206505987874055E8 ; 2.9442056354765823E10 ; 0.0
156 ; 1949891.2686787527 ; 2.0051241492763084E8 ; 3.140153102920164E8 ; 2.9642567576239075E10 ; 0.0
157 ; 1947310.5246426098 ; 2.0051360487570724E8 ; 3.159652015606951E8 ; 2.9843079991166706E10 ; 0.0
158 ; 1944279.2718691113 ; 2.0051479128588957E8 ; 3.179125120853377E8 ; 3.004359359604241E10 ; 0.0
159 ; 1941982.7697319794 ; 2.0051597412687516E8 ; 3.198567913572068E8 ; 3.02441083873283E10 ; 0.0
160 ; 1940797.242245813 ; 2.0051715336764523E8 ; 3.217987741269388E8 ; 3.0444624361455177E10 ; 0.0
161 ; 1938625.857490741 ; 2.0051832897745866E8 ; 3.237395713691846E8 ; 3.0645141514822823E10 ; 0.0
162 ; 1936050.3720282195 ; 2.0051950092584628E8 ; 3.2567819722667533E8 ; 3.084565984380028E10 ; 0.0
163 ; 1934670.8469686236 ; 2.0052066918260545E8 ; 3.2761424759870356E8 ; 3.1046179344726128E10 ; 0.0
164 ; 1933134.7898086868 ; 2.0052183371779454E8 ; 3.295489184456722E8 ; 3.1246700013908733E10 ; 0.0
165 ; 1930295.5197966017 ; 2.0052299450172788E8 ; 3.314820532354809E8 ; 3.144722184762653E10 ; 0.0
166 ; 1927497.1952870348 ; 2.005241515049709E8 ; 3.334123487552775E8 ; 3.1647744842128258E10 ; 0.0
167 ; 1926612.8194806604 ; 2.005253046983353E8 ; 3.3533984595056456E8 ; 3.184826899363323E10 ; 0.0
168 ; 1924896.6377999673 ; 2.0052645405287445E8 ; 3.372664587700452E8 ; 3.2048794298331562E10 ; 0.0
169 ; 1922192.7925246353 ; 2.0052759953987908E8 ; 3.391913554078452E8 ; 3.2249320752384438E10 ; 0.0
170 ; 1921237.1688030506 ; 2.0052874113087314E8 ; 3.4111354820036983E8 ; 3.2449848351924316E10 ; 0.0
171 ; 1918877.3582224238 ; 2.0052987879760957E8 ; 3.430347853691729E8 ; 3.265037709305519E10 ; 0.0
172 ; 1917011.3291161223 ; 2.005310125120665E8 ; 3.449536627273953E8 ; 3.2850906971852802E10 ; 0.0
173 ; 1914851.602714826 ; 2.0053214224644348E8 ; 3.468706740565114E8 ; 3.305143798436487E10 ; 0.0
174 ; 1912890.8332642466 ; 2.0053326797315788E8 ; 3.4878552565922624E8 ; 3.3251970126611313E10 ; 0.0
175 ; 1911308.726441398 ; 2.0053438966484138E8 ; 3.506984164924905E8 ; 3.3452503394584473E10 ; 0.0
176 ; 1910511.9925538085 ; 2.0053550729433668E8 ; 3.5260972521893185E8 ; 3.3653037784249313E10 ; 0.0
177 ; 1910506.681680522 ; 2.0053662083469418E8 ; 3.545202372114857E8 ; 3.385357329154365E10 ; 0.0
178 ; 1909261.0997698463 ; 2.00537730259169E8 ; 3.564307438931662E8 ; 3.4054109912378345E10 ; 0.0
179 ; 1908075.3119988614 ; 2.0053883554121798E8 ; 3.58340004992936E8 ; 3.4254647642637516E10 ; 0.0
180 ; 1906319.2023109917 ; 2.005399366544967E8 ; 3.6024808030493486E8 ; 3.4455186478178734E10 ; 0.0
181 ; 1904783.9231174358 ; 2.0054103357285684E8 ; 3.6215439950724584E8 ; 3.465572641483323E10 ; 0.0
182 ; 1903516.6923210733 ; 2.0054212627034348E8 ; 3.640591834303633E8 ; 3.485626744840608E10 ; 0.0
183 ; 1902111.855918492 ; 2.0054321472119245E8 ; 3.6596270012268436E8 ; 3.505680957467642E10 ; 0.0
184 ; 1900897.6218177853 ; 2.0054429889982808E8 ; 3.678648119786028E8 ; 3.525735278939761E10 ; 0.0
185 ; 1899844.8855236594 ; 2.0054537878086054E8 ; 3.697657096004206E8 ; 3.545789708829744E10 ; 0.0
186 ; 1896987.8218306608 ; 2.0054645433908382E8 ; 3.716655544859443E8 ; 3.56584424670783E10 ; 0.0
187 ; 1896563.8710594717 ; 2.0054752554947338E8 ; 3.7356254230777496E8 ; 3.585898892141738E10 ; 0.0
188 ; 1895559.0132958125 ; 2.00548592387184E8 ; 3.7545910617883444E8 ; 3.605953644696686E10 ; 0.0
189 ; 1894587.3770421206 ; 2.005496548275479E8 ; 3.7735466519213027E8 ; 3.626008503935404E10 ; 0.0
190 ; 1894082.1221530589 ; 2.0055071284607264E8 ; 3.792492525691724E8 ; 3.646063469418159E10 ; 0.0
191 ; 1892736.239334518 ; 2.005517664184392E8 ; 3.811433346913254E8 ; 3.666118540702766E10 ; 0.0
192 ; 1891164.059000923 ; 2.0055281552050033E8 ; 3.8303607093065995E8 ; 3.68617371734461E10 ; 0.0
193 ; 1889302.6564783833 ; 2.0055386012827855E8 ; 3.8492723498966086E8 ; 3.70622899889666E10 ; 0.0
194 ; 1888650.1576650012 ; 2.005549002179647E8 ; 3.8681653764613926E8 ; 3.726284384909488E10 ; 0.0
195 ; 1887113.0605765819 ; 2.0055593576591617E8 ; 3.887051878038043E8 ; 3.746339874931284E10 ; 0.0
196 ; 1886026.4364264298 ; 2.0055696674865532E8 ; 3.9059230086438084E8 ; 3.766395468507876E10 ; 0.0
197 ; 1885420.2476722097 ; 2.005579931428681E8 ; 3.9247832730080724E8 ; 3.7864511651827415E10 ; 0.0
198 ; 1883732.1046448485 ; 2.0055901492540246E8 ; 3.9436374754847944E8 ; 3.806506964497028E10 ; 0.0
199 ; 1882632.4221054532 ; 2.0056003207326704E8 ; 3.962474796531243E8 ; 3.826562865989568E10 ; 0.0
