CSV File for the City 4 on Day 322
1 - Minute m 
2 - Power Consumed at minute m 
3 - Power Produced at minute m 
4 - Energy Consumed since the beginning of the day 
5 - Energy Produced since the beginning of the day 
6 - Energy Lost since the beginning of the day on lines starting from the city
 
0 ; 6883855.658283712 ; 1.068354854347888E8 ; 0.0 ; 0.0 ; 0.0
1 ; 6889641.766845895 ; 1.0698582110005969E8 ; 6883855.658283712 ; 1.068354854347888E8 ; 0.0
2 ; 6900447.059831063 ; 1.0744520935228345E8 ; 1.3773497425129607E7 ; 2.1382130653484848E8 ; 0.0
3 ; 6906193.73983228 ; 1.0821365311172569E8 ; 2.067394448496067E7 ; 3.212665158871319E8 ; 0.0
4 ; 6917111.07332004 ; 1.0929115498128486E8 ; 2.758013822479295E7 ; 4.294801689988576E8 ; 0.0
5 ; 6930327.536556777 ; 1.1067771723694032E8 ; 3.449724929811299E7 ; 5.387713239801425E8 ; 0.0
6 ; 6946957.346445783 ; 1.1237334181929651E8 ; 4.142757683466977E7 ; 6.494490412170827E8 ; 0.0
7 ; 6968890.97779735 ; 1.1437803032629633E8 ; 4.837453418111555E7 ; 7.618223830363792E8 ; 0.0
8 ; 7004086.746191601 ; 1.1669178400716764E8 ; 5.5343425158912905E7 ; 8.762004133626755E8 ; 0.0
9 ; 7053690.135005101 ; 1.1931460375765783E8 ; 6.23475119051045E7 ; 9.928921973698432E8 ; 0.0
10 ; 7130894.807021155 ; 1.2224649011659831E8 ; 6.94012020401096E7 ; 1.112206801127501E9 ; 0.0
11 ; 7254905.533829258 ; 1.2548744326383069E8 ; 7.653209684713076E7 ; 1.2344532912440994E9 ; 0.0
12 ; 7453601.796542744 ; 1.2903746301951334E8 ; 8.378700238096002E7 ; 1.35994073450793E9 ; 0.0
13 ; 7644384.948250339 ; 1.3289654884481484E8 ; 9.124060417750277E7 ; 1.4889781975274434E9 ; 0.0
14 ; 7666577.304582183 ; 1.3706469984398788E8 ; 9.88849891257531E7 ; 1.6218747463722582E9 ; 0.0
15 ; 7676691.763188611 ; 1.415419147678045E8 ; 1.0655156643033528E8 ; 1.7589394462162461E9 ; 0.0
16 ; 7684657.204987341 ; 1.463281920183219E8 ; 1.142282581935239E8 ; 1.9004813609840508E9 ; 0.0
17 ; 7692350.806176929 ; 1.5142352965493557E8 ; 1.2191291539851125E8 ; 2.0468095530023727E9 ; 0.0
18 ; 7705977.327805106 ; 1.5682792540166616E8 ; 1.2960526620468818E8 ; 2.198233082657308E9 ; 0.0
19 ; 7714600.319300277 ; 1.6254137665561524E8 ; 1.373112435324933E8 ; 2.3550610080589743E9 ; 0.0
20 ; 7721523.281554391 ; 1.6856388049651715E8 ; 1.4502584385179356E8 ; 2.5176023847145896E9 ; 0.0
21 ; 7732598.349613118 ; 1.748954336973056E8 ; 1.5274736713334796E8 ; 2.686166265211107E9 ; 0.0
22 ; 7740774.31784949 ; 1.8153603273560584E8 ; 1.604799654829611E8 ; 2.8610616989084125E9 ; 0.0
23 ; 7751479.80613228 ; 1.8848567380606025E8 ; 1.6822073980081058E8 ; 3.042597731644018E9 ; 0.0
24 ; 7760615.942374755 ; 1.9574435283338702E8 ; 1.7597221960694286E8 ; 3.2310834054500785E9 ; 0.0
25 ; 7769687.396202516 ; 2.0200010638425678E8 ; 1.8373283554931763E8 ; 3.4268277582834654E9 ; 0.0
26 ; 7776621.746321225 ; 2.0200647771841207E8 ; 1.9150252294552013E8 ; 3.628827864667722E9 ; 0.0
27 ; 7788182.903875278 ; 2.0201323132822242E8 ; 1.9927914469184136E8 ; 3.830834342386134E9 ; 0.0
28 ; 7797638.617729992 ; 2.0202036220043507E8 ; 2.0706732759571666E8 ; 4.0328475737143564E9 ; 0.0
29 ; 7806704.558950267 ; 2.0202786512462494E8 ; 2.1486496621344665E8 ; 4.2348679359147916E9 ; 0.0
30 ; 7815738.638374712 ; 2.020357347085295E8 ; 2.2267167077239692E8 ; 4.436895801039416E9 ; 0.0
31 ; 7824434.558663031 ; 2.0204396539342085E8 ; 2.3048740941077164E8 ; 4.638931535747946E9 ; 0.0
32 ; 7830819.699239376 ; 2.0205255146942702E8 ; 2.3831184396943468E8 ; 4.840975501141367E9 ; 0.0
33 ; 7838790.017916684 ; 2.020614870907205E8 ; 2.4614266366867405E8 ; 5.043028052610794E9 ; 0.0
34 ; 7847600.957780819 ; 2.0207076629049733E8 ; 2.5398145368659073E8 ; 5.245089539701514E9 ; 0.0
35 ; 7854843.7815659 ; 2.0208038299567667E8 ; 2.6182905464437154E8 ; 5.447160305992012E9 ; 0.0
36 ; 7864010.990405833 ; 2.0209033104125798E8 ; 2.696838984259374E8 ; 5.649240688987689E9 ; 0.0
37 ; 7871075.160740717 ; 2.0210060418427935E8 ; 2.775479094163433E8 ; 5.851331020028947E9 ; 0.0
38 ; 7876331.653742623 ; 2.0211119611732712E8 ; 2.85418984577084E8 ; 6.053431624213226E9 ; 0.0
39 ; 7883231.786162532 ; 2.0212210048155504E8 ; 2.932953162308266E8 ; 6.255542820330553E9 ; 0.0
40 ; 7891263.526792978 ; 2.021333108791765E8 ; 3.011785480169892E8 ; 6.457664920812108E9 ; 0.0
41 ; 7897056.934874903 ; 2.021448208854011E8 ; 3.090698115437822E8 ; 6.659798231691284E9 ; 0.0
42 ; 7902749.158875013 ; 2.021566240597924E8 ; 3.1696686847865707E8 ; 6.861943052576685E9 ; 0.0
43 ; 7908498.916858253 ; 2.0216871395703024E8 ; 3.2486961763753206E8 ; 7.064099676636477E9 ; 0.0
44 ; 7914350.46273828 ; 2.0218108413706562E8 ; 3.327781165543903E8 ; 7.266268390593508E9 ; 0.0
45 ; 7918825.933747979 ; 2.0219372817466295E8 ; 3.406924670171286E8 ; 7.468449474730574E9 ; 0.0
46 ; 7924935.26035879 ; 2.0220663966832706E8 ; 3.486112929508766E8 ; 7.670643202905236E9 ; 0.0
47 ; 7928185.273102981 ; 2.02219812248619E8 ; 3.565362282112354E8 ; 7.872849842573564E9 ; 0.0
48 ; 7931376.486400993 ; 2.022332395858666E8 ; 3.644644134843384E8 ; 8.075069654822183E9 ; 0.0
49 ; 7935853.315622333 ; 2.0224691539728016E8 ; 3.723957899707394E8 ; 8.27730289440805E9 ; 0.0
50 ; 7937979.658905553 ; 2.0226083345348677E8 ; 3.8033164328636175E8 ; 8.479549809805329E9 ; 0.0
51 ; 7938733.759297976 ; 2.0227498758449855E8 ; 3.882696229452673E8 ; 8.681810643258816E9 ; 0.0
52 ; 7942539.177633786 ; 2.0228937168513292E8 ; 3.962083567045653E8 ; 8.884085630843315E9 ; 0.0
53 ; 7945408.704459719 ; 2.023039797199048E8 ; 4.0415089588219905E8 ; 9.086375002528448E9 ; 0.0
54 ; 7950140.825790498 ; 2.023188057274115E8 ; 4.120963045866588E8 ; 9.288678982248352E9 ; 0.0
55 ; 7950682.013394129 ; 2.0233384382423288E8 ; 4.200464454124493E8 ; 9.490997787975763E9 ; 0.0
56 ; 7954235.5084197465 ; 2.0234908820836973E8 ; 4.279971274258434E8 ; 9.693331631799995E9 ; 0.0
57 ; 7959673.235190359 ; 2.0236453316224417E8 ; 4.3595136293426317E8 ; 9.895680720008366E9 ; 0.0
58 ; 7960662.621422567 ; 2.0238017305528536E8 ; 4.439110361694535E8 ; 1.009804525317061E10 ; 0.0
59 ; 7962419.932993514 ; 2.023960023461255E8 ; 4.518716987908761E8 ; 1.0300425426225895E10 ; 0.0
60 ; 7965509.806760015 ; 2.0241201558442912E8 ; 4.598341187238696E8 ; 1.050282142857202E10 ; 0.0
61 ; 7967862.470621823 ; 2.0242820741237935E8 ; 4.6779962853062963E8 ; 1.0705233444156448E10 ; 0.0
62 ; 7969168.878409428 ; 2.0244457256584504E8 ; 4.7576749100125146E8 ; 1.0907661651568829E10 ; 0.0
63 ; 7970508.186138544 ; 2.0246110587525025E8 ; 4.837366598796609E8 ; 1.1110106224134674E10 ; 0.0
64 ; 7974711.023931428 ; 2.024778022661688E8 ; 4.917071680657995E8 ; 1.1312567330009924E10 ; 0.0
65 ; 7975014.752080234 ; 2.024946567596648E8 ; 4.996818790897309E8 ; 1.1515045132276093E10 ; 0.0
66 ; 7976671.500926017 ; 2.0251166447239962E8 ; 5.076568938418112E8 ; 1.1717539789035757E10 ; 0.0
67 ; 7979543.958305267 ; 2.0252882061652467E8 ; 5.156335653427372E8 ; 1.1920051453508156E10 ; 0.0
68 ; 7983030.316779318 ; 2.0254612049937904E8 ; 5.2361310930104244E8 ; 1.212258027412468E10 ; 0.0
69 ; 7983414.562617385 ; 2.025635595230092E8 ; 5.3159613961782175E8 ; 1.2325126394624058E10 ; 0.0
70 ; 7986800.56148499 ; 2.0258113318352824E8 ; 5.395795541804391E8 ; 1.2527689954147066E10 ; 0.0
71 ; 7986950.264414011 ; 2.0259883707032967E8 ; 5.47566354741924E8 ; 1.2730271087330595E10 ; 0.0
72 ; 7988604.459513104 ; 2.026166668651718E8 ; 5.55553305006338E8 ; 1.2932869924400925E10 ; 0.0
73 ; 7990486.800460081 ; 2.02634618341146E8 ; 5.635419094658511E8 ; 1.3135486591266096E10 ; 0.0
74 ; 7991962.5797847435 ; 2.0265268736154208E8 ; 5.715323962663112E8 ; 1.3338121209607243E10 ; 0.0
75 ; 7993112.667726963 ; 2.0267086987862363E8 ; 5.795243588460959E8 ; 1.3540773896968784E10 ; 0.0
76 ; 7997112.294891926 ; 2.026891619323241E8 ; 5.875174715138229E8 ; 1.3743444766847408E10 ; 0.0
77 ; 7996716.585994341 ; 2.0270755964887476E8 ; 5.955145838087149E8 ; 1.3946133928779732E10 ; 0.0
78 ; 7995991.267078041 ; 2.027260592393742E8 ; 6.035113003947092E8 ; 1.4148841488428606E10 ; 0.0
79 ; 7994289.538807868 ; 2.027446569983084E8 ; 6.115072916617873E8 ; 1.435156754766798E10 ; 0.0
80 ; 7990820.771997567 ; 2.0276334930203027E8 ; 6.195015812005951E8 ; 1.4554312204666288E10 ; 0.0
81 ; 7991508.623943543 ; 2.0278213260720548E8 ; 6.274924019725927E8 ; 1.4757075553968319E10 ; 0.0
82 ; 7988165.798614051 ; 2.028010034492328E8 ; 6.354839105965363E8 ; 1.4959857686575525E10 ; 0.0
83 ; 7988765.020532428 ; 2.0281995844064426E8 ; 6.434720763951503E8 ; 1.5162658690024757E10 ; 0.0
84 ; 7987916.399206841 ; 2.0283899426949224E8 ; 6.514608414156827E8 ; 1.53654786484654E10 ; 0.0
85 ; 7987138.679354814 ; 2.0285810769772762E8 ; 6.594487578148896E8 ; 1.5568317642734894E10 ; 0.0
86 ; 7981813.460015368 ; 2.0287729555957505E8 ; 6.674358964942443E8 ; 1.5771175750432621E10 ; 0.0
87 ; 7985599.8951375205 ; 2.0289655475990885E8 ; 6.754177099542598E8 ; 1.5974053045992195E10 ; 0.0
88 ; 7976972.224466097 ; 2.0291588227263388E8 ; 6.834033098493973E8 ; 1.6176949600752104E10 ; 0.0
89 ; 7978436.251545179 ; 2.02935275139075E8 ; 6.913802820738634E8 ; 1.6379865483024738E10 ; 0.0
90 ; 7976611.292620496 ; 2.0295473046637806E8 ; 6.993587183254086E8 ; 1.6582800758163813E10 ; 0.0
91 ; 7974576.58002422 ; 2.0297424542592543E8 ; 7.073353296180291E8 ; 1.678575548863019E10 ; 0.0
92 ; 7973652.7320469 ; 2.0299381725176853E8 ; 7.153099061980534E8 ; 1.6988729734056116E10 ; 0.0
93 ; 7970334.066581473 ; 2.0301344323907942E8 ; 7.232835589301002E8 ; 1.7191723551307884E10 ; 0.0
94 ; 7968523.145443823 ; 2.0303312074262354E8 ; 7.312538929966817E8 ; 1.7394736994546963E10 ; 0.0
95 ; 7968424.512465356 ; 2.030528471752553E8 ; 7.392224161421255E8 ; 1.7597770115289585E10 ; 0.0
96 ; 7963797.330969504 ; 2.030726200064376E8 ; 7.471908406545908E8 ; 1.780082296246484E10 ; 0.0
97 ; 7964252.535507602 ; 2.0309243676078713E8 ; 7.551546379855603E8 ; 1.800389558247128E10 ; 0.0
98 ; 7960509.321962338 ; 2.0311229501664564E8 ; 7.631188905210679E8 ; 1.8206988019232067E10 ; 0.0
99 ; 7957184.212405595 ; 2.031321924046789E8 ; 7.710793998430302E8 ; 1.8410100314248714E10 ; 0.0
100 ; 7951238.387373173 ; 2.0315212660650343E8 ; 7.790365840554358E8 ; 1.8613232506653393E10 ; 0.0
101 ; 7953747.861209828 ; 2.0317209535334152E8 ; 7.86987822442809E8 ; 1.8816384633259895E10 ; 0.0
102 ; 7949599.7918507615 ; 2.031920964247057E8 ; 7.949415703040189E8 ; 1.9019556728613235E10 ; 0.0
103 ; 7946692.34402746 ; 2.0321212764711177E8 ; 8.028911700958697E8 ; 1.922274882503794E10 ; 0.0
104 ; 7947544.0375606455 ; 2.0323218689282143E8 ; 8.108378624398971E8 ; 1.942596095268505E10 ; 0.0
105 ; 7940416.003710607 ; 2.0325227207861456E8 ; 8.187854064774578E8 ; 1.9629193139577873E10 ; 0.0
106 ; 7940432.718555726 ; 2.0327238116459048E8 ; 8.267258224811684E8 ; 1.9832445411656487E10 ; 0.0
107 ; 7934753.13089273 ; 2.0329251215299878E8 ; 8.346662551997241E8 ; 2.0035717792821075E10 ; 0.0
108 ; 7933201.297130735 ; 2.0331266308709928E8 ; 8.426010083306168E8 ; 2.0239010304974075E10 ; 0.0
109 ; 7929024.248417626 ; 2.0333283205005097E8 ; 8.505342096277475E8 ; 2.0442322968061176E10 ; 0.0
110 ; 7924603.8342162315 ; 2.0335301716382942E8 ; 8.584632338761652E8 ; 2.064565580011123E10 ; 0.0
111 ; 7920949.505538318 ; 2.033732165881727E8 ; 8.663878377103814E8 ; 2.084900881727506E10 ; 0.0
112 ; 7918945.2650819095 ; 2.0339342851955524E8 ; 8.743087872159197E8 ; 2.105238203386323E10 ; 0.0
113 ; 7917862.651446432 ; 2.0341365119018924E8 ; 8.822277324810016E8 ; 2.1255775462382786E10 ; 0.0
114 ; 7911358.976469924 ; 2.0343388286705315E8 ; 8.901455951324481E8 ; 2.1459189113572975E10 ; 0.0
115 ; 7908582.410725672 ; 2.0345412185094693E8 ; 8.98056954108918E8 ; 2.166262299644003E10 ; 0.0
116 ; 7908076.501291075 ; 2.034743664755735E8 ; 9.059655365196437E8 ; 2.1866077118290977E10 ; 0.0
117 ; 7899817.167710517 ; 2.034946151066458E8 ; 9.138736130209347E8 ; 2.2069551484766552E10 ; 0.0
118 ; 7899367.881583853 ; 2.0351486614101908E8 ; 9.217734301886452E8 ; 2.22730460998732E10 ; 0.0
119 ; 7896643.697793891 ; 2.0353511800584784E8 ; 9.29672798070229E8 ; 2.2476560966014217E10 ; 0.0
120 ; 7892607.93795688 ; 2.0355536915776703E8 ; 9.375694417680229E8 ; 2.2680096084020065E10 ; 0.0
121 ; 7889239.797857762 ; 2.0357561808209652E8 ; 9.454620497059798E8 ; 2.2883651453177834E10 ; 0.0
122 ; 7881772.108881799 ; 2.035958632920689E8 ; 9.533512895038376E8 ; 2.308722707125993E10 ; 0.0
123 ; 7879712.0996072 ; 2.036161033280796E8 ; 9.612330616127194E8 ; 2.3290822934552E10 ; 0.0
124 ; 7875883.966606654 ; 2.0363633675695908E8 ; 9.691127737123266E8 ; 2.3494439037880077E10 ; 0.0
125 ; 7870437.623868614 ; 2.036565621712662E8 ; 9.769886576789333E8 ; 2.3698075374637035E10 ; 0.0
126 ; 7865812.7555611385 ; 2.0367677818860275E8 ; 9.848590953028018E8 ; 2.39017319368083E10 ; 0.0
127 ; 7863100.78698928 ; 2.0369698345094794E8 ; 9.92724908058363E8 ; 2.4105408714996902E10 ; 0.0
128 ; 7857991.623904556 ; 2.037171766240129E8 ; 1.0005880088453523E9 ; 2.430910569844785E10 ; 0.0
129 ; 7856894.131123038 ; 2.0373735639661434E8 ; 1.0084460004692569E9 ; 2.451282287507186E10 ; 0.0
130 ; 7848173.255494728 ; 2.03757521480067E8 ; 1.01630289460038E9 ; 2.4716560231468475E10 ; 0.0
131 ; 7840405.620648882 ; 2.0377767060759416E8 ; 1.0241510678558747E9 ; 2.4920317752948544E10 ; 0.0
132 ; 7833995.36513187 ; 2.0379780253375587E8 ; 1.0319914734765235E9 ; 2.5124095423556137E10 ; 0.0
133 ; 7826042.7487022085 ; 2.038179160338946E8 ; 1.0398254688416554E9 ; 2.5327893226089893E10 ; 0.0
134 ; 7821584.197784079 ; 2.038380099035973E8 ; 1.0476515115903575E9 ; 2.5531711142123787E10 ; 0.0
135 ; 7811648.097005948 ; 2.038580829581739E8 ; 1.0554730957881416E9 ; 2.5735549152027386E10 ; 0.0
136 ; 7806067.054190645 ; 2.0387813403215146E8 ; 1.0632847438851476E9 ; 2.593940723498556E10 ; 0.0
137 ; 7799009.926307548 ; 2.038981619787836E8 ; 1.0710908109393382E9 ; 2.614328536901771E10 ; 0.0
138 ; 7790844.735862596 ; 2.0391816566957495E8 ; 1.0788898208656456E9 ; 2.6347183530996494E10 ; 0.0
139 ; 7783936.87793532 ; 2.0393814399381974E8 ; 1.0866806656015081E9 ; 2.655110169666607E10 ; 0.0
140 ; 7777709.937110888 ; 2.0395809585815462E8 ; 1.0944646024794436E9 ; 2.675503984065989E10 ; 0.0
141 ; 7769920.455099006 ; 2.0397802018612498E8 ; 1.1022423124165545E9 ; 2.6958997936518044E10 ; 0.0
142 ; 7761508.799909098 ; 2.0399791591776422E8 ; 1.1100122328716536E9 ; 2.716297595670417E10 ; 0.0
143 ; 7755491.680391275 ; 2.0401778200918612E8 ; 1.1177737416715627E9 ; 2.7366973872621933E10 ; 0.0
144 ; 7746648.503286463 ; 2.0403761743218932E8 ; 1.125529233351954E9 ; 2.757099165463112E10 ; 0.0
145 ; 7740822.715039315 ; 2.040574211738738E8 ; 1.1332758818552403E9 ; 2.777502927206331E10 ; 0.0
146 ; 7738819.85451285 ; 2.040771922362693E8 ; 1.1410167045702796E9 ; 2.7979086693237183E10 ; 0.0
147 ; 7732489.120417597 ; 2.040969296359745E8 ; 1.1487555244247925E9 ; 2.8183163885473454E10 ; 0.0
148 ; 7725573.969287229 ; 2.0411663240380752E8 ; 1.1564880135452101E9 ; 2.838726081510943E10 ; 0.0
149 ; 7717650.41234797 ; 2.0413629958446687E8 ; 1.1642135875144973E9 ; 2.8591377447513237E10 ; 0.0
150 ; 7718106.814423572 ; 2.0415593023620275E8 ; 1.1719312379268453E9 ; 2.8795513747097702E10 ; 0.0
151 ; 7712475.8786492 ; 2.0417552343049794E8 ; 1.1796493447412689E9 ; 2.8999669677333904E10 ; 0.0
152 ; 7709575.715790572 ; 2.0419507825175896E8 ; 1.187361820619918E9 ; 2.92038452007644E10 ; 0.0
153 ; 7700806.10037239 ; 2.0421459379701588E8 ; 1.1950713963357086E9 ; 2.940804027901616E10 ; 0.0
154 ; 7699073.805507468 ; 2.0423406917563164E8 ; 1.202772202436081E9 ; 2.9612254872813175E10 ; 0.0
155 ; 7692516.2155334875 ; 2.042535035090199E8 ; 1.2104712762415884E9 ; 2.9816488941988808E10 ; 0.0
156 ; 7690256.490989115 ; 2.0427289593037164E8 ; 1.2181637924571218E9 ; 3.002074244549783E10 ; 0.0
157 ; 7681245.547558097 ; 2.0429224558438945E8 ; 1.225854048948111E9 ; 3.02250153414282E10 ; 0.0
158 ; 7677838.295090745 ; 2.0431155162703046E8 ; 1.2335352944956691E9 ; 3.042930758701259E10 ; 0.0
159 ; 7673647.515609997 ; 2.043308132252565E8 ; 1.2412131327907598E9 ; 3.0633619138639618E10 ; 0.0
160 ; 7667213.269640053 ; 2.0435002955679187E8 ; 1.2488867803063698E9 ; 3.0837949951864876E10 ; 0.0
161 ; 7661956.083545041 ; 2.0436919980988848E8 ; 1.2565539935760098E9 ; 3.104229998142167E10 ; 0.0
162 ; 7655491.397911681 ; 2.0438832318309787E8 ; 1.2642159496595547E9 ; 3.1246669181231556E10 ; 0.0
163 ; 7650424.288074985 ; 2.0440739888504997E8 ; 1.2718714410574665E9 ; 3.1451057504414654E10 ; 0.0
164 ; 7648670.258953071 ; 2.044264261342386E8 ; 1.2795218653455415E9 ; 3.1655464903299706E10 ; 0.0
165 ; 7637896.487231095 ; 2.044454041588133E8 ; 1.2871705356044946E9 ; 3.1859891329433945E10 ; 0.0
166 ; 7622160.463555487 ; 2.044643321963773E8 ; 1.2948084320917256E9 ; 3.206433673359276E10 ; 0.0
167 ; 7606242.979866076 ; 2.044832094937915E8 ; 1.3024305925552812E9 ; 3.2268801065789135E10 ; 0.0
168 ; 7590332.868741775 ; 2.0450203530698416E8 ; 1.3100368355351472E9 ; 3.2473284275282925E10 ; 0.0
169 ; 7575570.040080903 ; 2.045208089007664E8 ; 1.317627168403889E9 ; 3.267778631058991E10 ; 0.0
170 ; 7561227.881887628 ; 2.0453952954865307E8 ; 1.3252027384439697E9 ; 3.2882307119490677E10 ; 0.0
171 ; 7543449.639768328 ; 2.045581965326887E8 ; 1.3327639663258574E9 ; 3.308684664903933E10 ; 0.0
172 ; 7529968.073568401 ; 2.0457680914327887E8 ; 1.3403074159656258E9 ; 3.3291404845572018E10 ; 0.0
173 ; 7511384.071149095 ; 2.0459536667902637E8 ; 1.347837384039194E9 ; 3.3495981654715298E10 ; 0.0
174 ; 7502076.880678631 ; 2.04613868446572E8 ; 1.3553487681103432E9 ; 3.3700577021394325E10 ; 0.0
175 ; 7482381.626609985 ; 2.0463231376044053E8 ; 1.3628508449910219E9 ; 3.3905190889840897E10 ; 0.0
176 ; 7471017.250380902 ; 2.0465070194289047E8 ; 1.370333226617632E9 ; 3.4109823203601337E10 ; 0.0
177 ; 7457883.1605967125 ; 2.0466903232376885E8 ; 1.377804243868013E9 ; 3.4314473905544228E10 ; 0.0
178 ; 7438695.605805548 ; 2.0468730424036974E8 ; 1.3852621270286095E9 ; 3.4519142937868E10 ; 0.0
179 ; 7432486.3841729015 ; 2.047E8 ; 1.3927008226344151E9 ; 3.472383024210837E10 ; 0.0
180 ; 7417800.355974597 ; 2.047E8 ; 1.400133309018588E9 ; 3.492853024210837E10 ; 0.0
181 ; 7401054.050480396 ; 2.047E8 ; 1.4075511093745627E9 ; 3.513323024210837E10 ; 0.0
182 ; 7386618.319523568 ; 2.047E8 ; 1.414952163425043E9 ; 3.533793024210837E10 ; 0.0
183 ; 7374074.603064347 ; 2.047E8 ; 1.4223387817445667E9 ; 3.554263024210837E10 ; 0.0
184 ; 7360136.445170678 ; 2.047E8 ; 1.429712856347631E9 ; 3.574733024210837E10 ; 0.0
185 ; 7346698.870843119 ; 2.047E8 ; 1.4370729927928016E9 ; 3.595203024210837E10 ; 0.0
186 ; 7330133.134333319 ; 2.047E8 ; 1.4444196916636448E9 ; 3.615673024210837E10 ; 0.0
187 ; 7319850.877890589 ; 2.047E8 ; 1.4517498247979782E9 ; 3.636143024210837E10 ; 0.0
188 ; 7302467.712462983 ; 2.047E8 ; 1.4590696756758687E9 ; 3.656613024210837E10 ; 0.0
189 ; 7290980.673126508 ; 2.047E8 ; 1.4663721433883317E9 ; 3.677083024210837E10 ; 0.0
190 ; 7277936.900544944 ; 2.047E8 ; 1.473663124061458E9 ; 3.697553024210837E10 ; 0.0
191 ; 7264522.802618341 ; 2.047E8 ; 1.480941060962003E9 ; 3.718023024210837E10 ; 0.0
192 ; 7248293.522180915 ; 2.047E8 ; 1.4882055837646213E9 ; 3.738493024210837E10 ; 0.0
193 ; 7235193.1671282 ; 2.047E8 ; 1.4954538772868023E9 ; 3.758963024210837E10 ; 0.0
194 ; 7222058.926278582 ; 2.047E8 ; 1.5026890704539304E9 ; 3.779433024210837E10 ; 0.0
195 ; 7207494.572982527 ; 2.047E8 ; 1.509911129380209E9 ; 3.799903024210837E10 ; 0.0
196 ; 7196275.994211331 ; 2.047E8 ; 1.5171186239531915E9 ; 3.820373024210837E10 ; 0.0
197 ; 7182243.81595078 ; 2.047E8 ; 1.524314899947403E9 ; 3.840843024210837E10 ; 0.0
198 ; 7169659.910398205 ; 2.047E8 ; 1.5314971437633538E9 ; 3.861313024210837E10 ; 0.0
199 ; 7154013.674155518 ; 1.7791215323916993E8 ; 1.538666803673752E9 ; 3.881783024210837E10 ; 0.0
200 ; 7138726.393969534 ; 1.5620807492166224E8 ; 1.5458208173479075E9 ; 3.8995742395347534E10 ; 0.0
201 ; 7124723.252274659 ; 1.5586000678114402E8 ; 1.552959543741877E9 ; 3.9151950470269196E10 ; 0.0
202 ; 7111451.590042522 ; 1.555127382774142E8 ; 1.5600842669941518E9 ; 3.930781047705034E10 ; 0.0
203 ; 7098685.75707404 ; 1.5516626757342157E8 ; 1.5671957185841944E9 ; 3.946332321532775E10 ; 0.0
