CSV File for the City 4 on Day 106
1 - Minute m 
2 - Power Consumed at minute m 
3 - Power Produced at minute m 
4 - Energy Consumed since the beginning of the day 
5 - Energy Produced since the beginning of the day 
6 - Energy Lost since the beginning of the day on lines starting from the city
 
0 ; 6869558.957148556 ; 1.062417232881662E8 ; 0.0 ; 0.0 ; 0.0
1 ; 6876064.485504159 ; 1.0639228947424841E8 ; 6869558.957148556 ; 1.062417232881662E8 ; 0.0
2 ; 6885867.794819281 ; 1.0685188097140923E8 ; 1.3745623442652714E7 ; 2.126340127624146E8 ; 0.0
3 ; 6893589.927891916 ; 1.076205016601699E8 ; 2.0631491237471994E7 ; 3.1948589373382384E8 ; 0.0
4 ; 6901367.5945359655 ; 1.086981550155757E8 ; 2.7525081165363908E7 ; 4.2710639539399374E8 ; 0.0
5 ; 6918203.580960823 ; 1.1008484408882105E8 ; 3.442644875989987E7 ; 5.3580455040956944E8 ; 0.0
6 ; 6932582.528053653 ; 1.117805714908224E8 ; 4.1344652340860695E7 ; 6.458893944983904E8 ; 0.0
7 ; 6955553.8024188215 ; 1.1378533937794209E8 ; 4.827723486891435E7 ; 7.576699659892129E8 ; 0.0
8 ; 6988265.390036137 ; 1.1609914944004494E8 ; 5.523278867133317E7 ; 8.71455305367155E8 ; 0.0
9 ; 7041118.1316456245 ; 1.1872200289104164E8 ; 6.222105406136931E7 ; 9.875544548072E8 ; 0.0
10 ; 7118965.776539071 ; 1.2165390046204275E8 ; 6.926217219301493E7 ; 1.1062764576982417E9 ; 0.0
11 ; 7242478.717216622 ; 1.248948423972145E8 ; 7.6381137969554E7 ; 1.2279303581602845E9 ; 0.0
12 ; 7438885.605272189 ; 1.2844482845239064E8 ; 8.362361668677063E7 ; 1.352825200557499E9 ; 0.0
13 ; 7631505.194504363 ; 1.323038578964606E8 ; 9.106250229204282E7 ; 1.4812700290098896E9 ; 0.0
14 ; 7653734.426080896 ; 1.3647192951551378E8 ; 9.869400748654719E7 ; 1.6135738869063501E9 ; 0.0
15 ; 7661873.715688157 ; 1.4094904161968523E8 ; 1.0634774191262808E8 ; 1.750045816421864E9 ; 0.0
16 ; 7671658.483473256 ; 1.4573519205261275E8 ; 1.1400961562831624E8 ; 1.8909948580415492E9 ; 0.0
17 ; 7679645.599266442 ; 1.5083037820337978E8 ; 1.216812741117895E8 ; 2.036730050094162E9 ; 0.0
18 ; 7688355.083569102 ; 1.5623459702079195E8 ; 1.2936091971105593E8 ; 2.1875604282975416E9 ; 0.0
19 ; 7699157.1946801925 ; 1.6194784502980396E8 ; 1.3704927479462504E8 ; 2.3437950253183336E9 ; 0.0
20 ; 7707856.926006175 ; 1.6797011834989455E8 ; 1.4474843198930523E8 ; 2.5057428703481374E9 ; 0.0
21 ; 7716085.286903205 ; 1.7430141271516696E8 ; 1.524562889153114E8 ; 2.673712988698032E9 ; 0.0
22 ; 7725268.591301994 ; 1.809417234959389E8 ; 1.601723742022146E8 ; 2.848014401413199E9 ; 0.0
23 ; 7734043.457736767 ; 1.8789104572157747E8 ; 1.678976427935166E8 ; 3.0289561249091377E9 ; 0.0
24 ; 7746800.932858237 ; 1.951493741043306E8 ; 1.7563168625125337E8 ; 3.2168471706307154E9 ; 0.0
25 ; 7751088.542580509 ; 2.0140474396208948E8 ; 1.833784871841116E8 ; 3.411996544735046E9 ; 0.0
26 ; 7762737.64600086 ; 2.0141069728036702E8 ; 1.911295757266921E8 ; 3.6134012886971354E9 ; 0.0
27 ; 7773620.312847607 ; 2.014169972625519E8 ; 1.9889231337269297E8 ; 3.8148119859775023E9 ; 0.0
28 ; 7779872.719638265 ; 2.0142363760207537E8 ; 2.066659336855406E8 ; 4.016228983240054E9 ; 0.0
29 ; 7790544.557955836 ; 2.014306118008854E8 ; 2.1444580640517884E8 ; 4.2176526208421297E9 ; 0.0
30 ; 7798741.373572246 ; 2.0143791319431666E8 ; 2.2223635096313468E8 ; 4.419083232643015E9 ; 0.0
31 ; 7804677.799387276 ; 2.0144553497542712E8 ; 2.3003509233670694E8 ; 4.620521145837332E9 ; 0.0
32 ; 7814096.560895459 ; 2.0145347021864656E8 ; 2.378397701360942E8 ; 4.821966680812758E9 ; 0.0
33 ; 7824269.833742437 ; 2.014617119026012E8 ; 2.456538666969897E8 ; 5.023420151031405E9 ; 0.0
34 ; 7830955.955201461 ; 2.0147025293200117E8 ; 2.5347813653073213E8 ; 5.224881862934007E9 ; 0.0
35 ; 7837023.212110361 ; 2.0147908615849513E8 ; 2.6130909248593357E8 ; 5.426352115866008E9 ; 0.0
36 ; 7847850.824941357 ; 2.0148820440041858E8 ; 2.6914611569804394E8 ; 5.627831202024503E9 ; 0.0
37 ; 7851561.13812955 ; 2.0149760046137834E8 ; 2.769939665229853E8 ; 5.829319406424921E9 ; 0.0
38 ; 7859442.101705633 ; 2.015072671476352E8 ; 2.848455276611148E8 ; 6.030817006886299E9 ; 0.0
39 ; 7868916.150217771 ; 2.015171972842618E8 ; 2.927049697628204E8 ; 6.232324274033935E9 ; 0.0
40 ; 7870549.565734646 ; 2.015273837300674E8 ; 3.005738859130382E8 ; 6.433841471318196E9 ; 0.0
41 ; 7878494.865646356 ; 2.015378193912952E8 ; 3.084444354787728E8 ; 6.635368855048264E9 ; 0.0
42 ; 7883557.166460197 ; 2.0154849723410764E8 ; 3.163229303444192E8 ; 6.836906674439559E9 ; 0.0
43 ; 7890467.045963125 ; 2.0155941029588753E8 ; 3.242064875108794E8 ; 7.038455171673667E9 ; 0.0
44 ; 7897461.367830218 ; 2.015705516953883E8 ; 3.320969545568425E8 ; 7.240014581969555E9 ; 0.0
45 ; 7897663.816099451 ; 2.0158191464177638E8 ; 3.399944159246727E8 ; 7.441585133664943E9 ; 0.0
46 ; 7904843.819662492 ; 2.0159349244261253E8 ; 3.478920797407722E8 ; 7.643167048306719E9 ; 0.0
47 ; 7909363.074967297 ; 2.0160527851082337E8 ; 3.557969235604347E8 ; 7.844760540749331E9 ; 0.0
48 ; 7912735.908794609 ; 2.0161726637071863E8 ; 3.63706286635402E8 ; 8.046365819260155E9 ; 0.0
49 ; 7917052.494151712 ; 2.0162944966311017E8 ; 3.716190225441966E8 ; 8.247983085630874E9 ; 0.0
50 ; 7918903.597123985 ; 2.016418221495913E8 ; 3.795360750383483E8 ; 8.449612535293983E9 ; 0.0
51 ; 7920715.182013448 ; 2.016543777160342E8 ; 3.874549786354723E8 ; 8.651254357443575E9 ; 0.0
52 ; 7925724.650471915 ; 2.0166711037536383E8 ; 3.9537569381748575E8 ; 8.852908735159609E9 ; 0.0
53 ; 7928144.07922763 ; 2.016800142696649E8 ; 4.033014184679577E8 ; 9.054575845534973E9 ; 0.0
54 ; 7929406.9356317455 ; 2.0169308367167786E8 ; 4.112295625471853E8 ; 9.256255859804638E9 ; 0.0
55 ; 7933502.670751538 ; 2.0170631298573723E8 ; 4.1915896948281705E8 ; 9.457948943476316E9 ; 0.0
56 ; 7937322.861145167 ; 2.0171969674820432E8 ; 4.2709247215356857E8 ; 9.659655256462053E9 ; 0.0
57 ; 7939741.226250372 ; 2.0173322962744325E8 ; 4.350297950147137E8 ; 9.861374953210258E9 ; 0.0
58 ; 7938505.156381939 ; 2.01746906423387E8 ; 4.4296953624096406E8 ; 1.0063108182837702E10 ; 0.0
59 ; 7941366.0797058875 ; 2.017607220667377E8 ; 4.50908041397346E8 ; 1.026485508926109E10 ; 0.0
60 ; 7944022.2882718025 ; 2.017746716178425E8 ; 4.588494074770519E8 ; 1.0466615811327827E10 ; 0.0
61 ; 7946146.425561357 ; 2.0178875026528323E8 ; 4.667934297653237E8 ; 1.066839048294567E10 ; 0.0
62 ; 7946775.600358011 ; 2.0180295332421634E8 ; 4.7473957619088507E8 ; 1.0870179233210953E10 ; 0.0
63 ; 7951878.730621261 ; 2.018172762344959E8 ; 4.826863517912431E8 ; 1.107198218653517E10 ; 0.0
64 ; 7952960.322208225 ; 2.0183171455861068E8 ; 4.9063823052186435E8 ; 1.1273799462769665E10 ; 0.0
65 ; 7955653.485202009 ; 2.018462639794629E8 ; 4.985911908440726E8 ; 1.1475631177328276E10 ; 0.0
66 ; 7957409.468843709 ; 2.0186092029801515E8 ; 5.065468443292746E8 ; 1.167747744130774E10 ; 0.0
67 ; 7957417.19924357 ; 2.0187567943082827E8 ; 5.145042537981183E8 ; 1.1879338361605755E10 ; 0.0
68 ; 7962493.662778325 ; 2.018905374075119E8 ; 5.2246167099736184E8 ; 1.2081214041036583E10 ; 0.0
69 ; 7962984.711731966 ; 2.0190549036810663E8 ; 5.3042416466014016E8 ; 1.2283104578444096E10 ; 0.0
70 ; 7965382.847384027 ; 2.019205345604157E8 ; 5.383871493718721E8 ; 1.2485010068812202E10 ; 0.0
71 ; 7965023.0402426515 ; 2.0193566633730072E8 ; 5.46352532219256E8 ; 1.2686930603372618E10 ; 0.0
72 ; 7967743.002400804 ; 2.019508821539567E8 ; 5.543175552594987E8 ; 1.2888866269709919E10 ; 0.0
73 ; 7968034.690264891 ; 2.019661785651777E8 ; 5.622852982618995E8 ; 1.3090817151863876E10 ; 0.0
74 ; 7971416.099900871 ; 2.0198155222262424E8 ; 5.702533329521644E8 ; 1.3292783330429054E10 ; 0.0
75 ; 7969211.604780604 ; 2.0199699987210262E8 ; 5.782247490520653E8 ; 1.3494764882651678E10 ; 0.0
76 ; 7972721.93589548 ; 2.02012518350864E8 ; 5.861939606568458E8 ; 1.369676188252378E10 ; 0.0
77 ; 7972940.283848962 ; 2.0202810458493093E8 ; 5.941666825927413E8 ; 1.3898774400874645E10 ; 0.0
78 ; 7971301.91557762 ; 2.0204375558645752E8 ; 6.021396228765903E8 ; 1.4100802505459576E10 ; 0.0
79 ; 7968043.0879018 ; 2.020594684511288E8 ; 6.101109247921679E8 ; 1.4302846261046034E10 ; 0.0
80 ; 7969431.645329989 ; 2.0207524035560396E8 ; 6.180789678800697E8 ; 1.4504905729497162E10 ; 0.0
81 ; 7970360.877449253 ; 2.0209106855500683E8 ; 6.260483995253997E8 ; 1.4706980969852766E10 ; 0.0
82 ; 7969746.072192524 ; 2.0210695038046798E8 ; 6.34018760402849E8 ; 1.4909072038407772E10 ; 0.0
83 ; 7967194.966823028 ; 2.0212288323671952E8 ; 6.419885064750415E8 ; 1.511117898878824E10 ; 0.0
84 ; 7966465.186665905 ; 2.0213886459974614E8 ; 6.499557014418645E8 ; 1.531330187202496E10 ; 0.0
85 ; 7962568.421754298 ; 2.0215489201449287E8 ; 6.579221666285304E8 ; 1.5515440736624706E10 ; 0.0
86 ; 7961623.759723263 ; 2.021709630926315E8 ; 6.658847350502846E8 ; 1.5717595628639198E10 ; 0.0
87 ; 7957069.030880945 ; 2.0218707551038605E8 ; 6.738463588100079E8 ; 1.591976659173183E10 ; 0.0
88 ; 7955449.491294946 ; 2.022032270064178E8 ; 6.818034278408889E8 ; 1.6121953667242216E10 ; 0.0
89 ; 7955655.363365384 ; 2.0221941537977043E8 ; 6.897588773321838E8 ; 1.6324156894248634E10 ; 0.0
90 ; 7953717.090933132 ; 2.0223563848787442E8 ; 6.977145326955492E8 ; 1.6526376309628405E10 ; 0.0
91 ; 7948217.226842681 ; 2.0225189424461126E8 ; 7.056682497864823E8 ; 1.672861194811628E10 ; 0.0
92 ; 7950680.47249572 ; 2.0226818061843655E8 ; 7.13616467013325E8 ; 1.6930863842360891E10 ; 0.0
93 ; 7947511.080150126 ; 2.02284495630561E8 ; 7.215671474858207E8 ; 1.7133132022979328E10 ; 0.0
94 ; 7943898.206254039 ; 2.023008373531894E8 ; 7.295146585659708E8 ; 1.733541651860989E10 ; 0.0
95 ; 7940629.580415666 ; 2.023172039078158E8 ; 7.374585567722248E8 ; 1.7537717355963078E10 ; 0.0
96 ; 7941997.909546308 ; 2.0233359346357417E8 ; 7.453991863526404E8 ; 1.774003455987089E10 ; 0.0
97 ; 7938471.9706986435 ; 2.0235000423564357E8 ; 7.533411842621866E8 ; 1.7942368153334465E10 ; 0.0
98 ; 7933909.160713528 ; 2.0236643448370644E8 ; 7.612796562328852E8 ; 1.814471815757011E10 ; 0.0
99 ; 7931481.483787605 ; 2.0238288251045904E8 ; 7.692135653935988E8 ; 1.8347084592053818E10 ; 0.0
100 ; 7929872.064545159 ; 2.023993466601722E8 ; 7.771450468773865E8 ; 1.8549467474564278E10 ; 0.0
101 ; 7927961.879302727 ; 2.0241582531730193E8 ; 7.850749189419316E8 ; 1.875186682122445E10 ; 0.0
102 ; 7921025.563520697 ; 2.024323169051477E8 ; 7.930028808212343E8 ; 1.895428264654175E10 ; 0.0
103 ; 7919539.669696199 ; 2.0244881988455763E8 ; 8.00923906384755E8 ; 1.91567149634469E10 ; 0.0
104 ; 7917897.266661472 ; 2.0246533275267902E8 ; 8.088434460544512E8 ; 1.9359163783331455E10 ; 0.0
105 ; 7913191.067503919 ; 2.0248185404175282E8 ; 8.167613433211128E8 ; 1.9561629116084133E10 ; 0.0
106 ; 7910655.720515819 ; 2.0249838231795081E8 ; 8.246745343886167E8 ; 1.9764110970125885E10 ; 0.0
107 ; 7908305.225584706 ; 2.025149161802543E8 ; 8.325851901091325E8 ; 1.9966609352443836E10 ; 0.0
108 ; 7902815.980678712 ; 2.0253145425937253E8 ; 8.404934953347173E8 ; 2.0169124268624092E10 ; 0.0
109 ; 7903874.475238811 ; 2.0254799521669996E8 ; 8.48396311315396E8 ; 2.0371655722883465E10 ; 0.0
110 ; 7898880.812225192 ; 2.0256453774331108E8 ; 8.563001857906348E8 ; 2.0574203718100166E10 ; 0.0
111 ; 7895946.030624028 ; 2.0258108055899134E8 ; 8.6419906660286E8 ; 2.077676825584348E10 ; 0.0
112 ; 7890821.157001558 ; 2.02597622411303E8 ; 8.72095012633484E8 ; 2.097934933640247E10 ; 0.0
113 ; 7886968.547330191 ; 2.0261416207468483E8 ; 8.799858337904856E8 ; 2.1181946958813774E10 ; 0.0
114 ; 7883329.420839533 ; 2.026306983495843E8 ; 8.878728023378158E8 ; 2.138456112088846E10 ; 0.0
115 ; 7882250.031622579 ; 2.0264723006162134E8 ; 8.957561317586553E8 ; 2.158719181923804E10 ; 0.0
116 ; 7879998.9436989315 ; 2.0266375606078237E8 ; 9.036383817902778E8 ; 2.1789839049299664E10 ; 0.0
117 ; 7876788.429515487 ; 2.0268027522064352E8 ; 9.115183807339767E8 ; 2.1992502805360447E10 ; 0.0
118 ; 7871221.500846473 ; 2.0269678643762222E8 ; 9.193951691634922E8 ; 2.219518308058109E10 ; 0.0
119 ; 7864339.8033068655 ; 2.0271328863025576E8 ; 9.272663906643387E8 ; 2.239787986701871E10 ; 0.0
120 ; 7860618.118995576 ; 2.027297807385062E8 ; 9.351307304676455E8 ; 2.2600593155648968E10 ; 0.0
121 ; 7855692.872094103 ; 2.0274626172309047E8 ; 9.429913485866411E8 ; 2.2803322936387474E10 ; 0.0
122 ; 7854424.6689868225 ; 2.027627305648347E8 ; 9.508470414587352E8 ; 2.3006069198110565E10 ; 0.0
123 ; 7851539.870901051 ; 2.027791862640522E8 ; 9.58701466127722E8 ; 2.32088319286754E10 ; 0.0
124 ; 7843883.887360877 ; 2.0279562783994353E8 ; 9.665530059986231E8 ; 2.3411611114939453E10 ; 0.0
125 ; 7840881.707959852 ; 2.0281205433001876E8 ; 9.743968898859841E8 ; 2.3614406742779396E10 ; 0.0
126 ; 7835956.471364946 ; 2.028284647895404E8 ; 9.82237771593944E8 ; 2.3817218797109413E10 ; 0.0
127 ; 7829391.303890831 ; 2.0284485829098642E8 ; 9.900737280653089E8 ; 2.4020047261898952E10 ; 0.0
128 ; 7827337.962144756 ; 2.0286123392353263E8 ; 9.979031193691998E8 ; 2.4222892120189938E10 ; 0.0
129 ; 7821410.305989722 ; 2.0287759079255387E8 ; 1.0057304573313445E9 ; 2.4425753354113472E10 ; 0.0
130 ; 7816347.9231808 ; 2.0289392801914296E8 ; 1.0135518676373342E9 ; 2.4628630944906025E10 ; 0.0
131 ; 7810717.692146503 ; 2.0291024473964685E8 ; 1.021368215560515E9 ; 2.4831524872925167E10 ; 0.0
132 ; 7802817.422369319 ; 2.0292654010521975E8 ; 1.0291789332526616E9 ; 2.5034435117664814E10 ; 0.0
133 ; 7796634.929645092 ; 2.0294281328139174E8 ; 1.036981750675031E9 ; 2.5237361657770035E10 ; 0.0
134 ; 7788232.254356233 ; 2.0295906344765323E8 ; 1.044778385604676E9 ; 2.5440304471051426E10 ; 0.0
135 ; 7780301.504295906 ; 2.0297528979705387E8 ; 1.0525666178590323E9 ; 2.564326353449908E10 ; 0.0
136 ; 7776767.974958258 ; 2.0299149153581598E8 ; 1.0603469193633282E9 ; 2.5846238824296135E10 ; 0.0
137 ; 7768199.319735497 ; 2.030076678829615E8 ; 1.0681236873382865E9 ; 2.604923031583195E10 ; 0.0
138 ; 7759573.434300994 ; 2.0302381806995237E8 ; 1.075891886658022E9 ; 2.6252237983714912E10 ; 0.0
139 ; 7752681.717114391 ; 2.0303994134034318E8 ; 1.0836514600923228E9 ; 2.6455261801784866E10 ; 0.0
140 ; 7743994.386745484 ; 2.0305603694944656E8 ; 1.0914041418094373E9 ; 2.665830174312521E10 ; 0.0
141 ; 7737471.208742393 ; 2.0307210416401008E8 ; 1.0991481361961827E9 ; 2.6861357780074657E10 ; 0.0
142 ; 7727405.686717422 ; 2.030881422619044E8 ; 1.106885607404925E9 ; 2.7064429884238667E10 ; 0.0
143 ; 7721999.491457796 ; 2.0310415053182238E8 ; 1.1146130130916426E9 ; 2.7267518026500572E10 ; 0.0
144 ; 7712063.9922570735 ; 2.0312012827298892E8 ; 1.1223350125831003E9 ; 2.7470622177032394E10 ; 0.0
145 ; 7708558.4484655885 ; 2.031360747948805E8 ; 1.1300470765753574E9 ; 2.767374230530538E10 ; 0.0
146 ; 7701054.737755259 ; 2.031519894169548E8 ; 1.137755635023823E9 ; 2.787687838010026E10 ; 0.0
147 ; 7699124.49195161 ; 2.0316787146838927E8 ; 1.1454566897615783E9 ; 2.8080030369517216E10 ; 0.0
148 ; 7691160.0117467195 ; 2.0318372028782928E8 ; 1.15315581425353E9 ; 2.8283198240985603E10 ; 0.0
149 ; 7687201.317035096 ; 2.0319953522314447E8 ; 1.1608469742652767E9 ; 2.8486381961273434E10 ; 0.0
150 ; 7683359.409374476 ; 2.032153156311936E8 ; 1.1685341755823119E9 ; 2.868958149649658E10 ; 0.0
151 ; 7677580.213753974 ; 2.032310608775976E8 ; 1.1762175349916863E9 ; 2.8892796812127773E10 ; 0.0
152 ; 7672336.009220508 ; 2.0324677033652014E8 ; 1.1838951152054403E9 ; 2.909602787300537E10 ; 0.0
153 ; 7666724.294041098 ; 2.032624433904558E8 ; 1.191567451214661E9 ; 2.9299274643341892E10 ; 0.0
154 ; 7662452.245642338 ; 2.032780794300255E8 ; 1.199234175508702E9 ; 2.950253708673235E10 ; 0.0
155 ; 7657594.348052202 ; 2.0329367785377854E8 ; 1.2068966277543445E9 ; 2.9705815166162376E10 ; 0.0
156 ; 7650701.305350543 ; 2.0330923806800193E8 ; 1.2145542221023967E9 ; 2.9909108844016155E10 ; 0.0
157 ; 7646026.373122979 ; 2.0332475948653537E8 ; 1.2222049234077473E9 ; 3.0112418082084156E10 ; 0.0
158 ; 7639851.6957204575 ; 2.0334024153059307E8 ; 1.2298509497808702E9 ; 3.031574284157069E10 ; 0.0
159 ; 7634914.863120637 ; 2.033556836285913E8 ; 1.2374908014765906E9 ; 3.0519083083101284E10 ; 0.0
160 ; 7632079.232494874 ; 2.0337108521598154E8 ; 1.2451257163397112E9 ; 3.0722438766729874E10 ; 0.0
161 ; 7626446.038652573 ; 2.0338644573508957E8 ; 1.252757795572206E9 ; 3.0925809851945854E10 ; 0.0
162 ; 7616500.660170485 ; 2.0340176463495955E8 ; 1.2603842416108587E9 ; 3.1129196297680943E10 ; 0.0
163 ; 7615194.22925873 ; 2.0341704137120336E8 ; 1.2680007422710292E9 ; 3.1332598062315903E10 ; 0.0
164 ; 7606535.724797303 ; 2.0343227540585512E8 ; 1.275615936500288E9 ; 3.1536015103687107E10 ; 0.0
165 ; 7602251.120089649 ; 2.0344746620723012E8 ; 1.2832224722250853E9 ; 3.173944737909296E10 ; 0.0
166 ; 7599457.548551833 ; 2.0346261324978888E8 ; 1.2908247233451748E9 ; 3.194289484530019E10 ; 0.0
167 ; 7591130.581460702 ; 2.0347771601400504E8 ; 1.2984241808937266E9 ; 3.214635745854998E10 ; 0.0
168 ; 7583472.89119228 ; 2.034927739862382E8 ; 1.3060153114751873E9 ; 3.2349835174563984E10 ; 0.0
169 ; 7581686.834741445 ; 2.035077866586105E8 ; 1.3135987843663795E9 ; 3.255332794855022E10 ; 0.0
170 ; 7574698.106411199 ; 2.0352275352888727E8 ; 1.3211804712011209E9 ; 3.275683573520883E10 ; 0.0
171 ; 7569009.811690473 ; 2.0353767410036173E8 ; 1.328755169307532E9 ; 3.296035848873772E10 ; 0.0
172 ; 7563801.588227479 ; 2.0355254788174313E8 ; 1.3363241791192226E9 ; 3.316389616283808E10 ; 0.0
173 ; 7559557.133179381 ; 2.0356737438704878E8 ; 1.3438879807074502E9 ; 3.3367448710719826E10 ; 0.0
174 ; 7552888.569223443 ; 2.0358215313549942E8 ; 1.3514475378406296E9 ; 3.3571016085106876E10 ; 0.0
175 ; 7547305.139567878 ; 2.0359688365141782E8 ; 1.359000426409853E9 ; 3.3774598238242374E10 ; 0.0
176 ; 7546718.575575524 ; 2.0361156546413094E8 ; 1.3665477315494208E9 ; 3.397819512189379E10 ; 0.0
177 ; 7543673.405102465 ; 2.0362619810787487E8 ; 1.3740944501249964E9 ; 3.418180668735792E10 ; 0.0
178 ; 7541035.253625455 ; 2.0364078112170306E8 ; 1.381638123530099E9 ; 3.43854328854658E10 ; 0.0
179 ; 7537306.481917389 ; 2.0365531404939726E8 ; 1.3891791587837243E9 ; 3.45890736665875E10 ; 0.0
180 ; 7533447.447954293 ; 2.0366979643938142E8 ; 1.3967164652656417E9 ; 3.47927289806369E10 ; 0.0
181 ; 7530305.093028443 ; 2.0368422784463835E8 ; 1.4042499127135959E9 ; 3.499639877707629E10 ; 0.0
182 ; 7530100.547482475 ; 2.0369860782262877E8 ; 1.4117802178066244E9 ; 3.520008300492092E10 ; 0.0
183 ; 7525489.320897098 ; 2.0371293593521315E8 ; 1.419310318354107E9 ; 3.540378161274355E10 ; 0.0
184 ; 7521381.5972455535 ; 2.0372721174857584E8 ; 1.426835807675004E9 ; 3.5607494548678764E10 ; 0.0
185 ; 7513999.805859017 ; 2.037414348331518E8 ; 1.4343571892722495E9 ; 3.581122176042734E10 ; 0.0
186 ; 7512861.717409259 ; 2.0375560476355523E8 ; 1.4418711890781085E9 ; 3.601496319526049E10 ; 0.0
187 ; 7511248.694986277 ; 2.037697211185108E8 ; 1.449384050795518E9 ; 3.621871880002405E10 ; 0.0
188 ; 7505053.924711722 ; 2.0378378348078698E8 ; 1.4568952994905043E9 ; 3.6422488521142555E10 ; 0.0
189 ; 7501956.123245025 ; 2.03797791437131E8 ; 1.464400353415216E9 ; 3.6626272304623344E10 ; 0.0
190 ; 7484372.29860339 ; 2.0381174457820645E8 ; 1.471902309538461E9 ; 3.683007009606048E10 ; 0.0
191 ; 7471121.978415433 ; 2.038256424985324E8 ; 1.4793866818370643E9 ; 3.703388184063869E10 ; 0.0
192 ; 7457380.686333385 ; 2.0383948479642457E8 ; 1.4868578038154798E9 ; 3.723770748313722E10 ; 0.0
193 ; 7441539.012822861 ; 2.0385327107393804E8 ; 1.4943151845018132E9 ; 3.744154696793365E10 ; 0.0
194 ; 7428888.739178445 ; 2.0386700093681222E8 ; 1.501756723514636E9 ; 3.764540023900758E10 ; 0.0
195 ; 7412264.027068725 ; 2.03880673994417E8 ; 1.5091856122538145E9 ; 3.78492672399444E10 ; 0.0
196 ; 7400299.6164489975 ; 2.0389428985970086E8 ; 1.516597876280883E9 ; 3.805314791393881E10 ; 0.0
197 ; 7383077.371614021 ; 2.0390784814914036E8 ; 1.523998175897332E9 ; 3.8257042203798515E10 ; 0.0
198 ; 7369308.936830263 ; 2.039213484826914E8 ; 1.531381253268946E9 ; 3.8460950051947655E10 ; 0.0
199 ; 7356754.002386271 ; 2.039347904837417E8 ; 1.5387505622057762E9 ; 3.866487140043034E10 ; 0.0
200 ; 7341442.360925158 ; 1.744637930167261E8 ; 1.5461073162081625E9 ; 3.8868806190914085E10 ; 0.0
201 ; 7327232.2277489295 ; 1.5512150477992025E8 ; 1.5534487585690877E9 ; 3.904326998393081E10 ; 0.0
