CSV File for the City 2 on Day 349
1 - Minute m 
2 - Power Consumed at minute m 
3 - Power Produced at minute m 
4 - Energy Consumed since the beginning of the day 
5 - Energy Produced since the beginning of the day 
6 - Energy Lost since the beginning of the day on lines starting from the city
 
0 ; 1785657.536756615 ; 1.0526224674447075E8 ; 0.0 ; 0.0 ; 0.0
1 ; 1788467.708922381 ; 1.0541622700243384E8 ; 1785657.536756615 ; 1.0526224674447075E8 ; 0.0
2 ; 1790592.1170842 ; 1.0587888405042318E8 ; 3574125.2456789957 ; 2.1067847374690458E8 ; 0.0
3 ; 1793972.7496880887 ; 1.0665021823138493E8 ; 5364717.362763196 ; 3.1655735779732776E8 ; 0.0
4 ; 1794446.983525594 ; 1.0773022985230047E8 ; 7158690.112451285 ; 4.232075760287127E8 ; 0.0
5 ; 1797759.1340054842 ; 1.0911891918260777E8 ; 8953137.09597688 ; 5.3093780588101315E8 ; 0.0
6 ; 1802256.3716230167 ; 1.108162864527907E8 ; 1.0750896229982365E7 ; 6.400567250636209E8 ; 0.0
7 ; 1808411.7309285223 ; 1.1282233185315466E8 ; 1.2553152601605382E7 ; 7.508730115164117E8 ; 0.0
8 ; 1819973.8487050268 ; 1.1513705553280246E8 ; 1.4361564332533903E7 ; 8.636953433695663E8 ; 0.0
9 ; 1834108.842048378 ; 1.1776045759882402E8 ; 1.618153818123893E7 ; 9.788323989023688E8 ; 0.0
10 ; 1852761.0831394466 ; 1.2069253811571002E8 ; 1.8015647023287307E7 ; 1.0965928565011928E9 ; 0.0
11 ; 1887587.4051360223 ; 1.2393329710499689E8 ; 1.9868408106426753E7 ; 1.2172853946169028E9 ; 0.0
12 ; 1940319.9365398411 ; 1.2748273454514816E8 ; 2.1755995511562776E7 ; 1.3412186917218997E9 ; 0.0
13 ; 1993607.1697736713 ; 1.3134085037167317E8 ; 2.3696315448102616E7 ; 1.468701426267048E9 ; 0.0
14 ; 2000930.2352321923 ; 1.3550764447748208E8 ; 2.5689922617876288E7 ; 1.600042276638721E9 ; 0.0
15 ; 2001640.8501005871 ; 1.3998311671347195E8 ; 2.769085285310848E7 ; 1.735549921116203E9 ; 0.0
16 ; 2004073.4155230152 ; 1.447672668893375E8 ; 2.969249370320907E7 ; 1.875533037829675E9 ; 0.0
17 ; 2006853.10952344 ; 1.498600947745948E8 ; 3.1696567118732084E7 ; 2.0203003047190125E9 ; 0.0
18 ; 2010047.5841323328 ; 1.552616000998059E8 ; 3.3703420228255525E7 ; 2.1701603994936075E9 ; 0.0
19 ; 2012918.9513663333 ; 1.609717825579894E8 ; 3.571346781238786E7 ; 2.3254219995934134E9 ; 0.0
20 ; 2015626.9949677656 ; 1.669906418061991E8 ; 3.77263867637542E7 ; 2.486393782151403E9 ; 0.0
21 ; 2016887.7340739903 ; 1.7331817746725336E8 ; 3.974201375872196E7 ; 2.653384423957602E9 ; 0.0
22 ; 2019776.6196803423 ; 1.7995438913159394E8 ; 4.175890149279595E7 ; 2.826702601424855E9 ; 0.0
23 ; 2022157.051147724 ; 1.868992763592553E8 ; 4.37786781124763E7 ; 3.006656990556449E9 ; 0.0
24 ; 2024728.6695841788 ; 1.9415283868192184E8 ; 4.580083516362402E7 ; 3.1935562669157043E9 ; 0.0
25 ; 2027919.5698223768 ; 2.00403116503237E8 ; 4.7825563833208196E7 ; 3.387709105597626E9 ; 0.0
26 ; 2029713.8444415114 ; 2.004036571378714E8 ; 4.9853483403030574E7 ; 3.5881122221008635E9 ; 0.0
27 ; 2033164.2870199594 ; 2.0040422933862555E8 ; 5.1883197247472085E7 ; 3.7885158792387347E9 ; 0.0
28 ; 2034762.8615766182 ; 2.0040483254540923E8 ; 5.3916361534492046E7 ; 3.98892010857736E9 ; 0.0
29 ; 2036534.8377071403 ; 2.0040546618068412E8 ; 5.595112439606866E7 ; 4.1893249411227694E9 ; 0.0
30 ; 2039305.010481781 ; 2.0040612965163407E8 ; 5.79876592337758E7 ; 4.389730407303453E9 ; 0.0
31 ; 2041641.9331963551 ; 2.0040682235229355E8 ; 6.0026964244257584E7 ; 4.590136536955088E9 ; 0.0
32 ; 2043655.6655507032 ; 2.0040754366562083E8 ; 6.206860617745394E7 ; 4.790543359307382E9 ; 0.0
33 ; 2047013.0256837553 ; 2.0040829296550366E8 ; 6.4112261843004644E7 ; 4.990950902973002E9 ; 0.0
34 ; 2048872.9728059 ; 2.0040906961868772E8 ; 6.61592748686884E7 ; 5.191359195938506E9 ; 0.0
35 ; 2050717.3737259454 ; 2.004098729866188E8 ; 6.820814784149429E7 ; 5.391768265557194E9 ; 0.0
36 ; 2052938.1736447653 ; 2.0041070242719254E8 ; 7.025886521522024E7 ; 5.592178138543813E9 ; 0.0
37 ; 2053880.0614693863 ; 2.004115572964058E8 ; 7.231180338886501E7 ; 5.792588840971005E9 ; 0.0
38 ; 2055403.8436942035 ; 2.004124369499062E8 ; 7.43656834503344E7 ; 5.993000398267411E9 ; 0.0
39 ; 2056945.1803991618 ; 2.0041334074443772E8 ; 7.642108729402861E7 ; 6.193412835217318E9 ; 0.0
40 ; 2059222.0687034768 ; 2.0041426803918037E8 ; 7.847803247442777E7 ; 6.393826175961756E9 ; 0.0
41 ; 2059810.0531246942 ; 2.004152181969848E8 ; 8.053725454313125E7 ; 6.5942404440009365E9 ; 0.0
42 ; 2063099.3620304472 ; 2.004161905855024E8 ; 8.259706459625594E7 ; 6.794655662197922E9 ; 0.0
43 ; 2064426.550664186 ; 2.0041718457821283E8 ; 8.466016395828639E7 ; 6.995071852783424E9 ; 0.0
44 ; 2065641.8076869703 ; 2.0041819955535182E8 ; 8.672459050895058E7 ; 7.195489037361637E9 ; 0.0
45 ; 2066562.4577593165 ; 2.0041923490474206E8 ; 8.879023231663755E7 ; 7.395907236916989E9 ; 0.0
46 ; 2067617.1007510123 ; 2.0042029002253154E8 ; 9.085679477439687E7 ; 7.596326471821732E9 ; 0.0
47 ; 2068977.462714919 ; 2.00421364313843E8 ; 9.292441187514788E7 ; 7.796746761844263E9 ; 0.0
48 ; 2069153.2087633037 ; 2.0042245719333962E8 ; 9.49933893378628E7 ; 7.997168126158106E9 ; 0.0
49 ; 2070357.423465865 ; 2.0042356808571061E8 ; 9.70625425466261E7 ; 8.197590583351445E9 ; 0.0
50 ; 2071057.4087170407 ; 2.0042469642608297E8 ; 9.913289997009197E7 ; 8.398014151437156E9 ; 0.0
51 ; 2072025.135547852 ; 2.00425841660363E8 ; 1.01203957378809E8 ; 8.59843884786324E9 ; 0.0
52 ; 2072523.4150580931 ; 2.004270032455132E8 ; 1.0327598251435685E8 ; 8.798864689523602E9 ; 0.0
53 ; 2074224.637126183 ; 2.0042818064976948E8 ; 1.0534850592941494E8 ; 8.999291692769115E9 ; 0.0
54 ; 2073594.732042894 ; 2.004293733528029E8 ; 1.0742273056654112E8 ; 9.199719873418884E9 ; 0.0
55 ; 2075760.4117090343 ; 2.0043058084583092E8 ; 1.0949632529858401E8 ; 9.400149246771687E9 ; 0.0
56 ; 2074757.9998013622 ; 2.0043180263168293E8 ; 1.1157208571029305E8 ; 9.600579827617517E9 ; 0.0
57 ; 2075316.1035923983 ; 2.004330382248236E8 ; 1.1364684371009442E8 ; 9.8010116302492E9 ; 0.0
58 ; 2076695.1294822586 ; 2.0043428715133867E8 ; 1.1572215981368682E8 ; 1.0001444668474024E10 ; 0.0
59 ; 2077511.9331139857 ; 2.004355489488871E8 ; 1.1779885494316907E8 ; 1.0201878955625362E10 ; 0.0
60 ; 2078066.2917865287 ; 2.0043682316662282E8 ; 1.1987636687628306E8 ; 1.040231450457425E10 ; 0.0
61 ; 2078379.2182269618 ; 2.0043810936508965E8 ; 1.2195443316806959E8 ; 1.0602751327740871E10 ; 0.0
62 ; 2078716.8953827836 ; 2.0043940711609298E8 ; 1.2403281238629654E8 ; 1.080318943710596E10 ; 0.0
63 ; 2078239.5817916924 ; 2.0044071600255036E8 ; 1.2611152928167932E8 ; 1.1003628844222054E10 ; 0.0
64 ; 2079199.5111843555 ; 2.0044203561832473E8 ; 1.2818976886347102E8 ; 1.1204069560224604E10 ; 0.0
65 ; 2080152.9889328943 ; 2.0044336556804183E8 ; 1.3026896837465537E8 ; 1.1404511595842928E10 ; 0.0
66 ; 2080259.4677901822 ; 2.0044470546689498E8 ; 1.3234912136358826E8 ; 1.160495496141097E10 ; 0.0
67 ; 2081048.69696237 ; 2.0044605494043878E8 ; 1.3442938083137843E8 ; 1.1805399666877865E10 ; 0.0
68 ; 2080925.3243109777 ; 2.0044741362437382E8 ; 1.365104295283408E8 ; 1.2005845721818304E10 ; 0.0
69 ; 2081452.186255515 ; 2.004487811643245E8 ; 1.3859135485265177E8 ; 1.2206293135442678E10 ; 0.0
70 ; 2082747.2249739459 ; 2.0045015721561083E8 ; 1.406728070389073E8 ; 1.2406741916607002E10 ; 0.0
71 ; 2082724.1561955458 ; 2.004515414430165E8 ; 1.4275555426388124E8 ; 1.2607192073822613E10 ; 0.0
72 ; 2083108.6190025492 ; 2.0045293352055377E8 ; 1.448382784200768E8 ; 1.2807643615265629E10 ; 0.0
73 ; 2082171.4495798766 ; 2.00454333131227E8 ; 1.4692138703907934E8 ; 1.3008096548786182E10 ; 0.0
74 ; 2083015.0936150895 ; 2.0045573996679506E8 ; 1.490035584886592E8 ; 1.320855088191741E10 ; 0.0
75 ; 2084214.8000571667 ; 2.0045715372753453E8 ; 1.510865735822743E8 ; 1.3409006621884205E10 ; 0.0
76 ; 2083659.9841946205 ; 2.004585741220034E8 ; 1.5317078838233146E8 ; 1.360946377561174E10 ; 0.0
77 ; 2083710.8069409921 ; 2.004600008668069E8 ; 1.5525444836652607E8 ; 1.3809922349733744E10 ; 0.0
78 ; 2082673.592603855 ; 2.0046143368636557E8 ; 1.5733815917346707E8 ; 1.401038235060055E10 ; 0.0
79 ; 2081786.5250184867 ; 2.004628723126862E8 ; 1.5942083276607093E8 ; 1.4210843784286915E10 ; 0.0
80 ; 2081945.6346671158 ; 2.0046431648513612E8 ; 1.6150261929108942E8 ; 1.4411306656599602E10 ; 0.0
81 ; 2081420.237793819 ; 2.0046576595022142E8 ; 1.6358456492575654E8 ; 1.4611770973084738E10 ; 0.0
82 ; 2080133.0468963447 ; 2.0046722046136883E8 ; 1.6566598516355038E8 ; 1.481223673903496E10 ; 0.0
83 ; 2079974.8518571802 ; 2.004686797787125E8 ; 1.6774611821044672E8 ; 1.5012703959496328E10 ; 0.0
84 ; 2079976.3821915304 ; 2.0047014366888487E8 ; 1.698260930623039E8 ; 1.5213172639275042E10 ; 0.0
85 ; 2078344.1408423122 ; 2.0047161190481248E8 ; 1.7190606944449544E8 ; 1.5413642782943926E10 ; 0.0
86 ; 2078243.3140569632 ; 2.0047308426551673E8 ; 1.7398441358533776E8 ; 1.5614114394848738E10 ; 0.0
87 ; 2077588.762207202 ; 2.0047456053591952E8 ; 1.7606265689939472E8 ; 1.5814587479114254E10 ; 0.0
88 ; 2076678.6140319211 ; 2.0047604050665396E8 ; 1.7814024566160193E8 ; 1.6015062039650173E10 ; 0.0
89 ; 2075379.3041720374 ; 2.0047752397388023E8 ; 1.8021692427563384E8 ; 1.6215538080156828E10 ; 0.0
90 ; 2075571.477029039 ; 2.0047901073910642E8 ; 1.8229230357980588E8 ; 1.6416015604130709E10 ; 0.0
91 ; 2074622.0808761998 ; 2.004805006090147E8 ; 1.843678750568349E8 ; 1.6616494614869816E10 ; 0.0
92 ; 2074685.0975468927 ; 2.0048199339529237E8 ; 1.864424971377111E8 ; 1.681697511547883E10 ; 0.0
93 ; 2072203.2094815068 ; 2.0048348891446817E8 ; 1.88517182235258E8 ; 1.7017457108874123E10 ; 0.0
94 ; 2072329.5640317164 ; 2.004849869877532E8 ; 1.9058938544473952E8 ; 1.721794059778859E10 ; 0.0
95 ; 2072494.6637952765 ; 2.0048648744088742E8 ; 1.9266171500877124E8 ; 1.7418425584776344E10 ; 0.0
96 ; 2071131.7915346131 ; 2.0048799010399017E8 ; 1.947342096725665E8 ; 1.761891207221723E10 ; 0.0
97 ; 2070660.2362405849 ; 2.004894948114163E8 ; 1.968053414641011E8 ; 1.781940006232122E10 ; 0.0
98 ; 2068991.46785041 ; 2.004910014016163E8 ; 1.988760017003417E8 ; 1.8019889557132637E10 ; 0.0
99 ; 2068335.1384771143 ; 2.0049250971700138E8 ; 2.0094499316819212E8 ; 1.8220380558534252E10 ; 0.0
100 ; 2067375.7015106133 ; 2.0049401960381302E8 ; 2.0301332830666924E8 ; 1.8420873068251255E10 ; 0.0
101 ; 2065379.5658750054 ; 2.0049553091199657E8 ; 2.0508070400817984E8 ; 1.862136708785507E10 ; 0.0
102 ; 2065676.8450085293 ; 2.004970434950796E8 ; 2.0714608357405484E8 ; 1.8821862618767063E10 ; 0.0
103 ; 2065165.9261817145 ; 2.0049855721005392E8 ; 2.0921176041906336E8 ; 1.9022359662262142E10 ; 0.0
104 ; 2064366.177737406 ; 2.00500071917262E8 ; 2.1127692634524506E8 ; 1.9222858219472195E10 ; 0.0
105 ; 2063386.3210869976 ; 2.0050158748028696E8 ; 2.1334129252298248E8 ; 1.9423358291389458E10 ; 0.0
106 ; 2061545.884583433 ; 2.0050310376584682E8 ; 2.1540467884406948E8 ; 1.9623859878869743E10 ; 0.0
107 ; 2060484.7605517118 ; 2.0050462064369196E8 ; 2.1746622472865292E8 ; 1.982436298263559E10 ; 0.0
108 ; 2060913.9130547547 ; 2.0050613798650655E8 ; 2.1952670948920465E8 ; 2.002486760327928E10 ; 0.0
109 ; 2059024.7085553203 ; 2.005076556698132E8 ; 2.215876234022594E8 ; 2.022537374126579E10 ; 0.0
110 ; 2058339.4471216626 ; 2.0050917357188094E8 ; 2.2364664811081472E8 ; 2.0425881396935604E10 ; 0.0
111 ; 2056820.9012223189 ; 2.005106915736369E8 ; 2.2570498755793637E8 ; 2.0626390570507484E10 ; 0.0
112 ; 2055311.2571676567 ; 2.0051220955858046E8 ; 2.277618084591587E8 ; 2.082690126208112E10 ; 0.0
113 ; 2054198.6694785007 ; 2.0051372741270095E8 ; 2.2981711971632636E8 ; 2.10274134716397E10 ; 0.0
114 ; 2053892.1811034614 ; 2.0051524502439803E8 ; 2.3187131838580486E8 ; 2.1227927199052402E10 ; 0.0
115 ; 2051536.7256452842 ; 2.0051676228440514E8 ; 2.3392521056690833E8 ; 2.14284424440768E10 ; 0.0
116 ; 2051795.3236070687 ; 2.0051827908571532E8 ; 2.359767472925536E8 ; 2.1628959206361206E10 ; 0.0
117 ; 2049933.7750550045 ; 2.005197953235101E8 ; 2.3802854261616066E8 ; 2.1829477485446922E10 ; 0.0
118 ; 2048448.8368612733 ; 2.005213108950906E8 ; 2.4007847639121565E8 ; 2.202999728077043E10 ; 0.0
119 ; 2045814.3663128624 ; 2.0052282569981134E8 ; 2.4212692522807693E8 ; 2.2230518591665524E10 ; 0.0
120 ; 2045724.7245598086 ; 2.0052433963901618E8 ; 2.441727395943898E8 ; 2.2431041417365334E10 ; 0.0
121 ; 2043764.8390024768 ; 2.0052585261597678E8 ; 2.462184643189496E8 ; 2.263156575700435E10 ; 0.0
122 ; 2042193.104280235 ; 2.0052736453583318E8 ; 2.482622291579521E8 ; 2.2832091609620327E10 ; 0.0
123 ; 2041411.5460314516 ; 2.005288753055364E8 ; 2.5030442226223233E8 ; 2.303261897415616E10 ; 0.0
124 ; 2039895.6287292272 ; 2.0053038483379322E8 ; 2.5234583380826378E8 ; 2.3233147849461697E10 ; 0.0
125 ; 2038669.9541770932 ; 2.0053189303101307E8 ; 2.54385729436993E8 ; 2.343367823429549E10 ; 0.0
126 ; 2037344.911941676 ; 2.0053339980925635E8 ; 2.5642439939117008E8 ; 2.3634210127326504E10 ; 0.0
127 ; 2034119.7461657508 ; 2.005349050821851E8 ; 2.5846174430311176E8 ; 2.383474352713576E10 ; 0.0
128 ; 2033434.1963163542 ; 2.0053640876501518E8 ; 2.604958640492775E8 ; 2.4035278432217945E10 ; 0.0
129 ; 2033772.3937086146 ; 2.0053791077447018E8 ; 2.6252929824559388E8 ; 2.423581484098296E10 ; 0.0
130 ; 2031053.94812145 ; 2.0053941102873695E8 ; 2.645630706393025E8 ; 2.443635275175743E10 ; 0.0
131 ; 2028712.4727834323 ; 2.005409094474228E8 ; 2.6659412458742395E8 ; 2.4636892162786167E10 ; 0.0
132 ; 2026268.875654885 ; 2.0054240595151412E8 ; 2.6862283706020737E8 ; 2.483743307223359E10 ; 0.0
133 ; 2024191.0525141296 ; 2.0054390046333656E8 ; 2.7064910593586224E8 ; 2.5037975478185104E10 ; 0.0
134 ; 2022841.488379492 ; 2.0054539290651643E8 ; 2.726732969883764E8 ; 2.523851937864844E10 ; 0.0
135 ; 2020934.0817615 ; 2.0054688320594373E8 ; 2.7469613847675586E8 ; 2.543906477155496E10 ; 0.0
136 ; 2019611.1211266362 ; 2.0054837128773627E8 ; 2.7671707255851734E8 ; 2.5639611654760902E10 ; 0.0
137 ; 2016917.5522246617 ; 2.005498570792051E8 ; 2.78736683679644E8 ; 2.5840160026048637E10 ; 0.0
138 ; 2014388.4369507649 ; 2.0055134050882128E8 ; 2.807536012318686E8 ; 2.6040709883127842E10 ; 0.0
139 ; 2011825.823699351 ; 2.0055282150618356E8 ; 2.8276798966881937E8 ; 2.624126122363666E10 ; 0.0
140 ; 2007843.6637164098 ; 2.0055430000198746E8 ; 2.847798154925187E8 ; 2.6441814045142845E10 ; 0.0
141 ; 2007275.0832304154 ; 2.0055577592799518E8 ; 2.8678765915623516E8 ; 2.6642368345144833E10 ; 0.0
142 ; 2003622.8145830156 ; 2.0055724921700677E8 ; 2.887949342394656E8 ; 2.6842924121072826E10 ; 0.0
143 ; 1999609.4691678297 ; 2.0055871980283216E8 ; 2.907985570540486E8 ; 2.7043481370289833E10 ; 0.0
144 ; 1999174.5409439886 ; 2.0056018762026426E8 ; 2.927981665232164E8 ; 2.7244040090092667E10 ; 0.0
145 ; 1997804.001169962 ; 2.005616526050528E8 ; 2.947973410641604E8 ; 2.7444600277712933E10 ; 0.0
146 ; 1996355.6239580808 ; 2.005631146938793E8 ; 2.967951450653304E8 ; 2.7645161930317986E10 ; 0.0
147 ; 1994740.2096813098 ; 2.0056457382433283E8 ; 2.9879150068928844E8 ; 2.7845725045011864E10 ; 0.0
148 ; 1993686.9487920797 ; 2.0056602993488643E8 ; 3.0078624089896977E8 ; 2.8046289618836197E10 ; 0.0
149 ; 1992159.481698283 ; 2.0056748296487463E8 ; 3.0277992784776187E8 ; 2.8246855648771084E10 ; 0.0
150 ; 1990468.5579795688 ; 2.0056893285447145E8 ; 3.0477208732946014E8 ; 2.844742313173596E10 ; 0.0
151 ; 1988280.1356909093 ; 2.0057037954466933E8 ; 3.067625558874397E8 ; 2.864799206459043E10 ; 0.0
152 ; 1986078.474225528 ; 2.0057182297725874E8 ; 3.0875083602313066E8 ; 2.88485624441351E10 ; 0.0
153 ; 1984597.6548791514 ; 2.0057326309480843E8 ; 3.107369144973562E8 ; 2.9049134267112362E10 ; 0.0
154 ; 1983678.2978644527 ; 2.0057469984064636E8 ; 3.127215121522353E8 ; 2.924970753020717E10 ; 0.0
155 ; 1982033.5702782874 ; 2.0057613315884137E8 ; 3.1470519045009977E8 ; 2.9450282230047813E10 ; 0.0
156 ; 1979736.4792370063 ; 2.005775629941852E8 ; 3.1668722402037805E8 ; 2.9650858363206654E10 ; 0.0
157 ; 1978665.80251019 ; 2.005789892921755E8 ; 3.186669604996151E8 ; 2.985143592620084E10 ; 0.0
158 ; 1976302.6436440686 ; 2.0058041199899906E8 ; 3.206456263021253E8 ; 3.0052014915493015E10 ; 0.0
159 ; 1974888.764167562 ; 2.0058183106151578E8 ; 3.2262192894576937E8 ; 3.0252595327492016E10 ; 0.0
160 ; 1971988.467834244 ; 2.005832464272431E8 ; 3.245968177099369E8 ; 3.045317715855353E10 ; 0.0
161 ; 1971693.98088285 ; 2.005846580443411E8 ; 3.2656880617777115E8 ; 3.0653760404980774E10 ; 0.0
162 ; 1970834.8316764755 ; 2.0058606586159766E8 ; 3.28540500158654E8 ; 3.0854345063025116E10 ; 0.0
163 ; 1969008.5059021942 ; 2.005874698284148E8 ; 3.3051133499033046E8 ; 3.1054931128886715E10 ; 0.0
164 ; 1968280.1503454454 ; 2.005888698947948E8 ; 3.324803434962326E8 ; 3.125551859871513E10 ; 0.0
165 ; 1965043.2178651593 ; 2.005902660113271E8 ; 3.344486236465781E8 ; 3.1456107468609924E10 ; 0.0
166 ; 1962874.54497642 ; 2.0059165812917566E8 ; 3.3641366686444324E8 ; 3.165669773462125E10 ; 0.0
167 ; 1961745.1829640707 ; 2.0059304620006666E8 ; 3.3837654140941966E8 ; 3.1857289392750427E10 ; 0.0
168 ; 1960048.1922569382 ; 2.0059443017627645E8 ; 3.4033828659238374E8 ; 3.2057882438950493E10 ; 0.0
169 ; 1958600.3742183587 ; 2.005958100106202E8 ; 3.4229833478464067E8 ; 3.225847686912677E10 ; 0.0
170 ; 1956904.910173307 ; 2.0059718565644065E8 ; 3.44256935158859E8 ; 3.245907267913739E10 ; 0.0
171 ; 1953565.643747885 ; 2.005985570675973E8 ; 3.462138400690323E8 ; 3.265966986479383E10 ; 0.0
172 ; 1952849.6554144374 ; 2.0059992419845608E8 ; 3.481674057127802E8 ; 3.2860268421861427E10 ; 0.0
173 ; 1951799.4074462128 ; 2.0060128700387907E8 ; 3.5012025536819464E8 ; 3.3060868346059883E10 ; 0.0
174 ; 1949064.8705463903 ; 2.0060264543921494E8 ; 3.5207205477564085E8 ; 3.3261469633063763E10 ; 0.0
175 ; 1947242.9156897895 ; 2.0060399946028927E8 ; 3.5402111964618725E8 ; 3.346207227850298E10 ; 0.0
176 ; 1949164.6183728226 ; 2.0060534902339548E8 ; 3.55968362561877E8 ; 3.366267627796327E10 ; 0.0
177 ; 1946938.944917105 ; 2.0060669408528584E8 ; 3.579175271802498E8 ; 3.3863281626986664E10 ; 0.0
178 ; 1945486.6149026516 ; 2.0060803460316312E8 ; 3.598644661251669E8 ; 3.406388832107195E10 ; 0.0
179 ; 1945025.9184071636 ; 2.0060937053467196E8 ; 3.6180995274006957E8 ; 3.4264496355675114E10 ; 0.0
180 ; 1944084.0089758574 ; 2.0061070183789095E8 ; 3.637549786584767E8 ; 3.4465105726209785E10 ; 0.0
181 ; 1943132.863383399 ; 2.0061202847132486E8 ; 3.656990626674526E8 ; 3.4665716428047676E10 ; 0.0
182 ; 1941462.0973879807 ; 2.00613350393897E8 ; 3.67642195530836E8 ; 3.4866328456519E10 ; 0.0
183 ; 1939992.2226657472 ; 2.0061466756494182E8 ; 3.6958365762822396E8 ; 3.5066941806912895E10 ; 0.0
184 ; 1940225.1452250322 ; 2.0061597994419798E8 ; 3.715236498508897E8 ; 3.526755647447784E10 ; 0.0
185 ; 1938201.350365024 ; 2.0061728749180132E8 ; 3.7346387499611473E8 ; 3.5468172454422035E10 ; 0.0
186 ; 1938059.4663690727 ; 2.0061859016827828E8 ; 3.754020763464798E8 ; 3.566878974191383E10 ; 0.0
187 ; 1935008.0392530782 ; 2.0061988793453938E8 ; 3.7734013581284887E8 ; 3.5869408332082115E10 ; 0.0
188 ; 1934631.3038213158 ; 2.0062118075187296E8 ; 3.792751438521019E8 ; 3.6070028220016655E10 ; 0.0
189 ; 1933207.0716097723 ; 2.0062246858193916E8 ; 3.8120977515592325E8 ; 3.6270649400768524E10 ; 0.0
190 ; 1932181.1692456137 ; 2.0062375138676402E8 ; 3.8314298222753304E8 ; 3.6471271869350464E10 ; 0.0
191 ; 1931961.0241171778 ; 2.006250291287337E8 ; 3.8507516339677864E8 ; 3.667189562073723E10 ; 0.0
192 ; 1930418.1549507778 ; 2.0062630177058905E8 ; 3.870071244208958E8 ; 3.687252064986596E10 ; 0.0
193 ; 1928298.1232020182 ; 2.0062756927542028E8 ; 3.889375425758466E8 ; 3.707314695163655E10 ; 0.0
194 ; 1927814.4405991428 ; 2.0062883160666162E8 ; 3.9086584069904864E8 ; 3.727377452091197E10 ; 0.0
195 ; 1927032.3230291754 ; 2.0063008872808635E8 ; 3.927936551396478E8 ; 3.747440335251863E10 ; 0.0
196 ; 1928104.633899022 ; 2.00631340603802E8 ; 3.9472068746267694E8 ; 3.767503344124672E10 ; 0.0
197 ; 1925512.2027398583 ; 2.0063258719824556E8 ; 3.96648792096576E8 ; 3.7875664781850525E10 ; 0.0
198 ; 1924166.3210086161 ; 2.0063382847617877E8 ; 3.985743042993158E8 ; 3.807629736904877E10 ; 0.0
199 ; 1923106.730155054 ; 2.0063506440268385E8 ; 4.0049847062032443E8 ; 3.827693119752495E10 ; 0.0
