CSV File for the City 1 on Day 349
1 - Minute m 
2 - Power Consumed at minute m 
3 - Power Produced at minute m 
4 - Energy Consumed since the beginning of the day 
5 - Energy Produced since the beginning of the day 
6 - Energy Lost since the beginning of the day on lines starting from the city
 
0 ; 1.6059610047871746E7 ; 1.0556496152428505E8 ; 0.0 ; 0.0 ; 0.0
1 ; 1.6077538318022069E7 ; 1.0571791959317452E8 ; 1.6059610047871746E7 ; 1.0556496152428505E8 ; 0.0
2 ; 1.6092925759549616E7 ; 1.0617965889624318E8 ; 3.2137148365893815E7 ; 2.1128288111745957E8 ; 0.0
3 ; 1.6118286085015105E7 ; 1.0695018080527532E8 ; 4.823007412544343E7 ; 3.1746254001370275E8 ; 0.0
4 ; 1.6144081053659433E7 ; 1.080294865481968E8 ; 6.434836021045853E7 ; 4.244127208189781E8 ; 0.0
5 ; 1.6166770735735904E7 ; 1.094175772027592E8 ; 8.049244126411797E7 ; 5.3244220736717486E8 ; 0.0
6 ; 1.621121952309983E7 ; 1.1111445369089839E8 ; 9.665921199985388E7 ; 6.418597845699341E8 ; 0.0
7 ; 1.6265226342651157E7 ; 1.1312011677383578E8 ; 1.128704315229537E8 ; 7.529742382608325E8 ; 0.0
8 ; 1.6337984724192081E7 ; 1.1543456704798257E8 ; 1.2913565786560486E8 ; 8.660943550346683E8 ; 0.0
9 ; 1.6456808222581537E7 ; 1.1805780494169843E8 ; 1.4547364258979693E8 ; 9.815289220826509E8 ; 0.0
10 ; 1.6640902390740527E7 ; 1.2098983071294606E8 ; 1.6193045081237847E8 ; 1.0995867270243492E9 ; 0.0
11 ; 1.692942114031805E7 ; 1.242306444478713E8 ; 1.7857135320311898E8 ; 1.2205765577372952E9 ; 0.0
12 ; 1.7391166239989787E7 ; 1.2778024606032827E8 ; 1.9550077434343702E8 ; 1.3448072021851664E9 ; 0.0
13 ; 1.783576199310924E7 ; 1.3163863529235429E8 ; 2.128919405834268E8 ; 1.4725874482454946E9 ; 0.0
14 ; 1.7884545857900385E7 ; 1.3580581171558976E8 ; 2.3072770257653606E8 ; 1.604226083537849E9 ; 0.0
15 ; 1.7905556352979753E7 ; 1.402817747336234E8 ; 2.4861224843443644E8 ; 1.7400318952534387E9 ; 0.0
16 ; 1.7931143427183226E7 ; 1.4506652358523384E8 ; 2.665178047874162E8 ; 1.880313669987062E9 ; 0.0
17 ; 1.7949005718794975E7 ; 1.501600573484852E8 ; 2.8444894821459943E8 ; 2.025380193572296E9 ; 0.0
18 ; 1.7967939892011784E7 ; 1.555623749456259E8 ; 3.0239795393339443E8 ; 2.175540250920781E9 ; 0.0
19 ; 1.798933092522127E7 ; 1.6127347514873007E8 ; 3.203658938254062E8 ; 2.331102625866407E9 ; 0.0
20 ; 1.801108742531069E7 ; 1.672933565860134E8 ; 3.3835522475062746E8 ; 2.492376101015137E9 ; 0.0
21 ; 1.8032378064265836E7 ; 1.73622017748749E8 ; 3.563663121759381E8 ; 2.6596694576011505E9 ; 0.0
22 ; 1.8052124222935177E7 ; 1.8025945699870408E8 ; 3.74398690240204E8 ; 2.8332914753498993E9 ; 0.0
23 ; 1.8078035950740974E7 ; 1.8720567257601613E8 ; 3.924508144631392E8 ; 3.0135509323486032E9 ; 0.0
24 ; 1.8098844840548415E7 ; 1.9446066260742295E8 ; 4.1052885041388017E8 ; 3.200756604924619E9 ; 0.0
25 ; 1.812465568015033E7 ; 2.0071246601294804E8 ; 4.2862769525442857E8 ; 3.395217267532042E9 ; 0.0
26 ; 1.8138105614010092E7 ; 2.007146285514857E8 ; 4.467523509345789E8 ; 3.59592973354499E9 ; 0.0
27 ; 1.8163109970854405E7 ; 2.0071691735450217E8 ; 4.64890456548589E8 ; 3.7966443620964756E9 ; 0.0
28 ; 1.8179975065014645E7 ; 2.007193301816369E8 ; 4.830535665194434E8 ; 3.997361279450978E9 ; 0.0
29 ; 1.820043844936622E7 ; 2.0072186472273654E8 ; 5.0123354158445805E8 ; 4.1980806096326146E9 ; 0.0
30 ; 1.822272383868909E7 ; 2.007245186065363E8 ; 5.1943398003382427E8 ; 4.398802474355351E9 ; 0.0
31 ; 1.8240544628612094E7 ; 2.0072728940917423E8 ; 5.376567038725133E8 ; 4.599526992961887E9 ; 0.0
32 ; 1.8262609844341047E7 ; 2.007301746624833E8 ; 5.558972485011253E8 ; 4.800254282371061E9 ; 0.0
33 ; 1.8277052629520446E7 ; 2.0073317186201465E8 ; 5.741598583454664E8 ; 5.000984457033545E9 ; 0.0
34 ; 1.8292233905370563E7 ; 2.0073627847475085E8 ; 5.924369109749868E8 ; 5.201717628895559E9 ; 0.0
35 ; 1.8312190859143883E7 ; 2.007394919464752E8 ; 6.107291448803574E8 ; 5.40245390737031E9 ; 0.0
36 ; 1.8331513868158657E7 ; 2.007428097087702E8 ; 6.290413357395012E8 ; 5.603193399316785E9 ; 0.0
37 ; 1.834787555385663E7 ; 2.0074622918562314E8 ; 6.473728496076599E8 ; 5.803936209025555E9 ; 0.0
38 ; 1.8362611978166506E7 ; 2.0074974779962486E8 ; 6.657207251615165E8 ; 6.004682438211178E9 ; 0.0
39 ; 1.837989684961376E7 ; 2.0075336297775096E8 ; 6.84083337139683E8 ; 6.205432186010802E9 ; 0.0
40 ; 1.839370455390024E7 ; 2.007570721567215E8 ; 7.024632339892968E8 ; 6.406185548988553E9 ; 0.0
41 ; 1.8399882455292534E7 ; 2.0076087278793916E8 ; 7.20856938543197E8 ; 6.606942621145274E9 ; 0.0
42 ; 1.841733692689826E7 ; 2.007647623420095E8 ; 7.392568209984896E8 ; 6.807703493933213E9 ; 0.0
43 ; 1.8432438003372367E7 ; 2.007687383128513E8 ; 7.576741579253879E8 ; 7.008468256275223E9 ; 0.0
44 ; 1.8442634093153022E7 ; 2.007727982214073E8 ; 7.761065959287602E8 ; 7.209236994588074E9 ; 0.0
45 ; 1.8451625237827696E7 ; 2.0077693961896825E8 ; 7.945492300219132E8 ; 7.410009792809481E9 ; 0.0
46 ; 1.8465181032784887E7 ; 2.0078116009012613E8 ; 8.130008552597408E8 ; 7.610786732428449E9 ; 0.0
47 ; 1.8468800706419725E7 ; 2.007854572553721E8 ; 8.314660362925258E8 ; 7.811567892518575E9 ; 0.0
48 ; 1.84762526793846E7 ; 2.007898287733585E8 ; 8.499348369989455E8 ; 8.012353349773947E9 ; 0.0
49 ; 1.8489091970571753E7 ; 2.007942723428425E8 ; 8.684110896783301E8 ; 8.213143178547305E9 ; 0.0
50 ; 1.8491089720889006E7 ; 2.0079878570433193E8 ; 8.869001816489018E8 ; 8.413937450890147E9 ; 0.0
51 ; 1.850016245506275E7 ; 2.0080336664145195E8 ; 9.053912713697908E8 ; 8.614736236594479E9 ; 0.0
52 ; 1.8504682375227436E7 ; 2.0080801298205283E8 ; 9.238914338248535E8 ; 8.815539603235931E9 ; 0.0
53 ; 1.8513429060409375E7 ; 2.00812722599078E8 ; 9.42396116200081E8 ; 9.016347616217985E9 ; 0.0
54 ; 1.8517630748795945E7 ; 2.0081749341121158E8 ; 9.609095452604904E8 ; 9.217160338817062E9 ; 0.0
55 ; 1.8518981191807397E7 ; 2.0082232338332373E8 ; 9.794271760092864E8 ; 9.417977832228273E9 ; 0.0
56 ; 1.852540718265451E7 ; 2.008272105267318E8 ; 9.979461572010938E8 ; 9.618800155611597E9 ; 0.0
57 ; 1.8531445178832583E7 ; 2.0083215289929435E8 ; 1.0164715643837483E9 ; 9.819627366138329E9 ; 0.0
58 ; 1.8537955395094637E7 ; 2.0083714860535467E8 ; 1.0350030095625808E9 ; 1.0020459519037622E10 ; 0.0
59 ; 1.8543393728918977E7 ; 2.0084219579554844E8 ; 1.0535409649576755E9 ; 1.0221296667642977E10 ; 0.0
60 ; 1.854723567882702E7 ; 2.0084729266649127E8 ; 1.0720843586865945E9 ; 1.0422138863438526E10 ; 0.0
61 ; 1.8551240207922466E7 ; 2.0085243746035868E8 ; 1.0906315943654215E9 ; 1.0622986156105017E10 ; 0.0
62 ; 1.85533747427878E7 ; 2.0085762846437192E8 ; 1.109182834573344E9 ; 1.0823838593565376E10 ; 0.0
63 ; 1.855623107226133E7 ; 2.0086286401020148E8 ; 1.1277362093161318E9 ; 1.1024696222029749E10 ; 0.0
64 ; 1.8563098045981955E7 ; 2.0086814247329888E8 ; 1.1462924403883932E9 ; 1.1225559086039951E10 ; 0.0
65 ; 1.8565084251274854E7 ; 2.008734622721673E8 ; 1.164855538434375E9 ; 1.142642722851325E10 ; 0.0
66 ; 1.8571022035769913E7 ; 2.008788218675799E8 ; 1.1834206226856499E9 ; 1.1627300690785418E10 ; 0.0
67 ; 1.8569974238028537E7 ; 2.0088421976175508E8 ; 1.2019916447214198E9 ; 1.1828179512652998E10 ; 0.0
68 ; 1.8576815846241802E7 ; 2.0088965449749532E8 ; 1.2205616189594483E9 ; 1.2029063732414753E10 ; 0.0
69 ; 1.8581019859136283E7 ; 2.0089512465729803E8 ; 1.23913843480569E9 ; 1.2229953386912249E10 ; 0.0
70 ; 1.8578732204691816E7 ; 2.0090062886244336E8 ; 1.2577194546648264E9 ; 1.2430848511569546E10 ; 0.0
71 ; 1.8584598905644212E7 ; 2.0090616577206597E8 ; 1.2762981868695183E9 ; 1.263174914043199E10 ; 0.0
72 ; 1.8586026916214664E7 ; 2.009117340822151E8 ; 1.2948827857751625E9 ; 1.2832655306204056E10 ; 0.0
73 ; 1.8591175888352294E7 ; 2.0091733252490795E8 ; 1.3134688126913772E9 ; 1.303356704028627E10 ; 0.0
74 ; 1.8596341976898048E7 ; 2.009229598671803E8 ; 1.3320599885797296E9 ; 1.3234484372811178E10 ; 0.0
75 ; 1.859569329085054E7 ; 2.0092861491013813E8 ; 1.3506563305566275E9 ; 1.3435407332678358E10 ; 0.0
76 ; 1.8592754145994388E7 ; 2.009342964880136E8 ; 1.3692520238474782E9 ; 1.3636335947588497E10 ; 0.0
77 ; 1.8594042599261772E7 ; 2.009400034672276E8 ; 1.3878447779934726E9 ; 1.3837270244076511E10 ; 0.0
78 ; 1.859146103208914E7 ; 2.009457347454623E8 ; 1.4064388205927343E9 ; 1.403821024754374E10 ; 0.0
79 ; 1.858887781146126E7 ; 2.0095148925074476E8 ; 1.4250302816248236E9 ; 1.4239155982289202E10 ; 0.0
80 ; 1.857981212911502E7 ; 2.0095726594054452E8 ; 1.4436191594362848E9 ; 1.4440107471539946E10 ; 0.0
81 ; 1.857781758100696E7 ; 2.0096306380088565E8 ; 1.4621989715654E9 ; 1.464106473748049E10 ; 0.0
82 ; 1.8571582126287065E7 ; 2.0096888184547535E8 ; 1.480776789146407E9 ; 1.4842027801281376E10 ; 0.0
83 ; 1.856984863950573E7 ; 2.0097471911485004E8 ; 1.4993483712726939E9 ; 1.5042996683126852E10 ; 0.0
84 ; 1.8565962574851554E7 ; 2.0098057467553946E8 ; 1.5179182199121995E9 ; 1.5243971402241703E10 ; 0.0
85 ; 1.855760620717349E7 ; 2.0098644761924988E8 ; 1.536484182487051E9 ; 1.5444951976917242E10 ; 0.0
86 ; 1.8554326712666865E7 ; 2.009923370620669E8 ; 1.5550417886942246E9 ; 1.5645938424536491E10 ; 0.0
87 ; 1.85470741711141E7 ; 2.009982421436781E8 ; 1.5735961154068913E9 ; 1.5846930761598558E10 ; 0.0
88 ; 1.8544388940910447E7 ; 2.0100416202661592E8 ; 1.5921431895780056E9 ; 1.6047929003742237E10 ; 0.0
89 ; 1.853934432810876E7 ; 2.0101009589552093E8 ; 1.610687578518916E9 ; 1.6248933165768852E10 ; 0.0
90 ; 1.8530773355205778E7 ; 2.0101604295642567E8 ; 1.6292269228470247E9 ; 1.6449943261664373E10 ; 0.0
91 ; 1.852201177586261E7 ; 2.010220024360588E8 ; 1.6477576962022305E9 ; 1.66509593046208E10 ; 0.0
92 ; 1.8519234961909093E7 ; 2.0102797358116955E8 ; 1.6662797079780931E9 ; 1.6851981307056858E10 ; 0.0
93 ; 1.8512497824854884E7 ; 2.0103395565787262E8 ; 1.6847989429400022E9 ; 1.7053009280638027E10 ; 0.0
94 ; 1.8507914159632325E7 ; 2.0103994795101288E8 ; 1.703311440764857E9 ; 1.72540432362959E10 ; 0.0
95 ; 1.849967993644653E7 ; 2.0104594976354966E8 ; 1.7218193549244895E9 ; 1.745508318424691E10 ; 0.0
96 ; 1.849246062927519E7 ; 2.0105196041596073E8 ; 1.740319034860936E9 ; 1.765612913401046E10 ; 0.0
97 ; 1.848250946891311E7 ; 2.010579792456652E8 ; 1.758811495490211E9 ; 1.7857181094426422E10 ; 0.0
98 ; 1.8481451518686503E7 ; 2.0106400560646516E8 ; 1.777294004959124E9 ; 1.805823907367209E10 ; 0.0
99 ; 1.8469052037595104E7 ; 2.0107003886800554E8 ; 1.7957754564778106E9 ; 1.8259303079278553E10 ; 0.0
100 ; 1.846769370715887E7 ; 2.0107607841525203E8 ; 1.8142445085154057E9 ; 1.8460373118146557E10 ; 0.0
101 ; 1.8454146263207342E7 ; 2.010821236479863E8 ; 1.8327122022225645E9 ; 1.866144919656181E10 ; 0.0
102 ; 1.84446827091495E7 ; 2.0108817398031843E8 ; 1.851166348485772E9 ; 1.8862531320209797E10 ; 0.0
103 ; 1.844008661758972E7 ; 2.0109422884021574E8 ; 1.8696110311949215E9 ; 1.9063619494190117E10 ; 0.0
104 ; 1.8433016060360357E7 ; 2.0110028766904795E8 ; 1.8880511178125112E9 ; 1.9264713723030334E10 ; 0.0
105 ; 1.8423722069575716E7 ; 2.0110634992114782E8 ; 1.9064841338728716E9 ; 1.9465814010699383E10 ; 0.0
106 ; 1.8414114699051224E7 ; 2.0111241506338724E8 ; 1.9249078559424474E9 ; 1.966692036062053E10 ; 0.0
107 ; 1.8404736719323866E7 ; 2.011184825747679E8 ; 1.9433219706414986E9 ; 1.9868032775683918E10 ; 0.0
108 ; 1.8392716201654606E7 ; 2.0112455194602624E8 ; 1.9617267073608224E9 ; 2.0069151258258686E10 ; 0.0
109 ; 1.8387066590345506E7 ; 2.011306226792527E8 ; 1.980119423562477E9 ; 2.0270275810204712E10 ; 0.0
110 ; 1.837328078274118E7 ; 2.0113669428752378E8 ; 1.9985064901528227E9 ; 2.0471406432883965E10 ; 0.0
111 ; 1.837008705629868E7 ; 2.0114276629454762E8 ; 2.0168797709355638E9 ; 2.067254312717149E10 ; 0.0
112 ; 1.8354454678618647E7 ; 2.0114883823432183E8 ; 2.0352498579918625E9 ; 2.0873685893466038E10 ; 0.0
113 ; 1.8349069921634868E7 ; 2.0115490965080377E8 ; 2.0536043126704812E9 ; 2.107483473170036E10 ; 0.0
114 ; 1.833703008337399E7 ; 2.0116098009759218E8 ; 2.071953382592116E9 ; 2.1275989641351162E10 ; 0.0
115 ; 1.8326867203035362E7 ; 2.0116704913762057E8 ; 2.0902904126754901E9 ; 2.1477150621448753E10 ; 0.0
116 ; 1.8315736796920165E7 ; 2.0117311634286132E8 ; 2.1086172798785255E9 ; 2.1678317670586372E10 ; 0.0
117 ; 1.8308769975858256E7 ; 2.0117918129404044E8 ; 2.1269330166754456E9 ; 2.1879490786929234E10 ; 0.0
118 ; 1.8292745538140796E7 ; 2.011852435803625E8 ; 2.1452417866513038E9 ; 2.2080669968223274E10 ; 0.0
119 ; 1.828539390914933E7 ; 2.0119130279924542E8 ; 2.1635345321894445E9 ; 2.228185521180364E10 ; 0.0
120 ; 1.827190469945918E7 ; 2.0119735855606472E8 ; 2.1818199260985937E9 ; 2.2483046514602882E10 ; 0.0
121 ; 1.8263989035059787E7 ; 2.0120341046390715E8 ; 2.200091830798053E9 ; 2.2684243873158947E10 ; 0.0
122 ; 1.825354870898462E7 ; 2.012094581433327E8 ; 2.2183558198331127E9 ; 2.2885447283622852E10 ; 0.0
123 ; 1.823701994482616E7 ; 2.012155012221455E8 ; 2.2366093685420976E9 ; 2.3086656741766186E10 ; 0.0
124 ; 1.82279740123799E7 ; 2.0122153933517295E8 ; 2.2548463884869237E9 ; 2.328787224298833E10 ; 0.0
125 ; 1.821870957996695E7 ; 2.012275721240523E8 ; 2.273074362499304E9 ; 2.3489093782323505E10 ; 0.0
126 ; 1.820333865361796E7 ; 2.0123359923702538E8 ; 2.291293072079271E9 ; 2.369032135444756E10 ; 0.0
127 ; 1.819494558723903E7 ; 2.0123962032874042E8 ; 2.3094964107328887E9 ; 2.3891554953684586E10 ; 0.0
128 ; 1.8180340101928946E7 ; 2.0124563506006074E8 ; 2.327691356320128E9 ; 2.4092794574013325E10 ; 0.0
129 ; 1.816523832815383E7 ; 2.012516430978807E8 ; 2.3458716964220567E9 ; 2.4294040209073387E10 ; 0.0
130 ; 1.815048613375622E7 ; 2.0125764411494777E8 ; 2.3640369347502103E9 ; 2.449529185217127E10 ; 0.0
131 ; 1.8134003975270826E7 ; 2.0126363778969118E8 ; 2.3821874208839664E9 ; 2.4696549496286217E10 ; 0.0
132 ; 1.811215249123345E7 ; 2.0126962380605653E8 ; 2.400321424859237E9 ; 2.489781313407591E10 ; 0.0
133 ; 1.8098607102372438E7 ; 2.0127560185334623E8 ; 2.4184335773504705E9 ; 2.5099082757881966E10 ; 0.0
134 ; 1.807754763748638E7 ; 2.012815716260657E8 ; 2.436532184452843E9 ; 2.5300358359735313E10 ; 0.0
135 ; 1.805797908025446E7 ; 2.012875328237749E8 ; 2.4546097320903296E9 ; 2.5501639931361378E10 ; 0.0
136 ; 1.8039129131552346E7 ; 2.0129348515094504E8 ; 2.472667711170584E9 ; 2.5702927464185154E10 ; 0.0
137 ; 1.8021412751667075E7 ; 2.012994283168204E8 ; 2.4907068403021364E9 ; 2.5904220949336098E10 ; 0.0
138 ; 1.800370204850737E7 ; 2.0130536203528515E8 ; 2.5087282530538034E9 ; 2.610552037765292E10 ; 0.0
139 ; 1.7983598964916985E7 ; 2.013112860247343E8 ; 2.5267319551023107E9 ; 2.6306825739688206E10 ; 0.0
140 ; 1.7964643038498368E7 ; 2.0131720000794983E8 ; 2.544715554067228E9 ; 2.650813702571294E10 ; 0.0
141 ; 1.794284485418427E7 ; 2.013231037119807E8 ; 2.5626801971057262E9 ; 2.670945422572089E10 ; 0.0
142 ; 1.7920867310960066E7 ; 2.0132899686802706E8 ; 2.5806230419599104E9 ; 2.691077732943287E10 ; 0.0
143 ; 1.7898530338608794E7 ; 2.013348792113287E8 ; 2.5985439092708707E9 ; 2.7112106326300896E10 ; 0.0
144 ; 1.787969326731087E7 ; 2.0134075048105702E8 ; 2.6164424396094794E9 ; 2.7313441205512226E10 ; 0.0
145 ; 1.7871057405731246E7 ; 2.0134661042021114E8 ; 2.6343221328767905E9 ; 2.7514781955993282E10 ; 0.0
146 ; 1.785459938007519E7 ; 2.013524587755172E8 ; 2.6521931902825217E9 ; 2.7716128566413494E10 ; 0.0
147 ; 1.783854377965867E7 ; 2.013582952973313E8 ; 2.6700477896625967E9 ; 2.791748102518901E10 ; 0.0
148 ; 1.782667543136213E7 ; 2.0136411973954573E8 ; 2.6878863334422555E9 ; 2.8118839320486343E10 ; 0.0
149 ; 1.781216620270904E7 ; 2.013699318594985E8 ; 2.7057130088736176E9 ; 2.8320203440225887E10 ; 0.0
150 ; 1.7800062856797993E7 ; 2.0137573141788575E8 ; 2.723525175076327E9 ; 2.8521573372085384E10 ; 0.0
151 ; 1.778271054309848E7 ; 2.0138151817867726E8 ; 2.741325237933125E9 ; 2.872294910350327E10 ; 0.0
152 ; 1.7769094307804078E7 ; 2.013872919090349E8 ; 2.7591079484762235E9 ; 2.8924330621681946E10 ; 0.0
153 ; 1.776038852716929E7 ; 2.013930523792337E8 ; 2.7768770427840276E9 ; 2.912571791359098E10 ; 0.0
154 ; 1.7745445405057274E7 ; 2.0139879936258548E8 ; 2.794637431311197E9 ; 2.9327110965970215E10 ; 0.0
155 ; 1.7726035106389496E7 ; 2.0140453263536543E8 ; 2.812382876716254E9 ; 2.95285097653328E10 ; 0.0
156 ; 1.7717988059145954E7 ; 2.0141025197674078E8 ; 2.8301089118226438E9 ; 2.9729914297968166E10 ; 0.0
157 ; 1.770650933301237E7 ; 2.0141595716870198E8 ; 2.8478268998817897E9 ; 2.993132454994491E10 ; 0.0
158 ; 1.7686457689645004E7 ; 2.014216479959962E8 ; 2.8655334092148023E9 ; 3.013274050711361E10 ; 0.0
159 ; 1.7672716243560843E7 ; 2.0142732424606308E8 ; 2.883219866904447E9 ; 3.0334162155109604E10 ; 0.0
160 ; 1.765803369494853E7 ; 2.0143298570897245E8 ; 2.900892583148008E9 ; 3.0535589479355667E10 ; 0.0
161 ; 1.7645898486262165E7 ; 2.0143863217736432E8 ; 2.9185506168429565E9 ; 3.073702246506464E10 ; 0.0
162 ; 1.762884936472257E7 ; 2.0144426344639066E8 ; 2.936196515329219E9 ; 3.0938461097242004E10 ; 0.0
163 ; 1.7612686322263937E7 ; 2.0144987931365922E8 ; 2.9538253646939416E9 ; 3.1139905360688396E10 ; 0.0
164 ; 1.7596984583780855E7 ; 2.014554795791791E8 ; 2.9714380510162053E9 ; 3.1341355240002056E10 ; 0.0
165 ; 1.7587953874252312E7 ; 2.014610640453083E8 ; 2.989035035599986E9 ; 3.1542810719581234E10 ; 0.0
166 ; 1.7568561375518933E7 ; 2.0146663251670262E8 ; 3.0066229894742384E9 ; 3.174427178362654E10 ; 0.0
167 ; 1.7561309611868843E7 ; 2.014721848002666E8 ; 3.024191550849757E9 ; 3.194573841614324E10 ; 0.0
168 ; 1.7542138678615727E7 ; 2.014777207051058E8 ; 3.041752860461626E9 ; 3.214721060094351E10 ; 0.0
169 ; 1.752641864578597E7 ; 2.0148324004248086E8 ; 3.0592949991402416E9 ; 3.2348688321648613E10 ; 0.0
170 ; 1.7516878156476993E7 ; 2.0148874262576258E8 ; 3.0768214177860274E9 ; 3.2550171561691093E10 ; 0.0
171 ; 1.7496933382729534E7 ; 2.014942282703892E8 ; 3.0943382959425044E9 ; 3.2751660304316856E10 ; 0.0
172 ; 1.7482637065598547E7 ; 2.0149969679382426E8 ; 3.111835229325234E9 ; 3.2953154532587246E10 ; 0.0
173 ; 1.7466034176493898E7 ; 2.0150514801551634E8 ; 3.1293178663908324E9 ; 3.315465422938107E10 ; 0.0
174 ; 1.7455718512638997E7 ; 2.015105817568598E8 ; 3.1467839005673265E9 ; 3.3356159377396587E10 ; 0.0
175 ; 1.7443373455012124E7 ; 2.015159978411571E8 ; 3.1642396190799656E9 ; 3.3557669959153446E10 ; 0.0
176 ; 1.7443339315228783E7 ; 2.0152139609358186E8 ; 3.181682992534978E9 ; 3.3759185956994602E10 ; 0.0
177 ; 1.7427963481015235E7 ; 2.0152677634114343E8 ; 3.199126331850207E9 ; 3.3960707353088184E10 ; 0.0
178 ; 1.7422692386483673E7 ; 2.015321384126525E8 ; 3.216554295331222E9 ; 3.416223412942933E10 ; 0.0
179 ; 1.741196036781334E7 ; 2.0153748213868782E8 ; 3.2339769877177057E9 ; 3.436376626784198E10 ; 0.0
180 ; 1.740075803014277E7 ; 2.0154280735156384E8 ; 3.251388948085519E9 ; 3.456530374998067E10 ; 0.0
181 ; 1.738592760477104E7 ; 2.015481138852995E8 ; 3.2687897061156616E9 ; 3.476684655733223E10 ; 0.0
182 ; 1.738083518534925E7 ; 2.0155340157558796E8 ; 3.2861756337204328E9 ; 3.496839467121753E10 ; 0.0
183 ; 1.7378184322567973E7 ; 2.0155867025976726E8 ; 3.303556468905782E9 ; 3.516994807279311E10 ; 0.0
184 ; 1.7364399820830587E7 ; 2.015639197767919E8 ; 3.32093465322835E9 ; 3.537150674305288E10 ; 0.0
185 ; 1.735297166706461E7 ; 2.015691499672053E8 ; 3.338299053049181E9 ; 3.557307066282967E10 ; 0.0
186 ; 1.734465621836531E7 ; 2.015743606731131E8 ; 3.3556520247162457E9 ; 3.577463981279688E10 ; 0.0
187 ; 1.733197441005484E7 ; 2.0157955173815745E8 ; 3.372996680934611E9 ; 3.597621417346999E10 ; 0.0
188 ; 1.7323594031456847E7 ; 2.015847230074918E8 ; 3.3903286553446655E9 ; 3.617779372520815E10 ; 0.0
189 ; 1.7319346064332105E7 ; 2.0158987432775664E8 ; 3.4076522493761225E9 ; 3.6379378448215645E10 ; 0.0
190 ; 1.7306135761694208E7 ; 2.0159500554705602E8 ; 3.4249715954404545E9 ; 3.65809683225434E10 ; 0.0
191 ; 1.7295707613548335E7 ; 2.0160011651493475E8 ; 3.442277731202149E9 ; 3.678256332809046E10 ; 0.0
192 ; 1.728674990827077E7 ; 2.0160520708235627E8 ; 3.459573438815697E9 ; 3.69841634446054E10 ; 0.0
193 ; 1.727952356249399E7 ; 2.0161027710168114E8 ; 3.476860188723968E9 ; 3.718576865168776E10 ; 0.0
194 ; 1.7269847814700674E7 ; 2.016153264266464E8 ; 3.494139712286462E9 ; 3.7387378928789444E10 ; 0.0
195 ; 1.7256709717334926E7 ; 2.0162035491234538E8 ; 3.5114095601011624E9 ; 3.758899425521609E10 ; 0.0
