CSV File for the City 6 on Day 107
1 - Minute m 
2 - Power Consumed at minute m 
3 - Power Produced at minute m 
4 - Energy Consumed since the beginning of the day 
5 - Energy Produced since the beginning of the day 
6 - Energy Lost since the beginning of the day on lines starting from the city
 
0 ; 1.124335591178456E7 ; 1.0614565927615961E8 ; 0.0 ; 0.0 ; 0.0
1 ; 1.1256765040923096E7 ; 1.0629656740015358E8 ; 1.124335591178456E7 ; 1.0614565927615961E8 ; 0.0
2 ; 1.1265445794629795E7 ; 1.0675646595009986E8 ; 2.2500120952707656E7 ; 2.124422266763132E8 ; 0.0
3 ; 1.127999146748469E7 ; 1.075253584454853E8 ; 3.376556674733745E7 ; 3.1919869262641305E8 ; 0.0
4 ; 1.1293563288015453E7 ; 1.0860324803793442E8 ; 4.504555821482214E7 ; 4.2672405107189834E8 ; 0.0
5 ; 1.131166890336539E7 ; 1.099901374945823E8 ; 5.63391215028376E7 ; 5.3532729910983276E8 ; 0.0
6 ; 1.1341050385757169E7 ; 1.116860291832107E8 ; 6.765079040620299E7 ; 6.45317436604415E8 ; 0.0
7 ; 1.1380631318575623E7 ; 1.1369092505933231E8 ; 7.899184079196015E7 ; 7.570034657876258E8 ; 0.0
8 ; 1.1426412813544616E7 ; 1.1600482665538508E8 ; 9.037247211053577E7 ; 8.706943908469582E8 ; 0.0
9 ; 1.1510765636467176E7 ; 1.1862773507217723E8 ; 1.0179888492408039E8 ; 9.866992175023432E8 ; 0.0
10 ; 1.163544209887431E7 ; 1.215596509726944E8 ; 1.1330965056054756E8 ; 1.1053269525745203E9 ; 0.0
11 ; 1.1839018575162396E7 ; 1.248005745783501E8 ; 1.2494509265942188E8 ; 1.2268866035472147E9 ; 0.0
12 ; 1.2154029583885813E7 ; 1.2835050566773078E8 ; 1.3678411123458427E8 ; 1.3516871781255648E9 ; 0.0
13 ; 1.2460429228116347E7 ; 1.3220944357785082E8 ; 1.489381408184701E8 ; 1.4800376837932956E9 ; 0.0
14 ; 1.2498490488929916E7 ; 1.3637738720790207E8 ; 1.6139857004658642E8 ; 1.6122471273711464E9 ; 0.0
15 ; 1.2509262419933198E7 ; 1.4085433502544647E8 ; 1.7389706053551635E8 ; 1.7486245145790486E9 ; 0.0
16 ; 1.2522620384524325E7 ; 1.4564028507497147E8 ; 1.8640632295544955E8 ; 1.889478849604495E9 ; 0.0
17 ; 1.253753435965025E7 ; 1.5073523498869517E8 ; 1.9892894333997387E8 ; 2.0351191346794665E9 ; 0.0
18 ; 1.255432418336933E7 ; 1.5613918199948257E8 ; 2.1146647769962412E8 ; 2.185854369668162E9 ; 0.0
19 ; 1.2570841975922676E7 ; 1.6185212295570913E8 ; 2.2402080188299346E8 ; 2.3419935516676445E9 ; 0.0
20 ; 1.2581909248394717E7 ; 1.6787405433788797E8 ; 2.3659164385891613E8 ; 2.5038456746233535E9 ; 0.0
21 ; 1.2599063389880814E7 ; 1.7420497227685943E8 ; 2.4917355310731086E8 ; 2.6717197289612412E9 ; 0.0
22 ; 1.2612650907318767E7 ; 1.8084487257333118E8 ; 2.6177261649719167E8 ; 2.8459247012381005E9 ; 0.0
23 ; 1.2631515973439757E7 ; 1.8779375071854693E8 ; 2.7438526740451044E8 ; 3.026769573811432E9 ; 0.0
24 ; 1.2645606725610198E7 ; 1.9505160191585916E8 ; 2.870167833779502E8 ; 3.2145633245299788E9 ; 0.0
25 ; 1.265950657322875E7 ; 2.013064620011657E8 ; 2.996623901035604E8 ; 3.409614926445838E9 ; 0.0
26 ; 1.267338452771557E7 ; 2.013118735025166E8 ; 3.1232189667678916E8 ; 3.610921388447004E9 ; 0.0
27 ; 1.2690298281384671E7 ; 2.013176001879755E8 ; 3.249952812045047E8 ; 3.8122332619495206E9 ; 0.0
28 ; 1.2704165596924577E7 ; 2.013236363353925E8 ; 3.376855794858894E8 ; 4.013550862137496E9 ; 0.0
29 ; 1.2715098476425538E7 ; 2.01329976048504E8 ; 3.50389745082814E8 ; 4.2148744984728885E9 ; 0.0
30 ; 1.2732414890449617E7 ; 2.0133661327946585E8 ; 3.631048435592395E8 ; 4.416204474521393E9 ; 0.0
31 ; 1.274403055574757E7 ; 2.0134354185090756E8 ; 3.7583725844968915E8 ; 4.6175410878008585E9 ; 0.0
32 ; 1.2758313351044707E7 ; 2.0135075547736663E8 ; 3.885812890054367E8 ; 4.818884629651766E9 ; 0.0
33 ; 1.2773329865271999E7 ; 2.0135824778598067E8 ; 4.0133960235648143E8 ; 5.020235385129132E9 ; 0.0
34 ; 1.2782796741358327E7 ; 2.0136601233633405E8 ; 4.141129322217534E8 ; 5.2215936329151125E9 ; 0.0
35 ; 1.2798296699238932E7 ; 2.013740426393723E8 ; 4.2689572896311176E8 ; 5.422959645251447E9 ; 0.0
36 ; 1.2809407234758416E7 ; 2.013823321753172E8 ; 4.396940256623507E8 ; 5.624333687890819E9 ; 0.0
37 ; 1.281993000802964E7 ; 2.0139087441053075E8 ; 4.5250343289710915E8 ; 5.825716020066135E9 ; 0.0
38 ; 1.2835339925327184E7 ; 2.0139966281329232E8 ; 4.653233629051388E8 ; 6.027106894476666E9 ; 0.0
39 ; 1.2843498159094034E7 ; 2.0140869086846852E8 ; 4.78158702830466E8 ; 6.228506557289959E9 ; 0.0
40 ; 1.2855258743925713E7 ; 2.0141795209106788E8 ; 4.9100220098956E8 ; 6.429915248158427E9 ; 0.0
41 ; 1.2863980030629598E7 ; 2.014274400386843E8 ; 5.038574597334857E8 ; 6.6313332002494955E9 ; 0.0
42 ; 1.2873926051546348E7 ; 2.0143714832284418E8 ; 5.167214397641153E8 ; 6.832760640288179E9 ; 0.0
43 ; 1.2882199069153367E7 ; 2.014470706192804E8 ; 5.295953658156616E8 ; 7.034197788611024E9 ; 0.0
44 ; 1.289459260403844E7 ; 2.014572006771649E8 ; 5.42477564884815E8 ; 7.235644859230305E9 ; 0.0
45 ; 1.2896577153338924E7 ; 2.0146753232733703E8 ; 5.553721574888535E8 ; 7.43710205990747E9 ; 0.0
46 ; 1.2904171116783712E7 ; 2.0147805948956996E8 ; 5.682687346421924E8 ; 7.638569592234807E9 ; 0.0
47 ; 1.2914156034314632E7 ; 2.0148877617892253E8 ; 5.811729057589761E8 ; 7.840047651724377E9 ; 0.0
48 ; 1.29203943823558E7 ; 2.0149967651122487E8 ; 5.940870617932907E8 ; 8.041536427903299E9 ; 0.0
49 ; 1.2925975343450593E7 ; 2.0151075470774978E8 ; 6.070074561756465E8 ; 8.243036104414524E9 ; 0.0
50 ; 1.2929702703830443E7 ; 2.01522005099122E8 ; 6.199334315190971E8 ; 8.444546859122273E9 ; 0.0
51 ; 1.2936602598440947E7 ; 2.0153342212851757E8 ; 6.328631342229276E8 ; 8.646068864221395E9 ; 0.0
52 ; 1.2941484891935743E7 ; 2.0154500035420668E8 ; 6.457997368213686E8 ; 8.847602286349913E9 ; 0.0
53 ; 1.294387015048841E7 ; 2.0155673445149028E8 ; 6.587412217133043E8 ; 9.049147286704119E9 ; 0.0
54 ; 1.2949781194943415E7 ; 2.0156861921408188E8 ; 6.716850918637927E8 ; 9.25070402115561E9 ; 0.0
55 ; 1.2956545300174063E7 ; 2.015806495549824E8 ; 6.846348730587361E8 ; 9.452272640369692E9 ; 0.0
56 ; 1.295341952871351E7 ; 2.015928205068952E8 ; 6.975914183589102E8 ; 9.653853289924675E9 ; 0.0
57 ; 1.296483017192846E7 ; 2.016051272222257E8 ; 7.105448378876237E8 ; 9.85544611043157E9 ; 0.0
58 ; 1.2965658769051649E7 ; 2.0161756497270796E8 ; 7.235096680595521E8 ; 1.0057051237653795E10 ; 0.0
59 ; 1.2968029978999712E7 ; 2.0163012914869827E8 ; 7.364753268286037E8 ; 1.0258668802626503E10 ; 0.0
60 ; 1.2974170449448988E7 ; 2.01642815258173E8 ; 7.494433568076035E8 ; 1.0460298931775202E10 ; 0.0
61 ; 1.297737632612951E7 ; 2.016556189254659E8 ; 7.624175272570524E8 ; 1.0661941747033375E10 ; 0.0
62 ; 1.2982875277082626E7 ; 2.016685358897775E8 ; 7.75394903583182E8 ; 1.0863597365958841E10 ; 0.0
63 ; 1.29830072331657E7 ; 2.0168156200348648E8 ; 7.883777788602647E8 ; 1.106526590184862E10 ; 0.0
64 ; 1.2985666755768051E7 ; 2.0169469323029107E8 ; 8.013607860934304E8 ; 1.1266947463852106E10 ; 0.0
65 ; 1.2991408351519436E7 ; 2.0170792564320627E8 ; 8.143464528491985E8 ; 1.1468642157082397E10 ; 0.0
66 ; 1.299250576950157E7 ; 2.0172125542243966E8 ; 8.273378612007179E8 ; 1.1670350082725603E10 ; 0.0
67 ; 1.2994077369634919E7 ; 2.017346788531677E8 ; 8.403303669702195E8 ; 1.1872071338148043E10 ; 0.0
68 ; 1.2999970198166551E7 ; 2.017481923232317E8 ; 8.533244443398544E8 ; 1.2073806017001211E10 ; 0.0
69 ; 1.3002329854157189E7 ; 2.017617923207708E8 ; 8.66324414538021E8 ; 1.2275554209324444E10 ; 0.0
70 ; 1.3005856444072187E7 ; 2.0177547543180802E8 ; 8.793267443921782E8 ; 1.2477316001645214E10 ; 0.0
71 ; 1.300739054980922E7 ; 2.017892383378035E8 ; 8.923326008362503E8 ; 1.2679091477077023E10 ; 0.0
72 ; 1.3008032635210782E7 ; 2.0180307781318745E8 ; 9.053399913860595E8 ; 1.2880880715414825E10 ; 0.0
73 ; 1.301453398421257E7 ; 2.0181699072288397E8 ; 9.183480240212703E8 ; 1.3082683793228012E10 ; 0.0
74 ; 1.3013548590361474E7 ; 2.0183097401983643E8 ; 9.313625580054828E8 ; 1.3284500783950895E10 ; 0.0
75 ; 1.3017947545915803E7 ; 2.0184502474254203E8 ; 9.443761065958443E8 ; 1.3486331757970732E10 ; 0.0
76 ; 1.3020212770386161E7 ; 2.0185914001260442E8 ; 9.573940541417601E8 ; 1.3688176782713274E10 ; 0.0
77 ; 1.3016377711920742E7 ; 2.0187331703231037E8 ; 9.704142669121463E8 ; 1.3890035922725878E10 ; 0.0
78 ; 1.3018241303320294E7 ; 2.0188755308223638E8 ; 9.834306446240671E8 ; 1.4091909239758188E10 ; 0.0
79 ; 1.3016582187515888E7 ; 2.0190184551889065E8 ; 9.964488859273874E8 ; 1.4293796792840425E10 ; 0.0
80 ; 1.3013987062778782E7 ; 2.01916191772394E8 ; 1.0094654681149032E9 ; 1.4495698638359316E10 ; 0.0
81 ; 1.3010641934196454E7 ; 2.0193058934420395E8 ; 1.022479455177682E9 ; 1.469761483013171E10 ; 0.0
82 ; 1.3010282703963788E7 ; 2.0194503580488428E8 ; 1.0354900971118785E9 ; 1.4899545419475914E10 ; 0.0
83 ; 1.300793617233364E7 ; 2.0195952879192305E8 ; 1.0485003798158423E9 ; 1.5101490455280798E10 ; 0.0
84 ; 1.3004314744926365E7 ; 2.019740660076007E8 ; 1.0615083159881759E9 ; 1.5303449984072721E10 ; 0.0
85 ; 1.3004335449513199E7 ; 2.019886452169097E8 ; 1.0745126307331023E9 ; 1.5505424050080322E10 ; 0.0
86 ; 1.3001951779930186E7 ; 2.0200326424552697E8 ; 1.0875169661826155E9 ; 1.5707412695297232E10 ; 0.0
87 ; 1.2997022174519546E7 ; 2.020179209778397E8 ; 1.1005189179625456E9 ; 1.5909415959542759E10 ; 0.0
88 ; 1.2993623837493451E7 ; 2.0203261335502523E8 ; 1.1135159401370652E9 ; 1.61114338805206E10 ; 0.0
89 ; 1.29849427929179E7 ; 2.020473393731849E8 ; 1.1265095639745586E9 ; 1.6313466493875624E10 ; 0.0
90 ; 1.2988367736318909E7 ; 2.0206209708153185E8 ; 1.1394945067674766E9 ; 1.6515513833248808E10 ; 0.0
91 ; 1.2984699097597545E7 ; 2.0207688458063293E8 ; 1.1524828745037954E9 ; 1.671757593033034E10 ; 0.0
92 ; 1.2979012907315908E7 ; 2.0209170002070364E8 ; 1.165467573601393E9 ; 1.6919652814910973E10 ; 0.0
93 ; 1.2976856041699648E7 ; 2.0210654159995595E8 ; 1.178446586508709E9 ; 1.7121744514931677E10 ; 0.0
94 ; 1.2971923933874035E7 ; 2.0212140756299818E8 ; 1.1914234425504086E9 ; 1.732385105653163E10 ; 0.0
95 ; 1.2967833881003022E7 ; 2.0213629619928607E8 ; 1.2043953664842827E9 ; 1.752597246409463E10 ; 0.0
96 ; 1.2963553076904645E7 ; 2.0215120584162426E8 ; 1.2173632003652859E9 ; 1.772810876029392E10 ; 0.0
97 ; 1.2961844973236497E7 ; 2.0216613486471674E8 ; 1.2303267534421904E9 ; 1.7930259966135544E10 ; 0.0
98 ; 1.2959341083541285E7 ; 2.0218108168376595E8 ; 1.243288598415427E9 ; 1.813242610100026E10 ; 0.0
99 ; 1.2955349502699675E7 ; 2.0219604475311878E8 ; 1.2562479394989684E9 ; 1.8334607182684025E10 ; 0.0
100 ; 1.2949991466072813E7 ; 2.0221102256495857E8 ; 1.269203289001668E9 ; 1.8536803227437145E10 ; 0.0
101 ; 1.2944687383638905E7 ; 2.022260136480418E8 ; 1.2821532804677408E9 ; 1.8739014250002106E10 ; 0.0
102 ; 1.2940876364435628E7 ; 2.0224101656647876E8 ; 1.2950979678513796E9 ; 1.8941240263650146E10 ; 0.0
103 ; 1.2936101694759155E7 ; 2.022560299185561E8 ; 1.3080388442158153E9 ; 1.9143481280216625E10 ; 0.0
104 ; 1.293435682152161E7 ; 2.022710523356009E8 ; 1.3209749459105744E9 ; 1.934573731013518E10 ; 0.0
105 ; 1.2924557960341746E7 ; 2.022860824808846E8 ; 1.333909302732096E9 ; 1.9548008362470783E10 ; 0.0
106 ; 1.2917429393800117E7 ; 2.0230111904856563E8 ; 1.3468338606924376E9 ; 1.9750294444951668E10 ; 0.0
107 ; 1.2916174142774336E7 ; 2.023161607626695E8 ; 1.3597512900862377E9 ; 1.9952595564000233E10 ; 0.0
108 ; 1.2911309143856503E7 ; 2.0233120637610546E8 ; 1.372667464229012E9 ; 2.01549117247629E10 ; 0.0
109 ; 1.2904989271666966E7 ; 2.0234625466971818E8 ; 1.3855787733728685E9 ; 2.0357242931139008E10 ; 0.0
110 ; 1.2897438216591682E7 ; 2.0236130445137325E8 ; 1.3984837626445355E9 ; 2.0559589185808727E10 ; 0.0
111 ; 1.2894501561796483E7 ; 2.0237635455507597E8 ; 1.4113812008611271E9 ; 2.07619504902601E10 ; 0.0
112 ; 1.2889925940278983E7 ; 2.0239140384012157E8 ; 1.4242757024229236E9 ; 2.0964326844815178E10 ; 0.0
113 ; 1.2882924759321116E7 ; 2.024064511902762E8 ; 1.4371656283632026E9 ; 2.11667182486553E10 ; 0.0
114 ; 1.2880054128775368E7 ; 2.0242149551298755E8 ; 1.4500485531225238E9 ; 2.1369124699845577E10 ; 0.0
115 ; 1.2873517320955312E7 ; 2.0243653573862404E8 ; 1.4629286072512991E9 ; 2.1571546195358566E10 ; 0.0
116 ; 1.286394145234935E7 ; 2.0245157081974146E8 ; 1.4758021245722544E9 ; 2.177398273109719E10 ; 0.0
117 ; 1.2862127103870561E7 ; 2.0246659973037642E8 ; 1.4886660660246038E9 ; 2.197643430191693E10 ; 0.0
118 ; 1.2851657198010042E7 ; 2.0248162146536523E8 ; 1.5015281931284745E9 ; 2.217890090164731E10 ; 0.0
119 ; 1.2847647220827453E7 ; 2.0249663503968754E8 ; 1.5143798503264844E9 ; 2.2381382523112675E10 ; 0.0
120 ; 1.2842291842395125E7 ; 2.0251163948783377E8 ; 1.5272274975473118E9 ; 2.2583879158152363E10 ; 0.0
121 ; 1.283525396866849E7 ; 2.0252663386319554E8 ; 1.5400697893897069E9 ; 2.2786390797640198E10 ; 0.0
122 ; 1.282628280710567E7 ; 2.0254161723747814E8 ; 1.5529050433583753E9 ; 2.2988917431503395E10 ; 0.0
123 ; 1.2821914620786222E7 ; 2.0255658870013425E8 ; 1.565731326165481E9 ; 2.319145904874087E10 ; 0.0
124 ; 1.281342085257858E7 ; 2.025715473578183E8 ; 1.5785532407862673E9 ; 2.3394015637441006E10 ; 0.0
125 ; 1.2808827924415687E7 ; 2.0258649233386034E8 ; 1.591366661638846E9 ; 2.3596587184798824E10 ; 0.0
126 ; 1.2801238405798879E7 ; 2.0260142276775908E8 ; 1.6041754895632615E9 ; 2.3799173677132683E10 ; 0.0
127 ; 1.2795137360175107E7 ; 2.0261633781469324E8 ; 1.6169767279690604E9 ; 2.400177509990044E10 ; 0.0
128 ; 1.2785451897452278E7 ; 2.026312366450503E8 ; 1.6297718653292356E9 ; 2.4204391437715134E10 ; 0.0
129 ; 1.277630830221073E7 ; 2.026461184439724E8 ; 1.642557317226688E9 ; 2.4407022674360184E10 ; 0.0
130 ; 1.2767494785915423E7 ; 2.026609824109186E8 ; 1.6553336255288987E9 ; 2.4609668792804157E10 ; 0.0
131 ; 1.2756946390658302E7 ; 2.0267582775924256E8 ; 1.668101120314814E9 ; 2.4812329775215076E10 ; 0.0
132 ; 1.274720918423269E7 ; 2.0269065371578556E8 ; 1.6808580667054725E9 ; 2.501500560297432E10 ; 0.0
133 ; 1.2733170834829532E7 ; 2.0270545952048412E8 ; 1.6936052758897052E9 ; 2.5217696256690105E10 ; 0.0
134 ; 1.272503873066406E7 ; 2.0272024442599133E8 ; 1.7063384467245347E9 ; 2.542040171621059E10 ; 0.0
135 ; 1.2709427455259774E7 ; 2.0273500769731188E8 ; 1.7190634854551988E9 ; 2.562312196063658E10 ; 0.0
136 ; 1.2697314565628815E7 ; 2.027497486114501E8 ; 1.7317729129104586E9 ; 2.5825856968333893E10 ; 0.0
137 ; 1.2686845062130263E7 ; 2.027644664570703E8 ; 1.7444702274760873E9 ; 2.6028606716945343E10 ; 0.0
138 ; 1.2675463825268751E7 ; 2.0277916053416908E8 ; 1.7571570725382175E9 ; 2.6231371183402412E10 ; 0.0
139 ; 1.2664102222635964E7 ; 2.0279383015375954E8 ; 1.7698325363634863E9 ; 2.643415034393658E10 ; 0.0
140 ; 1.2651925849311706E7 ; 2.0280847463756615E8 ; 1.7824966385861223E9 ; 2.663694417409034E10 ; 0.0
141 ; 1.263824775281637E7 ; 2.0282309331773072E8 ; 1.7951485644354339E9 ; 2.6839752648727905E10 ; 0.0
142 ; 1.262590556505581E7 ; 2.0283768553652844E8 ; 1.8077868121882503E9 ; 2.7042575742045635E10 ; 0.0
143 ; 1.261100801222549E7 ; 2.0285225064609388E8 ; 1.8204127177533062E9 ; 2.7245413427582165E10 ; 0.0
144 ; 1.2601618213036131E7 ; 2.0286678800815666E8 ; 1.8330237257655315E9 ; 2.744826567822826E10 ; 0.0
145 ; 1.2590791393287938E7 ; 2.0288129699378613E8 ; 1.8456253439785676E9 ; 2.7651132466236416E10 ; 0.0
146 ; 1.2582286217804365E7 ; 2.0289577698314503E8 ; 1.8582161353718555E9 ; 2.78540137632302E10 ; 0.0
147 ; 1.2569964244909273E7 ; 2.029102273652516E8 ; 1.87079842158966E9 ; 2.805690954021335E10 ; 0.0
148 ; 1.2570309698516395E7 ; 2.0292464753775E8 ; 1.8833683858345692E9 ; 2.82598197675786E10 ; 0.0
149 ; 1.2559309684290925E7 ; 2.0293903690668845E8 ; 1.8959386955330856E9 ; 2.8462744415116352E10 ; 0.0
150 ; 1.2551688288611237E7 ; 2.0295339488630515E8 ; 1.9084980052173765E9 ; 2.866568345202304E10 ; 0.0
151 ; 1.2540822085961606E7 ; 2.0296772089882144E8 ; 1.9210496935059876E9 ; 2.8868636846909348E10 ; 0.0
152 ; 1.2534952962798545E7 ; 2.0298201437424207E8 ; 1.9335905155919492E9 ; 2.907160456780817E10 ; 0.0
153 ; 1.2527114698289372E7 ; 2.0299627475016207E8 ; 1.9461254685547478E9 ; 2.927458658218241E10 ; 0.0
154 ; 1.2516973101713618E7 ; 2.0301050147158062E8 ; 1.9586525832530372E9 ; 2.947758285693257E10 ; 0.0
155 ; 1.2509232298356216E7 ; 2.0302469399072072E8 ; 1.9711695563547509E9 ; 2.9680593358404152E10 ; 0.0
156 ; 1.2503105357675934E7 ; 2.0303885176685518E8 ; 1.9836787886531072E9 ; 2.988361805239487E10 ; 0.0
157 ; 1.2492419125545833E7 ; 2.030529742661385E8 ; 1.9961818940107832E9 ; 3.0086656904161724E10 ; 0.0
158 ; 1.248553323748038E7 ; 2.0306706096144438E8 ; 2.008674313136329E9 ; 3.0289709878427864E10 ; 0.0
159 ; 1.2476534084548507E7 ; 2.0308111133220854E8 ; 2.0211598463738093E9 ; 3.049277693938931E10 ; 0.0
160 ; 1.246554211344439E7 ; 2.030951248642769E8 ; 2.0336363804583578E9 ; 3.0695858050721516E10 ; 0.0
161 ; 1.2459406121932996E7 ; 2.0310910104975876E8 ; 2.0461019225718021E9 ; 3.0898953175585793E10 ; 0.0
162 ; 1.2446437084956605E7 ; 2.0312303938688502E8 ; 2.0585613286937351E9 ; 3.110206227663555E10 ; 0.0
163 ; 1.2440130190806087E7 ; 2.0313693937987077E8 ; 2.0710077657786918E9 ; 3.1305185316022438E10 ; 0.0
164 ; 1.2434317091355314E7 ; 2.0315080053878272E8 ; 2.083447895969498E9 ; 3.150832225540231E10 ; 0.0
165 ; 1.242422443865088E7 ; 2.0316462237941077E8 ; 2.0958822130608532E9 ; 3.1711473055941093E10 ; 0.0
166 ; 1.2414882594817813E7 ; 2.031784044231441E8 ; 2.108306437499504E9 ; 3.1914637678320503E10 ; 0.0
167 ; 1.240683372998331E7 ; 2.0319214619685087E8 ; 2.120721320094322E9 ; 3.211781608274365E10 ; 0.0
168 ; 1.2397229269252742E7 ; 2.0320584723276222E8 ; 2.1331281538243053E9 ; 3.23210082289405E10 ; 0.0
169 ; 1.2385088623533346E7 ; 2.0321950706835997E8 ; 2.145525383093558E9 ; 3.252421407617326E10 ; 0.0
170 ; 1.2383571533328349E7 ; 2.0323312524626783E8 ; 2.1579104717170916E9 ; 3.272743358324162E10 ; 0.0
171 ; 1.2366363670098312E7 ; 2.0324670131414625E8 ; 2.17029404325042E9 ; 3.293066670848789E10 ; 0.0
172 ; 1.2360449598098835E7 ; 2.0326023482459068E8 ; 2.1826604069205184E9 ; 3.3133913409802036E10 ; 0.0
173 ; 1.2354401184561031E7 ; 2.0327372533503306E8 ; 2.195020856518617E9 ; 3.3337173644626625E10 ; 0.0
174 ; 1.234822188497685E7 ; 2.0328717240764636E8 ; 2.2073752577031784E9 ; 3.354044736996166E10 ; 0.0
175 ; 1.2339909949990027E7 ; 2.0330057560925254E8 ; 2.2197234795881553E9 ; 3.3743734542369305E10 ; 0.0
176 ; 1.2331900440176629E7 ; 2.0331393451123297E8 ; 2.232063389538145E9 ; 3.3947035117978558E10 ; 0.0
177 ; 1.2332443507586768E7 ; 2.0332724868944222E8 ; 2.2443952899783216E9 ; 3.415034905248979E10 ; 0.0
178 ; 1.2325065780295635E7 ; 2.03340517724124E8 ; 2.2567277334859085E9 ; 3.4353676301179234E10 ; 0.0
179 ; 1.2319293536220877E7 ; 2.0335374119983044E8 ; 2.2690527992662044E9 ; 3.455701681890336E10 ; 0.0
180 ; 1.2310829088760253E7 ; 2.033669187053433E8 ; 2.2813720928024254E9 ; 3.476037056010319E10 ; 0.0
181 ; 1.2306592842319367E7 ; 2.0338004983359814E8 ; 2.2936829218911858E9 ; 3.496373747880853E10 ; 0.0
182 ; 1.2286022795228709E7 ; 2.0339313418161052E8 ; 2.3059895147335052E9 ; 3.516711752864213E10 ; 0.0
183 ; 1.2265901511748023E7 ; 2.0340617135040492E8 ; 2.3182755375287337E9 ; 3.537051066282374E10 ; 0.0
184 ; 1.224106827540686E7 ; 2.034191609449453E8 ; 2.3305414390404816E9 ; 3.557391683417414E10 ; 0.0
185 ; 1.2221373557477599E7 ; 2.0343210257406864E8 ; 2.3427825073158884E9 ; 3.577733599511909E10 ; 0.0
186 ; 1.219506415787333E7 ; 2.034449958504196E8 ; 2.355003880873366E9 ; 3.598076809769315E10 ; 0.0
187 ; 1.2169819328103792E7 ; 2.0345784039038822E8 ; 2.367198945031239E9 ; 3.618421309354357E10 ; 0.0
188 ; 1.2148880258411061E7 ; 2.034706358140486E8 ; 2.379368764359343E9 ; 3.638767093393396E10 ; 0.0
189 ; 1.2124704208354149E7 ; 2.034833817451002E8 ; 2.391517644617754E9 ; 3.659114156974801E10 ; 0.0
190 ; 1.210335349567243E7 ; 2.0349607781081071E8 ; 2.403642348826108E9 ; 3.679462495149311E10 ; 0.0
191 ; 1.2078728889971172E7 ; 2.0350872364196044E8 ; 2.41574570232178E9 ; 3.6998121029303925E10 ; 0.0
192 ; 1.2056363392659735E7 ; 2.0352131887278885E8 ; 2.4278244312117515E9 ; 3.7201629752945885E10 ; 0.0
193 ; 1.2029583897469768E7 ; 2.0353386314094242E8 ; 2.439880794604411E9 ; 3.740515107181867E10 ; 0.0
194 ; 1.2008380172587201E7 ; 2.0354635608742425E8 ; 2.451910378501881E9 ; 3.760868493495962E10 ; 0.0
195 ; 1.198395613181093E7 ; 2.0355879735654518E8 ; 2.4639187586744685E9 ; 3.781223129104704E10 ; 0.0
