CSV File for the City 6 on Day 39
1 - Minute m 
2 - Power Consumed at minute m 
3 - Power Produced at minute m 
4 - Energy Consumed since the beginning of the day 
5 - Energy Produced since the beginning of the day 
6 - Energy Lost since the beginning of the day on lines starting from the city
 
0 ; 1.1113223869779186E7 ; 1.0557384764596E8 ; 0.0 ; 0.0 ; 0.0
1 ; 1.112404361884975E7 ; 1.0572310313380581E8 ; 1.1113223869779186E7 ; 1.0557384764596E8 ; 0.0
2 ; 1.1138883430889215E7 ; 1.0618147876704583E8 ; 2.223726748862894E7 ; 2.112969507797658E8 ; 0.0
3 ; 1.114964930746142E7 ; 1.0694899140353185E8 ; 3.3376150919518154E7 ; 3.1747842954681164E8 ; 0.0
4 ; 1.1168438560137719E7 ; 1.0802565673853552E8 ; 4.4525800226979576E7 ; 4.244274209503435E8 ; 0.0
5 ; 1.1189730886896264E7 ; 1.0941148904300845E8 ; 5.5694238787117295E7 ; 5.32453077688879E8 ; 0.0
6 ; 1.1211984931326002E7 ; 1.1110650090866539E8 ; 6.6883969674013555E7 ; 6.418645667318875E8 ; 0.0
7 ; 1.124978758800231E7 ; 1.1311070300945073E8 ; 7.809595460533956E7 ; 7.529710676405529E8 ; 0.0
8 ; 1.130188878670575E7 ; 1.1542410388920057E8 ; 8.934574219334187E7 ; 8.660817706500037E8 ; 0.0
9 ; 1.1385691186072122E7 ; 1.1804670978490174E8 ; 1.0064763098004761E8 ; 9.815058745392042E8 ; 0.0
10 ; 1.1508269610211011E7 ; 1.2097852449383223E8 ; 1.1203332216611974E8 ; 1.099552584324106E9 ; 0.0
11 ; 1.170467128751211E7 ; 1.242195492910746E8 ; 1.2354159177633075E8 ; 1.2205311088179383E9 ; 0.0
12 ; 1.2024362164677212E7 ; 1.2776978290154627E8 ; 1.3524626306384286E8 ; 1.3447506581090128E9 ; 0.0
13 ; 1.2327319323524127E7 ; 1.3162922152796924E8 ; 1.4727062522852007E8 ; 1.472520441010559E9 ; 0.0
14 ; 1.2365307741388792E7 ; 1.3579785893335676E8 ; 1.5959794455204418E8 ; 1.6041496625385284E9 ; 0.0
15 ; 1.237721512929351E7 ; 1.4027568657387263E8 ; 1.7196325229343298E8 ; 1.7399475214718852E9 ; 0.0
16 ; 1.2392618023364406E7 ; 1.4506269377557257E8 ; 1.8434046742272648E8 ; 1.8802232080457578E9 ; 0.0
17 ; 1.24068506538947E7 ; 1.5015886794674173E8 ; 1.9673308544609088E8 ; 2.0252859018213303E9 ; 0.0
18 ; 1.2420137022470381E7 ; 1.5556419481642854E8 ; 2.0913993609998557E8 ; 2.175444769768072E9 ; 0.0
19 ; 1.243669990903019E7 ; 1.6127865868936136E8 ; 2.2156007312245595E8 ; 2.331008964584501E9 ; 0.0
20 ; 1.2447285415788604E7 ; 1.6730224270768836E8 ; 2.3399677303148615E8 ; 2.4922876232738624E9 ; 0.0
21 ; 1.2462313161786117E7 ; 1.73634929110787E8 ; 2.4644405844727474E8 ; 2.6595898659815507E9 ; 0.0
22 ; 1.2480782888546223E7 ; 1.8027669948560792E8 ; 2.5890637160906085E8 ; 2.8332247950923376E9 ; 0.0
23 ; 1.2495681661755685E7 ; 1.8722753500148398E8 ; 2.7138715449760705E8 ; 3.0135014945779457E9 ; 0.0
24 ; 1.2508115565803522E7 ; 1.9448741662490094E8 ; 2.8388283615936273E8 ; 3.2007290295794296E9 ; 0.0
25 ; 1.252201329355413E7 ; 2.0074436620943862E8 ; 2.9639095172516626E8 ; 3.3952164462043304E9 ; 0.0
26 ; 1.2536941723659106E7 ; 2.0075191269983304E8 ; 3.089129650187204E8 ; 3.5959608124137692E9 ; 0.0
27 ; 1.2547953296061184E7 ; 2.0075980679907694E8 ; 3.214499067423795E8 ; 3.796712725113602E9 ; 0.0
28 ; 1.2563959550650803E7 ; 2.0076803033300936E8 ; 3.3399786003844064E8 ; 3.997472531912679E9 ; 0.0
29 ; 1.2579034527517587E7 ; 2.007765656383198E8 ; 3.465618195890914E8 ; 4.1982405622456884E9 ; 0.0
30 ; 1.259173620336372E7 ; 2.0078539563607857E8 ; 3.59140854116609E8 ; 4.399017127884008E9 ; 0.0
31 ; 1.2605295005645178E7 ; 2.0079450388618085E8 ; 3.717325903199727E8 ; 4.599802523520087E9 ; 0.0
32 ; 1.2620477134920225E7 ; 2.0080387462499362E8 ; 3.8433788532561785E8 ; 4.800597027406268E9 ; 0.0
33 ; 1.2630315233651925E7 ; 2.0081349278851476E8 ; 3.969583624605381E8 ; 5.001400902031261E9 ; 0.0
34 ; 1.2642435285430236E7 ; 2.0082334402327654E8 ; 4.0958867769419E8 ; 5.202214394819777E9 ; 0.0
35 ; 1.2649978326323709E7 ; 2.0083341468708244E8 ; 4.222311129796203E8 ; 5.403037738843053E9 ; 0.0
36 ; 1.2666348928499568E7 ; 2.0084369184148303E8 ; 4.3488109130594397E8 ; 5.603871153530135E9 ; 0.0
37 ; 1.2675958539801084E7 ; 2.008541632376899E8 ; 4.4754744023444355E8 ; 5.804714845371618E9 ; 0.0
38 ; 1.2686592048243515E7 ; 2.008648172974156E8 ; 4.602233987742446E8 ; 6.005569008609308E9 ; 0.0
39 ; 1.2696696568038091E7 ; 2.0087564308991894E8 ; 4.729099908224881E8 ; 6.206433825906724E9 ; 0.0
40 ; 1.270560561527076E7 ; 2.008866303063399E8 ; 4.8560668739052624E8 ; 6.407309468996643E9 ; 0.0
41 ; 1.2714622661738442E7 ; 2.008977692322281E8 ; 4.9831229300579697E8 ; 6.608196099302983E9 ; 0.0
42 ; 1.2723696896651695E7 ; 2.0090905071900824E8 ; 5.110269156675354E8 ; 6.809093868535212E9 ; 0.0
43 ; 1.273273344797041E7 ; 2.0092046615498367E8 ; 5.237506125641871E8 ; 7.01000291925422E9 ; 0.0
44 ; 1.2738801362781098E7 ; 2.0093200743635687E8 ; 5.364833460121575E8 ; 7.210923385409204E9 ; 0.0
45 ; 1.2745244616330111E7 ; 2.0094366693864086E8 ; 5.492221473749386E8 ; 7.41185539284556E9 ; 0.0
46 ; 1.2754630554665528E7 ; 2.00955437488747E8 ; 5.619673919912688E8 ; 7.612799059784201E9 ; 0.0
47 ; 1.2756846062232643E7 ; 2.009673123379613E8 ; 5.747220225459343E8 ; 7.813754497272947E9 ; 0.0
48 ; 1.2763808826586349E7 ; 2.0097928513596052E8 ; 5.874788686081669E8 ; 8.0147218096109085E9 ; 0.0
49 ; 1.276621308568761E7 ; 2.0099134990597078E8 ; 6.002426774347533E8 ; 8.215701094746869E9 ; 0.0
50 ; 1.2772109438532602E7 ; 2.0100350102113038E8 ; 6.130088905204409E8 ; 8.41669244465284E9 ; 0.0
51 ; 1.2774676979915468E7 ; 2.010157331820884E8 ; 6.257809999589735E8 ; 8.61769594567397E9 ; 0.0
52 ; 1.277878199305105E7 ; 2.010280413958453E8 ; 6.38555676938889E8 ; 8.818711678856058E9 ; 0.0
53 ; 1.2782427086646423E7 ; 2.0104042095582265E8 ; 6.513344589319401E8 ; 9.019739720251904E9 ; 0.0
54 ; 1.2788729246603046E7 ; 2.0105286742313525E8 ; 6.641168860185865E8 ; 9.220780141207726E9 ; 0.0
55 ; 1.2792941583104054E7 ; 2.010653766090278E8 ; 6.769056152651895E8 ; 9.421833008630861E9 ; 0.0
56 ; 1.2793501411393965E7 ; 2.0107794455843136E8 ; 6.896985568482935E8 ; 9.62289838523989E9 ; 0.0
57 ; 1.2793735556805817E7 ; 2.010905675345895E8 ; 7.024920582596875E8 ; 9.82397632979832E9 ; 0.0
58 ; 1.2798647950975504E7 ; 2.0110324200470105E8 ; 7.152857938164934E8 ; 1.002506689733291E10 ; 0.0
59 ; 1.2802247558955835E7 ; 2.011159646265248E8 ; 7.280844417674689E8 ; 1.0226170139337612E10 ; 0.0
60 ; 1.2801795341982706E7 ; 2.0112873223589155E8 ; 7.408866893264247E8 ; 1.0427286103964136E10 ; 0.0
61 ; 1.2802914647324592E7 ; 2.0114154183506873E8 ; 7.536884846684074E8 ; 1.0628414836200027E10 ; 0.0
62 ; 1.2808575024354652E7 ; 2.0115439058192465E8 ; 7.66491399315732E8 ; 1.0829556378035097E10 ; 0.0
63 ; 1.2810238998155825E7 ; 2.01167275779841E8 ; 7.792999743400867E8 ; 1.1030710768617022E10 ; 0.0
64 ; 1.2809066529118111E7 ; 2.0118019486832428E8 ; 7.921102133382425E8 ; 1.1231878044396862E10 ; 0.0
65 ; 1.2811208410842922E7 ; 2.011931454142686E8 ; 8.049192798673606E8 ; 1.1433058239265186E10 ; 0.0
66 ; 1.2812168656815447E7 ; 2.012061251038262E8 ; 8.177304882782035E8 ; 1.1634251384679455E10 ; 0.0
67 ; 1.2818104127121557E7 ; 2.0121913173484206E8 ; 8.305426569350189E8 ; 1.1835457509783281E10 ; 0.0
68 ; 1.281655556543263E7 ; 2.012321632098146E8 ; 8.433607610621405E8 ; 1.2036676641518124E10 ; 0.0
69 ; 1.2819366753057858E7 ; 2.0124521752934343E8 ; 8.561773166275731E8 ; 1.2237908804727938E10 ; 0.0
70 ; 1.2821627633455765E7 ; 2.0125829278603095E8 ; 8.68996683380631E8 ; 1.243915402225728E10 ; 0.0
71 ; 1.2823661045220252E7 ; 2.01271387158804E8 ; 8.818183110140867E8 ; 1.2640412315043312E10 ; 0.0
72 ; 1.2823486031960154E7 ; 2.0128449890762618E8 ; 8.94641972059307E8 ; 1.2841683702202116E10 ; 0.0
73 ; 1.2820595422266949E7 ; 2.0129762636857182E8 ; 9.074654580912671E8 ; 1.3042968201109743E10 ; 0.0
74 ; 1.2824066426897177E7 ; 2.0131076794923604E8 ; 9.202860535135341E8 ; 1.3244265827478315E10 ; 0.0
75 ; 1.2822427414380765E7 ; 2.013239221244561E8 ; 9.331101199404312E8 ; 1.3445576595427551E10 ; 0.0
76 ; 1.2824677302347763E7 ; 2.0133708743232208E8 ; 9.45932547354812E8 ; 1.3646900517552008E10 ; 0.0
77 ; 1.282257404874783E7 ; 2.0135026247045484E8 ; 9.587572246571598E8 ; 1.384823760498433E10 ; 0.0
78 ; 1.2821241624425385E7 ; 2.0136344589253342E8 ; 9.715797987059076E8 ; 1.4049587867454784E10 ; 0.0
79 ; 1.2817463192240024E7 ; 2.013766364050525E8 ; 9.84401040330333E8 ; 1.4250951313347319E10 ; 0.0
80 ; 1.281572123919135E7 ; 2.013898327642943E8 ; 9.97218503522573E8 ; 1.445232794975237E10 ; 0.0
81 ; 1.2810872246211767E7 ; 2.0140303377349907E8 ; 1.0100342247617643E9 ; 1.4653717782516665E10 ; 0.0
82 ; 1.2807340365506148E7 ; 2.0141623828022018E8 ; 1.022845097007976E9 ; 1.4855120816290163E10 ; 0.0
83 ; 1.2799915193613723E7 ; 2.0142944517385057E8 ; 1.0356524373734822E9 ; 1.5056537054570383E10 ; 0.0
84 ; 1.2800018787528705E7 ; 2.0144265338330838E8 ; 1.048452352567096E9 ; 1.5257966499744234E10 ; 0.0
85 ; 1.2793170846429339E7 ; 2.014558618748707E8 ; 1.0612523713546247E9 ; 1.5459409153127542E10 ; 0.0
86 ; 1.2789494931151599E7 ; 2.0146906965014464E8 ; 1.074045542201054E9 ; 1.5660865015002413E10 ; 0.0
87 ; 1.2783030745508062E7 ; 2.0148227574416685E8 ; 1.0868350371322057E9 ; 1.5862334084652557E10 ; 0.0
88 ; 1.2781150948594805E7 ; 2.014954792236215E8 ; 1.0996180678777137E9 ; 1.6063816360396725E10 ; 0.0
89 ; 1.2777481280129267E7 ; 2.0150867918516955E8 ; 1.1123992188263085E9 ; 1.6265311839620346E10 ; 0.0
90 ; 1.2771813288207803E7 ; 2.015218747538811E8 ; 1.1251767001064377E9 ; 1.6466820518805515E10 ; 0.0
91 ; 1.2764243677607039E7 ; 2.0153506508176368E8 ; 1.1379485133946455E9 ; 1.6668342393559397E10 ; 0.0
92 ; 1.2757081144315895E7 ; 2.0154824934638053E8 ; 1.1507127570722525E9 ; 1.6869877458641161E10 ; 0.0
93 ; 1.2756331072662495E7 ; 2.0156142674955198E8 ; 1.1634698382165685E9 ; 1.7071425707987541E10 ; 0.0
94 ; 1.2748323130397435E7 ; 2.0157459651613513E8 ; 1.176226169289231E9 ; 1.7272987134737095E10 ; 0.0
95 ; 1.2742407375998884E7 ; 2.0158775789287597E8 ; 1.1889744924196284E9 ; 1.747456173125323E10 ; 0.0
96 ; 1.2736321548839647E7 ; 2.016009101473297E8 ; 1.2017168997956274E9 ; 1.7676149489146107E10 ; 0.0
97 ; 1.2730380149498826E7 ; 2.0161405256684408E8 ; 1.214453221344467E9 ; 1.7877750399293438E10 ; 0.0
98 ; 1.2723272694866732E7 ; 2.0162718445760247E8 ; 1.2271836014939659E9 ; 1.8079364451860283E10 ; 0.0
99 ; 1.2719864832539773E7 ; 2.016403051437219E8 ; 1.2399068741888325E9 ; 1.8280991636317886E10 ; 0.0
100 ; 1.2712051130494941E7 ; 2.0165341396640325E8 ; 1.2526267390213723E9 ; 1.848263194146161E10 ; 0.0
101 ; 1.2707414907889431E7 ; 2.016665102831296E8 ; 1.2653387901518672E9 ; 1.8684285355428013E10 ; 0.0
102 ; 1.2701259649717402E7 ; 2.0167959346691042E8 ; 1.2780462050597565E9 ; 1.8885951865711143E10 ; 0.0
103 ; 1.2693176877219118E7 ; 2.0169266290556788E8 ; 1.2907474647094738E9 ; 1.9087631459178055E10 ; 0.0
104 ; 1.2688451387703279E7 ; 2.0170571800106317E8 ; 1.303440641586693E9 ; 1.9289324122083622E10 ; 0.0
105 ; 1.268071594007951E7 ; 2.0171875816886014E8 ; 1.3161290929743962E9 ; 1.9491029840084686E10 ; 0.0
106 ; 1.2671878678688582E7 ; 2.01731782837324E8 ; 1.3288098089144757E9 ; 1.9692748598253548E10 ; 0.0
107 ; 1.2664953697619595E7 ; 2.0174479144715285E8 ; 1.3414816875931642E9 ; 1.989448038109087E10 ; 0.0
108 ; 1.2660070744813964E7 ; 2.017577834508401E8 ; 1.354146641290784E9 ; 2.009622517253802E10 ; 0.0
109 ; 1.2648790246259755E7 ; 2.017707583121657E8 ; 1.3668067120355978E9 ; 2.029798295598886E10 ; 0.0
110 ; 1.2643989441324601E7 ; 2.01783715505715E8 ; 1.3794555022818575E9 ; 2.0499753714301025E10 ; 0.0
111 ; 1.263571770245354E7 ; 2.0179665451642257E8 ; 1.3920994917231822E9 ; 2.070153742980674E10 ; 0.0
112 ; 1.2629726550976878E7 ; 2.018095748391407E8 ; 1.4047352094256358E9 ; 2.0903334084323162E10 ; 0.0
113 ; 1.2618895999111155E7 ; 2.0182247597823015E8 ; 1.4173649359766128E9 ; 2.1105143659162304E10 ; 0.0
114 ; 1.2611416283375788E7 ; 2.0183535744717228E8 ; 1.429983831975724E9 ; 2.1306966135140533E10 ; 0.0
115 ; 1.2603838983282834E7 ; 2.0184821876820147E8 ; 1.4425952482590997E9 ; 2.1508801492587708E10 ; 0.0
116 ; 1.2590880027912892E7 ; 2.0186105947195593E8 ; 1.4551990872423825E9 ; 2.1710649711355907E10 ; 0.0
117 ; 1.2585125643205779E7 ; 2.0187387909714684E8 ; 1.4677899672702954E9 ; 2.191251077082786E10 ; 0.0
118 ; 1.257743222314104E7 ; 2.0188667719024402E8 ; 1.4803750929135013E9 ; 2.2114384649925007E10 ; 0.0
119 ; 1.2572234337725814E7 ; 2.0189945330517742E8 ; 1.4929525251366422E9 ; 2.231627132711525E10 ; 0.0
120 ; 1.256043711687156E7 ; 2.019122070030536E8 ; 1.505524759474368E9 ; 2.2518170780420425E10 ; 0.0
121 ; 1.2548582943545638E7 ; 2.019249378518863E8 ; 1.5180851965912397E9 ; 2.2720082987423477E10 ; 0.0
122 ; 1.2541821862078907E7 ; 2.0193764542634028E8 ; 1.5306337795347853E9 ; 2.2922007925275364E10 ; 0.0
123 ; 1.2532981311453834E7 ; 2.0195032930748785E8 ; 1.5431756013968642E9 ; 2.3123945570701706E10 ; 0.0
124 ; 1.2523103623237781E7 ; 2.019629890825771E8 ; 1.555708582708318E9 ; 2.3325895900009193E10 ; 0.0
125 ; 1.2515828737774035E7 ; 2.0197562434481153E8 ; 1.5682316863315558E9 ; 2.352785888909177E10 ; 0.0
126 ; 1.250372529615868E7 ; 2.0198823469314024E8 ; 1.58074751506933E9 ; 2.372983451343658E10 ; 0.0
127 ; 1.2496353803971814E7 ; 2.0200081973205805E8 ; 1.5932512403654888E9 ; 2.3931822748129723E10 ; 0.0
128 ; 1.2485203863821475E7 ; 2.0201337907141545E8 ; 1.6057475941694605E9 ; 2.4133823567861782E10 ; 0.0
129 ; 1.2475178777938446E7 ; 2.020259123262372E8 ; 1.618232798033282E9 ; 2.4335836946933197E10 ; 0.0
130 ; 1.246379811420215E7 ; 2.020384191165496E8 ; 1.6307079768112204E9 ; 2.4537862859259434E10 ; 0.0
131 ; 1.244866734572234E7 ; 2.0205089906721598E8 ; 1.6431717749254227E9 ; 2.4739901278375984E10 ; 0.0
132 ; 1.2436423483245984E7 ; 2.0206335180777958E8 ; 1.655620442271145E9 ; 2.49419521774432E10 ; 0.0
133 ; 1.2422538811858764E7 ; 2.0207577697231388E8 ; 1.6680568657543912E9 ; 2.514401552925098E10 ; 0.0
134 ; 1.2405225137081498E7 ; 2.020881741992799E8 ; 1.6804794045662498E9 ; 2.5346091306223293E10 ; 0.0
135 ; 1.2391981743530016E7 ; 2.0210054313138968E8 ; 1.6928846297033312E9 ; 2.5548179480422573E10 ; 0.0
136 ; 1.2379812827162076E7 ; 2.0211288341547632E8 ; 1.7052766114468613E9 ; 2.5750280023553963E10 ; 0.0
137 ; 1.2363155947139377E7 ; 2.021251947023698E8 ; 1.7176564242740233E9 ; 2.595239290696944E10 ; 0.0
138 ; 1.2348215568330733E7 ; 2.0213747664677832E8 ; 1.7300195802211626E9 ; 2.615451810167181E10 ; 0.0
139 ; 1.2332958022304114E7 ; 2.0214972890717494E8 ; 1.7423677957894933E9 ; 2.635665557831859E10 ; 0.0
140 ; 1.2319784193150448E7 ; 2.0216195114568952E8 ; 1.7547007538117974E9 ; 2.655880530722576E10 ; 0.0
141 ; 1.2302533784715911E7 ; 2.0217414302800503E8 ; 1.767020538004948E9 ; 2.6760967258371452E10 ; 0.0
142 ; 1.2287284163249753E7 ; 2.021863042232589E8 ; 1.7793230717896638E9 ; 2.6963141401399456E10 ; 0.0
143 ; 1.227233934221864E7 ; 2.0219843440394837E8 ; 1.7916103559529135E9 ; 2.7165327705622715E10 ; 0.0
144 ; 1.2258542290135289E7 ; 2.0221053324584E8 ; 1.8038826952951322E9 ; 2.7367526140026665E10 ; 0.0
145 ; 1.224712723064429E7 ; 2.0222260042788345E8 ; 1.8161412375852675E9 ; 2.7569736673272503E10 ; 0.0
146 ; 1.2234143901360141E7 ; 2.0223463563212842E8 ; 1.8283883648159118E9 ; 2.7771959273700386E10 ; 0.0
147 ; 1.2224635959370282E7 ; 2.0224663854364583E8 ; 1.8406225087172718E9 ; 2.7974193909332516E10 ; 0.0
148 ; 1.2212066785220496E7 ; 2.0225860885045183E8 ; 1.8528471446766422E9 ; 2.817644054787616E10 ; 0.0
149 ; 1.220198155495251E7 ; 2.0227054624343532E8 ; 1.8650592114618626E9 ; 2.8378699156726612E10 ; 0.0
150 ; 1.2190666735081038E7 ; 2.0228245041628864E8 ; 1.8772611930168152E9 ; 2.8580969702970047E10 ; 0.0
151 ; 1.2180884295563556E7 ; 2.0229432106544092E8 ; 1.8894518597518961E9 ; 2.8783252153386337E10 ; 0.0
152 ; 1.2168692726901406E7 ; 2.023061578899945E8 ; 1.9016327440474596E9 ; 2.898554647445178E10 ; 0.0
153 ; 1.2159204567880938E7 ; 2.0231796059166393E8 ; 1.913801436774361E9 ; 2.9187852632341774E10 ; 0.0
154 ; 1.2145659298948174E7 ; 2.0232972887471744E8 ; 1.9259606413422418E9 ; 2.9390170592933437E10 ; 0.0
155 ; 1.2133380255102083E7 ; 2.0234146244592103E8 ; 1.93810630064119E9 ; 2.9592500321808155E10 ; 0.0
156 ; 1.2122962961940149E7 ; 2.023531610144848E8 ; 1.9502396808962922E9 ; 2.9794841784254078E10 ; 0.0
157 ; 1.2109916835132906E7 ; 2.0236482429201135E8 ; 1.9623626438582323E9 ; 2.9997194945268562E10 ; 0.0
158 ; 1.2099237607073663E7 ; 2.0237645199244672E8 ; 1.974472560693365E9 ; 3.0199559769560574E10 ; 0.0
159 ; 1.2089239876670724E7 ; 2.023880438320329E8 ; 1.9865717983004386E9 ; 3.040193622155302E10 ; 0.0
160 ; 1.2076587381695643E7 ; 2.0239959952926245E8 ; 1.9986610381771095E9 ; 3.060432426538505E10 ; 0.0
161 ; 1.206439079244855E7 ; 2.024111188048353E8 ; 2.0107376255588052E9 ; 3.0806723864914314E10 ; 0.0
162 ; 1.2049145031593699E7 ; 2.0242260138161665E8 ; 2.0228020163512537E9 ; 3.100913498371915E10 ; 0.0
163 ; 1.2040945912988909E7 ; 2.0243404698459727E8 ; 2.0348511613828475E9 ; 3.121155758510077E10 ; 0.0
164 ; 1.2029242785566771E7 ; 2.0244545534085494E8 ; 2.0468921072958364E9 ; 3.1413991632085365E10 ; 0.0
165 ; 1.2015221132114893E7 ; 2.0245682617951772E8 ; 2.0589213500814033E9 ; 3.161643708742622E10 ; 0.0
166 ; 1.2005160597482286E7 ; 2.0246815923172843E8 ; 2.0709365712135181E9 ; 3.1818893913605736E10 ; 0.0
167 ; 1.199549803370087E7 ; 2.0247945423061097E8 ; 2.0829417318110003E9 ; 3.2021362072837463E10 ; 0.0
168 ; 1.1979361532149466E7 ; 2.024907109112376E8 ; 2.0949372298447013E9 ; 3.2223841527068073E10 ; 0.0
169 ; 1.1965202336191338E7 ; 2.0250192901059774E8 ; 2.1069165913768508E9 ; 3.242633223797931E10 ; 0.0
170 ; 1.1956829377165709E7 ; 2.0251310826756793E8 ; 2.1188817937130423E9 ; 3.2628834166989906E10 ; 0.0
171 ; 1.1945851908681585E7 ; 2.0252424842288318E8 ; 2.130838623090208E9 ; 3.2831347275257473E10 ; 0.0
172 ; 1.1932841606949117E7 ; 2.0253534921910912E8 ; 2.1427844749988897E9 ; 3.3033871523680355E10 ; 0.0
173 ; 1.1920210007773656E7 ; 2.0254641040061563E8 ; 2.154717316605839E9 ; 3.3236406872899464E10 ; 0.0
174 ; 1.1914831116301453E7 ; 2.0255743171355125E8 ; 2.1666375266136127E9 ; 3.343895328330008E10 ; 0.0
175 ; 1.1903751551747568E7 ; 2.0256841290581882E8 ; 2.178552357729914E9 ; 3.364151071501363E10 ; 0.0
176 ; 1.1898675734096121E7 ; 2.025793537270518E8 ; 2.190456109281662E9 ; 3.384407912791945E10 ; 0.0
177 ; 1.1891942121176133E7 ; 2.0259025392859188E8 ; 2.202354785015758E9 ; 3.40466584816465E10 ; 0.0
178 ; 1.1884077267353173E7 ; 2.026011132634673E8 ; 2.2142467271369343E9 ; 3.4249248735575092E10 ; 0.0
179 ; 1.1875298886104563E7 ; 2.02611931486372E8 ; 2.2261308044042873E9 ; 3.445184984883856E10 ; 0.0
180 ; 1.18689128158473E7 ; 2.0262270835364547E8 ; 2.238006103290392E9 ; 3.4654461780324936E10 ; 0.0
181 ; 1.1859783149320798E7 ; 2.0263344362325394E8 ; 2.2498750161062393E9 ; 3.485708448867858E10 ; 0.0
182 ; 1.1853361968171697E7 ; 2.026441370547716E8 ; 2.26173479925556E9 ; 3.5059717932301834E10 ; 0.0
183 ; 1.1846306002560973E7 ; 2.0265478840936312E8 ; 2.2735881612237315E9 ; 3.5262362069356606E10 ; 0.0
184 ; 1.1840887544926722E7 ; 2.0266539744976652E8 ; 2.2854344672262926E9 ; 3.546501685776597E10 ; 0.0
185 ; 1.1833682408666966E7 ; 2.0267596394027695E8 ; 2.2972753547712193E9 ; 3.566768225521574E10 ; 0.0
186 ; 1.1824436125515508E7 ; 2.026864876467309E8 ; 2.3091090371798863E9 ; 3.587035821915601E10 ; 0.0
187 ; 1.1817370171622692E7 ; 2.0269696833649132E8 ; 2.320933473305402E9 ; 3.607304470680274E10 ; 0.0
188 ; 1.1810204373911869E7 ; 2.0270740577843302E8 ; 2.3327508434770246E9 ; 3.627574167513924E10 ; 0.0
189 ; 1.1803612168725943E7 ; 2.0271779974292883E8 ; 2.3445610478509364E9 ; 3.647844908091767E10 ; 0.0
190 ; 1.1795667353434483E7 ; 2.027281500018364E8 ; 2.3563646600196624E9 ; 3.66811668806606E10 ; 0.0
191 ; 1.1790687969760824E7 ; 2.0273845632848513E8 ; 2.368160327373097E9 ; 3.688389503066244E10 ; 0.0
192 ; 1.1781436402779428E7 ; 2.027487184976643E8 ; 2.379951015342858E9 ; 3.708663348699092E10 ; 0.0
193 ; 1.1773460479507515E7 ; 2.027589362856109E8 ; 2.3917324517456374E9 ; 3.728938220548859E10 ; 0.0
194 ; 1.1769385902622867E7 ; 2.027691094699986E8 ; 2.403505912225145E9 ; 3.74921411417742E10 ; 0.0
195 ; 1.1758793423942376E7 ; 2.027792378299267E8 ; 2.4152752981277676E9 ; 3.76949102512442E10 ; 0.0
