CSV File for the City 2 on Day 220
1 - Minute m 
2 - Power Consumed at minute m 
3 - Power Produced at minute m 
4 - Energy Consumed since the beginning of the day 
5 - Energy Produced since the beginning of the day 
6 - Energy Lost since the beginning of the day on lines starting from the city
 
0 ; 123204.71519060977 ; 1.0518980468119654E8 ; 0.0 ; 0.0 ; 0.0
1 ; 125195.22120485347 ; 1.05343437800892E8 ; 123204.71519060977 ; 1.0518980468119654E8 ; 0.0
2 ; 126891.13960881741 ; 1.0580577038596651E8 ; 248399.93639546324 ; 2.1053324248208854E8 ; 0.0
3 ; 129496.01547155701 ; 1.0657680657732725E8 ; 375291.07600428065 ; 3.1633901286805505E8 ; 0.0
4 ; 131249.25715068303 ; 1.0765655045312625E8 ; 504787.09147583763 ; 4.229158194453823E8 ; 0.0
5 ; 136354.04167075007 ; 1.0904500592057478E8 ; 636036.3486265207 ; 5.3057236989850855E8 ; 0.0
6 ; 141138.9403310349 ; 1.1074217659448382E8 ; 772390.3902972708 ; 6.396173758190833E8 ; 0.0
7 ; 147627.56694654602 ; 1.1274806566882968E8 ; 913529.3306283057 ; 7.503595524135672E8 ; 0.0
8 ; 157379.89529747935 ; 1.1506267579004502E8 ; 1061156.8975748518 ; 8.631076180823969E8 ; 0.0
9 ; 171497.8977193242 ; 1.1768600894240385E8 ; 1218536.792872331 ; 9.781702938724419E8 ; 0.0
10 ; 191955.89904793052 ; 1.2061806635625446E8 ; 1390034.6905916552 ; 1.0958563028148458E9 ; 0.0
11 ; 227121.92911225665 ; 1.2385884844857672E8 ; 1581990.5896395857 ; 1.2164743691711001E9 ; 0.0
12 ; 282059.53966294206 ; 1.2740835480239072E8 ; 1809112.5187518424 ; 1.3403332176196768E9 ; 0.0
13 ; 334133.42459348537 ; 1.3126658418734819E8 ; 2091172.0584147845 ; 1.4677415724220676E9 ; 0.0
14 ; 339437.236759385 ; 1.354335346191752E8 ; 2425305.4830082697 ; 1.5990081566094158E9 ; 0.0
15 ; 343021.25574917893 ; 1.3990920345143896E8 ; 2764742.719767655 ; 1.734441691228591E9 ; 0.0
16 ; 345822.1809477247 ; 1.446935874901633E8 ; 3107763.975516834 ; 1.8743508946800299E9 ; 0.0
17 ; 347486.74890755414 ; 1.4978668312053713E8 ; 3453586.1564645586 ; 2.0190444821701932E9 ; 0.0
18 ; 351109.6691436289 ; 1.5518848643534923E8 ; 3801072.9053721125 ; 2.1688311652907305E9 ; 0.0
19 ; 353802.20439950255 ; 1.6089899335644755E8 ; 4152182.5745157413 ; 2.32401965172608E9 ; 0.0
20 ; 357706.2940230093 ; 1.669181997429249E8 ; 4505984.778915244 ; 2.4849186450825276E9 ; 0.0
21 ; 359285.2221732631 ; 1.7324610148230353E8 ; 4863691.072938253 ; 2.6518368448254523E9 ; 0.0
22 ; 362123.66779092787 ; 1.7988269456330156E8 ; 5222976.2951115165 ; 2.825082946307756E9 ; 0.0
23 ; 365732.0272153762 ; 1.8682797513057637E8 ; 5585099.962902444 ; 3.0049656408710575E9 ; 0.0
24 ; 368223.3167792089 ; 1.9408193952306157E8 ; 5950831.990117821 ; 3.1917936160016336E9 ; 0.0
25 ; 370912.16234578186 ; 2.0033262519638592E8 ; 6319055.30689703 ; 3.3858755555246954E9 ; 0.0
26 ; 373886.8013772458 ; 2.0033357677246022E8 ; 6689967.469242812 ; 3.5862081807210813E9 ; 0.0
27 ; 376197.43005922326 ; 2.0033456056803715E8 ; 7063854.270620058 ; 3.7865417574935417E9 ; 0.0
28 ; 378957.1857340781 ; 2.0033557383837873E8 ; 7440051.700679282 ; 3.9868763180615788E9 ; 0.0
29 ; 382611.9692806605 ; 2.0033661406258252E8 ; 7819008.88641336 ; 4.1872118918999577E9 ; 0.0
30 ; 385399.2802220584 ; 2.003376789324416E8 ; 8201620.85569402 ; 4.387548505962541E9 ; 0.0
31 ; 387367.8150620346 ; 2.0033876633933848E8 ; 8587020.135916078 ; 4.587886184894982E9 ; 0.0
32 ; 390251.8386385835 ; 2.003398743601284E8 ; 8974387.950978113 ; 4.788224951234321E9 ; 0.0
33 ; 393225.06731703435 ; 2.003410012427136E8 ; 9364639.789616697 ; 4.988564825594449E9 ; 0.0
34 ; 395239.7107353612 ; 2.0034214539180595E8 ; 9757864.856933732 ; 5.188905826837163E9 ; 0.0
35 ; 398255.1353119667 ; 2.0034330535521415E8 ; 1.0153104567669094E7 ; 5.389247972228969E9 ; 0.0
36 ; 400411.1008782466 ; 2.00344479810869E8 ; 1.055135970298106E7 ; 5.589591277584183E9 ; 0.0
37 ; 402753.68713929976 ; 2.0034566755471E8 ; 1.0951770803859306E7 ; 5.789935757395052E9 ; 0.0
38 ; 404505.43404487765 ; 2.003468674894892E8 ; 1.1354524490998607E7 ; 5.990281424949762E9 ; 0.0
39 ; 406221.8934739509 ; 2.0034807861450383E8 ; 1.1759029925043484E7 ; 6.190628292439252E9 ; 0.0
40 ; 410720.19086816977 ; 2.003493000162363E8 ; 1.2165251818517435E7 ; 6.390976371053756E9 ; 0.0
41 ; 411431.7002858804 ; 2.003505308598608E8 ; 1.2575972009385604E7 ; 6.591325671069992E9 ; 0.0
42 ; 413616.7673029734 ; 2.0035177038156348E8 ; 1.2987403709671484E7 ; 6.7916762019298525E9 ; 0.0
43 ; 414862.8502381031 ; 2.0035301788161653E8 ; 1.3401020476974458E7 ; 6.992027972311416E9 ; 0.0
44 ; 416029.183948868 ; 2.003542727181447E8 ; 1.381588332721256E7 ; 7.192380990193032E9 ; 0.0
45 ; 419599.31704320427 ; 2.0035553430152252E8 ; 1.423191251116143E7 ; 7.392735262911177E9 ; 0.0
46 ; 420116.13607990724 ; 2.0035680208934355E8 ; 1.4651511828204634E7 ; 7.593090797212699E9 ; 0.0
47 ; 421918.6482839082 ; 2.0035807558190563E8 ; 1.5071627964284541E7 ; 7.793447599302042E9 ; 0.0
48 ; 423675.37281806936 ; 2.003593543181601E8 ; 1.549354661256845E7 ; 7.993805674883947E9 ; 0.0
49 ; 425490.8017765695 ; 2.0036063787207764E8 ; 1.5917221985386519E7 ; 8.194165029202107E9 ; 0.0
50 ; 425611.61331925675 ; 2.003619258493869E8 ; 1.6342712787163088E7 ; 8.394525667074185E9 ; 0.0
51 ; 427723.9033647252 ; 2.0036321788464674E8 ; 1.6768324400482345E7 ; 8.594887592923573E9 ; 0.0
52 ; 428386.2046499456 ; 2.0036451363861647E8 ; 1.719604830384707E7 ; 8.79525081080822E9 ; 0.0
53 ; 429212.48033988045 ; 2.003658127958922E8 ; 1.7624434508497015E7 ; 8.995615324446836E9 ; 0.0
54 ; 430745.54121168895 ; 2.0036711506278095E8 ; 1.8053646988836896E7 ; 9.19598113724273E9 ; 0.0
55 ; 431922.5956390393 ; 2.003684201653867E8 ; 1.8484392530048586E7 ; 9.39634825230551E9 ; 0.0
56 ; 432623.0321163567 ; 2.0036972784788635E8 ; 1.8916315125687625E7 ; 9.596716672470896E9 ; 0.0
57 ; 434198.0268539543 ; 2.0037103787097424E8 ; 1.9348938157803982E7 ; 9.797086400318783E9 ; 0.0
58 ; 434227.5905491474 ; 2.0037235001045862E8 ; 1.9783136184657935E7 ; 9.997457438189756E9 ; 0.0
59 ; 437338.48598768946 ; 2.0037366405599293E8 ; 2.0217363775207084E7 ; 1.0197829788200214E10 ; 0.0
60 ; 437380.4168631658 ; 2.0037497980992827E8 ; 2.0654702261194773E7 ; 1.0398203452256207E10 ; 0.0
61 ; 438254.279288023 ; 2.0037629708627415E8 ; 2.109208267805794E7 ; 1.0598578432066135E10 ; 0.0
62 ; 440427.0909261417 ; 2.0037761570975664E8 ; 2.1530336957345963E7 ; 1.0798954729152409E10 ; 0.0
63 ; 440392.5414310617 ; 2.0037893551496333E8 ; 2.1970764048272103E7 ; 1.0999332344862165E10 ; 0.0
64 ; 441576.57965655986 ; 2.003802563455667E8 ; 2.2411156589703165E7 ; 1.1199711280377129E10 ; 0.0
65 ; 442954.2805714952 ; 2.0038157805361792E8 ; 2.2852733169359725E7 ; 1.1400091536722694E10 ; 0.0
66 ; 443804.89089651336 ; 2.003829004989037E8 ; 2.329568744993122E7 ; 1.1600473114776312E10 ; 0.0
67 ; 444866.1304034788 ; 2.0038422354836014E8 ; 2.3739492340827733E7 ; 1.1800856015275215E10 ; 0.0
68 ; 445754.4193726103 ; 2.003855470755381E8 ; 2.418435847123121E7 ; 1.2001240238823576E10 ; 0.0
69 ; 447321.0711194895 ; 2.0038687096011475E8 ; 2.463011289060382E7 ; 1.2201625785899115E10 ; 0.0
70 ; 448100.23266224004 ; 2.0038819508744693E8 ; 2.5077433961723313E7 ; 1.240201265685923E10 ; 0.0
71 ; 448714.27834933554 ; 2.0038951934816262E8 ; 2.552553419438555E7 ; 1.2602400851946676E10 ; 0.0
72 ; 448968.27564636694 ; 2.0039084363778633E8 ; 2.5974248472734887E7 ; 1.2802790371294838E10 ; 0.0
73 ; 450986.2684670424 ; 2.0039216785639572E8 ; 2.6423216748381253E7 ; 1.3003181214932625E10 ; 0.0
74 ; 451949.5686979227 ; 2.0039349190830636E8 ; 2.6874203016848296E7 ; 1.320357338278902E10 ; 0.0
75 ; 452420.9004511173 ; 2.0039481570178202E8 ; 2.7326152585546218E7 ; 1.3403966874697327E10 ; 0.0
76 ; 453277.80898743274 ; 2.003961391487682E8 ; 2.7778573485997334E7 ; 1.3604361690399109E10 ; 0.0
77 ; 454368.1508523366 ; 2.0039746216464674E8 ; 2.8231851294984765E7 ; 1.3804757829547876E10 ; 0.0
78 ; 453521.125282395 ; 2.0039878466800985E8 ; 2.8686219445837103E7 ; 1.4005155291712523E10 ; 0.0
79 ; 454848.4296515596 ; 2.0040010658045143E8 ; 2.91397405711195E7 ; 1.4205554076380533E10 ; 0.0
80 ; 453959.580017853 ; 2.0040142782637465E8 ; 2.9594589000771057E7 ; 1.4405954182960985E10 ; 0.0
81 ; 453643.25832209503 ; 2.0040274833281395E8 ; 3.004854858078891E7 ; 1.460635561078736E10 ; 0.0
82 ; 454205.3051491237 ; 2.004040680292706E8 ; 3.0502191839111004E7 ; 1.4806758359120173E10 ; 0.0
83 ; 455527.7675997338 ; 2.004053868475603E8 ; 3.0956397144260127E7 ; 1.5007162427149443E10 ; 0.0
84 ; 454838.02341940545 ; 2.0040670472167218E8 ; 3.1411924911859863E7 ; 1.5207567813997004E10 ; 0.0
85 ; 455382.3135229385 ; 2.0040802158763793E8 ; 3.186676293527927E7 ; 1.5407974518718676E10 ; 0.0
86 ; 455996.37581115105 ; 2.004093373834104E8 ; 3.2322145248802207E7 ; 1.5608382540306314E10 ; 0.0
87 ; 454576.92783594277 ; 2.0041065204875088E8 ; 3.277814162461336E7 ; 1.5808791877689724E10 ; 0.0
88 ; 454597.4963455945 ; 2.0041196552512437E8 ; 3.32327185524493E7 ; 1.6009202529738476E10 ; 0.0
89 ; 454719.34162887716 ; 2.004132777556021E8 ; 3.3687316048794895E7 ; 1.62096144952636E10 ; 0.0
90 ; 456155.52195106714 ; 2.0041458868477076E8 ; 3.4142035390423775E7 ; 1.6410027773019201E10 ; 0.0
91 ; 456208.4173025845 ; 2.0041589825864816E8 ; 3.459819091237484E7 ; 1.6610442361703972E10 ; 0.0
92 ; 455470.66139832506 ; 2.0041720642460436E8 ; 3.5054399329677425E7 ; 1.681085825996262E10 ; 0.0
93 ; 454776.5142693318 ; 2.0041851313128823E8 ; 3.550986999107575E7 ; 1.7011275466387224E10 ; 0.0
94 ; 455487.2820784953 ; 2.0041981832855892E8 ; 3.596464650534508E7 ; 1.7211693979518513E10 ; 0.0
95 ; 454015.4561101503 ; 2.004211219674218E8 ; 3.642013378742357E7 ; 1.7412113797847073E10 ; 0.0
96 ; 455112.3745940955 ; 2.004224239999685E8 ; 3.687414924353372E7 ; 1.7612534919814495E10 ; 0.0
97 ; 454500.3284730823 ; 2.004237243793211E8 ; 3.7329261618127815E7 ; 1.7812957343814465E10 ; 0.0
98 ; 456224.6911344403 ; 2.004250230595795E8 ; 3.77837619466009E7 ; 1.8013381068193787E10 ; 0.0
99 ; 454454.24542890134 ; 2.004263199957725E8 ; 3.823998663773534E7 ; 1.8213806091253365E10 ; 0.0
100 ; 454510.9185455983 ; 2.0042761514381182E8 ; 3.869444088316424E7 ; 1.8414232411249138E10 ; 0.0
101 ; 454516.2772980632 ; 2.0042890846044886E8 ; 3.914895180170984E7 ; 1.861466002639295E10 ; 0.0
102 ; 453839.93245426816 ; 2.0043019990323433E8 ; 3.96034680790079E7 ; 1.8815088934853397E10 ; 0.0
103 ; 454385.25932446326 ; 2.004314894304803E8 ; 4.005730801146217E7 ; 1.901551913475663E10 ; 0.0
104 ; 454539.37157303886 ; 2.0043277700122443E8 ; 4.051169327078663E7 ; 1.921595062418711E10 ; 0.0
105 ; 454336.5964103321 ; 2.0043406257519662E8 ; 4.096623264235967E7 ; 1.9416383401188335E10 ; 0.0
106 ; 454229.07689282345 ; 2.0043534611278737E8 ; 4.142056923877E7 ; 1.961681746376353E10 ; 0.0
107 ; 452863.01639957965 ; 2.0043662757501808E8 ; 4.187479831566282E7 ; 1.981725280987632E10 ; 0.0
108 ; 454273.68785098713 ; 2.0043790692351338E8 ; 4.23276613320624E7 ; 2.001768943745134E10 ; 0.0
109 ; 452773.4920340172 ; 2.004391841204746E8 ; 4.278193501991339E7 ; 2.021812734437485E10 ; 0.0
110 ; 453047.32188747596 ; 2.0044045912865517E8 ; 4.323470851194741E7 ; 2.0418566528495327E10 ; 0.0
111 ; 453373.8317004062 ; 2.004417319113372E8 ; 4.368775583383489E7 ; 2.061900698762398E10 ; 0.0
112 ; 452487.6175840748 ; 2.0044300243230957E8 ; 4.414112966553529E7 ; 2.081944871953532E10 ; 0.0
113 ; 452819.3926002422 ; 2.0044427065584704E8 ; 4.4593617283119366E7 ; 2.101989172196763E10 ; 0.0
114 ; 452270.60609083617 ; 2.004455365466908E8 ; 4.504643667571961E7 ; 2.1220335992623474E10 ; 0.0
115 ; 451725.6817847717 ; 2.0044680007002977E8 ; 4.549870728181045E7 ; 2.1420781529170166E10 ; 0.0
116 ; 451831.7950411147 ; 2.004480611914833E8 ; 4.595043296359522E7 ; 2.1621228329240196E10 ; 0.0
117 ; 451366.51109915593 ; 2.0044931987708458E8 ; 4.640226475863633E7 ; 2.182167639043168E10 ; 0.0
118 ; 450700.49477671273 ; 2.0045057609326497E8 ; 4.6853631269735485E7 ; 2.202212571030876E10 ; 0.0
119 ; 450733.06085292634 ; 2.0045182980683926E8 ; 4.7304331764512196E7 ; 2.2222576286402027E10 ; 0.0
120 ; 449378.21337197936 ; 2.004530809849917E8 ; 4.7755064825365126E7 ; 2.2423028116208866E10 ; 0.0
121 ; 449460.2880733903 ; 2.004543295952627E8 ; 4.82044430387371E7 ; 2.262348119719386E10 ; 0.0
122 ; 448953.7147805536 ; 2.0045557560553643E8 ; 4.8653903326810494E7 ; 2.2823935526789124E10 ; 0.0
123 ; 448095.87705042196 ; 2.0045681898402873E8 ; 4.910285704159105E7 ; 2.302439110239466E10 ; 0.0
124 ; 448516.34118146554 ; 2.0045805969927606E8 ; 4.955095291864147E7 ; 2.322484792137869E10 ; 0.0
125 ; 447809.94049601763 ; 2.0045929772012475E8 ; 4.9999469259822935E7 ; 2.3425305981077965E10 ; 0.0
126 ; 448259.03785016085 ; 2.0046053301572084E8 ; 5.0447279200318955E7 ; 2.3625765278798088E10 ; 0.0
127 ; 446977.37468376796 ; 2.0046176555550054E8 ; 5.089553823816912E7 ; 2.382622581181381E10 ; 0.0
128 ; 446861.97300042043 ; 2.0046299530918112E8 ; 5.134251561285289E7 ; 2.402668757736931E10 ; 0.0
129 ; 445666.95641168876 ; 2.004642222467523E8 ; 5.178937758585331E7 ; 2.422715057267849E10 ; 0.0
130 ; 444619.0200489473 ; 2.004654463384679E8 ; 5.2235044542265E7 ; 2.4427614794925243E10 ; 0.0
131 ; 444170.12727349065 ; 2.0046666755483827E8 ; 5.2679663562313944E7 ; 2.462808024126371E10 ; 0.0
132 ; 443019.86590572697 ; 2.0046788586662272E8 ; 5.312383368958744E7 ; 2.482854690881855E10 ; 0.0
133 ; 441917.23753292544 ; 2.004691012448225E8 ; 5.356685355549316E7 ; 2.5029014794685173E10 ; 0.0
134 ; 440574.6543816315 ; 2.0047031366067424E8 ; 5.400877079302609E7 ; 2.5229483895929996E10 ; 0.0
135 ; 440146.6146620534 ; 2.004715230856434E8 ; 5.444934544740772E7 ; 2.542995420959067E10 ; 0.0
136 ; 437669.2975381359 ; 2.0047272949141845E8 ; 5.488949206206977E7 ; 2.5630425732676315E10 ; 0.0
137 ; 437225.21632730094 ; 2.0047393284990492E8 ; 5.532716135960791E7 ; 2.5830898462167732E10 ; 0.0
138 ; 434845.5401872606 ; 2.0047513313322002E8 ; 5.5764386575935215E7 ; 2.6031372395017635E10 ; 0.0
139 ; 434375.1168989546 ; 2.0047633031368744E8 ; 5.619923211612248E7 ; 2.6231847528150856E10 ; 0.0
140 ; 431601.5689435979 ; 2.0047752436383244E8 ; 5.663360723302143E7 ; 2.6432323858464542E10 ; 0.0
141 ; 431749.78386467556 ; 2.0047871525637704E8 ; 5.706520880196503E7 ; 2.6632801382828373E10 ; 0.0
142 ; 431127.10275645775 ; 2.004799029642356E8 ; 5.7496958585829705E7 ; 2.683328009808475E10 ; 0.0
143 ; 428331.24966989073 ; 2.004810874605105E8 ; 5.792808568858616E7 ; 2.703376000104899E10 ; 0.0
144 ; 426549.6600873292 ; 2.0048226871848807E8 ; 5.835641693825605E7 ; 2.72342410885095E10 ; 0.0
145 ; 427252.71181925584 ; 2.0048344671163484E8 ; 5.878296659834338E7 ; 2.7434723357227985E10 ; 0.0
146 ; 425850.6261777685 ; 2.0048462141359368E8 ; 5.921021931016263E7 ; 2.763520680393962E10 ; 0.0
147 ; 426008.44153661287 ; 2.0048579279818034E8 ; 5.96360699363404E7 ; 2.7835691425353214E10 ; 0.0
148 ; 425623.92825276 ; 2.004869608393801E8 ; 6.006207837787701E7 ; 2.8036177218151394E10 ; 0.0
149 ; 425683.8686206451 ; 2.0048812551134458E8 ; 6.048770230612977E7 ; 2.8236664178990772E10 ; 0.0
150 ; 424423.16955639276 ; 2.004892867883888E8 ; 6.091338617475041E7 ; 2.8437152304502117E10 ; 0.0
151 ; 425014.73604752705 ; 2.0049044464498794E8 ; 6.1337809344306804E7 ; 2.8637641591290504E10 ; 0.0
152 ; 423349.2238200904 ; 2.0049159905577505E8 ; 6.176282408035433E7 ; 2.8838132035935493E10 ; 0.0
153 ; 422131.7431359852 ; 2.00492749995538E8 ; 6.218617330417442E7 ; 2.903862363499127E10 ; 0.0
154 ; 423268.6672133442 ; 2.004938974392172E8 ; 6.260830504731041E7 ; 2.9239116384986805E10 ; 0.0
155 ; 421529.4084878367 ; 2.0049504136190316E8 ; 6.3031573714523755E7 ; 2.943961028242602E10 ; 0.0
156 ; 420851.5265430466 ; 2.0049618173883405E8 ; 6.345310312301159E7 ; 2.9640105323787926E10 ; 0.0
157 ; 419216.0298034355 ; 2.004973185453938E8 ; 6.387395464955463E7 ; 2.984060150552676E10 ; 0.0
158 ; 419823.00211396103 ; 2.0049845175710976E8 ; 6.4293170679358065E7 ; 3.0041098824072155E10 ; 0.0
159 ; 419738.82078374113 ; 2.0049958134965092E8 ; 6.4712993681472026E7 ; 3.0241597275829266E10 ; 0.0
160 ; 418607.4198834044 ; 2.005007072988258E8 ; 6.513273250225577E7 ; 3.0442096857178917E10 ; 0.0
161 ; 418745.2156701235 ; 2.0050182958058092E8 ; 6.5551339922139175E7 ; 3.064259756447774E10 ; 0.0
162 ; 417685.5748940627 ; 2.0050294817099884E8 ; 6.59700851378093E7 ; 3.0843099394058323E10 ; 0.0
163 ; 418130.7824366677 ; 2.005040630462967E8 ; 6.638777071270336E7 ; 3.104360234222932E10 ; 0.0
164 ; 417102.6226327346 ; 2.0050517418282446E8 ; 6.680590149514003E7 ; 3.1244106405275616E10 ; 0.0
165 ; 415926.2043826634 ; 2.0050628155706373E8 ; 6.722300411777277E7 ; 3.144461157945844E10 ; 0.0
166 ; 415963.6509282924 ; 2.0050738514562598E8 ; 6.763893032215543E7 ; 3.1645117861015503E10 ; 0.0
167 ; 415151.65339730546 ; 2.0050848492525145E8 ; 6.805489397308372E7 ; 3.184562524616113E10 ; 0.0
168 ; 414950.91999889776 ; 2.005095808728078E8 ; 6.847004562648103E7 ; 3.204613373108638E10 ; 0.0
169 ; 414501.25062204734 ; 2.0051067296528885E8 ; 6.888499654647993E7 ; 3.2246643311959187E10 ; 0.0
170 ; 413337.5183403961 ; 2.0051176117981339E8 ; 6.929949779710197E7 ; 3.2447153984924477E10 ; 0.0
171 ; 412433.7604610453 ; 2.0051284549362418E8 ; 6.971283531544237E7 ; 3.264766574610429E10 ; 0.0
172 ; 412043.71991437295 ; 2.0051392588408682E8 ; 7.012526907590342E7 ; 3.2848178591597916E10 ; 0.0
173 ; 412496.5472647624 ; 2.0051500232868865E8 ; 7.053731279581779E7 ; 3.3048692517482002E10 ; 0.0
174 ; 412202.72634125873 ; 2.0051607480503803E8 ; 7.094980934308256E7 ; 3.324920751981069E10 ; 0.0
175 ; 411761.27784163575 ; 2.005171432908632E8 ; 7.136201206942382E7 ; 3.344972359461573E10 ; 0.0
176 ; 411046.70858909795 ; 2.0051820776401147E8 ; 7.177377334726547E7 ; 3.3650240737906593E10 ; 0.0
177 ; 411914.31102331926 ; 2.0051926820244855E8 ; 7.218482005585456E7 ; 3.3850758945670605E10 ; 0.0
178 ; 410607.019426961 ; 2.0052032458425754E8 ; 7.259673436687788E7 ; 3.4051278213873055E10 ; 0.0
179 ; 409592.214589045 ; 2.0052137688763836E8 ; 7.300734138630484E7 ; 3.4251798538457314E10 ; 0.0
180 ; 409771.44984031166 ; 2.0052242509090695E8 ; 7.341693360089388E7 ; 3.4452319915344955E10 ; 0.0
181 ; 409166.1309889664 ; 2.005234691724946E8 ; 7.382670505073419E7 ; 3.465284234043586E10 ; 0.0
182 ; 409573.077023915 ; 2.0052450911094737E8 ; 7.423587118172316E7 ; 3.485336580960835E10 ; 0.0
183 ; 408392.3617210011 ; 2.005255448849255E8 ; 7.464544425874707E7 ; 3.50538903187193E10 ; 0.0
184 ; 409024.52153870976 ; 2.005265764732028E8 ; 7.505383662046807E7 ; 3.5254415863604225E10 ; 0.0
185 ; 407297.67177894287 ; 2.0052760385466602E8 ; 7.546286114200677E7 ; 3.545494244007743E10 ; 0.0
186 ; 407092.28395971324 ; 2.005286270083146E8 ; 7.587015881378572E7 ; 3.56554700439321E10 ; 0.0
187 ; 406298.03714918875 ; 2.0052964591325986E8 ; 7.627725109774543E7 ; 3.5855998670940414E10 ; 0.0
188 ; 406421.6912180892 ; 2.005306605487248E8 ; 7.668354913489462E7 ; 3.6056528316853676E10 ; 0.0
189 ; 406364.5931110075 ; 2.005316708940436E8 ; 7.708997082611272E7 ; 3.62570589774024E10 ; 0.0
190 ; 407137.2330791208 ; 2.005326769286611E8 ; 7.749633541922373E7 ; 3.645759064829644E10 ; 0.0
191 ; 405227.7420306188 ; 2.0053367863213262E8 ; 7.790347265230285E7 ; 3.66581233252251E10 ; 0.0
192 ; 406511.7821074233 ; 2.0053467598412344E8 ; 7.830870039433347E7 ; 3.685865700385723E10 ; 0.0
193 ; 404773.334310106 ; 2.005356689644085E8 ; 7.87152121764409E7 ; 3.7059191679841354E10 ; 0.0
194 ; 403712.470892538 ; 2.0053665755287218E8 ; 7.9119985510751E7 ; 3.725972734880576E10 ; 0.0
195 ; 404270.27750178333 ; 2.0053764172950786E8 ; 7.952369798164353E7 ; 3.7460264006358635E10 ; 0.0
196 ; 403379.2694245305 ; 2.0053862147441778E8 ; 7.99279682591453E7 ; 3.766080164808814E10 ; 0.0
197 ; 403933.90453193954 ; 2.0053959676781264E8 ; 8.033134752856983E7 ; 3.786134026956256E10 ; 0.0
198 ; 402881.83318609925 ; 2.0054056759001154E8 ; 8.073528143310177E7 ; 3.8061879866330376E10 ; 0.0
199 ; 402671.4884773304 ; 2.0054153392144153E8 ; 8.113816326628788E7 ; 3.826242043392039E10 ; 0.0
200 ; 403110.0590968105 ; 2.0054249574263763E8 ; 8.154083475476521E7 ; 3.846296196784183E10 ; 0.0
201 ; 401818.44898935367 ; 2.005434530342425E8 ; 8.194394481386203E7 ; 3.8663504463584465E10 ; 0.0
