CSV File for the City 4 on Day 15
1 - Minute m 
2 - Power Consumed at minute m 
3 - Power Produced at minute m 
4 - Energy Consumed since the beginning of the day 
5 - Energy Produced since the beginning of the day 
6 - Energy Lost since the beginning of the day on lines starting from the city
 
0 ; 6798357.748099757 ; 1.0540970222609654E8 ; 0.0 ; 0.0 ; 0.0
1 ; 6808250.180295328 ; 1.0555465714766449E8 ; 6798357.748099757 ; 1.0540970222609654E8 ; 0.0
2 ; 6810516.404661506 ; 1.0600891525823537E8 ; 1.3606607928395085E7 ; 2.1096435937376103E8 ; 0.0
3 ; 6822304.143293852 ; 1.0677255493847203E8 ; 2.041712433305659E7 ; 3.169732746319964E8 ; 0.0
4 ; 6830484.410821056 ; 1.0784565897380412E8 ; 2.723942847635044E7 ; 4.237458295704684E8 ; 0.0
5 ; 6840883.982163105 ; 1.0922831229092646E8 ; 3.40699128871715E7 ; 5.3159148854427254E8 ; 0.0
6 ; 6859384.687638888 ; 1.1092059872305468E8 ; 4.091079686933461E7 ; 6.40819800835199E8 ; 0.0
7 ; 6881730.909430793 ; 1.1292259685310066E8 ; 4.7770181556973495E7 ; 7.517403995582536E8 ; 0.0
8 ; 6915484.536615952 ; 1.1523437520249581E8 ; 5.465191246640429E7 ; 8.646629964113543E8 ; 0.0
9 ; 6964357.4257125715 ; 1.1785598728358358E8 ; 6.156739700302024E7 ; 9.798973716138501E8 ; 0.0
10 ; 7043668.568562134 ; 1.2078746723284817E8 ; 6.853175442873281E7 ; 1.0977533588974338E9 ; 0.0
11 ; 7165751.617196431 ; 1.2402882678975645E8 ; 7.557542299729495E7 ; 1.218540826130282E9 ; 0.0
12 ; 7362867.675495098 ; 1.2758005421484151E8 ; 8.274117461449137E7 ; 1.3425696529200385E9 ; 0.0
13 ; 7554403.461041681 ; 1.3144111537161916E8 ; 9.010404228998648E7 ; 1.47014970713488E9 ; 0.0
14 ; 7577062.172951755 ; 1.3561195674774605E8 ; 9.765844575102815E7 ; 1.6015908225064993E9 ; 0.0
15 ; 7584153.308476084 ; 1.4009250982179064E8 ; 1.0523550792397991E8 ; 1.7372027792542453E9 ; 0.0
16 ; 7594468.07896078 ; 1.4488269601084116E8 ; 1.12819661232456E8 ; 1.877295289076036E9 ; 0.0
17 ; 7603451.820549177 ; 1.499824314816819E8 ; 1.2041412931141677E8 ; 2.022177985086877E9 ; 0.0
18 ; 7609930.220198339 ; 1.5539163130761808E8 ; 1.2801758113196595E8 ; 2.172160416568559E9 ; 0.0
19 ; 7621053.870741716 ; 1.6111021270322004E8 ; 1.356275113521643E8 ; 2.3275520478761773E9 ; 0.0
20 ; 7629998.294054508 ; 1.671380972878249E8 ; 1.4324856522290602E8 ; 2.488662260579397E9 ; 0.0
21 ; 7637852.530755113 ; 1.7347521247533605E8 ; 1.5087856351696053E8 ; 2.6558003578672223E9 ; 0.0
22 ; 7647226.425305291 ; 1.8012149216010767E8 ; 1.5851641604771563E8 ; 2.8292755703425584E9 ; 0.0
23 ; 7657455.195392602 ; 1.8707687688449192E8 ; 1.661636424730209E8 ; 3.009397062502666E9 ; 0.0
24 ; 7664161.904443015 ; 1.9434131365584332E8 ; 1.7382109766841352E8 ; 3.196473939387158E9 ; 0.0
25 ; 7673029.349402413 ; 2.006027964465293E8 ; 1.8148525957285655E8 ; 3.390815253043001E9 ; 0.0
26 ; 7683302.396038618 ; 2.0061483171803927E8 ; 1.8915828892225897E8 ; 3.5914180494895306E9 ; 0.0
27 ; 7691126.183736863 ; 2.006271523882416E8 ; 1.968415913182976E8 ; 3.79203288120757E9 ; 0.0
28 ; 7700257.230525323 ; 2.0063972652093157E8 ; 2.0453271750203446E8 ; 3.992660033595812E9 ; 0.0
29 ; 7707044.753380476 ; 2.0065252608949882E8 ; 2.1223297473255977E8 ; 4.1932997601167436E9 ; 0.0
30 ; 7715802.521531275 ; 2.0066552648963836E8 ; 2.1994001948594025E8 ; 4.393952286206243E9 ; 0.0
31 ; 7725951.381209818 ; 2.0067870610066402E8 ; 2.2765582200747153E8 ; 4.594617812695881E9 ; 0.0
32 ; 7730104.2285951255 ; 2.006920458965039E8 ; 2.3538177338868135E8 ; 4.795296518796545E9 ; 0.0
33 ; 7740697.74862749 ; 2.007055291043738E8 ; 2.431118776172765E8 ; 4.9959885646930485E9 ; 0.0
34 ; 7746747.633336282 ; 2.0071914090747315E8 ; 2.5085257536590397E8 ; 5.196694093797422E9 ; 0.0
35 ; 7752407.14973296 ; 2.0073286818731475E8 ; 2.5859932299924025E8 ; 5.397413234704896E9 ; 0.0
36 ; 7760775.484622211 ; 2.0074669930113167E8 ; 2.663517301489732E8 ; 5.598146102892211E9 ; 0.0
37 ; 7768183.394509992 ; 2.0076062388996047E8 ; 2.741125056335954E8 ; 5.798892802193342E9 ; 0.0
38 ; 7771701.756379072 ; 2.007746327133329E8 ; 2.818806890281054E8 ; 5.9996534260833025E9 ; 0.0
39 ; 7780018.275983787 ; 2.0078871750691542E8 ; 2.8965239078448445E8 ; 6.200428058796636E9 ; 0.0
40 ; 7784017.455951599 ; 2.00802870859865E8 ; 2.9743240906046826E8 ; 6.401216776303551E9 ; 0.0
41 ; 7790571.330155966 ; 2.0081708610908306E8 ; 3.052164265164198E8 ; 6.602019647163416E9 ; 0.0
42 ; 7800706.195015729 ; 2.00831357247933E8 ; 3.130069978465758E8 ; 6.802836733272499E9 ; 0.0
43 ; 7800272.89206749 ; 2.0084567884732994E8 ; 3.208077040415915E8 ; 7.003668090520432E9 ; 0.0
44 ; 7804162.554202793 ; 2.0086004598741493E8 ; 3.28607976933659E8 ; 7.204513769367763E9 ; 0.0
45 ; 7810303.450660316 ; 2.0087445419828853E8 ; 3.364121394878618E8 ; 7.405373815355178E9 ; 0.0
46 ; 7813417.085757195 ; 2.0088889940850577E8 ; 3.442224429385221E8 ; 7.606248269553467E9 ; 0.0
47 ; 7816516.3876913525 ; 2.0090337790022814E8 ; 3.520358600242793E8 ; 7.807137168961972E9 ; 0.0
48 ; 7819506.18884366 ; 2.0091788627009368E8 ; 3.598523764119707E8 ; 8.008040546862201E9 ; 0.0
49 ; 7823598.278582422 ; 2.009324213950063E8 ; 3.6767188260081434E8 ; 8.208958433132295E9 ; 0.0
50 ; 7826792.775668752 ; 2.0094698040216455E8 ; 3.7549548087939674E8 ; 8.409890854527301E9 ; 0.0
51 ; 7825278.743289636 ; 2.009615606427499E8 ; 3.833222736550655E8 ; 8.610837834929466E9 ; 0.0
52 ; 7830344.946399505 ; 2.009761596687809E8 ; 3.911475523983551E8 ; 8.811799395572216E9 ; 0.0
53 ; 7830974.20069817 ; 2.0099077521271053E8 ; 3.9897789734475464E8 ; 9.012775555240997E9 ; 0.0
54 ; 7830613.488807863 ; 2.010054051694054E8 ; 4.0680887154545283E8 ; 9.213766330453709E9 ; 0.0
55 ; 7833941.1208372805 ; 2.010200475801975E8 ; 4.146394850342607E8 ; 9.414771735623114E9 ; 0.0
56 ; 7836713.009908449 ; 2.0103470061874205E8 ; 4.2247342615509796E8 ; 9.615791783203312E9 ; 0.0
57 ; 7838338.3838641 ; 2.010493625784534E8 ; 4.303101391650064E8 ; 9.816826483822054E9 ; 0.0
58 ; 7839924.260396868 ; 2.0106403186132145E8 ; 4.381484775488705E8 ; 1.0017875846400507E10 ; 0.0
59 ; 7845521.517588202 ; 2.0107870696793896E8 ; 4.459884018092674E8 ; 1.021893987826183E10 ; 0.0
60 ; 7844323.254737124 ; 2.0109338648859224E8 ; 4.538339233268556E8 ; 1.0420018585229769E10 ; 0.0
61 ; 7845695.10608504 ; 2.0110806909528795E8 ; 4.6167824658159274E8 ; 1.062111197171836E10 ; 0.0
62 ; 7846500.737269969 ; 2.0112275353460538E8 ; 4.695239416876778E8 ; 1.0822220040813648E10 ; 0.0
63 ; 7846900.689182822 ; 2.0113743862127793E8 ; 4.773704424249478E8 ; 1.1023342794348253E10 ; 0.0
64 ; 7848327.515475575 ; 2.0115212323242E8 ; 4.852173431141306E8 ; 1.1224480232969532E10 ; 0.0
65 ; 7850230.688393691 ; 2.0116680630232567E8 ; 4.930656706296062E8 ; 1.1425632356201952E10 ; 0.0
66 ; 7849802.219004391 ; 2.0118148681777596E8 ; 5.009159013179999E8 ; 1.1626799162504278E10 ; 0.0
67 ; 7851646.326351894 ; 2.0119616381379762E8 ; 5.087657035370043E8 ; 1.1827980649322054E10 ; 0.0
68 ; 7851954.83426609 ; 2.0121083636982507E8 ; 5.166173498633562E8 ; 1.202917681313585E10 ; 0.0
69 ; 7853946.82040742 ; 2.012255036062214E8 ; 5.2446930469762224E8 ; 1.2230387649505676E10 ; 0.0
70 ; 7854140.298040764 ; 2.0124016468112117E8 ; 5.323232515180297E8 ; 1.2431613153111898E10 ; 0.0
71 ; 7855554.169171208 ; 2.0125481878756043E8 ; 5.401773918160704E8 ; 1.263285331779302E10 ; 0.0
72 ; 7856859.405781723 ; 2.0126946515086517E8 ; 5.480329459852417E8 ; 1.283410813658058E10 ; 0.0
73 ; 7857314.883091761 ; 2.012841030262712E8 ; 5.558898053910234E8 ; 1.3035377601731445E10 ; 0.0
74 ; 7858631.805378015 ; 2.0129873169675237E8 ; 5.637471202741152E8 ; 1.3236661704757717E10 ; 0.0
75 ; 7858942.382974686 ; 2.0131335047103658E8 ; 5.716057520794932E8 ; 1.343796043645447E10 ; 0.0
76 ; 7856585.57204006 ; 2.0132795868179095E8 ; 5.794646944624679E8 ; 1.3639273786925507E10 ; 0.0
77 ; 7858756.928194316 ; 2.0134255568395987E8 ; 5.87321280034508E8 ; 1.3840601745607298E10 ; 0.0
78 ; 7858697.658680651 ; 2.0135714085324115E8 ; 5.951800369627023E8 ; 1.4041944301291258E10 ; 0.0
79 ; 7853820.173615682 ; 2.013717135846875E8 ; 6.03038734621383E8 ; 1.4243301442144499E10 ; 0.0
80 ; 7850335.764119328 ; 2.013862732914213E8 ; 6.108925547949986E8 ; 1.4444673155729187E10 ; 0.0
81 ; 7848458.085651207 ; 2.0140081940345258E8 ; 6.18742890559118E8 ; 1.4646059429020609E10 ; 0.0
82 ; 7846159.436597396 ; 2.0141535136659026E8 ; 6.265913486447692E8 ; 1.484746024842406E10 ; 0.0
83 ; 7844335.265509054 ; 2.014298686414391E8 ; 6.344375080813665E8 ; 1.5048875599790651E10 ; 0.0
84 ; 7841887.414610606 ; 2.0144437070247373E8 ; 6.422818433468755E8 ; 1.525030546843209E10 ; 0.0
85 ; 7839028.614472181 ; 2.0145885703718364E8 ; 6.501237307614862E8 ; 1.5451749839134565E10 ; 0.0
86 ; 7834371.930836468 ; 2.014733271452831E8 ; 6.579627593759583E8 ; 1.565320869617175E10 ; 0.0
87 ; 7831584.154411786 ; 2.014877805379796E8 ; 6.657971313067948E8 ; 1.5854682023317032E10 ; 0.0
88 ; 7829308.756703148 ; 2.015022167372968E8 ; 6.736287154612066E8 ; 1.6056169803855011E10 ; 0.0
89 ; 7826964.068752522 ; 2.0151663527544674E8 ; 6.814580242179097E8 ; 1.6257672020592308E10 ; 0.0
90 ; 7827165.043798392 ; 2.0153103569424748E8 ; 6.892849882866622E8 ; 1.6459188655867754E10 ; 0.0
91 ; 7821533.311587811 ; 2.0154541754458258E8 ; 6.971121533304607E8 ; 1.6660719691562002E10 ; 0.0
92 ; 7818889.940830215 ; 2.015597803858986E8 ; 7.049336866420485E8 ; 1.6862265109106585E10 ; 0.0
93 ; 7814520.128830575 ; 2.0157412378573784E8 ; 7.127525765828787E8 ; 1.7063824889492483E10 ; 0.0
94 ; 7808787.524222418 ; 2.015884473193039E8 ; 7.205670967117093E8 ; 1.726539901327822E10 ; 0.0
95 ; 7809033.169650376 ; 2.016027505690564E8 ; 7.283758842359316E8 ; 1.7466987460597527E10 ; 0.0
96 ; 7805057.288355602 ; 2.0161703312433368E8 ; 7.36184917405582E8 ; 1.7668590211166584E10 ; 0.0
97 ; 7801723.401309504 ; 2.01631294581001E8 ; 7.439899746939375E8 ; 1.7870207244290916E10 ; 0.0
98 ; 7798417.000690931 ; 2.0164553454112178E8 ; 7.51791698095247E8 ; 1.8071838538871918E10 ; 0.0
99 ; 7795062.201846128 ; 2.0165975261265087E8 ; 7.59590115095938E8 ; 1.827348407341304E10 ; 0.0
100 ; 7787739.1974157 ; 2.0167394840914786E8 ; 7.673851772977841E8 ; 1.8475143826025692E10 ; 0.0
101 ; 7785952.221929219 ; 2.0168812154950887E8 ; 7.751729164951998E8 ; 1.867681777443484E10 ; 0.0
102 ; 7781563.192618332 ; 2.017022716577156E8 ; 7.82958868717129E8 ; 1.887850589598435E10 ; 0.0
103 ; 7779592.32996982 ; 2.0171639836260048E8 ; 7.907404319097474E8 ; 1.9080208167642063E10 ; 0.0
104 ; 7774337.632301166 ; 2.017305012976265E8 ; 7.985200242397171E8 ; 1.9281924566004665E10 ; 0.0
105 ; 7771740.582436701 ; 2.0174458010068086E8 ; 8.062943618720183E8 ; 1.948365506730229E10 ; 0.0
106 ; 7768098.231941887 ; 2.0175863441388154E8 ; 8.14066102454455E8 ; 1.9685399647402973E10 ; 0.0
107 ; 7760489.1785418885 ; 2.0177266388339558E8 ; 8.21834200686397E8 ; 1.9887158281816856E10 ; 0.0
108 ; 7756076.516343647 ; 2.0178666815926868E8 ; 8.295946898649389E8 ; 2.0088930945700253E10 ; 0.0
109 ; 7754071.019693361 ; 2.0180064689526492E8 ; 8.373507663812824E8 ; 2.029071761385952E10 ; 0.0
110 ; 7749913.84518771 ; 2.0181459974871635E8 ; 8.451048374009758E8 ; 2.0492518260754784E10 ; 0.0
111 ; 7743493.423709685 ; 2.0182852638038126E8 ; 8.528547512461635E8 ; 2.06943328605035E10 ; 0.0
112 ; 7739483.315295301 ; 2.018424264543111E8 ; 8.605982446698731E8 ; 2.0896161386883884E10 ; 0.0
113 ; 7732361.709533966 ; 2.0185629963772514E8 ; 8.683377279851685E8 ; 2.1098003813338196E10 ; 0.0
114 ; 7729488.59045482 ; 2.0187014560089248E8 ; 8.760700896947024E8 ; 2.129986011297592E10 ; 0.0
115 ; 7724061.1980470205 ; 2.018839640170207E8 ; 8.837995782851572E8 ; 2.1501730258576813E10 ; 0.0
116 ; 7718049.491237527 ; 2.018977545621513E8 ; 8.915236394832042E8 ; 2.1703614222593834E10 ; 0.0
117 ; 7715571.9662086 ; 2.0191151691506085E8 ; 8.992416889744418E8 ; 2.1905511977155987E10 ; 0.0
118 ; 7709557.471503277 ; 2.0192525075716773E8 ; 9.069572609406503E8 ; 2.210742349407105E10 ; 0.0
119 ; 7701841.626784518 ; 2.019389557724445E8 ; 9.146668184121536E8 ; 2.2309348744828217E10 ; 0.0
120 ; 7697163.232114856 ; 2.0195263164733464E8 ; 9.223686600389382E8 ; 2.2511287700600662E10 ; 0.0
121 ; 7695117.554645417 ; 2.0196627807067445E8 ; 9.300658232710531E8 ; 2.2713240332247997E10 ; 0.0
122 ; 7687589.346045319 ; 2.019798947336191E8 ; 9.377609408256985E8 ; 2.2915206610318672E10 ; 0.0
123 ; 7680887.716856261 ; 2.0199348132957262E8 ; 9.454485301717439E8 ; 2.311718650505229E10 ; 0.0
124 ; 7675240.747987669 ; 2.0200703755412197E8 ; 9.531294178886001E8 ; 2.3319179986381863E10 ; 0.0
125 ; 7673258.78497655 ; 2.020205631049747E8 ; 9.608046586365877E8 ; 2.3521187023935986E10 ; 0.0
126 ; 7666124.922433974 ; 2.0203405768189976E8 ; 9.684779174215643E8 ; 2.372320758704096E10 ; 0.0
127 ; 7658301.695947595 ; 2.0204752098667184E8 ; 9.761440423439983E8 ; 2.392524164472286E10 ; 0.0
128 ; 7655366.309767344 ; 2.020609527230185E8 ; 9.83802344039946E8 ; 2.412728916570953E10 ; 0.0
129 ; 7649031.705580886 ; 2.020743525965703E8 ; 9.914577103497133E8 ; 2.432935011843255E10 ; 0.0
130 ; 7641924.587521229 ; 2.020877203148135E8 ; 9.991067420552942E8 ; 2.4531424471029118E10 ; 0.0
131 ; 7631521.272462713 ; 2.0210105558704522E8 ; 1.0067486666428154E9 ; 2.473351219134393E10 ; 0.0
132 ; 7622158.500226571 ; 2.0211435812433118E8 ; 1.0143801879152781E9 ; 2.4935613246930973E10 ; 0.0
133 ; 7615464.640944688 ; 2.0212762763946557E8 ; 1.0220023464155047E9 ; 2.5137727605055305E10 ; 0.0
134 ; 7604611.905128254 ; 2.02140863846933E8 ; 1.0296178110564494E9 ; 2.533985523269477E10 ; 0.0
135 ; 7599132.092469645 ; 2.0215406646287268E8 ; 1.0372224229615777E9 ; 2.5541996096541702E10 ; 0.0
136 ; 7588335.734923246 ; 2.0216723520504412E8 ; 1.0448215550540473E9 ; 2.5744150163004574E10 ; 0.0
137 ; 7582793.251473854 ; 2.0218036979279497E8 ; 1.0524098907889706E9 ; 2.5946317398209618E10 ; 0.0
138 ; 7573423.613104768 ; 2.0219346994703043E8 ; 1.0599926840404445E9 ; 2.614849776800241E10 ; 0.0
139 ; 7564743.60373619 ; 2.0220653539018413E8 ; 1.0675661076535493E9 ; 2.635069123794944E10 ; 0.0
140 ; 7554877.47235911 ; 2.0221956584619093E8 ; 1.0751308512572856E9 ; 2.6552897773339622E10 ; 0.0
141 ; 7542459.971924519 ; 2.0223256104046062E8 ; 1.0826857287296448E9 ; 2.6755117339185814E10 ; 0.0
142 ; 7534652.669268889 ; 2.022455206998534E8 ; 1.0902281887015693E9 ; 2.6957349900226276E10 ; 0.0
143 ; 7526560.304143897 ; 2.022584445526564E8 ; 1.0977628413708382E9 ; 2.715959542092613E10 ; 0.0
144 ; 7516894.202918852 ; 2.022713323285618E8 ; 1.105289401674982E9 ; 2.7361853865478786E10 ; 0.0
145 ; 7510078.513311897 ; 2.022841837586455E8 ; 1.1128062958779008E9 ; 2.756412519780735E10 ; 0.0
146 ; 7502095.98641475 ; 2.0229699857534745E8 ; 1.1203163743912127E9 ; 2.7766409381565994E10 ; 0.0
147 ; 7496219.72332917 ; 2.0230977651245278E8 ; 1.1278184703776274E9 ; 2.7968706380141342E10 ; 0.0
148 ; 7489574.6431963 ; 2.0232251730507398E8 ; 1.1353146901009564E9 ; 2.8171016156653793E10 ; 0.0
149 ; 7484179.3626938155 ; 2.0233522068963397E8 ; 1.1428042647441528E9 ; 2.8373338673958866E10 ; 0.0
150 ; 7477334.293111682 ; 2.0234788640385005E8 ; 1.1502884441068466E9 ; 2.85756738946485E10 ; 0.0
151 ; 7471297.516797205 ; 2.0236051418671894E8 ; 1.1577657783999581E9 ; 2.877802178105235E10 ; 0.0
152 ; 7465039.16240507 ; 2.023731037785023E8 ; 1.1652370759167554E9 ; 2.8980382295239067E10 ; 0.0
153 ; 7455966.045333226 ; 2.0238565492071307E8 ; 1.1727021150791605E9 ; 2.918275539901757E10 ; 0.0
154 ; 7449595.689616841 ; 2.0239816735610294E8 ; 1.1801580811244936E9 ; 2.9385141053938282E10 ; 0.0
155 ; 7443266.142143141 ; 2.0241064082864997E8 ; 1.1876076768141105E9 ; 2.9587539221294384E10 ; 0.0
156 ; 7437208.848471536 ; 2.0242307508354712E8 ; 1.1950509429562538E9 ; 2.9789949862123035E10 ; 0.0
157 ; 7428174.903631049 ; 2.0243546986719155E8 ; 1.2024881518047254E9 ; 2.999237293720658E10 ; 0.0
158 ; 7420416.3591110585 ; 2.0244782492717433E8 ; 1.2099163267083564E9 ; 3.0194808407073772E10 ; 0.0
159 ; 7415305.343898782 ; 2.0246014001227072E8 ; 1.2173367430674675E9 ; 3.0397256232000946E10 ; 0.0
160 ; 7405874.128688443 ; 2.0247241487243104E8 ; 1.2247520484113662E9 ; 3.0599716372013218E10 ; 0.0
161 ; 7401002.684984207 ; 2.0248464925877222E8 ; 1.2321579225400546E9 ; 3.080218878688565E10 ; 0.0
162 ; 7394986.246953788 ; 2.024968429235695E8 ; 1.2395589252250388E9 ; 3.1004673436144424E10 ; 0.0
163 ; 7386509.67806573 ; 2.025089956202489E8 ; 1.2469539114719925E9 ; 3.1207170279067993E10 ; 0.0
164 ; 7381550.003113644 ; 2.025211071033801E8 ; 1.2543404211500583E9 ; 3.1409679274688244E10 ; 0.0
165 ; 7371470.206610726 ; 2.0253317712866956E8 ; 1.261721971153172E9 ; 3.1612200381791622E10 ; 0.0
166 ; 7367760.988364411 ; 2.0254520545295417E8 ; 1.2690934413597827E9 ; 3.181473355892029E10 ; 0.0
167 ; 7354988.8948756885 ; 2.0255719183419552E8 ; 1.2764612023481472E9 ; 3.2017278764373245E10 ; 0.0
168 ; 7350622.594206397 ; 2.0256913603147402E8 ; 1.283816191243023E9 ; 3.221983595620744E10 ; 0.0
169 ; 7345603.531159323 ; 2.025810378049839E8 ; 1.2911668138372293E9 ; 3.2422405092238914E10 ; 0.0
170 ; 7335216.829411985 ; 2.0259289691602823E8 ; 1.2985124173683887E9 ; 3.26249861300439E10 ; 0.0
171 ; 7329669.906232933 ; 2.026047131270144E8 ; 1.3058476341978006E9 ; 3.2827579026959927E10 ; 0.0
172 ; 7322360.335404133 ; 2.0261648620144984E8 ; 1.3131773041040335E9 ; 3.303018374008694E10 ; 0.0
173 ; 7313505.982381497 ; 2.026282159039381E8 ; 1.3204996644394376E9 ; 3.323280022628839E10 ; 0.0
174 ; 7309396.005558785 ; 2.026399020001752E8 ; 1.3278131704218192E9 ; 3.343542844219233E10 ; 0.0
175 ; 7305653.049150361 ; 2.0265154425694615E8 ; 1.335122566427378E9 ; 3.3638068344192505E10 ; 0.0
176 ; 7300306.490771627 ; 2.0266314244212192E8 ; 1.3424282194765284E9 ; 3.384071988844945E10 ; 0.0
177 ; 7296036.762532181 ; 2.026746963246565E8 ; 1.3497285259673E9 ; 3.4043383030891575E10 ; 0.0
178 ; 7292328.493088104 ; 2.0268620567458418E8 ; 1.3570245627298322E9 ; 3.4246057727216232E10 ; 0.0
179 ; 7286417.546945799 ; 2.0269767026301727E8 ; 1.3643168912229202E9 ; 3.4448743932890816E10 ; 0.0
180 ; 7283211.313118372 ; 2.0270908986214373E8 ; 1.371603308769866E9 ; 3.465144160315383E10 ; 0.0
181 ; 7277359.156344601 ; 2.0272046424522528E8 ; 1.3788865200829844E9 ; 3.4854150693015976E10 ; 0.0
182 ; 7273502.220801644 ; 2.0273179318659553E8 ; 1.386163879239329E9 ; 3.50568711572612E10 ; 0.0
183 ; 7268850.675781601 ; 2.0274307646165833E8 ; 1.3934373814601307E9 ; 3.525960295044779E10 ; 0.0
184 ; 7264032.595494443 ; 2.027543138468865E8 ; 1.4007062321359122E9 ; 3.546234602690945E10 ; 0.0
185 ; 7260102.569597125 ; 2.027655051198202E8 ; 1.4079702647314067E9 ; 3.566510034075633E10 ; 0.0
186 ; 7256249.936951572 ; 2.027766500590663E8 ; 1.415230367301004E9 ; 3.586786584587615E10 ; 0.0
187 ; 7252112.356363361 ; 2.0278774844429705E8 ; 1.4224866172379556E9 ; 3.607064249593522E10 ; 0.0
188 ; 7246110.241648134 ; 2.0279880005624944E8 ; 1.4297387295943189E9 ; 3.627343024437952E10 ; 0.0
189 ; 7242594.078362935 ; 2.028098046767246E8 ; 1.436984839835967E9 ; 3.647622904443577E10 ; 0.0
190 ; 7237541.456951392 ; 2.0282076208858714E8 ; 1.44422743391433E9 ; 3.6679038849112495E10 ; 0.0
191 ; 7233972.930279238 ; 2.028316720757649E8 ; 1.4514649753712814E9 ; 3.688185961120108E10 ; 0.0
192 ; 7228202.2759434385 ; 2.0284253442324862E8 ; 1.4586989483015606E9 ; 3.708469128327685E10 ; 0.0
193 ; 7224508.888465471 ; 2.0285334891709182E8 ; 1.4659271505775042E9 ; 3.7287533817700096E10 ; 0.0
194 ; 7219792.625217506 ; 2.0286411534441087E8 ; 1.4731516594659696E9 ; 3.749038716661719E10 ; 0.0
195 ; 7215537.281044604 ; 2.028748334933849E8 ; 1.480371452091187E9 ; 3.76932512819616E10 ; 0.0
196 ; 7210875.117053974 ; 2.0288550315325618E8 ; 1.4875869893722317E9 ; 3.789612611545499E10 ; 0.0
197 ; 7207247.894796983 ; 2.0289612411433032E8 ; 1.4947978644892857E9 ; 3.8099011618608246E10 ; 0.0
198 ; 7203548.02105405 ; 2.0290669616797662E8 ; 1.5020051123840828E9 ; 3.830190774272258E10 ; 0.0
199 ; 7198699.927008822 ; 2.0291721910662872E8 ; 1.5092086604051368E9 ; 3.850481443889056E10 ; 0.0
200 ; 7192013.606073322 ; 2.02927692723785E8 ; 1.5164073603321457E9 ; 3.8707731657997185E10 ; 0.0
201 ; 7188722.216368859 ; 1.8226085214329433E8 ; 1.523599373938219E9 ; 3.891065935072097E10 ; 0.0
