CSV File for the City 4 on Day 247
1 - Minute m 
2 - Power Consumed at minute m 
3 - Power Produced at minute m 
4 - Energy Consumed since the beginning of the day 
5 - Energy Produced since the beginning of the day 
6 - Energy Lost since the beginning of the day on lines starting from the city
 
0 ; 1330729.0816773032 ; 1.056683340487651E8 ; 0.0 ; 0.0 ; 0.0
1 ; 1339303.3217097118 ; 1.0581751133143729E8 ; 1330729.0816773032 ; 1.056683340487651E8 ; 0.0
2 ; 1343059.846302359 ; 1.0627582586082909E8 ; 2670032.4033870148 ; 2.1148584538020238E8 ; 0.0
3 ; 1354676.0560075091 ; 1.0704329200359583E8 ; 4013092.2496893737 ; 3.1776167124103147E8 ; 0.0
4 ; 1364520.6509491168 ; 1.0811992300740314E8 ; 5367768.305696882 ; 4.248049632446273E8 ; 0.0
5 ; 1376045.0580820842 ; 1.0950573081282395E8 ; 6732288.956645999 ; 5.3292488625203043E8 ; 0.0
6 ; 1390103.8422681387 ; 1.1120072587411705E8 ; 8108334.014728083 ; 6.424306170648544E8 ; 0.0
7 ; 1412412.19656362 ; 1.1320491699467921E8 ; 9498437.856996221 ; 7.536313429389714E8 ; 0.0
8 ; 1448496.4259443064 ; 1.1551831118288893E8 ; 1.0910850053559842E7 ; 8.668362599336506E8 ; 0.0
9 ; 1496292.3224819016 ; 1.181409135336535E8 ; 1.2359346479504148E7 ; 9.823545711165395E8 ; 0.0
10 ; 1574236.2068823513 ; 1.2107272714022833E8 ; 1.385563880198605E7 ; 1.100495484650193E9 ; 0.0
11 ; 1700640.25286 ; 1.2431375303982636E8 ; 1.5429875008868402E7 ; 1.2215682117904212E9 ; 0.0
12 ; 1896360.2371148285 ; 1.2786399019523463E8 ; 1.7130515261728402E7 ; 1.3458819648302476E9 ; 0.0
13 ; 2088278.5979922335 ; 1.3172343551319772E8 ; 1.902687549884323E7 ; 1.4737459550254822E9 ; 0.0
14 ; 2109402.554453573 ; 1.3589208389880842E8 ; 2.1115154096835464E7 ; 1.6054693905386798E9 ; 0.0
15 ; 2116780.6510478365 ; 1.4036992834368813E8 ; 2.322455665128904E7 ; 1.7413614744374883E9 ; 0.0
16 ; 2128343.5221458743 ; 1.4515696004444018E8 ; 2.5341337302336875E7 ; 1.8817314027811766E9 ; 0.0
17 ; 2134408.3492535385 ; 1.502531685468057E8 ; 2.746968082448275E7 ; 2.0268883628256168E9 ; 0.0
18 ; 2144898.0847819746 ; 1.556585419102118E8 ; 2.960408917373629E7 ; 2.1771415313724227E9 ; 0.0
19 ; 2154059.672989149 ; 1.6137306688699284E8 ; 3.1748987258518264E7 ; 2.3328000732826347E9 ; 0.0
20 ; 2161167.7499741423 ; 1.6739672911049345E8 ; 3.3903046931507416E7 ; 2.4941731401696277E9 ; 0.0
21 ; 2172512.937999559 ; 1.7372951328649256E8 ; 3.6064214681481555E7 ; 2.6615698692801213E9 ; 0.0
22 ; 2179932.8211051202 ; 1.8037140338286448E8 ; 3.823672761948112E7 ; 2.8352993825666137E9 ; 0.0
23 ; 2190583.4678320447 ; 1.8732238281306076E8 ; 4.041666044058624E7 ; 3.015670785949478E9 ; 0.0
24 ; 2200536.80618844 ; 1.9458243460977435E8 ; 4.260724390841828E7 ; 3.202993168762539E9 ; 0.0
25 ; 2206791.444537989 ; 2.0083958248416224E8 ; 4.4807780714606725E7 ; 3.3975756033723135E9 ; 0.0
26 ; 2216833.7999548074 ; 2.008473570091706E8 ; 4.7014572159144714E7 ; 3.598415185856476E9 ; 0.0
27 ; 2226416.8260588218 ; 2.0085551027504095E8 ; 4.923140595909952E7 ; 3.7992625428656464E9 ; 0.0
28 ; 2233705.90657294 ; 2.0086402525032583E8 ; 5.145782278515834E7 ; 4.0001180531406875E9 ; 0.0
29 ; 2241292.853481168 ; 2.0087288517306206E8 ; 5.369152869173128E7 ; 4.200982078391013E9 ; 0.0
30 ; 2253716.017552708 ; 2.00882073632894E8 ; 5.593282154521245E7 ; 4.401854963564075E9 ; 0.0
31 ; 2258061.8221676312 ; 2.0089157463825476E8 ; 5.818653756276516E7 ; 4.602737037196969E9 ; 0.0
32 ; 2267282.5751649076 ; 2.0090137266971675E8 ; 6.0444599384932786E7 ; 4.803628611835224E9 ; 0.0
33 ; 2277084.3536706055 ; 2.0091145272078165E8 ; 6.271188196009769E7 ; 5.004529984504941E9 ; 0.0
34 ; 2286141.1390134366 ; 2.0092180032745743E8 ; 6.49889663137683E7 ; 5.205441437225722E9 ; 0.0
35 ; 2294191.4041350326 ; 2.0093240158798882E8 ; 6.727510745278174E7 ; 5.40636323755318E9 ; 0.0
36 ; 2301155.8976164926 ; 2.0094324317407498E8 ; 6.956929885691677E7 ; 5.607295639141169E9 ; 0.0
37 ; 2304076.217430295 ; 2.0095431233484244E8 ; 7.187045475453326E7 ; 5.808238882315244E9 ; 0.0
38 ; 2313562.51578123 ; 2.0096559689475152E8 ; 7.417453097196355E7 ; 6.009193194650086E9 ; 0.0
39 ; 2321019.40654773 ; 2.0097708524650937E8 ; 7.648809348774478E7 ; 6.210158791544838E9 ; 0.0
40 ; 2327759.168848351 ; 2.0098876633995232E8 ; 7.88091128942925E7 ; 6.4111358767913475E9 ; 0.0
41 ; 2335373.8531938074 ; 2.0100062966774696E8 ; 8.113687206314085E7 ; 6.6121246431313E9 ; 0.0
42 ; 2339227.0537553267 ; 2.0101266524865094E8 ; 8.347224591633466E7 ; 6.8131252727990465E9 ; 0.0
43 ; 2345092.1904678894 ; 2.0102486360897052E8 ; 8.581147297008999E7 ; 7.014137938047697E9 ; 0.0
44 ; 2351318.379772016 ; 2.0103721576275644E8 ; 8.815656516055788E7 ; 7.215162801656668E9 ; 0.0
45 ; 2356136.801945261 ; 2.0104971319119322E8 ; 9.05078835403299E7 ; 7.416200017419424E9 ; 0.0
46 ; 2358073.6028902 ; 2.0106234782155934E8 ; 9.286402034227516E7 ; 7.617249730610618E9 ; 0.0
47 ; 2362234.5651903995 ; 2.0107511200606692E8 ; 9.522209394516535E7 ; 7.818312078432177E9 ; 0.0
48 ; 2370935.75616448 ; 2.0108799850083107E8 ; 9.758432851035576E7 ; 8.019387190438244E9 ; 0.0
49 ; 2372503.5282103093 ; 2.0110100044516614E8 ; 9.995526426652023E7 ; 8.2204751889390745E9 ; 0.0
50 ; 2375727.932625256 ; 2.0111411134136394E8 ; 1.0232776779473054E8 ; 8.421576189384241E9 ; 0.0
51 ; 2378974.472037012 ; 2.0112732503507027E8 ; 1.047034957273558E8 ; 8.622690300725605E9 ; 0.0
52 ; 2381015.5138004143 ; 2.0114063569634628E8 ; 1.0708247019939281E8 ; 8.823817625760675E9 ; 0.0
53 ; 2383839.9039691323 ; 2.011540378014747E8 ; 1.0946348571319322E8 ; 9.024958261457022E9 ; 0.0
54 ; 2388142.6546021374 ; 2.0116752611554986E8 ; 1.1184732561716236E8 ; 9.226112299258497E9 ; 0.0
55 ; 2387922.632097135 ; 2.011810956758734E8 ; 1.142354682717645E8 ; 9.427279825374046E9 ; 0.0
56 ; 2392831.7796147587 ; 2.011947417761633E8 ; 1.1662339090386164E8 ; 9.62846092104992E9 ; 0.0
57 ; 2396345.2973354887 ; 2.0120845995157295E8 ; 1.190162226834764E8 ; 9.829655662826082E9 ; 0.0
58 ; 2397356.3044005 ; 2.012222459645085E8 ; 1.214125679808119E8 ; 1.0030864122777655E10 ; 0.0
59 ; 2399815.6278081406 ; 2.01236095791226E8 ; 1.238099242852124E8 ; 1.0232086368742163E10 ; 0.0
60 ; 2401649.7493364476 ; 2.0125000560918453E8 ; 1.2620973991302054E8 ; 1.0433322464533388E10 ; 0.0
61 ; 2404241.743754276 ; 2.0126397178512833E8 ; 1.2861138966235699E8 ; 1.0634572470142572E10 ; 0.0
62 ; 2409143.536532616 ; 2.0127799086386856E8 ; 1.3101563140611127E8 ; 1.08358364419277E10 ; 0.0
63 ; 2412687.5554007 ; 2.012920595577331E8 ; 1.3342477494264388E8 ; 1.1037114432791569E10 ; 0.0
64 ; 2412917.672936334 ; 2.0130617473665246E8 ; 1.3583746249804458E8 ; 1.1238406492349302E10 ; 0.0
65 ; 2414188.5132114557 ; 2.013203334188497E8 ; 1.382503801709809E8 ; 1.1439712667085955E10 ; 0.0
66 ; 2419734.7349224226 ; 2.013345327621019E8 ; 1.4066456868419236E8 ; 1.1641033000504805E10 ; 0.0
67 ; 2421496.248839654 ; 2.0134877005554166E8 ; 1.4308430341911477E8 ; 1.1842367533266907E10 ; 0.0
68 ; 2423578.4271103647 ; 2.0136304271196818E8 ; 1.4550579966795442E8 ; 1.2043716303322449E10 ; 0.0
69 ; 2425301.3986713025 ; 2.0137734826063728E8 ; 1.479293780950648E8 ; 1.2245079346034416E10 ; 0.0
70 ; 2426147.2681066 ; 2.0139168434050247E8 ; 1.503546794937361E8 ; 1.2446456694295053E10 ; 0.0
71 ; 2429299.155198133 ; 2.0140604869387934E8 ; 1.527808267618427E8 ; 1.2647848378635555E10 ; 0.0
72 ; 2431588.9420435885 ; 2.0142043916050678E8 ; 1.5521012591704082E8 ; 1.2849254427329435E10 ; 0.0
73 ; 2433300.378415927 ; 2.0143485367198065E8 ; 1.5764171485908443E8 ; 1.3050674866489943E10 ; 0.0
74 ; 2435137.3255917868 ; 2.0144929024653596E8 ; 1.6007501523750034E8 ; 1.3252109720161922E10 ; 0.0
75 ; 2435926.4526744415 ; 2.014637469841555E8 ; 1.625101525630921E8 ; 1.3453559010408459E10 ; 0.0
76 ; 2440688.440332519 ; 2.0147822206198403E8 ; 1.6494607901576656E8 ; 1.3655022757392614E10 ; 0.0
77 ; 2441813.019780091 ; 2.0149271373002785E8 ; 1.673867674560991E8 ; 1.3856500979454597E10 ; 0.0
78 ; 2441186.3680658345 ; 2.0150722030712187E8 ; 1.698285804758792E8 ; 1.4057993693184626E10 ; 0.0
79 ; 2438099.2946055587 ; 2.0152174017714626E8 ; 1.7226976684394503E8 ; 1.4259500913491747E10 ; 0.0
80 ; 2438411.785523146 ; 2.0153627178547662E8 ; 1.7470786613855058E8 ; 1.4461022653668894E10 ; 0.0
81 ; 2437322.4021557514 ; 2.015508136356524E8 ; 1.7714627792407373E8 ; 1.466255892545437E10 ; 0.0
82 ; 2436872.004056859 ; 2.015653642862492E8 ; 1.7958360032622948E8 ; 1.4864109739090023E10 ; 0.0
83 ; 2436237.095950008 ; 2.0157992234794182E8 ; 1.8202047233028635E8 ; 1.5065675103376272E10 ; 0.0
84 ; 2435135.5209732004 ; 2.0159448648074552E8 ; 1.8445670942623636E8 ; 1.5267255025724215E10 ; 0.0
85 ; 2431783.862237938 ; 2.0160905539142364E8 ; 1.8689184494720957E8 ; 1.546884951220496E10 ; 0.0
86 ; 2432914.889134614 ; 2.0162362783105108E8 ; 1.893236288094475E8 ; 1.5670458567596384E10 ; 0.0
87 ; 2434473.8065920575 ; 2.0163820259272352E8 ; 1.917565436985821E8 ; 1.5872082195427435E10 ; 0.0
88 ; 2433050.456684363 ; 2.0165277850940248E8 ; 1.9419101750517416E8 ; 1.6073720398020159E10 ; 0.0
89 ; 2431541.3998749894 ; 2.016673544518881E8 ; 1.966240679618585E8 ; 1.6275373176529562E10 ; 0.0
90 ; 2427358.022095887 ; 2.0168192932691076E8 ; 1.990556093617335E8 ; 1.6477040530981451E10 ; 0.0
91 ; 2426013.1508251885 ; 2.016965020753345E8 ; 2.0148296738382939E8 ; 1.6678722460308361E10 ; 0.0
92 ; 2425331.949248284 ; 2.0171107167046446E8 ; 2.039089805346546E8 ; 1.6880418962383696E10 ; 0.0
93 ; 2423437.112067453 ; 2.017256371164526E8 ; 2.0633431248390287E8 ; 1.708213003405416E10 ; 0.0
94 ; 2421990.5967063573 ; 2.0174019744679436E8 ; 2.0875774959597033E8 ; 1.7283855671170612E10 ; 0.0
95 ; 2423655.840225858 ; 2.0175475172291154E8 ; 2.111797401926767E8 ; 1.7485595868617405E10 ; 0.0
96 ; 2416769.2940187776 ; 2.017692990328152E8 ; 2.1360339603290254E8 ; 1.7687350620340317E10 ; 0.0
97 ; 2418797.5547436923 ; 2.0178383848984417E8 ; 2.160201653269213E8 ; 1.788911991937313E10 ; 0.0
98 ; 2418739.346441077 ; 2.01798369231474E8 ; 2.18438962881665E8 ; 1.8090903757862976E10 ; 0.0
99 ; 2415650.8017071756 ; 2.0181289041819248E8 ; 2.2085770222810608E8 ; 1.829270212709445E10 ; 0.0
100 ; 2410669.9368136097 ; 2.0182740123243678E8 ; 2.2327335302981326E8 ; 1.8494515017512646E10 ; 0.0
101 ; 2410608.463379038 ; 2.018419008775897E8 ; 2.2568402296662688E8 ; 1.8696342418745083E10 ; 0.0
102 ; 2410284.102762828 ; 2.018563885770302E8 ; 2.280946314300059E8 ; 1.8898184319622673E10 ; 0.0
103 ; 2406752.4896579995 ; 2.0187086357323566E8 ; 2.3050491553276873E8 ; 1.9100040708199703E10 ; 0.0
104 ; 2405017.488377168 ; 2.0188532512693235E8 ; 2.3291166802242672E8 ; 1.9301911571772938E10 ; 0.0
105 ; 2403910.7932800846 ; 2.0189977251629168E8 ; 2.3531668551080388E8 ; 1.950379689689987E10 ; 0.0
106 ; 2399927.067094993 ; 2.0191420503616896E8 ; 2.3772059630408397E8 ; 1.9705696669416164E10 ; 0.0
107 ; 2401179.3879572656 ; 2.0192862199738252E8 ; 2.4012052337117895E8 ; 1.990761087445233E10 ; 0.0
108 ; 2396585.8090067226 ; 2.0194302272603074E8 ; 2.4252170275913623E8 ; 2.0109539496449715E10 ; 0.0
109 ; 2394840.5738467784 ; 2.019574065628445E8 ; 2.4491828856814295E8 ; 2.0311482519175747E10 ; 0.0
110 ; 2391699.079687304 ; 2.019717728625737E8 ; 2.4731312914198974E8 ; 2.051343992573859E10 ; 0.0
111 ; 2389538.8316762056 ; 2.019861209934048E8 ; 2.4970482822167704E8 ; 2.0715411698601166E10 ; 0.0
112 ; 2389286.7116073295 ; 2.020004503364086E8 ; 2.5209436705335325E8 ; 2.091739781959457E10 ; 0.0
113 ; 2385225.6006161473 ; 2.020147602850159E8 ; 2.544836537649606E8 ; 2.1119398269930977E10 ; 0.0
114 ; 2381349.9478065493 ; 2.0202905024452E8 ; 2.5686887936557674E8 ; 2.1321413030215992E10 ; 0.0
115 ; 2380424.317569598 ; 2.0204331963160372E8 ; 2.5925022931338328E8 ; 2.152344208046051E10 ; 0.0
116 ; 2379283.1109700357 ; 2.020575678738904E8 ; 2.6163065363095286E8 ; 2.1725485400092113E10 ; 0.0
117 ; 2372138.520925262 ; 2.0207179440951705E8 ; 2.6400993674192291E8 ; 2.1927542967966003E10 ; 0.0
118 ; 2372621.6790969074 ; 2.0208599868672857E8 ; 2.6638207526284817E8 ; 2.212961476237552E10 ; 0.0
119 ; 2367984.496167356 ; 2.0210018016349193E8 ; 2.687546969419451E8 ; 2.233170076106225E10 ; 0.0
120 ; 2363611.7312639817 ; 2.0211433830712894E8 ; 2.7112268143811244E8 ; 2.253380094122574E10 ; 0.0
121 ; 2365284.4001605143 ; 2.0212847259396705E8 ; 2.7348629316937643E8 ; 2.2735915279532867E10 ; 0.0
122 ; 2361145.244798957 ; 2.0214258250900683E8 ; 2.758515775695369E8 ; 2.2938043752126835E10 ; 0.0
123 ; 2357323.0757644754 ; 2.0215666754560533E8 ; 2.782127228143359E8 ; 2.314018633463584E10 ; 0.0
124 ; 2354404.7621319597 ; 2.0217072720517465E8 ; 2.8057004589010036E8 ; 2.3342343002181446E10 ; 0.0
125 ; 2351153.3861063328 ; 2.021847609968945E8 ; 2.8292445065223235E8 ; 2.354451372938662E10 ; 0.0
126 ; 2347109.2812405573 ; 2.021987684374386E8 ; 2.8527560403833866E8 ; 2.3746698490383514E10 ; 0.0
127 ; 2342016.894857662 ; 2.022127490507136E8 ; 2.8762271331957924E8 ; 2.3948897258820953E10 ; 0.0
128 ; 2342246.136611428 ; 2.022267023676102E8 ; 2.899647302144369E8 ; 2.4151110007871666E10 ; 0.0
129 ; 2338538.622573444 ; 2.0224062792576584E8 ; 2.923069763510483E8 ; 2.4353336710239277E10 ; 0.0
130 ; 2335302.774572489 ; 2.022545252693383E8 ; 2.946455149736217E8 ; 2.4555577338165043E10 ; 0.0
131 ; 2327143.026336648 ; 2.0226839394878948E8 ; 2.969808177481942E8 ; 2.475783186343438E10 ; 0.0
132 ; 2317877.6709658927 ; 2.0228223352067912E8 ; 2.993079607745309E8 ; 2.4960100257383167E10 ; 0.0
133 ; 2315240.090260774 ; 2.0229604354746795E8 ; 3.016258384454968E8 ; 2.5162382490903847E10 ; 0.0
134 ; 2311534.413117065 ; 2.023098235973294E8 ; 3.0394107853575754E8 ; 2.5364678534451313E10 ; 0.0
135 ; 2306132.6620716853 ; 2.0232357324397004E8 ; 3.062526129488746E8 ; 2.556698835804864E10 ; 0.0
136 ; 2300712.4439509874 ; 2.0233729206645772E8 ; 3.085587456109463E8 ; 2.576931193129261E10 ; 0.0
137 ; 2293888.446917769 ; 2.0235097964905754E8 ; 3.108594580548973E8 ; 2.5971649223359066E10 ; 0.0
138 ; 2285864.9285814567 ; 2.0236463558107495E8 ; 3.131533465018151E8 ; 2.6174000203008125E10 ; 0.0
139 ; 2279233.4160571536 ; 2.0237825945670563E8 ; 3.1543921143039656E8 ; 2.63763648385892E10 ; 0.0
140 ; 2275188.9334452054 ; 2.02391850874892E8 ; 3.177184448464537E8 ; 2.6578743098045906E10 ; 0.0
141 ; 2269843.3211165336 ; 2.0240540943918604E8 ; 3.1999363377989894E8 ; 2.67811349489208E10 ; 0.0
142 ; 2261920.3897407665 ; 2.024189347576178E8 ; 3.2226347710101545E8 ; 2.6983540358359985E10 ; 0.0
143 ; 2256483.5746070314 ; 2.0243242644256976E8 ; 3.245253974907562E8 ; 2.7185959293117603E10 ; 0.0
144 ; 2247967.56330767 ; 2.0244588411065638E8 ; 3.267818810653632E8 ; 2.7388391719560173E10 ; 0.0
145 ; 2242920.493679248 ; 2.0245930738260898E8 ; 3.290298486286709E8 ; 2.759083760367083E10 ; 0.0
146 ; 2240234.9389760382 ; 2.0247269588316527E8 ; 3.312727691223501E8 ; 2.779329691105344E10 ; 0.0
147 ; 2236732.6364994496 ; 2.0248604924096373E8 ; 3.3351300406132615E8 ; 2.7995769606936604E10 ; 0.0
148 ; 2234024.1476011868 ; 2.0249936708844224E8 ; 3.357497366978256E8 ; 2.8198255656177567E10 ; 0.0
149 ; 2228320.2816231125 ; 2.0251264906174108E8 ; 3.379837608454268E8 ; 2.840075502326601E10 ; 0.0
150 ; 2228090.3358936184 ; 2.0252589480060992E8 ; 3.402120811270499E8 ; 2.860326767232775E10 ; 0.0
151 ; 2225726.2600415973 ; 2.025391039483186E8 ; 3.4244017146294355E8 ; 2.880579356712836E10 ; 0.0
152 ; 2217188.310325388 ; 2.0255227615157172E8 ; 3.4466589772298515E8 ; 2.900833267107668E10 ; 0.0
153 ; 2215449.1634469447 ; 2.0256541106042653E8 ; 3.4688308603331053E8 ; 2.9210884947228252E10 ; 0.0
154 ; 2211630.7442456526 ; 2.025785083282145E8 ; 3.490985351967575E8 ; 2.9413450358288677E10 ; 0.0
155 ; 2209187.3964235866 ; 2.0259156761146566E8 ; 3.5131016594100314E8 ; 2.961602886661689E10 ; 0.0
156 ; 2204020.4453819045 ; 2.0260458856983644E8 ; 3.535193533374267E8 ; 2.9818620434228355E10 ; 0.0
157 ; 2200056.465537008 ; 2.0261757086604017E8 ; 3.557233737828086E8 ; 3.002122502279819E10 ; 0.0
158 ; 2195889.0370895984 ; 2.0263051416578028E8 ; 3.579234302483456E8 ; 3.022384259366423E10 ; 0.0
159 ; 2193814.038119593 ; 2.026434181376866E8 ; 3.601193192854352E8 ; 3.042647310783001E10 ; 0.0
160 ; 2192446.8559545935 ; 2.026562824532538E8 ; 3.623131333235548E8 ; 3.0629116525967697E10 ; 0.0
161 ; 2183568.9861889705 ; 2.026691067867824E8 ; 3.645055801795094E8 ; 3.083177280842095E10 ; 0.0
162 ; 2181220.175455768 ; 2.0268189081532225E8 ; 3.6668914916569835E8 ; 3.1034441915207733E10 ; 0.0
163 ; 2179271.758962504 ; 2.0269463421861807E8 ; 3.688703693411541E8 ; 3.1237123806023056E10 ; 0.0
164 ; 2173175.3136372147 ; 2.0270733667905733E8 ; 3.710496411001166E8 ; 3.1439818440241673E10 ; 0.0
165 ; 2169042.520559759 ; 2.0271999788161993E8 ; 3.732228164137538E8 ; 3.164252577692073E10 ; 0.0
166 ; 2168188.5603269297 ; 2.0273261751383013E8 ; 3.753918589343136E8 ; 3.184524577480235E10 ; 0.0
167 ; 2164147.589888857 ; 2.0274519526571023E8 ; 3.775600474946405E8 ; 3.2047978392316177E10 ; 0.0
168 ; 2162603.4365615845 ; 2.0275773082973593E8 ; 3.797241950845294E8 ; 3.2250723587581886E10 ; 0.0
169 ; 2155363.347544791 ; 2.0277022390079376E8 ; 3.81886798521091E8 ; 3.245348131841162E10 ; 0.0
170 ; 2151739.363533686 ; 2.0278267417613974E8 ; 3.840421618686358E8 ; 3.2656251542312416E10 ; 0.0
171 ; 2147359.97380543 ; 2.0279508135536012E8 ; 3.8619390123216945E8 ; 3.2859034216488556E10 ; 0.0
172 ; 2145404.654233924 ; 2.0280744514033312E8 ; 3.883412612059749E8 ; 3.3061829297843918E10 ; 0.0
173 ; 2140899.4417076786 ; 2.028197652351927E8 ; 3.904866658602088E8 ; 3.326463674298425E10 ; 0.0
174 ; 2137079.805293996 ; 2.0283204134629312E8 ; 3.926275653019165E8 ; 3.346745650821944E10 ; 0.0
175 ; 2134148.6170474845 ; 2.028442731821755E8 ; 3.9476464510721046E8 ; 3.3670288549565735E10 ; 0.0
176 ; 2134222.577076785 ; 2.0285646045353508E8 ; 3.9689879372425795E8 ; 3.387313282274791E10 ; 0.0
177 ; 2128912.482359292 ; 2.028686028731902E8 ; 3.9903301630133474E8 ; 3.4075989283201447E10 ; 0.0
178 ; 2126528.365344006 ; 2.0288070015605208E8 ; 4.01161928783694E8 ; 3.427885788607464E10 ; 0.0
179 ; 2122943.6764210095 ; 2.028927520190961E8 ; 4.03288457149038E8 ; 3.448173858623069E10 ; 0.0
180 ; 2122234.6997905774 ; 2.02904758181334E8 ; 4.05411400825459E8 ; 3.468463133824979E10 ; 0.0
181 ; 2120152.814430239 ; 2.0291671836378697E8 ; 4.075336355252496E8 ; 3.488753609643112E10 ; 0.0
182 ; 2113195.797936034 ; 2.029286322894602E8 ; 4.0965378833967984E8 ; 3.509045281479491E10 ; 0.0
183 ; 2113014.7501053587 ; 2.0294049968331802E8 ; 4.1176698413761586E8 ; 3.5293381447084366E10 ; 0.0
184 ; 2110323.8792416127 ; 2.0295232027226004E8 ; 4.1387999888772124E8 ; 3.5496321946767685E10 ; 0.0
185 ; 2105844.6515191603 ; 2.0296409378509846E8 ; 4.159903227669628E8 ; 3.569927426703995E10 ; 0.0
186 ; 2104703.0514986482 ; 2.0297581995253593E8 ; 4.18096167418482E8 ; 3.590223836082504E10 ; 0.0
187 ; 2099509.8859977834 ; 2.0298749850714427E8 ; 4.2020087046998066E8 ; 3.610521418077758E10 ; 0.0
188 ; 2099698.725770309 ; 2.029991291833444E8 ; 4.223003803559784E8 ; 3.630820167928472E10 ; 0.0
189 ; 2093960.8916600505 ; 2.0301071171738636E8 ; 4.244000790817487E8 ; 3.651120080846806E10 ; 0.0
190 ; 2091853.920374721 ; 2.030222458473308E8 ; 4.2649403997340876E8 ; 3.671421152018545E10 ; 0.0
191 ; 2090808.7726627123 ; 2.0303373131303057E8 ; 4.2858589389378345E8 ; 3.6917233766032776E10 ; 0.0
192 ; 2085853.785562207 ; 2.030451678561134E8 ; 4.3067670266644615E8 ; 3.712026749734581E10 ; 0.0
193 ; 2083808.8202372468 ; 2.0305655521996513E8 ; 4.3276255645200837E8 ; 3.732331266520192E10 ; 0.0
194 ; 2079066.0249472468 ; 2.030678931497134E8 ; 4.348463652722456E8 ; 3.752636922042188E10 ; 0.0
195 ; 2080047.569665664 ; 2.0307918139221236E8 ; 4.369254312971928E8 ; 3.7729437113571594E10 ; 0.0
196 ; 2074822.8680420509 ; 2.030904196960275E8 ; 4.390054788668585E8 ; 3.7932516294963806E10 ; 0.0
197 ; 2073639.881200028 ; 2.0310160781142136E8 ; 4.4108030173490053E8 ; 3.8135606714659836E10 ; 0.0
198 ; 2071831.6540000578 ; 2.031127454903398E8 ; 4.4315394161610055E8 ; 3.833870832247126E10 ; 0.0
199 ; 2067523.907903601 ; 2.0312383248639852E8 ; 4.452257732701006E8 ; 3.85418210679616E10 ; 0.0
200 ; 2066599.1999095776 ; 2.0313486855487046E8 ; 4.472932971780042E8 ; 3.8744944900448E10 ; 0.0
