CSV File for the City 1 on Day 28
1 - Minute m 
2 - Power Consumed at minute m 
3 - Power Produced at minute m 
4 - Energy Consumed since the beginning of the day 
5 - Energy Produced since the beginning of the day 
6 - Energy Lost since the beginning of the day on lines starting from the city
 
0 ; 1.5977316269882651E7 ; 1.0525395816978952E8 ; 0.0 ; 0.0 ; 0.0
1 ; 1.5992519800579028E7 ; 1.054049536696558E8 ; 1.5977316269882651E7 ; 1.0525395816978952E8 ; 0.0
2 ; 1.6008551673130631E7 ; 1.0586483180850819E8 ; 3.196983607046168E7 ; 2.1065891183944532E8 ; 0.0
3 ; 1.6030304405085674E7 ; 1.0663361954670197E8 ; 4.797838774359231E7 ; 3.165237436479535E8 ; 0.0
4 ; 1.6052655284947706E7 ; 1.0771134508397716E8 ; 6.400869214867798E7 ; 4.231573631946555E8 ; 0.0
5 ; 1.6078958793775424E7 ; 1.0909803706928676E8 ; 8.006134743362568E7 ; 5.3086870827863264E8 ; 0.0
6 ; 1.6120652910429088E7 ; 1.1079372351710275E8 ; 9.614030622740111E7 ; 6.399667453479195E8 ; 0.0
7 ; 1.6176918290423345E7 ; 1.1279843045784438E8 ; 1.122609591378302E8 ; 7.507604688650222E8 ; 0.0
8 ; 1.6251607682758393E7 ; 1.151121804144947E8 ; 1.2843787742825355E8 ; 8.635588993228666E8 ; 0.0
9 ; 1.6370609765081711E7 ; 1.1773499086691105E8 ; 1.4468948511101195E8 ; 9.786710797373612E8 ; 0.0
10 ; 1.655264722565343E7 ; 1.2066687291673261E8 ; 1.6106009487609366E8 ; 1.0964060706042724E9 ; 0.0
11 ; 1.6840190685969025E7 ; 1.2390783037308392E8 ; 1.776127421017471E8 ; 1.217072943521005E9 ; 0.0
12 ; 1.7304062319763746E7 ; 1.274578594268404E8 ; 1.9445293278771612E8 ; 1.3409807738940887E9 ; 0.0
13 ; 1.7748729263448708E7 ; 1.3131694897636288E8 ; 2.1175699510747987E8 ; 1.468438633320929E9 ; 0.0
14 ; 1.7802979104766455E7 ; 1.3548508154179412E8 ; 2.295057243709286E8 ; 1.599755582297292E9 ; 0.0
15 ; 1.7820888022413705E7 ; 1.3996223460015094E8 ; 2.4730870347569504E8 ; 1.735240663839086E9 ; 0.0
16 ; 1.7847016949235596E7 ; 1.447483821210142E8 ; 2.6512959149810874E8 ; 1.875202898439237E9 ; 0.0
17 ; 1.7865983653084505E7 ; 1.4984349608991185E8 ; 2.8297660844734436E8 ; 2.0199512805602512E9 ; 0.0
18 ; 1.7884933005120568E7 ; 1.552475478578909E8 ; 3.008425921004289E8 ; 2.169794776650163E9 ; 0.0
19 ; 1.7906992641322687E7 ; 1.6096050922521135E8 ; 3.1872752510554945E8 ; 2.3250423245080543E9 ; 0.0
20 ; 1.7928730626100052E7 ; 1.6698235323151788E8 ; 3.366345177468721E8 ; 2.4860028337332654E9 ; 0.0
21 ; 1.7945753541996464E7 ; 1.7331305467135397E8 ; 3.545632483729722E8 ; 2.652985186964783E9 ; 0.0
22 ; 1.796643294647615E7 ; 1.7995259037974733E8 ; 3.7250900191496867E8 ; 2.826298241636137E9 ; 0.0
23 ; 1.7986223329709057E7 ; 1.869009393414622E8 ; 3.9047543486144483E8 ; 3.0062508320158844E9 ; 0.0
24 ; 1.8013290326879002E7 ; 1.9415808267526698E8 ; 4.084616581911539E8 ; 3.1931517713573465E9 ; 0.0
25 ; 1.8033750765699856E7 ; 2.0041204443482983E8 ; 4.264749485180329E8 ; 3.3873098540326138E9 ; 0.0
26 ; 1.80540292589768E7 ; 2.004163575004747E8 ; 4.445086992837328E8 ; 3.5877218984674435E9 ; 0.0
27 ; 1.80726882521406E7 ; 2.004207779355386E8 ; 4.625627285427096E8 ; 3.7881382559679184E9 ; 0.0
28 ; 1.809627380622146E7 ; 2.004252940578695E8 ; 4.806354167948502E8 ; 3.988559033903457E9 ; 0.0
29 ; 1.811665494391595E7 ; 2.0042989556174448E8 ; 4.9873169060107166E8 ; 4.1889843279613266E9 ; 0.0
30 ; 1.813212845020115E7 ; 2.00434573356796E8 ; 5.168483455449876E8 ; 4.389414223523071E9 ; 0.0
31 ; 1.815534478754738E7 ; 2.004393194204709E8 ; 5.349804739951888E8 ; 4.589848796879868E9 ; 0.0
32 ; 1.8176884124762088E7 ; 2.004441266653002E8 ; 5.531358187827362E8 ; 4.790288116300339E9 ; 0.0
33 ; 1.8187496013844278E7 ; 2.0044898882100046E8 ; 5.713127029074982E8 ; 4.990732242965639E9 ; 0.0
34 ; 1.82084036487385E7 ; 2.004539003306869E8 ; 5.895001989213425E8 ; 5.191181231786639E9 ; 0.0
35 ; 1.822555969743804E7 ; 2.0045885626008466E8 ; 6.07708602570081E8 ; 5.391635132117326E9 ; 0.0
36 ; 1.8242686068746734E7 ; 2.0046385221845394E8 ; 6.25934162267519E8 ; 5.592093988377411E9 ; 0.0
37 ; 1.8255332707386922E7 ; 2.0046888428991452E8 ; 6.441768483362657E8 ; 5.792557840595865E9 ; 0.0
38 ; 1.827212412137589E7 ; 2.004739489739048E8 ; 6.624321810436527E8 ; 5.993026724885779E9 ; 0.0
39 ; 1.8285982231193982E7 ; 2.004790431336044E8 ; 6.807043051650286E8 ; 6.193500673859684E9 ; 0.0
40 ; 1.830237621082077E7 ; 2.004841639512642E8 ; 6.989902873962226E8 ; 6.393979716993288E9 ; 0.0
41 ; 1.831052401345102E7 ; 2.0048930888950527E8 ; 7.172926636070434E8 ; 6.594463880944552E9 ; 0.0
42 ; 1.8327073793569107E7 ; 2.0049447565776473E8 ; 7.356031876204944E8 ; 6.794953189834058E9 ; 0.0
43 ; 1.8339826601999693E7 ; 2.0049966218317378E8 ; 7.539302614140635E8 ; 6.995447665491822E9 ; 0.0
44 ; 1.835074415130249E7 ; 2.0050486658524898E8 ; 7.722700880160631E8 ; 7.195947327674996E9 ; 0.0
45 ; 1.836034528936176E7 ; 2.0051008715386608E8 ; 7.906208321673656E8 ; 7.396452194260245E9 ; 0.0
46 ; 1.8374051781508442E7 ; 2.0051532233005872E8 ; 8.089811774567273E8 ; 7.596962281414111E9 ; 0.0
47 ; 1.8377686958511703E7 ; 2.0052057068925154E8 ; 8.273552292382357E8 ; 7.79747760374417E9 ; 0.0
48 ; 1.8385622628007397E7 ; 2.0052583092659226E8 ; 8.457329161967474E8 ; 7.997998174433422E9 ; 0.0
49 ; 1.8389917173767976E7 ; 2.0053110184409666E8 ; 8.641185388247548E8 ; 8.198524005360014E9 ; 0.0
50 ; 1.839820190307007E7 ; 2.0053638233936107E8 ; 8.825084559985228E8 ; 8.399055107204111E9 ; 0.0
51 ; 1.840335542033513E7 ; 2.0054167139563227E8 ; 9.009066579015929E8 ; 8.599591489543472E9 ; 0.0
52 ; 1.8408039973509207E7 ; 2.0054696807305494E8 ; 9.19310013321928E8 ; 8.800133160939104E9 ; 0.0
53 ; 1.841159629683476E7 ; 2.0055227150094268E8 ; 9.377180532954372E8 ; 9.00068012901216E9 ; 0.0
54 ; 1.8414565046176553E7 ; 2.0055758087093934E8 ; 9.561296495922719E8 ; 9.201232400513102E9 ; 0.0
55 ; 1.8422164548703745E7 ; 2.0056289543095747E8 ; 9.745442146384485E8 ; 9.40178998138404E9 ; 0.0
56 ; 1.8424341881491125E7 ; 2.0056821447979522E8 ; 9.929663791871523E8 ; 9.602352876814999E9 ; 0.0
57 ; 1.843088839606319E7 ; 2.005735373623469E8 ; 1.0113907210686433E9 ; 9.802921091294794E9 ; 0.0
58 ; 1.8434307230212044E7 ; 2.0057886346533465E8 ; 1.0298216094647065E9 ; 1.000349462865714E10 ; 0.0
59 ; 1.843898004624726E7 ; 2.0058419221349725E8 ; 1.0482559166949186E9 ; 1.0204073492122475E10 ; 0.0
60 ; 1.844340656384459E7 ; 2.005895230661813E8 ; 1.0666948967411659E9 ; 1.0404657684335972E10 ; 0.0
61 ; 1.844541291971376E7 ; 2.0059485551428753E8 ; 1.0851383033050106E9 ; 1.0605247207402153E10 ; 0.0
62 ; 1.8446163703515336E7 ; 2.0060018907753015E8 ; 1.1035837162247243E9 ; 1.0805842062916441E10 ; 0.0
63 ; 1.845369473768746E7 ; 2.006055233019735E8 ; 1.1220298799282396E9 ; 1.100644225199397E10 ; 0.0
64 ; 1.845428265340393E7 ; 2.0061085775781426E8 ; 1.140483574665927E9 ; 1.1207047775295944E10 ; 0.0
65 ; 1.8459763259850007E7 ; 2.006161920373818E8 ; 1.158937857319331E9 ; 1.1407658633053759E10 ; 0.0
66 ; 1.8462871787593678E7 ; 2.0062152575333226E8 ; 1.177397620579181E9 ; 1.160827482509114E10 ; 0.0
67 ; 1.8463579164559484E7 ; 2.006268585370153E8 ; 1.1958604923667746E9 ; 1.1808896350844473E10 ; 0.0
68 ; 1.8462223218394287E7 ; 2.0063219003699484E8 ; 1.214324071531334E9 ; 1.2009523209381489E10 ; 0.0
69 ; 1.846357656659956E7 ; 2.0063751991770744E8 ; 1.2327862947497282E9 ; 1.2210155399418484E10 ; 0.0
70 ; 1.8468679231812324E7 ; 2.006428478582438E8 ; 1.2512498713163278E9 ; 1.2410792919336191E10 ; 0.0
71 ; 1.847144950335207E7 ; 2.0064817355124027E8 ; 1.26971855054814E9 ; 1.2611435767194435E10 ; 0.0
72 ; 1.8474208715485048E7 ; 2.0065349670187E8 ; 1.2881900000514922E9 ; 1.2812083940745676E10 ; 0.0
73 ; 1.8473728805202924E7 ; 2.0065881702692237E8 ; 1.3066642087669773E9 ; 1.3012737437447546E10 ; 0.0
74 ; 1.8473048423432283E7 ; 2.0066413425396296E8 ; 1.3251379375721803E9 ; 1.3213396254474468E10 ; 0.0
75 ; 1.8473483636970796E7 ; 2.0066944812056556E8 ; 1.3436109859956126E9 ; 1.3414060388728432E10 ; 0.0
76 ; 1.8471718124837328E7 ; 2.0067475837360933E8 ; 1.3620844696325834E9 ; 1.3614729836848997E10 ; 0.0
77 ; 1.847004893524368E7 ; 2.0068006476863483E8 ; 1.3805561877574208E9 ; 1.3815404595222607E10 ; 0.0
78 ; 1.8471136023308437E7 ; 2.006853670692533E8 ; 1.3990262366926644E9 ; 1.4016084659991241E10 ; 0.0
79 ; 1.8463053880248513E7 ; 2.006906650466043E8 ; 1.417497372715973E9 ; 1.4216770027060495E10 ; 0.0
80 ; 1.8456057051977158E7 ; 2.0069595847885704E8 ; 1.4359604265962214E9 ; 1.44174606921071E10 ; 0.0
81 ; 1.8451359258715693E7 ; 2.0070124715075147E8 ; 1.4544164836481986E9 ; 1.4618156650585957E10 ; 0.0
82 ; 1.8450540353379067E7 ; 2.0070653085317555E8 ; 1.4728678429069142E9 ; 1.4818857897736708E10 ; 0.0
83 ; 1.8445388170023307E7 ; 2.0071180938277563E8 ; 1.4913183832602932E9 ; 1.5019564428589884E10 ; 0.0
84 ; 1.8434105221401438E7 ; 2.0071708254159647E8 ; 1.5097637714303164E9 ; 1.522027623797266E10 ; 0.0
85 ; 1.842769942059791E7 ; 2.00722350136749E8 ; 1.528197876651718E9 ; 1.5420993320514257E10 ; 0.0
86 ; 1.842208157310668E7 ; 2.0072761198010284E8 ; 1.5466255760723157E9 ; 1.5621715670651007E10 ; 0.0
87 ; 1.8417917550431456E7 ; 2.0073286788800186E8 ; 1.5650476576454225E9 ; 1.582244328263111E10 ; 0.0
88 ; 1.8413822323510576E7 ; 2.0073811768100056E8 ; 1.583465575195854E9 ; 1.6023176150519112E10 ; 0.0
89 ; 1.8399748508193865E7 ; 2.007433611836198E8 ; 1.6018793975193646E9 ; 1.6223914268200111E10 ; 0.0
90 ; 1.8392779942425113E7 ; 2.0074859822411987E8 ; 1.6202791460275586E9 ; 1.6424657629383732E10 ; 0.0
91 ; 1.8386086314055253E7 ; 2.0075382863428998E8 ; 1.6386719259699836E9 ; 1.6625406227607851E10 ; 0.0
92 ; 1.837634555496811E7 ; 2.0075905224925244E8 ; 1.6570580122840388E9 ; 1.6826160056242142E10 ; 0.0
93 ; 1.8370926792542055E7 ; 2.0076426890728056E8 ; 1.675434357839007E9 ; 1.7026919108491394E10 ; 0.0
94 ; 1.8364433846126296E7 ; 2.0076947844962916E8 ; 1.693805284631549E9 ; 1.7227683377398674E10 ; 0.0
95 ; 1.8356149196240865E7 ; 2.007746807203766E8 ; 1.7121697184776752E9 ; 1.7428452855848305E10 ; 0.0
96 ; 1.8344874673939448E7 ; 2.007798755662776E8 ; 1.730525867673916E9 ; 1.762922753656868E10 ; 0.0
97 ; 1.833765940535455E7 ; 2.007850628366257E8 ; 1.7488707423478556E9 ; 1.7830007412134956E10 ; 0.0
98 ; 1.8327989799490966E7 ; 2.0079024238312528E8 ; 1.76720840175321E9 ; 1.803079247497158E10 ; 0.0
99 ; 1.8319148918109506E7 ; 2.0079541405977154E8 ; 1.785536391552701E9 ; 1.8231582717354706E10 ; 0.0
100 ; 1.831440293509402E7 ; 2.0080057772273865E8 ; 1.8038555404708104E9 ; 1.843237813141448E10 ; 0.0
101 ; 1.8301096753878616E7 ; 2.008057332302749E8 ; 1.8221699434059045E9 ; 1.863317870913722E10 ; 0.0
102 ; 1.8292960781358946E7 ; 2.008108804426046E8 ; 1.8404710401597831E9 ; 1.8833984442367493E10 ; 0.0
103 ; 1.8280218902036652E7 ; 2.0081601922183636E8 ; 1.858764000941142E9 ; 1.9034795322810097E10 ; 0.0
104 ; 1.827081462744534E7 ; 2.00821149431877E8 ; 1.8770442198431787E9 ; 1.9235611342031933E10 ; 0.0
105 ; 1.826423821478972E7 ; 2.0082627093835077E8 ; 1.895315034470624E9 ; 1.943643249146381E10 ; 0.0
106 ; 1.8253546407338317E7 ; 2.008313836085237E8 ; 1.9135792726854136E9 ; 1.963725876240216E10 ; 0.0
107 ; 1.824308296406894E7 ; 2.0083648731123257E8 ; 1.931832819092752E9 ; 1.9838090146010685E10 ; 0.0
108 ; 1.823401134104891E7 ; 2.0084158191681805E8 ; 1.9500759020568209E9 ; 2.003892663332192E10 ; 0.0
109 ; 1.821991633263215E7 ; 2.0084666729706216E8 ; 1.9683099133978698E9 ; 2.0239768215238735E10 ; 0.0
110 ; 1.8208695563659675E7 ; 2.008517433251291E8 ; 1.986529829730502E9 ; 2.0440614882535797E10 ; 0.0
111 ; 1.8198506150507383E7 ; 2.0085680987550995E8 ; 2.0047385252941616E9 ; 2.0641466625860928E10 ; 0.0
112 ; 1.8186956166949876E7 ; 2.0086186682397044E8 ; 2.022937031444669E9 ; 2.084232343573644E10 ; 0.0
113 ; 1.8174346982336607E7 ; 2.0086691404750174E8 ; 2.041123987611619E9 ; 2.104318530256041E10 ; 0.0
114 ; 1.8162328914787598E7 ; 2.0087195142427433E8 ; 2.0592983345939555E9 ; 2.124405221660791E10 ; 0.0
115 ; 1.8153525054739386E7 ; 2.0087697883359423E8 ; 2.077460663508743E9 ; 2.1444924168032185E10 ; 0.0
116 ; 1.813741766886855E7 ; 2.00881996155862E8 ; 2.0956141885634825E9 ; 2.164580114686578E10 ; 0.0
117 ; 1.8127294556855347E7 ; 2.0088700327253395E8 ; 2.113751606232351E9 ; 2.184668314302164E10 ; 0.0
118 ; 1.8117501419382345E7 ; 2.0089200006608558E8 ; 2.1318789007892065E9 ; 2.2047570146294174E10 ; 0.0
119 ; 1.8098684452000573E7 ; 2.00896986419977E8 ; 2.149996402208589E9 ; 2.224846214636026E10 ; 0.0
120 ; 1.8089435550414756E7 ; 2.0090196221862042E8 ; 2.1680950866605897E9 ; 2.2449359132780235E10 ; 0.0
121 ; 1.8076449381147057E7 ; 2.0090692734734938E8 ; 2.1861845222110043E9 ; 2.2650261094998856E10 ; 0.0
122 ; 1.806636037081835E7 ; 2.0091188169238955E8 ; 2.204260971592151E9 ; 2.2851168022346207E10 ; 0.0
123 ; 1.8047731110034358E7 ; 2.0091682514083144E8 ; 2.2223273319629693E9 ; 2.3052079904038597E10 ; 0.0
124 ; 1.8035792499218628E7 ; 2.0092175758060426E8 ; 2.240375063073004E9 ; 2.325299672917943E10 ; 0.0
125 ; 1.8023324552881364E7 ; 2.0092667890045145E8 ; 2.258410855572222E9 ; 2.3453918486760033E10 ; 0.0
126 ; 1.8005949953424666E7 ; 2.0093158898990744E8 ; 2.2764341801251035E9 ; 2.3654845165660484E10 ; 0.0
127 ; 1.7991968992284834E7 ; 2.0093648773927563E8 ; 2.294440130078528E9 ; 2.385577675465039E10 ; 0.0
128 ; 1.7979593361936364E7 ; 2.0094137503960758E8 ; 2.3124320990708127E9 ; 2.4056713242389668E10 ; 0.0
129 ; 1.7964265225435425E7 ; 2.0094625078268334E8 ; 2.3304116924327493E9 ; 2.4257654617429276E10 ; 0.0
130 ; 1.794897789662461E7 ; 2.0095111486099288E8 ; 2.3483759576581845E9 ; 2.445860086821196E10 ; 0.0
131 ; 1.792898301946147E7 ; 2.0095596716771826E8 ; 2.366324935554809E9 ; 2.4659551983072952E10 ; 0.0
132 ; 1.790791477468029E7 ; 2.0096080759671703E8 ; 2.3842539185742707E9 ; 2.486050795024067E10 ; 0.0
133 ; 1.788520132548263E7 ; 2.0096563604250643E8 ; 2.402161833348951E9 ; 2.5061468757837387E10 ; 0.0
134 ; 1.7863550321609903E7 ; 2.0097045240024817E8 ; 2.4200470346744337E9 ; 2.5262434393879894E10 ; 0.0
135 ; 1.7842824512877043E7 ; 2.0097525656573442E8 ; 2.4379105849960437E9 ; 2.5463404846280144E10 ; 0.0
136 ; 1.782520858226195E7 ; 2.0098004843537426E8 ; 2.4557534095089207E9 ; 2.566438010284588E10 ; 0.0
137 ; 1.779773059754915E7 ; 2.0098482790618077E8 ; 2.4735786180911827E9 ; 2.5865360151281254E10 ; 0.0
138 ; 1.777957591286316E7 ; 2.009895948757591E8 ; 2.4913763486887317E9 ; 2.6066344979187435E10 ; 0.0
139 ; 1.7760841834267598E7 ; 2.0099434924229485E8 ; 2.509155924601595E9 ; 2.6267334574063194E10 ; 0.0
140 ; 1.773219154465549E7 ; 2.0099909090454325E8 ; 2.5269167664358625E9 ; 2.646832892330549E10 ; 0.0
141 ; 1.7714421961086217E7 ; 2.0100381976181877E8 ; 2.544648957980518E9 ; 2.6669328014210033E10 ; 0.0
142 ; 1.7692568445831783E7 ; 2.0100853571398532E8 ; 2.562363379941604E9 ; 2.687033183397185E10 ; 0.0
143 ; 1.7666807576761793E7 ; 2.0101323866144705E8 ; 2.580055948387436E9 ; 2.7071340369685837E10 ; 0.0
144 ; 1.7646349922997355E7 ; 2.010179285051394E8 ; 2.5977227559641976E9 ; 2.7272353608347282E10 ; 0.0
145 ; 1.762724971398591E7 ; 2.0102260514652088E8 ; 2.615369105887195E9 ; 2.747337153685242E10 ; 0.0
146 ; 1.7614493727150247E7 ; 2.0102726848756507E8 ; 2.632996355601181E9 ; 2.7674394141998943E10 ; 0.0
147 ; 1.759701740881564E7 ; 2.0103191843075308E8 ; 2.6506108493283315E9 ; 2.7875421410486507E10 ; 0.0
148 ; 1.7582969448199425E7 ; 2.0103655487906653E8 ; 2.6682078667371473E9 ; 2.807645332891726E10 ; 0.0
149 ; 1.7562144391933177E7 ; 2.0104117773598066E8 ; 2.6857908361853466E9 ; 2.8277489883796326E10 ; 0.0
150 ; 1.7548471604738265E7 ; 2.010457869054581E8 ; 2.7033529805772796E9 ; 2.8478531061532307E10 ; 0.0
151 ; 1.753847536621999E7 ; 2.010503822919426E8 ; 2.720901452182018E9 ; 2.8679576848437763E10 ; 0.0
152 ; 1.751527133210544E7 ; 2.0105496380035347E8 ; 2.738439927548238E9 ; 2.8880627230729706E10 ; 0.0
153 ; 1.7501191752326656E7 ; 2.0105953133608E8 ; 2.7559551988803434E9 ; 2.908168219453006E10 ; 0.0
154 ; 1.7482195090686735E7 ; 2.0106408480497637E8 ; 2.77345639063267E9 ; 2.928274172586614E10 ; 0.0
155 ; 1.74694471009513E7 ; 2.010686241133567E8 ; 2.7909385857233567E9 ; 2.9483805810671116E10 ; 0.0
156 ; 1.7452757991700917E7 ; 2.0107314916799054E8 ; 2.808408032824308E9 ; 2.9684874434784473E10 ; 0.0
157 ; 1.7436155320545677E7 ; 2.010776598760983E8 ; 2.825860790816009E9 ; 2.9885947583952465E10 ; 0.0
158 ; 1.7417475447362736E7 ; 2.0108215614534733E8 ; 2.8432969461365547E9 ; 3.0087025243828564E10 ; 0.0
159 ; 1.740016070324366E7 ; 2.0108663788384777E8 ; 2.8607144215839176E9 ; 3.028810739997391E10 ; 0.0
160 ; 1.738155201709821E7 ; 2.010911050001491E8 ; 2.8781145822871614E9 ; 3.0489194037857758E10 ; 0.0
161 ; 1.736497916417111E7 ; 2.0109555740323645E8 ; 2.89549613430426E9 ; 3.0690285142857906E10 ; 0.0
162 ; 1.734917028620081E7 ; 2.0109999500252727E8 ; 2.912861113468431E9 ; 3.0891380700261143E10 ; 0.0
163 ; 1.7331766600434132E7 ; 2.011044177078684E8 ; 2.930210283754632E9 ; 3.109248069526367E10 ; 0.0
164 ; 1.7315839355123598E7 ; 2.01108825429533E8 ; 2.9475420503550663E9 ; 3.129358511297154E10 ; 0.0
165 ; 1.729693444532845E7 ; 2.0111321807821777E8 ; 2.96485788971019E9 ; 3.149469393840107E10 ; 0.0
166 ; 1.728047519955561E7 ; 2.0111759556504035E8 ; 2.982154824155518E9 ; 3.1695807156479286E10 ; 0.0
167 ; 1.7261883594553377E7 ; 2.011219578015369E8 ; 2.9994352993550735E9 ; 3.1896924752044327E10 ; 0.0
168 ; 1.7244156609862648E7 ; 2.011263046996597E8 ; 3.016697182949627E9 ; 3.2098046709845863E10 ; 0.0
169 ; 1.7229365145411596E7 ; 2.0113063617177516E8 ; 3.0339413395594897E9 ; 3.2299173014545525E10 ; 0.0
170 ; 1.721372356190063E7 ; 2.0113495213066152E8 ; 3.051170704704901E9 ; 3.25003036507173E10 ; 0.0
171 ; 1.7188305185677376E7 ; 2.0113925248950717E8 ; 3.068384428266802E9 ; 3.270143860284796E10 ; 0.0
172 ; 1.7173744329883147E7 ; 2.0114353716190875E8 ; 3.0855727334524794E9 ; 3.2902577855337467E10 ; 0.0
173 ; 1.7156168972980212E7 ; 2.0114780606186944E8 ; 3.1027464777823625E9 ; 3.3103721392499374E10 ; 0.0
174 ; 1.7147177679675683E7 ; 2.0115205910379755E8 ; 3.1199026467553425E9 ; 3.3304869198561245E10 ; 0.0
175 ; 1.713462947642382E7 ; 2.011562962025049E8 ; 3.137049824435018E9 ; 3.3506021257665043E10 ; 0.0
176 ; 1.7125296124768075E7 ; 2.0116051727320558E8 ; 3.154184453911442E9 ; 3.3707177553867546E10 ; 0.0
177 ; 1.711355755917413E7 ; 2.0116472223151457E8 ; 3.17130975003621E9 ; 3.390833807114075E10 ; 0.0
178 ; 1.7106286790383276E7 ; 2.011689109934468E8 ; 3.188423307595384E9 ; 3.4109502793372265E10 ; 0.0
179 ; 1.709155600162908E7 ; 2.0117308347541586E8 ; 3.2055295943857675E9 ; 3.431067170436571E10 ; 0.0
180 ; 1.7079287417748224E7 ; 2.0117723959423304E8 ; 3.2226211503873963E9 ; 3.4511844787841125E10 ; 0.0
181 ; 1.7069400979810927E7 ; 2.0118137926710656E8 ; 3.239700437805145E9 ; 3.4713022027435356E10 ; 0.0
182 ; 1.7061440861093782E7 ; 2.0118550241164067E8 ; 3.2567698387849555E9 ; 3.491420340670246E10 ; 0.0
183 ; 1.705047217320425E7 ; 2.0118960894583476E8 ; 3.2738312796460495E9 ; 3.5115388909114105E10 ; 0.0
184 ; 1.7043184165111117E7 ; 2.0119369878808293E8 ; 3.290881751819254E9 ; 3.531657851805994E10 ; 0.0
185 ; 1.7032159209241427E7 ; 2.0119777185717314E8 ; 3.307924935984365E9 ; 3.551777221684802E10 ; 0.0
186 ; 1.7022704023078028E7 ; 2.0120182807228684E8 ; 3.3249570951936064E9 ; 3.571896998870519E10 ; 0.0
187 ; 1.7009323922991827E7 ; 2.0120586735299838E8 ; 3.3419797992166843E9 ; 3.592017181677748E10 ; 0.0
188 ; 1.6998086144593537E7 ; 2.0120988961927453E8 ; 3.358989123139676E9 ; 3.612137768413048E10 ; 0.0
189 ; 1.69827596303223E7 ; 2.012138947914743E8 ; 3.37598720928427E9 ; 3.6322587573749756E10 ; 0.0
190 ; 1.6973603429179557E7 ; 2.0121788279034847E8 ; 3.3929699689145923E9 ; 3.652380146854123E10 ; 0.0
191 ; 1.6966218156783964E7 ; 2.0122185353703934E8 ; 3.409943572343772E9 ; 3.672501935133158E10 ; 0.0
192 ; 1.6954947688548025E7 ; 2.0122580695308053E8 ; 3.426909790500556E9 ; 3.692624120486862E10 ; 0.0
193 ; 1.6945849936824378E7 ; 2.012297429603969E8 ; 3.443864738189104E9 ; 3.71274670118217E10 ; 0.0
194 ; 1.693568771169579E7 ; 2.0123366148130423E8 ; 3.4608105881259284E9 ; 3.73286967547821E10 ; 0.0
195 ; 1.6923506543894514E7 ; 2.012375624385094E8 ; 3.477746275837624E9 ; 3.7529930416263405E10 ; 0.0
