CSV File for the City 1 on Day 11
1 - Minute m 
2 - Power Consumed at minute m 
3 - Power Produced at minute m 
4 - Energy Consumed since the beginning of the day 
5 - Energy Produced since the beginning of the day 
6 - Energy Lost since the beginning of the day on lines starting from the city
 
0 ; 1.1849010376093123E7 ; 1.4084313064168667E7 ; 0.0 ; 0.0 ; 0.0
1 ; 1.186256921588553E7 ; 1.4084313064168667E7 ; 1.1849010376093123E7 ; 1.4084313064168667E7 ; 0.0
2 ; 1.1875702940684857E7 ; 1.4084313064168667E7 ; 2.3711579591978654E7 ; 2.8168626128337335E7 ; 0.0
3 ; 1.189141443095569E7 ; 1.4084313064168667E7 ; 3.558728253266351E7 ; 4.2252939192506E7 ; 0.0
4 ; 1.1906855675794523E7 ; 1.4084313064168667E7 ; 4.74786969636192E7 ; 5.633725225667467E7 ; 0.0
5 ; 1.192823124048431E7 ; 1.4084313064168667E7 ; 5.938555263941373E7 ; 7.042156532084334E7 ; 0.0
6 ; 1.1961051495976854E7 ; 1.4084313064168667E7 ; 7.131378387989804E7 ; 8.4505878385012E7 ; 0.0
7 ; 1.1996314159594374E7 ; 1.4084313064168667E7 ; 8.327483537587489E7 ; 9.859019144918066E7 ; 0.0
8 ; 1.2053879267222371E7 ; 1.4084313064168667E7 ; 9.527114953546926E7 ; 1.1267450451334932E8 ; 0.0
9 ; 1.2144120364631979E7 ; 1.4084313064168667E7 ; 1.0732502880269164E8 ; 1.2675881757751799E8 ; 0.0
10 ; 1.2281472319870956E7 ; 1.4084313064168667E7 ; 1.1946914916732362E8 ; 1.4084313064168665E8 ; 0.0
11 ; 1.2498244255809624E7 ; 1.4084313064168667E7 ; 1.3175062148719457E8 ; 1.549274437058553E8 ; 0.0
12 ; 1.283876395381509E7 ; 1.4084313064168667E7 ; 1.442488657430042E8 ; 1.6901175677002397E8 ; 0.0
13 ; 1.3171985988638705E7 ; 1.4084313064168667E7 ; 1.570876296968193E8 ; 1.8309606983419263E8 ; 0.0
14 ; 1.3214691983625649E7 ; 1.4084313064168667E7 ; 1.70259615685458E8 ; 1.971803828983613E8 ; 0.0
15 ; 1.3227819007012796E7 ; 1.4084313064168667E7 ; 1.8347430766908365E8 ; 2.1126469596252996E8 ; 0.0
16 ; 1.3242490612951128E7 ; 1.4084313064168667E7 ; 1.9670212667609644E8 ; 2.2534900902669862E8 ; 0.0
17 ; 1.3257509418182261E7 ; 1.4084313064168667E7 ; 2.0994461728904757E8 ; 2.3943332209086728E8 ; 0.0
18 ; 1.3276703090179274E7 ; 1.4084313064168667E7 ; 2.2320212670722982E8 ; 2.5351763515503594E8 ; 0.0
19 ; 1.328956011414254E7 ; 1.4084313064168667E7 ; 2.364788297974091E8 ; 2.676019482192046E8 ; 0.0
20 ; 1.33046191620803E7 ; 1.4084313064168667E7 ; 2.4976838991155162E8 ; 2.816862612833733E8 ; 0.0
21 ; 1.3323015723754028E7 ; 1.4084313064168667E7 ; 2.630730090736319E8 ; 2.95770574347542E8 ; 0.0
22 ; 1.3336285895681646E7 ; 1.4084313064168667E7 ; 2.7639602479738593E8 ; 3.098548874117107E8 ; 0.0
23 ; 1.3352390635232167E7 ; 1.4084313064168667E7 ; 2.8973231069306755E8 ; 3.239392004758794E8 ; 0.0
24 ; 1.337165769385093E7 ; 1.4084313064168667E7 ; 3.030847013282997E8 ; 3.3802351354004806E8 ; 0.0
25 ; 1.3384962611701563E7 ; 1.4084313064168667E7 ; 3.1645635902215064E8 ; 3.5210782660421675E8 ; 0.0
26 ; 1.3399364034923403E7 ; 1.4084313064168667E7 ; 3.298413216338522E8 ; 3.6619213966838545E8 ; 0.0
27 ; 1.3414182774439977E7 ; 1.4084313064168667E7 ; 3.4324068566877556E8 ; 3.8027645273255414E8 ; 0.0
28 ; 1.342756664856774E7 ; 1.4084313064168667E7 ; 3.5665486844321555E8 ; 3.943607657967228E8 ; 0.0
29 ; 1.3442462130528897E7 ; 1.4084313064168667E7 ; 3.700824350917833E8 ; 4.084450788608915E8 ; 0.0
30 ; 1.3458139419653675E7 ; 1.4084313064168667E7 ; 3.835248972223122E8 ; 4.225293919250602E8 ; 0.0
31 ; 1.346885201503268E7 ; 1.4084313064168667E7 ; 3.9698303664196587E8 ; 4.366137049892289E8 ; 0.0
32 ; 1.3488823355573768E7 ; 1.4084313064168667E7 ; 4.104518886569986E8 ; 4.506980180533976E8 ; 0.0
33 ; 1.3500434035604248E7 ; 1.4084313064168667E7 ; 4.2394071201257235E8 ; 4.647823311175663E8 ; 0.0
34 ; 1.351215981969518E7 ; 1.4084313064168667E7 ; 4.374411460481766E8 ; 4.78866644181735E8 ; 0.0
35 ; 1.3526459274229607E7 ; 1.4084313064168667E7 ; 4.5095330586787176E8 ; 4.929509572459037E8 ; 0.0
36 ; 1.3538716083138471E7 ; 1.4084313064168667E7 ; 4.6447976514210135E8 ; 5.0703527031007236E8 ; 0.0
37 ; 1.3549893086307071E7 ; 1.4084313064168667E7 ; 4.780184812252398E8 ; 5.2111958337424105E8 ; 0.0
38 ; 1.3560812001067676E7 ; 1.4084313064168667E7 ; 4.9156837431154686E8 ; 5.3520389643840975E8 ; 0.0
39 ; 1.3571172143275253E7 ; 1.4084313064168667E7 ; 5.0512918631261456E8 ; 5.492882095025784E8 ; 0.0
40 ; 1.3581601768823935E7 ; 1.4084313064168667E7 ; 5.187003584558898E8 ; 5.633725225667471E8 ; 0.0
41 ; 1.3591754614852173E7 ; 1.4084313064168667E7 ; 5.3228196022471374E8 ; 5.774568356309158E8 ; 0.0
42 ; 1.3600543299505873E7 ; 1.4084313064168667E7 ; 5.458737148395659E8 ; 5.915411486950845E8 ; 0.0
43 ; 1.3610483521708496E7 ; 1.4084313064168667E7 ; 5.594742581390717E8 ; 6.056254617592531E8 ; 0.0
44 ; 1.3617024624167465E7 ; 1.4084313064168667E7 ; 5.730847416607802E8 ; 6.197097748234218E8 ; 0.0
45 ; 1.3625073219150044E7 ; 1.4084313064168667E7 ; 5.867017662849476E8 ; 6.337940878875905E8 ; 0.0
46 ; 1.3629189163314778E7 ; 1.4084313064168667E7 ; 6.003268395040977E8 ; 6.478784009517592E8 ; 0.0
47 ; 1.3636107340179397E7 ; 1.4084313064168667E7 ; 6.139560286674125E8 ; 6.619627140159279E8 ; 0.0
48 ; 1.3640154129917316E7 ; 1.4084313064168667E7 ; 6.27592136007592E8 ; 6.760470270800966E8 ; 0.0
49 ; 1.364937569928645E7 ; 1.4084313064168667E7 ; 6.412322901375092E8 ; 6.901313401442653E8 ; 0.0
50 ; 1.365091245438913E7 ; 1.4084313064168667E7 ; 6.548816658367957E8 ; 7.04215653208434E8 ; 0.0
51 ; 1.3657234232527744E7 ; 1.4084313064168667E7 ; 6.685325782911848E8 ; 7.182999662726027E8 ; 0.0
52 ; 1.366328404913288E7 ; 1.4084313064168667E7 ; 6.821898125237125E8 ; 7.323842793367714E8 ; 0.0
53 ; 1.3667540680796955E7 ; 1.4084313064168667E7 ; 6.958530965728453E8 ; 7.464685924009401E8 ; 0.0
54 ; 1.3666329162900282E7 ; 1.4084313064168667E7 ; 7.095206372536423E8 ; 7.605529054651088E8 ; 0.0
55 ; 1.366943563364687E7 ; 1.4084313064168667E7 ; 7.231869664165426E8 ; 7.746372185292774E8 ; 0.0
56 ; 1.3676559569136785E7 ; 1.4084313064168667E7 ; 7.368564020501895E8 ; 7.887215315934461E8 ; 0.0
57 ; 1.367710519409492E7 ; 1.4084313064168667E7 ; 7.505329616193262E8 ; 8.028058446576148E8 ; 0.0
58 ; 1.3677406483304517E7 ; 1.4084313064168667E7 ; 7.642100668134211E8 ; 8.168901577217835E8 ; 0.0
59 ; 1.3681032114429822E7 ; 1.4084313064168667E7 ; 7.778874732967256E8 ; 8.309744707859522E8 ; 0.0
60 ; 1.3687017233501129E7 ; 1.4084313064168667E7 ; 7.915685054111555E8 ; 8.450587838501209E8 ; 0.0
61 ; 1.3687911188259844E7 ; 1.4084313064168667E7 ; 8.052555226446565E8 ; 8.591430969142896E8 ; 0.0
62 ; 1.3685299989850651E7 ; 1.4084313064168667E7 ; 8.189434338329164E8 ; 8.732274099784583E8 ; 0.0
63 ; 1.3692542849930217E7 ; 1.4084313064168667E7 ; 8.32628733822767E8 ; 8.87311723042627E8 ; 0.0
64 ; 1.3697051167048179E7 ; 1.4084313064168667E7 ; 8.463212766726972E8 ; 9.013960361067957E8 ; 0.0
65 ; 1.3697925778296825E7 ; 1.4084313064168667E7 ; 8.600183278397454E8 ; 9.154803491709644E8 ; 0.0
66 ; 1.3698574538683355E7 ; 1.4084313064168667E7 ; 8.737162536180422E8 ; 9.29564662235133E8 ; 0.0
67 ; 1.3701347203234576E7 ; 1.4084313064168667E7 ; 8.874148281567256E8 ; 9.436489752993017E8 ; 0.0
68 ; 1.3702504526742801E7 ; 1.4084313064168667E7 ; 9.011161753599602E8 ; 9.577332883634704E8 ; 0.0
69 ; 1.3705657154557616E7 ; 1.4084313064168667E7 ; 9.14818679886703E8 ; 9.718176014276391E8 ; 0.0
70 ; 1.370490446584232E7 ; 1.4084313064168667E7 ; 9.285243370412606E8 ; 9.859019144918078E8 ; 0.0
71 ; 1.3706075238376029E7 ; 1.4084313064168667E7 ; 9.42229241507103E8 ; 9.999862275559765E8 ; 0.0
72 ; 1.3705308785747098E7 ; 1.4084313064168667E7 ; 9.55935316745479E8 ; 1.0140705406201452E9 ; 0.0
73 ; 1.3712161757695226E7 ; 1.4084313064168667E7 ; 9.69640625531226E8 ; 1.0281548536843139E9 ; 0.0
74 ; 1.3709417568419104E7 ; 1.4084313064168667E7 ; 9.833527872889212E8 ; 1.0422391667484826E9 ; 0.0
75 ; 1.370948144590939E7 ; 1.4084313064168667E7 ; 9.970622048573403E8 ; 1.0563234798126513E9 ; 0.0
76 ; 1.3711449288820824E7 ; 1.4084313064168667E7 ; 1.0107716863032497E9 ; 1.07040779287682E9 ; 0.0
77 ; 1.3710877706843859E7 ; 1.4084313064168667E7 ; 1.0244831355920706E9 ; 1.0844921059409885E9 ; 0.0
78 ; 1.3707649508364266E7 ; 1.4084313064168667E7 ; 1.0381940132989144E9 ; 1.0985764190051572E9 ; 0.0
79 ; 1.3702627726879584E7 ; 1.4084313064168667E7 ; 1.0519016628072788E9 ; 1.112660732069326E9 ; 0.0
80 ; 1.3698801878926333E7 ; 1.4084313064168667E7 ; 1.0656042905341583E9 ; 1.1267450451334946E9 ; 0.0
81 ; 1.3695680606624378E7 ; 1.4084313064168667E7 ; 1.0793030924130847E9 ; 1.1408293581976633E9 ; 0.0
82 ; 1.3688398663358549E7 ; 1.4084313064168667E7 ; 1.092998773019709E9 ; 1.154913671261832E9 ; 0.0
83 ; 1.3688856987291908E7 ; 1.4084313064168667E7 ; 1.1066871716830676E9 ; 1.1689979843260007E9 ; 0.0
84 ; 1.3682018329245139E7 ; 1.4084313064168667E7 ; 1.1203760286703594E9 ; 1.1830822973901694E9 ; 0.0
85 ; 1.367952328248867E7 ; 1.4084313064168667E7 ; 1.1340580469996045E9 ; 1.197166610454338E9 ; 0.0
86 ; 1.367474920665307E7 ; 1.4084313064168667E7 ; 1.147737570282093E9 ; 1.2112509235185068E9 ; 0.0
87 ; 1.36680760293075E7 ; 1.4084313064168667E7 ; 1.1614123194887462E9 ; 1.2253352365826755E9 ; 0.0
88 ; 1.3662442340729726E7 ; 1.4084313064168667E7 ; 1.1750803955180538E9 ; 1.2394195496468441E9 ; 0.0
89 ; 1.3659522348450383E7 ; 1.4084313064168667E7 ; 1.1887428378587835E9 ; 1.2535038627110128E9 ; 0.0
90 ; 1.3651393509151978E7 ; 1.4084313064168667E7 ; 1.202402360207234E9 ; 1.2675881757751815E9 ; 0.0
91 ; 1.3648941073546203E7 ; 1.4084313064168667E7 ; 1.2160537537163858E9 ; 1.2816724888393502E9 ; 0.0
92 ; 1.3641041039890427E7 ; 1.4084313064168667E7 ; 1.229702694789932E9 ; 1.295756801903519E9 ; 0.0
93 ; 1.3634281717380073E7 ; 1.4084313064168667E7 ; 1.2433437358298225E9 ; 1.3098411149676876E9 ; 0.0
94 ; 1.3630842349376624E7 ; 1.4084313064168667E7 ; 1.2569780175472026E9 ; 1.3239254280318563E9 ; 0.0
95 ; 1.3625356578397771E7 ; 1.4084313064168667E7 ; 1.2706088598965793E9 ; 1.338009741096025E9 ; 0.0
96 ; 1.361727550661098E7 ; 1.4084313064168667E7 ; 1.284234216474977E9 ; 1.3520940541601937E9 ; 0.0
97 ; 1.36103052314946E7 ; 1.4084313064168667E7 ; 1.297851491981588E9 ; 1.3661783672243624E9 ; 0.0
98 ; 1.3601962014454966E7 ; 1.4084313064168667E7 ; 1.3114617972130826E9 ; 1.380262680288531E9 ; 0.0
99 ; 1.3598418354838409E7 ; 1.4084313064168667E7 ; 1.3250637592275376E9 ; 1.3943469933526998E9 ; 0.0
100 ; 1.3595256555058373E7 ; 1.4084313064168667E7 ; 1.338662177582376E9 ; 1.4084313064168684E9 ; 0.0
101 ; 1.3587591736665968E7 ; 1.4084313064168667E7 ; 1.3522574341374345E9 ; 1.4225156194810371E9 ; 0.0
102 ; 1.357868455464999E7 ; 1.4084313064168667E7 ; 1.3658450258741004E9 ; 1.4365999325452058E9 ; 0.0
103 ; 1.3574094121545827E7 ; 1.4084313064168667E7 ; 1.3794237104287505E9 ; 1.4506842456093745E9 ; 0.0
104 ; 1.356303369866801E7 ; 1.4084313064168667E7 ; 1.3929978045502963E9 ; 1.4647685586735432E9 ; 0.0
105 ; 1.3559947842671447E7 ; 1.4084313064168667E7 ; 1.4065608382489643E9 ; 1.478852871737712E9 ; 0.0
106 ; 1.3549627216856213E7 ; 1.4084313064168667E7 ; 1.4201207860916357E9 ; 1.4929371848018806E9 ; 0.0
107 ; 1.3541459891535189E7 ; 1.4084313064168667E7 ; 1.433670413308492E9 ; 1.5070214978660493E9 ; 0.0
108 ; 1.3533587931948248E7 ; 1.4084313064168667E7 ; 1.4472118732000272E9 ; 1.521105810930218E9 ; 0.0
109 ; 1.3525884793639539E7 ; 1.4084313064168667E7 ; 1.4607454611319754E9 ; 1.5351901239943867E9 ; 0.0
110 ; 1.3518389168310171E7 ; 1.4084313064168667E7 ; 1.4742713459256148E9 ; 1.5492744370585554E9 ; 0.0
111 ; 1.351198731580093E7 ; 1.4084313064168667E7 ; 1.487789735093925E9 ; 1.563358750122724E9 ; 0.0
112 ; 1.3507104368776334E7 ; 1.4084313064168667E7 ; 1.501301722409726E9 ; 1.5774430631868927E9 ; 0.0
113 ; 1.3492727781417768E7 ; 1.4084313064168667E7 ; 1.5148088267785022E9 ; 1.5915273762510614E9 ; 0.0
114 ; 1.348727170831017E7 ; 1.4084313064168667E7 ; 1.52830155455992E9 ; 1.6056116893152301E9 ; 0.0
115 ; 1.3474771704503383E7 ; 1.4084313064168667E7 ; 1.5417888262682302E9 ; 1.6196960023793988E9 ; 0.0
116 ; 1.3465181086344687E7 ; 1.4084313064168667E7 ; 1.5552635979727335E9 ; 1.6337803154435675E9 ; 0.0
117 ; 1.34602809477296E7 ; 1.4084313064168667E7 ; 1.5687287790590782E9 ; 1.6478646285077362E9 ; 0.0
118 ; 1.3452832323446967E7 ; 1.4084313064168667E7 ; 1.5821890600068078E9 ; 1.661948941571905E9 ; 0.0
119 ; 1.3439729503508536E7 ; 1.4084313064168667E7 ; 1.5956418923302548E9 ; 1.6760332546360736E9 ; 0.0
120 ; 1.3430568341531813E7 ; 1.4084313064168667E7 ; 1.6090816218337634E9 ; 1.6901175677002423E9 ; 0.0
121 ; 1.3423197683450945E7 ; 1.4084313064168667E7 ; 1.622512190175295E9 ; 1.704201880764411E9 ; 0.0
122 ; 1.3411081087719494E7 ; 1.4084313064168667E7 ; 1.635935387858746E9 ; 1.7182861938285797E9 ; 0.0
123 ; 1.3401359551971963E7 ; 1.4084313064168667E7 ; 1.6493464689464655E9 ; 1.7323705068927484E9 ; 0.0
124 ; 1.3392112541625448E7 ; 1.4084313064168667E7 ; 1.6627478284984374E9 ; 1.746454819956917E9 ; 0.0
125 ; 1.3386870794147749E7 ; 1.4084313064168667E7 ; 1.676139941040063E9 ; 1.7605391330210857E9 ; 0.0
126 ; 1.3369223751915548E7 ; 1.4084313064168667E7 ; 1.6895268118342106E9 ; 1.7746234460852544E9 ; 0.0
127 ; 1.336417744309545E7 ; 1.4084313064168667E7 ; 1.702896035586126E9 ; 1.7887077591494231E9 ; 0.0
128 ; 1.3353456927990966E7 ; 1.4084313064168667E7 ; 1.7162602130292215E9 ; 1.8027920722135918E9 ; 0.0
129 ; 1.3343225336216612E7 ; 1.4084313064168667E7 ; 1.7296136699572124E9 ; 1.8168763852777605E9 ; 0.0
130 ; 1.3328019749296494E7 ; 1.4084313064168667E7 ; 1.7429568952934291E9 ; 1.8309606983419292E9 ; 0.0
131 ; 1.3312092810420807E7 ; 1.4084313064168667E7 ; 1.7562849150427256E9 ; 1.845045011406098E9 ; 0.0
132 ; 1.330272489262928E7 ; 1.4084313064168667E7 ; 1.7695970078531463E9 ; 1.8591293244702666E9 ; 0.0
133 ; 1.3284055833450593E7 ; 1.4084313064168667E7 ; 1.7828997327457757E9 ; 1.8732136375344353E9 ; 0.0
134 ; 1.3268349258694699E7 ; 1.4084313064168667E7 ; 1.7961837885792263E9 ; 1.887297950598604E9 ; 0.0
135 ; 1.325358917351704E7 ; 1.4084313064168667E7 ; 1.809452137837921E9 ; 1.9013822636627727E9 ; 0.0
136 ; 1.3236662749804528E7 ; 1.4084313064168667E7 ; 1.822705727011438E9 ; 1.9154665767269413E9 ; 0.0
137 ; 1.3223701715785218E7 ; 1.4084313064168667E7 ; 1.8359423897612424E9 ; 1.92955088979111E9 ; 0.0
138 ; 1.3205708890239934E7 ; 1.4084313064168667E7 ; 1.8491660914770277E9 ; 1.9436352028552787E9 ; 0.0
139 ; 1.3190020296104206E7 ; 1.4084313064168667E7 ; 1.8623718003672676E9 ; 1.9577195159194474E9 ; 0.0
140 ; 1.3175924324088018E7 ; 1.4084313064168667E7 ; 1.8755618206633718E9 ; 1.971803828983616E9 ; 0.0
141 ; 1.315739518129946E7 ; 1.4084313064168667E7 ; 1.88873774498746E9 ; 1.9858881420477848E9 ; 0.0
142 ; 1.3144534393341674E7 ; 1.4084313064168667E7 ; 1.9018951401687593E9 ; 1.9999724551119535E9 ; 0.0
143 ; 1.3126349667554801E7 ; 1.4084313064168667E7 ; 1.9150396745621011E9 ; 2.0140567681761222E9 ; 0.0
144 ; 1.3107657770118682E7 ; 1.4084313064168667E7 ; 1.928166024229656E9 ; 2.0281410812402909E9 ; 0.0
145 ; 1.309346944485439E7 ; 1.4084313064168667E7 ; 1.9412736819997747E9 ; 2.0422253943044596E9 ; 0.0
146 ; 1.3085809405204032E7 ; 1.4084313064168667E7 ; 1.9543671514446292E9 ; 2.0563097073686283E9 ; 0.0
147 ; 1.307185650333468E7 ; 1.4084313064168667E7 ; 1.9674529608498333E9 ; 2.070394020432797E9 ; 0.0
148 ; 1.3064978293996567E7 ; 1.4084313064168667E7 ; 1.980524817353168E9 ; 2.0844783334969656E9 ; 0.0
149 ; 1.3048590309349023E7 ; 1.4084313064168667E7 ; 1.9935897956471646E9 ; 2.0985626465611343E9 ; 0.0
150 ; 1.3038021005207691E7 ; 1.4084313064168667E7 ; 2.0066383859565136E9 ; 2.112646959625303E9 ; 0.0
151 ; 1.302890017528729E7 ; 1.4084313064168667E7 ; 2.0196764069617214E9 ; 2.1267312726894717E9 ; 0.0
152 ; 1.3016406467716277E7 ; 1.4084313064168667E7 ; 2.0327053071370087E9 ; 2.1408155857536404E9 ; 0.0
153 ; 1.3003123612579461E7 ; 1.4084313064168667E7 ; 2.045721713604725E9 ; 2.154899898817809E9 ; 0.0
154 ; 1.2997777898012806E7 ; 1.4084313064168667E7 ; 2.0587248372173042E9 ; 2.1689842118819776E9 ; 0.0
155 ; 1.2980807886116447E7 ; 1.4084313064168667E7 ; 2.071722615115317E9 ; 2.183068524946146E9 ; 0.0
156 ; 1.2970443239052698E7 ; 1.4084313064168667E7 ; 2.0847034230014336E9 ; 2.1971528380103145E9 ; 0.0
157 ; 1.2959716869735876E7 ; 1.4084313064168667E7 ; 2.0976738662404864E9 ; 2.211237151074483E9 ; 0.0
158 ; 1.2941272124075018E7 ; 1.4084313064168667E7 ; 2.1106335831102223E9 ; 2.2253214641386514E9 ; 0.0
159 ; 1.2933500487452483E7 ; 1.4084313064168667E7 ; 2.1235748552342973E9 ; 2.23940577720282E9 ; 0.0
160 ; 1.2923295063744193E7 ; 1.4084313064168667E7 ; 2.1365083557217498E9 ; 2.2534900902669883E9 ; 0.0
161 ; 1.2907585716175923E7 ; 1.4084313064168667E7 ; 2.149431650785494E9 ; 2.2675744033311567E9 ; 0.0
162 ; 1.2894802281409457E7 ; 1.4084313064168667E7 ; 2.16233923650167E9 ; 2.281658716395325E9 ; 0.0
163 ; 1.288613389599192E7 ; 1.4084313064168667E7 ; 2.175234038783079E9 ; 2.2957430294594936E9 ; 0.0
164 ; 1.2868530804909617E7 ; 1.4084313064168667E7 ; 2.188120172679071E9 ; 2.309827342523662E9 ; 0.0
165 ; 1.2858428007086586E7 ; 1.4084313064168667E7 ; 2.2009887034839807E9 ; 2.3239116555878305E9 ; 0.0
166 ; 1.2848099264968902E7 ; 1.4084313064168667E7 ; 2.2138471314910674E9 ; 2.337995968651999E9 ; 0.0
167 ; 1.2835625376027614E7 ; 1.4084313064168667E7 ; 2.2266952307560363E9 ; 2.3520802817161674E9 ; 0.0
168 ; 1.2821534189570863E7 ; 1.4084313064168667E7 ; 2.239530856132064E9 ; 2.366164594780336E9 ; 0.0
169 ; 1.280591552467127E7 ; 1.4084313064168667E7 ; 2.252352390321635E9 ; 2.3802489078445044E9 ; 0.0
170 ; 1.2800400938105067E7 ; 1.4084313064168667E7 ; 2.265158305846306E9 ; 2.394333220908673E9 ; 0.0
171 ; 1.2783640911131736E7 ; 1.4084313064168667E7 ; 2.277958706784411E9 ; 2.4084175339728413E9 ; 0.0
172 ; 1.2773478921643509E7 ; 1.4084313064168667E7 ; 2.290742347695543E9 ; 2.4225018470370097E9 ; 0.0
173 ; 1.2760911384662492E7 ; 1.4084313064168667E7 ; 2.3035158266171865E9 ; 2.436586160101178E9 ; 0.0
174 ; 1.2750002452650882E7 ; 1.4084313064168667E7 ; 2.316276738001849E9 ; 2.4506704731653466E9 ; 0.0
175 ; 1.2746489699212026E7 ; 1.4084313064168667E7 ; 2.3290267404545E9 ; 2.464754786229515E9 ; 0.0
176 ; 1.2738878844751645E7 ; 1.4084313064168667E7 ; 2.3417732301537123E9 ; 2.4788390992936835E9 ; 0.0
177 ; 1.2730026419646515E7 ; 1.4084313064168667E7 ; 2.354512108998464E9 ; 2.492923412357852E9 ; 0.0
178 ; 1.272074917062416E7 ; 1.4084313064168667E7 ; 2.367242135418111E9 ; 2.5070077254220204E9 ; 0.0
179 ; 1.2714956239949603E7 ; 1.4084313064168667E7 ; 2.379962884588735E9 ; 2.521092038486189E9 ; 0.0
180 ; 1.270687288315268E7 ; 1.4084313064168667E7 ; 2.392677840828685E9 ; 2.5351763515503573E9 ; 0.0
181 ; 1.2696541382610692E7 ; 1.4084313064168667E7 ; 2.4053847137118373E9 ; 2.549260664614526E9 ; 0.0
182 ; 1.2689342028881507E7 ; 1.4084313064168667E7 ; 2.418081255094448E9 ; 2.5633449776786942E9 ; 0.0
183 ; 1.2682516811842728E7 ; 1.4084313064168667E7 ; 2.4307705971233296E9 ; 2.5774292907428627E9 ; 0.0
184 ; 1.2672016286684763E7 ; 1.4084313064168667E7 ; 2.4434531139351726E9 ; 2.591513603807031E9 ; 0.0
185 ; 1.2665996679752965E7 ; 1.4084313064168667E7 ; 2.4561251302218575E9 ; 2.6055979168711996E9 ; 0.0
186 ; 1.2658411721013077E7 ; 1.4084313064168667E7 ; 2.4687911269016104E9 ; 2.619682229935368E9 ; 0.0
187 ; 1.2649663843114268E7 ; 1.4084313064168667E7 ; 2.4814495386226234E9 ; 2.6337665429995365E9 ; 0.0
188 ; 1.2643012866639549E7 ; 1.4084313064168667E7 ; 2.494099202465738E9 ; 2.647850856063705E9 ; 0.0
189 ; 1.2636378708299356E7 ; 1.4084313064168667E7 ; 2.5067422153323774E9 ; 2.6619351691278734E9 ; 0.0
190 ; 1.2627921866606519E7 ; 1.4084313064168667E7 ; 2.5193785940406766E9 ; 2.676019482192042E9 ; 0.0
191 ; 1.2618557162341502E7 ; 1.4084313064168667E7 ; 2.5320065159072833E9 ; 2.6901037952562103E9 ; 0.0
192 ; 1.2610436590832904E7 ; 1.4084313064168667E7 ; 2.544625073069625E9 ; 2.704188108320379E9 ; 0.0
193 ; 1.2602794287380232E7 ; 1.4084313064168667E7 ; 2.5572355096604576E9 ; 2.718272421384547E9 ; 0.0
194 ; 1.2596881848879712E7 ; 1.4084313064168667E7 ; 2.569838303947838E9 ; 2.7323567344487157E9 ; 0.0
195 ; 1.2593306394368028E7 ; 1.4084313064168667E7 ; 2.5824351857967176E9 ; 2.746441047512884E9 ; 0.0
196 ; 1.2582018616195608E7 ; 1.4084313064168667E7 ; 2.595028492191086E9 ; 2.7605253605770526E9 ; 0.0
