CSV File for the City 4 on Day 187
1 - Minute m 
2 - Power Consumed at minute m 
3 - Power Produced at minute m 
4 - Energy Consumed since the beginning of the day 
5 - Energy Produced since the beginning of the day 
6 - Energy Lost since the beginning of the day on lines starting from the city
 
0 ; 1163569.3534646465 ; 1.0598579078815565E8 ; 0.0 ; 0.0 ; 0.0
1 ; 1166534.832528673 ; 1.0613613558721757E8 ; 1163569.3534646465 ; 1.0598579078815565E8 ; 0.0
2 ; 1174818.253159915 ; 1.065955236840243E8 ; 2330104.1859933194 ; 2.121219263753732E8 ; 0.0
3 ; 1184119.7672217775 ; 1.0736396064174378E8 ; 3504922.4391532345 ; 3.187174500593975E8 ; 0.0
4 ; 1192262.150725718 ; 1.084414514712987E8 ; 4689042.206375012 ; 4.260814107011413E8 ; 0.0
5 ; 1206204.9778001627 ; 1.0982800059517866E8 ; 5881304.35710073 ; 5.3452286217244E8 ; 0.0
6 ; 1224984.7393570463 ; 1.1152361181468639E8 ; 7087509.334900892 ; 6.443508627676187E8 ; 0.0
7 ; 1244816.6672266717 ; 1.1352828828117043E8 ; 8312494.074257938 ; 7.558744745823051E8 ; 0.0
8 ; 1276180.097208767 ; 1.158420324717431E8 ; 9557310.74148461 ; 8.694027628634756E8 ; 0.0
9 ; 1328988.5035783811 ; 1.1846484616991687E8 ; 1.0833490838693377E7 ; 9.852447953352187E8 ; 0.0
10 ; 1408467.582223457 ; 1.2139673045151114E8 ; 1.2162479342271758E7 ; 1.1037096415051355E9 ; 0.0
11 ; 1531014.2758462413 ; 1.2463768567608973E8 ; 1.3570946924495215E7 ; 1.2251063719566467E9 ; 0.0
12 ; 1730370.0835094657 ; 1.2818771148408881E8 ; 1.5101961200341456E7 ; 1.3497440576327364E9 ; 0.0
13 ; 1918821.238467957 ; 1.3204680679968894E8 ; 1.6832331283850923E7 ; 1.4779317691168253E9 ; 0.0
14 ; 1944055.1614863272 ; 1.3621496983937776E8 ; 1.875115252231888E7 ; 1.6099785759165144E9 ; 0.0
15 ; 1952315.1797098094 ; 1.4069219812604284E8 ; 2.069520768380521E7 ; 1.7461935457558923E9 ; 0.0
16 ; 1960988.8147515894 ; 1.4547848850833574E8 ; 2.264752286351502E7 ; 1.8868857438819351E9 ; 0.0
17 ; 1968751.4287377654 ; 1.5057383718495366E8 ; 2.4608511678266607E7 ; 2.032364232390271E9 ; 0.0
18 ; 1980292.8062926896 ; 1.5597823973340702E8 ; 2.6577263107004374E7 ; 2.1829380695752244E9 ; 0.0
19 ; 1985862.2068570442 ; 1.6169169114277312E8 ; 2.8557555913297065E7 ; 2.3389163093086314E9 ; 0.0
20 ; 1995482.039601091 ; 1.67714185849884E8 ; 3.054341812015411E7 ; 2.5006080004514046E9 ; 0.0
21 ; 2005718.6137001994 ; 1.7404571777836236E8 ; 3.25389001597552E7 ; 2.6683221863012886E9 ; 0.0
22 ; 2012487.8133778784 ; 1.806862803798983E8 ; 3.45446187734554E7 ; 2.842367904079651E9 ; 0.0
23 ; 2025963.7270758257 ; 1.8763586667715812E8 ; 3.6557106586833276E7 ; 3.023054184459549E9 ; 0.0
24 ; 2033767.062341409 ; 1.9489446930772424E8 ; 3.85830703139091E7 ; 3.2106900511367073E9 ; 0.0
25 ; 2042675.4824608038 ; 2.0115012146667737E8 ; 4.0616837376250505E7 ; 3.4055845204444313E9 ; 0.0
26 ; 2051292.4319136473 ; 2.011563629878083E8 ; 4.265951285871131E7 ; 3.6067346419111085E9 ; 0.0
27 ; 2060065.9629260951 ; 2.0116295491226026E8 ; 4.4710805290624954E7 ; 3.8078910048989167E9 ; 0.0
28 ; 2067116.1876230568 ; 2.0116988877802035E8 ; 4.677087125355105E7 ; 4.009053959811177E9 ; 0.0
29 ; 2077176.238100588 ; 2.0117715595447487E8 ; 4.8837987441174105E7 ; 4.210223848589197E9 ; 0.0
30 ; 2088603.0756409673 ; 2.011847476819824E8 ; 5.091516367927469E7 ; 4.411401004543672E9 ; 0.0
31 ; 2094958.921197603 ; 2.0119265510943887E8 ; 5.300376675491566E7 ; 4.612585752225654E9 ; 0.0
32 ; 2105563.4466442554 ; 2.0120086932962245E8 ; 5.509872567611326E7 ; 4.813778407335093E9 ; 0.0
33 ; 2112099.0453243656 ; 2.012093814121615E8 ; 5.720428912275752E7 ; 5.014979276664715E9 ; 0.0
34 ; 2122092.014362192 ; 2.0121818243402022E8 ; 5.931638816808188E7 ; 5.216188658076877E9 ; 0.0
35 ; 2128404.739084075 ; 2.0122726350744447E8 ; 6.143848018244407E7 ; 5.417406840510897E9 ; 0.0
36 ; 2136789.8189471224 ; 2.0123661580535194E8 ; 6.3566884921528146E7 ; 5.618634104018341E9 ; 0.0
37 ; 2147020.025880808 ; 2.0124623058418834E8 ; 6.570367474047527E7 ; 5.819870719823693E9 ; 0.0
38 ; 2151986.0943988124 ; 2.012560992043027E8 ; 6.785069476635608E7 ; 6.021116950407882E9 ; 0.0
39 ; 2161339.9225211996 ; 2.0126621314792064E8 ; 7.000268086075489E7 ; 6.222373049612185E9 ; 0.0
40 ; 2166873.066160097 ; 2.0127656403481653E8 ; 7.21640207832761E7 ; 6.423639262760105E9 ; 0.0
41 ; 2171959.3957049013 ; 2.0128714363580072E8 ; 7.43308938494362E7 ; 6.624915826794922E9 ; 0.0
42 ; 2176075.0273206807 ; 2.0129794388415056E8 ; 7.650285324514109E7 ; 6.826202970430722E9 ; 0.0
43 ; 2186104.6808372536 ; 2.0130895688512242E8 ; 7.867892827246177E7 ; 7.027500914314873E9 ; 0.0
44 ; 2189577.624017775 ; 2.0132017492368525E8 ; 8.086503295329903E7 ; 7.228809871199995E9 ; 0.0
45 ; 2196315.5160334073 ; 2.0133159047061953E8 ; 8.30546105773168E7 ; 7.43013004612368E9 ; 0.0
46 ; 2199075.918992295 ; 2.0134319618712327E8 ; 8.525092609335022E7 ; 7.631461636594299E9 ; 0.0
47 ; 2204415.011318148 ; 2.0135498492806497E8 ; 8.745000201234251E7 ; 7.832804832781423E9 ; 0.0
48 ; 2210312.765714479 ; 2.0136694974401835E8 ; 8.965441702366066E7 ; 8.034159817709488E9 ; 0.0
49 ; 2214222.7060443363 ; 2.0137908388220805E8 ; 9.186472978937514E7 ; 8.235526767453506E9 ; 0.0
50 ; 2216394.103708222 ; 2.013913807864894E8 ; 9.407895249541947E7 ; 8.436905851335714E9 ; 0.0
51 ; 2219249.014790223 ; 2.01403834096477E8 ; 9.62953465991277E7 ; 8.638297232122204E9 ; 0.0
52 ; 2223179.199113845 ; 2.0141643764593062E8 ; 9.851459561391792E7 ; 8.839701066218681E9 ; 0.0
53 ; 2226352.718064823 ; 2.0142918546049753E8 ; 1.0073777481303176E8 ; 9.041117503864613E9 ; 0.0
54 ; 2226038.6437936015 ; 2.0144207175490347E8 ; 1.0296412753109659E8 ; 9.24254668932511E9 ; 0.0
55 ; 2229888.644573219 ; 2.0145509092967632E8 ; 1.0519016617489019E8 ; 9.443988761080013E9 ; 0.0
56 ; 2235633.050043398 ; 2.0146823756747913E8 ; 1.074200548194634E8 ; 9.64544385200969E9 ; 0.0
57 ; 2236549.786475498 ; 2.014815064291212E8 ; 1.096556878695068E8 ; 9.846912089577168E9 ; 0.0
58 ; 2239612.707471664 ; 2.0149489244930997E8 ; 1.118922376559823E8 ; 1.0048393596006289E10 ; 0.0
59 ; 2241608.3562841495 ; 2.015083907321992E8 ; 1.1413185036345397E8 ; 1.0249888488455599E10 ; 0.0
60 ; 2247653.299925061 ; 2.015219965467827E8 ; 1.1637345871973813E8 ; 1.0451396879187798E10 ; 0.0
61 ; 2249181.727661117 ; 2.0153570532217816E8 ; 1.1862111201966318E8 ; 1.0652918875734581E10 ; 0.0
62 ; 2251644.778183557 ; 2.0154951264283884E8 ; 1.208702937473243E8 ; 1.0854454581056759E10 ; 0.0
63 ; 2256118.799380969 ; 2.015634142437275E8 ; 1.2312193852550787E8 ; 1.1056004093699598E10 ; 0.0
64 ; 2254999.270190435 ; 2.0157740600548172E8 ; 1.2537805732488884E8 ; 1.1257567507943325E10 ; 0.0
65 ; 2256175.404279681 ; 2.015914839495958E8 ; 1.2763305659507927E8 ; 1.1459144913948807E10 ; 0.0
66 ; 2260918.999080561 ; 2.0160564423364136E8 ; 1.2988923199935895E8 ; 1.1660736397898403E10 ; 0.0
67 ; 2265864.547486501 ; 2.016198831465446E8 ; 1.3215015099843952E8 ; 1.1862342042132044E10 ; 0.0
68 ; 2265713.912689749 ; 2.0163419710393628E8 ; 1.3441601554592603E8 ; 1.206396192527859E10 ; 0.0
69 ; 2267521.880378786 ; 2.0164858264358696E8 ; 1.3668172945861578E8 ; 1.2265596122382526E10 ; 0.0
70 ; 2268736.8796663196 ; 2.016630364209383E8 ; 1.3894925133899456E8 ; 1.2467244705026114E10 ; 0.0
71 ; 2273202.949241324 ; 2.016775552047391E8 ; 1.412179882186609E8 ; 1.2668907741447052E10 ; 0.0
72 ; 2275543.172937719 ; 2.0169213587279233E8 ; 1.434911911679022E8 ; 1.287058529665179E10 ; 0.0
73 ; 2275144.91800164 ; 2.017067754078193E8 ; 1.4576673434083992E8 ; 1.3072277432524584E10 ; 0.0
74 ; 2282267.3034384116 ; 2.017214708934434E8 ; 1.4804187925884157E8 ; 1.3273984207932404E10 ; 0.0
75 ; 2280175.6910588015 ; 2.017362195102972E8 ; 1.5032414656228E8 ; 1.3475705678825848E10 ; 0.0
76 ; 2284135.384191882 ; 2.017510185322539E8 ; 1.526043222533388E8 ; 1.3677441898336145E10 ; 0.0
77 ; 2283791.1859234152 ; 2.017658653227834E8 ; 1.5488845763753068E8 ; 1.3879192916868399E10 ; 0.0
78 ; 2285222.8676314265 ; 2.0178075733143386E8 ; 1.571722488234541E8 ; 1.4080958782191181E10 ; 0.0
79 ; 2280772.9538667174 ; 2.0179569209043673E8 ; 1.5945747169108555E8 ; 1.4282739539522615E10 ; 0.0
80 ; 2287020.990511889 ; 2.0181066721143487E8 ; 1.6173824464495227E8 ; 1.4484535231613052E10 ; 0.0
81 ; 2282430.953560444 ; 2.018256803823313E8 ; 1.6402526563546416E8 ; 1.4686345898824488E10 ; 0.0
82 ; 2280615.368430766 ; 2.0184072936425707E8 ; 1.663076965890246E8 ; 1.488817157920682E10 ; 0.0
83 ; 2281185.0815369855 ; 2.0185581198865464E8 ; 1.6858831195745537E8 ; 1.5090012308571077E10 ; 0.0
84 ; 2283766.1770576495 ; 2.0187092615447548E8 ; 1.7086949703899235E8 ; 1.5291868120559732E10 ; 0.0
85 ; 2279061.5786918737 ; 2.0188606982548755E8 ; 1.7315326321605E8 ; 1.5493739046714209E10 ; 0.0
86 ; 2281650.0271323887 ; 2.019012410276906E8 ; 1.7543232479474187E8 ; 1.5695625116539696E10 ; 0.0
87 ; 2279389.704876745 ; 2.0191643784683523E8 ; 1.7771397482187426E8 ; 1.5897526357567387E10 ; 0.0
88 ; 2279849.270442556 ; 2.0193165842604342E8 ; 1.79993364526751E8 ; 1.6099442795414223E10 ; 0.0
89 ; 2276914.622332896 ; 2.0194690096352604E8 ; 1.8227321379719356E8 ; 1.6301374453840265E10 ; 0.0
90 ; 2274276.8323719846 ; 2.0196216371039513E8 ; 1.8455012841952646E8 ; 1.6503321354803791E10 ; 0.0
91 ; 2274765.300160465 ; 2.0197744496856678E8 ; 1.8682440525189844E8 ; 1.6705283518514187E10 ; 0.0
92 ; 2273140.0473588984 ; 2.0199274308875176E8 ; 1.890991705520589E8 ; 1.6907260963482754E10 ; 0.0
93 ; 2272249.9620293705 ; 2.020080564685304E8 ; 1.913723105994178E8 ; 1.7109253706571505E10 ; 0.0
94 ; 2273150.156257587 ; 2.0202338355050868E8 ; 1.9364456056144717E8 ; 1.7311261763040035E10 ; 0.0
95 ; 2268910.1906821798 ; 2.020387228205522E8 ; 1.9591771071770477E8 ; 1.7513285146590546E10 ; 0.0
96 ; 2268214.3763196715 ; 2.0205407280609512E8 ; 1.9818662090838695E8 ; 1.77153238694111E10 ; 0.0
97 ; 2265717.801108209 ; 2.0206943207452077E8 ; 2.0045483528470662E8 ; 1.7917377942217194E10 ; 0.0
98 ; 2263341.5828933204 ; 2.020847992316113E8 ; 2.0272055308581483E8 ; 1.8119447374291714E10 ; 0.0
99 ; 2264954.0308160475 ; 2.021001729200634E8 ; 2.0498389466870815E8 ; 1.8321532173523327E10 ; 0.0
100 ; 2263374.897322913 ; 2.021155518180674E8 ; 2.072488486995242E8 ; 1.852363234644339E10 ; 0.0
101 ; 2261442.0050613233 ; 2.0213093463794675E8 ; 2.0951222359684712E8 ; 1.8725747898261456E10 ; 0.0
102 ; 2259437.668472907 ; 2.021463201248559E8 ; 2.1177366560190845E8 ; 1.8927878832899403E10 ; 0.0
103 ; 2257225.844504314 ; 2.0216170705553365E8 ; 2.1403310327038136E8 ; 1.9130025153024258E10 ; 0.0
104 ; 2256709.7222703914 ; 2.021770942371094E8 ; 2.162903291148857E8 ; 1.9332186860079792E10 ; 0.0
105 ; 2256100.726987242 ; 2.0219248050596085E8 ; 2.185470388371561E8 ; 1.9534363954316902E10 ; 0.0
106 ; 2251985.1344230166 ; 2.0220786472661987E8 ; 2.2080313956414333E8 ; 1.9736556434822865E10 ; 0.0
107 ; 2250381.7209959705 ; 2.0222324579072517E8 ; 2.2305512469856635E8 ; 1.9938764299549484E10 ; 0.0
108 ; 2249441.4257518854 ; 2.0223862261601934E8 ; 2.253055064195623E8 ; 2.014098754534021E10 ; 0.0
109 ; 2246173.8159501054 ; 2.0225399414538857E8 ; 2.275549478453142E8 ; 2.034322616795623E10 ; 0.0
110 ; 2244481.775573265 ; 2.0226935934594283E8 ; 2.298011216612643E8 ; 2.054548016210162E10 ; 0.0
111 ; 2245487.3001921554 ; 2.0228471720813522E8 ; 2.3204560343683755E8 ; 2.0747749521447563E10 ; 0.0
112 ; 2241415.8709747694 ; 2.0230006674491814E8 ; 2.342910907370297E8 ; 2.0950034238655697E10 ; 0.0
113 ; 2234141.0309442105 ; 2.0231540699093515E8 ; 2.3653250660800448E8 ; 2.1152334305400616E10 ; 0.0
114 ; 2236637.1472813925 ; 2.0233073700174677E8 ; 2.3876664763894868E8 ; 2.1354649712391552E10 ; 0.0
115 ; 2235304.214534046 ; 2.0234605585308853E8 ; 2.4100328478623006E8 ; 2.15569804493933E10 ; 0.0
116 ; 2232363.7030605017 ; 2.0236136264016023E8 ; 2.432385890007641E8 ; 2.1759326505246387E10 ; 0.0
117 ; 2230571.618081667 ; 2.023766564769446E8 ; 2.454709527038246E8 ; 2.1961687867886547E10 ; 0.0
118 ; 2226450.875302855 ; 2.023919364955544E8 ; 2.4770152432190627E8 ; 2.216406452436349E10 ; 0.0
119 ; 2223380.6818242143 ; 2.024072018456064E8 ; 2.4992797519720912E8 ; 2.2366456460859047E10 ; 0.0
120 ; 2220040.617154143 ; 2.0242245169362137E8 ; 2.5215135587903333E8 ; 2.2568863662704655E10 ; 0.0
121 ; 2217241.336488847 ; 2.0243768522244877E8 ; 2.5437139649618748E8 ; 2.2771286114398277E10 ; 0.0
122 ; 2213415.2152371034 ; 2.0245290163071468E8 ; 2.5658863783267632E8 ; 2.2973723799620728E10 ; 0.0
123 ; 2211498.4787481856 ; 2.024681001322929E8 ; 2.5880205304791343E8 ; 2.3176176701251442E10 ; 0.0
124 ; 2211073.794822725 ; 2.02483279955797E8 ; 2.610135515266616E8 ; 2.3378644801383736E10 ; 0.0
125 ; 2207973.5520360293 ; 2.0249844034409344E8 ; 2.6322462532148433E8 ; 2.358112808133953E10 ; 0.0
126 ; 2204427.2689488367 ; 2.0251358055383432E8 ; 2.6543259887352034E8 ; 2.3783626521683624E10 ; 0.0
127 ; 2200183.5511406916 ; 2.0252869985500863E8 ; 2.6763702614246917E8 ; 2.3986140102237457E10 ; 0.0
128 ; 2196330.181883473 ; 2.02543797530512E8 ; 2.6983720969360983E8 ; 2.4188668802092464E10 ; 0.0
129 ; 2193394.547588622 ; 2.0255887287573346E8 ; 2.720335398754933E8 ; 2.439121259962298E10 ; 0.0
130 ; 2192747.9020676324 ; 2.0257392519815868E8 ; 2.7422693442308193E8 ; 2.459377147249871E10 ; 0.0
131 ; 2183802.125080569 ; 2.0258895381698903E8 ; 2.764196823251496E8 ; 2.479634539769687E10 ; 0.0
132 ; 2175168.844737337 ; 2.0260395806277573E8 ; 2.786034844502302E8 ; 2.499893435151386E10 ; 0.0
133 ; 2172090.730592406 ; 2.026189372770684E8 ; 2.8077865329496753E8 ; 2.5201538309576633E10 ; 0.0
134 ; 2169184.048867824 ; 2.0263389081207758E8 ; 2.8295074402555996E8 ; 2.5404157246853703E10 ; 0.0
135 ; 2160288.066900772 ; 2.026488180303502E8 ; 2.851199280744278E8 ; 2.560679113766578E10 ; 0.0
136 ; 2156618.787430641 ; 2.0266371830445808E8 ; 2.872802161413286E8 ; 2.580943995569613E10 ; 0.0
137 ; 2149477.80773926 ; 2.026785910166981E8 ; 2.894368349287592E8 ; 2.6012103674000587E10 ; 0.0
138 ; 2145492.724773095 ; 2.0269343555880445E8 ; 2.915863127364985E8 ; 2.6214782265017284E10 ; 0.0
139 ; 2140434.1313055404 ; 2.027082513316717E8 ; 2.937318054612716E8 ; 2.6417475700576088E10 ; 0.0
140 ; 2133049.7424051776 ; 2.0272303774508852E8 ; 2.958722395925771E8 ; 2.662018395190776E10 ; 0.0
141 ; 2125982.383543212 ; 2.027377942174818E8 ; 2.980052893349823E8 ; 2.6822906989652847E10 ; 0.0
142 ; 2120600.7084646253 ; 2.0275252017567027E8 ; 3.0013127171852547E8 ; 2.702564478387033E10 ; 0.0
143 ; 2113634.6237543714 ; 2.0276721505462778E8 ; 3.022518724269901E8 ; 2.7228397304046E10 ; 0.0
144 ; 2108058.5921675176 ; 2.0278187829725525E8 ; 3.043655070507445E8 ; 2.7431164519100628E10 ; 0.0
145 ; 2106967.412983281 ; 2.0279650935416153E8 ; 3.06473565642912E8 ; 2.7633946397397884E10 ; 0.0
146 ; 2102258.388192507 ; 2.028111076834522E8 ; 3.0858053305589527E8 ; 2.7836742906752045E10 ; 0.0
147 ; 2098447.822965287 ; 2.028256727505265E8 ; 3.106827914440878E8 ; 2.8039554014435497E10 ; 0.0
148 ; 2095720.905983713 ; 2.028402040278817E8 ; 3.1278123926705307E8 ; 2.8242379687186024E10 ; 0.0
149 ; 2090308.8269852854 ; 2.02854700994925E8 ; 3.1487696017303675E8 ; 2.8445219891213905E10 ; 0.0
150 ; 2089235.1317864123 ; 2.0286916313779196E8 ; 3.1696726900002205E8 ; 2.864807459220883E10 ; 0.0
151 ; 2088122.2786642103 ; 2.0288358994917202E8 ; 3.1905650413180846E8 ; 2.8850943755346622E10 ; 0.0
152 ; 2080582.671214182 ; 2.0289798092814034E8 ; 3.211446264104727E8 ; 2.9053827345295795E10 ; 0.0
153 ; 2079907.368076304 ; 2.029123355799956E8 ; 3.2322520908168685E8 ; 2.9256725326223934E10 ; 0.0
154 ; 2073481.6195557523 ; 2.0292665341610405E8 ; 3.253051164497632E8 ; 2.945963766180393E10 ; 0.0
155 ; 2072524.7640905716 ; 2.0294093395374906E8 ; 3.2737859806931895E8 ; 2.966256431522003E10 ; 0.0
156 ; 2067196.7834538345 ; 2.0295517671598595E8 ; 3.2945112283340955E8 ; 2.9865505249173782E10 ; 0.0
157 ; 2064569.4553789492 ; 2.0296938123150253E8 ; 3.3151831961686337E8 ; 3.0068460425889767E10 ; 0.0
158 ; 2060746.4143435655 ; 2.0298354703448412E8 ; 3.335828890722423E8 ; 3.027142980712127E10 ; 0.0
159 ; 2058509.312388666 ; 2.0299767366448385E8 ; 3.3564363548658586E8 ; 3.0474413354155754E10 ; 0.0
160 ; 2055561.935066714 ; 2.0301176066629738E8 ; 3.377021447989745E8 ; 3.0677411027820236E10 ; 0.0
161 ; 2050365.9555640353 ; 2.0302580758984202E8 ; 3.397577067340412E8 ; 3.0880422788486534E10 ; 0.0
162 ; 2047526.3233616583 ; 2.0303981399004045E8 ; 3.4180807268960524E8 ; 3.1083448596076378E10 ; 0.0
163 ; 2044348.5134066127 ; 2.0305377942670816E8 ; 3.438555990129669E8 ; 3.1286488410066418E10 ; 0.0
164 ; 2040327.1417879057 ; 2.030677034644452E8 ; 3.458999475263735E8 ; 3.1489542189493126E10 ; 0.0
165 ; 2036368.8248929167 ; 2.0308158567253143E8 ; 3.479402746681614E8 ; 3.1692609892957573E10 ; 0.0
166 ; 2033404.4522797442 ; 2.0309542562482584E8 ; 3.4997664349305433E8 ; 3.1895691478630104E10 ; 0.0
167 ; 2028242.6156172433 ; 2.0310922289966887E8 ; 3.520100479453341E8 ; 3.209878690425493E10 ; 0.0
168 ; 2025013.308095688 ; 2.0312297707978868E8 ; 3.540382905609513E8 ; 3.23018961271546E10 ; 0.0
169 ; 2021679.6799810964 ; 2.031366877522102E8 ; 3.56063303869047E8 ; 3.2505019104234386E10 ; 0.0
170 ; 2019658.9571551003 ; 2.0315035450816768E8 ; 3.580849835490281E8 ; 3.2708155791986595E10 ; 0.0
171 ; 2014909.1746569164 ; 2.0316397694302005E8 ; 3.601046425061832E8 ; 3.2911306146494762E10 ; 0.0
172 ; 2011938.5963882236 ; 2.0317755465616918E8 ; 3.6211955168084013E8 ; 3.3114470123437782E10 ; 0.0
173 ; 2008081.9596821796 ; 2.0319108725098118E8 ; 3.6413149027722836E8 ; 3.3317647678093952E10 ; 0.0
174 ; 2003919.584613827 ; 2.0320457433471015E8 ; 3.661395722369105E8 ; 3.3520838765344933E10 ; 0.0
175 ; 1999303.0085205599 ; 2.0321801551842457E8 ; 3.681434918215243E8 ; 3.372404333967964E10 ; 0.0
176 ; 2001595.7680311915 ; 2.032314104169363E8 ; 3.7014279483004487E8 ; 3.3927261355198067E10 ; 0.0
177 ; 1993393.8234521332 ; 2.0324475864873192E8 ; 3.7214439059807605E8 ; 3.4130492765615E10 ; 0.0
178 ; 1993589.0547582342 ; 2.0325805983590636E8 ; 3.7413778442152816E8 ; 3.4333737524263733E10 ; 0.0
179 ; 1994773.4176442013 ; 2.0327131360409877E8 ; 3.761313734762864E8 ; 3.453699558409964E10 ; 0.0
180 ; 1989944.8610419442 ; 2.0328451958243075E8 ; 3.781261468939306E8 ; 3.4740266897703735E10 ; 0.0
181 ; 1984198.5592196863 ; 2.0329767740344632E8 ; 3.801160917549726E8 ; 3.494355141728616E10 ; 0.0
182 ; 1985820.4039069165 ; 2.0331078670305407E8 ; 3.8210029031419224E8 ; 3.514684909468961E10 ; 0.0
183 ; 1981741.859752866 ; 2.0332384712047136E8 ; 3.840861107180992E8 ; 3.535015988139267E10 ; 0.0
184 ; 1977496.6820979654 ; 2.0333685829817012E8 ; 3.860678525778521E8 ; 3.555348372851314E10 ; 0.0
185 ; 1977162.6521383848 ; 2.0334981988182473E8 ; 3.8804534925995004E8 ; 3.575682058681131E10 ; 0.0
186 ; 1971980.267000817 ; 2.0336273152026135E8 ; 3.9002251191208845E8 ; 3.596017040669314E10 ; 0.0
187 ; 1972686.3958419105 ; 2.0337559286540914E8 ; 3.9199449217908925E8 ; 3.61635331382134E10 ; 0.0
188 ; 1968250.7900060192 ; 2.0338840357225296E8 ; 3.9396717857493114E8 ; 3.636690873107881E10 ; 0.0
189 ; 1967421.4050045465 ; 2.034011632987878E8 ; 3.959354293649372E8 ; 3.657029713465106E10 ; 0.0
190 ; 1964079.2899793969 ; 2.0341387170597443E8 ; 3.9790285076994175E8 ; 3.677369829794985E10 ; 0.0
191 ; 1960806.126218072 ; 2.034265284576968E8 ; 3.9986693005992115E8 ; 3.697711216965582E10 ; 0.0
192 ; 1958653.434424796 ; 2.0343913322072056E8 ; 4.018277361861392E8 ; 3.718053869811352E10 ; 0.0
193 ; 1953859.538715379 ; 2.0345168566465327E8 ; 4.0378638962056404E8 ; 3.7383977831334236E10 ; 0.0
194 ; 1953957.8433689498 ; 2.0346418546190548E8 ; 4.057402491592794E8 ; 3.7587429516998886E10 ; 0.0
195 ; 1951257.52689832 ; 2.0347663228765354E8 ; 4.0769420700264835E8 ; 3.779089370246079E10 ; 0.0
196 ; 1947684.6004481034 ; 2.0348902581980324E8 ; 4.096454645295467E8 ; 3.799437033474844E10 ; 0.0
197 ; 1947542.829981823 ; 2.0350136573895478E8 ; 4.115931491299948E8 ; 3.8197859360568245E10 ; 0.0
198 ; 1942910.3169413619 ; 2.0351365172836903E8 ; 4.135406919599766E8 ; 3.84013607263072E10 ; 0.0
199 ; 1943076.4265494603 ; 2.035258834739345E8 ; 4.15483602276918E8 ; 3.860487437803557E10 ; 0.0
