CSV File for the City 4 on Day 51
1 - Minute m 
2 - Power Consumed at minute m 
3 - Power Produced at minute m 
4 - Energy Consumed since the beginning of the day 
5 - Energy Produced since the beginning of the day 
6 - Energy Lost since the beginning of the day on lines starting from the city
 
0 ; 6797833.119181509 ; 1.0581405989580569E8 ; 0.0 ; 0.0 ; 0.0
1 ; 6803896.056445411 ; 1.059639770800901E8 ; 6797833.119181509 ; 1.0581405989580569E8 ; 0.0
2 ; 6811807.275705969 ; 1.0642297337686339E8 ; 1.360172917562692E7 ; 2.117780369758958E8 ; 0.0
3 ; 6819477.558401407 ; 1.0719105720838809E8 ; 2.041353645133289E7 ; 3.182010103527592E8 ; 0.0
4 ; 6828238.713387305 ; 1.08268236224774E8 ; 2.7233014009734295E7 ; 4.253920675611473E8 ; 0.0
5 ; 6840240.329822385 ; 1.0965451722847503E8 ; 3.40612527231216E7 ; 5.336603037859213E8 ; 0.0
6 ; 6856412.24752921 ; 1.1134990610470709E8 ; 4.090149305294398E7 ; 6.433148210143963E8 ; 0.0
7 ; 6880939.299089824 ; 1.1335440775937551E8 ; 4.775790530047319E7 ; 7.546647271191034E8 ; 0.0
8 ; 6915308.367032379 ; 1.1566802606599343E8 ; 5.463884459956302E7 ; 8.68019134878479E8 ; 0.0
9 ; 6963472.358411228 ; 1.182907638229053E8 ; 6.15541529665954E7 ; 9.836871609444724E8 ; 0.0
10 ; 7040932.886343976 ; 1.2122262272190672E8 ; 6.851762532500662E7 ; 1.1019779247673779E9 ; 0.0
11 ; 7163751.305474103 ; 1.2446360332907817E8 ; 7.555855821135059E7 ; 1.2232005474892845E9 ; 0.0
12 ; 7364184.722798555 ; 1.2801370507833913E8 ; 8.272230951682469E7 ; 1.3476641508183627E9 ; 0.0
13 ; 7552914.563323493 ; 1.3187292627789402E8 ; 9.008649423962325E7 ; 1.4756778558967018E9 ; 0.0
14 ; 7576024.63211578 ; 1.3604126412939847E8 ; 9.763940880294675E7 ; 1.6075507821745958E9 ; 0.0
15 ; 7585922.303046688 ; 1.405187147593392E8 ; 1.0521543343506253E8 ; 1.7435920463039942E9 ; 0.0
16 ; 7591867.892501493 ; 1.4530527326181105E8 ; 1.1280135573810922E8 ; 1.8841107610633335E9 ; 0.0
17 ; 7600977.590871622 ; 1.5040093375159797E8 ; 1.203932236306107E8 ; 2.0294160343251445E9 ; 0.0
18 ; 7609000.4962125765 ; 1.558056894262461E8 ; 1.2799420122148232E8 ; 2.1798169680767426E9 ; 0.0
19 ; 7620150.06062243 ; 1.6151953263564566E8 ; 1.356032017176949E8 ; 2.335622657502989E9 ; 0.0
20 ; 7627426.193873972 ; 1.6754245495753404E8 ; 1.4322335177831733E8 ; 2.4971421901386347E9 ; 0.0
21 ; 7638196.834810101 ; 1.7387444727728984E8 ; 1.508507779721913E8 ; 2.6646846450961685E9 ; 0.0
22 ; 7645432.416836623 ; 1.805154998703981E8 ; 1.584889748070014E8 ; 2.8385590923734584E9 ; 0.0
23 ; 7651952.702914457 ; 1.8746560248603594E8 ; 1.6613440722383803E8 ; 3.0190745922438564E9 ; 0.0
24 ; 7660294.029405193 ; 1.947247444303366E8 ; 1.7378635992675248E8 ; 3.2065401947298923E9 ; 0.0
25 ; 7671842.144413791 ; 2.0098095554621744E8 ; 1.8144665395615768E8 ; 3.4012649391602287E9 ; 0.0
26 ; 7680954.568379997 ; 2.0098777232917318E8 ; 1.8911849610057148E8 ; 3.602245894706446E9 ; 0.0
27 ; 7689570.226903102 ; 2.0099495252738303E8 ; 1.9679945066895148E8 ; 3.8032336670356193E9 ; 0.0
28 ; 7696489.985468526 ; 2.0100248445923728E8 ; 2.044890208958546E8 ; 4.004228619563002E9 ; 0.0
29 ; 7705859.248729025 ; 2.0101035637231442E8 ; 2.1218551088132313E8 ; 4.205231104022239E9 ; 0.0
30 ; 7715746.936233448 ; 2.0101855650369644E8 ; 2.1989137013005215E8 ; 4.406241460394553E9 ; 0.0
31 ; 7720984.21545556 ; 2.0102707313463256E8 ; 2.276071170662856E8 ; 4.60726001689825E9 ; 0.0
32 ; 7730337.462191926 ; 2.010358946394622E8 ; 2.3532810128174117E8 ; 4.808287090032882E9 ; 0.0
33 ; 7737950.758185505 ; 2.0104500952883106E8 ; 2.430584387439331E8 ; 5.009322984672344E9 ; 0.0
34 ; 7743950.302968468 ; 2.0105440648733822E8 ; 2.5079638950211862E8 ; 5.210367994201176E9 ; 0.0
35 ; 7751247.927820049 ; 2.010640744058347E8 ; 2.585403398050871E8 ; 5.411422400688514E9 ; 0.0
36 ; 7759445.042134761 ; 2.0107400240865865E8 ; 2.6629158773290715E8 ; 5.612486475094349E9 ; 0.0
37 ; 7765444.809861672 ; 2.0108417987613764E8 ; 2.740510327750419E8 ; 5.813560477503008E9 ; 0.0
38 ; 7774890.470255923 ; 2.0109459646271962E8 ; 2.8181647758490354E8 ; 6.014644657379146E9 ; 0.0
39 ; 7775817.152010355 ; 2.011052421111105E8 ; 2.8959136805515945E8 ; 6.215739253841866E9 ; 0.0
40 ; 7783006.307862823 ; 2.0111610706280234E8 ; 2.9736718520716983E8 ; 6.416844495952976E9 ; 0.0
41 ; 7787462.5783627 ; 2.0112718186537158E8 ; 3.0515019151503265E8 ; 6.617960603015779E9 ; 0.0
42 ; 7792729.083785566 ; 2.0113845737691602E8 ; 3.1293765409339535E8 ; 6.81908778488115E9 ; 0.0
43 ; 7799660.020680412 ; 2.0114992476798296E8 ; 3.2073038317718095E8 ; 7.020226242258066E9 ; 0.0
44 ; 7806183.660175745 ; 2.0116157552131936E8 ; 3.285300431978614E8 ; 7.221376167026049E9 ; 0.0
45 ; 7807813.1323001385 ; 2.0117340142975253E8 ; 3.363362268580371E8 ; 7.422537742547368E9 ; 0.0
46 ; 7811842.406508002 ; 2.0118539459248486E8 ; 3.4414403999033725E8 ; 7.62371114397712E9 ; 0.0
47 ; 7815036.268707733 ; 2.0119754741006026E8 ; 3.519558823968453E8 ; 7.824896538569605E9 ; 0.0
48 ; 7819620.19532721 ; 2.01209852578236E8 ; 3.5977091866555303E8 ; 8.026094085979665E9 ; 0.0
49 ; 7819958.899638338 ; 2.0122230308096758E8 ; 3.6759053886088026E8 ; 8.2273039385579E9 ; 0.0
50 ; 7823430.650535752 ; 2.0123489218269217E8 ; 3.754104977605186E8 ; 8.428526241638868E9 ; 0.0
51 ; 7824742.941061087 ; 2.0124761342007336E8 ; 3.832339284110544E8 ; 8.62976113382156E9 ; 0.0
52 ; 7826085.997850561 ; 2.0126046059334943E8 ; 3.9105867135211545E8 ; 8.831008747241632E9 ; 0.0
53 ; 7828605.466917527 ; 2.0127342775740877E8 ; 3.98884757349966E8 ; 9.032269207834982E9 ; 0.0
54 ; 7829063.280419539 ; 2.0128650921269855E8 ; 4.067133628168835E8 ; 9.23354263559239E9 ; 0.0
55 ; 7831589.740624986 ; 2.0129969949605712E8 ; 4.1454242609730303E8 ; 9.434829144805088E9 ; 0.0
56 ; 7831823.118197822 ; 2.013129933715469E8 ; 4.22374015837928E8 ; 9.636128844301146E9 ; 0.0
57 ; 7837289.184038773 ; 2.0132638582135195E8 ; 4.302058389561258E8 ; 9.837441837672693E9 ; 0.0
58 ; 7836307.361453842 ; 2.0133987203679287E8 ; 4.3804312814016455E8 ; 1.0038768223494045E10 ; 0.0
59 ; 7840078.5856788205 ; 2.0135344740950304E8 ; 4.458794355016184E8 ; 1.0240108095530838E10 ; 0.0
60 ; 7841153.803205814 ; 2.0136710752280048E8 ; 4.537195140872972E8 ; 1.0441461542940342E10 ; 0.0
61 ; 7841714.777951223 ; 2.0138084814328334E8 ; 4.61560667890503E8 ; 1.0642828650463142E10 ; 0.0
62 ; 7844332.316148342 ; 2.0139466521266997E8 ; 4.6940238266845423E8 ; 1.0844209498606426E10 ; 0.0
63 ; 7845711.869266349 ; 2.0140855483989912E8 ; 4.772467149846026E8 ; 1.1045604163819096E10 ; 0.0
64 ; 7846978.731255854 ; 2.014225132935014E8 ; 4.850924268538689E8 ; 1.1247012718658995E10 ; 0.0
65 ; 7848511.997005379 ; 2.0143653699424914E8 ; 4.9293940558512473E8 ; 1.1448435231952496E10 ; 0.0
66 ; 7849462.8380921865 ; 2.0145062250808808E8 ; 5.0078791758213013E8 ; 1.1649871768946745E10 ; 0.0
67 ; 7849457.762739159 ; 2.0146476653935212E8 ; 5.0863738042022234E8 ; 1.1851322391454832E10 ; 0.0
68 ; 7852584.41367503 ; 2.0147896592425942E8 ; 5.164868381829615E8 ; 1.2052787157994184E10 ; 0.0
69 ; 7851376.155670987 ; 2.0149321762468684E8 ; 5.2433942259663653E8 ; 1.2254266123918444E10 ; 0.0
70 ; 7850146.562908022 ; 2.015075187222177E8 ; 5.3219079875230753E8 ; 1.245575934154313E10 ; 0.0
71 ; 7852147.741191221 ; 2.015218664124569E8 ; 5.400409453152156E8 ; 1.2657266860265348E10 ; 0.0
72 ; 7852722.454232709 ; 2.015362579996065E8 ; 5.478930930564069E8 ; 1.2858788726677805E10 ; 0.0
73 ; 7854138.320608663 ; 2.0155069089129388E8 ; 5.557458155106395E8 ; 1.3060324984677412E10 ; 0.0
74 ; 7850861.8445085 ; 2.0156516259364435E8 ; 5.635999538312482E8 ; 1.3261875675568707E10 ; 0.0
75 ; 7854875.963354539 ; 2.015796707065894E8 ; 5.714508156757567E8 ; 1.3463440838162352E10 ; 0.0
76 ; 7855274.408596154 ; 2.0159421291940218E8 ; 5.793056916391113E8 ; 1.366502050886894E10 ; 0.0
77 ; 7854739.393721725 ; 2.016087870064505E8 ; 5.871609660477074E8 ; 1.3866614721788343E10 ; 0.0
78 ; 7853772.473689588 ; 2.0162339082315913E8 ; 5.950157054414291E8 ; 1.4068223508794794E10 ; 0.0
79 ; 7851200.0135147255 ; 2.0163802230217177E8 ; 6.028694779151187E8 ; 1.4269846899617952E10 ; 0.0
80 ; 7849239.495075677 ; 2.0165267944970432E8 ; 6.107206779286335E8 ; 1.4471484921920124E10 ; 0.0
81 ; 7848416.1508498015 ; 2.016673603420805E8 ; 6.185699174237092E8 ; 1.467313760136983E10 ; 0.0
82 ; 7841770.371203404 ; 2.0168206312244138E8 ; 6.26418333574559E8 ; 1.487480496171191E10 ; 0.0
83 ; 7839627.447980377 ; 2.0169678599762067E8 ; 6.342601039457624E8 ; 1.5076487024834352E10 ; 0.0
84 ; 7840762.314603504 ; 2.017115272351776E8 ; 6.420997313937428E8 ; 1.5278183810831974E10 ; 0.0
85 ; 7836946.52867948 ; 2.0172628516057986E8 ; 6.499404937083462E8 ; 1.5479895338067152E10 ; 0.0
86 ; 7833940.012297932 ; 2.01741058154529E8 ; 6.577774402370257E8 ; 1.5681621623227732E10 ; 0.0
87 ; 7829467.691117854 ; 2.0175584465042132E8 ; 6.656113802493237E8 ; 1.5883362681382261E10 ; 0.0
88 ; 7823880.819835112 ; 2.0177064313193703E8 ; 6.734408479404416E8 ; 1.6085118526032682E10 ; 0.0
89 ; 7824903.628361332 ; 2.0178545213075158E8 ; 6.812647287602767E8 ; 1.628688916916462E10 ; 0.0
90 ; 7821861.517992648 ; 2.0180027022436273E8 ; 6.89089632388638E8 ; 1.648867462129537E10 ; 0.0
91 ; 7817611.909891292 ; 2.018150960340271E8 ; 6.969114939066306E8 ; 1.6690474891519733E10 ; 0.0
92 ; 7815827.048854972 ; 2.018299282228008E8 ; 7.047291058165219E8 ; 1.689228998755376E10 ; 0.0
93 ; 7809310.313847595 ; 2.0184476549367884E8 ; 7.125449328653768E8 ; 1.7094119915776562E10 ; 0.0
94 ; 7807339.59608253 ; 2.0185960658782765E8 ; 7.203542431792244E8 ; 1.729596468127024E10 ; 0.0
95 ; 7803108.262699002 ; 2.018744502829063E8 ; 7.281615827753069E8 ; 1.7497824287858067E10 ; 0.0
96 ; 7802145.988867106 ; 2.0188929539147156E8 ; 7.35964691038006E8 ; 1.7699698738140972E10 ; 0.0
97 ; 7796439.734342244 ; 2.0190414075946236E8 ; 7.437668370268731E8 ; 1.7901588033532444E10 ; 0.0
98 ; 7794889.194807769 ; 2.0191898526475948E8 ; 7.515632767612153E8 ; 1.810349217429191E10 ; 0.0
99 ; 7793348.253192789 ; 2.0193382781581664E8 ; 7.593581659560231E8 ; 1.8305411159556667E10 ; 0.0
100 ; 7788159.885412373 ; 2.01948667350359E8 ; 7.671515142092159E8 ; 1.8507344987372482E10 ; 0.0
101 ; 7780291.039815146 ; 2.019635028341456E8 ; 7.749396740946282E8 ; 1.8709293654722843E10 ; 0.0
102 ; 7778284.307729118 ; 2.0197833325979272E8 ; 7.827199651344434E8 ; 1.8911257157556988E10 ; 0.0
103 ; 7773168.71201497 ; 2.0199315764565408E8 ; 7.904982494421725E8 ; 1.911323549081678E10 ; 0.0
104 ; 7769160.065144475 ; 2.02007975034756E8 ; 7.982714181541874E8 ; 1.9315228648462433E10 ; 0.0
105 ; 7768273.304319843 ; 2.0202278449378374E8 ; 8.060405782193319E8 ; 1.951723662349719E10 ; 0.0
106 ; 7760724.751700031 ; 2.0203758511211687E8 ; 8.138088515236517E8 ; 1.971925940799097E10 ; 0.0
107 ; 7758074.951180431 ; 2.0205237600091085E8 ; 8.215695762753518E8 ; 1.992129699310309E10 ; 0.0
108 ; 7752081.558708165 ; 2.020671562922225E8 ; 8.293276512265322E8 ; 2.0123349369104E10 ; 0.0
109 ; 7750528.359128416 ; 2.020819251381771E8 ; 8.370797327852404E8 ; 2.032541652539622E10 ; 0.0
110 ; 7741567.116320866 ; 2.0209668171017495E8 ; 8.448302611443689E8 ; 2.0527498450534397E10 ; 0.0
111 ; 7742959.088256667 ; 2.021114251981352E8 ; 8.525718282606897E8 ; 2.072959513224457E10 ; 0.0
112 ; 7734769.1461382685 ; 2.0212615480977547E8 ; 8.603147873489465E8 ; 2.0931706557442707E10 ; 0.0
113 ; 7728250.182036804 ; 2.0214086976992473E8 ; 8.680495564950848E8 ; 2.1133832712252483E10 ; 0.0
114 ; 7725223.949740399 ; 2.0215556931986845E8 ; 8.757778066771215E8 ; 2.1335973582022408E10 ; 0.0
115 ; 7721071.1216207575 ; 2.021702527167238E8 ; 8.835030306268619E8 ; 2.1538129151342278E10 ; 0.0
116 ; 7717858.021341525 ; 2.02184919232844E8 ; 8.912241017484827E8 ; 2.1740299404059002E10 ; 0.0
117 ; 7710793.797393826 ; 2.021995681552494E8 ; 8.989419597698243E8 ; 2.1942484323291847E10 ; 0.0
118 ; 7703506.604517403 ; 2.0221419878508508E8 ; 9.066527535672181E8 ; 2.2144683891447098E10 ; 0.0
119 ; 7702205.490191924 ; 2.022288104371028E8 ; 9.143562601717355E8 ; 2.234689809023218E10 ; 0.0
120 ; 7693716.272002931 ; 2.0224340243916625E8 ; 9.220584656619275E8 ; 2.2549126900669285E10 ; 0.0
121 ; 7689338.356041636 ; 2.022579741317789E8 ; 9.297521819339304E8 ; 2.275137030310845E10 ; 0.0
122 ; 7684950.9850067105 ; 2.022725248676326E8 ; 9.374415202899721E8 ; 2.295362827724023E10 ; 0.0
123 ; 7681032.068156887 ; 2.0228705401117644E8 ; 9.451264712749788E8 ; 2.3155900802107864E10 ; 0.0
124 ; 7674809.895096788 ; 2.0230156093820485E8 ; 9.528075033431356E8 ; 2.335818785611904E10 ; 0.0
125 ; 7667152.491424978 ; 2.0231604503546357E8 ; 9.604823132382324E8 ; 2.3560489417057247E10 ; 0.0
126 ; 7663930.43539757 ; 2.0233050570027316E8 ; 9.681494657296574E8 ; 2.3762805462092712E10 ; 0.0
127 ; 7655154.078616053 ; 2.023449423401688E8 ; 9.75813396165055E8 ; 2.3965135967792984E10 ; 0.0
128 ; 7649825.776573128 ; 2.023593543725559E8 ; 9.834685502436711E8 ; 2.4167480910133152E10 ; 0.0
129 ; 7644021.345076914 ; 2.0237374122438043E8 ; 9.911183760202442E8 ; 2.4369840264505707E10 ; 0.0
130 ; 7637779.398221747 ; 2.0238810233181342E8 ; 9.987623973653212E8 ; 2.4572214005730087E10 ; 0.0
131 ; 7627513.503038946 ; 2.024024371399493E8 ; 1.0064001767635429E9 ; 2.47746021080619E10 ; 0.0
132 ; 7620998.7144663045 ; 2.024167451025166E8 ; 1.0140276902665819E9 ; 2.497700454520185E10 ; 0.0
133 ; 7611480.1625591405 ; 2.0243102568160143E8 ; 1.0216486889810482E9 ; 2.5179421290304367E10 ; 0.0
134 ; 7601147.990467123 ; 2.0244527834738228E8 ; 1.0292601691436074E9 ; 2.538185231598597E10 ; 0.0
135 ; 7596017.208860558 ; 2.02459502577876E8 ; 1.0368613171340744E9 ; 2.558429759433335E10 ; 0.0
136 ; 7583687.9699116545 ; 2.0247369785869464E8 ; 1.044457334342935E9 ; 2.578675709691123E10 ; 0.0
137 ; 7576223.609087425 ; 2.0248786368281212E8 ; 1.0520410223128467E9 ; 2.5989230794769924E10 ; 0.0
138 ; 7569861.165594152 ; 2.025019995503409E8 ; 1.0596172459219341E9 ; 2.6191718658452736E10 ; 0.0
139 ; 7561390.125935216 ; 2.0251610496831733E8 ; 1.0671871070875282E9 ; 2.639422065800308E10 ; 0.0
140 ; 7550396.335188369 ; 2.0253017945049655E8 ; 1.0747484972134635E9 ; 2.6596736762971397E10 ; 0.0
141 ; 7538134.658618939 ; 2.0254422251715508E8 ; 1.082298893548652E9 ; 2.6799266942421894E10 ; 0.0
142 ; 7531366.644275039 ; 2.025582336949018E8 ; 1.0898370282072709E9 ; 2.700181116493905E10 ; 0.0
143 ; 7520558.754057772 ; 2.0257221251649657E8 ; 1.0973683948515458E9 ; 2.720436939863395E10 ; 0.0
144 ; 7514227.769283785 ; 2.0258615852067614E8 ; 1.1048889536056037E9 ; 2.7406941611150444E10 ; 0.0
145 ; 7505478.20607627 ; 2.0260007125198692E8 ; 1.1124031813748875E9 ; 2.760952776967112E10 ; 0.0
146 ; 7497518.626030411 ; 2.0261395026062456E8 ; 1.1199086595809639E9 ; 2.7812127840923107E10 ; 0.0
147 ; 7490525.171204834 ; 2.0262779510227993E8 ; 1.1274061782069943E9 ; 2.801474179118373E10 ; 0.0
148 ; 7487366.53963758 ; 2.026416053379912E8 ; 1.134896703378199E9 ; 2.821736958628601E10 ; 0.0
149 ; 7480187.623958956 ; 2.0265538053400162E8 ; 1.1423840699178367E9 ; 2.8420011191624E10 ; 0.0
150 ; 7471977.662507779 ; 2.0266912026162297E8 ; 1.1498642575417957E9 ; 2.8622666572158E10 ; 0.0
151 ; 7465362.425532076 ; 2.0268282409710455E8 ; 1.1573362352043035E9 ; 2.8825335692419624E10 ; 0.0
152 ; 7458181.554084871 ; 2.026964916215069E8 ; 1.1648015976298356E9 ; 2.9028018516516727E10 ; 0.0
153 ; 7451347.3403792735 ; 2.0271012242058074E8 ; 1.1722597791839204E9 ; 2.9230715008138233E10 ; 0.0
154 ; 7446121.735696923 ; 2.0272371608465037E8 ; 1.1797111265242996E9 ; 2.9433425130558815E10 ; 0.0
155 ; 7440307.982912323 ; 2.027372722085018E8 ; 1.1871572482599967E9 ; 2.9636148846643467E10 ; 0.0
156 ; 7432609.034212191 ; 2.0275079039127478E8 ; 1.194597556242909E9 ; 2.9838886118851967E10 ; 0.0
157 ; 7425863.743653625 ; 2.0276427023635957E8 ; 1.202030165277121E9 ; 3.004163690924324E10 ; 0.0
158 ; 7417614.861745388 ; 2.0277771135129684E8 ; 1.2094560290207746E9 ; 3.02444011794796E10 ; 0.0
159 ; 7410879.283324891 ; 2.0279111334768218E8 ; 1.21687364388252E9 ; 3.0447178890830894E10 ; 0.0
160 ; 7402658.1454989 ; 2.028044758410736E8 ; 1.224284523165845E9 ; 3.0649970004178577E10 ; 0.0
161 ; 7395909.607764499 ; 2.0281779845090282E8 ; 1.231687181311344E9 ; 3.085277448001965E10 ; 0.0
162 ; 7390226.451209227 ; 2.0283108080038977E8 ; 1.2390830909191084E9 ; 3.105559227847055E10 ; 0.0
163 ; 7382443.9775938615 ; 2.0284432251646045E8 ; 1.2464733173703177E9 ; 3.125842335927094E10 ; 0.0
164 ; 7375253.664845232 ; 2.0285752322966754E8 ; 1.2538557613479116E9 ; 3.14612676817874E10 ; 0.0
165 ; 7365467.305847283 ; 2.0287068257411435E8 ; 1.2612310150127568E9 ; 3.1664125205017067E10 ; 0.0
166 ; 7360175.115430338 ; 2.028838001873812E8 ; 1.268596482318604E9 ; 3.1866995887591183E10 ; 0.0
167 ; 7353852.961230587 ; 2.0289687571045482E8 ; 1.2759566574340343E9 ; 3.2069879687778564E10 ; 0.0
168 ; 7344305.91346725 ; 2.0290990878766012E8 ; 1.2833105103952649E9 ; 3.2272776563489017E10 ; 0.0
169 ; 7338022.889905341 ; 2.029228990665946E8 ; 1.290654816308732E9 ; 3.2475686472276676E10 ; 0.0
170 ; 7331366.020798513 ; 2.029358461980652E8 ; 1.2979928391986375E9 ; 3.267860937134327E10 ; 0.0
171 ; 7322453.397494542 ; 2.0294874983602715E8 ; 1.305324205219436E9 ; 3.2881545217541336E10 ; 0.0
172 ; 7314413.9704254735 ; 2.0296160963752553E8 ; 1.3126466586169305E9 ; 3.3084493967377365E10 ; 0.0
173 ; 7308882.906226232 ; 2.0297442526263842E8 ; 1.3199610725873559E9 ; 3.328745557701489E10 ; 0.0
174 ; 7305023.338160419 ; 2.0298719637442255E8 ; 1.327269955493582E9 ; 3.3490430002277527E10 ; 0.0
175 ; 7301403.739220523 ; 2.0299992263886055E8 ; 1.3345749788317425E9 ; 3.369341719865195E10 ; 0.0
176 ; 7295666.175615142 ; 2.0301260372481036E8 ; 1.3418763825709631E9 ; 3.389641712129081E10 ; 0.0
177 ; 7289237.794918709 ; 2.0302523930395633E8 ; 1.3491720487465782E9 ; 3.409942972501562E10 ; 0.0
178 ; 7288209.734921875 ; 2.0303782905076203E8 ; 1.356461286541497E9 ; 3.4302454964319576E10 ; 0.0
179 ; 7284263.287087042 ; 2.0305037264242488E8 ; 1.363749496276419E9 ; 3.450549279337034E10 ; 0.0
180 ; 7276923.286211652 ; 2.030628697588323E8 ; 1.371033759563506E9 ; 3.4708543166012764E10 ; 0.0
181 ; 7274177.773194311 ; 2.0307532008251932E8 ; 1.3783106828497176E9 ; 3.49116060357716E10 ; 0.0
182 ; 7268557.898305181 ; 2.0308772329862797E8 ; 1.385584860622912E9 ; 3.511468135585412E10 ; 0.0
183 ; 7263004.113779321 ; 2.0310007909486774E8 ; 1.392853418521217E9 ; 3.531776907915275E10 ; 0.0
184 ; 7258713.718697306 ; 2.0311238716147777E8 ; 1.4001164226349964E9 ; 3.552086915824762E10 ; 0.0
185 ; 7254078.723219863 ; 2.0312464719119024E8 ; 1.4073751363536937E9 ; 3.5723981545409096E10 ; 0.0
186 ; 7252887.419976394 ; 2.0313685887919495E8 ; 1.4146292150769136E9 ; 3.592710619260029E10 ; 0.0
187 ; 7247862.520006206 ; 2.0314902192310518E8 ; 1.42188210249689E9 ; 3.6130243051479485E10 ; 0.0
188 ; 7240357.6807636665 ; 2.03161136022925E8 ; 1.4291299650168962E9 ; 3.633339207340259E10 ; 0.0
189 ; 7237082.202203456 ; 2.0317320088101724E8 ; 1.43637032269766E9 ; 3.6536553209425514E10 ; 0.0
190 ; 7232347.356877433 ; 2.031852162020731E8 ; 1.4436074048998635E9 ; 3.673972641030653E10 ; 0.0
191 ; 7225516.8766998965 ; 2.0319718169308245E8 ; 1.4508397522567408E9 ; 3.6942911626508606E10 ; 0.0
192 ; 7221935.771562813 ; 2.032090970633053E8 ; 1.4580652691334407E9 ; 3.714610880820169E10 ; 0.0
193 ; 7221404.272474388 ; 2.0322096202424413E8 ; 1.4652872049050035E9 ; 3.7349317905265E10 ; 0.0
194 ; 7213249.783978748 ; 2.032327762896176E8 ; 1.4725086091774778E9 ; 3.7552538867289246E10 ; 0.0
195 ; 7211427.886686805 ; 2.0324453957533455E8 ; 1.4797218589614565E9 ; 3.7755771643578865E10 ; 0.0
196 ; 7204683.662590482 ; 2.032562515994694E8 ; 1.4869332868481433E9 ; 3.79590161831542E10 ; 0.0
197 ; 7200181.967889515 ; 2.0326791208223814E8 ; 1.4941379705107338E9 ; 3.816227243475367E10 ; 0.0
198 ; 7195810.055869868 ; 2.032795207459753E8 ; 1.5013381524786234E9 ; 3.836554034683591E10 ; 0.0
199 ; 7191688.369935289 ; 2.032910773151116E8 ; 1.5085339625344932E9 ; 3.856881986758188E10 ; 0.0
200 ; 7186661.0133222835 ; 2.0330258151615244E8 ; 1.5157256509044285E9 ; 3.877211094489699E10 ; 0.0
201 ; 7183864.857597095 ; 1.5670802219402122E8 ; 1.5229123119177508E9 ; 3.897541352641314E10 ; 0.0
