CSV File for the City 4 on Day 109
1 - Minute m 
2 - Power Consumed at minute m 
3 - Power Produced at minute m 
4 - Energy Consumed since the beginning of the day 
5 - Energy Produced since the beginning of the day 
6 - Energy Lost since the beginning of the day on lines starting from the city
 
0 ; 6875832.341644827 ; 1.062484223268232E8 ; 0.0 ; 0.0 ; 0.0
1 ; 6885423.050006389 ; 1.0639899030613971E8 ; 6875832.341644827 ; 1.062484223268232E8 ; 0.0
2 ; 6891595.891755172 ; 1.0685858348783901E8 ; 1.3761255391651217E7 ; 2.126474126329629E8 ; 0.0
3 ; 6901492.131699399 ; 1.0762720572693604E8 ; 2.0652851283406388E7 ; 3.195059961208019E8 ; 0.0
4 ; 6909726.581226748 ; 1.0870486047529292E8 ; 2.7554343415105786E7 ; 4.2713320184773797E8 ; 0.0
5 ; 6922408.629086307 ; 1.1009155076348293E8 ; 3.446406999633253E7 ; 5.358380623230309E8 ; 0.0
6 ; 6942571.452107136 ; 1.1178727918457976E8 ; 4.138647862541884E7 ; 6.459296130865138E8 ; 0.0
7 ; 6963406.594823562 ; 1.1379204788007295E8 ; 4.832905007752598E7 ; 7.577168922710935E8 ; 0.0
8 ; 6996219.362143064 ; 1.1610585852808577E8 ; 5.529245667234954E7 ; 8.715089401511664E8 ; 0.0
9 ; 7046323.13562385 ; 1.1872871233404768E8 ; 6.2288676034492604E7 ; 9.876147986792521E8 ; 0.0
10 ; 7123544.966958228 ; 1.2166061002394235E8 ; 6.933499917011645E7 ; 1.1063435110133E9 ; 0.0
11 ; 7248495.215914568 ; 1.2490155184022054E8 ; 7.645854413707468E7 ; 1.2280041210372424E9 ; 0.0
12 ; 7443586.167738621 ; 1.2845153754043147E8 ; 8.370703935298924E7 ; 1.3529056728774629E9 ; 0.0
13 ; 7639167.8196973065 ; 1.3231056639859146E8 ; 9.115062552072786E7 ; 1.4813572104178944E9 ; 0.0
14 ; 7658622.244910168 ; 1.3647863720927113E8 ; 9.878979334042516E7 ; 1.613667776816486E9 ; 0.0
15 ; 7668971.990203006 ; 1.409557482943471E8 ; 1.0644841558533533E8 ; 1.750146414025757E9 ; 0.0
16 ; 7678185.1153028775 ; 1.4574189751232997E8 ; 1.1411738757553834E8 ; 1.8911021623201041E9 ; 0.0
17 ; 7686426.502933078 ; 1.5083708227014592E8 ; 1.2179557269084121E8 ; 2.0368440598324342E9 ; 0.0
18 ; 7694979.192620272 ; 1.5624129953722173E8 ; 1.294819991937743E8 ; 2.18768114210258E9 ; 0.0
19 ; 7705600.065788365 ; 1.6195454586169526E8 ; 1.3717697838639456E8 ; 2.343922441639802E9 ; 0.0
20 ; 7716950.6072781915 ; 1.6797681738855156E8 ; 1.4488257845218292E8 ; 2.5058769875014973E9 ; 0.0
21 ; 7726217.906419206 ; 1.7430810987946656E8 ; 1.5259952905946112E8 ; 2.673853804890049E9 ; 0.0
22 ; 7734924.608218476 ; 1.8094841873412734E8 ; 1.6032574696588033E8 ; 2.8481619147695155E9 ; 0.0
23 ; 7743168.814842825 ; 1.8789773901278853E8 ; 1.6806067157409883E8 ; 3.029110333503643E9 ; 0.0
24 ; 7752416.189021764 ; 1.951560654598198E8 ; 1.7580384038894165E8 ; 3.217008072516432E9 ; 0.0
25 ; 7761890.3350591315 ; 2.01411433426185E8 ; 1.835562565779634E8 ; 3.4121641379762516E9 ; 0.0
26 ; 7771752.657443621 ; 2.0141738493114004E8 ; 1.9131814691302255E8 ; 3.6135755714024367E9 ; 0.0
27 ; 7778702.199538998 ; 2.014236832122138E8 ; 1.9908989957046616E8 ; 3.8149929563335767E9 ; 0.0
28 ; 7786180.956939991 ; 2.0143032199711227E8 ; 2.0686860177000517E8 ; 4.0164166395457907E9 ; 0.0
29 ; 7796905.050241815 ; 2.0143729482194254E8 ; 2.1465478272694516E8 ; 4.217846961542903E9 ; 0.0
30 ; 7805179.603617908 ; 2.014445950558489E8 ; 2.22451687777187E8 ; 4.419284256364845E9 ; 0.0
31 ; 7817793.952759259 ; 2.0145221592513245E8 ; 2.302568673808049E8 ; 4.620728851420694E9 ; 0.0
32 ; 7823301.233610433 ; 2.0146015053670132E8 ; 2.3807466133356416E8 ; 4.822181067345827E9 ; 0.0
33 ; 7831067.083431024 ; 2.014683919007173E8 ; 2.4589796256717458E8 ; 5.023641217882528E9 ; 0.0
34 ; 7840782.753402093 ; 2.014769329523249E8 ; 2.5372902965060562E8 ; 5.225109609783246E9 ; 0.0
35 ; 7847919.283459065 ; 2.0148576657236928E8 ; 2.615698124040077E8 ; 5.426586542735571E9 ; 0.0
36 ; 7856520.22295631 ; 2.0149488560702705E8 ; 2.6941773168746674E8 ; 5.6280723093079405E9 ; 0.0
37 ; 7862256.45774552 ; 2.0150428288629413E8 ; 2.7727425191042304E8 ; 5.829567194914968E9 ; 0.0
38 ; 7867595.664748343 ; 2.015139512412905E8 ; 2.8513650836816853E8 ; 6.031071477801262E9 ; 0.0
39 ; 7875167.083067162 ; 2.0152388352035895E8 ; 2.930041040329169E8 ; 6.232585429042552E9 ; 0.0
40 ; 7881140.261268044 ; 2.015340726039476E8 ; 3.008792711159841E8 ; 6.434109312562911E9 ; 0.0
41 ; 7886638.911267785 ; 2.015445114182812E8 ; 3.087604113772521E8 ; 6.635643385166859E9 ; 0.0
42 ; 7893796.657795866 ; 2.0155519294783527E8 ; 3.1664705028851986E8 ; 6.83718789658514E9 ; 0.0
43 ; 7896042.338168476 ; 2.01566110246639E8 ; 3.245408469463157E8 ; 7.038743089532975E9 ; 0.0
44 ; 7904680.611256301 ; 2.0157725644843987E8 ; 3.324368892844842E8 ; 7.240309199779614E9 ; 0.0
45 ; 7908684.3919423865 ; 2.0158862477577043E8 ; 3.403415698957405E8 ; 7.441886456228054E9 ; 0.0
46 ; 7916098.800336923 ; 2.0160020854796338E8 ; 3.482502542876829E8 ; 7.643475081003824E9 ; 0.0
47 ; 7915843.901342264 ; 2.0161200118816543E8 ; 3.561663530880198E8 ; 7.845075289551787E9 ; 0.0
48 ; 7920470.511252623 ; 2.0162399622940248E8 ; 3.6408219698936206E8 ; 8.046687290739953E9 ; 0.0
49 ; 7923931.674889515 ; 2.0163618731975314E8 ; 3.720026675006147E8 ; 8.248311286969356E9 ; 0.0
50 ; 7929024.933276114 ; 2.0164856822668627E8 ; 3.799265991755042E8 ; 8.449947474289108E9 ; 0.0
51 ; 7933015.604132278 ; 2.016611328406205E8 ; 3.878556241087803E8 ; 8.651596042515795E9 ; 0.0
52 ; 7935938.143532164 ; 2.0167387517776227E8 ; 3.957886397129126E8 ; 8.853257175356415E9 ; 0.0
53 ; 7937749.501629358 ; 2.0168678938227922E8 ; 4.037245778564448E8 ; 9.054931050534178E9 ; 0.0
54 ; 7939765.59498754 ; 2.0169986972786307E8 ; 4.116623273580741E8 ; 9.256617839916456E9 ; 0.0
55 ; 7941748.410305273 ; 2.0171311061873522E8 ; 4.1960209295306164E8 ; 9.45831770964432E9 ; 0.0
56 ; 7945751.972171198 ; 2.0172650659014672E8 ; 4.275438413633669E8 ; 9.660030820263054E9 ; 0.0
57 ; 7945733.65105568 ; 2.0174005230842036E8 ; 4.354895933355381E8 ; 9.8617573268532E9 ; 0.0
58 ; 7950959.559221077 ; 2.0175374257058194E8 ; 4.434353269865938E8 ; 1.0063497379161621E10 ; 0.0
59 ; 7951971.5828260165 ; 2.0176757230362418E8 ; 4.513862865458149E8 ; 1.0265251121732203E10 ; 0.0
60 ; 7954677.020211508 ; 2.0178153656344405E8 ; 4.593382581286409E8 ; 1.0467018694035828E10 ; 0.0
61 ; 7955149.922379042 ; 2.0179563053349233E8 ; 4.672929351488524E8 ; 1.0668800230599272E10 ; 0.0
62 ; 7959206.438633634 ; 2.0180984952317086E8 ; 4.752480850712314E8 ; 1.0870595861132765E10 ; 0.0
63 ; 7959893.497934614 ; 2.0182418896601057E8 ; 4.8320729150986505E8 ; 1.1072405710655935E10 ; 0.0
64 ; 7963011.177878732 ; 2.0183864441766107E8 ; 4.911671850077997E8 ; 1.1274229899621946E10 ; 0.0
65 ; 7963825.840810511 ; 2.0185321155371943E8 ; 4.991301961856784E8 ; 1.1476068544039608E10 ; 0.0
66 ; 7965330.156889009 ; 2.018678861674245E8 ; 5.0709402202648896E8 ; 1.1677921755593327E10 ; 0.0
67 ; 7968583.610389643 ; 2.018826641672395E8 ; 5.15059352183378E8 ; 1.1879789641760752E10 ; 0.0
68 ; 7971608.80075008 ; 2.0189754157434502E8 ; 5.2302793579376763E8 ; 1.2081672305927992E10 ; 0.0
69 ; 7970692.913809577 ; 2.0191251452006087E8 ; 5.309995445945177E8 ; 1.2283569847502337E10 ; 0.0
70 ; 7973375.019137873 ; 2.0192757924321482E8 ; 5.389702375083272E8 ; 1.2485482362022398E10 ; 0.0
71 ; 7975023.147745431 ; 2.0194273208747345E8 ; 5.469436125274651E8 ; 1.2687409941265614E10 ; 0.0
72 ; 7976776.366241476 ; 2.0195796949864963E8 ; 5.549186356752106E8 ; 1.2889352673353086E10 ; 0.0
73 ; 7980149.58848458 ; 2.0197328802199808E8 ; 5.62895412041452E8 ; 1.3091310642851736E10 ; 0.0
74 ; 7979092.816109375 ; 2.019886842995114E8 ; 5.708755616299366E8 ; 1.3293283930873734E10 ; 0.0
75 ; 7982978.624652399 ; 2.0200415506722504E8 ; 5.78854654446046E8 ; 1.3495272615173244E10 ; 0.0
76 ; 7982083.643432129 ; 2.0201969715254045E8 ; 5.868376330706984E8 ; 1.3697276770240469E10 ; 0.0
77 ; 7984964.779166793 ; 2.020353074715739E8 ; 5.948197167141305E8 ; 1.389929646739301E10 ; 0.0
78 ; 7984925.495603186 ; 2.0205098302653682E8 ; 6.028046814932973E8 ; 1.4101331774864584E10 ; 0.0
79 ; 7978443.56316052 ; 2.0206672090315408E8 ; 6.107896069889005E8 ; 1.430338275789112E10 ; 0.0
80 ; 7980165.178250732 ; 2.0208251826812395E8 ; 6.187680505520611E8 ; 1.4505449478794275E10 ; 0.0
81 ; 7978089.24175996 ; 2.0209837236662468E8 ; 6.267482157303119E8 ; 1.4707531997062399E10 ; 0.0
82 ; 7975916.713697547 ; 2.0211428051987028E8 ; 6.347263049720719E8 ; 1.4909630369429024E10 ; 0.0
83 ; 7973916.831161755 ; 2.0213024012271848E8 ; 6.427022216857694E8 ; 1.5111744649948895E10 ; 0.0
84 ; 7973842.169447878 ; 2.0214624864133325E8 ; 6.506761385169312E8 ; 1.5313874890071613E10 ; 0.0
85 ; 7972353.599003436 ; 2.0216230361090326E8 ; 6.586499806863791E8 ; 1.5516021138712946E10 ; 0.0
86 ; 7971028.361037379 ; 2.0217840263341737E8 ; 6.666223342853825E8 ; 1.5718183442323849E10 ; 0.0
87 ; 7970328.048046384 ; 2.0219454337549874E8 ; 6.745933626464199E8 ; 1.5920361844957266E10 ; 0.0
88 ; 7970111.097923447 ; 2.0221072356629738E8 ; 6.825636906944662E8 ; 1.6122556388332764E10 ; 0.0
89 ; 7967332.354052315 ; 2.0222694099544168E8 ; 6.905338017923896E8 ; 1.6324767111899061E10 ; 0.0
90 ; 7964353.939867845 ; 2.022431935110488E8 ; 6.985011341464419E8 ; 1.6526994052894503E10 ; 0.0
91 ; 7961629.532684782 ; 2.0225947901779398E8 ; 7.064654880863098E8 ; 1.6729237246405552E10 ; 0.0
92 ; 7958897.75056464 ; 2.0227579547503796E8 ; 7.144271176189946E8 ; 1.6931496725423346E10 ; 0.0
93 ; 7954389.7607365735 ; 2.022921408950119E8 ; 7.223860153695593E8 ; 1.7133772520898384E10 ; 0.0
94 ; 7956098.449359722 ; 2.0230851334105936E8 ; 7.303404051302959E8 ; 1.7336064661793396E10 ; 0.0
95 ; 7952999.305184808 ; 2.023249109259343E8 ; 7.382965035796556E8 ; 1.7538373175134457E10 ; 0.0
96 ; 7950854.560767246 ; 2.0234133181015393E8 ; 7.462495028848405E8 ; 1.774069808606039E10 ; 0.0
97 ; 7947821.949335438 ; 2.023577742004056E8 ; 7.542003574456078E8 ; 1.7943039417870544E10 ; 0.0
98 ; 7945095.21706144 ; 2.0237423634800655E8 ; 7.621481793949432E8 ; 1.814539719207095E10 ; 0.0
99 ; 7943523.679126033 ; 2.0239071654741505E8 ; 7.700932746120046E8 ; 1.8347771428418957E10 ; 0.0
100 ; 7940511.470667915 ; 2.0240721313479218E8 ; 7.780367982911307E8 ; 1.8550162144966373E10 ; 0.0
101 ; 7939938.239421454 ; 2.024237244866125E8 ; 7.859773097617986E8 ; 1.8752569358101166E10 ; 0.0
102 ; 7937772.897283425 ; 2.0244024901832244E8 ; 7.939172480012201E8 ; 1.895499308258778E10 ; 0.0
103 ; 7931821.019084643 ; 2.0245678518304545E8 ; 8.018550208985035E8 ; 1.9157433331606102E10 ; 0.0
104 ; 7929682.7995779 ; 2.0247333147033194E8 ; 8.097868419175882E8 ; 1.9359890116789146E10 ; 0.0
105 ; 7926289.100851377 ; 2.024898864049533E8 ; 8.177165247171662E8 ; 1.956236344825948E10 ; 0.0
106 ; 7925733.636174753 ; 2.0250644854573816E8 ; 8.256428138180176E8 ; 1.9764853334664433E10 ; 0.0
107 ; 7921161.263218586 ; 2.025230164844502E8 ; 8.335685474541924E8 ; 1.996735978321017E10 ; 0.0
108 ; 7918979.885979203 ; 2.0253958884470537E8 ; 8.41489708717411E8 ; 2.0169882799694622E10 ; 0.0
109 ; 7914950.756139499 ; 2.0255616428092816E8 ; 8.494086886033902E8 ; 2.0372422388539326E10 ; 0.0
110 ; 7913753.1865086155 ; 2.0257274147734487E8 ; 8.573236393595297E8 ; 2.0574978552820255E10 ; 0.0
111 ; 7908323.846255225 ; 2.025893191470131E8 ; 8.652373925460384E8 ; 2.07775512942976E10 ; 0.0
112 ; 7903819.550500948 ; 2.0260589603088623E8 ; 8.731457163922936E8 ; 2.0980140613444614E10 ; 0.0
113 ; 7900996.949462482 ; 2.026224708969114E8 ; 8.810495359427946E8 ; 2.1182746509475502E10 ; 0.0
114 ; 7893319.535447536 ; 2.0263904253916013E8 ; 8.889505328922571E8 ; 2.1385368980372414E10 ; 0.0
115 ; 7893573.687276477 ; 2.026556097769903E8 ; 8.968438524277046E8 ; 2.1588008022911575E10 ; 0.0
116 ; 7890086.708999527 ; 2.0267217145423836E8 ; 9.04737426114981E8 ; 2.1790663632688564E10 ; 0.0
117 ; 7886260.937169164 ; 2.0268872643844092E8 ; 9.126275128239806E8 ; 2.1993335804142803E10 ; 0.0
118 ; 7883704.3902899055 ; 2.027052736200844E8 ; 9.205137737611498E8 ; 2.2196024530581245E10 ; 0.0
119 ; 7880476.938930217 ; 2.0272181191188177E8 ; 9.283974781514397E8 ; 2.239872980420133E10 ; 0.0
120 ; 7878563.746279364 ; 2.0273834024807566E8 ; 9.362779550903699E8 ; 2.260145161611321E10 ; 0.0
121 ; 7873416.286529692 ; 2.027548575837664E8 ; 9.441565188366493E8 ; 2.2804189956361286E10 ; 0.0
122 ; 7866156.647239257 ; 2.027713628942647E8 ; 9.52029935123179E8 ; 2.3006944813945053E10 ; 0.0
123 ; 7863230.225196746 ; 2.0278785517446756E8 ; 9.598960917704182E8 ; 2.3209716176839317E10 ; 0.0
124 ; 7861519.541753971 ; 2.0280433343825662E8 ; 9.677593219956149E8 ; 2.3412504032013786E10 ; 0.0
125 ; 7853500.601718879 ; 2.0282079671791852E8 ; 9.756208415373689E8 ; 2.361530836545204E10 ; 0.0
126 ; 7850611.751486304 ; 2.0283724406358576E8 ; 9.834743421390878E8 ; 2.381812916216996E10 ; 0.0
127 ; 7847653.127049812 ; 2.0285367454269814E8 ; 9.913249538905741E8 ; 2.4020966406233547E10 ; 0.0
128 ; 7842053.320305794 ; 2.028700872394832E8 ; 9.991726070176239E8 ; 2.4223820080776245E10 ; 0.0
129 ; 7838260.82591522 ; 2.028864812544556E8 ; 1.0070146603379297E9 ; 2.4426690168015728E10 ; 0.0
130 ; 7831942.493931385 ; 2.0290285570393416E8 ; 1.014852921163845E9 ; 2.4629576649270184E10 ; 0.0
131 ; 7825735.276795086 ; 2.029192097195765E8 ; 1.0226848636577764E9 ; 2.4832479504974117E10 ; 0.0
132 ; 7819267.068049993 ; 2.029355424479301E8 ; 1.0305105989345714E9 ; 2.5035398714693695E10 ; 0.0
133 ; 7812924.300114193 ; 2.029518530499994E8 ; 1.0383298660026214E9 ; 2.5238334257141624E10 ; 0.0
134 ; 7805509.428221218 ; 2.029681407008285E8 ; 1.0461427903027356E9 ; 2.5441286110191624E10 ; 0.0
135 ; 7797604.311873627 ; 2.0298440458909836E8 ; 1.0539482997309568E9 ; 2.5644254250892452E10 ; 0.0
136 ; 7788528.39039072 ; 2.0300064391673863E8 ; 1.0617459040428305E9 ; 2.5847238655481552E10 ; 0.0
137 ; 7782627.148188948 ; 2.0301685789855295E8 ; 1.0695344324332212E9 ; 2.6050239299398293E10 ; 0.0
138 ; 7775942.730489893 ; 2.0303304576185766E8 ; 1.0773170595814102E9 ; 2.6253256157296844E10 ; 0.0
139 ; 7769271.825105891 ; 2.0304920674613303E8 ; 1.0850930023119001E9 ; 2.64562892030587E10 ; 0.0
140 ; 7760520.830658071 ; 2.0306534010268706E8 ; 1.092862274137006E9 ; 2.6659338409804832E10 ; 0.0
141 ; 7751155.944560701 ; 2.030814450943308E8 ; 1.100622794967664E9 ; 2.686240374990752E10 ; 0.0
142 ; 7743381.96381468 ; 2.0309752099506506E8 ; 1.1083739509122248E9 ; 2.706548519500185E10 ; 0.0
143 ; 7733948.339435523 ; 2.0311356708977827E8 ; 1.1161173328760395E9 ; 2.7268582715996914E10 ; 0.0
144 ; 7730539.802802518 ; 2.0312958267395446E8 ; 1.123851281215475E9 ; 2.7471696283086693E10 ; 0.0
145 ; 7720824.597059625 ; 2.0314556705339187E8 ; 1.1315818210182776E9 ; 2.7674825865760647E10 ; 0.0
146 ; 7719716.73897377 ; 2.0316151954393086E8 ; 1.1393026456153374E9 ; 2.7877971432814037E10 ; 0.0
147 ; 7715329.151692637 ; 2.031774394711915E8 ; 1.1470223623543112E9 ; 2.8081132952357967E10 ; 0.0
148 ; 7709349.12347962 ; 2.031933261703201E8 ; 1.1547376915060039E9 ; 2.828431039182916E10 ; 0.0
149 ; 7704669.2607438965 ; 2.032091789857444E8 ; 1.1624470406294835E9 ; 2.8487503717999477E10 ; 0.0
150 ; 7698313.1360751055 ; 2.0322499727093723E8 ; 1.1701517098902273E9 ; 2.869071289698522E10 ; 0.0
151 ; 7696205.661062872 ; 2.032407803881883E8 ; 1.1778500230263023E9 ; 2.889393789425616E10 ; 0.0
152 ; 7689891.723163534 ; 2.0325652770838356E8 ; 1.1855462286873653E9 ; 2.909717867464435E10 ; 0.0
153 ; 7683843.820847358 ; 2.032722386107923E8 ; 1.193236120410529E9 ; 2.930043520235273E10 ; 0.0
154 ; 7681961.821443092 ; 2.0328791248286128E8 ; 1.2009199642313762E9 ; 2.9503707440963524E10 ; 0.0
155 ; 7675499.46183049 ; 2.0330354872001594E8 ; 1.2086019260528193E9 ; 2.9706995353446384E10 ; 0.0
156 ; 7669337.6015663 ; 2.0331914672546822E8 ; 1.2162774255146496E9 ; 2.99102989021664E10 ; 0.0
157 ; 7664805.265959723 ; 2.0333470591003093E8 ; 1.223946763116216E9 ; 3.011361804889187E10 ; 0.0
158 ; 7659418.636892736 ; 2.0335022569193834E8 ; 1.2316115683821757E9 ; 3.03169527548019E10 ; 0.0
159 ; 7653919.129318672 ; 2.0336570549667266E8 ; 1.2392709870190685E9 ; 3.0520302980493835E10 ; 0.0
160 ; 7647714.163674972 ; 2.0338114475679633E8 ; 1.2469249061483872E9 ; 3.072366868599051E10 ; 0.0
161 ; 7641934.325211724 ; 2.0339654291179007E8 ; 1.2545726203120623E9 ; 3.0927049830747307E10 ; 0.0
162 ; 7639617.715201966 ; 2.034118994078961E8 ; 1.262214554637274E9 ; 3.1130446373659096E10 ; 0.0
163 ; 7633580.375373892 ; 2.0342721369796655E8 ; 1.269854172352476E9 ; 3.1333858273066994E10 ; 0.0
164 ; 7626195.680610455 ; 2.03442485241317E8 ; 1.2774877527278497E9 ; 3.153728548676496E10 ; 0.0
165 ; 7620941.187591597 ; 2.0345771350358474E8 ; 1.2851139484084601E9 ; 3.174072797200628E10 ; 0.0
166 ; 7604486.478412213 ; 2.034728979565917E8 ; 1.2927348895960517E9 ; 3.1944185685509865E10 ; 0.0
167 ; 7585558.181631195 ; 2.0348803807821187E8 ; 1.3003393760744638E9 ; 3.2147658583466457E10 ; 0.0
168 ; 7573031.940092192 ; 2.0350313335224304E8 ; 1.307924934256095E9 ; 3.235114662154467E10 ; 0.0
169 ; 7553580.176510069 ; 2.0351818326828265E8 ; 1.315497966196187E9 ; 3.255464975489691E10 ; 0.0
170 ; 7539932.707417441 ; 2.0353318732160786E8 ; 1.323051546372697E9 ; 3.2758167938165195E10 ; 0.0
171 ; 7523394.1971155135 ; 2.0354814501305932E8 ; 1.3305914790801146E9 ; 3.2961701125486805E10 ; 0.0
172 ; 7510349.7665656125 ; 2.035630558489286E8 ; 1.33811487327723E9 ; 3.3165249270499863E10 ; 0.0
173 ; 7493448.374063896 ; 2.035779193408497E8 ; 1.3456252230437956E9 ; 3.3368812326348793E10 ; 0.0
174 ; 7476213.278252129 ; 2.0359273500569335E8 ; 1.3531186714178596E9 ; 3.3572390245689644E10 ; 0.0
175 ; 7464203.655790903 ; 2.036075023654654E8 ; 1.3605948846961117E9 ; 3.3775982980695335E10 ; 0.0
176 ; 7450761.873359095 ; 2.0362222094720796E8 ; 1.3680590883519025E9 ; 3.3979590483060802E10 ; 0.0
177 ; 7440151.200408277 ; 2.036368902829039E8 ; 1.3755098502252617E9 ; 3.418321270400801E10 ; 0.0
178 ; 7422235.0963354455 ; 2.0365150990938437E8 ; 1.38295000142567E9 ; 3.438684959429092E10 ; 0.0
179 ; 7408327.983376973 ; 2.036660793682392E8 ; 1.3903722365220053E9 ; 3.45905011042003E10 ; 0.0
180 ; 7395559.474100165 ; 2.0368059820573017E8 ; 1.3977805645053823E9 ; 3.479416718356854E10 ; 0.0
181 ; 7381938.320613476 ; 2.0369506597270703E8 ; 1.4051761239794824E9 ; 3.499784778177427E10 ; 0.0
182 ; 7367462.062123699 ; 2.0370948222452608E8 ; 1.4125580623000958E9 ; 3.520154284774698E10 ; 0.0
183 ; 7353707.318072603 ; 2.0372384652097148E8 ; 1.4199255243622196E9 ; 3.5405252329971504E10 ; 0.0
184 ; 7338000.697931662 ; 2.0373815842617875E8 ; 1.4272792316802921E9 ; 3.560897617649248E10 ; 0.0
185 ; 7325123.166260242 ; 2.0375241750856107E8 ; 1.434617232378224E9 ; 3.5812714334918655E10 ; 0.0
186 ; 7310495.360721275 ; 2.0376662334073734E8 ; 1.4419423555444841E9 ; 3.6016466752427216E10 ; 0.0
187 ; 7296281.484317033 ; 2.03780775499463E8 ; 1.4492528509052055E9 ; 3.622023337576795E10 ; 0.0
188 ; 7285007.332464324 ; 2.0379487356556264E8 ; 1.4565491323895226E9 ; 3.642401415126742E10 ; 0.0
189 ; 7266701.409254501 ; 2.0380891712386492E8 ; 1.4638341397219868E9 ; 3.662780902483298E10 ; 0.0
190 ; 7257121.071179212 ; 2.038229057631393E8 ; 1.4711008411312413E9 ; 3.683161794195684E10 ; 0.0
191 ; 7240547.000238013 ; 2.0383683907603496E8 ; 1.4783579622024205E9 ; 3.703544084771998E10 ; 0.0
192 ; 7228118.492301783 ; 2.0385071665902138E8 ; 1.4855985092026584E9 ; 3.723927768679601E10 ; 0.0
193 ; 7213972.303671473 ; 2.0386453811233076E8 ; 1.49282662769496E9 ; 3.744312840345503E10 ; 0.0
194 ; 7200697.508550904 ; 2.038783030399025E8 ; 1.5000405999986315E9 ; 3.764699294156736E10 ; 0.0
195 ; 7190389.148453557 ; 2.0389201104932895E8 ; 1.5072412975071824E9 ; 3.785087124460726E10 ; 0.0
196 ; 7171268.4723197855 ; 2.0390566175180316E8 ; 1.5144316866556358E9 ; 3.805476325565659E10 ; 0.0
197 ; 7154190.924574471 ; 2.03919254762068E8 ; 1.5216029551279557E9 ; 3.8258668917408394E10 ; 0.0
198 ; 7144172.380975935 ; 2.0393278969836694E8 ; 1.52875714605253E9 ; 3.846258817217046E10 ; 0.0
199 ; 7128945.295976399 ; 2.0394626618239635E8 ; 1.535901318433506E9 ; 3.866652096186883E10 ; 0.0
200 ; 7114498.6307222145 ; 1.73967570555351E8 ; 1.5430302637294824E9 ; 3.887046722805122E10 ; 0.0
201 ; 7102574.516713705 ; 1.5513304907856378E8 ; 1.5501447623602047E9 ; 3.9044434798606575E10 ; 0.0
