CSV File for the City 3 on Day 105
1 - Minute m 
2 - Power Consumed at minute m 
3 - Power Produced at minute m 
4 - Energy Consumed since the beginning of the day 
5 - Energy Produced since the beginning of the day 
6 - Energy Lost since the beginning of the day on lines starting from the city
 
0 ; 2399626.8179413388 ; 1.055532968647531E8 ; 0.0 ; 0.0 ; 0.0
1 ; 2401817.5083398446 ; 1.0570625221160382E8 ; 2399626.8179413388 ; 1.055532968647531E8 ; 0.0
2 ; 2403299.566646096 ; 1.0616798894471899E8 ; 4801444.326281183 ; 2.1125954907635692E8 ; 0.0
3 ; 2406507.2028152472 ; 1.0693850847872376E8 ; 7204743.89292728 ; 3.174275380210759E8 ; 0.0
4 ; 2410054.580541121 ; 1.080178120804764E8 ; 9611251.095742527 ; 4.2436604649979967E8 ; 0.0
5 ; 2411720.852685013 ; 1.0940590086235368E8 ; 1.2021305676283648E7 ; 5.323838585802761E8 ; 0.0
6 ; 2418101.0213550595 ; 1.11102775776247E8 ; 1.4433026528968662E7 ; 6.417897594426298E8 ; 0.0
7 ; 2427611.471177771 ; 1.1310843760834509E8 ; 1.685112755032372E7 ; 7.528925352188768E8 ; 0.0
8 ; 2438835.9075478716 ; 1.1542288697476804E8 ; 1.9278739021501493E7 ; 8.660009728272219E8 ; 0.0
9 ; 2454688.786029998 ; 1.1804612431811088E8 ; 2.1717574929049365E7 ; 9.814238598019899E8 ; 0.0
10 ; 2481813.7061246866 ; 1.2097814990494114E8 ; 2.4172263715079363E7 ; 1.0994699841201007E9 ; 0.0
11 ; 2522752.9753962574 ; 1.2421896382428375E8 ; 2.665407742120405E7 ; 1.2204481340250418E9 ; 0.0
12 ; 2588969.863854848 ; 1.2776856598711374E8 ; 2.9176830396600306E7 ; 1.3446670978493257E9 ; 0.0
13 ; 2652861.1928802985 ; 1.316269561268636E8 ; 3.1765800260455154E7 ; 1.4724356638364394E9 ; 0.0
14 ; 2659798.316473596 ; 1.3579413380093837E8 ; 3.441866145333545E7 ; 1.604062619963303E9 ; 0.0
15 ; 2663862.0812034574 ; 1.4027009839321786E8 ; 3.7078459769809045E7 ; 1.7398567537642415E9 ; 0.0
16 ; 2667046.214346729 ; 1.4505484911751345E8 ; 3.9742321851012506E7 ; 1.8801268521574593E9 ; 0.0
17 ; 2669526.0243142704 ; 1.5014838502193365E8 ; 4.2409368065359235E7 ; 2.0251817012749727E9 ; 0.0
18 ; 2672511.7210161365 ; 1.555507049941017E8 ; 4.5078894089673504E7 ; 2.1753300862969065E9 ; 0.0
19 ; 2674552.294994741 ; 1.612618077671593E8 ; 4.775140581068964E7 ; 2.330880791291008E9 ; 0.0
20 ; 2678768.4177299133 ; 1.6728169192648146E8 ; 5.0425958105684385E7 ; 2.4921425990581675E9 ; 0.0
21 ; 2682470.5937905577 ; 1.736103559170212E8 ; 5.31047265234143E7 ; 2.6594242909846487E9 ; 0.0
22 ; 2685680.622970758 ; 1.8024779805119783E8 ; 5.578719711720486E7 ; 2.83303464690167E9 ; 0.0
23 ; 2688504.3225093978 ; 1.871940165172394E8 ; 5.847287774017562E7 ; 3.013282444952868E9 ; 0.0
24 ; 2692759.1849190677 ; 1.9444900938788766E8 ; 6.116138206268502E7 ; 3.2004764614701076E9 ; 0.0
25 ; 2695469.3773369766 ; 2.0070081552755874E8 ; 6.385414124760409E7 ; 3.394925470857995E9 ; 0.0
26 ; 2699288.5825289767 ; 2.0070298063839865E8 ; 6.6549610624941066E7 ; 3.595626286385554E9 ; 0.0
27 ; 2700576.9568517325 ; 2.0070527179444274E8 ; 6.924889920747004E7 ; 3.7963292670239525E9 ; 0.0
28 ; 2704397.207550727 ; 2.0070768669765887E8 ; 7.194947616432178E7 ; 3.997034538818395E9 ; 0.0
29 ; 2707357.0568249645 ; 2.00710222980401E8 ; 7.465387337187251E7 ; 4.197742225516054E9 ; 0.0
30 ; 2708222.3754921854 ; 2.007128782144855E8 ; 7.736123042869748E7 ; 4.398452448496455E9 ; 0.0
31 ; 2713527.6671821657 ; 2.0071564992007053E8 ; 8.006945280418967E7 ; 4.59916532671094E9 ; 0.0
32 ; 2717762.6293936707 ; 2.0071853557428288E8 ; 8.278298047137183E7 ; 4.799880976631011E9 ; 0.0
33 ; 2717572.689388301 ; 2.0072153261954248E8 ; 8.55007431007655E7 ; 5.000599512205294E9 ; 0.0
34 ; 2721739.606764473 ; 2.0072463847154307E8 ; 8.82183157901538E7 ; 5.201321044824836E9 ; 0.0
35 ; 2724913.963893134 ; 2.0072785052685487E8 ; 9.094005539691827E7 ; 5.402045683296379E9 ; 0.0
36 ; 2728022.579333255 ; 2.0073116617012152E8 ; 9.36649693608114E7 ; 5.602773533823234E9 ; 0.0
37 ; 2731023.0907853725 ; 2.0073458278083158E8 ; 9.639299194014466E7 ; 5.803504699993355E9 ; 0.0
38 ; 2732210.7845204803 ; 2.0073809773965016E8 ; 9.912401503093003E7 ; 6.004239282774186E9 ; 0.0
39 ; 2734806.837405654 ; 2.0074170843430242E8 ; 1.018562258154505E8 ; 6.204977380513836E9 ; 0.0
40 ; 2736915.979891309 ; 2.007454122650067E8 ; 1.0459103265285616E8 ; 6.405719088948138E9 ; 0.0
41 ; 2739593.596095312 ; 2.0074920664945868E8 ; 1.0732794863274747E8 ; 6.606464501213145E9 ; 0.0
42 ; 2741410.988004837 ; 2.0075308902737314E8 ; 1.1006754222884278E8 ; 6.807213707862604E9 ; 0.0
43 ; 2742912.6662737313 ; 2.0075705686459288E8 ; 1.1280895321684761E8 ; 7.007966796889977E9 ; 0.0
44 ; 2744305.1812162763 ; 2.007611076567779E8 ; 1.1555186588312134E8 ; 7.20872385375457E9 ; 0.0
45 ; 2747663.016526982 ; 2.0076523893269002E8 ; 1.1829617106433761E8 ; 7.409484961411348E9 ; 0.0
46 ; 2748762.2932683784 ; 2.007694482570903E8 ; 1.210438340808646E8 ; 7.610250200344038E9 ; 0.0
47 ; 2749770.9048042335 ; 2.0077373323326847E8 ; 1.2379259637413298E8 ; 7.811019648601129E9 ; 0.0
48 ; 2751281.144770719 ; 2.0077809150522423E8 ; 1.265423672789372E8 ; 8.011793381834397E9 ; 0.0
49 ; 2751850.41300448 ; 2.0078252075952113E8 ; 1.2929364842370793E8 ; 8.212571473339622E9 ; 0.0
50 ; 2752882.931206971 ; 2.0078701872683465E8 ; 1.320454988367124E8 ; 8.413353994099143E9 ; 0.0
51 ; 2753324.360734749 ; 2.0079158318321544E8 ; 1.3479838176791936E8 ; 8.614141012825977E9 ; 0.0
52 ; 2754844.893552836 ; 2.0079621195108902E8 ; 1.3755170612865412E8 ; 8.814932596009193E9 ; 0.0
53 ; 2756164.018319059 ; 2.0080090290001282E8 ; 1.4030655102220696E8 ; 9.015728807960283E9 ; 0.0
54 ; 2755063.8272127463 ; 2.00805653947211E8 ; 1.4306271504052603E8 ; 9.216529710860296E9 ; 0.0
55 ; 2758776.921032146 ; 2.0081046305790624E8 ; 1.4581777886773878E8 ; 9.417335364807507E9 ; 0.0
56 ; 2759066.1005015397 ; 2.0081532824546793E8 ; 1.4857655578877094E8 ; 9.618145827865414E9 ; 0.0
57 ; 2759874.198331227 ; 2.0082024757139432E8 ; 1.5133562188927248E8 ; 9.818961156110882E9 ; 0.0
58 ; 2758474.733315576 ; 2.0082521914514565E8 ; 1.5409549608760372E8 ; 1.0019781403682276E10 ; 0.0
59 ; 2759786.471151562 ; 2.0083024112384468E8 ; 1.568539708209193E8 ; 1.0220606622827421E10 ; 0.0
60 ; 2759459.1973163877 ; 2.0083531171185938E8 ; 1.5961375729207087E8 ; 1.0421436863951265E10 ; 0.0
61 ; 2761459.753518671 ; 2.0084042916028184E8 ; 1.6237321648938724E8 ; 1.0622272175663124E10 ; 0.0
62 ; 2762697.4949658546 ; 2.0084559176631683E8 ; 1.651346762429059E8 ; 1.0823112604823406E10 ; 0.0
63 ; 2763843.1252738284 ; 2.0085079787259153E8 ; 1.6789737373787177E8 ; 1.1023958196589724E10 ; 0.0
64 ; 2765929.776173246 ; 2.0085604586639822E8 ; 1.706612168631456E8 ; 1.1224808994462315E10 ; 0.0
65 ; 2764998.3560134824 ; 2.008613341788798E8 ; 1.7342714663931882E8 ; 1.1425665040328712E10 ; 0.0
66 ; 2765639.5422490006 ; 2.008666612841674E8 ; 1.761921449953323E8 ; 1.1626526374507593E10 ; 0.0
67 ; 2766966.8522228585 ; 2.008720256984791E8 ; 1.789577845375813E8 ; 1.1827393035791761E10 ; 0.0
68 ; 2767749.2529215035 ; 2.0087742597918686E8 ; 1.8172475138980415E8 ; 1.202826506149024E10 ; 0.0
69 ; 2768363.003063707 ; 2.008828607238594E8 ; 1.8449250064272565E8 ; 1.2229142487469427E10 ; 0.0
70 ; 2768274.4341897056 ; 2.0088832856928647E8 ; 1.8726086364578936E8 ; 1.2430025348193287E10 ; 0.0
71 ; 2769715.6168330284 ; 2.0089382819049093E8 ; 1.9002913807997906E8 ; 1.2630913676762573E10 ; 0.0
72 ; 2769566.808893622 ; 2.0089935829973337E8 ; 1.927988536968121E8 ; 1.2831807504953064E10 ; 0.0
73 ; 2769819.908204144 ; 2.0090491764551356E8 ; 1.955684205057057E8 ; 1.3032706863252798E10 ; 0.0
74 ; 2770290.769272112 ; 2.0091050501157302E8 ; 1.9833824041390985E8 ; 1.3233611780898312E10 ; 0.0
75 ; 2770182.0007225424 ; 2.0091611921590203E8 ; 2.0110853118318197E8 ; 1.3434522285909885E10 ; 0.0
76 ; 2771073.991821597 ; 2.0092175910975435E8 ; 2.0387871318390453E8 ; 1.3635438405125788E10 ; 0.0
77 ; 2772455.5751151536 ; 2.009274235766718E8 ; 2.0664978717572612E8 ; 1.3836360164235542E10 ; 0.0
78 ; 2771501.079911195 ; 2.009331115315218E8 ; 2.0942224275084126E8 ; 1.4037287587812214E10 ; 0.0
79 ; 2771474.8965115133 ; 2.0093882191954884E8 ; 2.1219374383075246E8 ; 1.4238220699343735E10 ; 0.0
80 ; 2771067.8068965888 ; 2.009445537154426E8 ; 2.14965218727264E8 ; 1.4439159521263283E10 ; 0.0
81 ; 2769520.6067790035 ; 2.0095030592242327E8 ; 2.1773628653416058E8 ; 1.4640104074978725E10 ; 0.0
82 ; 2769346.4282589983 ; 2.0095607757134575E8 ; 2.205058071409396E8 ; 1.4841054380901148E10 ; 0.0
83 ; 2768611.328349742 ; 2.0096186771982327E8 ; 2.2327515356919858E8 ; 1.5042010458472494E10 ; 0.0
84 ; 2767858.3232868146 ; 2.0096767545137176E8 ; 2.2604376489754832E8 ; 1.5242972326192318E10 ; 0.0
85 ; 2767963.1001491663 ; 2.0097349987457472E8 ; 2.2881162322083512E8 ; 1.544394000164369E10 ; 0.0
86 ; 2765593.2076358777 ; 2.0097934012226987E8 ; 2.3157958632098427E8 ; 1.5644913501518265E10 ; 0.0
87 ; 2765074.0978409997 ; 2.0098519535075712E8 ; 2.3434517952862015E8 ; 1.5845892841640535E10 ; 0.0
88 ; 2764858.701791767 ; 2.009910647390286E8 ; 2.3711025362646115E8 ; 1.6046878036991293E10 ; 0.0
89 ; 2763871.9705924834 ; 2.009969474880205E8 ; 2.398751123282529E8 ; 1.6247869101730322E10 ; 0.0
90 ; 2763490.129750923 ; 2.0100284281988657E8 ; 2.4263898429884538E8 ; 1.6448866049218342E10 ; 0.0
91 ; 2763353.789446688 ; 2.010087499772935E8 ; 2.4540247442859632E8 ; 1.6649868892038229E10 ; 0.0
92 ; 2760778.1185401306 ; 2.0101466822273785E8 ; 2.48165828218043E8 ; 1.6850877642015522E10 ; 0.0
93 ; 2761007.2268346315 ; 2.010205968378841E8 ; 2.5092660633658314E8 ; 1.705189231023826E10 ; 0.0
94 ; 2760549.53757975 ; 2.0102653512292382E8 ; 2.5368761356341776E8 ; 1.7252912907076145E10 ; 0.0
95 ; 2761936.6894199126 ; 2.0103248239595532E8 ; 2.564481631009975E8 ; 1.745393944219907E10 ; 0.0
96 ; 2759074.3143223207 ; 2.0103843799238363E8 ; 2.5921009979041743E8 ; 1.7654971924595024E10 ; 0.0
97 ; 2758738.0816884455 ; 2.0104440126434034E8 ; 2.6196917410473976E8 ; 1.7856010362587406E10 ; 0.0
98 ; 2756723.0361384954 ; 2.0105037158012286E8 ; 2.647279121864282E8 ; 1.8057054763851746E10 ; 0.0
99 ; 2757320.382726205 ; 2.0105634832365245E8 ; 2.674846352225667E8 ; 1.825810513543187E10 ; 0.0
100 ; 2754815.443078389 ; 2.0106233089395094E8 ; 2.702419556052929E8 ; 1.8459161483755524E10 ; 0.0
101 ; 2753349.837910331 ; 2.0106831870463538E8 ; 2.729967710483713E8 ; 1.8660223814649475E10 ; 0.0
102 ; 2755156.968357429 ; 2.0107431118343017E8 ; 2.7575012088628167E8 ; 1.886129213335411E10 ; 0.0
103 ; 2752907.1881917384 ; 2.0108030777169618E8 ; 2.785052778546391E8 ; 1.906236644453754E10 ; 0.0
104 ; 2753036.524641117 ; 2.0108630792397657E8 ; 2.812581850428308E8 ; 1.926344675230924E10 ; 0.0
105 ; 2751057.7274124953 ; 2.0109231110755834E8 ; 2.840112215674719E8 ; 1.9464533060233215E10 ; 0.0
106 ; 2750499.4888780555 ; 2.0109831680204982E8 ; 2.8676227929488444E8 ; 1.9665625371340775E10 ; 0.0
107 ; 2747433.175781638 ; 2.011043244989728E8 ; 2.895127787837625E8 ; 1.9866723688142826E10 ; 0.0
108 ; 2746905.1233261656 ; 2.0111033370136955E8 ; 2.922602119595442E8 ; 2.00678280126418E10 ; 0.0
109 ; 2745630.310979348 ; 2.0111634392342383E8 ; 2.9500711708287036E8 ; 2.026893834634317E10 ; 0.0
110 ; 2745075.900835225 ; 2.011223546900954E8 ; 2.9775274739384973E8 ; 2.0470054690266594E10 ; 0.0
111 ; 2742674.282463041 ; 2.01128365536768E8 ; 3.0049782329468495E8 ; 2.0671177044956688E10 ; 0.0
112 ; 2743036.882111844 ; 2.011343760089097E8 ; 3.0324049757714796E8 ; 2.0872305410493458E10 ; 0.0
113 ; 2739685.66030411 ; 2.0114038566174597E8 ; 3.059835344592598E8 ; 2.107343978650237E10 ; 0.0
114 ; 2739473.519271805 ; 2.0114639405994406E8 ; 3.0872322011956394E8 ; 2.1274580172164116E10 ; 0.0
115 ; 2736896.0009434316 ; 2.0115240077730936E8 ; 3.114626936388357E8 ; 2.147572656622406E10 ; 0.0
116 ; 2736418.233570731 ; 2.0115840539649248E8 ; 3.1419958963977915E8 ; 2.167687896700137E10 ; 0.0
117 ; 2736160.3464901056 ; 2.0116440750870708E8 ; 3.169360078733499E8 ; 2.187803737239786E10 ; 0.0
118 ; 2733234.613324292 ; 2.0117040671345782E8 ; 3.1967216821984E8 ; 2.207920177990657E10 ; 0.0
119 ; 2733256.2627571346 ; 2.0117640261827853E8 ; 3.224054028331643E8 ; 2.228037218662003E10 ; 0.0
120 ; 2731444.9908635407 ; 2.0118239483847943E8 ; 3.251386590959214E8 ; 2.2481548589238308E10 ; 0.0
121 ; 2729115.2505000425 ; 2.0118838299690402E8 ; 3.2787010408678496E8 ; 2.2682730984076786E10 ; 0.0
122 ; 2728487.952996691 ; 2.0119436672369435E8 ; 3.30599219337285E8 ; 2.288391936707369E10 ; 0.0
123 ; 2727525.4710090426 ; 2.012003456560653E8 ; 3.3332770729028165E8 ; 2.3085113733797382E10 ; 0.0
124 ; 2726340.589403699 ; 2.012063194380864E8 ; 3.3605523276129067E8 ; 2.328631407945345E10 ; 0.0
125 ; 2723466.387483444 ; 2.0121228772047234E8 ; 3.3878157335069436E8 ; 2.3487520398891537E10 ; 0.0
126 ; 2723074.1484357184 ; 2.0121825016038036E8 ; 3.415050397381778E8 ; 2.3688732686612007E10 ; 0.0
127 ; 2719288.159312585 ; 2.0122420642121542E8 ; 3.442281138866135E8 ; 2.388995093677239E10 ; 0.0
128 ; 2719365.5071511664 ; 2.012301561724421E8 ; 3.469474020459261E8 ; 2.4091175143193604E10 ; 0.0
129 ; 2719522.303329784 ; 2.012360990894036E8 ; 3.496667675530773E8 ; 2.4292405299366047E10 ; 0.0
130 ; 2715223.6057057767 ; 2.012420348531469E8 ; 3.5238628985640705E8 ; 2.4493641398455452E10 ; 0.0
131 ; 2713350.31997465 ; 2.012479631502545E8 ; 3.5510151346211284E8 ; 2.4694883433308598E10 ; 0.0
132 ; 2711583.261451665 ; 2.01253883672682E8 ; 3.578148637820875E8 ; 2.489613139645885E10 ; 0.0
133 ; 2708663.1534901895 ; 2.012597961176015E8 ; 3.6052644704353917E8 ; 2.5097385280131535E10 ; 0.0
134 ; 2706830.244828183 ; 2.0126570018725097E8 ; 3.6323511019702935E8 ; 2.5298645076249138E10 ; 0.0
135 ; 2704655.626755551 ; 2.012715955887882E8 ; 3.659419404418575E8 ; 2.549991077643639E10 ; 0.0
136 ; 2701170.798621974 ; 2.0127748203415087E8 ; 3.6864659606861305E8 ; 2.5701182372025177E10 ; 0.0
137 ; 2698743.6012696046 ; 2.0128335923992077E8 ; 3.71347766867235E8 ; 2.5902459854059326E10 ; 0.0
138 ; 2696090.1372849457 ; 2.0128922692719346E8 ; 3.740465104685046E8 ; 2.6103743213299248E10 ; 0.0
139 ; 2693487.1462191623 ; 2.0129508482145217E8 ; 3.7674260060578954E8 ; 2.630503244022644E10 ; 0.0
140 ; 2690333.195981649 ; 2.0130093265244627E8 ; 3.794360877520087E8 ; 2.6506327525047894E10 ; 0.0
141 ; 2687923.88436813 ; 2.0130677015407395E8 ; 3.821264209479903E8 ; 2.670762845770034E10 ; 0.0
142 ; 2684641.916868617 ; 2.0131259706426913E8 ; 3.848143448323584E8 ; 2.6908935227854416E10 ; 0.0
143 ; 2682922.690123189 ; 2.0131841312489215E8 ; 3.8749898674922705E8 ; 2.7110247824918686E10 ; 0.0
144 ; 2680299.3869229765 ; 2.013242180816245E8 ; 3.9018190943935025E8 ; 2.731156623804358E10 ; 0.0
145 ; 2678873.2614507377 ; 2.01330011683867E8 ; 3.928622088262732E8 ; 2.7512890456125202E10 ; 0.0
146 ; 2676015.599486713 ; 2.0133579368464166E8 ; 3.95541082087724E8 ; 2.771422046780907E10 ; 0.0
147 ; 2676447.5117482464 ; 2.0134156384049687E8 ; 3.982170976872107E8 ; 2.7915556261493713E10 ; 0.0
148 ; 2672655.7911714255 ; 2.0134732191141587E8 ; 4.0089354519895893E8 ; 2.811689782533421E10 ; 0.0
149 ; 2671228.0116380327 ; 2.0135306766072845E8 ; 4.0356620099013036E8 ; 2.8318245147245625E10 ; 0.0
150 ; 2668939.246955638 ; 2.0135880085502553E8 ; 4.062374290017684E8 ; 2.8519598214906353E10 ; 0.0
151 ; 2669501.735052925 ; 2.0136452126407674E8 ; 4.0890636824872404E8 ; 2.872095701576138E10 ; 0.0
152 ; 2666715.355050985 ; 2.0137022866075104E8 ; 4.11575869983777E8 ; 2.8922321537025455E10 ; 0.0
153 ; 2664538.6404278 ; 2.013759228209395E8 ; 4.1424258533882797E8 ; 2.9123691765686207E10 ; 0.0
154 ; 2664147.6104892115 ; 2.0138160352348137E8 ; 4.169071239792558E8 ; 2.9325067688507145E10 ; 0.0
155 ; 2662119.1799469967 ; 2.013872705500921E8 ; 4.19571271589745E8 ; 2.9526449292030624E10 ; 0.0
156 ; 2659402.7064287164 ; 2.0139292368529412E8 ; 4.22233390769692E8 ; 2.9727836562580715E10 ; 0.0
157 ; 2655856.6820989354 ; 2.0139856271634978E8 ; 4.248927934761207E8 ; 2.992922948626601E10 ; 0.0
158 ; 2656716.605667333 ; 2.014041874331967E8 ; 4.2754865015821964E8 ; 3.013062804898236E10 ; 0.0
159 ; 2653327.4008433656 ; 2.0140979762838513E8 ; 4.30205366763887E8 ; 3.0332032236415558E10 ; 0.0
160 ; 2652934.4645005576 ; 2.014153930970175E8 ; 4.3285869416473037E8 ; 3.053344203404394E10 ; 0.0
161 ; 2650823.9279152867 ; 2.0142097363669E8 ; 4.355116286292309E8 ; 3.073485742714096E10 ; 0.0
162 ; 2647435.3206311907 ; 2.014265390474359E8 ; 4.381624525571462E8 ; 3.093627840077765E10 ; 0.0
163 ; 2645396.3093087533 ; 2.0143208913167113E8 ; 4.408098878777774E8 ; 3.1137704939825085E10 ; 0.0
164 ; 2644307.00834466 ; 2.0143762369414127E8 ; 4.4345528418708616E8 ; 3.1339137028956757E10 ; 0.0
165 ; 2643275.1476520877 ; 2.0144314254187045E8 ; 4.460995911954308E8 ; 3.1540574652650898E10 ; 0.0
166 ; 2640631.8590490143 ; 2.0144864548411208E8 ; 4.487428663430829E8 ; 3.174201779519277E10 ; 0.0
167 ; 2639245.106299138 ; 2.0145413233230093E8 ; 4.513834982021319E8 ; 3.194346644067688E10 ; 0.0
168 ; 2636304.516552712 ; 2.0145960290000683E8 ; 4.540227433084311E8 ; 3.2144920573009182E10 ; 0.0
169 ; 2635791.298788348 ; 2.014650570028901E8 ; 4.566590478249838E8 ; 3.2346380175909187E10 ; 0.0
170 ; 2632000.3695228253 ; 2.014704944586582E8 ; 4.5929483912377214E8 ; 3.254784523291208E10 ; 0.0
171 ; 2632214.1282392065 ; 2.0147591508702376E8 ; 4.6192683949329495E8 ; 3.2749315727370735E10 ; 0.0
172 ; 2630448.4937197897 ; 2.0148131870966426E8 ; 4.6455905362153417E8 ; 3.295079164245776E10 ; 0.0
173 ; 2626425.637940572 ; 2.0148670515018266E8 ; 4.67189502115254E8 ; 3.3152272961167423E10 ; 0.0
174 ; 2625777.262774237 ; 2.014920742340695E8 ; 4.698159277531946E8 ; 3.3353759666317604E10 ; 0.0
175 ; 2624457.088864328 ; 2.0149742578866616E8 ; 4.724417050159688E8 ; 3.3555251740551674E10 ; 0.0
176 ; 2624256.11225776 ; 2.015027596431293E8 ; 4.750661621048331E8 ; 3.375674916634034E10 ; 0.0
177 ; 2622819.244740495 ; 2.0150807562839648E8 ; 4.776904182170909E8 ; 3.3958251925983467E10 ; 0.0
178 ; 2623371.6549797403 ; 2.015133735771528E8 ; 4.803132374618314E8 ; 3.4159760001611862E10 ; 0.0
179 ; 2620856.840067232 ; 2.0151865332379854E8 ; 4.8293660911681116E8 ; 3.436127337518902E10 ; 0.0
180 ; 2621162.6015428104 ; 2.0152391470441812E8 ; 4.8555746595687836E8 ; 3.456279202851282E10 ; 0.0
181 ; 2619120.277453171 ; 2.0152915755674967E8 ; 4.881786285584212E8 ; 3.476431594321723E10 ; 0.0
182 ; 2617430.276534286 ; 2.0153438172015578E8 ; 4.907977488358744E8 ; 3.496584510077398E10 ; 0.0
183 ; 2616692.88161242 ; 2.0153958703559518E8 ; 4.9341517911240864E8 ; 3.516737948249413E10 ; 0.0
184 ; 2614153.4459450003 ; 2.015447733455951E8 ; 4.9603187199402106E8 ; 3.536891906952973E10 ; 0.0
185 ; 2613541.7917913976 ; 2.015499404942248E8 ; 4.986460254399661E8 ; 3.557046384287533E10 ; 0.0
186 ; 2614117.43912549 ; 2.0155508832706964E8 ; 5.0125956723175746E8 ; 3.577201378336955E10 ; 0.0
187 ; 2611369.856626672 ; 2.0156021669120622E8 ; 5.0387368467088294E8 ; 3.5973568871696625E10 ; 0.0
188 ; 2610562.620541877 ; 2.0156532543517807E8 ; 5.064850545275096E8 ; 3.617512908838783E10 ; 0.0
189 ; 2609343.129848058 ; 2.0157041440897217E8 ; 5.090956171480515E8 ; 3.637669441382301E10 ; 0.0
190 ; 2608179.420349149 ; 2.015754834639963E8 ; 5.1170496027789956E8 ; 3.657826482823199E10 ; 0.0
191 ; 2606187.5621028063 ; 2.0158053245305684E8 ; 5.143131396982487E8 ; 3.6779840311695984E10 ; 0.0
192 ; 2605710.8551264713 ; 2.0158556123033768E8 ; 5.169193272603515E8 ; 3.698142084414904E10 ; 0.0
193 ; 2604176.11080816 ; 2.0159056965137923E8 ; 5.19525038115478E8 ; 3.718300640537938E10 ; 0.0
194 ; 2602605.591204528 ; 2.0159555757305858E8 ; 5.221292142262861E8 ; 3.738459697503076E10 ; 0.0
195 ; 2601647.953831951 ; 2.016005248535699E8 ; 5.2473181981749064E8 ; 3.758619253260382E10 ; 0.0
196 ; 2601118.0841965317 ; 2.0160547135240567E8 ; 5.273334677713226E8 ; 3.778779305745739E10 ; 0.0
197 ; 2598756.524043637 ; 2.0161039693033838E8 ; 5.299345858555191E8 ; 3.79893985288098E10 ; 0.0
198 ; 2591992.225757318 ; 2.016153014494028E8 ; 5.3253334237956274E8 ; 3.8191008925740135E10 ; 0.0
199 ; 2587529.6653231536 ; 2.016201847728788E8 ; 5.3512533460532004E8 ; 3.839262422718954E10 ; 0.0
200 ; 2584086.7964675105 ; 2.0162504676527473E8 ; 5.377128642706432E8 ; 3.859424441196242E10 ; 0.0
