CSV File for the City 6 on Day 18
1 - Minute m 
2 - Power Consumed at minute m 
3 - Power Produced at minute m 
4 - Energy Consumed since the beginning of the day 
5 - Energy Produced since the beginning of the day 
6 - Energy Lost since the beginning of the day on lines starting from the city
 
0 ; 1.1117640309900468E7 ; 1.0534658287761095E8 ; 0.0 ; 0.0 ; 0.0
1 ; 1.112788769441872E7 ; 1.0549057744406348E8 ; 1.1117640309900468E7 ; 1.0534658287761095E8 ; 0.0
2 ; 1.1140903125725657E7 ; 1.0594375219566151E8 ; 2.224552800431919E7 ; 2.1083716032167444E8 ; 0.0
3 ; 1.1153841142596887E7 ; 1.0670620930212438E8 ; 3.3386431130044848E7 ; 3.1678091251733595E8 ; 0.0
4 ; 1.116940677185741E7 ; 1.0777806864395958E8 ; 4.454027227264173E7 ; 4.2348712181946033E8 ; 0.0
5 ; 1.119427064087047E7 ; 1.0915946752627891E8 ; 5.5709679044499144E7 ; 5.312651904634199E8 ; 0.0
6 ; 1.1218320694447292E7 ; 1.1085055754133567E8 ; 6.690394968536961E7 ; 6.404246579896989E8 ; 0.0
7 ; 1.1249655935389288E7 ; 1.1285149716124558E8 ; 7.81222703798169E7 ; 7.512752155310346E8 ; 0.0
8 ; 1.1306979016034046E7 ; 1.151624391169231E8 ; 8.93719263152062E7 ; 8.641267126922802E8 ; 0.0
9 ; 1.138528514577925E7 ; 1.1778351315383083E8 ; 1.0067890533124025E8 ; 9.792891518092033E8 ; 0.0
10 ; 1.1508265568664039E7 ; 1.2071480725262493E8 ; 1.120641904770195E8 ; 1.0970726649630342E9 ; 0.0
11 ; 1.1710795039358377E7 ; 1.2395635266000369E8 ; 1.2357245604568355E8 ; 1.2177874722156591E9 ; 0.0
12 ; 1.202628130545648E7 ; 1.275081181292688E8 ; 1.3528325108504194E8 ; 1.3417438248756628E9 ; 0.0
13 ; 1.2332941068968304E7 ; 1.3137001567976409E8 ; 1.4730953239049843E8 ; 1.4692519430049317E9 ; 0.0
14 ; 1.2361622717778662E7 ; 1.3554191556602705E8 ; 1.5964247345946673E8 ; 1.6006219586846957E9 ; 0.0
15 ; 1.2377083572100295E7 ; 1.400236650571431E8 ; 1.7200409617724538E8 ; 1.736163874250723E9 ; 0.0
16 ; 1.2392091471246932E7 ; 1.4481510568099663E8 ; 1.8438117974934566E8 ; 1.876187539307866E9 ; 0.0
17 ; 1.240922130170192E7 ; 1.4991608584533426E8 ; 1.967732712205926E8 ; 2.0210026449888628E9 ; 0.0
18 ; 1.2421178311250484E7 ; 1.5532646824504423E8 ; 2.0918249252229452E8 ; 2.170918730834197E9 ; 0.0
19 ; 1.2438735586313326E7 ; 1.6104613299961904E8 ; 2.21603670833545E8 ; 2.3262451990792413E9 ; 0.0
20 ; 1.2452324773947421E7 ; 1.670749779393393E8 ; 2.3404240641985834E8 ; 2.4872913320788603E9 ; 0.0
21 ; 1.2467806869763661E7 ; 1.7341291730109105E8 ; 2.4649473119380575E8 ; 2.6543663100181994E9 ; 0.0
22 ; 1.2483824793376645E7 ; 1.800598797240662E8 ; 2.5896253806356943E8 ; 2.8277792273192906E9 ; 0.0
23 ; 1.2499041811733406E7 ; 1.8701580608366948E8 ; 2.7144636285694605E8 ; 3.007839107043357E9 ; 0.0
24 ; 1.2510093729059048E7 ; 1.942806474460569E8 ; 2.839454046686795E8 ; 3.1948549131270266E9 ; 0.0
25 ; 1.252293520505909E7 ; 2.0054240416370165E8 ; 2.964554983977385E8 ; 3.3891355605730834E9 ; 0.0
26 ; 1.2536880918201657E7 ; 2.0055459038508347E8 ; 3.089784336027976E8 ; 3.589677964736785E9 ; 0.0
27 ; 1.2552275841293233E7 ; 2.0056694731562036E8 ; 3.215153145209993E8 ; 3.7902325551218686E9 ; 0.0
28 ; 1.2564832899454614E7 ; 2.005794514326644E8 ; 3.340675903622925E8 ; 3.990799502437489E9 ; 0.0
29 ; 1.257980917385426E7 ; 2.005920829429797E8 ; 3.466324232617471E8 ; 4.1913789538701534E9 ; 0.0
30 ; 1.2591829718754994E7 ; 2.0060482510825148E8 ; 3.5921223243560135E8 ; 4.391971036813133E9 ; 0.0
31 ; 1.2606077624201607E7 ; 2.006176637012973E8 ; 3.7180406215435636E8 ; 4.592575861921385E9 ; 0.0
32 ; 1.2616971401422128E7 ; 2.0063058656728792E8 ; 3.8441013977855796E8 ; 4.793193525622683E9 ; 0.0
33 ; 1.2631034546316545E7 ; 2.0064358326895863E8 ; 3.970271111799801E8 ; 4.99382411218997E9 ; 0.0
34 ; 1.2644600374110553E7 ; 2.0065664479888836E8 ; 4.0965814572629666E8 ; 5.194467695458929E9 ; 0.0
35 ; 1.2654960013134602E7 ; 2.0066976334534618E8 ; 4.2230274610040724E8 ; 5.395124340257817E9 ; 0.0
36 ; 1.2666605343008813E7 ; 2.0068293210098997E8 ; 4.3495770611354184E8 ; 5.595794103603164E9 ; 0.0
37 ; 1.267467399212571E7 ; 2.0069614510593107E8 ; 4.4762431145655066E8 ; 5.796477035704154E9 ; 0.0
38 ; 1.2683571166689543E7 ; 2.0070939711844495E8 ; 4.6029898544867635E8 ; 5.997173180810085E9 ; 0.0
39 ; 1.2695716341564398E7 ; 2.007226835080003E8 ; 4.7298255661536586E8 ; 6.197882577928531E9 ; 0.0
40 ; 1.270946164367277E7 ; 2.0073600016637486E8 ; 4.856782729569303E8 ; 6.398605261436531E9 ; 0.0
41 ; 1.2714169709087847E7 ; 2.0074934343348637E8 ; 4.9838773460060304E8 ; 6.599341261602906E9 ; 0.0
42 ; 1.2721698175234305E7 ; 2.0076271003524494E8 ; 5.111019043096909E8 ; 6.800090605036392E9 ; 0.0
43 ; 1.2732406084839402E7 ; 2.0077609703126562E8 ; 5.238236024849252E8 ; 7.000853315071637E9 ; 0.0
44 ; 1.2737523873996397E7 ; 2.0078950177070257E8 ; 5.365560085697646E8 ; 7.201629412102902E9 ; 0.0
45 ; 1.274784772699807E7 ; 2.0080292185479864E8 ; 5.49293532443761E8 ; 7.402418913873605E9 ; 0.0
46 ; 1.2754172610797495E7 ; 2.008163551050111E8 ; 5.620413801707591E8 ; 7.603221835728403E9 ; 0.0
47 ; 1.2760005413867332E7 ; 2.0082979953578454E8 ; 5.747955527815566E8 ; 7.804038190833414E9 ; 0.0
48 ; 1.2766527339228721E7 ; 2.0084325333121195E8 ; 5.87555558195424E8 ; 8.004867990369199E9 ; 0.0
49 ; 1.2769498561124243E7 ; 2.008567148249612E8 ; 6.003220855346527E8 ; 8.205711243700411E9 ; 0.0
50 ; 1.2772433259462135E7 ; 2.0087018248295334E8 ; 6.130915840957769E8 ; 8.406567958525372E9 ; 0.0
51 ; 1.2776530070589421E7 ; 2.0088365488836876E8 ; 6.25864017355239E8 ; 8.607438141008326E9 ; 0.0
52 ; 1.2780689222224686E7 ; 2.0089713072862816E8 ; 6.386405474258285E8 ; 8.808321795896694E9 ; 0.0
53 ; 1.2780262891098017E7 ; 2.0091060878405592E8 ; 6.514212366480532E8 ; 9.009218926625322E9 ; 0.0
54 ; 1.278484894586296E7 ; 2.0092408791797972E8 ; 6.642014995391512E8 ; 9.210129535409378E9 ; 0.0
55 ; 1.2786874761091562E7 ; 2.009375670680614E8 ; 6.769863484850142E8 ; 9.411053623327358E9 ; 0.0
56 ; 1.2792655640778447E7 ; 2.009510452386856E8 ; 6.897732232461058E8 ; 9.61199119039542E9 ; 0.0
57 ; 1.279479018375141E7 ; 2.0096452149426013E8 ; 7.025658788868842E8 ; 9.812942235634106E9 ; 0.0
58 ; 1.279678085067348E7 ; 2.0097799495330465E8 ; 7.153606690706357E8 ; 1.0013906757128366E10 ; 0.0
59 ; 1.2800317449240832E7 ; 2.0099146478322226E8 ; 7.281574499213091E8 ; 1.021488475208167E10 ; 0.0
60 ; 1.2800681042153388E7 ; 2.0100493019566467E8 ; 7.409577673705499E8 ; 1.0415876216864893E10 ; 0.0
61 ; 1.280289291834246E7 ; 2.0101839044241446E8 ; 7.537584484127033E8 ; 1.0616881147060558E10 ; 0.0
62 ; 1.2809559967060953E7 ; 2.0103184481171876E8 ; 7.665613413310457E8 ; 1.0817899537502974E10 ; 0.0
63 ; 1.281098587003781E7 ; 2.0104529262501863E8 ; 7.793709012981067E8 ; 1.1018931382314692E10 ; 0.0
64 ; 1.281349818261627E7 ; 2.0105873323402494E8 ; 7.921818871681445E8 ; 1.121997667493971E10 ; 0.0
65 ; 1.2810772995858165E7 ; 2.0107216601809955E8 ; 8.049953853507607E8 ; 1.1421035408173735E10 ; 0.0
66 ; 1.281500661656048E7 ; 2.010855903819053E8 ; 8.178061583466189E8 ; 1.1622107574191833E10 ; 0.0
67 ; 1.2816555666984657E7 ; 2.0109900575329328E8 ; 8.306211649631793E8 ; 1.1823193164573738E10 ; 0.0
68 ; 1.281713993809728E7 ; 2.011124115814006E8 ; 8.43437720630164E8 ; 1.2024292170327032E10 ; 0.0
69 ; 1.2818092562069202E7 ; 2.011258073349342E8 ; 8.562548605682613E8 ; 1.2225404581908432E10 ; 0.0
70 ; 1.2820720395273544E7 ; 2.0113919250062042E8 ; 8.690729531303304E8 ; 1.2426530389243366E10 ; 0.0
71 ; 1.2821279702013757E7 ; 2.0115256658180177E8 ; 8.81893673525604E8 ; 1.2627669581743986E10 ; 0.0
72 ; 1.2822020990330933E7 ; 2.0116592909716526E8 ; 8.947149532276177E8 ; 1.2828822148325788E10 ; 0.0
73 ; 1.2820843098059326E7 ; 2.0117927957958817E8 ; 9.075369742179487E8 ; 1.3029988077422955E10 ; 0.0
74 ; 1.2824415180470904E7 ; 2.011926175750887E8 ; 9.20357817316008E8 ; 1.3231167357002542E10 ; 0.0
75 ; 1.282361953172591E7 ; 2.0120594264187095E8 ; 9.331822324964789E8 ; 1.3432359974577631E10 ; 0.0
76 ; 1.2826197643055707E7 ; 2.0121925434945428E8 ; 9.460058520282048E8 ; 1.3633565917219501E10 ; 0.0
77 ; 1.282547137343451E7 ; 2.0123255227787888E8 ; 9.588320496712605E8 ; 1.3834785171568956E10 ; 0.0
78 ; 1.2821933922790704E7 ; 2.012458360169796E8 ; 9.71657521044695E8 ; 1.4036017723846836E10 ; 0.0
79 ; 1.2817264862532044E7 ; 2.012591051657216E8 ; 9.844794549674857E8 ; 1.4237263559863815E10 ; 0.0
80 ; 1.2811346281224733E7 ; 2.0127235933159187E8 ; 9.972967198300177E8 ; 1.4438522665029537E10 ; 0.0
81 ; 1.2811601193119014E7 ; 2.0128559813004094E8 ; 1.0101080661112424E9 ; 1.463979502436113E10 ; 0.0
82 ; 1.2804347915256979E7 ; 2.0129882118397054E8 ; 1.0229196673043615E9 ; 1.484108062249117E10 ; 0.0
83 ; 1.2801812536736028E7 ; 2.0131202812326244E8 ; 1.0357240152196184E9 ; 1.5042379443675142E10 ; 0.0
84 ; 1.2800327566276792E7 ; 2.0132521858434516E8 ; 1.0485258277563545E9 ; 1.5243691471798405E10 ; 0.0
85 ; 1.2797949279670453E7 ; 2.0133839220979467E8 ; 1.0613261553226312E9 ; 1.544501669038275E10 ; 0.0
86 ; 1.2792805028660264E7 ; 2.0135154864796633E8 ; 1.0741241046023016E9 ; 1.5646355082592545E10 ; 0.0
87 ; 1.2783411650495172E7 ; 2.0136468755265525E8 ; 1.086916909630962E9 ; 1.584770663124051E10 ; 0.0
88 ; 1.2780140966805333E7 ; 2.0137780858278242E8 ; 1.099700321281457E9 ; 1.6049071318793167E10 ; 0.0
89 ; 1.2776900602861477E7 ; 2.013909114021047E8 ; 1.1124804622482622E9 ; 1.625044912737595E10 ; 0.0
90 ; 1.2769943285071969E7 ; 2.0140399567894626E8 ; 1.1252573628511236E9 ; 1.6451840038778055E10 ; 0.0
91 ; 1.2766312973923573E7 ; 2.0141706108595E8 ; 1.1380273061361957E9 ; 1.6653244034457E10 ; 0.0
92 ; 1.2762680007224105E7 ; 2.0143010729984686E8 ; 1.1507936191101193E9 ; 1.6854661095542952E10 ; 0.0
93 ; 1.2757780622212918E7 ; 2.014431340012423E8 ; 1.1635562991173434E9 ; 1.7056091202842798E10 ; 0.0
94 ; 1.275020177713419E7 ; 2.0145614087441754E8 ; 1.1763140797395563E9 ; 1.725753433684404E10 ; 0.0
95 ; 1.274299280271493E7 ; 2.0146912760714507E8 ; 1.1890642815166905E9 ; 1.7458990477718456E10 ; 0.0
96 ; 1.2740911345255125E7 ; 2.0148209389051744E8 ; 1.2018072743194053E9 ; 1.76604596053256E10 ; 0.0
97 ; 1.2734272026394755E7 ; 2.014950394187873E8 ; 1.2145481856646605E9 ; 1.7861941699216118E10 ; 0.0
98 ; 1.2727347168977015E7 ; 2.015079638892192E8 ; 1.2272824576910553E9 ; 1.8063436738634907E10 ; 0.0
99 ; 1.2719725768960021E7 ; 2.0152086700195086E8 ; 1.2400098048600323E9 ; 1.8264944702524124E10 ; 0.0
100 ; 1.2715715876482189E7 ; 2.0153374845986432E8 ; 1.2527295306289923E9 ; 1.8466465569526073E10 ; 0.0
101 ; 1.2709909343418555E7 ; 2.015466079684655E8 ; 1.2654452465054746E9 ; 1.866799931798594E10 ; 0.0
102 ; 1.2704865265360968E7 ; 2.015594452357718E8 ; 1.2781551558488932E9 ; 1.8869545925954403E10 ; 0.0
103 ; 1.2694296555912755E7 ; 2.0157225997220728E8 ; 1.2908600211142542E9 ; 1.9071105371190174E10 ; 0.0
104 ; 1.2687715295444846E7 ; 2.015850518905044E8 ; 1.303554317670167E9 ; 1.927267763116238E10 ; 0.0
105 ; 1.2684905475713035E7 ; 2.0159782070561254E8 ; 1.316242032965612E9 ; 1.9474262683052883E10 ; 0.0
106 ; 1.267430855140558E7 ; 2.016105661346122E8 ; 1.328926938441325E9 ; 1.9675860503758495E10 ; 0.0
107 ; 1.2665956027686458E7 ; 2.0162328789663476E8 ; 1.3416012469927306E9 ; 1.987747106989311E10 ; 0.0
108 ; 1.266393516442641E7 ; 2.0163598571278724E8 ; 1.354267203020417E9 ; 2.007909435778974E10 ; 0.0
109 ; 1.2652246229186278E7 ; 2.0164865930608213E8 ; 1.3669311381848433E9 ; 2.028073034350253E10 ; 0.0
110 ; 1.2644723243460072E7 ; 2.0166130840137127E8 ; 1.3795833844140296E9 ; 2.0482379002808613E10 ; 0.0
111 ; 1.2638180879588915E7 ; 2.0167393272528416E8 ; 1.3922281076574898E9 ; 2.0684040311209984E10 ; 0.0
112 ; 1.2631437999646459E7 ; 2.0168653200616992E8 ; 1.4048662885370786E9 ; 2.088571424393527E10 ; 0.0
113 ; 1.2620708179068094E7 ; 2.0169910597404295E8 ; 1.417497726536725E9 ; 2.1087400775941437E10 ; 0.0
114 ; 1.2614682689740917E7 ; 2.017116543605319E8 ; 1.4301184347157931E9 ; 2.128909988191548E10 ; 0.0
115 ; 1.2607673238130465E7 ; 2.0172417689883178E8 ; 1.442733117405534E9 ; 2.1490811536276012E10 ; 0.0
116 ; 1.2598423950669995E7 ; 2.0173667332365897E8 ; 1.4553407906436646E9 ; 2.1692535713174843E10 ; 0.0
117 ; 1.2590065325068587E7 ; 2.0174914337120903E8 ; 1.4679392145943346E9 ; 2.18942723864985E10 ; 0.0
118 ; 1.258037770417945E7 ; 2.017615867791169E8 ; 1.480529279919403E9 ; 2.209602152986971E10 ; 0.0
119 ; 1.2572076069850307E7 ; 2.0177400328641984E8 ; 1.4931096576235826E9 ; 2.2297783116648827E10 ; 0.0
120 ; 1.2567643209866118E7 ; 2.0178639263352215E8 ; 1.5056817336934328E9 ; 2.2499557119935246E10 ; 0.0
121 ; 1.2554508982629817E7 ; 2.0179875456216246E8 ; 1.5182493769032989E9 ; 2.2701343512568768E10 ; 0.0
122 ; 1.2548148287962247E7 ; 2.018110888153826E8 ; 1.5308038858859286E9 ; 2.290314226713093E10 ; 0.0
123 ; 1.2537468929349657E7 ; 2.0182339513749862E8 ; 1.5433520341738908E9 ; 2.3104953355946316E10 ; 0.0
124 ; 1.2530535414597508E7 ; 2.0183567327407342E8 ; 1.5558895031032405E9 ; 2.3306776751083813E10 ; 0.0
125 ; 1.2518044334999599E7 ; 2.0184792297189087E8 ; 1.568420038517838E9 ; 2.3508612424357887E10 ; 0.0
126 ; 1.2509799834670851E7 ; 2.0186014397893187E8 ; 1.5809380828528376E9 ; 2.3710460347329777E10 ; 0.0
127 ; 1.2497414558856722E7 ; 2.0187233604435143E8 ; 1.5934478826875083E9 ; 2.391232049130871E10 ; 0.0
128 ; 1.249022209520115E7 ; 2.0188449891845724E8 ; 1.605945297246365E9 ; 2.4114192827353058E10 ; 0.0
129 ; 1.2479718362169517E7 ; 2.0189663235268977E8 ; 1.6184355193415663E9 ; 2.4316077326271515E10 ; 0.0
130 ; 1.247143953260389E7 ; 2.019087360996032E8 ; 1.6309152377037358E9 ; 2.4517973958624207E10 ; 0.0
131 ; 1.245397001202715E7 ; 2.019208099128477E8 ; 1.6433866772363398E9 ; 2.471988269472381E10 ; 0.0
132 ; 1.2442648123556446E7 ; 2.0193285354715267E8 ; 1.655840647248367E9 ; 2.4921803504636658E10 ; 0.0
133 ; 1.2423134059882686E7 ; 2.0194486675831118E8 ; 1.6682832953719234E9 ; 2.512373635818381E10 ; 0.0
134 ; 1.2414900625106825E7 ; 2.019568493031652E8 ; 1.680706429431806E9 ; 2.5325681224942123E10 ; 0.0
135 ; 1.2397804706740323E7 ; 2.0196880093959165E8 ; 1.693121330056913E9 ; 2.552763807424529E10 ; 0.0
136 ; 1.23847434080946E7 ; 2.0198072142648947E8 ; 1.7055191347636533E9 ; 2.572960687518488E10 ; 0.0
137 ; 1.2371140650580188E7 ; 2.0199261052376753E8 ; 1.717903878171748E9 ; 2.593158759661137E10 ; 0.0
138 ; 1.2353708005050443E7 ; 2.0200446799233305E8 ; 1.730275018822328E9 ; 2.613358020713514E10 ; 0.0
139 ; 1.2341020252469268E7 ; 2.02016293594081E8 ; 1.7426287268273785E9 ; 2.6335584675127472E10 ; 0.0
140 ; 1.2323831281361086E7 ; 2.0202808709188402E8 ; 1.7549697470798478E9 ; 2.6537600968721554E10 ; 0.0
141 ; 1.2308507238314271E7 ; 2.0203984824958292E8 ; 1.767293578361209E9 ; 2.673962905581344E10 ; 0.0
142 ; 1.2294160476318454E7 ; 2.0205157683197805E8 ; 1.779602085599523E9 ; 2.6941668904063023E10 ; 0.0
143 ; 1.2278420789593292E7 ; 2.020632726048211E8 ; 1.7918962460758414E9 ; 2.7143720480895E10 ; 0.0
144 ; 1.2266797893824238E7 ; 2.0207493533480713E8 ; 1.8041746668654346E9 ; 2.734578375349982E10 ; 0.0
145 ; 1.2254114134515598E7 ; 2.0208656478956777E8 ; 1.816441464759259E9 ; 2.754785868883463E10 ; 0.0
146 ; 1.2242210210813148E7 ; 2.020981607376644E8 ; 1.8286955788937745E9 ; 2.7749945253624195E10 ; 0.0
147 ; 1.2234780136844872E7 ; 2.0210972294858187E8 ; 1.8409377891045876E9 ; 2.795204341436186E10 ; 0.0
148 ; 1.2220811942549493E7 ; 2.021212511927228E8 ; 1.8531725692414324E9 ; 2.815415313731044E10 ; 0.0
149 ; 1.2213719162341876E7 ; 2.0213274524140224E8 ; 1.865393381183982E9 ; 2.8356274388503162E10 ; 0.0
150 ; 1.2200734224401308E7 ; 2.0214420486684266E8 ; 1.8776071003463237E9 ; 2.8558407133744564E10 ; 0.0
151 ; 1.2188575839825615E7 ; 2.0215562984216937E8 ; 1.889807834570725E9 ; 2.876055133861141E10 ; 0.0
152 ; 1.2177624721245702E7 ; 2.021670199414064E8 ; 1.9019964104105506E9 ; 2.896270696845358E10 ; 0.0
153 ; 1.216686092765001E7 ; 2.0217837493947238E8 ; 1.9141740351317964E9 ; 2.9164873988394985E10 ; 0.0
154 ; 1.2158578795805516E7 ; 2.0218969461217713E8 ; 1.9263408960594463E9 ; 2.9367052363334457E10 ; 0.0
155 ; 1.2146961395066123E7 ; 2.0220097873621842E8 ; 1.9384994748552518E9 ; 2.9569242057946636E10 ; 0.0
156 ; 1.213619894062411E7 ; 2.022122270891788E8 ; 1.9506464362503178E9 ; 2.9771443036682854E10 ; 0.0
157 ; 1.2123806960624438E7 ; 2.0222343944952315E8 ; 1.9627826351909418E9 ; 2.9973655263772034E10 ; 0.0
158 ; 1.2112753750671254E7 ; 2.0223461559659594E8 ; 1.9749064421515663E9 ; 3.0175878703221558E10 ; 0.0
159 ; 1.2100468456785496E7 ; 2.0224575531061932E8 ; 1.9870191959022374E9 ; 3.0378113318818153E10 ; 0.0
160 ; 1.209099696305314E7 ; 2.02256858372691E8 ; 1.9991196643590229E9 ; 3.0580359074128773E10 ; 0.0
161 ; 1.207869623157867E7 ; 2.022679245647825E8 ; 2.011210661322076E9 ; 3.0782615932501465E10 ; 0.0
162 ; 1.2064637640158094E7 ; 2.0227895366973773E8 ; 2.0232893575536547E9 ; 3.0984883857066246E10 ; 0.0
163 ; 1.2054157353409411E7 ; 2.022899454712715E8 ; 2.0353539951938128E9 ; 3.1187162810735985E10 ; 0.0
164 ; 1.2041187666648662E7 ; 2.023008997539687E8 ; 2.0474081525472224E9 ; 3.1389452756207256E10 ; 0.0
165 ; 1.2029012527927684E7 ; 2.0231181630328292E8 ; 2.059449340213871E9 ; 3.1591753655961224E10 ; 0.0
166 ; 1.2015607323772827E7 ; 2.023226949055361E8 ; 2.0714783527417986E9 ; 3.1794065472264507E10 ; 0.0
167 ; 1.200732094881081E7 ; 2.023335353479177E8 ; 2.0834939600655715E9 ; 3.1996388167170044E10 ; 0.0
168 ; 1.1992597116502991E7 ; 2.0234433741848436E8 ; 2.0955012810143824E9 ; 3.2198721702517963E10 ; 0.0
169 ; 1.1985755866788423E7 ; 2.0235510090615943E8 ; 2.1074938781308854E9 ; 3.2401066039936447E10 ; 0.0
170 ; 1.1966794955041666E7 ; 2.0236582560073313E8 ; 2.1194796339976737E9 ; 3.2603421140842606E10 ; 0.0
171 ; 1.1958508792563831E7 ; 2.023765112928622E8 ; 2.1314464289527154E9 ; 3.280578696644334E10 ; 0.0
172 ; 1.194534458346544E7 ; 2.0238715777407032E8 ; 2.1434049377452793E9 ; 3.3008163477736202E10 ; 0.0
173 ; 1.1935677915015545E7 ; 2.023977648367481E8 ; 2.155350282328745E9 ; 3.3210550635510273E10 ; 0.0
174 ; 1.1927626784700565E7 ; 2.0240833227415368E8 ; 2.1672859602437606E9 ; 3.341294840034702E10 ; 0.0
175 ; 1.1919952382423814E7 ; 2.02418859880413E8 ; 2.179213587028461E9 ; 3.3615356732621174E10 ; 0.0
176 ; 1.1912045906736981E7 ; 2.024293474505205E8 ; 2.191133539410885E9 ; 3.3817775592501587E10 ; 0.0
177 ; 1.1905143336115258E7 ; 2.0243979478033975E8 ; 2.2030455853176217E9 ; 3.4020204939952106E10 ; 0.0
178 ; 1.189657931851913E7 ; 2.0245020166660428E8 ; 2.214950728653737E9 ; 3.4222644734732445E10 ; 0.0
179 ; 1.18916540776341E7 ; 2.0246056790691847E8 ; 2.226847307972256E9 ; 3.442509493639905E10 ; 0.0
180 ; 1.1883965865397675E7 ; 2.0247089329975834E8 ; 2.2387389620498905E9 ; 3.462755550430597E10 ; 0.0
181 ; 1.1876844522439243E7 ; 2.0248117764447284E8 ; 2.250622927915288E9 ; 3.483002639760573E10 ; 0.0
182 ; 1.1872074007102426E7 ; 2.0249142074128485E8 ; 2.2624997724377275E9 ; 3.50325075752502E10 ; 0.0
183 ; 1.1862646591368124E7 ; 2.025016223912923E8 ; 2.27437184644483E9 ; 3.5234998995991486E10 ; 0.0
184 ; 1.1853334693666277E7 ; 2.0251178239646962E8 ; 2.286234493036198E9 ; 3.5437500618382774E10 ; 0.0
185 ; 1.1849028805623883E7 ; 2.0252190055966896E8 ; 2.2980878277298646E9 ; 3.564001240077924E10 ; 0.0
186 ; 1.1839490341891924E7 ; 2.025319766846216E8 ; 2.3099368565354886E9 ; 3.584253430133891E10 ; 0.0
187 ; 1.1837065224619722E7 ; 2.025420105759395E8 ; 2.3217763468773804E9 ; 3.604506627802354E10 ; 0.0
188 ; 1.1829584569244113E7 ; 2.0255200203911674E8 ; 2.333613412102E9 ; 3.624760828859948E10 ; 0.0
189 ; 1.181887997162111E7 ; 2.0256195088053113E8 ; 2.345442996671244E9 ; 3.6450160290638596E10 ; 0.0
190 ; 1.1809029588674692E7 ; 2.0257185690744588E8 ; 2.357261876642865E9 ; 3.665272224151913E10 ; 0.0
191 ; 1.1803591725401487E7 ; 2.0258171992801124E8 ; 2.3690709062315397E9 ; 3.6855294098426575E10 ; 0.0
192 ; 1.1797602521514582E7 ; 2.025915397512662E8 ; 2.380874497956941E9 ; 3.705787581835458E10 ; 0.0
193 ; 1.179291115624683E7 ; 2.0260131618714043E8 ; 2.3926721004784555E9 ; 3.726046735810585E10 ; 0.0
194 ; 1.1785755726808522E7 ; 2.026110490464559E8 ; 2.404465011634702E9 ; 3.746306867429299E10 ; 0.0
195 ; 1.1776845519403126E7 ; 2.0262073814092886E8 ; 2.4162507673615108E9 ; 3.766567972333945E10 ; 0.0
