CSV File for the City 1 on Day 29
1 - Minute m 
2 - Power Consumed at minute m 
3 - Power Produced at minute m 
4 - Energy Consumed since the beginning of the day 
5 - Energy Produced since the beginning of the day 
6 - Energy Lost since the beginning of the day on lines starting from the city
 
0 ; 1.5974344677236725E7 ; 1.0526000607637796E8 ; 0.0 ; 0.0 ; 0.0
1 ; 1.599182547393775E7 ; 1.0541119294270319E8 ; 1.5974344677236725E7 ; 1.0526000607637796E8 ; 0.0
2 ; 1.6011350605530076E7 ; 1.0587126118300632E8 ; 3.1966170151174475E7 ; 2.1067119901908115E8 ; 0.0
3 ; 1.6029735517364398E7 ; 1.0664023412962729E8 ; 4.7977520756704554E7 ; 3.1654246020208746E8 ; 0.0
4 ; 1.6054176656072836E7 ; 1.0771813566065282E8 ; 6.400725627406895E7 ; 4.2318269433171475E8 ; 0.0
5 ; 1.6085111408617577E7 ; 1.0910498951703572E8 ; 8.006143293014179E7 ; 5.3090082999236757E8 ; 0.0
6 ; 1.6123722197185112E7 ; 1.1080081843922886E8 ; 9.614654433875936E7 ; 6.400058195094032E8 ; 0.0
7 ; 1.6177084959417002E7 ; 1.1280564315925634E8 ; 1.1227026653594448E8 ; 7.508066379486321E8 ; 0.0
8 ; 1.6255087541008813E7 ; 1.1511948132114625E8 ; 1.2844735149536148E8 ; 8.636122811078885E8 ; 0.0
9 ; 1.637247855568362E7 ; 1.1774234643743783E8 ; 1.4470243903637028E8 ; 9.787317624290347E8 ; 0.0
10 ; 1.655426113508979E7 ; 1.2067424701049387E8 ; 1.610749175920539E8 ; 1.0964741088664725E9 ; 0.0
11 ; 1.6843868021853633E7 ; 1.239151859436107E8 ; 1.7762917872714368E8 ; 1.2171483558769665E9 ; 0.0
12 ; 1.7301319388793577E7 ; 1.2746516033349195E8 ; 1.944730467489973E8 ; 1.3410635418205771E9 ; 0.0
13 ; 1.7750893136837322E7 ; 1.3132416167777485E8 ; 2.117743661377909E8 ; 1.4685287021540692E9 ; 0.0
14 ; 1.7802329498112164E7 ; 1.3549217646392024E8 ; 2.2952525927462822E8 ; 1.599852863831844E9 ; 0.0
15 ; 1.78184975082133E7 ; 1.399691870478999E8 ; 2.473275887727404E8 ; 1.7353450402957644E9 ; 0.0
16 ; 1.7845185367594283E7 ; 1.4475517269768986E8 ; 2.651460862809537E8 ; 1.8753142273436644E9 ; 0.0
17 ; 1.786731255781372E7 ; 1.4985011067283717E8 ; 2.82991271648548E8 ; 2.0200694000413542E9 ; 0.0
18 ; 1.788317649397986E7 ; 1.5525397723238903E8 ; 3.008585842063617E8 ; 2.1699195107141914E9 ; 0.0
19 ; 1.7906925999757044E7 ; 1.6096674849825874E8 ; 3.187417607003416E8 ; 2.3251734879465804E9 ; 0.0
20 ; 1.793016658609896E7 ; 1.6698840113810632E8 ; 3.3664868670009863E8 ; 2.486140236444839E9 ; 0.0
21 ; 1.7950042283344276E7 ; 1.7331891286276987E8 ; 3.545788532861976E8 ; 2.6531286375829453E9 ; 0.0
22 ; 1.7975255708621465E7 ; 1.7995826275447577E8 ; 3.725288955695419E8 ; 2.8264475504457154E9 ; 0.0
23 ; 1.7993452380990814E7 ; 1.8690643145343757E8 ; 3.905041512781633E8 ; 3.006405813200191E9 ; 0.0
24 ; 1.8011369726551782E7 ; 1.9416340123408663E8 ; 4.084976036591541E8 ; 3.1933122446536283E9 ; 0.0
25 ; 1.8032497618834745E7 ; 2.004171968988993E8 ; 4.265089733857059E8 ; 3.387475645887715E9 ; 0.0
26 ; 1.8053872679109238E7 ; 2.0042135175596827E8 ; 4.445414710045406E8 ; 3.587892842786614E9 ; 0.0
27 ; 1.8075602184308346E7 ; 2.004256220501054E8 ; 4.6259534368364984E8 ; 3.788314194542582E9 ; 0.0
28 ; 1.809608225707017E7 ; 2.0042999609680352E8 ; 4.806709458679582E8 ; 3.9887398165926876E9 ; 0.0
29 ; 1.81158249577345E7 ; 2.004344634547542E8 ; 4.987670281250284E8 ; 4.1891698126894913E9 ; 0.0
30 ; 1.8132476292117752E7 ; 2.0043901480476072E8 ; 5.168828530827629E8 ; 4.389604276144245E9 ; 0.0
31 ; 1.8152654695748102E7 ; 2.004436418331492E8 ; 5.350153293748807E8 ; 4.590043290949006E9 ; 0.0
32 ; 1.8175075767026395E7 ; 2.004483371225594E8 ; 5.531679840706288E8 ; 4.790486932782155E9 ; 0.0
33 ; 1.8192670772315063E7 ; 2.0045309405160746E8 ; 5.713430598376552E8 ; 4.990935269904715E9 ; 0.0
34 ; 1.8206223208551247E7 ; 2.0045790670397294E8 ; 5.895357306099702E8 ; 5.191388363956322E9 ; 0.0
35 ; 1.8226319535267603E7 ; 2.004627697868549E8 ; 6.077419538185215E8 ; 5.391846270660295E9 ; 0.0
36 ; 1.8240782114941776E7 ; 2.004676785583699E8 ; 6.259682733537891E8 ; 5.592309040447149E9 ; 0.0
37 ; 1.8258664991595235E7 ; 2.004726287632563E8 ; 6.442090554687309E8 ; 5.792776719005519E9 ; 0.0
38 ; 1.8274586754377883E7 ; 2.0047761657615173E8 ; 6.624677204603262E8 ; 5.993249347768775E9 ; 0.0
39 ; 1.828811519752652E7 ; 2.0048263855168268E8 ; 6.80742307214704E8 ; 6.193726964344927E9 ; 0.0
40 ; 1.8304014902067225E7 ; 2.0048769158062372E8 ; 6.990304224122306E8 ; 6.394209602896609E9 ; 0.0
41 ; 1.8312649213450287E7 ; 2.0049277285142583E8 ; 7.173344373142978E8 ; 6.594697294477233E9 ; 0.0
42 ; 1.8327031552044597E7 ; 2.0049787981647015E8 ; 7.356470865277481E8 ; 6.795190067328659E9 ; 0.0
43 ; 1.8338832201124284E7 ; 2.005030101624661E8 ; 7.539741180797927E8 ; 6.995687947145129E9 ; 0.0
44 ; 1.8348666772986274E7 ; 2.0050816178447458E8 ; 7.72312950280917E8 ; 7.196190957307595E9 ; 0.0
45 ; 1.8359988509864815E7 ; 2.0051333276309627E8 ; 7.906616170539033E8 ; 7.39669911909207E9 ; 0.0
46 ; 1.8367898007620107E7 ; 2.005185213444223E8 ; 8.090216055637681E8 ; 7.5972124518551655E9 ; 0.0
47 ; 1.837769392744754E7 ; 2.0052372592239255E8 ; 8.273895035713882E8 ; 7.797730973199588E9 ; 0.0
48 ; 1.8384048212677717E7 ; 2.0052894502325436E8 ; 8.457671974988358E8 ; 7.998254699121981E9 ; 0.0
49 ; 1.8391488949470215E7 ; 2.0053417729185286E8 ; 8.641512457115135E8 ; 8.198783644145235E9 ; 0.0
50 ; 1.839587670323488E7 ; 2.005394214795202E8 ; 8.825427346609837E8 ; 8.399317821437088E9 ; 0.0
51 ; 1.8405280323180337E7 ; 2.005446764333612E8 ; 9.009386113642186E8 ; 8.599857242916609E9 ; 0.0
52 ; 1.84065640262822E7 ; 2.0054994108676037E8 ; 9.193438916873989E8 ; 8.80040191934997E9 ; 0.0
53 ; 1.8411911374460917E7 ; 2.0055521445095745E8 ; 9.377504557136811E8 ; 9.00095186043673E9 ; 0.0
54 ; 1.8420255788077164E7 ; 2.0056049560756004E8 ; 9.56162367088142E8 ; 9.201507074887688E9 ; 0.0
55 ; 1.8420643585318316E7 ; 2.0056578370187828E8 ; 9.745826228762192E8 ; 9.402067570495247E9 ; 0.0
56 ; 1.8424766385646805E7 ; 2.005710779369818E8 ; 9.930032664615375E8 ; 9.602633354197124E9 ; 0.0
57 ; 1.8431390732556704E7 ; 2.005763775683926E8 ; 1.0114280328471843E9 ; 9.803204432134106E9 ; 0.0
58 ; 1.843887796592048E7 ; 2.0058168189933842E8 ; 1.029859423579741E9 ; 1.0003780809702497E10 ; 0.0
59 ; 1.8439237993773114E7 ; 2.0058699027650014E8 ; 1.0482983015456614E9 ; 1.0204362491601835E10 ; 0.0
60 ; 1.844548797506924E7 ; 2.0059230208619696E8 ; 1.0667375395394346E9 ; 1.0404949481878336E10 ; 0.0
61 ; 1.8444432774145804E7 ; 2.0059761675095823E8 ; 1.0851830275145037E9 ; 1.0605541783964533E10 ; 0.0
62 ; 1.8446221630330164E7 ; 2.0060293372643855E8 ; 1.1036274602886496E9 ; 1.080613940071549E10 ; 0.0
63 ; 1.8452658895502463E7 ; 2.0060825249863747E8 ; 1.1220736819189796E9 ; 1.1006742334441929E10 ; 0.0
64 ; 1.8455781212294605E7 ; 2.0061357258139047E8 ; 1.1405263408144822E9 ; 1.1207350586940567E10 ; 0.0
65 ; 1.8459768994211372E7 ; 2.0061889351410082E8 ; 1.1589821220267768E9 ; 1.1407964159521957E10 ; 0.0
66 ; 1.8460074410563234E7 ; 2.0062421485968718E8 ; 1.1774418910209882E9 ; 1.1608583053036058E10 ; 0.0
67 ; 1.8462735566514086E7 ; 2.0062953620272315E8 ; 1.1959019654315515E9 ; 1.1809207267895746E10 ; 0.0
68 ; 1.8466759562260404E7 ; 2.006348571477489E8 ; 1.2143647009980655E9 ; 1.2009836804098469E10 ; 0.0
69 ; 1.846758366941993E7 ; 2.0064017731773707E8 ; 1.2328314605603259E9 ; 1.2210471661246218E10 ; 0.0
70 ; 1.846860464436932E7 ; 2.0064549635269672E8 ; 1.2512990442297459E9 ; 1.2411111838563955E10 ; 0.0
71 ; 1.8468203254785046E7 ; 2.0065081390840143E8 ; 1.2697676488741152E9 ; 1.2611757334916653E10 ; 0.0
72 ; 1.8468949957500055E7 ; 2.006561296552292E8 ; 1.2882358521289003E9 ; 1.2812408148825054E10 ; 0.0
73 ; 1.8471680794169564E7 ; 2.00661443277103E8 ; 1.3067048020864003E9 ; 1.3013064278480284E10 ; 0.0
74 ; 1.8471473003249172E7 ; 2.0066675447052193E8 ; 1.32517648288057E9 ; 1.3213725721757387E10 ; 0.0
75 ; 1.847326364200853E7 ; 2.0067206294367427E8 ; 1.343647955883819E9 ; 1.341439247622791E10 ; 0.0
76 ; 1.84722589663395E7 ; 2.00677368415625E8 ; 1.3621212195258276E9 ; 1.3615064539171583E10 ; 0.0
77 ; 1.8471076188296802E7 ; 2.006826706155699E8 ; 1.3805934784921672E9 ; 1.3815741907587208E10 ; 0.0
78 ; 1.8475985982579574E7 ; 2.0068796928215086E8 ; 1.399064554680464E9 ; 1.4016424578202778E10 ; 0.0
79 ; 1.8466929538347803E7 ; 2.0069326416282624E8 ; 1.4175405406630435E9 ; 1.4217112547484928E10 ; 0.0
80 ; 1.8464092580341045E7 ; 2.0069855501329115E8 ; 1.4360074702013912E9 ; 1.4417805811647755E10 ; 0.0
81 ; 1.845647047120468E7 ; 2.0070384159694386E8 ; 1.4544715627817323E9 ; 1.4618504366661045E10 ; 0.0
82 ; 1.8447367569164105E7 ; 2.0070912368439323E8 ; 1.472928033252937E9 ; 1.4819208208257988E10 ; 0.0
83 ; 1.8442891467381395E7 ; 2.0071440105300424E8 ; 1.491375400822101E9 ; 1.501991733194238E10 ; 0.0
84 ; 1.843512495553927E7 ; 2.0071967348647815E8 ; 1.5098182922894826E9 ; 1.5220631732995384E10 ; 0.0
85 ; 1.8429016349827237E7 ; 2.007249407744641E8 ; 1.5282534172450218E9 ; 1.5421351406481863E10 ; 0.0
86 ; 1.8423385687408704E7 ; 2.0073020271219963E8 ; 1.546682433594849E9 ; 1.5622076347256327E10 ; 0.0
87 ; 1.8417571873351708E7 ; 2.0073545910017768E8 ; 1.5651058192822578E9 ; 1.5822806549968527E10 ; 0.0
88 ; 1.8409559959889892E7 ; 2.0074070974383783E8 ; 1.5835233911556096E9 ; 1.6023542009068705E10 ; 0.0
89 ; 1.8399571489417743E7 ; 2.007459544532796E8 ; 1.6019329511154995E9 ; 1.6224282718812542E10 ; 0.0
90 ; 1.839543810527073E7 ; 2.0075119304299653E8 ; 1.6203325226049173E9 ; 1.6425028673265821E10 ; 0.0
91 ; 1.8384519216649685E7 ; 2.0075642533162856E8 ; 1.638727960710188E9 ; 1.6625779866308819E10 ; 0.0
92 ; 1.837654672291935E7 ; 2.0076165114173198E8 ; 1.6571124799268377E9 ; 1.6826536291640448E10 ; 0.0
93 ; 1.8371561647995185E7 ; 2.0076687029956532E8 ; 1.6754890266497571E9 ; 1.7027297942782179E10 ; 0.0
94 ; 1.836317092818239E7 ; 2.0077208263488954E8 ; 1.6938605882977524E9 ; 1.7228064813081745E10 ; 0.0
95 ; 1.8355799146897376E7 ; 2.0077728798078206E8 ; 1.7122237592259347E9 ; 1.7428836895716633E10 ; 0.0
96 ; 1.8349975776342493E7 ; 2.007824861734632E8 ; 1.730579558372832E9 ; 1.7629614183697414E10 ; 0.0
97 ; 1.833683798277766E7 ; 2.0078767705213395E8 ; 1.7489295341491745E9 ; 1.7830396669870876E10 ; 0.0
98 ; 1.8331885229921494E7 ; 2.0079286045882463E8 ; 1.767266372131952E9 ; 1.803118434692301E10 ; 0.0
99 ; 1.8322614154465854E7 ; 2.0079803623825338E8 ; 1.7855982573618736E9 ; 1.8231977207381836E10 ; 0.0
100 ; 1.831051751456398E7 ; 2.0080320423769358E8 ; 1.8039208715163395E9 ; 1.843277524362009E10 ; 0.0
101 ; 1.830395450781959E7 ; 2.0080836430684996E8 ; 1.8222313890309036E9 ; 1.8633578447857784E10 ; 0.0
102 ; 1.8293065761811372E7 ; 2.008135162977425E8 ; 1.8405353435387232E9 ; 1.8834386812164635E10 ; 0.0
103 ; 1.828398556333646E7 ; 2.0081866006459755E8 ; 1.8588284093005345E9 ; 1.9035200328462376E10 ; 0.0
104 ; 1.8270840523367096E7 ; 2.008237954637459E8 ; 1.8771123948638709E9 ; 1.9236018988526974E10 ; 0.0
105 ; 1.826188846960263E7 ; 2.0082892235352692E8 ; 1.895383235387238E9 ; 1.943684278399072E10 ; 0.0
106 ; 1.8252668604566615E7 ; 2.0083404059419864E8 ; 1.9136451238568406E9 ; 1.9637671706344246E10 ; 0.0
107 ; 1.8243696455354314E7 ; 2.0083915004785353E8 ; 1.9318977924614072E9 ; 1.9838505746938446E10 ; 0.0
108 ; 1.82319599379538E7 ; 2.0084425057833883E8 ; 1.9501414889167614E9 ; 2.00393448969863E10 ; 0.0
109 ; 1.8220709431536783E7 ; 2.0084934205118224E8 ; 1.968373448854715E9 ; 2.024018914756464E10 ; 0.0
110 ; 1.8212744726752505E7 ; 2.0085442433352152E8 ; 1.9865941582862518E9 ; 2.044103848961582E10 ; 0.0
111 ; 1.8196949553233493E7 ; 2.008594972940385E8 ; 2.0048069030130043E9 ; 2.0641892913949345E10 ; 0.0
112 ; 1.8185958567959096E7 ; 2.008645608028969E8 ; 2.0230038525662377E9 ; 2.084275241124338E10 ; 0.0
113 ; 1.8172886980645996E7 ; 2.0086961473168358E8 ; 2.0411898111341968E9 ; 2.104361697204628E10 ; 0.0
114 ; 1.8163190275033556E7 ; 2.008746589533535E8 ; 2.0593626981148427E9 ; 2.124448658677796E10 ; 0.0
115 ; 1.814945793426054E7 ; 2.008796933421774E8 ; 2.0775258883898761E9 ; 2.1445361245731316E10 ; 0.0
116 ; 1.8142877250566248E7 ; 2.008847177736929E8 ; 2.0956753463241367E9 ; 2.1646240939073494E10 ; 0.0
117 ; 1.812721876836057E7 ; 2.0088973212465787E8 ; 2.113818223574703E9 ; 2.1847125656847187E10 ; 0.0
118 ; 1.8111960655558392E7 ; 2.0089473627300686E8 ; 2.1319454423430636E9 ; 2.2048015388971844E10 ; 0.0
119 ; 1.810283810871317E7 ; 2.0089973009780958E8 ; 2.150057402998622E9 ; 2.224891012524485E10 ; 0.0
120 ; 1.808938822712561E7 ; 2.0090471347923195E8 ; 2.168160241107335E9 ; 2.244980985534266E10 ; 0.0
121 ; 1.8078599965343814E7 ; 2.0090968629849917E8 ; 2.1862496293344607E9 ; 2.265071456882189E10 ; 0.0
122 ; 1.8064405766776823E7 ; 2.0091464843786064E8 ; 2.2043282292998047E9 ; 2.285162425512039E10 ; 0.0
123 ; 1.8052734109134056E7 ; 2.0091959978055713E8 ; 2.2223926350665817E9 ; 2.3052538903558254E10 ; 0.0
124 ; 1.8037316332092237E7 ; 2.0092454021078944E8 ; 2.240445369175716E9 ; 2.325345850333881E10 ; 0.0
125 ; 1.8023196157374177E7 ; 2.0092946961368883E8 ; 2.258482685507808E9 ; 2.34543830435496E10 ; 0.0
126 ; 1.800967216706582E7 ; 2.0093438787528902E8 ; 2.2765058816651826E9 ; 2.365531251316329E10 ; 0.0
127 ; 1.7997409925679054E7 ; 2.009392948824997E8 ; 2.294515553832248E9 ; 2.3856246901038578E10 ; 0.0
128 ; 1.7978621787741393E7 ; 2.009441905230814E8 ; 2.3125129637579274E9 ; 2.4057186195921078E10 ; 0.0
129 ; 1.796622127369276E7 ; 2.0094907468562165E8 ; 2.3304915855456686E9 ; 2.425813038644416E10 ; 0.0
130 ; 1.794909221812069E7 ; 2.009539472595125E8 ; 2.348457806819361E9 ; 2.4459079461129784E10 ; 0.0
131 ; 1.7927581313740302E7 ; 2.009588081349292E8 ; 2.366406899037482E9 ; 2.4660033408389297E10 ; 0.0
132 ; 1.7908690923371587E7 ; 2.0096365720280963E8 ; 2.384334480351222E9 ; 2.4860992216524227E10 ; 0.0
133 ; 1.7885198805156827E7 ; 2.0096849435483542E8 ; 2.402243171274594E9 ; 2.5061955873727036E10 ; 0.0
134 ; 1.786458443487479E7 ; 2.0097331948341352E8 ; 2.4201283700797505E9 ; 2.526292436808187E10 ; 0.0
135 ; 1.7847008659601096E7 ; 2.0097813248165894E8 ; 2.4379929545146255E9 ; 2.5463897687565285E10 ; 0.0
136 ; 1.7825173092116255E7 ; 2.0098293324337825E8 ; 2.4558399631742268E9 ; 2.5664875820046944E10 ; 0.0
137 ; 1.7800355756804876E7 ; 2.009877216630542E8 ; 2.473665136266343E9 ; 2.586585875329032E10 ; 0.0
138 ; 1.778095751238149E7 ; 2.0099249763583067E8 ; 2.491465492023148E9 ; 2.6066846474953377E10 ; 0.0
139 ; 1.7761478382106002E7 ; 2.0099726105749878E8 ; 2.5092464495355296E9 ; 2.6267838972589207E10 ; 0.0
140 ; 1.7738008195613068E7 ; 2.0100201182448348E8 ; 2.5270079279176354E9 ; 2.6468836233646706E10 ; 0.0
141 ; 1.7713527840192385E7 ; 2.0100674983383092E8 ; 2.5447459361132483E9 ; 2.6669838245471188E10 ; 0.0
142 ; 1.76929718838585E7 ; 2.0101147498319644E8 ; 2.5624594639534407E9 ; 2.687084499530502E10 ; 0.0
143 ; 1.7665793602035582E7 ; 2.0101618717083302E8 ; 2.5801524358372993E9 ; 2.7071856470288216E10 ; 0.0
144 ; 1.7646758590548497E7 ; 2.010208862955806E8 ; 2.597818229439335E9 ; 2.727287265745905E10 ; 0.0
145 ; 1.7632986908861052E7 ; 2.010255722568556E8 ; 2.6154649880298834E9 ; 2.747389354375463E10 ; 0.0
146 ; 1.761428701838285E7 ; 2.0103024495464125E8 ; 2.6330979749387445E9 ; 2.7674919116011486E10 ; 0.0
147 ; 1.75977485121646E7 ; 2.010349042894782E8 ; 2.6507122619571276E9 ; 2.7875949360966125E10 ; 0.0
148 ; 1.7581735536220774E7 ; 2.0103955016245574E8 ; 2.668310010469292E9 ; 2.8076984265255604E10 ; 0.0
149 ; 1.7565434527432323E7 ; 2.0104418247520334E8 ; 2.6858917460055127E9 ; 2.827802381541806E10 ; 0.0
150 ; 1.7548932827136777E7 ; 2.010488011298827E8 ; 2.703457180532945E9 ; 2.8479067997893265E10 ; 0.0
151 ; 1.7532076830682714E7 ; 2.010534060291802E8 ; 2.721006113360082E9 ; 2.8680116799023148E10 ; 0.0
152 ; 1.751964398149984E7 ; 2.010579970762996E8 ; 2.738538190190765E9 ; 2.8881170205052326E10 ; 0.0
153 ; 1.750560798612997E7 ; 2.0106257417495537E8 ; 2.7560578341722646E9 ; 2.9082228202128624E10 ; 0.0
154 ; 1.7481451249776088E7 ; 2.0106713722936594E8 ; 2.7735634421583943E9 ; 2.928329077630358E10 ; 0.0
155 ; 1.7470869572206344E7 ; 2.0107168614424783E8 ; 2.79104489340817E9 ; 2.9484357913532948E10 ; 0.0
156 ; 1.7450155051675636E7 ; 2.0107622082480952E8 ; 2.8085157629803767E9 ; 2.9685429599677197E10 ; 0.0
157 ; 1.7433873631196335E7 ; 2.0108074117674604E8 ; 2.8259659180320525E9 ; 2.9886505820502007E10 ; 0.0
158 ; 1.7417611194103047E7 ; 2.0108524710623375E8 ; 2.843399791663249E9 ; 3.0087586561678753E10 ; 0.0
159 ; 1.740175242740845E7 ; 2.0108973851992506E8 ; 2.8608174028573523E9 ; 3.028867180878499E10 ; 0.0
160 ; 1.7384820647338055E7 ; 2.0109421532494405E8 ; 2.8782191552847605E9 ; 3.0489761547304913E10 ; 0.0
161 ; 1.7367774751280278E7 ; 2.0109867742888165E8 ; 2.8956039759320984E9 ; 3.0690855762629856E10 ; 0.0
162 ; 1.7350183643354416E7 ; 2.0110312473979148E8 ; 2.9129717506833787E9 ; 3.089195444005874E10 ; 0.0
163 ; 1.733479474033315E7 ; 2.0110755716618592E8 ; 2.930321934326733E9 ; 3.109305756479853E10 ; 0.0
164 ; 1.7315926160293788E7 ; 2.0111197461703196E8 ; 2.947656729067066E9 ; 3.1294165121964718E10 ; 0.0
165 ; 1.7297744283757485E7 ; 2.0111637700174797E8 ; 2.96497265522736E9 ; 3.149527709658175E10 ; 0.0
166 ; 1.7278523460203454E7 ; 2.011207642301999E8 ; 2.9822703995111175E9 ; 3.1696393473583496E10 ; 0.0
167 ; 1.726044491600638E7 ; 2.011251362126982E8 ; 2.999548922971321E9 ; 3.1897514237813698E10 ; 0.0
168 ; 1.72441864844138E7 ; 2.011294928599947E8 ; 3.0168093678873277E9 ; 3.2098639374026398E10 ; 0.0
169 ; 1.722696787058548E7 ; 2.011338340832798E8 ; 3.0340535543717413E9 ; 3.229976886688639E10 ; 0.0
170 ; 1.72072310177344E7 ; 2.011381597941794E8 ; 3.0512805222423267E9 ; 3.250090270096967E10 ; 0.0
171 ; 1.719011501883517E7 ; 2.011424699047528E8 ; 3.0684877532600613E9 ; 3.2702040860763847E10 ; 0.0
172 ; 1.7173947885102455E7 ; 2.011467643274897E8 ; 3.0856778682788963E9 ; 3.2903183330668602E10 ; 0.0
173 ; 1.7157145224061865E7 ; 2.0115104297530833E8 ; 3.1028518161639986E9 ; 3.310433009499609E10 ; 0.0
174 ; 1.714405685250988E7 ; 2.0115530576155308E8 ; 3.1200089613880606E9 ; 3.3305481137971397E10 ; 0.0
175 ; 1.713520465060476E7 ; 2.011595525999924E8 ; 3.1371530182405705E9 ; 3.3506636443732952E10 ; 0.0
176 ; 1.712317168936277E7 ; 2.0116378340481704E8 ; 3.1542882228911753E9 ; 3.3707795996332943E10 ; 0.0
177 ; 1.711322430131749E7 ; 2.0116799809063807E8 ; 3.1714113945805383E9 ; 3.390895977973776E10 ; 0.0
178 ; 1.7104276939193647E7 ; 2.0117219657248533E8 ; 3.188524618881856E9 ; 3.4110127777828396E10 ; 0.0
179 ; 1.709046847453415E7 ; 2.0117637876580575E8 ; 3.2056288958210497E9 ; 3.4311299974400883E10 ; 0.0
180 ; 1.7081973635820754E7 ; 2.0118054458646187E8 ; 3.2227193642955837E9 ; 3.451247635316669E10 ; 0.0
181 ; 1.7072101529744077E7 ; 2.0118469395073056E8 ; 3.2398013379314046E9 ; 3.471365689775315E10 ; 0.0
182 ; 1.7059443395075805E7 ; 2.0118882677530158E8 ; 3.2568734394611487E9 ; 3.491484159170388E10 ; 0.0
183 ; 1.7050328664311666E7 ; 2.0119294297727644E8 ; 3.2739328828562245E9 ; 3.511603041847918E10 ; 0.0
184 ; 1.70367394739218E7 ; 2.0119704247416735E8 ; 3.2909832115205364E9 ; 3.531722336145646E10 ; 0.0
185 ; 1.7025765664693806E7 ; 2.0120112518389606E8 ; 3.308019950994458E9 ; 3.5518420403930626E10 ; 0.0
186 ; 1.7016306648398023E7 ; 2.0120519102479306E8 ; 3.325045716659152E9 ; 3.5719621529114525E10 ; 0.0
187 ; 1.701002722085289E7 ; 2.0120923991559651E8 ; 3.34206202330755E9 ; 3.592082672013932E10 ; 0.0
188 ; 1.6997291485369734E7 ; 2.0121327177545163E8 ; 3.359072050528403E9 ; 3.612203596005492E10 ; 0.0
189 ; 1.6984911974151902E7 ; 2.0121728652390987E8 ; 3.3760693420137725E9 ; 3.632324923183037E10 ; 0.0
190 ; 1.697478677095129E7 ; 2.012212840809282E8 ; 3.3930542539879246E9 ; 3.652446651835428E10 ; 0.0
191 ; 1.6965030331833955E7 ; 2.0122526436686864E8 ; 3.410029040758876E9 ; 3.67256878024352E10 ; 0.0
192 ; 1.695585044174481E7 ; 2.0122922730249757E8 ; 3.4269940710907097E9 ; 3.692691306680207E10 ; 0.0
193 ; 1.6940870696061034E7 ; 2.012331728089853E8 ; 3.4439499215324545E9 ; 3.712814229410457E10 ; 0.0
194 ; 1.693347742388423E7 ; 2.0123710080790573E8 ; 3.4608907922285156E9 ; 3.732937546691355E10 ; 0.0
195 ; 1.6921016414105207E7 ; 2.012410112212358E8 ; 3.4778242696524E9 ; 3.753061256772146E10 ; 0.0
