CSV File for the City 6 on Day 184
1 - Minute m 
2 - Power Consumed at minute m 
3 - Power Produced at minute m 
4 - Energy Consumed since the beginning of the day 
5 - Energy Produced since the beginning of the day 
6 - Energy Lost since the beginning of the day on lines starting from the city
 
0 ; 2164417.911634574 ; 1.0593941533866617E8 ; 0.0 ; 0.0 ; 0.0
1 ; 2176524.6864576805 ; 1.0609016488007748E8 ; 2164417.911634574 ; 1.0593941533866617E8 ; 0.0
2 ; 2187451.2049693437 ; 1.0654991758555225E8 ; 4340942.598092254 ; 2.1202958021874365E8 ; 0.0
3 ; 2202077.6757874857 ; 1.0731867822768831E8 ; 6528393.803061598 ; 3.185794978042959E8 ; 0.0
4 ; 2219275.9869386638 ; 1.0839645110098624E8 ; 8730471.478849083 ; 4.258981760319842E8 ; 0.0
5 ; 2241424.1708883303 ; 1.0978323999225026E8 ; 1.0949747465787746E7 ; 5.3429462713297045E8 ; 0.0
6 ; 2268092.308748793 ; 1.1147904815385535E8 ; 1.3191171636676077E7 ; 6.440778671252208E8 ; 0.0
7 ; 2303292.1390244095 ; 1.1348387828031147E8 ; 1.545926394542487E7 ; 7.555569152790761E8 ; 0.0
8 ; 2354836.4996771407 ; 1.1579773248851252E8 ; 1.776255608444928E7 ; 8.690407935593876E8 ; 0.0
9 ; 2436119.404794134 ; 1.1842061230200517E8 ; 2.011739258412642E7 ; 9.848385260479001E8 ; 0.0
10 ; 2558674.8876421433 ; 1.2135251863955033E8 ; 2.2553511988920555E7 ; 1.1032591383499053E9 ; 0.0
11 ; 2753448.8266402134 ; 1.2459345180817804E8 ; 2.51121868765627E7 ; 1.2246116569894557E9 ; 0.0
12 ; 3071515.9845793387 ; 1.2814341150085822E8 ; 2.7865635703202914E7 ; 1.3492051087976336E9 ; 0.0
13 ; 3377182.9130407725 ; 1.3200239679882997E8 ; 3.0937151687782254E7 ; 1.477348520298492E9 ; 0.0
14 ; 3413180.3597201225 ; 1.3617040617854667E8 ; 3.431433460082303E7 ; 1.609350917097322E9 ; 0.0
15 ; 3430000.726103427 ; 1.4064743752311444E8 ; 3.7727514960543156E7 ; 1.7455213232758687E9 ; 0.0
16 ; 3443009.6983088707 ; 1.454334881380233E8 ; 4.115751568664658E7 ; 1.886168760798983E9 ; 0.0
17 ; 3461943.3268264565 ; 1.505285547708982E8 ; 4.460052538495545E7 ; 2.0316022489370065E9 ; 0.0
18 ; 3471827.0135932835 ; 1.5593263363493496E8 ; 4.8062468711781904E7 ; 2.182130803707905E9 ; 0.0
19 ; 3483360.53202154 ; 1.6164572043563303E8 ; 5.153429572537519E7 ; 2.3380634373428397E9 ; 0.0
20 ; 3497754.283029052 ; 1.6766781040039453E8 ; 5.501765625739673E7 ; 2.499709157778473E9 ; 0.0
21 ; 3514485.9053371963 ; 1.73998898310531E8 ; 5.851541054042578E7 ; 2.6673769681788673E9 ; 0.0
22 ; 3528342.885952773 ; 1.8063897853519934E8 ; 6.202989644576298E7 ; 2.8413758664893985E9 ; 0.0
23 ; 3546344.9069085307 ; 1.875880450667864E8 ; 6.555823933171575E7 ; 3.0220148450245976E9 ; 0.0
24 ; 3555300.773367252 ; 1.948460915572635E8 ; 6.910458423862427E7 ; 3.209602890091384E9 ; 0.0
25 ; 3575386.5131147397 ; 2.011011522532345E8 ; 7.265988501199153E7 ; 3.4044489816486473E9 ; 0.0
26 ; 3585198.400849912 ; 2.0110676806977057E8 ; 7.623527152510627E7 ; 3.6055501339018817E9 ; 0.0
27 ; 3603811.0389993903 ; 2.0111270115192187E8 ; 7.982046992595617E7 ; 3.806656901971652E9 ; 0.0
28 ; 3616992.1000825604 ; 2.0111894415740263E8 ; 8.342428096495557E7 ; 4.007769603123574E9 ; 0.0
29 ; 3629828.958617986 ; 2.01125489584729E8 ; 8.704127306503813E7 ; 4.2088885472809763E9 ; 0.0
30 ; 3646377.658151504 ; 2.0113232980681205E8 ; 9.067110202365611E7 ; 4.4100140368657055E9 ; 0.0
31 ; 3661542.806702735 ; 2.0113945710301682E8 ; 9.431747968180762E7 ; 4.611146366672518E9 ; 0.0
32 ; 3674025.0367557746 ; 2.0114686368949854E8 ; 9.797902248851036E7 ; 4.812285823775535E9 ; 0.0
33 ; 3684993.5194005165 ; 2.0115454174767068E8 ; 1.0165304752526613E8 ; 5.013432687465034E9 ; 0.0
34 ; 3702032.4179896954 ; 2.0116248345070097E8 ; 1.0533804104466665E8 ; 5.214587229212705E9 ; 0.0
35 ; 3705992.4966554972 ; 2.0117068098796967E8 ; 1.0904007346265635E8 ; 5.415749712663405E9 ; 0.0
36 ; 3730222.203651621 ; 2.0117912658745974E8 ; 1.1274606595931184E8 ; 5.616920393651375E9 ; 0.0
37 ; 3732961.0922594233 ; 2.0118781253607857E8 ; 1.1647628816296346E8 ; 5.818099520238834E9 ; 0.0
38 ; 3746145.657650055 ; 2.0119673119793832E8 ; 1.2020924925522289E8 ; 6.019287332774913E9 ; 0.0
39 ; 3760667.4726741025 ; 2.012058750306451E8 ; 1.2395539491287294E8 ; 6.220484063972851E9 ; 0.0
40 ; 3769602.5518736765 ; 2.0121523659966457E8 ; 1.2771606238554704E8 ; 6.421689939003496E9 ; 0.0
41 ; 3776534.846748604 ; 2.0122480859084865E8 ; 1.3148566493742073E8 ; 6.622905175603161E9 ; 0.0
42 ; 3788422.3160506194 ; 2.012345838212176E8 ; 1.3526219978416932E8 ; 6.82412998419401E9 ; 0.0
43 ; 3795957.9157587877 ; 2.0124455524810162E8 ; 1.3905062210021994E8 ; 7.025364568015227E9 ; 0.0
44 ; 3803874.6795190545 ; 2.012547159767507E8 ; 1.4284658001597872E8 ; 7.226609123263329E9 ; 0.0
45 ; 3812546.202348282 ; 2.0126505926652518E8 ; 1.4665045469549778E8 ; 7.427863839240079E9 ; 0.0
46 ; 3825437.898334186 ; 2.012755785357796E8 ; 1.5046300089784607E8 ; 7.629128898506604E9 ; 0.0
47 ; 3828710.303423429 ; 2.012862673655527E8 ; 1.5428843879618025E8 ; 7.830404477042384E9 ; 0.0
48 ; 3832325.1778259366 ; 2.0129711950217262E8 ; 1.5811714909960368E8 ; 8.031690744407937E9 ; 0.0
49 ; 3841345.4081513886 ; 2.0130812885888425E8 ; 1.619494742774296E8 ; 8.2329878639101095E9 ; 0.0
50 ; 3845674.48775511 ; 2.0131928951659995E8 ; 1.65790819685581E8 ; 8.434295992768993E9 ; 0.0
51 ; 3850950.283337202 ; 2.0133059572387072E8 ; 1.6963649417333612E8 ; 8.635615282285593E9 ; 0.0
52 ; 3858031.9736213298 ; 2.0134204189616868E8 ; 1.7348744445667332E8 ; 8.836945878009464E9 ; 0.0
53 ; 3861809.9820103114 ; 2.0135362261456576E8 ; 1.7734547643029466E8 ; 9.038287919905632E9 ; 0.0
54 ; 3865284.2835436217 ; 2.0136533262388802E8 ; 1.8120728641230497E8 ; 9.239641542520197E9 ; 0.0
55 ; 3871455.216762618 ; 2.0137716683041817E8 ; 1.8507257069584858E8 ; 9.441006875144085E9 ; 0.0
56 ; 3875900.359944781 ; 2.013891202992134E8 ; 1.8894402591261122E8 ; 9.642384041974503E9 ; 0.0
57 ; 3881139.699056083 ; 2.0140118825109935E8 ; 1.92819926272556E8 ; 9.843773162273716E9 ; 0.0
58 ; 3882463.8646547077 ; 2.0141336605939588E8 ; 1.967010659716121E8 ; 1.0045174350524815E10 ; 0.0
59 ; 3886077.167249161 ; 2.014256492464243E8 ; 2.0058352983626682E8 ; 1.0246587716584211E10 ; 0.0
60 ; 3894630.9313777788 ; 2.0143803347984123E8 ; 2.04469607003516E8 ; 1.0448013365830635E10 ; 0.0
61 ; 3896018.3008031617 ; 2.0145051456883904E8 ; 2.0836423793489376E8 ; 1.0649451399310476E10 ; 0.0
62 ; 3901847.4512242046 ; 2.014630884602484E8 ; 2.122602562356969E8 ; 1.0850901913879314E10 ; 0.0
63 ; 3902710.1071211467 ; 2.014757512345748E8 ; 2.1616210368692112E8 ; 1.1052365002339563E10 ; 0.0
64 ; 3907836.6419102633 ; 2.014884991019963E8 ; 2.2006481379404226E8 ; 1.1253840753574139E10 ; 0.0
65 ; 3913068.0832859394 ; 2.0150132839834732E8 ; 2.239726504359525E8 ; 1.1455329252676134E10 ; 0.0
66 ; 3913177.8698300146 ; 2.015142355811087E8 ; 2.2788571851923844E8 ; 1.1656830581074482E10 ; 0.0
67 ; 3918996.296319252 ; 2.0152721722542304E8 ; 2.3179889638906845E8 ; 1.185834481665559E10 ; 0.0
68 ; 3921936.305472854 ; 2.0154027002015015E8 ; 2.357178926853877E8 ; 1.2059872033881014E10 ; 0.0
69 ; 3927104.180654974 ; 2.0155339076397642E8 ; 2.3963982899086055E8 ; 1.2261412303901163E10 ; 0.0
70 ; 3930598.6688531204 ; 2.015665763615886E8 ; 2.4356693317151552E8 ; 1.246296569466514E10 ; 0.0
71 ; 3933077.9055778747 ; 2.0157982381992152E8 ; 2.4749753184036866E8 ; 1.266453227102673E10 ; 0.0
72 ; 3936339.3252397343 ; 2.015931302444875E8 ; 2.5143060974594653E8 ; 1.2866112094846651E10 ; 0.0
73 ; 3939777.86585871 ; 2.0160649283579284E8 ; 2.5536694907118627E8 ; 1.3067705225091139E10 ; 0.0
74 ; 3942544.3901489316 ; 2.0161990888584673E8 ; 2.5930672693704498E8 ; 1.3269311717926931E10 ; 0.0
75 ; 3944825.4170056623 ; 2.0163337577476603E8 ; 2.6324927132719392E8 ; 1.3470931626812778E10 ; 0.0
76 ; 3946139.485375896 ; 2.0164689096747798E8 ; 2.6719409674419957E8 ; 1.3672565002587545E10 ; 0.0
77 ; 3948183.830768155 ; 2.0166045201052356E8 ; 2.7114023622957546E8 ; 1.3874211893555023E10 ; 0.0
78 ; 3947812.9492214946 ; 2.0167405652896118E8 ; 2.750884200603436E8 ; 1.4075872345565546E10 ; 0.0
79 ; 3946668.746449818 ; 2.016877022233723E8 ; 2.790362330095651E8 ; 1.4277546402094507E10 ; 0.0
80 ; 3948524.7488288954 ; 2.0170138686696735E8 ; 2.8298290175601494E8 ; 1.4479234104317879E10 ; 0.0
81 ; 3946403.421416 ; 2.0171510830279237E8 ; 2.8693142650484383E8 ; 1.4680935491184847E10 ; 0.0
82 ; 3945842.793693954 ; 2.0172886444103447E8 ; 2.908778299262598E8 ; 1.4882650599487638E10 ; 0.0
83 ; 3943907.3813757785 ; 2.0174265325642475E8 ; 2.948236727199538E8 ; 1.5084379463928673E10 ; 0.0
84 ; 3939901.8046874255 ; 2.0175647278573722E8 ; 2.9876758010132957E8 ; 1.5286122117185097E10 ; 0.0
85 ; 3941459.354054791 ; 2.017703211253812E8 ; 3.02707481906017E8 ; 1.5487878589970835E10 ; 0.0
86 ; 3937965.6276350906 ; 2.017841964290853E8 ; 3.066489412600718E8 ; 1.5689648911096216E10 ; 0.0
87 ; 3939714.833291549 ; 2.017980969056708E8 ; 3.105869068877069E8 ; 1.5891433107525301E10 ; 0.0
88 ; 3935530.807067226 ; 2.0181202081691128E8 ; 3.145266217209984E8 ; 1.6093231204430971E10 ; 0.0
89 ; 3934737.1510780826 ; 2.018259664754771E8 ; 3.184621525280656E8 ; 1.6295043225247883E10 ; 0.0
90 ; 3931413.0271616066 ; 2.018399322429608E8 ; 3.223968896791437E8 ; 1.649686919172336E10 ; 0.0
91 ; 3928418.368409621 ; 2.018539165279821E8 ; 3.263283027063053E8 ; 1.669870912396632E10 ; 0.0
92 ; 3923103.3571300087 ; 2.0186791778436863E8 ; 3.3025672107471496E8 ; 1.6900563040494303E10 ; 0.0
93 ; 3923097.395176958 ; 2.0188193450941104E8 ; 3.3417982443184495E8 ; 1.7102430958278671E10 ; 0.0
94 ; 3923590.200846728 ; 2.0189596524218854E8 ; 3.381029218270219E8 ; 1.7304312892788082E10 ; 0.0
95 ; 3918716.2952677887 ; 2.0191000856196353E8 ; 3.420265120278686E8 ; 1.750620885803027E10 ; 0.0
96 ; 3913838.289916249 ; 2.019240630866418E8 ; 3.459452283231364E8 ; 1.770811886659223E10 ; 0.0
97 ; 3911566.9279162115 ; 2.019381274712964E8 ; 3.4985906661305267E8 ; 1.7910042929678875E10 ; 0.0
98 ; 3912331.4943668204 ; 2.0195220040675253E8 ; 3.537706335409689E8 ; 1.8111981057150173E10 ; 0.0
99 ; 3910918.066378201 ; 2.0196628061823082E8 ; 3.576829650353357E8 ; 1.8313933257556927E10 ; 0.0
100 ; 3908832.2544557326 ; 2.0198036686404738E8 ; 3.615938831017139E8 ; 1.8515899538175156E10 ; 0.0
101 ; 3901591.2927690377 ; 2.019944579343673E8 ; 3.6550271535616964E8 ; 1.8717879905039204E10 ; 0.0
102 ; 3901772.986980841 ; 2.020085526500106E8 ; 3.6940430664893866E8 ; 1.891987436297357E10 ; 0.0
103 ; 3892648.078086305 ; 2.0202264986130738E8 ; 3.733060796359195E8 ; 1.912188291562358E10 ; 0.0
104 ; 3894068.393907285 ; 2.0203674844700098E8 ; 3.771987277140058E8 ; 1.932390556548489E10 ; 0.0
105 ; 3890295.0583766727 ; 2.0205084731319672E8 ; 3.8109279610791314E8 ; 1.9525942313931892E10 ; 0.0
106 ; 3880581.5365824187 ; 2.020649453923543E8 ; 3.849830911662898E8 ; 1.972799316124509E10 ; 0.0
107 ; 3882067.0593959372 ; 2.0207904164232233E8 ; 3.888636727028722E8 ; 1.9930058106637444E10 ; 0.0
108 ; 3874630.2423951416 ; 2.0209313504541275E8 ; 3.927457397622681E8 ; 2.0132137148279766E10 ; 0.0
109 ; 3874025.5758934594 ; 2.0210722460751396E8 ; 3.966203700046633E8 ; 2.033423028332518E10 ; 0.0
110 ; 3868778.6222508056 ; 2.0212130935724056E8 ; 4.0049439558055675E8 ; 2.0536337507932693E10 ; 0.0
111 ; 3864981.306860883 ; 2.0213538834511825E8 ; 4.0436317420280755E8 ; 2.0738458817289932E10 ; 0.0
112 ; 3865497.520617504 ; 2.0214946064280272E8 ; 4.082281555096684E8 ; 2.094059420563505E10 ; 0.0
113 ; 3858737.8004800067 ; 2.021635253423305E8 ; 4.120936530302859E8 ; 2.1142743666277855E10 ; 0.0
114 ; 3851844.7262169737 ; 2.0217758155540076E8 ; 4.159523908307659E8 ; 2.1344907191620186E10 ; 0.0
115 ; 3848524.0551757948 ; 2.0219162841268674E8 ; 4.198042355569829E8 ; 2.1547084773175587E10 ; 0.0
116 ; 3845500.9845649437 ; 2.0220566506317526E8 ; 4.2365275961215866E8 ; 2.1749276401588272E10 ; 0.0
117 ; 3837999.038281712 ; 2.022196906735335E8 ; 4.274982605967236E8 ; 2.1951482066651447E10 ; 0.0
118 ; 3837998.801528999 ; 2.0223370442750126E8 ; 4.3133625963500535E8 ; 2.215370175732498E10 ; 0.0
119 ; 3832953.956087585 ; 2.0224770552530837E8 ; 4.3517425843653435E8 ; 2.2355935461752483E10 ; 0.0
120 ; 3827326.8652845863 ; 2.0226169318311548E8 ; 4.3900721239262193E8 ; 2.255818316727779E10 ; 0.0
121 ; 3821104.866138478 ; 2.0227566663247767E8 ; 4.428345392579065E8 ; 2.2760444860460907E10 ; 0.0
122 ; 3815945.5766520384 ; 2.0228962511982957E8 ; 4.4665564412404495E8 ; 2.2962720527093384E10 ; 0.0
123 ; 3812134.9796637143 ; 2.023035679059913E8 ; 4.50471589700697E8 ; 2.3165010152213215E10 ; 0.0
124 ; 3807669.7179163615 ; 2.0231749426569426E8 ; 4.5428372468036073E8 ; 2.3367313720119205E10 ; 0.0
125 ; 3799543.018248248 ; 2.0233140348712593E8 ; 4.580913943982771E8 ; 2.35696312143849E10 ; 0.0
126 ; 3798382.0648807557 ; 2.0234529487149262E8 ; 4.6189093741652536E8 ; 2.3771962617872025E10 ; 0.0
127 ; 3790452.0475212755 ; 2.0235916773259988E8 ; 4.656893194814061E8 ; 2.397430791274352E10 ; 0.0
128 ; 3785963.6976531916 ; 2.0237302139644927E8 ; 4.694797715289274E8 ; 2.417666708047612E10 ; 0.0
129 ; 3781830.732023467 ; 2.0238685520085144E8 ; 4.7326573522658056E8 ; 2.437904010187257E10 ; 0.0
130 ; 3774619.5242130095 ; 2.02400668495054E8 ; 4.7704756595860404E8 ; 2.458142695707342E10 ; 0.0
131 ; 3763806.9346327195 ; 2.0241446063938427E8 ; 4.8082218548281705E8 ; 2.4783827625568474E10 ; 0.0
132 ; 3756857.6588281975 ; 2.0242823100490603E8 ; 4.845859924174498E8 ; 2.498624208620786E10 ; 0.0
133 ; 3745942.901962242 ; 2.0244197897308937E8 ; 4.88342850076278E8 ; 2.5188670317212765E10 ; 0.0
134 ; 3734020.3938941457 ; 2.0245570393549368E8 ; 4.920887929782402E8 ; 2.5391112296185856E10 ; 0.0
135 ; 3726667.1408379003 ; 2.0246940529346278E8 ; 4.958228133721343E8 ; 2.559356800012135E10 ; 0.0
136 ; 3718990.3379322956 ; 2.0248308245783177E8 ; 4.9954948051297224E8 ; 2.5796037405414814E10 ; 0.0
137 ; 3705066.261341734 ; 2.0249673484864506E8 ; 5.032684708509045E8 ; 2.5998520487872646E10 ; 0.0
138 ; 3692527.4291004958 ; 2.0251036189488554E8 ; 5.069735371122463E8 ; 2.620101722272129E10 ; 0.0
139 ; 3683410.258163415 ; 2.0252396303421366E8 ; 5.106660645413468E8 ; 2.6403527584616177E10 ; 0.0
140 ; 3674126.6503086374 ; 2.0253753771271676E8 ; 5.143494747995102E8 ; 2.660605154765039E10 ; 0.0
141 ; 3666353.8362250957 ; 2.025510853846677E8 ; 5.180236014498188E8 ; 2.6808589085363106E10 ; 0.0
142 ; 3655952.3476414317 ; 2.025646055122926E8 ; 5.216899552860439E8 ; 2.7011140170747772E10 ; 0.0
143 ; 3644468.83805978 ; 2.0257809756554753E8 ; 5.253459076336853E8 ; 2.7213704776260063E10 ; 0.0
144 ; 3634282.801786703 ; 2.0259156102190334E8 ; 5.289903764717451E8 ; 2.741628287382561E10 ; 0.0
145 ; 3629116.464827618 ; 2.0260499536613852E8 ; 5.326246592735318E8 ; 2.7618874434847515E10 ; 0.0
146 ; 3623193.3738065967 ; 2.0261840009014004E8 ; 5.362537757383594E8 ; 2.7821479430213654E10 ; 0.0
147 ; 3618906.5080570076 ; 2.0263177469271117E8 ; 5.39876969112166E8 ; 2.8024097830303795E10 ; 0.0
148 ; 3612538.9956034394 ; 2.0264511867938676E8 ; 5.43495875620223E8 ; 2.8226729604996506E10 ; 0.0
149 ; 3604888.8126963647 ; 2.0265843156225514E8 ; 5.471084146158265E8 ; 2.842937472367589E10 ; 0.0
150 ; 3597078.2103697895 ; 2.0267171285978654E8 ; 5.507133034285228E8 ; 2.8632033155238148E10 ; 0.0
151 ; 3592736.173172129 ; 2.026849620966679E8 ; 5.543103816388927E8 ; 2.8834704868097935E10 ; 0.0
152 ; 3585177.466118536 ; 2.0269817880364347E8 ; 5.579031178120648E8 ; 2.9037389830194603E10 ; 0.0
153 ; 3584492.783494661 ; 2.0271136251736155E8 ; 5.614882952781833E8 ; 2.9240088008998245E10 ; 0.0
154 ; 3580644.3801638125 ; 2.0272451278022644E8 ; 5.65072788061678E8 ; 2.9442799371515606E10 ; 0.0
155 ; 3571491.4388156235 ; 2.027376291402559E8 ; 5.686534324418418E8 ; 2.9645523884295834E10 ; 0.0
156 ; 3563057.215486504 ; 2.027507111509436E8 ; 5.722249238806574E8 ; 2.984826151343609E10 ; 0.0
157 ; 3559132.740881536 ; 2.027637583711267E8 ; 5.75787981096144E8 ; 3.0051012224587032E10 ; 0.0
158 ; 3550976.8565880726 ; 2.02776770364858E8 ; 5.793471138370255E8 ; 3.025377598295816E10 ; 0.0
159 ; 3543826.8961021616 ; 2.027897467012825E8 ; 5.828980906936136E8 ; 3.0456552753323017E10 ; 0.0
160 ; 3541266.284815804 ; 2.0280268695451874E8 ; 5.864419175897158E8 ; 3.06593425000243E10 ; 0.0
161 ; 3532285.799376501 ; 2.0281559070354396E8 ; 5.899831838745316E8 ; 3.0862145186978817E10 ; 0.0
162 ; 3529007.172244974 ; 2.0282845753208348E8 ; 5.935154696739081E8 ; 3.106496077768236E10 ; 0.0
163 ; 3524139.166367378 ; 2.0284128702850375E8 ; 5.970444768461531E8 ; 3.1267789235214443E10 ; 0.0
164 ; 3517016.827381975 ; 2.028540787857096E8 ; 6.005686160125206E8 ; 3.1470630522242947E10 ; 0.0
165 ; 3509063.355579063 ; 2.028668324010444E8 ; 6.040856328399025E8 ; 3.1673484601028656E10 ; 0.0
166 ; 3505330.7720953524 ; 2.0287954747619444E8 ; 6.075946961954815E8 ; 3.18763514334297E10 ; 0.0
167 ; 3496085.523160381 ; 2.0289222361709592E8 ; 6.111000269675769E8 ; 3.2079230980905895E10 ; 0.0
168 ; 3488884.703720347 ; 2.0290486043384567E8 ; 6.145961124907372E8 ; 3.228212320452299E10 ; 0.0
169 ; 3489411.8926199754 ; 2.0291745754061463E8 ; 6.180849971944575E8 ; 3.2485028064956837E10 ; 0.0
170 ; 3476146.337607559 ; 2.0293001455556452E8 ; 6.215744090870775E8 ; 3.268794552249745E10 ; 0.0
171 ; 3475999.1597356373 ; 2.0294253110076717E8 ; 6.25050555424685E8 ; 3.2890875537053017E10 ; 0.0
172 ; 3468677.5417515724 ; 2.0295500680212665E8 ; 6.285265545844207E8 ; 3.3093818068153786E10 ; 0.0
173 ; 3462317.5462004747 ; 2.0296744128930426E8 ; 6.319952321261723E8 ; 3.3296773074955914E10 ; 0.0
174 ; 3455192.9864313933 ; 2.0297983419564563E8 ; 6.354575496723728E8 ; 3.3499740516245216E10 ; 0.0
175 ; 3453050.518380407 ; 2.029921851581108E8 ; 6.389127426588042E8 ; 3.370272035044086E10 ; 0.0
176 ; 3445692.687285599 ; 2.030044938172062E8 ; 6.423657931771846E8 ; 3.3905712535598972E10 ; 0.0
177 ; 3442584.502200723 ; 2.030167598169193E8 ; 6.458114858644701E8 ; 3.410871702941618E10 ; 0.0
178 ; 3440712.6020455803 ; 2.0302898280465508E8 ; 6.492540703666708E8 ; 3.4311733789233097E10 ; 0.0
179 ; 3431059.6688912017 ; 2.030411624311749E8 ; 6.526947829687164E8 ; 3.451476277203775E10 ; 0.0
180 ; 3430390.190481968 ; 2.0305329835053742E8 ; 6.561258426376076E8 ; 3.4717803934468925E10 ; 0.0
181 ; 3424802.0914378827 ; 2.0306539022004122E8 ; 6.595562328280896E8 ; 3.4920857232819466E10 ; 0.0
182 ; 3419718.7836322165 ; 2.0307743770016956E8 ; 6.629810349195275E8 ; 3.5123922623039505E10 ; 0.0
183 ; 3414745.3130023843 ; 2.03089440454537E8 ; 6.664007537031597E8 ; 3.532700006073968E10 ; 0.0
184 ; 3411640.3577787164 ; 2.0310139814983755E8 ; 6.69815499016162E8 ; 3.5530089501194214E10 ; 0.0
185 ; 3405025.5828605876 ; 2.0311331045579472E8 ; 6.732271393739407E8 ; 3.5733190899344055E10 ; 0.0
186 ; 3400572.3801211705 ; 2.0312517704511315E8 ; 6.766321649568013E8 ; 3.593630420979985E10 ; 0.0
187 ; 3397347.773618476 ; 2.0313699759343183E8 ; 6.800327373369224E8 ; 3.613942938684496E10 ; 0.0
188 ; 3391551.9302803683 ; 2.0314877177927893E8 ; 6.834300851105409E8 ; 3.634256638443839E10 ; 0.0
189 ; 3387664.625493522 ; 2.0316049928402787E8 ; 6.868216370408212E8 ; 3.6545715156217674E10 ; 0.0
190 ; 3384982.4436340528 ; 2.0317217979185516E8 ; 6.902093016663147E8 ; 3.67488756555017E10 ; 0.0
191 ; 3380141.772496924 ; 2.0318381298969927E8 ; 6.935942841099488E8 ; 3.695204783529356E10 ; 0.0
192 ; 3377001.153199319 ; 2.0319539856722113E8 ; 6.969744258824457E8 ; 3.715523164828326E10 ; 0.0
193 ; 3370935.948646376 ; 2.032069362167657E8 ; 7.00351427035645E8 ; 3.735842704685048E10 ; 0.0
194 ; 3368258.882279095 ; 2.0321842563332492E8 ; 7.037223629842914E8 ; 3.7561633983067245E10 ; 0.0
195 ; 3360644.7484923247 ; 2.032298665145017E8 ; 7.070906218665705E8 ; 3.776485240870057E10 ; 0.0
196 ; 3354811.635095143 ; 2.0324125856047523E8 ; 7.104512666150628E8 ; 3.796808227521507E10 ; 0.0
197 ; 3350459.437146241 ; 2.032526014739674E8 ; 7.13806078250158E8 ; 3.817132353377555E10 ; 0.0
198 ; 3351011.0899361297 ; 2.032638949602101E8 ; 7.171565376873041E8 ; 3.837457613524952E10 ; 0.0
199 ; 3345767.123453614 ; 2.0327513872691387E8 ; 7.205075487772403E8 ; 3.857784003020973E10 ; 0.0
200 ; 3339583.906490391 ; 1.9797582110085034E8 ; 7.238533159006939E8 ; 3.8781115168936646E10 ; 0.0
