CSV File for the City 4 on Day 184
1 - Minute m 
2 - Power Consumed at minute m 
3 - Power Produced at minute m 
4 - Energy Consumed since the beginning of the day 
5 - Energy Produced since the beginning of the day 
6 - Energy Lost since the beginning of the day on lines starting from the city
 
0 ; 1324621.8463934674 ; 1.0601722269074622E8 ; 0.0 ; 0.0 ; 0.0
1 ; 1335618.9161725796 ; 1.0616761508753318E8 ; 1324621.8463934674 ; 1.0601722269074622E8 ; 0.0
2 ; 1341513.106414309 ; 1.0662704676725915E8 ; 2660240.762566047 ; 2.121848377782794E8 ; 0.0
3 ; 1351150.24970133 ; 1.0739552297978163E8 ; 4001753.8689803556 ; 3.1881188454553854E8 ; 0.0
4 ; 1357844.080883469 ; 1.0847304844905138E8 ; 5352904.118681686 ; 4.262074075253202E8 ; 0.0
5 ; 1369606.3062663737 ; 1.0985962734055287E8 ; 6710748.199565155 ; 5.3468045597437155E8 ; 0.0
6 ; 1387358.580457084 ; 1.115552632318987E8 ; 8080354.505831529 ; 6.445400833149245E8 ; 0.0
7 ; 1410566.8443810798 ; 1.1355995908704984E8 ; 9467713.086288614 ; 7.560953465468231E8 ; 0.0
8 ; 1444964.2060371393 ; 1.1587371723458952E8 ; 1.0878279930669693E7 ; 8.69655305633873E8 ; 0.0
9 ; 1494871.2386037975 ; 1.1849653935041904E8 ; 1.2323244136706833E7 ; 9.855290228684626E8 ; 0.0
10 ; 1572325.72904007 ; 1.2142842644517559E8 ; 1.381811537531063E7 ; 1.1040255622188816E9 ; 0.0
11 ; 1696016.6817464049 ; 1.2466937885659191E8 ; 1.53904411043507E7 ; 1.2254539886640573E9 ; 0.0
12 ; 1890587.708363362 ; 1.2821939624693522E8 ; 1.7086457786097106E7 ; 1.3501233675206492E9 ; 0.0
13 ; 2085275.2790818387 ; 1.3207847760556835E8 ; 1.8977045494460467E7 ; 1.4783427637675843E9 ; 0.0
14 ; 2105942.0215884326 ; 1.3624662125659007E8 ; 2.1062320773542307E7 ; 1.6104212413731527E9 ; 0.0
15 ; 2113784.923138583 ; 1.4072382487141705E8 ; 2.316826279513074E7 ; 1.7466678626297429E9 ; 0.0
16 ; 2121475.73092403 ; 1.4551008548608842E8 ; 2.5282047718269326E7 ; 1.88739168750116E9 ; 0.0
17 ; 2131500.6214537877 ; 1.506053995229915E8 ; 2.7403523449193355E7 ; 2.0329017729872484E9 ; 0.0
18 ; 2140937.739806708 ; 1.5600976281664187E8 ; 2.9535024070647143E7 ; 2.18350717251024E9 ; 0.0
19 ; 2147511.054515155 ; 1.6172317064308873E8 ; 3.167596181045385E7 ; 2.339516935326882E9 ; 0.0
20 ; 2160446.2937537627 ; 1.6774561775247458E8 ; 3.382347286496901E7 ; 2.5012401059699707E9 ; 0.0
21 ; 2169324.6096188393 ; 1.7407709840424195E8 ; 3.598391915872277E7 ; 2.6689857237224455E9 ; 0.0
22 ; 2175571.5188862365 ; 1.8071760640446353E8 ; 3.8153243768341616E7 ; 2.8430628221266875E9 ; 0.0
23 ; 2186606.717383173 ; 1.876671351447649E8 ; 4.0328815287227854E7 ; 3.023780428531151E9 ; 0.0
24 ; 2194284.815767539 ; 1.949256776423143E8 ; 4.251542200461103E7 ; 3.2114475636759157E9 ; 0.0
25 ; 2201551.6024882947 ; 2.0118126747855794E8 ; 4.470970682037857E7 ; 3.40637324131823E9 ; 0.0
26 ; 2212846.507631958 ; 2.0118744487674764E8 ; 4.6911258422866866E7 ; 3.607554508796788E9 ; 0.0
27 ; 2219454.113465352 ; 2.0119397126711404E8 ; 4.912410493049882E7 ; 3.808741953673536E9 ; 0.0
28 ; 2231596.641997718 ; 2.012008385731429E8 ; 5.134355904396418E7 ; 4.00993592494065E9 ; 0.0
29 ; 2238318.9038891136 ; 2.012080385432019E8 ; 5.3575155685961895E7 ; 4.211136763513793E9 ; 0.0
30 ; 2248497.800182773 ; 2.0121556278749326E8 ; 5.581347458985101E7 ; 4.412344802056994E9 ; 0.0
31 ; 2255779.856943741 ; 2.012234028133185E8 ; 5.806197239003378E7 ; 4.613560364844488E9 ; 0.0
32 ; 2265591.313427696 ; 2.012315500584484E8 ; 6.031775224697752E7 ; 4.814783767657806E9 ; 0.0
33 ; 2272627.173451479 ; 2.0123999592243776E8 ; 6.258334356040522E7 ; 5.016015317716255E9 ; 0.0
34 ; 2280755.1825595624 ; 2.0124873179577106E8 ; 6.485597073385669E7 ; 5.217255313638693E9 ; 0.0
35 ; 2289211.0150518473 ; 2.0125774908676663E8 ; 6.713672591641626E7 ; 5.4185040454344635E9 ; 0.0
36 ; 2296686.5439321515 ; 2.0126703924620572E8 ; 6.94259369314681E7 ; 5.61976179452123E9 ; 0.0
37 ; 2300678.534018357 ; 2.012765937896864E8 ; 7.172262347540025E7 ; 5.821028833767435E9 ; 0.0
38 ; 2310245.4953484987 ; 2.0128640431773216E8 ; 7.40233020094186E7 ; 6.022305427557121E9 ; 0.0
39 ; 2316634.5634400514 ; 2.0129646253370962E8 ; 7.63335475047671E7 ; 6.223591831874853E9 ; 0.0
40 ; 2322675.768971698 ; 2.0130676025963104E8 ; 7.865018206820716E7 ; 6.424888294408563E9 ; 0.0
41 ; 2329057.719983659 ; 2.0131728944993353E8 ; 8.097285783717886E7 ; 6.626195054668194E9 ; 0.0
42 ; 2331819.8988527544 ; 2.0132804220333937E8 ; 8.330191555716251E7 ; 6.827512344118128E9 ; 0.0
43 ; 2340286.212355359 ; 2.013390107729118E8 ; 8.563373545601526E7 ; 7.028840386321467E9 ; 0.0
44 ; 2346419.4644312905 ; 2.013501875744258E8 ; 8.797402166837062E7 ; 7.230179397094379E9 ; 0.0
45 ; 2351157.786519666 ; 2.013615651931777E8 ; 9.03204411328019E7 ; 7.431529584668805E9 ; 0.0
46 ; 2355061.4656265425 ; 2.0137313638935757E8 ; 9.267159891932157E7 ; 7.632891149861982E9 ; 0.0
47 ; 2361283.0050257337 ; 2.0138489410210797E8 ; 9.50266603849481E7 ; 7.83426428625134E9 ; 0.0
48 ; 2363298.1976094795 ; 2.013968314523899E8 ; 9.738794338997383E7 ; 8.035649180353448E9 ; 0.0
49 ; 2366707.979836994 ; 2.0140894174477267E8 ; 9.975124158758332E7 ; 8.237046011805838E9 ; 0.0
50 ; 2370944.9140030947 ; 2.0142121846825993E8 ; 1.0211794956742032E8 ; 8.438454953550611E9 ; 0.0
51 ; 2374138.921693764 ; 2.014336552962578E8 ; 1.0448889448142341E8 ; 8.639876172018871E9 ; 0.0
52 ; 2379287.322424758 ; 2.0144624608578554E8 ; 1.0686303340311716E8 ; 8.841309827315128E9 ; 0.0
53 ; 2377547.418451278 ; 2.0145898487602234E8 ; 1.0924232072554192E8 ; 9.042756073400913E9 ; 0.0
54 ; 2381287.592703869 ; 2.014718658862768E8 ; 1.116198681439932E8 ; 9.244215058276936E9 ; 0.0
55 ; 2382752.4390321034 ; 2.0148488351346E8 ; 1.1400115573669706E8 ; 9.445686924163212E9 ; 0.0
56 ; 2388409.02224394 ; 2.0149803232913473E8 ; 1.1638390817572917E8 ; 9.647171807676672E9 ; 0.0
57 ; 2388646.2462952486 ; 2.0151130707620928E8 ; 1.1877231719797312E8 ; 9.848669840005806E9 ; 0.0
58 ; 2393540.6794831827 ; 2.0152470266533545E8 ; 1.2116096344426836E8 ; 1.0050181147082016E10 ; 0.0
59 ; 2397791.2658391576 ; 2.015382141710667E8 ; 1.2355450412375155E8 ; 1.025170584974735E10 ; 0.0
60 ; 2398034.5178531706 ; 2.0155183682782537E8 ; 1.2595229538959071E8 ; 1.0453244063918417E10 ; 0.0
61 ; 2401414.4848001753 ; 2.0156556602572295E8 ; 1.2835032990744388E8 ; 1.0654795900746243E10 ; 0.0
62 ; 2404526.297941913 ; 2.0157939730627325E8 ; 1.3075174439224406E8 ; 1.0856361466771965E10 ; 0.0
63 ; 2404557.141392828 ; 2.0159332635803226E8 ; 1.3315627069018596E8 ; 1.1057940864078238E10 ; 0.0
64 ; 2408016.782840057 ; 2.0160734901219594E8 ; 1.355608278315788E8 ; 1.125953419043627E10 ; 0.0
65 ; 2409534.6491373214 ; 2.0162146123818204E8 ; 1.3796884461441883E8 ; 1.1461141539448465E10 ; 0.0
66 ; 2415210.604406044 ; 2.0163565913921958E8 ; 1.4037837926355615E8 ; 1.1662763000686647E10 ; 0.0
67 ; 2414038.4484478207 ; 2.0164993894796532E8 ; 1.4279358986796218E8 ; 1.1864398659825867E10 ; 0.0
68 ; 2414097.276300725 ; 2.0166429702216518E8 ; 1.4520762831641E8 ; 1.2066048598773832E10 ; 0.0
69 ; 2419108.2022240534 ; 2.0167872984037408E8 ; 1.4762172559271073E8 ; 1.2267712895795998E10 ; 0.0
70 ; 2422314.8236668496 ; 2.0169323399774745E8 ; 1.5004083379493478E8 ; 1.2469391625636372E10 ; 0.0
71 ; 2422693.468664168 ; 2.0170780620191368E8 ; 1.5246314861860162E8 ; 1.2671084859634119E10 ; 0.0
72 ; 2425568.7092236117 ; 2.0172244326893625E8 ; 1.548858420872658E8 ; 1.2872792665836033E10 ; 0.0
73 ; 2427333.249791694 ; 2.0173714211937213E8 ; 1.573114107964894E8 ; 1.3074515109104969E10 ; 0.0
74 ; 2427537.921596827 ; 2.0175189977443144E8 ; 1.5973874404628107E8 ; 1.327625225122434E10 ; 0.0
75 ; 2430656.6236334 ; 2.0176671335224262E8 ; 1.621662819678779E8 ; 1.3478004150998772E10 ; 0.0
76 ; 2432665.552463627 ; 2.017815800642258E8 ; 1.645969385915113E8 ; 1.3679770864351015E10 ; 0.0
77 ; 2435141.5949862404 ; 2.017964972115759E8 ; 1.6702960414397493E8 ; 1.3881552444415241E10 ; 0.0
78 ; 2434889.695303589 ; 2.0181146218185732E8 ; 1.6946474573896116E8 ; 1.4083348941626818E10 ; 0.0
79 ; 2430194.3339806264 ; 2.0182647244570953E8 ; 1.7189963543426475E8 ; 1.4285160403808676E10 ; 0.0
80 ; 2434326.3345726514 ; 2.018415255536641E8 ; 1.7432982976824537E8 ; 1.4486986876254385E10 ; 0.0
81 ; 2430579.6780685796 ; 2.0185661913307163E8 ; 1.76764156102818E8 ; 1.4688828401808048E10 ; 0.0
82 ; 2432116.8451349214 ; 2.0187175088513792E8 ; 1.791947357808866E8 ; 1.489068502094112E10 ; 0.0
83 ; 2428369.162742867 ; 2.0188691858206722E8 ; 1.816268526260215E8 ; 1.5092556771826258E10 ; 0.0
84 ; 2429460.0587520683 ; 2.0190212006431097E8 ; 1.8405522178876436E8 ; 1.5294443690408325E10 ; 0.0
85 ; 2428983.4562103115 ; 2.0191735323791933E8 ; 1.8648468184751642E8 ; 1.5496345810472635E10 ; 0.0
86 ; 2426292.373542917 ; 2.0193261607199386E8 ; 1.8891366530372673E8 ; 1.5698263163710554E10 ; 0.0
87 ; 2425874.9384697196 ; 2.0194790659623787E8 ; 1.9133995767726964E8 ; 1.5900195779782549E10 ; 0.0
88 ; 2421536.348871367 ; 2.019632228986024E8 ; 1.9376583261573935E8 ; 1.6102143686378786E10 ; 0.0
89 ; 2420053.811203806 ; 2.019785631230248E8 ; 1.9618736896461073E8 ; 1.6304106909277388E10 ; 0.0
90 ; 2421609.435723112 ; 2.019939254672569E8 ; 1.9860742277581453E8 ; 1.6506085472400412E10 ; 0.0
91 ; 2421161.585825802 ; 2.020093081807803E8 ; 2.0102903221153766E8 ; 1.6708079397867668E10 ; 0.0
92 ; 2420565.216580722 ; 2.020247095628055E8 ; 2.0345019379736346E8 ; 1.6910088706048449E10 ; 0.0
93 ; 2417434.602783613 ; 2.0204012796035212E8 ; 2.0587075901394418E8 ; 1.7112113415611254E10 ; 0.0
94 ; 2415591.550425282 ; 2.0205556176640737E8 ; 2.082881936167278E8 ; 1.7314153543571606E10 ; 0.0
95 ; 2414508.4225569703 ; 2.0207100941815987E8 ; 2.107037851671531E8 ; 1.7516209105338013E10 ; 0.0
96 ; 2413994.621996137 ; 2.0208646939530596E8 ; 2.1311829358971006E8 ; 1.7718280114756172E10 ; 0.0
97 ; 2410681.0154286423 ; 2.0210194021842605E8 ; 2.155322882117062E8 ; 1.7920366584151478E10 ; 0.0
98 ; 2408532.8584186337 ; 2.0211742044742775E8 ; 2.1794296922713482E8 ; 1.8122468524369904E10 ; 0.0
99 ; 2408751.7129434682 ; 2.0213290868005392E8 ; 2.2035150208555347E8 ; 1.832458594481733E10 ; 0.0
100 ; 2404174.2821236625 ; 2.021484035504521E8 ; 2.2276025379849693E8 ; 1.8526718853497383E10 ; 0.0
101 ; 2404080.383372945 ; 2.0216390372780403E8 ; 2.251644280806206E8 ; 1.8728867257047836E10 ; 0.0
102 ; 2401516.899756137 ; 2.0217940791501164E8 ; 2.2756850846399352E8 ; 1.893103116077564E10 ; 0.0
103 ; 2400876.2990241083 ; 2.0219491484743813E8 ; 2.2997002536374965E8 ; 1.913321056869065E10 ; 0.0
104 ; 2397696.4630456474 ; 2.0221042329170108E8 ; 2.3237090166277376E8 ; 1.933540548353809E10 ; 0.0
105 ; 2395288.2004847084 ; 2.0222593204451638E8 ; 2.347685981258194E8 ; 1.9537615906829792E10 ; 0.0
106 ; 2393946.1583062112 ; 2.0224143993158975E8 ; 2.3716388632630414E8 ; 1.973984183887431E10 ; 0.0
107 ; 2387942.1616971013 ; 2.0225694580655456E8 ; 2.3955783248461035E8 ; 1.99420832788059E10 ; 0.0
108 ; 2390008.770750248 ; 2.0227244854995403E8 ; 2.4194577464630744E8 ; 2.0144340224612453E10 ; 0.0
109 ; 2386179.5628533554 ; 2.0228794706826538E8 ; 2.443357834170577E8 ; 2.0346612673162407E10 ; 0.0
110 ; 2384549.408895458 ; 2.023034402929646E8 ; 2.4672196297991106E8 ; 2.054890062023067E10 ; 0.0
111 ; 2381063.7959204023 ; 2.0231892717963007E8 ; 2.4910651238880652E8 ; 2.0751204060523636E10 ; 0.0
112 ; 2378058.2411212074 ; 2.02334406707083E8 ; 2.5148757618472692E8 ; 2.0953522987703266E10 ; 0.0
113 ; 2378173.815301767 ; 2.0234987787656355E8 ; 2.5386563442584813E8 ; 2.115585739441035E10 ; 0.0
114 ; 2373446.6781072533 ; 2.0236533971094084E8 ; 2.562438082411499E8 ; 2.1358207272286915E10 ; 0.0
115 ; 2371722.3152177064 ; 2.023807912539554E8 ; 2.5861725491925716E8 ; 2.1560572611997856E10 ; 0.0
116 ; 2371437.3049820527 ; 2.0239623156949282E8 ; 2.6098897723447487E8 ; 2.1762953403251812E10 ; 0.0
117 ; 2366582.7090731603 ; 2.0241165974088687E8 ; 2.6336041453945693E8 ; 2.1965349634821304E10 ; 0.0
118 ; 2363727.4143547886 ; 2.024270748702514E8 ; 2.657269972485301E8 ; 2.216776129456219E10 ; 0.0
119 ; 2361738.2311288505 ; 2.024424760778392E8 ; 2.680907246628849E8 ; 2.237018836943244E10 ; 0.0
120 ; 2358509.4919441054 ; 2.0245786250142705E8 ; 2.7045246289401376E8 ; 2.257263084551028E10 ; 0.0
121 ; 2354188.9072460644 ; 2.0247323329572544E8 ; 2.728109723859579E8 ; 2.2775088708011707E10 ; 0.0
122 ; 2352048.243984687 ; 2.024885876318125E8 ; 2.7516516129320395E8 ; 2.2977561941307434E10 ; 0.0
123 ; 2349676.8858579895 ; 2.025039246965904E8 ; 2.7751720953718865E8 ; 2.3180050528939247E10 ; 0.0
124 ; 2346125.0115164043 ; 2.025192436922637E8 ; 2.7986688642304665E8 ; 2.3382554453635838E10 ; 0.0
125 ; 2341649.205874653 ; 2.0253454383583853E8 ; 2.8221301143456304E8 ; 2.3585073697328102E10 ; 0.0
126 ; 2340282.468438548 ; 2.025498243586419E8 ; 2.845546606404377E8 ; 2.378760824116394E10 ; 0.0
127 ; 2335588.546173116 ; 2.0256508450585985E8 ; 2.868949431088763E8 ; 2.3990158065522583E10 ; 0.0
128 ; 2332672.6365475436 ; 2.0258032353609422E8 ; 2.892305316550494E8 ; 2.4192723150028442E10 ; 0.0
129 ; 2329609.3706166684 ; 2.025955407209366E8 ; 2.9156320429159695E8 ; 2.4395303473564537E10 ; 0.0
130 ; 2323610.1010659947 ; 2.026107353445594E8 ; 2.938928136622136E8 ; 2.4597899014285473E10 ; 0.0
131 ; 2318292.771023938 ; 2.026259067033227E8 ; 2.962164237632796E8 ; 2.480050974963003E10 ; 0.0
132 ; 2310901.8779512867 ; 2.0264105410539663E8 ; 2.9853471653430355E8 ; 2.5003135656333355E10 ; 0.0
133 ; 2307259.018821222 ; 2.0265617687039828E8 ; 3.008456184122548E8 ; 2.520577671043875E10 ; 0.0
134 ; 2301834.8745557955 ; 2.0267127432904306E8 ; 3.0315287743107605E8 ; 2.540843288730915E10 ; 0.0
135 ; 2296006.551529593 ; 2.0268634582280907E8 ; 3.054547123056318E8 ; 2.5611104161638195E10 ; 0.0
136 ; 2290210.5784820495 ; 2.0270139070361495E8 ; 3.077507188571614E8 ; 2.5813790507461002E10 ; 0.0
137 ; 2279577.3672625306 ; 2.0271640833350956E8 ; 3.1004092943564343E8 ; 2.6016491898164616E10 ; 0.0
138 ; 2276796.294287169 ; 2.027313980843741E8 ; 3.12320506802906E8 ; 2.6219208306498127E10 ; 0.0
139 ; 2271693.6122708633 ; 2.0274635933763504E8 ; 3.145973030971931E8 ; 2.64219397045825E10 ; 0.0
140 ; 2264176.1936976397 ; 2.0276129148398843E8 ; 3.16868996709464E8 ; 2.6624686063920135E10 ; 0.0
141 ; 2258930.051672458 ; 2.0277619392313445E8 ; 3.1913317290316164E8 ; 2.6827447355404125E10 ; 0.0
142 ; 2252672.445811119 ; 2.0279106606352186E8 ; 3.213921029548341E8 ; 2.703022354932726E10 ; 0.0
143 ; 2243935.1512124124 ; 2.0280590732210228E8 ; 3.236447754006452E8 ; 2.723301461539078E10 ; 0.0
144 ; 2236606.1627943814 ; 2.0282071712409365E8 ; 3.258887105518576E8 ; 2.7435820522712883E10 ; 0.0
145 ; 2232943.1999525633 ; 2.0283549490275237E8 ; 3.2812531671465194E8 ; 2.7638641239836975E10 ; 0.0
146 ; 2230416.802497818 ; 2.0285024009915403E8 ; 3.303582599146045E8 ; 2.7841476734739727E10 ; 0.0
147 ; 2230173.1119727297 ; 2.0286495216198227E8 ; 3.325886767171023E8 ; 2.8044326974838882E10 ; 0.0
148 ; 2223684.6063961335 ; 2.0287963054732543E8 ; 3.3481884982907504E8 ; 2.8247191927000866E10 ; 0.0
149 ; 2220864.825594226 ; 2.0289427471848065E8 ; 3.370425344354712E8 ; 2.845007155754819E10 ; 0.0
150 ; 2219715.1434972035 ; 2.029088841457652E8 ; 3.392633992610654E8 ; 2.865296583226667E10 ; 0.0
151 ; 2215171.8555085678 ; 2.0292345830633467E8 ; 3.4148311440456265E8 ; 2.8855874716412434E10 ; 0.0
152 ; 2209055.1797781987 ; 2.029379966840078E8 ; 3.436982862600712E8 ; 2.905879817471877E10 ; 0.0
153 ; 2206866.3299625684 ; 2.0295249876909772E8 ; 3.4590734143984944E8 ; 2.926173617140278E10 ; 0.0
154 ; 2201765.770351179 ; 2.029669640582491E8 ; 3.48114207769812E8 ; 2.9464688670171875E10 ; 0.0
155 ; 2198141.760049653 ; 2.029813920542815E8 ; 3.5031597354016316E8 ; 2.9667655634230125E10 ; 0.0
156 ; 2195915.3961459757 ; 2.0299578226603797E8 ; 3.525141153002128E8 ; 2.987063702628441E10 ; 0.0
157 ; 2192198.682851247 ; 2.030101342082394E8 ; 3.547100306963588E8 ; 3.0073632808550446E10 ; 0.0
158 ; 2186210.0459393384 ; 2.030244474013438E8 ; 3.5690222937921005E8 ; 3.0276642942758686E10 ; 0.0
159 ; 2185775.927788489 ; 2.0303872137141073E8 ; 3.590884394251494E8 ; 3.047966739016003E10 ; 0.0
160 ; 2180158.807799448 ; 2.0305295564997062E8 ; 3.612742153529379E8 ; 3.068270611153144E10 ; 0.0
161 ; 2175400.906873188 ; 2.0306714977389836E8 ; 3.6345437416073734E8 ; 3.088575906718141E10 ; 0.0
162 ; 2171348.562354463 ; 2.0308130328529182E8 ; 3.656297750676105E8 ; 3.108882621695531E10 ; 0.0
163 ; 2169518.926313592 ; 2.0309541573135415E8 ; 3.6780112362996495E8 ; 3.1291907520240604E10 ; 0.0
164 ; 2165086.038626246 ; 2.0310948666428053E8 ; 3.699706425562785E8 ; 3.149500293597196E10 ; 0.0
165 ; 2160718.5810892354 ; 2.0312351564114884E8 ; 3.721357285949048E8 ; 3.169811242263624E10 ; 0.0
166 ; 2157390.5859520896 ; 2.0313750222381386E8 ; 3.7429644717599404E8 ; 3.1901235938277386E10 ; 0.0
167 ; 2154426.8574418034 ; 2.031514459788055E8 ; 3.7645383776194614E8 ; 3.2104373440501198E10 ; 0.0
168 ; 2149929.8141265414 ; 2.0316534647723022E8 ; 3.786082646193879E8 ; 3.2307524886480003E10 ; 0.0
169 ; 2145678.173464689 ; 2.031792032946761E8 ; 3.807581944335145E8 ; 3.2510690232957233E10 ; 0.0
170 ; 2141833.5367921377 ; 2.0319301601112098E8 ; 3.829038726069792E8 ; 3.271386943625191E10 ; 0.0
171 ; 2138130.24705778 ; 2.032067842108439E8 ; 3.8504570614377135E8 ; 3.291706245226303E10 ; 0.0
172 ; 2135652.5074711945 ; 2.0322050748233932E8 ; 3.8718383639082915E8 ; 3.3120269236473873E10 ; 0.0
173 ; 2129419.1363653345 ; 2.0323418541823468E8 ; 3.8931948889830035E8 ; 3.332348974395621E10 ; 0.0
174 ; 2124180.794530724 ; 2.0324781761521018E8 ; 3.914489080346657E8 ; 3.3526723929374447E10 ; 0.0
175 ; 2127317.1362990155 ; 2.0326140367392185E8 ; 3.9357308882919645E8 ; 3.372997174698966E10 ; 0.0
176 ; 2121453.9021286126 ; 2.0327494319892684E8 ; 3.9570040596549547E8 ; 3.393323315066358E10 ; 0.0
177 ; 2120502.171609474 ; 2.0328843579861122E8 ; 3.978218598676241E8 ; 3.4136508093862507E10 ; 0.0
178 ; 2115729.554113571 ; 2.0330188108512056E8 ; 3.9994236203923357E8 ; 3.4339796529661118E10 ; 0.0
179 ; 2113578.458248999 ; 2.033152786742924E8 ; 4.0205809159334713E8 ; 3.454309841074624E10 ; 0.0
180 ; 2108949.1589159216 ; 2.0332862818559116E8 ; 4.041716700515961E8 ; 3.474641368942053E10 ; 0.0
181 ; 2108944.647759414 ; 2.033419292420453E8 ; 4.0628061921051204E8 ; 3.4949742317606125E10 ; 0.0
182 ; 2103013.1028839434 ; 2.0335518147018653E8 ; 4.083895638582715E8 ; 3.515308424684817E10 ; 0.0
183 ; 2103590.5732187987 ; 2.0336838449999073E8 ; 4.104925769611554E8 ; 3.535643942831835E10 ; 0.0
184 ; 2095830.97539603 ; 2.033815379648213E8 ; 4.1259616753437424E8 ; 3.5559807812818344E10 ; 0.0
185 ; 2095765.6357634182 ; 2.0339464150137419E8 ; 4.146919985097703E8 ; 3.5763189350783165E10 ; 0.0
186 ; 2095268.9942309072 ; 2.0340769474962446E8 ; 4.167877641455337E8 ; 3.596658399228454E10 ; 0.0
187 ; 2089238.1083431183 ; 2.0342069735277504E8 ; 4.188830331397646E8 ; 3.6169991687034164E10 ; 0.0
188 ; 2086223.914026317 ; 2.0343364895720682E8 ; 4.2097227124810773E8 ; 3.637341238438694E10 ; 0.0
189 ; 2083814.781266653 ; 2.0344654921243066E8 ; 4.2305849516213405E8 ; 3.657684603334415E10 ; 0.0
190 ; 2082616.821415472 ; 2.0345939777104068E8 ; 4.251423099434007E8 ; 3.678029258255658E10 ; 0.0
191 ; 2076559.4031287841 ; 2.034721942886692E8 ; 4.2722492676481616E8 ; 3.698375198032762E10 ; 0.0
192 ; 2075652.414504287 ; 2.0348493842394322E8 ; 4.2930148616794497E8 ; 3.718722417461629E10 ; 0.0
193 ; 2071743.805873178 ; 2.0349762983844227E8 ; 4.3137713858244926E8 ; 3.739070911304023E10 ; 0.0
194 ; 2070039.4240394686 ; 2.035102681966574E8 ; 4.334488823883224E8 ; 3.759420674287867E10 ; 0.0
195 ; 2065937.4778364794 ; 2.0352285316595185E8 ; 4.355189218123619E8 ; 3.7797717011075325E10 ; 0.0
196 ; 2066373.030705032 ; 2.0353538441652277E8 ; 4.375848592901984E8 ; 3.800123986424128E10 ; 0.0
197 ; 2060726.1945637364 ; 2.0354786162136415E8 ; 4.396512323209034E8 ; 3.82047752486578E10 ; 0.0
198 ; 2059378.2615251178 ; 2.0356028445623112E8 ; 4.4171195851546717E8 ; 3.840832311027916E10 ; 0.0
199 ; 2055415.1651098055 ; 2.0357265259960523E8 ; 4.4377133677699226E8 ; 3.861188339473539E10 ; 0.0
