CSV File for the City 4 on Day 179
1 - Minute m 
2 - Power Consumed at minute m 
3 - Power Produced at minute m 
4 - Energy Consumed since the beginning of the day 
5 - Energy Produced since the beginning of the day 
6 - Energy Lost since the beginning of the day on lines starting from the city
 
0 ; 1637885.254164966 ; 1.0606425731063798E8 ; 0.0 ; 0.0 ; 0.0
1 ; 1641157.6340162333 ; 1.0621470814938205E8 ; 1637885.254164966 ; 1.0606425731063798E8 ; 0.0
2 ; 1647896.2534126132 ; 1.066741933747699E8 ; 3279042.8881811993 ; 2.1227896546002004E8 ; 0.0
3 ; 1658768.3383895482 ; 1.0744271784039325E8 ; 4926939.141593812 ; 3.1895315883478993E8 ; 0.0
4 ; 1668562.2802913138 ; 1.0852028590789998E8 ; 6585707.4799833605 ; 4.263958766751832E8 ; 0.0
5 ; 1680523.3168829877 ; 1.0990690141882122E8 ; 8254269.760274675 ; 5.3491616258308315E8 ; 0.0
6 ; 1693214.1284729694 ; 1.11602567669197E8 ; 9934793.077157663 ; 6.448230640019044E8 ; 0.0
7 ; 1715983.160568173 ; 1.1360728738738531E8 ; 1.1628007205630632E7 ; 7.564256316711013E8 ; 0.0
8 ; 1751479.3761340934 ; 1.1592106271539736E8 ; 1.3343990366198804E7 ; 8.700329190584867E8 ; 0.0
9 ; 1796871.2910082124 ; 1.1854389519405586E8 ; 1.5095469742332898E7 ; 9.85953981773884E8 ; 0.0
10 ; 1876080.1581171805 ; 1.2147578575221664E8 ; 1.689234103334111E7 ; 1.1044978769679399E9 ; 0.0
11 ; 2000360.5925595923 ; 1.2471673470022872E8 ; 1.876842119145829E7 ; 1.2259736627201564E9 ; 0.0
12 ; 2196678.552903938 ; 1.2826674172774306E8 ; 2.076878178401788E7 ; 1.3506903974203851E9 ; 0.0
13 ; 2387386.782474223 ; 1.3212580590590382E8 ; 2.296546033692182E7 ; 1.4789571391481283E9 ; 0.0
14 ; 2407770.4042804767 ; 1.3629392569388837E8 ; 2.5352847119396042E7 ; 1.611082945054032E9 ; 0.0
15 ; 2417197.155367739 ; 1.407710989496854E8 ; 2.776061752367652E7 ; 1.7473768707479205E9 ; 0.0
16 ; 2427007.678666433 ; 1.4555732294493702E8 ; 3.0177814679044258E7 ; 1.8881479696976058E9 ; 0.0
17 ; 2434047.180818121 ; 1.5065259438360313E8 ; 3.260482235771069E7 ; 2.0337052926425428E9 ; 0.0
18 ; 2444856.815790523 ; 1.560569094241526E8 ; 3.503886953852881E7 ; 2.184357887026146E9 ; 0.0
19 ; 2451524.77952918 ; 1.617702637049376E8 ; 3.7483726354319334E7 ; 2.3404147964502983E9 ; 0.0
20 ; 2461182.871623185 ; 1.6779265237236634E8 ; 3.993525113384851E7 ; 2.502185060155236E9 ; 0.0
21 ; 2467297.7663475866 ; 1.741240701114643E8 ; 4.23964340054717E7 ; 2.669977712527602E9 ; 0.0
22 ; 2475994.9238538453 ; 1.8076451117839378E8 ; 4.4863731771819286E7 ; 2.8441017826390667E9 ; 0.0
23 ; 2485415.205325078 ; 1.877139694344929E8 ; 4.733972669567313E7 ; 3.0248662938174605E9 ; 0.0
24 ; 2493453.738692408 ; 1.9497243838139898E8 ; 4.9825141900998205E7 ; 3.2125802632519536E9 ; 0.0
25 ; 2503982.857471084 ; 2.0122795209501424E8 ; 5.2318595639690615E7 ; 3.4075527016333528E9 ; 0.0
26 ; 2511582.6851080963 ; 2.0123405129843473E8 ; 5.48225784971617E7 ; 3.608780653728367E9 ; 0.0
27 ; 2521131.1185377296 ; 2.0124049792275792E8 ; 5.73341611822698E7 ; 3.8100147050268016E9 ; 0.0
28 ; 2528338.2911298713 ; 2.0124728438927907E8 ; 5.985529230080753E7 ; 4.0112552029495597E9 ; 0.0
29 ; 2536988.599573606 ; 2.0125440293736535E8 ; 6.23836305919374E7 ; 4.2125024873388386E9 ; 0.0
30 ; 2541911.1959463456 ; 2.012618456580123E8 ; 6.4920619191511005E7 ; 4.413756890276204E9 ; 0.0
31 ; 2551354.7873286004 ; 2.0126960452608994E8 ; 6.746253038745736E7 ; 4.6150187359342165E9 ; 0.0
32 ; 2561468.7036979124 ; 2.0127767143108028E8 ; 7.001388517478596E7 ; 4.816288340460306E9 ; 0.0
33 ; 2568490.8983468465 ; 2.012860382061484E8 ; 7.257535387848386E7 ; 5.017566011891386E9 ; 0.0
34 ; 2575530.448275711 ; 2.0129469665542492E8 ; 7.51438447768307E7 ; 5.218852050097534E9 ; 0.0
35 ; 2581911.1754456772 ; 2.0130363857941604E8 ; 7.771937522510642E7 ; 5.420146746752959E9 ; 0.0
36 ; 2592141.1323017455 ; 2.0131285579848757E8 ; 8.03012864005521E7 ; 5.621450385332376E9 ; 0.0
37 ; 2595925.963947499 ; 2.0132234017440125E8 ; 8.289342753285384E7 ; 5.822763241130863E9 ; 0.0
38 ; 2603143.6775161847 ; 2.0133208362990695E8 ; 8.548935349680135E7 ; 6.024085581305264E9 ; 0.0
39 ; 2612056.0111426977 ; 2.01342078166418E8 ; 8.809249717431754E7 ; 6.225417664935171E9 ; 0.0
40 ; 2615202.7060929625 ; 2.0135231587981588E8 ; 9.070455318546024E7 ; 6.426759743101589E9 ; 0.0
41 ; 2622014.060432246 ; 2.0136278897444797E8 ; 9.331975589155321E7 ; 6.628112058981405E9 ; 0.0
42 ; 2626709.839826216 ; 2.013734897753935E8 ; 9.594176995198545E7 ; 6.829474847955853E9 ; 0.0
43 ; 2632557.0142479786 ; 2.0138441073908454E8 ; 9.856847979181166E7 ; 7.030848337731247E9 ; 0.0
44 ; 2636540.1396775073 ; 2.0139554446237552E8 ; 1.0120103680605964E8 ; 7.232232748470331E9 ; 0.0
45 ; 2642473.229515927 ; 2.014068836901598E8 ; 1.0383757694573715E8 ; 7.433628292932707E9 ; 0.0
46 ; 2646265.8940860517 ; 2.0141842132163507E8 ; 1.0648005017525308E8 ; 7.635035176622867E9 ; 0.0
47 ; 2649164.9355513905 ; 2.014301504153203E8 ; 1.0912631606933913E8 ; 7.836453597944502E9 ; 0.0
48 ; 2653321.1803815444 ; 2.0144206419292608E8 ; 1.1177548100489052E8 ; 8.037883748359822E9 ; 0.0
49 ; 2655608.840107152 ; 2.014541560421789E8 ; 1.1442880218527207E8 ; 8.239325812552749E9 ; 0.0
50 ; 2660886.949660797 ; 2.0146641951869696E8 ; 1.1708441102537923E8 ; 8.440779968594928E9 ; 0.0
51 ; 2660260.890587643 ; 2.0147884834701067E8 ; 1.1974529797504002E8 ; 8.642246388113625E9 ; 0.0
52 ; 2666061.0504080113 ; 2.0149143642081806E8 ; 1.2240555886562766E8 ; 8.843725236460636E9 ; 0.0
53 ; 2666575.8624796174 ; 2.0150417780255896E8 ; 1.2507161991603567E8 ; 9.045216672881454E9 ; 0.0
54 ; 2669142.643629695 ; 2.0151706672238785E8 ; 1.2773819577851528E8 ; 9.246720850684013E9 ; 0.0
55 ; 2669141.18758696 ; 2.0153009757661948E8 ; 1.3040733842214498E8 ; 9.4482379174064E9 ; 0.0
56 ; 2672446.838975418 ; 2.0154326492571613E8 ; 1.3307647960973194E8 ; 9.64976801498302E9 ; 0.0
57 ; 2677905.7781951856 ; 2.015565634918799E8 ; 1.3574892644870737E8 ; 9.851311279908737E9 ; 0.0
58 ; 2675944.957490233 ; 2.0156998815630862E8 ; 1.3842683222690254E8 ; 1.0052867843400618E10 ; 0.0
59 ; 2678948.1214021887 ; 2.015835339561682E8 ; 1.4110277718439278E8 ; 1.0254437831556927E10 ; 0.0
60 ; 2684428.910378429 ; 2.0159719608133042E8 ; 1.4378172530579495E8 ; 1.0456021365513096E10 ; 0.0
61 ; 2683852.604037995 ; 2.016109698709193E8 ; 1.4646615421617338E8 ; 1.0657618561594427E10 ; 0.0
62 ; 2687529.4292334514 ; 2.0162485080970553E8 ; 1.4915000682021138E8 ; 1.0859229531465347E10 ; 0.0
63 ; 2687400.8686464913 ; 2.016388345243847E8 ; 1.5183753624944484E8 ; 1.1060854382275053E10 ; 0.0
64 ; 2689799.9214783846 ; 2.0165291677977005E8 ; 1.5452493711809134E8 ; 1.1262493216799438E10 ; 0.0
65 ; 2689635.3425149233 ; 2.0166709347492805E8 ; 1.5721473703956974E8 ; 1.1464146133579208E10 ; 0.0
66 ; 2691036.0611092625 ; 2.0168136063928148E8 ; 1.5990437238208467E8 ; 1.1665813227054136E10 ; 0.0
67 ; 2697371.4862301797 ; 2.0169571442870104E8 ; 1.6259540844319394E8 ; 1.1867494587693419E10 ; 0.0
68 ; 2697694.2080914536 ; 2.0171015112160504E8 ; 1.652927799294241E8 ; 1.206919030212212E10 ; 0.0
69 ; 2699282.1859579543 ; 2.0172466711508277E8 ; 1.6799047413751557E8 ; 1.2270900453243725E10 ; 0.0
70 ; 2702018.1545050475 ; 2.0173925892105627E8 ; 1.7068975632347354E8 ; 1.2472625120358809E10 ; 0.0
71 ; 2703314.0927333366 ; 2.0175392316249177E8 ; 1.733917744779786E8 ; 1.2674364379279865E10 ; 0.0
72 ; 2703096.8063072884 ; 2.0176865656967166E8 ; 1.760950885707119E8 ; 1.2876118302442356E10 ; 0.0
73 ; 2706923.124491698 ; 2.0178345597653493E8 ; 1.787981853770192E8 ; 1.3077886959012028E10 ; 0.0
74 ; 2705296.0061425967 ; 2.0179831831709307E8 ; 1.815051085015109E8 ; 1.3279670414988564E10 ; 0.0
75 ; 2706949.82264082 ; 2.0181324062192768E8 ; 1.8421040450765347E8 ; 1.3481468733305656E10 ; 0.0
76 ; 2708427.06705694 ; 2.0182822001477346E8 ; 1.8691735433029428E8 ; 1.3683281973927584E10 ; 0.0
77 ; 2711250.3280730806 ; 2.0184325370919073E8 ; 1.8962578139735124E8 ; 1.3885110193942358E10 ; 0.0
78 ; 2706863.5001510927 ; 2.0185833900532967E8 ; 1.9233703172542432E8 ; 1.4086953447651548E10 ; 0.0
79 ; 2706635.439509328 ; 2.0187347328678805E8 ; 1.9504389522557542E8 ; 1.4288811786656878E10 ; 0.0
80 ; 2707238.162705595 ; 2.0188865401756385E8 ; 1.9775053066508475E8 ; 1.4490685259943666E10 ; 0.0
81 ; 2709752.077544038 ; 2.0190387873910257E8 ; 2.0045776882779035E8 ; 1.4692573913961231E10 ; 0.0
82 ; 2704726.4077870185 ; 2.019191450674399E8 ; 2.0316752090533438E8 ; 1.4894477792700335E10 ; 0.0
83 ; 2702456.52067108 ; 2.0193445069043875E8 ; 2.058722473131214E8 ; 1.5096396937767775E10 ; 0.0
84 ; 2699280.063284793 ; 2.0194979336511979E8 ; 2.0857470383379248E8 ; 1.5298331388458214E10 ; 0.0
85 ; 2700683.550467348 ; 2.0196517091508457E8 ; 2.1127398389707726E8 ; 1.5500281181823334E10 ; 0.0
86 ; 2697265.990105004 ; 2.0198058122802937E8 ; 2.139746674475446E8 ; 1.5702246352738419E10 ; 0.0
87 ; 2698811.1621389743 ; 2.019960222533482E8 ; 2.166719334376496E8 ; 1.5904226933966448E10 ; 0.0
88 ; 2694469.8441007114 ; 2.0201149199982336E8 ; 2.1937074459978858E8 ; 1.6106222956219795E10 ; 0.0
89 ; 2695391.2978138784 ; 2.0202698853340074E8 ; 2.220652144438893E8 ; 1.6308234448219618E10 ; 0.0
90 ; 2691209.2802142967 ; 2.020425099750486E8 ; 2.2476060574170318E8 ; 1.651026143675302E10 ; 0.0
91 ; 2693062.1795387827 ; 2.0205805449869707E8 ; 2.274518150219175E8 ; 1.6712303946728067E10 ; 0.0
92 ; 2689502.4658319335 ; 2.020736203292559E8 ; 2.3014487720145628E8 ; 1.6914362001226765E10 ; 0.0
93 ; 2686592.7807588973 ; 2.0208920574070877E8 ; 2.328343796672882E8 ; 1.711643562155602E10 ; 0.0
94 ; 2683789.2010876695 ; 2.02104809054281E8 ; 2.355209724480471E8 ; 1.731852482729673E10 ; 0.0
95 ; 2682971.8146191034 ; 2.0212042863667876E8 ; 2.3820476164913478E8 ; 1.752062963635101E10 ; 0.0
96 ; 2680807.449685344 ; 2.0213606289839742E8 ; 2.4088773346375388E8 ; 1.772275006498769E10 ; 0.0
97 ; 2678639.866611823 ; 2.0215171029209626E8 ; 2.435685409134392E8 ; 1.7924886127886086E10 ; 0.0
98 ; 2674504.4584724763 ; 2.0216736931103763E8 ; 2.4624718078005102E8 ; 1.812703783817818E10 ; 0.0
99 ; 2672925.9867411805 ; 2.0218303848758805E8 ; 2.489216852385235E8 ; 1.832920520748922E10 ; 0.0
100 ; 2671605.151876691 ; 2.021987163917789E8 ; 2.515946112252647E8 ; 1.8531388245976807E10 ; 0.0
101 ; 2669914.71336249 ; 2.0221440162992486E8 ; 2.542662163771414E8 ; 1.8733586962368584E10 ; 0.0
102 ; 2667182.9280624962 ; 2.0223009284329733E8 ; 2.5693613109050387E8 ; 1.893580136399851E10 ; 0.0
103 ; 2662358.1621691925 ; 2.022457887068513E8 ; 2.5960331401856637E8 ; 1.9138031456841805E10 ; 0.0
104 ; 2661015.623100284 ; 2.0226148792800313E8 ; 2.6226567218073556E8 ; 1.9340277245548656E10 ; 0.0
105 ; 2660700.0075998157 ; 2.022771892454577E8 ; 2.6492668780383584E8 ; 1.9542538733476658E10 ; 0.0
106 ; 2656859.037932147 ; 2.022928914280826E8 ; 2.6758738781143564E8 ; 1.9744815922722115E10 ; 0.0
107 ; 2655501.9412900805 ; 2.0230859327382758E8 ; 2.702442468493678E8 ; 1.9947108814150196E10 ; 0.0
108 ; 2650692.3194291955 ; 2.023242936086877E8 ; 2.728997487906579E8 ; 2.0149417407424023E10 ; 0.0
109 ; 2647739.045366403 ; 2.0233999128570798E8 ; 2.755504411100871E8 ; 2.035174170103271E10 ; 0.0
110 ; 2645334.4291501297 ; 2.023556851840282E8 ; 2.781981801554535E8 ; 2.055408169231842E10 ; 0.0
111 ; 2637665.5000044694 ; 2.023713742079661E8 ; 2.808435145846036E8 ; 2.075643737750245E10 ; 0.0
112 ; 2638354.2119444488 ; 2.023870572861374E8 ; 2.834811800846081E8 ; 2.0958808751710415E10 ; 0.0
113 ; 2637603.6834114594 ; 2.0240273337061113E8 ; 2.8611953429655254E8 ; 2.116119580899655E10 ; 0.0
114 ; 2634546.9565479443 ; 2.0241840143609878E8 ; 2.88757137979964E8 ; 2.136359854236716E10 ; 0.0
115 ; 2629679.048650182 ; 2.024340604791759E8 ; 2.9139168493651193E8 ; 2.156601694380326E10 ; 0.0
116 ; 2624854.125139706 ; 2.0244970951753485E8 ; 2.9402136398516214E8 ; 2.1768451004282436E10 ; 0.0
117 ; 2627511.7147322106 ; 2.024653475892673E8 ; 2.9664621811030185E8 ; 2.1970900713799973E10 ; 0.0
118 ; 2619417.876083188 ; 2.0248097375217527E8 ; 2.992737298250341E8 ; 2.217336606138924E10 ; 0.0
119 ; 2618969.505172352 ; 2.0249658708310968E8 ; 3.018931477011173E8 ; 2.2375847035141415E10 ; 0.0
120 ; 2612206.413885071 ; 2.0251218667733487E8 ; 3.0451211720628965E8 ; 2.2578343622224525E10 ; 0.0
121 ; 2609266.7560443785 ; 2.0252777164791852E8 ; 3.071243236201747E8 ; 2.278085580890186E10 ; 0.0
122 ; 2606347.8439655984 ; 2.0254334112514544E8 ; 3.097335903762191E8 ; 2.2983383580549778E10 ; 0.0
123 ; 2600129.6108585843 ; 2.0255889425595456E8 ; 3.123399382201847E8 ; 2.3185926921674923E10 ; 0.0
124 ; 2602208.3702220856 ; 2.0257443020339805E8 ; 3.1494006783104324E8 ; 2.3388485815930878E10 ; 0.0
125 ; 2598091.26533377 ; 2.025899481461213E8 ; 3.1754227620126534E8 ; 2.3591060246134277E10 ; 0.0
126 ; 2592838.134155418 ; 2.0260544727786377E8 ; 3.201403674665991E8 ; 2.37936501942804E10 ; 0.0
127 ; 2587922.746272231 ; 2.026209268069787E8 ; 3.227332056007545E8 ; 2.399625564155826E10 ; 0.0
128 ; 2583342.033962828 ; 2.026363859559719E8 ; 3.253211283470267E8 ; 2.4198876568365242E10 ; 0.0
129 ; 2580512.8379261442 ; 2.026518239610581E8 ; 3.2790447038098955E8 ; 2.4401512954321213E10 ; 0.0
130 ; 2574510.1214442775 ; 2.026672400717347E8 ; 3.304849832189157E8 ; 2.4604164778282272E10 ; 0.0
131 ; 2569652.3092441363 ; 2.026826335503716E8 ; 3.3305949334036E8 ; 2.4806832018354008E10 ; 0.0
132 ; 2565325.6458495646 ; 2.0269800367181697E8 ; 3.3562914564960414E8 ; 2.500951465190438E10 ; 0.0
133 ; 2555071.463938891 ; 2.0271334972301832E8 ; 3.381944712954537E8 ; 2.52122126555762E10 ; 0.0
134 ; 2548361.7122313613 ; 2.0272867100265735E8 ; 3.407495427593926E8 ; 2.5414926005299217E10 ; 0.0
135 ; 2544040.4056293657 ; 2.027439668207994E8 ; 3.4329790447162396E8 ; 2.5617654676301876E10 ; 0.0
136 ; 2536687.1213690583 ; 2.027592364985558E8 ; 3.458419448772533E8 ; 2.5820398643122677E10 ; 0.0
137 ; 2528080.8132739416 ; 2.027744793677589E8 ; 3.4837863199862236E8 ; 2.602315787962123E10 ; 0.0
138 ; 2522700.047156642 ; 2.0278969477064967E8 ; 3.509067128118963E8 ; 2.622593235898899E10 ; 0.0
139 ; 2515628.4893837385 ; 2.028048820595767E8 ; 3.5342941285905296E8 ; 2.642872205375964E10 ; 0.0
140 ; 2510852.0634882315 ; 2.028200405967065E8 ; 3.559450413484367E8 ; 2.6631526935819218E10 ; 0.0
141 ; 2501325.0083494354 ; 2.0283516975374487E8 ; 3.5845589341192496E8 ; 2.6834346976415924E10 ; 0.0
142 ; 2494105.4351473157 ; 2.028502689116682E8 ; 3.609572184202744E8 ; 2.703718214616967E10 ; 0.0
143 ; 2489221.480630523 ; 2.0286533746046507E8 ; 3.634513238554217E8 ; 2.7240032415081337E10 ; 0.0
144 ; 2480666.9668660797 ; 2.028803747988871E8 ; 3.6594054533605224E8 ; 2.74428977525418E10 ; 0.0
145 ; 2478942.3132615224 ; 2.028953803342092E8 ; 3.684212123029183E8 ; 2.7645778127340687E10 ; 0.0
146 ; 2476558.013642951 ; 2.029103534819984E8 ; 3.709001546161798E8 ; 2.7848673507674896E10 ; 0.0
147 ; 2469143.705101643 ; 2.0292529366589135E8 ; 3.733767126298228E8 ; 2.8051583861156895E10 ; 0.0
148 ; 2464299.100276279 ; 2.0294020031737965E8 ; 3.7584585633492446E8 ; 2.8254509154822784E10 ; 0.0
149 ; 2461282.057951595 ; 2.029550728756031E8 ; 3.7831015543520075E8 ; 2.8457449355140163E10 ; 0.0
150 ; 2457341.4961862788 ; 2.029699107871506E8 ; 3.807714374931523E8 ; 2.8660404428015766E10 ; 0.0
151 ; 2452948.7725247564 ; 2.0298471350586772E8 ; 3.832287789893386E8 ; 2.8863374338802917E10 ; 0.0
152 ; 2448414.1463389555 ; 2.0299948049267182E8 ; 3.8568172776186335E8 ; 2.9066359052308784E10 ; 0.0
153 ; 2444791.835260558 ; 2.0301421121537325E8 ; 3.881301419082023E8 ; 2.9269358532801456E10 ; 0.0
154 ; 2440936.444392402 ; 2.0302890514850324E8 ; 3.9057493374346286E8 ; 2.947237274401683E10 ; 0.0
155 ; 2434918.171294243 ; 2.0304356177314776E8 ; 3.9301587018785524E8 ; 2.9675401649165333E10 ; 0.0
156 ; 2431148.1623934386 ; 2.0305818057678732E8 ; 3.954507883591495E8 ; 2.987844521093848E10 ; 0.0
157 ; 2428535.789509108 ; 2.0307276105314246E8 ; 3.9788193652154297E8 ; 3.0081503391515266E10 ; 0.0
158 ; 2422352.3399520284 ; 2.0308730270202455E8 ; 4.003104723110521E8 ; 3.028457615256841E10 ; 0.0
159 ; 2418161.0102965 ; 2.031018050291919E8 ; 4.0273282465100414E8 ; 3.0487663455270435E10 ; 0.0
160 ; 2414558.5018873936 ; 2.0311626754621106E8 ; 4.0515098566130066E8 ; 3.0690765260299625E10 ; 0.0
161 ; 2408023.874281379 ; 2.0313068977032265E8 ; 4.0756554416318804E8 ; 3.0893881527845837E10 ; 0.0
162 ; 2407209.011362659 ; 2.03145071224312E8 ; 4.0997356803746945E8 ; 3.1097012217616158E10 ; 0.0
163 ; 2402940.08308456 ; 2.0315941143638435E8 ; 4.123807770488321E8 ; 3.130015728884047E10 ; 0.0
164 ; 2396300.9370908244 ; 2.0317370994004425E8 ; 4.147837171319167E8 ; 3.1503316700276855E10 ; 0.0
165 ; 2391475.0423491257 ; 2.031879662739791E8 ; 4.171800180690075E8 ; 3.17064904102169E10 ; 0.0
166 ; 2389923.314306412 ; 2.0320217998194674E8 ; 4.195714931113566E8 ; 3.190967837649088E10 ; 0.0
167 ; 2386891.7997810952 ; 2.0321635061266688E8 ; 4.2196141642566305E8 ; 3.2112880556472824E10 ; 0.0
168 ; 2379456.3823076654 ; 2.032304777197162E8 ; 4.2434830822544414E8 ; 3.231609690708549E10 ; 0.0
169 ; 2375919.429141188 ; 2.0324456086142707E8 ; 4.267277646077518E8 ; 3.2519327384805206E10 ; 0.0
170 ; 2371066.0735688256 ; 2.0325859960078958E8 ; 4.2910368403689295E8 ; 3.2722571945666634E10 ; 0.0
171 ; 2365099.7285487656 ; 2.032725935053571E8 ; 4.314747501104618E8 ; 3.292583054526742E10 ; 0.0
172 ; 2360409.9842034797 ; 2.032865421471547E8 ; 4.3383984983901054E8 ; 3.3129103138772778E10 ; 0.0
173 ; 2357345.9235138856 ; 2.03300445102591E8 ; 4.36200259823214E8 ; 3.3332389680919933E10 ; 0.0
174 ; 2353659.581764144 ; 2.0331430195237276E8 ; 4.385576057467279E8 ; 3.3535690126022526E10 ; 0.0
175 ; 2351878.49677218 ; 2.033281122814223E8 ; 4.4091126532849205E8 ; 3.37390044279749E10 ; 0.0
176 ; 2348979.8360668276 ; 2.033418756787978E8 ; 4.432631438252642E8 ; 3.394233254025632E10 ; 0.0
177 ; 2342965.6249943543 ; 2.0335559173761627E8 ; 4.4561212366133106E8 ; 3.414567441593512E10 ; 0.0
178 ; 2342554.4934993754 ; 2.0336926005497876E8 ; 4.479550892863254E8 ; 3.4349030007672737E10 ; 0.0
179 ; 2336779.3446632097 ; 2.033828802318985E8 ; 4.502976437798248E8 ; 3.4552399267727715E10 ; 0.0
180 ; 2333497.6777937845 ; 2.0339645187323108E8 ; 4.52634423124488E8 ; 3.475578214795961E10 ; 0.0
181 ; 2330907.1945979465 ; 2.0340997458760703E8 ; 4.549679208022818E8 ; 3.495917859983284E10 ; 0.0
182 ; 2327037.2417315044 ; 2.0342344798736662E8 ; 4.5729882799687976E8 ; 3.516258857442045E10 ; 0.0
183 ; 2324148.0127113517 ; 2.0343687168849674E8 ; 4.596258652386113E8 ; 3.5366012022407814E10 ; 0.0
184 ; 2321537.7521109763 ; 2.0345024531056997E8 ; 4.619500132513226E8 ; 3.556944889409631E10 ; 0.0
185 ; 2318026.0853092987 ; 2.0346356847668543E8 ; 4.642715510034336E8 ; 3.577289913940688E10 ; 0.0
186 ; 2316702.9485906195 ; 2.0347684081341174E8 ; 4.665895770887429E8 ; 3.597636270788357E10 ; 0.0
187 ; 2311776.152868277 ; 2.034900619507317E8 ; 4.6890628003733355E8 ; 3.617983954869698E10 ; 0.0
188 ; 2309183.9556856244 ; 2.035032315219889E8 ; 4.712180561902018E8 ; 3.638332961064771E10 ; 0.0
189 ; 2303610.083603315 ; 2.035163491638358E8 ; 4.7352724014588743E8 ; 3.65868328421697E10 ; 0.0
190 ; 2300883.0504487487 ; 2.0352941451618385E8 ; 4.7583085022949076E8 ; 3.6790349191333534E10 ; 0.0
191 ; 2297446.7070897045 ; 2.0354242722215483E8 ; 4.7813173327993953E8 ; 3.699387860584972E10 ; 0.0
192 ; 2295313.8912663353 ; 2.03555386928034E8 ; 4.8042917998702925E8 ; 3.719742103307187E10 ; 0.0
193 ; 2292247.895995788 ; 2.0356829328322473E8 ; 4.827244938782956E8 ; 3.74009764199999E10 ; 0.0
194 ; 2289457.576313557 ; 2.0358114594020435E8 ; 4.850167417742914E8 ; 3.760454471328313E10 ; 0.0
195 ; 2284470.5118201175 ; 2.0359394455448177E8 ; 4.8730619935060495E8 ; 3.780812585922333E10 ; 0.0
196 ; 2283625.008047342 ; 2.036066887845562E8 ; 4.895906698624251E8 ; 3.801171980377781E10 ; 0.0
197 ; 2276430.835591013 ; 2.0361937829187718E8 ; 4.9187429487047243E8 ; 3.821532649256236E10 ; 0.0
198 ; 2274337.568820851 ; 2.0363201274080598E8 ; 4.9415072570606345E8 ; 3.841894587085424E10 ; 0.0
199 ; 2273781.604853784 ; 2.0364459179857817E8 ; 4.964250632748843E8 ; 3.862257788359505E10 ; 0.0
