CSV File for the City 1 on Day 334
1 - Minute m 
2 - Power Consumed at minute m 
3 - Power Produced at minute m 
4 - Energy Consumed since the beginning of the day 
5 - Energy Produced since the beginning of the day 
6 - Energy Lost since the beginning of the day on lines starting from the city
 
0 ; 1.6121049505959038E7 ; 1.056985132005575E8 ; 0.0 ; 0.0 ; 0.0
1 ; 1.6141832249449862E7 ; 1.0585143612637222E8 ; 1.6121049505959038E7 ; 1.056985132005575E8 ; 0.0
2 ; 1.6160234391938906E7 ; 1.063131448053442E8 ; 3.2262881755408898E7 ; 2.1154994932692972E8 ; 0.0
3 ; 1.6182353762600977E7 ; 1.0708364034756172E8 ; 4.842311614734781E7 ; 3.178630941322739E8 ; 0.0
4 ; 1.6201351221230991E7 ; 1.0816292374340987E8 ; 6.460546990994878E7 ; 4.249467344798356E8 ; 0.0
5 ; 1.6230871698496234E7 ; 1.095509958596077E8 ; 8.080682113117978E7 ; 5.331096582232455E8 ; 0.0
6 ; 1.6273216557779135E7 ; 1.1124785743569353E8 ; 9.703769282967602E7 ; 6.426606540828532E8 ; 0.0
7 ; 1.6327324359493183E7 ; 1.1325350908099055E8 ; 1.1331090938745515E8 ; 7.539085115185467E8 ; 0.0
8 ; 1.6405828145628406E7 ; 1.155679512720828E8 ; 1.2963823374694833E8 ; 8.671620205995373E8 ; 0.0
9 ; 1.6520874127228482E7 ; 1.1819118435082573E8 ; 1.4604406189257672E8 ; 9.8272997187162E8 ; 0.0
10 ; 1.6706212166148137E7 ; 1.2112320852291083E8 ; 1.625649360198052E8 ; 1.1009211562224457E9 ; 0.0
11 ; 1.6993122776322953E7 ; 1.243640238569986E8 ; 1.7927114818595332E8 ; 1.2220443647453566E9 ; 0.0
12 ; 1.7459956618326604E7 ; 1.279136302844285E8 ; 1.9626427096227628E8 ; 1.3464083886023552E9 ; 0.0
13 ; 1.7901915281157505E7 ; 1.3177202759950906E8 ; 2.1372422758060288E8 ; 1.4743220188867838E9 ; 0.0
14 ; 1.7952443062424462E7 ; 1.359392154603849E8 ; 2.3162614286176038E8 ; 1.6060940464862928E9 ; 0.0
15 ; 1.7974471272731584E7 ; 1.4041519339047188E8 ; 2.4957858592418483E8 ; 1.7420332619466777E9 ; 0.0
16 ; 1.7995971855701152E7 ; 1.4519996078044692E8 ; 2.675530571969164E8 ; 1.8824484553371496E9 ; 0.0
17 ; 1.801863829369367E7 ; 1.502935168907716E8 ; 2.8554902905261755E8 ; 2.0276484161175966E9 ; 0.0
18 ; 1.8040917062113743E7 ; 1.556958608547269E8 ; 3.035676673463112E8 ; 2.177941933008368E9 ; 0.0
19 ; 1.8062733259069655E7 ; 1.6140699168192777E8 ; 3.21608584408425E8 ; 2.333637793863095E9 ; 0.0
20 ; 1.8082961733339973E7 ; 1.6742690826228586E8 ; 3.3967131766749465E8 ; 2.4950447855450225E9 ; 0.0
21 ; 1.8105467877347466E7 ; 1.7375560937038353E8 ; 3.577542794008346E8 ; 2.662471693807308E9 ; 0.0
22 ; 1.812487032845284E7 ; 1.803930936702184E8 ; 3.758597472781821E8 ; 2.836227303177692E9 ; 0.0
23 ; 1.814653690601065E7 ; 1.8733935972027844E8 ; 3.939846176066349E8 ; 3.0166203968479104E9 ; 0.0
24 ; 1.8171133466616422E7 ; 1.945944059789018E8 ; 4.1213115451264554E8 ; 3.2039597565681887E9 ; 0.0
25 ; 1.8191674405050166E7 ; 2.0084627170806262E8 ; 4.30302287979262E8 ; 3.3985541625470905E9 ; 0.0
26 ; 1.8213751544050444E7 ; 2.0084850301606455E8 ; 4.4849396238431215E8 ; 3.599400434255153E9 ; 0.0
27 ; 1.8231964745057732E7 ; 2.0085086738839388E8 ; 4.667077139283626E8 ; 3.800248937271218E9 ; 0.0
28 ; 1.8255772672311854E7 ; 2.0085336294054922E8 ; 4.849396786734203E8 ; 4.0010998046596117E9 ; 0.0
29 ; 1.8275651467008792E7 ; 2.0085598771740887E8 ; 5.0319545134573215E8 ; 4.201953167600161E9 ; 0.0
30 ; 1.8298303904658183E7 ; 2.0085873969937706E8 ; 5.214711028127409E8 ; 4.40280915531757E9 ; 0.0
31 ; 1.832114871654531E7 ; 2.00861616808515E8 ; 5.397694067173991E8 ; 4.603667895016947E9 ; 0.0
32 ; 1.8333462750233818E7 ; 2.0086461691462085E8 ; 5.580905554339445E8 ; 4.804529511825461E9 ; 0.0
33 ; 1.8357658247873835E7 ; 2.008677378412241E8 ; 5.764240181841782E8 ; 5.005394128740082E9 ; 0.0
34 ; 1.8372056315774072E7 ; 2.008709773714646E8 ; 5.94781676432052E8 ; 5.2062618665813055E9 ; 0.0
35 ; 1.839460278543224E7 ; 2.0087433325382763E8 ; 6.131537327478261E8 ; 5.40713284395277E9 ; 0.0
36 ; 1.8406928312550858E7 ; 2.0087780320771095E8 ; 6.315483355332583E8 ; 5.608007177206598E9 ; 0.0
37 ; 1.8426420286189865E7 ; 2.0088138492880246E8 ; 6.499552638458092E8 ; 5.8088849804143095E9 ; 0.0
38 ; 1.8442064574366093E7 ; 2.0088507609424976E8 ; 6.683816841319991E8 ; 6.009766365343112E9 ; 0.0
39 ; 1.845886762967171E7 ; 2.0088887436760706E8 ; 6.868237487063652E8 ; 6.210651441437362E9 ; 0.0
40 ; 1.847198554816377E7 ; 2.0089277740354696E8 ; 7.052826163360369E8 ; 6.411540315804969E9 ; 0.0
41 ; 1.848770382662401E7 ; 2.008967828523278E8 ; 7.237546018842007E8 ; 6.612433093208516E9 ; 0.0
42 ; 1.850241555707908E7 ; 2.0090088836400977E8 ; 7.422423057108247E8 ; 6.813329876060843E9 ; 0.0
43 ; 1.8511381658612058E7 ; 2.009050915924162E8 ; 7.607447212679038E8 ; 7.014230764424853E9 ; 0.0
44 ; 1.85266640464069E7 ; 2.0090939019883746E8 ; 7.792561029265158E8 ; 7.215135856017269E9 ; 0.0
45 ; 1.8537970991873503E7 ; 2.009137818554781E8 ; 7.977827669729227E8 ; 7.416045246216106E9 ; 0.0
46 ; 1.8549238773978595E7 ; 2.0091826424864945E8 ; 8.163207379647962E8 ; 7.616959028071585E9 ; 0.0
47 ; 1.855445293527953E7 ; 2.0092283508171105E8 ; 8.348699767387748E8 ; 7.817877292320234E9 ; 0.0
48 ; 1.8566460216810007E7 ; 2.0092749207776663E8 ; 8.534244296740543E8 ; 8.018800127401945E9 ; 0.0
49 ; 1.8575445692778945E7 ; 2.0093223298212078E8 ; 8.719908898908643E8 ; 8.219727619479712E9 ; 0.0
50 ; 1.858077974722865E7 ; 2.0093705556450394E8 ; 8.905663355836432E8 ; 8.420659852461832E9 ; 0.0
51 ; 1.8588465083462738E7 ; 2.0094195762107432E8 ; 9.091471153308718E8 ; 8.621596908026337E9 ; 0.0
52 ; 1.8591855716512136E7 ; 2.0094693697620562E8 ; 9.277355804143345E8 ; 8.822538865647411E9 ; 0.0
53 ; 1.8600437136415076E7 ; 2.009519914840704E8 ; 9.463274361308466E8 ; 9.023485802623617E9 ; 0.0
54 ; 1.86055439807769E7 ; 2.0095711903002885E8 ; 9.649278732672617E8 ; 9.224437794107687E9 ; 0.0
55 ; 1.8611363299724333E7 ; 2.0096231753183398E8 ; 9.835334172480386E8 ; 9.425394913137716E9 ; 0.0
56 ; 1.8619547166204E7 ; 2.0096758494066268E8 ; 1.002144780547763E9 ; 9.62635723066955E9 ; 0.0
57 ; 1.862359165214901E7 ; 2.0097291924198395E8 ; 1.020764327713967E9 ; 9.827324815610212E9 ; 0.0
58 ; 1.862626414711853E7 ; 2.0097831845627463E8 ; 1.0393879193661159E9 ; 1.0028297734852196E10 ; 0.0
59 ; 1.863495937394515E7 ; 2.0098378063959238E8 ; 1.0580141835132345E9 ; 1.022927605330847E10 ; 0.0
60 ; 1.8638070973508738E7 ; 2.0098930388401663E8 ; 1.0766491428871796E9 ; 1.0430259833948063E10 ; 0.0
61 ; 1.864196449977077E7 ; 2.0099488631796727E8 ; 1.0952872138606884E9 ; 1.0631249137832079E10 ; 0.0
62 ; 1.8651121426783882E7 ; 2.0100052610641E8 ; 1.1139291783604593E9 ; 1.0832244024150045E10 ; 0.0
63 ; 1.8650486304718565E7 ; 2.0100622145095846E8 ; 1.1325802997872431E9 ; 1.1033244550256454E10 ; 0.0
64 ; 1.8659713306315705E7 ; 2.0101197058988118E8 ; 1.1512307860919616E9 ; 1.1234250771707413E10 ; 0.0
65 ; 1.865848985708266E7 ; 2.0101777179802215E8 ; 1.1698904993982773E9 ; 1.1435262742297295E10 ; 0.0
66 ; 1.8663619559694156E7 ; 2.0102362338664284E8 ; 1.18854898925536E9 ; 1.1636280514095316E10 ; 0.0
67 ; 1.8664283624348287E7 ; 2.0102952370319346E8 ; 1.207212608815054E9 ; 1.1837304137481958E10 ; 0.0
68 ; 1.8675157526104804E7 ; 2.0103547113102046E8 ; 1.2258768924394023E9 ; 1.2038333661185152E10 ; 0.0
69 ; 1.8674221028899E7 ; 2.010414640890169E8 ; 1.244552049965507E9 ; 1.2239369132316172E10 ; 0.0
70 ; 1.8678525046149157E7 ; 2.0104750103122252E8 ; 1.263226270994406E9 ; 1.244041059640519E10 ; 0.0
71 ; 1.868578405158512E7 ; 2.0105358044637844E8 ; 1.2819047960405552E9 ; 1.2641458097436413E10 ; 0.0
72 ; 1.8682747167248607E7 ; 2.0105970085744333E8 ; 1.3005905800921404E9 ; 1.2842511677882792E10 ; 0.0
73 ; 1.8689713953476332E7 ; 2.0106586082107487E8 ; 1.319273327259389E9 ; 1.3043571378740234E10 ; 0.0
74 ; 1.8692716991869982E7 ; 2.0107205892708215E8 ; 1.3379630412128654E9 ; 1.324463723956131E10 ; 0.0
75 ; 1.8692706879245806E7 ; 2.0107829379785293E8 ; 1.3566557582047353E9 ; 1.3445709298488392E10 ; 0.0
76 ; 1.8699325688936986E7 ; 2.0108456408775982E8 ; 1.375348465083981E9 ; 1.3646787592286245E10 ; 0.0
77 ; 1.8697983999331582E7 ; 2.0109086848254952E8 ; 1.394047790772918E9 ; 1.3847872156374004E10 ; 0.0
78 ; 1.869633890131866E7 ; 2.0109720569871768E8 ; 1.4127457747722495E9 ; 1.4048963024856554E10 ; 0.0
79 ; 1.8695038440648258E7 ; 2.0110357448287362E8 ; 1.431442113673568E9 ; 1.4250060230555271E10 ; 0.0
80 ; 1.868968019564269E7 ; 2.011099736110964E8 ; 1.4501371521142163E9 ; 1.4451163805038145E10 ; 0.0
81 ; 1.868216479990447E7 ; 2.0111640188828614E8 ; 1.468826832309859E9 ; 1.4652273778649242E10 ; 0.0
82 ; 1.8683528921347197E7 ; 2.011228581475118E8 ; 1.4875089971097636E9 ; 1.4853390180537529E10 ; 0.0
83 ; 1.8679774276407525E7 ; 2.0112934124935827E8 ; 1.5061925260311108E9 ; 1.5054513038685041E10 ; 0.0
84 ; 1.8676406979947735E7 ; 2.0113585008127415E8 ; 1.5248723003075182E9 ; 1.52556423799344E10 ; 0.0
85 ; 1.8668038720104337E7 ; 2.0114238355692244E8 ; 1.543548707287466E9 ; 1.5456778230015675E10 ; 0.0
86 ; 1.866746940444433E7 ; 2.0114894061553484E8 ; 1.5622167460075703E9 ; 1.5657920613572598E10 ; 0.0
87 ; 1.8661692301068366E7 ; 2.01155520221272E8 ; 1.5808842154120145E9 ; 1.5859069554188133E10 ; 0.0
88 ; 1.865382305520898E7 ; 2.0116212136258984E8 ; 1.5995459077130828E9 ; 1.6060225074409405E10 ; 0.0
89 ; 1.8647293314250316E7 ; 2.0116874305161387E8 ; 1.6181997307682917E9 ; 1.6261387195771996E10 ; 0.0
90 ; 1.864237917243174E7 ; 2.0117538432352194E8 ; 1.636847024082542E9 ; 1.646255593882361E10 ; 0.0
91 ; 1.8640979358977918E7 ; 2.0118204423593614E8 ; 1.6554894032549736E9 ; 1.6663731323147133E10 ; 0.0
92 ; 1.8631728816526964E7 ; 2.0118872186832473E8 ; 1.6741303826139517E9 ; 1.6864913367383068E10 ; 0.0
93 ; 1.862906179488892E7 ; 2.0119541632141477E8 ; 1.6927621114304786E9 ; 1.7066102089251392E10 ; 0.0
94 ; 1.862448053801904E7 ; 2.0120212671661547E8 ; 1.7113911732253675E9 ; 1.7267297505572807E10 ; 0.0
95 ; 1.861552305180703E7 ; 2.0120885219545305E8 ; 1.7300156537633865E9 ; 1.746849963228942E10 ; 0.0
96 ; 1.8605443593576957E7 ; 2.0121559191901734E8 ; 1.7486311768151934E9 ; 1.7669708484484875E10 ; 0.0
97 ; 1.860834410859301E7 ; 2.0122234506742033E8 ; 1.7672366204087703E9 ; 1.7870924076403893E10 ; 0.0
98 ; 1.8599484971505832E7 ; 2.0122911083926663E8 ; 1.7858449645173633E9 ; 1.8072146421471313E10 ; 0.0
99 ; 1.858606161961247E7 ; 2.012358884511365E8 ; 1.8044444494888692E9 ; 1.827337553231058E10 ; 0.0
100 ; 1.8582966143993396E7 ; 2.0124267713708088E8 ; 1.8230305111084816E9 ; 1.847461142076172E10 ; 0.0
101 ; 1.8575297689571038E7 ; 2.0124947614812914E8 ; 1.841613477252475E9 ; 1.86758540978988E10 ; 0.0
102 ; 1.8574601284288175E7 ; 2.0125628475180873E8 ; 1.8601887749420462E9 ; 1.887710357404693E10 ; 0.0
103 ; 1.8564475964141585E7 ; 2.012631022316776E8 ; 1.8787633762263343E9 ; 1.9078359858798737E10 ; 0.0
104 ; 1.855766207231923E7 ; 2.0126992788686836E8 ; 1.897327852190476E9 ; 1.9279622961030415E10 ; 0.0
105 ; 1.8549923348032136E7 ; 2.0127676103164518E8 ; 1.9158855142627952E9 ; 1.9480892888917282E10 ; 0.0
106 ; 1.8543877770666014E7 ; 2.0128360099497193E8 ; 1.9344354376108274E9 ; 1.968216964994893E10 ; 0.0
107 ; 1.8536827472110372E7 ; 2.0129044712009287E8 ; 1.9529793153814936E9 ; 1.98834532509439E10 ; 0.0
108 ; 1.852589604225801E7 ; 2.0129729876412457E8 ; 1.9715161428536038E9 ; 2.0084743698063995E10 ; 0.0
109 ; 1.851952475500476E7 ; 2.0130415529765952E8 ; 1.9900420388958619E9 ; 2.028604099682812E10 ; 0.0
110 ; 1.8508966767704345E7 ; 2.01311016104381E8 ; 2.0085615636508665E9 ; 2.0487345152125782E10 ; 0.0
111 ; 1.8500224130685247E7 ; 2.01317880580689E8 ; 2.0270705304185708E9 ; 2.0688656168230164E10 ; 0.0
112 ; 1.8493085616628893E7 ; 2.0132474813533723E8 ; 2.045570754549256E9 ; 2.0889974048810852E10 ; 0.0
113 ; 1.8482745895202138E7 ; 2.0133161818908042E8 ; 2.064063840165885E9 ; 2.109129879694619E10 ; 0.0
114 ; 1.8475979252492838E7 ; 2.0133849017433235E8 ; 2.0825465860610871E9 ; 2.129263041513527E10 ; 0.0
115 ; 1.8461869663769513E7 ; 2.0134536353483403E8 ; 2.10102256531358E9 ; 2.14939689053096E10 ; 0.0
116 ; 1.845671417770679E7 ; 2.0135223772533178E8 ; 2.1194844349773495E9 ; 2.1695314268844437E10 ; 0.0
117 ; 1.8440986677764043E7 ; 2.0135911221126494E8 ; 2.1379411491550562E9 ; 2.1896666506569767E10 ; 0.0
118 ; 1.8437690431713264E7 ; 2.0136598646846333E8 ; 2.1563821358328204E9 ; 2.2098025618781033E10 ; 0.0
119 ; 1.84254250666129E7 ; 2.013728599828536E8 ; 2.1748198262645335E9 ; 2.2299391605249496E10 ; 0.0
120 ; 1.841634566412683E7 ; 2.0137973225017488E8 ; 2.1932452513311462E9 ; 2.250076446523235E10 ; 0.0
121 ; 1.84063766202466E7 ; 2.0138660277570307E8 ; 2.211661596995273E9 ; 2.2702144197482525E10 ; 0.0
122 ; 1.839719275096969E7 ; 2.0139347107398355E8 ; 2.2300679736155195E9 ; 2.290353080025823E10 ; 0.0
123 ; 1.838873096560634E7 ; 2.0140033666857234E8 ; 2.2484651663664894E9 ; 2.310492427133221E10 ; 0.0
124 ; 1.837233679104414E7 ; 2.0140719909178522E8 ; 2.2668538973320956E9 ; 2.3306324608000782E10 ; 0.0
125 ; 1.836524114640961E7 ; 2.0141405788445476E8 ; 2.28522623412314E9 ; 2.3507731807092567E10 ; 0.0
126 ; 1.835312039540784E7 ; 2.014209125956948E8 ; 2.3035914752695494E9 ; 2.3709145864977024E10 ; 0.0
127 ; 1.8342442689110443E7 ; 2.014277627826725E8 ; 2.321944595664957E9 ; 2.391056677757272E10 ; 0.0
128 ; 1.8328791011862054E7 ; 2.014346080103873E8 ; 2.3402870383540673E9 ; 2.4111994540355392E10 ; 0.0
129 ; 1.8312192579535086E7 ; 2.0144144785145715E8 ; 2.3586158293659296E9 ; 2.431342914836578E10 ; 0.0
130 ; 1.8303759142618086E7 ; 2.0144828188591117E8 ; 2.3769280219454646E9 ; 2.4514870596217236E10 ; 0.0
131 ; 1.82855487987748E7 ; 2.01455109700989E8 ; 2.395231781088083E9 ; 2.4716318878103146E10 ; 0.0
132 ; 1.8270524730212007E7 ; 2.0146193089094654E8 ; 2.4135173298868575E9 ; 2.4917773987804134E10 ; 0.0
133 ; 1.8252334351759855E7 ; 2.014687450568676E8 ; 2.4317878546170697E9 ; 2.511923591869508E10 ; 0.0
134 ; 1.8235624383524913E7 ; 2.0147555180648175E8 ; 2.4500401889688296E9 ; 2.5320704663751945E10 ; 0.0
135 ; 1.821619810308267E7 ; 2.014823507539878E8 ; 2.4682758133523545E9 ; 2.5522180215558426E10 ; 0.0
136 ; 1.8197151168207835E7 ; 2.014891415198828E8 ; 2.486492011455437E9 ; 2.5723662566312412E10 ; 0.0
137 ; 1.817863130084106E7 ; 2.014959237307967E8 ; 2.504689162623645E9 ; 2.5925151707832294E10 ; 0.0
138 ; 1.816404322732373E7 ; 2.015026970193319E8 ; 2.5228677939244857E9 ; 2.612664763156309E10 ; 0.0
139 ; 1.814529884785813E7 ; 2.0150946102390814E8 ; 2.541031837151809E9 ; 2.6328150328582424E10 ; 0.0
140 ; 1.8121724861925602E7 ; 2.015162153886121E8 ; 2.559177135999667E9 ; 2.652965978960633E10 ; 0.0
141 ; 1.8104216179785654E7 ; 2.0152295976305193E8 ; 2.577298860861593E9 ; 2.673117600499494E10 ; 0.0
142 ; 1.8087175876340095E7 ; 2.015296938022163E8 ; 2.5954030770413785E9 ; 2.693269896475799E10 ; 0.0
143 ; 1.80697398669398E7 ; 2.0153641716633776E8 ; 2.6134902529177184E9 ; 2.7134228658560207E10 ; 0.0
144 ; 1.805019296869979E7 ; 2.0154312952076066E8 ; 2.6315599927846584E9 ; 2.7335765075726543E10 ; 0.0
145 ; 1.8035159733384274E7 ; 2.0154983053581303E8 ; 2.6496101857533584E9 ; 2.7537308205247303E10 ; 0.0
146 ; 1.802295814684479E7 ; 2.015565198866826E8 ; 2.6676453454867425E9 ; 2.7738858035783115E10 ; 0.0
147 ; 1.8011201585182924E7 ; 2.015631972532966E8 ; 2.6856683036335874E9 ; 2.79404145556698E10 ; 0.0
148 ; 1.7996064552769788E7 ; 2.0156986232020557E8 ; 2.7036795052187705E9 ; 2.8141977752923096E10 ; 0.0
149 ; 1.79881779496462E7 ; 2.0157651477647048E8 ; 2.72167556977154E9 ; 2.83435476152433E10 ; 0.0
150 ; 1.7974792870835233E7 ; 2.0158315431555367E8 ; 2.739663747721186E9 ; 2.854512413001977E10 ; 0.0
151 ; 1.7961963067421924E7 ; 2.015897806352131E8 ; 2.7576385405920215E9 ; 2.8746707284335327E10 ; 0.0
152 ; 1.7947986103872202E7 ; 2.0159639343739983E8 ; 2.7756005036594434E9 ; 2.894829706497054E10 ; 0.0
153 ; 1.7937123738832336E7 ; 2.0160299242815888E8 ; 2.7935484897633157E9 ; 2.914989345840794E10 ; 0.0
154 ; 1.7921546360404033E7 ; 2.016095773175329E8 ; 2.811485613502148E9 ; 2.9351496450836098E10 ; 0.0
155 ; 1.7911211288215976E7 ; 2.0161614781946918E8 ; 2.829407159862552E9 ; 2.955310602815363E10 ; 0.0
156 ; 1.7897804276577458E7 ; 2.0162270365172926E8 ; 2.8473183711507683E9 ; 2.97547221759731E10 ; 0.0
157 ; 1.7882075642037474E7 ; 2.0162924453580147E8 ; 2.8652161754273458E9 ; 2.995634487962483E10 ; 0.0
158 ; 1.7870360512508456E7 ; 2.016357701968162E8 ; 2.883098251069383E9 ; 3.015797412416063E10 ; 0.0
159 ; 1.786039118618123E7 ; 2.016422803634637E8 ; 2.9009686115818915E9 ; 3.0359609894357445E10 ; 0.0
160 ; 1.7841640687214643E7 ; 2.0164877476791444E8 ; 2.9188290027680726E9 ; 3.056125217472091E10 ; 0.0
161 ; 1.783385826592597E7 ; 2.01655253145742E8 ; 2.9366706434552875E9 ; 3.0762900949488823E10 ; 0.0
162 ; 1.7818128668039467E7 ; 2.0166171523584828E8 ; 2.9545045017212133E9 ; 3.0964556202634563E10 ; 0.0
163 ; 1.7803382722157672E7 ; 2.0166816078039095E8 ; 2.9723226303892527E9 ; 3.116621791787041E10 ; 0.0
164 ; 1.778945553981373E7 ; 2.0167458952471313E8 ; 2.99012601311141E9 ; 3.1367886078650803E10 ; 0.0
165 ; 1.7776719161881022E7 ; 2.016810012172754E8 ; 3.0079154686512237E9 ; 3.1569560668175514E10 ; 0.0
166 ; 1.7767390822264533E7 ; 2.0168739560958958E8 ; 3.0256921878131046E9 ; 3.1771241669392788E10 ; 0.0
167 ; 1.7751972001036342E7 ; 2.0169377245615482E8 ; 3.0434595786353693E9 ; 3.1972929065002377E10 ; 0.0
168 ; 1.773940545449446E7 ; 2.0170013151439536E8 ; 3.0612115506364055E9 ; 3.217462283745853E10 ; 0.0
169 ; 1.772150805617772E7 ; 2.017064725446005E8 ; 3.0789509560909E9 ; 3.2376322968972927E10 ; 0.0
170 ; 1.7710035859283473E7 ; 2.0171279530986595E8 ; 3.0966724641470776E9 ; 3.257802944151753E10 ; 0.0
171 ; 1.769182926256319E7 ; 2.017190995760375E8 ; 3.114382500006361E9 ; 3.2779742236827393E10 ; 0.0
172 ; 1.768018756818254E7 ; 2.0172538511165583E8 ; 3.132074329268924E9 ; 3.298146133640343E10 ; 0.0
173 ; 1.7672097974266242E7 ; 2.0173165168790343E8 ; 3.1497545168371067E9 ; 3.3183186721515087E10 ; 0.0
174 ; 1.7660059241015654E7 ; 2.0173789907855284E8 ; 3.1674266148113728E9 ; 3.338491837320299E10 ; 0.0
175 ; 1.7649936435887925E7 ; 2.0174412705991653E8 ; 3.185086674052388E9 ; 3.3586656272281544E10 ; 0.0
176 ; 1.7642248512696546E7 ; 2.0175033541079825E8 ; 3.202736610488276E9 ; 3.378840039934146E10 ; 0.0
177 ; 1.763521704164366E7 ; 2.0175652391244596E8 ; 3.2203788590009727E9 ; 3.399015073475226E10 ; 0.0
178 ; 1.7625508058097642E7 ; 2.01762692348506E8 ; 3.2380140760426164E9 ; 3.4191907258664703E10 ; 0.0
179 ; 1.761482011944869E7 ; 2.0176884050497866E8 ; 3.255639584100714E9 ; 3.439366995101321E10 ; 0.0
180 ; 1.7607522674269214E7 ; 2.0177496817017508E8 ; 3.273254404220163E9 ; 3.459543879151819E10 ; 0.0
181 ; 1.7598203693061784E7 ; 2.0178107513467556E8 ; 3.290861926894432E9 ; 3.479721375968836E10 ; 0.0
182 ; 1.759096980297285E7 ; 2.017871611912889E8 ; 3.308460130587494E9 ; 3.499899483482304E10 ; 0.0
183 ; 1.7583102708327744E7 ; 2.0179322613501287E8 ; 3.3260511003904667E9 ; 3.520078199601433E10 ; 0.0
184 ; 1.757437282600064E7 ; 2.0179926976299635E8 ; 3.3436342030987945E9 ; 3.540257522214934E10 ; 0.0
185 ; 1.7566739305379003E7 ; 2.0180529187450188E8 ; 3.361208575924795E9 ; 3.560437449191233E10 ; 0.0
186 ; 1.7557026710936435E7 ; 2.0181129227086985E8 ; 3.378775315230174E9 ; 3.5806179783786835E10 ; 0.0
187 ; 1.75460690650343E7 ; 2.0181727075548348E8 ; 3.3963323419411106E9 ; 3.60079910760577E10 ; 0.0
188 ; 1.753714755578589E7 ; 2.0182322713373488E8 ; 3.413878411006145E9 ; 3.620980834681319E10 ; 0.0
189 ; 1.7533991913102664E7 ; 2.0182916121299213E8 ; 3.4314155585619307E9 ; 3.641163157394692E10 ; 0.0
190 ; 1.7523231955714952E7 ; 2.0183507280256727E8 ; 3.4489495504750333E9 ; 3.661346073515991E10 ; 0.0
191 ; 1.7510430007559486E7 ; 2.0184096171368533E8 ; 3.4664727824307485E9 ; 3.681529580796248E10 ; 0.0
192 ; 1.750319538281453E7 ; 2.0184682775945398E8 ; 3.483983212438308E9 ; 3.701713676967616E10 ; 0.0
193 ; 1.7496917238391858E7 ; 2.0185267075483444E8 ; 3.501486407821122E9 ; 3.7218983597435616E10 ; 0.0
194 ; 1.7486899000126854E7 ; 2.0185849051661298E8 ; 3.518983325059514E9 ; 3.742083626819045E10 ; 0.0
195 ; 1.7478511061463155E7 ; 2.0186428686337325E8 ; 3.536470224059641E9 ; 3.762269475870706E10 ; 0.0
