CSV File for the City 3 on Day 13
1 - Minute m 
2 - Power Consumed at minute m 
3 - Power Produced at minute m 
4 - Energy Consumed since the beginning of the day 
5 - Energy Produced since the beginning of the day 
6 - Energy Lost since the beginning of the day on lines starting from the city
 
0 ; 2372683.398334833 ; 1.0526622918574092E8 ; 0.0 ; 0.0 ; 0.0
1 ; 2374644.2355671856 ; 1.0541758768610275E8 ; 2372683.398334833 ; 1.0526622918574092E8 ; 0.0
2 ; 2378732.290954577 ; 1.0587782440661791E8 ; 4747327.633902019 ; 2.1068381687184367E8 ; 0.0
3 ; 2381535.3073321288 ; 1.0664695954048014E8 ; 7126059.924856596 ; 3.165616412784616E8 ; 0.0
4 ; 2384653.0797535256 ; 1.077250133835733E8 ; 9507595.232188724 ; 4.232086008189417E8 ; 0.0
5 ; 2390166.254007037 ; 1.0911200576398444E8 ; 1.189224831194225E7 ; 5.30933614202515E8 ; 0.0
6 ; 2394791.9959625094 ; 1.1080795536198649E8 ; 1.4282414565949287E7 ; 6.400456199664994E8 ; 0.0
7 ; 2402945.911517592 ; 1.1281287895375252E8 ; 1.6677206561911797E7 ; 7.50853575328486E8 ; 0.0
8 ; 2414292.7451317515 ; 1.1512679063313651E8 ; 1.908015247342939E7 ; 8.636664542822385E8 ; 0.0
9 ; 2431797.6885497104 ; 1.1774970108336079E8 ; 2.1494445218561143E7 ; 9.78793244915375E8 ; 0.0
10 ; 2456848.2129735174 ; 1.2068161697860157E8 ; 2.3926242907110855E7 ; 1.096542945998736E9 ; 0.0
11 ; 2497330.539808352 ; 1.2392254058953366E8 ; 2.638309112008437E7 ; 1.2172245629773374E9 ; 0.0
12 ; 2564391.330088788 ; 1.2747246964548221E8 ; 2.8880421659892723E7 ; 1.341147103566871E9 ; 0.0
13 ; 2627396.645642252 ; 1.3133139747227103E8 ; 3.144481298998151E7 ; 1.4686195732123532E9 ; 0.0
14 ; 2635449.1137688 ; 1.3549931338667786E8 ; 3.407220963562376E7 ; 1.5999509706846242E9 ; 0.0
15 ; 2638148.6071947985 ; 1.3997620329484862E8 ; 3.670765874939256E7 ; 1.735450284071302E9 ; 0.0
16 ; 2641623.0338992923 ; 1.4476205042061034E8 ; 3.934580735658736E7 ; 1.8754264873661506E9 ; 0.0
17 ; 2644696.011579227 ; 1.4985683608369002E8 ; 4.198743039048665E7 ; 2.020188537786761E9 ; 0.0
18 ; 2647052.473643022 ; 1.5526054045600063E8 ; 4.463212640206588E7 ; 2.170045373870451E9 ; 0.0
19 ; 2650037.3654979146 ; 1.609731432416583E8 ; 4.72791788757089E7 ; 2.325305914326452E9 ; 0.0
20 ; 2652770.8505211696 ; 1.6699462424746928E8 ; 4.992921624120682E7 ; 2.48627905756811E9 ; 0.0
21 ; 2656432.6484620986 ; 1.7332496383039996E8 ; 5.258198709172799E7 ; 2.6532736818155794E9 ; 0.0
22 ; 2660708.228750701 ; 1.7996414322404796E8 ; 5.523841974019009E7 ; 2.8265986456459794E9 ; 0.0
23 ; 2662887.5694339597 ; 1.8691214475635678E8 ; 5.789912796894079E7 ; 3.0065627888700275E9 ; 0.0
24 ; 2665143.082996823 ; 1.9416895197614163E8 ; 6.0562015538374744E7 ; 3.1934749336263843E9 ; 0.0
25 ; 2667403.4032503343 ; 2.0042259060572112E8 ; 6.322715862137157E7 ; 3.3876438856025257E9 ; 0.0
26 ; 2670948.5996457417 ; 2.0042659457833758E8 ; 6.5894562024621904E7 ; 3.5880664762082467E9 ; 0.0
27 ; 2674413.6828157427 ; 2.0043072052548844E8 ; 6.856551062426765E7 ; 3.7884930707865844E9 ; 0.0
28 ; 2678834.3208438866 ; 2.0043495696098912E8 ; 7.12399243070834E7 ; 3.9889237913120728E9 ; 0.0
29 ; 2680755.73131765 ; 2.0043929349646577E8 ; 7.391875862792729E7 ; 4.1893587482730618E9 ; 0.0
30 ; 2682314.151206327 ; 2.004437207560833E8 ; 7.659951435924494E7 ; 4.389798041769527E9 ; 0.0
31 ; 2688180.621941158 ; 2.0044823028912747E8 ; 7.928182851045127E7 ; 4.590241762525611E9 ; 0.0
32 ; 2688006.470776455 ; 2.004528144841082E8 ; 8.197000913239244E7 ; 4.790689992814738E9 ; 0.0
33 ; 2691034.970033977 ; 2.004574664867472E8 ; 8.465801560316889E7 ; 4.991142807298846E9 ; 0.0
34 ; 2694873.507541078 ; 2.004621801232517E8 ; 8.734905057320286E7 ; 5.191600273785593E9 ; 0.0
35 ; 2697151.049958897 ; 2.004669498295916E8 ; 9.004392408074394E7 ; 5.392062453908845E9 ; 0.0
36 ; 2698037.28518408 ; 2.0047177058702317E8 ; 9.274107513070284E7 ; 5.592529403738437E9 ; 0.0
37 ; 2701363.8891874775 ; 2.0047663786378914E8 ; 9.543911241588692E7 ; 5.7930011743254595E9 ; 0.0
38 ; 2702672.029954443 ; 2.004815475627267E8 ; 9.81404763050744E7 ; 5.993477812189249E9 ; 0.0
39 ; 2705424.7125704912 ; 2.004864959744002E8 ; 1.0084314833502884E8 ; 6.193959359751976E9 ; 0.0
40 ; 2709090.4909086013 ; 2.0049147973531577E8 ; 1.0354857304759933E8 ; 6.394445855726377E9 ; 0.0
41 ; 2710340.1621121247 ; 2.0049649579075703E8 ; 1.0625766353850794E8 ; 6.594937335461692E9 ; 0.0
42 ; 2711765.646361861 ; 2.005015413617842E8 ; 1.0896800370062007E8 ; 6.795433831252449E9 ; 0.0
43 ; 2713460.0816700663 ; 2.0050661391596085E8 ; 1.1167976934698193E8 ; 6.995935372614233E9 ; 0.0
44 ; 2713949.7046659105 ; 2.0051171114140162E8 ; 1.1439322942865199E8 ; 7.196441986530194E9 ; 0.0
45 ; 2718163.2644816525 ; 2.0051683092376748E8 ; 1.171071791333179E8 ; 7.396953697671596E9 ; 0.0
46 ; 2717215.566291478 ; 2.005219713258705E8 ; 1.1982534239779955E8 ; 7.597470528595363E9 ; 0.0
47 ; 2719369.8310987335 ; 2.0052713056958485E8 ; 1.2254255796409103E8 ; 7.797992499921233E9 ; 0.0
48 ; 2721365.5861586244 ; 2.0053230701979282E8 ; 1.2526192779518977E8 ; 7.998519630490818E9 ; 0.0
49 ; 2721812.477055613 ; 2.0053749917012614E8 ; 1.2798329338134839E8 ; 8.199051937510611E9 ; 0.0
50 ; 2723656.037766296 ; 2.005427056302894E8 ; 1.30705105858404E8 ; 8.399589436680737E9 ; 0.0
51 ; 2723810.01252324 ; 2.0054792511477935E8 ; 1.3342876189617029E8 ; 8.600132142311026E9 ; 0.0
52 ; 2722728.237326138 ; 2.0055315643283412E8 ; 1.3615257190869352E8 ; 8.800680067425804E9 ; 0.0
53 ; 2724382.078745348 ; 2.0055839847946832E8 ; 1.3887530014601967E8 ; 9.001233223858639E9 ; 0.0
54 ; 2724527.7281356617 ; 2.0056365022746676E8 ; 1.41599682224765E8 ; 9.201791622338106E9 ; 0.0
55 ; 2725663.4935776563 ; 2.005689107202249E8 ; 1.4432420995290068E8 ; 9.402355272565573E9 ; 0.0
56 ; 2726945.7430799576 ; 2.0057417906533816E8 ; 1.4704987344647834E8 ; 9.602924183285797E9 ; 0.0
57 ; 2725437.056145632 ; 2.0057945442885476E8 ; 1.497768191895583E8 ; 9.803498362351135E9 ; 0.0
58 ; 2726894.885174529 ; 2.0058473603011563E8 ; 1.5250225624570394E8 ; 1.000407781677999E10 ; 0.0
59 ; 2727150.2404635265 ; 2.0059002313711596E8 ; 1.5522915113087848E8 ; 1.0204662552810104E10 ; 0.0
60 ; 2729537.6477123103 ; 2.005953150623298E8 ; 1.57956301371342E8 ; 1.040525257594722E10 ; 0.0
61 ; 2728405.7137492965 ; 2.0060061115894657E8 ; 1.6068583901905432E8 ; 1.060584789100955E10 ; 0.0
62 ; 2727923.8784258706 ; 2.0060591081747416E8 ; 1.634142447328036E8 ; 1.0806448502168497E10 ; 0.0
63 ; 2729716.5688208793 ; 2.0061121346266904E8 ; 1.6614216861122948E8 ; 1.1007054412985971E10 ; 0.0
64 ; 2731086.0145325526 ; 2.0061651855075836E8 ; 1.6887188518005037E8 ; 1.120766562644864E10 ; 0.0
65 ; 2729956.083704333 ; 2.0062182556692293E8 ; 1.7160297119458294E8 ; 1.14082821449994E10 ; 0.0
66 ; 2731730.496736648 ; 2.006271340230136E8 ; 1.7433292727828726E8 ; 1.1608903970566322E10 ; 0.0
67 ; 2730849.6788449003 ; 2.0063244345547697E8 ; 1.770646577750239E8 ; 1.1809531104589336E10 ; 0.0
68 ; 2732495.9993729624 ; 2.00637753423469E8 ; 1.797955074538688E8 ; 1.2010163548044813E10 ; 0.0
69 ; 2731390.699178493 ; 2.00643063507137E8 ; 1.8252800345324177E8 ; 1.2210801301468283E10 ; 0.0
70 ; 2732505.1136522666 ; 2.0064837330605355E8 ; 1.8525939415242025E8 ; 1.241144436497542E10 ; 0.0
71 ; 2732402.364842872 ; 2.0065368243778718E8 ; 1.879918992660725E8 ; 1.2612092738281473E10 ; 0.0
72 ; 2732997.2005884666 ; 2.0065899053659603E8 ; 1.9072430163091537E8 ; 1.2812746420719261E10 ; 0.0
73 ; 2732411.316521731 ; 2.0066429725223306E8 ; 1.9345729883150384E8 ; 1.3013405411255857E10 ; 0.0
74 ; 2733072.5633152975 ; 2.0066960224885157E8 ; 1.9618971014802557E8 ; 1.3214069708508091E10 ; 0.0
75 ; 2731871.358514266 ; 2.0067490520400196E8 ; 1.9892278271134087E8 ; 1.3414739310756943E10 ; 0.0
76 ; 2733019.440471166 ; 2.0068020580771092E8 ; 2.0165465406985515E8 ; 1.3615414215960945E10 ; 0.0
77 ; 2732509.280517771 ; 2.006855037616353E8 ; 2.0438767351032633E8 ; 1.3816094421768656E10 ; 0.0
78 ; 2731776.0482468056 ; 2.0069079877828413E8 ; 2.0712018279084408E8 ; 1.401677992553029E10 ; 0.0
79 ; 2732375.6478045057 ; 2.0069609058030224E8 ; 2.0985195883909088E8 ; 1.4217470724308575E10 ; 0.0
80 ; 2731247.3209450045 ; 2.0070137889981022E8 ; 2.1258433448689538E8 ; 1.4418166814888878E10 ; 0.0
81 ; 2731667.971714601 ; 2.0070666347779554E8 ; 2.1531558180784038E8 ; 1.4618868193788689E10 ; 0.0
82 ; 2731446.977915257 ; 2.007119440635504E8 ; 2.1804724977955496E8 ; 1.4819574857266483E10 ; 0.0
83 ; 2728353.902574779 ; 2.0071722041415232E8 ; 2.2077869675747022E8 ; 1.5020286801330034E10 ; 0.0
84 ; 2729842.5598472874 ; 2.0072249229398352E8 ; 2.23507050660045E8 ; 1.5221004021744186E10 ; 0.0
85 ; 2726060.418306294 ; 2.0072775947428617E8 ; 2.262368932198923E8 ; 1.542172651403817E10 ; 0.0
86 ; 2724648.806769902 ; 2.007330217327504E8 ; 2.2896295363819858E8 ; 1.5622454273512457E10 ; 0.0
87 ; 2724289.1961205173 ; 2.007382788531317E8 ; 2.316876024449685E8 ; 1.5823187295245207E10 ; 0.0
88 ; 2725091.7628606437 ; 2.0074353062489673E8 ; 2.3441189164108902E8 ; 1.602392557409834E10 ; 0.0
89 ; 2722069.8503536005 ; 2.007487768428934E8 ; 2.3713698340394968E8 ; 1.6224669104723236E10 ; 0.0
90 ; 2720513.4816640406 ; 2.0075401730704468E8 ; 2.3985905325430328E8 ; 1.642541788156613E10 ; 0.0
91 ; 2721124.9143416053 ; 2.007592518220639E8 ; 2.425795667359673E8 ; 1.6626171898873175E10 ; 0.0
92 ; 2719436.803812417 ; 2.0076448019718912E8 ; 2.453006916503089E8 ; 1.6826931150695238E10 ; 0.0
93 ; 2717724.448156736 ; 2.0076970224593627E8 ; 2.4802012845412132E8 ; 1.7027695630892427E10 ; 0.0
94 ; 2718046.690518379 ; 2.007749177858685E8 ; 2.5073785290227807E8 ; 1.7228465333138363E10 ; 0.0
95 ; 2716541.492662012 ; 2.0078012663838124E8 ; 2.5345589959279644E8 ; 1.7429240250924232E10 ; 0.0
96 ; 2715130.9254290955 ; 2.0078532862850147E8 ; 2.5617244108545846E8 ; 1.7630020377562614E10 ; 0.0
97 ; 2713998.677447505 ; 2.0079052358470014E8 ; 2.5888757201088756E8 ; 1.7830805706191116E10 ; 0.0
98 ; 2712387.5393593097 ; 2.0079571133871672E8 ; 2.6160157068833506E8 ; 1.8031596229775818E10 ; 0.0
99 ; 2710809.3843226526 ; 2.0080089172539526E8 ; 2.6431395822769436E8 ; 1.8232391941114536E10 ; 0.0
100 ; 2709202.0905777654 ; 2.008060645825308E8 ; 2.67024767612017E8 ; 1.843319283283993E10 ; 0.0
101 ; 2709533.0556154014 ; 2.0081122975072545E8 ; 2.6973396970259476E8 ; 1.8633998897422462E10 ; 0.0
102 ; 2707213.862024451 ; 2.0081638707325354E8 ; 2.724435027582102E8 ; 1.8834810127173187E10 ; 0.0
103 ; 2705948.510399157 ; 2.008215363959353E8 ; 2.751507166202346E8 ; 1.903562651424644E10 ; 0.0
104 ; 2704122.3949560462 ; 2.0082667756701803E8 ; 2.778566651306338E8 ; 1.9236448050642376E10 ; 0.0
105 ; 2703704.410997369 ; 2.008318104370649E8 ; 2.805607875255898E8 ; 1.9437274728209393E10 ; 0.0
106 ; 2700222.181369333 ; 2.0083693485885003E8 ; 2.832644919365872E8 ; 1.9638106538646458E10 ; 0.0
107 ; 2701114.9787961855 ; 2.0084205068726042E8 ; 2.859647141179565E8 ; 1.9838943473505306E10 ; 0.0
108 ; 2697168.811922987 ; 2.0084715777920318E8 ; 2.886658290967527E8 ; 2.0039785524192566E10 ; 0.0
109 ; 2697713.0557988356 ; 2.0085225599351868E8 ; 2.913629979086757E8 ; 2.0240632681971767E10 ; 0.0
110 ; 2694762.826922299 ; 2.008573451908985E8 ; 2.940607109644745E8 ; 2.0441484937965286E10 ; 0.0
111 ; 2693326.945956464 ; 2.0086242523380834E8 ; 2.967554737913968E8 ; 2.0642342283156185E10 ; 0.0
112 ; 2691865.8717657113 ; 2.0086749598641527E8 ; 2.9944880073735327E8 ; 2.084320470838999E10 ; 0.0
113 ; 2691117.2998690763 ; 2.0087255731451917E8 ; 3.02140666609119E8 ; 2.1044072204376408E10 ; 0.0
114 ; 2689198.5501209777 ; 2.008776090854881E8 ; 3.0483178390898806E8 ; 2.1244944761690926E10 ; 0.0
115 ; 2686510.3637748286 ; 2.008826511681974E8 ; 3.07520982459109E8 ; 2.1445822370776413E10 ; 0.0
116 ; 2685441.220017422 ; 2.0088768343297184E8 ; 3.1020749282288384E8 ; 2.164670502194461E10 ; 0.0
117 ; 2684563.12092842 ; 2.0089270575153157E8 ; 3.128929340429013E8 ; 2.1847592705377583E10 ; 0.0
118 ; 2681558.3732111426 ; 2.0089771799694052E8 ; 3.155774971638297E8 ; 2.2048485411129112E10 ; 0.0
119 ; 2681291.6553822993 ; 2.0090272004355803E8 ; 3.182590555370408E8 ; 2.2249383129126053E10 ; 0.0
120 ; 2679570.7265880667 ; 2.0090771176699278E8 ; 3.209403471924231E8 ; 2.245028584916961E10 ; 0.0
121 ; 2676684.266540216 ; 2.009126930440594E8 ; 3.236199179190112E8 ; 2.2651193560936604E10 ; 0.0
122 ; 2675424.1290557114 ; 2.0091766375273755E8 ; 3.262966021855514E8 ; 2.2852106253980663E10 ; 0.0
123 ; 2674247.0660654567 ; 2.009226237721329E8 ; 3.2897202631460714E8 ; 2.3053023917733402E10 ; 0.0
124 ; 2670686.3477349584 ; 2.0092757298244035E8 ; 3.316462733806726E8 ; 2.3253946541505535E10 ; 0.0
125 ; 2668720.0148979644 ; 2.0093251126490915E8 ; 3.3431695972840756E8 ; 2.3454874114487976E10 ; 0.0
126 ; 2667252.6074075936 ; 2.0093743850180987E8 ; 3.369856797433055E8 ; 2.3655806625752884E10 ; 0.0
127 ; 2663947.174603106 ; 2.009423545764032E8 ; 3.396529323507131E8 ; 2.3856744064254692E10 ; 0.0
128 ; 2661402.147571005 ; 2.009472593729101E8 ; 3.423168795253162E8 ; 2.4057686418831097E10 ; 0.0
129 ; 2660567.168631972 ; 2.0095215277648383E8 ; 3.449782816728872E8 ; 2.4258633678204006E10 ; 0.0
130 ; 2658432.577443422 ; 2.0095703467318308E8 ; 3.476388488415192E8 ; 2.445958583098049E10 ; 0.0
131 ; 2655681.229963007 ; 2.0096190494994682E8 ; 3.502972814189626E8 ; 2.4660542865653675E10 ; 0.0
132 ; 2651520.6991998767 ; 2.0096676349457014E8 ; 3.529529626489256E8 ; 2.4861504770603622E10 ; 0.0
133 ; 2649374.758172915 ; 2.0097161019568145E8 ; 3.5560448334812546E8 ; 2.5062471534098194E10 ; 0.0
134 ; 2646385.921915536 ; 2.0097644494272095E8 ; 3.582538581062984E8 ; 2.5263443144293877E10 ; 0.0
135 ; 2643503.569611258 ; 2.0098126762591988E8 ; 3.609002440282139E8 ; 2.54644195892366E10 ; 0.0
136 ; 2640408.258093153 ; 2.00986078136281E8 ; 3.6354374759782517E8 ; 2.566540085686252E10 ; 0.0
137 ; 2637386.4404411307 ; 2.0099087636556023E8 ; 3.6618415585591835E8 ; 2.58663869349988E10 ; 0.0
138 ; 2635426.7762000086 ; 2.009956622062487E8 ; 3.688215422963595E8 ; 2.6067377811364357E10 ; 0.0
139 ; 2630770.615329471 ; 2.0100043555155623E8 ; 3.714569690725595E8 ; 2.6268373473570606E10 ; 0.0
140 ; 2629251.9887123834 ; 2.0100519629539523E8 ; 3.740877396878889E8 ; 2.646937390912216E10 ; 0.0
141 ; 2623947.13708203 ; 2.010099443323657E8 ; 3.767169916766013E8 ; 2.6670379105417557E10 ; 0.0
142 ; 2621402.2095462065 ; 2.0101467955774063E8 ; 3.7934093881368333E8 ; 2.6871389049749924E10 ; 0.0
143 ; 2619813.3654858754 ; 2.010194018674525E8 ; 3.8196234102322954E8 ; 2.7072403729307663E10 ; 0.0
144 ; 2615440.1146604293 ; 2.0102411115808013E8 ; 3.845821543887154E8 ; 2.7273423131175114E10 ; 0.0
145 ; 2612369.774663729 ; 2.0102880732683623E8 ; 3.871975945033758E8 ; 2.7474447242333195E10 ; 0.0
146 ; 2610945.840476433 ; 2.0103349027155575E8 ; 3.898099642780396E8 ; 2.767547604966003E10 ; 0.0
147 ; 2608050.322734127 ; 2.0103815989068457E8 ; 3.92420910118516E8 ; 2.7876509539931587E10 ; 0.0
148 ; 2604742.3681448186 ; 2.0104281608326882E8 ; 3.9502896044125015E8 ; 2.8077547699822273E10 ; 0.0
149 ; 2603826.9731590296 ; 2.0104745874894482E8 ; 3.9763370280939496E8 ; 2.827859051590554E10 ; 0.0
150 ; 2601867.0918589183 ; 2.0105208778792927E8 ; 4.00237529782554E8 ; 2.8479637974654484E10 ; 0.0
151 ; 2600302.6025252035 ; 2.0105670310101017E8 ; 4.028393968744129E8 ; 2.8680690062442413E10 ; 0.0
152 ; 2597834.54269374 ; 2.0106130458953798E8 ; 4.0543969947693807E8 ; 2.8881746765543423E10 ; 0.0
153 ; 2594471.062245151 ; 2.0106589215541738E8 ; 4.080375340196318E8 ; 2.908280807013296E10 ; 0.0
154 ; 2593260.67679939 ; 2.0107046570109934E8 ; 4.1063200508187693E8 ; 2.928387396228838E10 ; 0.0
155 ; 2591708.177216075 ; 2.010750251295735E8 ; 4.1322526575867635E8 ; 2.948494442798948E10 ; 0.0
156 ; 2587279.3009198443 ; 2.01079570344361E8 ; 4.158169739358924E8 ; 2.9686019453119053E10 ; 0.0
157 ; 2587218.6651461674 ; 2.010841012495078E8 ; 4.1840425323681223E8 ; 2.9887099023463413E10 ; 0.0
158 ; 2584654.500582724 ; 2.0108861774957803E8 ; 4.209914719019584E8 ; 3.008818312471292E10 ; 0.0
159 ; 2579962.1868616133 ; 2.0109311974964792E8 ; 4.235761264025411E8 ; 3.0289271742462498E10 ; 0.0
160 ; 2578562.6942111864 ; 2.0109760715529978E8 ; 4.2615608858940274E8 ; 3.0490364862212147E10 ; 0.0
161 ; 2578098.7895033765 ; 2.0110207987261662E8 ; 4.287346512836139E8 ; 3.0691462469367447E10 ; 0.0
162 ; 2574356.506008959 ; 2.0110653780817667E8 ; 4.313127500731173E8 ; 3.0892564549240063E10 ; 0.0
163 ; 2573034.226115371 ; 2.011109808690484E8 ; 4.338871065791263E8 ; 3.109367108704824E10 ; 0.0
164 ; 2569353.925562147 ; 2.0111540896278575E8 ; 4.3646014080524164E8 ; 3.129478206791729E10 ; 0.0
165 ; 2566786.111282266 ; 2.011198219974235E8 ; 4.390294947308038E8 ; 3.1495897476880077E10 ; 0.0
166 ; 2563335.749516551 ; 2.01124219881473E8 ; 4.415962808420861E8 ; 3.1697017298877502E10 ; 0.0
167 ; 2562267.78645478 ; 2.0112860252391797E8 ; 4.441596165916026E8 ; 3.1898141518758976E10 ; 0.0
168 ; 2561463.9670785414 ; 2.0113296983421072E8 ; 4.467218843780574E8 ; 3.2099270121282894E10 ; 0.0
169 ; 2556486.8837436726 ; 2.0113732172226837E8 ; 4.49283348345136E8 ; 3.2300403091117104E10 ; 0.0
170 ; 2553743.731947629 ; 2.011416580984693E8 ; 4.5183983522887963E8 ; 3.250154041283937E10 ; 0.0
171 ; 2552894.238032713 ; 2.0114597887364987E8 ; 4.5439357896082723E8 ; 3.270268207093784E10 ; 0.0
172 ; 2550993.9249433 ; 2.0115028395910123E8 ; 4.5694647319885993E8 ; 3.290382804981149E10 ; 0.0
173 ; 2546410.277550512 ; 2.011545732665664E8 ; 4.5949746712380326E8 ; 3.310497833377059E10 ; 0.0
174 ; 2546354.741821584 ; 2.011588467082373E8 ; 4.620438774013538E8 ; 3.330613290703716E10 ; 0.0
175 ; 2544475.29424062 ; 2.0116310419675213E8 ; 4.6459023214317536E8 ; 3.3507291753745396E10 ; 0.0
176 ; 2543343.233520725 ; 2.0116734564519292E8 ; 4.6713470743741596E8 ; 3.3708454857942146E10 ; 0.0
177 ; 2540980.8785838364 ; 2.0117157096708298E8 ; 4.696780506709367E8 ; 3.3909622203587337E10 ; 0.0
178 ; 2541299.061789371 ; 2.0117578007638472E8 ; 4.7221903154952055E8 ; 3.411079377455442E10 ; 0.0
179 ; 2537073.0322201317 ; 2.0117997288749748E8 ; 4.7476033061130995E8 ; 3.4311969554630806E10 ; 0.0
180 ; 2536445.674193855 ; 2.0118414931525555E8 ; 4.772974036435301E8 ; 3.45131495275183E10 ; 0.0
181 ; 2534021.830609608 ; 2.011883092749262E8 ; 4.7983384931772393E8 ; 3.471433367683356E10 ; 0.0
182 ; 2535127.11703849 ; 2.0119245268220797E8 ; 4.8236787114833355E8 ; 3.491552198610848E10 ; 0.0
183 ; 2533133.0272801598 ; 2.0119657945322895E8 ; 4.8490299826537204E8 ; 3.511671443879069E10 ; 0.0
184 ; 2530466.362073287 ; 2.0120068950454524E8 ; 4.874361312926522E8 ; 3.531791101824392E10 ; 0.0
185 ; 2530121.608118599 ; 2.0120478275313932E8 ; 4.899665976547255E8 ; 3.551911170774847E10 ; 0.0
186 ; 2528718.350873316 ; 2.0120885911641893E8 ; 4.924967192628441E8 ; 3.57203164905016E10 ; 0.0
187 ; 2526478.7297877963 ; 2.0121291851221552E8 ; 4.950254376137174E8 ; 3.592152534961802E10 ; 0.0
188 ; 2526038.307408613 ; 2.012169608587832E8 ; 4.9755191634350514E8 ; 3.612273826813023E10 ; 0.0
189 ; 2524575.6753073726 ; 2.012209860747975E8 ; 5.000779546509138E8 ; 3.632395522898901E10 ; 0.0
190 ; 2523806.2447872064 ; 2.012249940793545E8 ; 5.0260253032622117E8 ; 3.652517621506381E10 ; 0.0
191 ; 2523276.7484186147 ; 2.012289847919696E8 ; 5.051263365710084E8 ; 3.6726401209143166E10 ; 0.0
192 ; 2520076.291716145 ; 2.0123295813257688E8 ; 5.07649613319427E8 ; 3.6927630193935135E10 ; 0.0
193 ; 2517062.733188622 ; 2.012369140215281E8 ; 5.101696896111432E8 ; 3.712886315206771E10 ; 0.0
194 ; 2516677.9639547993 ; 2.01240852379592E8 ; 5.126867523443318E8 ; 3.733010006608924E10 ; 0.0
195 ; 2513367.871795173 ; 2.0124477312795368E8 ; 5.152034303082866E8 ; 3.7531340918468834E10 ; 0.0
196 ; 2514269.845821804 ; 2.0124867618821377E8 ; 5.177167981800818E8 ; 3.773258569159679E10 ; 0.0
197 ; 2511109.3124506157 ; 2.0125256148238808E8 ; 5.202310680259036E8 ; 3.7933834367785E10 ; 0.0
198 ; 2511355.1227595676 ; 2.0125642893290696E8 ; 5.227421773383542E8 ; 3.8135086929267395E10 ; 0.0
199 ; 2508187.57248108 ; 2.012602784626148E8 ; 5.2525353246111375E8 ; 3.83363433582003E10 ; 0.0
200 ; 2508820.01040593 ; 2.0126410999476972E8 ; 5.2776172003359485E8 ; 3.853760363666292E10 ; 0.0
