CSV File for the City 1 on Day 91
1 - Minute m 
2 - Power Consumed at minute m 
3 - Power Produced at minute m 
4 - Energy Consumed since the beginning of the day 
5 - Energy Produced since the beginning of the day 
6 - Energy Lost since the beginning of the day on lines starting from the city
 
0 ; 1.6083059234576914E7 ; 1.0553480737746444E8 ; 0.0 ; 0.0 ; 0.0
1 ; 1.610388847346952E7 ; 1.0568775566472393E8 ; 1.6083059234576914E7 ; 1.0553480737746444E8 ; 0.0
2 ; 1.611587367194752E7 ; 1.0614948583308885E8 ; 3.2186947708046436E7 ; 2.1122256304218838E8 ; 0.0
3 ; 1.6142502657464381E7 ; 1.0691999937619978E8 ; 4.830282137999396E7 ; 3.173720488752772E8 ; 0.0
4 ; 1.6164862636192583E7 ; 1.0799929763277775E8 ; 6.4445324037458345E7 ; 4.24292048251477E8 ; 0.0
5 ; 1.61895083399363E7 ; 1.0938738177915621E8 ; 8.061018667365092E7 ; 5.3229134588425475E8 ; 0.0
6 ; 1.622781375677177E7 ; 1.1108425282259127E8 ; 9.679969501358722E7 ; 6.416787276634109E8 ; 0.0
7 ; 1.6280355927797718E7 ; 1.1308991159543967E8 ; 1.13027508770359E8 ; 7.527629804860022E8 ; 0.0
8 ; 1.6359539073604202E7 ; 1.154043587502814E8 ; 1.2930786469815671E8 ; 8.658528920814419E8 ; 0.0
9 ; 1.648152668215321E7 ; 1.1802759475605386E8 ; 1.456674037717609E8 ; 9.812572508317232E8 ; 0.0
10 ; 1.6661395688171027E7 ; 1.2095961989525092E8 ; 1.621489304539141E8 ; 1.0992848455877771E9 ; 0.0
11 ; 1.694991082444128E7 ; 1.2420043426222673E8 ; 1.7881032614208513E8 ; 1.220244465483028E9 ; 0.0
12 ; 1.7413640118755825E7 ; 1.277500377626271E8 ; 1.9576023696652642E8 ; 1.3444448997452548E9 ; 0.0
13 ; 1.786015801029878E7 ; 1.3160843011395818E8 ; 2.1317387708528224E8 ; 1.4721949375078819E9 ; 0.0
14 ; 1.7911606488655973E7 ; 1.3577561084728265E8 ; 2.3103403509558102E8 ; 1.60380336762184E9 ; 0.0
15 ; 1.793055621169829E7 ; 1.402515793100204E8 ; 2.48945641584237E8 ; 1.7395789784691226E9 ; 0.0
16 ; 1.795464540835936E7 ; 1.450363346698148E8 ; 2.668761977959353E8 ; 1.879830557779143E9 ; 0.0
17 ; 1.797433394596483E7 ; 1.5012987591940966E8 ; 2.848308432042947E8 ; 2.024866892448958E9 ; 0.0
18 ; 1.7995470436188985E7 ; 1.5553220188247156E8 ; 3.028051771502595E8 ; 2.1749967683683677E9 ; 0.0
19 ; 1.801946057746581E7 ; 1.6124331122027948E8 ; 3.208006475864485E8 ; 2.330528970250839E9 ; 0.0
20 ; 1.8039667315542907E7 ; 1.672632024391928E8 ; 3.388201081639143E8 ; 2.491772281471119E9 ; 0.0
21 ; 1.805864621691015E7 ; 1.735918738988053E8 ; 3.5685977547945726E8 ; 2.6590354839103117E9 ; 0.0
22 ; 1.8085929684898585E7 ; 1.802293238206817E8 ; 3.749184216963674E8 ; 2.832627357809117E9 ; 0.0
23 ; 1.8103088642208423E7 ; 1.871755502975757E8 ; 3.93004351381266E8 ; 3.0128566816297984E9 ; 0.0
24 ; 1.8122901122524556E7 ; 1.9443055130302274E8 ; 4.111074400234744E8 ; 3.200032231927374E9 ; 0.0
25 ; 1.8143065283366896E7 ; 2.0068236559938723E8 ; 4.2923034114599895E8 ; 3.3944627832303967E9 ; 0.0
26 ; 1.8168764578878112E7 ; 2.006845387847918E8 ; 4.473734064293659E8 ; 3.595145148829784E9 ; 0.0
27 ; 1.818742171626673E7 ; 2.0068683782812548E8 ; 4.65542171008244E8 ; 3.795829687614576E9 ; 0.0
28 ; 1.82064308815251E7 ; 2.0068926032590073E8 ; 4.837295927245107E8 ; 3.9965165254427013E9 ; 0.0
29 ; 1.8226668498650365E7 ; 2.0069180380547807E8 ; 5.019360236060358E8 ; 4.197205785768602E9 ; 0.0
30 ; 1.8245771831748407E7 ; 2.0069446573486203E8 ; 5.201626921046862E8 ; 4.3978975895740795E9 ; 0.0
31 ; 1.8267345836225647E7 ; 2.0069724353224462E8 ; 5.384084639364346E8 ; 4.598592055308942E9 ; 0.0
32 ; 1.828453411756453E7 ; 2.0070013457523525E8 ; 5.566758097726603E8 ; 4.799289298841187E9 ; 0.0
33 ; 1.8301837604590356E7 ; 2.007031362097254E8 ; 5.749603438902248E8 ; 4.999989433416422E9 ; 0.0
34 ; 1.8327289400132827E7 ; 2.0070624575834447E8 ; 5.932621814948151E8 ; 5.200692569626147E9 ; 0.0
35 ; 1.8344960293447066E7 ; 2.0070946052847248E8 ; 6.115894708949479E8 ; 5.401398815384492E9 ; 0.0
36 ; 1.8359960474689905E7 ; 2.007127778197834E8 ; 6.299344311883949E8 ; 5.602108275912965E9 ; 0.0
37 ; 1.837381868021382E7 ; 2.0071619493129992E8 ; 6.482943916630849E8 ; 5.802821053732748E9 ; 0.0
38 ; 1.8386432072715268E7 ; 2.007197091679489E8 ; 6.666682103432987E8 ; 6.003537248664048E9 ; 0.0
39 ; 1.8403294488735627E7 ; 2.0072331784661174E8 ; 6.85054642416014E8 ; 6.204256957831997E9 ; 0.0
40 ; 1.8420475302767232E7 ; 2.0072701830167142E8 ; 7.034579369047496E8 ; 6.404980275678609E9 ; 0.0
41 ; 1.8433566057897013E7 ; 2.0073080789006153E8 ; 7.218784122075169E8 ; 6.60570729398028E9 ; 0.0
42 ; 1.8452826791628342E7 ; 2.0073468399582815E8 ; 7.403119782654139E8 ; 6.806438101870341E9 ; 0.0
43 ; 1.8457488550693654E7 ; 2.007386440342187E8 ; 7.587648050570422E8 ; 7.007172785866169E9 ; 0.0
44 ; 1.8472277584528796E7 ; 2.0074268545531487E8 ; 7.772222936077359E8 ; 7.207911429900388E9 ; 0.0
45 ; 1.848129848776599E7 ; 2.0074680574722975E8 ; 7.956945711922647E8 ; 7.408654115355702E9 ; 0.0
46 ; 1.8491749805537455E7 ; 2.007510024388904E8 ; 8.141758696800307E8 ; 7.609400921102932E9 ; 0.0
47 ; 1.850082122003708E7 ; 2.0075527310242927E8 ; 8.326676194855682E8 ; 7.810151923541822E9 ; 0.0
48 ; 1.8508726948839623E7 ; 2.0075961535520828E8 ; 8.511684407056053E8 ; 8.010907196644252E9 ; 0.0
49 ; 1.851141127550225E7 ; 2.0076402686149976E8 ; 8.696771676544449E8 ; 8.21166681199946E9 ; 0.0
50 ; 1.852398960621005E7 ; 2.0076850533384925E8 ; 8.881885789299471E8 ; 8.41243083886096E9 ; 0.0
51 ; 1.8532875762962595E7 ; 2.0077304853414422E8 ; 9.067125685361571E8 ; 8.613199344194809E9 ; 0.0
52 ; 1.8535907556135822E7 ; 2.007776542744127E8 ; 9.252454442991197E8 ; 8.813972392728952E9 ; 0.0
53 ; 1.8537444806313112E7 ; 2.0078232041737533E8 ; 9.437813518552555E8 ; 9.014750047003365E9 ; 0.0
54 ; 1.855045165691762E7 ; 2.0078704487677336E8 ; 9.623187966615686E8 ; 9.21553236742074E9 ; 0.0
55 ; 1.8554435460093565E7 ; 2.007918256174936E8 ; 9.808692483184862E8 ; 9.416319412297514E9 ; 0.0
56 ; 1.8557448247265376E7 ; 2.0079666065551156E8 ; 9.994236837785798E8 ; 9.617111237915007E9 ; 0.0
57 ; 1.8562519480420675E7 ; 2.0080154805767187E8 ; 1.0179811320258452E9 ; 9.817907898570518E9 ; 0.0
58 ; 1.8570654531260155E7 ; 2.0080648594132394E8 ; 1.0365436515062659E9 ; 1.0018709446628191E10 ; 0.0
59 ; 1.8574695757848255E7 ; 2.0081147247383046E8 ; 1.055114306037526E9 ; 1.0219515932569515E10 ; 0.0
60 ; 1.857948264781412E7 ; 2.0081650587196413E8 ; 1.0736890017953743E9 ; 1.0420327405043346E10 ; 0.0
61 ; 1.857943777926923E7 ; 2.0082158440120763E8 ; 1.0922684844431884E9 ; 1.062114391091531E10 ; 0.0
62 ; 1.8588205140068088E7 ; 2.008267063749702E8 ; 1.1108479222224576E9 ; 1.0821965495316517E10 ; 0.0
63 ; 1.858993359484087E7 ; 2.0083187015373346E8 ; 1.1294361273625257E9 ; 1.1022792201691486E10 ; 0.0
64 ; 1.859668888425986E7 ; 2.0083707414413777E8 ; 1.1480260609573665E9 ; 1.122362407184522E10 ; 0.0
65 ; 1.860014346335405E7 ; 2.0084231679801926E8 ; 1.1666227498416264E9 ; 1.1424461145989359E10 ; 0.0
66 ; 1.860092809781688E7 ; 2.0084759661140755E8 ; 1.1852228933049805E9 ; 1.1625303462787378E10 ; 0.0
67 ; 1.8604444700540174E7 ; 2.008529121234919E8 ; 1.2038238214027975E9 ; 1.1826151059398787E10 ; 0.0
68 ; 1.861309058885021E7 ; 2.0085826191556418E8 ; 1.2224282661033375E9 ; 1.2027003971522278E10 ; 0.0
69 ; 1.8609867499768585E7 ; 2.008636446099446E8 ; 1.2410413566921878E9 ; 1.2227862233437841E10 ; 0.0
70 ; 1.8615583907704223E7 ; 2.0086905886889753E8 ; 1.2596512241919563E9 ; 1.2428725878047787E10 ; 0.0
71 ; 1.8613855911916196E7 ; 2.0087450339354154E8 ; 1.2782668080996604E9 ; 1.2629594936916685E10 ; 0.0
72 ; 1.8621302399436813E7 ; 2.0087997692275932E8 ; 1.2968806640115767E9 ; 1.2830469440310226E10 ; 0.0
73 ; 1.8626650098425653E7 ; 2.0088547823211136E8 ; 1.3155019664110134E9 ; 1.3031349417232986E10 ; 0.0
74 ; 1.8625195452886187E7 ; 2.0089100613275722E8 ; 1.334128616509439E9 ; 1.3232234895465097E10 ; 0.0
75 ; 1.8626692096790466E7 ; 2.0089655947038722E8 ; 1.352753811962325E9 ; 1.3433125901597855E10 ; 0.0
76 ; 1.8627755044818595E7 ; 2.009021371241679E8 ; 1.3713805040591156E9 ; 1.3634022461068241E10 ; 0.0
77 ; 1.8631123907593172E7 ; 2.00907738005703E8 ; 1.3900082591039343E9 ; 1.383492459819241E10 ; 0.0
78 ; 1.862666084115907E7 ; 2.0091336105801243E8 ; 1.4086393830115275E9 ; 1.4035832336198112E10 ; 0.0
79 ; 1.8626489955723114E7 ; 2.0091900525453046E8 ; 1.4272660438526866E9 ; 1.4236745697256124E10 ; 0.0
80 ; 1.8620309829918016E7 ; 2.00924669598125E8 ; 1.4458925338084097E9 ; 1.4437664702510654E10 ; 0.0
81 ; 1.861689691582789E7 ; 2.0093035312013856E8 ; 1.4645128436383276E9 ; 1.463858937210878E10 ; 0.0
82 ; 1.8610812593915515E7 ; 2.0093605487945214E8 ; 1.4831297405541556E9 ; 1.4839519725228918E10 ; 0.0
83 ; 1.860780400487465E7 ; 2.0094177396157274E8 ; 1.501740553148071E9 ; 1.504045578010837E10 ; 0.0
84 ; 1.8601699742819276E7 ; 2.0094750947774446E8 ; 1.5203483571529458E9 ; 1.5241397554069942E10 ; 0.0
85 ; 1.8598472215668168E7 ; 2.0095326056408435E8 ; 1.538950056895765E9 ; 1.5442345063547688E10 ; 0.0
86 ; 1.859351129582971E7 ; 2.009590263807425E8 ; 1.5575485291114333E9 ; 1.5643298324111773E10 ; 0.0
87 ; 1.858542646824524E7 ; 2.009648061110865E8 ; 1.576142040407263E9 ; 1.5844257350492516E10 ; 0.0
88 ; 1.8582409466691732E7 ; 2.0097059896091083E8 ; 1.5947274668755083E9 ; 1.6045222156603601E10 ; 0.0
89 ; 1.8574674286190312E7 ; 2.0097640415767023E8 ; 1.6133098763422E9 ; 1.6246192755564512E10 ; 0.0
90 ; 1.856916907296041E7 ; 2.0098222094973728E8 ; 1.6318845506283903E9 ; 1.6447169159722183E10 ; 0.0
91 ; 1.8561842649382234E7 ; 2.0098804860568377E8 ; 1.6504537197013507E9 ; 1.664815138067192E10 ; 0.0
92 ; 1.8562993303668812E7 ; 2.0099388641358566E8 ; 1.6690155623507328E9 ; 1.6849139429277605E10 ; 0.0
93 ; 1.855635287522853E7 ; 2.009997336803509E8 ; 1.6875785556544015E9 ; 1.705013331569119E10 ; 0.0
94 ; 1.854308170379355E7 ; 2.0100558973107004E8 ; 1.7061349085296302E9 ; 1.725113304937154E10 ; 0.0
95 ; 1.8539594593711436E7 ; 2.0101145390838876E8 ; 1.7246779902334237E9 ; 1.745213863910261E10 ; 0.0
96 ; 1.8534751389263153E7 ; 2.0101732557190216E8 ; 1.743217584827135E9 ; 1.7653150093011E10 ; 0.0
97 ; 1.8524959876998603E7 ; 2.0102320409757012E8 ; 1.7617523362163982E9 ; 1.7854167418582905E10 ; 0.0
98 ; 1.8520793739052165E7 ; 2.0102908887715325E8 ; 1.780277296093397E9 ; 1.8055190622680473E10 ; 0.0
99 ; 1.8513451502983883E7 ; 2.0103497931766853E8 ; 1.798798089832449E9 ; 1.8256219711557625E10 ; 0.0
100 ; 1.8504201616530877E7 ; 2.0104087484086484E8 ; 1.8173115413354328E9 ; 1.8457254690875294E10 ; 0.0
101 ; 1.8499074832985982E7 ; 2.0104677488271695E8 ; 1.8358157429519637E9 ; 1.865829556571616E10 ; 0.0
102 ; 1.8489843745304953E7 ; 2.0105267889293796E8 ; 1.8543148177849495E9 ; 1.8859342340598877E10 ; 0.0
103 ; 1.848284342112595E7 ; 2.010585863345094E8 ; 1.8728046615302546E9 ; 1.9060395019491814E10 ; 0.0
104 ; 1.8472348369211387E7 ; 2.0106449668322855E8 ; 1.8912875049513805E9 ; 1.9261453605826324E10 ; 0.0
105 ; 1.846596181823163E7 ; 2.0107040942727223E8 ; 1.909759853320592E9 ; 1.9462518102509552E10 ; 0.0
106 ; 1.8459719108357497E7 ; 2.010763240667768E8 ; 1.9282258151388235E9 ; 1.9663588511936825E10 ; 0.0
107 ; 1.845090702874037E7 ; 2.010822401134335E8 ; 1.946685534247181E9 ; 1.98646648360036E10 ; 0.0
108 ; 1.8439076800250515E7 ; 2.0108815709009877E8 ; 1.9651364412759213E9 ; 2.0065747076117035E10 ; 0.0
109 ; 1.8432067227248557E7 ; 2.0109407453041908E8 ; 1.9835755180761719E9 ; 2.0266835233207134E10 ; 0.0
110 ; 1.8425004592568364E7 ; 2.0109999197846976E8 ; 2.0020075853034205E9 ; 2.0467929307737553E10 ; 0.0
111 ; 1.84170199664143E7 ; 2.0110590898840705E8 ; 2.020432589895989E9 ; 2.0669029299716022E10 ; 0.0
112 ; 1.8401748106419325E7 ; 2.0111182512413332E8 ; 2.0388496098624032E9 ; 2.087013520870443E10 ; 0.0
113 ; 1.8397537637491196E7 ; 2.0111773995897472E8 ; 2.0572513579688225E9 ; 2.1071247033828564E10 ; 0.0
114 ; 1.838718877565123E7 ; 2.0112365307537064E8 ; 2.0756488956063137E9 ; 2.1272364773787537E10 ; 0.0
115 ; 1.8378736098243877E7 ; 2.0112956406457517E8 ; 2.094036084381965E9 ; 2.1473488426862907E10 ; 0.0
116 ; 1.8366251620382823E7 ; 2.0113547252636927E8 ; 2.1124148204802089E9 ; 2.1674617990927483E10 ; 0.0
117 ; 1.8357795496120173E7 ; 2.01141378068784E8 ; 2.1307810721005917E9 ; 2.1875753463453854E10 ; 0.0
118 ; 1.8344857547376014E7 ; 2.0114728030783394E8 ; 2.1491388675967116E9 ; 2.2076894841522636E10 ; 0.0
119 ; 1.8336456520642504E7 ; 2.011531788672605E8 ; 2.167483725144088E9 ; 2.227804212183047E10 ; 0.0
120 ; 1.831795257141469E7 ; 2.0115907337828484E8 ; 2.18582018166473E9 ; 2.247919530069773E10 ; 0.0
121 ; 1.8314273845420998E7 ; 2.011649634793701E8 ; 2.2041381342361445E9 ; 2.2680354374076015E10 ; 0.0
122 ; 1.8302165100076932E7 ; 2.0117084881599233E8 ; 2.2224524080815654E9 ; 2.2881519337555386E10 ; 0.0
123 ; 1.829496592208721E7 ; 2.0117672904041985E8 ; 2.2407545731816425E9 ; 2.3082690186371376E10 ; 0.0
124 ; 1.8281112050734702E7 ; 2.0118260381150115E8 ; 2.2590495391037297E9 ; 2.3283866915411797E10 ; 0.0
125 ; 1.8271806687852275E7 ; 2.0118847279446012E8 ; 2.2773306511544642E9 ; 2.3485049519223297E10 ; 0.0
126 ; 1.82590262174188E7 ; 2.011943356606994E8 ; 2.2956024578423166E9 ; 2.3686237992017757E10 ; 0.0
127 ; 1.8248183112985257E7 ; 2.0120019208761057E8 ; 2.3138614840597353E9 ; 2.3887432327678455E10 ; 0.0
128 ; 1.823473505590295E7 ; 2.0120604175839153E8 ; 2.3321096671727204E9 ; 2.4088632519766068E10 ; 0.0
129 ; 1.8222833873324644E7 ; 2.0121188436187056E8 ; 2.3503444022286234E9 ; 2.428983856152446E10 ; 0.0
130 ; 1.8211279220789164E7 ; 2.0121771959233686E8 ; 2.3685672361019483E9 ; 2.449105044588633E10 ; 0.0
131 ; 1.8190296150420766E7 ; 2.012235471493772E8 ; 2.386778515322737E9 ; 2.469226816547867E10 ; 0.0
132 ; 1.817119548970518E7 ; 2.0122936673771867E8 ; 2.404968811473158E9 ; 2.4893491712628044E10 ; 0.0
133 ; 1.81546075856361E7 ; 2.0123517806707716E8 ; 2.423140006962863E9 ; 2.5094721079365765E10 ; 0.0
134 ; 1.8139372625989873E7 ; 2.0124098085201117E8 ; 2.441294614548499E9 ; 2.5295956257432842E10 ; 0.0
135 ; 1.811485451215216E7 ; 2.0124677481178108E8 ; 2.459433987174489E9 ; 2.5497197238284855E10 ; 0.0
136 ; 1.809883263818027E7 ; 2.012525596702136E8 ; 2.477548841686641E9 ; 2.5698444013096638E10 ; 0.0
137 ; 1.8080295602966357E7 ; 2.0125833515557092E8 ; 2.4956476743248215E9 ; 2.589969657276685E10 ; 0.0
138 ; 1.806282142263941E7 ; 2.0126410100042456E8 ; 2.513727969927788E9 ; 2.610095490792242E10 ; 0.0
139 ; 1.8038652194352172E7 ; 2.012698569415341E8 ; 2.531790791350427E9 ; 2.6302219008922844E10 ; 0.0
140 ; 1.8020211964536283E7 ; 2.0127560271972975E8 ; 2.5498294435447793E9 ; 2.650348886586438E10 ; 0.0
141 ; 1.8000869513074018E7 ; 2.012813380797995E8 ; 2.5678496555093155E9 ; 2.670476446858411E10 ; 0.0
142 ; 1.7978888901073236E7 ; 2.012870627703802E8 ; 2.5858505250223894E9 ; 2.690604580666391E10 ; 0.0
143 ; 1.796019244311377E7 ; 2.0129277654385233E8 ; 2.603829413923463E9 ; 2.710733286943429E10 ; 0.0
144 ; 1.7946590021140214E7 ; 2.0129847915623876E8 ; 2.6217896063665767E9 ; 2.7308625645978146E10 ; 0.0
145 ; 1.7926062044019144E7 ; 2.01304170367107E8 ; 2.639736196387717E9 ; 2.7509924125134384E10 ; 0.0
146 ; 1.7917421397764537E7 ; 2.0130984993947476E8 ; 2.657662258431736E9 ; 2.771122829550149E10 ; 0.0
147 ; 1.7900853695049495E7 ; 2.0131551763971898E8 ; 2.6755796798295007E9 ; 2.7912538145440968E10 ; 0.0
148 ; 1.789155001454504E7 ; 2.0132117323748803E8 ; 2.69348053352455E9 ; 2.8113853663080685E10 ; 0.0
149 ; 1.7873618667225946E7 ; 2.0132681650561693E8 ; 2.711372083539095E9 ; 2.8315174836318172E10 ; 0.0
150 ; 1.7864212933983326E7 ; 2.0133244722004557E8 ; 2.729245702206321E9 ; 2.8516501652823788E10 ; 0.0
151 ; 1.7852056347725123E7 ; 2.013380651597397E8 ; 2.747109915140304E9 ; 2.8717834100043835E10 ; 0.0
152 ; 1.784071439207489E7 ; 2.0134367010661477E8 ; 2.764961971488029E9 ; 2.8919172165203575E10 ; 0.0
153 ; 1.7822210038676508E7 ; 2.0134926184546223E8 ; 2.782802685880104E9 ; 2.912051583531019E10 ; 0.0
154 ; 1.7808132923815615E7 ; 2.0135484016387862E8 ; 2.800624895918781E9 ; 2.932186509715565E10 ; 0.0
155 ; 1.779702971680576E7 ; 2.013604048521968E8 ; 2.8184330288425965E9 ; 2.952321993731953E10 ; 0.0
156 ; 1.7784367309926778E7 ; 2.013659557034198E8 ; 2.8362300585594025E9 ; 2.9724580342171726E10 ; 0.0
157 ; 1.7766725926476527E7 ; 2.013714925131567E8 ; 2.8540144258693295E9 ; 2.9925946297875145E10 ; 0.0
158 ; 1.7761881269275084E7 ; 2.013770150795609E8 ; 2.871781151795806E9 ; 3.01273177903883E10 ; 0.0
159 ; 1.7743409670383856E7 ; 2.0138252320327032E8 ; 2.889543033065081E9 ; 3.032869480546786E10 ; 0.0
160 ; 1.7727853431240413E7 ; 2.0138801668734968E8 ; 2.907286442735465E9 ; 3.053007732867113E10 ; 0.0
161 ; 1.772133413258697E7 ; 2.0139349533723482E8 ; 2.9250142961667056E9 ; 3.0731465345358482E10 ; 0.0
162 ; 1.7701815450436845E7 ; 2.0139895896067873E8 ; 2.9427356302992926E9 ; 3.0932858840695717E10 ; 0.0
163 ; 1.7685974842550453E7 ; 2.014044073676995E8 ; 2.9604374457497296E9 ; 3.1134257799656395E10 ; 0.0
164 ; 1.7672089197879765E7 ; 2.0140984037052998E8 ; 2.97812342059228E9 ; 3.1335662207024094E10 ; 0.0
165 ; 1.7660996677851643E7 ; 2.014152577835691E8 ; 2.9957955097901597E9 ; 3.1537072047394623E10 ; 0.0
166 ; 1.7641755448522992E7 ; 2.014206594233348E8 ; 3.0134565064680114E9 ; 3.1738487305178192E10 ; 0.0
167 ; 1.7629851913567606E7 ; 2.014260451084187E8 ; 3.0310982619165344E9 ; 3.193990796460153E10 ; 0.0
168 ; 1.7613286062323585E7 ; 2.014314146594419E8 ; 3.048728113830102E9 ; 3.2141334009709946E10 ; 0.0
169 ; 1.760331046259947E7 ; 2.014367678990126E8 ; 3.0663413998924255E9 ; 3.234276542436939E10 ; 0.0
170 ; 1.7588690168356024E7 ; 2.014421046516849E8 ; 3.083944710355025E9 ; 3.2544202192268402E10 ; 0.0
171 ; 1.757136894250805E7 ; 2.0144742474391916E8 ; 3.1015334005233808E9 ; 3.2745644296920086E10 ; 0.0
172 ; 1.755710161965105E7 ; 2.0145272800404325E8 ; 3.119104769465889E9 ; 3.2947091721664005E10 ; 0.0
173 ; 1.754371053044846E7 ; 2.0145801426221558E8 ; 3.13666187108554E9 ; 3.314854444966805E10 ; 0.0
174 ; 1.7530562212701563E7 ; 2.0146328335038897E8 ; 3.1542055816159883E9 ; 3.3350002463930264E10 ; 0.0
175 ; 1.752059772840654E7 ; 2.014685351022758E8 ; 3.17173614382869E9 ; 3.355146574728065E10 ; 0.0
176 ; 1.7514907398544732E7 ; 2.0147376935331428E8 ; 3.1892567415570965E9 ; 3.3752934282382927E10 ; 0.0
177 ; 1.7505906058674976E7 ; 2.0147898594063595E8 ; 3.2067716489556413E9 ; 3.395440805173624E10 ; 0.0
178 ; 1.749983709321265E7 ; 2.014841847030339E8 ; 3.224277555014316E9 ; 3.4155887037676876E10 ; 0.0
179 ; 1.749138746996235E7 ; 2.0148936548093233E8 ; 3.2417773921075287E9 ; 3.435737122237991E10 ; 0.0
180 ; 1.7476341759288106E7 ; 2.0149452811635697E8 ; 3.259268779577491E9 ; 3.455886058786084E10 ; 0.0
181 ; 1.7474095999988582E7 ; 2.0149967245290634E8 ; 3.276745121336779E9 ; 3.4760355115977196E10 ; 0.0
182 ; 1.7457973091689583E7 ; 2.0150479833572415E8 ; 3.2942192173367677E9 ; 3.49618547884301E10 ; 0.0
183 ; 1.745178721367428E7 ; 2.015099056114723E8 ; 3.3116771904284573E9 ; 3.516335958676582E10 ; 0.0
184 ; 1.744410291350782E7 ; 2.0151499412830502E8 ; 3.3291289776421313E9 ; 3.53648694923773E10 ; 0.0
185 ; 1.7437135192521013E7 ; 2.0152006373584363E8 ; 3.3465730805556393E9 ; 3.55663844865056E10 ; 0.0
186 ; 1.7422651689187594E7 ; 2.0152511428515217E8 ; 3.3640102157481604E9 ; 3.576790455024144E10 ; 0.0
187 ; 1.7414006991514236E7 ; 2.015301456287138E8 ; 3.381432867437348E9 ; 3.596942966452659E10 ; 0.0
188 ; 1.7408559606216677E7 ; 2.0153515762040785E8 ; 3.398846874428862E9 ; 3.6170959810155304E10 ; 0.0
189 ; 1.7398290026692364E7 ; 2.0154015011548778E8 ; 3.416255434035079E9 ; 3.637249496777571E10 ; 0.0
190 ; 1.738800161877676E7 ; 2.0154512297055975E8 ; 3.4336537240617714E9 ; 3.65740351178912E10 ; 0.0
191 ; 1.738036428376813E7 ; 2.0155007604356164E8 ; 3.451041725680548E9 ; 3.6775580240861755E10 ; 0.0
192 ; 1.7371356546639383E7 ; 2.0155500919374302E8 ; 3.4684220899643164E9 ; 3.697713031690532E10 ; 0.0
193 ; 1.736465305264207E7 ; 2.0155992228164575E8 ; 3.485793446510956E9 ; 3.717868532609906E10 ; 0.0
194 ; 1.735196308508472E7 ; 2.0156481516908485E8 ; 3.5031580995635977E9 ; 3.738024524838071E10 ; 0.0
195 ; 1.7342961985991158E7 ; 2.015696877191303E8 ; 3.5205100626486826E9 ; 3.758181006354979E10 ; 0.0
