CSV File for the City 6 on Day 195
1 - Minute m 
2 - Power Consumed at minute m 
3 - Power Produced at minute m 
4 - Energy Consumed since the beginning of the day 
5 - Energy Produced since the beginning of the day 
6 - Energy Lost since the beginning of the day on lines starting from the city
 
0 ; 1295551.4644130988 ; 1.0582320715713271E8 ; 0.0 ; 0.0 ; 0.0
1 ; 1307477.3941409457 ; 1.0597373253480363E8 ; 1295551.4644130988 ; 1.0582320715713271E8 ; 0.0
2 ; 1320991.1239473845 ; 1.0643327998965994E8 ; 2603028.8585540447 ; 2.1179693969193634E8 ; 0.0
3 ; 1332905.7356201254 ; 1.0720185576066536E8 ; 3924019.9825014295 ; 3.182302196815963E8 ; 0.0
4 ; 1356701.558384514 ; 1.0827946548976994E8 ; 5256925.718121555 ; 4.2543207544226164E8 ; 0.0
5 ; 1371467.5702775773 ; 1.0966611417398816E8 ; 6613627.276506068 ; 5.337115409320316E8 ; 0.0
6 ; 1397250.2851711093 ; 1.1136180612165627E8 ; 7985094.846783645 ; 6.433776551060197E8 ; 0.0
7 ; 1439583.1194159258 ; 1.1336654491373062E8 ; 9382345.131954756 ; 7.54739461227676E8 ; 0.0
8 ; 1487942.924807318 ; 1.1568033337091964E8 ; 1.0821928251370681E7 ; 8.681060061414067E8 ; 0.0
9 ; 1575997.7050813916 ; 1.1830317352734429E8 ; 1.2309871176177999E7 ; 9.837863395123262E8 ; 0.0
10 ; 1698219.0539471677 ; 1.2123506661129594E8 ; 1.3885868881259391E7 ; 1.1020895130396705E9 ; 0.0
11 ; 1893518.1357729693 ; 1.2447601303351715E8 ; 1.5584087935206559E7 ; 1.2233245796509664E9 ; 0.0
12 ; 2212203.701626571 ; 1.2802601238326535E8 ; 1.7477606070979528E7 ; 1.3478005926844835E9 ; 0.0
13 ; 2516792.1396626723 ; 1.3188506343224913E8 ; 1.9689809772606097E7 ; 1.4758266050677488E9 ; 0.0
14 ; 2556746.583722529 ; 1.3605316414634764E8 ; 2.220660191226877E7 ; 1.6077116684999979E9 ; 0.0
15 ; 2567514.9318787768 ; 1.4053031170485234E8 ; 2.4763348495991297E7 ; 1.7437648326463456E9 ; 0.0
16 ; 2590091.3541392675 ; 1.4531650252680698E8 ; 2.7330863427870072E7 ; 1.884295144351198E9 ; 0.0
17 ; 2607774.6297658347 ; 1.5041173230387524E8 ; 2.992095478200934E7 ; 2.029611646878005E9 ; 0.0
18 ; 2620037.0596512775 ; 1.5581599603904265E8 ; 3.2528729411775175E7 ; 2.1800233791818805E9 ; 0.0
19 ; 2632968.4429842876 ; 1.6152928809035912E8 ; 3.514876647142645E7 ; 2.335839375220923E9 ; 0.0
20 ; 2648195.069554371 ; 1.6755160221886107E8 ; 3.778173491441074E7 ; 2.497368663311282E9 ; 0.0
21 ; 2666604.7546870327 ; 1.7388293163976797E8 ; 4.0429929983965114E7 ; 2.6649202655301433E9 ; 0.0
22 ; 2683983.2534501906 ; 1.805232690760392E8 ; 4.309653473865215E7 ; 2.8388031971699114E9 ; 0.0
23 ; 2697648.115812228 ; 1.8747260681338948E8 ; 4.578051799210234E7 ; 3.0193264662459507E9 ; 0.0
24 ; 2713522.9474213338 ; 1.9473093675589997E8 ; 4.847816610791457E7 ; 3.20679907305934E9 ; 0.0
25 ; 2728304.3073853287 ; 2.0098629137960547E8 ; 5.11916890553359E7 ; 3.40153000981524E9 ; 0.0
26 ; 2745239.698821643 ; 2.009922098238563E8 ; 5.391999336272123E7 ; 3.602516301194845E9 ; 0.0
27 ; 2763259.567107314 ; 2.0099845246910745E8 ; 5.666523306154287E7 ; 3.8035085110187016E9 ; 0.0
28 ; 2777124.174145107 ; 2.0100501023444703E8 ; 5.942849262865018E7 ; 4.004506963487809E9 ; 0.0
29 ; 2791862.6697848076 ; 2.0101187391901472E8 ; 6.220561680279529E7 ; 4.205511973722256E9 ; 0.0
30 ; 2805600.0825528074 ; 2.010190342472353E8 ; 6.49974794725801E7 ; 4.406523847641271E9 ; 0.0
31 ; 2822020.6371289007 ; 2.0102648191084945E8 ; 6.780307955513291E7 ; 4.607542881888506E9 ; 0.0
32 ; 2837934.414585746 ; 2.010342076075641E8 ; 7.062510019226182E7 ; 4.8085693637993555E9 ; 0.0
33 ; 2852344.4411339173 ; 2.010422020762253E8 ; 7.346303460684755E7 ; 5.0096035714069195E9 ; 0.0
34 ; 2866731.956547896 ; 2.010504561284868E8 ; 7.631537904798147E7 ; 5.210645773483145E9 ; 0.0
35 ; 2879236.068202813 ; 2.0105896067700747E8 ; 7.918211100452937E7 ; 5.411696229611631E9 ; 0.0
36 ; 2892414.295093674 ; 2.0106770676026297E8 ; 8.206134707273218E7 ; 5.612755190288639E9 ; 0.0
37 ; 2904994.829327892 ; 2.0107668556409848E8 ; 8.495376136782585E7 ; 5.8138228970489025E9 ; 0.0
38 ; 2916504.027211819 ; 2.0108588844018093E8 ; 8.785875619715375E7 ; 6.014899582613001E9 ; 0.0
39 ; 2933222.399411311 ; 2.0109530692153442E8 ; 9.077526022436556E7 ; 6.215985471053182E9 ; 0.0
40 ; 2939811.907213631 ; 2.011049327353588E8 ; 9.370848262377687E7 ; 6.417080777974716E9 ; 0.0
41 ; 2956234.001173845 ; 2.0111475781334117E8 ; 9.66482945309905E7 ; 6.618185710710075E9 ; 0.0
42 ; 2962519.2714687344 ; 2.011247742996749E8 ; 9.960452853216434E7 ; 6.8193004685234165E9 ; 0.0
43 ; 2972936.6435004175 ; 2.0113497455700028E8 ; 1.0256704780363306E8 ; 7.0204252428230915E9 ; 0.0
44 ; 2986867.4437959585 ; 2.0114535117047676E8 ; 1.0553998444713348E8 ; 7.221560217380092E9 ; 0.0
45 ; 2993129.785380801 ; 2.0115589695018986E8 ; 1.0852685189092945E8 ; 7.422705568550569E9 ; 0.0
46 ; 3001807.43575018 ; 2.01166604932086E8 ; 1.1151998167631024E8 ; 7.623861465500758E9 ; 0.0
47 ; 3012600.110166941 ; 2.0117746837761778E8 ; 1.1452178911206043E8 ; 7.825028070432844E9 ; 0.0
48 ; 3018010.1711271945 ; 2.011884807722704E8 ; 1.1753438922222736E8 ; 8.026205538810462E9 ; 0.0
49 ; 3025945.8257291447 ; 2.0119963582312596E8 ; 1.2055239939335456E8 ; 8.227394019582732E9 ; 0.0
50 ; 3029277.5951978727 ; 2.0121092745561072E8 ; 1.2357834521908371E8 ; 8.428593655405858E9 ; 0.0
51 ; 3038465.9747626977 ; 2.01222349809557E8 ; 1.2660762281428158E8 ; 8.62980458286147E9 ; 0.0
52 ; 3045356.9614449157 ; 2.01233897234698E8 ; 1.2964608878904428E8 ; 8.831026932671026E9 ; 0.0
53 ; 3052063.5105733685 ; 2.0124556428570303E8 ; 1.3269144575048919E8 ; 9.032260829905724E9 ; 0.0
54 ; 3056586.277553094 ; 2.0125734571684763E8 ; 1.3574350926106256E8 ; 9.233506394191427E9 ; 0.0
55 ; 3063998.064325193 ; 2.0126923647640345E8 ; 1.3880009553861564E8 ; 9.434763739908276E9 ; 0.0
56 ; 3068333.587670102 ; 2.0128123170082173E8 ; 1.4186409360294083E8 ; 9.63603297638468E9 ; 0.0
57 ; 3072530.6926977425 ; 2.0129332670877564E8 ; 1.4493242719061092E8 ; 9.8373142080855E9 ; 0.0
58 ; 3078061.982160922 ; 2.0130551699511743E8 ; 1.4800495788330865E8 ; 1.0038607534794277E10 ; 0.0
59 ; 3086297.081250854 ; 2.013177982247994E8 ; 1.5108301986546957E8 ; 1.0239913051789394E10 ; 0.0
60 ; 3091607.7525090175 ; 2.0133016622679994E8 ; 1.5416931694672042E8 ; 1.0441230850014194E10 ; 0.0
61 ; 3095244.9360163696 ; 2.0134261698809028E8 ; 1.5726092469922945E8 ; 1.0642561016240993E10 ; 0.0
62 ; 3103018.2501741424 ; 2.0135514664767128E8 ; 1.6035616963524583E8 ; 1.0843903633229084E10 ; 0.0
63 ; 3105612.732287581 ; 2.0136775149070525E8 ; 1.6345918788541996E8 ; 1.1045258779876755E10 ; 0.0
64 ; 3109956.0772238667 ; 2.013804279427627E8 ; 1.6656480061770755E8 ; 1.124662653136746E10 ; 0.0
65 ; 3114756.2719353056 ; 2.0139317256420058E8 ; 1.6967475669493142E8 ; 1.1448006959310223E10 ; 0.0
66 ; 3120507.124009431 ; 2.014059820446851E8 ; 1.7278951296686673E8 ; 1.1649400131874424E10 ; 0.0
67 ; 3127617.663499015 ; 2.0141885319786844E8 ; 1.7591002009087616E8 ; 1.185080611391911E10 ; 0.0
68 ; 3130823.6304002535 ; 2.0143178295622778E8 ; 1.790376377543752E8 ; 1.2052224967116978E10 ; 0.0
69 ; 3135358.3507355554 ; 2.0144476836607063E8 ; 1.8216846138477543E8 ; 1.2253656750073206E10 ; 0.0
70 ; 3139382.8261559512 ; 2.0145780658271074E8 ; 1.8530381973551098E8 ; 1.2455101518439276E10 ; 0.0
71 ; 3145299.4668214857 ; 2.0147089486581567E8 ; 1.8844320256166694E8 ; 1.2656559325021986E10 ; 0.0
72 ; 3150455.2890229025 ; 2.014840305749262E8 ; 1.9158850202848843E8 ; 1.2858030219887802E10 ; 0.0
73 ; 3151827.6290746853 ; 2.0149721116514736E8 ; 1.9473895731751132E8 ; 1.3059514250462729E10 ; 0.0
74 ; 3157904.294623111 ; 2.0151043418300846E8 ; 1.97890784946586E8 ; 1.3261011461627876E10 ; 0.0
75 ; 3161938.739505185 ; 2.0152369726248986E8 ; 2.0104868924120912E8 ; 1.3462521895810884E10 ; 0.0
76 ; 3164264.52255879 ; 2.015369981212134E8 ; 2.042106279807143E8 ; 1.3664045593073374E10 ; 0.0
77 ; 3170437.127458743 ; 2.0155033455679214E8 ; 2.0737489250327307E8 ; 1.3865582591194588E10 ; 0.0
78 ; 3169777.4126771865 ; 2.0156370444333586E8 ; 2.1054532963073182E8 ; 1.4067132925751379E10 ; 0.0
79 ; 3172677.832251529 ; 2.0157710572810724E8 ; 2.1371510704340902E8 ; 1.4268696630194715E10 ; 0.0
80 ; 3168893.5536973597 ; 2.0159053642832458E8 ; 2.1688778487566054E8 ; 1.4470273735922823E10 ; 0.0
81 ; 3170742.55271564 ; 2.0160399462810555E8 ; 2.200566784293579E8 ; 1.4671864272351147E10 ; 0.0
82 ; 3171832.7317707236 ; 2.0161747847554752E8 ; 2.2322742098207352E8 ; 1.4873468266979252E10 ; 0.0
83 ; 3171488.5285318196 ; 2.0163098617993924E8 ; 2.2639925371384424E8 ; 1.50750857454548E10 ; 0.0
84 ; 3171955.8955248566 ; 2.0164451600909865E8 ; 2.2957074224237606E8 ; 1.5276716731634739E10 ; 0.0
85 ; 3173133.3831835473 ; 2.0165806628683224E8 ; 2.3274269813790092E8 ; 1.5478361247643837E10 ; 0.0
86 ; 3170227.86249029 ; 2.0167163539051062E8 ; 2.3591583152108446E8 ; 1.568001931393067E10 ; 0.0
87 ; 3172599.1479439544 ; 2.016852217487558E8 ; 2.3908605938357475E8 ; 1.588169094932118E10 ; 0.0
88 ; 3169614.214365395 ; 2.01698823839235E8 ; 2.422586585315187E8 ; 1.6083376171069937E10 ; 0.0
89 ; 3167071.4733969234 ; 2.0171244018655682E8 ; 2.454282727458841E8 ; 1.6285074994909172E10 ; 0.0
90 ; 3168879.4877193053 ; 2.0172606936026493E8 ; 2.4859534421928102E8 ; 1.648678743509573E10 ; 0.0
91 ; 3166916.4822219196 ; 2.0173970997292492E8 ; 2.5176422370700032E8 ; 1.6688513504455996E10 ; 0.0
92 ; 3167268.3294517356 ; 2.0175336067830047E8 ; 2.5493114018922225E8 ; 1.689025321442892E10 ; 0.0
93 ; 3163672.8491280815 ; 2.0176702016961414E8 ; 2.58098408518674E8 ; 1.7092006575107222E10 ; 0.0
94 ; 3163203.137003691 ; 2.017806871778893E8 ; 2.6126208136780205E8 ; 1.7293773595276836E10 ; 0.0
95 ; 3162862.5388394413 ; 2.017943604703693E8 ; 2.6442528450480574E8 ; 1.7495554282454727E10 ; 0.0
96 ; 3162271.9185056 ; 2.0180803884901026E8 ; 2.6758814704364517E8 ; 1.7697348642925095E10 ; 0.0
97 ; 3161830.6384185725 ; 2.0182172114904395E8 ; 2.7075041896215075E8 ; 1.7899156681774105E10 ; 0.0
98 ; 3157381.45326084 ; 2.0183540623760733E8 ; 2.739122496005693E8 ; 1.810097840292315E10 ; 0.0
99 ; 3159625.294024 ; 2.018490930124359E8 ; 2.7706963105383015E8 ; 1.8302813809160755E10 ; 0.0
100 ; 3157772.1737967376 ; 2.018627804006175E8 ; 2.8022925634785414E8 ; 1.850466290217319E10 ; 0.0
101 ; 3154501.508948078 ; 2.0187646735740355E8 ; 2.8338702852165085E8 ; 1.8706525682573807E10 ; 0.0
102 ; 3151001.681785043 ; 2.0189015286507544E8 ; 2.8654153003059894E8 ; 1.890840214993121E10 ; 0.0
103 ; 3148366.535097919 ; 2.0190383593186304E8 ; 2.89692531712384E8 ; 1.9110292302796284E10 ; 0.0
104 ; 3147695.225025913 ; 2.019175155909126E8 ; 2.928408982474819E8 ; 1.9312196138728146E10 ; 0.0
105 ; 3148391.567397567 ; 2.019311908993024E8 ; 2.959885934725078E8 ; 1.9514113654319057E10 ; 0.0
106 ; 3147013.373179112 ; 2.0194486093710282E8 ; 2.9913698503990537E8 ; 1.971604484521836E10 ; 0.0
107 ; 3142976.1277591824 ; 2.0195852480647978E8 ; 3.022839984130845E8 ; 1.9917989706155464E10 ; 0.0
108 ; 3140547.203554895 ; 2.0197218163083836E8 ; 3.0542697454084367E8 ; 2.0119948230961945E10 ; 0.0
109 ; 3142164.8470560457 ; 2.019858305540056E8 ; 3.0856752174439853E8 ; 2.032192041259278E10 ; 0.0
110 ; 3137505.528504246 ; 2.0199947073944974E8 ; 3.1170968659145457E8 ; 2.0523906243146786E10 ; 0.0
111 ; 3135224.6605358873 ; 2.02013101369535E8 ; 3.148471921199588E8 ; 2.0725905713886234E10 ; 0.0
112 ; 3130252.63600496 ; 2.0202672164480945E8 ; 3.179824167804947E8 ; 2.0927918815255768E10 ; 0.0
113 ; 3127121.830449656 ; 2.020403307833247E8 ; 3.211126694164997E8 ; 2.1129945536900578E10 ; 0.0
114 ; 3126486.0658033034 ; 2.0205392801998574E8 ; 3.242397912469493E8 ; 2.1331985867683903E10 ; 0.0
115 ; 3122980.7026889306 ; 2.0206751260593E8 ; 3.273662773127526E8 ; 2.1534039795703888E10 ; 0.0
116 ; 3115832.582470799 ; 2.0208108380793327E8 ; 3.3048925801544154E8 ; 2.173610730830982E10 ; 0.0
117 ; 3114742.9417907153 ; 2.02094640907842E8 ; 3.336050905979123E8 ; 2.1938188392117752E10 ; 0.0
118 ; 3112832.532108883 ; 2.0210818320203054E8 ; 3.36719833539703E8 ; 2.2140283033025593E10 ; 0.0
119 ; 3107984.8419488478 ; 2.021217100008817E8 ; 3.398326660718119E8 ; 2.2342391216227623E10 ; 0.0
120 ; 3107440.561098927 ; 2.0213522062829033E8 ; 3.429406509137608E8 ; 2.2544512926228504E10 ; 0.0
121 ; 3100732.576043347 ; 2.0214871442118794E8 ; 3.460480914748597E8 ; 2.2746648146856796E10 ; 0.0
122 ; 3096686.4496091646 ; 2.0216219072908813E8 ; 3.491488240509031E8 ; 2.2948796861277985E10 ; 0.0
123 ; 3093798.2619128195 ; 2.0217564891365126E8 ; 3.5224551050051224E8 ; 2.3150959052007072E10 ; 0.0
124 ; 3091566.839236435 ; 2.0218908834826773E8 ; 3.5533930876242507E8 ; 2.3353134700920723E10 ; 0.0
125 ; 3090792.0278102527 ; 2.022025084176593E8 ; 3.584308756016615E8 ; 2.355532378926899E10 ; 0.0
126 ; 3087604.5441731303 ; 2.0221590851749688E8 ; 3.615216676294718E8 ; 2.375752629768665E10 ; 0.0
127 ; 3081478.8644152503 ; 2.0222928805403462E8 ; 3.646092721736449E8 ; 2.3959742206204147E10 ; 0.0
128 ; 3076000.1136679025 ; 2.0224264644375935E8 ; 3.676907510380601E8 ; 2.4161971494258183E10 ; 0.0
129 ; 3071609.6339375125 ; 2.0225598311305478E8 ; 3.7076675115172803E8 ; 2.4364214140701942E10 ; 0.0
130 ; 3071423.23316498 ; 2.0226929749787948E8 ; 3.738383607856656E8 ; 2.4566470123815E10 ; 0.0
131 ; 3059710.418436465 ; 2.0228258904345828E8 ; 3.7690978401883054E8 ; 2.4768739421312878E10 ; 0.0
132 ; 3050210.234820726 ; 2.0229585720398647E8 ; 3.79969494437267E8 ; 2.4971022010356335E10 ; 0.0
133 ; 3044216.548964844 ; 2.0230910144234613E8 ; 3.830197046720877E8 ; 2.517331786756032E10 ; 0.0
134 ; 3035714.286951414 ; 2.0232232122983396E8 ; 3.860639212210526E8 ; 2.5375626969002666E10 ; 0.0
135 ; 3023678.6325920005 ; 2.0233551604590037E8 ; 3.89099635508004E8 ; 2.5577949290232502E10 ; 0.0
136 ; 3017709.7441692757 ; 2.02348685377899E8 ; 3.9212331414059603E8 ; 2.5780284806278404E10 ; 0.0
137 ; 3010589.6925824033 ; 2.0236182872084644E8 ; 3.951410238847653E8 ; 2.5982633491656303E10 ; 0.0
138 ; 3000974.5122625353 ; 2.0237494557719162E8 ; 3.9815161357734776E8 ; 2.618499532037715E10 ; 0.0
139 ; 2993131.120642857 ; 2.0238803545659438E8 ; 4.011525880896103E8 ; 2.638737026595434E10 ; 0.0
140 ; 2979904.0114083 ; 2.024010978757128E8 ; 4.041457192102531E8 ; 2.6589758301410934E10 ; 0.0
141 ; 2972599.685228055 ; 2.0241413235799932E8 ; 4.0712562322166145E8 ; 2.6792159399286648E10 ; 0.0
142 ; 2965262.6576497406 ; 2.024271384335044E8 ; 4.100982229068895E8 ; 2.6994573531644646E10 ; 0.0
143 ; 2958428.9630080597 ; 2.0244011563868836E8 ; 4.1306348556453925E8 ; 2.719700067007815E10 ; 0.0
144 ; 2949761.68150782 ; 2.024530635162403E8 ; 4.160219145275473E8 ; 2.739944078571684E10 ; 0.0
145 ; 2942279.383483565 ; 2.0246598161490437E8 ; 4.189716762090551E8 ; 2.7601893849233078E10 ; 0.0
146 ; 2938678.058677326 ; 2.024788694893124E8 ; 4.219139555925387E8 ; 2.780435983084798E10 ; 0.0
147 ; 2935951.555235773 ; 2.024917266998235E8 ; 4.2485263365121603E8 ; 2.800683870033729E10 ; 0.0
148 ; 2929572.468175532 ; 2.0250455281236944E8 ; 4.277885852064518E8 ; 2.8209330427037117E10 ; 0.0
149 ; 2928365.5179519304 ; 2.0251734739830616E8 ; 4.307181576746273E8 ; 2.8411834979849487E10 ; 0.0
150 ; 2920733.934735264 ; 2.025301100342709E8 ; 4.336465231925792E8 ; 2.8614352327247795E10 ; 0.0
151 ; 2915356.776903558 ; 2.0254284030204496E8 ; 4.3656725712731445E8 ; 2.8816882437282066E10 ; 0.0
152 ; 2916894.5362486914 ; 2.025555377884212E8 ; 4.39482613904218E8 ; 2.901942527758411E10 ; 0.0
153 ; 2911333.651904531 ; 2.0256820208507726E8 ; 4.423995084404667E8 ; 2.922198081537253E10 ; 0.0
154 ; 2907635.915065951 ; 2.0258083278845274E8 ; 4.453108420923712E8 ; 2.9424549017457607E10 ; 0.0
155 ; 2897647.0608917377 ; 2.0259342949963173E8 ; 4.4821847800743717E8 ; 2.962712985024606E10 ; 0.0
156 ; 2896979.602190375 ; 2.0260599182422933E8 ; 4.511161250683289E8 ; 2.982972327974569E10 ; 0.0
157 ; 2890527.448185919 ; 2.0261851937228233E8 ; 4.540131046705193E8 ; 3.003232927156992E10 ; 0.0
158 ; 2886918.592412894 ; 2.0263101175814426E8 ; 4.569036321187052E8 ; 3.0234947790942204E10 ; 0.0
159 ; 2880958.701937623 ; 2.026434686003841E8 ; 4.597905507111181E8 ; 3.0437578802700348E10 ; 0.0
160 ; 2878874.59650332 ; 2.0265588952168867E8 ; 4.626715094130557E8 ; 3.064022227130073E10 ; 0.0
161 ; 2874047.321175263 ; 2.026682741487689E8 ; 4.6555038400955904E8 ; 3.0842878160822422E10 ; 0.0
162 ; 2869155.428842176 ; 2.0268062211226922E8 ; 4.684244313307343E8 ; 3.104554643497119E10 ; 0.0
163 ; 2863320.243321961 ; 2.026929330466803E8 ; 4.712935867595765E8 ; 3.124822705708346E10 ; 0.0
164 ; 2863851.4110081485 ; 2.027052065902551E8 ; 4.7415690700289845E8 ; 3.1450919990130142E10 ; 0.0
165 ; 2857495.716167772 ; 2.0271744238492802E8 ; 4.770207584139066E8 ; 3.1653625196720398E10 ; 0.0
166 ; 2852283.1621129005 ; 2.027296400762365E8 ; 4.798782541300743E8 ; 3.1856342639105328E10 ; 0.0
167 ; 2848048.957916552 ; 2.0274179931324604E8 ; 4.827305372921872E8 ; 3.2059072279181564E10 ; 0.0
168 ; 2842834.9596324554 ; 2.0275391974847767E8 ; 4.855785862501038E8 ; 3.2261814078494812E10 ; 0.0
169 ; 2836422.3693804927 ; 2.0276600103783768E8 ; 4.884214212097362E8 ; 3.246456799824329E10 ; 0.0
170 ; 2831372.0724115972 ; 2.0277804284055048E8 ; 4.912578435791167E8 ; 3.2667333999281128E10 ; 0.0
171 ; 2828047.9351427695 ; 2.0279004481909335E8 ; 4.940892156515283E8 ; 3.2870112042121677E10 ; 0.0
172 ; 2824392.2529654535 ; 2.0280200663913363E8 ; 4.9691726358667105E8 ; 3.307290208694077E10 ; 0.0
173 ; 2821719.836926333 ; 2.0281392796946838E8 ; 4.997416558396365E8 ; 3.3275704093579903E10 ; 0.0
174 ; 2815760.4770748024 ; 2.0282580848196566E8 ; 5.0256337567656285E8 ; 3.347851802154937E10 ; 0.0
175 ; 2813921.828681818 ; 2.0283764785150838E8 ; 5.0537913615363765E8 ; 3.3681343830031334E10 ; 0.0
176 ; 2808522.2286022147 ; 2.0284944575593978E8 ; 5.081930579823195E8 ; 3.3884181477882843E10 ; 0.0
177 ; 2808559.2584261848 ; 2.0286120187601098E8 ; 5.110015802109217E8 ; 3.4087030923638783E10 ; 0.0
178 ; 2802944.8357031564 ; 2.028729158953303E8 ; 5.138101394693479E8 ; 3.4289892125514793E10 ; 0.0
179 ; 2798965.0605928083 ; 2.0288458750031433E8 ; 5.16613084305051E8 ; 3.4492765041410126E10 ; 0.0
180 ; 2798234.433315799 ; 2.028962163801407E8 ; 5.1941204936564386E8 ; 3.469564962891044E10 ; 0.0
181 ; 2793378.587404283 ; 2.029078022267025E8 ; 5.222102837989597E8 ; 3.489854584529058E10 ; 0.0
182 ; 2795705.7646895004 ; 2.0291934473456427E8 ; 5.25003662386364E8 ; 3.510145364751728E10 ; 0.0
183 ; 2785778.92884538 ; 2.029308436009195E8 ; 5.277993681510535E8 ; 3.530437299225185E10 ; 0.0
184 ; 2783778.623648451 ; 2.0294229852554956E8 ; 5.305851470798989E8 ; 3.550730383585277E10 ; 0.0
185 ; 2780562.0751345824 ; 2.0295370921078405E8 ; 5.3336892570354736E8 ; 3.571024613437832E10 ; 0.0
186 ; 2778517.2824404566 ; 2.029650753614626E8 ; 5.3614948777868193E8 ; 3.59131998435891E10 ; 0.0
187 ; 2776927.2494473625 ; 2.029763966848977E8 ; 5.389280050611224E8 ; 3.611616491895057E10 ; 0.0
188 ; 2771984.890564532 ; 2.0298767289083922E8 ; 5.417049323105698E8 ; 3.631914131563547E10 ; 0.0
189 ; 2770000.155152466 ; 2.0299890369143972E8 ; 5.444769172011343E8 ; 3.6522128988526306E10 ; 0.0
190 ; 2766244.608337881 ; 2.0301008880122116E8 ; 5.472469173562868E8 ; 3.672512789221774E10 ; 0.0
191 ; 2761169.7379575865 ; 2.0302122793704274E8 ; 5.500131619646246E8 ; 3.692813798101897E10 ; 0.0
192 ; 2761113.49059499 ; 2.0303232081806964E8 ; 5.527743317025822E8 ; 3.713115920895601E10 ; 0.0
193 ; 2756093.5692650066 ; 2.0304336716574314E8 ; 5.555354451931772E8 ; 3.733419152977408E10 ; 0.0
194 ; 2754212.381520925 ; 2.0305436670375133E8 ; 5.582915387624422E8 ; 3.753723489693982E10 ; 0.0
195 ; 2750044.26535482 ; 2.0306531915800124E8 ; 5.610457511439631E8 ; 3.774028926364357E10 ; 0.0
196 ; 2750967.927786957 ; 2.030762242565916E8 ; 5.63795795409318E8 ; 3.7943354582801575E10 ; 0.0
197 ; 2744715.817365436 ; 2.0308708172978652E8 ; 5.665467633371049E8 ; 3.814643080705817E10 ; 0.0
198 ; 2740405.172958523 ; 2.030978913099903E8 ; 5.692914791544703E8 ; 3.834951788878796E10 ; 0.0
199 ; 2737898.141689234 ; 2.0310865273172286E8 ; 5.720318843274288E8 ; 3.8552615780097946E10 ; 0.0
200 ; 2730586.589893883 ; 2.0311936573159602E8 ; 5.74769782469118E8 ; 3.8755724432829666E10 ; 0.0
