CSV File for the City 4 on Day 85
1 - Minute m 
2 - Power Consumed at minute m 
3 - Power Produced at minute m 
4 - Energy Consumed since the beginning of the day 
5 - Energy Produced since the beginning of the day 
6 - Energy Lost since the beginning of the day on lines starting from the city
 
0 ; 6834380.442748998 ; 1.0615634348956087E8 ; 0.0 ; 0.0 ; 0.0
1 ; 6837851.842654168 ; 1.0630687201864624E8 ; 6834380.442748998 ; 1.0615634348956087E8 ; 0.0
2 ; 6845903.840031955 ; 1.0676642860748449E8 ; 1.3672232285403166E7 ; 2.124632155082071E8 ; 0.0
3 ; 6853639.3370349975 ; 1.0753501752313077E8 ; 2.051813612543512E7 ; 3.192296441156916E8 ; 0.0
4 ; 6862131.237062118 ; 1.086126425923028E8 ; 2.7371775462470118E7 ; 4.267646616388224E8 ; 0.0
5 ; 6878966.612376676 ; 1.0999930717927766E8 ; 3.423390669953223E7 ; 5.353773042311252E8 ; 0.0
6 ; 6892902.625964367 ; 1.1169501416607049E8 ; 4.111287331190891E7 ; 6.453766114104028E8 ; 0.0
7 ; 6915129.240777225 ; 1.1369976593516439E8 ; 4.8005775937873274E7 ; 7.570716255764732E8 ; 0.0
8 ; 6948609.313950432 ; 1.1601356435502982E8 ; 5.49209051786505E7 ; 8.707713915116377E8 ; 0.0
9 ; 6996805.117034795 ; 1.1863641076863885E8 ; 6.186951449260093E7 ; 9.867849558666675E8 ; 0.0
10 ; 7078985.7045434015 ; 1.2156830598513973E8 ; 6.886631960963573E7 ; 1.1054213666353064E9 ; 0.0
11 ; 7198402.7586165825 ; 1.2480925027481171E8 ; 7.594530531417912E7 ; 1.2269896726204462E9 ; 0.0
12 ; 7397449.114503624 ; 1.2835924336737552E8 ; 8.31437080727957E7 ; 1.351798922895258E9 ; 0.0
13 ; 7587781.248568485 ; 1.322182844536829E8 ; 9.054115718729933E7 ; 1.4801581662626336E9 ; 0.0
14 ; 7609674.23601784 ; 1.3638637219076186E8 ; 9.812893843586782E7 ; 1.6123764507163165E9 ; 0.0
15 ; 7617053.934648437 ; 1.4086350471014184E8 ; 1.0573861267188565E8 ; 1.7487628229070783E9 ; 0.0
16 ; 7627397.656253663 ; 1.4564967962933984E8 ; 1.133556666065341E8 ; 1.8896263276172202E9 ; 0.0
17 ; 7637123.3318164395 ; 1.5074489406634066E8 ; 1.2098306426278776E8 ; 2.03527600724656E9 ; 0.0
18 ; 7649052.572264049 ; 1.561491446568672E8 ; 1.286201875946042E8 ; 2.1860209013129005E9 ; 0.0
19 ; 7656584.128953515 ; 1.618624275742018E8 ; 1.3626924016686824E8 ; 2.3421700459697676E9 ; 0.0
20 ; 7666229.592085535 ; 1.6788473855128923E8 ; 1.4392582429582176E8 ; 2.504032473543969E9 ; 0.0
21 ; 7673346.678330549 ; 1.7421607290483233E8 ; 1.515920538879073E8 ; 2.671917212095258E9 ; 0.0
22 ; 7682150.371621326 ; 1.8085642556107247E8 ; 1.5926540056623784E8 ; 2.8461332850000906E9 ; 0.0
23 ; 7691958.834171845 ; 1.878057910829407E8 ; 1.6694755093785918E8 ; 3.026989710561163E9 ; 0.0
24 ; 7700152.797858806 ; 1.9506416369825983E8 ; 1.74639509772031E8 ; 3.2147955016441035E9 ; 0.0
25 ; 7711227.381018806 ; 2.0131957822686818E8 ; 1.823396625698898E8 ; 3.4098596653423634E9 ; 0.0
26 ; 7717221.860638409 ; 2.0132557614688635E8 ; 1.9005088995090863E8 ; 3.6111792435692315E9 ; 0.0
27 ; 7727251.442056874 ; 2.0133192014913148E8 ; 1.9776811181154704E8 ; 3.812504819716118E9 ; 0.0
28 ; 7733010.193836881 ; 2.0133860341326666E8 ; 2.054953632536039E8 ; 4.013836739865249E9 ; 0.0
29 ; 7742927.958197244 ; 2.0134561893003753E8 ; 2.1322837344744077E8 ; 4.215175343278516E9 ; 0.0
30 ; 7751678.070342162 ; 2.0135295952964988E8 ; 2.20971301405638E8 ; 4.416520962208553E9 ; 0.0
31 ; 7759897.54074058 ; 2.013606179093317E8 ; 2.2872297947598016E8 ; 4.617873921738203E9 ; 0.0
32 ; 7769089.518768307 ; 2.013685866599047E8 ; 2.3648287701672074E8 ; 4.819234539647534E9 ; 0.0
33 ; 7776686.626196957 ; 2.0137685829121727E8 ; 2.4425196653548905E8 ; 5.020603126307439E9 ; 0.0
34 ; 7784724.975211941 ; 2.013854252563188E8 ; 2.52028653161686E8 ; 5.221979984598656E9 ; 0.0
35 ; 7790168.921774039 ; 2.0139427997428003E8 ; 2.5981337813689795E8 ; 5.423365409854975E9 ; 0.0
36 ; 7797589.772428028 ; 2.014034148515898E8 ; 2.6760354705867198E8 ; 5.624759689829255E9 ; 0.0
37 ; 7803264.167560184 ; 2.0141282230208167E8 ; 2.754011368311E8 ; 5.826163104680845E9 ; 0.0
38 ; 7811945.581723871 ; 2.01422494765365E8 ; 2.8320440099866015E8 ; 6.027575926982927E9 ; 0.0
39 ; 7816863.277220037 ; 2.0143242472375375E8 ; 2.91016346580384E8 ; 6.228998421748292E9 ; 0.0
40 ; 7823613.941069011 ; 2.0144260471770436E8 ; 2.98833209857604E8 ; 6.430430846472046E9 ; 0.0
41 ; 7828599.487908256 ; 2.0145302735978767E8 ; 3.0665682379867303E8 ; 6.631873451189751E9 ; 0.0
42 ; 7836639.008260978 ; 2.014636853472332E8 ; 3.144854232865813E8 ; 6.833326478549539E9 ; 0.0
43 ; 7839505.289830172 ; 2.0147457147309408E8 ; 3.2232206229484224E8 ; 7.034790163896771E9 ; 0.0
44 ; 7844728.953605797 ; 2.014856786360895E8 ; 3.301615675846724E8 ; 7.236264735369865E9 ; 0.0
45 ; 7848053.132655879 ; 2.0149699984918863E8 ; 3.3800629653827816E8 ; 7.437750414005955E9 ; 0.0
46 ; 7853608.725709075 ; 2.0150852824700364E8 ; 3.45854349670934E8 ; 7.639247413855144E9 ; 0.0
47 ; 7858404.269495452 ; 2.015202570920642E8 ; 3.537079583966431E8 ; 7.840755942102147E9 ; 0.0
48 ; 7862524.580610789 ; 2.015321797800466E8 ; 3.615663626661385E8 ; 8.042276199194211E9 ; 0.0
49 ; 7862653.113441995 ; 2.015442898440324E8 ; 3.6942888724674934E8 ; 8.243808378974257E9 ; 0.0
50 ; 7867088.526603295 ; 2.0155658095787024E8 ; 3.7729154036019135E8 ; 8.44535266881829E9 ; 0.0
51 ; 7869779.3186725825 ; 2.015690469387145E8 ; 3.851586288867946E8 ; 8.64690924977616E9 ; 0.0
52 ; 7874588.939517204 ; 2.0158168174881154E8 ; 3.930284082054672E8 ; 8.848478296714874E9 ; 0.0
53 ; 7877636.44328127 ; 2.0159447949660286E8 ; 4.009029971449844E8 ; 9.050059978463686E9 ; 0.0
54 ; 7878283.080367425 ; 2.0160743443721074E8 ; 4.087806335882657E8 ; 9.251654457960289E9 ; 0.0
55 ; 7880010.72598346 ; 2.0162054097236982E8 ; 4.1665891666863316E8 ; 9.4532618923975E9 ; 0.0
56 ; 7878094.057086792 ; 2.0163379364986357E8 ; 4.245389273946166E8 ; 9.65488243336987E9 ; 0.0
57 ; 7881935.792313279 ; 2.016471871625218E8 ; 4.3241702145170337E8 ; 9.856516227019733E9 ; 0.0
58 ; 7884957.789820503 ; 2.016607163468316E8 ; 4.4029895724401665E8 ; 1.0058163414182255E10 ; 0.0
59 ; 7886302.560659436 ; 2.0167437618121004E8 ; 4.4818391503383714E8 ; 1.0259824130529087E10 ; 0.0
60 ; 7883622.059161877 ; 2.016881617839841E8 ; 4.5607021759449655E8 ; 1.0461498506710297E10 ; 0.0
61 ; 7888499.241556968 ; 2.0170206841111872E8 ; 4.6395383965365845E8 ; 1.066318666849428E10 ; 0.0
62 ; 7890989.399751305 ; 2.017160914537315E8 ; 4.718423388952154E8 ; 1.08648887369054E10 ; 0.0
63 ; 7892355.102317041 ; 2.0173022643542874E8 ; 4.797333282949667E8 ; 1.106660482835913E10 ; 0.0
64 ; 7894732.077538629 ; 2.0174446900949377E8 ; 4.8762568339728373E8 ; 1.126833505479456E10 ; 0.0
65 ; 7897338.947769125 ; 2.017588149559574E8 ; 4.9552041547482234E8 ; 1.1470079523804052E10 ; 0.0
66 ; 7895445.163409068 ; 2.017732601785749E8 ; 5.0341775442259145E8 ; 1.167183833876001E10 ; 0.0
67 ; 7900484.608627063 ; 2.017878007017336E8 ; 5.113131995860005E8 ; 1.1873611598938585E10 ; 0.0
68 ; 7901243.136483742 ; 2.0180243266731155E8 ; 5.192136841946276E8 ; 1.207539939964032E10 ; 0.0
69 ; 7901809.546496375 ; 2.018171523315055E8 ; 5.271149273311113E8 ; 1.227720183230763E10 ; 0.0
70 ; 7905060.292978766 ; 2.0183195606164467E8 ; 5.350167368776077E8 ; 1.2479018984639135E10 ; 0.0
71 ; 7902695.999694923 ; 2.0184684033300453E8 ; 5.429217971705865E8 ; 1.268085094070078E10 ; 0.0
72 ; 7904194.782576194 ; 2.0186180172563353E8 ; 5.508244931702814E8 ; 1.2882697781033785E10 ; 0.0
73 ; 7904786.442875234 ; 2.0187683692120317E8 ; 5.587286879528576E8 ; 1.3084559582759418E10 ; 0.0
74 ; 7907668.132626838 ; 2.0189194269989148E8 ; 5.666334743957329E8 ; 1.3286436419680622E10 ; 0.0
75 ; 7904901.550637075 ; 2.0190711593730763E8 ; 5.745411425283598E8 ; 1.3488328362380514E10 ; 0.0
76 ; 7906200.917632305 ; 2.0192235360146487E8 ; 5.824460440789969E8 ; 1.3690235478317822E10 ; 0.0
77 ; 7909039.861186238 ; 2.019376527498074E8 ; 5.903522449966292E8 ; 1.3892157831919287E10 ; 0.0
78 ; 7907989.585630083 ; 2.0195301052629638E8 ; 5.982612848578155E8 ; 1.4094095484669094E10 ; 0.0
79 ; 7908343.976480095 ; 2.0196842415855855E8 ; 6.061692744434456E8 ; 1.429604849519539E10 ; 0.0
80 ; 7901383.632831426 ; 2.0198389095510116E8 ; 6.140776184199257E8 ; 1.4498016919353949E10 ; 0.0
81 ; 7900070.928138022 ; 2.0199940830259526E8 ; 6.219790020527571E8 ; 1.470000081030905E10 ; 0.0
82 ; 7903118.10878323 ; 2.0201497366322955E8 ; 6.298790729808952E8 ; 1.4902000218611645E10 ; 0.0
83 ; 7897739.323852189 ; 2.0203058457213604E8 ; 6.377821910896784E8 ; 1.5104015192274874E10 ; 0.0
84 ; 7894270.121976236 ; 2.0204623863488802E8 ; 6.456799304135306E8 ; 1.530604577684701E10 ; 0.0
85 ; 7893280.594116564 ; 2.0206193352507123E8 ; 6.535742005355068E8 ; 1.5508092015481897E10 ; 0.0
86 ; 7890072.370013782 ; 2.020776669819282E8 ; 6.614674811296234E8 ; 1.571015394900697E10 ; 0.0
87 ; 7890432.116126865 ; 2.0209343680807498E8 ; 6.693575534996372E8 ; 1.5912231615988897E10 ; 0.0
88 ; 7886763.036145633 ; 2.0210924086729044E8 ; 6.772479856157641E8 ; 1.6114325052796972E10 ; 0.0
89 ; 7885688.731525943 ; 2.0212507708237675E8 ; 6.851347486519098E8 ; 1.6316434293664263E10 ; 0.0
90 ; 7881777.443086475 ; 2.021409434330906E8 ; 6.930204373834357E8 ; 1.651855937074664E10 ; 0.0
91 ; 7879464.230572166 ; 2.021568379541434E8 ; 7.009022148265222E8 ; 1.672070031417973E10 ; 0.0
92 ; 7878612.918328523 ; 2.0217275873326972E8 ; 7.087816790570945E8 ; 1.6922857152133873E10 ; 0.0
93 ; 7874065.275876311 ; 2.0218870390936223E8 ; 7.16660291975423E8 ; 1.7125029910867144E10 ; 0.0
94 ; 7873620.1992297415 ; 2.0220467167067158E8 ; 7.245343572512993E8 ; 1.7327218614776505E10 ; 0.0
95 ; 7868017.013640406 ; 2.0222066025307018E8 ; 7.32407977450529E8 ; 1.7529423286447178E10 ; 0.0
96 ; 7866497.644538767 ; 2.022366679383774E8 ; 7.402759944641694E8 ; 1.773164394670025E10 ; 0.0
97 ; 7863928.810902954 ; 2.0225269305274534E8 ; 7.481424921087081E8 ; 1.7933880614638626E10 ; 0.0
98 ; 7857966.332311499 ; 2.0226873396510282E8 ; 7.560064209196111E8 ; 1.8136133307691372E10 ; 0.0
99 ; 7857102.177071287 ; 2.0228478908565626E8 ; 7.638643872519226E8 ; 1.8338402041656475E10 ; 0.0
100 ; 7852025.072669098 ; 2.0230085686444566E8 ; 7.717214894289939E8 ; 1.854068683074213E10 ; 0.0
101 ; 7847983.527689123 ; 2.0231693578995377E8 ; 7.795735145016631E8 ; 1.8742987687606575E10 ; 0.0
102 ; 7845464.237075612 ; 2.0233302438776696E8 ; 7.874214980293522E8 ; 1.894530462339653E10 ; 0.0
103 ; 7841858.0451840805 ; 2.02349121219286E8 ; 7.952669622664278E8 ; 1.9147637647784298E10 ; 0.0
104 ; 7838424.3860564865 ; 2.0236522488048488E8 ; 8.031088203116119E8 ; 1.9349986769003586E10 ; 0.0
105 ; 7834318.019877834 ; 2.023813340007165E8 ; 8.109472446976684E8 ; 1.955235199388407E10 ; 0.0
106 ; 7832300.743467901 ; 2.023974472415631E8 ; 8.187815627175462E8 ; 1.975473332788479E10 ; 0.0
107 ; 7830059.755406831 ; 2.024135632957301E8 ; 8.266138634610142E8 ; 1.995713077512635E10 ; 0.0
108 ; 7825636.896959447 ; 2.024296808859818E8 ; 8.34443923216421E8 ; 2.015954433842208E10 ; 0.0
109 ; 7821395.907233136 ; 2.0244579876411727E8 ; 8.422695601133804E8 ; 2.0361974019308064E10 ; 0.0
110 ; 7818237.486967239 ; 2.0246191570998517E8 ; 8.500909560206136E8 ; 2.056441981807218E10 ; 0.0
111 ; 7811346.046359484 ; 2.0247803053053588E8 ; 8.579091935075808E8 ; 2.0766881733782166E10 ; 0.0
112 ; 7808892.359542182 ; 2.0249414205890974E8 ; 8.657205395539403E8 ; 2.0969359764312702E10 ; 0.0
113 ; 7803992.813972142 ; 2.0251024915355963E8 ; 8.735294319134824E8 ; 2.1171853906371613E10 ; 0.0
114 ; 7799980.4798719175 ; 2.0252635069740728E8 ; 8.813334247274545E8 ; 2.1374364155525173E10 ; 0.0
115 ; 7795326.298565148 ; 2.0254244559703127E8 ; 8.891334052073264E8 ; 2.157689050622258E10 ; 0.0
116 ; 7794398.120186616 ; 2.0255853278188607E8 ; 8.969287315058916E8 ; 2.177943295181961E10 ; 0.0
117 ; 7789140.755320008 ; 2.025746112035507E8 ; 9.047231296260781E8 ; 2.1981991484601498E10 ; 0.0
118 ; 7784845.227171018 ; 2.0259067983500576E8 ; 9.125122703813981E8 ; 2.218456609580505E10 ; 0.0
119 ; 7778724.523451158 ; 2.0260673766993794E8 ; 9.202971156085691E8 ; 2.2387156775640057E10 ; 0.0
120 ; 7772200.715024938 ; 2.0262278372207093E8 ; 9.280758401320204E8 ; 2.2589763513309994E10 ; 0.0
121 ; 7769123.52071034 ; 2.026388170245214E8 ; 9.358480408470453E8 ; 2.2792386297032066E10 ; 0.0
122 ; 7767573.514819481 ; 2.026548366291796E8 ; 9.436171643677557E8 ; 2.2995025114056587E10 ; 0.0
123 ; 7760246.029505466 ; 2.026708416061129E8 ; 9.513847378825752E8 ; 2.319767995068577E10 ; 0.0
124 ; 7756458.808856477 ; 2.0268683104299217E8 ; 9.591449839120806E8 ; 2.340035079229188E10 ; 0.0
125 ; 7748628.170999786 ; 2.027028040445395E8 ; 9.669014427209371E8 ; 2.3603037623334873E10 ; 0.0
126 ; 7745678.774915496 ; 2.0271875973199666E8 ; 9.746500708919369E8 ; 2.3805740427379414E10 ; 0.0
127 ; 7738749.52257505 ; 2.0273469724261338E8 ; 9.823957496668524E8 ; 2.4008459187111412E10 ; 0.0
128 ; 7732964.644795624 ; 2.0275061572915488E8 ; 9.901344991894274E8 ; 2.4211193884354027E10 ; 0.0
129 ; 7726813.299582773 ; 2.027665143594277E8 ; 9.97867463834223E8 ; 2.4413944500083183E10 ; 0.0
130 ; 7723538.576060003 ; 2.0278239231582296E8 ; 1.0055942771338058E9 ; 2.461671101444261E10 ; 0.0
131 ; 7715303.003305937 ; 2.0279824879487702E8 ; 1.0133178157098658E9 ; 2.4819493406758434E10 ; 0.0
132 ; 7710304.747330038 ; 2.0281408300684774E8 ; 1.0210331187131717E9 ; 2.502229165555331E10 ; 0.0
133 ; 7701036.2376132365 ; 2.0282989417530704E8 ; 1.0287434234605018E9 ; 2.5225105738560158E10 ; 0.0
134 ; 7690440.420944935 ; 2.0284568153674796E8 ; 1.036444459698115E9 ; 2.5427935632735466E10 ; 0.0
135 ; 7685413.710925874 ; 2.0286144434020647E8 ; 1.0441349001190599E9 ; 2.5630781314272213E10 ; 0.0
136 ; 7676201.755218272 ; 2.0287718184689698E8 ; 1.0518203138299857E9 ; 2.583364275861242E10 ; 0.0
137 ; 7666394.773325968 ; 2.0289289332986104E8 ; 1.059496515585204E9 ; 2.6036519940459316E10 ; 0.0
138 ; 7662047.675041146 ; 2.029085780736292E8 ; 1.0671629103585299E9 ; 2.6239412833789177E10 ; 0.0
139 ; 7650165.251680948 ; 2.0292423537389475E8 ; 1.074824958033571E9 ; 2.6442321411862804E10 ; 0.0
140 ; 7641137.401958286 ; 2.0293986453719956E8 ; 1.0824751232852519E9 ; 2.66452456472367E10 ; 0.0
141 ; 7635177.3406392895 ; 2.0295546488063115E8 ; 1.09011626068721E9 ; 2.68481855117739E10 ; 0.0
142 ; 7627010.086085413 ; 2.0297103573153055E8 ; 1.0977514380278494E9 ; 2.705114097665453E10 ; 0.0
143 ; 7617006.938064255 ; 2.0298657642721093E8 ; 1.1053784481139348E9 ; 2.725411201238606E10 ; 0.0
144 ; 7605861.798151775 ; 2.0300208631468615E8 ; 1.112995455051999E9 ; 2.745709858881327E10 ; 0.0
145 ; 7606375.611878268 ; 2.0301756475040886E8 ; 1.1206013168501508E9 ; 2.7660100675127956E10 ; 0.0
146 ; 7599184.889031944 ; 2.0303301110001814E8 ; 1.128207692462029E9 ; 2.7863118239878365E10 ; 0.0
147 ; 7593039.186045479 ; 2.0304842473809606E8 ; 1.1358068773510609E9 ; 2.8066151250978382E10 ; 0.0
148 ; 7586575.000839228 ; 2.030638050479327E8 ; 1.1433999165371063E9 ; 2.8269199675716476E10 ; 0.0
149 ; 7580550.3070020955 ; 2.0307915142129973E8 ; 1.1509864915379455E9 ; 2.847226348076441E10 ; 0.0
150 ; 7574769.357977434 ; 2.030944632582315E8 ; 1.1585670418449476E9 ; 2.8675342632185707E10 ; 0.0
151 ; 7569685.58337082 ; 2.0310973996681437E8 ; 1.166141811202925E9 ; 2.887843709544394E10 ; 0.0
152 ; 7561275.449240561 ; 2.0312498096298292E8 ; 1.173711496786296E9 ; 2.9081546835410755E10 ; 0.0
153 ; 7557462.76164481 ; 2.0314018567032364E8 ; 1.1812727722355363E9 ; 2.9284671816373737E10 ; 0.0
154 ; 7552510.741925807 ; 2.0315535351988506E8 ; 1.1888302349971812E9 ; 2.948781200204406E10 ; 0.0
155 ; 7545821.9101017425 ; 2.031704839499948E8 ; 1.196382745739107E9 ; 2.9690967355563946E10 ; 0.0
156 ; 7538792.331991561 ; 2.031855764060827E8 ; 1.2039285676492085E9 ; 2.989413783951394E10 ; 0.0
157 ; 7534201.570814404 ; 2.032006303405102E8 ; 1.2114673599812002E9 ; 3.009732341592002E10 ; 0.0
158 ; 7526824.35914918 ; 2.0321564521240538E8 ; 1.2190015615520146E9 ; 3.0300524046260532E10 ; 0.0
159 ; 7518760.039835533 ; 2.03230620487504E8 ; 1.2265283859111638E9 ; 3.050373969147294E10 ; 0.0
160 ; 7512119.022940426 ; 2.0324555563799545E8 ; 1.2340471459509993E9 ; 3.070697031196044E10 ; 0.0
161 ; 7510325.685461995 ; 2.032604501423744E8 ; 1.2415592649739397E9 ; 3.091021586759844E10 ; 0.0
162 ; 7501333.90656894 ; 2.032753034852972E8 ; 1.2490695906594017E9 ; 3.1113476317740814E10 ; 0.0
163 ; 7496036.397990029 ; 2.032901151574433E8 ; 1.2565709245659707E9 ; 3.1316751621226112E10 ; 0.0
164 ; 7488626.329190437 ; 2.033048846553813E8 ; 1.2640669609639606E9 ; 3.1520041736383556E10 ; 0.0
165 ; 7483819.427344394 ; 2.033196114814393E8 ; 1.2715555872931511E9 ; 3.1723346621038937E10 ; 0.0
166 ; 7477510.382103934 ; 2.0333429514357993E8 ; 1.2790394067204955E9 ; 3.1926666232520374E10 ; 0.0
167 ; 7472810.022365539 ; 2.0334893515527943E8 ; 1.2865169171025994E9 ; 3.2130000527663956E10 ; 0.0
168 ; 7461344.447682237 ; 2.0336353103541055E8 ; 1.293989727124965E9 ; 3.2333349462819237E10 ; 0.0
169 ; 7458978.979237414 ; 2.0337808230812964E8 ; 1.301451071572647E9 ; 3.253671299385465E10 ; 0.0
170 ; 7453828.127090669 ; 2.0339258850276732E8 ; 1.3089100505518844E9 ; 3.2740091076162777E10 ; 0.0
171 ; 7446339.466688018 ; 2.0340704915372285E8 ; 1.316363878678975E9 ; 3.2943483664665543E10 ; 0.0
172 ; 7438746.8985315915 ; 2.0342146380036175E8 ; 1.323810218145663E9 ; 3.3146890713819267E10 ; 0.0
173 ; 7434185.40120059 ; 2.0343583198691717E8 ; 1.3312489650441947E9 ; 3.335031217761963E10 ; 0.0
174 ; 7427166.96625769 ; 2.034501532623942E8 ; 1.3386831504453952E9 ; 3.3553748009606544E10 ; 0.0
175 ; 7423729.450494766 ; 2.0346442718047726E8 ; 1.3461103174116528E9 ; 3.375719816286894E10 ; 0.0
176 ; 7423040.755683963 ; 2.0347865329944095E8 ; 1.3535340468621476E9 ; 3.3960662590049416E10 ; 0.0
177 ; 7417442.020334008 ; 2.0349283118206304E8 ; 1.3609570876178315E9 ; 3.4164141243348858E10 ; 0.0
178 ; 7414126.234851537 ; 2.0350696039554116E8 ; 1.3683745296381655E9 ; 3.436763407453092E10 ; 0.0
179 ; 7408801.445410043 ; 2.0352104051141146E8 ; 1.375788655873017E9 ; 3.457114103492646E10 ; 0.0
180 ; 7405618.729917107 ; 2.035350711054702E8 ; 1.383197457318427E9 ; 3.4774662075437874E10 ; 0.0
181 ; 7399908.2390390895 ; 2.035490517576981E8 ; 1.3906030760483441E9 ; 3.497819714654334E10 ; 0.0
182 ; 7395138.4297925625 ; 2.0356298205218643E8 ; 1.3980029842873833E9 ; 3.518174619830104E10 ; 0.0
183 ; 7394356.69762043 ; 2.035768615770663E8 ; 1.405398122717176E9 ; 3.5385309180353226E10 ; 0.0
184 ; 7389015.9314994505 ; 2.0359068992443955E8 ; 1.4127924794147964E9 ; 3.558888604193029E10 ; 0.0
185 ; 7385175.5419539455 ; 2.0360446669031218E8 ; 1.4201814953462958E9 ; 3.579247673185473E10 ; 0.0
186 ; 7381468.386516008 ; 2.0361819147452986E8 ; 1.4275666708882499E9 ; 3.5996081198545044E10 ; 0.0
187 ; 7378511.093739543 ; 2.036318638807153E8 ; 1.434948139274766E9 ; 3.619969939001958E10 ; 0.0
188 ; 7373339.1157913795 ; 2.0364548351620793E8 ; 1.4423266503685055E9 ; 3.640333125390029E10 ; 0.0
189 ; 7367788.732584592 ; 2.0365904999200502E8 ; 1.4496999894842968E9 ; 3.66069767374165E10 ; 0.0
190 ; 7363075.525509831 ; 2.036725629227052E8 ; 1.4570677782168813E9 ; 3.68106357874085E10 ; 0.0
191 ; 7359684.998556998 ; 2.0368602192645335E8 ; 1.464430853742391E9 ; 3.701430835033121E10 ; 0.0
192 ; 7355125.691953498 ; 2.0369942662488735E8 ; 1.4717905387409482E9 ; 3.721799437225766E10 ; 0.0
193 ; 7353973.233704081 ; 2.0371277664308646E8 ; 1.4791456644329016E9 ; 3.7421693798882545E10 ; 0.0
194 ; 7346862.887617866 ; 2.0372607160952148E8 ; 1.4864996376666057E9 ; 3.7625406575525635E10 ; 0.0
195 ; 7344459.128395915 ; 2.0373931115600625E8 ; 1.4938465005542235E9 ; 3.7829132647135155E10 ; 0.0
196 ; 7340616.863538713 ; 2.037524949176507E8 ; 1.5011909596826196E9 ; 3.803287195829116E10 ; 0.0
197 ; 7339171.472897207 ; 2.037656225328155E8 ; 1.5085315765461583E9 ; 3.823662445320881E10 ; 0.0
198 ; 7331932.672148242 ; 2.037786936430679E8 ; 1.5158707480190556E9 ; 3.844039007574162E10 ; 0.0
199 ; 7329978.861265014 ; 2.0379170789313924E8 ; 1.5232026806912038E9 ; 3.864416876938469E10 ; 0.0
200 ; 7322742.4858268155 ; 1.8082367781722423E8 ; 1.5305326595524688E9 ; 3.884796047727783E10 ; 0.0
201 ; 7321616.565113579 ; 1.5497757118838066E8 ; 1.5378554020382955E9 ; 3.9028784155095055E10 ; 0.0
