CSV File for the City 4 on Day 63
1 - Minute m 
2 - Power Consumed at minute m 
3 - Power Produced at minute m 
4 - Energy Consumed since the beginning of the day 
5 - Energy Produced since the beginning of the day 
6 - Energy Lost since the beginning of the day on lines starting from the city
 
0 ; 6805391.374882741 ; 1.0597068326359883E8 ; 0.0 ; 0.0 ; 0.0
1 ; 6809283.750721786 ; 1.0612100246648371E8 ; 6805391.374882741 ; 1.0597068326359883E8 ; 0.0
2 ; 6817366.83480182 ; 1.0658036713002035E8 ; 1.3614675125604527E7 ; 2.1209168573008254E8 ; 0.0
3 ; 6827610.759995585 ; 1.0734878298431504E8 ; 2.0432041960406348E7 ; 3.186720528601029E8 ; 0.0
4 ; 6836692.354636612 ; 1.0842625519337994E8 ; 2.7259652720401935E7 ; 4.260208358444179E8 ; 0.0
5 ; 6848195.445714956 ; 1.0981278831695455E8 ; 3.4096345075038545E7 ; 5.3444709103779787E8 ; 0.0
6 ; 6864734.1267604735 ; 1.115083862759107E8 ; 4.09445405207535E7 ; 6.442598793547524E8 ; 0.0
7 ; 6887786.418618069 ; 1.1351305232183951E8 ; 4.780927464751398E7 ; 7.557682656306632E8 ; 0.0
8 ; 6921021.264705452 ; 1.1582678901135826E8 ; 5.469706106613205E7 ; 8.692813179525027E8 ; 0.0
9 ; 6969784.35858071 ; 1.1844959818560916E8 ; 6.1618082330837496E7 ; 9.85108106963861E8 ; 0.0
10 ; 7047204.448900981 ; 1.2138148095533025E8 ; 6.858786668941821E7 ; 1.10355770514947E9 ; 0.0
11 ; 7169923.512924879 ; 1.2462243769178203E8 ; 7.56350711383192E7 ; 1.2249391861048002E9 ; 0.0
12 ; 7367828.970233572 ; 1.2817246802370396E8 ; 8.280499465124407E7 ; 1.3495616237965822E9 ; 0.0
13 ; 7557060.704717874 ; 1.3203157084035802E8 ; 9.017282362147765E7 ; 1.4777340918202863E9 ; 0.0
14 ; 7582577.39803725 ; 1.3619974430060208E8 ; 9.772988432619552E7 ; 1.6097656626606443E9 ; 0.0
15 ; 7590095.800181179 ; 1.4067698584781873E8 ; 1.0531246172423278E8 ; 1.7459654069612465E9 ; 0.0
16 ; 7597332.346310961 ; 1.4546329223041698E8 ; 1.1290255752441396E8 ; 1.8866423928090653E9 ; 0.0
17 ; 7606214.66185875 ; 1.5055865952752492E8 ; 1.2049988987072492E8 ; 2.0321056850394824E9 ; 0.0
18 ; 7616463.081270162 ; 1.5596308317940307E8 ; 1.2810610453258367E8 ; 2.182664344567007E9 ; 0.0
19 ; 7624489.441399553 ; 1.6167655802203926E8 ; 1.3572256761385384E8 ; 2.3386274277464104E9 ; 0.0
20 ; 7633327.576856965 ; 1.676990783253272E8 ; 1.433470570552534E8 ; 2.50030398576845E9 ; 0.0
21 ; 7643802.248176287 ; 1.7403063783419743E8 ; 1.5098038463211036E8 ; 2.668003064093777E9 ; 0.0
22 ; 7650776.6780649265 ; 1.8067122981204754E8 ; 1.5862418688028663E8 ; 2.8420337019279747E9 ; 0.0
23 ; 7661039.061237053 ; 1.876208470858174E8 ; 1.6627496355835155E8 ; 3.022704931740022E9 ; 0.0
24 ; 7668715.42899415 ; 1.948794820920697E8 ; 1.739360026195886E8 ; 3.2103257788258395E9 ; 0.0
25 ; 7676606.284142882 ; 2.011351678216464E8 ; 1.8160471804858276E8 ; 3.405205260917909E9 ; 0.0
26 ; 7683698.824699203 ; 2.0114144390285847E8 ; 1.8928132433272564E8 ; 3.6063404287395554E9 ; 0.0
27 ; 7694295.393160255 ; 2.011480711719814E8 ; 1.9696502315742484E8 ; 3.8074818726424136E9 ; 0.0
28 ; 7702178.346717948 ; 2.0115504096445325E8 ; 2.046593185505851E8 ; 4.008629943814395E9 ; 0.0
29 ; 7709133.066469954 ; 2.0116234445097494E8 ; 2.1236149689730304E8 ; 4.209784984778848E9 ; 0.0
30 ; 7718584.361085329 ; 2.0116997267845473E8 ; 2.20070629963773E8 ; 4.410947329229823E9 ; 0.0
31 ; 7723881.116860992 ; 2.011779166087667E8 ; 2.2778921432485834E8 ; 4.6121173019082775E9 ; 0.0
32 ; 7734290.031975269 ; 2.0118616715510932E8 ; 2.3551309544171932E8 ; 4.813295218517044E9 ; 0.0
33 ; 7741256.432799293 ; 2.0119471521581042E8 ; 2.432473854736946E8 ; 5.014481385672153E9 ; 0.0
34 ; 7751895.655593574 ; 2.012035517054799E8 ; 2.5098864190649387E8 ; 5.215676100887964E9 ; 0.0
35 ; 7755661.983696774 ; 2.0121266758346087E8 ; 2.5874053756208745E8 ; 5.416879652593444E9 ; 0.0
36 ; 7764517.576399422 ; 2.0122205387957555E8 ; 2.6649619954578424E8 ; 5.618092320176905E9 ; 0.0
37 ; 7769287.983947605 ; 2.01231701717199E8 ; 2.742607171221837E8 ; 5.81931437405648E9 ; 0.0
38 ; 7778782.4329837235 ; 2.0124160233372822E8 ; 2.820300051061313E8 ; 6.02054607577368E9 ; 0.0
39 ; 7782711.247958284 ; 2.0125174709853894E8 ; 2.89808787539115E8 ; 6.221787678107408E9 ; 0.0
40 ; 7788029.508695212 ; 2.0126212752854508E8 ; 2.975914987870733E8 ; 6.423039425205947E9 ; 0.0
41 ; 7795194.818580157 ; 2.012727353014908E8 ; 3.053795282957685E8 ; 6.624301552734492E9 ; 0.0
42 ; 7798149.393444711 ; 2.0128356226711738E8 ; 3.1317472311434865E8 ; 6.825574288035983E9 ; 0.0
43 ; 7803513.788585342 ; 2.0129460045635363E8 ; 3.2097287250779337E8 ; 7.026857850303101E9 ; 0.0
44 ; 7809641.583712206 ; 2.013058420886832E8 ; 3.2877638629637873E8 ; 7.228152450759454E9 ; 0.0
45 ; 7814148.691762234 ; 2.013172795778416E8 ; 3.3658602788009095E8 ; 7.429458292848137E9 ; 0.0
46 ; 7818704.391734277 ; 2.0132890553599575E8 ; 3.4440017657185316E8 ; 7.630775572425979E9 ; 0.0
47 ; 7821658.423424371 ; 2.0134071277655262E8 ; 3.5221888096358746E8 ; 7.832104477961974E9 ; 0.0
48 ; 7824175.925706596 ; 2.013526943157405E8 ; 3.600405393870118E8 ; 8.033445190738526E9 ; 0.0
49 ; 7826699.996705593 ; 2.0136484337309796E8 ; 3.6786471531271845E8 ; 8.234797885054267E9 ; 0.0
50 ; 7829961.779272216 ; 2.0137715337099856E8 ; 3.7569141530942404E8 ; 8.436162728427365E9 ; 0.0
51 ; 7833164.5907226335 ; 2.0138961793333158E8 ; 3.8352137708869624E8 ; 8.637539881798365E9 ; 0.0
52 ; 7831836.9942529 ; 2.0140223088344973E8 ; 3.9135454167941886E8 ; 8.838929499731697E9 ; 0.0
53 ; 7836855.289202202 ; 2.0141498624148726E8 ; 3.991863786736718E8 ; 9.040331730615147E9 ; 0.0
54 ; 7837745.729638696 ; 2.0142787822114196E8 ; 4.07023233962874E8 ; 9.241746716856634E9 ; 0.0
55 ; 7834439.279961582 ; 2.0144090122600743E8 ; 4.148609796925127E8 ; 9.443174595077776E9 ; 0.0
56 ; 7841833.325456734 ; 2.014540498455334E8 ; 4.226954189724743E8 ; 9.644615496303783E9 ; 0.0
57 ; 7843053.131668633 ; 2.0146731885068348E8 ; 4.30537252297931E8 ; 9.846069546149317E9 ; 0.0
58 ; 7844065.879365565 ; 2.014807031893539E8 ; 4.3838030542959964E8 ; 1.0047536865E10 ; 0.0
59 ; 7842237.340075492 ; 2.0149419798160836E8 ; 4.462243713089652E8 ; 1.0249017568189354E10 ; 0.0
60 ; 7846815.846094611 ; 2.0150779851477888E8 ; 4.540666086490407E8 ; 1.0450511766170961E10 ; 0.0
61 ; 7847154.205690086 ; 2.015215002384758E8 ; 4.619134244951353E8 ; 1.065201956468574E10 ; 0.0
62 ; 7849711.374344261 ; 2.015352987595456E8 ; 4.697605787008254E8 ; 1.0853541064924215E10 ; 0.0
63 ; 7849369.241489777 ; 2.0154918983700895E8 ; 4.776102900751697E8 ; 1.1055076363683762E10 ; 0.0
64 ; 7851631.492955379 ; 2.0156316937700835E8 ; 4.8545965931665945E8 ; 1.1256625553520771E10 ; 0.0
65 ; 7851222.167303066 ; 2.0157723342778945E8 ; 4.9331129080961484E8 ; 1.145818872289778E10 ; 0.0
66 ; 7856687.875783681 ; 2.0159137817473707E8 ; 5.011625129769179E8 ; 1.165976595632557E10 ; 0.0
67 ; 7855908.679157186 ; 2.0160559993548375E8 ; 5.090192008527016E8 ; 1.1861357334500307E10 ; 0.0
68 ; 7857666.439107648 ; 2.0161989515510502E8 ; 5.168751095318588E8 ; 1.2062962934435791E10 ; 0.0
69 ; 7856427.786247556 ; 2.016342604014141E8 ; 5.2473277597096646E8 ; 1.2264582829590897E10 ; 0.0
70 ; 7862833.320724766 ; 2.0164869236036494E8 ; 5.32589203757214E8 ; 1.2466217089992311E10 ; 0.0
71 ; 7859865.859881244 ; 2.0166318783157235E8 ; 5.404520370779388E8 ; 1.2667865782352676E10 ; 0.0
72 ; 7859875.417862197 ; 2.0167774372395414E8 ; 5.483119029378201E8 ; 1.2869528970184248E10 ; 0.0
73 ; 7859526.276907266 ; 2.016923570515002E8 ; 5.561717783556823E8 ; 1.3071206713908201E10 ; 0.0
74 ; 7859615.9341156855 ; 2.0170702492917168E8 ; 5.640313046325896E8 ; 1.3272899070959702E10 ; 0.0
75 ; 7864907.729155455 ; 2.0172174456893146E8 ; 5.718909205667052E8 ; 1.3474606095888874E10 ; 0.0
76 ; 7862367.305867758 ; 2.017365132759075E8 ; 5.797558282958606E8 ; 1.3676327840457806E10 ; 0.0
77 ; 7863038.510679583 ; 2.0175132844468838E8 ; 5.876181956017284E8 ; 1.3878064353733713E10 ; 0.0
78 ; 7861240.735818539 ; 2.0176618755575082E8 ; 5.95481234112408E8 ; 1.4079815682178402E10 ; 0.0
79 ; 7859264.7674197685 ; 2.017810881720175E8 ; 6.033424748482265E8 ; 1.4281581869734152E10 ; 0.0
80 ; 7855450.917239621 ; 2.017960279355433E8 ; 6.112017396156464E8 ; 1.448336295790617E10 ; 0.0
81 ; 7854225.045245173 ; 2.0181100456432754E8 ; 6.19057190532886E8 ; 1.4685158985841713E10 ; 0.0
82 ; 7852941.469107803 ; 2.018260158492502E8 ; 6.269114155781312E8 ; 1.488696999040604E10 ; 0.0
83 ; 7849629.12382311 ; 2.0184105965112826E8 ; 6.34764357047239E8 ; 1.5088796006255291E10 ; 0.0
84 ; 7848785.773221868 ; 2.0185613389788955E8 ; 6.426139861710621E8 ; 1.529063706590642E10 ; 0.0
85 ; 7844802.33332222 ; 2.018712365818608E8 ; 6.50462771944284E8 ; 1.549249319980431E10 ; 0.0
86 ; 7842276.386935309 ; 2.018863657571663E8 ; 6.583075742776061E8 ; 1.5694364436386171E10 ; 0.0
87 ; 7839948.788148297 ; 2.019015195372336E8 ; 6.661498506645415E8 ; 1.5896250802143337E10 ; 0.0
88 ; 7835844.852087336 ; 2.019166960924028E8 ; 6.739897994526898E8 ; 1.609815232168057E10 ; 0.0
89 ; 7834085.05618935 ; 2.0193189364763603E8 ; 6.818256443047771E8 ; 1.6300069017772974E10 ; 0.0
90 ; 7830453.192446266 ; 2.0194711048032305E8 ; 6.896597293609664E8 ; 1.650200091142061E10 ; 0.0
91 ; 7828560.066584542 ; 2.0196234491817975E8 ; 6.974901825534127E8 ; 1.6703948021900934E10 ; 0.0
92 ; 7825200.591196339 ; 2.019775953372361E8 ; 7.053187426199973E8 ; 1.6905910366819115E10 ; 0.0
93 ; 7820169.139426634 ; 2.0199286015991E8 ; 7.131439432111936E8 ; 1.7107887962156351E10 ; 0.0
94 ; 7818881.005083222 ; 2.0200813785316315E8 ; 7.209641123506202E8 ; 1.730988082231626E10 ; 0.0
95 ; 7814535.250454987 ; 2.0202342692673686E8 ; 7.287829933557034E8 ; 1.7511888960169426E10 ; 0.0
96 ; 7809402.879234464 ; 2.0203872593146303E8 ; 7.365975286061584E8 ; 1.7713912387096165E10 ; 0.0
97 ; 7806323.458014658 ; 2.0205403345764852E8 ; 7.444069314853928E8 ; 1.7915951113027626E10 ; 0.0
98 ; 7806400.611102348 ; 2.0206934813352868E8 ; 7.522132549434074E8 ; 1.8118005146485275E10 ; 0.0
99 ; 7803480.863196164 ; 2.0208466862378827E8 ; 7.600196555545098E8 ; 1.8320074494618805E10 ; 0.0
100 ; 7796404.556796413 ; 2.0209999362814584E8 ; 7.678231364177059E8 ; 1.852215916324259E10 ; 0.0
101 ; 7796552.530535758 ; 2.0211532187999955E8 ; 7.756195409745023E8 ; 1.872425915687074E10 ; 0.0
102 ; 7793148.317074699 ; 2.0213065214513144E8 ; 7.83416093505038E8 ; 1.892637447875074E10 ; 0.0
103 ; 7788730.855802653 ; 2.021459832204676E8 ; 7.912092418221127E8 ; 1.912850513089587E10 ; 0.0
104 ; 7783890.481894173 ; 2.02161313932892E8 ; 7.989979726779153E8 ; 1.9330651114116337E10 ; 0.0
105 ; 7778375.684761809 ; 2.021766431381113E8 ; 8.067818631598095E8 ; 1.953281242804923E10 ; 0.0
106 ; 7773724.269387758 ; 2.0219196971956873E8 ; 8.145602388445712E8 ; 1.973498907118734E10 ; 0.0
107 ; 7773759.866590348 ; 2.022072925874045E8 ; 8.22333963113959E8 ; 1.993718104090691E10 ; 0.0
108 ; 7768588.012402157 ; 2.022226106774609E8 ; 8.301077229805493E8 ; 2.0139388333494316E10 ; 0.0
109 ; 7763538.410204447 ; 2.0223792295033026E8 ; 8.378763109929515E8 ; 2.0341610944171776E10 ; 0.0
110 ; 7760105.017813655 ; 2.0225322839044303E8 ; 8.456398494031559E8 ; 2.0543848867122105E10 ; 0.0
111 ; 7751263.01104552 ; 2.0226852600519556E8 ; 8.533999544209696E8 ; 2.0746102095512547E10 ; 0.0
112 ; 7749999.222001734 ; 2.0228381482411435E8 ; 8.611512174320152E8 ; 2.0948370621517742E10 ; 0.0
113 ; 7744973.985175144 ; 2.0229909389805618E8 ; 8.68901216654017E8 ; 2.1150654436341858E10 ; 0.0
114 ; 7741312.07619555 ; 2.0231436229844186E8 ; 8.766461906391921E8 ; 2.1352953530239914E10 ; 0.0
115 ; 7737475.595726133 ; 2.0232961911652267E8 ; 8.843875027153877E8 ; 2.1555267892538357E10 ; 0.0
116 ; 7728673.501214232 ; 2.023448634626773E8 ; 8.921249783111138E8 ; 2.175759751165488E10 ; 0.0
117 ; 7727575.935752093 ; 2.0236009446573865E8 ; 8.998536518123281E8 ; 2.1959942375117558E10 ; 0.0
118 ; 7721004.325393766 ; 2.023753112723487E8 ; 9.075812277480801E8 ; 2.2162302469583298E10 ; 0.0
119 ; 7717636.952740691 ; 2.0239051304634017E8 ; 9.153022320734739E8 ; 2.2364677780855648E10 ; 0.0
120 ; 7711696.65357447 ; 2.024056989681442E8 ; 9.230198690262146E8 ; 2.256706829390199E10 ; 0.0
121 ; 7705933.4125312865 ; 2.024208682342223E8 ; 9.307315656797891E8 ; 2.2769473992870132E10 ; 0.0
122 ; 7698702.884527043 ; 2.024360200565219E8 ; 9.384374990923203E8 ; 2.2971894861104355E10 ; 0.0
123 ; 7694587.622530854 ; 2.0245115366195446E8 ; 9.461362019768474E8 ; 2.3174330881160877E10 ; 0.0
124 ; 7689583.877492763 ; 2.024662682918948E8 ; 9.538307895993782E8 ; 2.337678203482283E10 ; 0.0
125 ; 7683427.103145589 ; 2.0248136320170093E8 ; 9.61520373476871E8 ; 2.3579248303114723E10 ; 0.0
126 ; 7678133.857048222 ; 2.0249643766025358E8 ; 9.692038005800166E8 ; 2.3781729666316425E10 ; 0.0
127 ; 7672763.1436049575 ; 2.0251149094951442E8 ; 9.768819344370649E8 ; 2.398422610397668E10 ; 0.0
128 ; 7666545.3080630405 ; 2.0252652236410192E8 ; 9.845546975806699E8 ; 2.4186737594926197E10 ; 0.0
129 ; 7661559.8311786 ; 2.0254153121088463E8 ; 9.922212428887329E8 ; 2.43892641172903E10 ; 0.0
130 ; 7655935.997873084 ; 2.0255651680859065E8 ; 9.998828027199115E8 ; 2.4591805648501183E10 ; 0.0
131 ; 7647791.310514906 ; 2.0257147848743272E8 ; 1.0075387387177845E9 ; 2.4794362165309772E10 ; 0.0
132 ; 7639333.358261462 ; 2.025864155887482E8 ; 1.0151865300282995E9 ; 2.4996933643797207E10 ; 0.0
133 ; 7632729.520354336 ; 2.0260132746465346E8 ; 1.0228258633865609E9 ; 2.5199520059385956E10 ; 0.0
134 ; 7622265.985362342 ; 2.0261621347771206E8 ; 1.0304585929069153E9 ; 2.540212138685061E10 ; 0.0
135 ; 7612477.650666281 ; 2.0263107300061566E8 ; 1.0380808588922776E9 ; 2.560473760032832E10 ; 0.0
136 ; 7603273.236569093 ; 2.0264590541587767E8 ; 1.0456933365429438E9 ; 2.5807368673328934E10 ; 0.0
137 ; 7593587.594819689 ; 2.02660710115539E8 ; 1.0532966097795129E9 ; 2.6010014578744812E10 ; 0.0
138 ; 7585534.621185789 ; 2.026754865008851E8 ; 1.0608901973743325E9 ; 2.621267528886035E10 ; 0.0
139 ; 7577384.756804499 ; 2.0269023398217398E8 ; 1.0684757319955183E9 ; 2.6415350775361237E10 ; 0.0
140 ; 7570192.1598481415 ; 2.0270495197837487E8 ; 1.076053116752323E9 ; 2.661804100934341E10 ; 0.0
141 ; 7558354.271731772 ; 2.027196399169168E8 ; 1.0836233089121711E9 ; 2.6820745961321785E10 ; 0.0
142 ; 7550695.917116325 ; 2.0273429723344705E8 ; 1.091181663183903E9 ; 2.70234656012387E10 ; 0.0
143 ; 7539956.003351555 ; 2.027489233715985E8 ; 1.0987323591010194E9 ; 2.722619989847215E10 ; 0.0
144 ; 7531699.91395085 ; 2.027635177827663E8 ; 1.1062723151043708E9 ; 2.7428948821843746E10 ; 0.0
145 ; 7527119.177551024 ; 2.0277807992589244E8 ; 1.1138040150183218E9 ; 2.763171233962651E10 ; 0.0
146 ; 7519838.565304032 ; 2.02792609267259E8 ; 1.1213311341958728E9 ; 2.7834490419552402E10 ; 0.0
147 ; 7513983.991343087 ; 2.0280710528028885E8 ; 1.1288509727611768E9 ; 2.803728302881966E10 ; 0.0
148 ; 7508408.249456592 ; 2.0282156744535398E8 ; 1.1363649567525198E9 ; 2.824009013409995E10 ; 0.0
149 ; 7501040.605033993 ; 2.0283599524959093E8 ; 1.1438733650019765E9 ; 2.8442911701545303E10 ; 0.0
150 ; 7494901.151462031 ; 2.0285038818672308E8 ; 1.1513744056070104E9 ; 2.8645747696794895E10 ; 0.0
151 ; 7487226.837648639 ; 2.0286474575688964E8 ; 1.1588693067584724E9 ; 2.8848598084981617E10 ; 0.0
152 ; 7483533.189039425 ; 2.0287906746648076E8 ; 1.166356533596121E9 ; 2.9051462830738506E10 ; 0.0
153 ; 7476811.449539382 ; 2.0289335282797894E8 ; 1.1738400667851605E9 ; 2.9254341898204987E10 ; 0.0
154 ; 7467970.549232065 ; 2.0290760135980606E8 ; 1.1813168782347E9 ; 2.9457235251032967E10 ; 0.0
155 ; 7461599.0869043125 ; 2.0292181258617616E8 ; 1.188784848783932E9 ; 2.9660142852392773E10 ; 0.0
156 ; 7454276.814800826 ; 2.0293598603695357E8 ; 1.1962464478708363E9 ; 2.986306466497895E10 ; 0.0
157 ; 7446452.64321788 ; 2.0295012124751592E8 ; 1.203700724685637E9 ; 3.0066000651015903E10 ; 0.0
158 ; 7441523.769945194 ; 2.0296421775862256E8 ; 1.2111471773288548E9 ; 3.026895077226342E10 ; 0.0
159 ; 7434210.677145793 ; 2.0297827511628732E8 ; 1.2185887010988E9 ; 3.047191499002204E10 ; 0.0
160 ; 7426168.170687031 ; 2.0299229287165612E8 ; 1.2260229117759457E9 ; 3.067489326513833E10 ; 0.0
161 ; 7423166.964369502 ; 2.0300627058088875E8 ; 1.2334490799466326E9 ; 3.0877885558009983E10 ; 0.0
162 ; 7415676.824429541 ; 2.0302020780504495E8 ; 1.2408722469110022E9 ; 3.1080891828590874E10 ; 0.0
163 ; 7406804.133858273 ; 2.0303410410997462E8 ; 1.2482879237354317E9 ; 3.128391203639592E10 ; 0.0
164 ; 7400123.522531297 ; 2.030479590662119E8 ; 1.2556947278692899E9 ; 3.1486946140505894E10 ; 0.0
165 ; 7393698.185894328 ; 2.0306177224887276E8 ; 1.2630948513918211E9 ; 3.1689994099572105E10 ; 0.0
166 ; 7388842.493815695 ; 2.030755432375565E8 ; 1.2704885495777154E9 ; 3.1893055871820976E10 ; 0.0
167 ; 7380091.53785379 ; 2.0308927161625057E8 ; 1.277877392071531E9 ; 3.2096131415058533E10 ; 0.0
168 ; 7373632.375982811 ; 2.0310295697323874E8 ; 1.2852574836093848E9 ; 3.229922068667478E10 ; 0.0
169 ; 7363373.622181811 ; 2.0311659890101242E8 ; 1.2926311159853675E9 ; 3.250232364364802E10 ; 0.0
170 ; 7360610.018994443 ; 2.0313019699618512E8 ; 1.2999944896075494E9 ; 3.2705440242549034E10 ; 0.0
171 ; 7352109.009354348 ; 2.0314375085940993E8 ; 1.3073550996265438E9 ; 3.290857043954522E10 ; 0.0
172 ; 7343992.015880814 ; 2.0315726009529963E8 ; 1.314707208635898E9 ; 3.311171419040463E10 ; 0.0
173 ; 7339156.1484820675 ; 2.031707243123499E8 ; 1.322051200651779E9 ; 3.3314871450499928E10 ; 0.0
174 ; 7334627.501340801 ; 2.0318414312286478E8 ; 1.329390356800261E9 ; 3.351804217481228E10 ; 0.0
175 ; 7330738.834751748 ; 2.0319751614288503E8 ; 1.336724984301602E9 ; 3.3721226317935143E10 ; 0.0
176 ; 7325106.140069831 ; 2.032108429921187E8 ; 1.3440557231363537E9 ; 3.3924423834078026E10 ; 0.0
177 ; 7320742.750149433 ; 2.032241232938741E8 ; 1.3513808292764235E9 ; 3.4127634677070145E10 ; 0.0
178 ; 7314185.711364155 ; 2.032373566749953E8 ; 1.358701572026573E9 ; 3.4330858800364017E10 ; 0.0
179 ; 7314263.3440112695 ; 2.032505427657993E8 ; 1.3660157577379372E9 ; 3.453409615703901E10 ; 0.0
180 ; 7307039.377363627 ; 2.0326368120001593E8 ; 1.3733300210819485E9 ; 3.473734669980481E10 ; 0.0
181 ; 7302042.549497016 ; 2.032767716147293E8 ; 1.3806370604593122E9 ; 3.494061038100482E10 ; 0.0
182 ; 7300235.566071261 ; 2.0328981365032136E8 ; 1.3879391030088093E9 ; 3.514388715261955E10 ; 0.0
183 ; 7295129.394131593 ; 2.0330280695041767E8 ; 1.3952393385748806E9 ; 3.5347176966269875E10 ; 0.0
184 ; 7290604.927942247 ; 2.033157511618343E8 ; 1.4025344679690123E9 ; 3.555047977322029E10 ; 0.0
185 ; 7285186.383368723 ; 2.0332864593452725E8 ; 1.4098250728969545E9 ; 3.5753795524382126E10 ; 0.0
186 ; 7282185.160715608 ; 2.03341490921543E8 ; 1.4171102592803233E9 ; 3.595712417031665E10 ; 0.0
187 ; 7276605.262867915 ; 2.0335428577897102E8 ; 1.4243924444410388E9 ; 3.616046566123819E10 ; 0.0
188 ; 7272968.643845624 ; 2.033670301658977E8 ; 1.4316690497039068E9 ; 3.636381994701716E10 ; 0.0
189 ; 7269325.696515595 ; 2.033797237443619E8 ; 1.4389420183477523E9 ; 3.656718697718306E10 ; 0.0
190 ; 7263803.974569275 ; 2.0339236617931184E8 ; 1.446211344044268E9 ; 3.677056670092742E10 ; 0.0
191 ; 7260735.705011977 ; 2.0340495713856357E8 ; 1.4534751480188372E9 ; 3.6973959067106735E10 ; 0.0
192 ; 7254091.22586688 ; 2.0341749629276073E8 ; 1.4607358837238493E9 ; 3.71773640242453E10 ; 0.0
193 ; 7252062.929525139 ; 2.0342998331533554E8 ; 1.467989974949716E9 ; 3.738078152053806E10 ; 0.0
194 ; 7247971.833264356 ; 2.0344241788247123E8 ; 1.4752420378792412E9 ; 3.75842115038534E10 ; 0.0
195 ; 7241905.936742668 ; 2.0345479967306563E8 ; 1.4824900097125056E9 ; 3.778765392173587E10 ; 0.0
196 ; 7240536.750757446 ; 2.034671283686959E8 ; 1.4897319156492484E9 ; 3.7991108721408936E10 ; 0.0
197 ; 7233643.414017702 ; 2.0347940365358457E8 ; 1.4969724524000058E9 ; 3.819457584977763E10 ; 0.0
198 ; 7228201.671080297 ; 2.0349162521456632E8 ; 1.5042060958140235E9 ; 3.839805525343122E10 ; 0.0
199 ; 7224609.228225083 ; 2.0350379274105638E8 ; 1.5114342974851038E9 ; 3.860154687864579E10 ; 0.0
200 ; 7219883.964850659 ; 1.9444255667137817E8 ; 1.5186589067133288E9 ; 3.880505067138685E10 ; 0.0
201 ; 7214911.485762106 ; 1.546879712420842E8 ; 1.5258787906781795E9 ; 3.899949322805823E10 ; 0.0
