CSV File for the City 6 on Day 166
1 - Minute m 
2 - Power Consumed at minute m 
3 - Power Produced at minute m 
4 - Energy Consumed since the beginning of the day 
5 - Energy Produced since the beginning of the day 
6 - Energy Lost since the beginning of the day on lines starting from the city
 
0 ; 4281595.502241078 ; 1.0606782815600404E8 ; 0.0 ; 0.0 ; 0.0
1 ; 4290321.724594549 ; 1.0621870264091963E8 ; 4281595.502241078 ; 1.0606782815600404E8 ; 0.0
2 ; 4297073.690674228 ; 1.0667856999423596E8 ; 8571917.226835627 ; 2.1228653079692367E8 ; 0.0
3 ; 4305591.266414578 ; 1.0744743408487701E8 ; 1.2868990917509854E7 ; 3.1896510079115963E8 ; 0.0
4 ; 4319706.239258171 ; 1.085252983823731E8 ; 1.7174582183924433E7 ; 4.2641253487603664E8 ; 0.0
5 ; 4340360.437141147 ; 1.0991216593686813E8 ; 2.1494288423182603E7 ; 5.3493783325840974E8 ; 0.0
6 ; 4362331.611286561 ; 1.1160803936119273E8 ; 2.583464886032375E7 ; 6.448499991952779E8 ; 0.0
7 ; 4397892.468689376 ; 1.1361292081524563E8 ; 3.019698047161031E7 ; 7.564580385564706E8 ; 0.0
8 ; 4447275.431579598 ; 1.1592681199289876E8 ; 3.459487294029969E7 ; 8.700709593717163E8 ; 0.0
9 ; 4521084.102081311 ; 1.185497141116113E8 ; 3.904214837187929E7 ; 9.85997771364615E8 ; 0.0
10 ; 4641506.369717283 ; 1.2148162790490133E8 ; 4.35632324739606E7 ; 1.1045474854762263E9 ; 0.0
11 ; 4840217.63582753 ; 1.2472255361778417E8 ; 4.8204738843677886E7 ; 1.2260291133811276E9 ; 0.0
12 ; 5150132.455879519 ; 1.2827249100524446E8 ; 5.304495647950542E7 ; 1.3507516669989119E9 ; 0.0
13 ; 5454403.891880742 ; 1.3213143933376414E8 ; 5.819508893538494E7 ; 1.4790241580041564E9 ; 0.0
14 ; 5489370.732682153 ; 1.362993973858841E8 ; 6.364949282726568E7 ; 1.6111555973379204E9 ; 0.0
15 ; 5496214.12837342 ; 1.407763634677323E8 ; 6.913886355994783E7 ; 1.7474549947238045E9 ; 0.0
16 ; 5508209.996515562 ; 1.4556233541941014E8 ; 7.463507768832125E7 ; 1.888231358191537E9 ; 0.0
17 ; 5520034.320139921 ; 1.506573106280869E8 ; 8.01432876848368E7 ; 2.0337936936109471E9 ; 0.0
18 ; 5534159.077973251 ; 1.5606128604361868E8 ; 8.566332200497672E7 ; 2.184451004239034E9 ; 0.0
19 ; 5543915.556339657 ; 1.6177425819647518E8 ; 9.119748108294997E7 ; 2.340512290282653E9 ; 0.0
20 ; 5553787.25075376 ; 1.677962232177324E8 ; 9.674139663928962E7 ; 2.502286548479128E9 ; 0.0
21 ; 5566601.694098127 ; 1.7412717686086902E8 ; 1.0229518389004338E8 ; 2.6700827716968603E9 ; 0.0
22 ; 5579060.54689647 ; 1.8076711452509034E8 ; 1.0786178558414151E8 ; 2.8442099485577292E9 ; 0.0
23 ; 5589327.254704023 ; 1.877160312798944E8 ; 1.1344084613103798E8 ; 3.0249770630828195E9 ; 0.0
24 ; 5605209.30179022 ; 1.949739218905933E8 ; 1.1903017338574201E8 ; 3.212693094362714E9 ; 0.0
25 ; 5615259.32664763 ; 2.0122882174268872E8 ; 1.2463538268753223E8 ; 3.4076670162533073E9 ; 0.0
26 ; 5625743.756252706 ; 2.0123427290535453E8 ; 1.3025064201417986E8 ; 3.608895837995996E9 ; 0.0
27 ; 5638324.695515494 ; 2.0124003868305755E8 ; 1.3587638577043256E8 ; 3.8101301109013505E9 ; 0.0
28 ; 5651528.49083169 ; 2.012461128889312E8 ; 1.4151471046594805E8 ; 4.011370149584408E9 ; 0.0
29 ; 5659419.687557328 ; 2.0125248916427743E8 ; 1.4716623895677975E8 ; 4.212616262473339E9 ; 0.0
30 ; 5671836.276911761 ; 2.012591610042728E8 ; 1.528256586443371E8 ; 4.413868751637616E9 ; 0.0
31 ; 5682710.349768652 ; 2.01266121782941E8 ; 1.5849749492124885E8 ; 4.615127912641889E9 ; 0.0
32 ; 5690250.708375123 ; 2.0127336477723363E8 ; 1.641802052710175E8 ; 4.8163940344248295E9 ; 0.0
33 ; 5703439.876102191 ; 2.0128088319008395E8 ; 1.6987045597939262E8 ; 5.017667399202064E9 ; 0.0
34 ; 5717358.260923645 ; 2.0128867017232594E8 ; 1.755738958554948E8 ; 5.218948282392147E9 ; 0.0
35 ; 5720950.7796889385 ; 2.012967188433904E8 ; 1.8129125411641845E8 ; 5.420236952564473E9 ; 0.0
36 ; 5730684.795029571 ; 2.0130502231071636E8 ; 1.8701220489610738E8 ; 5.621533671407864E9 ; 0.0
37 ; 5739791.557664142 ; 2.013135736878333E8 ; 1.9274288969113696E8 ; 5.82283869371858E9 ; 0.0
38 ; 5750996.920171504 ; 2.0132236611109206E8 ; 1.984826812488011E8 ; 6.024152267406414E9 ; 0.0
39 ; 5756580.306575021 ; 2.0133139275503734E8 ; 2.042336781689726E8 ; 6.225474633517506E9 ; 0.0
40 ; 5763374.554422892 ; 2.0134064684643146E8 ; 2.0999025847554764E8 ; 6.426806026272543E9 ; 0.0
41 ; 5771513.444476637 ; 2.0135012167695153E8 ; 2.1575363302997053E8 ; 6.628146673118975E9 ; 0.0
42 ; 5777690.800541824 ; 2.0135981061459455E8 ; 2.2152514647444716E8 ; 6.829496794795926E9 ; 0.0
43 ; 5782725.832398247 ; 2.0136970711383313E8 ; 2.2730283727498898E8 ; 7.030856605410521E9 ; 0.0
44 ; 5786866.307560243 ; 2.013798047245738E8 ; 2.330855631073872E8 ; 7.232226312524354E9 ; 0.0
45 ; 5791528.845240645 ; 2.0139009709997445E8 ; 2.3887242941494745E8 ; 7.433606117248928E9 ; 0.0
46 ; 5799499.352594081 ; 2.0140057800318253E8 ; 2.446639582601881E8 ; 7.634996214348903E9 ; 0.0
47 ; 5804340.432822885 ; 2.0141124131305915E8 ; 2.5046345761278218E8 ; 7.836396792352085E9 ; 0.0
48 ; 5808043.264506385 ; 2.0142208102895477E8 ; 2.5626779804560506E8 ; 8.037808033665144E9 ; 0.0
49 ; 5810296.764815438 ; 2.0143309127460432E8 ; 2.6207584131011146E8 ; 8.239230114694098E9 ; 0.0
50 ; 5812626.673470753 ; 2.0144426630120856E8 ; 2.678861380749269E8 ; 8.440663205968702E9 ; 0.0
51 ; 5815874.833262545 ; 2.0145560048976752E8 ; 2.7369876474839765E8 ; 8.64210747226991E9 ; 0.0
52 ; 5815850.2584042 ; 2.0146708835273102E8 ; 2.795146395816602E8 ; 8.843563072759678E9 ; 0.0
53 ; 5819295.513641264 ; 2.0147872453502786E8 ; 2.853304898400644E8 ; 9.04503016111241E9 ; 0.0
54 ; 5823420.367206375 ; 2.0149050381453407E8 ; 2.9114978535370564E8 ; 9.246508885647438E9 ; 0.0
55 ; 5821432.992273022 ; 2.0150242110203698E8 ; 2.9697320572091204E8 ; 9.447999389461971E9 ; 0.0
56 ; 5821677.611347378 ; 2.0151447144074872E8 ; 3.027946387131851E8 ; 9.649501810564009E9 ; 0.0
57 ; 5825375.722343156 ; 2.015266500054204E8 ; 3.0861631632453245E8 ; 9.851016282004757E9 ; 0.0
58 ; 5825216.051225982 ; 2.015389521011035E8 ; 3.144416920468756E8 ; 1.0052542932010178E10 ; 0.0
59 ; 5827736.025389572 ; 2.0155137316160393E8 ; 3.2026690809810156E8 ; 1.025408188411128E10 ; 0.0
60 ; 5826330.926931315 ; 2.015639087476677E8 ; 3.260946441234911E8 ; 1.0455633257272884E10 ; 0.0
61 ; 5827830.63153662 ; 2.015765545449379E8 ; 3.3192097505042243E8 ; 1.0657197166020552E10 ; 0.0
62 ; 5827150.608479558 ; 2.0158930636171603E8 ; 3.3774880568195903E8 ; 1.0858773720565489E10 ; 0.0
63 ; 5833307.191621862 ; 2.0160216012655982E8 ; 3.435759562904386E8 ; 1.1060363026927204E10 ; 0.0
64 ; 5830325.105585886 ; 2.0161511188574627E8 ; 3.4940926348206043E8 ; 1.1261965187053764E10 ; 0.0
65 ; 5830929.0227156365 ; 2.0162815780062565E8 ; 3.552395885876463E8 ; 1.146358029893951E10 ; 0.0
66 ; 5833127.221835345 ; 2.0164129414489028E8 ; 3.6107051761036193E8 ; 1.1665208456740135E10 ; 0.0
67 ; 5828930.352310016 ; 2.016545173017788E8 ; 3.669036448321973E8 ; 1.1866849750885025E10 ; 0.0
68 ; 5835123.480257093 ; 2.0166782376123485E8 ; 3.727325751845073E8 ; 1.2068504268186804E10 ; 0.0
69 ; 5831285.307778817 ; 2.0168121011703718E8 ; 3.785676986647644E8 ; 1.2270172091948038E10 ; 0.0
70 ; 5830301.460942709 ; 2.016946730639156E8 ; 3.8439898397254324E8 ; 1.2471853302065075E10 ; 0.0
71 ; 5832678.926503577 ; 2.0170820939466646E8 ; 3.902292854334859E8 ; 1.267354797512899E10 ; 0.0
72 ; 5835124.938420827 ; 2.017218159972784E8 ; 3.960619643599895E8 ; 1.2875256184523657E10 ; 0.0
73 ; 5831894.301344471 ; 2.0173548985207894E8 ; 4.0189708929841036E8 ; 1.3076978000520935E10 ; 0.0
74 ; 5832404.760326175 ; 2.017492280289108E8 ; 4.077289835997548E8 ; 1.3278713490373014E10 ; 0.0
75 ; 5833352.329490219 ; 2.017630276843442E8 ; 4.1356138836008096E8 ; 1.3480462718401926E10 ; 0.0
76 ; 5830690.4395250315 ; 2.017768860589331E8 ; 4.193947406895712E8 ; 1.368222574608627E10 ; 0.0
77 ; 5834278.342902143 ; 2.017908004745195E8 ; 4.252254311290962E8 ; 1.3884002632145203E10 ; 0.0
78 ; 5827842.066244852 ; 2.0180476833159056E8 ; 4.3105970947199833E8 ; 1.4085793432619722E10 ; 0.0
79 ; 5822239.791197225 ; 2.018187871066928E8 ; 4.368875515382432E8 ; 1.4287598200951313E10 ; 0.0
80 ; 5816590.951839473 ; 2.018328543499052E8 ; 4.427097913294404E8 ; 1.4489416988058006E10 ; 0.0
81 ; 5817242.946274288 ; 2.0184696768237466E8 ; 4.4852638228127986E8 ; 1.4691249842407911E10 ; 0.0
82 ; 5812106.650206461 ; 2.0186112479391468E8 ; 4.5434362522755414E8 ; 1.4893096810090286E10 ; 0.0
83 ; 5806305.302551982 ; 2.0187532344066882E8 ; 4.601557318777606E8 ; 1.5094957934884201E10 ; 0.0
84 ; 5802250.130207187 ; 2.0188956144283995E8 ; 4.659620371803126E8 ; 1.529683325832487E10 ; 0.0
85 ; 5796400.206678605 ; 2.0190383668248522E8 ; 4.7176428731051975E8 ; 1.549872281976771E10 ; 0.0
86 ; 5792583.707654138 ; 2.0191814710137728E8 ; 4.775606875171984E8 ; 1.5700626656450195E10 ; 0.0
87 ; 5784086.941767996 ; 2.0193249069893128E8 ; 4.833532712248525E8 ; 1.5902544803551573E10 ; 0.0
88 ; 5781912.252535825 ; 2.01946865530197E8 ; 4.891373581666205E8 ; 1.6104477294250504E10 ; 0.0
89 ; 5778402.405243277 ; 2.0196126970391607E8 ; 4.949192704191563E8 ; 1.63064241597807E10 ; 0.0
90 ; 5771200.3908008775 ; 2.0197570138064256E8 ; 5.006976728243996E8 ; 1.6508385429484617E10 ; 0.0
91 ; 5767179.9952650415 ; 2.0199015877092665E8 ; 5.064688732152005E8 ; 1.671036113086526E10 ; 0.0
92 ; 5759533.047781784 ; 2.0200464013355964E8 ; 5.1223605321046555E8 ; 1.6912351289636187E10 ; 0.0
93 ; 5756344.615155939 ; 2.0201914377387962E8 ; 5.179955862582473E8 ; 1.7114355929769747E10 ; 0.0
94 ; 5751449.362077057 ; 2.020336680421357E8 ; 5.2375193087340325E8 ; 1.7316375073543625E10 ; 0.0
95 ; 5741670.10854576 ; 2.0204821133191022E8 ; 5.295033802354803E8 ; 1.7518408741585762E10 ; 0.0
96 ; 5734497.053812128 ; 2.0206277207859695E8 ; 5.352450503440261E8 ; 1.772045695291767E10 ; 0.0
97 ; 5731196.636946982 ; 2.0207734875793368E8 ; 5.409795473978382E8 ; 1.792251972499627E10 ; 0.0
98 ; 5721782.792276406 ; 2.02091939884588E8 ; 5.467107440347853E8 ; 1.8124597073754204E10 ; 0.0
99 ; 5718346.174405339 ; 2.0210654401079482E8 ; 5.524325268270617E8 ; 1.832668901363879E10 ; 0.0
100 ; 5709347.070765605 ; 2.021211597250433E8 ; 5.58150873001467E8 ; 1.8528795557649586E10 ; 0.0
101 ; 5704762.266762754 ; 2.021357856508127E8 ; 5.638602200722326E8 ; 1.873091671737463E10 ; 0.0
102 ; 5701084.9801181005 ; 2.021504204453546E8 ; 5.695649823389953E8 ; 1.8933052503025444E10 ; 0.0
103 ; 5696269.7973115565 ; 2.021650627985209E8 ; 5.752660673191135E8 ; 1.91352029234708E10 ; 0.0
104 ; 5689373.096555957 ; 2.021797114316351E8 ; 5.80962337116425E8 ; 1.9337367986269318E10 ; 0.0
105 ; 5682816.735841688 ; 2.0219436509640628E8 ; 5.86651710212981E8 ; 1.9539547697700954E10 ; 0.0
106 ; 5672562.279281597 ; 2.0220902257388347E8 ; 5.923345269488226E8 ; 1.974174206279736E10 ; 0.0
107 ; 5667709.676610095 ; 2.0222368267344996E8 ; 5.980070892281042E8 ; 1.9943951085371243E10 ; 0.0
108 ; 5660537.4386698445 ; 2.0223834423185492E8 ; 6.036747989047143E8 ; 2.0146174768044693E10 ; 0.0
109 ; 5653503.579549502 ; 2.0225300611228225E8 ; 6.093353363433841E8 ; 2.0348413112276546E10 ; 0.0
110 ; 5645800.507803454 ; 2.0226766720345414E8 ; 6.149888399229337E8 ; 2.055066611838883E10 ; 0.0
111 ; 5635260.1199667305 ; 2.0228232641876906E8 ; 6.206346404307371E8 ; 2.075293378559228E10 ; 0.0
112 ; 5625312.7615942005 ; 2.0229698269547206E8 ; 6.262699005507039E8 ; 2.095521611201105E10 ; 0.0
113 ; 5623695.768251513 ; 2.0231163499385682E8 ; 6.31895213312298E8 ; 2.1157513094706524E10 ; 0.0
114 ; 5613943.912594737 ; 2.0232628229649773E8 ; 6.375189090805496E8 ; 2.1359824729700382E10 ; 0.0
115 ; 5608071.429944144 ; 2.023409236075114E8 ; 6.431328529931444E8 ; 2.156215101199688E10 ; 0.0
116 ; 5600022.804185165 ; 2.0235555795184588E8 ; 6.487409244230886E8 ; 2.176449193560439E10 ; 0.0
117 ; 5594122.66297897 ; 2.0237018437459698E8 ; 6.543409472272737E8 ; 2.1966847493556236E10 ; 0.0
118 ; 5583061.060086498 ; 2.0238480194035056E8 ; 6.599350698902527E8 ; 2.2169217677930832E10 ; 0.0
119 ; 5577679.0872983625 ; 2.0239940973254946E8 ; 6.655181309503392E8 ; 2.237160247987118E10 ; 0.0
120 ; 5570576.380239266 ; 2.0241400685288462E8 ; 6.710958100376376E8 ; 2.257400188960373E10 ; 0.0
121 ; 5557816.250296966 ; 2.024285924207091E8 ; 6.766663864178768E8 ; 2.2776415896456615E10 ; 0.0
122 ; 5551995.735441337 ; 2.0244316557247406E8 ; 6.822242026681738E8 ; 2.2978844488877323E10 ; 0.0
123 ; 5541442.501463081 ; 2.024577254611863E8 ; 6.877761984036151E8 ; 2.31812876544498E10 ; 0.0
124 ; 5535613.062484145 ; 2.0247227125588578E8 ; 6.933176409050782E8 ; 2.3383745379910984E10 ; 0.0
125 ; 5525532.14990828 ; 2.024868021411431E8 ; 6.988532539675623E8 ; 2.358621765116687E10 ; 0.0
126 ; 5516650.045364272 ; 2.0250131731657574E8 ; 7.043787861174706E8 ; 2.3788704453308014E10 ; 0.0
127 ; 5507312.587560214 ; 2.0251581599638197E8 ; 7.098954361628349E8 ; 2.3991205770624588E10 ; 0.0
128 ; 5500339.641739597 ; 2.0253029740889287E8 ; 7.15402748750395E8 ; 2.419372158662097E10 ; 0.0
129 ; 5489103.0908257635 ; 2.025447607961404E8 ; 7.209030883921347E8 ; 2.4396251884029865E10 ; 0.0
130 ; 5481176.296278285 ; 2.0255920541344184E8 ; 7.263921914829605E8 ; 2.4598796644826004E10 ; 0.0
131 ; 5467083.162367171 ; 2.0257363052899948E8 ; 7.318733677792387E8 ; 2.4801355850239445E10 ; 0.0
132 ; 5451564.338492422 ; 2.0258803542351526E8 ; 7.373404509416059E8 ; 2.5003929480768444E10 ; 0.0
133 ; 5441501.910838218 ; 2.026024193898194E8 ; 7.427920152800983E8 ; 2.520651751619196E10 ; 0.0
134 ; 5429175.006389615 ; 2.0261678173251295E8 ; 7.482335171909366E8 ; 2.540911993558178E10 ; 0.0
135 ; 5414805.812326129 ; 2.026311217676232E8 ; 7.536626921973262E8 ; 2.5611736717314293E10 ; 0.0
136 ; 5401030.104072832 ; 2.0264543882227182E8 ; 7.590774980096523E8 ; 2.5814367839081917E10 ; 0.0
137 ; 5388815.499222289 ; 2.0265973223435527E8 ; 7.644785281137251E8 ; 2.601701327790419E10 ; 0.0
138 ; 5376736.59707454 ; 2.0267400135223648E8 ; 7.698673436129473E8 ; 2.6219673010138546E10 ; 0.0
139 ; 5362533.212436395 ; 2.0268824553444803E8 ; 7.752440802100219E8 ; 2.6422347011490784E10 ; 0.0
140 ; 5348433.6202607835 ; 2.0270246414940593E8 ; 7.806066134224583E8 ; 2.662503525702523E10 ; 0.0
141 ; 5333170.631280072 ; 2.0271665657513377E8 ; 7.859550470427191E8 ; 2.6827737721174637E10 ; 0.0
142 ; 5322520.90759823 ; 2.0273082219899678E8 ; 7.912882176739992E8 ; 2.703045437774977E10 ; 0.0
143 ; 5308184.853867475 ; 2.027449604174454E8 ; 7.966107385815974E8 ; 2.723318519994877E10 ; 0.0
144 ; 5290875.777356926 ; 2.0275907063576815E8 ; 8.01918923435465E8 ; 2.7435930160366215E10 ; 0.0
145 ; 5281530.691453154 ; 2.027731522678531E8 ; 8.07209799212822E8 ; 2.7638689231001984E10 ; 0.0
146 ; 5274541.246631924 ; 2.027872047359581E8 ; 8.124913299042751E8 ; 2.7841462383269836E10 ; 0.0
147 ; 5264296.383685583 ; 2.0280122747048888E8 ; 8.17765871150907E8 ; 2.8044249588005795E10 ; 0.0
148 ; 5256262.985974369 ; 2.0281521990978518E8 ; 8.230301675345926E8 ; 2.8247050815476284E10 ; 0.0
149 ; 5250500.4181387145 ; 2.0282918149991438E8 ; 8.282864305205669E8 ; 2.844986603538607E10 ; 0.0
150 ; 5235773.339204091 ; 2.0284311169447222E8 ; 8.335369309387057E8 ; 2.8652695216885986E10 ; 0.0
151 ; 5225030.342994572 ; 2.0285700995439094E8 ; 8.387727042779098E8 ; 2.885553832858046E10 ; 0.0
152 ; 5215010.137219904 ; 2.0287087574775344E8 ; 8.439977346209043E8 ; 2.905839533853485E10 ; 0.0
153 ; 5208119.772502763 ; 2.0288470854961458E8 ; 8.492127447581242E8 ; 2.9261266214282604E10 ; 0.0
154 ; 5200913.437539527 ; 2.0289850784182832E8 ; 8.54420864530627E8 ; 2.946415092283222E10 ; 0.0
155 ; 5191768.894962635 ; 2.0291227311288083E8 ; 8.596217779681666E8 ; 2.9667049430674046E10 ; 0.0
156 ; 5182346.160513988 ; 2.029260038577296E8 ; 8.648135468631293E8 ; 2.9869961703786926E10 ; 0.0
157 ; 5169811.051242514 ; 2.0293969957764786E8 ; 8.699958930236433E8 ; 3.0072887707644657E10 ; 0.0
158 ; 5160009.346262492 ; 2.0295335978007433E8 ; 8.751657040748857E8 ; 3.0275827407222305E10 ; 0.0
159 ; 5153175.137654923 ; 2.0296698397846833E8 ; 8.803257134211482E8 ; 3.047878076700238E10 ; 0.0
160 ; 5141758.092622241 ; 2.0298057169216958E8 ; 8.854788885588031E8 ; 3.068174775098085E10 ; 0.0
161 ; 5129773.703323886 ; 2.0299412244626293E8 ; 8.906206466514254E8 ; 3.088472832267302E10 ; 0.0
162 ; 5123261.875501686 ; 2.0300763577144766E8 ; 8.957504203547492E8 ; 3.108772244511928E10 ; 0.0
163 ; 5113923.348283391 ; 2.0302111120391095E8 ; 9.008736822302508E8 ; 3.1290730080890728E10 ; 0.0
164 ; 5106017.500556387 ; 2.0303454828520614E8 ; 9.059876055785342E8 ; 3.149375119209464E10 ; 0.0
165 ; 5094704.725151731 ; 2.0304794656213441E8 ; 9.110936230790906E8 ; 3.1696785740379845E10 ; 0.0
166 ; 5083401.319211887 ; 2.03061305586631E8 ; 9.161883278042424E8 ; 3.189983368694198E10 ; 0.0
167 ; 5075743.93464712 ; 2.0307462491565496E8 ; 9.212717291234542E8 ; 3.210289499252861E10 ; 0.0
168 ; 5062004.059003725 ; 2.0308790411108252E8 ; 9.263474730581013E8 ; 3.2305969617444263E10 ; 0.0
169 ; 5056635.871064017 ; 2.0310114273960418E8 ; 9.31409477117105E8 ; 3.2509057521555347E10 ; 0.0
170 ; 5048682.012838976 ; 2.03114340372625E8 ; 9.364661129881691E8 ; 3.2712158664294952E10 ; 0.0
171 ; 5029747.61060371 ; 2.031274965861685E8 ; 9.41514795001008E8 ; 3.2915273004667576E10 ; 0.0
172 ; 5026680.801693476 ; 2.0314061096078333E8 ; 9.465445426116117E8 ; 3.3118400501253746E10 ; 0.0
173 ; 5015892.584528917 ; 2.0315368308145323E8 ; 9.515712234133052E8 ; 3.332154111221453E10 ; 0.0
174 ; 5008588.931464423 ; 2.0316671253751007E8 ; 9.565871159978341E8 ; 3.3524694795295982E10 ; 0.0
175 ; 4999529.80973071 ; 2.031796989225493E8 ; 9.615957049292985E8 ; 3.3727861507833492E10 ; 0.0
176 ; 4990740.499643242 ; 2.0319264183434865E8 ; 9.665952347390293E8 ; 3.3931041206756042E10 ; 0.0
177 ; 4981306.072464069 ; 2.032055408747891E8 ; 9.715859752386725E8 ; 3.413423384859039E10 ; 0.0
178 ; 4976560.559806797 ; 2.032183956497786E8 ; 9.765672813111366E8 ; 3.433743938946518E10 ; 0.0
179 ; 4967806.541856923 ; 2.0323120576917824E8 ; 9.815438418709434E8 ; 3.454065778511496E10 ; 0.0
180 ; 4960210.396686263 ; 2.0324397084673074E8 ; 9.865116484128003E8 ; 3.474388899088414E10 ; 0.0
181 ; 4951327.972124306 ; 2.032566904999912E8 ; 9.914718588094866E8 ; 3.494713296173087E10 ; 0.0
182 ; 4947167.016421511 ; 2.0326936435026026E8 ; 9.96423186781611E8 ; 3.5150389652230865E10 ; 0.0
183 ; 4936254.12221397 ; 2.032819920225191E8 ; 1.0013703537980325E9 ; 3.535365901658112E10 ; 0.0
184 ; 4928432.490661345 ; 2.0329457314536697E8 ; 1.0063066079202465E9 ; 3.5556941008603645E10 ; 0.0
185 ; 4922571.504989535 ; 2.0330710735096008E8 ; 1.0112350404109079E9 ; 3.5760235581749016E10 ; 0.0
186 ; 4917334.9952037465 ; 2.0331959427495304E8 ; 1.0161576119158974E9 ; 3.5963542689099976E10 ; 0.0
187 ; 4909234.500952313 ; 2.0333203355644184E8 ; 1.0210749469111011E9 ; 3.616686228337493E10 ; 0.0
188 ; 4897710.630544133 ; 2.033444248379086E8 ; 1.0259841814120535E9 ; 3.637019431693137E10 ; 0.0
189 ; 4889950.204317455 ; 2.0335676776516828E8 ; 1.0308818920425977E9 ; 3.657353874176928E10 ; 0.0
190 ; 4886609.465683066 ; 2.033690619873168E8 ; 1.0357718422469151E9 ; 3.677689550953445E10 ; 0.0
191 ; 4874660.526051232 ; 2.033813071566811E8 ; 1.0406584517125982E9 ; 3.698026457152177E10 ; 0.0
192 ; 4872179.0939373 ; 2.033935029287704E8 ; 1.0455331122386495E9 ; 3.718364587867845E10 ; 0.0
193 ; 4860599.536080786 ; 2.034056489622294E8 ; 1.0504052913325868E9 ; 3.738703938160722E10 ; 0.0
194 ; 4854934.097262755 ; 2.0341774491879255E8 ; 1.0552658908686676E9 ; 3.759044503056945E10 ; 0.0
195 ; 4846635.169206091 ; 2.0342979046323994E8 ; 1.0601208249659303E9 ; 3.779386277548824E10 ; 0.0
196 ; 4839435.033664361 ; 2.0344178526335472E8 ; 1.0649674601351365E9 ; 3.7997292565951485E10 ; 0.0
197 ; 4831967.857172691 ; 2.0345372898988137E8 ; 1.0698068951688008E9 ; 3.8200734351214836E10 ; 0.0
198 ; 4821810.064309867 ; 2.0346562131648582E8 ; 1.0746388630259736E9 ; 3.840418808020472E10 ; 0.0
199 ; 4814892.45308132 ; 2.0347746191971636E8 ; 1.0794606730902834E9 ; 3.86076537015212E10 ; 0.0
200 ; 4807896.883506369 ; 1.885179955968543E8 ; 1.0842755655433648E9 ; 3.881113116344092E10 ; 0.0
201 ; 4797773.72783945 ; 1.546609934575802E8 ; 1.089083462426871E9 ; 3.899964915903777E10 ; 0.0
