CSV File for the City 4 on Day 31
1 - Minute m 
2 - Power Consumed at minute m 
3 - Power Produced at minute m 
4 - Energy Consumed since the beginning of the day 
5 - Energy Produced since the beginning of the day 
6 - Energy Lost since the beginning of the day on lines starting from the city
 
0 ; 6794299.666854829 ; 1.0546786406043091E8 ; 0.0 ; 0.0 ; 0.0
1 ; 6799782.571642483 ; 1.0561447396322292E8 ; 6794299.666854829 ; 1.0546786406043091E8 ; 0.0
2 ; 6808981.217609221 ; 1.0607036318647268E8 ; 1.3594082238497311E7 ; 2.1108233802365384E8 ; 0.0
3 ; 6817082.112762003 ; 1.0683557969058686E8 ; 2.0403063456106532E7 ; 3.171527012101265E8 ; 0.0
4 ; 6829329.0512097785 ; 1.0791017094038194E8 ; 2.7220145568868537E7 ; 4.239882809007134E8 ; 0.0
5 ; 6840457.714498492 ; 1.0929418262326002E8 ; 3.404947462007832E7 ; 5.318984518410953E8 ; 0.0
6 ; 6855930.922969149 ; 1.1098765719003752E8 ; 4.088993233457681E7 ; 6.411926344643553E8 ; 0.0
7 ; 6880649.787615329 ; 1.1299063229374063E8 ; 4.7745863257545955E7 ; 7.521802916543928E8 ; 0.0
8 ; 6912928.058646664 ; 1.1530313923413897E8 ; 5.4626513045161285E7 ; 8.651709239481335E8 ; 0.0
9 ; 6960118.277924564 ; 1.1792520153950703E8 ; 6.153944110380795E7 ; 9.804740631822724E8 ; 0.0
10 ; 7042692.723816254 ; 1.208568338242116E8 ; 6.849955938173251E7 ; 1.0983992647217793E9 ; 0.0
11 ; 7164192.357463767 ; 1.240980410456799E8 ; 7.554225210554877E7 ; 1.219256098545991E9 ; 0.0
12 ; 7362966.055290327 ; 1.2764881824648467E8 ; 8.270644446301253E7 ; 1.3433541395916708E9 ; 0.0
13 ; 7551985.174924544 ; 1.3150915081225914E8 ; 9.006941051830286E7 ; 1.4710029578381555E9 ; 0.0
14 ; 7574870.34719627 ; 1.356790152147289E8 ; 9.76213956932274E7 ; 1.6025121086504147E9 ; 0.0
15 ; 7584864.995481051 ; 1.401583801541242E8 ; 1.0519626604042366E8 ; 1.7381911238651435E9 ; 0.0
16 ; 7594439.263920266 ; 1.44947207977419E8 ; 1.127811310359047E8 ; 1.8783495040192678E9 ; 0.0
17 ; 7601132.795208268 ; 1.5004545623379675E8 ; 1.2037557029982497E8 ; 2.0232967119966867E9 ; 0.0
18 ; 7612093.407445462 ; 1.554530792358554E8 ; 1.2797670309503323E8 ; 2.1733421682304835E9 ; 0.0
19 ; 7619460.230221107 ; 1.6117002951877847E8 ; 1.355887965024787E8 ; 2.328795247466339E9 ; 0.0
20 ; 7627193.498798182 ; 1.6719625912215927E8 ; 1.4320825673269978E8 ; 2.4899652769851174E9 ; 0.0
21 ; 7638386.123904407 ; 1.7353172065280887E8 ; 1.5083545023149797E8 ; 2.657161536107277E9 ; 0.0
22 ; 7647178.73707529 ; 1.8017636811618292E8 ; 1.5847383635540238E8 ; 2.8306932567600856E9 ; 0.0
23 ; 7656818.394097525 ; 1.871301575261293E8 ; 1.6612101509247768E8 ; 3.0108696248762684E9 ; 0.0
24 ; 7661681.263437988 ; 1.9439304731685513E8 ; 1.7377783348657522E8 ; 3.1979997824023976E9 ; 0.0
25 ; 7673508.533173394 ; 2.0065303948643237E8 ; 1.814395147500132E8 ; 3.3923928297192526E9 ; 0.0
26 ; 7681934.417523528 ; 2.0066364574541917E8 ; 1.8911302328318658E8 ; 3.593045869205685E9 ; 0.0
27 ; 7690970.484842042 ; 2.006746020512912E8 ; 1.9679495770071012E8 ; 3.793709514951104E9 ; 0.0
28 ; 7698763.925103917 ; 2.006858777902686E8 ; 2.0448592818555215E8 ; 3.994384117002395E9 ; 0.0
29 ; 7709201.487644981 ; 2.006974449543234E8 ; 2.1218469211065605E8 ; 4.1950699947926636E9 ; 0.0
30 ; 7716401.186465254 ; 2.0070927799219912E8 ; 2.1989389359830102E8 ; 4.395767439746987E9 ; 0.0
31 ; 7724244.951444368 ; 2.0072135364197215E8 ; 2.276102947847663E8 ; 4.596476717739186E9 ; 0.0
32 ; 7731018.992944819 ; 2.0073365075576556E8 ; 2.3533453973621064E8 ; 4.797198071381159E9 ; 0.0
33 ; 7741020.092912987 ; 2.007461501242056E8 ; 2.4306555872915545E8 ; 4.997931722136925E9 ; 0.0
34 ; 7746866.560220632 ; 2.0075883430582333E8 ; 2.5080657882206845E8 ; 5.19867787226113E9 ; 0.0
35 ; 7755171.722010714 ; 2.0077168746477076E8 ; 2.5855344538228908E8 ; 5.399436706566954E9 ; 0.0
36 ; 7761524.623269711 ; 2.00784695218856E8 ; 2.6630861710429978E8 ; 5.600208394031724E9 ; 0.0
37 ; 7767041.121561193 ; 2.007978444989115E8 ; 2.740701417275695E8 ; 5.80099308925058E9 ; 0.0
38 ; 7775123.879769522 ; 2.0081112341981283E8 ; 2.818371828491307E8 ; 6.001790933749492E9 ; 0.0
39 ; 7779943.157819536 ; 2.0082452116299164E8 ; 2.896123067289002E8 ; 6.202602057169305E9 ; 0.0
40 ; 7786312.5117171835 ; 2.008380278699783E8 ; 2.973922498867197E8 ; 6.403426578332296E9 ; 0.0
41 ; 7791821.800513506 ; 2.008516345463238E8 ; 3.051785623984369E8 ; 6.604264606202274E9 ; 0.0
42 ; 7795508.273340924 ; 2.0086533297514835E8 ; 3.129703841989504E8 ; 6.805116240748598E9 ; 0.0
43 ; 7801241.032804273 ; 2.008791156395251E8 ; 3.2076589247229135E8 ; 7.005981573723746E9 ; 0.0
44 ; 7806046.467945283 ; 2.0089297565290514E8 ; 3.285671335050956E8 ; 7.206860689363272E9 ; 0.0
45 ; 7811859.575936625 ; 2.0090690669681776E8 ; 3.363731799730409E8 ; 7.407753665016177E9 ; 0.0
46 ; 7814814.979126932 ; 2.009209029651208E8 ; 3.441850395489775E8 ; 7.608660571712995E9 ; 0.0
47 ; 7819671.203416309 ; 2.009349591141274E8 ; 3.519998545281044E8 ; 7.809581474678116E9 ; 0.0
48 ; 7821970.585491998 ; 2.0094907021799073E8 ; 3.598195257315207E8 ; 8.010516433792243E9 ; 0.0
49 ; 7825299.159174255 ; 2.0096323172878382E8 ; 3.676414963170127E8 ; 8.211465504010234E9 ; 0.0
50 ; 7826673.376650375 ; 2.009774394407661E8 ; 3.75466795476187E8 ; 8.4124287357390175E9 ; 0.0
51 ; 7827461.689203391 ; 2.0099168945837945E8 ; 3.832934688528374E8 ; 8.613406175179783E9 ; 0.0
52 ; 7831289.2997594075 ; 2.0100597816756496E8 ; 3.9112093054204077E8 ; 8.814397864638163E9 ; 0.0
53 ; 7832544.4877190385 ; 2.0102030221003553E8 ; 3.9895221984180015E8 ; 9.015403842805727E9 ; 0.0
54 ; 7837124.010382278 ; 2.0103465846017933E8 ; 4.067847643295192E8 ; 9.216424145015762E9 ; 0.0
55 ; 7839081.39395907 ; 2.0104904400430554E8 ; 4.146218883399015E8 ; 9.41745880347594E9 ; 0.0
56 ; 7839633.642095917 ; 2.0106345612197623E8 ; 4.2246096973386055E8 ; 9.618507847480246E9 ; 0.0
57 ; 7842947.213851184 ; 2.010778922691971E8 ; 4.303006033759565E8 ; 9.819571303602222E9 ; 0.0
58 ; 7842248.198014986 ; 2.0109235006326565E8 ; 4.381435505898076E8 ; 1.002064919587142E10 ; 0.0
59 ; 7844076.6295465585 ; 2.0110682726909843E8 ; 4.459857987878226E8 ; 1.0221741545934685E10 ; 0.0
60 ; 7844498.425628095 ; 2.0112132178687924E8 ; 4.538298754173692E8 ; 1.0422848373203783E10 ; 0.0
61 ; 7847403.076763409 ; 2.0113583164088762E8 ; 4.6167437384299725E8 ; 1.0623969694990662E10 ; 0.0
62 ; 7848436.735178905 ; 2.0115035496938396E8 ; 4.6952177691976064E8 ; 1.082510552663155E10 ; 0.0
63 ; 7849189.462668064 ; 2.0116489001544043E8 ; 4.7737021365493953E8 ; 1.1026255881600933E10 ; 0.0
64 ; 7852423.407958608 ; 2.0117943511861974E8 ; 4.852194031176076E8 ; 1.1227420771616373E10 ; 0.0
65 ; 7852673.129121113 ; 2.0119398870741528E8 ; 4.930718265255662E8 ; 1.1428600206734993E10 ; 0.0
66 ; 7853537.686195668 ; 2.0120854929237458E8 ; 5.0092449965468735E8 ; 1.1629794195442408E10 ; 0.0
67 ; 7853805.269801026 ; 2.0122311545983782E8 ; 5.08778037340883E8 ; 1.1831002744734781E10 ; 0.0
68 ; 7853179.37755534 ; 2.0123768586622968E8 ; 5.1663184261068404E8 ; 1.2032225860194618E10 ; 0.0
69 ; 7855663.96253624 ; 2.012522592328502E8 ; 5.2448502198823935E8 ; 1.2233463546060848E10 ; 0.0
70 ; 7856895.5270240465 ; 2.0126683434111562E8 ; 5.3234068595077556E8 ; 1.24347158052937E10 ; 0.0
71 ; 7857938.1168030305 ; 2.0128141002820605E8 ; 5.401975814777997E8 ; 1.2635982639634815E10 ; 0.0
72 ; 7858689.4541144 ; 2.012959851830804E8 ; 5.480555195946027E8 ; 1.2837264049663021E10 ; 0.0
73 ; 7861216.087918113 ; 2.0131055874282432E8 ; 5.559142090487171E8 ; 1.3038560034846102E10 ; 0.0
74 ; 7859498.282396093 ; 2.013251296892997E8 ; 5.637754251366353E8 ; 1.3239870593588926E10 ; 0.0
75 ; 7858830.2803217955 ; 2.013396970460676E8 ; 5.716349234190314E8 ; 1.3441195723278227E10 ; 0.0
76 ; 7858030.279073593 ; 2.013542598755597E8 ; 5.794937536993532E8 ; 1.3642535420324295E10 ; 0.0
77 ; 7856472.2293619625 ; 2.0136881727647558E8 ; 5.873517839784268E8 ; 1.3843889680199854E10 ; 0.0
78 ; 7857901.448210377 ; 2.0138336838138548E8 ; 5.952082562077888E8 ; 1.404525849747633E10 ; 0.0
79 ; 7856692.963184644 ; 2.0139791235452023E8 ; 6.030661576559992E8 ; 1.4246641865857716E10 ; 0.0
80 ; 7851541.54144518 ; 2.0141244838973188E8 ; 6.109228506191838E8 ; 1.4448039778212236E10 ; 0.0
81 ; 7851338.558471941 ; 2.0142697570861027E8 ; 6.187743921606289E8 ; 1.4649452226601969E10 ; 0.0
82 ; 7845403.245625487 ; 2.0144149355874184E8 ; 6.266257307191008E8 ; 1.485087920231058E10 ; 0.0
83 ; 7845582.789525311 ; 2.014560012120986E8 ; 6.344711339647263E8 ; 1.5052320695869322E10 ; 0.0
84 ; 7840820.878182566 ; 2.014704979635464E8 ; 6.423167167542516E8 ; 1.525377669708142E10 ; 0.0
85 ; 7839886.700111305 ; 2.014849831294623E8 ; 6.501575376324341E8 ; 1.5455247195044968E10 ; 0.0
86 ; 7837653.063386766 ; 2.0149945604645225E8 ; 6.579974243325454E8 ; 1.565673217817443E10 ; 0.0
87 ; 7834112.5962775685 ; 2.015139160701605E8 ; 6.658350773959322E8 ; 1.5858231634220882E10 ; 0.0
88 ; 7831210.4697485315 ; 2.0152836257416365E8 ; 6.736691899922098E8 ; 1.6059745550291042E10 ; 0.0
89 ; 7829909.221343262 ; 2.0154279494894227E8 ; 6.815004004619583E8 ; 1.6261273912865206E10 ; 0.0
90 ; 7826341.510976895 ; 2.015572126009242E8 ; 6.893303096833016E8 ; 1.6462816707814148E10 ; 0.0
91 ; 7821937.5691212 ; 2.0157161495159346E8 ; 6.971566511942785E8 ; 1.6664373920415071E10 ; 0.0
92 ; 7817550.415280498 ; 2.0158600143666017E8 ; 7.049785887633997E8 ; 1.6865945535366665E10 ; 0.0
93 ; 7816375.254346136 ; 2.0160037150528625E8 ; 7.127961391786802E8 ; 1.7067531536803326E10 ; 0.0
94 ; 7812622.9332032325 ; 2.0161472461936304E8 ; 7.206125144330263E8 ; 1.7269131908308613E10 ; 0.0
95 ; 7807006.257228264 ; 2.016290602528367E8 ; 7.284251373662295E8 ; 1.7470746632927975E10 ; 0.0
96 ; 7806942.02446051 ; 2.016433778910778E8 ; 7.362321436234578E8 ; 1.7672375693180813E10 ; 0.0
97 ; 7802051.923276443 ; 2.0165767703029197E8 ; 7.440390856479183E8 ; 1.787401907107189E10 ; 0.0
98 ; 7797813.889080074 ; 2.0167195717696834E8 ; 7.518411375711948E8 ; 1.8075676748102184E10 ; 0.0
99 ; 7794388.173572592 ; 2.0168621784736326E8 ; 7.596389514602748E8 ; 1.8277348705279152E10 ; 0.0
100 ; 7790634.852222848 ; 2.0170045856701666E8 ; 7.674333396338474E8 ; 1.8479034923126514E10 ; 0.0
101 ; 7786167.736050981 ; 2.0171467887029862E8 ; 7.752239744860702E8 ; 1.868073538169353E10 ; 0.0
102 ; 7782713.39160086 ; 2.017288782999841E8 ; 7.830101422221211E8 ; 1.888245006056383E10 ; 0.0
103 ; 7779517.83550086 ; 2.0174305640685388E8 ; 7.90792855613722E8 ; 1.9084178938863815E10 ; 0.0
104 ; 7772926.682874367 ; 2.0175721274931985E8 ; 7.985723734492228E8 ; 1.9285921995270668E10 ; 0.0
105 ; 7768407.001145111 ; 2.017713468930729E8 ; 8.063453001320971E8 ; 1.948767920801999E10 ; 0.0
106 ; 7766922.698861386 ; 2.0178545841075203E8 ; 8.141137071332422E8 ; 1.9689450554913063E10 ; 0.0
107 ; 7760103.859361897 ; 2.0179954688163295E8 ; 8.218806298321036E8 ; 1.9891236013323814E10 ; 0.0
108 ; 7757093.973723254 ; 2.0181361189133534E8 ; 8.296407336914655E8 ; 2.009303556020545E10 ; 0.0
109 ; 7751024.330100631 ; 2.0182765303154692E8 ; 8.373978276651888E8 ; 2.0294849172096783E10 ; 0.0
110 ; 7745963.614402493 ; 2.0184166989976385E8 ; 8.451488519952894E8 ; 2.049667682512833E10 ; 0.0
111 ; 7743564.167352945 ; 2.0185566209904575E8 ; 8.52894815609692E8 ; 2.0698518495028095E10 ; 0.0
112 ; 7738684.185339163 ; 2.0186962923778507E8 ; 8.606383797770449E8 ; 2.090037415712714E10 ; 0.0
113 ; 7734153.253134781 ; 2.018835709294892E8 ; 8.683770639623841E8 ; 2.1102243786364925E10 ; 0.0
114 ; 7727318.7509070095 ; 2.0189748679257512E8 ; 8.761112172155188E8 ; 2.1304127357294415E10 ; 0.0
115 ; 7721720.828010922 ; 2.019113764501754E8 ; 8.838385359664259E8 ; 2.150602484408699E10 ; 0.0
116 ; 7718977.925381669 ; 2.019252395299549E8 ; 8.915602567944368E8 ; 2.1707936220537167E10 ; 0.0
117 ; 7712684.922233428 ; 2.0193907566393775E8 ; 8.992792347198185E8 ; 2.1909861460067123E10 ; 0.0
118 ; 7706661.760109295 ; 2.0195288448834357E8 ; 9.069919196420519E8 ; 2.211180053573106E10 ; 0.0
119 ; 7700117.958201366 ; 2.0196666564343277E8 ; 9.146985814021612E8 ; 2.2313753420219402E10 ; 0.0
120 ; 7694454.879353372 ; 2.019804187733601E8 ; 9.223986993603626E8 ; 2.2515720085862835E10 ; 0.0
121 ; 7692070.868591789 ; 2.0199414352603605E8 ; 9.30093154239716E8 ; 2.2717700504636196E10 ; 0.0
122 ; 7687119.962927114 ; 2.0200783955299574E8 ; 9.377852251083078E8 ; 2.291969464816223E10 ; 0.0
123 ; 7679162.10189029 ; 2.0202150650927445E8 ; 9.45472345071235E8 ; 2.312170248771523E10 ; 0.0
124 ; 7675300.281873586 ; 2.0203514405329013E8 ; 9.531515071731253E8 ; 2.3323723994224503E10 ; 0.0
125 ; 7669345.114348653 ; 2.0204875184673172E8 ; 9.608268074549989E8 ; 2.3525759138277794E10 ; 0.0
126 ; 7664171.395134848 ; 2.020623295544533E8 ; 9.684961525693475E8 ; 2.3727807890124527E10 ; 0.0
127 ; 7655336.968664106 ; 2.020758768443739E8 ; 9.761603239644823E8 ; 2.392987021967898E10 ; 0.0
128 ; 7652444.452141043 ; 2.0208939338738227E8 ; 9.838156609331464E8 ; 2.4131946096523357E10 ; 0.0
129 ; 7646100.432274083 ; 2.0210287885724655E8 ; 9.914681053852874E8 ; 2.433403548991074E10 ; 0.0
130 ; 7638132.08949022 ; 2.021163329305286E8 ; 9.991142058175615E8 ; 2.4536138368767986E10 ; 0.0
131 ; 7628579.094632223 ; 2.0212975528650263E8 ; 1.0067523379070517E9 ; 2.4738254701698513E10 ; 0.0
132 ; 7618947.639368522 ; 2.0214314560707775E8 ; 1.014380917001684E9 ; 2.4940384456985016E10 ; 0.0
133 ; 7612101.214472806 ; 2.021565035767248E8 ; 1.0219998646410525E9 ; 2.5142527602592094E10 ; 0.0
134 ; 7602117.066539799 ; 2.021698288824063E8 ; 1.0296119658555253E9 ; 2.534468410616882E10 ; 0.0
135 ; 7596568.198933927 ; 2.0218312121351033E8 ; 1.037214082922065E9 ; 2.5546853935051228E10 ; 0.0
136 ; 7585160.209201116 ; 2.0219638026178744E8 ; 1.044810651120999E9 ; 2.5749037056264736E10 ; 0.0
137 ; 7575181.086805532 ; 2.0220960572129065E8 ; 1.0523958113302001E9 ; 2.5951233436526524E10 ; 0.0
138 ; 7565292.205275858 ; 2.0222279728831849E8 ; 1.0599709924170057E9 ; 2.6153443042247814E10 ; 0.0
139 ; 7557700.488893612 ; 2.0223595466136065E8 ; 1.0675362846222816E9 ; 2.6355665839536133E10 ; 0.0
140 ; 7546706.461621043 ; 2.0224907754104662E8 ; 1.075093985111175E9 ; 2.6557901794197495E10 ; 0.0
141 ; 7537690.241223003 ; 2.0226216563009638E8 ; 1.082640691572796E9 ; 2.676015087173854E10 ; 0.0
142 ; 7528701.6014806675 ; 2.0227521863327366E8 ; 1.0901783818140192E9 ; 2.6962413037368637E10 ; 0.0
143 ; 7518793.724717008 ; 2.022882362573416E8 ; 1.0977070834155E9 ; 2.716468825600191E10 ; 0.0
144 ; 7510322.936374661 ; 2.0230121821102023E8 ; 1.1052258771402168E9 ; 2.7366976492259254E10 ; 0.0
145 ; 7500840.917488236 ; 2.023141642049463E8 ; 1.1127362000765915E9 ; 2.7569277710470276E10 ; 0.0
146 ; 7493942.262545147 ; 2.0232707395163468E8 ; 1.1202370409940798E9 ; 2.777159187467522E10 ; 0.0
147 ; 7487765.828238326 ; 2.0233994716544196E8 ; 1.127730983256625E9 ; 2.7973918948626854E10 ; 0.0
148 ; 7482769.93225492 ; 2.023527835625314E8 ; 1.1352187490848632E9 ; 2.8176258895792297E10 ; 0.0
149 ; 7473794.659462866 ; 2.0236558286084002E8 ; 1.1427015190171182E9 ; 2.8378611679354828E10 ; 0.0
150 ; 7465901.220047681 ; 2.023783447800466E8 ; 1.1501753136765811E9 ; 2.8580977262215668E10 ; 0.0
151 ; 7461971.369116268 ; 2.023910690415419E8 ; 1.1576412148966289E9 ; 2.8783355606995716E10 ; 0.0
152 ; 7452497.917979798 ; 2.0240375536839974E8 ; 1.1651031862657452E9 ; 2.898574667603726E10 ; 0.0
153 ; 7446597.833121253 ; 2.024164034853496E8 ; 1.1725556841837249E9 ; 2.918815043140566E10 ; 0.0
154 ; 7438825.90159603 ; 2.0242901311875075E8 ; 1.1800022820168462E9 ; 2.9390566834891006E10 ; 0.0
155 ; 7434343.863237344 ; 2.0244158399656725E8 ; 1.1874411079184422E9 ; 2.9592995848009758E10 ; 0.0
156 ; 7424629.483931235 ; 2.0245411584834427E8 ; 1.1948754517816796E9 ; 2.9795437432006325E10 ; 0.0
157 ; 7417949.628898542 ; 2.0246660840518558E8 ; 1.202300081265611E9 ; 2.9997891547854668E10 ; 0.0
158 ; 7412155.702314028 ; 2.0247906139973202E8 ; 1.2097180308945096E9 ; 3.0200358156259853E10 ; 0.0
159 ; 7404849.756117846 ; 2.0249147456614104E8 ; 1.2171301865968237E9 ; 3.0402837217659584E10 ; 0.0
160 ; 7397832.479883713 ; 2.025038476400671E8 ; 1.2245350363529415E9 ; 3.0605328692225723E10 ; 0.0
161 ; 7390484.831527908 ; 2.0251618035864317E8 ; 1.2319328688328252E9 ; 3.080783253986579E10 ; 0.0
162 ; 7381053.336311629 ; 2.025284724604629E8 ; 1.2393233536643531E9 ; 3.1010348720224434E10 ; 0.0
163 ; 7375403.359262341 ; 2.0254072368556377E8 ; 1.2467044070006647E9 ; 3.12128771926849E10 ; 0.0
164 ; 7367282.406975893 ; 2.0255293377541107E8 ; 1.254079810359927E9 ; 3.141541791637046E10 ; 0.0
165 ; 7359205.418195807 ; 2.0256510247288245E8 ; 1.261447092766903E9 ; 3.161797085014587E10 ; 0.0
166 ; 7351729.195950255 ; 2.0257722952225348E8 ; 1.2688062981850986E9 ; 3.182053595261875E10 ; 0.0
167 ; 7344204.252989256 ; 2.0258931466918364E8 ; 1.276158027381049E9 ; 3.2023113182141006E10 ; 0.0
168 ; 7336724.689608959 ; 2.026013576607031E8 ; 1.2835022316340382E9 ; 3.222570249681019E10 ; 0.0
169 ; 7326646.4081991 ; 2.0261335824520022E8 ; 1.2908389563236473E9 ; 3.242830385447089E10 ; 0.0
170 ; 7322517.231524113 ; 2.0262531617240953E8 ; 1.2981656027318463E9 ; 3.263091721271609E10 ; 0.0
171 ; 7312365.341457215 ; 2.0263723119340026E8 ; 1.3054881199633706E9 ; 3.28335425288885E10 ; 0.0
172 ; 7307169.868668134 ; 2.0264910306056562E8 ; 1.3128004853048277E9 ; 3.30361797600819E10 ; 0.0
173 ; 7298171.626652768 ; 2.0266093152761245E8 ; 1.3201076551734958E9 ; 3.3238828863142467E10 ; 0.0
174 ; 7295124.641122053 ; 2.026727163495514E8 ; 1.3274058268001485E9 ; 3.344148979467008E10 ; 0.0
175 ; 7290638.930636663 ; 2.0268445728268763E8 ; 1.3347009514412706E9 ; 3.364416251101963E10 ; 0.0
176 ; 7284499.029851126 ; 2.0269615408461207E8 ; 1.3419915903719072E9 ; 3.384684696830232E10 ; 0.0
177 ; 7281577.244128553 ; 2.0270780651419285E8 ; 1.3492760894017584E9 ; 3.4049543122386932E10 ; 0.0
178 ; 7276716.326870335 ; 2.0271941433156753E8 ; 1.356557666645887E9 ; 3.4252250928901127E10 ; 0.0
179 ; 7273351.145818204 ; 2.0273097729813537E8 ; 1.3638343829727573E9 ; 3.44549703432327E10 ; 0.0
180 ; 7267709.165133757 ; 2.0274249517655036E8 ; 1.3711077341185756E9 ; 3.465770132053083E10 ; 0.0
181 ; 7261866.551260667 ; 2.027539677307143E8 ; 1.3783754432837093E9 ; 3.486044381570738E10 ; 0.0
182 ; 7256401.66165245 ; 2.027653947257704E8 ; 1.38563730983497E9 ; 3.5063197783438095E10 ; 0.0
183 ; 7254366.422118803 ; 2.0277677592809728E8 ; 1.3928937114966226E9 ; 3.5265963178163864E10 ; 0.0
184 ; 7249219.365853416 ; 2.0278811110530317E8 ; 1.4001480779187415E9 ; 3.5468739954091965E10 ; 0.0
185 ; 7243751.235972462 ; 2.0279940002622044E8 ; 1.4073972972845948E9 ; 3.5671528065197266E10 ; 0.0
186 ; 7241217.085068444 ; 2.028106424609006E8 ; 1.4146410485205672E9 ; 3.587432746522349E10 ; 0.0
187 ; 7235023.484593149 ; 2.028218381806094E8 ; 1.4218822656056356E9 ; 3.607713810768439E10 ; 0.0
188 ; 7229524.049576107 ; 2.0283298695782223E8 ; 1.4291172890902288E9 ; 3.6279959945865E10 ; 0.0
189 ; 7227113.89575041 ; 2.0284408856622002E8 ; 1.4363468131398048E9 ; 3.648279293282282E10 ; 0.0
190 ; 7221913.870843197 ; 2.0285514278068495E8 ; 1.4435739270355554E9 ; 3.6685637021389046E10 ; 0.0
191 ; 7218869.571287754 ; 2.0286614937729692E8 ; 1.4507958409063985E9 ; 3.688849216416973E10 ; 0.0
192 ; 7213209.772812271 ; 2.028771081333299E8 ; 1.4580147104776864E9 ; 3.709135831354703E10 ; 0.0
193 ; 7209014.436306402 ; 2.0288801882724863E8 ; 1.4652279202504988E9 ; 3.729423542168036E10 ; 0.0
194 ; 7204446.747518732 ; 2.0289888123870555E8 ; 1.4724369346868052E9 ; 3.749712344050761E10 ; 0.0
195 ; 7196469.080527926 ; 2.0290969514853784E8 ; 1.479641381434324E9 ; 3.7700022321746315E10 ; 0.0
196 ; 7191012.177378965 ; 2.0292046033876488E8 ; 1.486837850514852E9 ; 3.790293201689485E10 ; 0.0
197 ; 7187152.409076548 ; 2.0293117659258562E8 ; 1.494028862692231E9 ; 3.810585247723362E10 ; 0.0
198 ; 7183932.042007805 ; 2.0294184369437635E8 ; 1.5012160151013074E9 ; 3.83087836538262E10 ; 0.0
199 ; 7179238.245149224 ; 2.0295246142968857E8 ; 1.5083999471433153E9 ; 3.851172549752058E10 ; 0.0
200 ; 7178456.49287991 ; 2.02963029585247E8 ; 1.5155791853884645E9 ; 3.8714677958950264E10 ; 0.0
201 ; 7170794.450041165 ; 1.790083486856653E8 ; 1.5227576418813443E9 ; 3.891764098853551E10 ; 0.0
