CSV File for the City 6 on Day 181
1 - Minute m 
2 - Power Consumed at minute m 
3 - Power Produced at minute m 
4 - Energy Consumed since the beginning of the day 
5 - Energy Produced since the beginning of the day 
6 - Energy Lost since the beginning of the day on lines starting from the city
 
0 ; 2464171.192370344 ; 1.059657795747923E8 ; 0.0 ; 0.0 ; 0.0
1 ; 2476860.4227967653 ; 1.061165634082666E8 ; 2464171.192370344 ; 1.059657795747923E8 ; 0.0
2 ; 2488247.8977732616 ; 1.06576347526817E8 ; 4941031.615167109 ; 2.120823429830589E8 ; 0.0
3 ; 2498067.926666212 ; 1.0734513647254372E8 ; 7429279.512940371 ; 3.186586905098759E8 ; 0.0
4 ; 2512718.110373417 ; 1.0842293432912874E8 ; 9927347.439606583 ; 4.260038269824196E8 ; 0.0
5 ; 2532104.1520392727 ; 1.0980974469481212E8 ; 1.244006554998E7 ; 5.3442676131154835E8 ; 0.0
6 ; 2558549.7991683935 ; 1.1150557065802798E8 ; 1.4972169702019272E7 ; 6.442365060063605E8 ; 0.0
7 ; 2591602.9176490493 ; 1.1351041477607846E8 ; 1.7530719501187667E7 ; 7.557420766643885E8 ; 0.0
8 ; 2647689.789750448 ; 1.158242790571832E8 ; 2.0122322418836717E7 ; 8.69252491440467E8 ; 0.0
9 ; 2729962.334532055 ; 1.1844716494619733E8 ; 2.2770012208587166E7 ; 9.850767704976501E8 ; 0.0
10 ; 2851204.9574560765 ; 1.2137907331423467E8 ; 2.5499974543119222E7 ; 1.1035239354438474E9 ; 0.0
11 ; 3049307.807350451 ; 1.246200044523702E8 ; 2.8351179500575297E7 ; 1.2249030087580822E9 ; 0.0
12 ; 3363316.8003220404 ; 1.2816995806952891E8 ; 3.1400487307925746E7 ; 1.3495230132104523E9 ; 0.0
13 ; 3666345.704187361 ; 1.3202893329459697E8 ; 3.476380410824779E7 ; 1.4776929712799811E9 ; 0.0
14 ; 3709183.138308731 ; 1.3619692868271935E8 ; 3.843014981243515E7 ; 1.609721904574578E9 ; 0.0
15 ; 3716892.436698474 ; 1.406739422256763E8 ; 4.2139332950743884E7 ; 1.7459188332572975E9 ; 0.0
16 ; 3730788.371455301 ; 1.454599713661658E8 ; 4.585622538744236E7 ; 1.8865927754829738E9 ; 0.0
17 ; 3745899.5778183453 ; 1.505550130157536E8 ; 4.958701375889766E7 ; 2.0320527468491397E9 ; 0.0
18 ; 3762196.9062478296 ; 1.559590635761997E8 ; 5.333291333671601E7 ; 2.1826077598648934E9 ; 0.0
19 ; 3775862.6360597843 ; 1.6167211896382216E8 ; 5.709511024296384E7 ; 2.338566823441093E9 ; 0.0
20 ; 3787754.990889232 ; 1.6769417463652065E8 ; 6.087097287902363E7 ; 2.5002389424049153E9 ; 0.0
21 ; 3801577.5957251466 ; 1.7402522562305775E8 ; 6.4658727869912855E7 ; 2.667933117041436E9 ; 0.0
22 ; 3819056.4419560153 ; 1.806652665541752E8 ; 6.8460305465638E7 ; 2.841958342664494E9 ; 0.0
23 ; 3833473.043731038 ; 1.8761429169511878E8 ; 7.227936190759401E7 ; 3.0226236092186694E9 ; 0.0
24 ; 3845829.6632118984 ; 1.9487229497914642E8 ; 7.611283495132504E7 ; 3.2102379009137883E9 ; 0.0
25 ; 3861576.868070747 ; 2.0112731093979046E8 ; 7.995866461453694E7 ; 3.405110195892935E9 ; 0.0
26 ; 3878289.071839512 ; 2.0113288078200942E8 ; 8.382024148260769E7 ; 3.606237506832725E9 ; 0.0
27 ; 3890298.310810803 ; 2.011387669411573E8 ; 8.76985305544472E7 ; 3.8073703876147346E9 ; 0.0
28 ; 3901357.285539672 ; 2.011449623632966E8 ; 9.158882886525801E7 ; 4.008509154555892E9 ; 0.0
29 ; 3916281.9689500737 ; 2.011514598311584E8 ; 9.549018615079768E7 ; 4.2096541169191885E9 ; 0.0
30 ; 3932143.8389644967 ; 2.0115825199576914E8 ; 9.940646811974776E7 ; 4.410805576750347E9 ; 0.0
31 ; 3944271.468225718 ; 2.0116533140676638E8 ; 1.0333861195871225E8 ; 4.611963828746117E9 ; 0.0
32 ; 3955750.178767742 ; 2.011726905412194E8 ; 1.0728288342693797E8 ; 4.813129160152883E9 ; 0.0
33 ; 3965736.524497774 ; 2.0118032183081004E8 ; 1.1123863360570571E8 ; 5.014301850694102E9 ; 0.0
34 ; 3984625.982473221 ; 2.0118821768726468E8 ; 1.1520437013020349E8 ; 5.215482172524912E9 ; 0.0
35 ; 3990867.348090614 ; 2.011963705259647E8 ; 1.1918899611267671E8 ; 5.416670390212176E9 ; 0.0
36 ; 4007515.3205934917 ; 2.012047727876922E8 ; 1.2317986346076733E8 ; 5.617866760738141E9 ; 0.0
37 ; 4017384.4519539783 ; 2.012134169584981E8 ; 1.2718737878136082E8 ; 5.819071533525833E9 ; 0.0
38 ; 4024814.003500708 ; 2.0122229558770394E8 ; 1.312047632333148E8 ; 6.020284950484331E9 ; 0.0
39 ; 4040574.9433349376 ; 2.012314013040708E8 ; 1.352295772368155E8 ; 6.221507246072035E9 ; 0.0
40 ; 4049666.382781287 ; 2.0124072683018637E8 ; 1.3927015218015045E8 ; 6.422738647376105E9 ; 0.0
41 ; 4059626.0929020406 ; 2.01250264995137E8 ; 1.4331981856293175E8 ; 6.623979374206291E9 ; 0.0
42 ; 4068473.4890003544 ; 2.0126000874554312E8 ; 1.4737944465583378E8 ; 6.825229639201428E9 ; 0.0
43 ; 4072789.0720218816 ; 2.0126995115504467E8 ; 1.5144791814483413E8 ; 7.026489647946972E9 ; 0.0
44 ; 4083525.354751986 ; 2.0128008543233106E8 ; 1.55520707216856E8 ; 7.227759599102016E9 ; 0.0
45 ; 4096508.181900928 ; 2.012904049278126E8 ; 1.5960423257160798E8 ; 7.429039684534348E9 ; 0.0
46 ; 4099477.670867123 ; 2.0130090313903397E8 ; 1.637007407535089E8 ; 7.63033008946216E9 ; 0.0
47 ; 4106942.0050179693 ; 2.01311573714929E8 ; 1.67800218424376E8 ; 7.831630992601194E9 ; 0.0
48 ; 4109227.1299892357 ; 2.0132241045901692E8 ; 1.7190716042939398E8 ; 8.032942566316123E9 ; 0.0
49 ; 4118779.792303706 ; 2.0133340733163542E8 ; 1.760163875593832E8 ; 8.23426497677514E9 ; 0.0
50 ; 4120071.321624386 ; 2.0134455845130545E8 ; 1.8013516735168692E8 ; 8.435598384106775E9 ; 0.0
51 ; 4126177.454586539 ; 2.0135585809531587E8 ; 1.8425523867331132E8 ; 8.63694294255808E9 ; 0.0
52 ; 4128402.950922504 ; 2.0136730069961384E8 ; 1.8838141612789786E8 ; 8.838298800653397E9 ; 0.0
53 ; 4135873.136084103 ; 2.0137888085808045E8 ; 1.9250981907882035E8 ; 9.03966610135301E9 ; 0.0
54 ; 4138642.909925243 ; 2.0139059332126653E8 ; 1.9664569221490446E8 ; 9.24104498221109E9 ; 0.0
55 ; 4141740.691149738 ; 2.0140243299465832E8 ; 2.007843351248297E8 ; 9.442435575532356E9 ; 0.0
56 ; 4148909.086792884 ; 2.0141439493653697E8 ; 2.0492607581597945E8 ; 9.643838008527014E9 ; 0.0
57 ; 4153006.275148433 ; 2.0142647435549128E8 ; 2.0907498490277234E8 ; 9.84525240346355E9 ; 0.0
58 ; 4158658.7711816896 ; 2.0143866660763752E8 ; 2.1322799117792076E8 ; 1.0046678877819042E10 ; 0.0
59 ; 4158989.8066906286 ; 2.0145096719359526E8 ; 2.1738664994910246E8 ; 1.024811754442668E10 ; 0.0
60 ; 4167439.386970168 ; 2.0146337175526386E8 ; 2.215456397557931E8 ; 1.0449568511620275E10 ; 0.0
61 ; 4168426.029689815 ; 2.0147587607243937E8 ; 2.2571307914276326E8 ; 1.065103188337554E10 ; 0.0
62 ; 4173088.8689320055 ; 2.014884760593078E8 ; 2.2988150517245308E8 ; 1.0852507759447979E10 ; 0.0
63 ; 4173533.888858513 ; 2.0150116776084685E8 ; 2.3405459404138508E8 ; 1.1053996235507286E10 ; 0.0
64 ; 4179592.1089332793 ; 2.0151394734916368E8 ; 2.382281279302436E8 ; 1.1255497403268133E10 ; 0.0
65 ; 4179065.112505406 ; 2.0152681111979488E8 ; 2.4240772003917688E8 ; 1.1457011350617296E10 ; 0.0
66 ; 4184837.9086557273 ; 2.0153975548798946E8 ; 2.465867851516823E8 ; 1.1658538161737091E10 ; 0.0
67 ; 4187506.8027636497 ; 2.0155277698499474E8 ; 2.5077162306033802E8 ; 1.186007791722508E10 ; 0.0
68 ; 4191824.271670487 ; 2.015658722543612E8 ; 2.5495912986310166E8 ; 1.2061630694210075E10 ; 0.0
69 ; 4196863.920855818 ; 2.015790380482809E8 ; 2.5915095413477215E8 ; 1.2263196566464437E10 ; 0.0
70 ; 4197337.054337229 ; 2.0159227122397155E8 ; 2.6334781805562797E8 ; 1.2464775604512718E10 ; 0.0
71 ; 4200941.144572217 ; 2.0160556874011648E8 ; 2.675451551099652E8 ; 1.266636787573669E10 ; 0.0
72 ; 4204053.99895318 ; 2.0161892765336907E8 ; 2.717460962545374E8 ; 1.2867973444476807E10 ; 0.0
73 ; 4205617.67492647 ; 2.0163234511492902E8 ; 2.7595015025349057E8 ; 1.3069592372130177E10 ; 0.0
74 ; 4210762.8087382475 ; 2.0164581836719584E8 ; 2.80155767928417E8 ; 1.3271224717245106E10 ; 0.0
75 ; 4207057.1422547605 ; 2.0165934474050453E8 ; 2.8436653073715526E8 ; 1.34728705356123E10 ; 0.0
76 ; 4213932.1155305505 ; 2.0167292164994666E8 ; 2.8857358787941E8 ; 1.3674529880352806E10 ; 0.0
77 ; 4217894.983671804 ; 2.0168654659227985E8 ; 2.927875199949406E8 ; 1.3876202802002752E10 ; 0.0
78 ; 4214315.315572188 ; 2.01700217142927E8 ; 2.9700541497861236E8 ; 1.4077889348595032E10 ; 0.0
79 ; 4212907.439714857 ; 2.017139309530668E8 ; 3.0121973029418457E8 ; 1.4279589565737959E10 ; 0.0
80 ; 4210923.121185839 ; 2.017276857468158E8 ; 3.054326377338994E8 ; 1.4481303496691025E10 ; 0.0
81 ; 4207666.678540639 ; 2.0174147931850228E8 ; 3.0964356085508525E8 ; 1.4683031182437841E10 ; 0.0
82 ; 4207651.804355281 ; 2.017553095300308E8 ; 3.138512275336259E8 ; 1.4884772661756344E10 ; 0.0
83 ; 4206332.800933219 ; 2.0176917430833745E8 ; 3.1805887933798116E8 ; 1.5086527971286375E10 ; 0.0
84 ; 4205096.213897749 ; 2.017830716429343E8 ; 3.222652121389144E8 ; 1.5288297145594713E10 ; 0.0
85 ; 4199467.061661235 ; 2.0179699958354086E8 ; 3.264703083528122E8 ; 1.5490080217237648E10 ; 0.0
86 ; 4198862.776159226 ; 2.018109562378024E8 ; 3.306697754144734E8 ; 1.5691877216821188E10 ; 0.0
87 ; 4193843.524965353 ; 2.0182493976909173E8 ; 3.3486863819063264E8 ; 1.589368817305899E10 ; 0.0
88 ; 4197294.486465097 ; 2.018389483943935E8 ; 3.39062481715598E8 ; 1.6095513112828083E10 ; 0.0
89 ; 4193710.169453027 ; 2.018529803822685E8 ; 3.432597762020631E8 ; 1.6297352061222477E10 ; 0.0
90 ; 4187235.803468542 ; 2.0186703405089548E8 ; 3.474534863715161E8 ; 1.6499205041604746E10 ; 0.0
91 ; 4183734.776282388 ; 2.0188110776618913E8 ; 3.5164072217498463E8 ; 1.6701072075655642E10 ; 0.0
92 ; 4183801.7734432137 ; 2.0189519993999073E8 ; 3.55824456951267E8 ; 1.6902953183421831E10 ; 0.0
93 ; 4180872.2731541833 ; 2.0190930902833012E8 ; 3.600082587247102E8 ; 1.7104848383361822E10 ; 0.0
94 ; 4179012.50926722 ; 2.019234335297562E8 ; 3.641891309978644E8 ; 1.7306757692390152E10 ; 0.0
95 ; 4177495.1049505924 ; 2.0193757198373362E8 ; 3.6836814350713164E8 ; 1.7508681125919907E10 ; 0.0
96 ; 4170415.8956480934 ; 2.019517229691037E8 ; 3.7254563861208224E8 ; 1.771061869790364E10 ; 0.0
97 ; 4171226.6049140072 ; 2.0196588510260656E8 ; 3.7671605450773036E8 ; 1.7912570420872746E10 ; 0.0
98 ; 4163744.37306658 ; 2.0198005703746334E8 ; 3.808872811126444E8 ; 1.8114536305975353E10 ; 0.0
99 ; 4161927.15142839 ; 2.0199423746201497E8 ; 3.85051025485711E8 ; 1.8316516363012817E10 ; 0.0
100 ; 4160137.2144824737 ; 2.0200842509841672E8 ; 3.892129526371394E8 ; 1.851851060047483E10 ; 0.0
101 ; 4159495.229248494 ; 2.020226187013849E8 ; 3.9337308985162187E8 ; 1.8720519025573246E10 ; 0.0
102 ; 4149613.5208998322 ; 2.0203681705699533E8 ; 3.975325850808704E8 ; 1.892254164427463E10 ; 0.0
103 ; 4149426.9161217795 ; 2.0205101898152995E8 ; 4.016821986017702E8 ; 1.9124578461331627E10 ; 0.0
104 ; 4144293.4871961027 ; 2.0206522332037085E8 ; 4.05831625517892E8 ; 1.9326629480313156E10 ; 0.0
105 ; 4140443.06150002 ; 2.0207942894693923E8 ; 4.099759190050881E8 ; 1.9528694703633526E10 ; 0.0
106 ; 4136823.4085253915 ; 2.020936347616776E8 ; 4.141163620665881E8 ; 1.9730774132580463E10 ; 0.0
107 ; 4132399.724302218 ; 2.0210783969107333E8 ; 4.182531854751135E8 ; 1.993286776734214E10 ; 0.0
108 ; 4126336.566341328 ; 2.021220426867225E8 ; 4.2238558519941574E8 ; 2.0134975607033215E10 ; 0.0
109 ; 4123001.7058292762 ; 2.0213624272443104E8 ; 4.265119217657571E8 ; 2.0337097649719936E10 ; 0.0
110 ; 4121323.0515945745 ; 2.021504388033534E8 ; 4.3063492347158635E8 ; 2.0539233892444366E10 ; 0.0
111 ; 4117613.1363676405 ; 2.0216462994516551E8 ; 4.347562465231809E8 ; 2.074138433124772E10 ; 0.0
112 ; 4112605.8066823534 ; 2.021788151932716E8 ; 4.388738596595485E8 ; 2.0943548961192883E10 ; 0.0
113 ; 4104337.6079716934 ; 2.0219299361204338E8 ; 4.4298646546623087E8 ; 2.1145727776386154E10 ; 0.0
114 ; 4106385.6006417563 ; 2.022071642860897E8 ; 4.4709080307420254E8 ; 2.13479207699982E10 ; 0.0
115 ; 4093077.836255632 ; 2.022213263195559E8 ; 4.5119718867484426E8 ; 2.155012793428429E10 ; 0.0
116 ; 4091555.264425754 ; 2.0223547883545154E8 ; 4.552902665110999E8 ; 2.1752349260603848E10 ; 0.0
117 ; 4088436.0029298444 ; 2.022496209750049E8 ; 4.593818217755256E8 ; 2.19545847394393E10 ; 0.0
118 ; 4078987.609143914 ; 2.022637518970439E8 ; 4.634702577784555E8 ; 2.2156834360414307E10 ; 0.0
119 ; 4076102.9609015873 ; 2.022778707774013E8 ; 4.675492453875994E8 ; 2.235909811231135E10 ; 0.0
120 ; 4073871.9019461186 ; 2.0229197680834404E8 ; 4.7162534834850097E8 ; 2.2561375983088753E10 ; 0.0
121 ; 4067206.2719538384 ; 2.023060691980254E8 ; 4.756992202504471E8 ; 2.27636679598971E10 ; 0.0
122 ; 4060195.304034657 ; 2.0232014716995868E8 ; 4.797664265224009E8 ; 2.2965974029095123E10 ; 0.0
123 ; 4055412.428096419 ; 2.0233420996251208E8 ; 4.8382662182643557E8 ; 2.3168294176265083E10 ; 0.0
124 ; 4048778.0535638235 ; 2.0234825682842332E8 ; 4.87882034254532E8 ; 2.3370628386227596E10 ; 0.0
125 ; 4045801.61877837 ; 2.0236228703433362E8 ; 4.919308123080958E8 ; 2.357297664305602E10 ; 0.0
126 ; 4036224.529115496 ; 2.0237629986033997E8 ; 4.9597661392687416E8 ; 2.377533893009035E10 ; 0.0
127 ; 4033576.565494797 ; 2.0239029459956494E8 ; 5.0001283845598966E8 ; 2.397771522995069E10 ; 0.0
128 ; 4028737.342055691 ; 2.0240427055774325E8 ; 5.0404641502148443E8 ; 2.4180105524550255E10 ; 0.0
129 ; 4021348.425801494 ; 2.0241822705282474E8 ; 5.080751523635401E8 ; 2.4382509795107998E10 ; 0.0
130 ; 4013760.66098884 ; 2.024321634145925E8 ; 5.120965007893416E8 ; 2.4584928022160824E10 ; 0.0
131 ; 4004532.316926995 ; 2.024460789842959E8 ; 5.161102614503305E8 ; 2.4787360185575417E10 ; 0.0
132 ; 3993258.376319995 ; 2.0245997311429784E8 ; 5.201147937672575E8 ; 2.498980626455971E10 ; 0.0
133 ; 3980068.2566948747 ; 2.024738451677356E8 ; 5.241080521435775E8 ; 2.5192266237674007E10 ; 0.0
134 ; 3976087.8312840164 ; 2.0248769451819462E8 ; 5.2808812040027237E8 ; 2.5394740082841743E10 ; 0.0
135 ; 3963229.2220218605 ; 2.0250152054939482E8 ; 5.320642082315564E8 ; 2.559722777735994E10 ; 0.0
136 ; 3957431.1695700246 ; 2.025153226548889E8 ; 5.360274374535783E8 ; 2.5799729297909336E10 ; 0.0
137 ; 3943676.0905644125 ; 2.025291002377721E8 ; 5.399848686231483E8 ; 2.6002244620564224E10 ; 0.0
138 ; 3930132.2287249337 ; 2.025428527104029E8 ; 5.439285447137127E8 ; 2.6204773720802E10 ; 0.0
139 ; 3919228.93642805 ; 2.025565794941344E8 ; 5.478586769424376E8 ; 2.64073165735124E10 ; 0.0
140 ; 3911540.736701429 ; 2.0257028001905552E8 ; 5.517779058788657E8 ; 2.6609873153006535E10 ; 0.0
141 ; 3900534.151173913 ; 2.0258395372374237E8 ; 5.556894466155672E8 ; 2.681244343302559E10 ; 0.0
142 ; 3889062.099765691 ; 2.025976000550184E8 ; 5.595899807667412E8 ; 2.7015027386749332E10 ; 0.0
143 ; 3879235.2871953337 ; 2.0261121846772388E8 ; 5.634790428665068E8 ; 2.721762498680435E10 ; 0.0
144 ; 3868431.7533670007 ; 2.026248084244936E8 ; 5.673582781537021E8 ; 2.7420236205272076E10 ; 0.0
145 ; 3858125.9903263478 ; 2.0263836939554325E8 ; 5.712267099070691E8 ; 2.7622861013696568E10 ; 0.0
146 ; 3855312.8899677554 ; 2.0265190085846305E8 ; 5.750848358973955E8 ; 2.782549938309211E10 ; 0.0
147 ; 3853014.359145817 ; 2.026654022980195E8 ; 5.789401487873633E8 ; 2.8028151283950573E10 ; 0.0
148 ; 3841261.9847208722 ; 2.0267887320596415E8 ; 5.82793163146509E8 ; 2.8230816686248592E10 ; 0.0
149 ; 3831747.87416083 ; 2.0269231308084935E8 ; 5.866344251312299E8 ; 2.8433495559454556E10 ; 0.0
150 ; 3829093.8583149905 ; 2.0270572142785075E8 ; 5.904661730053908E8 ; 2.8636187872535404E10 ; 0.0
151 ; 3822312.9351681983 ; 2.0271909775859615E8 ; 5.942952668637058E8 ; 2.8838893593963257E10 ; 0.0
152 ; 3818584.8972781952 ; 2.0273244159100062E8 ; 5.981175797988739E8 ; 2.904161269172185E10 ; 0.0
153 ; 3811905.7372617824 ; 2.0274575244910747E8 ; 6.019361646961521E8 ; 2.924434513331285E10 ; 0.0
154 ; 3804376.6643658183 ; 2.02759029862935E8 ; 6.057480704334139E8 ; 2.944709088576196E10 ; 0.0
155 ; 3797607.672008421 ; 2.0277227336832875E8 ; 6.095524470977796E8 ; 2.9649849915624893E10 ; 0.0
156 ; 3791156.2584506413 ; 2.027854825068187E8 ; 6.13350054769788E8 ; 2.985262218899322E10 ; 0.0
157 ; 3786062.2400588747 ; 2.027986568254821E8 ; 6.171412110282387E8 ; 3.005540767150004E10 ; 0.0
158 ; 3776023.1484840563 ; 2.028117958768106E8 ; 6.209272732682976E8 ; 3.025820632832552E10 ; 0.0
159 ; 3773617.6447213846 ; 2.0282489921858248E8 ; 6.247032964167817E8 ; 3.046101812420233E10 ; 0.0
160 ; 3763306.7343417914 ; 2.0283796641373894E8 ; 6.28476914061503E8 ; 3.0663843023420914E10 ; 0.0
161 ; 3758309.0527603026 ; 2.028509970302653E8 ; 6.322402207958448E8 ; 3.0866680989834652E10 ; 0.0
162 ; 3751064.5521384813 ; 2.028639906410757E8 ; 6.35998529848605E8 ; 3.1069531986864918E10 ; 0.0
163 ; 3746820.8974333694 ; 2.0287694682390237E8 ; 6.397495944007435E8 ; 3.1272395977505993E10 ; 0.0
164 ; 3741317.6844340577 ; 2.028898651611884E8 ; 6.434964152981769E8 ; 3.1475272924329895E10 ; 0.0
165 ; 3729176.1542509734 ; 2.0290274523998427E8 ; 6.47237732982611E8 ; 3.1678162789491085E10 ; 0.0
166 ; 3725014.747548545 ; 2.029155866518481E8 ; 6.509669091368619E8 ; 3.1881065534731068E10 ; 0.0
167 ; 3719872.3120525936 ; 2.0292838899274918E8 ; 6.546919238844105E8 ; 3.2083981121382915E10 ; 0.0
168 ; 3710235.5525370804 ; 2.0294115186297482E8 ; 6.584117961964631E8 ; 3.2286909510375664E10 ; 0.0
169 ; 3706234.5468694307 ; 2.0295387486704043E8 ; 6.621220317490002E8 ; 3.248985066223864E10 ; 0.0
170 ; 3697813.758676886 ; 2.0296655761360267E8 ; 6.658282662958696E8 ; 3.269280453710568E10 ; 0.0
171 ; 3690474.103535754 ; 2.0297919971537545E8 ; 6.695260800545465E8 ; 3.289577109471928E10 ; 0.0
172 ; 3684314.2258620705 ; 2.029918007890489E8 ; 6.732165541580822E8 ; 3.3098750294434654E10 ; 0.0
173 ; 3679852.1122587873 ; 2.0300436045521107E8 ; 6.769008683839443E8 ; 3.33017420952237E10 ; 0.0
174 ; 3673320.9871870056 ; 2.0301687833827204E8 ; 6.805807204962031E8 ; 3.3504746455678913E10 ; 0.0
175 ; 3667485.460290446 ; 2.0302935406639087E8 ; 6.842540414833901E8 ; 3.3707763334017185E10 ; 0.0
176 ; 3662743.7930586194 ; 2.0304178727140492E8 ; 6.879215269436805E8 ; 3.3910792688083576E10 ; 0.0
177 ; 3658472.06749225 ; 2.0305417758876133E8 ; 6.915842707367392E8 ; 3.411383447535498E10 ; 0.0
178 ; 3651423.727895054 ; 2.030665246574511E8 ; 6.952427428042314E8 ; 3.431688865294374E10 ; 0.0
179 ; 3649063.1827053586 ; 2.0307882811994505E8 ; 6.988941665321264E8 ; 3.451995517760119E10 ; 0.0
180 ; 3645393.859741855 ; 2.0309108762213215E8 ; 7.025432297148318E8 ; 3.472303400572113E10 ; 0.0
181 ; 3640711.155313274 ; 2.031033028132597E8 ; 7.061886235745736E8 ; 3.492612509334326E10 ; 0.0
182 ; 3631389.8776818537 ; 2.031154733458756E8 ; 7.098293347298869E8 ; 3.5129228396156525E10 ; 0.0
183 ; 3627661.2092049583 ; 2.0312759887577245E8 ; 7.134607246075687E8 ; 3.53323438695024E10 ; 0.0
184 ; 3627352.896056291 ; 2.0313967906193355E8 ; 7.170883858167737E8 ; 3.5535471468378174E10 ; 0.0
185 ; 3615526.714667482 ; 2.031517135664806E8 ; 7.2071573871283E8 ; 3.573861114744011E10 ; 0.0
186 ; 3616527.0715144495 ; 2.0316370205462316E8 ; 7.243312654274974E8 ; 3.594176286100659E10 ; 0.0
187 ; 3606088.9466096954 ; 2.031756441946096E8 ; 7.279477924990119E8 ; 3.614492656306122E10 ; 0.0
188 ; 3603111.709924737 ; 2.0318753965767995E8 ; 7.315538814456216E8 ; 3.634810220725583E10 ; 0.0
189 ; 3598934.4402557504 ; 2.0319938811802E8 ; 7.351569931555463E8 ; 3.6551289746913506E10 ; 0.0
190 ; 3591026.760474745 ; 2.0321118925271693E8 ; 7.387559275958021E8 ; 3.6754489135031525E10 ; 0.0
191 ; 3587673.467642014 ; 2.032229427417166E8 ; 7.423469543562769E8 ; 3.695770032428424E10 ; 0.0
192 ; 3586182.8795896657 ; 2.032346482677818E8 ; 7.459346278239189E8 ; 3.7160923267025955E10 ; 0.0
193 ; 3580686.558138636 ; 2.032463055164523E8 ; 7.495208107035086E8 ; 3.736415791529374E10 ; 0.0
194 ; 3575650.631882627 ; 2.0325791417600584E8 ; 7.531014972616472E8 ; 3.756740422081019E10 ; 0.0
195 ; 3566841.0353548685 ; 2.032694739374205E8 ; 7.566771478935299E8 ; 3.777066213498619E10 ; 0.0
196 ; 3562865.9558869065 ; 2.032809844943383E8 ; 7.602439889288847E8 ; 3.7973931608923615E10 ; 0.0
197 ; 3559983.088528934 ; 2.0329244554302993E8 ; 7.638068548847717E8 ; 3.817721259341795E10 ; 0.0
198 ; 3552838.205832212 ; 2.0330385678236052E8 ; 7.673668379733007E8 ; 3.838050503896098E10 ; 0.0
199 ; 3552070.25556578 ; 2.0331521791375673E8 ; 7.709196761791329E8 ; 3.858380889574335E10 ; 0.0
200 ; 3545426.8787207073 ; 1.9605113949252704E8 ; 7.744717464346987E8 ; 3.8787124113657104E10 ; 0.0
