CSV File for the City 6 on Day 10
1 - Minute m 
2 - Power Consumed at minute m 
3 - Power Produced at minute m 
4 - Energy Consumed since the beginning of the day 
5 - Energy Produced since the beginning of the day 
6 - Energy Lost since the beginning of the day on lines starting from the city
 
0 ; 1.1125326495872105E7 ; 1.054869737969304E8 ; 0.0 ; 0.0 ; 0.0
1 ; 1.113555437321578E7 ; 1.0563517456302619E8 ; 1.1125326495872105E7 ; 1.054869737969304E8 ; 0.0
2 ; 1.1143823250411602E7 ; 1.0609255913159105E8 ; 2.2260880869087882E7 ; 2.111221483599566E8 ; 0.0
3 ; 1.116030249807376E7 ; 1.0685915729148048E8 ; 3.3404704119499482E7 ; 3.1721470749154764E8 ; 0.0
4 ; 1.1172325085993478E7 ; 1.0793499762871909E8 ; 4.456500661757325E7 ; 4.240738647830281E8 ; 0.0
5 ; 1.119634886541004E7 ; 1.0932010686999905E8 ; 5.573733170356672E7 ; 5.320088624117472E8 ; 0.0
6 ; 1.122269210830243E7 ; 1.1101450919483319E8 ; 6.693368056897676E7 ; 6.413289692817463E8 ; 0.0
7 ; 1.125928932280625E7 ; 1.1301822554999357E8 ; 7.815637267727919E7 ; 7.523434784765794E8 ; 0.0
8 ; 1.1311342107345467E7 ; 1.1533127300594205E8 ; 8.941566200008544E7 ; 8.65361704026573E8 ; 0.0
9 ; 1.1393779594176207E7 ; 1.1795366419764102E8 ; 1.007270041074309E8 ; 9.80692977032515E8 ; 0.0
10 ; 1.1514562271609658E7 ; 1.2088540689030033E8 ; 1.1212078370160711E8 ; 1.098646641230156E9 ; 0.0
11 ; 1.1710415532613711E7 ; 1.2412650370381388E8 ; 1.2363534597321677E8 ; 1.2195320481204562E9 ; 0.0
12 ; 1.2029422007372564E7 ; 1.2767695201828775E8 ; 1.353457615058305E8 ; 1.34365855182427E9 ; 0.0
13 ; 1.2332883294900594E7 ; 1.3153674406851208E8 ; 1.4737518351320305E8 ; 1.4713355038425577E9 ; 0.0
14 ; 1.237135584735189E7 ; 1.3570586721952456E8 ; 1.5970806680810365E8 ; 1.6028722479110699E9 ; 0.0
15 ; 1.2386168393508209E7 ; 1.4018430440086323E8 ; 1.7207942265545553E8 ; 1.7385781151305945E9 ; 0.0
16 ; 1.2398909378867831E7 ; 1.4497203466575614E8 ; 1.8446559104896373E8 ; 1.8787624195314577E9 ; 0.0
17 ; 1.2413150176186604E7 ; 1.5006903383469036E8 ; 1.9686450042783156E8 ; 2.023734454197214E9 ; 0.0
18 ; 1.2428839153127067E7 ; 1.5547527518097377E8 ; 2.0927765060401815E8 ; 2.173803488031904E9 ; 0.0
19 ; 1.24425435110474E7 ; 1.6119073011858174E8 ; 2.2170648975714523E8 ; 2.329278763212878E9 ; 0.0
20 ; 1.2457715411495693E7 ; 1.6721536885865876E8 ; 2.3414903326819262E8 ; 2.49046949333146E9 ; 0.0
21 ; 1.247187278581293E7 ; 1.7354916100910732E8 ; 2.466067486796883E8 ; 2.657684862190119E9 ; 0.0
22 ; 1.2483511318238555E7 ; 1.8019207610035855E8 ; 2.5907862146550125E8 ; 2.831234023199226E9 ; 0.0
23 ; 1.2499737803806797E7 ; 1.8714408402856112E8 ; 2.715621327837398E8 ; 3.0114260992995844E9 ; 0.0
24 ; 1.2512787771258088E7 ; 1.944051554143073E8 ; 2.840618705875466E8 ; 3.1985701833281455E9 ; 0.0
25 ; 1.2530862609560879E7 ; 2.0066330277846313E8 ; 2.965746583588047E8 ; 3.3929753387424526E9 ; 0.0
26 ; 1.2541993944910364E7 ; 2.0067204678261122E8 ; 3.091055209683656E8 ; 3.593638641520916E9 ; 0.0
27 ; 1.2555622235092796E7 ; 2.006811308924851E8 ; 3.2164751491327596E8 ; 3.7943106883035274E9 ; 0.0
28 ; 1.2570977407327961E7 ; 2.0069053070822093E8 ; 3.342031371483688E8 ; 3.9949918191960125E9 ; 0.0
29 ; 1.2584134602703812E7 ; 2.007002232959763E8 ; 3.467741145556967E8 ; 4.1956823499042335E9 ; 0.0
30 ; 1.2596686515096094E7 ; 2.0071018719051743E8 ; 3.5935824915840054E8 ; 4.39638257320021E9 ; 0.0
31 ; 1.2610302381421443E7 ; 2.0072040237035504E8 ; 3.719549356734966E8 ; 4.597092760390727E9 ; 0.0
32 ; 1.262056730030859E7 ; 2.0073085021261692E8 ; 3.8456523805491805E8 ; 4.797813162761082E9 ; 0.0
33 ; 1.263187103882267E7 ; 2.0074151343366492E8 ; 3.9718580535522664E8 ; 4.998544012973699E9 ; 0.0
34 ; 1.2644282788845545E7 ; 2.0075237602034673E8 ; 4.098176763940493E8 ; 5.199285526407364E9 ; 0.0
35 ; 1.2655365078443324E7 ; 2.007634231557617E8 ; 4.224619591828948E8 ; 5.400037902427711E9 ; 0.0
36 ; 1.2670321093262775E7 ; 2.007746411425437E8 ; 4.351173242613382E8 ; 5.600801325583472E9 ; 0.0
37 ; 1.2681059562228834E7 ; 2.0078601732592583E8 ; 4.4778764535460097E8 ; 5.801575966726016E9 ; 0.0
38 ; 1.2689560659418507E7 ; 2.0079754001824334E8 ; 4.604687049168298E8 ; 6.002361984051942E9 ; 0.0
39 ; 1.2700248822910758E7 ; 2.008091984260447E8 ; 4.7315826557624835E8 ; 6.203159524070186E9 ; 0.0
40 ; 1.270846446965373E7 ; 2.0082098258059466E8 ; 4.8585851439915913E8 ; 6.40396872249623E9 ; 0.0
41 ; 1.2721951178136457E7 ; 2.0083288327225563E8 ; 4.9856697886881286E8 ; 6.604789705076825E9 ; 0.0
42 ; 1.2727423268734885E7 ; 2.0084489198900822E8 ; 5.112889300469493E8 ; 6.805622588349081E9 ; 0.0
43 ; 1.2735234593277296E7 ; 2.0085700085920298E8 ; 5.240163533156842E8 ; 7.006467480338089E9 ; 0.0
44 ; 1.2746046147529308E7 ; 2.0086920259851477E8 ; 5.367515879089615E8 ; 7.207324481197292E9 ; 0.0
45 ; 1.2752387426510502E7 ; 2.0088149046098402E8 ; 5.494976340564908E8 ; 7.408193683795807E9 ; 0.0
46 ; 1.2759590474212576E7 ; 2.0089385819397327E8 ; 5.622500214830012E8 ; 7.609075174256791E9 ; 0.0
47 ; 1.2764228051303152E7 ; 2.009062999968285E8 ; 5.750096119572138E8 ; 7.809969032450765E9 ; 0.0
48 ; 1.2767159889304705E7 ; 2.0091881048301634E8 ; 5.877738400085169E8 ; 8.010875332447593E9 ; 0.0
49 ; 1.2771530279505616E7 ; 2.0093138464549717E8 ; 6.005409998978217E8 ; 8.211794142930609E9 ; 0.0
50 ; 1.2778803066662364E7 ; 2.0094401782509452E8 ; 6.133125301773273E8 ; 8.412725527576106E9 ; 0.0
51 ; 1.2776842921745334E7 ; 2.0095670568162593E8 ; 6.260913332439896E8 ; 8.613669545401201E9 ; 0.0
52 ; 1.2784331563692737E7 ; 2.009694441675698E8 ; 6.388681761657349E8 ; 8.814626251082827E9 ; 0.0
53 ; 1.2783820897683157E7 ; 2.0098222950405395E8 ; 6.516525077294276E8 ; 9.015595695250397E9 ; 0.0
54 ; 1.2793119931478014E7 ; 2.0099505815896532E8 ; 6.644363286271107E8 ; 9.21657792475445E9 ; 0.0
55 ; 1.2796078037793085E7 ; 2.0100792682699364E8 ; 6.772294485585887E8 ; 9.417572982913416E9 ; 0.0
56 ; 1.2799781568889845E7 ; 2.0102083241143632E8 ; 6.900255265963818E8 ; 9.61858090974041E9 ; 0.0
57 ; 1.2797944962989544E7 ; 2.010337720076049E8 ; 7.028253081652716E8 ; 9.819601742151846E9 ; 0.0
58 ; 1.2802448004124917E7 ; 2.0104674288768744E8 ; 7.156232531282612E8 ; 1.002063551415945E10 ; 0.0
59 ; 1.2803475785743617E7 ; 2.010597424869335E8 ; 7.284257011323861E8 ; 1.0221682257047138E10 ; 0.0
60 ; 1.280689826810657E7 ; 2.0107276839103952E8 ; 7.412291769181297E8 ; 1.0422741999534071E10 ; 0.0
61 ; 1.2808321336814178E7 ; 2.0108581832462475E8 ; 7.540360751862363E8 ; 1.062381476792511E10 ; 0.0
62 ; 1.2810736577598928E7 ; 2.0109889014069676E8 ; 7.668443965230504E8 ; 1.0824900586249735E10 ; 0.0
63 ; 1.281216730310263E7 ; 2.0111198181101573E8 ; 7.796551331006494E8 ; 1.1025999476390432E10 ; 0.0
64 ; 1.2813577816687303E7 ; 2.0112509141727468E8 ; 7.92467300403752E8 ; 1.1227111458201448E10 ; 0.0
65 ; 1.2814645777700206E7 ; 2.011382171430213E8 ; 8.052808782204393E8 ; 1.1428236549618723E10 ; 0.0
66 ; 1.2819231088523455E7 ; 2.0115135726625335E8 ; 8.180955239981395E8 ; 1.1629374766761744E10 ; 0.0
67 ; 1.2821842020435795E7 ; 2.0116451015262663E8 ; 8.30914755086663E8 ; 1.1830526124027996E10 ; 0.0
68 ; 1.282112970405107E7 ; 2.0117767424922022E8 ; 8.437365971070988E8 ; 1.2031690634180622E10 ; 0.0
69 ; 1.2823940995960072E7 ; 2.011908480788087E8 ; 8.565577268111498E8 ; 1.2232868308429842E10 ; 0.0
70 ; 1.2824479556381574E7 ; 2.012040302345962E8 ; 8.6938166780711E8 ; 1.243405915650865E10 ; 0.0
71 ; 1.2826706776848013E7 ; 2.0121721937537137E8 ; 8.822061473634915E8 ; 1.2635263186743246E10 ; 0.0
72 ; 1.2830851868917026E7 ; 2.0123041422104576E8 ; 8.950328541403395E8 ; 1.2836480406118618E10 ; 0.0
73 ; 1.2828814030383313E7 ; 2.0124361354854262E8 ; 9.078637060092565E8 ; 1.3037710820339664E10 ; 0.0
74 ; 1.2829720364198439E7 ; 2.0125681618800512E8 ; 9.206925200396398E8 ; 1.3238954433888206E10 ; 0.0
75 ; 1.2827943633353386E7 ; 2.012700210192967E8 ; 9.335222404038383E8 ; 1.3440211250076212E10 ; 0.0
76 ; 1.28323995877393E7 ; 2.0128322696876866E8 ; 9.463501840371916E8 ; 1.3641481271095509E10 ; 0.0
77 ; 1.283205219067039E7 ; 2.012964330062717E8 ; 9.59182583624931E8 ; 1.3842764498064278E10 ; 0.0
78 ; 1.2831295058426207E7 ; 2.0130963814239183E8 ; 9.720146358156013E8 ; 1.4044060931070549E10 ; 0.0
79 ; 1.2822824047654308E7 ; 2.0132284142589092E8 ; 9.848459308740276E8 ; 1.424537056921294E10 ; 0.0
80 ; 1.282071049365497E7 ; 2.013360419413355E8 ; 9.976687549216819E8 ; 1.4446693410638832E10 ; 0.0
81 ; 1.2814475076210888E7 ; 2.0134923880689806E8 ; 1.0104894654153368E9 ; 1.4648029452580168E10 ; 0.0
82 ; 1.281456251046501E7 ; 2.0136243117231718E8 ; 1.0233039404915477E9 ; 1.4849378691387066E10 ; 0.0
83 ; 1.2805529365068281E7 ; 2.0137561821700302E8 ; 1.0361185030020127E9 ; 1.5050741122559383E10 ; 0.0
84 ; 1.2803679849333122E7 ; 2.0138879914827713E8 ; 1.048924032367081E9 ; 1.5252116740776386E10 ; 0.0
85 ; 1.2801804843642402E7 ; 2.0140197319973555E8 ; 1.0617277122164142E9 ; 1.5453505539924664E10 ; 0.0
86 ; 1.2797653510151405E7 ; 2.0141513962972564E8 ; 1.0745295170600567E9 ; 1.56549075131244E10 ; 0.0
87 ; 1.2794713036273353E7 ; 2.014282977199276E8 ; 1.087327170570208E9 ; 1.5856322652754126E10 ; 0.0
88 ; 1.2788087130896524E7 ; 2.0144144677403295E8 ; 1.1001218836064813E9 ; 1.6057750950474052E10 ; 0.0
89 ; 1.2783180262299143E7 ; 2.0145458611651188E8 ; 1.112909970737378E9 ; 1.6259192397248085E10 ; 0.0
90 ; 1.277856226236516E7 ; 2.0146771509146348E8 ; 1.125693150999677E9 ; 1.6460646983364597E10 ; 0.0
91 ; 1.2773268070209084E7 ; 2.0148083306154191E8 ; 1.138471713262042E9 ; 1.666211469845606E10 ; 0.0
92 ; 1.2766592377272068E7 ; 2.0149393940695333E8 ; 1.151244981332251E9 ; 1.6863595531517603E10 ; 0.0
93 ; 1.2763593575959805E7 ; 2.0150703352451813E8 ; 1.1640115737095232E9 ; 1.7065089470924557E10 ; 0.0
94 ; 1.2760285029895948E7 ; 2.015201148267935E8 ; 1.1767751672854831E9 ; 1.7266596504449074E10 ; 0.0
95 ; 1.275382064574681E7 ; 2.015331827412524E8 ; 1.1895354523153791E9 ; 1.7468116619275867E10 ; 0.0
96 ; 1.2746515057022767E7 ; 2.015462367095144E8 ; 1.2022892729611259E9 ; 1.766964980201712E10 ; 0.0
97 ; 1.2739546793797042E7 ; 2.015592761866249E8 ; 1.2150357880181487E9 ; 1.7871196038726635E10 ; 0.0
98 ; 1.273562692783635E7 ; 2.015723006403794E8 ; 1.2277753348119457E9 ; 1.807275531491326E10 ; 0.0
99 ; 1.2733140155285276E7 ; 2.0158530955068904E8 ; 1.240510961739782E9 ; 1.8274327615553642E10 ; 0.0
100 ; 1.272496028080241E7 ; 2.0159830240898576E8 ; 1.2532441018950675E9 ; 1.8475912925104332E10 ; 0.0
101 ; 1.271745612210854E7 ; 2.0161127871766287E8 ; 1.26596906217587E9 ; 1.8677511227513317E10 ; 0.0
102 ; 1.2711085891257243E7 ; 2.016242379895496E8 ; 1.2786865182979784E9 ; 1.887912250623098E10 ; 0.0
103 ; 1.270426545727694E7 ; 2.0163717974741718E8 ; 1.2913976041892357E9 ; 1.9080746744220528E10 ; 0.0
104 ; 1.270112458919478E7 ; 2.0165010352351376E8 ; 1.3041018696465125E9 ; 1.9282383923967945E10 ; 0.0
105 ; 1.2693129013032371E7 ; 2.016630088591271E8 ; 1.3168029942357073E9 ; 1.948403402749146E10 ; 0.0
106 ; 1.2687364488439817E7 ; 2.016758953041723E8 ; 1.3294961232487397E9 ; 1.9685697036350586E10 ; 0.0
107 ; 1.2680019606243473E7 ; 2.0168876241680384E8 ; 1.3421834877371795E9 ; 1.988737293165476E10 ; 0.0
108 ; 1.267405938180873E7 ; 2.017016097630493E8 ; 1.354863507343423E9 ; 2.0089061694071564E10 ; 0.0
109 ; 1.2664685902593218E7 ; 2.0171443691646445E8 ; 1.3675375667252316E9 ; 2.0290763303834614E10 ; 0.0
110 ; 1.2657846491237758E7 ; 2.0172724345780742E8 ; 1.3802022526278248E9 ; 2.049247774075108E10 ; 0.0
111 ; 1.2650846619407516E7 ; 2.0174002897473142E8 ; 1.3928600991190624E9 ; 2.0694204984208885E10 ; 0.0
112 ; 1.2640921721379058E7 ; 2.017527930614942E8 ; 1.4055109457384698E9 ; 2.0895945013183617E10 ; 0.0
113 ; 1.2636213484295212E7 ; 2.0176553531868395E8 ; 1.4181518674598489E9 ; 2.109769780624511E10 ; 0.0
114 ; 1.2630907583722977E7 ; 2.0177825535295978E8 ; 1.430788080944144E9 ; 2.1299463341563793E10 ; 0.0
115 ; 1.2620313973610858E7 ; 2.0179095277680668E8 ; 1.443418988527867E9 ; 2.150124159691675E10 ; 0.0
116 ; 1.2609482576868525E7 ; 2.0180362720830345E8 ; 1.456039302501478E9 ; 2.1703032549693558E10 ; 0.0
117 ; 1.2604237427907929E7 ; 2.018162782709032E8 ; 1.4686487850783465E9 ; 2.1904836176901863E10 ; 0.0
118 ; 1.25935465440564E7 ; 2.0182890559322554E8 ; 1.4812530225062544E9 ; 2.2106652455172768E10 ; 0.0
119 ; 1.2584143962647207E7 ; 2.0184150880885953E8 ; 1.4938465690503109E9 ; 2.2308481360765995E10 ; 0.0
120 ; 1.2574690039604843E7 ; 2.0185408755617735E8 ; 1.506430713012958E9 ; 2.2510322869574856E10 ; 0.0
121 ; 1.2570816451592231E7 ; 2.018666414781573E8 ; 1.519005403052563E9 ; 2.2712176957131035E10 ; 0.0
122 ; 1.2559504161122162E7 ; 2.0187917022221628E8 ; 1.5315762195041552E9 ; 2.291404359860919E10 ; 0.0
123 ; 1.2554600306695033E7 ; 2.0189167344005063E8 ; 1.5441357236652772E9 ; 2.311592276883141E10 ; 0.0
124 ; 1.2541848267889079E7 ; 2.0190415078748524E8 ; 1.5566903239719722E9 ; 2.331781444227146E10 ; 0.0
125 ; 1.253357804997058E7 ; 2.0191660192433035E8 ; 1.5692321722398612E9 ; 2.351971859305895E10 ; 0.0
126 ; 1.2524301383717371E7 ; 2.0192902651424545E8 ; 1.5817657502898319E9 ; 2.372163519498328E10 ; 0.0
127 ; 1.2516582812206646E7 ; 2.019414242246102E8 ; 1.5942900516735492E9 ; 2.3923564221497524E10 ; 0.0
128 ; 1.2504300453840265E7 ; 2.019537947264015E8 ; 1.606806634485756E9 ; 2.4125505645722134E10 ; 0.0
129 ; 1.249871297406363E7 ; 2.01966137694077E8 ; 1.6193109349395962E9 ; 2.4327459440448536E10 ; 0.0
130 ; 1.2482112412165098E7 ; 2.01978452805464E8 ; 1.6318096479136598E9 ; 2.4529425578142612E10 ; 0.0
131 ; 1.2471169302485993E7 ; 2.0199073974165407E8 ; 1.644291760325825E9 ; 2.473140403094808E10 ; 0.0
132 ; 1.2456828772352474E7 ; 2.0200299818690273E8 ; 1.656762929628311E9 ; 2.493339477068973E10 ; 0.0
133 ; 1.2443047329699056E7 ; 2.0201522782853377E8 ; 1.6692197584006634E9 ; 2.5135397768876633E10 ; 0.0
134 ; 1.2432374702992862E7 ; 2.020274283568486E8 ; 1.6816628057303624E9 ; 2.5337412996705166E10 ; 0.0
135 ; 1.2415240203683613E7 ; 2.0203959946503955E8 ; 1.6940951804333553E9 ; 2.5539440425062016E10 ; 0.0
136 ; 1.2401531936278699E7 ; 2.0205174084910756E8 ; 1.706510420637039E9 ; 2.5741480024527054E10 ; 0.0
137 ; 1.238471035581789E7 ; 2.0206385220778358E8 ; 1.7189119525733175E9 ; 2.594353176537616E10 ; 0.0
138 ; 1.2376332990460461E7 ; 2.0207593324245393E8 ; 1.7312966629291353E9 ; 2.6145595617583942E10 ; 0.0
139 ; 1.23561846947686E7 ; 2.020879836570889E8 ; 1.7436729959195957E9 ; 2.6347671550826397E10 ; 0.0
140 ; 1.2343469569501476E7 ; 2.0210000315817487E8 ; 1.7560291806143644E9 ; 2.6549759534483486E10 ; 0.0
141 ; 1.2328836730336979E7 ; 2.0211199145464957E8 ; 1.7683726501838658E9 ; 2.6751859537641663E10 ; 0.0
142 ; 1.2316065448360713E7 ; 2.021239482578402E8 ; 1.7807014869142027E9 ; 2.6953971529096313E10 ; 0.0
143 ; 1.2298306335179087E7 ; 2.0213587328140464E8 ; 1.7930175523625634E9 ; 2.7156095477354153E10 ; 0.0
144 ; 1.2285651198312445E7 ; 2.0214776624127516E8 ; 1.8053158586977425E9 ; 2.735823135063556E10 ; 0.0
145 ; 1.2270462973030329E7 ; 2.0215962685560486E8 ; 1.817601509896055E9 ; 2.7560379116876835E10 ; 0.0
146 ; 1.2261955144804923E7 ; 2.021714548447164E8 ; 1.8298719728690853E9 ; 2.776253874373244E10 ; 0.0
147 ; 1.2253508042794313E7 ; 2.0218324993105316E8 ; 1.8421339280138903E9 ; 2.7964710198577156E10 ; 0.0
148 ; 1.2242121939221295E7 ; 2.0219501183913273E8 ; 1.8543874360566845E9 ; 2.816689344850821E10 ; 0.0
149 ; 1.223471504366293E7 ; 2.0220674029550213E8 ; 1.8666295579959059E9 ; 2.8369088460347343E10 ; 0.0
150 ; 1.2221650023190953E7 ; 2.0221843502869546E8 ; 1.878864273039569E9 ; 2.8571295200642845E10 ; 0.0
151 ; 1.2211458366526514E7 ; 2.0223009576919335E8 ; 1.8910859230627599E9 ; 2.877351363567154E10 ; 0.0
152 ; 1.2198918250628917E7 ; 2.0224172224938384E8 ; 1.9032973814292865E9 ; 2.897574373144073E10 ; 0.0
153 ; 1.2190265745283268E7 ; 2.0225331420352566E8 ; 1.9154962996799154E9 ; 2.9177985453690113E10 ; 0.0
154 ; 1.2179247760475814E7 ; 2.0226487136771256E8 ; 1.9276865654251988E9 ; 2.938023876789364E10 ; 0.0
155 ; 1.2165373680997776E7 ; 2.0227639347983962E8 ; 1.9398658131856747E9 ; 2.9582503639261353E10 ; 0.0
156 ; 1.215491547850847E7 ; 2.0228788027957073E8 ; 1.9520311868666725E9 ; 2.978478003274119E10 ; 0.0
157 ; 1.2145619707088033E7 ; 2.022993315083079E8 ; 1.964186102345181E9 ; 2.9987067913020763E10 ; 0.0
158 ; 1.2133931794085385E7 ; 2.023107469091615E8 ; 1.976331722052269E9 ; 3.018936724452907E10 ; 0.0
159 ; 1.2120269399526464E7 ; 2.023221262269221E8 ; 1.9884656538463545E9 ; 3.0391677991438232E10 ; 0.0
160 ; 1.2111470833714709E7 ; 2.0233346920803344E8 ; 2.0005859232458808E9 ; 3.0594000117665154E10 ; 0.0
161 ; 1.2102023633975806E7 ; 2.0234477560056666E8 ; 2.0126973940795956E9 ; 3.0796333586873188E10 ; 0.0
162 ; 1.2089948697613813E7 ; 2.0235604515419552E8 ; 2.0247994177135713E9 ; 3.0998678362473755E10 ; 0.0
163 ; 1.2081870472965756E7 ; 2.0236727762017286E8 ; 2.036889366411185E9 ; 3.120103440762795E10 ; 0.0
164 ; 1.206829868722131E7 ; 2.0237847275130805E8 ; 2.0489712368841507E9 ; 3.1403401685248123E10 ; 0.0
165 ; 1.2054944564359756E7 ; 2.023896303019453E8 ; 2.061039535571372E9 ; 3.160578015799943E10 ; 0.0
166 ; 1.2045261193930367E7 ; 2.0240075002794316E8 ; 2.0730944801357317E9 ; 3.1808169788301376E10 ; 0.0
167 ; 1.2031983888234342E7 ; 2.0241183168665472E8 ; 2.085139741329662E9 ; 3.201057053832932E10 ; 0.0
168 ; 1.2021206091653284E7 ; 2.0242287503690872E8 ; 2.0971717252178965E9 ; 3.2212982370015972E10 ; 0.0
169 ; 1.2009607635829847E7 ; 2.0243387983899152E8 ; 2.1091929313095498E9 ; 3.241540524505288E10 ; 0.0
170 ; 1.2001117499740155E7 ; 2.0244484585462993E8 ; 2.1212025389453797E9 ; 3.2617839124891872E10 ; 0.0
171 ; 1.1985466385685144E7 ; 2.0245577284697464E8 ; 2.1332036564451199E9 ; 3.2820283970746502E10 ; 0.0
172 ; 1.1972280083584221E7 ; 2.024666605805844E8 ; 2.145189122830805E9 ; 3.3022739743593475E10 ; 0.0
173 ; 1.1965285999547485E7 ; 2.024775088214111E8 ; 2.157161402914389E9 ; 3.322520640417406E10 ; 0.0
174 ; 1.1953914457025867E7 ; 2.0248831733678526E8 ; 2.1691266889139366E9 ; 3.3427683912995472E10 ; 0.0
175 ; 1.1948313725120535E7 ; 2.0249908589540228E8 ; 2.1810806033709626E9 ; 3.3630172230332256E10 ; 0.0
176 ; 1.1943677738969274E7 ; 2.0250981426730922E8 ; 2.193028917096083E9 ; 3.3832671316227657E10 ; 0.0
177 ; 1.193252572095988E7 ; 2.025205022238924E8 ; 2.2049725948350525E9 ; 3.403518113049497E10 ; 0.0
178 ; 1.1925831139623124E7 ; 2.0253114953786516E8 ; 2.216905120556012E9 ; 3.423770163271886E10 ; 0.0
179 ; 1.1919712840383941E7 ; 2.0254175598325652E8 ; 2.2288309516956353E9 ; 3.444023278225673E10 ; 0.0
180 ; 1.1913300653782342E7 ; 2.025523213354002E8 ; 2.2407506645360193E9 ; 3.464277453823998E10 ; 0.0
181 ; 1.1905771713663587E7 ; 2.0256284537092414E8 ; 2.2526639651898017E9 ; 3.4845326859575386E10 ; 0.0
182 ; 1.190141292021961E7 ; 2.0257332786774045E8 ; 2.2645697369034653E9 ; 3.504788970494631E10 ; 0.0
183 ; 1.189288764038866E7 ; 2.02583768605036E8 ; 2.2764711498236847E9 ; 3.525046303281405E10 ; 0.0
184 ; 1.1886439611464266E7 ; 2.0259416736326313E8 ; 2.288364037464073E9 ; 3.545304680141908E10 ; 0.0
185 ; 1.1877036308439022E7 ; 2.0260452392413113E8 ; 2.3002504770755377E9 ; 3.565564096878235E10 ; 0.0
186 ; 1.1871884961783512E7 ; 2.0261483807059783E8 ; 2.312127513383977E9 ; 3.585824549270648E10 ; 0.0
187 ; 1.1865642047180593E7 ; 2.0262510958686182E8 ; 2.3239993983457603E9 ; 3.606086033077708E10 ; 0.0
188 ; 1.1859869809139833E7 ; 2.0263533825835475E8 ; 2.335865040392941E9 ; 3.626348544036394E10 ; 0.0
189 ; 1.184938869270757E7 ; 2.0264552387173438E8 ; 2.3477249102020807E9 ; 3.646612077862229E10 ; 0.0
190 ; 1.1842504402310168E7 ; 2.0265566621487752E8 ; 2.3595742988947883E9 ; 3.6668766302494026E10 ; 0.0
191 ; 1.183593603861575E7 ; 2.026657650768736E8 ; 2.3714168032970986E9 ; 3.68714219687089E10 ; 0.0
192 ; 1.1828114763619272E7 ; 2.0267582024801862E8 ; 2.3832527393357143E9 ; 3.7074087733785774E10 ; 0.0
193 ; 1.1823019712647742E7 ; 2.0268583151980898E8 ; 2.395080854099334E9 ; 3.727676355403379E10 ; 0.0
194 ; 1.1814178396873897E7 ; 2.026957986849361E8 ; 2.4069038738119817E9 ; 3.74794493855536E10 ; 0.0
195 ; 1.1809697572934983E7 ; 2.0270572153728107E8 ; 2.4187180522088556E9 ; 3.768214518423853E10 ; 0.0
