CSV File for the City 6 on Day 343
1 - Minute m 
2 - Power Consumed at minute m 
3 - Power Produced at minute m 
4 - Energy Consumed since the beginning of the day 
5 - Energy Produced since the beginning of the day 
6 - Energy Lost since the beginning of the day on lines starting from the city
 
0 ; 1.1188755801462678E7 ; 1.0631501444538888E8 ; 0.0 ; 0.0 ; 0.0
1 ; 1.119924212753893E7 ; 1.0646592185754669E8 ; 1.1188755801462678E7 ; 1.0631501444538888E8 ; 0.0
2 ; 1.1213290222490113E7 ; 1.0692582125787815E8 ; 2.2387997929001607E7 ; 2.1278093630293557E8 ; 0.0
3 ; 1.1225510711719867E7 ; 1.0769471569130236E8 ; 3.360128815149172E7 ; 3.197067575608137E8 ; 0.0
4 ; 1.1245558437998854E7 ; 1.0877260787853992E8 ; 4.482679886321159E7 ; 4.274014732521161E8 ; 0.0
5 ; 1.1261449454896681E7 ; 1.1015950020378983E8 ; 5.607235730121044E7 ; 5.36174081130656E8 ; 0.0
6 ; 1.129053398061766E7 ; 1.1185539470376357E8 ; 6.733380675610712E7 ; 6.463335813344458E8 ; 0.0
7 ; 1.1328730144905914E7 ; 1.1386029305819345E8 ; 7.862434073672478E7 ; 7.581889760382094E8 ; 0.0
8 ; 1.1384392641758548E7 ; 1.161741965819186E8 ; 8.995307088163069E7 ; 8.720492690964029E8 ; 0.0
9 ; 1.1460247551462304E7 ; 1.1879710621863526E8 ; 1.0133746352338924E8 ; 9.882234656783215E8 ; 0.0
10 ; 1.1586951555363797E7 ; 1.217290225363816E8 ; 1.1279771107485154E8 ; 1.1070205718969567E9 ; 0.0
11 ; 1.1783609515649242E7 ; 1.2496994572480813E8 ; 1.2438466263021535E8 ; 1.2287495944333382E9 ; 0.0
12 ; 1.2099390623582931E7 ; 1.285198755942643E8 ; 1.3616827214586458E8 ; 1.3537195401581464E9 ; 0.0
13 ; 1.240620666995702E7 ; 1.3237881157671195E8 ; 1.482676627694475E8 ; 1.4822394157524107E9 ; 0.0
14 ; 1.243668740896772E7 ; 1.3654675272845495E8 ; 1.6067386943940452E8 ; 1.6146182273291225E9 ; 0.0
15 ; 1.2453879436121294E7 ; 1.41023697734654E8 ; 1.7311055684837225E8 ; 1.7511649800575776E9 ; 0.0
16 ; 1.2469571977890419E7 ; 1.4580964491557696E8 ; 1.8556443628449354E8 ; 1.8921886777922316E9 ; 0.0
17 ; 1.2482955523011072E7 ; 1.5090459223451224E8 ; 1.9803400826238397E8 ; 2.0379983227078085E9 ; 0.0
18 ; 1.2499448360221105E7 ; 1.5630853730726087E8 ; 2.1051696378539503E8 ; 2.188902914942321E9 ; 0.0
19 ; 1.2513398194813905E7 ; 1.6202147741310224E8 ; 2.2301641214561614E8 ; 2.345211452249582E9 ; 0.0
20 ; 1.2526262899057811E7 ; 1.6804340950711724E8 ; 2.3552981034043005E8 ; 2.507232929662684E9 ; 0.0
21 ; 1.2543380048109096E7 ; 1.743743302337403E8 ; 2.4805607323948786E8 ; 2.675276339169801E9 ; 0.0
22 ; 1.2556613962720599E7 ; 1.8101423594140208E8 ; 2.6059945328759694E8 ; 2.8496506694035416E9 ; 0.0
23 ; 1.2570970880298117E7 ; 1.8796312269811887E8 ; 2.731560672503175E8 ; 3.0306649053449435E9 ; 0.0
24 ; 1.2587658969426267E7 ; 1.9522098630787933E8 ; 2.8572703813061565E8 ; 3.218628028043062E9 ; 0.0
25 ; 1.2601221427334158E7 ; 2.0147586322586077E8 ; 2.983146971000419E8 ; 3.4138490143509417E9 ; 0.0
26 ; 1.2617131281597102E7 ; 2.0148129661285368E8 ; 3.1091591852737606E8 ; 3.6153248775768023E9 ; 0.0
27 ; 1.2630449681477025E7 ; 2.0148705087804097E8 ; 3.2353304980897313E8 ; 3.816806174189656E9 ; 0.0
28 ; 1.2644457505326942E7 ; 2.0149312094385016E8 ; 3.3616349949045014E8 ; 4.0182932250676966E9 ; 0.0
29 ; 1.2659622031016523E7 ; 2.0149950155734456E8 ; 3.488079569957771E8 ; 4.2197863460115466E9 ; 0.0
30 ; 1.267296023120662E7 ; 2.0150618730830526E8 ; 3.614675790267936E8 ; 4.421285847568892E9 ; 0.0
31 ; 1.269004841880579E7 ; 2.015131726471288E8 ; 3.741405392580002E8 ; 4.622792034877197E9 ; 0.0
32 ; 1.2699645160904309E7 ; 2.0152045190242887E8 ; 3.86830587676806E8 ; 4.824305207524326E9 ; 0.0
33 ; 1.271040111296208E7 ; 2.0152801929824212E8 ; 3.9953023283771026E8 ; 5.025825659426755E9 ; 0.0
34 ; 1.2728316129793165E7 ; 2.0153586897074857E8 ; 4.122406339506723E8 ; 5.2273536787249975E9 ; 0.0
35 ; 1.2735968434536064E7 ; 2.015439949844288E8 ; 4.249689500804655E8 ; 5.428889547695746E9 ; 0.0
36 ; 1.2748667127869802E7 ; 2.0155239134759143E8 ; 4.3770491851500154E8 ; 5.630433542680175E9 ; 0.0
37 ; 1.2760911986787653E7 ; 2.0156105202721557E8 ; 4.504535856428713E8 ; 5.831985934027766E9 ; 0.0
38 ; 1.2770832698973075E7 ; 2.0156997096306363E8 ; 4.63214497629659E8 ; 6.033546986054982E9 ; 0.0
39 ; 1.27835571499986E7 ; 2.015791420810303E8 ; 4.7598533032863206E8 ; 6.235116957018045E9 ; 0.0
40 ; 1.2792292333317056E7 ; 2.01588559305704E8 ; 4.8876888747863066E8 ; 6.436696099099075E9 ; 0.0
41 ; 1.2802033097442955E7 ; 2.015982165721243E8 ; 5.015611798119477E8 ; 6.638284658404779E9 ; 0.0
42 ; 1.2812073723536827E7 ; 2.016081078367299E8 ; 5.143632129093907E8 ; 6.839882874976904E9 ; 0.0
43 ; 1.2818956577275166E7 ; 2.016182270874965E8 ; 5.2717528663292754E8 ; 7.041490982813634E9 ; 0.0
44 ; 1.2829479213181846E7 ; 2.0162856835327256E8 ; 5.399942432102027E8 ; 7.243109209901131E9 ; 0.0
45 ; 1.2833869601317128E7 ; 2.016391257123265E8 ; 5.528237224233845E8 ; 7.444737778254403E9 ; 0.0
46 ; 1.2839562899048181E7 ; 2.0164989330012283E8 ; 5.656575920247017E8 ; 7.646376903966729E9 ; 0.0
47 ; 1.2846752865930343E7 ; 2.016608653163509E8 ; 5.784971549237499E8 ; 7.848026797266852E9 ; 0.0
48 ; 1.2855219734875634E7 ; 2.0167203603123224E8 ; 5.913439077896802E8 ; 8.049687662583203E9 ; 0.0
49 ; 1.285888476923135E7 ; 2.0168339979113552E8 ; 6.041991275245559E8 ; 8.251359698614435E9 ; 0.0
50 ; 1.2864486511067698E7 ; 2.0169495102353144E8 ; 6.170580122937872E8 ; 8.453043098405571E9 ; 0.0
51 ; 1.286795520409939E7 ; 2.0170668424131975E8 ; 6.29922498804855E8 ; 8.654738049429102E9 ; 0.0
52 ; 1.2870069362651695E7 ; 2.0171859404656392E8 ; 6.427904540089544E8 ; 8.856444733670422E9 ; 0.0
53 ; 1.2878121760643398E7 ; 2.017306751336675E8 ; 6.556605233716061E8 ; 9.058163327716986E9 ; 0.0
54 ; 1.2882699421347344E7 ; 2.0174292229202828E8 ; 6.685386451322495E8 ; 9.259894002850653E9 ; 0.0
55 ; 1.288583226416137E7 ; 2.017553304082048E8 ; 6.814213445535969E8 ; 9.461636925142681E9 ; 0.0
56 ; 1.2888598635904877E7 ; 2.0176789446763045E8 ; 6.943071768177582E8 ; 9.663392255550886E9 ; 0.0
57 ; 1.288959199701947E7 ; 2.01780609555909E8 ; 7.071957754536631E8 ; 9.865160150018517E9 ; 0.0
58 ; 1.2893360158261253E7 ; 2.017934708597246E8 ; 7.200853674506826E8 ; 1.0066940759574425E10 ; 0.0
59 ; 1.2897105131146118E7 ; 2.0180647366739848E8 ; 7.329787276089439E8 ; 1.0268734230434149E10 ; 0.0
60 ; 1.2902440799648423E7 ; 2.018196133691229E8 ; 7.4587583274009E8 ; 1.0470540704101547E10 ; 0.0
61 ; 1.2905292095382618E7 ; 2.0183288545690185E8 ; 7.587782735397384E8 ; 1.067236031747067E10 ; 0.0
62 ; 1.2906250237701539E7 ; 2.0184628552422678E8 ; 7.71683565635121E8 ; 1.0874193202927572E10 ; 0.0
63 ; 1.2909419902493529E7 ; 2.018598092655133E8 ; 7.845898158728225E8 ; 1.10760394884518E10 ; 0.0
64 ; 1.2910291185132205E7 ; 2.01873452475324E8 ; 7.97499235775316E8 ; 1.1277899297717312E10 ; 0.0
65 ; 1.2917219557664875E7 ; 2.0188721104740146E8 ; 8.104095269604483E8 ; 1.1479772750192636E10 ; 0.0
66 ; 1.2918571520489506E7 ; 2.0190108097353235E8 ; 8.233267465181131E8 ; 1.1681659961240038E10 ; 0.0
67 ; 1.2918781575311061E7 ; 2.0191505834226403E8 ; 8.362453180386026E8 ; 1.188356104221357E10 ; 0.0
68 ; 1.2922735385363359E7 ; 2.019291393374919E8 ; 8.491640996139137E8 ; 1.2085476100555834E10 ; 0.0
69 ; 1.2927953325231252E7 ; 2.0194332023693576E8 ; 8.62086834999277E8 ; 1.2287405239893326E10 ; 0.0
70 ; 1.2927738404694015E7 ; 2.019575974105208E8 ; 8.750147883245082E8 ; 1.2489348560130262E10 ; 0.0
71 ; 1.2929060209221322E7 ; 2.019719673186785E8 ; 8.879425267292022E8 ; 1.2691306157540783E10 ; 0.0
72 ; 1.2932460989072239E7 ; 2.0198642651058108E8 ; 9.008715869384235E8 ; 1.289327812485946E10 ; 0.0
73 ; 1.293190705381438E7 ; 2.0200097162232184E8 ; 9.138040479274957E8 ; 1.3095264551370043E10 ; 0.0
74 ; 1.2931771461086245E7 ; 2.020155993750529E8 ; 9.267359549813101E8 ; 1.3297265522992365E10 ; 0.0
75 ; 1.2938170062127331E7 ; 2.0203030657309052E8 ; 9.396677264423964E8 ; 1.3499281122367418E10 ; 0.0
76 ; 1.2936500932864387E7 ; 2.020450901019976E8 ; 9.526058965045238E8 ; 1.3701311428940508E10 ; 0.0
77 ; 1.2936180865727318E7 ; 2.0205994692665142E8 ; 9.655423974373882E8 ; 1.3903356519042505E10 ; 0.0
78 ; 1.293568731498219E7 ; 2.0207487408930436E8 ; 9.784785783031155E8 ; 1.4105416465969156E10 ; 0.0
79 ; 1.293494905377665E7 ; 2.0208986870764458E8 ; 9.914142656180977E8 ; 1.430749134005846E10 ; 0.0
80 ; 1.2930907891746206E7 ; 2.021049279728621E8 ; 1.0043492146718743E9 ; 1.4509581208766106E10 ; 0.0
81 ; 1.292620659026416E7 ; 2.0212004914772618E8 ; 1.0172801225636204E9 ; 1.4711686136738968E10 ; 0.0
82 ; 1.2924877544835053E7 ; 2.0213522956467843E8 ; 1.0302063291538846E9 ; 1.4913806185886694E10 ; 0.0
83 ; 1.2921749520423526E7 ; 2.021504666239457E8 ; 1.0431312066987197E9 ; 1.5115941415451372E10 ; 0.0
84 ; 1.2919451178415772E7 ; 2.0216575779167673E8 ; 1.0560529562191433E9 ; 1.5318091882075317E10 ; 0.0
85 ; 1.2915563308931574E7 ; 2.0218110059810492E8 ; 1.068972407397559E9 ; 1.5520257639866995E10 ; 0.0
86 ; 1.2912947739304176E7 ; 2.0219649263574097E8 ; 1.0818879707064905E9 ; 1.57224387404651E10 ; 0.0
87 ; 1.2908799468879333E7 ; 2.0221193155759653E8 ; 1.0948009184457946E9 ; 1.592463523310084E10 ; 0.0
88 ; 1.2906421569970125E7 ; 2.022274150754416E8 ; 1.1077097179146738E9 ; 1.6126847164658436E10 ; 0.0
89 ; 1.2900811982615884E7 ; 2.0224294095809668E8 ; 1.120616139484644E9 ; 1.6329074579733877E10 ; 0.0
90 ; 1.2902068637303006E7 ; 2.0225850702976137E8 ; 1.13351695146726E9 ; 1.6531317520691975E10 ; 0.0
91 ; 1.2891899460470043E7 ; 2.0227411116838026E8 ; 1.146419020104563E9 ; 1.6733576027721737E10 ; 0.0
92 ; 1.2891105338441823E7 ; 2.0228975130404654E8 ; 1.159310919565033E9 ; 1.6935850138890118E10 ; 0.0
93 ; 1.2886767049317198E7 ; 2.023054254174446E8 ; 1.1722020249034748E9 ; 1.7138139890194164E10 ; 0.0
94 ; 1.288093145703489E7 ; 2.0232113153833118E8 ; 1.185088791952792E9 ; 1.734044531561161E10 ; 0.0
95 ; 1.2876438816991454E7 ; 2.023368677440559E8 ; 1.1979697234098268E9 ; 1.754276644714994E10 ; 0.0
96 ; 1.2871162528017802E7 ; 2.0235263215812075E8 ; 1.2108461622268183E9 ; 1.7745103314893997E10 ; 0.0
97 ; 1.286858215640769E7 ; 2.0236842294877857E8 ; 1.223717324754836E9 ; 1.7947455947052116E10 ; 0.0
98 ; 1.2859759115572372E7 ; 2.023842383276705E8 ; 1.2365859069112437E9 ; 1.8149824370000896E10 ; 0.0
99 ; 1.2857510068454113E7 ; 2.0240007654850188E8 ; 1.2494456660268161E9 ; 1.8352208608328568E10 ; 0.0
100 ; 1.285218318687081E7 ; 2.0241593590575582E8 ; 1.2623031760952702E9 ; 1.8554608684877068E10 ; 0.0
101 ; 1.2846879617091557E7 ; 2.02431814733445E8 ; 1.275155359282141E9 ; 1.875702462078282E10 ; 0.0
102 ; 1.284196103677233E7 ; 2.0244771140389985E8 ; 1.2880022388992326E9 ; 1.8959456435516266E10 ; 0.0
103 ; 1.283549444400128E7 ; 2.0246362432659352E8 ; 1.3008441999360049E9 ; 1.9161904146920166E10 ; 0.0
104 ; 1.2833258844038252E7 ; 2.0247955194700232E8 ; 1.313679694380006E9 ; 1.936436777124676E10 ; 0.0
105 ; 1.2826714766420716E7 ; 2.024954927455014E8 ; 1.3265129532240443E9 ; 1.9566847323193764E10 ; 0.0
106 ; 1.2822036507614186E7 ; 2.0251144523629436E8 ; 1.339339667990465E9 ; 1.9769342815939266E10 ; 0.0
107 ; 1.2821010457242804E7 ; 2.0252740796637687E8 ; 1.352161704498079E9 ; 1.997185426117556E10 ; 0.0
108 ; 1.2808491569441669E7 ; 2.025433795145326E8 ; 1.3649827149553218E9 ; 2.0174381669141937E10 ; 0.0
109 ; 1.2802246558502128E7 ; 2.0255935849036127E8 ; 1.3777912065247633E9 ; 2.037692504865647E10 ; 0.0
110 ; 1.2797275781475378E7 ; 2.0257534353333792E8 ; 1.3905934530832655E9 ; 2.057948440714683E10 ; 0.0
111 ; 1.2789443258994283E7 ; 2.0259133331190225E8 ; 1.4033907288647408E9 ; 2.078205975068017E10 ; 0.0
112 ; 1.2785685778821683E7 ; 2.026073265225779E8 ; 1.4161801721237352E9 ; 2.098465108399207E10 ; 0.0
113 ; 1.2780090075428056E7 ; 2.026233218891199E8 ; 1.428965857902557E9 ; 2.118725841051465E10 ; 0.0
114 ; 1.2771599773684612E7 ; 2.0263931816169044E8 ; 1.441745947977985E9 ; 2.1389881732403767E10 ; 0.0
115 ; 1.2764960711910704E7 ; 2.026553141160615E8 ; 1.4545175477516694E9 ; 2.1592521050565456E10 ; 0.0
116 ; 1.2758878662966097E7 ; 2.0267130855284396E8 ; 1.4672825084635801E9 ; 2.179517636468152E10 ; 0.0
117 ; 1.2752775097256731E7 ; 2.0268730029674196E8 ; 1.4800413871265461E9 ; 2.1997847673234364E10 ; 0.0
118 ; 1.2743398245741963E7 ; 2.027032881958323E8 ; 1.4927941622238028E9 ; 2.2200534973531105E10 ; 0.0
119 ; 1.2735749071829634E7 ; 2.027192711208675E8 ; 1.505537560469545E9 ; 2.2403238261726936E10 ; 0.0
120 ; 1.2727510755112974E7 ; 2.0273524796460238E8 ; 1.5182733095413744E9 ; 2.2605957532847805E10 ; 0.0
121 ; 1.2718156519959854E7 ; 2.0275121764114296E8 ; 1.5310008202964873E9 ; 2.280869278081241E10 ; 0.0
122 ; 1.2716227831609229E7 ; 2.0276717908531716E8 ; 1.5437189768164473E9 ; 2.3011443998453552E10 ; 0.0
123 ; 1.2707971754945196E7 ; 2.027831312520666E8 ; 1.5564352046480565E9 ; 2.3214211177538868E10 ; 0.0
124 ; 1.2699715684536863E7 ; 2.0279907311585888E8 ; 1.5691431764030018E9 ; 2.3416994308790936E10 ; 0.0
125 ; 1.269315820475675E7 ; 2.0281500367011932E8 ; 1.5818428920875387E9 ; 2.3619793381906796E10 ; 0.0
126 ; 1.2685172126682142E7 ; 2.028309219266822E8 ; 1.5945360502922955E9 ; 2.3822608385576916E10 ; 0.0
127 ; 1.2674246914818007E7 ; 2.0284682691526E8 ; 1.6072212224189775E9 ; 2.4025439307503597E10 ; 0.0
128 ; 1.2669389605807249E7 ; 2.028627176829307E8 ; 1.6198954693337955E9 ; 2.4228286134418858E10 ; 0.0
129 ; 1.2662228788583567E7 ; 2.028785932936425E8 ; 1.6325648589396029E9 ; 2.4431148852101788E10 ; 0.0
130 ; 1.264877118310178E7 ; 2.0289445282773453E8 ; 1.6452270877281864E9 ; 2.463402744539543E10 ; 0.0
131 ; 1.263482002829354E7 ; 2.0291029538147452E8 ; 1.6578758589112883E9 ; 2.4836921898223167E10 ; 0.0
132 ; 1.2623616430504685E7 ; 2.0292612006661135E8 ; 1.6705106789395819E9 ; 2.503983219360464E10 ; 0.0
133 ; 1.2610994096827548E7 ; 2.0294192600994277E8 ; 1.6831342953700867E9 ; 2.5242758313671253E10 ; 0.0
134 ; 1.2598606293787144E7 ; 2.0295771235289782E8 ; 1.6957452894669142E9 ; 2.5445700239681194E10 ; 0.0
135 ; 1.2586376108040472E7 ; 2.02973478251133E8 ; 1.7083438957607014E9 ; 2.5648657952034092E10 ; 0.0
136 ; 1.2576372096806977E7 ; 2.0298922287414208E8 ; 1.720930271868742E9 ; 2.5851631430285225E10 ; 0.0
137 ; 1.2563758913064616E7 ; 2.0300494540487885E8 ; 1.733506643965549E9 ; 2.6054620653159367E10 ; 0.0
138 ; 1.2548848885649174E7 ; 2.0302064503939268E8 ; 1.7460704028786137E9 ; 2.6257625598564247E10 ; 0.0
139 ; 1.2536358229757499E7 ; 2.030363209864759E8 ; 1.758619251764263E9 ; 2.646064624360364E10 ; 0.0
140 ; 1.2520352133230327E7 ; 2.030519724673234E8 ; 1.7711556099940205E9 ; 2.666368256459012E10 ; 0.0
141 ; 1.2504651143036062E7 ; 2.030675987152029E8 ; 1.7836759621272507E9 ; 2.686673453705744E10 ; 0.0
142 ; 1.2494634685604017E7 ; 2.030831989751369E8 ; 1.7961806132702868E9 ; 2.7069802135772644E10 ; 0.0
143 ; 1.2481243792686142E7 ; 2.0309877250359464E8 ; 1.808675247955891E9 ; 2.727288533474778E10 ; 0.0
144 ; 1.2468679695666092E7 ; 2.0311431856819442E8 ; 1.821156491748577E9 ; 2.7475984107251373E10 ; 0.0
145 ; 1.2458050202645034E7 ; 2.0312983644741592E8 ; 1.8336251714442432E9 ; 2.767909842581957E10 ; 0.0
146 ; 1.2449113651770426E7 ; 2.0314532543032166E8 ; 1.8460832216468883E9 ; 2.7882228262266983E10 ; 0.0
147 ; 1.244422592759295E7 ; 2.0316078481628808E8 ; 1.8585323352986586E9 ; 2.8085373587697304E10 ; 0.0
148 ; 1.2431324582730884E7 ; 2.03176213914745E8 ; 1.8709765612262516E9 ; 2.828853437251359E10 ; 0.0
149 ; 1.2420233350449255E7 ; 2.0319161204492396E8 ; 1.8834078858089824E9 ; 2.8491710586428337E10 ; 0.0
150 ; 1.2413847545875926E7 ; 2.0320697853561467E8 ; 1.8958281191594317E9 ; 2.8694902198473263E10 ; 0.0
151 ; 1.240322280187789E7 ; 2.032223127249294E8 ; 1.9082419667053077E9 ; 2.8898109177008877E10 ; 0.0
152 ; 1.2394843939698586E7 ; 2.0323761396007508E8 ; 1.9206451895071857E9 ; 2.9101331489733807E10 ; 0.0
153 ; 1.2381471403251475E7 ; 2.032528815971329E8 ; 1.9330400334468844E9 ; 2.9304569103693882E10 ; 0.0
154 ; 1.2376046694172231E7 ; 2.0326811500084487E8 ; 1.9454215048501358E9 ; 2.9507821985291016E10 ; 0.0
155 ; 1.2367601120309606E7 ; 2.0328331354440746E8 ; 1.957797551544308E9 ; 2.971109010029186E10 ; 0.0
156 ; 1.2357961251352416E7 ; 2.0329847660927185E8 ; 1.9701651526646175E9 ; 2.9914373413836266E10 ; 0.0
157 ; 1.2347541039515203E7 ; 2.033136035849507E8 ; 1.9825231139159698E9 ; 3.0117671890445538E10 ; 0.0
158 ; 1.2340407706837766E7 ; 2.0332869386883086E8 ; 1.994870654955485E9 ; 3.0320985494030487E10 ; 0.0
159 ; 1.2328314880224489E7 ; 2.033437468659926E8 ; 2.0072110626623228E9 ; 3.052431418789932E10 ; 0.0
160 ; 1.231956093345426E7 ; 2.0335876198903412E8 ; 2.0195393775425472E9 ; 3.0727657934765312E10 ; 0.0
161 ; 1.2310334987177214E7 ; 2.0337373865790197E8 ; 2.0318589384760015E9 ; 3.0931016696754345E10 ; 0.0
162 ; 1.2300250444861894E7 ; 2.0338867629972675E8 ; 2.0441692734631786E9 ; 3.1134390435412247E10 ; 0.0
163 ; 1.2292030937653653E7 ; 2.0340357434866413E8 ; 2.0564695239080405E9 ; 3.1337779111711975E10 ; 0.0
164 ; 1.2280708516966581E7 ; 2.0341843224574083E8 ; 2.068761554845694E9 ; 3.154118268606064E10 ; 0.0
165 ; 1.2269061557176353E7 ; 2.034332494387056E8 ; 2.0810422633626606E9 ; 3.1744601118306377E10 ; 0.0
166 ; 1.2259218355180196E7 ; 2.0344802538188463E8 ; 2.093311324919837E9 ; 3.1948034367745083E10 ; 0.0
167 ; 1.225139612134854E7 ; 2.0346275953604198E8 ; 2.1055705432750173E9 ; 3.215148239312697E10 ; 0.0
168 ; 1.2241989120518476E7 ; 2.0347745136824387E8 ; 2.117821939396366E9 ; 3.235494515266301E10 ; 0.0
169 ; 1.2228661093027052E7 ; 2.0349210035172775E8 ; 2.1300639285168843E9 ; 3.2558422604031254E10 ; 0.0
170 ; 1.222114150012279E7 ; 2.0350670596577498E8 ; 2.1422925896099114E9 ; 3.276191470438298E10 ; 0.0
171 ; 1.221298712191567E7 ; 2.0352126769558787E8 ; 2.1545137311100345E9 ; 3.2965421410348755E10 ; 0.0
172 ; 1.2202176381693367E7 ; 2.035357850321703E8 ; 2.1667267182319503E9 ; 3.3168942678044342E10 ; 0.0
173 ; 1.218914407750846E7 ; 2.035502574722122E8 ; 2.1789288946136436E9 ; 3.337247846307651E10 ; 0.0
174 ; 1.2184238396083388E7 ; 2.035646845179776E8 ; 2.191118038691152E9 ; 3.3576028720548725E10 ; 0.0
175 ; 1.2179788226471437E7 ; 2.0357906567719603E8 ; 2.2033022770872355E9 ; 3.3779593405066704E10 ; 0.0
176 ; 1.2171779840932146E7 ; 2.0359340046295738E8 ; 2.215482065313707E9 ; 3.39831724707439E10 ; 0.0
177 ; 1.216609070259931E7 ; 2.0360768839361E8 ; 2.2276538451546392E9 ; 3.4186765871206856E10 ; 0.0
178 ; 1.2163695258417081E7 ; 2.036219289926618E8 ; 2.239819935857239E9 ; 3.4390373559600464E10 ; 0.0
179 ; 1.215191544653729E7 ; 2.0363612178868467E8 ; 2.251983631115656E9 ; 3.4593995488593124E10 ; 0.0
180 ; 1.214683232912089E7 ; 2.036502663152214E8 ; 2.2641355465621934E9 ; 3.4797631610381805E10 ; 0.0
181 ; 1.2140678326314118E7 ; 2.036643621106959E8 ; 2.2762823788913145E9 ; 3.500128187669703E10 ; 0.0
182 ; 1.2133612601833984E7 ; 2.036784087183258E8 ; 2.2884230572176285E9 ; 3.5204946238807724E10 ; 0.0
183 ; 1.213229418843896E7 ; 2.036924056860378E8 ; 2.3005566698194623E9 ; 3.540862464752605E10 ; 0.0
184 ; 1.212405277012958E7 ; 2.0370635256638584E8 ; 2.312688964007901E9 ; 3.561231705321208E10 ; 0.0
185 ; 1.2117823062914893E7 ; 2.037202489164713E8 ; 2.324813016778031E9 ; 3.5816023405778465E10 ; 0.0
186 ; 1.2111269756587097E7 ; 2.03734094297866E8 ; 2.3369308398409457E9 ; 3.601974365469494E10 ; 0.0
187 ; 1.2104967655186381E7 ; 2.037478882765372E8 ; 2.3490421095975327E9 ; 3.6223477748992805E10 ; 0.0
188 ; 1.209719342741144E7 ; 2.0376163042277527E8 ; 2.361147077252719E9 ; 3.642722563726934E10 ; 0.0
189 ; 1.2094310605804922E7 ; 2.0377532031112298E8 ; 2.3732442706801305E9 ; 3.6630987267692116E10 ; 0.0
190 ; 1.2083875573859038E7 ; 2.037889575203075E8 ; 2.3853385812859354E9 ; 3.683476258800324E10 ; 0.0
191 ; 1.2081484729604498E7 ; 2.038025416331739E8 ; 2.3974224568597946E9 ; 3.703855154552355E10 ; 0.0
192 ; 1.2072531506090151E7 ; 2.0381607223662105E8 ; 2.4095039415893993E9 ; 3.724235408715672E10 ; 0.0
193 ; 1.2066027756362936E7 ; 2.038295489215391E8 ; 2.4215764730954895E9 ; 3.744617015939334E10 ; 0.0
194 ; 1.20603357606644E7 ; 2.0384297128274912E8 ; 2.4336425008518524E9 ; 3.764999970831488E10 ; 0.0
195 ; 1.2053581152084323E7 ; 2.0385633891894424E8 ; 2.445702836612517E9 ; 3.7853842679597626E10 ; 0.0
