CSV File for the City 1 on Day 308
1 - Minute m 
2 - Power Consumed at minute m 
3 - Power Produced at minute m 
4 - Energy Consumed since the beginning of the day 
5 - Energy Produced since the beginning of the day 
6 - Energy Lost since the beginning of the day on lines starting from the city
 
0 ; 1.6250388209825052E7 ; 1.057995198191826E8 ; 0.0 ; 0.0 ; 0.0
1 ; 1.627008893387773E7 ; 1.0595236647536021E8 ; 1.6250388209825052E7 ; 1.057995198191826E8 ; 0.0
2 ; 1.629132921123073E7 ; 1.0641400709731749E8 ; 3.2520477143702783E7 ; 2.1175188629454282E8 ; 0.0
3 ; 1.6312835101203442E7 ; 1.0718444273675412E8 ; 4.8811806354933515E7 ; 3.181658933918603E8 ; 0.0
4 ; 1.633409522032797E7 ; 1.082636743307929E8 ; 6.512464145613696E7 ; 4.253503361286144E8 ; 0.0
5 ; 1.6363416487525607E7 ; 1.0965170269863915E8 ; 8.145873667646493E7 ; 5.336140104594073E8 ; 0.0
6 ; 1.6404810262796786E7 ; 1.113485285386258E8 ; 9.782215316399054E7 ; 6.432657131580465E8 ; 0.0
7 ; 1.6459213658939179E7 ; 1.1335415242566794E8 ; 1.1422696342678733E8 ; 7.546142416966723E8 ; 0.0
8 ; 1.653890043267293E7 ; 1.1566857480914932E8 ; 1.3068617708572651E8 ; 8.679683941223402E8 ; 0.0
9 ; 1.6654612985253898E7 ; 1.1829179601125932E8 ; 1.4722507751839945E8 ; 9.836369689314895E8 ; 0.0
10 ; 1.684024808838928E7 ; 1.2122381622579378E8 ; 1.6387969050365335E8 ; 1.1019287649427488E9 ; 0.0
11 ; 1.7127232653898817E7 ; 1.2446463551743218E8 ; 1.8071993859204262E8 ; 1.2231525811685426E9 ; 0.0
12 ; 1.75960885386852E7 ; 1.2801425382149503E8 ; 1.9784717124594143E8 ; 1.3476172166859748E9 ; 0.0
13 ; 1.8041114899661656E7 ; 1.3187267094418645E8 ; 2.1544325978462663E8 ; 1.47563147050747E9 ; 0.0
14 ; 1.8095215661084034E7 ; 1.3603988656331718E8 ; 2.334843746842883E8 ; 1.6075041414516563E9 ; 0.0
15 ; 1.8120264736361835E7 ; 1.4051590022950333E8 ; 2.5157959034537232E8 ; 1.7435440280149736E9 ; 0.0
16 ; 1.8140042774671778E7 ; 1.4530071136782995E8 ; 2.696998550817342E8 ; 1.884059928244477E9 ; 0.0
17 ; 1.8153854374904092E7 ; 1.50394319279964E8 ; 2.87839897856406E8 ; 2.029360639612307E9 ; 0.0
18 ; 1.8161701844282333E7 ; 1.557967231467002E8 ; 3.0599375223131007E8 ; 2.179754958892271E9 ; 0.0
19 ; 1.8162570056199264E7 ; 1.6150792203091577E8 ; 3.241554540755924E8 ; 2.3355516820389714E9 ; 0.0
20 ; 1.8162653632593896E7 ; 1.6752791488091096E8 ; 3.4231802413179165E8 ; 2.497059604069887E9 ; 0.0
21 ; 1.816576417476971E7 ; 1.7385670053410682E8 ; 3.604806777643855E8 ; 2.664587518950798E9 ; 0.0
22 ; 1.8166772003301945E7 ; 1.804942777210704E8 ; 3.786464419391552E8 ; 2.838444219484905E9 ; 0.0
23 ; 1.817341470878047E7 ; 1.8744064506983507E8 ; 3.9681321394245714E8 ; 3.018938497205975E9 ; 0.0
24 ; 1.817839690287203E7 ; 1.9469580111048275E8 ; 4.149866286512376E8 ; 3.2063791422758102E9 ; 0.0
25 ; 1.817815453486996E7 ; 2.009477851781373E8 ; 4.3316502555410963E8 ; 3.401074943386293E9 ; 0.0
26 ; 1.8177445703332633E7 ; 2.0095014345486194E8 ; 4.513431800889796E8 ; 3.60202272856443E9 ; 0.0
27 ; 1.8183557377982587E7 ; 2.009526434997212E8 ; 4.6952062579231226E8 ; 3.8029728720192924E9 ; 0.0
28 ; 1.8186333144928105E7 ; 2.0095528350083363E8 ; 4.877041831702949E8 ; 4.0039255155190134E9 ; 0.0
29 ; 1.818697874347084E7 ; 2.0095806157398474E8 ; 5.05890516315223E8 ; 4.204880799019847E9 ; 0.0
30 ; 1.8186434049877323E7 ; 2.009609757680484E8 ; 5.240774950586938E8 ; 4.405838860593832E9 ; 0.0
31 ; 1.8184809538376797E7 ; 2.009640240704299E8 ; 5.422639291085712E8 ; 4.60679983636188E9 ; 0.0
32 ; 1.819205949235906E7 ; 2.0096720441249973E8 ; 5.60448738646948E8 ; 4.80776386043231E9 ; 0.0
33 ; 1.8185750081506617E7 ; 2.0097051467498946E8 ; 5.78640798139307E8 ; 5.00873106484481E9 ; 0.0
34 ; 1.818922512216526E7 ; 2.0097395269332278E8 ; 5.968265482208136E8 ; 5.209701579519799E9 ; 0.0
35 ; 1.8190141748560987E7 ; 2.009775162628566E8 ; 6.150157733429788E8 ; 5.410675532213122E9 ; 0.0
36 ; 1.8188290193932034E7 ; 2.0098120314401034E8 ; 6.332059150915399E8 ; 5.611653048475979E9 ; 0.0
37 ; 1.818484453482852E7 ; 2.0098501106726253E8 ; 6.513942052854719E8 ; 5.812634251619989E9 ; 0.0
38 ; 1.8183848997143313E7 ; 2.0098893773799747E8 ; 6.695790498203005E8 ; 6.013619262687252E9 ; 0.0
39 ; 1.8177778117821403E7 ; 2.0099298084118596E8 ; 6.877628988174437E8 ; 6.214608200425249E9 ; 0.0
40 ; 1.8176262217266146E7 ; 2.0099713804588723E8 ; 7.059406769352652E8 ; 6.415601181266435E9 ; 0.0
41 ; 1.8175390411320627E7 ; 2.0100140700956085E8 ; 7.241169391525314E8 ; 6.616598319312322E9 ; 0.0
42 ; 1.8165227892082624E7 ; 2.010057853821803E8 ; 7.422923295638521E8 ; 6.817599726321882E9 ; 0.0
43 ; 1.8161983299460188E7 ; 2.0101027081014088E8 ; 7.604575574559346E8 ; 7.018605511704062E9 ; 0.0
44 ; 1.8153283122346498E7 ; 2.0101486093995762E8 ; 7.786195407553948E8 ; 7.219615782514203E9 ; 0.0
45 ; 1.8147224982107114E7 ; 2.010195534217503E8 ; 7.967728238777413E8 ; 7.420630643454161E9 ; 0.0
46 ; 1.8136123303611174E7 ; 2.0102434591251397E8 ; 8.149200488598485E8 ; 7.621650196875911E9 ; 0.0
47 ; 1.8127874723968342E7 ; 2.0102923607917553E8 ; 8.330561721634597E8 ; 7.8226745427884245E9 ; 0.0
48 ; 1.8119848104885817E7 ; 2.0103422160143784E8 ; 8.51184046887428E8 ; 8.0237037788676E9 ; 0.0
49 ; 1.8108165454998188E7 ; 2.0103930017441452E8 ; 8.693038949923139E8 ; 8.224738000469038E9 ; 0.0
50 ; 1.8097172616170548E7 ; 2.0104446951105905E8 ; 8.87412060447312E8 ; 8.425777300643453E9 ; 0.0
51 ; 1.8084988793742858E7 ; 2.0104972734439343E8 ; 9.055092330634825E8 ; 8.626821770154512E9 ; 0.0
52 ; 1.8074701888705235E7 ; 2.01055071429542E8 ; 9.235942218572254E8 ; 8.827871497498905E9 ; 0.0
53 ; 1.805708702959083E7 ; 2.0106049954557678E8 ; 9.416689237459307E8 ; 9.028926568928448E9 ; 0.0
54 ; 1.8047029461816333E7 ; 2.0106600949718148E8 ; 9.597260107755215E8 ; 9.229987068474024E9 ; 0.0
55 ; 1.8030819301061213E7 ; 2.0107159911614144E8 ; 9.777730402373378E8 ; 9.431053077971205E9 ; 0.0
56 ; 1.8024454511511747E7 ; 2.0107726626266742E8 ; 9.95803859538399E8 ; 9.632124677087347E9 ; 0.0
57 ; 1.800981314777294E7 ; 2.0108300882656112E8 ; 1.0138283140499108E9 ; 9.833201943350014E9 ; 0.0
58 ; 1.7993746473752305E7 ; 2.0108882472823057E8 ; 1.0318381271976837E9 ; 1.0034284952176575E10 ; 0.0
59 ; 1.7980682612580996E7 ; 2.010947119195638E8 ; 1.049831873671436E9 ; 1.0235373776904806E10 ; 0.0
60 ; 1.7965801090627786E7 ; 2.011006683846687E8 ; 1.067812556284017E9 ; 1.043646848882437E10 ; 0.0
61 ; 1.7954647491100945E7 ; 2.0110669214048773E8 ; 1.0857783573746448E9 ; 1.0637569157209038E10 ; 0.0
62 ; 1.793804088449794E7 ; 2.0111278123729482E8 ; 1.1037330048657458E9 ; 1.0838675849349525E10 ; 0.0
63 ; 1.7928770347323593E7 ; 2.0111893375908333E8 ; 1.1216710457502437E9 ; 1.103978863058682E10 ; 0.0
64 ; 1.791040037480196E7 ; 2.0112514782385162E8 ; 1.1395998160975673E9 ; 1.1240907564345903E10 ; 0.0
65 ; 1.789655031422583E7 ; 2.011314215837949E8 ; 1.1575102164723692E9 ; 1.1442032712169756E10 ; 0.0
66 ; 1.7885303543400083E7 ; 2.011377532254096E8 ; 1.175406766786595E9 ; 1.1643164133753551E10 ; 0.0
67 ; 1.7865385304368738E7 ; 2.0114414096951783E8 ; 1.1932920703299952E9 ; 1.1844301886978962E10 ; 0.0
68 ; 1.785339566004214E7 ; 2.0115058307121828E8 ; 1.211157455634364E9 ; 1.204544602794848E10 ; 0.0
69 ; 1.783691404891483E7 ; 2.0115707781977E8 ; 1.229010851294406E9 ; 1.22465966110197E10 ; 0.0
70 ; 1.7824404306194384E7 ; 2.0116362353841516E8 ; 1.2468477653433208E9 ; 1.244775368883947E10 ; 0.0
71 ; 1.7804969398463003E7 ; 2.0117021858414647E8 ; 1.2646721696495152E9 ; 1.2648917312377886E10 ; 0.0
72 ; 1.7792422919290476E7 ; 2.011768613474246E8 ; 1.2824771390479782E9 ; 1.2850087530962032E10 ; 0.0
73 ; 1.7776632640354045E7 ; 2.0118355025185096E8 ; 1.3002695619672687E9 ; 1.3051264392309458E10 ; 0.0
74 ; 1.776003230915761E7 ; 2.0119028375380027E8 ; 1.3180461946076229E9 ; 1.3252447942561308E10 ; 0.0
75 ; 1.7744335650103506E7 ; 2.011970603420178E8 ; 1.3358062269167805E9 ; 1.3453638226315107E10 ; 0.0
76 ; 1.7728260638500713E7 ; 2.012038785371853E8 ; 1.353550562566884E9 ; 1.3654835286657125E10 ; 0.0
77 ; 1.77154605058633E7 ; 2.0121073689145938E8 ; 1.3712788232053847E9 ; 1.3856039165194311E10 ; 0.0
78 ; 1.769079194367357E7 ; 2.0121763398798636E8 ; 1.388994283711248E9 ; 1.405724990208577E10 ; 0.0
79 ; 1.766936271807182E7 ; 2.0122456844039667E8 ; 1.4066850756549215E9 ; 1.4258467536073755E10 ; 0.0
80 ; 1.7643598321451366E7 ; 2.0123153889228213E8 ; 1.4243544383729935E9 ; 1.4459692104514153E10 ; 0.0
81 ; 1.762628524819971E7 ; 2.0123854401665887E8 ; 1.441998036694445E9 ; 1.4660923643406435E10 ; 0.0
82 ; 1.7606159053279497E7 ; 2.0124558251541853E8 ; 1.4596243219426446E9 ; 1.4862162187423094E10 ; 0.0
83 ; 1.758165123202012E7 ; 2.0125265311877027E8 ; 1.477230480995924E9 ; 1.5063407769938513E10 ; 0.0
84 ; 1.7556286782237686E7 ; 2.0125975458467594E8 ; 1.4948121322279441E9 ; 1.5264660423057283E10 ; 0.0
85 ; 1.753349761210484E7 ; 2.0126688569828E8 ; 1.512368419010182E9 ; 1.546592017764196E10 ; 0.0
86 ; 1.7515652734091632E7 ; 2.0127404527133685E8 ; 1.5299019166222868E9 ; 1.566718706334024E10 ; 0.0
87 ; 1.7490088369153135E7 ; 2.012812321416362E8 ; 1.5474175693563783E9 ; 1.5868461108611578E10 ; 0.0
88 ; 1.7465884158305865E7 ; 2.0128844517242905E8 ; 1.5649076577255313E9 ; 1.6069742340753214E10 ; 0.0
89 ; 1.744316943100791E7 ; 2.01295683251855E8 ; 1.5823735418838372E9 ; 1.6271030785925642E10 ; 0.0
90 ; 1.7419617138298124E7 ; 2.0130294529237223E8 ; 1.599816711314845E9 ; 1.6472326469177498E10 ; 0.0
91 ; 1.7401255703167394E7 ; 2.0131023023019165E8 ; 1.6172363284531431E9 ; 1.667362941446987E10 ; 0.0
92 ; 1.737554604853094E7 ; 2.013175370247155E8 ; 1.6346375841563106E9 ; 1.6874939644700062E10 ; 0.0
93 ; 1.7348204478166163E7 ; 2.013248646579822E8 ; 1.6520131302048416E9 ; 1.7076257181724777E10 ; 0.0
94 ; 1.732632885208557E7 ; 2.0133221213411716E8 ; 1.6693613346830077E9 ; 1.727758204638276E10 ; 0.0
95 ; 1.7299145348129574E7 ; 2.0133957847879118E8 ; 1.6866876635350933E9 ; 1.7478914258516876E10 ; 0.0
96 ; 1.7276411305229157E7 ; 2.0134696273868662E8 ; 1.7039868088832228E9 ; 1.7680253836995667E10 ; 0.0
97 ; 1.725025720448857E7 ; 2.0135436398097163E8 ; 1.721263220188452E9 ; 1.7881600799734352E10 ; 0.0
98 ; 1.7226772750766378E7 ; 2.0136178129278335E8 ; 1.7385134773929405E9 ; 1.8082955163715324E10 ; 0.0
99 ; 1.7204873821232613E7 ; 2.0136921378072003E8 ; 1.7557402501437068E9 ; 1.8284316945008106E10 ; 0.0
100 ; 1.7175963794964906E7 ; 2.013766605703428E8 ; 1.7729451239649394E9 ; 1.8485686158788826E10 ; 0.0
101 ; 1.7151375327388793E7 ; 2.0138412080568686E8 ; 1.7901210877599041E9 ; 1.868706281935917E10 ; 0.0
102 ; 1.7123949718783345E7 ; 2.0139159364878264E8 ; 1.807272463087293E9 ; 1.8888446940164856E10 ; 0.0
103 ; 1.7101029852087274E7 ; 2.0139907827918714E8 ; 1.8243964128060763E9 ; 1.9089838533813637E10 ; 0.0
104 ; 1.7075285877015762E7 ; 2.01406573893525E8 ; 1.8414974426581635E9 ; 1.9291237612092823E10 ; 0.0
105 ; 1.7050031117330205E7 ; 2.014140797050402E8 ; 1.8585727285351794E9 ; 1.9492644185986347E10 ; 0.0
106 ; 1.7023644693531092E7 ; 2.0142159494315776E8 ; 1.8756227596525097E9 ; 1.9694058265691387E10 ; 0.0
107 ; 1.69973754393999E7 ; 2.0142911885305575E8 ; 1.8926464043460407E9 ; 1.9895479860634544E10 ; 0.0
108 ; 1.697157873721615E7 ; 2.014366506952475E8 ; 1.9096437797854407E9 ; 2.00969089794876E10 ; 0.0
109 ; 1.6942593734148826E7 ; 2.0144418974517402E8 ; 1.926615358522657E9 ; 2.0298345630182846E10 ; 0.0
110 ; 1.691743800355289E7 ; 2.014517352928066E8 ; 1.9435579522568057E9 ; 2.049978981992802E10 ; 0.0
111 ; 1.6894132783496454E7 ; 2.0145928664225924E8 ; 1.9604753902603586E9 ; 2.0701241555220825E10 ; 0.0
112 ; 1.686785717006074E7 ; 2.0146684311141133E8 ; 1.977369523043855E9 ; 2.0902700841863083E10 ; 0.0
113 ; 1.6836369375651237E7 ; 2.0147440403153968E8 ; 1.9942373802139156E9 ; 2.1104167684974495E10 ; 0.0
114 ; 1.680991764201581E7 ; 2.0148196874696082E8 ; 2.0110737495895667E9 ; 2.1305642089006035E10 ; 0.0
115 ; 1.6785708469985783E7 ; 2.0148953661468217E8 ; 2.0278836672315824E9 ; 2.1507124057752995E10 ; 0.0
116 ; 1.6757911535730395E7 ; 2.0149710700406322E8 ; 2.0446693757015681E9 ; 2.1708613594367676E10 ; 0.0
117 ; 1.6730113320007656E7 ; 2.0150467929648542E8 ; 2.0614272872372985E9 ; 2.191011070137174E10 ; 0.0
118 ; 1.6705010941850152E7 ; 2.015122528850315E8 ; 2.078157400557306E9 ; 2.2111615380668224E10 ; 0.0
119 ; 1.6674619417244663E7 ; 2.0151982717417327E8 ; 2.0948624114991562E9 ; 2.2313127633553257E10 ; 0.0
120 ; 1.6644430385698045E7 ; 2.015274015794687E8 ; 2.111537030916401E9 ; 2.251464746072743E10 ; 0.0
121 ; 1.6616634165277459E7 ; 2.0153497552726686E8 ; 2.128181461302099E9 ; 2.2716174862306896E10 ; 0.0
122 ; 1.6590660096345223E7 ; 2.0154254845442167E8 ; 2.1447980954673765E9 ; 2.2917709837834164E10 ; 0.0
123 ; 1.656221665777636E7 ; 2.015501198080136E8 ; 2.1613887555637217E9 ; 2.3119252386288586E10 ; 0.0
124 ; 1.6534715696685625E7 ; 2.0155768904507926E8 ; 2.177950972221498E9 ; 2.33208025060966E10 ; 0.0
125 ; 1.6499504699553542E7 ; 2.0156525563234913E8 ; 2.194485687918184E9 ; 2.3522360195141678E10 ; 0.0
126 ; 1.648037611435779E7 ; 2.0157281904599226E8 ; 2.2109851926177373E9 ; 2.372392545077403E10 ; 0.0
127 ; 1.6441704979882527E7 ; 2.0158037877136898E8 ; 2.2274655687320952E9 ; 2.3925498269820023E10 ; 0.0
128 ; 1.6412179731351012E7 ; 2.0158793430279043E8 ; 2.243907273711978E9 ; 2.4127078648591393E10 ; 0.0
129 ; 1.6387486873942314E7 ; 2.0159548514328524E8 ; 2.260319453443329E9 ; 2.4328666582894184E10 ; 0.0
130 ; 1.6352443084942868E7 ; 2.0160303080437312E8 ; 2.276706940317271E9 ; 2.4530262068037468E10 ; 0.0
131 ; 1.6320044819578415E7 ; 2.0161057080584496E8 ; 2.293059383402214E9 ; 2.4731865098841843E10 ; 0.0
132 ; 1.6281500301905898E7 ; 2.016181046755495E8 ; 2.3093794282217927E9 ; 2.4933475669647686E10 ; 0.0
133 ; 1.6249518288132137E7 ; 2.0162563194918633E8 ; 2.325660928523699E9 ; 2.5135093774323235E10 ; 0.0
134 ; 1.6214310081278443E7 ; 2.016331521701049E8 ; 2.341910446811831E9 ; 2.5336719406272423E10 ; 0.0
135 ; 1.617560756361965E7 ; 2.0164066488910973E8 ; 2.3581247568931093E9 ; 2.5538352558442528E10 ; 0.0
136 ; 1.6140553609994287E7 ; 2.016481696642711E8 ; 2.374300364456729E9 ; 2.573999322333164E10 ; 0.0
137 ; 1.610706845167879E7 ; 2.0165566606074157E8 ; 2.3904409180667233E9 ; 2.594164139299591E10 ; 0.0
138 ; 1.6066763640519759E7 ; 2.0166315365057802E8 ; 2.406547986518402E9 ; 2.6143297059056652E10 ; 0.0
139 ; 1.6034971602504736E7 ; 2.0167063201256874E8 ; 2.4226147501589217E9 ; 2.634496021270723E10 ; 0.0
140 ; 1.5993862896380248E7 ; 2.01678100732066E8 ; 2.4386497217614264E9 ; 2.65466308447198E10 ; 0.0
141 ; 1.5958093836252697E7 ; 2.0168555940082338E8 ; 2.454643584657807E9 ; 2.6748308945451866E10 ; 0.0
142 ; 1.5916617515475797E7 ; 2.016930076168381E8 ; 2.4706016784940596E9 ; 2.6949994504852688E10 ; 0.0
143 ; 1.588661505286667E7 ; 2.017004449841979E8 ; 2.4865182960095353E9 ; 2.7151687512469524E10 ; 0.0
144 ; 1.584708385288021E7 ; 2.0170787111293286E8 ; 2.502404911062402E9 ; 2.7353387957453724E10 ; 0.0
145 ; 1.5818165465694042E7 ; 2.0171528561887112E8 ; 2.518251994915282E9 ; 2.7555095828566658E10 ; 0.0
146 ; 1.5787401593533661E7 ; 2.0172268812349942E8 ; 2.5340701603809757E9 ; 2.7756811114185528E10 ; 0.0
147 ; 1.5756438685424315E7 ; 2.0173007825382748E8 ; 2.5498575619745092E9 ; 2.795853380230903E10 ; 0.0
148 ; 1.572955222826086E7 ; 2.0173745564225662E8 ; 2.5656140006599336E9 ; 2.8160263880562855E10 ; 0.0
149 ; 1.5698090538276665E7 ; 2.0174481992645213E8 ; 2.5813435528881946E9 ; 2.8362001336205112E10 ; 0.0
150 ; 1.5665509231456913E7 ; 2.0175217074921978E8 ; 2.597041643426471E9 ; 2.8563746156131565E10 ; 0.0
151 ; 1.563875939150609E7 ; 2.017595077583855E8 ; 2.612707152657928E9 ; 2.8765498326880783E10 ; 0.0
152 ; 1.5608633646900196E7 ; 2.017668306066793E8 ; 2.628345912049434E9 ; 2.8967257834639168E10 ; 0.0
153 ; 1.557688272975381E7 ; 2.017741389516219E8 ; 2.6439545456963344E9 ; 2.9169024665245846E10 ; 0.0
154 ; 1.5546469204699684E7 ; 2.0178143245541555E8 ; 2.6595314284260883E9 ; 2.9370798804197468E10 ; 0.0
155 ; 1.551256300308916E7 ; 2.0178871078483745E8 ; 2.675077897630788E9 ; 2.957258023665288E10 ; 0.0
156 ; 1.548388089603239E7 ; 2.0179597361113662E8 ; 2.690590460633877E9 ; 2.9774368947437717E10 ; 0.0
157 ; 1.5452816664434616E7 ; 2.0180322060993382E8 ; 2.706074341529909E9 ; 2.9976164921048855E10 ; 0.0
158 ; 1.5422890363586603E7 ; 2.0181045146112448E8 ; 2.7215271581943436E9 ; 3.0177968141658787E10 ; 0.0
159 ; 1.5386992171933457E7 ; 2.0181766584878436E8 ; 2.73695004855793E9 ; 3.037977859311991E10 ; 0.0
160 ; 1.536059428209158E7 ; 2.0182486346107814E8 ; 2.7523370407298636E9 ; 3.0581596258968697E10 ; 0.0
161 ; 1.5330004646747623E7 ; 2.018320439901707E8 ; 2.7676976350119553E9 ; 3.0783421122429775E10 ; 0.0
162 ; 1.5302077126482183E7 ; 2.0183920713214087E8 ; 2.783027639658703E9 ; 3.0985253166419945E10 ; 0.0
163 ; 1.5265973167140855E7 ; 2.018463525868981E8 ; 2.798329716785185E9 ; 3.1187092373552086E10 ; 0.0
164 ; 1.5238112094058435E7 ; 2.01853480058101E8 ; 2.813595689952326E9 ; 3.1388938726138985E10 ; 0.0
165 ; 1.5206785257159041E7 ; 2.018605892530789E8 ; 2.8288338020463843E9 ; 3.1590792206197086E10 ; 0.0
166 ; 1.5172585921957104E7 ; 2.0186767988275528E8 ; 2.8440405873035436E9 ; 3.1792652795450165E10 ; 0.0
167 ; 1.5142772791132284E7 ; 2.0187475166157362E8 ; 2.8592131732255006E9 ; 3.199452047533292E10 ; 0.0
168 ; 1.5109613312677374E7 ; 2.0188180430742544E8 ; 2.874355946016633E9 ; 3.2196395226994495E10 ; 0.0
169 ; 1.5081775114119707E7 ; 2.018888375415803E8 ; 2.8894655593293104E9 ; 3.239827703130192E10 ; 0.0
170 ; 1.5045369270209737E7 ; 2.0189585108861807E8 ; 2.90454733444343E9 ; 3.2600165868843502E10 ; 0.0
171 ; 1.5014582860207187E7 ; 2.019E8 ; 2.9195927037136397E9 ; 3.280206171993212E10 ; 0.0
172 ; 1.4986726901222816E7 ; 2.019E8 ; 2.934607286573847E9 ; 3.300396171993212E10 ; 0.0
173 ; 1.4954279117141005E7 ; 2.019E8 ; 2.9495940134750695E9 ; 3.320586171993212E10 ; 0.0
174 ; 1.4929560717463285E7 ; 2.019E8 ; 2.9645482925922103E9 ; 3.340776171993212E10 ; 0.0
175 ; 1.4903867678866914E7 ; 2.019E8 ; 2.979477853309674E9 ; 3.360966171993212E10 ; 0.0
176 ; 1.487722389871016E7 ; 2.019E8 ; 2.9943817209885406E9 ; 3.381156171993212E10 ; 0.0
177 ; 1.4847329195139488E7 ; 2.019E8 ; 3.009258944887251E9 ; 3.401346171993212E10 ; 0.0
178 ; 1.4824920823608717E7 ; 2.019E8 ; 3.0241062740823903E9 ; 3.421536171993212E10 ; 0.0
179 ; 1.4793691094512958E7 ; 2.019E8 ; 3.038931194905999E9 ; 3.441726171993212E10 ; 0.0
180 ; 1.4771016267460203E7 ; 2.019E8 ; 3.053724886000512E9 ; 3.461916171993212E10 ; 0.0
181 ; 1.4742057633617908E7 ; 2.019E8 ; 3.0684959022679725E9 ; 3.482106171993212E10 ; 0.0
182 ; 1.4711258611252343E7 ; 2.019E8 ; 3.0832379599015903E9 ; 3.502296171993212E10 ; 0.0
183 ; 1.4682905644320041E7 ; 2.019E8 ; 3.0979492185128427E9 ; 3.522486171993212E10 ; 0.0
184 ; 1.4659892153641574E7 ; 2.019E8 ; 3.1126321241571627E9 ; 3.542676171993212E10 ; 0.0
185 ; 1.4634520392934503E7 ; 2.019E8 ; 3.1272920163108044E9 ; 3.562866171993212E10 ; 0.0
186 ; 1.460732104221318E7 ; 2.019E8 ; 3.1419265367037387E9 ; 3.583056171993212E10 ; 0.0
187 ; 1.4578342524216106E7 ; 2.019E8 ; 3.1565338577459517E9 ; 3.603246171993212E10 ; 0.0
188 ; 1.455346921236797E7 ; 2.019E8 ; 3.171112200270168E9 ; 3.623436171993212E10 ; 0.0
189 ; 1.4526325475284228E7 ; 2.019E8 ; 3.185665669482536E9 ; 3.643626171993212E10 ; 0.0
190 ; 1.4501636202255901E7 ; 2.019E8 ; 3.20019199495782E9 ; 3.663816171993212E10 ; 0.0
191 ; 1.447322207427695E7 ; 2.019E8 ; 3.2146936311600757E9 ; 3.684006171993212E10 ; 0.0
192 ; 1.4448284378742553E7 ; 2.019E8 ; 3.2291668532343526E9 ; 3.704196171993212E10 ; 0.0
193 ; 1.4416887566253023E7 ; 2.019E8 ; 3.2436151376130953E9 ; 3.724386171993212E10 ; 0.0
194 ; 1.4393002508065486E7 ; 2.019E8 ; 3.2580320251793485E9 ; 3.744576171993212E10 ; 0.0
195 ; 1.4369624649294142E7 ; 2.019E8 ; 3.272425027687414E9 ; 3.764766171993212E10 ; 0.0
196 ; 1.4337243728783885E7 ; 2.019E8 ; 3.2867946523367085E9 ; 3.784956171993212E10 ; 0.0
197 ; 1.431103445338252E7 ; 2.019E8 ; 3.3011318960654926E9 ; 3.805146171993212E10 ; 0.0
198 ; 1.4286213541851873E7 ; 2.019E8 ; 3.315442930518875E9 ; 3.825336171993212E10 ; 0.0
199 ; 1.425964176659533E7 ; 2.019E8 ; 3.329729144060727E9 ; 3.845526171993212E10 ; 0.0
