CSV File for the City 6 on Day 1
1 - Minute m 
2 - Power Consumed at minute m 
3 - Power Produced at minute m 
4 - Energy Consumed since the beginning of the day 
5 - Energy Produced since the beginning of the day 
6 - Energy Lost since the beginning of the day on lines starting from the city
 
0 ; 1.1133198119142147E7 ; 1.057083708733258E8 ; 0.0 ; 0.0 ; 0.0
1 ; 1.1147299109106898E7 ; 1.0585850225496942E8 ; 1.1133198119142147E7 ; 1.057083708733258E8 ; 0.0
2 ; 1.115573526947105E7 ; 1.0631768815683874E8 ; 2.2280497228249043E7 ; 2.115668731282952E8 ; 0.0
3 ; 1.1170459164141873E7 ; 1.0708593759554487E8 ; 3.3436232497720093E7 ; 3.1788456128513396E8 ; 0.0
4 ; 1.118656111845535E7 ; 1.0816325879398066E8 ; 4.460669166186196E7 ; 4.2497049888067883E8 ; 0.0
5 ; 1.1206615196283193E7 ; 1.0954965909024495E8 ; 5.5793252780317314E7 ; 5.331337576746595E8 ; 0.0
6 ; 1.12284345187345E7 ; 1.1124514485297123E8 ; 6.6999867976600505E7 ; 6.426834167649045E8 ; 0.0
7 ; 1.1269439680370707E7 ; 1.1324972140522194E8 ; 7.822830249533501E7 ; 7.539285616178757E8 ; 0.0
8 ; 1.13235216831761E7 ; 1.1556339295899189E8 ; 8.949774217570572E7 ; 8.671782830230976E8 ; 0.0
9 ; 1.1404512628936369E7 ; 1.1818616256215751E8 ; 1.0082126385888182E8 ; 9.827416759820895E8 ; 0.0
10 ; 1.1528849130745808E7 ; 1.2111803205940956E8 ; 1.1222577648781818E8 ; 1.1009278385442472E9 ; 0.0
11 ; 1.1723633302241737E7 ; 1.2435900206833038E8 ; 1.23754625618564E8 ; 1.2220458706036568E9 ; 0.0
12 ; 1.2042038827727351E7 ; 1.2790907197133759E8 ; 1.3547825892080572E8 ; 1.346404872671987E9 ; 0.0
13 ; 1.2346548061341561E7 ; 1.3176823992374045E8 ; 1.4752029774853307E8 ; 1.4743139446433246E9 ; 0.0
14 ; 1.238126645637504E7 ; 1.359365028776626E8 ; 1.5986684580987462E8 ; 1.606082184567065E9 ; 0.0
15 ; 1.239543380640804E7 ; 1.4041385662110913E8 ; 1.7224811226624966E8 ; 1.7420186874447277E9 ; 0.0
16 ; 1.2415303044486087E7 ; 1.452002958310177E8 ; 1.846435460726577E8 ; 1.882432544065837E9 ; 0.0
17 ; 1.2422674546513615E7 ; 1.5029581413875476E8 ; 1.9705884911714378E8 ; 2.0276328398968546E9 ; 0.0
18 ; 1.2440250971000353E7 ; 1.5570040420622146E8 ; 2.094815236636574E8 ; 2.1779286540356092E9 ; 0.0
19 ; 1.2455550335954346E7 ; 1.6141405781052497E8 ; 2.2192177463465774E8 ; 2.333629058241831E9 ; 0.0
20 ; 1.2466070213206999E7 ; 1.6743676593505415E8 ; 2.3437732497061208E8 ; 2.495043116052356E9 ; 0.0
21 ; 1.2483014357772708E7 ; 1.7376851886478028E8 ; 2.468433951838191E8 ; 2.66247988198741E9 ; 0.0
22 ; 1.2496806567514583E7 ; 1.804093062836628E8 ; 2.593264095415918E8 ; 2.8362484008521905E9 ; 0.0
23 ; 1.2510750230682284E7 ; 1.8735911737217754E8 ; 2.7182321610910636E8 ; 3.0166577071358533E9 ; 0.0
24 ; 1.2526467293983014E7 ; 1.946179409031766E8 ; 2.843339663397887E8 ; 3.204016824508031E9 ; 0.0
25 ; 1.2541880123462297E7 ; 2.008738062327091E8 ; 2.968604336337717E8 ; 3.3986347654112077E9 ; 0.0
26 ; 1.2552511329006126E7 ; 2.0088024942503342E8 ; 3.0940231375723404E8 ; 3.5995085716439166E9 ; 0.0
27 ; 1.2567697400743796E7 ; 2.0088702786009148E8 ; 3.219548250862402E8 ; 3.80038882106895E9 ; 0.0
28 ; 1.2580735099454397E7 ; 2.0089412955654338E8 ; 3.3452252248698395E8 ; 4.001275848929042E9 ; 0.0
29 ; 1.2596050089584166E7 ; 2.009015425344567E8 ; 3.4710325758643836E8 ; 4.202169978485585E9 ; 0.0
30 ; 1.2610606418780865E7 ; 2.0090925487765053E8 ; 3.596993076760225E8 ; 4.403071521020041E9 ; 0.0
31 ; 1.2621216815050824E7 ; 2.0091725478885803E8 ; 3.723099140948034E8 ; 4.603980775897692E9 ; 0.0
32 ; 1.2635599518322734E7 ; 2.009255306377971E8 ; 3.8493113090985423E8 ; 4.80489803068655E9 ; 0.0
33 ; 1.2647061740116537E7 ; 2.0093407100237626E8 ; 3.9756673042817694E8 ; 5.0058235613243475E9 ; 0.0
34 ; 1.2659187801894648E7 ; 2.0094286470337152E8 ; 4.102137921682935E8 ; 5.206757632326724E9 ; 0.0
35 ; 1.2672106580977729E7 ; 2.0095190083298865E8 ; 4.2287297997018814E8 ; 5.407700497030096E9 ; 0.0
36 ; 1.268390987108572E7 ; 2.009611687777794E8 ; 4.355450865511659E8 ; 5.608652397863085E9 ; 0.0
37 ; 1.269400617833454E7 ; 2.0097065823641166E8 ; 4.482289964222516E8 ; 5.809613566640864E9 ; 0.0
38 ; 1.2702445888966583E7 ; 2.0098035923280567E8 ; 4.609230026005861E8 ; 6.010584224877276E9 ; 0.0
39 ; 1.2714383860809473E7 ; 2.0099026212514713E8 ; 4.736254484895527E8 ; 6.211564584110082E9 ; 0.0
40 ; 1.2726751036493715E7 ; 2.010003576112727E8 ; 4.863398323503621E8 ; 6.412554846235229E9 ; 0.0
41 ; 1.2735213327778025E7 ; 2.0101063673090127E8 ; 4.9906658338685584E8 ; 6.613555203846501E9 ; 0.0
42 ; 1.2740817225859284E7 ; 2.0102109086515424E8 ; 5.118017967146339E8 ; 6.814565840577403E9 ; 0.0
43 ; 1.2751709221578522E7 ; 2.0103171173377582E8 ; 5.2454261394049317E8 ; 7.015586931442557E9 ; 0.0
44 ; 1.2759066782251932E7 ; 2.0104249139042744E8 ; 5.372943231620717E8 ; 7.216618643176333E9 ; 0.0
45 ; 1.2763650237651983E7 ; 2.010534222163952E8 ; 5.500533899443237E8 ; 7.417661134566761E9 ; 0.0
46 ; 1.2770668749215582E7 ; 2.0106449691301325E8 ; 5.628170401819756E8 ; 7.618714556783156E9 ; 0.0
47 ; 1.2779343123922417E7 ; 2.0107570849307033E8 ; 5.755877089311912E8 ; 7.81977905369617E9 ; 0.0
48 ; 1.2780577008209802E7 ; 2.0108705027143532E8 ; 5.883670520551137E8 ; 8.02085476218924E9 ; 0.0
49 ; 1.2789456489059879E7 ; 2.0109851585510567E8 ; 6.011476290633235E8 ; 8.221941812460676E9 ; 0.0
50 ; 1.2791321232326502E7 ; 2.0111009913285527E8 ; 6.139370855523834E8 ; 8.423040328315782E9 ; 0.0
51 ; 1.279237342281629E7 ; 2.0112179426463187E8 ; 6.267284067847099E8 ; 8.624150427448637E9 ; 0.0
52 ; 1.2798654412807837E7 ; 2.011335956708318E8 ; 6.395207802075262E8 ; 8.825272221713268E9 ; 0.0
53 ; 1.2803034256020658E7 ; 2.0114549802155852E8 ; 6.52319434620334E8 ; 9.0264058173841E9 ; 0.0
54 ; 1.2808426623322569E7 ; 2.0115749622595313E8 ; 6.651224688763547E8 ; 9.227551315405659E9 ; 0.0
55 ; 1.28099713551628E7 ; 2.0116958542166978E8 ; 6.779308954996773E8 ; 9.428708811631613E9 ; 0.0
56 ; 1.2812624433401506E7 ; 2.0118176096455377E8 ; 6.9074086685484E8 ; 9.629878397053282E9 ; 0.0
57 ; 1.2815568589701446E7 ; 2.0119401841856882E8 ; 7.035534912882415E8 ; 9.831060158017836E9 ; 0.0
58 ; 1.2817837587147113E7 ; 2.0120635354600903E8 ; 7.163690598779429E8 ; 1.0032254176436405E10 ; 0.0
59 ; 1.282116644963421E7 ; 2.0121876229802284E8 ; 7.2918689746509E8 ; 1.0233460529982414E10 ; 0.0
60 ; 1.2823846501483716E7 ; 2.012312408054673E8 ; 7.420080639147242E8 ; 1.0434679292280437E10 ; 0.0
61 ; 1.2828204738469416E7 ; 2.0124378537010676E8 ; 7.548319104162079E8 ; 1.0635910533085905E10 ; 0.0
62 ; 1.2828351857772615E7 ; 2.0125639245616218E8 ; 7.676601151546773E8 ; 1.0837154318456013E10 ; 0.0
63 ; 1.2834586279411385E7 ; 2.012690586822153E8 ; 7.804884670124499E8 ; 1.1038410710912174E10 ; 0.0
64 ; 1.2833817850886554E7 ; 2.0128178081346628E8 ; 7.933230532918613E8 ; 1.1239679769594389E10 ; 0.0
65 ; 1.2833205360043032E7 ; 2.012945557543418E8 ; 8.061568711427479E8 ; 1.1440961550407856E10 ; 0.0
66 ; 1.283858693840469E7 ; 2.0130738054144764E8 ; 8.189900765027909E8 ; 1.1642256106162197E10 ; 0.0
67 ; 1.2837833197987357E7 ; 2.0132025233685786E8 ; 8.318286634411956E8 ; 1.1843563486703644E10 ; 0.0
68 ; 1.283960863229046E7 ; 2.0133316842173153E8 ; 8.446664966391829E8 ; 1.2044883739040503E10 ; 0.0
69 ; 1.2846106026471986E7 ; 2.013461261902468E8 ; 8.575061052714734E8 ; 1.2246216907462234E10 ; 0.0
70 ; 1.2842522450252058E7 ; 2.0135912314384115E8 ; 8.703522112979454E8 ; 1.2447563033652481E10 ; 0.0
71 ; 1.2846811771692323E7 ; 2.013721568857463E8 ; 8.831947337481974E8 ; 1.2648922156796322E10 ; 0.0
72 ; 1.2846904582747411E7 ; 2.013852251158057E8 ; 8.960415455198897E8 ; 1.2850294313682068E10 ; 0.0
73 ; 1.284994073933238E7 ; 2.0139832562556297E8 ; 9.088884501026372E8 ; 1.3051679538797874E10 ; 0.0
74 ; 1.2850817976754049E7 ; 2.014114562936086E8 ; 9.217383908419696E8 ; 1.3253077864423437E10 ; 0.0
75 ; 1.2851079214347428E7 ; 2.0142461508117363E8 ; 9.345892088187237E8 ; 1.3454489320717045E10 ; 0.0
76 ; 1.2849254291546406E7 ; 2.014378000279577E8 ; 9.474402880330712E8 ; 1.3655913935798218E10 ; 0.0
77 ; 1.2854364569951095E7 ; 2.0145100924818087E8 ; 9.602895423246176E8 ; 1.3857351735826176E10 ; 0.0
78 ; 1.2848817937608775E7 ; 2.014642409268471E8 ; 9.731439068945687E8 ; 1.4058802745074356E10 ; 0.0
79 ; 1.284441129300563E7 ; 2.014774933162092E8 ; 9.859927248321774E8 ; 1.4260266986001204E10 ; 0.0
80 ; 1.2841469970681379E7 ; 2.0149076473242438E8 ; 9.98837136125183E8 ; 1.4461744479317413E10 ; 0.0
81 ; 1.2834727294252263E7 ; 2.015040535523905E8 ; 1.0116786060958644E9 ; 1.4663235244049837E10 ; 0.0
82 ; 1.2835232499560902E7 ; 2.0151735821075326E8 ; 1.0245133333901167E9 ; 1.4864739297602228E10 ; 0.0
83 ; 1.2829217270730147E7 ; 2.0153067719707522E8 ; 1.0373485658896776E9 ; 1.506625665581298E10 ; 0.0
84 ; 1.2828272181890845E7 ; 2.0154400905315766E8 ; 1.0501777831604078E9 ; 1.5267787333010056E10 ; 0.0
85 ; 1.281798620062711E7 ; 2.015573523705069E8 ; 1.0630060553422986E9 ; 1.5469331342063213E10 ; 0.0
86 ; 1.2819900398206536E7 ; 2.015707057879375E8 ; 1.0758240415429258E9 ; 1.567088869443372E10 ; 0.0
87 ; 1.2814097210373387E7 ; 2.0158406798930383E8 ; 1.0886439419411323E9 ; 1.5872459400221657E10 ; 0.0
88 ; 1.2812611423800316E7 ; 2.0159743770135406E8 ; 1.1014580391515057E9 ; 1.607404346821096E10 ; 0.0
89 ; 1.2807571704547977E7 ; 2.0161081369169855E8 ; 1.114270650575306E9 ; 1.6275640905912315E10 ; 0.0
90 ; 1.2799450831228163E7 ; 2.0162419476688707E8 ; 1.1270782222798538E9 ; 1.6477251719604013E10 ; 0.0
91 ; 1.2795673375116477E7 ; 2.0163757977058828E8 ; 1.139877673111082E9 ; 1.6678875914370901E10 ; 0.0
92 ; 1.279130584185518E7 ; 2.0165096758186582E8 ; 1.1526733464861987E9 ; 1.6880513494141489E10 ; 0.0
93 ; 1.2789443019531578E7 ; 2.016643571135457E8 ; 1.165464652328054E9 ; 1.7082164461723354E10 ; 0.0
94 ; 1.2780712262065515E7 ; 2.0167774731066963E8 ; 1.1782540953475854E9 ; 1.72838288188369E10 ; 0.0
95 ; 1.2774425528753325E7 ; 2.0169113714902964E8 ; 1.1910348076096509E9 ; 1.7485506566147568E10 ; 0.0
96 ; 1.2767444584787648E7 ; 2.0170452563377935E8 ; 1.2038092331384041E9 ; 1.7687197703296597E10 ; 0.0
97 ; 1.276529290792592E7 ; 2.017179117981174E8 ; 1.2165766777231917E9 ; 1.7888902228930374E10 ; 0.0
98 ; 1.2759495071715048E7 ; 2.017312947020394E8 ; 1.2293419706311176E9 ; 1.8090620140728493E10 ; 0.0
99 ; 1.2754696665637026E7 ; 2.0174467343115413E8 ; 1.2421014657028327E9 ; 1.829235143543053E10 ; 0.0
100 ; 1.2752299504025877E7 ; 2.017580470955608E8 ; 1.2548561623684697E9 ; 1.8494096108861683E10 ; 0.0
101 ; 1.274534145965718E7 ; 2.0177141482878342E8 ; 1.2676084618724957E9 ; 1.8695854155957245E10 ; 0.0
102 ; 1.2739167488796288E7 ; 2.0178477578675985E8 ; 1.2803538033321528E9 ; 1.889762557078603E10 ; 0.0
103 ; 1.2728689079234125E7 ; 2.017981291468817E8 ; 1.293092970820949E9 ; 1.909941034657279E10 ; 0.0
104 ; 1.2724282966482019E7 ; 2.0181147410708293E8 ; 1.3058216599001832E9 ; 1.930120847571967E10 ; 0.0
105 ; 1.2718636933858188E7 ; 2.0182480988497406E8 ; 1.3185459428666651E9 ; 1.950301994982675E10 ; 0.0
106 ; 1.2713933993712526E7 ; 2.0183813571701968E8 ; 1.3312645798005233E9 ; 1.9704844759711727E10 ; 0.0
107 ; 1.2707404430890229E7 ; 2.018514508577567E8 ; 1.3439785137942357E9 ; 1.9906682895428745E10 ; 0.0
108 ; 1.2698788108131336E7 ; 2.018647545790514E8 ; 1.356685918225126E9 ; 2.0108534346286503E10 ; 0.0
109 ; 1.2692359365351584E7 ; 2.01878046169393E8 ; 1.3693847063332574E9 ; 2.0310399100865555E10 ; 0.0
110 ; 1.268163812964838E7 ; 2.0189132493322158E8 ; 1.382077065698609E9 ; 2.0512277147034946E10 ; 0.0
111 ; 1.2679956602179777E7 ; 2.0190459019028905E8 ; 1.3947587038282576E9 ; 2.0714168471968166E10 ; 0.0
112 ; 1.2668746169130856E7 ; 2.019178412750507E8 ; 1.4074386604304373E9 ; 2.0916073062158455E10 ; 0.0
113 ; 1.2664815464788223E7 ; 2.019310775360864E8 ; 1.4201074065995681E9 ; 2.1117990903433506E10 ; 0.0
114 ; 1.2656705799729854E7 ; 2.0194429833554924E8 ; 1.4327722220643563E9 ; 2.1319921980969593E10 ; 0.0
115 ; 1.2652150892542323E7 ; 2.0195750304864058E8 ; 1.4454289278640862E9 ; 2.152186627930514E10 ; 0.0
116 ; 1.2639839779233992E7 ; 2.0197069106310996E8 ; 1.4580810787566285E9 ; 2.1723823782353783E10 ; 0.0
117 ; 1.2631218321213264E7 ; 2.0198386177877867E8 ; 1.4707209185358624E9 ; 2.1925794473416893E10 ; 0.0
118 ; 1.262344268055839E7 ; 2.0199701460708553E8 ; 1.4833521368570757E9 ; 2.212777833519567E10 ; 0.0
119 ; 1.2620730557743689E7 ; 2.020101489706538E8 ; 1.4959755795376341E9 ; 2.2329775349802757E10 ; 0.0
120 ; 1.2609930187977482E7 ; 2.020232643028785E8 ; 1.508596310095378E9 ; 2.253178549877341E10 ; 0.0
121 ; 1.2598954554487882E7 ; 2.020363600475325E8 ; 1.5212062402833555E9 ; 2.273380876307629E10 ; 0.0
122 ; 1.2592635342599235E7 ; 2.0204943565839067E8 ; 1.5338051948378434E9 ; 2.293584512312382E10 ; 0.0
123 ; 1.2586603778057102E7 ; 2.0206249059887147E8 ; 1.5463978301804426E9 ; 2.313789455878221E10 ; 0.0
124 ; 1.2573503473961486E7 ; 2.020755243416945E8 ; 1.5589844339584997E9 ; 2.3339957049381084E10 ; 0.0
125 ; 1.256611185842868E7 ; 2.0208853636855382E8 ; 1.5715579374324613E9 ; 2.354203257372278E10 ; 0.0
126 ; 1.2558020027167227E7 ; 2.0210152616980562E8 ; 1.58412404929089E9 ; 2.374412111009133E10 ; 0.0
127 ; 1.2546618887740226E7 ; 2.0211449324417025E8 ; 1.5966820693180573E9 ; 2.394622263626114E10 ; 0.0
128 ; 1.2538189707232011E7 ; 2.021274370984472E8 ; 1.6092286882057974E9 ; 2.414833712950531E10 ; 0.0
129 ; 1.2529145326476492E7 ; 2.0214035724724275E8 ; 1.6217668779130294E9 ; 2.4350464566603756E10 ; 0.0
130 ; 1.25158346648623E7 ; 2.0215325321270975E8 ; 1.634296023239506E9 ; 2.4552604923850998E10 ; 0.0
131 ; 1.2502220676937833E7 ; 2.021661245242987E8 ; 1.6468118579043684E9 ; 2.475475817706371E10 ; 0.0
132 ; 1.2487683174534325E7 ; 2.0217897071851963E8 ; 1.6593140785813062E9 ; 2.495692430158801E10 ; 0.0
133 ; 1.2479634556697832E7 ; 2.0219179133871436E8 ; 1.6718017617558405E9 ; 2.515910327230653E10 ; 0.0
134 ; 1.2466269746689014E7 ; 2.0220458593483868E8 ; 1.6842813963125384E9 ; 2.5361295063645245E10 ; 0.0
135 ; 1.2450185490482667E7 ; 2.022173540632537E8 ; 1.6967476660592275E9 ; 2.5563499649580082E10 ; 0.0
136 ; 1.243772938860832E7 ; 2.022300952865262E8 ; 1.70919785154971E9 ; 2.5765717003643337E10 ; 0.0
137 ; 1.2419358154733077E7 ; 2.0224280917323756E8 ; 1.7216355809383183E9 ; 2.5967947098929863E10 ; 0.0
138 ; 1.2410204103876926E7 ; 2.0225549529780054E8 ; 1.7340549390930514E9 ; 2.61701899081031E10 ; 0.0
139 ; 1.2392721422243187E7 ; 2.02268153240284E8 ; 1.7464651431969283E9 ; 2.63724454034009E10 ; 0.0
140 ; 1.2378784120985167E7 ; 2.0228078258624494E8 ; 1.7588578646191714E9 ; 2.6574713556641186E10 ; 0.0
141 ; 1.2366583027003046E7 ; 2.0229338292656726E8 ; 1.7712366487401567E9 ; 2.6776994339227432E10 ; 0.0
142 ; 1.2350321497685984E7 ; 2.0230595385730773E8 ; 1.7836032317671597E9 ; 2.6979287722154E10 ; 0.0
143 ; 1.233937413307337E7 ; 2.0231849497954774E8 ; 1.7959535532648456E9 ; 2.7181593676011307E10 ; 0.0
144 ; 1.232504712351729E7 ; 2.0233100589925164E8 ; 1.808292927397919E9 ; 2.7383912170990856E10 ; 0.0
145 ; 1.2311058156125313E7 ; 2.0234348622713053E8 ; 1.8206179745214362E9 ; 2.7586243176890106E10 ; 0.0
146 ; 1.2301230740961539E7 ; 2.0235593557851183E8 ; 1.8329290326775615E9 ; 2.7788586663117237E10 ; 0.0
147 ; 1.229333631684811E7 ; 2.02368353573214E8 ; 1.845230263418523E9 ; 2.7990942598695747E10 ; 0.0
148 ; 1.2280618025538037E7 ; 2.023807398354263E8 ; 1.857523599735371E9 ; 2.8193310952268963E10 ; 0.0
149 ; 1.227199493788395E7 ; 2.023930939935937E8 ; 1.869804217760909E9 ; 2.839569169210439E10 ; 0.0
150 ; 1.2261796965823406E7 ; 2.0240541568030578E8 ; 1.882076212698793E9 ; 2.8598084786097984E10 ; 0.0
151 ; 1.2252415669630338E7 ; 2.024177045321908E8 ; 1.8943380096646163E9 ; 2.880049020177829E10 ; 0.0
152 ; 1.2239861603942022E7 ; 2.0242996018981335E8 ; 1.9065904253342466E9 ; 2.9002907906310482E10 ; 0.0
153 ; 1.2229523376367472E7 ; 2.024421822975764E8 ; 1.9188302869381886E9 ; 2.9205337866500294E10 ; 0.0
154 ; 1.2220934817244105E7 ; 2.0245437050362712E8 ; 1.9310598103145561E9 ; 2.940778004879787E10 ; 0.0
155 ; 1.2209800276019784E7 ; 2.0246652445976633E8 ; 1.9432807451318002E9 ; 2.96102344193015E10 ; 0.0
156 ; 1.2197191009018669E7 ; 2.0247864382136166E8 ; 1.95549054540782E9 ; 2.9812700943761265E10 ; 0.0
157 ; 1.2187469702893846E7 ; 2.024907282472638E8 ; 1.9676877364168386E9 ; 3.0015179587582626E10 ; 0.0
158 ; 1.2178418076630173E7 ; 2.0250277739972624E8 ; 1.9798752061197324E9 ; 3.021767031582989E10 ; 0.0
159 ; 1.2164123575489633E7 ; 2.0251479094432816E8 ; 1.9920536241963625E9 ; 3.0420173093229618E10 ; 0.0
160 ; 1.2156272741159288E7 ; 2.0252676854989994E8 ; 2.004217747771852E9 ; 3.0622687884173946E10 ; 0.0
161 ; 1.21439115749955E7 ; 2.0253870988845196E8 ; 2.0163740205130112E9 ; 3.0825214652723846E10 ; 0.0
162 ; 1.2131398241013724E7 ; 2.0255061463510573E8 ; 2.0285179320880067E9 ; 3.1027753362612297E10 ; 0.0
163 ; 1.2121577077663064E7 ; 2.0256248246802798E8 ; 2.0406493303290205E9 ; 3.1230303977247402E10 ; 0.0
164 ; 1.2111308355634874E7 ; 2.0257431306836697E8 ; 2.0527709074066834E9 ; 3.143286645971543E10 ; 0.0
165 ; 1.2100211673407992E7 ; 2.0258610612019143E8 ; 2.0648822157623184E9 ; 3.16354407727838E10 ; 0.0
166 ; 1.2091725909303855E7 ; 2.0259786131043163E8 ; 2.0769824274357264E9 ; 3.1838026878903988E10 ; 0.0
167 ; 1.2074639670957826E7 ; 2.026095783288228E8 ; 2.0890741533450303E9 ; 3.204062474021442E10 ; 0.0
168 ; 1.2067339077644756E7 ; 2.026212568678505E8 ; 2.101148793015988E9 ; 3.2243234318543243E10 ; 0.0
169 ; 1.2057975130495053E7 ; 2.0263289662269834E8 ; 2.113216132093633E9 ; 3.2445855575411095E10 ; 0.0
170 ; 1.2043959540307263E7 ; 2.0264449729119718E8 ; 2.125274107224128E9 ; 3.2648488472033794E10 ; 0.0
171 ; 1.2032594363381343E7 ; 2.026560585737767E8 ; 2.1373180667644353E9 ; 3.2851132969324993E10 ; 0.0
172 ; 1.2021733480302459E7 ; 2.0266758017341837E8 ; 2.1493506611278167E9 ; 3.305378902789877E10 ; 0.0
173 ; 1.2014547841503603E7 ; 2.0267906179561058E8 ; 2.161372394608119E9 ; 3.325645660807219E10 ; 0.0
174 ; 1.200488406721153E7 ; 2.0269050314830482E8 ; 2.1733869424496226E9 ; 3.34591356698678E10 ; 0.0
175 ; 1.1999682487222496E7 ; 2.0270190394187412E8 ; 2.1853918265168343E9 ; 3.3661826173016106E10 ; 0.0
176 ; 1.198948130325291E7 ; 2.027132638890726E8 ; 2.197391509004057E9 ; 3.386452807695798E10 ; 0.0
177 ; 1.1981971522168525E7 ; 2.027245827049966E8 ; 2.2093809903073096E9 ; 3.4067241340847054E10 ; 0.0
178 ; 1.1978398401490193E7 ; 2.027358601070472E8 ; 2.2213629618294783E9 ; 3.426996592355205E10 ; 0.0
179 ; 1.196860155087681E7 ; 2.0274709581489432E8 ; 2.2333413602309685E9 ; 3.4472701783659096E10 ; 0.0
180 ; 1.1962677622477122E7 ; 2.027582895504417E8 ; 2.245309961781845E9 ; 3.467544887947399E10 ; 0.0
181 ; 1.195559747157042E7 ; 2.0276944103779367E8 ; 2.257272639404322E9 ; 3.487820716902443E10 ; 0.0
182 ; 1.1948269389500344E7 ; 2.0278055000322253E8 ; 2.2692282368758926E9 ; 3.5080976610062225E10 ; 0.0
183 ; 1.1942890522560718E7 ; 2.0279161617513776E8 ; 2.281176506265393E9 ; 3.5283757160065445E10 ; 0.0
184 ; 1.1935708376237446E7 ; 2.0280263928405577E8 ; 2.2931193967879534E9 ; 3.5486548776240585E10 ; 0.0
185 ; 1.1927907399245566E7 ; 2.0281361906257102E8 ; 2.305055105164191E9 ; 3.568935141552464E10 ; 0.0
186 ; 1.1923381718439175E7 ; 2.0282455524532825E8 ; 2.3169830125634365E9 ; 3.589216503458721E10 ; 0.0
187 ; 1.191521090467845E7 ; 2.0283544756899545E8 ; 2.3289063942818756E9 ; 3.609498958983254E10 ; 0.0
188 ; 1.1909289099604733E7 ; 2.0284629577223796E8 ; 2.340821605186554E9 ; 3.6297825037401535E10 ; 0.0
189 ; 1.1900214685026169E7 ; 2.028570995956936E8 ; 2.3527308942861586E9 ; 3.6500671333173775E10 ; 0.0
190 ; 1.1893995809772799E7 ; 2.0286785878194833E8 ; 2.3646311089711847E9 ; 3.670352843276947E10 ; 0.0
191 ; 1.1888941555750845E7 ; 2.028785730755133E8 ; 2.3765251047809577E9 ; 3.690639629155142E10 ; 0.0
192 ; 1.1880529359196257E7 ; 2.0288924222280216E8 ; 2.3884140463367085E9 ; 3.710927486462694E10 ; 0.0
193 ; 1.1871188414412437E7 ; 2.0289986597210962E8 ; 2.4002945756959047E9 ; 3.731216410684974E10 ; 0.0
194 ; 1.1862816856498417E7 ; 2.0291044407359055E8 ; 2.412165764110317E9 ; 3.7515063972821846E10 ; 0.0
195 ; 1.1860456451307189E7 ; 2.0292097627923983E8 ; 2.4240285809668155E9 ; 3.771797441689544E10 ; 0.0
