CSV File for the City 2 on Day 12
1 - Minute m 
2 - Power Consumed at minute m 
3 - Power Produced at minute m 
4 - Energy Consumed since the beginning of the day 
5 - Energy Produced since the beginning of the day 
6 - Energy Lost since the beginning of the day on lines starting from the city
 
0 ; 1.0289090173185645E7 ; 1.2227346262717383E7 ; 0.0 ; 0.0 ; 0.0
1 ; 1.0299961785878453E7 ; 1.2227346262717383E7 ; 1.0289090173185645E7 ; 1.2227346262717383E7 ; 0.0
2 ; 1.0307270882473385E7 ; 1.2227346262717383E7 ; 2.0589051959064096E7 ; 2.4454692525434766E7 ; 0.0
3 ; 1.0320506426232979E7 ; 1.2227346262717383E7 ; 3.0896322841537483E7 ; 3.668203878815215E7 ; 0.0
4 ; 1.0336759395488398E7 ; 1.2227346262717383E7 ; 4.121682926777046E7 ; 4.890938505086953E7 ; 0.0
5 ; 1.0353651662070451E7 ; 1.2227346262717383E7 ; 5.155358866325886E7 ; 6.113673131358691E7 ; 0.0
6 ; 1.0379255403693419E7 ; 1.2227346262717383E7 ; 6.190724032532931E7 ; 7.33640775763043E7 ; 0.0
7 ; 1.0414786745158074E7 ; 1.2227346262717383E7 ; 7.228649572902273E7 ; 8.559142383902168E7 ; 0.0
8 ; 1.0464461405179376E7 ; 1.2227346262717383E7 ; 8.27012824741808E7 ; 9.781877010173906E7 ; 0.0
9 ; 1.0541073338912103E7 ; 1.2227346262717383E7 ; 9.316574387936018E7 ; 1.1004611636445644E8 ; 0.0
10 ; 1.0658966409157027E7 ; 1.2227346262717383E7 ; 1.0370681721827228E8 ; 1.2227346262717383E8 ; 0.0
11 ; 1.0847147032488165E7 ; 1.2227346262717383E7 ; 1.143657836274293E8 ; 1.345008088898912E8 ; 0.0
12 ; 1.1142207159307599E7 ; 1.2227346262717383E7 ; 1.2521293065991747E8 ; 1.467281551526086E8 ; 0.0
13 ; 1.1433712672282202E7 ; 1.2227346262717383E7 ; 1.3635513781922507E8 ; 1.58955501415326E8 ; 0.0
14 ; 1.1471214982480984E7 ; 1.2227346262717383E7 ; 1.4778885049150726E8 ; 1.711828476780434E8 ; 0.0
15 ; 1.1483146645965096E7 ; 1.2227346262717383E7 ; 1.5926006547398823E8 ; 1.834101939407608E8 ; 0.0
16 ; 1.1498452230660386E7 ; 1.2227346262717383E7 ; 1.7074321211995333E8 ; 1.956375402034782E8 ; 0.0
17 ; 1.1507978699185422E7 ; 1.2227346262717383E7 ; 1.822416643506137E8 ; 2.0786488646619558E8 ; 0.0
18 ; 1.1522651057353336E7 ; 1.2227346262717383E7 ; 1.9374964304979914E8 ; 2.2009223272891298E8 ; 0.0
19 ; 1.1532820864050232E7 ; 1.2227346262717383E7 ; 2.052722941071525E8 ; 2.3231957899163038E8 ; 0.0
20 ; 1.1549585782661747E7 ; 1.2227346262717383E7 ; 2.1680511497120273E8 ; 2.4454692525434777E8 ; 0.0
21 ; 1.1562149331705054E7 ; 1.2227346262717383E7 ; 2.2835470075386447E8 ; 2.5677427151706517E8 ; 0.0
22 ; 1.1577062951801619E7 ; 1.2227346262717383E7 ; 2.3991685008556953E8 ; 2.6900161777978253E8 ; 0.0
23 ; 1.1589232378521347E7 ; 1.2227346262717383E7 ; 2.5149391303737116E8 ; 2.812289640424999E8 ; 0.0
24 ; 1.1603023679157814E7 ; 1.2227346262717383E7 ; 2.630831454158925E8 ; 2.9345631030521727E8 ; 0.0
25 ; 1.16186732309793E7 ; 1.2227346262717383E7 ; 2.7468616909505033E8 ; 3.0568365656793463E8 ; 0.0
26 ; 1.1626574050309625E7 ; 1.2227346262717383E7 ; 2.8630484232602966E8 ; 3.17911002830652E8 ; 0.0
27 ; 1.164107301190299E7 ; 1.2227346262717383E7 ; 2.9793141637633926E8 ; 3.3013834909336936E8 ; 0.0
28 ; 1.1656947490777804E7 ; 1.2227346262717383E7 ; 3.0957248938824224E8 ; 3.4236569535608673E8 ; 0.0
29 ; 1.1665759140943682E7 ; 1.2227346262717383E7 ; 3.2122943687902004E8 ; 3.545930416188041E8 ; 0.0
30 ; 1.1679443522549674E7 ; 1.2227346262717383E7 ; 3.3289519601996374E8 ; 3.6682038788152146E8 ; 0.0
31 ; 1.1693463416871719E7 ; 1.2227346262717383E7 ; 3.4457463954251343E8 ; 3.790477341442388E8 ; 0.0
32 ; 1.1703883353539769E7 ; 1.2227346262717383E7 ; 3.5626810295938516E8 ; 3.912750804069562E8 ; 0.0
33 ; 1.1716600445724739E7 ; 1.2227346262717383E7 ; 3.679719863129249E8 ; 4.0350242666967356E8 ; 0.0
34 ; 1.1726919295292262E7 ; 1.2227346262717383E7 ; 3.7968858675864965E8 ; 4.157297729323909E8 ; 0.0
35 ; 1.1733369223041838E7 ; 1.2227346262717383E7 ; 3.914155060539419E8 ; 4.279571191951083E8 ; 0.0
36 ; 1.1747566135642752E7 ; 1.2227346262717383E7 ; 4.0314887527698374E8 ; 4.4018446545782566E8 ; 0.0
37 ; 1.1756938640838424E7 ; 1.2227346262717383E7 ; 4.148964414126265E8 ; 4.52411811720543E8 ; 0.0
38 ; 1.1766849874877151E7 ; 1.2227346262717383E7 ; 4.2665338005346495E8 ; 4.646391579832604E8 ; 0.0
39 ; 1.1776248035286449E7 ; 1.2227346262717383E7 ; 4.384202299283421E8 ; 4.7686650424597776E8 ; 0.0
40 ; 1.1783559317952137E7 ; 1.2227346262717383E7 ; 4.5019647796362853E8 ; 4.890938505086951E8 ; 0.0
41 ; 1.1794646638860349E7 ; 1.2227346262717383E7 ; 4.619800372815807E8 ; 5.013211967714125E8 ; 0.0
42 ; 1.1802986501600785E7 ; 1.2227346262717383E7 ; 4.7377468392044103E8 ; 5.1354854303412986E8 ; 0.0
43 ; 1.180777392079533E7 ; 1.2227346262717383E7 ; 4.8557767042204183E8 ; 5.257758892968472E8 ; 0.0
44 ; 1.1816341986464696E7 ; 1.2227346262717383E7 ; 4.9738544434283715E8 ; 5.380032355595646E8 ; 0.0
45 ; 1.1822371186886594E7 ; 1.2227346262717383E7 ; 5.0920178632930183E8 ; 5.50230581822282E8 ; 0.0
46 ; 1.1827540843516633E7 ; 1.2227346262717383E7 ; 5.2102415751618844E8 ; 5.624579280849993E8 ; 0.0
47 ; 1.1837176188774915E7 ; 1.2227346262717383E7 ; 5.328516983597051E8 ; 5.746852743477167E8 ; 0.0
48 ; 1.1839476189970735E7 ; 1.2227346262717383E7 ; 5.4468887454848E8 ; 5.86912620610434E8 ; 0.0
49 ; 1.1842738878471766E7 ; 1.2227346262717383E7 ; 5.565283507384508E8 ; 5.991399668731514E8 ; 0.0
50 ; 1.1845820698670719E7 ; 1.2227346262717383E7 ; 5.683710896169225E8 ; 6.113673131358688E8 ; 0.0
51 ; 1.184841884526982E7 ; 1.2227346262717383E7 ; 5.802169103155932E8 ; 6.235946593985862E8 ; 0.0
52 ; 1.185215119790865E7 ; 1.2227346262717383E7 ; 5.92065329160863E8 ; 6.358220056613035E8 ; 0.0
53 ; 1.1854574456519393E7 ; 1.2227346262717383E7 ; 6.039174803587717E8 ; 6.480493519240209E8 ; 0.0
54 ; 1.1858692745961249E7 ; 1.2227346262717383E7 ; 6.15772054815291E8 ; 6.602766981867383E8 ; 0.0
55 ; 1.186181691500264E7 ; 1.2227346262717383E7 ; 6.276307475612524E8 ; 6.725040444494556E8 ; 0.0
56 ; 1.186506396370616E7 ; 1.2227346262717383E7 ; 6.394925644762549E8 ; 6.84731390712173E8 ; 0.0
57 ; 1.1863669959225591E7 ; 1.2227346262717383E7 ; 6.513576284399611E8 ; 6.969587369748904E8 ; 0.0
58 ; 1.1869528917513277E7 ; 1.2227346262717383E7 ; 6.632212983991866E8 ; 7.091860832376077E8 ; 0.0
59 ; 1.1874186767264701E7 ; 1.2227346262717383E7 ; 6.750908273166999E8 ; 7.214134295003251E8 ; 0.0
60 ; 1.1873173561044049E7 ; 1.2227346262717383E7 ; 6.869650140839646E8 ; 7.336407757630424E8 ; 0.0
61 ; 1.1875442512673855E7 ; 1.2227346262717383E7 ; 6.988381876450087E8 ; 7.458681220257598E8 ; 0.0
62 ; 1.187794688219311E7 ; 1.2227346262717383E7 ; 7.107136301576825E8 ; 7.580954682884772E8 ; 0.0
63 ; 1.1882700564760603E7 ; 1.2227346262717383E7 ; 7.225915770398756E8 ; 7.703228145511945E8 ; 0.0
64 ; 1.1881896323991837E7 ; 1.2227346262717383E7 ; 7.344742776046362E8 ; 7.825501608139119E8 ; 0.0
65 ; 1.1879977254138112E7 ; 1.2227346262717383E7 ; 7.463561739286281E8 ; 7.947775070766293E8 ; 0.0
66 ; 1.1885631537998803E7 ; 1.2227346262717383E7 ; 7.582361511827662E8 ; 8.070048533393466E8 ; 0.0
67 ; 1.1889768211731752E7 ; 1.2227346262717383E7 ; 7.70121782720765E8 ; 8.19232199602064E8 ; 0.0
68 ; 1.1886357773040699E7 ; 1.2227346262717383E7 ; 7.820115509324968E8 ; 8.314595458647814E8 ; 0.0
69 ; 1.1891219562337996E7 ; 1.2227346262717383E7 ; 7.938979087055374E8 ; 8.436868921274987E8 ; 0.0
70 ; 1.1888401514776317E7 ; 1.2227346262717383E7 ; 8.057891282678754E8 ; 8.559142383902161E8 ; 0.0
71 ; 1.189142794491399E7 ; 1.2227346262717383E7 ; 8.176775297826518E8 ; 8.681415846529335E8 ; 0.0
72 ; 1.1892470083094604E7 ; 1.2227346262717383E7 ; 8.295689577275658E8 ; 8.803689309156508E8 ; 0.0
73 ; 1.1893530926214708E7 ; 1.2227346262717383E7 ; 8.414614278106604E8 ; 8.925962771783682E8 ; 0.0
74 ; 1.1894552637035195E7 ; 1.2227346262717383E7 ; 8.53354958736875E8 ; 9.048236234410856E8 ; 0.0
75 ; 1.1894689155807665E7 ; 1.2227346262717383E7 ; 8.652495113739103E8 ; 9.17050969703803E8 ; 0.0
76 ; 1.1893759295683945E7 ; 1.2227346262717383E7 ; 8.771442005297179E8 ; 9.292783159665203E8 ; 0.0
77 ; 1.1896915778939491E7 ; 1.2227346262717383E7 ; 8.890379598254019E8 ; 9.415056622292377E8 ; 0.0
78 ; 1.1892619870702978E7 ; 1.2227346262717383E7 ; 9.009348756043414E8 ; 9.53733008491955E8 ; 0.0
79 ; 1.1889258235308656E7 ; 1.2227346262717383E7 ; 9.128274954750444E8 ; 9.659603547546724E8 ; 0.0
80 ; 1.188668527287881E7 ; 1.2227346262717383E7 ; 9.24716753710353E8 ; 9.781877010173898E8 ; 0.0
81 ; 1.188397308295042E7 ; 1.2227346262717383E7 ; 9.366034389832318E8 ; 9.904150472801071E8 ; 0.0
82 ; 1.18812799742307E7 ; 1.2227346262717383E7 ; 9.484874120661823E8 ; 1.0026423935428245E9 ; 0.0
83 ; 1.1876770253354644E7 ; 1.2227346262717383E7 ; 9.603686920404129E8 ; 1.0148697398055419E9 ; 0.0
84 ; 1.1869599583385598E7 ; 1.2227346262717383E7 ; 9.722454622937676E8 ; 1.0270970860682592E9 ; 0.0
85 ; 1.1866863984141067E7 ; 1.2227346262717383E7 ; 9.841150618771532E8 ; 1.0393244323309766E9 ; 0.0
86 ; 1.1863693814312356E7 ; 1.2227346262717383E7 ; 9.959819258612943E8 ; 1.051551778593694E9 ; 0.0
87 ; 1.1859759540546816E7 ; 1.2227346262717383E7 ; 1.0078456196756066E9 ; 1.0637791248564113E9 ; 0.0
88 ; 1.185469016166139E7 ; 1.2227346262717383E7 ; 1.0197053792161534E9 ; 1.0760064711191287E9 ; 0.0
89 ; 1.1849183884872267E7 ; 1.2227346262717383E7 ; 1.0315600693778148E9 ; 1.0882338173818462E9 ; 0.0
90 ; 1.1847304453370253E7 ; 1.2227346262717383E7 ; 1.0434092532626871E9 ; 1.1004611636445637E9 ; 0.0
91 ; 1.1840608179208906E7 ; 1.2227346262717383E7 ; 1.0552565577160573E9 ; 1.1126885099072812E9 ; 0.0
92 ; 1.183681189633469E7 ; 1.2227346262717383E7 ; 1.0670971658952662E9 ; 1.1249158561699986E9 ; 0.0
93 ; 1.1830319807624275E7 ; 1.2227346262717383E7 ; 1.078933977791601E9 ; 1.1371432024327161E9 ; 0.0
94 ; 1.1825474898480963E7 ; 1.2227346262717383E7 ; 1.0907642975992253E9 ; 1.1493705486954336E9 ; 0.0
95 ; 1.182656337034569E7 ; 1.2227346262717383E7 ; 1.1025897724977062E9 ; 1.161597894958151E9 ; 0.0
96 ; 1.1814399332349902E7 ; 1.2227346262717383E7 ; 1.1144163358680518E9 ; 1.1738252412208686E9 ; 0.0
97 ; 1.1811547385663487E7 ; 1.2227346262717383E7 ; 1.1262307352004018E9 ; 1.186052587483586E9 ; 0.0
98 ; 1.1803509695229504E7 ; 1.2227346262717383E7 ; 1.1380422825860653E9 ; 1.1982799337463036E9 ; 0.0
99 ; 1.180217500796186E7 ; 1.2227346262717383E7 ; 1.1498457922812948E9 ; 1.210507280009021E9 ; 0.0
100 ; 1.1793253093977379E7 ; 1.2227346262717383E7 ; 1.1616479672892566E9 ; 1.2227346262717385E9 ; 0.0
101 ; 1.178812127466428E7 ; 1.2227346262717383E7 ; 1.173441220383234E9 ; 1.234961972534456E9 ; 0.0
102 ; 1.1784450872197526E7 ; 1.2227346262717383E7 ; 1.1852293416578982E9 ; 1.2471893187971735E9 ; 0.0
103 ; 1.1776005837520208E7 ; 1.2227346262717383E7 ; 1.1970137925300958E9 ; 1.259416665059891E9 ; 0.0
104 ; 1.176986731309483E7 ; 1.2227346262717383E7 ; 1.208789798367616E9 ; 1.2716440113226085E9 ; 0.0
105 ; 1.1763151026567494E7 ; 1.2227346262717383E7 ; 1.2205596656807108E9 ; 1.283871357585326E9 ; 0.0
106 ; 1.1759012006785853E7 ; 1.2227346262717383E7 ; 1.2323228167072783E9 ; 1.2960987038480434E9 ; 0.0
107 ; 1.1752636884123143E7 ; 1.2227346262717383E7 ; 1.2440818287140641E9 ; 1.308326050110761E9 ; 0.0
108 ; 1.1745376138526505E7 ; 1.2227346262717383E7 ; 1.2558344655981872E9 ; 1.3205533963734784E9 ; 0.0
109 ; 1.1739046374954905E7 ; 1.2227346262717383E7 ; 1.2675798417367136E9 ; 1.332780742636196E9 ; 0.0
110 ; 1.1731931187261818E7 ; 1.2227346262717383E7 ; 1.2793188881116686E9 ; 1.3450080888989134E9 ; 0.0
111 ; 1.1725852117491547E7 ; 1.2227346262717383E7 ; 1.2910508192989304E9 ; 1.3572354351616309E9 ; 0.0
112 ; 1.1716633258941628E7 ; 1.2227346262717383E7 ; 1.302776671416422E9 ; 1.3694627814243484E9 ; 0.0
113 ; 1.171000669487389E7 ; 1.2227346262717383E7 ; 1.3144933046753635E9 ; 1.3816901276870658E9 ; 0.0
114 ; 1.1701884486643035E7 ; 1.2227346262717383E7 ; 1.3262033113702374E9 ; 1.3939174739497833E9 ; 0.0
115 ; 1.1696529809073338E7 ; 1.2227346262717383E7 ; 1.3379051958568804E9 ; 1.4061448202125008E9 ; 0.0
116 ; 1.1688973261500213E7 ; 1.2227346262717383E7 ; 1.3496017256659539E9 ; 1.4183721664752183E9 ; 0.0
117 ; 1.1679375959885828E7 ; 1.2227346262717383E7 ; 1.361290698927454E9 ; 1.4305995127379358E9 ; 0.0
118 ; 1.1672319589480856E7 ; 1.2227346262717383E7 ; 1.3729700748873398E9 ; 1.4428268590006533E9 ; 0.0
119 ; 1.1666599726471929E7 ; 1.2227346262717383E7 ; 1.3846423944768207E9 ; 1.4550542052633708E9 ; 0.0
120 ; 1.1653184135348415E7 ; 1.2227346262717383E7 ; 1.3963089942032926E9 ; 1.4672815515260882E9 ; 0.0
121 ; 1.1649508161951652E7 ; 1.2227346262717383E7 ; 1.407962178338641E9 ; 1.4795088977888057E9 ; 0.0
122 ; 1.1637508309445625E7 ; 1.2227346262717383E7 ; 1.4196116865005925E9 ; 1.4917362440515232E9 ; 0.0
123 ; 1.163236799824681E7 ; 1.2227346262717383E7 ; 1.431249194810038E9 ; 1.5039635903142407E9 ; 0.0
124 ; 1.1624127007558307E7 ; 1.2227346262717383E7 ; 1.442881562808285E9 ; 1.5161909365769582E9 ; 0.0
125 ; 1.161437724240774E7 ; 1.2227346262717383E7 ; 1.4545056898158433E9 ; 1.5284182828396757E9 ; 0.0
126 ; 1.1608475705356738E7 ; 1.2227346262717383E7 ; 1.4661200670582511E9 ; 1.5406456291023932E9 ; 0.0
127 ; 1.1596251368194085E7 ; 1.2227346262717383E7 ; 1.477728542763608E9 ; 1.5528729753651106E9 ; 0.0
128 ; 1.1589402252971347E7 ; 1.2227346262717383E7 ; 1.489324794131802E9 ; 1.5651003216278281E9 ; 0.0
129 ; 1.158196219391993E7 ; 1.2227346262717383E7 ; 1.5009141963847735E9 ; 1.5773276678905456E9 ; 0.0
130 ; 1.1572221916273829E7 ; 1.2227346262717383E7 ; 1.5124961585786934E9 ; 1.589555014153263E9 ; 0.0
131 ; 1.15565171141439E7 ; 1.2227346262717383E7 ; 1.5240683804949672E9 ; 1.6017823604159806E9 ; 0.0
132 ; 1.1543066303588567E7 ; 1.2227346262717383E7 ; 1.535624897609111E9 ; 1.614009706678698E9 ; 0.0
133 ; 1.15278325175679E7 ; 1.2227346262717383E7 ; 1.5471679639126997E9 ; 1.6262370529414155E9 ; 0.0
134 ; 1.151810290091127E7 ; 1.2227346262717383E7 ; 1.5586957964302676E9 ; 1.638464399204133E9 ; 0.0
135 ; 1.1504611803085372E7 ; 1.2227346262717383E7 ; 1.570213899331179E9 ; 1.6506917454668505E9 ; 0.0
136 ; 1.1490977408869242E7 ; 1.2227346262717383E7 ; 1.5817185111342642E9 ; 1.662919091729568E9 ; 0.0
137 ; 1.1475225997350447E7 ; 1.2227346262717383E7 ; 1.5932094885431335E9 ; 1.6751464379922855E9 ; 0.0
138 ; 1.1463913040968668E7 ; 1.2227346262717383E7 ; 1.604684714540484E9 ; 1.687373784255003E9 ; 0.0
139 ; 1.1448595769894011E7 ; 1.2227346262717383E7 ; 1.6161486275814526E9 ; 1.6996011305177205E9 ; 0.0
140 ; 1.1435061663003378E7 ; 1.2227346262717383E7 ; 1.6275972233513467E9 ; 1.711828476780438E9 ; 0.0
141 ; 1.1418731909168536E7 ; 1.2227346262717383E7 ; 1.6390322850143502E9 ; 1.7240558230431554E9 ; 0.0
142 ; 1.1408502230289008E7 ; 1.2227346262717383E7 ; 1.6504510169235187E9 ; 1.736283169305873E9 ; 0.0
143 ; 1.1389504704624966E7 ; 1.2227346262717383E7 ; 1.6618595191538076E9 ; 1.7485105155685904E9 ; 0.0
144 ; 1.138089064165294E7 ; 1.2227346262717383E7 ; 1.6732490238584325E9 ; 1.760737861831308E9 ; 0.0
145 ; 1.1372250618262919E7 ; 1.2227346262717383E7 ; 1.6846299145000854E9 ; 1.7729652080940254E9 ; 0.0
146 ; 1.1360632798024382E7 ; 1.2227346262717383E7 ; 1.6960021651183484E9 ; 1.7851925543567429E9 ; 0.0
147 ; 1.1352859167510288E7 ; 1.2227346262717383E7 ; 1.7073627979163728E9 ; 1.7974199006194603E9 ; 0.0
148 ; 1.1341014276612507E7 ; 1.2227346262717383E7 ; 1.718715657083883E9 ; 1.8096472468821778E9 ; 0.0
149 ; 1.1331453806610849E7 ; 1.2227346262717383E7 ; 1.7300566713604956E9 ; 1.8218745931448953E9 ; 0.0
150 ; 1.1322009230727255E7 ; 1.2227346262717383E7 ; 1.7413881251671064E9 ; 1.8341019394076128E9 ; 0.0
151 ; 1.131170317537936E7 ; 1.2227346262717383E7 ; 1.7527101343978336E9 ; 1.8463292856703303E9 ; 0.0
152 ; 1.1300870876951784E7 ; 1.2227346262717383E7 ; 1.7640218375732129E9 ; 1.8585566319330478E9 ; 0.0
153 ; 1.1286567581604192E7 ; 1.2227346262717383E7 ; 1.7753227084501646E9 ; 1.8707839781957653E9 ; 0.0
154 ; 1.1277729218629261E7 ; 1.2227346262717383E7 ; 1.7866092760317688E9 ; 1.8830113244584827E9 ; 0.0
155 ; 1.1270094322873827E7 ; 1.2227346262717383E7 ; 1.7978870052503982E9 ; 1.8952386707212002E9 ; 0.0
156 ; 1.1259125628756069E7 ; 1.2227346262717383E7 ; 1.809157099573272E9 ; 1.9074660169839177E9 ; 0.0
157 ; 1.1249764632766826E7 ; 1.2227346262717383E7 ; 1.820416225202028E9 ; 1.9196933632466352E9 ; 0.0
158 ; 1.1238016855580091E7 ; 1.2227346262717383E7 ; 1.8316659898347948E9 ; 1.9319207095093527E9 ; 0.0
159 ; 1.1230814428922156E7 ; 1.2227346262717383E7 ; 1.8429040066903749E9 ; 1.9441480557720702E9 ; 0.0
160 ; 1.121768883004636E7 ; 1.2227346262717383E7 ; 1.854134821119297E9 ; 1.9563754020347877E9 ; 0.0
161 ; 1.1208079817016913E7 ; 1.2227346262717383E7 ; 1.8653525099493434E9 ; 1.9686027482975051E9 ; 0.0
162 ; 1.1197407492112868E7 ; 1.2227346262717383E7 ; 1.8765605897663603E9 ; 1.9808300945602226E9 ; 0.0
163 ; 1.1188722328230124E7 ; 1.2227346262717383E7 ; 1.8877579972584732E9 ; 1.99305744082294E9 ; 0.0
164 ; 1.1178297220046507E7 ; 1.2227346262717383E7 ; 1.8989467195867033E9 ; 2.0052847870856576E9 ; 0.0
165 ; 1.116240868837811E7 ; 1.2227346262717383E7 ; 1.9101250168067498E9 ; 2.017512133348375E9 ; 0.0
166 ; 1.1153416776688922E7 ; 1.2227346262717383E7 ; 1.921287425495128E9 ; 2.0297394796110926E9 ; 0.0
167 ; 1.1144001257707167E7 ; 1.2227346262717383E7 ; 1.9324408422718167E9 ; 2.04196682587381E9 ; 0.0
168 ; 1.1130751053360948E7 ; 1.2227346262717383E7 ; 1.9435848435295238E9 ; 2.0541941721365275E9 ; 0.0
169 ; 1.1120097784577934E7 ; 1.2227346262717383E7 ; 1.9547155945828848E9 ; 2.066421518399245E9 ; 0.0
170 ; 1.111167451052347E7 ; 1.2227346262717383E7 ; 1.9658356923674626E9 ; 2.0786488646619625E9 ; 0.0
171 ; 1.110091135319208E7 ; 1.2227346262717383E7 ; 1.9769473668779862E9 ; 2.09087621092468E9 ; 0.0
172 ; 1.1090910664619194E7 ; 1.2227346262717383E7 ; 1.9880482782311783E9 ; 2.1031035571873975E9 ; 0.0
173 ; 1.1082103624883574E7 ; 1.2227346262717383E7 ; 1.9991391888957975E9 ; 2.115330903450115E9 ; 0.0
174 ; 1.107318346893724E7 ; 1.2227346262717383E7 ; 2.0102212925206811E9 ; 2.1275582497128325E9 ; 0.0
175 ; 1.1065883571896205E7 ; 1.2227346262717383E7 ; 2.0212944759896183E9 ; 2.13978559597555E9 ; 0.0
176 ; 1.1061333964020498E7 ; 1.2227346262717383E7 ; 2.0323603595615146E9 ; 2.1520129422382674E9 ; 0.0
177 ; 1.10532681730795E7 ; 1.2227346262717383E7 ; 2.043421693525535E9 ; 2.1642402885009847E9 ; 0.0
178 ; 1.1044390608843142E7 ; 1.2227346262717383E7 ; 2.0544749616986146E9 ; 2.176467634763702E9 ; 0.0
179 ; 1.1036048720124278E7 ; 1.2227346262717383E7 ; 2.0655193523074577E9 ; 2.188694981026419E9 ; 0.0
180 ; 1.1033026523571564E7 ; 1.2227346262717383E7 ; 2.076555401027582E9 ; 2.2009223272891364E9 ; 0.0
181 ; 1.1023977835288849E7 ; 1.2227346262717383E7 ; 2.0875884275511534E9 ; 2.2131496735518537E9 ; 0.0
182 ; 1.1016299294593375E7 ; 1.2227346262717383E7 ; 2.0986124053864422E9 ; 2.225377019814571E9 ; 0.0
183 ; 1.1012096845481308E7 ; 1.2227346262717383E7 ; 2.1096287046810355E9 ; 2.237604366077288E9 ; 0.0
184 ; 1.1004328440919943E7 ; 1.2227346262717383E7 ; 2.120640801526517E9 ; 2.2498317123400054E9 ; 0.0
185 ; 1.0998513996957254E7 ; 1.2227346262717383E7 ; 2.1316451299674368E9 ; 2.2620590586027226E9 ; 0.0
186 ; 1.0990485982506696E7 ; 1.2227346262717383E7 ; 2.142643643964394E9 ; 2.27428640486544E9 ; 0.0
187 ; 1.0983274510332024E7 ; 1.2227346262717383E7 ; 2.153634129946901E9 ; 2.286513751128157E9 ; 0.0
188 ; 1.0978520305273585E7 ; 1.2227346262717383E7 ; 2.164617404457233E9 ; 2.2987410973908744E9 ; 0.0
189 ; 1.097197371744954E7 ; 1.2227346262717383E7 ; 2.1755959247625065E9 ; 2.3109684436535916E9 ; 0.0
190 ; 1.0960822511137478E7 ; 1.2227346262717383E7 ; 2.186567898479956E9 ; 2.323195789916309E9 ; 0.0
191 ; 1.0957686095533177E7 ; 1.2227346262717383E7 ; 2.1975287209910936E9 ; 2.335423136179026E9 ; 0.0
192 ; 1.0949414577946706E7 ; 1.2227346262717383E7 ; 2.208486407086627E9 ; 2.3476504824417434E9 ; 0.0
193 ; 1.0944281431117555E7 ; 1.2227346262717383E7 ; 2.2194358216645737E9 ; 2.3598778287044606E9 ; 0.0
194 ; 1.0937092910096304E7 ; 1.2227346262717383E7 ; 2.230380103095691E9 ; 2.372105174967178E9 ; 0.0
195 ; 1.0930695585791951E7 ; 1.2227346262717383E7 ; 2.2413171960057874E9 ; 2.384332521229895E9 ; 0.0
