CSV File for the City 1 on Day 249
1 - Minute m 
2 - Power Consumed at minute m 
3 - Power Produced at minute m 
4 - Energy Consumed since the beginning of the day 
5 - Energy Produced since the beginning of the day 
6 - Energy Lost since the beginning of the day on lines starting from the city
 
0 ; 3403246.1310562645 ; 1.0536606415550557E8 ; 0.0 ; 0.0 ; 0.0
1 ; 3417565.062338687 ; 1.055186399827869E8 ; 3403246.1310562645 ; 1.0536606415550557E8 ; 0.0
2 ; 3435924.146457961 ; 1.0598002830764797E8 ; 6820811.1933949515 ; 2.1088470413829246E8 ; 0.0
3 ; 3457120.5890434626 ; 1.0675023327896929E8 ; 1.0256735339852912E7 ; 3.1686473244594043E8 ; 0.0
4 ; 3478232.790427245 ; 1.0782925869493032E8 ; 1.3713855928896375E7 ; 4.236149657249097E8 ; 0.0
5 ; 3509101.160814826 ; 1.0921710795670557E8 ; 1.719208871932362E7 ; 5.3144422441984004E8 ; 0.0
6 ; 3546257.7958133984 ; 1.1091378402505222E8 ; 2.0701189880138446E7 ; 6.406613323765457E8 ; 0.0
7 ; 3591434.8910628147 ; 1.1291928938100427E8 ; 2.4247447675951846E7 ; 7.515751164015979E8 ; 0.0
8 ; 3673046.497518011 ; 1.1523362599183846E8 ; 2.783888256701466E7 ; 8.644944057826021E8 ; 0.0
9 ; 3791730.5566556966 ; 1.1785679528337121E8 ; 3.151192906453267E7 ; 9.797280317744405E8 ; 0.0
10 ; 3972728.355480694 ; 1.2078879811948222E8 ; 3.5303659621188365E7 ; 1.0975848270578117E9 ; 0.0
11 ; 4258883.667105348 ; 1.2402963478954408E8 ; 3.927638797666906E7 ; 1.218373625177294E9 ; 0.0
12 ; 4718318.571056591 ; 1.2757930500418416E8 ; 4.3535271643774405E7 ; 1.3424032599668381E9 ; 0.0
13 ; 5169534.244770506 ; 1.3143780789952278E8 ; 4.8253590214830995E7 ; 1.4699825649710224E9 ; 0.0
14 ; 5218584.150249055 ; 1.356051420497436E8 ; 5.34231244596015E7 ; 1.6014203728705451E9 ; 0.0
15 ; 5238538.651857711 ; 1.4008130548756975E8 ; 5.8641708609850556E7 ; 1.7370255149202888E9 ; 0.0
16 ; 5258826.306415295 ; 1.4486629573196736E8 ; 6.388024726170827E7 ; 1.8771068204078586E9 ; 0.0
17 ; 5282064.472519599 ; 1.4996010982217917E8 ; 6.913907356812356E7 ; 2.021973116139826E9 ; 0.0
18 ; 5301824.974242453 ; 1.553627443570307E8 ; 7.442113804064316E7 ; 2.171933225962005E9 ; 0.0
19 ; 5320614.96155078 ; 1.6107419553834245E8 ; 7.97229630148856E7 ; 2.327295970319036E9 ; 0.0
20 ; 5341377.755253604 ; 1.6709445921723393E8 ; 8.504357797643638E7 ; 2.4883701658573785E9 ; 0.0
21 ; 5364190.9356949385 ; 1.7342353094211486E8 ; 9.038495573168997E7 ; 2.6554646250746126E9 ; 0.0
22 ; 5384048.936170837 ; 1.8006140600721526E8 ; 9.574914666738491E7 ; 2.8288881560167274E9 ; 0.0
23 ; 5409773.608827007 ; 1.870080795006073E8 ; 1.0113319560355574E8 ; 3.008949562023943E9 ; 0.0
24 ; 5425680.065150477 ; 1.9426354635079974E8 ; 1.0654296921238275E8 ; 3.1959576415245504E9 ; 0.0
25 ; 5449494.062245091 ; 2.005158422693193E8 ; 1.1196864927753323E8 ; 3.39022118787535E9 ; 0.0
26 ; 5467065.85268844 ; 2.0051850982919616E8 ; 1.1741814333977832E8 ; 3.5907370301446695E9 ; 0.0
27 ; 5490728.6726609 ; 2.005213130281957E8 ; 1.2288520919246677E8 ; 3.7912555399738655E9 ; 0.0
28 ; 5512973.788122831 ; 2.0052424657035378E8 ; 1.2837593786512767E8 ; 3.9917768530020614E9 ; 0.0
29 ; 5532403.592550375 ; 2.005273051902528E8 ; 1.338889116532505E8 ; 4.1923010995724154E9 ; 0.0
30 ; 5551538.097129055 ; 2.0053048368027353E8 ; 1.3942131524580088E8 ; 4.392828404762669E9 ; 0.0
31 ; 5573928.076489539 ; 2.0053377691411978E8 ; 1.4497285334292993E8 ; 4.593358888442942E9 ; 0.0
32 ; 5589696.680328933 ; 2.0053717986675006E8 ; 1.5054678141941947E8 ; 4.793892665357061E9 ; 0.0
33 ; 5614621.6762903575 ; 2.0054068763091102E8 ; 1.561364780997484E8 ; 4.994429845223811E9 ; 0.0
34 ; 5623077.514756172 ; 2.0054429543051118E8 ; 1.6175109977603877E8 ; 5.194970532854722E9 ; 0.0
35 ; 5643881.229305996 ; 2.005479986311026E8 ; 1.6737417729079494E8 ; 5.3955148282852335E9 ; 0.0
36 ; 5664502.1674094 ; 2.0055179274775207E8 ; 1.7301805852010092E8 ; 5.596062826916336E9 ; 0.0
37 ; 5679147.8077739775 ; 2.0055567345058867E8 ; 1.786825606875103E8 ; 5.796614619664088E9 ; 0.0
38 ; 5697107.755485057 ; 2.005596365683088E8 ; 1.843617084952843E8 ; 5.997170293114676E9 ; 0.0
39 ; 5707968.916805425 ; 2.005636780899093E8 ; 1.9005881625076935E8 ; 6.197729929682985E9 ; 0.0
40 ; 5727483.05641661 ; 2.0056779416490388E8 ; 1.9576678516757476E8 ; 6.398293607772895E9 ; 0.0
41 ; 5743039.817087193 ; 2.0057198110225818E8 ; 2.0149426822399136E8 ; 6.5988614019377985E9 ; 0.0
42 ; 5752678.869090919 ; 2.0057623536825883E8 ; 2.0723730804107857E8 ; 6.799433383040056E9 ; 0.0
43 ; 5762555.8338937275 ; 2.005805535835105E8 ; 2.1298998691016948E8 ; 7.000009618408315E9 ; 0.0
44 ; 5781554.967610214 ; 2.0058493251923338E8 ; 2.187525427440632E8 ; 7.200590171991825E9 ; 0.0
45 ; 5788144.401583404 ; 2.005893690930128E8 ; 2.245340977116734E8 ; 7.401175104511059E9 ; 0.0
46 ; 5802451.589240336 ; 2.005938603641339E8 ; 2.303222421132568E8 ; 7.601764473604072E9 ; 0.0
47 ; 5812333.71470368 ; 2.005984035286145E8 ; 2.3612469370249715E8 ; 7.802358333968205E9 ; 0.0
48 ; 5817861.8120701285 ; 2.0060299591403493E8 ; 2.4193702741720083E8 ; 8.0029567374968195E9 ; 0.0
49 ; 5826311.62475766 ; 2.0060763497424644E8 ; 2.4775488922927096E8 ; 8.203559733410854E9 ; 0.0
50 ; 5834866.088151087 ; 2.0061231828402713E8 ; 2.535812008540286E8 ; 8.4041673683851E9 ; 0.0
51 ; 5842133.77328932 ; 2.006170435337431E8 ; 2.594160669421797E8 ; 8.604779686669128E9 ; 0.0
52 ; 5853368.179409751 ; 2.0062180852406088E8 ; 2.6525820071546903E8 ; 8.805396730202871E9 ; 0.0
53 ; 5855282.999320383 ; 2.006266111607487E8 ; 2.711115688948788E8 ; 9.006018538726933E9 ; 0.0
54 ; 5865171.535980296 ; 2.0063144944959646E8 ; 2.769668518941992E8 ; 9.206645149887682E9 ; 0.0
55 ; 5871445.458849015 ; 2.0063632149147722E8 ; 2.828320234301795E8 ; 9.407276599337278E9 ; 0.0
56 ; 5876019.60536319 ; 2.0064122547756723E8 ; 2.887034688890285E8 ; 9.607912920828756E9 ; 0.0
57 ; 5883630.88230835 ; 2.006461596847372E8 ; 2.945794884943917E8 ; 9.808554146306324E9 ; 0.0
58 ; 5886394.9141416615 ; 2.0065112247112286E8 ; 3.0046311937670004E8 ; 1.0009200305991062E10 ; 0.0
59 ; 5891589.561994238 ; 2.006561122718801E8 ; 3.063495142908417E8 ; 1.0209851428462185E10 ; 0.0
60 ; 5901784.48770315 ; 2.006611275951265E8 ; 3.1224110385283595E8 ; 1.0410507540734064E10 ; 0.0
61 ; 5903532.105499445 ; 2.0066616701807E8 ; 3.181428883405391E8 ; 1.0611168668329191E10 ; 0.0
62 ; 5912819.085940092 ; 2.0067122918332192E8 ; 3.2404642044603854E8 ; 1.0811834835347261E10 ; 0.0
63 ; 5916173.639352313 ; 2.006763127953921E8 ; 3.299592395319786E8 ; 1.1012506064530582E10 ; 0.0
64 ; 5920696.885109664 ; 2.0068141661736107E8 ; 3.358754131713309E8 ; 1.1213182377325975E10 ; 0.0
65 ; 5924483.544280253 ; 2.006865394677246E8 ; 3.417961100564406E8 ; 1.1413863793943336E10 ; 0.0
66 ; 5929071.006392721 ; 2.0069168021740445E8 ; 3.477205936007208E8 ; 1.161455033341106E10 ; 0.0
67 ; 5931918.50680586 ; 2.0069683778691936E8 ; 3.5364966460711354E8 ; 1.1815242013628466E10 ; 0.0
68 ; 5939693.957699221 ; 2.0070201114370954E8 ; 3.595815831139194E8 ; 1.2015938851415384E10 ; 0.0
69 ; 5944225.4264155105 ; 2.0070719929960808E8 ; 3.655212770716186E8 ; 1.2216640862559093E10 ; 0.0
70 ; 5946906.076008756 ; 2.0071240130845276E8 ; 3.714655024980341E8 ; 1.2417348061858702E10 ; 0.0
71 ; 5955967.300682185 ; 2.0071761626383075E8 ; 3.7741240857404286E8 ; 1.2618060463167154E10 ; 0.0
72 ; 5954689.827633143 ; 2.007228432969508E8 ; 3.8336837587472504E8 ; 1.2818778079430984E10 ; 0.0
73 ; 5961349.46302308 ; 2.0072808157463497E8 ; 3.893230657023582E8 ; 1.3019500922727936E10 ; 0.0
74 ; 5965073.957844036 ; 2.007333302974249E8 ; 3.9528441516538125E8 ; 1.322022900430257E10 ; 0.0
75 ; 5971822.64631269 ; 2.0073858869779563E8 ; 4.012494891232253E8 ; 1.3420962334599995E10 ; 0.0
76 ; 5972694.03346421 ; 2.0074385603847104E8 ; 4.07221311769538E8 ; 1.362170092329779E10 ; 0.0
77 ; 5979340.055070503 ; 2.00749131610836E8 ; 4.131940058030022E8 ; 1.3822444779336262E10 ; 0.0
78 ; 5975686.22707427 ; 2.0075441473343897E8 ; 4.191733458580727E8 ; 1.4023193910947098E10 ; 0.0
79 ; 5972859.662186248 ; 2.007597047505802E8 ; 4.2514903208514696E8 ; 1.4223948325680536E10 ; 0.0
80 ; 5968631.968422568 ; 2.007650010309806E8 ; 4.311218917473332E8 ; 1.4424708030431116E10 ; 0.0
81 ; 5967196.826626394 ; 2.0077030296652666E8 ; 4.370905237157558E8 ; 1.4625473031462097E10 ; 0.0
82 ; 5967685.680793559 ; 2.007756099710869E8 ; 4.4305772054238224E8 ; 1.4826243334428623E10 ; 0.0
83 ; 5963011.053875557 ; 2.0078092147939524E8 ; 4.490254062231758E8 ; 1.502701894439971E10 ; 0.0
84 ; 5962422.602803846 ; 2.0078623694599846E8 ; 4.549884172770514E8 ; 1.5227799865879105E10 ; 0.0
85 ; 5955317.841301899 ; 2.0079155584426242E8 ; 4.609508398798552E8 ; 1.5428586102825104E10 ; 0.0
86 ; 5951893.742874889 ; 2.007968776654349E8 ; 4.6690615772115713E8 ; 1.5629377658669367E10 ; 0.0
87 ; 5951376.477828792 ; 2.008022019177609E8 ; 4.72858051464032E8 ; 1.5830174536334803E10 ; 0.0
88 ; 5951214.352374365 ; 2.0080752812564763E8 ; 4.788094279418608E8 ; 1.6030976738252563E10 ; 0.0
89 ; 5943348.865113592 ; 2.0081285582887602E8 ; 4.8476064229423517E8 ; 1.6231784266378212E10 ; 0.0
90 ; 5940142.168331121 ; 2.00818184581856E8 ; 4.907039911593488E8 ; 1.6432597122207088E10 ; 0.0
91 ; 5941620.701355127 ; 2.0082351395292336E8 ; 4.9664413332767993E8 ; 1.6633415306788944E10 ; 0.0
92 ; 5934265.176534576 ; 2.008288435236749E8 ; 5.0258575402903503E8 ; 1.6834238820741867E10 ; 0.0
93 ; 5932458.9568460295 ; 2.0083417288834047E8 ; 5.085200192055696E8 ; 1.7035067664265541E10 ; 0.0
94 ; 5928317.173376904 ; 2.00839501653189E8 ; 5.144524781624157E8 ; 1.723590183715388E10 ; 0.0
95 ; 5924381.81906343 ; 2.0084482943596712E8 ; 5.203807953357926E8 ; 1.743674133880707E10 ; 0.0
96 ; 5917159.866285562 ; 2.008501558653679E8 ; 5.26305177154856E8 ; 1.763758616824304E10 ; 0.0
97 ; 5917642.485581653 ; 2.0085548058052832E8 ; 5.322223370211416E8 ; 1.7838436324108406E10 ; 0.0
98 ; 5908270.199554397 ; 2.0086080323055363E8 ; 5.381399795067233E8 ; 1.8039291804688934E10 ; 0.0
99 ; 5908177.94513684 ; 2.00866123474067E8 ; 5.440482497062777E8 ; 1.8240152607919487E10 ; 0.0
100 ; 5901363.014443823 ; 2.008714409787831E8 ; 5.499564276514145E8 ; 1.8441018731393555E10 ; 0.0
101 ; 5896471.408942151 ; 2.0087675542110407E8 ; 5.558577906658584E8 ; 1.8641890172372337E10 ; 0.0
102 ; 5889358.75257877 ; 2.008820664857369E8 ; 5.617542620748005E8 ; 1.884276692779344E10 ; 0.0
103 ; 5886492.348982696 ; 2.008873738653303E8 ; 5.676436208273792E8 ; 1.904364899427918E10 ; 0.0
104 ; 5874454.349410935 ; 2.0089267726013097E8 ; 5.735301131763619E8 ; 1.924453636814451E10 ; 0.0
105 ; 5871466.271754724 ; 2.0089797637765718E8 ; 5.794045675257728E8 ; 1.944542904540464E10 ; 0.0
106 ; 5867993.580172612 ; 2.0090327093238914E8 ; 5.852760337975276E8 ; 1.96463270217823E10 ; 0.0
107 ; 5866563.829022546 ; 2.0090856064547542E8 ; 5.911440273777002E8 ; 1.9847230292714687E10 ; 0.0
108 ; 5859825.246030586 ; 2.009138452444539E8 ; 5.970105912067227E8 ; 2.0048138853360165E10 ; 0.0
109 ; 5849536.649421633 ; 2.0091912446298704E8 ; 6.028704164527533E8 ; 2.0249052698604618E10 ; 0.0
110 ; 5846316.715163307 ; 2.0092439804061034E8 ; 6.08719953102175E8 ; 2.0449971823067604E10 ; 0.0
111 ; 5843067.194070158 ; 2.009296657224933E8 ; 6.145662698173383E8 ; 2.0650896221108215E10 ; 0.0
112 ; 5832030.440558137 ; 2.0093492725921217E8 ; 6.204093370114084E8 ; 2.0851825886830708E10 ; 0.0
113 ; 5823623.9104593 ; 2.0094018240653417E8 ; 6.262413674519666E8 ; 2.105276081408992E10 ; 0.0
114 ; 5814984.328806096 ; 2.0094543092521197E8 ; 6.320649913624259E8 ; 2.1253700996496452E10 ; 0.0
115 ; 5814644.22049343 ; 2.009506725807883E8 ; 6.37879975691232E8 ; 2.1454646427421665E10 ; 0.0
116 ; 5804714.852488571 ; 2.0095590714341012E8 ; 6.436946199117254E8 ; 2.1655597100002453E10 ; 0.0
117 ; 5797803.251616991 ; 2.0096113438765147E8 ; 6.494993347642139E8 ; 2.1856553007145863E10 ; 0.0
118 ; 5792575.913006842 ; 2.0096635409234518E8 ; 6.552971380158309E8 ; 2.2057514141533516E10 ; 0.0
119 ; 5781907.338573171 ; 2.0097156604042226E8 ; 6.610897139288378E8 ; 2.2258480495625862E10 ; 0.0
120 ; 5775127.939009207 ; 2.0097677001875907E8 ; 6.66871621267411E8 ; 2.2459452061666283E10 ; 0.0
121 ; 5770186.923067129 ; 2.009819658180317E8 ; 6.726467492064202E8 ; 2.2660428831685043E10 ; 0.0
122 ; 5761157.045749791 ; 2.009871532325769E8 ; 6.784169361294873E8 ; 2.2861410797503075E10 ; 0.0
123 ; 5753635.613734853 ; 2.0099233206026E8 ; 6.84178093175237E8 ; 2.3062397950735653E10 ; 0.0
124 ; 5744121.199217037 ; 2.0099750210234836E8 ; 6.899317287889719E8 ; 2.3263390282795914E10 ; 0.0
125 ; 5740463.445324478 ; 2.0100266316339105E8 ; 6.95675849988189E8 ; 2.3464387784898262E10 ; 0.0
126 ; 5730622.876609053 ; 2.010078150511039E8 ; 7.014163134335134E8 ; 2.3665390448061653E10 ; 0.0
127 ; 5722164.287555888 ; 2.010129575762598E8 ; 7.071469363101225E8 ; 2.386639826311276E10 ; 0.0
128 ; 5711826.278728319 ; 2.010180905525839E8 ; 7.128691005976784E8 ; 2.406741122068902E10 ; 0.0
129 ; 5702216.407409781 ; 2.010232137966537E8 ; 7.185809268764068E8 ; 2.4268429311241604E10 ; 0.0
130 ; 5694536.516813515 ; 2.0102832712780336E8 ; 7.242831432838166E8 ; 2.4469452525038258E10 ; 0.0
131 ; 5680611.261144897 ; 2.0103343036803257E8 ; 7.299776798006301E8 ; 2.467048085216606E10 ; 0.0
132 ; 5667364.6295008175 ; 2.0103852334191924E8 ; 7.35658291061775E8 ; 2.4871514282534096E10 ; 0.0
133 ; 5651867.12339502 ; 2.0104360587653613E8 ; 7.413256556912758E8 ; 2.5072552805876015E10 ; 0.0
134 ; 5631715.717063584 ; 2.0104867780137104E8 ; 7.469775228146708E8 ; 2.5273596411752552E10 ; 0.0
135 ; 5626842.427781195 ; 2.0105373894825065E8 ; 7.526092385317343E8 ; 2.5474645089553925E10 ; 0.0
136 ; 5605131.825462035 ; 2.0105878915126765E8 ; 7.582360809595156E8 ; 2.5675698828502174E10 ; 0.0
137 ; 5593684.026484995 ; 2.010638282467107E8 ; 7.638412127849776E8 ; 2.5876757617653442E10 ; 0.0
138 ; 5577624.573094998 ; 2.0106885607299787E8 ; 7.694348968114625E8 ; 2.6077821445900154E10 ; 0.0
139 ; 5561220.679774044 ; 2.0107387247061262E8 ; 7.750125213845575E8 ; 2.6278890301973152E10 ; 0.0
140 ; 5544697.452655639 ; 2.010788772820426E8 ; 7.805737420643315E8 ; 2.6479964174443764E10 ; 0.0
141 ; 5533274.184811522 ; 2.0108387035172096E8 ; 7.861184395169872E8 ; 2.6681043051725807E10 ; 0.0
142 ; 5514887.5114727905 ; 2.010888515259703E8 ; 7.916517137017987E8 ; 2.688212692207753E10 ; 0.0
143 ; 5500334.757447509 ; 2.0109382065294886E8 ; 7.971666012132715E8 ; 2.70832157736035E10 ; 0.0
144 ; 5479140.95014962 ; 2.0109877758259887E8 ; 8.02666935970719E8 ; 2.728430959425645E10 ; 0.0
145 ; 5475123.801485451 ; 2.0110372216659725E8 ; 8.081460769208686E8 ; 2.748540837183905E10 ; 0.0
146 ; 5465423.754256538 ; 2.0110865425830817E8 ; 8.13621200722354E8 ; 2.7686512094005646E10 ; 0.0
147 ; 5457475.463098498 ; 2.0111357371273774E8 ; 8.190866244766105E8 ; 2.7887620748263954E10 ; 0.0
148 ; 5446300.017213877 ; 2.0111848038649035E8 ; 8.245440999397091E8 ; 2.8088734321976692E10 ; 0.0
149 ; 5440848.061216366 ; 2.0112337413772687E8 ; 8.299903999569229E8 ; 2.8289852802363182E10 ; 0.0
150 ; 5424664.567083848 ; 2.011282548261248E8 ; 8.354312480181392E8 ; 2.8490976176500908E10 ; 0.0
151 ; 5421201.318469309 ; 2.0113312231283945E8 ; 8.408559125852231E8 ; 2.8692104431327034E10 ; 0.0
152 ; 5413343.53298246 ; 2.0113797646046743E8 ; 8.462771139036924E8 ; 2.8893237553639874E10 ; 0.0
153 ; 5405684.588963559 ; 2.011428171330109E8 ; 8.516904574366748E8 ; 2.909437553010034E10 ; 0.0
154 ; 5395365.2932334 ; 2.0114764419584373E8 ; 8.570961420256383E8 ; 2.9295518347233353E10 ; 0.0
155 ; 5386614.97282662 ; 2.0115245751567885E8 ; 8.624915073188717E8 ; 2.9496665991429195E10 ; 0.0
156 ; 5373870.925849651 ; 2.0115725696053678E8 ; 8.678781222916983E8 ; 2.9697818448944874E10 ; 0.0
157 ; 5367829.375534734 ; 2.011620423997156E8 ; 8.73251993217548E8 ; 2.989897570590541E10 ; 0.0
158 ; 5358703.82040195 ; 2.0116681370376202E8 ; 8.786198225930828E8 ; 3.0100137748305126E10 ; 0.0
159 ; 5350590.30720339 ; 2.0117157074444354E8 ; 8.839785264134847E8 ; 3.030130456200889E10 ; 0.0
160 ; 5340428.020721191 ; 2.0117631339472166E8 ; 8.893291167206881E8 ; 3.050247613275333E10 ; 0.0
161 ; 5329160.379269747 ; 2.0118104152872634E8 ; 8.946695447414093E8 ; 3.0703652446148052E10 ; 0.0
162 ; 5318644.916356321 ; 2.0118575502173135E8 ; 8.99998705120679E8 ; 3.0904833487676777E10 ; 0.0
163 ; 5312259.088622179 ; 2.011904537501303E8 ; 9.053173500370353E8 ; 3.110601924269851E10 ; 0.0
164 ; 5299295.584098232 ; 2.0119513759141406E8 ; 9.106296091256576E8 ; 3.130720969644864E10 ; 0.0
165 ; 5294618.275097574 ; 2.0119980642414877E8 ; 9.159289047097558E8 ; 3.1508404834040054E10 ; 0.0
166 ; 5284894.598216233 ; 2.012044601279547E8 ; 9.212235229848534E8 ; 3.1709604640464203E10 ; 0.0
167 ; 5271830.114402551 ; 2.0120909858348596E8 ; 9.265084175830696E8 ; 3.191080910059216E10 ; 0.0
168 ; 5265688.632912176 ; 2.01213721672411E8 ; 9.317802476974721E8 ; 3.2112018199175644E10 ; 0.0
169 ; 5254612.269225558 ; 2.0121832927739388E8 ; 9.370459363303843E8 ; 3.2313231920848057E10 ; 0.0
170 ; 5244711.0321514495 ; 2.012229212820761E8 ; 9.423005485996099E8 ; 3.251445025012545E10 ; 0.0
171 ; 5234895.788334871 ; 2.0122749757105926E8 ; 9.475452596317613E8 ; 3.2715673171407528E10 ; 0.0
172 ; 5228102.525392368 ; 2.012320580298884E8 ; 9.527801554200962E8 ; 3.291690066897859E10 ; 0.0
173 ; 5213095.5563563565 ; 2.0123660254503578E8 ; 9.580082579454886E8 ; 3.3118132727008476E10 ; 0.0
174 ; 5211008.384654688 ; 2.0124113100388542E8 ; 9.632213535018449E8 ; 3.3319369329553513E10 ; 0.0
175 ; 5200669.370750807 ; 2.012456432947182E8 ; 9.684323618864995E8 ; 3.35206104605574E10 ; 0.0
176 ; 5195967.1415039105 ; 2.0125013930669752E8 ; 9.736330312572503E8 ; 3.372185610385212E10 ; 0.0
177 ; 5185646.213013638 ; 2.0125461892985538E8 ; 9.788289983987542E8 ; 3.3923106243158817E10 ; 0.0
178 ; 5181629.866317937 ; 2.012590820550791E8 ; 9.840146446117679E8 ; 3.4124360862088673E10 ; 0.0
179 ; 5175114.334085859 ; 2.0126352857409856E8 ; 9.891962744780859E8 ; 3.4325619944143753E10 ; 0.0
180 ; 5167085.27786932 ; 2.0126795837947375E8 ; 9.943713888121717E8 ; 3.452688347271785E10 ; 0.0
181 ; 5162237.386019377 ; 2.0127237136458293E8 ; 9.99538474090041E8 ; 3.472815143109732E10 ; 0.0
182 ; 5157878.529127389 ; 2.012767674236112E8 ; 1.0047007114760604E9 ; 3.492942380246191E10 ; 0.0
183 ; 5151090.780684006 ; 2.0128114645153934E8 ; 1.0098585900051877E9 ; 3.513070056988552E10 ; 0.0
184 ; 5141598.575429802 ; 2.012855083441334E8 ; 1.0150096807858717E9 ; 3.533198171633706E10 ; 0.0
185 ; 5134619.734997457 ; 2.0128985299793422E8 ; 1.0201512793613015E9 ; 3.553326722468119E10 ; 0.0
186 ; 5128585.36318593 ; 2.0129418031024772E8 ; 1.025285899096299E9 ; 3.573455707767912E10 ; 0.0
187 ; 5117946.3274897495 ; 2.0129849017913532E8 ; 1.0304144844594849E9 ; 3.593585125798937E10 ; 0.0
188 ; 5109434.2804198945 ; 2.0130278250340492E8 ; 1.0355324307869747E9 ; 3.613714974816851E10 ; 0.0
189 ; 5106113.324664573 ; 2.0130705718260184E8 ; 1.0406418650673946E9 ; 3.633845253067191E10 ; 0.0
190 ; 5099492.649331735 ; 2.0131131411700055E8 ; 1.0457479783920592E9 ; 3.6539759587854515E10 ; 0.0
191 ; 5091121.499625034 ; 2.0131555320759636E8 ; 1.0508474710413909E9 ; 3.674107090197151E10 ; 0.0
192 ; 5082027.547827824 ; 2.0131977435609755E8 ; 1.055938592541016E9 ; 3.694238645517911E10 ; 0.0
193 ; 5075156.681767812 ; 2.013239774649178E8 ; 1.0610206200888438E9 ; 3.71437062295352E10 ; 0.0
194 ; 5071775.226238461 ; 2.0132816243716884E8 ; 1.0660957767706116E9 ; 3.734503020700012E10 ; 0.0
195 ; 5062814.220247745 ; 2.013323291766534E8 ; 1.0711675519968501E9 ; 3.7546358369437294E10 ; 0.0
196 ; 5052601.569291518 ; 2.0133647758785832E8 ; 1.0762303662170978E9 ; 3.7747690698613945E10 ; 0.0
197 ; 5046569.849290544 ; 2.0134060757594827E8 ; 1.0812829677863894E9 ; 3.7949027176201805E10 ; 0.0
198 ; 5048804.9057079265 ; 2.0134471904675904E8 ; 1.08632953763568E9 ; 3.8150367783777756E10 ; 0.0
199 ; 5038392.88944691 ; 2.0134881190679184E8 ; 1.0913783425413878E9 ; 3.835171250282452E10 ; 0.0
200 ; 5028198.385409963 ; 2.013528860632071E8 ; 1.0964167354308348E9 ; 3.855306131473131E10 ; 0.0
201 ; 5019910.146460853 ; 1.9913455398928916E8 ; 1.1014449338162448E9 ; 3.875441420079452E10 ; 0.0
