CSV File for the City 6 on Day 53
1 - Minute m 
2 - Power Consumed at minute m 
3 - Power Produced at minute m 
4 - Energy Consumed since the beginning of the day 
5 - Energy Produced since the beginning of the day 
6 - Energy Lost since the beginning of the day on lines starting from the city
 
0 ; 1.112042818483779E7 ; 1.0578119258050308E8 ; 0.0 ; 0.0 ; 0.0
1 ; 1.1130297485435206E7 ; 1.0593159882184517E8 ; 1.112042818483779E7 ; 1.0578119258050308E8 ; 0.0
2 ; 1.1142206059876893E7 ; 1.0639103709779611E8 ; 2.2250725670273E7 ; 2.1171279140234825E8 ; 0.0
3 ; 1.1155530637177715E7 ; 1.0715951444841117E8 ; 3.339293173014989E7 ; 3.1810382850014436E8 ; 0.0
4 ; 1.1168938355727496E7 ; 1.0823703725624472E8 ; 4.454846236732761E7 ; 4.252633429485555E8 ; 0.0
5 ; 1.1190243875923393E7 ; 1.096236111870684E8 ; 5.57174007230551E7 ; 5.3350038020480025E8 ; 0.0
6 ; 1.1216815263297962E7 ; 1.1131924113546154E8 ; 6.69076445989785E7 ; 6.431239913918686E8 ; 0.0
7 ; 1.1255357676601158E7 ; 1.1332393117644477E8 ; 7.812445986227646E7 ; 7.544432325273302E8 ; 0.0
8 ; 1.1308150789732853E7 ; 1.1563768452424175E8 ; 8.937981753887762E7 ; 8.677671637037749E8 ; 0.0
9 ; 1.138661459253053E7 ; 1.1826050349912554E8 ; 1.0068796832861048E8 ; 9.834048482280166E8 ; 0.0
10 ; 1.1510555394259462E7 ; 1.2119238950314182E8 ; 1.1207458292114101E8 ; 1.101665351727142E9 ; 0.0
11 ; 1.1709234737964356E7 ; 1.244333430052984E8 ; 1.2358513831540048E8 ; 1.222857741230284E9 ; 0.0
12 ; 1.2025817836325264E7 ; 1.2798336353658745E8 ; 1.3529437305336484E8 ; 1.3472910842355824E9 ; 0.0
13 ; 1.2327832377695672E7 ; 1.3184244969496328E8 ; 1.473201908896901E8 ; 1.4752744477721698E9 ; 0.0
14 ; 1.2370262234686641E7 ; 1.360105991601529E8 ; 1.5964802326738578E8 ; 1.607116897467133E9 ; 0.0
15 ; 1.2382590199739033E7 ; 1.4048780871793258E8 ; 1.7201828550207242E8 ; 1.743127496627286E9 ; 0.0
16 ; 1.2395304312183842E7 ; 1.4527407429328176E8 ; 1.8440087570181146E8 ; 1.8836153053452187E9 ; 0.0
17 ; 1.2406356396025568E7 ; 1.5036939099162105E8 ; 1.967961800139953E8 ; 2.0288893796385005E9 ; 0.0
18 ; 1.2421476248355048E7 ; 1.5577375314717883E8 ; 2.0920253641002086E8 ; 2.1792587706301217E9 ; 0.0
19 ; 1.2435663581444342E7 ; 1.6148715437740073E8 ; 2.2162401265837592E8 ; 2.3350325237773004E9 ; 0.0
20 ; 1.2451134495181264E7 ; 1.6750958764223143E8 ; 2.3405967623982027E8 ; 2.496519678154701E9 ; 0.0
21 ; 1.2467756968465272E7 ; 1.7384104530705664E8 ; 2.4651081073500153E8 ; 2.6640292657969327E9 ; 0.0
22 ; 1.2477324130404802E7 ; 1.8048151920809084E8 ; 2.589785677034668E8 ; 2.837870311103989E9 ; 0.0
23 ; 1.2494581104934227E7 ; 1.8743100071903396E8 ; 2.714558918338716E8 ; 3.01835183031208E9 ; 0.0
24 ; 1.251016430502781E7 ; 1.9468948081788844E8 ; 2.839504729388058E8 ; 3.2057828310311136E9 ; 0.0
25 ; 1.2523179099814752E7 ; 2.0094499105110788E8 ; 2.964606372438336E8 ; 3.400472311849002E9 ; 0.0
26 ; 1.2533019395430168E7 ; 2.0095106963470873E8 ; 3.089838163436484E8 ; 3.60141730290011E9 ; 0.0
27 ; 1.2550109400607212E7 ; 2.0095747604087105E8 ; 3.215168357390785E8 ; 3.8023683725348186E9 ; 0.0
28 ; 1.2563498850339202E7 ; 2.0096420030325556E8 ; 3.3406694513968575E8 ; 4.00332584857569E9 ; 0.0
29 ; 1.2578349726729248E7 ; 2.0097123236514148E8 ; 3.466304439900249E8 ; 4.2042900488789454E9 ; 0.0
30 ; 1.2592897708844535E7 ; 2.009785621302992E8 ; 3.592087937167542E8 ; 4.405261281244087E9 ; 0.0
31 ; 1.2605384154088315E7 ; 2.0098617950959745E8 ; 3.7180169142559874E8 ; 4.606239843374387E9 ; 0.0
32 ; 1.261620542324076E7 ; 2.0099407446321124E8 ; 3.8440707557968706E8 ; 4.807226022883985E9 ; 0.0
33 ; 1.2631371498918543E7 ; 2.0100223703839663E8 ; 3.9702328100292784E8 ; 5.008220097347196E9 ; 0.0
34 ; 1.2642400081093965E7 ; 2.010106574028814E8 ; 4.096546525018464E8 ; 5.209222334385592E9 ; 0.0
35 ; 1.2652621746182892E7 ; 2.0101932587399244E8 ; 4.2229705258294034E8 ; 5.410232991788474E9 ; 0.0
36 ; 1.266162315266825E7 ; 2.010282329436965E8 ; 4.3494967432912326E8 ; 5.611252317662466E9 ; 0.0
37 ; 1.2676451627513949E7 ; 2.0103736929977405E8 ; 4.476112974817915E8 ; 5.812280550606163E9 ; 0.0
38 ; 1.2684523913747301E7 ; 2.010467258433774E8 ; 4.6028774910930544E8 ; 6.013317919905937E9 ; 0.0
39 ; 1.269508453547071E7 ; 2.0105629370324463E8 ; 4.7297227302305275E8 ; 6.214364645749314E9 ; 0.0
40 ; 1.2706181926445672E7 ; 2.0106606424685144E8 ; 4.856673575585235E8 ; 6.4154209394525585E9 ; 0.0
41 ; 1.2716363910214553E7 ; 2.0107602908878773E8 ; 4.9837353948496914E8 ; 6.6164870036994095E9 ; 0.0
42 ; 1.2722739068194518E7 ; 2.0108618009664094E8 ; 5.110899033951837E8 ; 6.8175630327881975E9 ; 0.0
43 ; 1.273127829815861E7 ; 2.010965093946622E8 ; 5.238126424633782E8 ; 7.018649212884838E9 ; 0.0
44 ; 1.2738598142653683E7 ; 2.0110700936547735E8 ; 5.365439207615368E8 ; 7.2197457222795E9 ; 0.0
45 ; 1.2744705793551134E7 ; 2.0111767265009183E8 ; 5.492825189041904E8 ; 7.420852731644978E9 ; 0.0
46 ; 1.2751047584430223E7 ; 2.0112849214642122E8 ; 5.620272246977415E8 ; 7.62197040429507E9 ; 0.0
47 ; 1.2756671882831223E7 ; 2.0113946100656113E8 ; 5.747782722821717E8 ; 7.823098896441491E9 ; 0.0
48 ; 1.2760975833695954E7 ; 2.01150572632993E8 ; 5.87534944165003E8 ; 8.024238357448052E9 ; 0.0
49 ; 1.2766116528113762E7 ; 2.011618206739029E8 ; 6.00295919998699E8 ; 8.225388930081045E9 ; 0.0
50 ; 1.2770063590019276E7 ; 2.0117319901777366E8 ; 6.130620365268127E8 ; 8.426550750754948E9 ; 0.0
51 ; 1.2769515826179296E7 ; 2.011847017873933E8 ; 6.258321001168319E8 ; 8.627723949772722E9 ; 0.0
52 ; 1.277605583095726E7 ; 2.0119632333340585E8 ; 6.386016159430112E8 ; 8.828908651560116E9 ; 0.0
53 ; 1.2778843996476054E7 ; 2.0120805822751653E8 ; 6.513776717739685E8 ; 9.030104974893522E9 ; 0.0
54 ; 1.2780693620710343E7 ; 2.012199012554484E8 ; 6.641565157704445E8 ; 9.231313033121038E9 ; 0.0
55 ; 1.278717945759385E7 ; 2.0123184740973526E8 ; 6.769372093911549E8 ; 9.432532934376488E9 ; 0.0
56 ; 1.2789608241475651E7 ; 2.0124389188242298E8 ; 6.897243888487487E8 ; 9.633764781786222E9 ; 0.0
57 ; 1.2793758635290721E7 ; 2.0125603005774197E8 ; 7.025139970902244E8 ; 9.835008673668646E9 ; 0.0
58 ; 1.279378767602431E7 ; 2.012682575048032E8 ; 7.153077557255151E8 ; 1.0036264703726387E10 ; 0.0
59 ; 1.279609647989869E7 ; 2.0128056997036156E8 ; 7.281015434015394E8 ; 1.023753296123119E10 ; 0.0
60 ; 1.279875161929222E7 ; 2.0129296337168357E8 ; 7.408976398814381E8 ; 1.0438813531201551E10 ; 0.0
61 ; 1.2800691241510967E7 ; 2.0130543378954914E8 ; 7.536963915007304E8 ; 1.0640106494573235E10 ; 0.0
62 ; 1.2803449912532749E7 ; 2.0131797746141142E8 ; 7.664970827422414E8 ; 1.0841411928362783E10 ; 0.0
63 ; 1.2803673892820934E7 ; 2.0133059077473396E8 ; 7.793005326547742E8 ; 1.1042729905824194E10 ; 0.0
64 ; 1.2808004226836124E7 ; 2.0134327026051968E8 ; 7.921042065475951E8 ; 1.1244060496598928E10 ; 0.0
65 ; 1.2809239558495494E7 ; 2.013560125870426E8 ; 8.049122107744312E8 ; 1.1445403766859447E10 ; 0.0
66 ; 1.2810051341083948E7 ; 2.013688145537897E8 ; 8.177214503329268E8 ; 1.164675977944649E10 ; 0.0
67 ; 1.281573921131714E7 ; 2.0138167308561808E8 ; 8.305315016740108E8 ; 1.1848128594000278E10 ; 0.0
68 ; 1.2815190374909505E7 ; 2.0139458522712967E8 ; 8.433472408853279E8 ; 1.2049510267085897E10 ; 0.0
69 ; 1.2815980221433567E7 ; 2.0140754813726398E8 ; 8.561624312602375E8 ; 1.2250904852313026E10 ; 0.0
70 ; 1.2819302382090045E7 ; 2.0142055908410805E8 ; 8.68978411481671E8 ; 1.245231240045029E10 ; 0.0
71 ; 1.2817172517195415E7 ; 2.014336154399207E8 ; 8.817977138637611E8 ; 1.2653732959534399E10 ; 0.0
72 ; 1.2818059392106155E7 ; 2.0144671467636797E8 ; 8.946148863809565E8 ; 1.285516657497432E10 ; 0.0
73 ; 1.2819194246044507E7 ; 2.0145985435996497E8 ; 9.074329457730627E8 ; 1.3056613289650688E10 ; 0.0
74 ; 1.2819722010039773E7 ; 2.014730321477192E8 ; 9.202521400191072E8 ; 1.3258073144010653E10 ; 0.0
75 ; 1.2821002740091622E7 ; 2.0148624578296942E8 ; 9.33071862029147E8 ; 1.3459546176158371E10 ; 0.0
76 ; 1.2820515062412646E7 ; 2.0149949309141415E8 ; 9.458928647692387E8 ; 1.366103242194134E10 ; 0.0
77 ; 1.282251052582628E7 ; 2.015127719773236E8 ; 9.587133798316513E8 ; 1.3862531915032753E10 ; 0.0
78 ; 1.282001455487715E7 ; 2.0152608041992787E8 ; 9.715358903574777E8 ; 1.4064044687010077E10 ; 0.0
79 ; 1.2814888797190674E7 ; 2.0153941646997553E8 ; 9.843559049123548E8 ; 1.4265570767430004E10 ; 0.0
80 ; 1.2812409843167698E7 ; 2.0155277824645507E8 ; 9.971707937095455E8 ; 1.446711018389998E10 ; 0.0
81 ; 1.2808515177522494E7 ; 2.0156616393347332E8 ; 1.0099832035527132E9 ; 1.4668662962146435E10 ; 0.0
82 ; 1.2804232531275628E7 ; 2.0157957177728352E8 ; 1.0227917187302357E9 ; 1.4870229126079908E10 ; 0.0
83 ; 1.2800618950090008E7 ; 2.01593000083457E8 ; 1.0355959512615113E9 ; 1.5071808697857191E10 ; 0.0
84 ; 1.2793430295296546E7 ; 2.0160644721419173E8 ; 1.0483965702116014E9 ; 1.5273401697940647E10 ; 0.0
85 ; 1.279175249684188E7 ; 2.0161991158575207E8 ; 1.0611900005068979E9 ; 1.5475008145154839E10 ; 0.0
86 ; 1.2787368846438041E7 ; 2.0163339166603267E8 ; 1.0739817530037398E9 ; 1.5676628056740591E10 ; 0.0
87 ; 1.278149318310949E7 ; 2.01646885972242E8 ; 1.0867691218501778E9 ; 1.5878261448406624E10 ; 0.0
88 ; 1.2778240395911116E7 ; 2.0166039306869844E8 ; 1.0995506150332873E9 ; 1.6079908334378866E10 ; 0.0
89 ; 1.2772604385935435E7 ; 2.016739115647347E8 ; 1.1123288554291985E9 ; 1.6281568727447565E10 ; 0.0
90 ; 1.2770090518866673E7 ; 2.0168744011270446E8 ; 1.125101459815134E9 ; 1.64832426390123E10 ; 0.0
91 ; 1.2759455293328281E7 ; 2.0170097740608674E8 ; 1.1378715503340008E9 ; 1.6684930079125006E10 ; 0.0
92 ; 1.27601478768329E7 ; 2.0171452217768276E8 ; 1.150631005627329E9 ; 1.6886631056531092E10 ; 0.0
93 ; 1.2757623204114648E7 ; 2.0172807319790098E8 ; 1.163391153504162E9 ; 1.7088345578708775E10 ; 0.0
94 ; 1.27480561954727E7 ; 2.0174162927312595E8 ; 1.1761487767082767E9 ; 1.7290073651906677E10 ; 0.0
95 ; 1.2742092792459494E7 ; 2.0175518924416634E8 ; 1.1888968329037495E9 ; 1.7491815281179802E10 ; 0.0
96 ; 1.2736246960188841E7 ; 2.0176875198477867E8 ; 1.201638925696209E9 ; 1.769357047042397E10 ; 0.0
97 ; 1.2733297826063765E7 ; 2.0178231640026256E8 ; 1.2143751726563978E9 ; 1.789533922240875E10 ; 0.0
98 ; 1.2722598492471874E7 ; 2.01795881426124E8 ; 1.2271084704824617E9 ; 1.809712153880901E10 ; 0.0
99 ; 1.271694354275946E7 ; 2.018094460268033E8 ; 1.2398310689749336E9 ; 1.8298917420235134E10 ; 0.0
100 ; 1.2709625978179397E7 ; 2.0182300919446403E8 ; 1.252548012517693E9 ; 1.8500726866261936E10 ; 0.0
101 ; 1.2704591947851114E7 ; 2.0183656994784033E8 ; 1.2652576384958725E9 ; 1.87025498754564E10 ; 0.0
102 ; 1.2702051403889552E7 ; 2.018501273311394E8 ; 1.2779622304437237E9 ; 1.8904386445404243E10 ; 0.0
103 ; 1.2695460032638213E7 ; 2.0186368041299608E8 ; 1.2906642818476133E9 ; 1.9106236572735382E10 ; 0.0
104 ; 1.2685995704953138E7 ; 2.018772282854777E8 ; 1.3033597418802516E9 ; 1.9308100253148376E10 ; 0.0
105 ; 1.2681077331600847E7 ; 2.0189077006313533E8 ; 1.3160457375852048E9 ; 1.9509977481433853E10 ; 0.0
106 ; 1.2672821454713117E7 ; 2.019043048821005E8 ; 1.3287268149168057E9 ; 1.971186825149699E10 ; 0.0
107 ; 1.2661594928184265E7 ; 2.0191783189922395E8 ; 1.3413996363715189E9 ; 1.991377255637909E10 ; 0.0
108 ; 1.2662635338556526E7 ; 2.0193135029125503E8 ; 1.3540612312997031E9 ; 2.0115690388278313E10 ; 0.0
109 ; 1.2650682967840023E7 ; 2.0194485925405923E8 ; 1.3667238666382596E9 ; 2.031762173856957E10 ; 0.0
110 ; 1.2644079088501588E7 ; 2.01958358001872E8 ; 1.3793745496060996E9 ; 2.0519566597823627E10 ; 0.0
111 ; 1.2635725086545385E7 ; 2.0197184576658738E8 ; 1.3920186286946013E9 ; 2.07215249558255E10 ; 0.0
112 ; 1.2630427335497934E7 ; 2.0198532179707924E8 ; 1.4046543537811468E9 ; 2.0923496801592087E10 ; 0.0
113 ; 1.2621448361542074E7 ; 2.0199878535855353E8 ; 1.4172847811166446E9 ; 2.1125482123389168E10 ; 0.0
114 ; 1.2612999724839978E7 ; 2.020122357319305E8 ; 1.4299062294781866E9 ; 2.1327480908747723E10 ; 0.0
115 ; 1.260757468960679E7 ; 2.0202567221325475E8 ; 1.4425192292030265E9 ; 2.1529493144479652E10 ; 0.0
116 ; 1.2601046058679422E7 ; 2.0203909411313206E8 ; 1.4551268038926334E9 ; 2.1731518816692905E10 ; 0.0
117 ; 1.2590261020970535E7 ; 2.0205250075619167E8 ; 1.4677278499513128E9 ; 2.1933557910806038E10 ; 0.0
118 ; 1.2579124474552345E7 ; 2.020658914805726E8 ; 1.4803181109722834E9 ; 2.213561041156223E10 ; 0.0
119 ; 1.2572242629674198E7 ; 2.0207926563743314E8 ; 1.4928972354468358E9 ; 2.23376763030428E10 ; 0.0
120 ; 1.256334785953059E7 ; 2.0209262259048197E8 ; 1.50546947807651E9 ; 2.2539755568680233E10 ; 0.0
121 ; 1.255203027094518E7 ; 2.0210596171552998E8 ; 1.5180328259360406E9 ; 2.2741848191270714E10 ; 0.0
122 ; 1.254496435504579E7 ; 2.021192824000622E8 ; 1.5305848562069857E9 ; 2.2943954152986244E10 ; 0.0
123 ; 1.2537262369300885E7 ; 2.021325840428281E8 ; 1.5431298205620315E9 ; 2.3146073435386307E10 ; 0.0
124 ; 1.2528827984417498E7 ; 2.021458660534501E8 ; 1.5556670829313323E9 ; 2.3348206019429134E10 ; 0.0
125 ; 1.2523137073953811E7 ; 2.0215912785204884E8 ; 1.5681959109157498E9 ; 2.3550351885482586E10 ; 0.0
126 ; 1.2507862057438005E7 ; 2.0217236886888498E8 ; 1.5807190479897037E9 ; 2.3752511013334633E10 ; 0.0
127 ; 1.2497710867323592E7 ; 2.0218558854401612E8 ; 1.5932269100471416E9 ; 2.3954683382203518E10 ; 0.0
128 ; 1.2490378318021214E7 ; 2.0219878632696858E8 ; 1.6057246209144652E9 ; 2.4156868970747536E10 ; 0.0
129 ; 1.2483049176019536E7 ; 2.022119616764233E8 ; 1.6182149992324865E9 ; 2.4359067757074505E10 ; 0.0
130 ; 1.2466789881132009E7 ; 2.0222511405991486E8 ; 1.630698048408506E9 ; 2.4561279718750927E10 ; 0.0
131 ; 1.245479468911351E7 ; 2.0223824295354322E8 ; 1.643164838289638E9 ; 2.476350483281084E10 ; 0.0
132 ; 1.2439708638270156E7 ; 2.0225134784169802E8 ; 1.6556196329787517E9 ; 2.4965743075764385E10 ; 0.0
133 ; 1.2428689586686732E7 ; 2.0226442821679378E8 ; 1.6680593416170218E9 ; 2.5167994423606083E10 ; 0.0
134 ; 1.241300196818415E7 ; 2.0227748357901666E8 ; 1.6804880312037086E9 ; 2.5370258851822876E10 ; 0.0
135 ; 1.2399835489384938E7 ; 2.0229051343608156E8 ; 1.692901033171893E9 ; 2.5572536335401894E10 ; 0.0
136 ; 1.2383791051180424E7 ; 2.0230351730299914E8 ; 1.7053008686612778E9 ; 2.5774826848837975E10 ; 0.0
137 ; 1.2371873463359298E7 ; 2.023164947018527E8 ; 1.7176846597124581E9 ; 2.5977130366140972E10 ; 0.0
138 ; 1.235220508669925E7 ; 2.0232944516158387E8 ; 1.7300565331758175E9 ; 2.6179446860842823E10 ; 0.0
139 ; 1.2340424017305778E7 ; 2.0234236821778733E8 ; 1.7424087382625167E9 ; 2.6381776306004406E10 ; 0.0
140 ; 1.2328265418099027E7 ; 2.023552634125136E8 ; 1.7547491622798226E9 ; 2.6584118674222195E10 ; 0.0
141 ; 1.2311230796782864E7 ; 2.023681302940802E8 ; 1.7670774276979215E9 ; 2.678647393763471E10 ; 0.0
142 ; 1.2298859749280963E7 ; 2.023809684168898E8 ; 1.7793886584947045E9 ; 2.6988842067928787E10 ; 0.0
143 ; 1.2277312693200747E7 ; 2.023937773412562E8 ; 1.7916875182439854E9 ; 2.7191223036345676E10 ; 0.0
144 ; 1.2267860088441167E7 ; 2.0240655663323712E8 ; 1.8039648309371862E9 ; 2.739361681368693E10 ; 0.0
145 ; 1.2258915911597187E7 ; 2.0241930586447337E8 ; 1.8162326910256274E9 ; 2.7596023370320168E10 ; 0.0
146 ; 1.2243348607816402E7 ; 2.024320246120347E8 ; 1.8284916069372246E9 ; 2.7798442676184643E10 ; 0.0
147 ; 1.2233189232201265E7 ; 2.0244471245827156E8 ; 1.840734955545041E9 ; 2.8000874700796677E10 ; 0.0
148 ; 1.2222276382993054E7 ; 2.0245736899067268E8 ; 1.8529681447772424E9 ; 2.8203319413254948E10 ; 0.0
149 ; 1.2215881709888043E7 ; 2.024699938017282E8 ; 1.8651904211602354E9 ; 2.840577678224562E10 ; 0.0
150 ; 1.2203383296411235E7 ; 2.0248258648879832E8 ; 1.8774063028701234E9 ; 2.8608246776047348E10 ; 0.0
151 ; 1.2191400373314904E7 ; 2.0249514665398663E8 ; 1.8896096861665347E9 ; 2.8810729362536148E10 ; 0.0
152 ; 1.2179437323551076E7 ; 2.0250767390401882E8 ; 1.9018010865398495E9 ; 2.9013224509190136E10 ; 0.0
153 ; 1.2169355550766943E7 ; 2.0252016785012555E8 ; 1.9139805238634007E9 ; 2.9215732183094154E10 ; 0.0
154 ; 1.2157793798690414E7 ; 2.0253262810793027E8 ; 1.9261498794141676E9 ; 2.941825235094428E10 ; 0.0
155 ; 1.2148820354086988E7 ; 2.0254505429734093E8 ; 1.938307673212858E9 ; 2.9620784979052208E10 ; 0.0
156 ; 1.2138338747302633E7 ; 2.025574460424461E8 ; 1.9504564935669448E9 ; 2.982333003334955E10 ; 0.0
157 ; 1.2124418918220555E7 ; 2.0256980297141474E8 ; 1.9625948323142474E9 ; 3.0025887479391994E10 ; 0.0
158 ; 1.211790282541193E7 ; 2.0258212471640006E8 ; 1.974719251232468E9 ; 3.022845728236341E10 ; 0.0
159 ; 1.2104493128129901E7 ; 2.0259441091344664E8 ; 1.98683715405788E9 ; 3.043103940707981E10 ; 0.0
160 ; 1.2091458038439156E7 ; 2.0260666120240137E8 ; 1.99894164718601E9 ; 3.063363381799326E10 ; 0.0
161 ; 1.2084181950923061E7 ; 2.026188752268274E8 ; 2.0110331052244492E9 ; 3.083624047919566E10 ; 0.0
162 ; 1.2069098353077872E7 ; 2.0263105263392165E8 ; 2.0231172871753721E9 ; 3.1038859354422485E10 ; 0.0
163 ; 1.2055632895628469E7 ; 2.0264319307443485E8 ; 2.03518638552845E9 ; 3.1241490407056408E10 ; 0.0
164 ; 1.2046388582903434E7 ; 2.02655296202595E8 ; 2.0472420184240785E9 ; 3.1444133600130844E10 ; 0.0
165 ; 1.2034136180555057E7 ; 2.0266736167603356E8 ; 2.0592884070069818E9 ; 3.164678889633344E10 ; 0.0
166 ; 1.2022372475599624E7 ; 2.0267938915571404E8 ; 2.071322543187537E9 ; 3.184945625800947E10 ; 0.0
167 ; 1.2016069469190005E7 ; 2.026913783058636E8 ; 2.0833449156631365E9 ; 3.2052135647165184E10 ; 0.0
168 ; 1.199999210748329E7 ; 2.0270332879390687E8 ; 2.0953609851323266E9 ; 3.2254827025471046E10 ; 0.0
169 ; 1.1987149393805932E7 ; 2.0271524029040226E8 ; 2.10736097723981E9 ; 3.2457530354264954E10 ; 0.0
170 ; 1.197664854253639E7 ; 2.027271124689806E8 ; 2.119348126633616E9 ; 3.2660245594555355E10 ; 0.0
171 ; 1.1962705868196776E7 ; 2.0273894500628588E8 ; 2.1313247751761525E9 ; 3.2862972707024334E10 ; 0.0
172 ; 1.1952333859152481E7 ; 2.0275073758191827E8 ; 2.1432874810443492E9 ; 3.306571165203062E10 ; 0.0
173 ; 1.194040114531844E7 ; 2.0276248987837914E8 ; 2.1552398149035015E9 ; 3.3268462389612537E10 ; 0.0
174 ; 1.1930424344619315E7 ; 2.0277420158101794E8 ; 2.16718021604882E9 ; 3.3471224879490917E10 ; 0.0
175 ; 1.1923468766760565E7 ; 2.027858723779811E8 ; 2.1791106403934393E9 ; 3.3673999081071934E10 ; 0.0
176 ; 1.1916920446038583E7 ; 2.0279750196016264E8 ; 2.1910341091601996E9 ; 3.3876784953449913E10 ; 0.0
177 ; 1.1913525066596061E7 ; 2.0280909002115667E8 ; 2.2029510296062384E9 ; 3.4079582455410076E10 ; 0.0
178 ; 1.1904173072485615E7 ; 2.0282063625721142E8 ; 2.2148645546728344E9 ; 3.4282391545431232E10 ; 0.0
179 ; 1.1896517496766448E7 ; 2.02832140367185E8 ; 2.22676872774532E9 ; 3.4485212181688446E10 ; 0.0
180 ; 1.1889217651491856E7 ; 2.0284360205250266E8 ; 2.2386652452420864E9 ; 3.468804432205563E10 ; 0.0
181 ; 1.1882644760069884E7 ; 2.0285502101711553E8 ; 2.250554462893578E9 ; 3.489088792410814E10 ; 0.0
182 ; 1.1870725103851834E7 ; 2.0286639696746093E8 ; 2.262437107653648E9 ; 3.509374294512525E10 ; 0.0
183 ; 1.1869745147013368E7 ; 2.0287772961242387E8 ; 2.2743078327574997E9 ; 3.529660934209271E10 ; 0.0
184 ; 1.1862849017827364E7 ; 2.0288901866330007E8 ; 2.286177577904513E9 ; 3.549948707170514E10 ; 0.0
185 ; 1.1852906797999112E7 ; 2.029002638337602E8 ; 2.2980404269223404E9 ; 3.570237609036844E10 ; 0.0
186 ; 1.1849488009906553E7 ; 2.029114648398153E8 ; 2.3098933337203393E9 ; 3.59052763542022E10 ; 0.0
187 ; 1.1839095961472396E7 ; 2.029226213997835E8 ; 2.321742821730246E9 ; 3.6108187819042015E10 ; 0.0
188 ; 1.1831624934064869E7 ; 2.0293373323425788E8 ; 2.3335819176917186E9 ; 3.6311110440441795E10 ; 0.0
189 ; 1.1826340817612829E7 ; 2.029448000660753E8 ; 2.3454135426257834E9 ; 3.6514044173676056E10 ; 0.0
190 ; 1.1822137470555868E7 ; 2.0295582162028655E8 ; 2.357239883443396E9 ; 3.6716988973742134E10 ; 0.0
191 ; 1.18122156202852E7 ; 2.0296679762412733E8 ; 2.369062020913952E9 ; 3.691994479536242E10 ; 0.0
192 ; 1.1801188185319211E7 ; 2.0297772780699024E8 ; 2.380874236534237E9 ; 3.712291159298655E10 ; 0.0
193 ; 1.1798448320628839E7 ; 2.029886119003978E8 ; 2.3926754247195563E9 ; 3.732588932079354E10 ; 0.0
194 ; 1.178940270881502E7 ; 2.0299944963797653E8 ; 2.404473873040185E9 ; 3.752887793269394E10 ; 0.0
195 ; 1.178449168821843E7 ; 2.0301024075543147E8 ; 2.416263275749E9 ; 3.773187738233192E10 ; 0.0
