CSV File for the City 1 on Day 6
1 - Minute m 
2 - Power Consumed at minute m 
3 - Power Produced at minute m 
4 - Energy Consumed since the beginning of the day 
5 - Energy Produced since the beginning of the day 
6 - Energy Lost since the beginning of the day on lines starting from the city
 
0 ; 1.185622723454706E7 ; 1.41184990958059E7 ; 0.0 ; 0.0 ; 0.0
1 ; 1.186911948314392E7 ; 1.41184990958059E7 ; 1.185622723454706E7 ; 1.41184990958059E7 ; 0.0
2 ; 1.1881455378645642E7 ; 1.41184990958059E7 ; 2.3725346717690982E7 ; 2.82369981916118E7 ; 0.0
3 ; 1.1900004924979452E7 ; 1.41184990958059E7 ; 3.5606802096336626E7 ; 4.23554972874177E7 ; 0.0
4 ; 1.1913893223095363E7 ; 1.41184990958059E7 ; 4.750680702131608E7 ; 5.64739963832236E7 ; 0.0
5 ; 1.1933175791861888E7 ; 1.41184990958059E7 ; 5.9420700244411446E7 ; 7.05924954790295E7 ; 0.0
6 ; 1.1963277952401139E7 ; 1.41184990958059E7 ; 7.135387603627333E7 ; 8.47109945748354E7 ; 0.0
7 ; 1.2003722882227786E7 ; 1.41184990958059E7 ; 8.331715398867446E7 ; 9.88294936706413E7 ; 0.0
8 ; 1.2060523384943027E7 ; 1.41184990958059E7 ; 9.532087687090224E7 ; 1.129479927664472E8 ; 0.0
9 ; 1.2149756683047595E7 ; 1.41184990958059E7 ; 1.0738140025584526E8 ; 1.270664918622531E8 ; 0.0
10 ; 1.2282435214356964E7 ; 1.41184990958059E7 ; 1.1953115693889286E8 ; 1.41184990958059E8 ; 0.0
11 ; 1.250220099030484E7 ; 1.41184990958059E7 ; 1.3181359215324982E8 ; 1.5530349005386493E8 ; 0.0
12 ; 1.2846049210406655E7 ; 1.41184990958059E7 ; 1.4431579314355466E8 ; 1.6942198914967084E8 ; 0.0
13 ; 1.3179755393513203E7 ; 1.41184990958059E7 ; 1.5716184235396132E8 ; 1.8354048824547675E8 ; 0.0
14 ; 1.3220287918187836E7 ; 1.41184990958059E7 ; 1.7034159774747452E8 ; 1.9765898734128267E8 ; 0.0
15 ; 1.3235090573747512E7 ; 1.41184990958059E7 ; 1.8356188566566235E8 ; 2.1177748643708858E8 ; 0.0
16 ; 1.324721425713104E7 ; 1.41184990958059E7 ; 1.9679697623940986E8 ; 2.258959855328945E8 ; 0.0
17 ; 1.326220871228689E7 ; 1.41184990958059E7 ; 2.100441904965409E8 ; 2.400144846287004E8 ; 0.0
18 ; 1.3278012904125199E7 ; 1.41184990958059E7 ; 2.233063992088278E8 ; 2.5413298372450632E8 ; 0.0
19 ; 1.3294757945151027E7 ; 1.41184990958059E7 ; 2.36584412112953E8 ; 2.6825148282031223E8 ; 0.0
20 ; 1.330639024242626E7 ; 1.41184990958059E7 ; 2.4987917005810404E8 ; 2.8236998191611814E8 ; 0.0
21 ; 1.332297697602491E7 ; 1.41184990958059E7 ; 2.6318556030053028E8 ; 2.96488481011924E8 ; 0.0
22 ; 1.3342299023880413E7 ; 1.41184990958059E7 ; 2.765085372765552E8 ; 3.106069801077299E8 ; 0.0
23 ; 1.3360383308923297E7 ; 1.41184990958059E7 ; 2.898508363004356E8 ; 3.247254792035358E8 ; 0.0
24 ; 1.337191711794248E7 ; 1.41184990958059E7 ; 3.032112196093589E8 ; 3.388439782993417E8 ; 0.0
25 ; 1.3387790322186941E7 ; 1.41184990958059E7 ; 3.1658313672730136E8 ; 3.5296247739514756E8 ; 0.0
26 ; 1.3405647943285218E7 ; 1.41184990958059E7 ; 3.299709270494883E8 ; 3.6708097649095345E8 ; 0.0
27 ; 1.34176449962683E7 ; 1.41184990958059E7 ; 3.4337657499277353E8 ; 3.811994755867593E8 ; 0.0
28 ; 1.3433104553288182E7 ; 1.41184990958059E7 ; 3.567942199890418E8 ; 3.953179746825652E8 ; 0.0
29 ; 1.3449281282029834E7 ; 1.41184990958059E7 ; 3.7022732454232997E8 ; 4.094364737783711E8 ; 0.0
30 ; 1.3466285413831769E7 ; 1.41184990958059E7 ; 3.836766058243598E8 ; 4.23554972874177E8 ; 0.0
31 ; 1.3478209891806412E7 ; 1.41184990958059E7 ; 3.9714289123819155E8 ; 4.3767347196998286E8 ; 0.0
32 ; 1.3489696736248236E7 ; 1.41184990958059E7 ; 4.1062110112999797E8 ; 4.5179197106578875E8 ; 0.0
33 ; 1.3503605238640828E7 ; 1.41184990958059E7 ; 4.241107978662462E8 ; 4.659104701615946E8 ; 0.0
34 ; 1.3516281282431185E7 ; 1.41184990958059E7 ; 4.3761440310488707E8 ; 4.800289692574005E8 ; 0.0
35 ; 1.3528294476783026E7 ; 1.41184990958059E7 ; 4.5113068438731825E8 ; 4.941474683532064E8 ; 0.0
36 ; 1.3541942282804674E7 ; 1.41184990958059E7 ; 4.646589788641013E8 ; 5.082659674490123E8 ; 0.0
37 ; 1.3557037461485945E7 ; 1.41184990958059E7 ; 4.7820092114690596E8 ; 5.2238446654481816E8 ; 0.0
38 ; 1.3563822929823313E7 ; 1.41184990958059E7 ; 4.917579586083919E8 ; 5.3650296564062405E8 ; 0.0
39 ; 1.3579245210582508E7 ; 1.41184990958059E7 ; 5.053217815382152E8 ; 5.506214647364299E8 ; 0.0
40 ; 1.3589988061076403E7 ; 1.41184990958059E7 ; 5.189010267487977E8 ; 5.647399638322358E8 ; 0.0
41 ; 1.3596029942623151E7 ; 1.41184990958059E7 ; 5.324910148098741E8 ; 5.788584629280417E8 ; 0.0
42 ; 1.3607393700121226E7 ; 1.41184990958059E7 ; 5.460870447524973E8 ; 5.929769620238476E8 ; 0.0
43 ; 1.3615726369980004E7 ; 1.41184990958059E7 ; 5.596944384526186E8 ; 6.070954611196535E8 ; 0.0
44 ; 1.3621826626672313E7 ; 1.41184990958059E7 ; 5.733101648225986E8 ; 6.212139602154593E8 ; 0.0
45 ; 1.3629252142860875E7 ; 1.41184990958059E7 ; 5.869319914492708E8 ; 6.353324593112652E8 ; 0.0
46 ; 1.363695221140928E7 ; 1.41184990958059E7 ; 6.005612435921317E8 ; 6.494509584070711E8 ; 0.0
47 ; 1.3641261078271681E7 ; 1.41184990958059E7 ; 6.141981958035411E8 ; 6.63569457502877E8 ; 0.0
48 ; 1.3645627380245876E7 ; 1.41184990958059E7 ; 6.278394568818127E8 ; 6.776879565986829E8 ; 0.0
49 ; 1.365659777955204E7 ; 1.41184990958059E7 ; 6.414850842620586E8 ; 6.918064556944888E8 ; 0.0
50 ; 1.3662239237651506E7 ; 1.41184990958059E7 ; 6.551416820416106E8 ; 7.059249547902946E8 ; 0.0
51 ; 1.3664141442765942E7 ; 1.41184990958059E7 ; 6.688039212792621E8 ; 7.200434538861005E8 ; 0.0
52 ; 1.3664448924842173E7 ; 1.41184990958059E7 ; 6.82468062722028E8 ; 7.341619529819064E8 ; 0.0
53 ; 1.3669465580887722E7 ; 1.41184990958059E7 ; 6.961325116468701E8 ; 7.482804520777123E8 ; 0.0
54 ; 1.3673183820201939E7 ; 1.41184990958059E7 ; 7.098019772277578E8 ; 7.623989511735182E8 ; 0.0
55 ; 1.3676645184647646E7 ; 1.41184990958059E7 ; 7.234751610479598E8 ; 7.765174502693241E8 ; 0.0
56 ; 1.3679708358386945E7 ; 1.41184990958059E7 ; 7.371518062326075E8 ; 7.9063594936513E8 ; 0.0
57 ; 1.3684994204973688E7 ; 1.41184990958059E7 ; 7.508315145909945E8 ; 8.047544484609358E8 ; 0.0
58 ; 1.3684438691822648E7 ; 1.41184990958059E7 ; 7.645165087959682E8 ; 8.188729475567417E8 ; 0.0
59 ; 1.369284908999453E7 ; 1.41184990958059E7 ; 7.782009474877908E8 ; 8.329914466525476E8 ; 0.0
60 ; 1.3693818326884693E7 ; 1.41184990958059E7 ; 7.918937965777854E8 ; 8.471099457483535E8 ; 0.0
61 ; 1.369513260665339E7 ; 1.41184990958059E7 ; 8.055876149046701E8 ; 8.612284448441594E8 ; 0.0
62 ; 1.369629577949967E7 ; 1.41184990958059E7 ; 8.192827475113235E8 ; 8.753469439399652E8 ; 0.0
63 ; 1.3699778698684696E7 ; 1.41184990958059E7 ; 8.329790432908231E8 ; 8.894654430357711E8 ; 0.0
64 ; 1.3702204244903391E7 ; 1.41184990958059E7 ; 8.466788219895078E8 ; 9.03583942131577E8 ; 0.0
65 ; 1.3703911055150868E7 ; 1.41184990958059E7 ; 8.603810262344112E8 ; 9.177024412273829E8 ; 0.0
66 ; 1.3708050157025252E7 ; 1.41184990958059E7 ; 8.740849372895621E8 ; 9.318209403231888E8 ; 0.0
67 ; 1.3710775288791547E7 ; 1.41184990958059E7 ; 8.877929874465873E8 ; 9.459394394189947E8 ; 0.0
68 ; 1.3709801926621012E7 ; 1.41184990958059E7 ; 9.015037627353789E8 ; 9.600579385148005E8 ; 0.0
69 ; 1.3709355966418453E7 ; 1.41184990958059E7 ; 9.152135646619998E8 ; 9.741764376106064E8 ; 0.0
70 ; 1.3711860183446897E7 ; 1.41184990958059E7 ; 9.289229206284183E8 ; 9.882949367064123E8 ; 0.0
71 ; 1.3717033035347752E7 ; 1.41184990958059E7 ; 9.426347808118652E8 ; 1.0024134358022182E9 ; 0.0
72 ; 1.371467353696179E7 ; 1.41184990958059E7 ; 9.563518138472129E8 ; 1.0165319348980241E9 ; 0.0
73 ; 1.3719204441177826E7 ; 1.41184990958059E7 ; 9.700664873841747E8 ; 1.03065043399383E9 ; 0.0
74 ; 1.371781253753172E7 ; 1.41184990958059E7 ; 9.837856918253525E8 ; 1.0447689330896358E9 ; 0.0
75 ; 1.3718275585285278E7 ; 1.41184990958059E7 ; 9.975035043628843E8 ; 1.0588874321854417E9 ; 0.0
76 ; 1.3718359788771253E7 ; 1.41184990958059E7 ; 1.0112217799481696E9 ; 1.0730059312812476E9 ; 0.0
77 ; 1.3719813531322246E7 ; 1.41184990958059E7 ; 1.0249401397369409E9 ; 1.0871244303770535E9 ; 0.0
78 ; 1.3715107841231942E7 ; 1.41184990958059E7 ; 1.0386599532682631E9 ; 1.1012429294728594E9 ; 0.0
79 ; 1.3712567656870529E7 ; 1.41184990958059E7 ; 1.052375061109495E9 ; 1.1153614285686653E9 ; 0.0
80 ; 1.3708045902199827E7 ; 1.41184990958059E7 ; 1.0660876287663655E9 ; 1.1294799276644711E9 ; 0.0
81 ; 1.3704830902040409E7 ; 1.41184990958059E7 ; 1.0797956746685653E9 ; 1.143598426760277E9 ; 0.0
82 ; 1.3703794553730309E7 ; 1.41184990958059E7 ; 1.0935005055706058E9 ; 1.157716925856083E9 ; 0.0
83 ; 1.3698571493932135E7 ; 1.41184990958059E7 ; 1.107204300124336E9 ; 1.1718354249518888E9 ; 0.0
84 ; 1.36922549967917E7 ; 1.41184990958059E7 ; 1.1209028716182683E9 ; 1.1859539240476947E9 ; 0.0
85 ; 1.3688360456849733E7 ; 1.41184990958059E7 ; 1.1345951266150599E9 ; 1.2000724231435006E9 ; 0.0
86 ; 1.3684035272286883E7 ; 1.41184990958059E7 ; 1.1482834870719097E9 ; 1.2141909222393064E9 ; 0.0
87 ; 1.3675306929310676E7 ; 1.41184990958059E7 ; 1.1619675223441966E9 ; 1.2283094213351123E9 ; 0.0
88 ; 1.3671067755696127E7 ; 1.41184990958059E7 ; 1.175642829273507E9 ; 1.2424279204309182E9 ; 0.0
89 ; 1.3665557632066004E7 ; 1.41184990958059E7 ; 1.1893138970292032E9 ; 1.256546419526724E9 ; 0.0
90 ; 1.3663683402970858E7 ; 1.41184990958059E7 ; 1.2029794546612692E9 ; 1.27066491862253E9 ; 0.0
91 ; 1.3655073596012898E7 ; 1.41184990958059E7 ; 1.21664313806424E9 ; 1.2847834177183359E9 ; 0.0
92 ; 1.3648635700024923E7 ; 1.41184990958059E7 ; 1.2302982116602528E9 ; 1.2989019168141418E9 ; 0.0
93 ; 1.3650057961905777E7 ; 1.41184990958059E7 ; 1.2439468473602777E9 ; 1.3130204159099476E9 ; 0.0
94 ; 1.3640770027067637E7 ; 1.41184990958059E7 ; 1.2575969053221834E9 ; 1.3271389150057535E9 ; 0.0
95 ; 1.3634828488610381E7 ; 1.41184990958059E7 ; 1.271237675349251E9 ; 1.3412574141015594E9 ; 0.0
96 ; 1.362936081925869E7 ; 1.41184990958059E7 ; 1.2848725038378613E9 ; 1.3553759131973653E9 ; 0.0
97 ; 1.3623331687263988E7 ; 1.41184990958059E7 ; 1.29850186465712E9 ; 1.3694944122931712E9 ; 0.0
98 ; 1.3618051308142733E7 ; 1.41184990958059E7 ; 1.312125196344384E9 ; 1.383612911388977E9 ; 0.0
99 ; 1.3614112376526648E7 ; 1.41184990958059E7 ; 1.3257432476525266E9 ; 1.397731410484783E9 ; 0.0
100 ; 1.3603078219536243E7 ; 1.41184990958059E7 ; 1.3393573600290532E9 ; 1.4118499095805888E9 ; 0.0
101 ; 1.3601068155336553E7 ; 1.41184990958059E7 ; 1.3529604382485895E9 ; 1.4259684086763947E9 ; 0.0
102 ; 1.3592463710474927E7 ; 1.41184990958059E7 ; 1.3665615064039261E9 ; 1.4400869077722006E9 ; 0.0
103 ; 1.3584931613538478E7 ; 1.41184990958059E7 ; 1.380153970114401E9 ; 1.4542054068680065E9 ; 0.0
104 ; 1.3577033488344489E7 ; 1.41184990958059E7 ; 1.3937389017279396E9 ; 1.4683239059638124E9 ; 0.0
105 ; 1.3572524818765718E7 ; 1.41184990958059E7 ; 1.407315935216284E9 ; 1.4824424050596182E9 ; 0.0
106 ; 1.3561481349997047E7 ; 1.41184990958059E7 ; 1.4208884600350497E9 ; 1.496560904155424E9 ; 0.0
107 ; 1.3553717789530693E7 ; 1.41184990958059E7 ; 1.4344499413850467E9 ; 1.51067940325123E9 ; 0.0
108 ; 1.355011368122225E7 ; 1.41184990958059E7 ; 1.4480036591745775E9 ; 1.524797902347036E9 ; 0.0
109 ; 1.3537759032933803E7 ; 1.41184990958059E7 ; 1.4615537728557997E9 ; 1.5389164014428418E9 ; 0.0
110 ; 1.353245475083597E7 ; 1.41184990958059E7 ; 1.4750915318887334E9 ; 1.5530349005386477E9 ; 0.0
111 ; 1.3527777118212499E7 ; 1.41184990958059E7 ; 1.4886239866395693E9 ; 1.5671533996344535E9 ; 0.0
112 ; 1.351422214478099E7 ; 1.41184990958059E7 ; 1.5021517637577817E9 ; 1.5812718987302594E9 ; 0.0
113 ; 1.3507982882694935E7 ; 1.41184990958059E7 ; 1.5156659859025626E9 ; 1.5953903978260653E9 ; 0.0
114 ; 1.3498084164599722E7 ; 1.41184990958059E7 ; 1.5291739687852576E9 ; 1.6095088969218712E9 ; 0.0
115 ; 1.3493096581163112E7 ; 1.41184990958059E7 ; 1.5426720529498572E9 ; 1.623627396017677E9 ; 0.0
116 ; 1.348143198778477E7 ; 1.41184990958059E7 ; 1.5561651495310204E9 ; 1.637745895113483E9 ; 0.0
117 ; 1.3475936828983447E7 ; 1.41184990958059E7 ; 1.5696465815188053E9 ; 1.6518643942092888E9 ; 0.0
118 ; 1.3466602371415183E7 ; 1.41184990958059E7 ; 1.5831225183477888E9 ; 1.6659828933050947E9 ; 0.0
119 ; 1.3454419947394881E7 ; 1.41184990958059E7 ; 1.596589120719204E9 ; 1.6801013924009006E9 ; 0.0
120 ; 1.3446352491270483E7 ; 1.41184990958059E7 ; 1.6100435406665988E9 ; 1.6942198914967065E9 ; 0.0
121 ; 1.3438636561663797E7 ; 1.41184990958059E7 ; 1.6234898931578693E9 ; 1.7083383905925124E9 ; 0.0
122 ; 1.3428013442308104E7 ; 1.41184990958059E7 ; 1.6369285297195332E9 ; 1.7224568896883183E9 ; 0.0
123 ; 1.341556245058654E7 ; 1.41184990958059E7 ; 1.6503565431618414E9 ; 1.7365753887841241E9 ; 0.0
124 ; 1.3408382075035835E7 ; 1.41184990958059E7 ; 1.663772105612428E9 ; 1.75069388787993E9 ; 0.0
125 ; 1.3400260497252315E7 ; 1.41184990958059E7 ; 1.6771804876874638E9 ; 1.764812386975736E9 ; 0.0
126 ; 1.3387106292557158E7 ; 1.41184990958059E7 ; 1.690580748184716E9 ; 1.7789308860715418E9 ; 0.0
127 ; 1.3381138606750088E7 ; 1.41184990958059E7 ; 1.7039678544772732E9 ; 1.7930493851673477E9 ; 0.0
128 ; 1.3368113052803349E7 ; 1.41184990958059E7 ; 1.7173489930840232E9 ; 1.8071678842631536E9 ; 0.0
129 ; 1.335649795053516E7 ; 1.41184990958059E7 ; 1.7307171061368265E9 ; 1.8212863833589594E9 ; 0.0
130 ; 1.3346586403672187E7 ; 1.41184990958059E7 ; 1.7440736040873616E9 ; 1.8354048824547653E9 ; 0.0
131 ; 1.3329787662249587E7 ; 1.41184990958059E7 ; 1.7574201904910338E9 ; 1.8495233815505712E9 ; 0.0
132 ; 1.3315361435865406E7 ; 1.41184990958059E7 ; 1.7707499781532834E9 ; 1.863641880646377E9 ; 0.0
133 ; 1.3297153123751743E7 ; 1.41184990958059E7 ; 1.7840653395891488E9 ; 1.877760379742183E9 ; 0.0
134 ; 1.328682543282537E7 ; 1.41184990958059E7 ; 1.7973624927129004E9 ; 1.8918788788379889E9 ; 0.0
135 ; 1.3269936355791286E7 ; 1.41184990958059E7 ; 1.8106493181457257E9 ; 1.9059973779337947E9 ; 0.0
136 ; 1.3253025653425463E7 ; 1.41184990958059E7 ; 1.823919254501517E9 ; 1.9201158770296006E9 ; 0.0
137 ; 1.3242631138837354E7 ; 1.41184990958059E7 ; 1.8371722801549425E9 ; 1.9342343761254065E9 ; 0.0
138 ; 1.3223950543604191E7 ; 1.41184990958059E7 ; 1.8504149112937799E9 ; 1.9483528752212124E9 ; 0.0
139 ; 1.320653089097872E7 ; 1.41184990958059E7 ; 1.863638861837384E9 ; 1.9624713743170183E9 ; 0.0
140 ; 1.318991293650169E7 ; 1.41184990958059E7 ; 1.8768453927283628E9 ; 1.9765898734128242E9 ; 0.0
141 ; 1.3174343944473045E7 ; 1.41184990958059E7 ; 1.8900353056648645E9 ; 1.99070837250863E9 ; 0.0
142 ; 1.3163637188912235E7 ; 1.41184990958059E7 ; 1.9032096496093376E9 ; 2.004826871604436E9 ; 0.0
143 ; 1.3144650271267459E7 ; 1.41184990958059E7 ; 1.9163732867982497E9 ; 2.0189453707002418E9 ; 0.0
144 ; 1.3126375276279394E7 ; 1.41184990958059E7 ; 1.9295179370695171E9 ; 2.0330638697960477E9 ; 0.0
145 ; 1.311717663200394E7 ; 1.41184990958059E7 ; 1.9426443123457966E9 ; 2.0471823688918536E9 ; 0.0
146 ; 1.3103345228262957E7 ; 1.41184990958059E7 ; 1.9557614889778006E9 ; 2.0613008679876595E9 ; 0.0
147 ; 1.3090876147134107E7 ; 1.41184990958059E7 ; 1.9688648342060635E9 ; 2.0754193670834653E9 ; 0.0
148 ; 1.308257563693994E7 ; 1.41184990958059E7 ; 1.9819557103531976E9 ; 2.0895378661792712E9 ; 0.0
149 ; 1.3070884140747404E7 ; 1.41184990958059E7 ; 1.9950382859901376E9 ; 2.103656365275077E9 ; 0.0
150 ; 1.3061111522287464E7 ; 1.41184990958059E7 ; 2.008109170130885E9 ; 2.117774864370883E9 ; 0.0
151 ; 1.3046295055603927E7 ; 1.41184990958059E7 ; 2.0211702816531723E9 ; 2.1318933634666889E9 ; 0.0
152 ; 1.3035020429188954E7 ; 1.41184990958059E7 ; 2.0342165767087762E9 ; 2.1460118625624948E9 ; 0.0
153 ; 1.3028367637402862E7 ; 1.41184990958059E7 ; 2.0472515971379652E9 ; 2.160130361658301E9 ; 0.0
154 ; 1.3011042255888673E7 ; 1.41184990958059E7 ; 2.060279964775368E9 ; 2.174248860754107E9 ; 0.0
155 ; 1.3004530156493952E7 ; 1.41184990958059E7 ; 2.0732910070312567E9 ; 2.188367359849913E9 ; 0.0
156 ; 1.2988928424966453E7 ; 1.41184990958059E7 ; 2.0862955371877506E9 ; 2.2024858589457192E9 ; 0.0
157 ; 1.2976596830733094E7 ; 1.41184990958059E7 ; 2.099284465612717E9 ; 2.2166043580415254E9 ; 0.0
158 ; 1.2966347057042133E7 ; 1.41184990958059E7 ; 2.11226106244345E9 ; 2.2307228571373315E9 ; 0.0
159 ; 1.295185776295603E7 ; 1.41184990958059E7 ; 2.125227409500492E9 ; 2.2448413562331376E9 ; 0.0
160 ; 1.2943134324077347E7 ; 1.41184990958059E7 ; 2.1381792672634482E9 ; 2.2589598553289437E9 ; 0.0
161 ; 1.2931081643654909E7 ; 1.41184990958059E7 ; 2.1511224015875254E9 ; 2.27307835442475E9 ; 0.0
162 ; 1.2921505353707554E7 ; 1.41184990958059E7 ; 2.16405348323118E9 ; 2.287196853520556E9 ; 0.0
163 ; 1.2906871148416305E7 ; 1.41184990958059E7 ; 2.176974988584888E9 ; 2.301315352616362E9 ; 0.0
164 ; 1.2896030833033225E7 ; 1.41184990958059E7 ; 2.1898818597333045E9 ; 2.315433851712168E9 ; 0.0
165 ; 1.2884317483946329E7 ; 1.41184990958059E7 ; 2.2027778905663376E9 ; 2.3295523508079743E9 ; 0.0
166 ; 1.2871376706100479E7 ; 1.41184990958059E7 ; 2.215662208050284E9 ; 2.3436708499037805E9 ; 0.0
167 ; 1.2860036678661559E7 ; 1.41184990958059E7 ; 2.2285335847563844E9 ; 2.3577893489995866E9 ; 0.0
168 ; 1.2845639268397136E7 ; 1.41184990958059E7 ; 2.2413936214350457E9 ; 2.3719078480953927E9 ; 0.0
169 ; 1.2833917615987197E7 ; 1.41184990958059E7 ; 2.254239260703443E9 ; 2.386026347191199E9 ; 0.0
170 ; 1.2824333208615333E7 ; 1.41184990958059E7 ; 2.2670731783194304E9 ; 2.400144846287005E9 ; 0.0
171 ; 1.2809931255600642E7 ; 1.41184990958059E7 ; 2.2798975115280457E9 ; 2.414263345382811E9 ; 0.0
172 ; 1.2797956188278267E7 ; 1.41184990958059E7 ; 2.292707442783646E9 ; 2.428381844478617E9 ; 0.0
173 ; 1.2786540449998504E7 ; 1.41184990958059E7 ; 2.3055053989719243E9 ; 2.4425003435744233E9 ; 0.0
174 ; 1.2778353059383053E7 ; 1.41184990958059E7 ; 2.3182919394219227E9 ; 2.4566188426702294E9 ; 0.0
175 ; 1.277188311735372E7 ; 1.41184990958059E7 ; 2.3310702924813056E9 ; 2.4707373417660356E9 ; 0.0
176 ; 1.2763189539094407E7 ; 1.41184990958059E7 ; 2.3438421755986595E9 ; 2.4848558408618417E9 ; 0.0
177 ; 1.2753337234860651E7 ; 1.41184990958059E7 ; 2.356605365137754E9 ; 2.498974339957648E9 ; 0.0
178 ; 1.27437126862382E7 ; 1.41184990958059E7 ; 2.3693587023726144E9 ; 2.513092839053454E9 ; 0.0
179 ; 1.273998449228671E7 ; 1.41184990958059E7 ; 2.3821024150588527E9 ; 2.52721133814926E9 ; 0.0
180 ; 1.2732362451650476E7 ; 1.41184990958059E7 ; 2.3948423995511394E9 ; 2.541329837245066E9 ; 0.0
181 ; 1.2722508559429716E7 ; 1.41184990958059E7 ; 2.40757476200279E9 ; 2.5554483363408723E9 ; 0.0
182 ; 1.2714236543061228E7 ; 1.41184990958059E7 ; 2.4202972705622196E9 ; 2.5695668354366784E9 ; 0.0
183 ; 1.2709974754551893E7 ; 1.41184990958059E7 ; 2.433011507105281E9 ; 2.5836853345324845E9 ; 0.0
184 ; 1.2701212530577943E7 ; 1.41184990958059E7 ; 2.445721481859833E9 ; 2.5978038336282907E9 ; 0.0
185 ; 1.2693612906997858E7 ; 1.41184990958059E7 ; 2.458422694390411E9 ; 2.611922332724097E9 ; 0.0
186 ; 1.2685720781923698E7 ; 1.41184990958059E7 ; 2.4711163072974086E9 ; 2.626040831819903E9 ; 0.0
187 ; 1.2678617542702122E7 ; 1.41184990958059E7 ; 2.4838020280793324E9 ; 2.640159330915709E9 ; 0.0
188 ; 1.2668709969087427E7 ; 1.41184990958059E7 ; 2.4964806456220345E9 ; 2.654277830011515E9 ; 0.0
189 ; 1.2662689941837339E7 ; 1.41184990958059E7 ; 2.509149355591122E9 ; 2.6683963291073213E9 ; 0.0
190 ; 1.2653643604282245E7 ; 1.41184990958059E7 ; 2.5218120455329595E9 ; 2.6825148282031274E9 ; 0.0
191 ; 1.2646313720479064E7 ; 1.41184990958059E7 ; 2.534465689137242E9 ; 2.6966333272989335E9 ; 0.0
192 ; 1.2637652229390064E7 ; 1.41184990958059E7 ; 2.547112002857721E9 ; 2.7107518263947396E9 ; 0.0
193 ; 1.2633060218549268E7 ; 1.41184990958059E7 ; 2.559749655087111E9 ; 2.7248703254905457E9 ; 0.0
194 ; 1.26224608726897E7 ; 1.41184990958059E7 ; 2.5723827153056602E9 ; 2.738988824586352E9 ; 0.0
195 ; 1.2618043105370285E7 ; 1.41184990958059E7 ; 2.58500517617835E9 ; 2.753107323682158E9 ; 0.0
196 ; 1.2606980337537192E7 ; 1.41184990958059E7 ; 2.5976232192837205E9 ; 2.767225822777964E9 ; 0.0
197 ; 1.259867961038826E7 ; 1.41184990958059E7 ; 2.610230199621258E9 ; 2.78134432187377E9 ; 0.0
198 ; 1.2592741959433269E7 ; 1.41184990958059E7 ; 2.622828879231646E9 ; 2.7954628209695764E9 ; 0.0
199 ; 1.2586947665102944E7 ; 1.41184990958059E7 ; 2.635421621191079E9 ; 2.8095813200653825E9 ; 0.0
200 ; 1.2580375088195262E7 ; 1.41184990958059E7 ; 2.648008568856182E9 ; 2.8236998191611886E9 ; 0.0
