CSV File for the City 4 on Day 355
1 - Minute m 
2 - Power Consumed at minute m 
3 - Power Produced at minute m 
4 - Energy Consumed since the beginning of the day 
5 - Energy Produced since the beginning of the day 
6 - Energy Lost since the beginning of the day on lines starting from the city
 
0 ; 6823892.09373966 ; 1.0610190919337097E8 ; 0.0 ; 0.0 ; 0.0
1 ; 6829781.406993592 ; 1.0625239714220798E8 ; 6823892.09373966 ; 1.0610190919337097E8 ; 0.0
2 ; 6837708.875092104 ; 1.067119164118577E8 ; 1.3653673500733253E7 ; 2.1235430633557895E8 ; 0.0
3 ; 6844209.934094177 ; 1.0748047158992493E8 ; 2.0491382375825357E7 ; 3.1906622274743664E8 ; 0.0
4 ; 6854832.122267586 ; 1.0855806679527688E8 ; 2.7335592309919532E7 ; 4.265466943373616E8 ; 0.0
5 ; 6867934.498077394 ; 1.0994470565268487E8 ; 3.419042443218712E7 ; 5.3510476113263845E8 ; 0.0
6 ; 6882369.077102667 ; 1.1164039127002987E8 ; 4.105835893026451E7 ; 6.450494667853234E8 ; 0.0
7 ; 6906959.215082351 ; 1.1364512621840036E8 ; 4.794072800736718E7 ; 7.566898580553533E8 ; 0.0
8 ; 6937116.809139515 ; 1.1595891251537585E8 ; 5.4847687222449526E7 ; 8.703349842737536E8 ; 0.0
9 ; 6991229.04201833 ; 1.1858175161175E8 ; 6.178480403158904E7 ; 9.862938967891295E8 ; 0.0
10 ; 7066537.571979976 ; 1.2151364438189566E8 ; 6.877603307360737E7 ; 1.1048756484008794E9 ; 0.0
11 ; 7193001.996687518 ; 1.2475459111792287E8 ; 7.584257064558734E7 ; 1.226389292782775E9 ; 0.0
12 ; 7385280.3710695915 ; 1.2830459152772155E8 ; 8.303557264227486E7 ; 1.3511438839006977E9 ; 0.0
13 ; 7578014.238607124 ; 1.3216364473691887E8 ; 9.042085301334445E7 ; 1.4794484754284194E9 ; 0.0
14 ; 7604090.715462458 ; 1.3633174929472125E8 ; 9.799886725195158E7 ; 1.6116121201653383E9 ; 0.0
15 ; 7609790.956823585 ; 1.4080890318354905E8 ; 1.0560295796741404E8 ; 1.7479438694600596E9 ; 0.0
16 ; 7619534.666400639 ; 1.4559510383231393E8 ; 1.1321274892423762E8 ; 1.8887527726436086E9 ; 0.0
17 ; 7628405.246374867 ; 1.506903481331348E8 ; 1.2083228359063827E8 ; 2.0343478764759226E9 ; 0.0
18 ; 7637730.53527064 ; 1.560946324612404E8 ; 1.2846068883701313E8 ; 2.1850382246090574E9 ; 0.0
19 ; 7643745.912374221 ; 1.6180795269776353E8 ; 1.3609841937228376E8 ; 2.3411328570702977E9 ; 0.0
20 ; 7653581.02404571 ; 1.6783030425509933E8 ; 1.4374216528465798E8 ; 2.502940809768061E9 ; 0.0
21 ; 7663189.731669566 ; 1.7416168210447314E8 ; 1.513957463087037E8 ; 2.6707711140231605E9 ; 0.0
22 ; 7671659.185541687 ; 1.8080208080534667E8 ; 1.5905893604037327E8 ; 2.8449327961276336E9 ; 0.0
23 ; 7683286.074462304 ; 1.8775149453628272E8 ; 1.6673059522591496E8 ; 3.02573487693298E9 ; 0.0
24 ; 7690091.606828739 ; 1.9500991712688684E8 ; 1.7441388130037725E8 ; 3.2134863714692626E9 ; 0.0
25 ; 7697906.721833233 ; 2.0126538298863676E8 ; 1.82103972907206E8 ; 3.4084962885961494E9 ; 0.0
26 ; 7709169.710534641 ; 2.0127143318476743E8 ; 1.8980187962903923E8 ; 3.6097616715847864E9 ; 0.0
27 ; 7715371.432412726 ; 2.012778299881678E8 ; 1.9751104933957386E8 ; 3.8110331047695537E9 ; 0.0
28 ; 7724478.971959456 ; 2.0128456616083488E8 ; 2.0522642077198657E8 ; 4.0123109347577214E9 ; 0.0
29 ; 7734111.069546633 ; 2.012916342792023E8 ; 2.1295089974394602E8 ; 4.213595500918556E9 ; 0.0
30 ; 7739367.715628201 ; 2.0129902676536986E8 ; 2.2068501081349266E8 ; 4.414887135197759E9 ; 0.0
31 ; 7748117.878461715 ; 2.0130673591725665E8 ; 2.2842437852912086E8 ; 4.616186161963128E9 ; 0.0
32 ; 7755950.099415203 ; 2.0131475393748936E8 ; 2.3617249640758258E8 ; 4.817492897880384E9 ; 0.0
33 ; 7763684.68756637 ; 2.0132307296087015E8 ; 2.439284465069978E8 ; 5.018807651817874E9 ; 0.0
34 ; 7769957.705374957 ; 2.013316850803026E8 ; 2.5169213119456416E8 ; 5.220130724778744E9 ; 0.0
35 ; 7781597.435123841 ; 2.013405823710841E8 ; 2.5946208889993912E8 ; 5.421462409859046E9 ; 0.0
36 ; 7786419.1042392785 ; 2.0134975691350308E8 ; 2.6724368633506295E8 ; 5.62280299223013E9 ; 0.0
37 ; 7793974.018239383 ; 2.0135920081370664E8 ; 2.750301054393022E8 ; 5.824152749143633E9 ; 0.0
38 ; 7798717.6382164 ; 2.0136890622282708E8 ; 2.828240794575416E8 ; 6.025511949957339E9 ; 0.0
39 ; 7806553.061414722 ; 2.0137886535437882E8 ; 2.9062279709575796E8 ; 6.226880856180166E9 ; 0.0
40 ; 7811306.748165301 ; 2.0138907049995473E8 ; 2.984293501571727E8 ; 6.428259721534545E9 ; 0.0
41 ; 7817705.3337703375 ; 2.0139951404326668E8 ; 3.06240656905338E8 ; 6.6296487920345E9 ; 0.0
42 ; 7823208.236395706 ; 2.0141018847258875E8 ; 3.140583622391083E8 ; 6.831048306077766E9 ; 0.0
43 ; 7830676.244088214 ; 2.0142108639167166E8 ; 3.2188157047550404E8 ; 7.032458494550355E9 ; 0.0
44 ; 7832781.196630853 ; 2.0143220052920458E8 ; 3.297122467195923E8 ; 7.233879580942026E9 ; 0.0
45 ; 7837476.635755043 ; 2.014435237469073E8 ; 3.375450279162231E8 ; 7.4353117814712305E9 ; 0.0
46 ; 7841088.7238779785 ; 2.014550490463387E8 ; 3.453825045519782E8 ; 7.636755305218138E9 ; 0.0
47 ; 7847612.024762119 ; 2.0146676957451063E8 ; 3.5322359327585614E8 ; 7.838210354264477E9 ; 0.0
48 ; 7850385.234878385 ; 2.0147867862839603E8 ; 3.6107120530061823E8 ; 8.039677123838987E9 ; 0.0
49 ; 7851979.005705636 ; 2.0149076965842018E8 ; 3.689215905354966E8 ; 8.241155802467383E9 ; 0.0
50 ; 7853433.057302221 ; 2.0150303627102253E8 ; 3.7677356954120225E8 ; 8.442646572125804E9 ; 0.0
51 ; 7854918.946995549 ; 2.0151547223037332E8 ; 3.846270025985045E8 ; 8.644149608396826E9 ; 0.0
52 ; 7860910.105756038 ; 2.0152807145932677E8 ; 3.9248192154550004E8 ; 8.8456650806272E9 ; 0.0
53 ; 7861754.304672103 ; 2.0154082803968847E8 ; 4.003428316512561E8 ; 9.047193152086527E9 ; 0.0
54 ; 7864181.009297976 ; 2.01553736211871E8 ; 4.082045859559282E8 ; 9.248733980126215E9 ; 0.0
55 ; 7865821.122961668 ; 2.01566790374007E8 ; 4.160687669652262E8 ; 9.450287716338085E9 ; 0.0
56 ; 7867702.919845972 ; 2.0157998508058456E8 ; 4.239345880881878E8 ; 9.651854506712091E9 ; 0.0
57 ; 7870770.134371598 ; 2.015933150406657E8 ; 4.318022910080338E8 ; 9.853434491792677E9 ; 0.0
58 ; 7871040.318057922 ; 2.0160677511574364E8 ; 4.396730611424054E8 ; 1.0055027806833344E10 ; 0.0
59 ; 7873452.8900098 ; 2.0162036031729034E8 ; 4.475441014604633E8 ; 1.0256634581949087E10 ; 0.0
60 ; 7873797.709601422 ; 2.016340658040414E8 ; 4.554175543504731E8 ; 1.0458254942266378E10 ; 0.0
61 ; 7877727.536232488 ; 2.016478868790615E8 ; 4.632913520600745E8 ; 1.065988900807042E10 ; 0.0
62 ; 7878403.85563028 ; 2.0166181898662946E8 ; 4.71169079596307E8 ; 1.086153689494948E10 ; 0.0
63 ; 7881591.194615526 ; 2.016758577089776E8 ; 4.7904748345193726E8 ; 1.106319871393611E10 ; 0.0
64 ; 7884000.71534297 ; 2.0168999876291806E8 ; 4.869290746465528E8 ; 1.1264874571645086E10 ; 0.0
65 ; 7883480.7434665 ; 2.017042379963832E8 ; 4.948130753618958E8 ; 1.1466564570408005E10 ; 0.0
66 ; 7885323.118512464 ; 2.0171857138490692E8 ; 5.026965561053623E8 ; 1.1668268808404388E10 ; 0.0
67 ; 7884375.70404016 ; 2.0173299502806783E8 ; 5.1058187922387475E8 ; 1.1869987379789295E10 ; 0.0
68 ; 7890375.666738889 ; 2.0174750514591503E8 ; 5.184662549279149E8 ; 1.2071720374817364E10 ; 0.0
69 ; 7887252.310581485 ; 2.017620980753935E8 ; 5.263566305946538E8 ; 1.227346787996328E10 ; 0.0
70 ; 7890865.268725854 ; 2.017767702667843E8 ; 5.342438829052353E8 ; 1.2475229978038673E10 ; 0.0
71 ; 7889157.725792549 ; 2.017915182801728E8 ; 5.421347481739612E8 ; 1.2677006748305458E10 ; 0.0
72 ; 7889321.3233021945 ; 2.0180633878195587E8 ; 5.500239058997537E8 ; 1.287879826658563E10 ; 0.0
73 ; 7890787.271798061 ; 2.0182122854139838E8 ; 5.579132272230558E8 ; 1.3080604605367586E10 ; 0.0
74 ; 7891586.662941653 ; 2.0183618442724645E8 ; 5.658040144948539E8 ; 1.3282425833908985E10 ; 0.0
75 ; 7893812.525489461 ; 2.018512034044046E8 ; 5.736956011577955E8 ; 1.3484262018336231E10 ; 0.0
76 ; 7895286.233708419 ; 2.018662825306824E8 ; 5.81589413683285E8 ; 1.3686113221740635E10 ; 0.0
77 ; 7894902.699405028 ; 2.0188141895361516E8 ; 5.894846999169934E8 ; 1.3887979504271317E10 ; 0.0
78 ; 7892748.9007174 ; 2.018966099073621E8 ; 5.973796026163985E8 ; 1.4089860923224932E10 ; 0.0
79 ; 7890595.92783412 ; 2.019118527096851E8 ; 6.052723515171158E8 ; 1.4291757533132294E10 ; 0.0
80 ; 7888001.011823591 ; 2.0192714475900942E8 ; 6.1316294744495E8 ; 1.4493669385841978E10 ; 0.0
81 ; 7886881.435582969 ; 2.019424835315687E8 ; 6.210509484567735E8 ; 1.4695596530600988E10 ; 0.0
82 ; 7886446.206844333 ; 2.0195786657863393E8 ; 6.289378298923565E8 ; 1.4897539014132557E10 ; 0.0
83 ; 7884316.115222019 ; 2.0197329152382764E8 ; 6.368242760992008E8 ; 1.5099496880711191E10 ; 0.0
84 ; 7879827.707344516 ; 2.0198875606052244E8 ; 6.447085922144228E8 ; 1.530147017223502E10 ; 0.0
85 ; 7876559.303480255 ; 2.0200425794932404E8 ; 6.525884199217674E8 ; 1.5503458928295542E10 ; 0.0
86 ; 7876196.740904876 ; 2.0201979501563737E8 ; 6.604649792252476E8 ; 1.5705463186244865E10 ; 0.0
87 ; 7875939.570405334 ; 2.0203536514731517E8 ; 6.683411759661525E8 ; 1.5907482981260502E10 ; 0.0
88 ; 7871949.133358893 ; 2.020509662923874E8 ; 6.762171155365579E8 ; 1.6109518346407818E10 ; 0.0
89 ; 7868456.635180056 ; 2.0206659645687005E8 ; 6.840890646699167E8 ; 1.6311569312700205E10 ; 0.0
90 ; 7868462.211354609 ; 2.02082253702652E8 ; 6.919575213050969E8 ; 1.6513635909157074E10 ; 0.0
91 ; 7863225.140934753 ; 2.020979361454577E8 ; 6.998259835164515E8 ; 1.6715718162859726E10 ; 0.0
92 ; 7858038.290472496 ; 2.0211364195288396E8 ; 7.076892086573862E8 ; 1.6917816099005184E10 ; 0.0
93 ; 7857871.484309987 ; 2.0212936934250903E8 ; 7.155472469478587E8 ; 1.7119929740958069E10 ; 0.0
94 ; 7854618.9507023115 ; 2.02145116580072E8 ; 7.234051184321687E8 ; 1.732205911030058E10 ; 0.0
95 ; 7852602.233780518 ; 2.0216088197771993E8 ; 7.31259737382871E8 ; 1.752420422688065E10 ; 0.0
96 ; 7847656.311767242 ; 2.0217666389232156E8 ; 7.391123396166515E8 ; 1.7726365108858368E10 ; 0.0
97 ; 7846097.422055996 ; 2.021924607238446E8 ; 7.469599959284188E8 ; 1.792854177275069E10 ; 0.0
98 ; 7842595.390055511 ; 2.0220827091379523E8 ; 7.548060933504747E8 ; 1.8130734233474537E10 ; 0.0
99 ; 7838315.180564954 ; 2.022240929437173E8 ; 7.626486887405303E8 ; 1.8332942504388332E10 ; 0.0
100 ; 7837633.631769039 ; 2.0223992533374944E8 ; 7.704870039210953E8 ; 1.853516659733205E10 ; 0.0
101 ; 7834486.348678843 ; 2.0225576664123788E8 ; 7.783246375528643E8 ; 1.87374065226658E10 ; 0.0
102 ; 7830010.653731047 ; 2.022716154594033E8 ; 7.861591239015431E8 ; 1.8939662289307037E10 ; 0.0
103 ; 7825530.844348318 ; 2.0228747041605935E8 ; 7.939891345552741E8 ; 1.914193390476644E10 ; 0.0
104 ; 7823333.365648874 ; 2.0230333017238122E8 ; 8.018146653996224E8 ; 1.93442213751825E10 ; 0.0
105 ; 7817809.28095991 ; 2.023191934217224E8 ; 8.096379987652713E8 ; 1.954652470535488E10 ; 0.0
106 ; 7814585.7736223955 ; 2.0233505888847783E8 ; 8.174558080462313E8 ; 1.9748843898776604E10 ; 0.0
107 ; 7811678.570881351 ; 2.023509253269912E8 ; 8.252703938198537E8 ; 1.995117895766508E10 ; 0.0
108 ; 7806113.163955543 ; 2.0236679152050576E8 ; 8.33082072390735E8 ; 2.0153529882992073E10 ; 0.0
109 ; 7803121.609825926 ; 2.0238265628015566E8 ; 8.408881855546906E8 ; 2.0355896674512577E10 ; 0.0
110 ; 7799013.806232823 ; 2.0239851844399738E8 ; 8.486913071645166E8 ; 2.0558279330792732E10 ; 0.0
111 ; 7797070.617995633 ; 2.024143768760789E8 ; 8.564903209707494E8 ; 2.076067784923673E10 ; 0.0
112 ; 7790816.092877451 ; 2.0243023046554548E8 ; 8.64287391588745E8 ; 2.096309222611281E10 ; 0.0
113 ; 7788766.851721651 ; 2.024460781257805E8 ; 8.720782076816225E8 ; 2.1165522456578354E10 ; 0.0
114 ; 7782928.916551576 ; 2.0246191879358014E8 ; 8.798669745333441E8 ; 2.1367968534704136E10 ; 0.0
115 ; 7775778.2275119275 ; 2.0247775142836004E8 ; 8.876499034498957E8 ; 2.1570430453497715E10 ; 0.0
116 ; 7773181.366016627 ; 2.024935750113934E8 ; 8.954256816774076E8 ; 2.1772908204926075E10 ; 0.0
117 ; 7767834.450258391 ; 2.0250938854507852E8 ; 9.031988630434242E8 ; 2.197540177993747E10 ; 0.0
118 ; 7762679.271744006 ; 2.025251910522351E8 ; 9.109666974936826E8 ; 2.2177911168482548E10 ; 0.0
119 ; 7757508.537271472 ; 2.025409815754279E8 ; 9.187293767654266E8 ; 2.2380436359534782E10 ; 0.0
120 ; 7755042.041873961 ; 2.0255675917631674E8 ; 9.264868853026981E8 ; 2.258297734111021E10 ; 0.0
121 ; 7749172.7145196805 ; 2.0257252293503165E8 ; 9.342419273445721E8 ; 2.2785534100286526E10 ; 0.0
122 ; 7746063.372311287 ; 2.0258827194957235E8 ; 9.419911000590918E8 ; 2.2988106623221558E10 ; 0.0
123 ; 7739916.55973652 ; 2.0260400533523077E8 ; 9.49737163431403E8 ; 2.319069489517113E10 ; 0.0
124 ; 7735287.074511701 ; 2.02619722224036E8 ; 9.574770799911395E8 ; 2.3393298900506363E10 ; 0.0
125 ; 7729253.511932843 ; 2.0263542176422063E8 ; 9.652123670656512E8 ; 2.35959186227304E10 ; 0.0
126 ; 7726018.226948944 ; 2.026511031197074E8 ; 9.72941620577584E8 ; 2.379855404449462E10 ; 0.0
127 ; 7718314.486252109 ; 2.026667654696156E8 ; 9.80667638804533E8 ; 2.400120514761433E10 ; 0.0
128 ; 7713067.393997631 ; 2.0268240800778648E8 ; 9.883859532907851E8 ; 2.4203871913083946E10 ; 0.0
129 ; 7708428.865861538 ; 2.0269802994232652E8 ; 9.960990206847827E8 ; 2.4406554321091732E10 ; 0.0
130 ; 7701588.417185269 ; 2.0271363049516803E8 ; 1.0038074495506443E9 ; 2.4609252351034058E10 ; 0.0
131 ; 7694449.178511504 ; 2.0272920890164676E8 ; 1.0115090379678296E9 ; 2.4811965981529224E10 ; 0.0
132 ; 7686343.253802317 ; 2.027447644100951E8 ; 1.0192034871463411E9 ; 2.501469519043087E10 ; 0.0
133 ; 7676804.138089655 ; 2.027602962814507E8 ; 1.0268898304001434E9 ; 2.5217439954840965E10 ; 0.0
134 ; 7668485.735853465 ; 2.0277580378887984E8 ; 1.034566634538233E9 ; 2.5420200251122417E10 ; 0.0
135 ; 7662927.597319144 ; 2.0279128621741503E8 ; 1.0422351202740865E9 ; 2.5622976054911297E10 ; 0.0
136 ; 7653605.224675285 ; 2.0280674286360595E8 ; 1.0498980478714056E9 ; 2.582576734112871E10 ; 0.0
137 ; 7644139.86527302 ; 2.0282217303518334E8 ; 1.0575516530960809E9 ; 2.6028574083992317E10 ; 0.0
138 ; 7637517.721150626 ; 2.0283757605073568E8 ; 1.0651957929613539E9 ; 2.62313962570275E10 ; 0.0
139 ; 7628843.80633029 ; 2.0285295123939756E8 ; 1.0728333106825045E9 ; 2.6434233833078236E10 ; 0.0
140 ; 7619762.3514062725 ; 2.0286829794054958E8 ; 1.0804621544888349E9 ; 2.6637086784317635E10 ; 0.0
141 ; 7612492.706662161 ; 2.0288361550352943E8 ; 1.0880819168402412E9 ; 2.6839955082258183E10 ; 0.0
142 ; 7602124.047953404 ; 2.0289890328735343E8 ; 1.0956944095469034E9 ; 2.704283869776171E10 ; 0.0
143 ; 7596138.077781363 ; 2.0291416066044822E8 ; 1.1032965335948567E9 ; 2.7245737601049065E10 ; 0.0
144 ; 7584256.126695018 ; 2.0292938700039247E8 ; 1.1108926716726382E9 ; 2.7448651761709515E10 ; 0.0
145 ; 7582310.935009649 ; 2.0294458169366756E8 ; 1.118476927799333E9 ; 2.7651581148709908E10 ; 0.0
146 ; 7573542.270129536 ; 2.0295974413541773E8 ; 1.1260592387343428E9 ; 2.7854525730403576E10 ; 0.0
147 ; 7567851.446077205 ; 2.0297487372921848E8 ; 1.1336327810044723E9 ; 2.8057485474538994E10 ; 0.0
148 ; 7559540.7684984235 ; 2.029899698868537E8 ; 1.1412006324505494E9 ; 2.826046034826821E10 ; 0.0
149 ; 7555258.785692747 ; 2.030050320281003E8 ; 1.1487601732190478E9 ; 2.8463450318155064E10 ; 0.0
150 ; 7551904.274995174 ; 2.0302005958052114E8 ; 1.1563154320047405E9 ; 2.8666455350183163E10 ; 0.0
151 ; 7544748.823488547 ; 2.0303505197926465E8 ; 1.1638673362797356E9 ; 2.8869475409763683E10 ; 0.0
152 ; 7536736.8784152595 ; 2.030500086668722E8 ; 1.171412085103224E9 ; 2.9072510461742947E10 ; 0.0
153 ; 7530428.704889989 ; 2.0306492909309193E8 ; 1.1789488219816394E9 ; 2.927556047040982E10 ; 0.0
154 ; 7526546.887554795 ; 2.0307981271469912E8 ; 1.1864792506865294E9 ; 2.947862539950291E10 ; 0.0
155 ; 7519080.458971433 ; 2.0309465899532312E8 ; 1.1940057975740843E9 ; 2.968170521221761E10 ; 0.0
156 ; 7512742.048063756 ; 2.0310946740528005E8 ; 1.2015248780330558E9 ; 2.9884799871212933E10 ; 0.0
157 ; 7507446.314043588 ; 2.031242374214117E8 ; 1.2090376200811195E9 ; 3.0087909338618214E10 ; 0.0
158 ; 7503469.899388457 ; 2.0313896852692962E8 ; 1.216545066395163E9 ; 3.0291033576039627E10 ; 0.0
159 ; 7494764.167774634 ; 2.0315366021126494E8 ; 1.2240485362945516E9 ; 3.0494172544566555E10 ; 0.0
160 ; 7487826.049385008 ; 2.0316831196992332E8 ; 1.2315433004623263E9 ; 3.069732620477782E10 ; 0.0
161 ; 7483250.9679537155 ; 2.0318292330434483E8 ; 1.2390311265117114E9 ; 3.0900494516747746E10 ; 0.0
162 ; 7474437.077258364 ; 2.0319749372176862E8 ; 1.246514377479665E9 ; 3.110367744005209E10 ; 0.0
163 ; 7469027.508969679 ; 2.0321202273510244E8 ; 1.2539888145569234E9 ; 3.1306874933773857E10 ; 0.0
164 ; 7461454.852102087 ; 2.0322650986279634E8 ; 1.2614578420658932E9 ; 3.151008695650896E10 ; 0.0
165 ; 7455045.87152998 ; 2.0324095462872085E8 ; 1.2689192969179952E9 ; 3.1713313466371758E10 ; 0.0
166 ; 7450247.050891299 ; 2.0325535656204933E8 ; 1.2763743427895253E9 ; 3.1916554421000477E10 ; 0.0
167 ; 7439888.45573932 ; 2.0326971519714406E8 ; 1.2838245898404167E9 ; 3.2119809777562527E10 ; 0.0
168 ; 7437554.866621941 ; 2.0328403007344654E8 ; 1.291264478296156E9 ; 3.232307949275967E10 ; 0.0
169 ; 7427727.812525461 ; 2.0329830073537117E8 ; 1.298702033162778E9 ; 3.252636352283312E10 ; 0.0
170 ; 7422961.086561754 ; 2.0331252673220265E8 ; 1.3061297609753034E9 ; 3.272966182356849E10 ; 0.0
171 ; 7413657.299965143 ; 2.0332670761799672E8 ; 1.313552722061865E9 ; 3.2932974350300694E10 ; 0.0
172 ; 7408530.178234293 ; 2.0334084295148444E8 ; 1.3209663793618302E9 ; 3.313630105791869E10 ; 0.0
173 ; 7401519.219341222 ; 2.0335493229597932E8 ; 1.3283749095400646E9 ; 3.3339641900870174E10 ; 0.0
174 ; 7398981.005654513 ; 2.0336897521928772E8 ; 1.3357764287594059E9 ; 3.3542996833166153E10 ; 0.0
175 ; 7393321.99586238 ; 2.0338297129362231E8 ; 1.3431754097650604E9 ; 3.374636580838544E10 ; 0.0
176 ; 7388459.815892779 ; 2.0339692009551817E8 ; 1.350568731760923E9 ; 3.394974877967906E10 ; 0.0
177 ; 7386339.821705417 ; 2.0341082120575184E8 ; 1.3579571915768156E9 ; 3.4153145699774582E10 ; 0.0
178 ; 7384597.308173045 ; 2.034246742092628E8 ; 1.365343531398521E9 ; 3.4356556520980335E10 ; 0.0
179 ; 7380026.863738177 ; 2.034384786950778E8 ; 1.372728128706694E9 ; 3.45599811951896E10 ; 0.0
180 ; 7375012.417567525 ; 2.034522342562375E8 ; 1.380108155570432E9 ; 3.4763419673884674E10 ; 0.0
181 ; 7367250.777477073 ; 2.0346594048972553E8 ; 1.3874831679879994E9 ; 3.4966871908140915E10 ; 0.0
182 ; 7367046.498195597 ; 2.0347959699639973E8 ; 1.3948504187654765E9 ; 3.517033784863064E10 ; 0.0
183 ; 7362762.800634016 ; 2.0349320338092586E8 ; 1.402217465263672E9 ; 3.537381744562704E10 ; 0.0
184 ; 7356270.106953637 ; 2.035067592517134E8 ; 1.409580228064306E9 ; 3.5577310649007965E10 ; 0.0
185 ; 7353228.8041130435 ; 2.0352026422085306E8 ; 1.4169364981712596E9 ; 3.578081740825968E10 ; 0.0
186 ; 7344799.629902027 ; 2.03533717904057E8 ; 1.4242897269753728E9 ; 3.598433767248054E10 ; 0.0
187 ; 7346092.958114622 ; 2.035471199206002E8 ; 1.431634526605275E9 ; 3.61878713903846E10 ; 0.0
188 ; 7338754.436967706 ; 2.0356046989326426E8 ; 1.4389806195633895E9 ; 3.63914185103052E10 ; 0.0
189 ; 7336297.482595116 ; 2.0357376744828284E8 ; 1.4463193740003572E9 ; 3.659497898019846E10 ; 0.0
190 ; 7334230.274754301 ; 2.035870122152886E8 ; 1.4536556714829524E9 ; 3.679855274764674E10 ; 0.0
191 ; 7328910.130013124 ; 2.036002038272623E8 ; 1.4609899017577066E9 ; 3.700213975986203E10 ; 0.0
192 ; 7326806.207271646 ; 2.0361334192048305E8 ; 1.4683188118877199E9 ; 3.720573996368929E10 ; 0.0
193 ; 7318460.144479048 ; 2.0362642613448045E8 ; 1.4756456180949914E9 ; 3.740935330560978E10 ; 0.0
194 ; 7315635.381552117 ; 2.0363945611198807E8 ; 1.4829640782394705E9 ; 3.761297973174426E10 ; 0.0
195 ; 7312170.470084049 ; 2.0365243149889848E8 ; 1.4902797136210227E9 ; 3.781661918785625E10 ; 0.0
196 ; 7308603.49896942 ; 2.0366535194421977E8 ; 1.4975918840911067E9 ; 3.802027161935515E10 ; 0.0
197 ; 7304680.484467495 ; 2.036782171000332E8 ; 1.504900487590076E9 ; 3.822393697129937E10 ; 0.0
198 ; 7302028.904545551 ; 2.0369102662145242E8 ; 1.5122051680745435E9 ; 3.842761518839941E10 ; 0.0
199 ; 7296393.537215334 ; 2.0370378016658384E8 ; 1.519507196979089E9 ; 3.863130621502086E10 ; 0.0
200 ; 7288214.943289582 ; 1.84857746860012E8 ; 1.5268035905163043E9 ; 3.883500999518744E10 ; 0.0
201 ; 7286278.610581415 ; 1.5488912475628805E8 ; 1.5340918054595938E9 ; 3.901986774204745E10 ; 0.0
