CSV File for the City 3 on Day 111
1 - Minute m 
2 - Power Consumed at minute m 
3 - Power Produced at minute m 
4 - Energy Consumed since the beginning of the day 
5 - Energy Produced since the beginning of the day 
6 - Energy Lost since the beginning of the day on lines starting from the city
 
0 ; 2401203.872352637 ; 1.055580273100504E8 ; 0.0 ; 0.0 ; 0.0
1 ; 2404802.2111318363 ; 1.0571098391279328E8 ; 2401203.872352637 ; 1.055580273100504E8 ; 0.0
2 ; 2407255.114633481 ; 1.0617272182601002E8 ; 4806006.083484473 ; 2.1126901122284368E8 ; 0.0
3 ; 2409274.611543712 ; 1.0694324244635558E8 ; 7213261.198117954 ; 3.174417330488537E8 ; 0.0
4 ; 2414132.0860966607 ; 1.0802254702435488E8 ; 9622535.809661666 ; 4.243849754952093E8 ; 0.0
5 ; 2419862.3601647005 ; 1.094106366578564E8 ; 1.2036667895758327E7 ; 5.3240752251956415E8 ; 0.0
6 ; 2424556.1678737705 ; 1.111075122861813E8 ; 1.4456530255923027E7 ; 6.418181591774206E8 ; 0.0
7 ; 2433059.6768394 ; 1.1311317468504E8 ; 1.68810864237968E7 ; 7.52925671463602E8 ; 0.0
8 ; 2443074.412889962 ; 1.1542762446228045E8 ; 1.93141461006362E7 ; 8.66038846148642E8 ; 0.0
9 ; 2460794.197935958 ; 1.180508620545227E8 ; 2.175722051352616E7 ; 9.814664706109223E8 ; 0.0
10 ; 2485103.384433538 ; 1.2098288772472227E8 ; 2.4218014711462118E7 ; 1.099517332665445E9 ; 0.0
11 ; 2529168.875796923 ; 1.2422370156069556E8 ; 2.6703118095895655E7 ; 1.2205002203901672E9 ; 0.0
12 ; 2594664.2478660857 ; 1.2777330347462615E8 ; 2.9232286971692577E7 ; 1.344723921950863E9 ; 0.0
13 ; 2654829.6705281776 ; 1.316316932035585E8 ; 3.1826951219558664E7 ; 1.472497225425489E9 ; 0.0
14 ; 2665059.5585642457 ; 1.3579887031087267E8 ; 3.4481780890086845E7 ; 1.6041289186290474E9 ; 0.0
15 ; 2668437.9219229585 ; 1.4027483418872058E8 ; 3.714684044865109E7 ; 1.73992778893992E9 ; 0.0
16 ; 2672386.69847456 ; 1.4505958406139192E8 ; 3.981527837057405E7 ; 1.8802026231286407E9 ; 0.0
17 ; 2675614.826303713 ; 1.5015311898956546E8 ; 4.248766506904861E7 ; 2.0252622071900325E9 ; 0.0
18 ; 2677939.4068427137 ; 1.5555543787539274E8 ; 4.516327989535233E7 ; 2.175415326179598E9 ; 0.0
19 ; 2679741.4176359302 ; 1.6126653946834883E8 ; 4.784121930219504E7 ; 2.330970764054991E9 ; 0.0
20 ; 2684974.0026829145 ; 1.6728642237177876E8 ; 5.0520960719830975E7 ; 2.4922373035233397E9 ; 0.0
21 ; 2689047.0428518853 ; 1.736150850500619E8 ; 5.320593472251389E7 ; 2.6595237258951187E9 ; 0.0
22 ; 2691532.0484608705 ; 1.8025252583631003E8 ; 5.589498176536578E7 ; 2.8331388109451804E9 ; 0.0
23 ; 2694285.576716212 ; 1.8719874294051343E8 ; 5.858651381382665E7 ; 3.0133913367814903E9 ; 0.0
24 ; 2696227.109626253 ; 1.9445373445804596E8 ; 6.1280799390542865E7 ; 3.200590079722004E9 ; 0.0
25 ; 2699738.559633761 ; 2.0070553927662626E8 ; 6.397702650016912E7 ; 3.39504381418005E9 ; 0.0
26 ; 2702471.631034196 ; 2.0070770312217557E8 ; 6.667676505980288E7 ; 3.595749353456676E9 ; 0.0
27 ; 2706517.5856512077 ; 2.0070999309278473E8 ; 6.937923669083709E7 ; 3.7964570565788517E9 ; 0.0
28 ; 2710666.514312137 ; 2.0071240691457203E8 ; 7.208575427648829E7 ; 3.9971670496716366E9 ; 0.0
29 ; 2712415.815017267 ; 2.007149422439611E8 ; 7.479642079080042E7 ; 4.197879456586209E9 ; 0.0
30 ; 2714111.6228183946 ; 2.007175966765919E8 ; 7.750883660581769E7 ; 4.39859439883017E9 ; 0.0
31 ; 2719284.1384532163 ; 2.007203677560475E8 ; 8.022294822863609E7 ; 4.599311995506762E9 ; 0.0
32 ; 2722077.8572406317 ; 2.007232529823409E8 ; 8.29422323670893E7 ; 4.800032363262809E9 ; 0.0
33 ; 2724668.768718624 ; 2.007262498201144E8 ; 8.566431022432993E7 ; 5.00075561624515E9 ; 0.0
34 ; 2727343.9916561227 ; 2.0072935570650852E8 ; 8.838897899304856E7 ; 5.201481866065264E9 ; 0.0
35 ; 2729946.590588655 ; 2.0073256805866793E8 ; 9.111632298470469E7 ; 5.402211221771772E9 ; 0.0
36 ; 2731023.5773806344 ; 2.0073588428085613E8 ; 9.384626957529335E7 ; 5.6029437898304405E9 ; 0.0
37 ; 2735034.014411003 ; 2.007393017711584E8 ; 9.657729315267397E7 ; 5.803679674111297E9 ; 0.0
38 ; 2737329.9449356594 ; 2.007428179277586E8 ; 9.931232716708498E7 ; 6.004418975882455E9 ; 0.0
39 ; 2739809.2479483853 ; 2.0074643015478092E8 ; 1.0204965711202064E8 ; 6.205161793810213E9 ; 0.0
40 ; 2742231.7997105117 ; 2.0075013586769328E8 ; 1.0478946635996902E8 ; 6.405908223964994E9 ; 0.0
41 ; 2744285.5664014756 ; 2.0075393249827293E8 ; 1.0753169815967953E8 ; 6.606658359832687E9 ; 0.0
42 ; 2747197.8328323974 ; 2.0075781749914032E8 ; 1.1027598372608101E8 ; 6.80741229233096E9 ; 0.0
43 ; 2748836.405740828 ; 2.0076178834786943E8 ; 1.1302318155891341E8 ; 7.008170109830101E9 ; 0.0
44 ; 2750330.977970861 ; 2.007658425506867E8 ; 1.1577201796465424E8 ; 7.208931898177971E9 ; 0.0
45 ; 2751974.856383387 ; 2.0076997764577287E8 ; 1.185223489426251E8 ; 7.409697740728658E9 ; 0.0
46 ; 2754829.847589205 ; 2.0077419120618454E8 ; 1.2127432379900849E8 ; 7.610467718374431E9 ; 0.0
47 ; 2754449.6655311105 ; 2.0077848084241268E8 ; 1.240291536465977E8 ; 7.811241909580615E9 ; 0.0
48 ; 2756739.9836652763 ; 2.0078284420459834E8 ; 1.2678360331212881E8 ; 8.012020390423028E9 ; 0.0
49 ; 2756419.280970506 ; 2.007872789844244E8 ; 1.2954034329579408E8 ; 8.212803234627626E9 ; 0.0
50 ; 2758708.9612944527 ; 2.007917829167051E8 ; 1.3229676257676458E8 ; 8.413590513612051E9 ; 0.0
51 ; 2760164.5605868855 ; 2.0079635378069252E8 ; 1.3505547153805903E8 ; 8.614382296528755E9 ; 0.0
52 ; 2762022.32862053 ; 2.0080098940112194E8 ; 1.3781563609864593E8 ; 8.815178650309448E9 ; 0.0
53 ; 2761299.349374641 ; 2.0080568764901546E8 ; 1.4057765842726645E8 ; 9.01597963971057E9 ; 0.0
54 ; 2763251.222150338 ; 2.0081044644226378E8 ; 1.433389577766411E8 ; 9.216785327359585E9 ; 0.0
55 ; 2760946.56505945 ; 2.0081526374600577E8 ; 1.4610220899879143E8 ; 9.41759577380185E9 ; 0.0
56 ; 2763854.3599143685 ; 2.008201375728237E8 ; 1.4886315556385088E8 ; 9.618411037547855E9 ; 0.0
57 ; 2765691.041546575 ; 2.008250659827722E8 ; 1.5162700992376524E8 ; 9.81923117512068E9 ; 0.0
58 ; 2765800.086141068 ; 2.0083004708325723E8 ; 1.5439270096531183E8 ; 1.0020056241103453E10 ; 0.0
59 ; 2767862.4531105882 ; 2.0083507902878144E8 ; 1.571585010514529E8 ; 1.022088628818671E10 ; 0.0
60 ; 2769074.7796071623 ; 2.008401600205703E8 ; 1.5992636350456348E8 ; 1.0421721367215492E10 ; 0.0
61 ; 2767566.395892395 ; 2.008452883060932E8 ; 1.6269543828417066E8 ; 1.0622561527236063E10 ; 0.0
62 ; 2770123.797253395 ; 2.0085046217849222E8 ; 1.6546300468006304E8 ; 1.0823406815542156E10 ; 0.0
63 ; 2770582.3417641507 ; 2.0085567997593102E8 ; 1.6823312847731644E8 ; 1.1024257277720648E10 ; 0.0
64 ; 2771383.2294539567 ; 2.0086094008087423E8 ; 1.710037108190806E8 ; 1.1225112957696579E10 ; 0.0
65 ; 2771812.841067583 ; 2.008662409193084E8 ; 1.7377509404853454E8 ; 1.1425973897777452E10 ; 0.0
66 ; 2772658.373846854 ; 2.0087158095991296E8 ; 1.7654690688960212E8 ; 1.162684013869676E10 ; 0.0
67 ; 2772490.723134139 ; 2.008769587131906E8 ; 1.7931956526344898E8 ; 1.1827711719656673E10 ; 0.0
68 ; 2773141.8781591007 ; 2.0088237273056403E8 ; 1.820920559865831E8 ; 1.2028588678369864E10 ; 0.0
69 ; 2772892.8715012134 ; 2.0088782160344675E8 ; 1.8486519786474222E8 ; 1.2229471051100428E10 ; 0.0
70 ; 2775728.4985178774 ; 2.0089330396229377E8 ; 1.8763809073624343E8 ; 1.2430358872703875E10 ; 0.0
71 ; 2775839.823004056 ; 2.008988184756382E8 ; 1.904138192347613E8 ; 1.2631252176666168E10 ; 0.0
72 ; 2775971.9977742294 ; 2.009043638491187E8 ; 1.9318965905776536E8 ; 1.2832150995141806E10 ; 0.0
73 ; 2776767.20603764 ; 2.0090993882450238E8 ; 1.959656310555396E8 ; 1.3033055358990925E10 ; 0.0
74 ; 2777323.0937340925 ; 2.009155421787071E8 ; 1.9874239826157725E8 ; 1.3233965297815428E10 ; 0.0
75 ; 2777663.4697812744 ; 2.00921172722827E8 ; 2.0151972135531133E8 ; 1.3434880839994135E10 ; 0.0
76 ; 2777889.8774326593 ; 2.009268293011639E8 ; 2.042973848250926E8 ; 1.3635802012716963E10 ; 0.0
77 ; 2779695.894725227 ; 2.009325107902678E8 ; 2.0707527470252526E8 ; 1.3836728842018127E10 ; 0.0
78 ; 2779279.669479311 ; 2.0093821609798846E8 ; 2.098549705972505E8 ; 1.4037661352808395E10 ; 0.0
79 ; 2776056.2851677844 ; 2.009439441625404E8 ; 2.126342502667298E8 ; 1.4238599568906384E10 ; 0.0
80 ; 2778720.8748565665 ; 2.0094969395158282E8 ; 2.154103065518976E8 ; 1.4439543513068924E10 ; 0.0
81 ; 2776569.6433382863 ; 2.00955464461316E8 ; 2.1818902742675415E8 ; 1.4640493207020506E10 ; 0.0
82 ; 2776811.6286578164 ; 2.0096125471559548E8 ; 2.2096559707009244E8 ; 1.4841448671481821E10 ; 0.0
83 ; 2776438.4693816714 ; 2.0096706376506495E8 ; 2.2374240869875026E8 ; 1.5042409926197416E10 ; 0.0
84 ; 2775247.5991323343 ; 2.0097289068630847E8 ; 2.2651884716813192E8 ; 1.524337698996248E10 ; 0.0
85 ; 2774243.926198152 ; 2.0097873458102307E8 ; 2.2929409476726425E8 ; 1.5444349880648788E10 ; 0.0
86 ; 2774710.504418819 ; 2.0098459457521176E8 ; 2.320683386934624E8 ; 1.564532861522981E10 ; 0.0
87 ; 2773939.0981831546 ; 2.0099046981839773E8 ; 2.3484304919788122E8 ; 1.5846313209805023E10 ; 0.0
88 ; 2772864.100873117 ; 2.0099635948285943E8 ; 2.3761698829606438E8 ; 1.604730367962342E10 ; 0.0
89 ; 2772094.9496057224 ; 2.010022627628871E8 ; 2.403898523969375E8 ; 1.624830003910628E10 ; 0.0
90 ; 2772718.5769177447 ; 2.010081788740605E8 ; 2.4316194734654322E8 ; 1.6449302301869167E10 ; 0.0
91 ; 2769489.684580569 ; 2.0101410705254787E8 ; 2.4593466592346096E8 ; 1.6650310480743227E10 ; 0.0
92 ; 2769790.5100932927 ; 2.010200465544258E8 ; 2.4870415560804152E8 ; 1.6851324587795774E10 ; 0.0
93 ; 2770199.205225833 ; 2.0102599665502024E8 ; 2.5147394611813483E8 ; 1.70523446343502E10 ; 0.0
94 ; 2770271.4793452034 ; 2.010319566482676E8 ; 2.5424414532336065E8 ; 1.7253370631005222E10 ; 0.0
95 ; 2766911.7781793554 ; 2.0103792584609655E8 ; 2.5701441680270585E8 ; 1.745440258765349E10 ; 0.0
96 ; 2767846.8240658464 ; 2.0104390357782954E8 ; 2.597813285808852E8 ; 1.7655440513499584E10 ; 0.0
97 ; 2766243.2177339466 ; 2.0104988918960375E8 ; 2.6254917540495104E8 ; 1.7856484417077415E10 ; 0.0
98 ; 2765146.2535475157 ; 2.0105588204381135E8 ; 2.65315418622685E8 ; 1.8057534306267017E10 ; 0.0
99 ; 2763148.585418925 ; 2.010618815185583E8 ; 2.680805648762325E8 ; 1.825859018831083E10 ; 0.0
100 ; 2762501.484626971 ; 2.0106788700714147E8 ; 2.7084371346165144E8 ; 1.8459652069829388E10 ; 0.0
101 ; 2763146.144703322 ; 2.0107389791754353E8 ; 2.736062149462784E8 ; 1.866071995683653E10 ; 0.0
102 ; 2762257.8508251566 ; 2.010799136719451E8 ; 2.763693610909817E8 ; 1.8861793854754074E10 ; 0.0
103 ; 2759142.989092819 ; 2.0108593370625386E8 ; 2.7913161894180685E8 ; 1.9062873768426018E10 ; 0.0
104 ; 2761747.019681844 ; 2.0109195746964988E8 ; 2.818907619308997E8 ; 1.926395970213227E10 ; 0.0
105 ; 2758378.126054053 ; 2.01097984424147E8 ; 2.8465250895058155E8 ; 1.946505165960192E10 ; 0.0
106 ; 2759563.301029603 ; 2.0110401404416957E8 ; 2.874108870766356E8 ; 1.966614964402607E10 ; 0.0
107 ; 2757342.9308566554 ; 2.01110045816144E8 ; 2.901704503776652E8 ; 1.986725365807024E10 ; 0.0
108 ; 2756201.339590717 ; 2.0111607923810485E8 ; 2.9292779330852187E8 ; 2.0068363703886383E10 ; 0.0
109 ; 2753933.70804641 ; 2.0112211381931525E8 ; 2.956839946481126E8 ; 2.026947978312449E10 ; 0.0
110 ; 2753750.681624926 ; 2.0112814907990023E8 ; 2.9843792835615903E8 ; 2.0470601896943806E10 ; 0.0
111 ; 2752173.891083336 ; 2.0113418455049378E8 ; 3.01191679037784E8 ; 2.0671730046023705E10 ; 0.0
112 ; 2751614.2863234705 ; 2.011402197718982E8 ; 3.0394385292886734E8 ; 2.08728642305742E10 ; 0.0
113 ; 2750821.283600651 ; 2.0114625429475585E8 ; 3.066954672151908E8 ; 2.1074004450346096E10 ; 0.0
114 ; 2749289.6208996484 ; 2.0115228767923254E8 ; 3.0944628849879146E8 ; 2.127515070464085E10 ; 0.0
115 ; 2748266.158984781 ; 2.011583194947126E8 ; 3.1219557811969113E8 ; 2.1476302992320084E10 ; 0.0
116 ; 2747476.7260254365 ; 2.0116434931950474E8 ; 3.149438442786759E8 ; 2.1677461311814796E10 ; 0.0
117 ; 2746576.290868813 ; 2.0117037674055862E8 ; 3.176913210047014E8 ; 2.18786256611343E10 ; 0.0
118 ; 2744072.3555408786 ; 2.011764013531915E8 ; 3.204378972955702E8 ; 2.207979603787486E10 ; 0.0
119 ; 2743462.7345867944 ; 2.0118242276082507E8 ; 3.2318196965111107E8 ; 2.228097243922805E10 ; 0.0
120 ; 2741641.855718467 ; 2.011884405747315E8 ; 3.2592543238569784E8 ; 2.2482154861988876E10 ; 0.0
121 ; 2740623.904719061 ; 2.0119445441378877E8 ; 3.2866707424141634E8 ; 2.2683343302563606E10 ; 0.0
122 ; 2737966.3366685063 ; 2.0120046390424487E8 ; 3.314076981461354E8 ; 2.2884537756977394E10 ; 0.0
123 ; 2737099.0343531203 ; 2.012064686794905E8 ; 3.341456644828039E8 ; 2.3085738220881638E10 ; 0.0
124 ; 2736927.4656138183 ; 2.0121246837983993E8 ; 3.36882763517157E8 ; 2.3286944689561127E10 ; 0.0
125 ; 2734893.1319288644 ; 2.0121846265231967E8 ; 3.3961969098277086E8 ; 2.3488157157940968E10 ; 0.0
126 ; 2732445.0417918535 ; 2.0122445115046504E8 ; 3.423545841146997E8 ; 2.368937562059329E10 ; 0.0
127 ; 2730582.098270946 ; 2.0123043353412372E8 ; 3.450870291564916E8 ; 2.3890600071743755E10 ; 0.0
128 ; 2730954.651364167 ; 2.0123640946926653E8 ; 3.4781761125476253E8 ; 2.4091830505277878E10 ; 0.0
129 ; 2729213.5866525252 ; 2.0124237862780505E8 ; 3.505485659061267E8 ; 2.4293066914747143E10 ; 0.0
130 ; 2725869.285237704 ; 2.0124834068741554E8 ; 3.532777794927792E8 ; 2.4494309293374947E10 ; 0.0
131 ; 2724157.5581548666 ; 2.0125429533136943E8 ; 3.560036487780169E8 ; 2.4695557634062363E10 ; 0.0
132 ; 2722905.344691382 ; 2.0126024224836963E8 ; 3.587278063361718E8 ; 2.4896811929393734E10 ; 0.0
133 ; 2718612.7757957834 ; 2.0126618113239297E8 ; 3.614507116808632E8 ; 2.5098072171642105E10 ; 0.0
134 ; 2716053.6409883606 ; 2.012721116825377E8 ; 3.6416932445665896E8 ; 2.5299338352774498E10 ; 0.0
135 ; 2714241.8120851675 ; 2.0127803360287714E8 ; 3.668853780976473E8 ; 2.5500610464457035E10 ; 0.0
136 ; 2711389.4469207134 ; 2.0128394660231784E8 ; 3.6959961990973246E8 ; 2.5701888498059914E10 ; 0.0
137 ; 2709472.7490806226 ; 2.0128985039446312E8 ; 3.7231100935665315E8 ; 2.590317244466223E10 ; 0.0
138 ; 2707562.6046865205 ; 2.0129574469748142E8 ; 3.7502048210573375E8 ; 2.6104462295056694E10 ; 0.0
139 ; 2704212.218268752 ; 2.0130162923397905E8 ; 3.7772804471042025E8 ; 2.6305758039754177E10 ; 0.0
140 ; 2701895.4526560497 ; 2.013075037308777E8 ; 3.80432256928689E8 ; 2.6507059668988155E10 ; 0.0
141 ; 2698485.1827149508 ; 2.0131336791929597E8 ; 3.8313415238134503E8 ; 2.6708367172719032E10 ; 0.0
142 ; 2696667.817056888 ; 2.0131922153443527E8 ; 3.8583263756406E8 ; 2.690968054063833E10 ; 0.0
143 ; 2694869.678472788 ; 2.0132506431546953E8 ; 3.8852930538111687E8 ; 2.7110999762172764E10 ; 0.0
144 ; 2691421.2453865674 ; 2.0133089600543883E8 ; 3.912241750595897E8 ; 2.731232482648823E10 ; 0.0
145 ; 2688352.826380199 ; 2.013367163511467E8 ; 3.939155963049762E8 ; 2.751365572249367E10 ; 0.0
146 ; 2687807.4528239476 ; 2.0134252510306093E8 ; 3.966039491313564E8 ; 2.771499243884482E10 ; 0.0
147 ; 2687346.533051476 ; 2.013483220152179E8 ; 3.9929175658418036E8 ; 2.791633496394788E10 ; 0.0
148 ; 2681730.735658996 ; 2.0135410684513012E8 ; 4.0197910311723185E8 ; 2.8117683285963097E10 ; 0.0
149 ; 2678182.758434286 ; 2.013598793536969E8 ; 4.0466083385289085E8 ; 2.8319037392808228E10 ; 0.0
150 ; 2673000.965613529 ; 2.0136563930511832E8 ; 4.0733901661132514E8 ; 2.8520397272161926E10 ; 0.0
151 ; 2666746.393941976 ; 2.0137138646681175E8 ; 4.100120175769387E8 ; 2.8721762911467045E10 ; 0.0
152 ; 2662194.8103145473 ; 2.0137712060933152E8 ; 4.126787639708807E8 ; 2.8923134297933857E10 ; 0.0
153 ; 2655727.4267054237 ; 2.013828415062913E8 ; 4.153409587811952E8 ; 2.912451141854319E10 ; 0.0
154 ; 2652118.0035763504 ; 2.0138854893428892E8 ; 4.1799668620790064E8 ; 2.932589426004948E10 ; 0.0
155 ; 2645396.615866007 ; 2.0139424267283383E8 ; 4.20648804211477E8 ; 2.952728280898377E10 ; 0.0
156 ; 2642113.964333433 ; 2.0139992250427714E8 ; 4.23294200827343E8 ; 2.97286770516566E10 ; 0.0
157 ; 2636099.256073698 ; 2.0140558821374375E8 ; 4.259363147916764E8 ; 2.9930076974160877E10 ; 0.0
158 ; 2629659.4711094345 ; 2.014112395890669E8 ; 4.285724140477501E8 ; 3.0131482562374622E10 ; 0.0
159 ; 2625919.075498002 ; 2.0141687642072505E8 ; 4.3120207351885957E8 ; 3.0332893801963688E10 ; 0.0
160 ; 2620359.450028778 ; 2.0142249850178045E8 ; 4.3382799259435755E8 ; 3.0534310678384415E10 ; 0.0
161 ; 2615002.563826823 ; 2.0142810562782022E8 ; 4.364483520443863E8 ; 3.0735733176886196E10 ; 0.0
162 ; 2611357.4591952153 ; 2.0143369759689906E8 ; 4.390633546082131E8 ; 3.0937161282514015E10 ; 0.0
163 ; 2603628.7617338933 ; 2.0143927420948404E8 ; 4.416747120674083E8 ; 3.1138594980110916E10 ; 0.0
164 ; 2599127.2795169353 ; 2.01444835268401E8 ; 4.442783408291422E8 ; 3.13400342543204E10 ; 0.0
165 ; 2593006.606072911 ; 2.0145038057878295E8 ; 4.4687746810865915E8 ; 3.1541479089588802E10 ; 0.0
166 ; 2588762.831464087 ; 2.0145590994802004E8 ; 4.4947047471473205E8 ; 3.1742929470167583E10 ; 0.0
167 ; 2584292.11783129 ; 2.0146142318571115E8 ; 4.5205923754619616E8 ; 3.1944385380115604E10 ; 0.0
168 ; 2578560.5620803046 ; 2.014669201036171E8 ; 4.5464352966402745E8 ; 3.2145846803301315E10 ; 0.0
169 ; 2571120.781910189 ; 2.0147240051561534E8 ; 4.572220902261078E8 ; 3.2347313723404934E10 ; 0.0
170 ; 2566478.207866203 ; 2.014778642376562E8 ; 4.5979321100801796E8 ; 3.2548786123920547E10 ; 0.0
171 ; 2559172.4866624824 ; 2.0148331108772036E8 ; 4.6235968921588415E8 ; 3.2750263988158203E10 ; 0.0
172 ; 2556593.258114485 ; 2.0148874088577804E8 ; 4.6491886170254666E8 ; 3.2951747299245922E10 ; 0.0
173 ; 2550127.7014834476 ; 2.01494153453749E8 ; 4.674754549606611E8 ; 3.31532360401317E10 ; 0.0
174 ; 2546417.6554400385 ; 2.0149954861546436E8 ; 4.7002558266214454E8 ; 3.335473019358545E10 ; 0.0
175 ; 2540512.115489594 ; 2.0150492619662923E8 ; 4.725720003175846E8 ; 3.3556229742200912E10 ; 0.0
176 ; 2536479.143208077 ; 2.0151028602478683E8 ; 4.751125124330742E8 ; 3.375773466839754E10 ; 0.0
177 ; 2531191.6917677857 ; 2.0151562792928344E8 ; 4.7764899157628226E8 ; 3.395924495442233E10 ; 0.0
178 ; 2526621.33862749 ; 2.015209517412348E8 ; 4.801801832680501E8 ; 3.4160760582351612E10 ; 0.0
179 ; 2522782.309229475 ; 2.015262572934933E8 ; 4.827068046066776E8 ; 3.436228153409285E10 ; 0.0
180 ; 2517159.031490259 ; 2.0153154442061636E8 ; 4.852295869159071E8 ; 3.4563807791386345E10 ; 0.0
181 ; 2514610.242214378 ; 2.015368129588358E8 ; 4.8774674594739735E8 ; 3.476533933580696E10 ; 0.0
182 ; 2509062.2932234197 ; 2.015420627460281E8 ; 4.9026135618961173E8 ; 3.49668761487658E10 ; 0.0
183 ; 2503607.3799307295 ; 2.015472936216856E8 ; 4.927704184828352E8 ; 3.5168418211511826E10 ; 0.0
184 ; 2498426.684182687 ; 2.0155250542688867E8 ; 4.952740258627659E8 ; 3.5369965505133514E10 ; 0.0
185 ; 2493952.687093394 ; 2.0155769800427884E8 ; 4.977724525469486E8 ; 3.55715180105604E10 ; 0.0
186 ; 2490911.4815159473 ; 2.0156287119803232E8 ; 5.00266405234042E8 ; 3.577307570856468E10 ; 0.0
187 ; 2487242.2888725465 ; 2.01568024853835E8 ; 5.0275731671555793E8 ; 3.597463857976271E10 ; 0.0
188 ; 2482131.382594546 ; 2.0157315881885767E8 ; 5.052445590044305E8 ; 3.617620660461655E10 ; 0.0
189 ; 2475154.168433543 ; 2.0157827294173235E8 ; 5.07726690387025E8 ; 3.63777797634354E10 ; 0.0
190 ; 2471048.259423875 ; 2.0158336707252917E8 ; 5.1020184455545855E8 ; 3.657935803637714E10 ; 0.0
191 ; 2466974.7724164124 ; 2.0158844106273398E8 ; 5.126728928148824E8 ; 3.678094140344967E10 ; 0.0
192 ; 2462207.659795892 ; 2.0159349476522678E8 ; 5.151398675872988E8 ; 3.6982529844512405E10 ; 0.0
193 ; 2457542.6901977905 ; 2.0159852803426066E8 ; 5.176020752470947E8 ; 3.718412333927763E10 ; 0.0
194 ; 2452843.718364375 ; 2.016035407254415E8 ; 5.2005961793729246E8 ; 3.73857218673119E10 ; 0.0
195 ; 2447616.2218048424 ; 2.0160853269570813E8 ; 5.225124616556568E8 ; 3.758732540803734E10 ; 0.0
196 ; 2443173.8931890964 ; 2.016135038033133E8 ; 5.249600778774617E8 ; 3.778893394073305E10 ; 0.0
197 ; 2440708.1217455384 ; 2.0161845390780511E8 ; 5.2740325177065074E8 ; 3.799054744453636E10 ; 0.0
198 ; 2434358.027467042 ; 2.01623382870009E8 ; 5.298439598923963E8 ; 3.819216589844417E10 ; 0.0
199 ; 2429488.505215336 ; 2.0162829055201036E8 ; 5.3227831791986334E8 ; 3.839378928131418E10 ; 0.0
200 ; 2425041.2737835194 ; 2.0163317681713748E8 ; 5.347078064250787E8 ; 3.859541757186619E10 ; 0.0
