CSV File for the City 6 on Day 16
1 - Minute m 
2 - Power Consumed at minute m 
3 - Power Produced at minute m 
4 - Energy Consumed since the beginning of the day 
5 - Energy Produced since the beginning of the day 
6 - Energy Lost since the beginning of the day on lines starting from the city
 
0 ; 8667657.497139873 ; 1.0289762460333329E7 ; 0.0 ; 0.0 ; 0.0
1 ; 8678198.730361316 ; 1.0289762460333329E7 ; 8667657.497139873 ; 1.0289762460333329E7 ; 0.0
2 ; 8685093.160468433 ; 1.0289762460333329E7 ; 1.734585622750119E7 ; 2.0579524920666657E7 ; 0.0
3 ; 8694948.265729757 ; 1.0289762460333329E7 ; 2.6030949387969624E7 ; 3.0869287380999986E7 ; 0.0
4 ; 8709741.014513036 ; 1.0289762460333329E7 ; 3.472589765369938E7 ; 4.1159049841333315E7 ; 0.0
5 ; 8728127.403696233 ; 1.0289762460333329E7 ; 4.343563866821242E7 ; 5.144881230166665E7 ; 0.0
6 ; 8748603.809129998 ; 1.0289762460333329E7 ; 5.216376607190865E7 ; 6.173857476199998E7 ; 0.0
7 ; 8775594.20764828 ; 1.0289762460333329E7 ; 6.091236988103865E7 ; 7.202833722233331E7 ; 0.0
8 ; 8816652.131475847 ; 1.0289762460333329E7 ; 6.968796408868693E7 ; 8.231809968266664E7 ; 0.0
9 ; 8878994.233660514 ; 1.0289762460333329E7 ; 7.850461622016278E7 ; 9.260786214299998E7 ; 0.0
10 ; 8979825.209790064 ; 1.0289762460333329E7 ; 8.73836104538233E7 ; 1.0289762460333331E8 ; 0.0
11 ; 9133458.393837404 ; 1.0289762460333329E7 ; 9.636343566361336E7 ; 1.1318738706366664E8 ; 0.0
12 ; 9384200.64078794 ; 1.0289762460333329E7 ; 1.0549689405745077E8 ; 1.2347714952399997E8 ; 0.0
13 ; 9617012.55335566 ; 1.0289762460333329E7 ; 1.1488109469823872E8 ; 1.337669119843333E8 ; 0.0
14 ; 9647415.152320668 ; 1.0289762460333329E7 ; 1.2449810725159438E8 ; 1.4405667444466662E8 ; 0.0
15 ; 9656866.403869186 ; 1.0289762460333329E7 ; 1.3414552240391505E8 ; 1.5434643690499994E8 ; 0.0
16 ; 9668782.48213448 ; 1.0289762460333329E7 ; 1.4380238880778423E8 ; 1.6463619936533326E8 ; 0.0
17 ; 9682195.83873196 ; 1.0289762460333329E7 ; 1.5347117128991872E8 ; 1.7492596182566658E8 ; 0.0
18 ; 9694822.248474956 ; 1.0289762460333329E7 ; 1.6315336712865067E8 ; 1.852157242859999E8 ; 0.0
19 ; 9705051.804315677 ; 1.0289762460333329E7 ; 1.7284818937712562E8 ; 1.955054867463332E8 ; 0.0
20 ; 9715700.837176919 ; 1.0289762460333329E7 ; 1.825532411814413E8 ; 2.0579524920666653E8 ; 0.0
21 ; 9727587.277304286 ; 1.0289762460333329E7 ; 1.9226894201861823E8 ; 2.1608501166699985E8 ; 0.0
22 ; 9740408.321644196 ; 1.0289762460333329E7 ; 2.0199652929592252E8 ; 2.2637477412733316E8 ; 0.0
23 ; 9751407.83008788 ; 1.0289762460333329E7 ; 2.117369376175667E8 ; 2.3666453658766648E8 ; 0.0
24 ; 9762318.913830854 ; 1.0289762460333329E7 ; 2.2148834544765458E8 ; 2.469542990479998E8 ; 0.0
25 ; 9773574.611148784 ; 1.0289762460333329E7 ; 2.3125066436148542E8 ; 2.5724406150833312E8 ; 0.0
26 ; 9783200.241311423 ; 1.0289762460333329E7 ; 2.410242389726342E8 ; 2.6753382396866643E8 ; 0.0
27 ; 9794509.102161271 ; 1.0289762460333329E7 ; 2.5080743921394563E8 ; 2.778235864289998E8 ; 0.0
28 ; 9806828.49276168 ; 1.0289762460333329E7 ; 2.606019483161069E8 ; 2.881133488893331E8 ; 0.0
29 ; 9819426.0685132 ; 1.0289762460333329E7 ; 2.704087768088686E8 ; 2.984031113496665E8 ; 0.0
30 ; 9828205.441116566 ; 1.0289762460333329E7 ; 2.802282028773818E8 ; 3.086928738099998E8 ; 0.0
31 ; 9837870.529567257 ; 1.0289762460333329E7 ; 2.900564083184984E8 ; 3.189826362703332E8 ; 0.0
32 ; 9849604.129793221 ; 1.0289762460333329E7 ; 2.998942788480656E8 ; 3.292723987306665E8 ; 0.0
33 ; 9857946.565615779 ; 1.0289762460333329E7 ; 3.0974388297785884E8 ; 3.3956216119099987E8 ; 0.0
34 ; 9868599.076038182 ; 1.0289762460333329E7 ; 3.196018295434746E8 ; 3.498519236513332E8 ; 0.0
35 ; 9878224.473794784 ; 1.0289762460333329E7 ; 3.294704286195128E8 ; 3.6014168611166656E8 ; 0.0
36 ; 9884435.452950098 ; 1.0289762460333329E7 ; 3.3934865309330755E8 ; 3.704314485719999E8 ; 0.0
37 ; 9892522.708823208 ; 1.0289762460333329E7 ; 3.492330885462577E8 ; 3.8072121103233325E8 ; 0.0
38 ; 9901267.451164145 ; 1.0289762460333329E7 ; 3.591256112550809E8 ; 3.910109734926666E8 ; 0.0
39 ; 9906648.021671064 ; 1.0289762460333329E7 ; 3.69026878706245E8 ; 4.0130073595299995E8 ; 0.0
40 ; 9918884.206089078 ; 1.0289762460333329E7 ; 3.7893352672791606E8 ; 4.115904984133333E8 ; 0.0
41 ; 9924240.455868956 ; 1.0289762460333329E7 ; 3.8885241093400514E8 ; 4.2188026087366664E8 ; 0.0
42 ; 9928989.451051949 ; 1.0289762460333329E7 ; 3.987766513898741E8 ; 4.32170023334E8 ; 0.0
43 ; 9939203.163707562 ; 1.0289762460333329E7 ; 4.0870564084092605E8 ; 4.4245978579433334E8 ; 0.0
44 ; 9943621.174991066 ; 1.0289762460333329E7 ; 4.186448440046336E8 ; 4.527495482546667E8 ; 0.0
45 ; 9949750.260006832 ; 1.0289762460333329E7 ; 4.285884651796247E8 ; 4.6303931071500003E8 ; 0.0
46 ; 9954063.035983868 ; 1.0289762460333329E7 ; 4.385382154396315E8 ; 4.733290731753334E8 ; 0.0
47 ; 9957662.473074267 ; 1.0289762460333329E7 ; 4.484922784756154E8 ; 4.836188356356667E8 ; 0.0
48 ; 9963490.382365443 ; 1.0289762460333329E7 ; 4.5844994094868964E8 ; 4.939085980960001E8 ; 0.0
49 ; 9965095.745392006 ; 1.0289762460333329E7 ; 4.684134313310551E8 ; 5.041983605563334E8 ; 0.0
50 ; 9968180.452410972 ; 1.0289762460333329E7 ; 4.783785270764471E8 ; 5.1448812301666677E8 ; 0.0
51 ; 9972361.480299598 ; 1.0289762460333329E7 ; 4.883467075288581E8 ; 5.247778854770001E8 ; 0.0
52 ; 9974781.959208768 ; 1.0289762460333329E7 ; 4.983190690091577E8 ; 5.3506764793733346E8 ; 0.0
53 ; 9979520.70999227 ; 1.0289762460333329E7 ; 5.082938509683665E8 ; 5.453574103976668E8 ; 0.0
54 ; 9982920.5607845 ; 1.0289762460333329E7 ; 5.182733716783588E8 ; 5.556471728580002E8 ; 0.0
55 ; 9983937.77173569 ; 1.0289762460333329E7 ; 5.282562922391433E8 ; 5.659369353183335E8 ; 0.0
56 ; 9988654.923557114 ; 1.0289762460333329E7 ; 5.38240230010879E8 ; 5.762266977786669E8 ; 0.0
57 ; 9986327.97452714 ; 1.0289762460333329E7 ; 5.482288849344362E8 ; 5.865164602390002E8 ; 0.0
58 ; 9990117.313006017 ; 1.0289762460333329E7 ; 5.582152129089633E8 ; 5.968062226993335E8 ; 0.0
59 ; 9993873.572848307 ; 1.0289762460333329E7 ; 5.682053302219694E8 ; 6.070959851596669E8 ; 0.0
60 ; 9991793.045190474 ; 1.0289762460333329E7 ; 5.781992037948177E8 ; 6.173857476200002E8 ; 0.0
61 ; 9997175.751571862 ; 1.0289762460333329E7 ; 5.881909968400081E8 ; 6.276755100803336E8 ; 0.0
62 ; 9997315.7225926 ; 1.0289762460333329E7 ; 5.9818817259158E8 ; 6.379652725406669E8 ; 0.0
63 ; 9998397.427349526 ; 1.0289762460333329E7 ; 6.081854883141726E8 ; 6.482550350010003E8 ; 0.0
64 ; 1.000210643574391E7 ; 1.0289762460333329E7 ; 6.181838857415222E8 ; 6.585447974613336E8 ; 0.0
65 ; 1.000481051377431E7 ; 1.0289762460333329E7 ; 6.281859921772661E8 ; 6.68834559921667E8 ; 0.0
66 ; 1.0005353243893089E7 ; 1.0289762460333329E7 ; 6.381908026910404E8 ; 6.791243223820003E8 ; 0.0
67 ; 1.00086357912128E7 ; 1.0289762460333329E7 ; 6.481961559349335E8 ; 6.894140848423337E8 ; 0.0
68 ; 1.0007789883306526E7 ; 1.0289762460333329E7 ; 6.582047917261463E8 ; 6.99703847302667E8 ; 0.0
69 ; 1.0008281091799056E7 ; 1.0289762460333329E7 ; 6.682125816094528E8 ; 7.099936097630004E8 ; 0.0
70 ; 1.0010726553310756E7 ; 1.0289762460333329E7 ; 6.782208627012519E8 ; 7.202833722233337E8 ; 0.0
71 ; 1.0011180766159547E7 ; 1.0289762460333329E7 ; 6.882315892545626E8 ; 7.305731346836671E8 ; 0.0
72 ; 1.0009642940702675E7 ; 1.0289762460333329E7 ; 6.982427700207222E8 ; 7.408628971440004E8 ; 0.0
73 ; 1.0011953790101992E7 ; 1.0289762460333329E7 ; 7.082524129614248E8 ; 7.511526596043338E8 ; 0.0
74 ; 1.0012357108216502E7 ; 1.0289762460333329E7 ; 7.182643667515268E8 ; 7.614424220646671E8 ; 0.0
75 ; 1.0012400877442364E7 ; 1.0289762460333329E7 ; 7.282767238597434E8 ; 7.717321845250005E8 ; 0.0
76 ; 1.0012715993612643E7 ; 1.0289762460333329E7 ; 7.382891247371857E8 ; 7.820219469853338E8 ; 0.0
77 ; 1.0012397167616144E7 ; 1.0289762460333329E7 ; 7.483018407307984E8 ; 7.923117094456671E8 ; 0.0
78 ; 1.000955307285066E7 ; 1.0289762460333329E7 ; 7.583142378984145E8 ; 8.026014719060005E8 ; 0.0
79 ; 1.000926462899514E7 ; 1.0289762460333329E7 ; 7.683237909712652E8 ; 8.128912343663338E8 ; 0.0
80 ; 1.0002695175001828E7 ; 1.0289762460333329E7 ; 7.783330556002604E8 ; 8.231809968266672E8 ; 0.0
81 ; 1.0000393099548357E7 ; 1.0289762460333329E7 ; 7.883357507752622E8 ; 8.334707592870005E8 ; 0.0
82 ; 9997209.686913999 ; 1.0289762460333329E7 ; 7.983361438748106E8 ; 8.437605217473339E8 ; 0.0
83 ; 9994040.501793884 ; 1.0289762460333329E7 ; 8.083333535617245E8 ; 8.540502842076672E8 ; 0.0
84 ; 9990446.445892403 ; 1.0289762460333329E7 ; 8.183273940635184E8 ; 8.643400466680006E8 ; 0.0
85 ; 9989650.539173525 ; 1.0289762460333329E7 ; 8.283178405094109E8 ; 8.746298091283339E8 ; 0.0
86 ; 9982973.148976898 ; 1.0289762460333329E7 ; 8.383074910485843E8 ; 8.849195715886673E8 ; 0.0
87 ; 9980825.44694538 ; 1.0289762460333329E7 ; 8.482904641975613E8 ; 8.952093340490006E8 ; 0.0
88 ; 9975652.338732585 ; 1.0289762460333329E7 ; 8.582712896445067E8 ; 9.05499096509334E8 ; 0.0
89 ; 9975279.249707494 ; 1.0289762460333329E7 ; 8.682469419832393E8 ; 9.157888589696673E8 ; 0.0
90 ; 9968425.112978518 ; 1.0289762460333329E7 ; 8.782222212329468E8 ; 9.260786214300007E8 ; 0.0
91 ; 9965337.631888602 ; 1.0289762460333329E7 ; 8.881906463459253E8 ; 9.36368383890334E8 ; 0.0
92 ; 9961858.45969571 ; 1.0289762460333329E7 ; 8.98155983977814E8 ; 9.466581463506674E8 ; 0.0
93 ; 9957741.00201074 ; 1.0289762460333329E7 ; 9.081178424375097E8 ; 9.569479088110007E8 ; 0.0
94 ; 9953650.493956212 ; 1.0289762460333329E7 ; 9.180755834395204E8 ; 9.67237671271334E8 ; 0.0
95 ; 9948221.169091698 ; 1.0289762460333329E7 ; 9.280292339334766E8 ; 9.775274337316674E8 ; 0.0
96 ; 9942631.33709126 ; 1.0289762460333329E7 ; 9.379774551025683E8 ; 9.878171961920007E8 ; 0.0
97 ; 9934367.74477308 ; 1.0289762460333329E7 ; 9.479200864396595E8 ; 9.981069586523341E8 ; 0.0
98 ; 9933474.728665262 ; 1.0289762460333329E7 ; 9.578544541844325E8 ; 1.0083967211126674E9 ; 0.0
99 ; 9930035.36868067 ; 1.0289762460333329E7 ; 9.677879289130977E8 ; 1.0186864835730008E9 ; 0.0
100 ; 9923506.2830179 ; 1.0289762460333329E7 ; 9.777179642817785E8 ; 1.0289762460333341E9 ; 0.0
101 ; 9918777.085886192 ; 1.0289762460333329E7 ; 9.876414705647963E8 ; 1.0392660084936675E9 ; 0.0
102 ; 9916742.245236881 ; 1.0289762460333329E7 ; 9.975602476506826E8 ; 1.0495557709540008E9 ; 0.0
103 ; 9908416.614557074 ; 1.0289762460333329E7 ; 1.0074769898959194E9 ; 1.0598455334143342E9 ; 0.0
104 ; 9901626.000416925 ; 1.0289762460333329E7 ; 1.0173854065104765E9 ; 1.0701352958746675E9 ; 0.0
105 ; 9898415.477023138 ; 1.0289762460333329E7 ; 1.0272870325108933E9 ; 1.0804250583350008E9 ; 0.0
106 ; 9892225.933629166 ; 1.0289762460333329E7 ; 1.0371854479879165E9 ; 1.090714820795334E9 ; 0.0
107 ; 9887544.138306884 ; 1.0289762460333329E7 ; 1.0470776739215456E9 ; 1.1010045832556674E9 ; 0.0
108 ; 9881312.65680549 ; 1.0289762460333329E7 ; 1.0569652180598525E9 ; 1.1112943457160008E9 ; 0.0
109 ; 9876492.014310487 ; 1.0289762460333329E7 ; 1.066846530716658E9 ; 1.1215841081763341E9 ; 0.0
110 ; 9870588.607660916 ; 1.0289762460333329E7 ; 1.0767230227309685E9 ; 1.1318738706366675E9 ; 0.0
111 ; 9865372.618412685 ; 1.0289762460333329E7 ; 1.0865936113386295E9 ; 1.1421636330970008E9 ; 0.0
112 ; 9856368.333656684 ; 1.0289762460333329E7 ; 1.0964589839570422E9 ; 1.1524533955573342E9 ; 0.0
113 ; 9852254.448885178 ; 1.0289762460333329E7 ; 1.106315352290699E9 ; 1.1627431580176675E9 ; 0.0
114 ; 9841907.274807379 ; 1.0289762460333329E7 ; 1.1161676067395842E9 ; 1.1730329204780009E9 ; 0.0
115 ; 9841288.95516016 ; 1.0289762460333329E7 ; 1.1260095140143917E9 ; 1.1833226829383342E9 ; 0.0
116 ; 9831959.898463778 ; 1.0289762460333329E7 ; 1.1358508029695518E9 ; 1.1936124453986676E9 ; 0.0
117 ; 9825472.959472163 ; 1.0289762460333329E7 ; 1.1456827628680155E9 ; 1.203902207859001E9 ; 0.0
118 ; 9817233.827182224 ; 1.0289762460333329E7 ; 1.1555082358274877E9 ; 1.2141919703193343E9 ; 0.0
119 ; 9810120.82142305 ; 1.0289762460333329E7 ; 1.16532546965467E9 ; 1.2244817327796676E9 ; 0.0
120 ; 9807946.998218829 ; 1.0289762460333329E7 ; 1.175135590476093E9 ; 1.234771495240001E9 ; 0.0
121 ; 9797466.199706564 ; 1.0289762460333329E7 ; 1.1849435374743118E9 ; 1.2450612577003343E9 ; 0.0
122 ; 9789928.312644226 ; 1.0289762460333329E7 ; 1.1947410036740184E9 ; 1.2553510201606677E9 ; 0.0
123 ; 9783384.879819633 ; 1.0289762460333329E7 ; 1.2045309319866626E9 ; 1.265640782621001E9 ; 0.0
124 ; 9774128.448057096 ; 1.0289762460333329E7 ; 1.2143143168664823E9 ; 1.2759305450813344E9 ; 0.0
125 ; 9769492.59291553 ; 1.0289762460333329E7 ; 1.2240884453145394E9 ; 1.2862203075416677E9 ; 0.0
126 ; 9760652.524021931 ; 1.0289762460333329E7 ; 1.233857937907455E9 ; 1.296510070002001E9 ; 0.0
127 ; 9754471.727793157 ; 1.0289762460333329E7 ; 1.2436185904314768E9 ; 1.3067998324623344E9 ; 0.0
128 ; 9744436.423669338 ; 1.0289762460333329E7 ; 1.25337306215927E9 ; 1.3170895949226677E9 ; 0.0
129 ; 9734938.435368342 ; 1.0289762460333329E7 ; 1.2631174985829394E9 ; 1.327379357383001E9 ; 0.0
130 ; 9728579.468279753 ; 1.0289762460333329E7 ; 1.2728524370183077E9 ; 1.3376691198433344E9 ; 0.0
131 ; 9718518.303428173 ; 1.0289762460333329E7 ; 1.2825810164865875E9 ; 1.3479588823036678E9 ; 0.0
132 ; 9704832.74968129 ; 1.0289762460333329E7 ; 1.2922995347900157E9 ; 1.3582486447640011E9 ; 0.0
133 ; 9698304.63038033 ; 1.0289762460333329E7 ; 1.302004367539697E9 ; 1.3685384072243345E9 ; 0.0
134 ; 9683573.776949268 ; 1.0289762460333329E7 ; 1.3117026721700773E9 ; 1.3788281696846678E9 ; 0.0
135 ; 9670732.347995723 ; 1.0289762460333329E7 ; 1.3213862459470265E9 ; 1.3891179321450012E9 ; 0.0
136 ; 9664865.901354654 ; 1.0289762460333329E7 ; 1.3310569782950222E9 ; 1.3994076946053345E9 ; 0.0
137 ; 9649202.666902538 ; 1.0289762460333329E7 ; 1.3407218441963768E9 ; 1.4096974570656679E9 ; 0.0
138 ; 9638618.956321621 ; 1.0289762460333329E7 ; 1.3503710468632793E9 ; 1.4199872195260012E9 ; 0.0
139 ; 9630064.703468725 ; 1.0289762460333329E7 ; 1.360009665819601E9 ; 1.4302769819863346E9 ; 0.0
140 ; 9613702.289660597 ; 1.0289762460333329E7 ; 1.3696397305230699E9 ; 1.440566744446668E9 ; 0.0
141 ; 9606579.864530595 ; 1.0289762460333329E7 ; 1.3792534328127306E9 ; 1.4508565069070013E9 ; 0.0
142 ; 9592518.25490649 ; 1.0289762460333329E7 ; 1.388860012677261E9 ; 1.4611462693673346E9 ; 0.0
143 ; 9583571.845495025 ; 1.0289762460333329E7 ; 1.3984525309321675E9 ; 1.471436031827668E9 ; 0.0
144 ; 9566790.504422747 ; 1.0289762460333329E7 ; 1.4080361027776625E9 ; 1.4817257942880013E9 ; 0.0
145 ; 9558306.460177178 ; 1.0289762460333329E7 ; 1.4176028932820852E9 ; 1.4920155567483346E9 ; 0.0
146 ; 9550398.38915228 ; 1.0289762460333329E7 ; 1.4271611997422624E9 ; 1.502305319208668E9 ; 0.0
147 ; 9542846.084733257 ; 1.0289762460333329E7 ; 1.4367115981314147E9 ; 1.5125950816690013E9 ; 0.0
148 ; 9536164.539337277 ; 1.0289762460333329E7 ; 1.446254444216148E9 ; 1.5228848441293347E9 ; 0.0
149 ; 9526645.568953838 ; 1.0289762460333329E7 ; 1.455790608755485E9 ; 1.533174606589668E9 ; 0.0
150 ; 9515799.933922311 ; 1.0289762460333329E7 ; 1.4653172543244388E9 ; 1.5434643690500014E9 ; 0.0
151 ; 9510669.060884122 ; 1.0289762460333329E7 ; 1.474833054258361E9 ; 1.5537541315103347E9 ; 0.0
152 ; 9501490.453005247 ; 1.0289762460333329E7 ; 1.4843437233192453E9 ; 1.564043893970668E9 ; 0.0
153 ; 9491459.576245533 ; 1.0289762460333329E7 ; 1.4938452137722507E9 ; 1.5743336564310014E9 ; 0.0
154 ; 9483841.545113968 ; 1.0289762460333329E7 ; 1.5033366733484962E9 ; 1.5846234188913348E9 ; 0.0
155 ; 9475754.379198458 ; 1.0289762460333329E7 ; 1.5128205148936102E9 ; 1.5949131813516681E9 ; 0.0
156 ; 9464802.871836005 ; 1.0289762460333329E7 ; 1.5222962692728088E9 ; 1.6052029438120015E9 ; 0.0
157 ; 9457110.575930735 ; 1.0289762460333329E7 ; 1.5317610721446447E9 ; 1.6154927062723348E9 ; 0.0
158 ; 9448888.735796712 ; 1.0289762460333329E7 ; 1.5412181827205756E9 ; 1.6257824687326682E9 ; 0.0
159 ; 9440175.789193237 ; 1.0289762460333329E7 ; 1.5506670714563723E9 ; 1.6360722311930015E9 ; 0.0
160 ; 9428054.203158354 ; 1.0289762460333329E7 ; 1.5601072472455654E9 ; 1.6463619936533349E9 ; 0.0
161 ; 9423767.622683108 ; 1.0289762460333329E7 ; 1.5695353014487238E9 ; 1.6566517561136682E9 ; 0.0
162 ; 9413060.561110912 ; 1.0289762460333329E7 ; 1.5789590690714068E9 ; 1.6669415185740016E9 ; 0.0
163 ; 9401813.145248443 ; 1.0289762460333329E7 ; 1.5883721296325178E9 ; 1.677231281034335E9 ; 0.0
164 ; 9396573.39263901 ; 1.0289762460333329E7 ; 1.5977739427777662E9 ; 1.6875210434946682E9 ; 0.0
165 ; 9386799.909136867 ; 1.0289762460333329E7 ; 1.6071705161704051E9 ; 1.6978108059550016E9 ; 0.0
166 ; 9375942.113493541 ; 1.0289762460333329E7 ; 1.616557316079542E9 ; 1.708100568415335E9 ; 0.0
167 ; 9368716.1245579 ; 1.0289762460333329E7 ; 1.6259332581930354E9 ; 1.7183903308756683E9 ; 0.0
168 ; 9357812.781795364 ; 1.0289762460333329E7 ; 1.6353019743175933E9 ; 1.7286800933360016E9 ; 0.0
169 ; 9347771.725185638 ; 1.0289762460333329E7 ; 1.6446597870993886E9 ; 1.738969855796335E9 ; 0.0
170 ; 9337438.660436325 ; 1.0289762460333329E7 ; 1.6540075588245742E9 ; 1.7492596182566683E9 ; 0.0
171 ; 9330988.281300113 ; 1.0289762460333329E7 ; 1.6633449974850106E9 ; 1.7595493807170017E9 ; 0.0
172 ; 9317732.684555449 ; 1.0289762460333329E7 ; 1.6726759857663107E9 ; 1.769839143177335E9 ; 0.0
173 ; 9313351.143083274 ; 1.0289762460333329E7 ; 1.6819937184508662E9 ; 1.7801289056376684E9 ; 0.0
174 ; 9306987.206909308 ; 1.0289762460333329E7 ; 1.6913070695939496E9 ; 1.7904186680980017E9 ; 0.0
175 ; 9300186.89207863 ; 1.0289762460333329E7 ; 1.700614056800859E9 ; 1.800708430558335E9 ; 0.0
176 ; 9295624.528795522 ; 1.0289762460333329E7 ; 1.7099142436929376E9 ; 1.8109981930186684E9 ; 0.0
177 ; 9287115.982789129 ; 1.0289762460333329E7 ; 1.719209868221733E9 ; 1.8212879554790018E9 ; 0.0
178 ; 9281595.46937474 ; 1.0289762460333329E7 ; 1.7284969842045221E9 ; 1.831577717939335E9 ; 0.0
179 ; 9278188.243685784 ; 1.0289762460333329E7 ; 1.7377785796738968E9 ; 1.8418674803996685E9 ; 0.0
180 ; 9271930.324116774 ; 1.0289762460333329E7 ; 1.7470567679175825E9 ; 1.8521572428600018E9 ; 0.0
181 ; 9268313.035391495 ; 1.0289762460333329E7 ; 1.7563286982416992E9 ; 1.8624470053203351E9 ; 0.0
182 ; 9259608.448773025 ; 1.0289762460333329E7 ; 1.7655970112770908E9 ; 1.8727367677806685E9 ; 0.0
183 ; 9255406.239926228 ; 1.0289762460333329E7 ; 1.7748566197258637E9 ; 1.8830265302410018E9 ; 0.0
184 ; 9250615.746714912 ; 1.0289762460333329E7 ; 1.78411202596579E9 ; 1.8933162927013352E9 ; 0.0
185 ; 9241167.876106134 ; 1.0289762460333329E7 ; 1.7933626417125049E9 ; 1.9036060551616685E9 ; 0.0
186 ; 9238300.193666613 ; 1.0289762460333329E7 ; 1.802603809588611E9 ; 1.913895817622002E9 ; 0.0
187 ; 9233899.971616887 ; 1.0289762460333329E7 ; 1.8118421097822776E9 ; 1.9241855800823352E9 ; 0.0
188 ; 9228063.925853724 ; 1.0289762460333329E7 ; 1.8210760097538946E9 ; 1.9344753425426686E9 ; 0.0
189 ; 9222390.045102874 ; 1.0289762460333329E7 ; 1.8303040736797483E9 ; 1.944765105003002E9 ; 0.0
190 ; 9219699.872594442 ; 1.0289762460333329E7 ; 1.8395264637248511E9 ; 1.9550548674633353E9 ; 0.0
191 ; 9208999.430544874 ; 1.0289762460333329E7 ; 1.8487461635974455E9 ; 1.9653446299236686E9 ; 0.0
192 ; 9206406.411830353 ; 1.0289762460333329E7 ; 1.8579551630279903E9 ; 1.975634392384002E9 ; 0.0
193 ; 9197470.31066661 ; 1.0289762460333329E7 ; 1.8671615694398208E9 ; 1.9859241548443353E9 ; 0.0
194 ; 9193840.368944895 ; 1.0289762460333329E7 ; 1.8763590397504873E9 ; 1.9962139173046687E9 ; 0.0
195 ; 9188501.398815386 ; 1.0289762460333329E7 ; 1.8855528801194322E9 ; 2.006503679765002E9 ; 0.0
196 ; 9184596.657435695 ; 1.0289762460333329E7 ; 1.8947413815182476E9 ; 2.0167934422253354E9 ; 0.0
197 ; 9178871.680348089 ; 1.0289762460333329E7 ; 1.9039259781756833E9 ; 2.0270832046856687E9 ; 0.0
198 ; 9169390.001903964 ; 1.0289762460333329E7 ; 1.9131048498560314E9 ; 2.037372967146002E9 ; 0.0
199 ; 9166287.556555947 ; 1.0289762460333329E7 ; 1.9222742398579354E9 ; 2.0476627296063354E9 ; 0.0
200 ; 9162263.92645432 ; 1.0289762460333329E7 ; 1.9314405274144914E9 ; 2.0579524920666687E9 ; 0.0
201 ; 9155733.210398637 ; 1.0289762460333329E7 ; 1.9406027913409457E9 ; 2.068242254527002E9 ; 0.0
