CSV File for the City 2 on Day 110
1 - Minute m 
2 - Power Consumed at minute m 
3 - Power Produced at minute m 
4 - Energy Consumed since the beginning of the day 
5 - Energy Produced since the beginning of the day 
6 - Energy Lost since the beginning of the day on lines starting from the city
 
0 ; 1799844.1864807692 ; 1.0526034616175947E8 ; 0.0 ; 0.0 ; 0.0
1 ; 1801365.5102884085 ; 1.0541432601204604E8 ; 1799844.1864807692 ; 1.0526034616175947E8 ; 0.0
2 ; 1803597.1025781343 ; 1.0587698267381153E8 ; 3601209.696769178 ; 2.106746721738055E8 ; 0.0
3 ; 1805252.439096293 ; 1.0664831649684137E8 ; 5404806.799347312 ; 3.1655165484761703E8 ; 0.0
4 ; 1809774.2786734507 ; 1.0772832779433203E8 ; 7210059.238443606 ; 4.231999713444584E8 ; 0.0
5 ; 1812791.481438831 ; 1.0911701684124821E8 ; 9019833.517117057 ; 5.309282991387904E8 ; 0.0
6 ; 1816980.449511467 ; 1.1081438387285504E8 ; 1.0832624998555887E7 ; 6.400453159800386E8 ; 0.0
7 ; 1824040.398050697 ; 1.1282042908344257E8 ; 1.2649605448067354E7 ; 7.508596998528937E8 ; 0.0
8 ; 1831472.8014595937 ; 1.1513515262525898E8 ; 1.4473645846118052E7 ; 8.636801289363363E8 ; 0.0
9 ; 1845997.9199206852 ; 1.1775855460766596E8 ; 1.6305118647577645E7 ; 9.788152815615952E8 ; 0.0
10 ; 1867052.3120680954 ; 1.2069063509652728E8 ; 1.815111656749833E7 ; 1.0965738361692612E9 ; 0.0
11 ; 1902967.7638197767 ; 1.2393139411383882E8 ; 2.0018168879566424E7 ; 1.2172644712657886E9 ; 0.0
12 ; 1955694.5405264152 ; 1.2748083163760468E8 ; 2.19211366433862E7 ; 1.3411958653796275E9 ; 0.0
13 ; 2007785.7499510772 ; 1.3133894760196108E8 ; 2.3876831183912616E7 ; 1.4686766970172322E9 ; 0.0
14 ; 2012919.663712459 ; 1.355057418975464E8 ; 2.5884616933863692E7 ; 1.6000156446191933E9 ; 0.0
15 ; 2016313.786077652 ; 1.399812143721124E8 ; 2.7897536597576153E7 ; 1.7355213865167398E9 ; 0.0
16 ; 2019239.437008591 ; 1.4476536483136907E8 ; 2.9913850383653805E7 ; 1.8755026008888521E9 ; 0.0
17 ; 2021638.7911055114 ; 1.4985819304005125E8 ; 3.1933089820662394E7 ; 2.0202679657202213E9 ; 0.0
18 ; 2024347.5092199487 ; 1.5525969872319424E8 ; 3.39547286117679E7 ; 2.1701261587602725E9 ; 0.0
19 ; 2027126.9760469792 ; 1.609698815676016E8 ; 3.5979076120987855E7 ; 2.3253858574834666E9 ; 0.0
20 ; 2030013.4493930768 ; 1.6698874122348782E8 ; 3.8006203097034834E7 ; 2.4863557390510683E9 ; 0.0
21 ; 2031721.1799198843 ; 1.7331627730627552E8 ; 4.003621654642791E7 ; 2.653344480274556E9 ; 0.0
22 ; 2034233.7492765991 ; 1.7995248939852637E8 ; 4.20679377263478E7 ; 2.8266607575808315E9 ; 0.0
23 ; 2036714.6275873133 ; 1.8689737705198473E8 ; 4.41021714756244E7 ; 3.0066132469793577E9 ; 0.0
24 ; 2041386.387765949 ; 1.9415093978971046E8 ; 4.613888610321171E7 ; 3.1935106240313425E9 ; 0.0
25 ; 2042301.0945640597 ; 2.0040121800646403E8 ; 4.818027249097766E7 ; 3.387661563821053E9 ; 0.0
26 ; 2046169.849484085 ; 2.004017590078495E8 ; 5.022257358554172E7 ; 3.588062781827517E9 ; 0.0
27 ; 2047907.8440582869 ; 2.004023315374903E8 ; 5.2268743435025804E7 ; 3.7884645408353667E9 ; 0.0
28 ; 2050526.9113814093 ; 2.0040293502607942E8 ; 5.4316651279084094E7 ; 3.988866872372857E9 ; 0.0
29 ; 2052132.145585211 ; 2.0040356888688892E8 ; 5.63671781904655E7 ; 4.1892698073989363E9 ; 0.0
30 ; 2054504.5904974085 ; 2.0040423251800323E8 ; 5.841931033605071E7 ; 4.389673376285825E9 ; 0.0
31 ; 2057120.1400864935 ; 2.0040492530450633E8 ; 6.047381492654812E7 ; 4.590077608803828E9 ; 0.0
32 ; 2059730.9767488865 ; 2.0040564662060824E8 ; 6.253093506663462E7 ; 4.790482534108335E9 ; 0.0
33 ; 2061916.601816857 ; 2.004063958316991E8 ; 6.45906660433835E7 ; 4.990888180728943E9 ; 0.0
34 ; 2063205.3458995027 ; 2.004071722963205E8 ; 6.665258264520036E7 ; 5.191294576560642E9 ; 0.0
35 ; 2065951.2425468718 ; 2.0040797536804512E8 ; 6.871578799109986E7 ; 5.391701748856963E9 ; 0.0
36 ; 2068317.8387230134 ; 2.0040880439725843E8 ; 7.078173923364674E7 ; 5.592109724225008E9 ; 0.0
37 ; 2069895.8451622932 ; 2.0040965873283672E8 ; 7.285005707236975E7 ; 5.792518528622267E9 ; 0.0
38 ; 2072613.6949983148 ; 2.0041053772371823E8 ; 7.491995291753204E7 ; 5.9929281873551035E9 ; 0.0
39 ; 2073808.6867798176 ; 2.004114407203651E8 ; 7.699256661253035E7 ; 6.193338725078822E9 ; 0.0
40 ; 2076338.917325301 ; 2.0041236707611528E8 ; 7.906637529931016E7 ; 6.393750165799188E9 ; 0.0
41 ; 2078486.147780712 ; 2.004133161484245E8 ; 8.114271421663547E7 ; 6.594162532875303E9 ; 0.0
42 ; 2078693.4121944683 ; 2.004142873000001E8 ; 8.322120036441618E7 ; 6.794575849023727E9 ; 0.0
43 ; 2082589.5898379486 ; 2.0041527989982864E8 ; 8.529989377661066E7 ; 6.994990136323728E9 ; 0.0
44 ; 2082984.9771662285 ; 2.0041629332410014E8 ; 8.738248336644861E7 ; 7.1954054162235565E9 ; 0.0
45 ; 2084476.7558641743 ; 2.0041732695703313E8 ; 8.946546834361485E7 ; 7.395821709547657E9 ; 0.0
46 ; 2084814.5781931654 ; 2.004183801916041E8 ; 9.154994509947902E7 ; 7.59623903650469E9 ; 0.0
47 ; 2086113.0817805042 ; 2.0041945243018627E8 ; 9.363475967767218E7 ; 7.796657416696294E9 ; 0.0
48 ; 2087623.5585789054 ; 2.0042054308510214E8 ; 9.572087275945269E7 ; 7.99707686912648E9 ; 0.0
49 ; 2088820.1505300337 ; 2.0042165157909533E8 ; 9.78084963180316E7 ; 8.197497412211582E9 ; 0.0
50 ; 2088888.8368854995 ; 2.0042277734572634E8 ; 9.989731646856163E7 ; 8.397919063790677E9 ; 0.0
51 ; 2090769.1089324062 ; 2.0042391982969782E8 ; 1.0198620530544713E8 ; 8.598341841136404E9 ; 0.0
52 ; 2090795.757910992 ; 2.0042507848711434E8 ; 1.0407697441437954E8 ; 8.798765760966103E9 ; 0.0
53 ; 2090331.9436086835 ; 2.0042625278568152E8 ; 1.0616777017229053E8 ; 8.999190839453217E9 ; 0.0
54 ; 2091182.5659555392 ; 2.0042744220485002E8 ; 1.0825810211589922E8 ; 9.199617092238897E9 ; 0.0
55 ; 2092398.3508048838 ; 2.004286462359087E8 ; 1.1034928468185475E8 ; 9.400044534443747E9 ; 0.0
56 ; 2093401.246707105 ; 2.0042986438203183E8 ; 1.1244168303265963E8 ; 9.600473180679655E9 ; 0.0
57 ; 2093935.9589193517 ; 2.0043109615828466E8 ; 1.1453508427936675E8 ; 9.800903045061687E9 ; 0.0
58 ; 2096080.9026997546 ; 2.0043234109159157E8 ; 1.166290202382861E8 ; 1.0001334141219973E10 ; 0.0
59 ; 2094378.2464638161 ; 2.0043359872067094E8 ; 1.1872510114098585E8 ; 1.0201766482311563E10 ; 0.0
60 ; 2096506.7340694196 ; 2.0043486859594008E8 ; 1.2081947938744967E8 ; 1.0402200081032234E10 ; 0.0
61 ; 2097376.9853490586 ; 2.0043615027939403E8 ; 1.2291598612151909E8 ; 1.0602634949628174E10 ; 0.0
62 ; 2097438.6616219967 ; 2.0043744334446147E8 ; 1.2501336310686815E8 ; 1.0803071099907568E10 ; 0.0
63 ; 2099269.7275963817 ; 2.0043874737584037E8 ; 1.2711080176849015E8 ; 1.100350854325203E10 ; 0.0
64 ; 2098553.5871281675 ; 2.0044006196931684E8 ; 1.2921007149608654E8 ; 1.120394729062787E10 ; 0.0
65 ; 2099123.1836371007 ; 2.0044138673156887E8 ; 1.313086250832147E8 ; 1.1404387352597187E10 ; 0.0
66 ; 2099985.4479373856 ; 2.0044272127995807E8 ; 1.334077482668518E8 ; 1.1604828739328756E10 ; 0.0
67 ; 2101248.294218834 ; 2.0044406524231103E8 ; 1.3550773371478918E8 ; 1.1805271460608715E10 ; 0.0
68 ; 2100057.342576754 ; 2.0044541825669268E8 ; 1.3760898200900802E8 ; 1.2005715525851027E10 ; 0.0
69 ; 2101068.05021568 ; 2.0044677997117272E8 ; 1.3970903935158476E8 ; 1.220616094410772E10 ; 0.0
70 ; 2101879.694285215 ; 2.0044815004358763E8 ; 1.4181010740180045E8 ; 1.2406607724078892E10 ; 0.0
71 ; 2103129.645245777 ; 2.0044952814129883E8 ; 1.4391198709608567E8 ; 1.2607055874122478E10 ; 0.0
72 ; 2104718.0374720315 ; 2.0045091394094875E8 ; 1.4601511674133146E8 ; 1.2807505402263777E10 ; 0.0
73 ; 2103749.090660781 ; 2.0045230712821588E8 ; 1.481198347788035E8 ; 1.3007956316204725E10 ; 0.0
74 ; 2105555.6697106105 ; 2.004537073975696E8 ; 1.5022358386946428E8 ; 1.3208408623332941E10 ; 0.0
75 ; 2104041.4701406774 ; 2.004551144520258E8 ; 1.5232913953917488E8 ; 1.340886233073051E10 ; 0.0
76 ; 2104373.965558308 ; 2.0045652800290444E8 ; 1.5443318100931555E8 ; 1.3609317445182537E10 ; 0.0
77 ; 2103357.7861396377 ; 2.004579477695888E8 ; 1.5653755497487387E8 ; 1.3809773973185442E10 ; 0.0
78 ; 2104574.2087305943 ; 2.0045937347928813E8 ; 1.586409127610135E8 ; 1.401023192095503E10 ; 0.0
79 ; 2103229.8490359928 ; 2.004608048668032E8 ; 1.6074548696974412E8 ; 1.4210691294434319E10 ; 0.0
80 ; 2104325.727657077 ; 2.0046224167429608E8 ; 1.628487168187801E8 ; 1.4411152099301123E10 ; 0.0
81 ; 2104000.6064270698 ; 2.004636836510637E8 ; 1.6495304254643717E8 ; 1.4611614340975418E10 ; 0.0
82 ; 2102870.0213231496 ; 2.0046513055331618E8 ; 1.6705704315286425E8 ; 1.4812078024626482E10 ; 0.0
83 ; 2102632.19556406 ; 2.0046658214395952E8 ; 1.691599131741874E8 ; 1.5012543155179798E10 ; 0.0
84 ; 2102177.3004137264 ; 2.0046803819238362E8 ; 1.7126254536975145E8 ; 1.5213009737323757E10 ; 0.0
85 ; 2101935.056919685 ; 2.0046949847425497E8 ; 1.7336472267016518E8 ; 1.541347777551614E10 ; 0.0
86 ; 2101075.050521407 ; 2.004709627713148E8 ; 1.7546665772708488E8 ; 1.5613947273990395E10 ; 0.0
87 ; 2099692.658883973 ; 2.0047243087118232E8 ; 1.7756773277760628E8 ; 1.581441823676171E10 ; 0.0
88 ; 2100918.210224491 ; 2.004739025671634E8 ; 1.7966742543649024E8 ; 1.601489066763289E10 ; 0.0
89 ; 2100588.481901746 ; 2.0047537765806445E8 ; 1.8176834364671472E8 ; 1.6215364570200054E10 ; 0.0
90 ; 2100398.4559223847 ; 2.004768559480118E8 ; 1.8386893212861645E8 ; 1.6415839947858118E10 ; 0.0
91 ; 2098558.387881472 ; 2.0047833724627617E8 ; 1.8596933058453885E8 ; 1.661631680380613E10 ; 0.0
92 ; 2099869.755989762 ; 2.004798213671027E8 ; 1.880678889724203E8 ; 1.6816795141052406E10 ; 0.0
93 ; 2097112.5808633056 ; 2.0048130812954605E8 ; 1.9016775872841007E8 ; 1.701727496241951E10 ; 0.0
94 ; 2097030.4102549986 ; 2.0048279735731044E8 ; 1.9226487130927336E8 ; 1.7217756270549057E10 ; 0.0
95 ; 2096658.0426555544 ; 2.0048428887859526E8 ; 1.9436190171952835E8 ; 1.741823906790637E10 ; 0.0
96 ; 2095976.5860603952 ; 2.0048578252594534E8 ; 1.964585597621839E8 ; 1.761872335678496E10 ; 0.0
97 ; 2094422.328605627 ; 2.0048727813610598E8 ; 1.985545363482443E8 ; 1.7819209139310905E10 ; 0.0
98 ; 2092824.005028952 ; 2.004887755498832E8 ; 2.0064895867684993E8 ; 1.801969641744701E10 ; 0.0
99 ; 2092885.4245378934 ; 2.0049027461200824E8 ; 2.027417826818789E8 ; 1.8220185192996895E10 ; 0.0
100 ; 2093614.7921438816 ; 2.00491775171007E8 ; 2.048346681064168E8 ; 1.8420675467608902E10 ; 0.0
101 ; 2092221.2241542789 ; 2.0049327707907355E8 ; 2.0692828289856067E8 ; 1.8621167242779907E10 ; 0.0
102 ; 2091070.1711213521 ; 2.0049478019194835E8 ; 2.0902050412271497E8 ; 1.8821660519858982E10 ; 0.0
103 ; 2090935.0795347414 ; 2.0049628436880037E8 ; 2.1111157429383633E8 ; 1.902215530005093E10 ; 0.0
104 ; 2090134.04325316 ; 2.0049778947211358E8 ; 2.1320250937337106E8 ; 1.922265158441973E10 ; 0.0
105 ; 2089428.5289680916 ; 2.0049929536757722E8 ; 2.1529264341662422E8 ; 1.9423149373891846E10 ; 0.0
106 ; 2088049.6296165462 ; 2.0050080192398003E8 ; 2.173820719455923E8 ; 1.9623648669259422E10 ; 0.0
107 ; 2087510.2146970523 ; 2.0050230901310813E8 ; 2.1947012157520887E8 ; 1.9824149471183403E10 ; 0.0
108 ; 2087183.1421966287 ; 2.0050381650964662E8 ; 2.2155763178990594E8 ; 2.002465178019651E10 ; 0.0
109 ; 2085614.387229907 ; 2.0050532429108468E8 ; 2.2364481493210256E8 ; 2.0225155596706158E10 ; 0.0
110 ; 2085992.4974644096 ; 2.0050683223762396E8 ; 2.2573042931933248E8 ; 2.0425660920997242E10 ; 0.0
111 ; 2083790.2503898896 ; 2.0050834023209035E8 ; 2.278164218167969E8 ; 2.0626167753234867E10 ; 0.0
112 ; 2082962.7463983963 ; 2.0050984815984887E8 ; 2.299002120671868E8 ; 2.0826676093466957E10 ; 0.0
113 ; 2082260.4580813115 ; 2.0051135590872166E8 ; 2.319831748135852E8 ; 2.1027185941626804E10 ; 0.0
114 ; 2081086.281219239 ; 2.0051286336890885E8 ; 2.340654352716665E8 ; 2.1227697297535526E10 ; 0.0
115 ; 2080113.8177743212 ; 2.0051437043291238E8 ; 2.3614652155288574E8 ; 2.1428210160904434E10 ; 0.0
116 ; 2079380.8536624804 ; 2.0051587699546245E8 ; 2.3822663537066007E8 ; 2.1628724531337345E10 ; 0.0
117 ; 2077501.9213361011 ; 2.0051738295344687E8 ; 2.4030601622432256E8 ; 2.182924040833281E10 ; 0.0
118 ; 2076656.6028790402 ; 2.0051888820584255E8 ; 2.4238351814565867E8 ; 2.2029757791286255E10 ; 0.0
119 ; 2076452.9928080845 ; 2.0052039265364993E8 ; 2.4446017474853772E8 ; 2.2230276679492096E10 ; 0.0
120 ; 2075029.0140047113 ; 2.005218961998294E8 ; 2.465366277413458E8 ; 2.2430797072145744E10 ; 0.0
121 ; 2073929.454568466 ; 2.0052339874924034E8 ; 2.486116567553505E8 ; 2.2631318968345573E10 ; 0.0
122 ; 2073832.1102156953 ; 2.0052490020858207E8 ; 2.5068558620991898E8 ; 2.2831842367094814E10 ; 0.0
123 ; 2071228.044572416 ; 2.005264004863371E8 ; 2.5275941832013467E8 ; 2.30323672673034E10 ; 0.0
124 ; 2071145.0866937456 ; 2.0052789949271643E8 ; 2.5483064636470708E8 ; 2.3232893667789734E10 ; 0.0
125 ; 2069573.0129652568 ; 2.0052939713960683E8 ; 2.5690179145140082E8 ; 2.343342156728245E10 ; 0.0
126 ; 2067607.633443095 ; 2.0053089334051985E8 ; 2.5897136446436608E8 ; 2.363395096442206E10 ; 0.0
127 ; 2068142.9582727025 ; 2.0053238801054287E8 ; 2.6103897209780917E8 ; 2.3834481857762577E10 ; 0.0
128 ; 2065653.7219450078 ; 2.0053388106629184E8 ; 2.6310711505608186E8 ; 2.403501424577312E10 ; 0.0
129 ; 2065019.9778073255 ; 2.0053537242586574E8 ; 2.6517276877802688E8 ; 2.4235548126839413E10 ; 0.0
130 ; 2061849.4738359158 ; 2.0053686200880256E8 ; 2.672377887558342E8 ; 2.4436083499265278E10 ; 0.0
131 ; 2061106.622476425 ; 2.0053834973603693E8 ; 2.692996382296701E8 ; 2.4636620361274082E10 ; 0.0
132 ; 2058759.177776721 ; 2.0053983552985936E8 ; 2.713607448521465E8 ; 2.483715871101012E10 ; 0.0
133 ; 2057579.4736530879 ; 2.005413193138768E8 ; 2.734195040299232E8 ; 2.5037698546539978E10 ; 0.0
134 ; 2054412.0341348443 ; 2.0054280101297462E8 ; 2.754770835035763E8 ; 2.5238239865853855E10 ; 0.0
135 ; 2053530.2661843966 ; 2.0054428055327994E8 ; 2.7753149553771114E8 ; 2.543878266686683E10 ; 0.0
136 ; 2050659.154715107 ; 2.0054575786212635E8 ; 2.7958502580389553E8 ; 2.563932694742011E10 ; 0.0
137 ; 2049218.10373233 ; 2.0054723286801988E8 ; 2.8163568495861065E8 ; 2.5839872705282234E10 ; 0.0
138 ; 2047694.8232311415 ; 2.0054870550060582E8 ; 2.83684903062343E8 ; 2.6040419938150253E10 ; 0.0
139 ; 2044745.9333630598 ; 2.0055017569063738E8 ; 2.8573259788557416E8 ; 2.624096864365086E10 ; 0.0
140 ; 2041680.9067648484 ; 2.0055164336994475E8 ; 2.8777734381893724E8 ; 2.6441518819341496E10 ; 0.0
141 ; 2039993.3006814753 ; 2.0055310847140566E8 ; 2.898190247257021E8 ; 2.664207046271144E10 ; 0.0
142 ; 2039109.1917544352 ; 2.0055457092891693E8 ; 2.918590180263836E8 ; 2.6842623571182846E10 ; 0.0
143 ; 2035539.477711474 ; 2.0055603067736688E8 ; 2.9389812721813804E8 ; 2.7043178142111763E10 ; 0.0
144 ; 2034556.9584165802 ; 2.0055748765260875E8 ; 2.9593366669584954E8 ; 2.724373417278913E10 ; 0.0
145 ; 2034320.4358704614 ; 2.005589417914351E8 ; 2.979682236542661E8 ; 2.744429166044174E10 ; 0.0
146 ; 2031635.8559685303 ; 2.0056039303155306E8 ; 3.000025440901366E8 ; 2.7644850602233173E10 ; 0.0
147 ; 2031308.900651882 ; 2.005618413115604E8 ; 3.020341799461051E8 ; 2.7845410995264725E10 ; 0.0
148 ; 2028254.6175327406 ; 2.0056328657092246E8 ; 3.04065488846757E8 ; 2.8045972836576286E10 ; 0.0
149 ; 2027900.1160101884 ; 2.005647287499499E8 ; 3.060937434642897E8 ; 2.824653612314721E10 ; 0.0
150 ; 2025893.799948328 ; 2.0056616778977716E8 ; 3.081216435802999E8 ; 2.844710085189716E10 ; 0.0
151 ; 2025362.4572436148 ; 2.005676036323416E8 ; 3.1014753738024825E8 ; 2.8647667019686935E10 ; 0.0
152 ; 2022821.965177189 ; 2.0056903622036356E8 ; 3.1217289983749187E8 ; 2.884823462331928E10 ; 0.0
153 ; 2021956.2128413355 ; 2.0057046549732685E8 ; 3.1419572180266905E8 ; 2.9048803659539642E10 ; 0.0
154 ; 2020014.4267174248 ; 2.0057189140746006E8 ; 3.162176780155104E8 ; 2.924937412503697E10 ; 0.0
155 ; 2018207.9343678823 ; 2.0057331389571851E8 ; 3.182376924422278E8 ; 2.9449946016444427E10 ; 0.0
156 ; 2016919.220597701 ; 2.005747329077666E8 ; 3.202559003765957E8 ; 2.9650519330340145E10 ; 0.0
157 ; 2014854.0407876966 ; 2.0057614838996106E8 ; 3.2227281959719336E8 ; 2.9851094063247913E10 ; 0.0
158 ; 2010057.6026500296 ; 2.0057756028933454E8 ; 3.2428767363798106E8 ; 3.0051670211637875E10 ; 0.0
159 ; 2006636.5763368632 ; 2.0057896855357975E8 ; 3.262977312406311E8 ; 3.0252247771927208E10 ; 0.0
160 ; 2001180.8506290207 ; 2.0058037313103437E8 ; 3.2830436781696796E8 ; 3.045282674048079E10 ; 0.0
161 ; 1997254.2152946764 ; 2.0058177397066614E8 ; 3.30305548667597E8 ; 3.0653407113611824E10 ; 0.0
162 ; 1994100.7031179217 ; 2.005831710220586E8 ; 3.3230280288289165E8 ; 3.085398888758249E10 ; 0.0
163 ; 1990273.5473043856 ; 2.0058456423539734E8 ; 3.3429690358600956E8 ; 3.105457205860455E10 ; 0.0
164 ; 1984791.0564880897 ; 2.0058595356145662E8 ; 3.3628717713331395E8 ; 3.1255156622839947E10 ; 0.0
165 ; 1982068.6529719052 ; 2.005873389515865E8 ; 3.3827196818980205E8 ; 3.14557425764014E10 ; 0.0
166 ; 1979017.0202948567 ; 2.0058872035770038E8 ; 3.40254036842774E8 ; 3.165632991535299E10 ; 0.0
167 ; 1972258.8679755824 ; 2.005900977322628E8 ; 3.422330538630688E8 ; 3.185691863571069E10 ; 0.0
168 ; 1970342.5710012473 ; 2.0059147102827784E8 ; 3.442053127310444E8 ; 3.205750873344295E10 ; 0.0
169 ; 1964735.609449259 ; 2.0059284019927788E8 ; 3.4617565530204564E8 ; 3.225810020447123E10 ; 0.0
170 ; 1960048.2406733518 ; 2.0059420519931257E8 ; 3.481403909114949E8 ; 3.245869304467051E10 ; 0.0
171 ; 1957254.1950186458 ; 2.0059556598293826E8 ; 3.501004391521683E8 ; 3.2659287249869823E10 ; 0.0
172 ; 1952993.399406649 ; 2.005969225052078E8 ; 3.520576933471869E8 ; 3.285988281585276E10 ; 0.0
173 ; 1949608.9760836049 ; 2.0059827472166064E8 ; 3.540106867465936E8 ; 3.3060479738357967E10 ; 0.0
174 ; 1945415.5012379033 ; 2.005996225883132E8 ; 3.559602957226772E8 ; 3.3261078013079628E10 ; 0.0
175 ; 1940206.0159879143 ; 2.006009660616495E8 ; 3.579057112239151E8 ; 3.3461677635667942E10 ; 0.0
176 ; 1936806.6667334521 ; 2.006023050986124E8 ; 3.5984591723990303E8 ; 3.366227860172959E10 ; 0.0
177 ; 1933351.5598832436 ; 2.006036396565947E8 ; 3.617827239066365E8 ; 3.3862880906828205E10 ; 0.0
178 ; 1931659.6017032855 ; 2.0060496969343075E8 ; 3.637160754665197E8 ; 3.40634845464848E10 ; 0.0
179 ; 1925745.8113266407 ; 2.0060629516738835E8 ; 3.65647735068223E8 ; 3.426408951617823E10 ; 0.0
180 ; 1922060.9659166315 ; 2.0060761603716087E8 ; 3.675734808795496E8 ; 3.446469581134562E10 ; 0.0
181 ; 1919495.6261157177 ; 2.0060893226185942E8 ; 3.6949554184546626E8 ; 3.466530342738278E10 ; 0.0
182 ; 1915027.700446643 ; 2.0061024380100566E8 ; 3.71415037471582E8 ; 3.486591235964464E10 ; 0.0
183 ; 1911457.6517759475 ; 2.006115506145245E8 ; 3.7333006517202866E8 ; 3.506652260344564E10 ; 0.0
184 ; 1909258.6604831999 ; 2.006128526627372E8 ; 3.752415228238046E8 ; 3.5267134154060165E10 ; 0.0
185 ; 1905890.5524841729 ; 2.0061414990635452E8 ; 3.771507814842878E8 ; 3.54677470067229E10 ; 0.0
186 ; 1901225.3145705417 ; 2.0061544230647036E8 ; 3.7905667203677195E8 ; 3.566836115662926E10 ; 0.0
187 ; 1897307.824690998 ; 2.0061672982455534E8 ; 3.809578973513425E8 ; 3.586897659893573E10 ; 0.0
188 ; 1893333.0590843866 ; 2.0061801242245066E8 ; 3.828552051760335E8 ; 3.6069593328760284E10 ; 0.0
189 ; 1890270.6171150403 ; 2.0061929006236222E8 ; 3.847485382351179E8 ; 3.627021134118273E10 ; 0.0
190 ; 1886866.7057275998 ; 2.0062056270685482E8 ; 3.8663880885223293E8 ; 3.6470830631245094E10 ; 0.0
191 ; 1884549.7253447396 ; 2.006218303188466E8 ; 3.885256755579605E8 ; 3.667145119395195E10 ; 0.0
192 ; 1881073.696598835 ; 2.0062309286160368E8 ; 3.904102252833052E8 ; 3.68720730242708E10 ; 0.0
193 ; 1875828.2605133478 ; 2.0062435029873475E8 ; 3.9229129897990406E8 ; 3.70726961171324E10 ; 0.0
194 ; 1870584.6985163377 ; 2.0062560259418628E8 ; 3.941671272404174E8 ; 3.727332046743114E10 ; 0.0
195 ; 1867827.884847366 ; 2.0062684971223733E8 ; 3.9603771193893373E8 ; 3.747394607002532E10 ; 0.0
196 ; 1865457.2881586873 ; 2.006280916174949E8 ; 3.979055398237811E8 ; 3.767457291973756E10 ; 0.0
197 ; 1861773.1951736128 ; 2.0062932827488932E8 ; 3.997709971119398E8 ; 3.787520101135505E10 ; 0.0
198 ; 1858006.064861836 ; 2.0063055964966968E8 ; 4.016327703071134E8 ; 3.807583033962994E10 ; 0.0
199 ; 1853291.8038215514 ; 2.0063178570739955E8 ; 4.0349077637197524E8 ; 3.827646089927961E10 ; 0.0
