CSV File for the City 6 on Day 108
1 - Minute m 
2 - Power Consumed at minute m 
3 - Power Produced at minute m 
4 - Energy Consumed since the beginning of the day 
5 - Energy Produced since the beginning of the day 
6 - Energy Lost since the beginning of the day on lines starting from the city
 
0 ; 1.1244765926898247E7 ; 1.0614768871149364E8 ; 0.0 ; 0.0 ; 0.0
1 ; 1.125675142730091E7 ; 1.0629859737776273E8 ; 1.1244765926898247E7 ; 1.0614768871149364E8 ; 0.0
2 ; 1.1268186953385307E7 ; 1.067584964371455E8 ; 2.2501517354199156E7 ; 2.1244628608925638E8 ; 0.0
3 ; 1.12811176561952E7 ; 1.0752738940140581E8 ; 3.3769704307584465E7 ; 3.192047825264019E8 ; 0.0
4 ; 1.1297638728799885E7 ; 1.086052794151485E8 ; 4.5050821963779666E7 ; 4.267321719278077E8 ; 0.0
5 ; 1.1321144834533602E7 ; 1.0999216923926479E8 ; 5.634846069257955E7 ; 5.353374513429562E8 ; 0.0
6 ; 1.1346330014869839E7 ; 1.1168806123613402E8 ; 6.766960552711315E7 ; 6.45329620582221E8 ; 0.0
7 ; 1.1385861557203013E7 ; 1.1369295735676545E8 ; 7.9015935541983E7 ; 7.570176818183551E8 ; 0.0
8 ; 1.1435231580671245E7 ; 1.1600685913004184E8 ; 9.0401797099186E7 ; 8.707106391751206E8 ; 0.0
9 ; 1.1514146347543826E7 ; 1.1862976765420347E8 ; 1.0183702867985725E8 ; 9.867174983051624E8 ; 0.0
10 ; 1.1641629003920397E7 ; 1.2156168359068364E8 ; 1.1335117502740107E8 ; 1.1053472659593658E9 ; 0.0
11 ; 1.184037434133216E7 ; 1.2480260716037634E8 ; 1.2499280403132147E8 ; 1.2269089495500495E9 ; 0.0
12 ; 1.215858336712124E7 ; 1.2835253814238754E8 ; 1.3683317837265363E8 ; 1.3517115567104259E9 ; 0.0
13 ; 1.2464080606977193E7 ; 1.3221147587528396E8 ; 1.4899176173977488E8 ; 1.4800640948528135E9 ; 0.0
14 ; 1.2496113876608713E7 ; 1.363794192608254E8 ; 1.6145584234675208E8 ; 1.6122755707280974E9 ; 0.0
15 ; 1.2514651318468062E7 ; 1.4085636677012897E8 ; 1.7395195622336078E8 ; 1.7486549899889228E9 ; 0.0
16 ; 1.25275850659766E7 ; 1.4564231645218554E8 ; 1.8646660754182884E8 ; 1.8895113567590518E9 ; 0.0
17 ; 1.2542475936763758E7 ; 1.507372659446157E8 ; 1.9899419260780543E8 ; 2.0351536732112374E9 ; 0.0
18 ; 1.2558114525937278E7 ; 1.5614121248652822E8 ; 2.115366685445692E8 ; 2.1858909391558533E9 ; 0.0
19 ; 1.2573591644038018E7 ; 1.618541529333183E8 ; 2.2409478307050648E8 ; 2.3420321516423817E9 ; 0.0
20 ; 1.2588075517633915E7 ; 1.67876083773222E8 ; 2.366683747145445E8 ; 2.5038863045757E9 ; 0.0
21 ; 1.2603862911968948E7 ; 1.742070011454285E8 ; 2.4925645023217842E8 ; 2.671762388348922E9 ; 0.0
22 ; 1.2616095610256393E7 ; 1.8084690085953826E8 ; 2.6186031314414737E8 ; 2.8459693894943504E9 ; 0.0
23 ; 1.2635478868079638E7 ; 1.877957784161474E8 ; 2.7447640875440377E8 ; 3.0268162903538885E9 ; 0.0
24 ; 1.2649433347136803E7 ; 1.9505362902833486E8 ; 2.8711188762248343E8 ; 3.2146120687700357E9 ; 0.0
25 ; 1.2664307914399935E7 ; 2.0130848854201257E8 ; 2.997613209696202E8 ; 3.4096656977983704E9 ; 0.0
26 ; 1.2679723292645117E7 ; 2.013138994954479E8 ; 3.1242562888402015E8 ; 3.610974186340383E9 ; 0.0
27 ; 1.2692637311651101E7 ; 2.0131962566704208E8 ; 3.2510535217666525E8 ; 3.812288085835831E9 ; 0.0
28 ; 1.2707472639074916E7 ; 2.0132566134502348E8 ; 3.3779798948831636E8 ; 4.0136077115028734E9 ; 0.0
29 ; 1.2719133786482666E7 ; 2.0133200064347193E8 ; 3.505054621273913E8 ; 4.214933372847897E9 ; 0.0
30 ; 1.2734970765812406E7 ; 2.0133863752478093E8 ; 3.63224595913874E8 ; 4.416265373491369E9 ; 0.0
31 ; 1.2748667216726957E7 ; 2.013455658216461E8 ; 3.7595956667968637E8 ; 4.61760401101615E9 ; 0.0
32 ; 1.2764166368364146E7 ; 2.0135277925843942E8 ; 3.887082338964133E8 ; 4.818949576837796E9 ; 0.0
33 ; 1.2775660880945887E7 ; 2.013602714718478E8 ; 4.014724002647775E8 ; 5.020302356096235E9 ; 0.0
34 ; 1.2788163021049801E7 ; 2.0136803603067124E8 ; 4.1424806114572334E8 ; 5.221662627568083E9 ; 0.0
35 ; 1.2805082270587824E7 ; 2.0137606645469627E8 ; 4.2703622416677314E8 ; 5.423030663598754E9 ; 0.0
36 ; 1.2815670416504482E7 ; 2.013843562325752E8 ; 4.3984130643736094E8 ; 5.624406730053451E9 ; 0.0
37 ; 1.2828017914828772E7 ; 2.0139289883866093E8 ; 4.5265697685386544E8 ; 5.825791086286026E9 ; 0.0
38 ; 1.2838495451962596E7 ; 2.0140168774876046E8 ; 4.654849947686942E8 ; 6.027183985124687E9 ; 0.0
39 ; 1.2852158368011247E7 ; 2.0141071645478693E8 ; 4.783234902206568E8 ; 6.228585672873447E9 ; 0.0
40 ; 1.2856871818693891E7 ; 2.0141997847830135E8 ; 4.9117564858866805E8 ; 6.429996389328235E9 ; 0.0
41 ; 1.2869909473551532E7 ; 2.0142946738294837E8 ; 5.040325204073619E8 ; 6.631416367806536E9 ; 0.0
42 ; 1.2875803631326722E7 ; 2.0143917678579977E8 ; 5.1690242988091344E8 ; 6.832845835189484E9 ; 0.0
43 ; 1.2886733202328905E7 ; 2.0144910036762926E8 ; 5.297782335122402E8 ; 7.034285011975284E9 ; 0.0
44 ; 1.2897069809997885E7 ; 2.014592318821492E8 ; 5.426649667145691E8 ; 7.235734112342913E9 ; 0.0
45 ; 1.2903844955879746E7 ; 2.0146956516424623E8 ; 5.55562036524567E8 ; 7.437193344225061E9 ; 0.0
46 ; 1.2914579649138702E7 ; 2.0148009413725832E8 ; 5.684658814804467E8 ; 7.638662909389308E9 ; 0.0
47 ; 1.2918822820070805E7 ; 2.01490812819339E8 ; 5.813804611295854E8 ; 7.8401430035265665E9 ; 0.0
48 ; 1.2924660088378979E7 ; 2.0150171532895768E8 ; 5.942992839496562E8 ; 8.041633816345905E9 ; 0.0
49 ; 1.2931864205906177E7 ; 2.015127958895876E8 ; 6.072239440380353E8 ; 8.243135531674863E9 ; 0.0
50 ; 1.2933947278567117E7 ; 2.0152404883363247E8 ; 6.201558082439414E8 ; 8.44464832756445E9 ; 0.0
51 ; 1.294099326619092E7 ; 2.015354686056449E8 ; 6.330897555225085E8 ; 8.646172376398083E9 ; 0.0
52 ; 1.294359747908402E7 ; 2.0154704976488858E8 ; 6.460307487886994E8 ; 8.847707845003727E9 ; 0.0
53 ; 1.2948141057137208E7 ; 2.015587869872949E8 ; 6.589743462677834E8 ; 9.049254894768616E9 ; 0.0
54 ; 1.2952844808550524E7 ; 2.0157067506686515E8 ; 6.719224873249207E8 ; 9.25081368175591E9 ; 0.0
55 ; 1.2957633060166014E7 ; 2.015827089165657E8 ; 6.848753321334711E8 ; 9.452384356822777E9 ; 0.0
56 ; 1.2963667910895934E7 ; 2.0159488356876323E8 ; 6.978329651936371E8 ; 9.653967065739342E9 ; 0.0
57 ; 1.2966834450696513E7 ; 2.016071941752447E8 ; 7.107966331045331E8 ; 9.855561949308105E9 ; 0.0
58 ; 1.2970527459877305E7 ; 2.016196360068633E8 ; 7.237634675552295E8 ; 1.005716914348335E10 ; 0.0
59 ; 1.297430875053017E7 ; 2.016322044528516E8 ; 7.367339950151068E8 ; 1.0258788779490213E10 ; 0.0
60 ; 1.2978520140877511E7 ; 2.0164489501983783E8 ; 7.497083037656369E8 ; 1.0460420983943066E10 ; 0.0
61 ; 1.2979548263301717E7 ; 2.0165770333060145E8 ; 7.626868239065144E8 ; 1.0662065878962904E10 ; 0.0
62 ; 1.2985035375925753E7 ; 2.0167062512259972E8 ; 7.756663721698161E8 ; 1.0863723582293505E10 ; 0.0
63 ; 1.2988425787139118E7 ; 2.01683656246296E8 ; 7.886514075457419E8 ; 1.1065394207416105E10 ; 0.0
64 ; 1.2995152662446858E7 ; 2.016967926633168E8 ; 8.01639833332881E8 ; 1.1267077863662401E10 ; 0.0
65 ; 1.2995967974813415E7 ; 2.0171003044446433E8 ; 8.146349859953278E8 ; 1.1468774656325718E10 ; 0.0
66 ; 1.2999095614523001E7 ; 2.0172336576760653E8 ; 8.276309539701413E8 ; 1.1670484686770182E10 ; 0.0
67 ; 1.3000921135393145E7 ; 2.0173679491546702E8 ; 8.406300495846643E8 ; 1.1872208052537788E10 ; 0.0
68 ; 1.300636033560054E7 ; 2.017503142733339E8 ; 8.536309707200575E8 ; 1.2073944847453255E10 ; 0.0
69 ; 1.300708696070568E7 ; 2.0176392032670462E8 ; 8.66637331055658E8 ; 1.227569516172659E10 ; 0.0
70 ; 1.3010798302329991E7 ; 2.0177760965888357E8 ; 8.796444180163636E8 ; 1.2477459082053293E10 ; 0.0
71 ; 1.301289617307521E7 ; 2.0179137894854555E8 ; 8.926552163186936E8 ; 1.2679236691712177E10 ; 0.0
72 ; 1.3012857747253394E7 ; 2.018052249672788E8 ; 9.056681124917688E8 ; 1.2881028070660723E10 ; 0.0
73 ; 1.301662769798499E7 ; 2.01819144577118E8 ; 9.186809702390223E8 ; 1.3082833295628002E10 ; 0.0
74 ; 1.3020446681043588E7 ; 2.0183313472807786E8 ; 9.316975979370072E8 ; 1.328465244020512E10 ; 0.0
75 ; 1.3020322870624743E7 ; 2.01847192455696E8 ; 9.447180446180508E8 ; 1.3486485574933197E10 ; 0.0
76 ; 1.3023585349260343E7 ; 2.018613148785924E8 ; 9.577383674886756E8 ; 1.3688332767388893E10 ; 0.0
77 ; 1.3027402817486815E7 ; 2.0187549919605315E8 ; 9.707619528379359E8 ; 1.3890194082267485E10 ; 0.0
78 ; 1.3023875713519344E7 ; 2.0188974268564302E8 ; 9.837893556554227E8 ; 1.4092069581463537E10 ; 0.0
79 ; 1.3018414669847699E7 ; 2.019040427008531E8 ; 9.96813231368942E8 ; 1.429395932414918E10 ; 0.0
80 ; 1.302066654071464E7 ; 2.01918396668787E8 ; 1.0098316460387897E9 ; 1.4495863366850033E10 ; 0.0
81 ; 1.3017676945613623E7 ; 2.019328020878895E8 ; 1.0228523125795044E9 ; 1.469778176351882E10 ; 0.0
82 ; 1.3017502637860496E7 ; 2.0194725652572054E8 ; 1.035869989525118E9 ; 1.4899714565606709E10 ; 0.0
83 ; 1.301451582187902E7 ; 2.0196175761677712E8 ; 1.0488874921629785E9 ; 1.510166182213243E10 ; 0.0
84 ; 1.3008474653784312E7 ; 2.019763030603648E8 ; 1.0619020079848576E9 ; 1.5303623579749207E10 ; 0.0
85 ; 1.3008063832193915E7 ; 2.0199089061852074E8 ; 1.0749104826386418E9 ; 1.5505599882809572E10 ; 0.0
86 ; 1.300689397924492E7 ; 2.020055181139887E8 ; 1.0879185464708357E9 ; 1.5707590773428093E10 ; 0.0
87 ; 1.3001231952468734E7 ; 2.0202018342824763E8 ; 1.1009254404500806E9 ; 1.5909596291542082E10 ; 0.0
88 ; 1.2999440507210214E7 ; 2.020348844995937E8 ; 1.1139266724025493E9 ; 1.611161647497033E10 ; 0.0
89 ; 1.2993893967532806E7 ; 2.0204961932127622E8 ; 1.1269261129097595E9 ; 1.6313651359469923E10 ; 0.0
90 ; 1.2992508059480002E7 ; 2.0206438593968713E8 ; 1.1399200068772924E9 ; 1.6515700978791199E10 ; 0.0
91 ; 1.2987463288271109E7 ; 2.020791824526046E8 ; 1.1529125149367723E9 ; 1.6717765364730886E10 ; 0.0
92 ; 1.2987372792022234E7 ; 2.02094007007489E8 ; 1.1658999782250435E9 ; 1.691984454718349E10 ; 0.0
93 ; 1.2985315762884585E7 ; 2.0210885779983225E8 ; 1.1788873510170658E9 ; 1.7121938554190979E10 ; 0.0
94 ; 1.2980052979774315E7 ; 2.0212373307155845E8 ; 1.1918726667799504E9 ; 1.732404741199081E10 ; 0.0
95 ; 1.2974512289868414E7 ; 2.021386311094758E8 ; 1.2048527197597246E9 ; 1.752617114506237E10 ; 0.0
96 ; 1.2971185078623386E7 ; 2.021535502437786E8 ; 1.217827232049593E9 ; 1.7728309776171844E10 ; 0.0
97 ; 1.2969372381807344E7 ; 2.0216848884659863E8 ; 1.2307984171282163E9 ; 1.7930463326415623E10 ; 0.0
98 ; 1.296276439316278E7 ; 2.0218344533060429E8 ; 1.2437677895100236E9 ; 1.8132631815262222E10 ; 0.0
99 ; 1.2956866417865464E7 ; 2.0219841814764693E8 ; 1.2567305539031863E9 ; 1.8334815260592827E10 ; 0.0
100 ; 1.2952910642202815E7 ; 2.022134057874533E8 ; 1.2696874203210518E9 ; 1.8537013678740475E10 ; 0.0
101 ; 1.2952004496766178E7 ; 2.0222840677636206E8 ; 1.2826403309632547E9 ; 1.8739227084527927E10 ; 0.0
102 ; 1.2950251133043425E7 ; 2.0224341967610466E8 ; 1.2955923354600208E9 ; 1.894145549130429E10 ; 0.0
103 ; 1.294568038745894E7 ; 2.022584430826277E8 ; 1.3085425865930643E9 ; 1.9143698910980396E10 ; 0.0
104 ; 1.2938712641441295E7 ; 2.02273475624957E8 ; 1.3214882669805233E9 ; 1.9345957354063023E10 ; 0.0
105 ; 1.2931086572841493E7 ; 2.0228851596410125E8 ; 1.3344269796219647E9 ; 1.954823082968798E10 ; 0.0
106 ; 1.2929740774330724E7 ; 2.0230356279199436E8 ; 1.347358066194806E9 ; 1.975051934565208E10 ; 0.0
107 ; 1.2920994265243055E7 ; 2.0231861483047554E8 ; 1.3602878069691367E9 ; 1.9952822908444077E10 ; 0.0
108 ; 1.2916049978673555E7 ; 2.0233367083030522E8 ; 1.3732088012343798E9 ; 2.015514152327455E10 ; 0.0
109 ; 1.2914549201609826E7 ; 2.0234872957021666E8 ; 1.3861248512130532E9 ; 2.035747519410486E10 ; 0.0
110 ; 1.290694219403444E7 ; 2.023637898560009E8 ; 1.399039400414663E9 ; 2.0559823923675076E10 ; 0.0
111 ; 1.2903703140954293E7 ; 2.0237885051962525E8 ; 1.4119463426086974E9 ; 2.0762187713531075E10 ; 0.0
112 ; 1.2898072747416751E7 ; 2.0239391041838282E8 ; 1.4248500457496517E9 ; 2.09645665640507E10 ; 0.0
113 ; 1.2888762084143676E7 ; 2.0240896843407333E8 ; 1.4377481184970684E9 ; 2.1166960474469086E10 ; 0.0
114 ; 1.2880055592093345E7 ; 2.0242402347221294E8 ; 1.450636880581212E9 ; 2.136936944290316E10 ; 0.0
115 ; 1.2879403127192516E7 ; 2.0243907446127307E8 ; 1.4635169361733053E9 ; 2.1571793466375374E10 ; 0.0
116 ; 1.2871125637333333E7 ; 2.0245412035194653E8 ; 1.4763963393004978E9 ; 2.1774232540836647E10 ; 0.0
117 ; 1.2865690493370473E7 ; 2.024691601164404E8 ; 1.4892674649378312E9 ; 2.1976686661188595E10 ; 0.0
118 ; 1.2861281237565981E7 ; 2.0248419274779418E8 ; 1.5021331554312017E9 ; 2.2179155821305035E10 ; 0.0
119 ; 1.2853822132074203E7 ; 2.0249921725922322E8 ; 1.5149944366687677E9 ; 2.238164001405283E10 ; 0.0
120 ; 1.284681605368728E7 ; 2.025142326834853E8 ; 1.5278482588008418E9 ; 2.2584139231312054E10 ; 0.0
121 ; 1.2840549431435341E7 ; 2.0252923807227057E8 ; 1.5406950748545291E9 ; 2.278665346399554E10 ; 0.0
122 ; 1.2834880409795048E7 ; 2.0254423249561352E8 ; 1.5535356242859645E9 ; 2.298918270206781E10 ; 0.0
123 ; 1.2827399184269916E7 ; 2.0255921504132608E8 ; 1.5663705046957595E9 ; 2.3191726934563423E10 ; 0.0
124 ; 1.2819925990568446E7 ; 2.0257418481445134E8 ; 1.5791979038800294E9 ; 2.3394286149604748E10 ; 0.0
125 ; 1.2812807245794542E7 ; 2.0258914093673694E8 ; 1.5920178298705978E9 ; 2.35968603344192E10 ; 0.0
126 ; 1.2810297622747151E7 ; 2.0260408254612765E8 ; 1.6048306371163924E9 ; 2.3799449475355938E10 ; 0.0
127 ; 1.2799548092260614E7 ; 2.0261900879627582E8 ; 1.6176409347391396E9 ; 2.4002053557902065E10 ; 0.0
128 ; 1.2791093890853684E7 ; 2.0263391885606998E8 ; 1.6304404828314002E9 ; 2.420467256669834E10 ; 0.0
129 ; 1.278532516324383E7 ; 2.0264881190917993E8 ; 1.6432315767222538E9 ; 2.4407306485554413E10 ; 0.0
130 ; 1.2779919093931422E7 ; 2.026636871536185E8 ; 1.6560169018854976E9 ; 2.4609955297463593E10 ; 0.0
131 ; 1.276409444060207E7 ; 2.0267854380131876E8 ; 1.668796820979429E9 ; 2.481261898461721E10 ; 0.0
132 ; 1.2752199110276615E7 ; 2.0269338107772648E8 ; 1.681560915420031E9 ; 2.501529752841853E10 ; 0.0
133 ; 1.2744968062041653E7 ; 2.0270819822140715E8 ; 1.6943131145303078E9 ; 2.5217990909496258E10 ; 0.0
134 ; 1.2730754706186669E7 ; 2.0272299448366687E8 ; 1.7070580825923495E9 ; 2.5420699107717667E10 ; 0.0
135 ; 1.2717166094388584E7 ; 2.0273776912818694E8 ; 1.7197888372985363E9 ; 2.5623422102201332E10 ; 0.0
136 ; 1.2709157465116734E7 ; 2.0275252143067127E8 ; 1.7325060033929248E9 ; 2.5826159871329517E10 ; 0.0
137 ; 1.2693160668337228E7 ; 2.027672506785062E8 ; 1.7452151608580415E9 ; 2.602891239276019E10 ; 0.0
138 ; 1.2684565400163768E7 ; 2.0278195617043257E8 ; 1.7579083215263789E9 ; 2.6231679643438694E10 ; 0.0
139 ; 1.2669231206175618E7 ; 2.027966372162291E8 ; 1.7705928869265425E9 ; 2.6434461599609127E10 ; 0.0
140 ; 1.2657622109465985E7 ; 2.0281129313640717E8 ; 1.783262118132718E9 ; 2.6637258236825356E10 ; 0.0
141 ; 1.2644213392168833E7 ; 2.02825923261916E8 ; 1.7959197402421842E9 ; 2.684006952996176E10 ; 0.0
142 ; 1.2633884031216057E7 ; 2.028405269338585E8 ; 1.808563953634353E9 ; 2.704289545322368E10 ; 0.0
143 ; 1.2618748197953362E7 ; 2.0285510350321668E8 ; 1.821197837665569E9 ; 2.7245735980157536E10 ; 0.0
144 ; 1.2606099665979793E7 ; 2.028696523305869E8 ; 1.8338165858635225E9 ; 2.744859108366075E10 ; 0.0
145 ; 1.2598371561865546E7 ; 2.028841727859242E8 ; 1.8464226855295024E9 ; 2.7651460735991337E10 ; 0.0
146 ; 1.2596283794240758E7 ; 2.0289866424829552E8 ; 1.859021057091368E9 ; 2.785434490877726E10 ; 0.0
147 ; 1.2581996937920187E7 ; 2.029131261056414E8 ; 1.8716173408856087E9 ; 2.8057243573025555E10 ; 0.0
148 ; 1.257681960668388E7 ; 2.0292755775454593E8 ; 1.8841993378235288E9 ; 2.8260156699131195E10 ; 0.0
149 ; 1.256843846060347E7 ; 2.029419586000147E8 ; 1.8967761574302127E9 ; 2.8463084256885742E10 ; 0.0
150 ; 1.255923146671508E7 ; 2.0295632805526015E8 ; 1.9093445958908162E9 ; 2.8666026215485756E10 ; 0.0
151 ; 1.2553995414631223E7 ; 2.029706655414944E8 ; 1.9219038273575313E9 ; 2.8868982543541016E10 ; 0.0
152 ; 1.2546600833010746E7 ; 2.0298497048772928E8 ; 1.9344578227721624E9 ; 2.907195320908251E10 ; 0.0
153 ; 1.2536501028441189E7 ; 2.0299924233058274E8 ; 1.947004423605173E9 ; 2.927493817957024E10 ; 0.0
154 ; 1.252595812890166E7 ; 2.0301348051409236E8 ; 1.9595409246336143E9 ; 2.947793742190082E10 ; 0.0
155 ; 1.2520719513602452E7 ; 2.0302768448953474E8 ; 1.972066882762516E9 ; 2.9680950902414913E10 ; 0.0
156 ; 1.2509820054243546E7 ; 2.0304185371525115E8 ; 1.9845876022761185E9 ; 2.988397858690445E10 ; 0.0
157 ; 1.2501467618986193E7 ; 2.0305598765647915E8 ; 1.997097422330362E9 ; 3.00870204406197E10 ; 0.0
158 ; 1.2495355001380933E7 ; 2.030700857851896E8 ; 2.0095988899493482E9 ; 3.029007642827618E10 ; 0.0
159 ; 1.2488357008203903E7 ; 2.0308414757992935E8 ; 2.0220942449507291E9 ; 3.049314651406137E10 ; 0.0
160 ; 1.247473200942317E7 ; 2.0309817252566916E8 ; 2.034582601958933E9 ; 3.06962306616413E10 ; 0.0
161 ; 1.2464996032728309E7 ; 2.0311216011365646E8 ; 2.0470573339683564E9 ; 3.089932883416697E10 ; 0.0
162 ; 1.2459022304729374E7 ; 2.0312610984127322E8 ; 2.0595223300010846E9 ; 3.1102440994280624E10 ; 0.0
163 ; 1.2448956128496185E7 ; 2.031400212118985E8 ; 2.071981352305814E9 ; 3.13055671041219E10 ; 0.0
164 ; 1.2442173023356244E7 ; 2.0315389373477548E8 ; 2.0844303084343102E9 ; 3.1508707125333797E10 ; 0.0
165 ; 1.2431569971750032E7 ; 2.0316772692488274E8 ; 2.0968724814576664E9 ; 3.1711861019068573E10 ; 0.0
166 ; 1.242487963053059E7 ; 2.0318152030281007E8 ; 2.1093040514294164E9 ; 3.1915028745993454E10 ; 0.0
167 ; 1.2417718995976137E7 ; 2.0319527339463812E8 ; 2.121728931059947E9 ; 3.2118210266296265E10 ; 0.0
168 ; 1.2407303832475709E7 ; 2.0320898573182192E8 ; 2.1341466500559232E9 ; 3.2321405539690903E10 ; 0.0
169 ; 1.2396594912930705E7 ; 2.0322265685107845E8 ; 2.146553953888399E9 ; 3.2524614525422726E10 ; 0.0
170 ; 1.238823326522646E7 ; 2.032362862942776E8 ; 2.1589505488013296E9 ; 3.2727837182273804E10 ; 0.0
171 ; 1.2382685459462645E7 ; 2.032498736083369E8 ; 2.171338782066556E9 ; 3.293107346856808E10 ; 0.0
172 ; 1.2369698844460586E7 ; 2.0326341834511927E8 ; 2.1837214675260186E9 ; 3.313432334217642E10 ; 0.0
173 ; 1.2362922547386328E7 ; 2.032769200613346E8 ; 2.196091166370479E9 ; 3.3337586760521538E10 ; 0.0
174 ; 1.2343632441574965E7 ; 2.0329037831844407E8 ; 2.2084540889178653E9 ; 3.354086368058287E10 ; 0.0
175 ; 1.231782892642068E7 ; 2.0330379268256766E8 ; 2.2207977213594403E9 ; 3.3744154058901314E10 ; 0.0
176 ; 1.2293643211906988E7 ; 2.0331716272439453E8 ; 2.233115550285861E9 ; 3.394745785158388E10 ; 0.0
177 ; 1.2274278461386777E7 ; 2.033304880190966E8 ; 2.245409193497768E9 ; 3.4150775014308277E10 ; 0.0
178 ; 1.2251314875235755E7 ; 2.0334376814624447E8 ; 2.2576834719591546E9 ; 3.4354105502327374E10 ; 0.0
179 ; 1.2228903588801807E7 ; 2.0335700268972608E8 ; 2.26993478683439E9 ; 3.455744927047362E10 ; 0.0
180 ; 1.220661854163363E7 ; 2.0337019123766828E8 ; 2.282163690423192E9 ; 3.4760806273163345E10 ; 0.0
181 ; 1.2181457225275042E7 ; 2.033833333823603E8 ; 2.2943703089648256E9 ; 3.496417646440102E10 ; 0.0
182 ; 1.2157421439422563E7 ; 2.0339642872018027E8 ; 2.3065517661901007E9 ; 3.516755979778338E10 ; 0.0
183 ; 1.213606357611479E7 ; 2.0340947685152358E8 ; 2.3187091876295233E9 ; 3.5370956226503555E10 ; 0.0
184 ; 1.2114960444720794E7 ; 2.0342247738073358E8 ; 2.330845251205638E9 ; 3.557436570335508E10 ; 0.0
185 ; 1.2092129391284693E7 ; 2.0343542991603464E8 ; 2.3429602116503587E9 ; 3.577778818073582E10 ; 0.0
186 ; 1.2067708248305742E7 ; 2.0344833406946704E8 ; 2.355052341041643E9 ; 3.598122361065185E10 ; 0.0
187 ; 1.2043938335875923E7 ; 2.0346118945682415E8 ; 2.367120049289949E9 ; 3.618467194472131E10 ; 0.0
188 ; 1.2017102057008956E7 ; 2.0347399569759125E8 ; 2.379163987625825E9 ; 3.638813313417814E10 ; 0.0
189 ; 1.1996751066390986E7 ; 2.0348675241488656E8 ; 2.3911810896828337E9 ; 3.659160712987573E10 ; 0.0
190 ; 1.1974314986031648E7 ; 2.034994592354039E8 ; 2.4031778407492247E9 ; 3.679509388229062E10 ; 0.0
191 ; 1.1954331128605878E7 ; 2.035121157893571E8 ; 2.415152155735256E9 ; 3.6998593341526024E10 ; 0.0
192 ; 1.1930866089790616E7 ; 2.035247217104263E8 ; 2.427106486863862E9 ; 3.7202105457315384E10 ; 0.0
193 ; 1.1908781892397283E7 ; 2.0353727663570577E8 ; 2.439037352953653E9 ; 3.740563017902581E10 ; 0.0
194 ; 1.1879748553532725E7 ; 2.0354978020565322E8 ; 2.4509461348460503E9 ; 3.7609167455661514E10 ; 0.0
195 ; 1.185755729872345E7 ; 2.0356223206404105E8 ; 2.462825883399583E9 ; 3.7812717235867165E10 ; 0.0
