CSV File for the City 3 on Day 246
1 - Minute m 
2 - Power Consumed at minute m 
3 - Power Produced at minute m 
4 - Energy Consumed since the beginning of the day 
5 - Energy Produced since the beginning of the day 
6 - Energy Lost since the beginning of the day on lines starting from the city
 
0 ; 443834.08907633345 ; 1.053356988163487E8 ; 0.0 ; 0.0 ; 0.0
1 ; 445511.0136424748 ; 1.0548807412605417E8 ; 443834.08907633345 ; 1.053356988163487E8 ; 0.0
2 ; 448443.7549349065 ; 1.059492770122017E8 ; 889345.1027188082 ; 2.1082377294240287E8 ; 0.0
3 ; 451702.1697696003 ; 1.067193134069525E8 ; 1337788.8576537147 ; 3.1677304995460457E8 ; 0.0
4 ; 453913.0104836315 ; 1.0779818880541259E8 ; 1789491.027423315 ; 4.2349236336155707E8 ; 0.0
5 ; 460142.07452310633 ; 1.0918590818101037E8 ; 2243404.0379069466 ; 5.3129055216696966E8 ; 0.0
6 ; 465928.08826441324 ; 1.1088247590403333E8 ; 2703546.112430053 ; 6.4047646034798E8 ; 0.0
7 ; 472077.48113071325 ; 1.1288789566616428E8 ; 3169474.200694466 ; 7.513589362520133E8 ; 0.0
8 ; 483866.3801425629 ; 1.1520217041387033E8 ; 3641551.681825179 ; 8.642468319181776E8 ; 0.0
9 ; 501080.0595726722 ; 1.1782530229333764E8 ; 4125418.061967742 ; 9.794490023320479E8 ; 0.0
10 ; 526552.6201221909 ; 1.2075729260929012E8 ; 4626498.121540414 ; 1.0972743046253855E9 ; 0.0
11 ; 566870.6342033547 ; 1.2399814179951051E8 ; 5153050.741662605 ; 1.2180315972346756E9 ; 0.0
12 ; 631950.4292215945 ; 1.2754784942621604E8 ; 5719921.37586596 ; 1.3420297390341861E9 ; 0.0
13 ; 695742.6470847866 ; 1.3140641418468279E8 ; 6351871.805087554 ; 1.4695775884604023E9 ; 0.0
14 ; 705593.7365946237 ; 1.355738339287247E8 ; 7047614.452172341 ; 1.600984002645085E9 ; 0.0
15 ; 707661.8361041009 ; 1.4005010571187454E8 ; 7753208.188766965 ; 1.7365578365738099E9 ; 0.0
16 ; 709518.539725217 ; 1.4483522584244964E8 ; 8460870.024871066 ; 1.8766079422856843E9 ; 0.0
17 ; 713176.4022176875 ; 1.4992918995016238E8 ; 9170388.564596284 ; 2.021443168128134E9 ; 0.0
18 ; 716623.1722230021 ; 1.553319930615844E8 ; 9883564.966813972 ; 2.171372358078296E9 ; 0.0
19 ; 718793.6270523007 ; 1.6104362968160972E8 ; 1.0600188139036974E7 ; 2.3267043511398807E9 ; 0.0
20 ; 724523.482686275 ; 1.6706409387807706E8 ; 1.1318981766089275E7 ; 2.4877479808214903E9 ; 0.0
21 ; 726643.3591667676 ; 1.733933793668845E8 ; 1.2043505248775551E7 ; 2.6548120746995673E9 ; 0.0
22 ; 728147.6629040601 ; 1.8003147959522378E8 ; 1.2770148607942319E7 ; 2.828205454066452E9 ; 0.0
23 ; 731947.5506560897 ; 1.8697838782094288E8 ; 1.3498296270846378E7 ; 3.008236933661676E9 ; 0.0
24 ; 735797.7916798886 ; 1.9423409718646967E8 ; 1.4230243821502468E7 ; 3.195215321482619E9 ; 0.0
25 ; 738643.8781189383 ; 2.0048664168434584E8 ; 1.4966041613182357E7 ; 3.3894494186690884E9 ; 0.0
26 ; 741627.3008821814 ; 2.0048956225417918E8 ; 1.5704685491301294E7 ; 3.589936060353434E9 ; 0.0
27 ; 744911.6309672726 ; 2.0049262135995865E8 ; 1.6446312792183476E7 ; 3.790425622607613E9 ; 0.0
28 ; 747097.7480743683 ; 2.004958122815591E8 ; 1.7191224423150748E7 ; 3.9909182439675717E9 ; 0.0
29 ; 750993.1968130037 ; 2.0049912844525808E8 ; 1.7938322171225116E7 ; 4.1914140562491307E9 ; 0.0
30 ; 754111.8812229817 ; 2.0050256345395717E8 ; 1.8689315368038118E7 ; 4.391913184694388E9 ; 0.0
31 ; 758363.8198036739 ; 2.00506111110898E8 ; 1.94434272492611E7 ; 4.592415748148346E9 ; 0.0
32 ; 760825.1999769624 ; 2.0050976543750057E8 ; 2.0201791069064774E7 ; 4.792921859259244E9 ; 0.0
33 ; 764639.8436257902 ; 2.00513520685993E8 ; 2.0962616269041736E7 ; 4.993431624696745E9 ; 0.0
34 ; 765016.9134686667 ; 2.0051737134750688E8 ; 2.1727256112667527E7 ; 5.193945145382738E9 ; 0.0
35 ; 768237.5873514703 ; 2.0052131215629506E8 ; 2.2492273026136193E7 ; 5.394462516730245E9 ; 0.0
36 ; 771766.2981583454 ; 2.0052533809068945E8 ; 2.3260510613487665E7 ; 5.594983828886539E9 ; 0.0
37 ; 773196.3893685121 ; 2.005294443713693E8 ; 2.403227691164601E7 ; 5.795509166977229E9 ; 0.0
38 ; 773436.5203481679 ; 2.0053362645745245E8 ; 2.480547330101452E7 ; 5.9960386113485985E9 ; 0.0
39 ; 778486.5957243035 ; 2.005378800408651E8 ; 2.557890982136269E7 ; 6.196572237806051E9 ; 0.0
40 ; 780751.6290602064 ; 2.005422010393868E8 ; 2.6357396417086992E7 ; 6.397110117846916E9 ; 0.0
41 ; 782363.5930109067 ; 2.005465855887114E8 ; 2.7138148046147197E7 ; 6.597652318886303E9 ; 0.0
42 ; 784654.8717265222 ; 2.0055103003381315E8 ; 2.7920511639158104E7 ; 6.798198904475015E9 ; 0.0
43 ; 786137.9898732328 ; 2.005555309198599E8 ; 2.8705166510884628E7 ; 6.998749934508828E9 ; 0.0
44 ; 787774.0613407284 ; 2.0056008498287293E8 ; 2.9491304500757862E7 ; 7.199305465428688E9 ; 0.0
45 ; 790163.1502307372 ; 2.0056468914029562E8 ; 3.027907856209859E7 ; 7.399865550411561E9 ; 0.0
46 ; 791106.3344474197 ; 2.0056934048160106E8 ; 3.1069241712329324E7 ; 7.600430239551857E9 ; 0.0
47 ; 793568.2582887631 ; 2.0057403625904113E8 ; 3.1860348046776745E7 ; 7.800999580033458E9 ; 0.0
48 ; 794892.2936456408 ; 2.005787738786159E8 ; 3.265391630506551E7 ; 8.001573616292499E9 ; 0.0
49 ; 796339.5557171381 ; 2.005835508913222E8 ; 3.3448808598711148E7 ; 8.202152390171115E9 ; 0.0
50 ; 797485.8273153341 ; 2.0058836498472506E8 ; 3.424514815442829E7 ; 8.402735941062437E9 ; 0.0
51 ; 799503.613357704 ; 2.0059321397488013E8 ; 3.504263398174362E7 ; 8.603324306047163E9 ; 0.0
52 ; 800054.5883914211 ; 2.005980957986267E8 ; 3.584213759510132E7 ; 8.803917520022043E9 ; 0.0
53 ; 800308.8027705656 ; 2.0060300850626016E8 ; 3.664219218349274E7 ; 9.00451561582067E9 ; 0.0
54 ; 801233.0466456207 ; 2.0060795025458702E8 ; 3.7442500986263305E7 ; 9.20511862432693E9 ; 0.0
55 ; 802020.3908328811 ; 2.0061291930035937E8 ; 3.8243734032908924E7 ; 9.405726574581516E9 ; 0.0
56 ; 802975.827529051 ; 2.0061791399408177E8 ; 3.90457544237418E7 ; 9.606339493881876E9 ; 0.0
57 ; 807166.6996881118 ; 2.0062293277418065E8 ; 3.984873025127085E7 ; 9.806957407875957E9 ; 0.0
58 ; 806755.288413938 ; 2.0062797416152346E8 ; 4.065589695095897E7 ; 1.0007580340650139E10 ; 0.0
59 ; 807089.3546355404 ; 2.0063303675427362E8 ; 4.14626522393729E7 ; 1.0208208314811663E10 ; 0.0
60 ; 808006.0382058609 ; 2.00638119223066E8 ; 4.2269741594008446E7 ; 1.0408841351565937E10 ; 0.0
61 ; 809448.4963480216 ; 2.0064322030648732E8 ; 4.307774763221431E7 ; 1.0609479470789003E10 ; 0.0
62 ; 809106.4254857124 ; 2.0064833880684543E8 ; 4.388719612856233E7 ; 1.0810122691095491E10 ; 0.0
63 ; 809993.6639159762 ; 2.006534735862114E8 ; 4.469630255404805E7 ; 1.1010771029902336E10 ; 0.0
64 ; 812423.42684853 ; 2.0065862356271893E8 ; 4.550629621796402E7 ; 1.1211424503488548E10 ; 0.0
65 ; 811793.5059813985 ; 2.0066378770710513E8 ; 4.6318719644812554E7 ; 1.1412083127051268E10 ; 0.0
66 ; 812874.6445154177 ; 2.0066896503947875E8 ; 4.7130513150793955E7 ; 1.1612746914758373E10 ; 0.0
67 ; 815188.7288519394 ; 2.0067415462630063E8 ; 4.794338779530937E7 ; 1.1813415879797852E10 ; 0.0
68 ; 813675.6557369404 ; 2.0067935557756343E8 ; 4.875857652416131E7 ; 1.2014090034424152E10 ; 0.0
69 ; 814972.9936749445 ; 2.0068456704415712E8 ; 4.957225217989825E7 ; 1.2214769390001717E10 ; 0.0
70 ; 815340.787506553 ; 2.006897882154086E8 ; 5.038722517357319E7 ; 1.2415453957045874E10 ; 0.0
71 ; 818663.7153575327 ; 2.0069501831678325E8 ; 5.120256596107974E7 ; 1.2616143745261282E10 ; 0.0
72 ; 816229.6445711089 ; 2.0070025660773775E8 ; 5.202122967643727E7 ; 1.2816838763578066E10 ; 0.0
73 ; 817165.6439868317 ; 2.0070550237971416E8 ; 5.2837459321008384E7 ; 1.3017539020185804E10 ; 0.0
74 ; 819554.1263162751 ; 2.0071075495426503E8 ; 5.365462496499521E7 ; 1.321824452256552E10 ; 0.0
75 ; 818224.802891219 ; 2.0071601368130136E8 ; 5.4474179091311485E7 ; 1.3418955277519785E10 ; 0.0
76 ; 818953.0436481321 ; 2.0072127793745425E8 ; 5.52924038942027E7 ; 1.3619671291201086E10 ; 0.0
77 ; 820738.7429424712 ; 2.00726547124543E8 ; 5.611135693785083E7 ; 1.382039256913854E10 ; 0.0
78 ; 820507.2036850856 ; 2.0073182066814205E8 ; 5.693209568079331E7 ; 1.4021119116263083E10 ; 0.0
79 ; 820475.4303621318 ; 2.0073709801623973E8 ; 5.775260288447839E7 ; 1.4221850936931225E10 ; 0.0
80 ; 819618.4746478824 ; 2.0074237863798332E8 ; 5.8573078314840525E7 ; 1.4422588034947464E10 ; 0.0
81 ; 820696.517332815 ; 2.0074766202250344E8 ; 5.9392696789488405E7 ; 1.4623330413585447E10 ; 0.0
82 ; 820579.9735631414 ; 2.0075294767781317E8 ; 6.021339330682122E7 ; 1.482407807560795E10 ; 0.0
83 ; 820800.7234200813 ; 2.0075823512977642E8 ; 6.103397328038436E7 ; 1.5024831023285763E10 ; 0.0
84 ; 816926.3306076205 ; 2.007635239211407E8 ; 6.1854774003804445E7 ; 1.5225589258415539E10 ; 0.0
85 ; 818738.8729142823 ; 2.0076881361063027E8 ; 6.267170033441207E7 ; 1.542635278233668E10 ; 0.0
86 ; 818457.7615299528 ; 2.0077410377209532E8 ; 6.349043920732635E7 ; 1.562712159594731E10 ; 0.0
87 ; 818949.4430010311 ; 2.0077939399371338E8 ; 6.4308896968856305E7 ; 1.5827895699719404E10 ; 0.0
88 ; 818589.3061499431 ; 2.007846838772397E8 ; 6.512784641185734E7 ; 1.6028675093713118E10 ; 0.0
89 ; 817225.7659041203 ; 2.0078997303730297E8 ; 6.594643571800728E7 ; 1.6229459777590357E10 ; 0.0
90 ; 816044.5390898647 ; 2.0079526110074356E8 ; 6.67636614839114E7 ; 1.6430249750627659E10 ; 0.0
91 ; 816934.1298559933 ; 2.0080054770599157E8 ; 6.757970602300127E7 ; 1.6631045011728403E10 ; 0.0
92 ; 816098.8981960001 ; 2.0080583250248167E8 ; 6.839664015285726E7 ; 1.6831845559434395E10 ; 0.0
93 ; 815767.6192235413 ; 2.008111151501028E8 ; 6.921273905105326E7 ; 1.7032651391936876E10 ; 0.0
94 ; 814120.670132948 ; 2.0081639531868E8 ; 7.002850667027679E7 ; 1.723346250708698E10 ; 0.0
95 ; 813768.639502076 ; 2.008216726874866E8 ; 7.084262734040974E7 ; 1.743427890240566E10 ; 0.0
96 ; 813327.8726527066 ; 2.0082694694478473E8 ; 7.165639597991182E7 ; 1.7635100575093143E10 ; 0.0
97 ; 812643.5592433615 ; 2.0083221778739214E8 ; 7.246972385256453E7 ; 1.783592752203793E10 ; 0.0
98 ; 812051.6347805109 ; 2.0083748492027393E8 ; 7.32823674118079E7 ; 1.803675973982532E10 ; 0.0
99 ; 810348.973087413 ; 2.0084274805615735E8 ; 7.40944190465884E7 ; 1.8237597224745594E10 ; 0.0
100 ; 811203.1368588804 ; 2.0084800691516855E8 ; 7.490476801967582E7 ; 1.843843997280175E10 ; 0.0
101 ; 811262.8030632436 ; 2.0085326122448942E8 ; 7.57159711565347E7 ; 1.863928797971692E10 ; 0.0
102 ; 810135.2753287194 ; 2.0085851071803367E8 ; 7.652723395959795E7 ; 1.884014124094141E10 ; 0.0
103 ; 810362.2042831987 ; 2.0086375513614082E8 ; 7.733736923492667E7 ; 1.9040999751659443E10 ; 0.0
104 ; 808420.5866693933 ; 2.00868994225287E8 ; 7.814773143920986E7 ; 1.9241863506795586E10 ; 0.0
105 ; 807522.2660196159 ; 2.008742277378114E8 ; 7.895615202587926E7 ; 1.9442732501020874E10 ; 0.0
106 ; 807974.8315130945 ; 2.008794554316577E8 ; 7.976367429189888E7 ; 1.9643606728758686E10 ; 0.0
107 ; 807083.3881067868 ; 2.0088467707012933E8 ; 8.057164912341197E7 ; 1.9844486184190342E10 ; 0.0
108 ; 805742.3179218102 ; 2.0088989242165777E8 ; 8.137873251151876E7 ; 2.004537086126047E10 ; 0.0
109 ; 805553.385110076 ; 2.008951012595832E8 ; 8.218447482944058E7 ; 2.024626075368213E10 ; 0.0
110 ; 804972.4466587605 ; 2.0090030336194676E8 ; 8.299002821455066E7 ; 2.044715585494171E10 ; 0.0
111 ; 802551.6067294112 ; 2.009054985112935E8 ; 8.379500066120942E7 ; 2.0648056158303658E10 ; 0.0
112 ; 801953.0954142626 ; 2.0091068649448586E8 ; 8.459755226793884E7 ; 2.0848961656814953E10 ; 0.0
113 ; 800625.273371652 ; 2.009158671025266E8 ; 8.53995053633531E7 ; 2.104987234330944E10 ; 0.0
114 ; 802259.923407774 ; 2.009210401303908E8 ; 8.620013063672476E7 ; 2.125078821041197E10 ; 0.0
115 ; 798639.7693778055 ; 2.0092620537686655E8 ; 8.700239056013253E7 ; 2.145170925054236E10 ; 0.0
116 ; 798650.1672229903 ; 2.0093136264440364E8 ; 8.780103032951035E7 ; 2.1652635455919224E10 ; 0.0
117 ; 798648.6180414852 ; 2.0093651173896992E8 ; 8.859968049673334E7 ; 2.185356681856363E10 ; 0.0
118 ; 797477.2968598042 ; 2.009416524699148E8 ; 8.939832911477482E7 ; 2.20545033303026E10 ; 0.0
119 ; 796178.4268513323 ; 2.009467846498394E8 ; 9.019580641163462E7 ; 2.2255444982772514E10 ; 0.0
120 ; 796009.3934477061 ; 2.0095190809447357E8 ; 9.099198483848596E7 ; 2.2456391767422356E10 ; 0.0
121 ; 794693.2293810055 ; 2.0095702262255833E8 ; 9.178799423193367E7 ; 2.265734367551683E10 ; 0.0
122 ; 791681.2671187315 ; 2.0096212805573452E8 ; 9.258268746131468E7 ; 2.285830069813939E10 ; 0.0
123 ; 790359.6969983553 ; 2.009672242184367E8 ; 9.337436872843342E7 ; 2.305926282619512E10 ; 0.0
124 ; 791103.2255342478 ; 2.00972310937792E8 ; 9.416472842543177E7 ; 2.326023005041356E10 ; 0.0
125 ; 790751.8227018225 ; 2.0097738804352412E8 ; 9.495583165096602E7 ; 2.3461202361351353E10 ; 0.0
126 ; 788879.693974234 ; 2.0098245536786163E8 ; 9.574658347366785E7 ; 2.366217974939488E10 ; 0.0
127 ; 787623.4191919994 ; 2.0098751274545082E8 ; 9.653546316764207E7 ; 2.386316220476274E10 ; 0.0
128 ; 786271.3284558012 ; 2.0099256001327243E8 ; 9.732308658683407E7 ; 2.406414971750819E10 ; 0.0
129 ; 784709.4823552805 ; 2.0099759701056254E8 ; 9.810935791528988E7 ; 2.426514227752146E10 ; 0.0
130 ; 783458.4937573896 ; 2.0100262357873687E8 ; 9.889406739764516E7 ; 2.4466139874532024E10 ; 0.0
131 ; 782496.7195439689 ; 2.0100763956131876E8 ; 9.967752589140256E7 ; 2.466714249811076E10 ; 0.0
132 ; 779728.0118491551 ; 2.0101264480387044E8 ; 1.0046002261094652E8 ; 2.4868150137672077E10 ; 0.0
133 ; 779233.3087773836 ; 2.010176391539274E8 ; 1.0123975062279567E8 ; 2.506916278247595E10 ; 0.0
134 ; 777421.1000323689 ; 2.0102262246093565E8 ; 1.0201898393157305E8 ; 2.5270180421629875E10 ; 0.0
135 ; 774288.8551502478 ; 2.0102759457619217E8 ; 1.0279640503160542E8 ; 2.5471203044090813E10 ; 0.0
136 ; 773434.5495816735 ; 2.010325553527875E8 ; 1.0357069388675568E8 ; 2.5672230638667004E10 ; 0.0
137 ; 770553.2756726575 ; 2.0103750464555144E8 ; 1.0434412843633735E8 ; 2.587326319401979E10 ; 0.0
138 ; 768548.1603052934 ; 2.0104244231100076E8 ; 1.0511468171201001E8 ; 2.607430069866534E10 ; 0.0
139 ; 766136.0701375335 ; 2.010473682072895E8 ; 1.058832298723153E8 ; 2.627534314097634E10 ; 0.0
140 ; 763886.0739693209 ; 2.0105228219416124E8 ; 1.0664936594245283E8 ; 2.647639050918363E10 ; 0.0
141 ; 762477.0374203633 ; 2.0105718413290367E8 ; 1.0741325201642215E8 ; 2.6677442791377792E10 ; 0.0
142 ; 760996.3388021154 ; 2.0106207388630503E8 ; 1.0817572905384251E8 ; 2.6878499975510696E10 ; 0.0
143 ; 758129.2575913446 ; 2.0106695131861237E8 ; 1.0893672539264463E8 ; 2.7079562049397003E10 ; 0.0
144 ; 756596.0214458392 ; 2.0107181629549178E8 ; 1.0969485465023598E8 ; 2.7280629000715614E10 ; 0.0
145 ; 756120.7892087507 ; 2.0107666868399027E8 ; 1.1045145067168182E8 ; 2.7481700817011105E10 ; 0.0
146 ; 754887.3760899747 ; 2.0108150835249916E8 ; 1.1120757146089058E8 ; 2.7682777485695095E10 ; 0.0
147 ; 752201.2704391471 ; 2.0108633517071927E8 ; 1.1196245883698055E8 ; 2.7883858994047596E10 ; 0.0
148 ; 750351.7761825824 ; 2.0109114900962728E8 ; 1.127146601074197E8 ; 2.8084945329218315E10 ; 0.0
149 ; 748676.7420517175 ; 2.0109594974144387E8 ; 1.1346501188360228E8 ; 2.8286036478227943E10 ; 0.0
150 ; 749147.8569570736 ; 2.0110073723960283E8 ; 1.14213688625654E8 ; 2.8487132427969387E10 ; 0.0
151 ; 747550.911119964 ; 2.0110551137872183E8 ; 1.1496283648261108E8 ; 2.868823316520899E10 ; 0.0
152 ; 746999.2831775685 ; 2.0111027203457406E8 ; 1.1571038739373104E8 ; 2.888933867658771E10 ; 0.0
153 ; 746112.7594468988 ; 2.0111501908406132E8 ; 1.1645738667690861E8 ; 2.9090448948622284E10 ; 0.0
154 ; 743908.3368881921 ; 2.0111975240518808E8 ; 1.1720349943635552E8 ; 2.9291563967706345E10 ; 0.0
155 ; 742278.4036452933 ; 2.011244718770366E8 ; 1.1794740777324371E8 ; 2.9492683720111534E10 ; 0.0
156 ; 740562.1010631764 ; 2.0112917737974328E8 ; 1.18689686176889E8 ; 2.969380819198857E10 ; 0.0
157 ; 739662.9331072369 ; 2.011338687944756E8 ; 1.1943024827795218E8 ; 2.9894937369368313E10 ; 0.0
158 ; 741190.6951466353 ; 2.011385460034104E8 ; 1.2016991121105942E8 ; 3.009607123816279E10 ; 0.0
159 ; 739026.8063129899 ; 2.011432088897128E8 ; 1.2091110190620606E8 ; 3.02972097841662E10 ; 0.0
160 ; 735891.1990570327 ; 2.0114785733751604E8 ; 1.2165012871251905E8 ; 3.0498352993055912E10 ; 0.0
161 ; 735432.8202230579 ; 2.0115249123190203E8 ; 1.2238601991157608E8 ; 3.069950085039343E10 ; 0.0
162 ; 733907.9321058859 ; 2.0115711045888302E8 ; 1.2312145273179914E8 ; 3.090065334162533E10 ; 0.0
163 ; 734379.8755355796 ; 2.0116171490538353E8 ; 1.2385536066390502E8 ; 3.1101810452084213E10 ; 0.0
164 ; 731122.5698215176 ; 2.011663044592234E8 ; 1.245897405394406E8 ; 3.1302972166989597E10 ; 0.0
165 ; 731972.7997155713 ; 2.0117087900910127E8 ; 1.2532086310926212E8 ; 3.1504138471448822E10 ; 0.0
166 ; 731474.7268681583 ; 2.0117543844457892E8 ; 1.260528359089777E8 ; 3.1705309350457924E10 ; 0.0
167 ; 728221.7483563282 ; 2.0117998265606597E8 ; 1.2678431063584585E8 ; 3.1906484788902504E10 ; 0.0
168 ; 727449.7341124831 ; 2.0118451153480548E8 ; 1.2751253238420218E8 ; 3.210766477155857E10 ; 0.0
169 ; 725524.4318028525 ; 2.0118902497285986E8 ; 1.2823998211831467E8 ; 3.2308849283093376E10 ; 0.0
170 ; 724775.6240603509 ; 2.0119352286309755E8 ; 1.2896550655011752E8 ; 3.2510038308066235E10 ; 0.0
171 ; 723272.1870307367 ; 2.0119800509918004E8 ; 1.2969028217417787E8 ; 3.2711231830929333E10 ; 0.0
172 ; 722277.1200063449 ; 2.0120247157554963E8 ; 1.304135543612086E8 ; 3.291242983602851E10 ; 0.0
173 ; 720643.4363570157 ; 2.0120692218741733E8 ; 1.3113583148121494E8 ; 3.311363230760406E10 ; 0.0
174 ; 720438.9085254971 ; 2.0121135683075154E8 ; 1.3185647491757196E8 ; 3.3314839229791477E10 ; 0.0
175 ; 720090.093000317 ; 2.012157754022671E8 ; 1.3257691382609746E8 ; 3.351605058662223E10 ; 0.0
176 ; 718925.3407770228 ; 2.0122017779941466E8 ; 1.3329700391909778E8 ; 3.3717266362024498E10 ; 0.0
177 ; 716869.6072379511 ; 2.012245639203706E8 ; 1.340159292598748E8 ; 3.3918486539823914E10 ; 0.0
178 ; 715652.4665208152 ; 2.0122893366402718E8 ; 1.3473279886711276E8 ; 3.4119711103744286E10 ; 0.0
179 ; 715762.282678285 ; 2.0123328692998323E8 ; 1.3544845133363357E8 ; 3.4320940037408314E10 ; 0.0
180 ; 714944.2431019709 ; 2.0123762361853522E8 ; 1.3616421361631185E8 ; 3.4522173324338295E10 ; 0.0
181 ; 712999.5553705385 ; 2.0124194363066843E8 ; 1.3687915785941383E8 ; 3.472341094795683E10 ; 0.0
182 ; 714336.4322720022 ; 2.012462468680488E8 ; 1.3759215741478437E8 ; 3.49246528915875E10 ; 0.0
183 ; 712685.906876668 ; 2.0125053323301476E8 ; 1.383064938470564E8 ; 3.512589913845555E10 ; 0.0
184 ; 713058.8337987404 ; 2.0125480262856978E8 ; 1.3901917975393304E8 ; 3.532714967168857E10 ; 0.0
185 ; 710368.9126820659 ; 2.0125905495837474E8 ; 1.3973223858773178E8 ; 3.552840447431714E10 ; 0.0
186 ; 710346.2499223603 ; 2.0126329012674093E8 ; 1.4044260750041384E8 ; 3.572966352927551E10 ; 0.0
187 ; 708872.88277359 ; 2.0126750803862324E8 ; 1.411529537503362E8 ; 3.593092681940225E10 ; 0.0
188 ; 708628.4029434253 ; 2.012717085996136E8 ; 1.4186182663310978E8 ; 3.613219432744087E10 ; 0.0
189 ; 707396.2574788083 ; 2.0127589171593457E8 ; 1.425704550360532E8 ; 3.633346603604049E10 ; 0.0
190 ; 705979.6103850661 ; 2.0128005729443347E8 ; 1.43277851293532E8 ; 3.6534741927756424E10 ; 0.0
191 ; 705966.4212187749 ; 2.0128420524257636E8 ; 1.4398383090391707E8 ; 3.673602198505086E10 ; 0.0
192 ; 705043.4445557045 ; 2.0128833546844253E8 ; 1.4468979732513586E8 ; 3.6937306190293434E10 ; 0.0
193 ; 703975.2549207578 ; 2.0129244788071916E8 ; 1.4539484076969156E8 ; 3.713859452576188E10 ; 0.0
194 ; 701153.2152150177 ; 2.01296542388696E8 ; 1.460988160246123E8 ; 3.73398869736426E10 ; 0.0
195 ; 702999.2771620435 ; 2.013006189022607E8 ; 1.4679996923982733E8 ; 3.7541183516031296E10 ; 0.0
196 ; 701963.3599575965 ; 2.0130467733189356E8 ; 1.4750296851698938E8 ; 3.7742484134933556E10 ; 0.0
197 ; 700272.1713604148 ; 2.0130871758866346E8 ; 1.48204931876947E8 ; 3.794378881226545E10 ; 0.0
198 ; 699572.7423848968 ; 2.0131273958422312E8 ; 1.489052040483074E8 ; 3.814509752985411E10 ; 0.0
199 ; 698386.7644902541 ; 2.0131674323080498E8 ; 1.496047767906923E8 ; 3.834641026943833E10 ; 0.0
200 ; 697730.5744306799 ; 2.013207284412171E8 ; 1.5030316355518255E8 ; 3.8547727012669136E10 ; 0.0
201 ; 697758.8465541515 ; 2.0117710237833035E8 ; 1.5100089412961322E8 ; 3.874904774111035E10 ; 0.0
