CSV File for the City 4 on Day 22
1 - Minute m 
2 - Power Consumed at minute m 
3 - Power Produced at minute m 
4 - Energy Consumed since the beginning of the day 
5 - Energy Produced since the beginning of the day 
6 - Energy Lost since the beginning of the day on lines starting from the city
 
0 ; 4717940.105513146 ; 5.1519265580643475E7 ; 0.0 ; 0.0 ; 0.0
1 ; 4721810.525802006 ; 5.167358656829777E7 ; 4717940.105513146 ; 5.1519265580643475E7 ; 613.6199999999999
2 ; 4726785.807001758 ; 5.213654953126073E7 ; 9439750.631315153 ; 1.0319285214894125E8 ; 1227.2399999999998
3 ; 4732456.899017906 ; 5.290815446953234E7 ; 1.4166536438316911E7 ; 1.5532940168020198E8 ; 1840.8599999999997
4 ; 4740416.409319766 ; 5.398840138311258E7 ; 1.889899333733482E7 ; 2.0823755614973432E8 ; 2454.4799999999996
5 ; 4746266.355016788 ; 5.5377290272001475E7 ; 2.3639409746654585E7 ; 2.622259575328469E8 ; 3068.0999999999995
6 ; 4759731.965205837 ; 5.707482113619899E7 ; 2.838567610167137E7 ; 3.176032478048484E8 ; 3681.7199999999993
7 ; 4771695.188893034 ; 5.908099397570517E7 ; 3.314540806687721E7 ; 3.746780689410474E8 ; 4295.339999999999
8 ; 4795904.923147649 ; 6.1395808790519975E7 ; 3.791710325577024E7 ; 4.337590629167525E8 ; 4908.959999999999
9 ; 4827960.593611973 ; 6.401926558064344E7 ; 4.271300817891789E7 ; 4.9515487170727247E8 ; 5522.579999999999
10 ; 4879153.597077173 ; 6.695136434607556E7 ; 4.754096877252986E7 ; 5.59174137287916E8 ; 6136.199999999999
11 ; 4957384.673857283 ; 7.019210508681631E7 ; 5.242012236960704E7 ; 6.261255016339915E8 ; 6749.819999999999
12 ; 5086930.312783623 ; 7.374148780286568E7 ; 5.737750704346432E7 ; 6.963176067208078E8 ; 7363.439999999999
13 ; 5208011.500512836 ; 7.759951249422368E7 ; 6.246443735624794E7 ; 7.700590945236735E8 ; 7977.059999999999
14 ; 5222265.556459791 ; 8.176617916089037E7 ; 6.767244885676077E7 ; 8.476586070178972E8 ; 8590.679999999998
15 ; 5229079.792386306 ; 8.624148780286565E7 ; 7.289471441322055E7 ; 9.294247861787876E8 ; 9204.3
16 ; 5235088.400620659 ; 9.102543842014962E7 ; 7.812379420560686E7 ; 1.0156662739816532E9 ; 9817.919999999998
17 ; 5240611.283767349 ; 9.611803101274222E7 ; 8.335888260622752E7 ; 1.1066917124018028E9 ; 10431.539999999997
18 ; 5245595.271279255 ; 1.0151926558064345E8 ; 8.859949388999486E7 ; 1.202809743414545E9 ; 11045.159999999996
19 ; 5251683.777559385 ; 1.0722914212385333E8 ; 9.384508916127412E7 ; 1.3043290089951885E9 ; 11658.779999999995
20 ; 5256649.934248143 ; 1.1324766064237183E8 ; 9.90967729388335E7 ; 1.411558151119042E9 ; 12272.399999999994
21 ; 5264814.427364265 ; 1.19574821136199E8 ; 1.0435342287308165E8 ; 1.5248058117614138E9 ; 12886.019999999993
22 ; 5268086.273748891 ; 1.2621062360533479E8 ; 1.0961823730044591E8 ; 1.6443806328976128E9 ; 13499.639999999992
23 ; 5276010.8681676 ; 1.3315506804977927E8 ; 1.148863235741948E8 ; 1.7705912565029476E9 ; 14113.259999999991
24 ; 5280678.43003976 ; 1.4040815446953234E8 ; 1.201623344423624E8 ; 1.9037463245527267E9 ; 14726.87999999999
25 ; 5289333.172831833 ; 1.4665792376277754E8 ; 1.2544301287240216E8 ; 2.044154479022259E9 ; 15340.499999999989
26 ; 5294600.183905567 ; 1.4665792376277754E8 ; 1.30732346045234E8 ; 2.1908124027850366E9 ; 15954.119999999988
27 ; 5300472.814560954 ; 1.4665792376277754E8 ; 1.3602694622913957E8 ; 2.337470326547814E9 ; 16567.739999999987
28 ; 5305054.669322405 ; 1.4665792376277754E8 ; 1.4132741904370052E8 ; 2.484128250310591E9 ; 17181.359999999986
29 ; 5311621.412905659 ; 1.4665792376277754E8 ; 1.4663247371302292E8 ; 2.6307861740733685E9 ; 17794.979999999985
30 ; 5316681.929853811 ; 1.4665792376277754E8 ; 1.5194409512592858E8 ; 2.777444097836146E9 ; 18408.599999999984
31 ; 5320046.641959584 ; 1.4665792376277754E8 ; 1.5726077705578238E8 ; 2.924102021598923E9 ; 19022.219999999983
32 ; 5327639.175903893 ; 1.4665792376277754E8 ; 1.6258082369774196E8 ; 3.0707599453617005E9 ; 19635.839999999982
33 ; 5331135.176735902 ; 1.4665792376277754E8 ; 1.6790846287364584E8 ; 3.217417869124478E9 ; 20249.45999999998
34 ; 5335429.31538018 ; 1.4665792376277754E8 ; 1.7323959805038175E8 ; 3.364075792887255E9 ; 20863.07999999998
35 ; 5341863.398812783 ; 1.4665792376277754E8 ; 1.7857502736576194E8 ; 3.5107337166500325E9 ; 21476.69999999998
36 ; 5345576.565318289 ; 1.4665792376277754E8 ; 1.839168907645747E8 ; 3.65739164041281E9 ; 22090.319999999978
37 ; 5351467.281344892 ; 1.4665792376277754E8 ; 1.89262467329893E8 ; 3.804049564175587E9 ; 22703.939999999977
38 ; 5355213.5872578155 ; 1.4665792376277754E8 ; 1.9461393461123788E8 ; 3.9507074879383645E9 ; 23317.559999999976
39 ; 5359906.862390892 ; 1.4665792376277754E8 ; 1.999691481984957E8 ; 4.097365411701142E9 ; 23931.179999999975
40 ; 5362900.152539628 ; 1.4665792376277754E8 ; 2.053290550608866E8 ; 4.244023335463919E9 ; 24544.799999999974
41 ; 5365954.814791784 ; 1.4665792376277754E8 ; 2.1069195521342623E8 ; 4.390681259226697E9 ; 25158.419999999973
42 ; 5368600.914420475 ; 1.4665792376277754E8 ; 2.1605791002821803E8 ; 4.537339182989474E9 ; 25772.03999999997
43 ; 5374055.214631678 ; 1.4665792376277754E8 ; 2.2142651094263852E8 ; 4.683997106752252E9 ; 26385.65999999997
44 ; 5376499.528325982 ; 1.4665792376277754E8 ; 2.268005661572702E8 ; 4.830655030515029E9 ; 26999.27999999997
45 ; 5380334.624753474 ; 1.4665792376277754E8 ; 2.3217706568559617E8 ; 4.977312954277806E9 ; 27612.89999999997
46 ; 5381987.365240116 ; 1.4665792376277754E8 ; 2.3755740031034964E8 ; 5.123970878040584E9 ; 28226.519999999968
47 ; 5384333.74213706 ; 1.4665792376277754E8 ; 2.4293938767558977E8 ; 5.270628801803361E9 ; 28840.139999999967
48 ; 5386273.823618671 ; 1.4665792376277754E8 ; 2.483237214177268E8 ; 5.417286725566138E9 ; 29453.759999999966
49 ; 5388225.538575798 ; 1.4665792376277754E8 ; 2.537099952413455E8 ; 5.563944649328916E9 ; 30067.379999999965
50 ; 5390969.452082326 ; 1.4665792376277754E8 ; 2.590982207799213E8 ; 5.710602573091693E9 ; 30680.999999999964
51 ; 5393477.828754187 ; 1.4665792376277754E8 ; 2.6448919023200363E8 ; 5.85726049685447E9 ; 31294.619999999963
52 ; 5393371.791207592 ; 1.4665792376277754E8 ; 2.698826680607578E8 ; 6.003918420617248E9 ; 31908.23999999996
53 ; 5392504.578414249 ; 1.4665792376277754E8 ; 2.752760398519654E8 ; 6.150576344380025E9 ; 32521.85999999996
54 ; 5394169.579333822 ; 1.4665792376277754E8 ; 2.806685444303797E8 ; 6.297234268142802E9 ; 33135.47999999996
55 ; 5395055.236421536 ; 1.4665792376277754E8 ; 2.8606271400971353E8 ; 6.44389219190558E9 ; 33749.09999999996
56 ; 5398987.893237733 ; 1.4665792376277754E8 ; 2.9145776924613506E8 ; 6.590550115668357E9 ; 34362.719999999965
57 ; 5400261.1588872755 ; 1.4665792376277754E8 ; 2.9685675713937277E8 ; 6.737208039431134E9 ; 34976.33999999997
58 ; 5401400.188964794 ; 1.4665792376277754E8 ; 3.0225701829826003E8 ; 6.883865963193912E9 ; 35589.95999999997
59 ; 5400938.788661397 ; 1.4665792376277754E8 ; 3.076584184872248E8 ; 7.030523886956689E9 ; 36203.57999999997
60 ; 5401525.12096978 ; 1.4665792376277754E8 ; 3.1305935727588624E8 ; 7.177181810719466E9 ; 36817.199999999975
61 ; 5403640.404482261 ; 1.4665792376277754E8 ; 3.18460882396856E8 ; 7.323839734482244E9 ; 37430.81999999998
62 ; 5403911.526357966 ; 1.4665792376277754E8 ; 3.2386452280133826E8 ; 7.470497658245021E9 ; 38044.43999999998
63 ; 5403360.552894443 ; 1.4665792376277754E8 ; 3.292684343276962E8 ; 7.617155582007798E9 ; 38658.05999999998
64 ; 5405987.286080167 ; 1.4665792376277754E8 ; 3.346717948805907E8 ; 7.763813505770576E9 ; 39271.679999999986
65 ; 5406967.952986832 ; 1.4665792376277754E8 ; 3.4007778216667086E8 ; 7.910471429533353E9 ; 39885.29999999999
66 ; 5407513.789999726 ; 1.4665792376277754E8 ; 3.454847501196577E8 ; 8.05712935329613E9 ; 40498.91999999999
67 ; 5407992.250493354 ; 1.4665792376277754E8 ; 3.508922639096574E8 ; 8.2037872770589075E9 ; 41112.53999999999
68 ; 5408027.632255885 ; 1.4665792376277754E8 ; 3.5630025616015077E8 ; 8.350445200821685E9 ; 41726.159999999996
69 ; 5409908.207318656 ; 1.4665792376277754E8 ; 3.617082837924067E8 ; 8.497103124584462E9 ; 42339.78
70 ; 5410476.159233242 ; 1.4665792376277754E8 ; 3.6711819199972534E8 ; 8.64376104834724E9 ; 42953.4
71 ; 5409350.851523768 ; 1.4665792376277754E8 ; 3.7252866815895855E8 ; 8.790418972110018E9 ; 43567.020000000004
72 ; 5409831.802204399 ; 1.4665792376277754E8 ; 3.779380190104823E8 ; 8.937076895872795E9 ; 44180.64000000001
73 ; 5411925.602804168 ; 1.4665792376277754E8 ; 3.833478508126867E8 ; 9.083734819635572E9 ; 44794.26000000001
74 ; 5411084.554170493 ; 1.4665792376277754E8 ; 3.8875977641549087E8 ; 9.23039274339835E9 ; 45407.88000000001
75 ; 5411796.782821609 ; 1.4665792376277754E8 ; 3.9417086096966136E8 ; 9.377050667161127E9 ; 46021.500000000015
76 ; 5409397.092851186 ; 1.4665792376277754E8 ; 3.9958265775248295E8 ; 9.523708590923904E9 ; 46635.12000000002
77 ; 5412739.519533906 ; 1.4665792376277754E8 ; 4.049920548453341E8 ; 9.670366514686682E9 ; 47248.74000000002
78 ; 5411142.425830777 ; 1.4665792376277754E8 ; 4.1040479436486804E8 ; 9.81702443844946E9 ; 47862.36000000002
79 ; 5408948.508368237 ; 1.4665792376277754E8 ; 4.158159367906988E8 ; 9.963682362212236E9 ; 48475.980000000025
80 ; 5406654.363090739 ; 1.4665792376277754E8 ; 4.212248852990671E8 ; 1.0110340285975014E10 ; 49089.60000000003
81 ; 5407599.533012797 ; 1.4665792376277754E8 ; 4.2663153966215783E8 ; 1.0256998209737791E10 ; 49703.22000000003
82 ; 5405394.469020023 ; 1.4665792376277754E8 ; 4.3203913919517064E8 ; 1.0403656133500568E10 ; 50316.84000000003
83 ; 5402347.494140514 ; 1.4665792376277754E8 ; 4.3744453366419065E8 ; 1.0550314057263346E10 ; 50930.460000000036
84 ; 5399953.639511218 ; 1.4665792376277754E8 ; 4.4284688115833116E8 ; 1.0696971981026123E10 ; 51544.08000000004
85 ; 5396711.980979538 ; 1.4665792376277754E8 ; 4.482468347978424E8 ; 1.08436299047889E10 ; 52157.70000000004
86 ; 5397747.398298875 ; 1.4665792376277754E8 ; 4.5364354677882195E8 ; 1.0990287828551678E10 ; 52771.32000000004
87 ; 5394198.611666974 ; 1.4665792376277754E8 ; 4.590412941771208E8 ; 1.1136945752314455E10 ; 53384.940000000046
88 ; 5392686.840162539 ; 1.4665792376277754E8 ; 4.644354927887878E8 ; 1.1283603676077232E10 ; 53998.56000000005
89 ; 5392921.172383988 ; 1.4665792376277754E8 ; 4.698281796289503E8 ; 1.143026159984001E10 ; 54612.18000000005
90 ; 5388552.433419642 ; 1.4665792376277754E8 ; 4.7522110080133426E8 ; 1.1576919523602787E10 ; 55225.800000000054
91 ; 5384723.789350436 ; 1.4665792376277754E8 ; 4.806096532347539E8 ; 1.1723577447365564E10 ; 55839.42000000006
92 ; 5383926.453527596 ; 1.4665792376277754E8 ; 4.8599437702410436E8 ; 1.1870235371128342E10 ; 56453.04000000006
93 ; 5382717.74025265 ; 1.4665792376277754E8 ; 4.913783034776319E8 ; 1.2016893294891119E10 ; 57066.66000000006
94 ; 5380201.417695151 ; 1.4665792376277754E8 ; 4.967610212178846E8 ; 1.2163551218653896E10 ; 57680.280000000064
95 ; 5379206.621237487 ; 1.4665792376277754E8 ; 5.0214122263557976E8 ; 1.2310209142416674E10 ; 58293.90000000007
96 ; 5374755.834205008 ; 1.4665792376277754E8 ; 5.075204292568172E8 ; 1.2456867066179451E10 ; 58907.52000000007
97 ; 5374122.3486488 ; 1.4665792376277754E8 ; 5.1289518509102225E8 ; 1.2603524989942228E10 ; 59521.14000000007
98 ; 5369559.338005254 ; 1.4665792376277754E8 ; 5.1826930743967104E8 ; 1.2750182913705006E10 ; 60134.760000000075
99 ; 5369458.456757966 ; 1.4665792376277754E8 ; 5.236388667776763E8 ; 1.2896840837467783E10 ; 60748.38000000008
100 ; 5366119.966219317 ; 1.4665792376277754E8 ; 5.2900832523443425E8 ; 1.304349876123056E10 ; 61362.00000000008
101 ; 5363024.366861681 ; 1.4665792376277754E8 ; 5.3437444520065355E8 ; 1.3190156684993338E10 ; 61975.62000000008
102 ; 5360319.820113279 ; 1.4665792376277754E8 ; 5.397374695675153E8 ; 1.3336814608756115E10 ; 62589.240000000085
103 ; 5359000.687606789 ; 1.4665792376277754E8 ; 5.450977893876286E8 ; 1.3483472532518892E10 ; 63202.86000000009
104 ; 5354611.202255952 ; 1.4665792376277754E8 ; 5.504567900752354E8 ; 1.363013045628167E10 ; 63816.48000000009
105 ; 5351162.71404069 ; 1.4665792376277754E8 ; 5.558114012774913E8 ; 1.3776788380044447E10 ; 64430.10000000009
106 ; 5350800.847962424 ; 1.4665792376277754E8 ; 5.61162563991532E8 ; 1.3923446303807224E10 ; 65043.720000000096
107 ; 5347182.538261734 ; 1.4665792376277754E8 ; 5.665133648394943E8 ; 1.4070104227570002E10 ; 65657.3400000001
108 ; 5344387.182768659 ; 1.4665792376277754E8 ; 5.718605473777561E8 ; 1.4216762151332779E10 ; 66270.9600000001
109 ; 5341598.057084004 ; 1.4665792376277754E8 ; 5.772049345605248E8 ; 1.4363420075095556E10 ; 66884.58000000009
110 ; 5336332.124095538 ; 1.4665792376277754E8 ; 5.825465326176088E8 ; 1.4510077998858334E10 ; 67498.20000000008
111 ; 5333691.563308061 ; 1.4665792376277754E8 ; 5.878828647417043E8 ; 1.465673592262111E10 ; 68111.82000000008
112 ; 5331401.680304445 ; 1.4665792376277754E8 ; 5.932165563050125E8 ; 1.4803393846383888E10 ; 68725.44000000008
113 ; 5326478.091301923 ; 1.4665792376277754E8 ; 5.985479579853169E8 ; 1.4950051770146666E10 ; 69339.06000000007
114 ; 5322741.16751388 ; 1.4665792376277754E8 ; 6.038744360766188E8 ; 1.5096709693909443E10 ; 69952.68000000007
115 ; 5321572.169508754 ; 1.4665792376277754E8 ; 6.091971772441326E8 ; 1.524336761767222E10 ; 70566.30000000006
116 ; 5316441.698993166 ; 1.4665792376277754E8 ; 6.145187494136413E8 ; 1.5390025541434998E10 ; 71179.92000000006
117 ; 5315813.308595198 ; 1.4665792376277754E8 ; 6.198351911126345E8 ; 1.5536683465197775E10 ; 71793.54000000005
118 ; 5309900.113021989 ; 1.4665792376277754E8 ; 6.251510044212297E8 ; 1.5683341388960552E10 ; 72407.16000000005
119 ; 5307056.809793644 ; 1.4665792376277754E8 ; 6.304609045342517E8 ; 1.582999931272333E10 ; 73020.78000000004
120 ; 5303808.843189539 ; 1.4665792376277754E8 ; 6.357679613440453E8 ; 1.5976657236486107E10 ; 73634.40000000004
121 ; 5300665.338079482 ; 1.4665792376277754E8 ; 6.410717701872349E8 ; 1.6123315160248884E10 ; 74248.02000000003
122 ; 5295429.561144656 ; 1.4665792376277754E8 ; 6.463724355253143E8 ; 1.6269973084011662E10 ; 74861.64000000003
123 ; 5292023.399746124 ; 1.4665792376277754E8 ; 6.51667865086459E8 ; 1.6416631007774439E10 ; 75475.26000000002
124 ; 5289014.66306091 ; 1.4665792376277754E8 ; 6.569598884862052E8 ; 1.6563288931537216E10 ; 76088.88000000002
125 ; 5283930.396945437 ; 1.4665792376277754E8 ; 6.622489031492661E8 ; 1.6709946855299994E10 ; 76702.50000000001
126 ; 5281100.004537198 ; 1.4665792376277754E8 ; 6.675328335462116E8 ; 1.685660477906277E10 ; 77316.12000000001
127 ; 5274556.4938945975 ; 1.4665792376277754E8 ; 6.728139335507488E8 ; 1.7003262702825548E10 ; 77929.74
128 ; 5272817.818639876 ; 1.4665792376277754E8 ; 6.780884900446434E8 ; 1.7149920626588326E10 ; 78543.36
129 ; 5269086.938415945 ; 1.4665792376277754E8 ; 6.833613078632833E8 ; 1.7296578550351105E10 ; 79156.98
130 ; 5262154.739043773 ; 1.4665792376277754E8 ; 6.886303948016992E8 ; 1.7443236474113884E10 ; 79770.59999999999
131 ; 5257540.025045363 ; 1.4665792376277754E8 ; 6.93892549540743E8 ; 1.7589894397876663E10 ; 80384.21999999999
132 ; 5253022.093760729 ; 1.4665792376277754E8 ; 6.991500895657884E8 ; 1.7736552321639442E10 ; 80997.83999999998
133 ; 5247797.213944571 ; 1.4665792376277754E8 ; 7.044031116595491E8 ; 1.788321024540222E10 ; 81611.45999999998
134 ; 5238860.846473797 ; 1.4665792376277754E8 ; 7.096509088734937E8 ; 1.8029868169165E10 ; 82225.07999999997
135 ; 5234353.152675087 ; 1.4665792376277754E8 ; 7.148897697199675E8 ; 1.817652609292778E10 ; 82838.69999999997
136 ; 5226262.217092421 ; 1.4665792376277754E8 ; 7.201241228726425E8 ; 1.832318401669056E10 ; 83452.31999999996
137 ; 5222507.924360965 ; 1.4665792376277754E8 ; 7.253503850897349E8 ; 1.846984194045334E10 ; 84065.93999999996
138 ; 5215951.251946969 ; 1.4665792376277754E8 ; 7.305728930140959E8 ; 1.8616499864216118E10 ; 84679.55999999995
139 ; 5210896.37363122 ; 1.4665792376277754E8 ; 7.357888442660428E8 ; 1.8763157787978897E10 ; 85293.17999999995
140 ; 5202930.175382159 ; 1.4665792376277754E8 ; 7.409997406396741E8 ; 1.8909815711741676E10 ; 85906.79999999994
141 ; 5198043.83100221 ; 1.4665792376277754E8 ; 7.462026708150562E8 ; 1.9056473635504456E10 ; 86520.41999999994
142 ; 5191987.8248197185 ; 1.4665792376277754E8 ; 7.514007146460584E8 ; 1.9203131559267235E10 ; 87134.03999999994
143 ; 5185699.719955124 ; 1.4665792376277754E8 ; 7.565927024708781E8 ; 1.9349789483030014E10 ; 87747.65999999993
144 ; 5179799.806189214 ; 1.4665792376277754E8 ; 7.617784021908332E8 ; 1.9496447406792793E10 ; 88361.27999999993
145 ; 5174672.79205454 ; 1.4665792376277754E8 ; 7.669582019970224E8 ; 1.9643105330555573E10 ; 88974.89999999992
146 ; 5169530.84793428 ; 1.4665792376277754E8 ; 7.721328747890769E8 ; 1.978976325431835E10 ; 89588.51999999992
147 ; 5165465.8553506555 ; 1.4665792376277754E8 ; 7.773024056370112E8 ; 1.993642117808113E10 ; 90202.13999999991
148 ; 5161504.904866604 ; 1.4665792376277754E8 ; 7.824678714923618E8 ; 2.008307910184391E10 ; 90815.75999999991
149 ; 5157462.919701122 ; 1.4665792376277754E8 ; 7.876293763972284E8 ; 2.022973702560669E10 ; 91429.3799999999
150 ; 5151424.986834355 ; 1.4665792376277754E8 ; 7.927868393169295E8 ; 2.037639494936947E10 ; 92042.9999999999
151 ; 5150228.023827278 ; 1.4665792376277754E8 ; 7.979382643037639E8 ; 2.0523052873132248E10 ; 92656.6199999999
152 ; 5145240.553589052 ; 1.4665792376277754E8 ; 8.030884923275912E8 ; 2.0669710796895027E10 ; 93270.23999999989
153 ; 5139915.404368139 ; 1.4665792376277754E8 ; 8.082337328811803E8 ; 2.0816368720657806E10 ; 93883.85999999988
154 ; 5134127.152364936 ; 1.4665792376277754E8 ; 8.133736482855484E8 ; 2.0963026644420586E10 ; 94497.47999999988
155 ; 5130089.434444472 ; 1.4665792376277754E8 ; 8.185077754379134E8 ; 2.1109684568183365E10 ; 95111.09999999987
156 ; 5125741.089137936 ; 1.4665792376277754E8 ; 8.236378648723578E8 ; 2.1256342491946144E10 ; 95724.71999999987
157 ; 5121954.272315111 ; 1.4665792376277754E8 ; 8.287636059614958E8 ; 2.1403000415708923E10 ; 96338.33999999987
158 ; 5116749.827958219 ; 1.4665792376277754E8 ; 8.338855602338109E8 ; 2.1549658339471703E10 ; 96951.95999999986
159 ; 5113465.236948083 ; 1.4665792376277754E8 ; 8.390023100617691E8 ; 2.169631626323448E10 ; 97565.57999999986
160 ; 5107719.7230398385 ; 1.4665792376277754E8 ; 8.441157752987173E8 ; 2.184297418699726E10 ; 98179.19999999985
161 ; 5102762.446828842 ; 1.4665792376277754E8 ; 8.492234950217571E8 ; 2.198963211076004E10 ; 98792.81999999985
162 ; 5096601.105728105 ; 1.4665792376277754E8 ; 8.54326257468586E8 ; 2.213629003452282E10 ; 99406.43999999984
163 ; 5090776.714823439 ; 1.4665792376277754E8 ; 8.594228585743141E8 ; 2.22829479582856E10 ; 100020.05999999984
164 ; 5089582.3341364935 ; 1.4665792376277754E8 ; 8.645136352891376E8 ; 2.2429605882048378E10 ; 100633.67999999983
165 ; 5083890.645474966 ; 1.4665792376277754E8 ; 8.696032176232741E8 ; 2.2576263805811157E10 ; 101247.29999999983
166 ; 5077070.997049988 ; 1.4665792376277754E8 ; 8.74687108268749E8 ; 2.2722921729573936E10 ; 101860.91999999982
167 ; 5074753.975679906 ; 1.4665792376277754E8 ; 8.79764179265799E8 ; 2.2869579653336716E10 ; 102474.53999999982
168 ; 5068220.301699251 ; 1.4665792376277754E8 ; 8.848389332414789E8 ; 2.3016237577099495E10 ; 103088.15999999981
169 ; 5063993.095753388 ; 1.4665792376277754E8 ; 8.899071535431782E8 ; 2.3162895500862274E10 ; 103701.77999999981
170 ; 5059926.973943454 ; 1.4665792376277754E8 ; 8.949711466389316E8 ; 2.3309553424625053E10 ; 104315.3999999998
171 ; 5054132.6242577555 ; 1.4665792376277754E8 ; 9.000310736128751E8 ; 2.3456211348387833E10 ; 104929.0199999998
172 ; 5049706.1694101235 ; 1.4665792376277754E8 ; 9.050852062371329E8 ; 2.360286927215061E10 ; 105542.6399999998
173 ; 5045562.3801833885 ; 1.4665792376277754E8 ; 9.10134912406543E8 ; 2.374952719591339E10 ; 106156.25999999979
174 ; 5041877.455506531 ; 1.4665792376277754E8 ; 9.151804747867264E8 ; 2.389618511967617E10 ; 106769.87999999979
175 ; 5038776.493558814 ; 1.4665792376277754E8 ; 9.202223522422329E8 ; 2.404284304343895E10 ; 107383.49999999978
176 ; 5034479.784131939 ; 1.4665792376277754E8 ; 9.252611287357917E8 ; 2.418950096720173E10 ; 107997.11999999978
