CSV File for the City 2 on Day 320
1 - Minute m 
2 - Power Consumed at minute m 
3 - Power Produced at minute m 
4 - Energy Consumed since the beginning of the day 
5 - Energy Produced since the beginning of the day 
6 - Energy Lost since the beginning of the day on lines starting from the city
 
0 ; 1802806.4017951407 ; 1.0531553592897132E8 ; 0.0 ; 0.0 ; 0.0
1 ; 1804589.0538106426 ; 1.054694929578439E8 ; 1802806.4017951407 ; 1.0531553592897132E8 ; 0.0
2 ; 1805976.2477764725 ; 1.0593212946731833E8 ; 3607395.4556057835 ; 2.1078502888681522E8 ; 0.0
3 ; 1809199.7775819737 ; 1.0670344572206509E8 ; 5413371.7033822555 ; 3.1671715835413355E8 ; 0.0
4 ; 1810959.0854769237 ; 1.077834419579708E8 ; 7222571.480964229 ; 4.2342060407619864E8 ; 0.0
5 ; 1815265.5087058106 ; 1.0917211838127959E8 ; 9033530.566441152 ; 5.3120404603416944E8 ; 0.0
6 ; 1818670.0124368886 ; 1.1086947516783306E8 ; 1.0848796075146962E7 ; 6.40376164415449E8 ; 0.0
7 ; 1826634.7181848378 ; 1.1287551246241581E8 ; 1.2667466087583851E7 ; 7.512456395832821E8 ; 0.0
8 ; 1834986.2423688187 ; 1.151902303782115E8 ; 1.449410080576869E7 ; 8.641211520456979E8 ; 0.0
9 ; 1847920.655094555 ; 1.1781362899637467E8 ; 1.6329087048137508E7 ; 9.793113824239094E8 ; 0.0
10 ; 1870478.0803632124 ; 1.207457083657223E8 ; 1.8177007703232065E7 ; 1.097125011420284E9 ; 0.0
11 ; 1904927.2691750473 ; 1.2398646850254753E8 ; 2.004748578359528E7 ; 1.2178707197860065E9 ; 0.0
12 ; 1957502.6031727018 ; 1.275359093905572E8 ; 2.1952413052770328E7 ; 1.341857188288554E9 ; 0.0
13 ; 2010634.2322463777 ; 1.3139403098093432E8 ; 2.390991565594303E7 ; 1.4693930976791112E9 ; 0.0
14 ; 2016584.6496967617 ; 1.3556083319252443E8 ; 2.5920549888189405E7 ; 1.6007871286600456E9 ; 0.0
15 ; 2018051.941333515 ; 1.4003631591214377E8 ; 2.7937134537886165E7 ; 1.73634796185257E9 ; 0.0
16 ; 2021779.435150085 ; 1.4482047899500784E8 ; 2.995518647921968E7 ; 1.8763842777647138E9 ; 0.0
17 ; 2024206.1209195168 ; 1.4991332226527497E8 ; 3.1976965914369762E7 ; 2.0212047567597215E9 ; 0.0
18 ; 2028484.1397726461 ; 1.5531484551670104E8 ; 3.400117203528928E7 ; 2.1711180790249963E9 ; 0.0
19 ; 2030970.160535834 ; 1.6102504851339945E8 ; 3.6029656175061926E7 ; 2.3264329245416975E9 ; 0.0
20 ; 2032720.7401965118 ; 1.6704393099069968E8 ; 3.806062633559776E7 ; 2.487457973055097E9 ; 0.0
21 ; 2034923.6137312301 ; 1.7337149265609714E8 ; 4.009334707579427E7 ; 2.654501904045797E9 ; 0.0
22 ; 2037594.8193991662 ; 1.8000773319028646E8 ; 4.21282706895255E7 ; 2.827873396701894E9 ; 0.0
23 ; 2038978.649732787 ; 1.8695265224827045E8 ; 4.416586550892466E7 ; 3.0078811298921804E9 ; 0.0
24 ; 2043281.4416507245 ; 1.942062494605344E8 ; 4.620484415865745E7 ; 3.194833782140451E9 ; 0.0
25 ; 2046158.1468380794 ; 2.0045656533246234E8 ; 4.824812560030817E7 ; 3.3890400316009855E9 ; 0.0
26 ; 2049213.0199307287 ; 2.0045714728251314E8 ; 5.029428374714625E7 ; 3.589496596933448E9 ; 0.0
27 ; 2051673.2806955588 ; 2.0045776416844314E8 ; 5.234349676707698E7 ; 3.789953744215961E9 ; 0.0
28 ; 2053142.5519393347 ; 2.0045841553542796E8 ; 5.4395170047772534E7 ; 3.990411508384404E9 ; 0.0
29 ; 2054954.1829413099 ; 2.0045910091067797E8 ; 5.6448312599711865E7 ; 4.190869923919832E9 ; 0.0
30 ; 2057818.2158441972 ; 2.0045981980482098E8 ; 5.8503266782653175E7 ; 4.39132902483051E9 ; 0.0
31 ; 2060340.9846401878 ; 2.0046057171328872E8 ; 6.0561084998497374E7 ; 4.591788844635331E9 ; 0.0
32 ; 2063135.673893221 ; 2.004613561176996E8 ; 6.262142598313756E7 ; 4.792249416348619E9 ; 0.0
33 ; 2064934.6251182747 ; 2.004621724872299E8 ; 6.468456165703078E7 ; 4.992710772466319E9 ; 0.0
34 ; 2067145.6405194094 ; 2.0046302027996716E8 ; 6.674949628214906E7 ; 5.193172944953549E9 ; 0.0
35 ; 2069106.6823092266 ; 2.0046389894423836E8 ; 6.881664192266847E7 ; 5.393635965233517E9 ; 0.0
36 ; 2072317.1872183972 ; 2.004648079199086E8 ; 7.08857486049777E7 ; 5.594099864177755E9 ; 0.0
37 ; 2073847.404791135 ; 2.0046574663964406E8 ; 7.29580657921961E7 ; 5.794564672097664E9 ; 0.0
38 ; 2074950.4954642777 ; 2.0046671453013492E8 ; 7.503191319698723E7 ; 5.995030418737308E9 ; 0.0
39 ; 2077922.0796293672 ; 2.004677110132752E8 ; 7.71068636924515E7 ; 6.195497133267443E9 ; 0.0
40 ; 2078576.684262917 ; 2.0046873550729507E8 ; 7.918478577208087E7 ; 6.395964844280718E9 ; 0.0
41 ; 2080109.586862427 ; 2.004697874278438E8 ; 8.126336245634378E7 ; 6.5964335797880125E9 ; 0.0
42 ; 2082118.0428357641 ; 2.0047086618902093E8 ; 8.334347204320621E7 ; 6.796903367215857E9 ; 0.0
43 ; 2085100.960755493 ; 2.0047197120435396E8 ; 8.542559008604197E7 ; 6.997374233404878E9 ; 0.0
44 ; 2085807.3509012952 ; 2.0047310188772196E8 ; 8.751069104679747E7 ; 7.197846204609232E9 ; 0.0
45 ; 2086398.227625111 ; 2.0047425765422368E8 ; 8.959649839769876E7 ; 7.398319306496954E9 ; 0.0
46 ; 2088279.578579043 ; 2.0047543792099097E8 ; 9.168289662532388E7 ; 7.598793564151177E9 ; 0.0
47 ; 2088747.709526159 ; 2.0047664210794684E8 ; 9.377117620390292E7 ; 7.799269002072168E9 ; 0.0
48 ; 2090746.4815629642 ; 2.004778696385091E8 ; 9.585992391342908E7 ; 7.999745644180115E9 ; 0.0
49 ; 2092229.1043015348 ; 2.0047911994024068E8 ; 9.795067039499204E7 ; 8.200223513818624E9 ; 0.0
50 ; 2092033.5588052683 ; 2.004803924454472E8 ; 1.0004289949929358E8 ; 8.400702633758864E9 ; 0.0
51 ; 2093996.0230839085 ; 2.004816865917237E8 ; 1.0213493305809885E8 ; 8.601183026204311E9 ; 0.0
52 ; 2095605.476645675 ; 2.0048300182245174E8 ; 1.0422892908118276E8 ; 8.801664712796036E9 ; 0.0
53 ; 2095917.02542332 ; 2.004843375872488E8 ; 1.0632453455782844E8 ; 9.002147714618488E9 ; 0.0
54 ; 2096683.8972830279 ; 2.004856933423718E8 ; 1.0842045158325176E8 ; 9.202632052205738E9 ; 0.0
55 ; 2096630.809392141 ; 2.0048706855107674E8 ; 1.1051713548053479E8 ; 9.40311774554811E9 ; 0.0
56 ; 2098202.4619954866 ; 2.0048846268393648E8 ; 1.1261376628992693E8 ; 9.603604814099186E9 ; 0.0
57 ; 2098486.5215446316 ; 2.0048987521911857E8 ; 1.1471196875192241E8 ; 9.804093276783123E9 ; 0.0
58 ; 2098502.626363659 ; 2.0049130564262587E8 ; 1.1681045527346705E8 ; 1.0004583152002241E10 ; 0.0
59 ; 2100598.5148277725 ; 2.0049275344850132E8 ; 1.1890895789983071E8 ; 1.0205074457644867E10 ; 0.0
60 ; 2101053.9833567073 ; 2.0049421813899958E8 ; 1.2100955641465849E8 ; 1.0405567211093369E10 ; 0.0
61 ; 2100279.6531919087 ; 2.0049569922472736E8 ; 1.231106103980152E8 ; 1.0606061429232368E10 ; 0.0
62 ; 2100379.207592788 ; 2.0049719622475472E8 ; 1.2521089005120711E8 ; 1.0806557128457096E10 ; 0.0
63 ; 2101847.7283898992 ; 2.0049870866669908E8 ; 1.273112692587999E8 ; 1.100705432468185E10 ; 0.0
64 ; 2102318.7425341858 ; 2.005002360867842E8 ; 1.294131169871898E8 ; 1.1207553033348549E10 ; 0.0
65 ; 2103915.168143343 ; 2.005017780298761E8 ; 1.3151543572972399E8 ; 1.1408053269435333E10 ; 0.0
66 ; 2105092.045575549 ; 2.005033340494972E8 ; 1.3361935089786734E8 ; 1.160855504746521E10 ; 0.0
67 ; 2103877.949073366 ; 2.005049037078211E8 ; 1.3572444294344288E8 ; 1.1809058381514708E10 ; 0.0
68 ; 2105391.3574131154 ; 2.0050648657564956E8 ; 1.3782832089251626E8 ; 1.2009563285222528E10 ; 0.0
69 ; 2106225.1606064374 ; 2.0050808223237288E8 ; 1.3993371224992937E8 ; 1.2210069771798178E10 ; 0.0
70 ; 2105615.183348814 ; 2.005096902659155E8 ; 1.420399374105358E8 ; 1.241057785403055E10 ; 0.0
71 ; 2106158.978809959 ; 2.0051131027266842E8 ; 1.4414555259388462E8 ; 1.2611087544296465E10 ; 0.0
72 ; 2105872.3234810554 ; 2.0051294185740945E8 ; 1.4625171157269457E8 ; 1.2811598854569134E10 ; 0.0
73 ; 2107760.6356105627 ; 2.0051458463321292E8 ; 1.4835758389617562E8 ; 1.3012111796426542E10 ; 0.0
74 ; 2108461.4774229666 ; 2.005162382213496E8 ; 1.5046534453178617E8 ; 1.3212626381059755E10 ; 0.0
75 ; 2109895.7956710784 ; 2.005179022511785E8 ; 1.5257380600920913E8 ; 1.3413142619281105E10 ; 0.0
76 ; 2108631.0344369584 ; 2.0051957636003104E8 ; 1.546837018048802E8 ; 1.3613660521532284E10 ; 0.0
77 ; 2110369.8116822294 ; 2.005212601930891E8 ; 1.5679233283931717E8 ; 1.3814180097892315E10 ; 0.0
78 ; 2108051.251170904 ; 2.0052295340325734E8 ; 1.589027026509994E8 ; 1.4014701358085403E10 ; 0.0
79 ; 2109937.607221838 ; 2.005246556510311E8 ; 1.610107539021703E8 ; 1.421522431148866E10 ; 0.0
80 ; 2109142.979072384 ; 2.0052636660436016E8 ; 1.6312069150939214E8 ; 1.4415748967139692E10 ; 0.0
81 ; 2108989.165286955 ; 2.0052808593850955E8 ; 1.6522983448846453E8 ; 1.4616275333744053E10 ; 0.0
82 ; 2107381.5365070533 ; 2.0052981333591777E8 ; 1.673388236537515E8 ; 1.4816803419682562E10 ; 0.0
83 ; 2107620.2659229417 ; 2.0053154848605293E8 ; 1.6944620519025853E8 ; 1.501733323301848E10 ; 0.0
84 ; 2107959.089782941 ; 2.0053329108526784E8 ; 1.7155382545618147E8 ; 1.5217864781504534E10 ; 0.0
85 ; 2106678.45466552 ; 2.0053504083665383E8 ; 1.7366178454596442E8 ; 1.5418398072589802E10 ; 0.0
86 ; 2106267.62116097 ; 2.005367974498943E8 ; 1.7576846300062993E8 ; 1.5618933113426456E10 ; 0.0
87 ; 2106114.214380659 ; 2.005385606411184E8 ; 1.7787473062179092E8 ; 1.581946991087635E10 ; 0.0
88 ; 2105027.578328295 ; 2.0054033013275477E8 ; 1.7998084483617157E8 ; 1.602000847151747E10 ; 0.0
89 ; 2104239.695208723 ; 2.00542105653386E8 ; 1.8208587241449985E8 ; 1.6220548801650225E10 ; 0.0
90 ; 2102970.729921519 ; 2.0054388693760422E8 ; 1.8419011210970858E8 ; 1.642109090730361E10 ; 0.0
91 ; 2102536.6132268617 ; 2.0054567372586766E8 ; 1.862930828396301E8 ; 1.6621634794241215E10 ; 0.0
92 ; 2102528.454638173 ; 2.005474657643589E8 ; 1.8839561945285696E8 ; 1.6822180467967083E10 ; 0.0
93 ; 2101784.293265657 ; 2.0054926280484465E8 ; 1.9049814790749514E8 ; 1.7022727933731441E10 ; 0.0
94 ; 2102629.2762231682 ; 2.0055106460453725E8 ; 1.925999322007608E8 ; 1.7223277196536285E10 ; 0.0
95 ; 2100881.286312675 ; 2.0055287092595842E8 ; 1.94702561476984E8 ; 1.7423828261140823E10 ; 0.0
96 ; 2099232.2808330143 ; 2.0055468153680497E8 ; 1.9680344276329666E8 ; 1.762438113206678E10 ; 0.0
97 ; 2100974.278905755 ; 2.0055649620981678E8 ; 1.9890267504412967E8 ; 1.7824935813603584E10 ; 0.0
98 ; 2099757.231135789 ; 2.005583147226472E8 ; 2.0100364932303542E8 ; 1.80254923098134E10 ; 0.0
99 ; 2099517.6048834124 ; 2.0056013685773566E8 ; 2.031034065541712E8 ; 1.822605062453605E10 ; 0.0
100 ; 2098278.5764750596 ; 2.0056196240218306E8 ; 2.052029241590546E8 ; 1.8426610761393784E10 ; 0.0
101 ; 2097072.813012197 ; 2.005637911476295E8 ; 2.0730120273552966E8 ; 1.8627172723795967E10 ; 0.0
102 ; 2095923.7649126742 ; 2.0056562289013457E8 ; 2.0939827554854184E8 ; 1.8827736514943596E10 ; 0.0
103 ; 2095486.4156440275 ; 2.0056745743006054E8 ; 2.114941993134545E8 ; 1.902830213783373E10 ; 0.0
104 ; 2094532.6459415846 ; 2.005692945719577E8 ; 2.1358968572909853E8 ; 1.922886959526379E10 ; 0.0
105 ; 2094520.878777196 ; 2.005711341244528E8 ; 2.156842183750401E8 ; 1.9429438889835747E10 ; 0.0
106 ; 2093988.4265137925 ; 2.0057297590013984E8 ; 2.1777873925381732E8 ; 1.96300100239602E10 ; 0.0
107 ; 2093312.6016608437 ; 2.0057481971547368E8 ; 2.198727276803311E8 ; 1.983058299986034E10 ; 0.0
108 ; 2093500.4613480798 ; 2.005766653906661E8 ; 2.2196604028199196E8 ; 2.0031157819575813E10 ; 0.0
109 ; 2089733.3005962956 ; 2.0057851274958453E8 ; 2.2405954074334005E8 ; 2.023173448496648E10 ; 0.0
110 ; 2089226.7357587952 ; 2.0058036161965358E8 ; 2.2614927404393634E8 ; 2.0432312997716064E10 ; 0.0
111 ; 2088890.84981425 ; 2.0058221183175868E8 ; 2.2823850077969512E8 ; 2.0632893359335716E10 ; 0.0
112 ; 2089280.592513153 ; 2.0058406322015274E8 ; 2.3032739162950936E8 ; 2.0833475571167477E10 ; 0.0
113 ; 2087106.9704436436 ; 2.0058591562236482E8 ; 2.324166722220225E8 ; 2.103405963438763E10 ; 0.0
114 ; 2086886.171464706 ; 2.0058776887911174E8 ; 2.3450377919246614E8 ; 2.1234645550009995E10 ; 0.0
115 ; 2085804.6838447708 ; 2.0058962283421165E8 ; 2.3659066536393085E8 ; 2.1435233318889107E10 ; 0.0
116 ; 2085075.0350108454 ; 2.005914773345003E8 ; 2.3867647004777563E8 ; 2.163582294172332E10 ; 0.0
117 ; 2084773.3927690217 ; 2.0059333222974956E8 ; 2.4076154508278647E8 ; 2.183641441905782E10 ; 0.0
118 ; 2081933.1498686834 ; 2.0059518737258795E8 ; 2.4284631847555548E8 ; 2.2037007751287567E10 ; 0.0
119 ; 2081949.803789151 ; 2.0059704261842388E8 ; 2.4492825162542418E8 ; 2.2237602938660156E10 ; 0.0
120 ; 2080346.146671295 ; 2.0059889782537076E8 ; 2.4701020142921332E8 ; 2.243819998127858E10 ; 0.0
121 ; 2078980.3964464355 ; 2.0060075285417423E8 ; 2.490905475758846E8 ; 2.263879887910395E10 ; 0.0
122 ; 2078993.694349159 ; 2.006026075681417E8 ; 2.5116952797233105E8 ; 2.2839399631958126E10 ; 0.0
123 ; 2076637.2604492481 ; 2.006044618330737E8 ; 2.5324852166668022E8 ; 2.3040002239526268E10 ; 0.0
124 ; 2075788.762027445 ; 2.0060631551719737E8 ; 2.5532515892712948E8 ; 2.324060670135934E10 ; 0.0
125 ; 2074684.0941729457 ; 2.0060816849110186E8 ; 2.5740094768915692E8 ; 2.3441213016876537E10 ; 0.0
126 ; 2074078.1103448307 ; 2.0061002062767562E8 ; 2.5947563178332987E8 ; 2.3641821185367638E10 ; 0.0
127 ; 2073264.9750261363 ; 2.006118718020455E8 ; 2.615497098936747E8 ; 2.384243120599531E10 ; 0.0
128 ; 2071455.9151676297 ; 2.006137218915177E8 ; 2.6362297486870083E8 ; 2.4043043077797356E10 ; 0.0
129 ; 2070579.9064731218 ; 2.006155707755204E8 ; 2.6569443078386846E8 ; 2.4243656799688873E10 ; 0.0
130 ; 2067890.7994841775 ; 2.0061741833554828E8 ; 2.677650106903416E8 ; 2.4444272370464394E10 ; 0.0
131 ; 2067981.7423130434 ; 2.0061926445510843E8 ; 2.698329014898258E8 ; 2.4644889788799942E10 ; 0.0
132 ; 2065199.0291937122 ; 2.0062110901966804E8 ; 2.719008832321388E8 ; 2.484550905325505E10 ; 0.0
133 ; 2063323.6993324615 ; 2.0062295191660365E8 ; 2.739660822613325E8 ; 2.504613016227472E10 ; 0.0
134 ; 2059616.673427341 ; 2.006247930351519E8 ; 2.76029405960665E8 ; 2.5246753114191322E10 ; 0.0
135 ; 2058792.5555014159 ; 2.0062663226636168E8 ; 2.7808902263409233E8 ; 2.5447377907226475E10 ; 0.0
136 ; 2055200.5075609088 ; 2.0062846950304788E8 ; 2.8014781518959373E8 ; 2.5648004539492836E10 ; 0.0
137 ; 2054439.5356379065 ; 2.006303046397464E8 ; 2.8220301569715464E8 ; 2.5848633008995884E10 ; 0.0
138 ; 2052328.4497439158 ; 2.0063213757267058E8 ; 2.8425745523279256E8 ; 2.604926331363563E10 ; 0.0
139 ; 2049848.2874692227 ; 2.0063396819966882E8 ; 2.863097836825365E8 ; 2.62498954512083E10 ; 0.0
140 ; 2048364.2334962545 ; 2.0063579642018384E8 ; 2.883596319700057E8 ; 2.645052941940797E10 ; 0.0
141 ; 2046412.4867621914 ; 2.006376221352126E8 ; 2.9040799620350194E8 ; 2.6651165215828156E10 ; 0.0
142 ; 2044871.4368327488 ; 2.00639445247268E8 ; 2.924544086902641E8 ; 2.6851802837963367E10 ; 0.0
143 ; 2042221.4632563603 ; 2.006412656603413E8 ; 2.9449928012709683E8 ; 2.7052442283210636E10 ; 0.0
144 ; 2040312.55906976 ; 2.0064308327986598E8 ; 2.965415015903532E8 ; 2.725308354887098E10 ; 0.0
145 ; 2039578.898733912 ; 2.0064489801268247E8 ; 2.9858181414942294E8 ; 2.7453726632150845E10 ; 0.0
146 ; 2038146.114408772 ; 2.006467097670042E8 ; 3.0062139304815686E8 ; 2.765437153016353E10 ; 0.0
147 ; 2035594.1961785802 ; 2.0064851845238432E8 ; 3.0265953916256565E8 ; 2.7855018239930534E10 ; 0.0
148 ; 2033617.454697574 ; 2.0065032397968376E8 ; 3.046951333587442E8 ; 2.805566675838292E10 ; 0.0
149 ; 2030519.8841105155 ; 2.0065212626104003E8 ; 3.0672875081344175E8 ; 2.8256317082362602E10 ; 0.0
150 ; 2027410.305863349 ; 2.006539252098372E8 ; 3.0875927069755226E8 ; 2.8456969208623642E10 ; 0.0
151 ; 2022002.778603913 ; 2.0065572074067646E8 ; 3.107866810034156E8 ; 2.865762313383348E10 ; 0.0
152 ; 2019024.8040592305 ; 2.0065751276934782E8 ; 3.128086837820195E8 ; 2.8858278854574158E10 ; 0.0
153 ; 2015256.7204072105 ; 2.0065930121280253E8 ; 3.148277085860787E8 ; 2.9058936367343506E10 ; 0.0
154 ; 2010323.776711269 ; 2.0066108598912653E8 ; 3.168429653064859E8 ; 2.925959566855631E10 ; 0.0
155 ; 2004908.1274630248 ; 2.0066286701751432E8 ; 3.188532890831972E8 ; 2.9460256754545437E10 ; 0.0
156 ; 2002641.2428811651 ; 2.0066464421824402E8 ; 3.208581972106602E8 ; 2.966091962156295E10 ; 0.0
157 ; 1999432.2880553096 ; 2.0066641751265296E8 ; 3.228608384535414E8 ; 2.9861584265781193E10 ; 0.0
158 ; 1995058.9777835137 ; 2.0066818682311392E8 ; 3.248602707415967E8 ; 3.0062250683293846E10 ; 0.0
159 ; 1989354.986328351 ; 2.006699520730124E8 ; 3.268553297193802E8 ; 3.026291887011696E10 ; 0.0
160 ; 1984418.567861526 ; 2.0067171318672422E8 ; 3.2884468470570856E8 ; 3.0463588822189972E10 ; 0.0
161 ; 1981350.8731751787 ; 2.0067347008959395E8 ; 3.3082910327357006E8 ; 3.0664260535376698E10 ; 0.0
162 ; 1977088.0173559175 ; 2.00675222707914E8 ; 3.3281045414674526E8 ; 3.0864934005466293E10 ; 0.0
163 ; 1973450.9385562595 ; 2.006769709689043E8 ; 3.347875421641012E8 ; 3.1065609228174206E10 ; 0.0
164 ; 1970699.8233689922 ; 2.006787148006926E8 ; 3.3676099310265744E8 ; 3.126628619914311E10 ; 0.0
165 ; 1965110.8025775207 ; 2.0068045413229525E8 ; 3.387316929260264E8 ; 3.14669649139438E10 ; 0.0
166 ; 1961512.6103419117 ; 2.006821888935988E8 ; 3.406968037286039E8 ; 3.1667645368076096E10 ; 0.0
167 ; 1958366.9319444394 ; 2.006839190153417E8 ; 3.426583163389458E8 ; 3.1868327556969696E10 ; 0.0
168 ; 1952210.267389931 ; 2.0068564442909718E8 ; 3.4461668327089024E8 ; 3.206901147598504E10 ; 0.0
169 ; 1949078.0448539194 ; 2.0068736506725594E8 ; 3.465688935382802E8 ; 3.2269697120414135E10 ; 0.0
170 ; 1944824.1736892415 ; 2.006890808630099E8 ; 3.485179715831341E8 ; 3.247038448548139E10 ; 0.0
171 ; 1940548.3707189085 ; 2.0069079175033614E8 ; 3.5046279575682336E8 ; 3.2671073566344402E10 ; 0.0
172 ; 1937133.3851328583 ; 2.0069249766398132E8 ; 3.5240334412754226E8 ; 3.2871764358094738E10 ; 0.0
173 ; 1933562.9353713172 ; 2.0069419853944674E8 ; 3.543404775126751E8 ; 3.307245685575872E10 ; 0.0
174 ; 1930867.942308079 ; 2.006958943129736E8 ; 3.5627404044804645E8 ; 3.327315105429817E10 ; 0.0
175 ; 1925313.0756528627 ; 2.0069758492152885E8 ; 3.582049083903545E8 ; 3.347384694861114E10 ; 0.0
176 ; 1920403.9052354407 ; 2.0069927030279142E8 ; 3.6013022146600735E8 ; 3.367454453353267E10 ; 0.0
177 ; 1919611.9018142351 ; 2.007E8 ; 3.620506253712428E8 ; 3.387524380383546E10 ; 0.0
178 ; 1915456.3014097735 ; 2.007E8 ; 3.6397023727305704E8 ; 3.407594380383546E10 ; 0.0
179 ; 1912256.1511849645 ; 2.007E8 ; 3.658856935744668E8 ; 3.427664380383546E10 ; 0.0
180 ; 1907903.9735382097 ; 2.007E8 ; 3.677979497256518E8 ; 3.4477343803835464E10 ; 0.0
181 ; 1904281.423879273 ; 2.007E8 ; 3.6970585369919E8 ; 3.4678043803835464E10 ; 0.0
182 ; 1901330.1074308022 ; 2.007E8 ; 3.716101351230693E8 ; 3.4878743803835464E10 ; 0.0
183 ; 1896441.1504210464 ; 2.007E8 ; 3.735114652305001E8 ; 3.5079443803835464E10 ; 0.0
184 ; 1894914.3266293176 ; 2.007E8 ; 3.754079063809211E8 ; 3.5280143803835464E10 ; 0.0
185 ; 1890354.5372388656 ; 2.007E8 ; 3.7730282070755047E8 ; 3.5480843803835464E10 ; 0.0
186 ; 1887145.2961585943 ; 2.007E8 ; 3.791931752447893E8 ; 3.5681543803835464E10 ; 0.0
187 ; 1882521.9796076 ; 2.007E8 ; 3.810803205409479E8 ; 3.5882243803835464E10 ; 0.0
188 ; 1880502.9499934907 ; 2.007E8 ; 3.829628425205555E8 ; 3.6082943803835464E10 ; 0.0
189 ; 1875933.6260247838 ; 2.007E8 ; 3.84843345470549E8 ; 3.6283643803835464E10 ; 0.0
190 ; 1871523.9951766424 ; 2.007E8 ; 3.8671927909657377E8 ; 3.6484343803835464E10 ; 0.0
191 ; 1867872.310622612 ; 2.007E8 ; 3.885908030917504E8 ; 3.6685043803835464E10 ; 0.0
192 ; 1866279.373665607 ; 2.007E8 ; 3.90458675402373E8 ; 3.6885743803835464E10 ; 0.0
193 ; 1862087.6847418372 ; 2.007E8 ; 3.9232495477603865E8 ; 3.7086443803835464E10 ; 0.0
194 ; 1858737.9928849158 ; 2.007E8 ; 3.941870424607805E8 ; 3.7287143803835464E10 ; 0.0
195 ; 1852576.5509992861 ; 2.007E8 ; 3.9604578045366544E8 ; 3.7487843803835464E10 ; 0.0
196 ; 1850686.1245812697 ; 2.007E8 ; 3.978983570046647E8 ; 3.7688543803835464E10 ; 0.0
197 ; 1847180.3736795448 ; 2.007E8 ; 3.99749043129246E8 ; 3.7889243803835464E10 ; 0.0
198 ; 1844014.031173203 ; 2.007E8 ; 4.015962235029255E8 ; 3.8089943803835464E10 ; 0.0
199 ; 1841354.6890305069 ; 2.007E8 ; 4.0344023753409874E8 ; 3.8290643803835464E10 ; 0.0
200 ; 1837185.9648796741 ; 2.007E8 ; 4.052815922231293E8 ; 3.8491343803835464E10 ; 0.0
201 ; 1833106.4032322601 ; 2.007E8 ; 4.0711877818800896E8 ; 3.8692043803835464E10 ; 0.0
202 ; 1828698.8116751388 ; 1.5784511604135913E8 ; 4.0895188459124124E8 ; 3.8892743803835464E10 ; 0.0
