CSV File for the City 2 on Day 31
1 - Minute m 
2 - Power Consumed at minute m 
3 - Power Produced at minute m 
4 - Energy Consumed since the beginning of the day 
5 - Energy Produced since the beginning of the day 
6 - Energy Lost since the beginning of the day on lines starting from the city
 
0 ; 1775650.5823017233 ; 1.0518920747628096E8 ; 0.0 ; 0.0 ; 0.0
1 ; 1777816.06000315 ; 1.0534282745622051E8 ; 1775650.5823017233 ; 1.0518920747628096E8 ; 0.0
2 ; 1780042.4518157917 ; 1.0580514735193679E8 ; 3553466.642304873 ; 2.1053203493250147E8 ; 0.0
3 ; 1782711.2209033296 ; 1.0657617152346683E8 ; 5333509.0941206645 ; 3.1633718228443825E8 ; 0.0
4 ; 1785610.8957008189 ; 1.0765590428579384E8 ; 7116220.315023994 ; 4.229133538079051E8 ; 0.0
5 ; 1788256.0374835446 ; 1.090443497923181E8 ; 8901831.210724812 ; 5.305692580936989E8 ; 0.0
6 ; 1793227.735791329 ; 1.1074151190220472E8 ; 1.0690087248208357E7 ; 6.396136078860171E8 ; 0.0
7 ; 1798405.8193407909 ; 1.1274739403845608E8 ; 1.2483314983999686E7 ; 7.503551197882218E8 ; 0.0
8 ; 1808857.3282562033 ; 1.1506199904650575E8 ; 1.4281720803340478E7 ; 8.631025138266779E8 ; 0.0
9 ; 1822309.9323338435 ; 1.1768532906528783E8 ; 1.609057813159668E7 ; 9.781645128731837E8 ; 0.0
10 ; 1843629.9465156496 ; 1.2061738542338109E8 ; 1.7912888063930523E7 ; 1.0958498419384716E9 ; 0.0
11 ; 1876708.171177276 ; 1.238581685714607E8 ; 1.9756518010446172E7 ; 1.2164672273618526E9 ; 0.0
12 ; 1931681.6506387389 ; 1.2740767805885145E8 ; 2.1633226181623448E7 ; 1.3403253959333134E9 ; 0.0
13 ; 1982821.5845654188 ; 1.3126591255697459E8 ; 2.356490783226219E7 ; 1.4677330739921649E9 ; 0.0
14 ; 1990194.03532416 ; 1.354328699268961E8 ; 2.5547729416827608E7 ; 1.5989989865491395E9 ; 0.0
15 ; 1992249.3171921137 ; 1.3990854732318228E8 ; 2.7537923452151768E7 ; 1.7344318564760356E9 ; 0.0
16 ; 1995007.037270296 ; 1.446929413228309E8 ; 2.9530172769343883E7 ; 1.874340403799218E9 ; 0.0
17 ; 1997748.7112297413 ; 1.497860480666767E8 ; 3.152517980661418E7 ; 2.0190333451220489E9 ; 0.0
18 ; 2000169.5857243317 ; 1.551878634013195E8 ; 3.352292851784392E7 ; 2.1688193931887255E9 ; 0.0
19 ; 2001894.3997754075 ; 1.6089838301177606E8 ; 3.5523098103568256E7 ; 2.324007256590045E9 ; 0.0
20 ; 2003672.7049285795 ; 1.6691760253800932E8 ; 3.7524992503343664E7 ; 2.484905639601821E9 ; 0.0
21 ; 2007541.932882632 ; 1.7324551767154756E8 ; 3.952866520827224E7 ; 2.65182324213983E9 ; 0.0
22 ; 2009007.6642386683 ; 1.7988212423106867E8 ; 4.153620714115487E7 ; 2.8250687598113775E9 ; 0.0
23 ; 2012562.5063156225 ; 1.868274182178315E8 ; 4.354521480539354E7 ; 3.004950884042446E9 ; 0.0
24 ; 2014173.5942862292 ; 1.9408139585312754E8 ; 4.5557777311709166E7 ; 3.1917783022602777E9 ; 0.0
25 ; 2016119.285069511 ; 2.0033209449876657E8 ; 4.757195090599539E7 ; 3.385859698113405E9 ; 0.0
26 ; 2019246.568703659 ; 2.00333058704129E8 ; 4.95880701910649E7 ; 3.5861917926121716E9 ; 0.0
27 ; 2022940.9933522802 ; 2.0033405473193556E8 ; 5.160731675976856E7 ; 3.786524851316301E9 ; 0.0
28 ; 2023826.3271438684 ; 2.0033507979911533E8 ; 5.363025775312084E7 ; 3.9868589060482364E9 ; 0.0
29 ; 2026456.003236823 ; 2.0033613135948396E8 ; 5.565408408026471E7 ; 4.1871939858473516E9 ; 0.0
30 ; 2028159.3839655125 ; 2.0033720709019992E8 ; 5.768054008350153E7 ; 4.387530117206836E9 ; 0.0
31 ; 2031870.4936303042 ; 2.0033830487654293E8 ; 5.970869946746705E7 ; 4.587867324297035E9 ; 0.0
32 ; 2033897.3193944811 ; 2.003394227959787E8 ; 6.174056996109735E7 ; 4.788205629173578E9 ; 0.0
33 ; 2034320.7536190234 ; 2.003405591022005E8 ; 6.377446728049184E7 ; 4.988545051969557E9 ; 0.0
34 ; 2037512.1357056291 ; 2.003417122096203E8 ; 6.580878803411086E7 ; 5.188885611071757E9 ; 0.0
35 ; 2039387.4336208038 ; 2.003428806786155E8 ; 6.78463001698165E7 ; 5.389227323281378E9 ; 0.0
36 ; 2040287.7237500935 ; 2.003440632017142E8 ; 6.98856876034373E7 ; 5.589570203959993E9 ; 0.0
37 ; 2044197.3087938442 ; 2.0034525859081015E8 ; 7.19259753271874E7 ; 5.789914267161708E9 ; 0.0
38 ; 2044921.0100075884 ; 2.0034646576543754E8 ; 7.397017263598125E7 ; 5.990259525752518E9 ; 0.0
39 ; 2047066.0174516866 ; 2.0034768374209014E8 ; 7.601509364598884E7 ; 6.190605991517955E9 ; 0.0
40 ; 2050058.3183052489 ; 2.003489116245435E8 ; 7.806215966344053E7 ; 6.390953675260045E9 ; 0.0
41 ; 2050566.5771159448 ; 2.0035014859512034E8 ; 8.011221798174578E7 ; 6.591302586884588E9 ; 0.0
42 ; 2051049.571243505 ; 2.0035139390683168E8 ; 8.216278455886172E7 ; 6.791652735479709E9 ; 0.0
43 ; 2052108.448819058 ; 2.0035264687632045E8 ; 8.421383413010523E7 ; 6.99200412938654E9 ; 0.0
44 ; 2055200.7166211617 ; 2.0035390687753683E8 ; 8.626594257892428E7 ; 7.192356776262861E9 ; 0.0
45 ; 2054145.3775981741 ; 2.0035517333607435E8 ; 8.832114329554544E7 ; 7.392710683140398E9 ; 0.0
46 ; 2056936.2531267216 ; 2.003564457241019E8 ; 9.037528867314363E7 ; 7.593065856476473E9 ; 0.0
47 ; 2058673.118726865 ; 2.0035772355582976E8 ; 9.243222492627035E7 ; 7.793422302200575E9 ; 0.0
48 ; 2058748.1554741648 ; 2.003590063834537E8 ; 9.449089804499722E7 ; 7.993780025756405E9 ; 0.0
49 ; 2059385.538267278 ; 2.0036029379352582E8 ; 9.654964620047139E7 ; 8.194139032139858E9 ; 0.0
50 ; 2060175.5777556563 ; 2.00361585403706E8 ; 9.860903173873867E7 ; 8.394499325933384E9 ; 0.0
51 ; 2060967.3139588004 ; 2.0036288085985267E8 ; 1.0066920731649433E8 ; 8.59486091133709E9 ; 0.0
52 ; 2061107.1358381885 ; 2.00364179833415E8 ; 1.0273017463045312E8 ; 8.795223792196941E9 ; 0.0
53 ; 2062710.3417001828 ; 2.0036548201909414E8 ; 1.0479128176629132E8 ; 8.995587972030355E9 ; 0.0
54 ; 2063611.417998625 ; 2.0036678713274357E8 ; 1.068539921079915E8 ; 9.19595345404945E9 ; 0.0
55 ; 2063121.797497504 ; 2.0036809490948233E8 ; 1.0891760352599013E8 ; 9.396320241182194E9 ; 0.0
56 ; 2062904.983231544 ; 2.0036940510199785E8 ; 1.1098072532348764E8 ; 9.596688336091677E9 ; 0.0
57 ; 2064403.3253034062 ; 2.003707174790179E8 ; 1.1304363030671918E8 ; 9.797057741193674E9 ; 0.0
58 ; 2063825.7560277707 ; 2.0037203182393324E8 ; 1.1510803363202259E8 ; 9.997428458672691E9 ; 0.0
59 ; 2064868.2325672254 ; 2.003733479335544E8 ; 1.1717185938805036E8 ; 1.0197800490496624E10 ; 0.0
60 ; 2064986.356089085 ; 2.0037466561698902E8 ; 1.1923672762061758E8 ; 1.0398173838430178E10 ; 0.0
61 ; 2065993.6773144621 ; 2.0037598469462615E8 ; 1.2130171397670667E8 ; 1.0598548504047167E10 ; 0.0
62 ; 2065750.3530344183 ; 2.0037730499721673E8 ; 1.2336770765402113E8 ; 1.0798924488741793E10 ; 0.0
63 ; 2066153.7365870837 ; 2.0037862636504003E8 ; 1.2543345800705555E8 ; 1.099930179373901E10 ; 0.0
64 ; 2068590.6877095676 ; 2.0037994864714724E8 ; 1.2749961174364263E8 ; 1.119968042010405E10 ; 0.0
65 ; 2068046.932902251 ; 2.0038127170067412E8 ; 1.295682024313522E8 ; 1.1400060368751198E10 ; 0.0
66 ; 2067505.6084208465 ; 2.0038259539021587E8 ; 1.3163624936425444E8 ; 1.1600441640451872E10 ; 0.0
67 ; 2068015.4053797428 ; 2.0038391958725798E8 ; 1.337037549726753E8 ; 1.1800824235842087E10 ; 0.0
68 ; 2067971.7432120831 ; 2.0038524416965723E8 ; 1.3577177037805504E8 ; 1.2001208155429344E10 ; 0.0
69 ; 2068194.0275454915 ; 2.003865690211682E8 ; 1.378397421212671E8 ; 1.2201593399599E10 ; 0.0
70 ; 2069016.3719907394 ; 2.003878940310105E8 ; 1.399079361488126E8 ; 1.2401979968620169E10 ; 0.0
71 ; 2068271.2021495088 ; 2.003892190934733E8 ; 1.4197695252080333E8 ; 1.2602367862651178E10 ; 0.0
72 ; 2069772.596890734 ; 2.0039054410755277E8 ; 1.4404522372295284E8 ; 1.2802757081744652E10 ; 0.0
73 ; 2069202.3255492295 ; 2.003918689766204E8 ; 1.461149963198436E8 ; 1.3003147625852205E10 ; 0.0
74 ; 2069381.3768232602 ; 2.0039319360811815E8 ; 1.481841986453928E8 ; 1.3203539494828825E10 ; 0.0
75 ; 2068817.8471916965 ; 2.0039451791327888E8 ; 1.5025358002221605E8 ; 1.3403932688436943E10 ; 0.0
76 ; 2069675.3854560242 ; 2.0039584180686906E8 ; 1.5232239786940774E8 ; 1.3604327206350222E10 ; 0.0
77 ; 2068423.3133505208 ; 2.0039716520695233E8 ; 1.5439207325486377E8 ; 1.3804723048157091E10 ; 0.0
78 ; 2068625.7188230176 ; 2.003984880346714E8 ; 1.564604965682143E8 ; 1.4005120213364044E10 ; 0.0
79 ; 2066573.3106849438 ; 2.0039981021404728E8 ; 1.585291222870373E8 ; 1.4205518701398716E10 ; 0.0
80 ; 2067003.4863874374 ; 2.0040113167179382E8 ; 1.6059569559772226E8 ; 1.4405918511612762E10 ; 0.0
81 ; 2067048.588971812 ; 2.004024523371464E8 ; 1.626626990841097E8 ; 1.4606319643284555E10 ; 0.0
82 ; 2065772.3450415793 ; 2.004037721417038E8 ; 1.6472974767308152E8 ; 1.4806722095621702E10 ; 0.0
83 ; 2065826.1357902465 ; 2.004050910192817E8 ; 1.667955200181231E8 ; 1.5007125867763407E10 ; 0.0
84 ; 2063729.6290231475 ; 2.0040640890577695E8 ; 1.6886134615391335E8 ; 1.5207530958782688E10 ; 0.0
85 ; 2063304.2900885972 ; 2.00407725739042E8 ; 1.7092507578293648E8 ; 1.5407937367688465E10 ; 0.0
86 ; 2063729.2990980742 ; 2.004090414587684E8 ; 1.7298838007302508E8 ; 1.5608345093427507E10 ; 0.0
87 ; 2061454.4719844905 ; 2.0041035600637823E8 ; 1.7505210937212315E8 ; 1.5808754134886276E10 ; 0.0
88 ; 2062283.609634788 ; 2.0041166932492396E8 ; 1.7711356384410763E8 ; 1.6009164490892654E10 ; 0.0
89 ; 2060752.9692951965 ; 2.0041298135899475E8 ; 1.791758474537424E8 ; 1.6209576160217579E10 ; 0.0
90 ; 2059959.2974022767 ; 2.0041429205462947E8 ; 1.8123660042303762E8 ; 1.6409989141576574E10 ; 0.0
91 ; 2058728.748668153 ; 2.0041560135923576E8 ; 1.8329655972043988E8 ; 1.6610403433631205E10 ; 0.0
92 ; 2059334.9440235095 ; 2.0041690922151455E8 ; 1.8535528846910805E8 ; 1.681081903499044E10 ; 0.0
93 ; 2056690.860159995 ; 2.0041821559138966E8 ; 1.8741462341313156E8 ; 1.7011235944211954E10 ; 0.0
94 ; 2056097.3454018012 ; 2.0041952041994208E8 ; 1.8947131427329156E8 ; 1.7211654159803345E10 ; 0.0
95 ; 2055401.7750804855 ; 2.004208236593488E8 ; 1.9152741161869335E8 ; 1.7412073680223286E10 ; 0.0
96 ; 2054270.8938344517 ; 2.0042212526282525E8 ; 1.9358281339377382E8 ; 1.7612494503882633E10 ; 0.0
97 ; 2052633.4900338107 ; 2.00423425184572E8 ; 1.9563708428760827E8 ; 1.781291662914546E10 ; 0.0
98 ; 2053105.9003847095 ; 2.0042472337972438E8 ; 1.9768971777764207E8 ; 1.801334005433003E10 ; 0.0
99 ; 2050293.1346634994 ; 2.0042601980430576E8 ; 1.997428236780268E8 ; 1.821376477770975E10 ; 0.0
100 ; 2050138.0551831315 ; 2.0042731441518334E8 ; 2.017931168126903E8 ; 1.8414190797514057E10 ; 0.0
101 ; 2048388.9981594211 ; 2.0042860717002714E8 ; 2.0384325486787343E8 ; 1.861461811192924E10 ; 0.0
102 ; 2047821.943523557 ; 2.0042989802727127E8 ; 2.0589164386603284E8 ; 1.881504671909927E10 ; 0.0
103 ; 2046562.5783236912 ; 2.0043118694607762E8 ; 2.079394658095564E8 ; 1.901547661712654E10 ; 0.0
104 ; 2046123.1252185127 ; 2.0043247388630182E8 ; 2.099860283878801E8 ; 1.921590780407262E10 ; 0.0
105 ; 2043632.4107467523 ; 2.0043375880846116E8 ; 2.120321515130986E8 ; 1.9416340277958923E10 ; 0.0
106 ; 2043668.0096944422 ; 2.0043504167370474E8 ; 2.1407578392384535E8 ; 1.9616774036767384E10 ; 0.0
107 ; 2041573.6417346355 ; 2.004363224437848E8 ; 2.161194519335398E8 ; 1.981720907844109E10 ; 0.0
108 ; 2040353.865080023 ; 2.004376010810305E8 ; 2.1816102557527444E8 ; 2.0017645400884876E10 ; 0.0
109 ; 2040178.9155114617 ; 2.0043887754832244E8 ; 2.2020137944035447E8 ; 2.0218083001965908E10 ; 0.0
110 ; 2037696.7225258322 ; 2.0044015180906945E8 ; 2.2224155835586593E8 ; 2.041852187951423E10 ; 0.0
111 ; 2035193.2801854347 ; 2.00441423827186E8 ; 2.2427925507839176E8 ; 2.06189620313233E10 ; 0.0
112 ; 2034445.5307207112 ; 2.0044269356707138E8 ; 2.263144483585772E8 ; 2.0819403455150486E10 ; 0.0
113 ; 2034244.6036784293 ; 2.0044396099358994E8 ; 2.283488938892979E8 ; 2.1019846148717556E10 ; 0.0
114 ; 2032358.0123064383 ; 2.0044522607205227E8 ; 2.3038313849297634E8 ; 2.1220290109711147E10 ; 0.0
115 ; 2030923.2771230116 ; 2.0044648876819777E8 ; 2.324154965052828E8 ; 2.14207353357832E10 ; 0.0
116 ; 2029585.149391069 ; 2.0044774904817772E8 ; 2.344464197824058E8 ; 2.1621181824551395E10 ; 0.0
117 ; 2028904.1523995986 ; 2.004490068785398E8 ; 2.3647600493179685E8 ; 2.182162957359957E10 ; 0.0
118 ; 2026291.8656560578 ; 2.0045026222621304E8 ; 2.3850490908419645E8 ; 2.202207858047811E10 ; 0.0
119 ; 2025566.7938495018 ; 2.0045151505849388E8 ; 2.405312009498525E8 ; 2.2222528842704323E10 ; 0.0
120 ; 2022961.2104511287 ; 2.0045276534303275E8 ; 2.42556767743702E8 ; 2.2422980357762817E10 ; 0.0
121 ; 2021892.0260142924 ; 2.0045401304782146E8 ; 2.4457972895415312E8 ; 2.262343312310585E10 ; 0.0
122 ; 2020760.9962232746 ; 2.0045525814118144E8 ; 2.4660162098016742E8 ; 2.282388713615367E10 ; 0.0
123 ; 2018948.4576703452 ; 2.0045650059175223E8 ; 2.486223819763907E8 ; 2.3024342394294853E10 ; 0.0
124 ; 2018135.577550624 ; 2.0045774036848092E8 ; 2.5064133043406102E8 ; 2.3224798894886604E10 ; 0.0
125 ; 2016314.368684924 ; 2.00458977440612E8 ; 2.5265946601161164E8 ; 2.3425256635255085E10 ; 0.0
126 ; 2013951.631255776 ; 2.0046021177767757E8 ; 2.5467578038029656E8 ; 2.3625715612695698E10 ; 0.0
127 ; 2013760.8326566597 ; 2.0046144334948853E8 ; 2.5668973201155233E8 ; 2.3826175824473377E10 ; 0.0
128 ; 2013201.2344349264 ; 2.0046267212612566E8 ; 2.58703492844209E8 ; 2.4026637267822865E10 ; 0.0
129 ; 2010085.8728416595 ; 2.004638980779315E8 ; 2.6071669407864392E8 ; 2.422709993994899E10 ; 0.0
130 ; 2007115.9581946936 ; 2.004651211755026E8 ; 2.6272677995148557E8 ; 2.442756383802692E10 ; 0.0
131 ; 2003556.3384035265 ; 2.0046634138968205E8 ; 2.6473389590968028E8 ; 2.4628028959202423E10 ; 0.0
132 ; 2002803.0212698437 ; 2.0046755869155252E8 ; 2.667374522480838E8 ; 2.4828495300592106E10 ; 0.0
133 ; 1999536.815292409 ; 2.0046877305242953E8 ; 2.687402552693536E8 ; 2.5028962859283657E10 ; 0.0
134 ; 1997739.2566391865 ; 2.004699844438551E8 ; 2.7073979208464605E8 ; 2.5229431632336086E10 ; 0.0
135 ; 1995033.2321310928 ; 2.0047119283759186E8 ; 2.727375313412852E8 ; 2.542990161677994E10 ; 0.0
136 ; 1993360.1408847414 ; 2.0047239820561704E8 ; 2.747325645734163E8 ; 2.5630372809617535E10 ; 0.0
137 ; 1989265.9254931535 ; 2.0047360052011734E8 ; 2.7672592471430105E8 ; 2.583084520782315E10 ; 0.0
138 ; 1988137.7689140616 ; 2.004747997534835E8 ; 2.7871519063979423E8 ; 2.603131880834327E10 ; 0.0
139 ; 1984838.749711748 ; 2.0047599587830552E8 ; 2.807033284087083E8 ; 2.6231793608096752E10 ; 0.0
140 ; 1982398.3634756054 ; 2.0047718886736786E8 ; 2.8268816715842E8 ; 2.643226960397506E10 ; 0.0
141 ; 1979593.7639290243 ; 2.0047837869364512E8 ; 2.8467056552189565E8 ; 2.6632746792842426E10 ; 0.0
142 ; 1975009.265153398 ; 2.0047956533029762E8 ; 2.8665015928582466E8 ; 2.683322517153607E10 ; 0.0
143 ; 1973511.992997288 ; 2.0048074875066742E8 ; 2.8862516855097806E8 ; 2.703370473686637E10 ; 0.0
144 ; 1971225.2566414748 ; 2.0048192892827457E8 ; 2.9059868054397535E8 ; 2.723418548561704E10 ; 0.0
145 ; 1969439.2790348986 ; 2.004831058368133E8 ; 2.925699058006168E8 ; 2.7434667414545315E10 ; 0.0
146 ; 1967269.0455224 ; 2.004842794501486E8 ; 2.945393450796517E8 ; 2.763515052038213E10 ; 0.0
147 ; 1965709.1904775274 ; 2.004854497423129E8 ; 2.965066141251741E8 ; 2.783563479983228E10 ; 0.0
148 ; 1964029.7828139646 ; 2.0048661668750286E8 ; 2.9847232331565166E8 ; 2.8036120249574593E10 ; 0.0
149 ; 1962643.6529741806 ; 2.0048778026007637E8 ; 3.004363530984656E8 ; 2.8236606866262096E10 ; 0.0
150 ; 1959481.8279681245 ; 2.004889404345497E8 ; 3.023989967514398E8 ; 2.843709464652217E10 ; 0.0
151 ; 1958948.545016069 ; 2.004900971855947E8 ; 3.0435847857940793E8 ; 2.8637583586956722E10 ; 0.0
152 ; 1955125.98870175 ; 2.0049125048803633E8 ; 3.06317427124424E8 ; 2.883807368414232E10 ; 0.0
153 ; 1953654.1133594133 ; 2.0049240031684998E8 ; 3.0827255311312574E8 ; 2.9038564934630356E10 ; 0.0
154 ; 1952693.8629516189 ; 2.0049354664715916E8 ; 3.1022620722648513E8 ; 2.9239057334947205E10 ; 0.0
155 ; 1950367.6543848042 ; 2.0049468945423338E8 ; 3.1217890108943677E8 ; 2.9439550881594364E10 ; 0.0
156 ; 1947616.4413770998 ; 2.0049582871348584E8 ; 3.1412926874382156E8 ; 2.96400455710486E10 ; 0.0
157 ; 1946932.4286521769 ; 2.0049696440047142E8 ; 3.1607688518519866E8 ; 2.9840541399762085E10 ; 0.0
158 ; 1945141.983126731 ; 2.0049809649088472E8 ; 3.1802381761385083E8 ; 3.0041038364162556E10 ; 0.0
159 ; 1942198.024272815 ; 2.0049922496055827E8 ; 3.199689595969776E8 ; 3.024153646065344E10 ; 0.0
160 ; 1942102.9449097514 ; 2.0050034978546065E8 ; 3.219111576212504E8 ; 3.0442035685614E10 ; 0.0
161 ; 1938724.8284580426 ; 2.0050147094169483E8 ; 3.2385326056616014E8 ; 3.064253603539946E10 ; 0.0
162 ; 1937369.5198028137 ; 2.0050258840549663E8 ; 3.257919853946182E8 ; 3.0843037506341156E10 ; 0.0
163 ; 1934972.425291782 ; 2.0050370215323308E8 ; 3.27729354914421E8 ; 3.1043540094746655E10 ; 0.0
164 ; 1933022.9528445753 ; 2.00504812161401E8 ; 3.296643273397128E8 ; 3.1244043796899887E10 ; 0.0
165 ; 1930439.4106930972 ; 2.005059184066257E8 ; 3.3159735029255736E8 ; 3.1444548609061287E10 ; 0.0
166 ; 1927625.226571094 ; 2.0050702086565942E8 ; 3.3352778970325047E8 ; 3.164505452746791E10 ; 0.0
167 ; 1927335.5752743846 ; 2.0050811951538032E8 ; 3.3545541492982155E8 ; 3.184556154833357E10 ; 0.0
168 ; 1925215.6799932045 ; 2.0050921433279118E8 ; 3.3738275050509596E8 ; 3.204606966784895E10 ; 0.0
169 ; 1921478.556331562 ; 2.005103052950182E8 ; 3.393079661850892E8 ; 3.224657888218174E10 ; 0.0
170 ; 1921020.283852759 ; 2.0051139237930995E8 ; 3.4122944474142075E8 ; 3.2447089187476757E10 ; 0.0
171 ; 1917999.8543567003 ; 2.0051247556303638E8 ; 3.431504650252735E8 ; 3.2647600579856068E10 ; 0.0
172 ; 1916502.1447076797 ; 2.005135548236878E8 ; 3.450684648796302E8 ; 3.2848113055419106E10 ; 0.0
173 ; 1914591.7844151643 ; 2.0051463013887385E8 ; 3.469849670243379E8 ; 3.3048626610242794E10 ; 0.0
174 ; 1913330.933387743 ; 2.0051570148632285E8 ; 3.488995588087531E8 ; 3.3249141240381668E10 ; 0.0
175 ; 1911503.5473126161 ; 2.0051676884388068E8 ; 3.508128897421408E8 ; 3.3449656941867992E10 ; 0.0
176 ; 1910922.2820915675 ; 2.005178321895102E8 ; 3.5272439328945345E8 ; 3.3650173710711872E10 ; 0.0
177 ; 1908115.6498151242 ; 2.0051889150129026E8 ; 3.54635315571545E8 ; 3.3850691542901382E10 ; 0.0
178 ; 1908693.8241394188 ; 2.0051994675741524E8 ; 3.5654343122136015E8 ; 3.405121043440267E10 ; 0.0
179 ; 1906528.0348449566 ; 2.0052099793619412E8 ; 3.5845212504549956E8 ; 3.4251730381160088E10 ; 0.0
180 ; 1905996.5785151292 ; 2.0052204501605004E8 ; 3.603586530803445E8 ; 3.445225137909628E10 ; 0.0
181 ; 1904165.7664992276 ; 2.0052308797551948E8 ; 3.622646496588596E8 ; 3.4652773424112335E10 ; 0.0
182 ; 1902803.1803271284 ; 2.0052412679325184E8 ; 3.6416881542535883E8 ; 3.485329651208785E10 ; 0.0
183 ; 1902875.3658616282 ; 2.0052516144800884E8 ; 3.6607161860568595E8 ; 3.50538206388811E10 ; 0.0
184 ; 1900908.7831696563 ; 2.0052619191866392E8 ; 3.679744939715476E8 ; 3.525434580032911E10 ; 0.0
185 ; 1898443.043926445 ; 2.0052721818420187E8 ; 3.6987540275471723E8 ; 3.545487199224777E10 ; 0.0
186 ; 1898077.025047667 ; 2.0052824022371823E8 ; 3.7177384579864365E8 ; 3.565539921043198E10 ; 0.0
187 ; 1896716.288252404 ; 2.0052925801641902E8 ; 3.736719228236913E8 ; 3.585592745065569E10 ; 0.0
188 ; 1895898.4462361261 ; 2.005302715416202E8 ; 3.755686391119437E8 ; 3.605645670867211E10 ; 0.0
189 ; 1894341.4397526663 ; 2.0053128077874726E8 ; 3.7746453755817986E8 ; 3.625698698021373E10 ; 0.0
190 ; 1892127.6123782417 ; 2.00532285707335E8 ; 3.793588789979325E8 ; 3.645751826099248E10 ; 0.0
191 ; 1891115.7338353482 ; 2.0053328630702698E8 ; 3.8125100661031073E8 ; 3.6658050546699814E10 ; 0.0
192 ; 1891123.7221085434 ; 2.0053428255757543E8 ; 3.831421223441461E8 ; 3.685858383300684E10 ; 0.0
193 ; 1888909.2021493148 ; 2.0053527443884078E8 ; 3.850332460662546E8 ; 3.705911811556442E10 ; 0.0
194 ; 1887845.1150448823 ; 2.005362619307914E8 ; 3.8692215526840395E8 ; 3.7259653390003265E10 ; 0.0
195 ; 1886117.1221665833 ; 2.0053724501350343E8 ; 3.8881000038344884E8 ; 3.746018965193406E10 ; 0.0
196 ; 1884520.3354040664 ; 2.0053822366716045E8 ; 3.906961175056154E8 ; 3.766072689694756E10 ; 0.0
197 ; 1884340.4981167961 ; 2.0053919787205324E8 ; 3.9258063784101945E8 ; 3.786126512061472E10 ; 0.0
198 ; 1883182.3435438084 ; 2.0054016760857967E8 ; 3.9446497833913624E8 ; 3.806180431848678E10 ; 0.0
199 ; 1881819.9781331876 ; 2.005411328572444E8 ; 3.963481606826801E8 ; 3.826234448609536E10 ; 0.0
