CSV File for the City 3 on Day 257
1 - Minute m 
2 - Power Consumed at minute m 
3 - Power Produced at minute m 
4 - Energy Consumed since the beginning of the day 
5 - Energy Produced since the beginning of the day 
6 - Energy Lost since the beginning of the day on lines starting from the city
 
0 ; 694355.3754948099 ; 1.0545010632033637E8 ; 0.0 ; 0.0 ; 0.0
1 ; 695708.1139670666 ; 1.0560296202361375E8 ; 694355.3754948099 ; 1.0545010632033637E8 ; 0.0
2 ; 698189.1415197419 ; 1.0606460727705404E8 ; 1390063.4894618765 ; 2.1105306834395012E8 ; 0.0
3 ; 699682.7829081905 ; 1.0683504422995365E8 ; 2088252.6309816183 ; 3.1711767562100416E8 ; 0.0
4 ; 702440.776580965 ; 1.0791427482036495E8 ; 2787935.4138898086 ; 4.239527198509578E8 ; 0.0
5 ; 707586.0175583677 ; 1.0930230076041466E8 ; 3490376.1904707737 ; 5.3186699467132276E8 ; 0.0
6 ; 712505.3717670557 ; 1.1099912352298394E8 ; 4197962.208029142 ; 6.411692954317374E8 ; 0.0
7 ; 718128.197426571 ; 1.1300474432998663E8 ; 4910467.579796197 ; 7.521684189547213E8 ; 0.0
8 ; 730004.1404431998 ; 1.1531916414245802E8 ; 5628595.7772227675 ; 8.65173163284708E8 ; 0.0
9 ; 746717.726799843 ; 1.1794238365264082E8 ; 6358599.917665968 ; 9.80492327427166E8 ; 0.0
10 ; 772102.6729800489 ; 1.2087440327821934E8 ; 7105317.644465811 ; 1.0984347110798068E9 ; 0.0
11 ; 814759.8127885114 ; 1.2411522315881369E8 ; 7877420.317445859 ; 1.219309114358026E9 ; 0.0
12 ; 881151.1764117255 ; 1.2766484315480372E8 ; 8692180.13023437 ; 1.3434243375168397E9 ; 0.0
13 ; 943484.6985400289 ; 1.3152326284850514E8 ; 9573331.306646096 ; 1.4710891806716435E9 ; 0.0
14 ; 949352.5442965961 ; 1.356904815476753E8 ; 1.0516816005186124E7 ; 1.6026124435201488E9 ; 0.0
15 ; 952729.3433904973 ; 1.4016649829127884E8 ; 1.146616854948272E7 ; 1.7383029250678241E9 ; 0.0
16 ; 956294.4574168498 ; 1.44951311857402E8 ; 1.2418897892873216E7 ; 1.878469423359103E9 ; 0.0
17 ; 959626.8839715704 ; 1.5004492077316353E8 ; 1.3375192350290066E7 ; 2.023420735216505E9 ; 0.0
18 ; 961447.3969528878 ; 1.5544732332643676E8 ; 1.4334819234261636E7 ; 2.1734656559896684E9 ; 0.0
19 ; 963649.7609313325 ; 1.611585175791693E8 ; 1.5296266631214524E7 ; 2.328912979316105E9 ; 0.0
20 ; 966802.4096578297 ; 1.6717850138206473E8 ; 1.6259916392145855E7 ; 2.490071496895274E9 ; 0.0
21 ; 970004.1541640357 ; 1.7350727239037845E8 ; 1.7226718801803686E7 ; 2.657249998277339E9 ; 0.0
22 ; 972432.4091936518 ; 1.8014482808057058E8 ; 1.819672295596772E7 ; 2.8307572706677175E9 ; 0.0
23 ; 974445.5054723157 ; 1.8709116576756108E8 ; 1.9169155365161374E7 ; 3.010902098748288E9 ; 0.0
24 ; 977635.9074055179 ; 1.9434628262233663E8 ; 2.014360087063369E7 ; 3.197993264515849E9 ; 0.0
25 ; 980214.585813998 ; 2.0059821658785596E8 ; 2.112123677803921E7 ; 3.3923395471381855E9 ; 0.0
26 ; 981966.954812498 ; 2.006005124335607E8 ; 2.210145136385321E7 ; 3.5929377637260413E9 ; 0.0
27 ; 986242.2566230852 ; 2.0060293629758704E8 ; 2.3083418318665706E7 ; 3.793538276159602E9 ; 0.0
28 ; 989359.4663433137 ; 2.0060548495036152E8 ; 2.406966057528879E7 ; 3.994141212457189E9 ; 0.0
29 ; 990866.98751307 ; 2.0060815510403228E8 ; 2.5059020041632105E7 ; 4.194746697407551E9 ; 0.0
30 ; 993459.8938070254 ; 2.0061094342788988E8 ; 2.6049887029145174E7 ; 4.395354852511583E9 ; 0.0
31 ; 996596.019233029 ; 2.006138465629209E8 ; 2.7043346922952197E7 ; 4.595965795939473E9 ; 0.0
32 ; 999895.0816624283 ; 2.0061686113541666E8 ; 2.8039942942185227E7 ; 4.796579642502394E9 ; 0.0
33 ; 1002279.298785778 ; 2.0061998376958257E8 ; 2.9039838023847654E7 ; 4.997196503637811E9 ; 0.0
34 ; 1003853.4570686376 ; 2.0062321109911537E8 ; 3.0042117322633434E7 ; 5.197816487407393E9 ; 0.0
35 ; 1006638.66903952 ; 2.0062653977773377E8 ; 3.104597077970207E7 ; 5.398439698506509E9 ; 0.0
36 ; 1010777.9062467363 ; 2.0062996648866662E8 ; 3.2052609448741592E7 ; 5.599066238284243E9 ; 0.0
37 ; 1011162.8235436429 ; 2.0063348795311517E8 ; 3.306338735498833E7 ; 5.799696204772909E9 ; 0.0
38 ; 1014266.8066571206 ; 2.0063710093771985E8 ; 3.4074550178531975E7 ; 6.000329692726025E9 ; 0.0
39 ; 1016322.1307965036 ; 2.006408022610713E8 ; 3.5088816985189095E7 ; 6.200966793663745E9 ; 0.0
40 ; 1017591.8550727128 ; 2.0064458879931217E8 ; 3.61051391159856E7 ; 6.401607595924816E9 ; 0.0
41 ; 1020863.3380274565 ; 2.006484574908835E8 ; 3.712273097105832E7 ; 6.602252184724129E9 ; 0.0
42 ; 1019578.2797041141 ; 2.0065240534047198E8 ; 3.814359430908577E7 ; 6.802900642215013E9 ; 0.0
43 ; 1022724.4587791316 ; 2.0065642942221737E8 ; 3.916317258878989E7 ; 7.003553047555485E9 ; 0.0
44 ; 1024384.5637208496 ; 2.0066052688224036E8 ; 4.018589704756902E7 ; 7.204209476977702E9 ; 0.0
45 ; 1025968.7643595058 ; 2.0066469494055057E8 ; 4.121028161128987E7 ; 7.404870003859942E9 ; 0.0
46 ; 1025906.3552157161 ; 2.006689308923938E8 ; 4.223625037564938E7 ; 7.605534698800493E9 ; 0.0
47 ; 1028204.0059903644 ; 2.0067323210909545E8 ; 4.326215673086509E7 ; 7.806203629692887E9 ; 0.0
48 ; 1030586.2985913758 ; 2.0067759603845453E8 ; 4.4290360736855455E7 ; 8.006876861801983E9 ; 0.0
49 ; 1029716.9086576946 ; 2.0068202020474026E8 ; 4.532094703544683E7 ; 8.207554457840437E9 ; 0.0
50 ; 1031087.192546974 ; 2.0068650220833996E8 ; 4.635066394410452E7 ; 8.408236478045177E9 ; 0.0
51 ; 1030024.3668964138 ; 2.0069103972510296E8 ; 4.738175113665149E7 ; 8.608922980253517E9 ; 0.0
52 ; 1032326.4107507188 ; 2.006956305054232E8 ; 4.841177550354791E7 ; 8.80961401997862E9 ; 0.0
53 ; 1033422.4675904168 ; 2.0070027237309825E8 ; 4.9444101914298624E7 ; 9.010309650484043E9 ; 0.0
54 ; 1032618.2669233922 ; 2.0070496322400042E8 ; 5.047752438188904E7 ; 9.211009922857141E9 ; 0.0
55 ; 1035369.8260229438 ; 2.007097010245915E8 ; 5.151014264881243E7 ; 9.411714886081142E9 ; 0.0
56 ; 1034701.0803941198 ; 2.0071448381030965E8 ; 5.254551247483537E7 ; 9.612424587105734E9 ; 0.0
57 ; 1036352.0706590071 ; 2.007193096838548E8 ; 5.358021355522949E7 ; 9.813139070916044E9 ; 0.0
58 ; 1036403.1867562328 ; 2.0072417681339452E8 ; 5.46165656258885E7 ; 1.00138583805999E10 ; 0.0
59 ; 1037263.9352725685 ; 2.0072908343071163E8 ; 5.565296881264473E7 ; 1.0214582557413294E10 ; 0.0
60 ; 1037007.6093185992 ; 2.007340278293107E8 ; 5.6690232747917295E7 ; 1.0415311640844006E10 ; 0.0
61 ; 1039060.5337765142 ; 2.0073900836249956E8 ; 5.772724035723589E7 ; 1.0616045668673317E10 ; 0.0
62 ; 1039159.1109909476 ; 2.0074402344145918E8 ; 5.876630089101241E7 ; 1.0816784677035816E10 ; 0.0
63 ; 1038736.2091419407 ; 2.007490715333138E8 ; 5.980546000200336E7 ; 1.1017528700477276E10 ; 0.0
64 ; 1039429.9084794873 ; 2.0075415115921155E8 ; 6.08441962111453E7 ; 1.121827777201059E10 ; 0.0
65 ; 1040977.9943400591 ; 2.0075926089242378E8 ; 6.1883626119624786E7 ; 1.1419031923169802E10 ; 0.0
66 ; 1040929.7300359247 ; 2.007643993564708E8 ; 6.292460411396485E7 ; 1.1619791184062225E10 ; 0.0
67 ; 1041045.9003672331 ; 2.0076956522327995E8 ; 6.396553384400077E7 ; 1.1820555583418695E10 ; 0.0
68 ; 1040252.02386971 ; 2.0077475721138057E8 ; 6.5006579744368E7 ; 1.2021325148641975E10 ; 0.0
69 ; 1042202.6840391065 ; 2.0077997408414057E8 ; 6.604683176823771E7 ; 1.2222099905853355E10 ; 0.0
70 ; 1041881.5152941247 ; 2.0078521464804724E8 ; 6.708903445227682E7 ; 1.2422879879937496E10 ; 0.0
71 ; 1042039.8487933573 ; 2.007904777510352E8 ; 6.813091596757095E7 ; 1.2623665094585543E10 ; 0.0
72 ; 1043027.5946328535 ; 2.007957622808629E8 ; 6.91729558163643E7 ; 1.2824455572336578E10 ; 0.0
73 ; 1043999.6350747271 ; 2.0080106716353914E8 ; 7.021598341099715E7 ; 1.3025251334617441E10 ; 0.0
74 ; 1041660.424639714 ; 2.0080639136180076E8 ; 7.125998304607187E7 ; 1.3226052401780981E10 ; 0.0
75 ; 1043966.2440116706 ; 2.0081173387364113E8 ; 7.230164347071159E7 ; 1.3426858793142782E10 ; 0.0
76 ; 1044136.496195163 ; 2.0081709373089013E8 ; 7.334560971472326E7 ; 1.3627670527016424E10 ; 0.0
77 ; 1043377.9408998749 ; 2.0082246999784505E8 ; 7.438974621091843E7 ; 1.3828487620747314E10 ; 0.0
78 ; 1043275.5560904405 ; 2.0082786176995206E8 ; 7.54331241518183E7 ; 1.402931009074516E10 ; 0.0
79 ; 1044226.7694789012 ; 2.0083326817253727E8 ; 7.647639970790875E7 ; 1.4230137952515112E10 ; 0.0
80 ; 1041981.3766506577 ; 2.0083868835958683E8 ; 7.752062647738765E7 ; 1.4430971220687649E10 ; 0.0
81 ; 1040908.9973848802 ; 2.0084412151257476E8 ; 7.856260785403831E7 ; 1.4631809909047235E10 ; 0.0
82 ; 1041384.343309875 ; 2.0084956683933753E8 ; 7.960351685142319E7 ; 1.483265403055981E10 ; 0.0
83 ; 1039145.0564815068 ; 2.0085502357299405E8 ; 8.064490119473307E7 ; 1.5033503597399149E10 ; 0.0
84 ; 1039707.9859577683 ; 2.0086049097090986E8 ; 8.168404625121458E7 ; 1.5234358620972143E10 ; 0.0
85 ; 1040327.451192909 ; 2.0086596831370413E8 ; 8.272375423717235E7 ; 1.5435219111943052E10 ; 0.0
86 ; 1038691.6716844257 ; 2.0087145490429798E8 ; 8.376408168836527E7 ; 1.5636085080256756E10 ; 0.0
87 ; 1036714.0228403652 ; 2.0087695006700313E8 ; 8.48027733600497E7 ; 1.5836956535161055E10 ; 0.0
88 ; 1036275.0784936983 ; 2.0088245314664873E8 ; 8.583948738289006E7 ; 1.6037833485228058E10 ; 0.0
89 ; 1036515.0741470956 ; 2.0088796350774592E8 ; 8.687576246138376E7 ; 1.6238715938374706E10 ; 0.0
90 ; 1035118.7691282713 ; 2.008934805336878E8 ; 8.791227753553085E7 ; 1.6439603901882452E10 ; 0.0
91 ; 1035037.5036536282 ; 2.0089900362598413E8 ; 8.894739630465913E7 ; 1.664049738241614E10 ; 0.0
92 ; 1034605.2386703087 ; 2.0090453220352894E8 ; 8.998243380831276E7 ; 1.6841396386042124E10 ; 0.0
93 ; 1032889.4586863416 ; 2.009100657019001E8 ; 9.101703904698306E7 ; 1.7042300918245653E10 ; 0.0
94 ; 1032017.8884450162 ; 2.009156035726892E8 ; 9.20499285056694E7 ; 1.724321098394755E10 ; 0.0
95 ; 1032202.6049227491 ; 2.0092114528286088E8 ; 9.308194639411442E7 ; 1.744412658752024E10 ; 0.0
96 ; 1029034.2351511642 ; 2.009266903141397E8 ; 9.411414899903718E7 ; 1.76450477328031E10 ; 0.0
97 ; 1029751.2956774519 ; 2.0093223816242445E8 ; 9.514318323418835E7 ; 1.784597442311724E10 ; 0.0
98 ; 1028882.646745577 ; 2.009377883372275E8 ; 9.61729345298658E7 ; 1.8046906661279667E10 ; 0.0
99 ; 1027535.4187426774 ; 2.009433403611391E8 ; 9.720181717661138E7 ; 1.8247844449616894E10 ; 0.0
100 ; 1025198.4511675403 ; 2.0094889376931491E8 ; 9.822935259535405E7 ; 1.844878778997803E10 ; 0.0
101 ; 1027013.0479493795 ; 2.009544481089861E8 ; 9.925455104652159E7 ; 1.8649736683747345E10 ; 0.0
102 ; 1024445.4250941852 ; 2.009600029389909E8 ; 1.0028156409447096E8 ; 1.885069113185633E10 ; 0.0
103 ; 1023441.1344388939 ; 2.009655578293263E8 ; 1.0130600951956515E8 ; 1.9051651134795322E10 ; 0.0
104 ; 1023188.5713054055 ; 2.0097111236071992E8 ; 1.0232945065400404E8 ; 1.925261669262465E10 ; 0.0
105 ; 1021724.073725329 ; 2.0097666612422007E8 ; 1.0335263922530945E8 ; 1.945358780498537E10 ; 0.0
106 ; 1019530.4558336897 ; 2.0098221872080374E8 ; 1.0437436329903477E8 ; 1.9654564471109592E10 ; 0.0
107 ; 1018486.1667746063 ; 2.0098776976100183E8 ; 1.0539389375486846E8 ; 1.9855546689830395E10 ; 0.0
108 ; 1017910.0220732192 ; 2.0099331886454043E8 ; 1.0641237992164306E8 ; 2.0056534459591396E10 ; 0.0
109 ; 1017388.6816629693 ; 2.0099886565999782E8 ; 1.0743028994371629E8 ; 2.0257527778455936E10 ; 0.0
110 ; 1015920.1377522136 ; 2.0100440978447598E8 ; 1.0844767862537926E8 ; 2.0458526644115932E10 ; 0.0
111 ; 1014691.6902018563 ; 2.0100995088328668E8 ; 1.0946359876313148E8 ; 2.065953105390041E10 ; 0.0
112 ; 1012797.6697346168 ; 2.010154886096507E8 ; 1.1047829045333335E8 ; 2.0860541004783695E10 ; 0.0
113 ; 1012174.2139118637 ; 2.0102102262441006E8 ; 1.1149108812306796E8 ; 2.1061556493393345E10 ; 0.0
114 ; 1011451.7178895538 ; 2.0102655259575263E8 ; 1.1250326233697982E8 ; 2.1262577516017754E10 ; 0.0
115 ; 1009213.9301859094 ; 2.010320781989484E8 ; 1.1351471405486937E8 ; 2.1463604068613506E10 ; 0.0
116 ; 1007333.9725476248 ; 2.01037599116097E8 ; 1.1452392798505528E8 ; 2.1664636146812454E10 ; 0.0
117 ; 1006718.0569279627 ; 2.010431150358857E8 ; 1.155312619576029E8 ; 2.186567374592855E10 ; 0.0
118 ; 1005716.7664136876 ; 2.010486256533581E8 ; 1.1653798001453087E8 ; 2.2066716860964436E10 ; 0.0
119 ; 1003826.7073168233 ; 2.0105413066969198E8 ; 1.1754369678094456E8 ; 2.2267765486617794E10 ; 0.0
120 ; 1003330.1654290898 ; 2.0105962979198697E8 ; 1.1854752348826137E8 ; 2.2468819617287487E10 ; 0.0
121 ; 1002447.4704451717 ; 2.0106512273306075E8 ; 1.1955085365369046E8 ; 2.2669879247079475E10 ; 0.0
122 ; 999954.8467903425 ; 2.0107060921125388E8 ; 1.2055330112413563E8 ; 2.2870944369812534E10 ; 0.0
123 ; 998685.064412673 ; 2.010760889502427E8 ; 1.2155325597092597E8 ; 2.307201497902379E10 ; 0.0
124 ; 998428.1227851895 ; 2.0108156167886007E8 ; 1.2255194103533864E8 ; 2.327309106797403E10 ; 0.0
125 ; 995737.301450709 ; 2.010870271309233E8 ; 1.2355036915812384E8 ; 2.347417262965289E10 ; 0.0
126 ; 994727.4425719256 ; 2.0109248504506925E8 ; 1.2454610645957455E8 ; 2.3675259656783813E10 ; 0.0
127 ; 992020.329021086 ; 2.0109793516459626E8 ; 1.2554083390214647E8 ; 2.3876352141828884E10 ; 0.0
128 ; 992061.30171589 ; 2.0110337723731238E8 ; 1.2653285423116755E8 ; 2.407745007699348E10 ; 0.0
129 ; 990608.0161321299 ; 2.011088110153898E8 ; 1.2752491553288345E8 ; 2.4278553454230793E10 ; 0.0
130 ; 987509.8407246871 ; 2.011142362552252E8 ; 1.2851552354901558E8 ; 2.447966226524618E10 ; 0.0
131 ; 984285.5282772969 ; 2.0111965271730572E8 ; 1.2950303338974027E8 ; 2.4680776501501408E10 ; 0.0
132 ; 983393.0398225518 ; 2.0112506016608027E8 ; 1.3048731891801757E8 ; 2.488189615421871E10 ; 0.0
133 ; 980354.0355827473 ; 2.0113045836983594E8 ; 1.3147071195784011E8 ; 2.5083021214384792E10 ; 0.0
134 ; 978676.9923204733 ; 2.0113584710057962E8 ; 1.3245106599342287E8 ; 2.5284151672754627E10 ; 0.0
135 ; 975274.2568023528 ; 2.011412261339238E8 ; 1.3342974298574334E8 ; 2.5485287519855206E10 ; 0.0
136 ; 973467.897867675 ; 2.011465952489774E8 ; 1.344050172425457E8 ; 2.568642874598913E10 ; 0.0
137 ; 971552.3865100192 ; 2.0115195422824058E8 ; 1.3537848514041337E8 ; 2.5887575341238106E10 ; 0.0
138 ; 968107.3822427548 ; 2.011573028575037E8 ; 1.363500375269234E8 ; 2.6088727295466347E10 ; 0.0
139 ; 964444.467308606 ; 2.011626409257505E8 ; 1.3731814490916616E8 ; 2.628988459832385E10 ; 0.0
140 ; 963817.8416913757 ; 2.0116796822506455E8 ; 1.3828258937647477E8 ; 2.64910472392496E10 ; 0.0
141 ; 959513.8924703653 ; 2.0117328455053985E8 ; 1.3924640721816614E8 ; 2.6692215207474663E10 ; 0.0
142 ; 958229.637172728 ; 2.0117858970019448E8 ; 1.402059211106365E8 ; 2.6893388492025204E10 ; 0.0
143 ; 955923.2106917279 ; 2.0118388347488782E8 ; 1.4116415074780923E8 ; 2.70945670817254E10 ; 0.0
144 ; 953467.8505463237 ; 2.0118916567824084E8 ; 1.4212007395850095E8 ; 2.7295750965200287E10 ; 0.0
145 ; 952097.9898577903 ; 2.0119443611655936E8 ; 1.4307354180904728E8 ; 2.749694013087853E10 ; 0.0
146 ; 950204.3822548466 ; 2.0119969459876037E8 ; 1.4402563979890507E8 ; 2.7698134566995087E10 ; 0.0
147 ; 947679.9029271847 ; 2.0120494093630108E8 ; 1.449758441811599E8 ; 2.7899334261593845E10 ; 0.0
148 ; 947693.70694473 ; 2.012101749431106E8 ; 1.459235240840871E8 ; 2.8100539202530148E10 ; 0.0
149 ; 945494.2182119364 ; 2.0121539643552423E8 ; 1.4687121779103184E8 ; 2.830174937747326E10 ; 0.0
150 ; 943142.6570401301 ; 2.0122060523222023E8 ; 1.478167120092438E8 ; 2.8502964773908783E10 ; 0.0
151 ; 943363.3846594673 ; 2.0122580115415892E8 ; 1.487598546662839E8 ; 2.8704185379141003E10 ; 0.0
152 ; 941697.3495515621 ; 2.012309840245239E8 ; 1.4970321805094337E8 ; 2.8905411180295162E10 ; 0.0
153 ; 938312.9141813768 ; 2.0123615366866592E8 ; 1.5064491540049493E8 ; 2.9106642164319687E10 ; 0.0
154 ; 937924.900404204 ; 2.0124130991404805E8 ; 1.515832283146763E8 ; 2.9307878317988354E10 ; 0.0
155 ; 935299.3094322041 ; 2.0124645259019366E8 ; 1.5252115321508053E8 ; 2.95091196279024E10 ; 0.0
156 ; 934554.3678391458 ; 2.0125158152863577E8 ; 1.5345645252451274E8 ; 2.9710366080492596E10 ; 0.0
157 ; 930357.3713611813 ; 2.0125669656286845E8 ; 1.543910068923519E8 ; 2.9911617662021233E10 ; 0.0
158 ; 930851.232019759 ; 2.0126179752829996E8 ; 1.553213642637131E8 ; 3.0112874358584103E10 ; 0.0
159 ; 929525.554316164 ; 2.0126688426220757E8 ; 1.5625221549573284E8 ; 3.0314136156112404E10 ; 0.0
160 ; 928711.5537424897 ; 2.012719566036941E8 ; 1.57181741050049E8 ; 3.051540304037461E10 ; 0.0
161 ; 926100.1734461769 ; 2.0127701439364582E8 ; 1.581104526037915E8 ; 3.0716674996978306E10 ; 0.0
162 ; 924038.6071329435 ; 2.012820574746921E8 ; 1.5903655277723768E8 ; 3.0917952011371952E10 ; 0.0
163 ; 924089.8981647791 ; 2.012870856911663E8 ; 1.5996059138437063E8 ; 3.1119234068846645E10 ; 0.0
164 ; 919702.6898816975 ; 2.012920988890682E8 ; 1.608846812825354E8 ; 3.132052115453781E10 ; 0.0
165 ; 919017.640905957 ; 2.012970969160276E8 ; 1.6180438397241712E8 ; 3.152181325342688E10 ; 0.0
166 ; 918015.0204273295 ; 2.0130207962126952E8 ; 1.6272340161332306E8 ; 3.1723110350342907E10 ; 0.0
167 ; 916895.5677793123 ; 2.0130704685558015E8 ; 1.6364141663375038E8 ; 3.1924412429964176E10 ; 0.0
168 ; 915514.260718154 ; 2.0131199847127447E8 ; 1.6455831220152968E8 ; 3.2125719476819756E10 ; 0.0
169 ; 911994.261784632 ; 2.0131693432216468E8 ; 1.6547382646224785E8 ; 3.232703147529103E10 ; 0.0
170 ; 910213.9867955575 ; 2.0132185426352987E8 ; 1.663858207240325E8 ; 3.2528348409613197E10 ; 0.0
171 ; 909541.1320015104 ; 2.0132675815208673E8 ; 1.6729603471082804E8 ; 3.2729670263876728E10 ; 0.0
172 ; 908006.1783268732 ; 2.0133164584596133E8 ; 1.6820557584282956E8 ; 3.2930997022028816E10 ; 0.0
173 ; 908133.3001347508 ; 2.013365172046617E8 ; 1.6911358202115643E8 ; 3.313232866787478E10 ; 0.0
174 ; 906398.1679535101 ; 2.0134137208905149E8 ; 1.7002171532129118E8 ; 3.333366518507944E10 ; 0.0
175 ; 903297.1312070835 ; 2.0134621036132467E8 ; 1.709281134892447E8 ; 3.353500655716849E10 ; 0.0
176 ; 902643.7433925936 ; 2.0135103188498077E8 ; 1.7183141062045178E8 ; 3.3736352767529816E10 ; 0.0
177 ; 902125.5897267507 ; 2.0135583652480116E8 ; 1.7273405436384436E8 ; 3.3937703799414795E10 ; 0.0
178 ; 899428.9374114722 ; 2.0136062414682627E8 ; 1.736361799535711E8 ; 3.4139059635939594E10 ; 0.0
179 ; 899046.8854569731 ; 2.0136539461833325E8 ; 1.7453560889098257E8 ; 3.4340420260086422E10 ; 0.0
180 ; 897349.268366497 ; 2.0137014780781472E8 ; 1.7543465577643955E8 ; 3.454178565470476E10 ; 0.0
181 ; 896030.2021625022 ; 2.0137488358495802E8 ; 1.7633200504480603E8 ; 3.474315580251257E10 ; 0.0
182 ; 894136.8712869714 ; 2.013796018206252E8 ; 1.7722803524696854E8 ; 3.4944530686097534E10 ; 0.0
183 ; 894579.0628896758 ; 2.0138430238683382E8 ; 1.781221721182555E8 ; 3.514591028791816E10 ; 0.0
184 ; 892014.3054250121 ; 2.0138898515673825E8 ; 1.7901675118114516E8 ; 3.534729459030499E10 ; 0.0
185 ; 889404.4057698417 ; 2.013936500046116E8 ; 1.7990876548657018E8 ; 3.554868357546173E10 ; 0.0
186 ; 890011.4802101649 ; 2.0139829680582842E8 ; 1.8079816989234003E8 ; 3.575007722546634E10 ; 0.0
187 ; 888803.1385823993 ; 2.014029254368477E8 ; 1.816881813725502E8 ; 3.595147552227217E10 ; 0.0
188 ; 885270.8059172918 ; 2.014075357751966E8 ; 1.825769845111326E8 ; 3.6152878447709015E10 ; 0.0
189 ; 887478.9096937518 ; 2.014121276994549E8 ; 1.834622553170499E8 ; 3.6354285983484215E10 ; 0.0
190 ; 884570.9440215464 ; 2.014167010892396E8 ; 1.8434973422674364E8 ; 3.655569811118367E10 ; 0.0
191 ; 884198.3158441375 ; 2.0142125582519016E8 ; 1.852343051707652E8 ; 3.675711481227291E10 ; 0.0
192 ; 882280.1084546405 ; 2.014257917889545E8 ; 1.8611850348660934E8 ; 3.69585360680981E10 ; 0.0
193 ; 881528.6269831064 ; 2.0143030886317506E8 ; 1.8700078359506398E8 ; 3.7159961859887054E10 ; 0.0
194 ; 879761.6040222243 ; 2.014348069314755E8 ; 1.878823122220471E8 ; 3.736139216875023E10 ; 0.0
195 ; 879680.5548917864 ; 2.014392858784479E8 ; 1.8876207382606933E8 ; 3.75628269756817E10 ; 0.0
196 ; 878726.126127924 ; 2.0144374558964026E8 ; 1.8964175438096112E8 ; 3.776426626156015E10 ; 0.0
197 ; 876994.6825112917 ; 2.0144818595154455E8 ; 1.9052048050708905E8 ; 3.796571000714979E10 ; 0.0
198 ; 873882.821120027 ; 2.0145260685158494E8 ; 1.9139747518960035E8 ; 3.816715819310133E10 ; 0.0
199 ; 874291.2919963291 ; 2.014570081781066E8 ; 1.9227135801072037E8 ; 3.836861079995292E10 ; 0.0
200 ; 870874.853630646 ; 2.0146138982036483E8 ; 1.931456493027167E8 ; 3.857006780813103E10 ; 0.0
