CSV File for the City 6 on Day 210
1 - Minute m 
2 - Power Consumed at minute m 
3 - Power Produced at minute m 
4 - Energy Consumed since the beginning of the day 
5 - Energy Produced since the beginning of the day 
6 - Energy Lost since the beginning of the day on lines starting from the city
 
0 ; 731622.8686060001 ; 1.056121706268005E8 ; 0.0 ; 0.0 ; 0.0
1 ; 745879.4032112578 ; 1.0576174284272009E8 ; 731622.8686060001 ; 1.056121706268005E8 ; 0.0
2 ; 759089.301123001 ; 1.0622041265326849E8 ; 1477502.2718172579 ; 2.113739134695206E8 ; 0.0
3 ; 774679.8740066524 ; 1.0698819378874344E8 ; 2236591.572940259 ; 3.175943261227891E8 ; 0.0
4 ; 795515.9231358891 ; 1.0806509893207568E8 ; 3011271.446946911 ; 4.245825199115325E8 ; 0.0
5 ; 815122.3206554594 ; 1.0945113953285295E8 ; 3806787.3700828003 ; 5.326476188436082E8 ; 0.0
6 ; 843010.1163118607 ; 1.1114632562942788E8 ; 4621909.69073826 ; 6.420987583764611E8 ; 0.0
7 ; 880646.0336319513 ; 1.1315066568503517E8 ; 5464919.80705012 ; 7.53245084005889E8 ; 0.0
8 ; 933819.4490572253 ; 1.1546416644380718E8 ; 6345565.840682072 ; 8.663957496909242E8 ; 0.0
9 ; 1016939.3599869322 ; 1.1808683281218934E8 ; 7279385.289739297 ; 9.818599161347313E8 ; 0.0
10 ; 1142887.079406018 ; 1.2101866777050829E8 ; 8296324.649726229 ; 1.0999467489469206E9 ; 0.0
11 ; 1341297.0777945325 ; 1.242596723183622E8 ; 9439211.729132246 ; 1.220965416717429E9 ; 0.0
12 ; 1659292.7420914918 ; 1.2780984545615289E8 ; 1.078050880692678E7 ; 1.3452250890357912E9 ; 0.0
13 ; 1964299.8425525976 ; 1.3166918420355368E8 ; 1.2439801549018271E7 ; 1.473034934491944E9 ; 0.0
14 ; 2004109.0340623197 ; 1.3583768365411925E8 ; 1.440410139157087E7 ; 1.6047041186954978E9 ; 0.0
15 ; 2020580.4897075917 ; 1.4031533706371713E8 ; 1.640821042563319E7 ; 1.740541802349617E9 ; 0.0
16 ; 2034855.7134934182 ; 1.4510213596911272E8 ; 1.842879091534078E7 ; 1.8808571394133341E9 ; 0.0
17 ; 2051973.8105869214 ; 1.5019807033195332E8 ; 2.04636466288342E7 ; 2.0259592753824468E9 ; 0.0
18 ; 2069137.2219289164 ; 1.556031287026512E8 ; 2.251562043942112E7 ; 2.1761573457144003E9 ; 0.0
19 ; 2086043.1485955636 ; 1.6131729839827564E8 ; 2.4584757661350038E7 ; 2.3317604744170513E9 ; 0.0
20 ; 2102464.199188562 ; 1.6734056568852887E8 ; 2.6670800809945602E7 ; 2.493077772815327E9 ; 0.0
21 ; 2118539.01310604 ; 1.736729159841645E8 ; 2.8773265009134166E7 ; 2.660418338503856E9 ; 0.0
22 ; 2132495.8662260794 ; 1.8031433402274406E8 ; 3.0891804022240207E7 ; 2.834091254488021E9 ; 0.0
23 ; 2151208.0317039704 ; 1.8726480404735297E8 ; 3.3024299888466287E7 ; 3.014405588510765E9 ; 0.0
24 ; 2166630.640133992 ; 1.9452430997472888E8 ; 3.5175507920170255E7 ; 3.201670392558118E9 ; 0.0
25 ; 2184776.953533967 ; 2.0078087644831243E8 ; 3.734213856030425E7 ; 3.396194702532847E9 ; 0.0
26 ; 2200467.182695296 ; 2.0078803501492494E8 ; 3.952691551383822E7 ; 3.596975578981159E9 ; 0.0
27 ; 2216930.653734402 ; 2.0079553877332845E8 ; 4.1727382696533516E7 ; 3.797763613996084E9 ; 0.0
28 ; 2233336.5563766262 ; 2.0080337172817433E8 ; 4.394431335026792E7 ; 3.9985591527694125E9 ; 0.0
29 ; 2250113.9709577924 ; 2.0081151817415693E8 ; 4.6177649906644545E7 ; 4.1993625244975867E9 ; 0.0
30 ; 2266834.7320890334 ; 2.0081996277131534E8 ; 4.842776387760234E7 ; 4.400174042671743E9 ; 0.0
31 ; 2281147.482683397 ; 2.0082869060571817E8 ; 5.0694598609691374E7 ; 4.600994005443059E9 ; 0.0
32 ; 2297256.922241196 ; 2.008376872367452E8 ; 5.297574609237477E7 ; 4.801822696048778E9 ; 0.0
33 ; 2310999.767645446 ; 2.008469387323097E8 ; 5.527300301461597E7 ; 5.002660383285522E9 ; 0.0
34 ; 2326369.9573870213 ; 2.008564316934187E8 ; 5.758400278226142E7 ; 5.203507322017832E9 ; 0.0
35 ; 2338478.2729229415 ; 2.008661532694638E8 ; 5.991037273964844E7 ; 5.40436375371125E9 ; 0.0
36 ; 2354513.9487367496 ; 2.0087609116558248E8 ; 6.224885101257138E7 ; 5.605229906980714E9 ; 0.0
37 ; 2369029.064102995 ; 2.008862336433475E8 ; 6.460336496130813E7 ; 5.8061059981462965E9 ; 0.0
38 ; 2380559.8859595014 ; 2.0089656951593977E8 ; 6.697239402541112E7 ; 6.006992231789644E9 ; 0.0
39 ; 2393147.812620111 ; 2.0090708813884515E8 ; 6.935295391137062E7 ; 6.207888801305584E9 ; 0.0
40 ; 2408908.1962618404 ; 2.009177793969982E8 ; 7.174610172399074E7 ; 6.408795889444429E9 ; 0.0
41 ; 2420037.4346190696 ; 2.0092863368918005E8 ; 7.415500992025258E7 ; 6.609713668841428E9 ; 0.0
42 ; 2430692.6779471557 ; 2.009396419103654E8 ; 7.657504735487165E7 ; 6.810642302530608E9 ; 0.0
43 ; 2443356.516329353 ; 2.009507954326113E8 ; 7.90057400328188E7 ; 7.011581944440973E9 ; 0.0
44 ; 2452632.4704573243 ; 2.0096208608498502E8 ; 8.144909654914814E7 ; 7.212532739873585E9 ; 0.0
45 ; 2463748.836612471 ; 2.0097350613294488E8 ; 8.390172901960547E7 ; 7.41349482595857E9 ; 0.0
46 ; 2471406.0390066807 ; 2.009850482575114E8 ; 8.636547785621795E7 ; 7.614468332091515E9 ; 0.0
47 ; 2482529.7873630337 ; 2.009967055345031E8 ; 8.883688389522463E7 ; 7.815453380349026E9 ; 0.0
48 ; 2487536.19978275 ; 2.0100847141405308E8 ; 9.131941368258767E7 ; 8.016450085883529E9 ; 0.0
49 ; 2498238.276231735 ; 2.0102033970057604E8 ; 9.380694988237041E7 ; 8.217458557297582E9 ; 0.0
50 ; 2506837.113320684 ; 2.0103230453331366E8 ; 9.630518815860215E7 ; 8.4184788969981575E9 ; 0.0
51 ; 2509112.7018372007 ; 2.010443603675534E8 ; 9.881202527192283E7 ; 8.619511201531471E9 ; 0.0
52 ; 2519584.4479346704 ; 2.0105650195658684E8 ; 1.0132113797376002E8 ; 8.820555561899025E9 ; 0.0
53 ; 2525203.2754005985 ; 2.010687243344511E8 ; 1.038407224216947E8 ; 9.021612063855612E9 ; 0.0
54 ; 2532373.632660357 ; 2.010810227994782E8 ; 1.0636592569709529E8 ; 9.222680788190063E9 ; 0.0
55 ; 2540614.363337496 ; 2.0109339289866155E8 ; 1.0889829932975565E8 ; 9.423761810989542E9 ; 0.0
56 ; 2545873.3935756586 ; 2.011058304128378E8 ; 1.1143891369309315E8 ; 9.624855203888203E9 ; 0.0
57 ; 2553292.258669046 ; 2.0111833134267244E8 ; 1.139847870866688E8 ; 9.82596103430104E9 ; 0.0
58 ; 2558658.978867522 ; 2.0113089189542988E8 ; 1.1653807934533785E8 ; 1.0027079365643713E10 ; 0.0
59 ; 2567435.445703677 ; 2.011435084725052E8 ; 1.1909673832420537E8 ; 1.0228210257539143E10 ; 0.0
60 ; 2570902.6228175205 ; 2.0115617765768868E8 ; 1.2166417376990904E8 ; 1.0429353766011648E10 ; 0.0
61 ; 2577898.6035253755 ; 2.011688962061332E8 ; 1.2423507639272656E8 ; 1.0630509943669336E10 ; 0.0
62 ; 2587340.6511848643 ; 2.0118166103399274E8 ; 1.2681297499625193E8 ; 1.083167883987547E10 ; 0.0
63 ; 2591467.6671717013 ; 2.0119446920869848E8 ; 1.294003156474368E8 ; 1.1032860500909462E10 ; 0.0
64 ; 2597478.4299540436 ; 2.012073179398397E8 ; 1.319917833146085E8 ; 1.123405497011816E10 ; 0.0
65 ; 2602310.420955279 ; 2.0122020457061625E8 ; 1.3458926174456254E8 ; 1.1435262288058E10 ; 0.0
66 ; 2610067.5723229907 ; 2.012331265698307E8 ; 1.371915721655178E8 ; 1.1636482492628616E10 ; 0.0
67 ; 2613034.999951927 ; 2.01246081524388E8 ; 1.398016397378408E8 ; 1.1837715619198446E10 ; 0.0
68 ; 2618469.306594443 ; 2.012590671322727E8 ; 1.4241467473779273E8 ; 1.2038961700722834E10 ; 0.0
69 ; 2626223.7511253944 ; 2.0127208119597417E8 ; 1.4503314404438716E8 ; 1.2240220767855106E10 ; 0.0
70 ; 2631232.5579680987 ; 2.0128512161633226E8 ; 1.4765936779551256E8 ; 1.244149284905108E10 ; 0.0
71 ; 2636393.576332049 ; 2.0129818638677612E8 ; 1.5029060035348067E8 ; 1.2642777970667414E10 ; 0.0
72 ; 2641597.3759798263 ; 2.0131127358793184E8 ; 1.5292699392981273E8 ; 1.284407615705419E10 ; 0.0
73 ; 2647800.3539990215 ; 2.0132438138257438E8 ; 1.5556859130579257E8 ; 1.3045387430642122E10 ; 0.0
74 ; 2650845.9550044085 ; 2.0133750801090145E8 ; 1.582163916597916E8 ; 1.3246711812024696E10 ; 0.0
75 ; 2656071.855275679 ; 2.0135065178610864E8 ; 1.6086723761479598E8 ; 1.3448049320035599E10 ; 0.0
76 ; 2661378.728854845 ; 2.0136381109024507E8 ; 1.6352330947007167E8 ; 1.3649399971821707E10 ; 0.0
77 ; 2668936.51686165 ; 2.0137698437033197E8 ; 1.661846881989265E8 ; 1.3850763782911951E10 ; 0.0
78 ; 2668377.7724664817 ; 2.0139017013472578E8 ; 1.6885362471578816E8 ; 1.4052140767282284E10 ; 0.0
79 ; 2667939.533598435 ; 2.0140336694971013E8 ; 1.7152200248825464E8 ; 1.425353093741701E10 ; 0.0
80 ; 2670486.8884598585 ; 2.014165734363013E8 ; 1.7418994202185306E8 ; 1.445493430436672E10 ; 0.0
81 ; 2671012.742875479 ; 2.0142978826725245E8 ; 1.7686042891031292E8 ; 1.4656350877803022E10 ; 0.0
82 ; 2671212.4971742085 ; 2.014430101642443E8 ; 1.795314416531884E8 ; 1.4857780666070274E10 ; 0.0
83 ; 2674247.3485471606 ; 2.014562378952488E8 ; 1.822026541503626E8 ; 1.5059223676234518E10 ; 0.0
84 ; 2673372.643461396 ; 2.014694702720552E8 ; 1.8487690149890977E8 ; 1.5260679914129766E10 ; 0.0
85 ; 2676436.1652553114 ; 2.0148270614794707E8 ; 1.8755027414237118E8 ; 1.5462149384401821E10 ; 0.0
86 ; 2676940.690469297 ; 2.0149594441552058E8 ; 1.902267103076265E8 ; 1.5663632090549768E10 ; 0.0
87 ; 2674183.8071709196 ; 2.015091840046348E8 ; 1.9290365099809578E8 ; 1.5865128034965288E10 ; 0.0
88 ; 2675801.030012377 ; 2.01522423880485E8 ; 1.955778348052667E8 ; 1.6066637218969923E10 ; 0.0
89 ; 2676798.250760362 ; 2.0153566304179135E8 ; 1.9825363583527908E8 ; 1.6268159642850409E10 ; 0.0
90 ; 2677395.131897719 ; 2.0154890051909497E8 ; 2.0093043408603945E8 ; 1.64696953058922E10 ; 0.0
91 ; 2676269.681082152 ; 2.0156213537315464E8 ; 2.0360782921793717E8 ; 1.6671244206411295E10 ; 0.0
92 ; 2676816.8595556915 ; 2.0157536669343773E8 ; 2.0628409889901933E8 ; 1.687280634178445E10 ; 0.0
93 ; 2677581.184079386 ; 2.0158859359669897E8 ; 2.0896091575857502E8 ; 1.7074381708477888E10 ; 0.0
94 ; 2678553.5203341255 ; 2.0160181522564164E8 ; 2.116384969426544E8 ; 1.727597030207459E10 ; 0.0
95 ; 2677067.7957858304 ; 2.0161503074765596E8 ; 2.1431705046298853E8 ; 1.7477572117300232E10 ; 0.0
96 ; 2675878.7959853597 ; 2.0162823935362935E8 ; 2.1699411825877437E8 ; 1.767918714804789E10 ; 0.0
97 ; 2676433.8906881106 ; 2.0164144025682485E8 ; 2.1966999705475974E8 ; 1.788081538740152E10 ; 0.0
98 ; 2677937.705422226 ; 2.0165463269182226E8 ; 2.2234643094544786E8 ; 1.8082456827658344E10 ; 0.0
99 ; 2676547.142904683 ; 2.0166781591351926E8 ; 2.2502436865087008E8 ; 1.8284111460350166E10 ; 0.0
100 ; 2675502.6773331137 ; 2.0168098919618788E8 ; 2.2770091579377475E8 ; 1.8485779276263687E10 ; 0.0
101 ; 2672814.562363477 ; 2.0169415183258325E8 ; 2.3037641847110787E8 ; 1.8687460265459873E10 ; 0.0
102 ; 2674950.802850835 ; 2.017073031331016E8 ; 2.3304923303347135E8 ; 1.8889154417292458E10 ; 0.0
103 ; 2675349.521452054 ; 2.017204424249841E8 ; 2.357241838363222E8 ; 1.909086172042556E10 ; 0.0
104 ; 2672845.2820500964 ; 2.0173356905156392E8 ; 2.3839953335777423E8 ; 1.9292582162850544E10 ; 0.0
105 ; 2672578.3775678896 ; 2.0174668237155408E8 ; 2.4107237863982433E8 ; 1.9494315731902107E10 ; 0.0
106 ; 2672794.8790412117 ; 2.0175978175837323E8 ; 2.4374495701739222E8 ; 1.9696062414273663E10 ; 0.0
107 ; 2668005.9864168703 ; 2.0177286659950757E8 ; 2.4641775189643344E8 ; 1.9897822196032036E10 ; 0.0
108 ; 2666857.735442464 ; 2.0178593629590642E8 ; 2.4908575788285032E8 ; 2.0099595062631542E10 ; 0.0
109 ; 2664790.637026174 ; 2.0179899026140943E8 ; 2.5175261561829278E8 ; 2.030138099892745E10 ; 0.0
110 ; 2665662.40336415 ; 2.018120279222039E8 ; 2.5441740625531894E8 ; 2.0503179989188858E10 ; 0.0
111 ; 2663191.216293897 ; 2.018250487163102E8 ; 2.570830686586831E8 ; 2.070499201711106E10 ; 0.0
112 ; 2663114.4801347484 ; 2.018380520930935E8 ; 2.59746259874977E8 ; 2.090681706582737E10 ; 0.0
113 ; 2660106.8128490383 ; 2.018510375128009E8 ; 2.6240937435511175E8 ; 2.1108655117920464E10 ; 0.0
114 ; 2659781.279460071 ; 2.0186400444612172E8 ; 2.650694811679608E8 ; 2.1310506155433266E10 ; 0.0
115 ; 2657549.1760932687 ; 2.0187695237377024E8 ; 2.6772926244742087E8 ; 2.1512370159879387E10 ; 0.0
116 ; 2656537.0549453287 ; 2.0188988078608933E8 ; 2.703868116235141E8 ; 2.171424711225316E10 ; 0.0
117 ; 2651924.0935998713 ; 2.019027891826739E8 ; 2.7304334867845947E8 ; 2.191613699303925E10 ; 0.0
118 ; 2648200.780090017 ; 2.0191567707201305E8 ; 2.756952727720593E8 ; 2.2118039782221924E10 ; 0.0
119 ; 2647463.6522590523 ; 2.0192854397114965E8 ; 2.7834347355214936E8 ; 2.2319955459293938E10 ; 0.0
120 ; 2646782.3019553274 ; 2.0194138940535703E8 ; 2.809909372044084E8 ; 2.2521884003265087E10 ; 0.0
121 ; 2645425.458179643 ; 2.0195421290783095E8 ; 2.8363771950636375E8 ; 2.2723825392670444E10 ; 0.0
122 ; 2639488.8252080507 ; 2.0196701401939666E8 ; 2.862831449645434E8 ; 2.2925779605578274E10 ; 0.0
123 ; 2640696.2015174525 ; 2.019797922882303E8 ; 2.8892263378975147E8 ; 2.312774661959767E10 ; 0.0
124 ; 2636866.076781526 ; 2.019925472695931E8 ; 2.9156332999126893E8 ; 2.3329726411885902E10 ; 0.0
125 ; 2634883.095150221 ; 2.020052785255787E8 ; 2.9420019606805044E8 ; 2.3531718959155495E10 ; 0.0
126 ; 2631946.140546581 ; 2.0201798562487212E8 ; 2.968350791632007E8 ; 2.3733724237681072E10 ; 0.0
127 ; 2629970.3070225064 ; 2.0203066814252022E8 ; 2.9946702530374724E8 ; 2.3935742223305943E10 ; 0.0
128 ; 2625174.3540318734 ; 2.020433256597127E8 ; 3.0209699561076975E8 ; 2.4137772891448463E10 ; 0.0
129 ; 2621812.1265177103 ; 2.020559577635734E8 ; 3.047221699648016E8 ; 2.4339816217108177E10 ; 0.0
130 ; 2617721.9136165055 ; 2.020685640469613E8 ; 3.073439820913193E8 ; 2.454187217487175E10 ; 0.0
131 ; 2609705.8993398664 ; 2.0208114410828045E8 ; 3.099617040049358E8 ; 2.4743940738918713E10 ; 0.0
132 ; 2607691.9941852354 ; 2.020936975512987E8 ; 3.1257140990427566E8 ; 2.4946021883026993E10 ; 0.0
133 ; 2598918.32330581 ; 2.0210622398497474E8 ; 3.1517910189846087E8 ; 2.5148115580578293E10 ; 0.0
134 ; 2590510.888740485 ; 2.0211872302329272E8 ; 3.1777802022176665E8 ; 2.5350221804563267E10 ; 0.0
135 ; 2581270.7919881647 ; 2.021311942851045E8 ; 3.2036853111050713E8 ; 2.555234052758656E10 ; 0.0
136 ; 2578212.697044222 ; 2.0214363739397898E8 ; 3.229498019024953E8 ; 2.5754471721871662E10 ; 0.0
137 ; 2568636.2231191453 ; 2.0215605197805786E8 ; 3.255280145995395E8 ; 2.595661535926564E10 ; 0.0
138 ; 2561973.173571074 ; 2.0216843766991806E8 ; 3.2809665082265866E8 ; 2.61587714112437E10 ; 0.0
139 ; 2554672.959900731 ; 2.0218079410643995E8 ; 3.306586239962297E8 ; 2.6360939848913616E10 ; 0.0
140 ; 2547214.7340028957 ; 2.0219312092868167E8 ; 3.3321329695613045E8 ; 2.6563120643020058E10 ; 0.0
141 ; 2539327.4226617315 ; 2.0220541778175855E8 ; 3.3576051169013333E8 ; 2.676531376394874E10 ; 0.0
142 ; 2533153.6326306453 ; 2.0221768431472796E8 ; 3.3829983911279505E8 ; 2.6967519181730495E10 ; 0.0
143 ; 2524527.2028311645 ; 2.022299201804792E8 ; 3.408329927454257E8 ; 2.7169736866045223E10 ; 0.0
144 ; 2515818.8508728375 ; 2.022421250356278E8 ; 3.4335751994825685E8 ; 2.7371966786225704E10 ; 0.0
145 ; 2515639.0731594204 ; 2.0225429854041484E8 ; 3.4587333879912966E8 ; 2.7574208911261333E10 ; 0.0
146 ; 2513088.187553813 ; 2.0226644035860988E8 ; 3.4838897787228906E8 ; 2.777646320980175E10 ; 0.0
147 ; 2507423.2574991244 ; 2.0227855015741876E8 ; 3.509020660598429E8 ; 2.797872965016036E10 ; 0.0
148 ; 2502296.797285269 ; 2.0229062760739458E8 ; 3.53409489317342E8 ; 2.8181008200317776E10 ; 0.0
149 ; 2501919.4336341377 ; 2.023026723823529E8 ; 3.5591178611462724E8 ; 2.838329882792517E10 ; 0.0
150 ; 2498150.743421995 ; 2.0231468415929028E8 ; 3.584137055482614E8 ; 2.8585601500307526E10 ; 0.0
151 ; 2497522.3308460545 ; 2.0232666261830622E8 ; 3.609118562916834E8 ; 2.8787916184466816E10 ; 0.0
152 ; 2492276.0850816574 ; 2.023386074425284E8 ; 3.6340937862252945E8 ; 2.899024284708512E10 ; 0.0
153 ; 2491072.438543264 ; 2.0235051831804085E8 ; 3.659016547076111E8 ; 2.919258145452765E10 ; 0.0
154 ; 2484625.4649286694 ; 2.0236239493381533E8 ; 3.6839272714615434E8 ; 2.9394931972845688E10 ; 0.0
155 ; 2481105.2854880453 ; 2.0237423698164526E8 ; 3.7087735261108303E8 ; 2.9597294367779503E10 ; 0.0
156 ; 2479759.0177144757 ; 2.0238604415608248E8 ; 3.733584578965711E8 ; 2.9799668604761147E10 ; 0.0
157 ; 2477297.68614641 ; 2.0239781615437657E8 ; 3.758382169142856E8 ; 3.000205464891723E10 ; 0.0
158 ; 2474219.9773961874 ; 2.0240955267641664E8 ; 3.7831551460043204E8 ; 3.0204452465071606E10 ; 0.0
159 ; 2471449.9461359945 ; 2.0242125342467532E8 ; 3.807897345778282E8 ; 3.0406862017748024E10 ; 0.0
160 ; 2465628.484353856 ; 2.024329181041553E8 ; 3.832611845239642E8 ; 3.06092832711727E10 ; 0.0
161 ; 2463113.0737217385 ; 2.0244454642233762E8 ; 3.8572681300831807E8 ; 3.0811716189276855E10 ; 0.0
162 ; 2460483.7109918473 ; 2.0245613808913246E8 ; 3.8818992608203983E8 ; 3.1014160735699192E10 ; 0.0
163 ; 2456433.8617982436 ; 2.0246769281683153E8 ; 3.906504097930317E8 ; 3.1216616873788326E10 ; 0.0
164 ; 2452197.1501804474 ; 2.0247921032006243E8 ; 3.931068436548299E8 ; 3.1419084566605156E10 ; 0.0
165 ; 2449602.9404013096 ; 2.0249069031574512E8 ; 3.955590408050104E8 ; 3.1621563776925217E10 ; 0.0
166 ; 2446829.7385481154 ; 2.0250213252304953E8 ; 3.980086437454117E8 ; 3.1824054467240963E10 ; 0.0
167 ; 2443538.7249032073 ; 2.0251353666335556E8 ; 4.004554734839598E8 ; 3.202655659976401E10 ; 0.0
168 ; 2439447.0488827303 ; 2.0252490246021384E8 ; 4.02899012208863E8 ; 3.222907013642737E10 ; 0.0
169 ; 2439119.2041514907 ; 2.0253622963930884E8 ; 4.0533845925774574E8 ; 3.243159503888758E10 ; 0.0
170 ; 2430735.5876675704 ; 2.0254751792842272E8 ; 4.0777757846189725E8 ; 3.263413126852689E10 ; 0.0
171 ; 2429662.2177790026 ; 2.0255876705740118E8 ; 4.1020831404956484E8 ; 3.283667878645531E10 ; 0.0
172 ; 2427787.347580153 ; 2.0256997675812006E8 ; 4.126379762673438E8 ; 3.303923755351271E10 ; 0.0
173 ; 2423634.7486169958 ; 2.0258114676445383E8 ; 4.1506576361492395E8 ; 3.3241807530270832E10 ; 0.0
174 ; 2421945.5970616243 ; 2.0259227681224486E8 ; 4.1748939836354095E8 ; 3.3444388677035286E10 ; 0.0
175 ; 2420360.801366453 ; 2.0260336663927397E8 ; 4.199113439606026E8 ; 3.364698095384753E10 ; 0.0
176 ; 2417377.7801044974 ; 2.0261441598523235E8 ; 4.2233170476196903E8 ; 3.3849584320486805E10 ; 0.0
177 ; 2412552.665771379 ; 2.026254245916942E8 ; 4.2474908254207355E8 ; 3.405219873647204E10 ; 0.0
178 ; 2414075.306490609 ; 2.0263639220209083E8 ; 4.271616352078449E8 ; 3.4254824161063732E10 ; 0.0
179 ; 2411944.669763612 ; 2.026473185616853E8 ; 4.295757105143355E8 ; 3.445746055326582E10 ; 0.0
180 ; 2406888.398867987 ; 2.0265820341754845E8 ; 4.3198765518409914E8 ; 3.466010787182751E10 ; 0.0
181 ; 2407854.297290406 ; 2.0266904651853558E8 ; 4.343945435829671E8 ; 3.4862766075245056E10 ; 0.0
182 ; 2404892.572873772 ; 2.026798476152642E8 ; 4.368023978802575E8 ; 3.506543512176359E10 ; 0.0
183 ; 2400698.371190498 ; 2.0269060646009248E8 ; 4.3920729045313126E8 ; 3.526811496937885E10 ; 0.0
184 ; 2399478.0140858013 ; 2.0270132280709863E8 ; 4.4160798882432175E8 ; 3.547080557583894E10 ; 0.0
185 ; 2395991.294185005 ; 2.0271199641206104E8 ; 4.440074668384076E8 ; 3.567350689864604E10 ; 0.0
186 ; 2395870.1739272517 ; 2.0272262703243914E8 ; 4.4640345813259256E8 ; 3.5876218895058105E10 ; 0.0
187 ; 2394245.793407529 ; 2.0273321442735508E8 ; 4.487993283065198E8 ; 3.6078941522090546E10 ; 0.0
188 ; 2386969.3712776564 ; 2.0274375835757604E8 ; 4.511935740999273E8 ; 3.62816747365179E10 ; 0.0
189 ; 2389401.432422117 ; 2.0275425858549726E8 ; 4.5358054347120494E8 ; 3.648441849487547E10 ; 0.0
190 ; 2385115.7444212562 ; 2.0276471487512565E8 ; 4.5596994490362704E8 ; 3.668717275346097E10 ; 0.0
191 ; 2384401.086928299 ; 2.0277512699206406E8 ; 4.583550606480483E8 ; 3.688993746833609E10 ; 0.0
192 ; 2381142.7265300886 ; 2.0278549470349634E8 ; 4.607394617349766E8 ; 3.7092712595328156E10 ; 0.0
193 ; 2383811.112263203 ; 2.0279581777817255E8 ; 4.6312060446150666E8 ; 3.7295498090031654E10 ; 0.0
194 ; 2378316.3284122855 ; 2.0280609598639524E8 ; 4.6550441557376987E8 ; 3.749829390780983E10 ; 0.0
195 ; 2376710.7842509085 ; 2.0281632910000578E8 ; 4.6788273190218216E8 ; 3.770110000379623E10 ; 0.0
196 ; 2372447.3784258985 ; 2.028265168923716E8 ; 4.702594426864331E8 ; 3.790391633289623E10 ; 0.0
197 ; 2371058.725641114 ; 2.028366591383738E8 ; 4.72631890064859E8 ; 3.8106742849788605E10 ; 0.0
198 ; 2370551.269806675 ; 2.02846755614395E8 ; 4.750029487905001E8 ; 3.830957950892698E10 ; 0.0
199 ; 2368146.6025213753 ; 2.0285680609830812E8 ; 4.773735000603068E8 ; 3.8512426264541374E10 ; 0.0
