CSV File for the City 6 on Day 185
1 - Minute m 
2 - Power Consumed at minute m 
3 - Power Produced at minute m 
4 - Energy Consumed since the beginning of the day 
5 - Energy Produced since the beginning of the day 
6 - Energy Lost since the beginning of the day on lines starting from the city
 
0 ; 2074195.4500988403 ; 1.0593014058187017E8 ; 0.0 ; 0.0 ; 0.0
1 ; 2084854.9205017667 ; 1.0608087680683637E8 ; 2074195.4500988403 ; 1.0593014058187017E8 ; 0.0
2 ; 2097387.9126132163 ; 1.0654061731768808E8 ; 4159050.3706006072 ; 2.1201101738870654E8 ; 0.0
3 ; 2108787.86821154 ; 1.0730936697519577E8 ; 6256438.283213824 ; 3.185516347063946E8 ; 0.0
4 ; 2127949.0977417375 ; 1.0838713015457624E8 ; 8365226.1514253635 ; 4.258610016815904E8 ; 0.0
5 ; 2145070.3769260854 ; 1.0977391071488619E8 ; 1.0493175249167101E7 ; 5.342481318361666E8 ; 0.0
6 ; 2171430.885732328 ; 1.1146971197136095E8 ; 1.2638245626093186E7 ; 6.440220425510528E8 ; 0.0
7 ; 2210431.9105675896 ; 1.134745366711508E8 ; 1.4809676511825515E7 ; 7.554917545224137E8 ; 0.0
8 ; 2262965.153465776 ; 1.1578838697286183E8 ; 1.7020108422393106E7 ; 8.689662911935645E8 ; 0.0
9 ; 2341277.671575555 ; 1.1841126443025535E8 ; 1.9283073575858884E7 ; 9.847546781664264E8 ; 0.0
10 ; 2468962.3861155133 ; 1.2134316998039144E8 ; 2.1624351247434437E7 ; 1.1031659425966818E9 ; 0.0
11 ; 2664907.1113839955 ; 1.2458410393642822E8 ; 2.409331363354995E7 ; 1.2245091125770733E9 ; 0.0
12 ; 2981189.473771581 ; 1.2813406598520753E8 ; 2.6758220744933948E7 ; 1.3490932165135016E9 ; 0.0
13 ; 3284965.160046401 ; 1.3199305518966931E8 ; 2.9739410218705527E7 ; 1.4772272824987092E9 ; 0.0
14 ; 3320740.6966866306 ; 1.3616106999605232E8 ; 3.302437537875193E7 ; 1.6092203376883786E9 ; 0.0
15 ; 3338627.5187534667 ; 1.4063810824575037E8 ; 3.634511607543856E7 ; 1.7453814076844308E9 ; 0.0
16 ; 3351300.5219512293 ; 1.454241671916133E8 ; 3.968374359419203E7 ; 1.8860195159301813E9 ; 0.0
17 ; 3367489.5718789697 ; 1.5051924351840565E8 ; 4.303504411614326E7 ; 2.0314436831217945E9 ; 0.0
18 ; 3379019.885096346 ; 1.559233333670708E8 ; 4.6402533688022226E7 ; 2.1819629266402E9 ; 0.0
19 ; 3394842.461521369 ; 1.6163643236239192E8 ; 4.9781553573118575E7 ; 2.337886260007271E9 ; 0.0
20 ; 3409267.15853665 ; 1.6765853564359853E8 ; 5.317639603463995E7 ; 2.499522692369663E9 ; 0.0
21 ; 3425447.49460255 ; 1.7398963789743754E8 ; 5.65856631931766E7 ; 2.6671812280132613E9 ; 0.0
22 ; 3440274.811782774 ; 1.8062973339320827E8 ; 6.001111068777914E7 ; 2.841170865910699E9 ; 0.0
23 ; 3454093.4144438514 ; 1.8757881601925755E8 ; 6.345138549956192E7 ; 3.0218005993039074E9 ; 0.0
24 ; 3467483.352085487 ; 1.9483687932043767E8 ; 6.690547891400577E7 ; 3.209379415323165E9 ; 0.0
25 ; 3484255.363131774 ; 2.0109195743423137E8 ; 7.037296226609126E7 ; 3.4042162946436024E9 ; 0.0
26 ; 3503002.2097412213 ; 2.010975911656187E8 ; 7.385721762922303E7 ; 3.6053082520778337E9 ; 0.0
27 ; 3512370.4898929805 ; 2.0110354254956433E8 ; 7.736021983896425E7 ; 3.8064058432434525E9 ; 0.0
28 ; 3530666.5073198336 ; 2.0110980413460857E8 ; 8.087259032885723E7 ; 4.007509385793017E9 ; 0.0
29 ; 3543898.474455915 ; 2.011163683118328E8 ; 8.440325683617707E7 ; 4.2086191899276257E9 ; 0.0
30 ; 3555879.802394001 ; 2.0112322734919575E8 ; 8.794715531063297E7 ; 4.409735558239458E9 ; 0.0
31 ; 3567309.0749333585 ; 2.011303734242474E8 ; 9.150303511302698E7 ; 4.610858785588654E9 ; 0.0
32 ; 3581315.288395908 ; 2.0113779865503037E8 ; 9.507034418796034E7 ; 4.811989159012901E9 ; 0.0
33 ; 3596999.6776956585 ; 2.0114549512902328E8 ; 9.865165947635625E7 ; 5.013126957667932E9 ; 0.0
34 ; 3609835.342705852 ; 2.011534549300254E8 ; 1.0224865915405191E8 ; 5.214272452796955E9 ; 0.0
35 ; 3623672.147810141 ; 2.0116167016291985E8 ; 1.0585849449675776E8 ; 5.41542590772698E9 ; 0.0
36 ; 3637602.575949183 ; 2.0117013297629017E8 ; 1.094821666445679E8 ; 5.6165875778899E9 ; 0.0
37 ; 3645503.639995427 ; 2.0117883558289522E8 ; 1.1311976922051708E8 ; 5.81775771086619E9 ; 0.0
38 ; 3657988.841250459 ; 2.0118777027803677E8 ; 1.1676527286051251E8 ; 6.018936546449085E9 ; 0.0
39 ; 3670172.506100841 ; 2.0119692945587513E8 ; 1.2042326170176297E8 ; 6.220124316727122E9 ; 0.0
40 ; 3679495.7548162853 ; 2.0120630562376907E8 ; 1.2409343420786381E8 ; 6.421321246182998E9 ; 0.0
41 ; 3693411.775075913 ; 2.012158914147298E8 ; 1.2777292996268009E8 ; 6.6225275518067665E9 ; 0.0
42 ; 3696517.7521814443 ; 2.012256795980914E8 ; 1.31466341737756E8 ; 6.823743443221497E9 ; 0.0
43 ; 3710276.6147857103 ; 2.012356630885068E8 ; 1.3516285948993745E8 ; 7.024969122819588E9 ; 0.0
44 ; 3717015.20855993 ; 2.0124583495338553E8 ; 1.3887313610472316E8 ; 7.226204785908094E9 ; 0.0
45 ; 3725663.6189301373 ; 2.0125618841888973E8 ; 1.425901513132831E8 ; 7.42745062086148E9 ; 0.0
46 ; 3735206.6856946005 ; 2.012667168746073E8 ; 1.4631581493221322E8 ; 7.62870680928037E9 ; 0.0
47 ; 3743018.075716398 ; 2.012774138770187E8 ; 1.5005102161790782E8 ; 7.829973526154977E9 ; 0.0
48 ; 3748887.490168303 ; 2.0128827315187111E8 ; 1.5379403969362423E8 ; 8.031250940031996E9 ; 0.0
49 ; 3753593.6398048224 ; 2.0129928859557012E8 ; 1.5754292718379253E8 ; 8.2325392131838665E9 ; 0.0
50 ; 3761968.8424866456 ; 2.013104542756934E8 ; 1.6129652082359734E8 ; 8.433838501779437E9 ; 0.0
51 ; 3765992.4625199013 ; 2.0132176443072608E8 ; 1.65058489666084E8 ; 8.63514895605513E9 ; 0.0
52 ; 3771185.159477968 ; 2.013332134691107E8 ; 1.688244821286039E8 ; 8.836470720485857E9 ; 0.0
53 ; 3773526.2014866923 ; 2.0134479596769872E8 ; 1.7259566728808188E8 ; 9.037803933954967E9 ; 0.0
54 ; 3777391.6882200753 ; 2.013565066696844E8 ; 1.763691934895686E8 ; 9.239148729922667E9 ; 0.0
55 ; 3782702.629073584 ; 2.0136834048209473E8 ; 1.8014658517778867E8 ; 9.44050523659235E9 ; 0.0
56 ; 3790617.754276583 ; 2.0138029247290322E8 ; 1.8392928780686226E8 ; 9.641873577074444E9 ; 0.0
57 ; 3794965.5807622056 ; 2.013923578678297E8 ; 1.8771990556113884E8 ; 9.843253869547346E9 ; 0.0
58 ; 3797424.215888418 ; 2.0140453204688138E8 ; 1.9151487114190105E8 ; 1.0044646227415176E10 ; 0.0
59 ; 3806858.8560220813 ; 2.0141681054068556E8 ; 1.9531229535778946E8 ; 1.0246050759462057E10 ; 0.0
60 ; 3807393.632097121 ; 2.014291890266592E8 ; 1.9911915421381155E8 ; 1.0447467570002743E10 ; 0.0
61 ; 3806696.1712315227 ; 2.014416633250551E8 ; 2.0292654784590867E8 ; 1.0648896759029402E10 ; 0.0
62 ; 3817046.9662931194 ; 2.014542293949205E8 ; 2.0673324401714018E8 ; 1.0850338422354456E10 ; 0.0
63 ; 3822890.9412901984 ; 2.0146688332999912E8 ; 2.105502909834333E8 ; 1.1051792651749376E10 ; 0.0
64 ; 3822832.1767703714 ; 2.0147962135460427E8 ; 2.143731819247235E8 ; 1.1253259535079376E10 ; 0.0
65 ; 3828536.741990513 ; 2.014924398194868E8 ; 2.1819601410149387E8 ; 1.145473915643398E10 ; 0.0
66 ; 3830150.161171065 ; 2.015053351977185E8 ; 2.2202455084348437E8 ; 1.1656231596253468E10 ; 0.0
67 ; 3837136.2770063933 ; 2.01518304080609E8 ; 2.2585470100465545E8 ; 1.1857736931451185E10 ; 0.0
68 ; 3836231.7103381306 ; 2.015313431736707E8 ; 2.2969183728166184E8 ; 1.2059255235531794E10 ; 0.0
69 ; 3844404.0303647825 ; 2.015444492926454E8 ; 2.3352806899199998E8 ; 1.2260786578705463E10 ; 0.0
70 ; 3844916.794078928 ; 2.0155761935960203E8 ; 2.3737247302236477E8 ; 1.2462331027998108E10 ; 0.0
71 ; 3845490.8190647974 ; 2.015708503991156E8 ; 2.4121738981644368E8 ; 1.266388864735771E10 ; 0.0
72 ; 3851077.674452436 ; 2.0158413953453344E8 ; 2.4506288063550848E8 ; 1.2865459497756826E10 ; 0.0
73 ; 3857486.1983360965 ; 2.0159748398433495E8 ; 2.489139583099609E8 ; 1.3067043637291359E10 ; 0.0
74 ; 3858657.833007591 ; 2.016108810585888E8 ; 2.52771444508297E8 ; 1.3268641121275694E10 ; 0.0
75 ; 3861553.0703189196 ; 2.0162432815551108E8 ; 2.566301023413046E8 ; 1.3470252002334282E10 ; 0.0
76 ; 3862235.432148454 ; 2.016378227581265E8 ; 2.604916554116235E8 ; 1.3671876330489794E10 ; 0.0
77 ; 3864438.0800579167 ; 2.0165136243103385E8 ; 2.6435389084377196E8 ; 1.3873514153247921E10 ; 0.0
78 ; 3866110.3867928465 ; 2.016649448172765E8 ; 2.6821832892382988E8 ; 1.4075165515678955E10 ; 0.0
79 ; 3865075.355798163 ; 2.0167856763531798E8 ; 2.7208443931062275E8 ; 1.4276830460496231E10 ; 0.0
80 ; 3863163.912537727 ; 2.016922286761216E8 ; 2.7594951466642094E8 ; 1.447850902813155E10 ; 0.0
81 ; 3866027.9023714704 ; 2.0170592580033365E8 ; 2.798126785789587E8 ; 1.468020125680767E10 ; 0.0
82 ; 3859441.1500803134 ; 2.017196569355684E8 ; 2.8367870648133016E8 ; 1.4881907182608004E10 ; 0.0
83 ; 3857294.769951991 ; 2.0173342007379326E8 ; 2.875381476314105E8 ; 1.5083626839543571E10 ; 0.0
84 ; 3859260.862911467 ; 2.0174721326881197E8 ; 2.913954424013625E8 ; 1.5285360259617365E10 ; 0.0
85 ; 3860127.4694717512 ; 2.0176103463384378E8 ; 2.9525470326427394E8 ; 1.5487107472886177E10 ; 0.0
86 ; 3856513.3187266765 ; 2.0177488233919612E8 ; 2.991148307337457E8 ; 1.5688868507520021E10 ; 0.0
87 ; 3853088.933280487 ; 2.0178875461002824E8 ; 3.0297134405247235E8 ; 1.5890643389859217E10 ; 0.0
88 ; 3852442.923678105 ; 2.0180264972420305E8 ; 3.068244329857528E8 ; 1.6092432144469244E10 ; 0.0
89 ; 3850234.257692846 ; 2.0181656601022497E8 ; 3.106768759094309E8 ; 1.6294234794193447E10 ; 0.0
90 ; 3849888.4428905053 ; 2.0183050184526032E8 ; 3.145271101671238E8 ; 1.6496051360203672E10 ; 0.0
91 ; 3845213.10341798 ; 2.0184445565323812E8 ; 3.183769986100143E8 ; 1.6697881862048933E10 ; 0.0
92 ; 3841319.1005839803 ; 2.0185842590302828E8 ; 3.222222117134323E8 ; 1.6899726317702171E10 ; 0.0
93 ; 3840199.4831427764 ; 2.0187241110669434E8 ; 3.260635308140163E8 ; 1.71015847436052E10 ; 0.0
94 ; 3836480.374894129 ; 2.0188640981781843E8 ; 3.299037302971591E8 ; 1.7303457154711895E10 ; 0.0
95 ; 3838247.2605150137 ; 2.0190042062989524E8 ; 3.337402106720532E8 ; 1.7505343564529713E10 ; 0.0
96 ; 3835484.472768565 ; 2.0191444217479283E8 ; 3.3757845793256825E8 ; 1.7707243985159607E10 ; 0.0
97 ; 3835047.976732887 ; 2.0192847312127742E8 ; 3.414139424053368E8 ; 1.79091584273344E10 ; 0.0
98 ; 3828860.5565956947 ; 2.0194251217359984E8 ; 3.452489903820697E8 ; 1.8111086900455677E10 ; 0.0
99 ; 3825426.5050232057 ; 2.0195655807014096E8 ; 3.490778509386654E8 ; 1.8313029412629276E10 ; 0.0
100 ; 3823431.1428364445 ; 2.0197060958211395E8 ; 3.529032774436886E8 ; 1.8514985970699417E10 ; 0.0
101 ; 3818729.6293101697 ; 2.0198466551232085E8 ; 3.56726708586525E8 ; 1.8716956580281532E10 ; 0.0
102 ; 3821564.3943986865 ; 2.0199872469396147E8 ; 3.605454382158352E8 ; 1.8918941245793854E10 ; 0.0
103 ; 3817395.4932685285 ; 2.02012785989492E8 ; 3.643670026102339E8 ; 1.9120939970487816E10 ; 0.0
104 ; 3813818.5144452765 ; 2.020268482895319E8 ; 3.6818439810350245E8 ; 1.9322952756477306E10 ; 0.0
105 ; 3810488.252406735 ; 2.0204091051181626E8 ; 3.7199821661794776E8 ; 1.9524979604766838E10 ; 0.0
106 ; 3805944.2258399827 ; 2.020549716001924E8 ; 3.758087048703545E8 ; 1.9727020515278656E10 ; 0.0
107 ; 3806297.3808613583 ; 2.0206903052365845E8 ; 3.7961464909619445E8 ; 1.992907548687885E10 ; 0.0
108 ; 3798132.5350169223 ; 2.0208308627544203E8 ; 3.834209464770558E8 ; 2.0131144517402508E10 ; 0.0
109 ; 3796537.370018034 ; 2.020971378721177E8 ; 3.872190790120727E8 ; 2.0333227603677948E10 ; 0.0
110 ; 3790097.1243533376 ; 2.0211118435276106E8 ; 3.910156163820907E8 ; 2.0535324741550064E10 ; 0.0
111 ; 3787922.8741841754 ; 2.0212522477813825E8 ; 3.9480571350644404E8 ; 2.0737435925902824E10 ; 0.0
112 ; 3780934.858693407 ; 2.0213925822992912E8 ; 3.985936363806282E8 ; 2.093956115068096E10 ; 0.0
113 ; 3781747.2826858424 ; 2.0215328380998266E8 ; 4.0237457123932165E8 ; 2.1141700408910892E10 ; 0.0
114 ; 3776858.935906934 ; 2.0216730063960332E8 ; 4.0615631852200747E8 ; 2.1343853692720875E10 ; 0.0
115 ; 3773465.7599140927 ; 2.0218130785886684E8 ; 4.099331774579144E8 ; 2.1546020993360477E10 ; 0.0
116 ; 3770566.108910802 ; 2.0219530462596434E8 ; 4.137066432178285E8 ; 2.1748202301219345E10 ; 0.0
117 ; 3766795.7249124986 ; 2.022092901165733E8 ; 4.174772093267393E8 ; 2.195039760584531E10 ; 0.0
118 ; 3758865.487712214 ; 2.0222326352325454E8 ; 4.2124400505165184E8 ; 2.2152606895961884E10 ; 0.0
119 ; 3755534.7245296203 ; 2.0223722405487362E8 ; 4.2500287053936404E8 ; 2.2354830159485138E10 ; 0.0
120 ; 3751750.550017626 ; 2.0225117093604624E8 ; 4.2875840526389366E8 ; 2.2557067383540012E10 ; 0.0
121 ; 3744992.5760962185 ; 2.022651034066058E8 ; 4.325101558139113E8 ; 2.275931855447606E10 ; 0.0
122 ; 3741848.871877414 ; 2.022790207210929E8 ; 4.3625514839000756E8 ; 2.2961583657882664E10 ; 0.0
123 ; 3736678.3612843226 ; 2.022929221482654E8 ; 4.39996997261885E8 ; 2.3163862678603756E10 ; 0.0
124 ; 3730996.5124773826 ; 2.02306806970628E8 ; 4.437336756231693E8 ; 2.336615560075202E10 ; 0.0
125 ; 3725933.3780992385 ; 2.0232067448398122E8 ; 4.474646721356467E8 ; 2.356846240772265E10 ; 0.0
126 ; 3722663.0702184807 ; 2.0233452399698803E8 ; 4.5119060551374596E8 ; 2.377078308220663E10 ; 0.0
127 ; 3713798.0128227053 ; 2.02348354830758E8 ; 4.5491326858396447E8 ; 2.3973117606203617E10 ; 0.0
128 ; 3711579.8590899627 ; 2.0236216631844795E8 ; 4.5862706659678715E8 ; 2.4175465961034374E10 ; 0.0
129 ; 3700064.8637060598 ; 2.0237595780487847E8 ; 4.623386464558771E8 ; 2.437782812735282E10 ; 0.0
130 ; 3697105.8112799427 ; 2.0238972864616552E8 ; 4.660387113195832E8 ; 2.45802040851577E10 ; 0.0
131 ; 3688521.069377501 ; 2.0240347820936674E8 ; 4.6973581713086313E8 ; 2.4782593813803864E10 ; 0.0
132 ; 3678551.914789425 ; 2.0241720587214142E8 ; 4.734243382002406E8 ; 2.498499729201323E10 ; 0.0
133 ; 3668692.305680872 ; 2.02430911022424E8 ; 4.7710289011503005E8 ; 2.5187414497885372E10 ; 0.0
134 ; 3659435.5885411305 ; 2.0244459305811012E8 ; 4.807715824207109E8 ; 2.5389845408907795E10 ; 0.0
135 ; 3653103.261803091 ; 2.0245825138675484E8 ; 4.844310180092521E8 ; 2.5592290001965904E10 ; 0.0
136 ; 3643202.893102431 ; 2.0247188542528284E8 ; 4.8808412127105516E8 ; 2.5794748253352657E10 ; 0.0
137 ; 3633351.1171297254 ; 2.0248549459970945E8 ; 4.9172732416415757E8 ; 2.599722013877794E10 ; 0.0
138 ; 3624574.207070158 ; 2.0249907834487268E8 ; 4.953606752812873E8 ; 2.6199705633377647E10 ; 0.0
139 ; 3611863.0598634887 ; 2.0251263610417527E8 ; 4.989852494883575E8 ; 2.640220471172252E10 ; 0.0
140 ; 3598623.37207196 ; 2.0252616732933676E8 ; 5.02597112548221E8 ; 2.6604717347826694E10 ; 0.0
141 ; 3591389.908398741 ; 2.0253967148015487E8 ; 5.06195735920293E8 ; 2.6807243515156033E10 ; 0.0
142 ; 3581032.0699341586 ; 2.025531480242761E8 ; 5.097871258286917E8 ; 2.700978318663619E10 ; 0.0
143 ; 3572611.5166990436 ; 2.0256659643697476E8 ; 5.1336815789862585E8 ; 2.7212336334660465E10 ; 0.0
144 ; 3559807.7956656218 ; 2.0258001620094043E8 ; 5.1694076941532487E8 ; 2.741490293109744E10 ; 0.0
145 ; 3553725.5044120112 ; 2.0259340680607337E8 ; 5.205005772109905E8 ; 2.7617482947298378E10 ; 0.0
146 ; 3548049.2418070626 ; 2.0260676774928764E8 ; 5.240543027154025E8 ; 2.782007635410445E10 ; 0.0
147 ; 3540989.394967417 ; 2.0262009853432134E8 ; 5.276023519572095E8 ; 2.8022683121853737E10 ; 0.0
148 ; 3538250.8027199316 ; 2.0263339867155412E8 ; 5.3114334135217696E8 ; 2.8225303220388058E10 ; 0.0
149 ; 3532110.814213857 ; 2.0264666767783135E8 ; 5.346815921548969E8 ; 2.8427936619059612E10 ; 0.0
150 ; 3526091.2150608366 ; 2.0265990507629454E8 ; 5.382137029691107E8 ; 2.8630583286737442E10 ; 0.0
151 ; 3522015.24511992 ; 2.0267311039621845E8 ; 5.417397941841716E8 ; 2.8833243191813736E10 ; 0.0
152 ; 3517757.889988613 ; 2.0268628317285365E8 ; 5.452618094292915E8 ; 2.9035916302209953E10 ; 0.0
153 ; 3511170.6633793092 ; 2.0269942294727507E8 ; 5.487795673192801E8 ; 2.923860258538281E10 ; 0.0
154 ; 3503680.470635935 ; 2.027125292662362E8 ; 5.522907379826595E8 ; 2.9441302008330082E10 ; 0.0
155 ; 3498661.1596429497 ; 2.0272560168202808E8 ; 5.557944184532954E8 ; 2.9644014537596317E10 ; 0.0
156 ; 3491636.307819315 ; 2.0273863975234386E8 ; 5.592930796129383E8 ; 2.9846740139278347E10 ; 0.0
157 ; 3491217.9651096263 ; 2.02751643040148E8 ; 5.627847159207577E8 ; 3.004947877903069E10 ; 0.0
158 ; 3481684.6510503213 ; 2.0276461111355007E8 ; 5.662759338858672E8 ; 3.025223042207084E10 ; 0.0
159 ; 3473376.1787736807 ; 2.0277754354568323E8 ; 5.697576185369176E8 ; 3.0454995033184387E10 ; 0.0
160 ; 3467952.293969549 ; 2.0279043991458696E8 ; 5.732309947156912E8 ; 3.0657772576730072E10 ; 0.0
161 ; 3465397.200021294 ; 2.028032998030939E8 ; 5.766989470096607E8 ; 3.0860563016644657E10 ; 0.0
162 ; 3456606.182739576 ; 2.0281612279872075E8 ; 5.80164344209682E8 ; 3.106336631644775E10 ; 0.0
163 ; 3452330.3317944817 ; 2.0282890849356288E8 ; 5.836209503924216E8 ; 3.126618243924647E10 ; 0.0
164 ; 3446817.9359257706 ; 2.0284165648419282E8 ; 5.870732807242161E8 ; 3.1469011347740036E10 ; 0.0
165 ; 3439509.83591789 ; 2.0285436637156224E8 ; 5.905200986601418E8 ; 3.1671853004224228E10 ; 0.0
166 ; 3434712.51210076 ; 2.0286703776090717E8 ; 5.939596084960597E8 ; 3.187470737059579E10 ; 0.0
167 ; 3428181.9675408388 ; 2.028796702616568E8 ; 5.973943210081605E8 ; 3.2077574408356697E10 ; 0.0
168 ; 3425550.155971417 ; 2.0289226348734522E8 ; 6.008225029757013E8 ; 3.2280454078618355E10 ; 0.0
169 ; 3417626.9310422344 ; 2.0290481705552632E8 ; 6.042480531316727E8 ; 3.24833463421057E10 ; 0.0
170 ; 3410842.832425082 ; 2.0291733058769146E8 ; 6.076656800627149E8 ; 3.268625115916123E10 ; 0.0
171 ; 3403513.026984318 ; 2.0292980370919025E8 ; 6.1107652289514E8 ; 3.288916848974892E10 ; 0.0
172 ; 3401891.2852937565 ; 2.0294223604915377E8 ; 6.144800359221244E8 ; 3.309209829345811E10 ; 0.0
173 ; 3390447.665849596 ; 2.0295462724042052E8 ; 6.178819272074181E8 ; 3.3295040529507263E10 ; 0.0
174 ; 3387789.7001963644 ; 2.029669769194649E8 ; 6.212723748732677E8 ; 3.3497995156747684E10 ; 0.0
175 ; 3386705.64372048 ; 2.0297928472632805E8 ; 6.24660164573464E8 ; 3.370096213366715E10 ; 0.0
176 ; 3381245.3162930836 ; 2.0299155030455115E8 ; 6.280468702171845E8 ; 3.390394141839348E10 ; 0.0
177 ; 3375035.4056798373 ; 2.0300377330111077E8 ; 6.314281155334777E8 ; 3.410693296869803E10 ; 0.0
178 ; 3369211.3537187674 ; 2.0301595336635664E8 ; 6.348031509391575E8 ; 3.4309936741999138E10 ; 0.0
179 ; 3365835.7668060134 ; 2.0302809015395132E8 ; 6.381723622928762E8 ; 3.451295269536549E10 ; 0.0
180 ; 3359522.976211935 ; 2.030401833208119E8 ; 6.415381980596823E8 ; 3.471598078551945E10 ; 0.0
181 ; 3355393.743539038 ; 2.0305223252705383E8 ; 6.448977210358942E8 ; 3.4919020968840256E10 ; 0.0
182 ; 3350084.751649467 ; 2.0306423743593636E8 ; 6.482531147794333E8 ; 3.512207320136731E10 ; 0.0
183 ; 3347001.2828011625 ; 2.0307619771380994E8 ; 6.516031995310827E8 ; 3.5325137438803246E10 ; 0.0
184 ; 3339990.8356824596 ; 2.0308811303006545E8 ; 6.549502008138839E8 ; 3.552821363651705E10 ; 0.0
185 ; 3344366.135525 ; 2.0309998305708477E8 ; 6.582901916495664E8 ; 3.573130174954712E10 ; 0.0
186 ; 3334675.8753164154 ; 2.0311180747019345E8 ; 6.616345577850914E8 ; 3.59344017326042E10 ; 0.0
187 ; 3330904.4717073347 ; 2.0312358594761452E8 ; 6.649692336604078E8 ; 3.6137513540074394E10 ; 0.0
188 ; 3327728.834991804 ; 2.0313531817042413E8 ; 6.683001381321151E8 ; 3.634063712602201E10 ; 0.0
189 ; 3324708.4649734055 ; 2.031470038225083E8 ; 6.716278669671069E8 ; 3.654377244419244E10 ; 0.0
190 ; 3317147.8981538755 ; 2.0315864259052148E8 ; 6.749525754320804E8 ; 3.6746919448014946E10 ; 0.0
191 ; 3313868.1868645125 ; 2.0317023416384622E8 ; 6.782697233302343E8 ; 3.695007809060547E10 ; 0.0
192 ; 3308814.3048602934 ; 2.0318177823455408E8 ; 6.815835915170988E8 ; 3.715324832476932E10 ; 0.0
193 ; 3302684.438245747 ; 2.031932744973681E8 ; 6.84892405821959E8 ; 3.735643010300387E10 ; 0.0
194 ; 3300242.468095061 ; 2.0320472264962617E8 ; 6.881950902602048E8 ; 3.7559623377501236E10 ; 0.0
195 ; 3294734.268448443 ; 2.032161223912458E8 ; 6.914953327282999E8 ; 3.776282810015086E10 ; 0.0
196 ; 3294838.07336732 ; 2.0322747342469E8 ; 6.947900669967483E8 ; 3.796604422254211E10 ; 0.0
197 ; 3288642.739973593 ; 2.0323877545493412E8 ; 6.980849050701157E8 ; 3.81692716959668E10 ; 0.0
198 ; 3282937.523389838 ; 2.0325002818943393E8 ; 7.013735478100892E8 ; 3.837251047142173E10 ; 0.0
199 ; 3280156.3050179607 ; 2.0326123133809465E8 ; 7.04656485333479E8 ; 3.857576049961116E10 ; 0.0
200 ; 3274825.061708984 ; 1.986505453276038E8 ; 7.07936641638497E8 ; 3.877902173094926E10 ; 0.0
