CSV File for the City 3 on Day 189
1 - Minute m 
2 - Power Consumed at minute m 
3 - Power Produced at minute m 
4 - Energy Consumed since the beginning of the day 
5 - Energy Produced since the beginning of the day 
6 - Energy Lost since the beginning of the day on lines starting from the city
 
0 ; 368760.0889079077 ; 1.0545301302255079E8 ; 0.0 ; 0.0 ; 0.0
1 ; 370981.00053907867 ; 1.0560587410862625E8 ; 368760.0889079077 ; 1.0545301302255079E8 ; 0.0
2 ; 373182.14722670824 ; 1.0606752428984389E8 ; 739741.0894469863 ; 2.1105888713117704E8 ; 0.0
3 ; 375963.40684488876 ; 1.0683796568050611E8 ; 1112923.2366736946 ; 3.171264114210209E8 ; 0.0
4 ; 380058.7599248092 ; 1.0791720018653977E8 ; 1488886.6435185834 ; 4.2396437710152704E8 ; 0.0
5 ; 385799.26672356896 ; 1.0930522949124223E8 ; 1868945.4034433926 ; 5.318815772880668E8 ; 0.0
6 ; 389185.9443315829 ; 1.1100205504235849E8 ; 2254744.6701669614 ; 6.41186806779309E8 ; 0.0
7 ; 398540.3869939824 ; 1.130076780407145E8 ; 2643930.6144985445 ; 7.521888618216676E8 ; 0.0
8 ; 408801.1142663638 ; 1.153220994306106E8 ; 3042471.001492527 ; 8.65196539862382E8 ; 0.0
9 ; 426466.8063509926 ; 1.1794531989215422E8 ; 3451272.1157588908 ; 9.805186392929926E8 ; 0.0
10 ; 452891.41606753785 ; 1.2087733983567435E8 ; 3877738.9221098833 ; 1.0984639591851468E9 ; 0.0
11 ; 493407.7496899066 ; 1.2411815939832708E8 ; 4330630.338177421 ; 1.219341299020821E9 ; 0.0
12 ; 560539.2762305716 ; 1.276677784429563E8 ; 4824038.087867328 ; 1.3434594584191482E9 ; 0.0
13 ; 622434.2696744022 ; 1.3152619655923301E8 ; 5384577.3640979 ; 1.4711272368621044E9 ; 0.0
14 ; 630786.2241702636 ; 1.3569341306704986E8 ; 6007011.633772302 ; 1.6026534334213374E9 ; 0.0
15 ; 634635.3431732297 ; 1.401694270221064E8 ; 6637797.857942566 ; 1.738346846488387E9 ; 0.0
16 ; 636388.6969054104 ; 1.449542372235768E8 ; 7272433.201115796 ; 1.8785162735104935E9 ; 0.0
17 ; 639738.68079065 ; 1.50047842223716E8 ; 7908821.898021206 ; 2.0234705107340703E9 ; 0.0
18 ; 642665.0273595374 ; 1.554502403392266E8 ; 8548560.578811856 ; 2.173518352957786E9 ; 0.0
19 ; 646003.0493520978 ; 1.611614296641818E8 ; 9191225.606171394 ; 2.328968593297013E9 ; 0.0
20 ; 651028.9125171123 ; 1.6718140808427915E8 ; 9837228.655523492 ; 2.4901300229611945E9 ; 0.0
21 ; 653034.4357667234 ; 1.7351017329218718E8 ; 1.0488257568040604E7 ; 2.6573114310454736E9 ; 0.0
22 ; 655414.9964241615 ; 1.8014772280373758E8 ; 1.1141292003807327E7 ; 2.830821604337661E9 ; 0.0
23 ; 657939.1497771211 ; 1.8709405397471803E8 ; 1.1796707000231488E7 ; 3.0109693271413984E9 ; 0.0
24 ; 662312.5897708997 ; 1.9434916401802456E8 ; 1.245464615000861E7 ; 3.1980633811161165E9 ; 0.0
25 ; 665185.3502443342 ; 2.006010909191272E8 ; 1.311695873977951E7 ; 3.392412545134141E9 ; 0.0
26 ; 669746.0793133938 ; 2.00603379490164E8 ; 1.3782144090023844E7 ; 3.593013636053268E9 ; 0.0
27 ; 671799.2608326835 ; 2.0060579591176373E8 ; 1.4451890169337237E7 ; 3.7936170155434318E9 ; 0.0
28 ; 676952.0027179329 ; 2.006083369962852E8 ; 1.5123689430169921E7 ; 3.9942228114551954E9 ; 0.0
29 ; 677804.7114900026 ; 2.0061099949692813E8 ; 1.5800641432887854E7 ; 4.194831148451481E9 ; 0.0
30 ; 682574.9453790813 ; 2.0061378012287107E8 ; 1.6478446144377857E7 ; 4.395442147948409E9 ; 0.0
31 ; 683057.3074597137 ; 2.006166755535813E8 ; 1.716102108975694E7 ; 4.5960559280712805E9 ; 0.0
32 ; 687670.0672954762 ; 2.0061968245221826E8 ; 1.784407839721665E7 ; 4.796672603624862E9 ; 0.0
33 ; 691161.9744589044 ; 2.0062279747807574E8 ; 1.853174846451213E7 ; 4.99729228607708E9 ; 0.0
34 ; 693856.5297390701 ; 2.00626017298028E8 ; 1.922291043897103E7 ; 5.197915083555156E9 ; 0.0
35 ; 696306.5716533473 ; 2.0062933859696364E8 ; 1.9916766968710102E7 ; 5.398541100853184E9 ; 0.0
36 ; 699253.8145517552 ; 2.0063275808720836E8 ; 2.061307354036345E7 ; 5.599170439450148E9 ; 0.0
37 ; 701199.2513534407 ; 2.0063627251695067E8 ; 2.1312327354915205E7 ; 5.799803197537356E9 ; 0.0
38 ; 703872.9473519545 ; 2.006398786776979E8 ; 2.2013526606268644E7 ; 6.000439470054307E9 ; 0.0
39 ; 706884.1764595591 ; 2.0064357341079864E8 ; 2.27173995536206E7 ; 6.201079348732005E9 ; 0.0
40 ; 709036.078190928 ; 2.0064735361307615E8 ; 2.3424283730080158E7 ; 6.401722922142804E9 ; 0.0
41 ; 712509.8216083922 ; 2.0065121624162248E8 ; 2.4133319808271084E7 ; 6.60237027575588E9 ; 0.0
42 ; 713598.4704743358 ; 2.006551583178072E8 ; 2.4845829629879475E7 ; 6.803021491997503E9 ; 0.0
43 ; 715385.4630058722 ; 2.0065917693055797E8 ; 2.555942810035381E7 ; 7.0036766503153105E9 ; 0.0
44 ; 718768.5103885018 ; 2.006632692389695E8 ; 2.627481356335968E7 ; 7.204335827245869E9 ; 0.0
45 ; 719871.5429658958 ; 2.0066743247429994E8 ; 2.6993582073748183E7 ; 7.4049990964848385E9 ; 0.0
46 ; 720146.2981248492 ; 2.0067166394141033E8 ; 2.771345361671408E7 ; 7.605666528959139E9 ; 0.0
47 ; 722985.6328607906 ; 2.006759610197037E8 ; 2.843359991483893E7 ; 7.806338192900549E9 ; 0.0
48 ; 724863.2110405687 ; 2.0068032116361555E8 ; 2.915658554769972E7 ; 8.007014153920253E9 ; 0.0
49 ; 725961.846482953 ; 2.006847419027077E8 ; 2.9881448758740287E7 ; 8.207694475083868E9 ; 0.0
50 ; 726471.652589627 ; 2.006892208414114E8 ; 3.060741060522324E7 ; 8.408379216986576E9 ; 0.0
51 ; 729071.530169413 ; 2.0069375565846556E8 ; 3.1333882257812865E7 ; 8.609068437827988E9 ; 0.0
52 ; 728210.250869803 ; 2.006983441060904E8 ; 3.2062953787982278E7 ; 8.809762193486454E9 ; 0.0
53 ; 732064.710850988 ; 2.0070298400893465E8 ; 3.279116403885208E7 ; 9.010460537592545E9 ; 0.0
54 ; 731791.4170900037 ; 2.0070767326283112E8 ; 3.352322874970307E7 ; 9.211163521601479E9 ; 0.0
55 ; 731983.4821984392 ; 2.0071240983339185E8 ; 3.425502016679307E7 ; 9.41187119486431E9 ; 0.0
56 ; 733503.5222280981 ; 2.0071719175447166E8 ; 3.498700364899151E7 ; 9.6125836046977E9 ; 0.0
57 ; 733138.5676738201 ; 2.0072201712652534E8 ; 3.572050717121961E7 ; 9.813300796452171E9 ; 0.0
58 ; 733436.0851641916 ; 2.007268841148816E8 ; 3.645364573889343E7 ; 1.0014022813578697E10 ; 0.0
59 ; 738040.0083160932 ; 2.00731790947954E8 ; 3.718708182405762E7 ; 1.0214749697693579E10 ; 0.0
60 ; 738275.862072157 ; 2.0073673591540673E8 ; 3.792512183237371E7 ; 1.0415481488641533E10 ; 0.0
61 ; 738350.5027296072 ; 2.0074171736629117E8 ; 3.866339769444586E7 ; 1.061621822455694E10 ; 0.0
62 ; 739637.128882176 ; 2.007467337071668E8 ; 3.940174819717547E7 ; 1.0816959941923231E10 ; 0.0
63 ; 741754.5752359616 ; 2.0075178340021843E8 ; 4.014138532605765E7 ; 1.1017706675630398E10 ; 0.0
64 ; 742281.782386701 ; 2.007568649613802E8 ; 4.088313990129361E7 ; 1.1218458459030617E10 ; 0.0
65 ; 742333.6099089258 ; 2.0076197695847502E8 ; 4.162542168368031E7 ; 1.1419215323991997E10 ; 0.0
66 ; 743482.4368637297 ; 2.0076711800937656E8 ; 4.2367755293589234E7 ; 1.1619977300950472E10 ; 0.0
67 ; 744733.5473437734 ; 2.0077228678020072E8 ; 4.311123773045296E7 ; 1.1820744418959848E10 ; 0.0
68 ; 745794.3386862838 ; 2.0077748198353115E8 ; 4.385597127779674E7 ; 1.202151670574005E10 ; 0.0
69 ; 746644.4419815294 ; 2.0078270237668335E8 ; 4.4601765616483025E7 ; 1.2222294187723581E10 ; 0.0
70 ; 748505.2135812825 ; 2.0078794676001054E8 ; 4.534841005846456E7 ; 1.2423076890100266E10 ; 0.0
71 ; 747038.51367997 ; 2.0079321397525412E8 ; 4.6096915272045836E7 ; 1.2623864836860275E10 ; 0.0
72 ; 748251.7174210324 ; 2.0079850290394068E8 ; 4.68439537857258E7 ; 1.282465805083553E10 ; 0.0
73 ; 750009.0411322651 ; 2.0080381246582687E8 ; 4.7592205503146835E7 ; 1.302545655373947E10 ; 0.0
74 ; 751547.215842724 ; 2.0080914161739326E8 ; 4.83422145442791E7 ; 1.3226260366205296E10 ; 0.0
75 ; 750237.0182742011 ; 2.0081448935038772E8 ; 4.909376176012182E7 ; 1.342706950782269E10 ; 0.0
76 ; 751462.4836728143 ; 2.0081985469041833E8 ; 4.9843998778396025E7 ; 1.3627883997173077E10 ; 0.0
77 ; 752791.3581724159 ; 2.0082523669559577E8 ; 5.059546126206884E7 ; 1.3828703851863495E10 ; 0.0
78 ; 753035.5057937533 ; 2.0083063445522505E8 ; 5.1348252620241255E7 ; 1.4029529088559092E10 ; 0.0
79 ; 752028.3499328897 ; 2.0083604708854547E8 ; 5.2101288126035005E7 ; 1.4230359723014317E10 ; 0.0
80 ; 751427.8835753966 ; 2.0084147374351856E8 ; 5.285331647596789E7 ; 1.4431195770102861E10 ; 0.0
81 ; 752579.6735178882 ; 2.0084691359566262E8 ; 5.3604744359543286E7 ; 1.463203724384638E10 ; 0.0
82 ; 751262.0017672135 ; 2.0085236584693328E8 ; 5.435732403306118E7 ; 1.4832884157442043E10 ; 0.0
83 ; 752797.5074569912 ; 2.0085782972464833E8 ; 5.510858603482839E7 ; 1.5033736523288977E10 ; 0.0
84 ; 750650.7894549347 ; 2.0086330448045617E8 ; 5.5861383542285375E7 ; 1.5234594353013624E10 ; 0.0
85 ; 751227.9345065919 ; 2.0086878938934642E8 ; 5.661203433174031E7 ; 1.543545765749408E10 ; 0.0
86 ; 751655.8924268086 ; 2.008742837487011E8 ; 5.736326226624691E7 ; 1.5636326446883427E10 ; 0.0
87 ; 751872.1014149293 ; 2.0087978687738544E8 ; 5.811491815867372E7 ; 1.5837200730632128E10 ; 0.0
88 ; 749335.7554400106 ; 2.0088529811487693E8 ; 5.8866790260088645E7 ; 1.6038080517509514E10 ; 0.0
89 ; 749889.4149707177 ; 2.0089081682043076E8 ; 5.961612601552866E7 ; 1.6238965815624392E10 ; 0.0
90 ; 749352.4573082966 ; 2.0089634237228113E8 ; 6.0366015430499375E7 ; 1.6439856632444822E10 ; 0.0
91 ; 749444.7894715175 ; 2.0090187416687644E8 ; 6.1115367887807675E7 ; 1.6640752974817104E10 ; 0.0
92 ; 749150.2207815822 ; 2.0090741161814705E8 ; 6.186481267727919E7 ; 1.684165484898398E10 ; 0.0
93 ; 748886.780170903 ; 2.0091295415680495E8 ; 6.261396289806077E7 ; 1.7042562260602127E10 ; 0.0
94 ; 747199.9970091792 ; 2.0091850122967348E8 ; 6.336284967823167E7 ; 1.724347521475893E10 ; 0.0
95 ; 747360.8611291498 ; 2.009240522990458E8 ; 6.411004967524085E7 ; 1.7444393715988605E10 ; 0.0
96 ; 746397.153509888 ; 2.0092960684207156E8 ; 6.485741053637E7 ; 1.764531776828765E10 ; 0.0
97 ; 748056.5051500979 ; 2.0093516435016993E8 ; 6.560380768987989E7 ; 1.7846247375129723E10 ; 0.0
98 ; 745478.4258087893 ; 2.009407243284681E8 ; 6.635186419502998E7 ; 1.8047182539479893E10 ; 0.0
99 ; 746290.7998280778 ; 2.009462862952646E8 ; 6.709734262083877E7 ; 1.824812326380836E10 ; 0.0
100 ; 746097.370555818 ; 2.0095184978151524E8 ; 6.784363342066684E7 ; 1.8449069550103626E10 ; 0.0
101 ; 745415.6484327766 ; 2.009574143303421E8 ; 6.858973079122266E7 ; 1.8650021399885143E10 ; 0.0
102 ; 745659.6187163233 ; 2.0096297949656355E8 ; 6.933514643965544E7 ; 1.8850978814215485E10 ; 0.0
103 ; 743625.0441149789 ; 2.009685448462446E8 ; 7.008080605837177E7 ; 1.9051941793712048E10 ; 0.0
104 ; 743058.4005548845 ; 2.0097410995626703E8 ; 7.082443110248674E7 ; 1.9252910338558292E10 ; 0.0
105 ; 743177.2215352536 ; 2.0097967441391784E8 ; 7.156748950304163E7 ; 1.945388444851456E10 ; 0.0
106 ; 742205.8263289259 ; 2.0098523781649587E8 ; 7.231066672457688E7 ; 1.965486412292848E10 ; 0.0
107 ; 741587.755068401 ; 2.0099079977093515E8 ; 7.305287255090581E7 ; 1.9855849360744972E10 ; 0.0
108 ; 742079.0757065876 ; 2.009963598934446E8 ; 7.379446030597422E7 ; 2.0056840160515907E10 ; 0.0
109 ; 739343.8242018755 ; 2.0100191780916318E8 ; 7.45365393816808E7 ; 2.025783652040935E10 ; 0.0
110 ; 738883.3862226494 ; 2.0100747315183008E8 ; 7.527588320588268E7 ; 2.0458838438218513E10 ; 0.0
111 ; 740111.1686751267 ; 2.0101302556346864E8 ; 7.601476659210533E7 ; 2.0659845911370342E10 ; 0.0
112 ; 739131.0426980747 ; 2.010185746940843E8 ; 7.675487776078045E7 ; 2.086085893693381E10 ; 0.0
113 ; 737707.8292761588 ; 2.0102412020137495E8 ; 7.749400880347852E7 ; 2.1061877511627895E10 ; 0.0
114 ; 737583.5567289329 ; 2.0102966175045395E8 ; 7.823171663275468E7 ; 2.126290163182927E10 ; 0.0
115 ; 736656.0694820104 ; 2.0103519901358464E8 ; 7.896930018948361E7 ; 2.1463931293579723E10 ; 0.0
116 ; 734790.0778354014 ; 2.0104073166992635E8 ; 7.970595625896563E7 ; 2.1664966492593307E10 ; 0.0
117 ; 734944.204292622 ; 2.010462594052908E8 ; 8.044074633680102E7 ; 2.1866007224263233E10 ; 0.0
118 ; 733454.5876622603 ; 2.010517819119092E8 ; 8.117569054109365E7 ; 2.2067053483668526E10 ; 0.0
119 ; 732991.0705180998 ; 2.0105729888820842E8 ; 8.190914512875591E7 ; 2.2268105265580437E10 ; 0.0
120 ; 730500.4714468537 ; 2.0106281003859723E8 ; 8.264213619927402E7 ; 2.2469162564468647E10 ; 0.0
121 ; 731082.047722101 ; 2.0106831507326105E8 ; 8.337263667072088E7 ; 2.2670225374507244E10 ; 0.0
122 ; 730048.116018606 ; 2.0107381370796514E8 ; 8.410371871844298E7 ; 2.2871293689580505E10 ; 0.0
123 ; 729456.7162536124 ; 2.010793056638663E8 ; 8.483376683446158E7 ; 2.307236750328847E10 ; 0.0
124 ; 727864.8152805429 ; 2.0108479066733187E8 ; 8.55632235507152E7 ; 2.327344680895234E10 ; 0.0
125 ; 727710.0937656476 ; 2.0109026844976658E8 ; 8.629108836599573E7 ; 2.347453159961967E10 ; 0.0
126 ; 725504.6380067737 ; 2.010957387474461E8 ; 8.701879845976138E7 ; 2.367562186806944E10 ; 0.0
127 ; 725497.9482735518 ; 2.0110120130135772E8 ; 8.774430309776816E7 ; 2.3876717606816887E10 ; 0.0
128 ; 724176.2823448916 ; 2.0110665585704723E8 ; 8.846980104604171E7 ; 2.4077818808118244E10 ; 0.0
129 ; 723699.8074854293 ; 2.011121021644722E8 ; 8.91939773283866E7 ; 2.4278925463975292E10 ; 0.0
130 ; 721718.4424821542 ; 2.0111753997786096E8 ; 8.991767713587204E7 ; 2.4480037566139763E10 ; 0.0
131 ; 720274.039113233 ; 2.0112296905557743E8 ; 9.06393955783542E7 ; 2.4681155106117622E10 ; 0.0
132 ; 717322.3609462178 ; 2.0112838915999126E8 ; 9.135966961746743E7 ; 2.48822780751732E10 ; 0.0
133 ; 715758.2419996837 ; 2.011338000573532E8 ; 9.207699197841366E7 ; 2.508340646433319E10 ; 0.0
134 ; 713719.7156301492 ; 2.0113920151767528E8 ; 9.279275022041334E7 ; 2.5284540264390545E10 ; 0.0
135 ; 711578.2816566173 ; 2.011445933146159E8 ; 9.350646993604349E7 ; 2.548567946590822E10 ; 0.0
136 ; 709883.4204774593 ; 2.011499752253694E8 ; 9.421804821770011E7 ; 2.5686824059222836E10 ; 0.0
137 ; 708375.8572078277 ; 2.0115534703055984E8 ; 9.492793163817757E7 ; 2.5887974034448204E10 ; 0.0
138 ; 707483.5352458305 ; 2.0116070851413912E8 ; 9.563630749538541E7 ; 2.6089129381478764E10 ; 0.0
139 ; 703526.0911842488 ; 2.0116605946328893E8 ; 9.634379103063124E7 ; 2.62902900899929E10 ; 0.0
140 ; 701498.5916348965 ; 2.0117139966832653E8 ; 9.704731712181549E7 ; 2.649145614945619E10 ; 0.0
141 ; 699460.71315293 ; 2.0117672892261413E8 ; 9.774881571345039E7 ; 2.6692627549124516E10 ; 0.0
142 ; 698792.1720256094 ; 2.01182047022472E8 ; 9.844827642660332E7 ; 2.689380427804713E10 ; 0.0
143 ; 696226.7353019868 ; 2.0118735376709446E8 ; 9.914706859862892E7 ; 2.7094986325069603E10 ; 0.0
144 ; 695684.2345600958 ; 2.0119264895846957E8 ; 9.984329533393091E7 ; 2.7296173678836697E10 ; 0.0
145 ; 692525.3099088203 ; 2.0119793240130144E8 ; 1.0053897956849101E8 ; 2.7497366327795166E10 ; 0.0
146 ; 693462.895018796 ; 2.012032039029359E8 ; 1.0123150487839983E8 ; 2.769856426019647E10 ; 0.0
147 ; 691188.4551043697 ; 2.012084632732885E8 ; 1.0192496777341864E8 ; 2.7899767464099403E10 ; 0.0
148 ; 690027.4381857215 ; 2.0121371032477573E8 ; 1.02616156228523E8 ; 2.8100975927372692E10 ; 0.0
149 ; 688390.3101967836 ; 2.0121894487224844E8 ; 1.0330618366670872E8 ; 2.8302189637697468E10 ; 0.0
150 ; 688608.2795024263 ; 2.0122416673292786E8 ; 1.0399457397690551E8 ; 2.8503408582569717E10 ; 0.0
151 ; 687471.4324439091 ; 2.0122937572634405E8 ; 1.0468318225640793E8 ; 2.8704632749302647E10 ; 0.0
152 ; 686056.6203183887 ; 2.0123457167427653E8 ; 1.0537065368885183E8 ; 2.890586212502899E10 ; 0.0
153 ; 684770.8626688134 ; 2.012397544006973E8 ; 1.0605671030917022E8 ; 2.910709669670327E10 ; 0.0
154 ; 683715.7156002155 ; 2.0124492373171562E8 ; 1.0674148117183903E8 ; 2.9308336451103966E10 ; 0.0
155 ; 684926.3258488455 ; 2.0125007949552518E8 ; 1.0742519688743925E8 ; 2.9509581374835682E10 ; 0.0
156 ; 681153.4933935922 ; 2.012552215223529E8 ; 1.081101232132881E8 ; 2.9710831454331207E10 ; 0.0
157 ; 680584.9746478929 ; 2.012603496444098E8 ; 1.0879127670668168E8 ; 2.991208667585356E10 ; 0.0
158 ; 678770.5309090618 ; 2.0126546369584358E8 ; 1.0947186168132958E8 ; 3.011334702549797E10 ; 0.0
159 ; 679841.2563085433 ; 2.012705635126928E8 ; 1.1015063221223864E8 ; 3.0314612489193813E10 ; 0.0
160 ; 678653.9995388275 ; 2.0127564893284294E8 ; 1.1083047346854718E8 ; 3.0515883052706505E10 ; 0.0
161 ; 677127.8298499935 ; 2.012807197959838E8 ; 1.11509127468086E8 ; 3.0717158701639347E10 ; 0.0
162 ; 675479.9927073377 ; 2.0128577594356865E8 ; 1.1218625529793599E8 ; 3.091843942143533E10 ; 0.0
163 ; 673667.676172404 ; 2.012908172187746E8 ; 1.1286173529064333E8 ; 3.11197251973789E10 ; 0.0
164 ; 672266.0821562621 ; 2.0129584346646455E8 ; 1.1353540296681574E8 ; 3.132101601459767E10 ; 0.0
165 ; 672405.1786576061 ; 2.0130085453315043E8 ; 1.14207669048972E8 ; 3.1522311858064137E10 ; 0.0
166 ; 671050.0525406095 ; 2.0130585026695776E8 ; 1.148800742276296E8 ; 3.1723612712597286E10 ; 0.0
167 ; 671464.9087527954 ; 2.013108305175914E8 ; 1.1555112428017022E8 ; 3.1924918562864243E10 ; 0.0
168 ; 667900.6670617627 ; 2.0131579513630253E8 ; 1.1622258918892302E8 ; 3.2126229393381832E10 ; 0.0
169 ; 669052.8591731156 ; 2.0132074397585678E8 ; 1.1689048985598478E8 ; 3.2327545188518135E10 ; 0.0
170 ; 665404.748480219 ; 2.0132567689050356E8 ; 1.175595427151579E8 ; 3.252886593249399E10 ; 0.0
171 ; 664240.026050019 ; 2.0133059373594627E8 ; 1.1822494746363811E8 ; 3.2730191609384495E10 ; 0.0
172 ; 663919.6330957001 ; 2.0133549436931372E8 ; 1.1888918748968813E8 ; 3.293152220312044E10 ; 0.0
173 ; 663355.2047625461 ; 2.0134037864913243E8 ; 1.1955310712278382E8 ; 3.3132857697489754E10 ; 0.0
174 ; 661574.5686629652 ; 2.013452464352999E8 ; 1.2021646232754637E8 ; 3.3334198076138885E10 ; 0.0
175 ; 660327.9123741102 ; 2.0135009758905885E8 ; 1.2087803689620934E8 ; 3.3535543322574184E10 ; 0.0
176 ; 659895.6334657979 ; 2.0135493197297224E8 ; 1.2153836480858345E8 ; 3.3736893420163242E10 ; 0.0
177 ; 659108.6939522581 ; 2.0135974945089933E8 ; 1.2219826044204925E8 ; 3.3938248352136215E10 ; 0.0
178 ; 658962.8060345714 ; 2.0136454988797233E8 ; 1.2285736913600151E8 ; 3.4139608101587116E10 ; 0.0
179 ; 659103.1577316114 ; 2.013693331505739E8 ; 1.2351633194203608E8 ; 3.434097265147509E10 ; 0.0
180 ; 658000.4310131309 ; 2.0137409910631567E8 ; 1.2417543509976768E8 ; 3.454234198462566E10 ; 0.0
181 ; 655831.7629065686 ; 2.0137884762401697E8 ; 1.2483343553078082E8 ; 3.474371608373198E10 ; 0.0
182 ; 655506.0994745872 ; 2.0138357857368487E8 ; 1.2548926729368739E8 ; 3.4945094931355995E10 ; 0.0
183 ; 654015.8666246203 ; 2.013882918264944E8 ; 1.2614477339316198E8 ; 3.514647850992968E10 ; 0.0
184 ; 654468.8075100381 ; 2.0139298725476968E8 ; 1.267987892597866E8 ; 3.534786680175617E10 ; 0.0
185 ; 654170.10193961 ; 2.0139766473196572E8 ; 1.2745325806729664E8 ; 3.554925978901094E10 ; 0.0
186 ; 652262.6438341504 ; 2.0140232413265067E8 ; 1.2810742816923624E8 ; 3.5750657453742905E10 ; 0.0
187 ; 654089.846764827 ; 2.014069653324887E8 ; 1.2875969081307039E8 ; 3.595205977787556E10 ; 0.0
188 ; 652170.7859568807 ; 2.014115882082235E8 ; 1.2941378065983522E8 ; 3.6153466743208046E10 ; 0.0
189 ; 651784.9718344428 ; 2.0141619263766238E8 ; 1.300659514457921E8 ; 3.635487833141627E10 ; 0.0
190 ; 649201.2526280303 ; 2.0142077849966082E8 ; 1.3071773641762653E8 ; 3.655629452405393E10 ; 0.0
191 ; 647744.3742329925 ; 2.0142534567410737E8 ; 1.3136693767025456E8 ; 3.67577153025536E10 ; 0.0
192 ; 647760.207391408 ; 2.0142989404190943E8 ; 1.3201468204448755E8 ; 3.695914064822771E10 ; 0.0
193 ; 648174.8738814706 ; 2.014344234849791E8 ; 1.3266244225187896E8 ; 3.7160570542269615E10 ; 0.0
194 ; 647083.4947915591 ; 2.0143893388621986E8 ; 1.3331061712576044E8 ; 3.736200496575459E10 ; 0.0
195 ; 647034.0851537025 ; 2.014434251295133E8 ; 1.3395770062055199E8 ; 3.7563443899640816E10 ; 0.0
196 ; 645500.4488370367 ; 2.0144789709970665E8 ; 1.346047347057057E8 ; 3.776488732477033E10 ; 0.0
197 ; 644270.9224226199 ; 2.0145234968260047E8 ; 1.3525023515454274E8 ; 3.796633522187004E10 ; 0.0
198 ; 643301.3902820082 ; 2.0145678276493686E8 ; 1.3589450607696536E8 ; 3.816778757155264E10 ; 0.0
199 ; 644234.8600546286 ; 2.0146119623438796E8 ; 1.3653780746724737E8 ; 3.836924435431758E10 ; 0.0
200 ; 642791.2467353833 ; 2.0146558997954503E8 ; 1.37182042327302E8 ; 3.857070555055197E10 ; 0.0
201 ; 640058.1780308521 ; 1.9291239884338474E8 ; 1.378248335740374E8 ; 3.877217114053152E10 ; 0.0
