CSV File for the City 6 on Day 333
1 - Minute m 
2 - Power Consumed at minute m 
3 - Power Produced at minute m 
4 - Energy Consumed since the beginning of the day 
5 - Energy Produced since the beginning of the day 
6 - Energy Lost since the beginning of the day on lines starting from the city
 
0 ; 1.1220215365834003E7 ; 1.065227109567217E8 ; 0.0 ; 0.0 ; 0.0
1 ; 1.1230480932522658E7 ; 1.0667352554749542E8 ; 1.1220215365834003E7 ; 1.065227109567217E8 ; 0.0
2 ; 1.1245217938287703E7 ; 1.0713334279542449E8 ; 2.245069629835666E7 ; 2.1319623650421712E8 ; 0.0
3 ; 1.1257738679779349E7 ; 1.0790216545857197E8 ; 3.3695914236644365E7 ; 3.203295792996416E8 ; 0.0
4 ; 1.1274745229683114E7 ; 1.0897999599730933E8 ; 4.4953652916423716E7 ; 4.282317447582136E8 ; 0.0
5 ; 1.1292926810074449E7 ; 1.1036683656457108E8 ; 5.622839814610683E7 ; 5.37211740755523E8 ; 0.0
6 ; 1.1319531618587274E7 ; 1.1206268899721232E8 ; 6.752132495618129E7 ; 6.475785773200941E8 ; 0.0
7 ; 1.1359732707414936E7 ; 1.1406755480855024E8 ; 7.884085657476856E7 ; 7.596412663173064E8 ; 0.0
8 ; 1.1413205351174306E7 ; 1.1638143518216068E8 ; 9.02005892821835E7 ; 8.737088211258566E8 ; 0.0
9 ; 1.1494304136683868E7 ; 1.1900433096698892E8 ; 1.0161379463335781E8 ; 9.900902563080173E8 ; 0.0
10 ; 1.1619811084901895E7 ; 1.2193624267382258E8 ; 1.1310809877004167E8 ; 1.1090945872750063E9 ; 0.0
11 ; 1.1817037458807891E7 ; 1.2517717047316179E8 ; 1.2472790985494357E8 ; 1.231030829948829E9 ; 0.0
12 ; 1.2134454664902182E7 ; 1.2872711419450638E8 ; 1.3654494731375146E8 ; 1.3562080004219906E9 ; 0.0
13 ; 1.2435072072192322E7 ; 1.3258607332706875E8 ; 1.4867940197865364E8 ; 1.484935114616497E9 ; 0.0
14 ; 1.2478266293408448E7 ; 1.367540470219037E8 ; 1.6111447405084595E8 ; 1.6175211879435658E9 ; 0.0
15 ; 1.248886986467174E7 ; 1.4123103409543526E8 ; 1.735927403442544E8 ; 1.7542752349654696E9 ; 0.0
16 ; 1.250452271653447E7 ; 1.4601703303434637E8 ; 1.8608161020892614E8 ; 1.895506269060905E9 ; 0.0
17 ; 1.2517431093125464E7 ; 1.5111204200178185E8 ; 1.985861329254606E8 ; 2.0415233020952513E9 ; 0.0
18 ; 1.2534119894828696E7 ; 1.565160588448072E8 ; 2.1110356401858607E8 ; 2.192635344097033E9 ; 0.0
19 ; 1.2548882634465106E7 ; 1.6222908110305098E8 ; 2.2363768391341478E8 ; 2.34915140294184E9 ; 0.0
20 ; 1.2562827549658895E7 ; 1.6825110601845005E8 ; 2.3618656654787987E8 ; 2.5113804840448914E9 ; 0.0
21 ; 1.2576217399036715E7 ; 1.7458213054600897E8 ; 2.4874939409753877E8 ; 2.6796315900633416E9 ; 0.0
22 ; 1.2597221663089266E7 ; 1.8122215136547613E8 ; 2.6132561149657547E8 ; 2.8542137206093507E9 ; 0.0
23 ; 1.2608102373059597E7 ; 1.881711648938352E8 ; 2.7392283315966475E8 ; 3.035435871974827E9 ; 0.0
24 ; 1.26215393079365E7 ; 1.9542916729850483E8 ; 2.865309355327243E8 ; 3.223607036868662E9 ; 0.0
25 ; 1.2636994112193238E7 ; 2.0168419540932253E8 ; 2.991524748406608E8 ; 3.4190362041671667E9 ; 0.0
26 ; 1.2650808409505144E7 ; 2.0168979276972955E8 ; 3.1178946895285404E8 ; 3.6207203995764894E9 ; 0.0
27 ; 1.2670353634478701E7 ; 2.0169572417634517E8 ; 3.2444027736235917E8 ; 3.822410192346219E9 ; 0.0
28 ; 1.2678300908176094E7 ; 2.0170198494068164E8 ; 3.3711063099683785E8 ; 4.0241059165225644E9 ; 0.0
29 ; 1.2696399907247553E7 ; 2.0170857019750097E8 ; 3.497889319050139E8 ; 4.225807901463246E9 ; 0.0
30 ; 1.2709058969509372E7 ; 2.0171547491999352E8 ; 3.6248533181226146E8 ; 4.427516471660747E9 ; 0.0
31 ; 1.2726655832516216E7 ; 2.017226939349288E8 ; 3.751943907817708E8 ; 4.62923194658074E9 ; 0.0
32 ; 1.2734889746328231E7 ; 2.017302219376884E8 ; 3.87921046614287E8 ; 4.830954640515669E9 ; 0.0
33 ; 1.2749111315662341E7 ; 2.017380535070986E8 ; 4.0065593636061525E8 ; 5.032684862453358E9 ; 0.0
34 ; 1.2761704506291524E7 ; 2.0174618311998555E8 ; 4.134050476762776E8 ; 5.234422915960456E9 ; 0.0
35 ; 1.2776369065720955E7 ; 2.0175460516538608E8 ; 4.261667521825691E8 ; 5.436169099080441E9 ; 0.0
36 ; 1.2790046543559553E7 ; 2.0176331395835146E8 ; 4.3894312124829006E8 ; 5.637923704245828E9 ; 0.0
37 ; 1.2799415822991852E7 ; 2.0177230375329208E8 ; 4.517331677918496E8 ; 5.839687018204179E9 ; 0.0
38 ; 1.2811964370359633E7 ; 2.017815687568171E8 ; 4.6453258361484146E8 ; 6.041459321957471E9 ; 0.0
39 ; 1.2822041805507185E7 ; 2.0179110314003107E8 ; 4.773445479852011E8 ; 6.243240890714288E9 ; 0.0
40 ; 1.2831751000450935E7 ; 2.0180090105025664E8 ; 4.901665897907083E8 ; 6.445031993854319E9 ; 0.0
41 ; 1.2840322065588586E7 ; 2.0181095662216E8 ; 5.029983407911592E8 ; 6.646832894904575E9 ; 0.0
42 ; 1.2851913251827983E7 ; 2.0182126398826143E8 ; 5.158386628567478E8 ; 6.848643851526735E9 ; 0.0
43 ; 1.2857410875520835E7 ; 2.0183181728882018E8 ; 5.2869057610857576E8 ; 7.050465115514997E9 ; 0.0
44 ; 1.286811259956384E7 ; 2.0184261068108803E8 ; 5.415479869840966E8 ; 7.252296932803817E9 ; 0.0
45 ; 1.2874412130581556E7 ; 2.018536383479317E8 ; 5.544160995836605E8 ; 7.454139543484905E9 ; 0.0
46 ; 1.2880567162423577E7 ; 2.0186489450582817E8 ; 5.67290511714242E8 ; 7.655993181832837E9 ; 0.0
47 ; 1.2887072441816688E7 ; 2.018763734122416E8 ; 5.801710788766656E8 ; 7.857858076338665E9 ; 0.0
48 ; 1.289689150006977E7 ; 2.0188806937239414E8 ; 5.930581513184823E8 ; 8.059734449750907E9 ; 0.0
49 ; 1.2901308162730938E7 ; 2.018999767454459E8 ; 6.05955042818552E8 ; 8.2616225191233015E9 ; 0.0
50 ; 1.2905978413093494E7 ; 2.019120899501019E8 ; 6.18856350981283E8 ; 8.463522495868748E9 ; 0.0
51 ; 1.2911641476472065E7 ; 2.0192440346966672E8 ; 6.317623293943764E8 ; 8.66543458581885E9 ; 0.0
52 ; 1.291822297890046E7 ; 2.01936911856568E8 ; 6.446739708708484E8 ; 8.867358989288517E9 ; 0.0
53 ; 1.2919100217836045E7 ; 2.0194960973637325E8 ; 6.575921938497488E8 ; 9.069295901145084E9 ; 0.0
54 ; 1.292157307190217E7 ; 2.0196249181132302E8 ; 6.705112940675849E8 ; 9.271245510881458E9 ; 0.0
55 ; 1.2930809523068983E7 ; 2.0197555286340705E8 ; 6.83432867139487E8 ; 9.473208002692781E9 ; 0.0
56 ; 1.2931669356659167E7 ; 2.019887877570076E8 ; 6.96363676662556E8 ; 9.675183555556189E9 ; 0.0
57 ; 1.2938933483336832E7 ; 2.0200219144113636E8 ; 7.092953460192152E8 ; 9.877172343313196E9 ; 0.0
58 ; 1.2940649219496407E7 ; 2.0201575895129022E8 ; 7.22234279502552E8 ; 1.0079174534754333E10 ; 0.0
59 ; 1.2943480844559124E7 ; 2.020294854109513E8 ; 7.351749287220484E8 ; 1.0281190293705624E10 ; 0.0
60 ; 1.2948401614923622E7 ; 2.0204336603275585E8 ; 7.481184095666075E8 ; 1.0483219779116575E10 ; 0.0
61 ; 1.2949995212829744E7 ; 2.0205739611935678E8 ; 7.610668111815311E8 ; 1.068526314514933E10 ; 0.0
62 ; 1.2952111142644865E7 ; 2.0207157106400228E8 ; 7.740168063943608E8 ; 1.0887320541268686E10 ; 0.0
63 ; 1.295464778121652E7 ; 2.0208588635085434E8 ; 7.869689175370057E8 ; 1.108939211233269E10 ; 0.0
64 ; 1.2960206663846612E7 ; 2.021003375550684E8 ; 7.999235653182222E8 ; 1.1291477998683544E10 ; 0.0
65 ; 1.296400746697652E7 ; 2.0211492034265465E8 ; 8.128837719820688E8 ; 1.1493578336238613E10 ; 0.0
66 ; 1.296556778670492E7 ; 2.0212963047014168E8 ; 8.258477794490453E8 ; 1.1695693256581268E10 ; 0.0
67 ; 1.2968876077463586E7 ; 2.0214446378406048E8 ; 8.388133472357502E8 ; 1.189782288705141E10 ; 0.0
68 ; 1.2972580074702112E7 ; 2.0215941622026688E8 ; 8.517822233132138E8 ; 1.2099967350835472E10 ; 0.0
69 ; 1.2973684154181756E7 ; 2.021744838031196E8 ; 8.64754803387916E8 ; 1.2302126767055738E10 ; 0.0
70 ; 1.2973962282671705E7 ; 2.0218966264452884E8 ; 8.777284875420977E8 ; 1.2504301250858858E10 ; 0.0
71 ; 1.297648480404567E7 ; 2.0220494894289085E8 ; 8.907024498247694E8 ; 1.2706490913503387E10 ; 0.0
72 ; 1.2979332304932067E7 ; 2.0222033898192197E8 ; 9.03678934628815E8 ; 1.2908695862446278E10 ; 0.0
73 ; 1.2983261123646773E7 ; 2.0223582912940487E8 ; 9.166582669337472E8 ; 1.31109162014282E10 ; 0.0
74 ; 1.2984606670717765E7 ; 2.0225141583585897E8 ; 9.296415280573939E8 ; 1.3313152030557604E10 ; 0.0
75 ; 1.2985306714027714E7 ; 2.0226709563314602E8 ; 9.426261347281116E8 ; 1.3515403446393463E10 ; 0.0
76 ; 1.2985365240119481E7 ; 2.0228286513302082E8 ; 9.556114414421394E8 ; 1.371767054202661E10 ; 0.0
77 ; 1.2989526452612357E7 ; 2.0229872102563682E8 ; 9.685968066822588E8 ; 1.391995340715963E10 ; 0.0
78 ; 1.2988894641328389E7 ; 2.023146600780144E8 ; 9.815863331348712E8 ; 1.4122252128185266E10 ; 0.0
79 ; 1.2983189031394714E7 ; 2.0233067913248062E8 ; 9.945752277761996E8 ; 1.432456678826328E10 ; 0.0
80 ; 1.2978758740817951E7 ; 2.0234677510508665E8 ; 1.0075584168075943E9 ; 1.4526897467395761E10 ; 0.0
81 ; 1.2982111832341233E7 ; 2.0236294498400998E8 ; 1.0205371755484122E9 ; 1.4729244242500849E10 ; 0.0
82 ; 1.2978854577518415E7 ; 2.023791858279471E8 ; 1.0335192873807534E9 ; 1.493160718748486E10 ; 0.0
83 ; 1.2977618769500276E7 ; 2.0239549476450178E8 ; 1.0464981419582719E9 ; 1.5133986373312807E10 ; 0.0
84 ; 1.2974190428109357E7 ; 2.0241186898857403E8 ; 1.0594757607277721E9 ; 1.5336381868077309E10 ; 0.0
85 ; 1.2966822259891097E7 ; 2.0242830576075402E8 ; 1.0724499511558815E9 ; 1.5538793737065884E10 ; 0.0
86 ; 1.296866405812178E7 ; 2.0244480240572423E8 ; 1.0854167734157727E9 ; 1.5741222042826637E10 ; 0.0
87 ; 1.2965112435646849E7 ; 2.024613563106742E8 ; 1.0983854374738944E9 ; 1.594366684523236E10 ; 0.0
88 ; 1.2960900394059194E7 ; 2.024779649237299E8 ; 1.1113505499095411E9 ; 1.6146128201543036E10 ; 0.0
89 ; 1.2956346702066442E7 ; 2.0249462575240123E8 ; 1.1243114503036003E9 ; 1.6348606166466766E10 ; 0.0
90 ; 1.295429225977292E7 ; 2.0251133636204928E8 ; 1.1372677970056667E9 ; 1.6551100792219168E10 ; 0.0
91 ; 1.2949741387468116E7 ; 2.0252809437437582E8 ; 1.1502220892654397E9 ; 1.6753612128581217E10 ; 0.0
92 ; 1.2943146877940636E7 ; 2.0254489746593642E8 ; 1.1631718306529078E9 ; 1.6956140222955593E10 ; 0.0
93 ; 1.2940993012608213E7 ; 2.025617433666792E8 ; 1.1761149775308485E9 ; 1.715868512042153E10 ; 0.0
94 ; 1.2943259381242469E7 ; 2.025786298585097E8 ; 1.1890559705434568E9 ; 1.7361246863788208E10 ; 0.0
95 ; 1.2936932176600277E7 ; 2.0259555477388364E8 ; 1.2019992299246993E9 ; 1.7563825493646717E10 ; 0.0
96 ; 1.2929955215844994E7 ; 2.0261251599442786E8 ; 1.2149361621012995E9 ; 1.77664210484206E10 ; 0.0
97 ; 1.2925914155328669E7 ; 2.0262951144959053E8 ; 1.2278661173171446E9 ; 1.7969033564415028E10 ; 0.0
98 ; 1.2918923305957891E7 ; 2.026465391153208E8 ; 1.2407920314724734E9 ; 1.8171663075864616E10 ; 0.0
99 ; 1.2913957939144094E7 ; 2.0266359701277852E8 ; 1.2537109547784312E9 ; 1.837430961497994E10 ; 0.0
100 ; 1.2913074540537598E7 ; 2.0268068320707396E8 ; 1.2666249127175753E9 ; 1.8576973211992718E10 ; 0.0
101 ; 1.2910098715338448E7 ; 2.026977958060381E8 ; 1.279537987258113E9 ; 1.877965389519979E10 ; 0.0
102 ; 1.2904499217154713E7 ; 2.0271493295902315E8 ; 1.2924480859734514E9 ; 1.898235169100583E10 ; 0.0
103 ; 1.2896929275211915E7 ; 2.0273209285573325E8 ; 1.305352585190606E9 ; 1.918506662396485E10 ; 0.0
104 ; 1.289687878289953E7 ; 2.0274927372508538E8 ; 1.318249514465818E9 ; 1.9387798716820583E10 ; 0.0
105 ; 1.2888182762808695E7 ; 2.0276647383410028E8 ; 1.3311463932487175E9 ; 1.959054799054567E10 ; 0.0
106 ; 1.2884884639782986E7 ; 2.0278369148682272E8 ; 1.3440345760115263E9 ; 1.979331446437977E10 ; 0.0
107 ; 1.2877376809019946E7 ; 2.028009250232714E8 ; 1.3569194606513093E9 ; 1.9996098155866592E10 ; 0.0
108 ; 1.2869586084228083E7 ; 2.028181728184174E8 ; 1.3697968374603293E9 ; 2.0198899080889862E10 ; 0.0
109 ; 1.2867346802166764E7 ; 2.0283543328119126E8 ; 1.3826664235445573E9 ; 2.040171725370828E10 ; 0.0
110 ; 1.286109912622194E7 ; 2.0285270485351822E8 ; 1.395533770346724E9 ; 2.060455268698947E10 ; 0.0
111 ; 1.285505374423961E7 ; 2.0286998600938064E8 ; 1.408394869472946E9 ; 2.080740539184299E10 ; 0.0
112 ; 1.2850366040377963E7 ; 2.0288727525390783E8 ; 1.4212499232171855E9 ; 2.101027537785237E10 ; 0.0
113 ; 1.2843745368476778E7 ; 2.0290457112249184E8 ; 1.4341002892575634E9 ; 2.1213162653106277E10 ; 0.0
114 ; 1.2838378942570096E7 ; 2.0292187217992973E8 ; 1.4469440346260402E9 ; 2.1416067224228767E10 ; 0.0
115 ; 1.2831446507474313E7 ; 2.029391770195907E8 ; 1.4597824135686104E9 ; 2.16189890964087E10 ; 0.0
116 ; 1.2825358429169651E7 ; 2.0295648426260835E8 ; 1.4726138600760849E9 ; 2.182192827342829E10 ; 0.0
117 ; 1.2821231809600843E7 ; 2.0297379255709684E8 ; 1.4854392185052545E9 ; 2.20248847576909E10 ; 0.0
118 ; 1.2811588671958258E7 ; 2.029911005773909E8 ; 1.4982604503148553E9 ; 2.2227858550247997E10 ; 0.0
119 ; 1.2807237008963365E7 ; 2.0300840702330872E8 ; 1.5110720389868135E9 ; 2.243084965082539E10 ; 0.0
120 ; 1.2798385195627445E7 ; 2.0302571061943722E8 ; 1.523879275995777E9 ; 2.2633858057848698E10 ; 0.0
121 ; 1.2790320933247354E7 ; 2.0304301011443937E8 ; 1.5366776611914043E9 ; 2.2836883768468136E10 ; 0.0
122 ; 1.2783933600920044E7 ; 2.0306030428038254E8 ; 1.5494679821246517E9 ; 2.3039926778582577E10 ; 0.0
123 ; 1.2779078134915682E7 ; 2.0307759191208768E8 ; 1.5622519157255716E9 ; 2.324298708286296E10 ; 0.0
124 ; 1.2769894511091672E7 ; 2.0309487182649854E8 ; 1.5750309938604872E9 ; 2.3446064674775047E10 ; 0.0
125 ; 1.276394949102423E7 ; 2.0311214286207047E8 ; 1.587800888371579E9 ; 2.3649159546601547E10 ; 0.0
126 ; 1.2756604125230879E7 ; 2.0312940387817818E8 ; 1.6005648378626032E9 ; 2.385227168946362E10 ; 0.0
127 ; 1.2746633842473645E7 ; 2.0314665375454196E8 ; 1.613321441987834E9 ; 2.4055401093341797E10 ; 0.0
128 ; 1.2738915661849814E7 ; 2.0316389139067185E8 ; 1.6260680758303077E9 ; 2.425854774709634E10 ; 0.0
129 ; 1.2733419922548309E7 ; 2.031811157053291E8 ; 1.6388069914921575E9 ; 2.446171163848701E10 ; 0.0
130 ; 1.2720599036723513E7 ; 2.0319832563600445E8 ; 1.6515404114147058E9 ; 2.466489275419234E10 ; 0.0
131 ; 1.2709354191654082E7 ; 2.0321552013841313E8 ; 1.6642610104514294E9 ; 2.4868091079828346E10 ; 0.0
132 ; 1.2700618656711053E7 ; 2.0323269818600503E8 ; 1.6769703646430833E9 ; 2.507130659996676E10 ; 0.0
133 ; 1.2684975387901502E7 ; 2.03249858769491E8 ; 1.6896709832997944E9 ; 2.5274539298152763E10 ; 0.0
134 ; 1.267575358704394E7 ; 2.0326700089638343E8 ; 1.702355958687696E9 ; 2.5477789156922253E10 ; 0.0
135 ; 1.2659763575730078E7 ; 2.0328412359055176E8 ; 1.71503171227474E9 ; 2.5681056157818638E10 ; 0.0
136 ; 1.264996905853469E7 ; 2.0330122589179158E8 ; 1.72769147585047E9 ; 2.588434028140919E10 ; 0.0
137 ; 1.263818373763287E7 ; 2.0331830685540757E8 ; 1.7403414449090047E9 ; 2.6087641507300983E10 ; 0.0
138 ; 1.262482666391375E7 ; 2.0333536555180934E8 ; 1.7529796286466374E9 ; 2.629095981415639E10 ; 0.0
139 ; 1.2612744976682328E7 ; 2.0335240106612024E8 ; 1.7656044553105512E9 ; 2.6494295179708202E10 ; 0.0
140 ; 1.2599615058225429E7 ; 2.033694124977983E8 ; 1.7782172002872336E9 ; 2.6697647580774323E10 ; 0.0
141 ; 1.2587311844756862E7 ; 2.0338639896026903E8 ; 1.790816815345459E9 ; 2.690101699327212E10 ; 0.0
142 ; 1.257000626221882E7 ; 2.0340335958056998E8 ; 1.8034041271902158E9 ; 2.710440339223239E10 ; 0.0
143 ; 1.2563499307288473E7 ; 2.0342029349900627E8 ; 1.8159741334524345E9 ; 2.730780675181296E10 ; 0.0
144 ; 1.2551273238096872E7 ; 2.0343719986881706E8 ; 1.828537632759723E9 ; 2.7511227045311966E10 ; 0.0
145 ; 1.2541222021377675E7 ; 2.0345407785585234E8 ; 1.84108890599782E9 ; 2.7714664245180782E10 ; 0.0
146 ; 1.2533358253952224E7 ; 2.034709266382601E8 ; 1.8536301280191975E9 ; 2.7918118323036636E10 ; 0.0
147 ; 1.2522781392745325E7 ; 2.0348774540618291E8 ; 1.8661634862731497E9 ; 2.8121589249674896E10 ; 0.0
148 ; 1.2516279294279227E7 ; 2.0350453336146444E8 ; 1.878686267665895E9 ; 2.8325076995081078E10 ; 0.0
149 ; 1.2509418630364925E7 ; 2.0352128971736476E8 ; 1.8912025469601743E9 ; 2.8528581528442543E10 ; 0.0
150 ; 1.2496225351622587E7 ; 2.0353801369828472E8 ; 1.9037119655905392E9 ; 2.873210281815991E10 ; 0.0
151 ; 1.2493823981983759E7 ; 2.0355470453949896E8 ; 1.9162081909421618E9 ; 2.8935640831858192E10 ; 0.0
152 ; 1.2478722693740712E7 ; 2.0357136148689705E8 ; 1.9287020149241455E9 ; 2.913919553639769E10 ; 0.0
153 ; 1.2471706220550789E7 ; 2.035879837967328E8 ; 1.941180737617886E9 ; 2.9342766897884586E10 ; 0.0
154 ; 1.2464313327597171E7 ; 2.0360457073538148E8 ; 1.9536524438384368E9 ; 2.954635488168132E10 ; 0.0
155 ; 1.2456375230145248E7 ; 2.036211215791041E8 ; 1.966116757166034E9 ; 2.9749959452416702E10 ; 0.0
156 ; 1.2441274633866979E7 ; 2.036376356138196E8 ; 1.9785731323961792E9 ; 2.9953580573995808E10 ; 0.0
157 ; 1.2433714782289438E7 ; 2.036541121348836E8 ; 1.9910144070300462E9 ; 3.0157218209609627E10 ; 0.0
158 ; 1.2426156273173194E7 ; 2.036705504468743E8 ; 2.0034481218123357E9 ; 3.036087232174451E10 ; 0.0
159 ; 1.2421412348546507E7 ; 2.0368694986338457E8 ; 2.0158742780855088E9 ; 3.0564542872191383E10 ; 0.0
160 ; 1.241069487710356E7 ; 2.0370330970682096E8 ; 2.0282956904340553E9 ; 3.0768229822054768E10 ; 0.0
161 ; 1.2401979309284227E7 ; 2.037196293082084E8 ; 2.040706385311159E9 ; 3.097193313176159E10 ; 0.0
162 ; 1.2390092703928038E7 ; 2.0373590800700116E8 ; 2.053108364620443E9 ; 3.1175652761069798E10 ; 0.0
163 ; 1.2383092121845817E7 ; 2.0375214515089956E8 ; 2.065498457324371E9 ; 3.1379388669076797E10 ; 0.0
164 ; 1.2374236222066943E7 ; 2.0376834009567207E8 ; 2.0778815494462168E9 ; 3.1583140814227695E10 ; 0.0
165 ; 1.236297951940821E7 ; 2.0378449220498314E8 ; 2.0902557856682837E9 ; 3.1786909154323368E10 ; 0.0
166 ; 1.2354538647538861E7 ; 2.0380060085022607E8 ; 2.102618765187692E9 ; 3.199069364652835E10 ; 0.0
167 ; 1.2346147668090235E7 ; 2.0381666541036096E8 ; 2.1149733038352308E9 ; 3.219449424737858E10 ; 0.0
168 ; 1.233656557293529E7 ; 2.0383268527175757E8 ; 2.1273194515033212E9 ; 3.239831091278894E10 ; 0.0
169 ; 1.232713819473386E7 ; 2.0384865982804307E8 ; 2.1396560170762565E9 ; 3.26021435980607E10 ; 0.0
170 ; 1.231694355425033E7 ; 2.0386458847995424E8 ; 2.1519831552709904E9 ; 3.2805992257888744E10 ; 0.0
171 ; 1.2310081810645955E7 ; 2.0388047063519403E8 ; 2.1643000988252406E9 ; 3.30098568463687E10 ; 0.0
172 ; 1.2297707540896095E7 ; 2.038963057082928E8 ; 2.1766101806358867E9 ; 3.321373731700389E10 ; 0.0
173 ; 1.2287478209490404E7 ; 2.039120931204733E8 ; 2.1889078881767826E9 ; 3.3417633622712185E10 ; 0.0
174 ; 1.2285124145823827E7 ; 2.039278322995199E8 ; 2.201195366386273E9 ; 3.3621545715832657E10 ; 0.0
175 ; 1.227586208335518E7 ; 2.039435226796518E8 ; 2.213480490532097E9 ; 3.3825473548132175E10 ; 0.0
176 ; 1.2270707756620862E7 ; 2.0395916370139986E8 ; 2.225756352615452E9 ; 3.402941707081183E10 ; 0.0
177 ; 1.2266244193170022E7 ; 2.0397475481148714E8 ; 2.2380270603720727E9 ; 3.423337623451323E10 ; 0.0
178 ; 1.2259378399677977E7 ; 2.0399029546271306E8 ; 2.250293304565243E9 ; 3.4437350989324715E10 ; 0.0
179 ; 1.2255471297681157E7 ; 2.04005785113841E8 ; 2.2625526829649205E9 ; 3.464134128478743E10 ; 0.0
180 ; 1.2246862928581437E7 ; 2.0402122322948903E8 ; 2.274808154262602E9 ; 3.484534706990127E10 ; 0.0
181 ; 1.2241655819128672E7 ; 2.040366092800241E8 ; 2.287055017191183E9 ; 3.504936829313076E10 ; 0.0
182 ; 1.2234967929394979E7 ; 2.0405194274145934E8 ; 2.2992966730103116E9 ; 3.525340490241078E10 ; 0.0
183 ; 1.2228878073617304E7 ; 2.040672230953541E8 ; 2.311531640939707E9 ; 3.5457456845152245E10 ; 0.0
184 ; 1.2225602444429366E7 ; 2.0408244982871738E8 ; 2.3237605190133243E9 ; 3.56615240682476E10 ; 0.0
185 ; 1.222177491966008E7 ; 2.040976224339136E8 ; 2.3359861214577537E9 ; 3.586560651807632E10 ; 0.0
186 ; 1.2212036133919867E7 ; 2.041127404085715E8 ; 2.3482078963774137E9 ; 3.606970414051023E10 ; 0.0
187 ; 1.2207793599893646E7 ; 2.0412780325549558E8 ; 2.3604199325113335E9 ; 3.62738168809188E10 ; 0.0
188 ; 1.220328829509664E7 ; 2.0414281048258E8 ; 2.372627726111227E9 ; 3.647794468417429E10 ; 0.0
189 ; 1.2197156117364414E7 ; 2.0415776160272524E8 ; 2.384831014406324E9 ; 3.6682087494656876E10 ; 0.0
190 ; 1.2190666136341354E7 ; 2.0417265613375682E8 ; 2.3970281705236883E9 ; 3.68862452562596E10 ; 0.0
191 ; 1.218436447105066E7 ; 2.041874935983468E8 ; 2.40921883666003E9 ; 3.709041791239336E10 ; 0.0
192 ; 1.217950287336737E7 ; 2.0420227352393726E8 ; 2.4214032011310806E9 ; 3.729460540599171E10 ; 0.0
193 ; 1.2173706170449434E7 ; 2.0421699544266596E8 ; 2.433582704004448E9 ; 3.749880767951565E10 ; 0.0
194 ; 1.2167074604910417E7 ; 2.0423165889129442E8 ; 2.445756410174897E9 ; 3.770302467495831E10 ; 0.0
195 ; 1.2163474319118036E7 ; 2.0424626341113776E8 ; 2.4579234847798076E9 ; 3.790725633384961E10 ; 0.0
