CSV File for the City 1 on Day 93
1 - Minute m 
2 - Power Consumed at minute m 
3 - Power Produced at minute m 
4 - Energy Consumed since the beginning of the day 
5 - Energy Produced since the beginning of the day 
6 - Energy Lost since the beginning of the day on lines starting from the city
 
0 ; 1.6097644687307257E7 ; 1.0553815614173004E8 ; 0.0 ; 0.0 ; 0.0
1 ; 1.6108825485932613E7 ; 1.056911059750576E8 ; 1.6097644687307257E7 ; 1.0553815614173004E8 ; 0.0
2 ; 1.6126008370761652E7 ; 1.0615283757526276E8 ; 3.220647017323987E7 ; 2.1122926211678764E8 ; 0.0
3 ; 1.6147441628263446E7 ; 1.069233524205553E8 ; 4.833247854400152E7 ; 3.173820996920504E8 ; 0.0
4 ; 1.617027010323636E7 ; 1.0800265183561689E8 ; 6.447992017226496E7 ; 4.243054521126057E8 ; 0.0
5 ; 1.6203566054990148E7 ; 1.0939073698428124E8 ; 8.065019027550133E7 ; 5.323081039482226E8 ; 0.0
6 ; 1.624132831179591E7 ; 1.1108760886298051E8 ; 9.685375633049147E7 ; 6.416988409325038E8 ; 0.0
7 ; 1.629231956267474E7 ; 1.1309326829504305E8 ; 1.1309508464228737E8 ; 7.527864497954843E8 ; 0.0
8 ; 1.6369778144267488E7 ; 1.1540771592591745E8 ; 1.2938740420496212E8 ; 8.658797180905273E8 ; 0.0
9 ; 1.6492045234875105E7 ; 1.1803095221938759E8 ; 1.457571823492296E8 ; 9.812874340164447E8 ; 0.0
10 ; 1.6670481604238503E7 ; 1.2096297745483154E8 ; 1.6224922758410472E8 ; 1.0993183862358322E9 ; 0.0
11 ; 1.6959727773676965E7 ; 1.2420379172556046E8 ; 1.7891970918834323E8 ; 1.2202813636906638E9 ; 0.0
12 ; 1.74218663077622E7 ; 1.2775339493826315E8 ; 1.958794369620202E8 ; 1.3444851554162242E9 ; 0.0
13 ; 1.7863056278831568E7 ; 1.3161178681356156E8 ; 2.133013032697824E8 ; 1.4722385503544874E9 ; 0.0
14 ; 1.7919454684625126E7 ; 1.357789668876719E8 ; 2.3116435954861397E8 ; 1.6038503371680489E9 ; 0.0
15 ; 1.794499098343852E7 ; 1.4025493451514542E8 ; 2.4908381423323908E8 ; 1.7396293040557208E9 ; 0.0
16 ; 1.7960134380675543E7 ; 1.4503968887265393E8 ; 2.670288052166776E8 ; 1.879884238570866E9 ; 0.0
17 ; 1.7979831213299546E7 ; 1.5013322896376517E8 ; 2.8498893959735316E8 ; 2.02492392744352E9 ; 0.0
18 ; 1.800415612208115E7 ; 1.5553555362464547E8 ; 3.0296877081065273E8 ; 2.175057156407285E9 ; 0.0
19 ; 1.8022474931478877E7 ; 1.6124666153061315E8 ; 3.209729269327339E8 ; 2.330592710031931E9 ; 0.0
20 ; 1.8047700148272663E7 ; 1.672665512034584E8 ; 3.3899540186421275E8 ; 2.491839371562544E9 ; 0.0
21 ; 1.8071961877211813E7 ; 1.7359522101943663E8 ; 3.570431020124854E8 ; 2.659105922766002E9 ; 0.0
22 ; 1.809072518432598E7 ; 1.8023266921783793E8 ; 3.751150638896972E8 ; 2.832701143785439E9 ; 0.0
23 ; 1.8110676410774637E7 ; 1.871788939100328E8 ; 3.932057890740232E8 ; 3.012933813003277E9 ; 0.0
24 ; 1.8135424376085676E7 ; 1.9443389308888954E8 ; 4.1131646548479784E8 ; 3.2001127069133096E9 ; 0.0
25 ; 1.815366094055107E7 ; 2.0068570553664818E8 ; 4.2945188986088353E8 ; 3.394546600002199E9 ; 0.0
26 ; 1.8171010182083014E7 ; 2.006878768716778E8 ; 4.476055508014346E8 ; 3.5952323055388474E9 ; 0.0
27 ; 1.8199325199630357E7 ; 2.0069017408331862E8 ; 4.657765609835176E8 ; 3.7959201824105253E9 ; 0.0
28 ; 1.8219780824311335E7 ; 2.0069259478858054E8 ; 4.8397588618314797E8 ; 3.996610356493844E9 ; 0.0
29 ; 1.8238172363542974E7 ; 2.006951365352171E8 ; 5.021956670074593E8 ; 4.1973029512824244E9 ; 0.0
30 ; 1.82613797997867E7 ; 2.0069779681138185E8 ; 5.2043383937100226E8 ; 4.397998087817641E9 ; 0.0
31 ; 1.8278581833626743E7 ; 2.0070057305504304E8 ; 5.38695219170789E8 ; 4.598695884629024E9 ; 0.0
32 ; 1.8299851326891463E7 ; 2.0070346266309726E8 ; 5.569738010044158E8 ; 4.799396457684067E9 ; 0.0
33 ; 1.8318971064325877E7 ; 2.0070646300013E8 ; 5.752736523313072E8 ; 5.000099920347164E9 ; 0.0
34 ; 1.8333256485460185E7 ; 2.0070957140678054E8 ; 5.935926233956331E8 ; 5.200806383347294E9 ; 0.0
35 ; 1.8354096229167912E7 ; 2.0071278520767674E8 ; 6.119258798810933E8 ; 5.401515954754074E9 ; 0.0
36 ; 1.8371764702983823E7 ; 2.007161017189125E8 ; 6.302799761102612E8 ; 5.602228739961751E9 ; 0.0
37 ; 1.8385087457881987E7 ; 2.007195182550496E8 ; 6.48651740813245E8 ; 5.802944841680663E9 ; 0.0
38 ; 1.839974735043261E7 ; 2.0072303213563135E8 ; 6.67036828271127E8 ; 6.003664359935713E9 ; 0.0
39 ; 1.841676838746447E7 ; 2.0072664069120288E8 ; 6.854365756215596E8 ; 6.204387392071344E9 ; 0.0
40 ; 1.842825467689936E7 ; 2.0073034126883766E8 ; 7.038533440090241E8 ; 6.4051140327625475E9 ; 0.0
41 ; 1.844250943068933E7 ; 2.007341312371762E8 ; 7.222815986859235E8 ; 6.605844374031385E9 ; 0.0
42 ; 1.8460551510826837E7 ; 2.0073800799098575E8 ; 7.407241081166128E8 ; 6.806578505268561E9 ; 0.0
43 ; 1.8468103414209522E7 ; 2.0074196895525473E8 ; 7.591846596274396E8 ; 7.007316513259547E9 ; 0.0
44 ; 1.8481433870259143E7 ; 2.0074601158883852E8 ; 7.776527630416491E8 ; 7.208058482214802E9 ; 0.0
45 ; 1.849501057440472E7 ; 2.007501333876748E8 ; 7.961341969119083E8 ; 7.40880449380364E9 ; 0.0
46 ; 1.850253139596703E7 ; 2.0075433188759014E8 ; 8.14629207486313E8 ; 7.609554627191315E9 ; 0.0
47 ; 1.8511476656092733E7 ; 2.0075860466671917E8 ; 8.3313173888228E8 ; 7.810308959078905E9 ; 0.0
48 ; 1.8518338790380284E7 ; 2.007629493475603E8 ; 8.516432155383728E8 ; 8.011067563745625E9 ; 0.0
49 ; 1.852583645594159E7 ; 2.0076736359869125E8 ; 8.70161554328753E8 ; 8.211830513093184E9 ; 0.0
50 ; 1.85354588972607E7 ; 2.0077184513616854E8 ; 8.886873907846946E8 ; 8.412597876691875E9 ; 0.0
51 ; 1.8541873510010477E7 ; 2.007763917246343E8 ; 9.072228496819552E8 ; 8.613369721828045E9 ; 0.0
52 ; 1.8546718269638304E7 ; 2.0078100117815474E8 ; 9.257647231919657E8 ; 8.81414611355268E9 ; 0.0
53 ; 1.8550657877695654E7 ; 2.007856713608121E8 ; 9.44311441461604E8 ; 9.014927114730833E9 ; 0.0
54 ; 1.855600378542907E7 ; 2.0079040018707275E8 ; 9.628620993392997E8 ; 9.215712786091644E9 ; 0.0
55 ; 1.8563018752855808E7 ; 2.007951856219527E8 ; 9.814181031247288E8 ; 9.416503186278717E9 ; 0.0
56 ; 1.857058692053286E7 ; 2.0080002568100017E8 ; 9.999811218775846E8 ; 9.61729837190067E9 ; 0.0
57 ; 1.857327820486084E7 ; 2.0080491843011507E8 ; 1.0185517087981174E9 ; 9.818098397581669E9 ; 0.0
58 ; 1.857894593981597E7 ; 2.0080986198522267E8 ; 1.0371249870029782E9 ; 1.0018903316011784E10 ; 0.0
59 ; 1.8588762271630764E7 ; 2.0081485451181906E8 ; 1.0557039329427942E9 ; 1.0219713177997005E10 ; 0.0
60 ; 1.8589427968439758E7 ; 2.0081989422440356E8 ; 1.074292695214425E9 ; 1.0420528032508825E10 ; 0.0
61 ; 1.8598036024202928E7 ; 2.0082497938581282E8 ; 1.092882123182865E9 ; 1.0621347926733229E10 ; 0.0
62 ; 1.85997714854854E7 ; 2.0083010830647036E8 ; 1.1114801592070677E9 ; 1.0822172906119041E10 ; 0.0
63 ; 1.8603207007009663E7 ; 2.0083527934356365E8 ; 1.130079930692553E9 ; 1.1023003014425512E10 ; 0.0
64 ; 1.8601700291502405E7 ; 2.0084049090015996E8 ; 1.1486831376995628E9 ; 1.1223838293769075E10 ; 0.0
65 ; 1.8608482180405498E7 ; 2.008457414242719E8 ; 1.1672848379910653E9 ; 1.1424678784669235E10 ; 0.0
66 ; 1.8616678815336008E7 ; 2.008510294078815E8 ; 1.1858933201714706E9 ; 1.1625524526093508E10 ; 0.0
67 ; 1.861993770090016E7 ; 2.008563533859314E8 ; 1.2045099989868066E9 ; 1.1826375555501389E10 ; 0.0
68 ; 1.8619472018001925E7 ; 2.008617119352913E8 ; 1.2231299366877067E9 ; 1.202723190888732E10 ; 0.0
69 ; 1.862103733905864E7 ; 2.0086710367370573E8 ; 1.2417494087057087E9 ; 1.222809362082261E10 ; 0.0
70 ; 1.8629411595367845E7 ; 2.0087252725873032E8 ; 1.2603704460447674E9 ; 1.2428960724496317E10 ; 0.0
71 ; 1.8630235794196934E7 ; 2.008779813866609E8 ; 1.2789998576401353E9 ; 1.2629833251755047E10 ; 0.0
72 ; 1.863291105474647E7 ; 2.0088346479146135E8 ; 1.2976300934343321E9 ; 1.2830711233141708E10 ; 0.0
73 ; 1.8634710497620795E7 ; 2.0088897624369353E8 ; 1.3162630044890785E9 ; 1.303159469793317E10 ; 0.0
74 ; 1.863543516440443E7 ; 2.008945145494538E8 ; 1.3348977149866993E9 ; 1.3232483674176865E10 ; 0.0
75 ; 1.864223985629548E7 ; 2.009000785493189E8 ; 1.3535331501511037E9 ; 1.3433378188726318E10 ; 0.0
76 ; 1.8643816314599685E7 ; 2.009056671173041E8 ; 1.3721753900073993E9 ; 1.3634278267275637E10 ; 0.0
77 ; 1.8643531043879952E7 ; 2.0091127915983614E8 ; 1.390819206321999E9 ; 1.383518393439294E10 ; 0.0
78 ; 1.864078279425801E7 ; 2.0091691361474296E8 ; 1.409462737365879E9 ; 1.4036095213552776E10 ; 0.0
79 ; 1.863335411927542E7 ; 2.0092256945026195E8 ; 1.4281035201601372E9 ; 1.4237012127167519E10 ; 0.0
80 ; 1.863573462536511E7 ; 2.0092824566406798E8 ; 1.4467368742794125E9 ; 1.443793469661778E10 ; 0.0
81 ; 1.8629896957830716E7 ; 2.0093394128232282E8 ; 1.4653726089047775E9 ; 1.4638862942281849E10 ; 0.0
82 ; 1.8621460729604635E7 ; 2.009396553587463E8 ; 1.4840025058626082E9 ; 1.483979688356417E10 ; 0.0
83 ; 1.8621082213426862E7 ; 2.0094538697371045E8 ; 1.502623966592213E9 ; 1.5040736538922916E10 ; 0.0
84 ; 1.86167162148511E7 ; 2.0095113523335683E8 ; 1.5212450488056397E9 ; 1.5241681925896627E10 ; 0.0
85 ; 1.8610771854824502E7 ; 2.0095689926873758E8 ; 1.539861765020491E9 ; 1.5442633061129984E10 ; 0.0
86 ; 1.8608760536288463E7 ; 2.0096267823498026E8 ; 1.5584725368753154E9 ; 1.5643589960398722E10 ; 0.0
87 ; 1.860027212897969E7 ; 2.009684713104769E8 ; 1.577081297411604E9 ; 1.5844552638633701E10 ; 0.0
88 ; 1.8597612227410153E7 ; 2.0097427769609684E8 ; 1.5956815695405836E9 ; 1.6045521109944178E10 ; 0.0
89 ; 1.8589330578132648E7 ; 2.0098009661442354E8 ; 1.6142791817679937E9 ; 1.6246495387640274E10 ; 0.0
90 ; 1.8592661057590425E7 ; 2.0098592730901507E8 ; 1.6328685123461263E9 ; 1.6447475484254698E10 ; 0.0
91 ; 1.8579946773935877E7 ; 2.0099176904368794E8 ; 1.6514611734037168E9 ; 1.6648461411563713E10 ; 0.0
92 ; 1.857577895098653E7 ; 2.0099762110182425E8 ; 1.6700411201776526E9 ; 1.68494531806074E10 ; 0.0
93 ; 1.8567752965971604E7 ; 2.0100348278570125E8 ; 1.6886168991286392E9 ; 1.7050450801709225E10 ; 0.0
94 ; 1.856062719761203E7 ; 2.010093534158435E8 ; 1.707184652094611E9 ; 1.7251454284494926E10 ; 0.0
95 ; 1.8556165232172545E7 ; 2.0101523233039662E8 ; 1.725745279292223E9 ; 1.745246363791077E10 ; 0.0
96 ; 1.8544479305857345E7 ; 2.0102111888452265E8 ; 1.7443014445243955E9 ; 1.7653478870241165E10 ; 0.0
97 ; 1.8541259236735906E7 ; 2.010270124498161E8 ; 1.762845923830253E9 ; 1.7854499989125687E10 ; 0.0
98 ; 1.8537703832522128E7 ; 2.010329124137403E8 ; 1.7813871830669887E9 ; 1.8055527001575504E10 ; 0.0
99 ; 1.853020198376186E7 ; 2.0103881817908376E8 ; 1.7999248868995109E9 ; 1.8256559913989246E10 ; 0.0
100 ; 1.8520775682746466E7 ; 2.010447291634355E8 ; 1.8184550888832726E9 ; 1.845759873216833E10 ; 0.0
101 ; 1.8517336166917205E7 ; 2.010506447986793E8 ; 1.836975864566019E9 ; 1.8658643461331768E10 ; 0.0
102 ; 1.8507900387065113E7 ; 2.0105656453050596E8 ; 1.8554932007329364E9 ; 1.8859694106130447E10 ; 0.0
103 ; 1.8502810901511148E7 ; 2.0106248781794322E8 ; 1.8740011011200016E9 ; 1.9060750670660954E10 ; 0.0
104 ; 1.8491593406928405E7 ; 2.0106841413290265E8 ; 1.8925039120215127E9 ; 1.9261813158478897E10 ; 0.0
105 ; 1.8483690871238846E7 ; 2.010743429597431E8 ; 1.910995505428441E9 ; 1.94628815726118E10 ; 0.0
106 ; 1.847405843163421E7 ; 2.0108027379485008E8 ; 1.92947919629968E9 ; 1.9663955915571545E10 ; 0.0
107 ; 1.8463270657205887E7 ; 2.0108620614623043E8 ; 1.9479532547313142E9 ; 1.9865036189366394E10 ; 0.0
108 ; 1.8462710230446428E7 ; 2.0109213953312218E8 ; 1.96641652538852E9 ; 2.0066122395512623E10 ; 0.0
109 ; 1.844714824396363E7 ; 2.010980734856184E8 ; 1.9848792356189663E9 ; 2.0267214535045746E10 ; 0.0
110 ; 1.8441636921193745E7 ; 2.011040075443054E8 ; 2.00332638386293E9 ; 2.0468312608531364E10 ; 0.0
111 ; 1.8434731258537654E7 ; 2.0110994125991383E8 ; 2.021768020784124E9 ; 2.066941661607567E10 ; 0.0
112 ; 1.8423911480843868E7 ; 2.0111587419298297E8 ; 2.0402027520426617E9 ; 2.0870526557335583E10 ; 0.0
113 ; 1.841368429063043E7 ; 2.0112180591353762E8 ; 2.0586266635235054E9 ; 2.1071642431528564E10 ; 0.0
114 ; 1.8403853114633013E7 ; 2.0112773600077656E8 ; 2.0770403478141358E9 ; 2.12727642374421E10 ; 0.0
115 ; 1.838784091929089E7 ; 2.011336640427729E8 ; 2.0954442009287689E9 ; 2.147389197344288E10 ; 0.0
116 ; 1.83856303552856E7 ; 2.0113958963618547E8 ; 2.1138320418480597E9 ; 2.1675025637485653E10 ; 0.0
117 ; 1.8369868636346865E7 ; 2.011455123859809E8 ; 2.1322176722033453E9 ; 2.1876165227121838E10 ; 0.0
118 ; 1.836196278733668E7 ; 2.011514319051661E8 ; 2.150587540839692E9 ; 2.207731073950782E10 ; 0.0
119 ; 1.8353002369286362E7 ; 2.011573478145304E8 ; 2.168949503627029E9 ; 2.2278462171412987E10 ; 0.0
120 ; 1.834237738583801E7 ; 2.0116325974239776E8 ; 2.1873025059963155E9 ; 2.2479619519227516E10 ; 0.0
121 ; 1.8336406480284896E7 ; 2.011691673243876E8 ; 2.2056448833821535E9 ; 2.2680782778969913E10 ; 0.0
122 ; 1.8325126083217666E7 ; 2.0117507020318493E8 ; 2.223981289862438E9 ; 2.28819519462943E10 ; 0.0
123 ; 1.831122200535984E7 ; 2.0118096802831864E8 ; 2.242306415945656E9 ; 2.3083127016497486E10 ; 0.0
124 ; 1.830309828112477E7 ; 2.011868604559483E8 ; 2.2606176379510155E9 ; 2.3284307984525806E10 ; 0.0
125 ; 1.828976113801306E7 ; 2.0119274714865848E8 ; 2.27892073623214E9 ; 2.3485494844981754E10 ; 0.0
126 ; 1.827587123992952E7 ; 2.0119862777526098E8 ; 2.297210497370153E9 ; 2.3686687592130413E10 ; 0.0
127 ; 1.8262299997170195E7 ; 2.0120450201060417E8 ; 2.3154863686100826E9 ; 2.3887886219905674E10 ; 0.0
128 ; 1.8254301194591157E7 ; 2.0121036953538924E8 ; 2.3337486686072526E9 ; 2.408909072191628E10 ; 0.0
129 ; 1.8242059104194988E7 ; 2.012162300359933E8 ; 2.3520029698018436E9 ; 2.4290301091451668E10 ; 0.0
130 ; 1.822416146219583E7 ; 2.0122208320429903E8 ; 2.3702450289060388E9 ; 2.449151732148766E10 ; 0.0
131 ; 1.8216480573873576E7 ; 2.012279287375304E8 ; 2.3884691903682346E9 ; 2.469273940469196E10 ; 0.0
132 ; 1.819123596186757E7 ; 2.0123376633809435E8 ; 2.406685670942108E9 ; 2.489396733342949E10 ; 0.0
133 ; 1.8173493259398185E7 ; 2.0123959571342838E8 ; 2.4248769069039755E9 ; 2.5095201099767582E10 ; 0.0
134 ; 1.8157772423399992E7 ; 2.0124541657585353E8 ; 2.4430504001633735E9 ; 2.529644069548101E10 ; 0.0
135 ; 1.8136487238573384E7 ; 2.0125122864243275E8 ; 2.4612081725867734E9 ; 2.5497686112056866E10 ; 0.0
136 ; 1.8116833008355115E7 ; 2.0125703163483444E8 ; 2.479344659825347E9 ; 2.56989373406993E10 ; 0.0
137 ; 1.810345344184943E7 ; 2.0126282527920064E8 ; 2.497461492833702E9 ; 2.5900194372334133E10 ; 0.0
138 ; 1.8078255225436095E7 ; 2.012686093060203E8 ; 2.5155649462755513E9 ; 2.6101457197613335E10 ; 0.0
139 ; 1.8064571584170192E7 ; 2.012743834500068E8 ; 2.5336432015009875E9 ; 2.6302725806919353E10 ; 0.0
140 ; 1.804328043197294E7 ; 2.0128014744998014E8 ; 2.551707773085158E9 ; 2.650400019036936E10 ; 0.0
141 ; 1.8023307111996304E7 ; 2.0128590104875293E8 ; 2.569751053517131E9 ; 2.6705280337819344E10 ; 0.0
142 ; 1.8004253167135965E7 ; 2.0129164399302092E8 ; 2.587774360629127E9 ; 2.6906566238868095E10 ; 0.0
143 ; 1.798509771808378E7 ; 2.012973760332569E8 ; 2.605778613796263E9 ; 2.7107857882861115E10 ; 0.0
144 ; 1.796533423787204E7 ; 2.0130309692360872E8 ; 2.623763711514347E9 ; 2.730915525889437E10 ; 0.0
145 ; 1.7953045317914672E7 ; 2.0130880642180085E8 ; 2.641729045752219E9 ; 2.7510458355817978E10 ; 0.0
146 ; 1.7940577611149073E7 ; 2.0131450428903922E8 ; 2.6596820910701337E9 ; 2.771176716223978E10 ; 0.0
147 ; 1.7927862665169746E7 ; 2.0132019028991956E8 ; 2.677622668681283E9 ; 2.791308166652882E10 ; 0.0
148 ; 1.7914311929744005E7 ; 2.0132586419233882E8 ; 2.6955505313464527E9 ; 2.811440185681874E10 ; 0.0
149 ; 1.7900442664604176E7 ; 2.0133152576740992E8 ; 2.7134648432761965E9 ; 2.8315727721011078E10 ; 0.0
150 ; 1.7890101346724793E7 ; 2.013371747893791E8 ; 2.7313652859408007E9 ; 2.851705924677849E10 ; 0.0
151 ; 1.787161367078144E7 ; 2.0134281103554642E8 ; 2.7492553872875257E9 ; 2.8718396421567867E10 ; 0.0
152 ; 1.7861701999992013E7 ; 2.0134843428618896E8 ; 2.7671270009583073E9 ; 2.8919739232603413E10 ; 0.0
153 ; 1.7847731901155837E7 ; 2.013540443244865E8 ; 2.784988702958299E9 ; 2.9121087666889603E10 ; 0.0
154 ; 1.783413854825378E7 ; 2.0135964093644994E8 ; 2.802836434859455E9 ; 2.932244171121409E10 ; 0.0
155 ; 1.7820457552341096E7 ; 2.013652239108521E8 ; 2.820670573407709E9 ; 2.952380135215054E10 ; 0.0
156 ; 1.7806813849185564E7 ; 2.013707930391609E8 ; 2.83849103096005E9 ; 2.972516657606139E10 ; 0.0
157 ; 1.779071931841531E7 ; 2.0137634811547476E8 ; 2.8562978448092356E9 ; 2.992653736910055E10 ; 0.0
158 ; 1.7776186066241186E7 ; 2.013818889364603E8 ; 2.8740885641276507E9 ; 3.0127913717216026E10 ; 0.0
159 ; 1.7763075893060427E7 ; 2.013874153012919E8 ; 2.891864750193892E9 ; 3.0329295606152485E10 ; 0.0
160 ; 1.775536875633371E7 ; 2.0139292701159388E8 ; 2.909627826086952E9 ; 3.0530683021453777E10 ; 0.0
161 ; 1.7736074515239093E7 ; 2.013984238713837E8 ; 2.927383194843286E9 ; 3.073207594846537E10 ; 0.0
162 ; 1.7727722583230063E7 ; 2.0140390568701804E8 ; 2.9451192693585253E9 ; 3.0933474372336754E10 ; 0.0
163 ; 1.7713506770285856E7 ; 2.0140937226714003E8 ; 2.9628469919417553E9 ; 3.1134878278023773E10 ; 0.0
164 ; 1.7698018713966873E7 ; 2.014148234226285E8 ; 2.9805604987120414E9 ; 3.1336287650290913E10 ; 0.0
165 ; 1.7686470345372487E7 ; 2.0142025896654883E8 ; 2.998258517426008E9 ; 3.1537702473713543E10 ; 0.0
166 ; 1.7669706891588215E7 ; 2.014256787141056E8 ; 3.015944987771381E9 ; 3.173912273268009E10 ; 0.0
167 ; 1.7652349807965547E7 ; 2.014310824825965E8 ; 3.033614694662969E9 ; 3.1940548411394196E10 ; 0.0
168 ; 1.764400178813464E7 ; 2.0143647009136802E8 ; 3.051267044470935E9 ; 3.2141979493876793E10 ; 0.0
169 ; 1.7625514308266327E7 ; 2.0144184136177263E8 ; 3.0689110462590694E9 ; 3.2343415963968163E10 ; 0.0
170 ; 1.7614552885058757E7 ; 2.01447196117127E8 ; 3.0865365605673356E9 ; 3.2544857805329937E10 ; 0.0
171 ; 1.759684733305001E7 ; 2.014525341826721E8 ; 3.1041511134523945E9 ; 3.2746305001447063E10 ; 0.0
172 ; 1.758312761453983E7 ; 2.0145785538553423E8 ; 3.1217479607854443E9 ; 3.2947757535629734E10 ; 0.0
173 ; 1.757210466171057E7 ; 2.0146315955468732E8 ; 3.139331088399984E9 ; 3.3149215391015266E10 ; 0.0
174 ; 1.7560983709233E7 ; 2.0146844652091676E8 ; 3.1569031930616946E9 ; 3.3350678550569954E10 ; 0.0
175 ; 1.755240587726872E7 ; 2.014737161167841E8 ; 3.1744641767709274E9 ; 3.355214699709087E10 ; 0.0
176 ; 1.754364294847315E7 ; 2.01478968176593E8 ; 3.192016582648196E9 ; 3.3753620713207653E10 ; 0.0
177 ; 1.7538054416179333E7 ; 2.0148420253635633E8 ; 3.209560225596669E9 ; 3.3955099681384247E10 ; 0.0
178 ; 1.752927056317114E7 ; 2.0148941903376412E8 ; 3.2270982800128484E9 ; 3.4156583883920605E10 ; 0.0
179 ; 1.7517729716882873E7 ; 2.0149461750815287E8 ; 3.2446275505760193E9 ; 3.435807330295437E10 ; 0.0
180 ; 1.7509963798368488E7 ; 2.0149979780047557E8 ; 3.262145280292902E9 ; 3.4559567920462524E10 ; 0.0
181 ; 1.7500926255032126E7 ; 2.0150495975327268E8 ; 3.2796552440912704E9 ; 3.4761067718263E10 ; 0.0
182 ; 1.7490416366337784E7 ; 2.015101032106443E8 ; 3.2971561703463025E9 ; 3.496257267801627E10 ; 0.0
183 ; 1.7483109203400742E7 ; 2.015152280182229E8 ; 3.3146465867126403E9 ; 3.516408278122692E10 ; 0.0
184 ; 1.747796207871853E7 ; 2.0152033402314705E8 ; 3.332129695916041E9 ; 3.536559800924515E10 ; 0.0
185 ; 1.746394793879937E7 ; 2.0152542107403606E8 ; 3.3496076579947596E9 ; 3.5567118343268295E10 ; 0.0
186 ; 1.74538194916705E7 ; 2.0153048902096525E8 ; 3.367071605933559E9 ; 3.576864376434233E10 ; 0.0
187 ; 1.744495410589994E7 ; 2.0153553771544215E8 ; 3.3845254254252295E9 ; 3.59701742533633E10 ; 0.0
188 ; 1.74377191509136E7 ; 2.0154056701038343E8 ; 3.4019703795311294E9 ; 3.6171709791078735E10 ; 0.0
189 ; 1.7424596328256365E7 ; 2.0154557676009232E8 ; 3.419408098682043E9 ; 3.637325035808912E10 ; 0.0
190 ; 1.7418224032636628E7 ; 2.0155056682023713E8 ; 3.436832695010299E9 ; 3.657479593484921E10 ; 0.0
191 ; 1.741040375867875E7 ; 2.015555370478301E8 ; 3.454250919042936E9 ; 3.677634650166945E10 ; 0.0
192 ; 1.740302463899923E7 ; 2.015604873012071E8 ; 3.4716613228016148E9 ; 3.697790203871728E10 ; 0.0
193 ; 1.7394125502782468E7 ; 2.0156541744000784E8 ; 3.489064347440614E9 ; 3.7179462526018486E10 ; 0.0
194 ; 1.7382949225811724E7 ; 2.015703273251568E8 ; 3.5064584729433966E9 ; 3.7381027943458496E10 ; 0.0
195 ; 1.737430090028716E7 ; 2.015752168188447E8 ; 3.5238414221692085E9 ; 3.758259827078365E10 ; 0.0
