CSV File for the City 4 on Day 234
1 - Minute m 
2 - Power Consumed at minute m 
3 - Power Produced at minute m 
4 - Energy Consumed since the beginning of the day 
5 - Energy Produced since the beginning of the day 
6 - Energy Lost since the beginning of the day on lines starting from the city
 
0 ; 721390.6723890048 ; 1.0537260364294031E8 ; 0.0 ; 0.0 ; 0.0
1 ; 730865.6441560872 ; 1.055159662677536E8 ; 721390.6723890048 ; 1.0537260364294031E8 ; 0.0
2 ; 738875.3021441619 ; 1.059685868652052E8 ; 1452256.316545092 ; 2.108885699106939E8 ; 0.0
3 ; 746169.2174212902 ; 1.0673057229920083E8 ; 2191131.618689254 ; 3.168571567758991E8 ; 0.0
4 ; 756221.588897926 ; 1.0780204499295282E8 ; 2937300.8361105444 ; 4.2358772907509995E8 ; 0.0
5 ; 769372.8574658784 ; 1.091831415792228E8 ; 3693522.42500847 ; 5.3138977406805277E8 ; 0.0
6 ; 787849.7617498819 ; 1.1087400886116627E8 ; 4462895.282474348 ; 6.405729156472756E8 ; 0.0
7 ; 810428.6351866063 ; 1.1287479616412932E8 ; 5250745.044224231 ; 7.514469245084418E8 ; 0.0
8 ; 845708.6253684518 ; 1.1518564373062128E8 ; 6061173.679410837 ; 8.643217206725712E8 ; 0.0
9 ; 896635.2669384723 ; 1.1780666807181633E8 ; 6906882.304779288 ; 9.795073644031925E8 ; 0.0
10 ; 975449.3058648789 ; 1.207379469014703E8 ; 7803517.5717177605 ; 1.097314032475009E9 ; 0.0
11 ; 1099900.54850744 ; 1.2397950757798919E8 ; 8778966.87758264 ; 1.2180519793764791E9 ; 0.0
12 ; 1296366.6184921113 ; 1.2753132274296698E8 ; 9878867.42609008 ; 1.3420314869544683E9 ; 0.0
13 ; 1487259.8265499666 ; 1.3139331468264782E8 ; 1.1175234044582192E7 ; 1.4695628096974351E9 ; 0.0
14 ; 1511294.4189784068 ; 1.3556536688585764E8 ; 1.2662493871132158E7 ; 1.600956124380083E9 ; 0.0
15 ; 1520631.7323710048 ; 1.4004733911008698E8 ; 1.4173788290110564E7 ; 1.7365214912659407E9 ; 0.0
16 ; 1531239.974988812 ; 1.4483908202998987E8 ; 1.5694420022481568E7 ; 1.8765688303760276E9 ; 0.0
17 ; 1540865.4660663605 ; 1.499404488424107E8 ; 1.722565999747038E7 ; 2.0214079124060175E9 ; 0.0
18 ; 1548499.6992735863 ; 1.5535130291458791E8 ; 1.876652546353674E7 ; 2.1713483612484283E9 ; 0.0
19 ; 1561907.6127687339 ; 1.6107152182330915E8 ; 2.0315025162810326E7 ; 2.3266996641630163E9 ; 0.0
20 ; 1572556.9572907535 ; 1.6710099870466867E8 ; 2.1876932775579058E7 ; 2.4877711859863253E9 ; 0.0
21 ; 1578687.9844839186 ; 1.7343964189088687E8 ; 2.344948973286981E7 ; 2.654872184690994E9 ; 0.0
22 ; 1586862.8891938317 ; 1.8008737361920613E8 ; 2.502817771735373E7 ; 2.8283118265818806E9 ; 0.0
23 ; 1600481.651690491 ; 1.870441283499391E8 ; 2.6615040606547564E7 ; 3.0083992002010865E9 ; 0.0
24 ; 1611372.7462686868 ; 1.9430985101838994E8 ; 2.8215522258238055E7 ; 3.1954433285510254E9 ; 0.0
25 ; 1615647.0555778737 ; 2.0057253629216492E8 ; 2.982689500450674E7 ; 3.389753179569415E9 ; 0.0
26 ; 1627772.7638412728 ; 2.005856931516772E8 ; 3.1442542060084615E7 ; 3.59032571586158E9 ; 0.0
27 ; 1636885.0801352647 ; 2.0059905816491547E8 ; 3.3070314823925886E7 ; 3.790911409013257E9 ; 0.0
28 ; 1645004.0261047913 ; 2.006126036830408E8 ; 3.470719990406115E7 ; 3.9915104671781726E9 ; 0.0
29 ; 1659089.0081906626 ; 2.0062630626090154E8 ; 3.635220393016595E7 ; 4.192123070861213E9 ; 0.0
30 ; 1666319.6753799203 ; 2.0064014593787944E8 ; 3.801129293835661E7 ; 4.392749377122115E9 ; 0.0
31 ; 1678593.3439782832 ; 2.006541056476587E8 ; 3.9677612613736525E7 ; 4.593389523059995E9 ; 0.0
32 ; 1686886.2968826608 ; 2.0066817073457584E8 ; 4.135620595771481E7 ; 4.794043628707653E9 ; 0.0
33 ; 1691968.4484320711 ; 2.006823285572656E8 ; 4.304309225459747E7 ; 4.994711799442229E9 ; 0.0
34 ; 1702812.1470716528 ; 2.0069656816342694E8 ; 4.473506070302954E7 ; 5.195394127999495E9 ; 0.0
35 ; 1713219.8464341927 ; 2.0071088002237958E8 ; 4.6437872850101195E7 ; 5.396090696162922E9 ; 0.0
36 ; 1720021.3781761373 ; 2.007252558045467E8 ; 4.8151092696535386E7 ; 5.596801576185302E9 ; 0.0
37 ; 1727844.4360666578 ; 2.0073968819906417E8 ; 4.9871114074711524E7 ; 5.797526831989848E9 ; 0.0
38 ; 1735398.3170576936 ; 2.0075417076241487E8 ; 5.159895851077818E7 ; 5.998266520188912E9 ; 0.0
39 ; 1741975.7165835595 ; 2.0076869779236656E8 ; 5.333435682783587E7 ; 6.199020690951327E9 ; 0.0
40 ; 1751550.4693440185 ; 2.007832642226017E8 ; 5.507633254441943E7 ; 6.399789388743694E9 ; 0.0
41 ; 1757994.062754758 ; 2.0079786553431937E8 ; 5.682788301376345E7 ; 6.600572652966296E9 ; 0.0
42 ; 1763630.019529991 ; 2.0081249768180394E8 ; 5.858587707651821E7 ; 6.801370518500615E9 ; 0.0
43 ; 1770219.0554063641 ; 2.008271570295257E8 ; 6.03495070960482E7 ; 7.002183016182419E9 ; 0.0
44 ; 1775271.463528644 ; 2.0084184029879636E8 ; 6.211972615145456E7 ; 7.203010173211945E9 ; 0.0
45 ; 1782501.449133937 ; 2.008565445223688E8 ; 6.38949976149832E7 ; 7.403852013510741E9 ; 0.0
46 ; 1788107.428100305 ; 2.0087126700566554E8 ; 6.567749906411714E7 ; 7.60470855803311E9 ; 0.0
47 ; 1792982.566371456 ; 2.0088600529355693E8 ; 6.746560649221745E7 ; 7.805579825038775E9 ; 0.0
48 ; 1799335.9787270376 ; 2.0090075714180195E8 ; 6.92585890585889E7 ; 8.006465830332333E9 ; 0.0
49 ; 1802097.2638092088 ; 2.0091552049241993E8 ; 7.105792503731595E7 ; 8.207366587474134E9 ; 0.0
50 ; 1809773.5733056364 ; 2.0093029345238617E8 ; 7.286002230112515E7 ; 8.408282107966555E9 ; 0.0
51 ; 1810460.2988516674 ; 2.0094507427514884E8 ; 7.466979587443079E7 ; 8.609212401418941E9 ; 0.0
52 ; 1815216.5177207529 ; 2.009598613445469E8 ; 7.648025617328246E7 ; 8.81015747569409E9 ; 0.0
53 ; 1817308.9114419809 ; 2.009746531607781E8 ; 7.829547269100322E7 ; 9.011117337038637E9 ; 0.0
54 ; 1822032.346392199 ; 2.0098944832812285E8 ; 8.01127816024452E7 ; 9.212091990199415E9 ; 0.0
55 ; 1826377.9571251844 ; 2.0100424554417616E8 ; 8.19348139488374E7 ; 9.413081438527538E9 ; 0.0
56 ; 1829911.9589978778 ; 2.010190435903785E8 ; 8.376119190596259E7 ; 9.614085684071714E9 ; 0.0
57 ; 1833799.552528779 ; 2.010338413236685E8 ; 8.559110386496046E7 ; 9.815104727662092E9 ; 0.0
58 ; 1837449.4518206164 ; 2.010486376691074E8 ; 8.742490341748925E7 ; 1.0016138568985762E10 ; 0.0
59 ; 1838388.4949983687 ; 2.0106343161334708E8 ; 8.926235286930986E7 ; 1.021718720665487E10 ; 0.0
60 ; 1844960.6984934928 ; 2.010782221988322E8 ; 9.110074136430822E7 ; 1.0418250638268217E10 ; 0.0
61 ; 1847413.6820718783 ; 2.0109300851864374E8 ; 9.294570206280172E7 ; 1.0619328860467049E10 ; 0.0
62 ; 1851025.5113138687 ; 2.0110778971190214E8 ; 9.47931157448736E7 ; 1.0820421868985693E10 ; 0.0
63 ; 1853312.382730586 ; 2.0112256495966262E8 ; 9.664414125618747E7 ; 1.1021529658697596E10 ; 0.0
64 ; 1857304.282011061 ; 2.0113733348124182E8 ; 9.849745363891806E7 ; 1.1222652223657259E10 ; 0.0
65 ; 1860514.8305455393 ; 2.0115209453092453E8 ; 1.0035475792092912E8 ; 1.14237895571385E10 ; 0.0
66 ; 1865828.8731061872 ; 2.0116684739500606E8 ; 1.0221527275147466E8 ; 1.1624941651669424E10 ; 0.0
67 ; 1868047.7970749356 ; 2.0118159138913128E8 ; 1.0408110162458085E8 ; 1.182610849906443E10 ; 0.0
68 ; 1869556.5400669584 ; 2.011963258558961E8 ; 1.0594914942165577E8 ; 1.2027290090453562E10 ; 0.0
69 ; 1873133.9632320448 ; 2.0121105016268247E8 ; 1.0781870596172273E8 ; 1.2228486416309458E10 ; 0.0
70 ; 1874292.604651392 ; 2.01225763699701E8 ; 1.0969183992495477E8 ; 1.242969746647214E10 ; 0.0
71 ; 1877076.0641849714 ; 2.0124046587821782E8 ; 1.1156613252960616E8 ; 1.263092323017184E10 ; 0.0
72 ; 1881501.740065442 ; 2.0125515612894702E8 ; 1.1344320859379114E8 ; 1.2832163696050058E10 ; 0.0
73 ; 1881883.4795215146 ; 2.0126983390059018E8 ; 1.1532471033385658E8 ; 1.3033418852179005E10 ; 0.0
74 ; 1885452.8554090827 ; 2.012844986585081E8 ; 1.172065938133781E8 ; 1.3234688686079596E10 ; 0.0
75 ; 1888539.1968712248 ; 2.0129914988351104E8 ; 1.1909204666878718E8 ; 1.3435973184738104E10 ; 0.0
76 ; 1890382.9653796589 ; 2.0131378707075533E8 ; 1.209805858656584E8 ; 1.3637272334621614E10 ; 0.0
77 ; 1892606.430743393 ; 2.013284097287358E8 ; 1.2287096883103806E8 ; 1.383858612169237E10 ; 0.0
78 ; 1892239.8727741216 ; 2.013430173783644E8 ; 1.2476357526178145E8 ; 1.4039914531421104E10 ; 0.0
79 ; 1895914.6596154573 ; 2.0135760955212694E8 ; 1.2665581513455558E8 ; 1.4241257548799469E10 ; 0.0
80 ; 1894157.2678726993 ; 2.0137218579330993E8 ; 1.2855172979417104E8 ; 1.4442615158351597E10 ; 0.0
81 ; 1897181.9827544433 ; 2.0138674565529126E8 ; 1.3044588706204374E8 ; 1.4643987344144907E10 ; 0.0
82 ; 1893504.7337232796 ; 2.014012887008888E8 ; 1.3234306904479818E8 ; 1.4845374089800198E10 ; 0.0
83 ; 1896590.526626985 ; 2.01415814501761E8 ; 1.3423657377852145E8 ; 1.5046775378501087E10 ; 0.0
84 ; 1896241.4244676484 ; 2.0143032263785526E8 ; 1.3613316430514842E8 ; 1.5248191193002848E10 ; 0.0
85 ; 1891539.6788017438 ; 2.014448126968998E8 ; 1.3802940572961608E8 ; 1.5449621515640703E10 ; 0.0
86 ; 1895645.6374733793 ; 2.0145928427393454E8 ; 1.3992094540841782E8 ; 1.5651066328337603E10 ; 0.0
87 ; 1895023.230115938 ; 2.0147373697087827E8 ; 1.418165910458912E8 ; 1.5852525612611538E10 ; 0.0
88 ; 1894587.4063608702 ; 2.014881703961286E8 ; 1.4371161427600715E8 ; 1.6053999349582417E10 ; 0.0
89 ; 1894933.5881361181 ; 2.0150258416419163E8 ; 1.45606201682368E8 ; 1.6255487519978544E10 ; 0.0
90 ; 1893344.3849047672 ; 2.0151697789533955E8 ; 1.4750113527050412E8 ; 1.6456990104142736E10 ; 0.0
91 ; 1894637.124181622 ; 2.015313512152929E8 ; 1.493944796554089E8 ; 1.6658507082038076E10 ; 0.0
92 ; 1893197.9550111878 ; 2.015457037549263E8 ; 1.5128911677959052E8 ; 1.6860038433253368E10 ; 0.0
93 ; 1892713.9604516944 ; 2.0156003514999497E8 ; 1.531823147346017E8 ; 1.7061584137008295E10 ; 0.0
94 ; 1890785.4516255867 ; 2.01574345040881E8 ; 1.550750286950534E8 ; 1.726314417215829E10 ; 0.0
95 ; 1892219.1254266875 ; 2.015886330723573E8 ; 1.5696581414667898E8 ; 1.7464718517199173E10 ; 0.0
96 ; 1891440.9346035689 ; 2.016028988933681E8 ; 1.5885803327210566E8 ; 1.766630715027153E10 ; 0.0
97 ; 1892120.5340698038 ; 2.016171421568246E8 ; 1.6074947420670924E8 ; 1.7867910049164898E10 ; 0.0
98 ; 1891809.8443950296 ; 2.0163136251941457E8 ; 1.6264159474077904E8 ; 1.8069527191321724E10 ; 0.0
99 ; 1891806.7190040706 ; 2.01645559641425E8 ; 1.6453340458517408E8 ; 1.8271158553841137E10 ; 0.0
100 ; 1890013.4177422647 ; 2.016597331865765E8 ; 1.6642521130417815E8 ; 1.8472804113482563E10 ; 0.0
101 ; 1888262.179232767 ; 2.0167388282186878E8 ; 1.683152247219204E8 ; 1.867446384666914E10 ; 0.0
102 ; 1886105.7091038686 ; 2.0168800821743646E8 ; 1.7020348690115318E8 ; 1.887613772949101E10 ; 0.0
103 ; 1883273.6515962386 ; 2.017021090464142E8 ; 1.7208959261025706E8 ; 1.9077825737708447E10 ; 0.0
104 ; 1884834.7384667424 ; 2.0171618498481062E8 ; 1.739728662618533E8 ; 1.927952784675486E10 ; 0.0
105 ; 1884297.0888249986 ; 2.017302357113904E8 ; 1.7585770100032005E8 ; 1.948124403173967E10 ; 0.0
106 ; 1880966.4417519544 ; 2.0174426090756398E8 ; 1.7774199808914503E8 ; 1.968297426745106E10 ; 0.0
107 ; 1881388.6640536063 ; 2.0175826025728408E8 ; 1.79622964530897E8 ; 1.9884718528358624E10 ; 0.0
108 ; 1880702.0295096906 ; 2.017722334469489E8 ; 1.815043531949506E8 ; 2.0086476788615906E10 ; 0.0
109 ; 1877891.2582554023 ; 2.017861801653114E8 ; 1.833850552244603E8 ; 2.0288249022062855E10 ; 0.0
110 ; 1878118.8356049606 ; 2.0180010010339412E8 ; 1.852629464827157E8 ; 2.0490035202228165E10 ; 0.0
111 ; 1875688.6476435491 ; 2.0181399295440942E8 ; 1.8714106531832066E8 ; 2.069183530233156E10 ; 0.0
112 ; 1872315.041028068 ; 2.018278584136845E8 ; 1.890167539659642E8 ; 2.089364929528597E10 ; 0.0
113 ; 1871117.5304522724 ; 2.0184169617859092E8 ; 1.9088906900699228E8 ; 2.1095477153699654E10 ; 0.0
114 ; 1870569.5770722267 ; 2.0185550594847876E8 ; 1.9276018653744456E8 ; 2.1297318849878246E10 ; 0.0
115 ; 1869722.6381594588 ; 2.0186928742461437E8 ; 1.946307561145168E8 ; 2.1499174355826725E10 ; 0.0
116 ; 1869057.3214290752 ; 2.0188304031012198E8 ; 1.9650047875267625E8 ; 2.170104364325134E10 ; 0.0
117 ; 1866522.0109184214 ; 2.0189676430992907E8 ; 1.9836953607410532E8 ; 2.1902926683561462E10 ; 0.0
118 ; 1864524.1842357004 ; 2.019104591307145E8 ; 2.0023605808502373E8 ; 2.210482344787139E10 ; 0.0
119 ; 1862868.0952094588 ; 2.0192412448086023E8 ; 2.0210058226925942E8 ; 2.2306733907002106E10 ; 0.0
120 ; 1859920.1185925948 ; 2.019377600704055E8 ; 2.0396345036446887E8 ; 2.2508658031482967E10 ; 0.0
121 ; 1856455.1898014613 ; 2.0195136561100405E8 ; 2.0582337048306146E8 ; 2.271059579155337E10 ; 0.0
122 ; 1856199.2667163182 ; 2.0196494081588346E8 ; 2.0767982567286292E8 ; 2.2912547157164375E10 ; 0.0
123 ; 1853654.9438603043 ; 2.0197848539980727E8 ; 2.0953602493957925E8 ; 2.311451209798026E10 ; 0.0
124 ; 1853726.644968684 ; 2.0199199907903907E8 ; 2.1138967988343954E8 ; 2.3316490583380066E10 ; 0.0
125 ; 1851027.6390111244 ; 2.020054815713087E8 ; 2.1324340652840823E8 ; 2.3518482582459106E10 ; 0.0
126 ; 1851659.7607463275 ; 2.0201893259578064E8 ; 2.1509443416741934E8 ; 2.3720488064030415E10 ; 0.0
127 ; 1848343.8865253783 ; 2.0203235187302387E8 ; 2.1694609392816567E8 ; 2.3922506996626194E10 ; 0.0
128 ; 1843381.6283050163 ; 2.0204573912498376E8 ; 2.1879443781469107E8 ; 2.4124539348499218E10 ; 0.0
129 ; 1841502.684233962 ; 2.0205909407495558E8 ; 2.2063781944299608E8 ; 2.4326585087624203E10 ; 0.0
130 ; 1835010.4378019448 ; 2.0207241644755942E8 ; 2.2247932212723005E8 ; 2.4528644181699158E10 ; 0.0
131 ; 1833166.0981336036 ; 2.0208570596871656E8 ; 2.24314332565032E8 ; 2.4730716598146717E10 ; 0.0
132 ; 1828307.6379029527 ; 2.0209896236562744E8 ; 2.261474986631656E8 ; 2.4932802304115433E10 ; 0.0
133 ; 1823074.9822681327 ; 2.0211218536675066E8 ; 2.2797580630106854E8 ; 2.513490126648106E10 ; 0.0
134 ; 1819323.6189332732 ; 2.0212537470178336E8 ; 2.2979888128333667E8 ; 2.533701345184781E10 ; 0.0
135 ; 1811903.3036872884 ; 2.021385301016426E8 ; 2.3161820490226993E8 ; 2.553913882654959E10 ; 0.0
136 ; 1807389.8153134205 ; 2.021516512984481E8 ; 2.334301082059572E8 ; 2.5741277356651234E10 ; 0.0
137 ; 1803606.3223037915 ; 2.0216473802550554E8 ; 2.3523749802127063E8 ; 2.594342900794968E10 ; 0.0
138 ; 1795695.668668622 ; 2.0217779001729152E8 ; 2.3704110434357443E8 ; 2.6145593745975185E10 ; 0.0
139 ; 1790350.1252604164 ; 2.0219080700943866E8 ; 2.3883680001224306E8 ; 2.6347771535992477E10 ; 0.0
140 ; 1788764.774897338 ; 2.0220378873872223E8 ; 2.4062715013750347E8 ; 2.6549962343001915E10 ; 0.0
141 ; 1783052.3594496239 ; 2.0221673494304714E8 ; 2.424159149124008E8 ; 2.675216613174064E10 ; 0.0
142 ; 1778415.478120818 ; 2.0222964536143598E8 ; 2.4419896727185044E8 ; 2.6954382866683685E10 ; 0.0
143 ; 1770718.478214302 ; 2.0224251973401773E8 ; 2.4597738274997124E8 ; 2.715661251204512E10 ; 0.0
144 ; 1765282.5807368723 ; 2.0225535780201703E8 ; 2.4774810122818553E8 ; 2.7358855031779137E10 ; 0.0
145 ; 1763680.9609610725 ; 2.0226815930774435E8 ; 2.495133838089224E8 ; 2.7561110389581154E10 ; 0.0
146 ; 1764007.6821343142 ; 2.022809239945866E8 ; 2.5127706476988348E8 ; 2.7763378548888897E10 ; 0.0
147 ; 1759014.6081371433 ; 2.0229365160699838E8 ; 2.5304107245201778E8 ; 2.7965659472883484E10 ; 0.0
148 ; 1757170.5329546675 ; 2.0230634189049393E8 ; 2.548000870601549E8 ; 2.8167953124490482E10 ; 0.0
149 ; 1752592.7317623796 ; 2.0231899459163928E8 ; 2.5655725759310958E8 ; 2.8370259466380978E10 ; 0.0
150 ; 1752494.2213288771 ; 2.0233160945804536E8 ; 2.5830985032487196E8 ; 2.857257846097262E10 ; 0.0
151 ; 1749869.1376959071 ; 2.023441862383612E8 ; 2.6006234454620084E8 ; 2.8774910070430664E10 ; 0.0
152 ; 1745449.0951174286 ; 2.023567246822678E8 ; 2.6181221368389675E8 ; 2.8977254256669025E10 ; 0.0
153 ; 1744289.0085326862 ; 2.0236922454047236E8 ; 2.6355766277901417E8 ; 2.917961098135129E10 ; 0.0
154 ; 1740756.9371032552 ; 2.02381685564703E8 ; 2.6530195178754684E8 ; 2.9381980205891766E10 ; 0.0
155 ; 1740295.1496016104 ; 2.0239410750770363E8 ; 2.6704270872465008E8 ; 2.9584361891456467E10 ; 0.0
156 ; 1738136.7752115338 ; 2.0240649012322968E8 ; 2.687830038742517E8 ; 2.978675599896417E10 ; 0.0
157 ; 1734030.3913039616 ; 2.0241883316604358E8 ; 2.7052114064946324E8 ; 2.99891624890874E10 ; 0.0
158 ; 1730861.7232697222 ; 2.024311363919111E8 ; 2.722551710407672E8 ; 3.019158132225344E10 ; 0.0
159 ; 1728344.9874092704 ; 2.0244339955759764E8 ; 2.739860327640369E8 ; 3.039401245864535E10 ; 0.0
160 ; 1728153.84998764 ; 2.02455622420865E8 ; 2.757143777514462E8 ; 3.059645585820295E10 ; 0.0
161 ; 1724037.9381057145 ; 2.0246780474046853E8 ; 2.774425316014338E8 ; 3.0798911480623814E10 ; 0.0
162 ; 1722370.0413798888 ; 2.024799462761543E8 ; 2.791665695395395E8 ; 3.100137928536428E10 ; 0.0
163 ; 1718234.1987786375 ; 2.0249204678865674E8 ; 2.808889395809194E8 ; 3.1203859231640434E10 ; 0.0
164 ; 1716493.4235086385 ; 2.0250410603969646E8 ; 2.82607173779698E8 ; 3.1406351278429092E10 ; 0.0
165 ; 1711935.2390221097 ; 2.0251612379197827E8 ; 2.8432366720320666E8 ; 3.160885538446879E10 ; 0.0
166 ; 1709314.9472111624 ; 2.0252809980918956E8 ; 2.860356024422288E8 ; 3.1811371508260765E10 ; 0.0
167 ; 1708490.4170787244 ; 2.025400338559987E8 ; 2.8774491738943994E8 ; 3.2013899608069954E10 ; 0.0
168 ; 1702693.4690133017 ; 2.025519256980538E8 ; 2.894534078065187E8 ; 3.2216439641925953E10 ; 0.0
169 ; 1700666.6770580779 ; 2.0256377510198167E8 ; 2.9115610127553195E8 ; 3.241899156762401E10 ; 0.0
170 ; 1698293.8858488705 ; 2.0257558183538678E8 ; 2.9285676795259005E8 ; 3.262155534272599E10 ; 0.0
171 ; 1695847.1721741448 ; 2.0258734566685075E8 ; 2.945550618384389E8 ; 3.282413092456138E10 ; 0.0
172 ; 1695686.8701025613 ; 2.0259906636593148E8 ; 2.962509090106131E8 ; 3.302671827022823E10 ; 0.0
173 ; 1691827.9452950198 ; 2.026107437031631E8 ; 2.9794659588071567E8 ; 3.3229317336594162E10 ; 0.0
174 ; 1688443.5117895592 ; 2.0262237745005545E8 ; 2.996384238260107E8 ; 3.3431928080297325E10 ; 0.0
175 ; 1686249.5891990205 ; 2.0263396737909412E8 ; 3.0132686733780026E8 ; 3.363455045774738E10 ; 0.0
176 ; 1687047.1361504798 ; 2.0264551326374054E8 ; 3.030131169269993E8 ; 3.3837184425126472E10 ; 0.0
177 ; 1685831.9475351947 ; 2.0265701487843204E8 ; 3.0470016406314975E8 ; 3.4039829938390213E10 ; 0.0
178 ; 1680213.1216137279 ; 2.0266847199858215E8 ; 3.0638599601068497E8 ; 3.4242486953268646E10 ; 0.0
179 ; 1681384.3737113615 ; 2.026798844005812E8 ; 3.080662091322987E8 ; 3.444515542526723E10 ; 0.0
180 ; 1677389.84823631 ; 2.026912518617967E8 ; 3.0974759350601006E8 ; 3.464783530966781E10 ; 0.0
181 ; 1674055.4798267812 ; 2.02702574160574E8 ; 3.114249833542464E8 ; 3.48505265615296E10 ; 0.0
182 ; 1674305.3068618637 ; 2.0271385107623714E8 ; 3.130990388340732E8 ; 3.505322913569018E10 ; 0.0
183 ; 1674881.746403484 ; 2.0272508238908967E8 ; 3.1477334414093506E8 ; 3.525594298676642E10 ; 0.0
184 ; 1670154.9041008698 ; 2.0273626788041553E8 ; 3.164482258873385E8 ; 3.545866806915551E10 ; 0.0
185 ; 1667904.1254869998 ; 2.027474073324802E8 ; 3.181183807914394E8 ; 3.566140433703593E10 ; 0.0
186 ; 1664517.9360298773 ; 2.027585005285318E8 ; 3.197862849169264E8 ; 3.586415174436841E10 ; 0.0
187 ; 1661505.1297876548 ; 2.0276954725280222E8 ; 3.2145080285295624E8 ; 3.606691024489694E10 ; 0.0
188 ; 1662880.5720496527 ; 2.0278054729050854E8 ; 3.231123079827439E8 ; 3.626967979214974E10 ; 0.0
189 ; 1659890.4834499198 ; 2.0279150042785433E8 ; 3.247751885547936E8 ; 3.6472460339440254E10 ; 0.0
190 ; 1658016.2485915858 ; 2.0280240645203102E8 ; 3.2643507903824353E8 ; 3.667525183986811E10 ; 0.0
191 ; 1657890.8789665129 ; 2.0281326515121958E8 ; 3.2809309528683513E8 ; 3.6878054246320145E10 ; 0.0
192 ; 1656047.5042301593 ; 2.0282407631459188E8 ; 3.2975098616580164E8 ; 3.708086751147137E10 ; 0.0
193 ; 1652976.2552509224 ; 2.028348397323125E8 ; 3.314070336700318E8 ; 3.728369158778596E10 ; 0.0
194 ; 1654275.2836328247 ; 2.0284555519554025E8 ; 3.330600099252827E8 ; 3.748652642751827E10 ; 0.0
195 ; 1649108.3271589673 ; 2.0285622249643007E8 ; 3.3471428520891553E8 ; 3.768937198271381E10 ; 0.0
196 ; 1646652.875237149 ; 2.028668414281347E8 ; 3.363633935360745E8 ; 3.789222820521024E10 ; 0.0
197 ; 1644470.3768128261 ; 2.0287741178480664E8 ; 3.380100464113117E8 ; 3.8095095046638374E10 ; 0.0
198 ; 1642539.709549661 ; 2.028879333615999E8 ; 3.396545167881245E8 ; 3.829797245842318E10 ; 0.0
199 ; 1641165.604963256 ; 2.0289840595467204E8 ; 3.4129705649767417E8 ; 3.850086039178478E10 ; 0.0
