CSV File for the City 6 on Day 21
1 - Minute m 
2 - Power Consumed at minute m 
3 - Power Produced at minute m 
4 - Energy Consumed since the beginning of the day 
5 - Energy Produced since the beginning of the day 
6 - Energy Lost since the beginning of the day on lines starting from the city
 
0 ; 8664871.558440786 ; 1.0276174039390977E7 ; 0.0 ; 0.0 ; 0.0
1 ; 8675563.412997195 ; 1.0276174039390977E7 ; 8664871.558440786 ; 1.0276174039390977E7 ; 0.0
2 ; 8684993.932507118 ; 1.0276174039390977E7 ; 1.7340434971437983E7 ; 2.0552348078781955E7 ; 0.0
3 ; 8694115.55867353 ; 1.0276174039390977E7 ; 2.6025428903945103E7 ; 3.0828522118172932E7 ; 0.0
4 ; 8706344.770770952 ; 1.0276174039390977E7 ; 3.4719544462618634E7 ; 4.110469615756391E7 ; 0.0
5 ; 8725747.052347261 ; 1.0276174039390977E7 ; 4.3425889233389586E7 ; 5.138087019695489E7 ; 0.0
6 ; 8743674.870569197 ; 1.0276174039390977E7 ; 5.2151636285736844E7 ; 6.165704423634587E7 ; 0.0
7 ; 8775227.173477435 ; 1.0276174039390977E7 ; 6.089531115630604E7 ; 7.193321827573685E7 ; 0.0
8 ; 8817668.078060556 ; 1.0276174039390977E7 ; 6.967053832978348E7 ; 8.220939231512783E7 ; 0.0
9 ; 8879853.77612437 ; 1.0276174039390977E7 ; 7.848820640784404E7 ; 9.248556635451882E7 ; 0.0
10 ; 8976058.54748592 ; 1.0276174039390977E7 ; 8.736806018396841E7 ; 1.027617403939098E8 ; 0.0
11 ; 9133779.811592866 ; 1.0276174039390977E7 ; 9.634411873145433E7 ; 1.1303791443330078E8 ; 0.0
12 ; 9379944.673078759 ; 1.0276174039390977E7 ; 1.0547789854304719E8 ; 1.2331408847269176E8 ; 0.0
13 ; 9618054.941809189 ; 1.0276174039390977E7 ; 1.1485784321612595E8 ; 1.3359026251208274E8 ; 0.0
14 ; 9645225.781113565 ; 1.0276174039390977E7 ; 1.2447589815793514E8 ; 1.438664365514737E8 ; 0.0
15 ; 9657968.117553223 ; 1.0276174039390977E7 ; 1.3412112393904871E8 ; 1.541426105908647E8 ; 0.0
16 ; 9670097.445165541 ; 1.0276174039390977E7 ; 1.4377909205660194E8 ; 1.6441878463025567E8 ; 0.0
17 ; 9679356.058174124 ; 1.0276174039390977E7 ; 1.534491895017675E8 ; 1.7469495866964665E8 ; 0.0
18 ; 9693539.143754229 ; 1.0276174039390977E7 ; 1.6312854555994162E8 ; 1.8497113270903763E8 ; 0.0
19 ; 9700478.148273217 ; 1.0276174039390977E7 ; 1.7282208470369583E8 ; 1.952473067484286E8 ; 0.0
20 ; 9713310.547485178 ; 1.0276174039390977E7 ; 1.8252256285196906E8 ; 2.055234807878196E8 ; 0.0
21 ; 9725561.71675229 ; 1.0276174039390977E7 ; 1.9223587339945424E8 ; 2.1579965482721058E8 ; 0.0
22 ; 9737212.312748859 ; 1.0276174039390977E7 ; 2.0196143511620653E8 ; 2.2607582886660156E8 ; 0.0
23 ; 9747307.647637334 ; 1.0276174039390977E7 ; 2.1169864742895538E8 ; 2.3635200290599254E8 ; 0.0
24 ; 9761405.316146601 ; 1.0276174039390977E7 ; 2.214459550765927E8 ; 2.4662817694538352E8 ; 0.0
25 ; 9772360.089676153 ; 1.0276174039390977E7 ; 2.3120736039273933E8 ; 2.569043509847745E8 ; 0.0
26 ; 9782567.213914525 ; 1.0276174039390977E7 ; 2.4097972048241547E8 ; 2.6718052502416548E8 ; 0.0
27 ; 9794512.558169343 ; 1.0276174039390977E7 ; 2.5076228769632998E8 ; 2.7745669906355643E8 ; 0.0
28 ; 9805473.436035516 ; 1.0276174039390977E7 ; 2.6055680025449932E8 ; 2.877328731029474E8 ; 0.0
29 ; 9816317.656984815 ; 1.0276174039390977E7 ; 2.7036227369053483E8 ; 2.980090471423384E8 ; 0.0
30 ; 9827253.978304142 ; 1.0276174039390977E7 ; 2.8017859134751964E8 ; 3.082852211817294E8 ; 0.0
31 ; 9835708.308528956 ; 1.0276174039390977E7 ; 2.900058453258238E8 ; 3.1856139522112036E8 ; 0.0
32 ; 9845910.223648477 ; 1.0276174039390977E7 ; 2.9984155363435274E8 ; 3.2883756926051134E8 ; 0.0
33 ; 9856846.94095843 ; 1.0276174039390977E7 ; 3.0968746385800123E8 ; 3.391137432999023E8 ; 0.0
34 ; 9865042.676342662 ; 1.0276174039390977E7 ; 3.195443107989597E8 ; 3.493899173392933E8 ; 0.0
35 ; 9878706.54383781 ; 1.0276174039390977E7 ; 3.2940935347530234E8 ; 3.596660913786843E8 ; 0.0
36 ; 9885431.381844157 ; 1.0276174039390977E7 ; 3.392880600191401E8 ; 3.6994226541807526E8 ; 0.0
37 ; 9894373.980880458 ; 1.0276174039390977E7 ; 3.491734914009843E8 ; 3.8021843945746624E8 ; 0.0
38 ; 9902814.805060789 ; 1.0276174039390977E7 ; 3.590678653818647E8 ; 3.904946134968572E8 ; 0.0
39 ; 9909279.17985428 ; 1.0276174039390977E7 ; 3.6897068018692553E8 ; 4.007707875362482E8 ; 0.0
40 ; 9917482.576735992 ; 1.0276174039390977E7 ; 3.788799593667798E8 ; 4.110469615756392E8 ; 0.0
41 ; 9923397.789227944 ; 1.0276174039390977E7 ; 3.887974419435158E8 ; 4.2132313561503017E8 ; 0.0
42 ; 9932227.635838686 ; 1.0276174039390977E7 ; 3.9872083973274374E8 ; 4.3159930965442115E8 ; 0.0
43 ; 9940126.937586997 ; 1.0276174039390977E7 ; 4.086530673685824E8 ; 4.4187548369381213E8 ; 0.0
44 ; 9940488.022540823 ; 1.0276174039390977E7 ; 4.1859319430616945E8 ; 4.521516577332031E8 ; 0.0
45 ; 9950442.028502826 ; 1.0276174039390977E7 ; 4.2853368232871026E8 ; 4.624278317725941E8 ; 0.0
46 ; 9953719.140065636 ; 1.0276174039390977E7 ; 4.384841243572131E8 ; 4.727040058119851E8 ; 0.0
47 ; 9957628.043332936 ; 1.0276174039390977E7 ; 4.484378434972787E8 ; 4.8298017985137606E8 ; 0.0
48 ; 9962375.395224439 ; 1.0276174039390977E7 ; 4.583954715406116E8 ; 4.9325635389076704E8 ; 0.0
49 ; 9967643.910019651 ; 1.0276174039390977E7 ; 4.683578469358361E8 ; 5.03532527930158E8 ; 0.0
50 ; 9971357.600436857 ; 1.0276174039390977E7 ; 4.783254908458557E8 ; 5.13808701969549E8 ; 0.0
51 ; 9973368.323843744 ; 1.0276174039390977E7 ; 4.882968484462926E8 ; 5.2408487600894E8 ; 0.0
52 ; 9975233.752871424 ; 1.0276174039390977E7 ; 4.982702167701363E8 ; 5.3436105004833096E8 ; 0.0
53 ; 9977426.363430833 ; 1.0276174039390977E7 ; 5.0824545052300775E8 ; 5.44637224087722E8 ; 0.0
54 ; 9980070.774640074 ; 1.0276174039390977E7 ; 5.182228768864386E8 ; 5.549133981271129E8 ; 0.0
55 ; 9983106.277259167 ; 1.0276174039390977E7 ; 5.282029476610787E8 ; 5.651895721665038E8 ; 0.0
56 ; 9987691.533746803 ; 1.0276174039390977E7 ; 5.381860539383378E8 ; 5.754657462058947E8 ; 0.0
57 ; 9988059.673546767 ; 1.0276174039390977E7 ; 5.481737454720846E8 ; 5.857419202452856E8 ; 0.0
58 ; 9992395.15422858 ; 1.0276174039390977E7 ; 5.581618051456314E8 ; 5.960180942846766E8 ; 0.0
59 ; 9991544.092721095 ; 1.0276174039390977E7 ; 5.6815420029986E8 ; 6.062942683240675E8 ; 0.0
60 ; 9994227.778524403 ; 1.0276174039390977E7 ; 5.781457443925811E8 ; 6.165704423634584E8 ; 0.0
61 ; 9994907.956871238 ; 1.0276174039390977E7 ; 5.881399721711055E8 ; 6.268466164028493E8 ; 0.0
62 ; 9999007.943807837 ; 1.0276174039390977E7 ; 5.981348801279768E8 ; 6.371227904422402E8 ; 0.0
63 ; 9999533.865238914 ; 1.0276174039390977E7 ; 6.081338880717846E8 ; 6.473989644816312E8 ; 0.0
64 ; 1.0000682434231667E7 ; 1.0276174039390977E7 ; 6.181334219370235E8 ; 6.576751385210221E8 ; 0.0
65 ; 1.000140243164064E7 ; 1.0276174039390977E7 ; 6.281341043712552E8 ; 6.67951312560413E8 ; 0.0
66 ; 1.0004674594403189E7 ; 1.0276174039390977E7 ; 6.381355068028958E8 ; 6.782274865998039E8 ; 0.0
67 ; 1.0005815907910593E7 ; 1.0276174039390977E7 ; 6.481401813972989E8 ; 6.885036606391948E8 ; 0.0
68 ; 1.000532650118048E7 ; 1.0276174039390977E7 ; 6.581459973052095E8 ; 6.987798346785858E8 ; 0.0
69 ; 1.0006296919213125E7 ; 1.0276174039390977E7 ; 6.6815132380639E8 ; 7.090560087179767E8 ; 0.0
70 ; 1.000710742028199E7 ; 1.0276174039390977E7 ; 6.781576207256032E8 ; 7.193321827573676E8 ; 0.0
71 ; 1.0009553305034714E7 ; 1.0276174039390977E7 ; 6.881647281458852E8 ; 7.296083567967585E8 ; 0.0
72 ; 1.0009909849074014E7 ; 1.0276174039390977E7 ; 6.9817428145092E8 ; 7.398845308361495E8 ; 0.0
73 ; 1.0013136616249168E7 ; 1.0276174039390977E7 ; 7.08184191299994E8 ; 7.501607048755404E8 ; 0.0
74 ; 1.0010394034056498E7 ; 1.0276174039390977E7 ; 7.181973279162432E8 ; 7.604368789149313E8 ; 0.0
75 ; 1.0008231802511586E7 ; 1.0276174039390977E7 ; 7.282077219502997E8 ; 7.707130529543222E8 ; 0.0
76 ; 1.0014532638353603E7 ; 1.0276174039390977E7 ; 7.382159537528113E8 ; 7.809892269937131E8 ; 0.0
77 ; 1.0011615358748661E7 ; 1.0276174039390977E7 ; 7.482304863911649E8 ; 7.912654010331041E8 ; 0.0
78 ; 1.0008401701078989E7 ; 1.0276174039390977E7 ; 7.582421017499136E8 ; 8.01541575072495E8 ; 0.0
79 ; 1.0007925326759152E7 ; 1.0276174039390977E7 ; 7.682505034509926E8 ; 8.118177491118859E8 ; 0.0
80 ; 1.0002175881709723E7 ; 1.0276174039390977E7 ; 7.782584287777517E8 ; 8.220939231512768E8 ; 0.0
81 ; 1.0002070534033483E7 ; 1.0276174039390977E7 ; 7.882606046594614E8 ; 8.323700971906677E8 ; 0.0
82 ; 9995234.556170948 ; 1.0276174039390977E7 ; 7.982626751934949E8 ; 8.426462712300587E8 ; 0.0
83 ; 9995038.593721164 ; 1.0276174039390977E7 ; 8.082579097496659E8 ; 8.529224452694496E8 ; 0.0
84 ; 9990629.296947468 ; 1.0276174039390977E7 ; 8.18252948343387E8 ; 8.631986193088405E8 ; 0.0
85 ; 9984452.427646061 ; 1.0276174039390977E7 ; 8.282435776403345E8 ; 8.734747933482314E8 ; 0.0
86 ; 9983599.249774689 ; 1.0276174039390977E7 ; 8.382280300679805E8 ; 8.837509673876224E8 ; 0.0
87 ; 9980538.01130414 ; 1.0276174039390977E7 ; 8.482116293177552E8 ; 8.940271414270133E8 ; 0.0
88 ; 9976500.369775694 ; 1.0276174039390977E7 ; 8.581921673290594E8 ; 9.043033154664042E8 ; 0.0
89 ; 9969448.722436218 ; 1.0276174039390977E7 ; 8.68168667698835E8 ; 9.145794895057951E8 ; 0.0
90 ; 9969422.939097747 ; 1.0276174039390977E7 ; 8.781381164212712E8 ; 9.24855663545186E8 ; 0.0
91 ; 9965877.66118842 ; 1.0276174039390977E7 ; 8.88107539360369E8 ; 9.35131837584577E8 ; 0.0
92 ; 9958656.646433644 ; 1.0276174039390977E7 ; 8.980734170215573E8 ; 9.454080116239679E8 ; 0.0
93 ; 9954898.181259615 ; 1.0276174039390977E7 ; 9.080320736679909E8 ; 9.556841856633588E8 ; 0.0
94 ; 9953231.497071266 ; 1.0276174039390977E7 ; 9.179869718492506E8 ; 9.659603597027497E8 ; 0.0
95 ; 9944605.27551113 ; 1.0276174039390977E7 ; 9.279402033463218E8 ; 9.762365337421407E8 ; 0.0
96 ; 9941187.15763996 ; 1.0276174039390977E7 ; 9.37884808621833E8 ; 9.865127077815316E8 ; 0.0
97 ; 9937920.869076042 ; 1.0276174039390977E7 ; 9.47825995779473E8 ; 9.967888818209225E8 ; 0.0
98 ; 9932542.03354999 ; 1.0276174039390977E7 ; 9.57763916648549E8 ; 1.0070650558603134E9 ; 0.0
99 ; 9926095.811534937 ; 1.0276174039390977E7 ; 9.67696458682099E8 ; 1.0173412298997043E9 ; 0.0
100 ; 9923640.800485559 ; 1.0276174039390977E7 ; 9.776225544936339E8 ; 1.0276174039390953E9 ; 0.0
101 ; 9913293.002394829 ; 1.0276174039390977E7 ; 9.875461952941195E8 ; 1.0378935779784862E9 ; 0.0
102 ; 9909562.571505968 ; 1.0276174039390977E7 ; 9.974594882965143E8 ; 1.0481697520178771E9 ; 0.0
103 ; 9904992.572566533 ; 1.0276174039390977E7 ; 1.0073690508680203E9 ; 1.058445926057268E9 ; 0.0
104 ; 9901975.018103294 ; 1.0276174039390977E7 ; 1.0172740434405868E9 ; 1.068722100096659E9 ; 0.0
105 ; 9897633.674367147 ; 1.0276174039390977E7 ; 1.02717601845869E9 ; 1.07899827413605E9 ; 0.0
106 ; 9890654.237138495 ; 1.0276174039390977E7 ; 1.0370736521330572E9 ; 1.089274448175441E9 ; 0.0
107 ; 9885425.057739979 ; 1.0276174039390977E7 ; 1.0469643063701957E9 ; 1.099550622214832E9 ; 0.0
108 ; 9879320.258089654 ; 1.0276174039390977E7 ; 1.0568497314279357E9 ; 1.109826796254223E9 ; 0.0
109 ; 9876863.848919151 ; 1.0276174039390977E7 ; 1.0667290516860254E9 ; 1.1201029702936141E9 ; 0.0
110 ; 9865335.853758216 ; 1.0276174039390977E7 ; 1.0766059155349445E9 ; 1.1303791443330052E9 ; 0.0
111 ; 9860436.284301965 ; 1.0276174039390977E7 ; 1.0864712513887029E9 ; 1.1406553183723962E9 ; 0.0
112 ; 9853237.590264866 ; 1.0276174039390977E7 ; 1.0963316876730049E9 ; 1.1509314924117873E9 ; 0.0
113 ; 9848616.728565037 ; 1.0276174039390977E7 ; 1.1061849252632697E9 ; 1.1612076664511783E9 ; 0.0
114 ; 9841726.937486526 ; 1.0276174039390977E7 ; 1.1160335419918346E9 ; 1.1714838404905694E9 ; 0.0
115 ; 9833593.400395092 ; 1.0276174039390977E7 ; 1.125875268929321E9 ; 1.1817600145299604E9 ; 0.0
116 ; 9828731.268094102 ; 1.0276174039390977E7 ; 1.1357088623297162E9 ; 1.1920361885693514E9 ; 0.0
117 ; 9822425.22194166 ; 1.0276174039390977E7 ; 1.1455375935978103E9 ; 1.2023123626087425E9 ; 0.0
118 ; 9812238.906615557 ; 1.0276174039390977E7 ; 1.155360018819752E9 ; 1.2125885366481335E9 ; 0.0
119 ; 9806450.347496279 ; 1.0276174039390977E7 ; 1.1651722577263675E9 ; 1.2228647106875246E9 ; 0.0
120 ; 9800623.504547544 ; 1.0276174039390977E7 ; 1.1749787080738637E9 ; 1.2331408847269156E9 ; 0.0
121 ; 9796353.173163103 ; 1.0276174039390977E7 ; 1.1847793315784113E9 ; 1.2434170587663066E9 ; 0.0
122 ; 9787315.668327691 ; 1.0276174039390977E7 ; 1.1945756847515745E9 ; 1.2536932328056977E9 ; 0.0
123 ; 9780311.864012035 ; 1.0276174039390977E7 ; 1.2043630004199023E9 ; 1.2639694068450887E9 ; 0.0
124 ; 9773052.600108663 ; 1.0276174039390977E7 ; 1.2141433122839143E9 ; 1.2742455808844798E9 ; 0.0
125 ; 9766280.895222625 ; 1.0276174039390977E7 ; 1.223916364884023E9 ; 1.2845217549238708E9 ; 0.0
126 ; 9756005.265222859 ; 1.0276174039390977E7 ; 1.2336826457792456E9 ; 1.2947979289632618E9 ; 0.0
127 ; 9751010.53154161 ; 1.0276174039390977E7 ; 1.2434386510444684E9 ; 1.305074103002653E9 ; 0.0
128 ; 9740666.884290297 ; 1.0276174039390977E7 ; 1.25318966157601E9 ; 1.315350277042044E9 ; 0.0
129 ; 9734860.563933073 ; 1.0276174039390977E7 ; 1.2629303284603002E9 ; 1.325626451081435E9 ; 0.0
130 ; 9726029.674364924 ; 1.0276174039390977E7 ; 1.2726651890242333E9 ; 1.335902625120826E9 ; 0.0
131 ; 9712948.670909984 ; 1.0276174039390977E7 ; 1.2823912186985984E9 ; 1.346178799160217E9 ; 0.0
132 ; 9701840.851994462 ; 1.0276174039390977E7 ; 1.2921041673695083E9 ; 1.356454973199608E9 ; 0.0
133 ; 9695631.587125424 ; 1.0276174039390977E7 ; 1.3018060082215028E9 ; 1.3667311472389991E9 ; 0.0
134 ; 9679697.175587056 ; 1.0276174039390977E7 ; 1.3115016398086283E9 ; 1.3770073212783902E9 ; 0.0
135 ; 9669467.553268677 ; 1.0276174039390977E7 ; 1.3211813369842153E9 ; 1.3872834953177812E9 ; 0.0
136 ; 9659285.655841034 ; 1.0276174039390977E7 ; 1.330850804537484E9 ; 1.3975596693571723E9 ; 0.0
137 ; 9647789.791242434 ; 1.0276174039390977E7 ; 1.340510090193325E9 ; 1.4078358433965633E9 ; 0.0
138 ; 9630501.085181605 ; 1.0276174039390977E7 ; 1.3501578799845674E9 ; 1.4181120174359543E9 ; 0.0
139 ; 9620881.988387022 ; 1.0276174039390977E7 ; 1.359788381069749E9 ; 1.4283881914753454E9 ; 0.0
140 ; 9611564.10412518 ; 1.0276174039390977E7 ; 1.3694092630581362E9 ; 1.4386643655147364E9 ; 0.0
141 ; 9599129.928268783 ; 1.0276174039390977E7 ; 1.3790208271622615E9 ; 1.4489405395541275E9 ; 0.0
142 ; 9584409.424192572 ; 1.0276174039390977E7 ; 1.3886199570905302E9 ; 1.4592167135935185E9 ; 0.0
143 ; 9576116.166786794 ; 1.0276174039390977E7 ; 1.3982043665147228E9 ; 1.4694928876329095E9 ; 0.0
144 ; 9565869.707480434 ; 1.0276174039390977E7 ; 1.4077804826815097E9 ; 1.4797690616723006E9 ; 0.0
145 ; 9554989.30424696 ; 1.0276174039390977E7 ; 1.4173463523889902E9 ; 1.4900452357116916E9 ; 0.0
146 ; 9546931.591129573 ; 1.0276174039390977E7 ; 1.426901341693237E9 ; 1.5003214097510827E9 ; 0.0
147 ; 9536215.475320674 ; 1.0276174039390977E7 ; 1.4364482732843666E9 ; 1.5105975837904737E9 ; 0.0
148 ; 9526816.185828656 ; 1.0276174039390977E7 ; 1.4459844887596872E9 ; 1.5208737578298647E9 ; 0.0
149 ; 9519348.355315926 ; 1.0276174039390977E7 ; 1.4555113049455159E9 ; 1.5311499318692558E9 ; 0.0
150 ; 9508435.425998062 ; 1.0276174039390977E7 ; 1.4650306533008318E9 ; 1.5414261059086468E9 ; 0.0
151 ; 9501927.767137723 ; 1.0276174039390977E7 ; 1.4745390887268298E9 ; 1.5517022799480379E9 ; 0.0
152 ; 9495635.809012815 ; 1.0276174039390977E7 ; 1.4840410164939675E9 ; 1.561978453987429E9 ; 0.0
153 ; 9484810.450762626 ; 1.0276174039390977E7 ; 1.4935366523029804E9 ; 1.57225462802682E9 ; 0.0
154 ; 9479492.83626686 ; 1.0276174039390977E7 ; 1.503021462753743E9 ; 1.582530802066211E9 ; 0.0
155 ; 9470284.71803262 ; 1.0276174039390977E7 ; 1.5125009555900097E9 ; 1.592806976105602E9 ; 0.0
156 ; 9458736.877368469 ; 1.0276174039390977E7 ; 1.5219712403080423E9 ; 1.603083150144993E9 ; 0.0
157 ; 9451412.163082814 ; 1.0276174039390977E7 ; 1.5314299771854107E9 ; 1.613359324184384E9 ; 0.0
158 ; 9442032.063117875 ; 1.0276174039390977E7 ; 1.5408813893484936E9 ; 1.6236354982237751E9 ; 0.0
159 ; 9433136.881694226 ; 1.0276174039390977E7 ; 1.5503234214116116E9 ; 1.6339116722631662E9 ; 0.0
160 ; 9426396.180949094 ; 1.0276174039390977E7 ; 1.5597565582933059E9 ; 1.6441878463025572E9 ; 0.0
161 ; 9412314.241965935 ; 1.0276174039390977E7 ; 1.569182954474255E9 ; 1.6544640203419483E9 ; 0.0
162 ; 9406810.61514491 ; 1.0276174039390977E7 ; 1.578595268716221E9 ; 1.6647401943813393E9 ; 0.0
163 ; 9396002.734369628 ; 1.0276174039390977E7 ; 1.588002079331366E9 ; 1.6750163684207304E9 ; 0.0
164 ; 9387466.652615998 ; 1.0276174039390977E7 ; 1.5973980820657356E9 ; 1.6852925424601214E9 ; 0.0
165 ; 9377538.495336642 ; 1.0276174039390977E7 ; 1.6067855487183516E9 ; 1.6955687164995124E9 ; 0.0
166 ; 9367203.405505853 ; 1.0276174039390977E7 ; 1.6161630872136881E9 ; 1.7058448905389035E9 ; 0.0
167 ; 9356795.001556808 ; 1.0276174039390977E7 ; 1.625530290619194E9 ; 1.7161210645782945E9 ; 0.0
168 ; 9348879.174982456 ; 1.0276174039390977E7 ; 1.634887085620751E9 ; 1.7263972386176856E9 ; 0.0
169 ; 9340535.808445513 ; 1.0276174039390977E7 ; 1.6442359647957335E9 ; 1.7366734126570766E9 ; 0.0
170 ; 9329271.006441575 ; 1.0276174039390977E7 ; 1.653576500604179E9 ; 1.7469495866964676E9 ; 0.0
171 ; 9321695.058303034 ; 1.0276174039390977E7 ; 1.6629057716106205E9 ; 1.7572257607358587E9 ; 0.0
172 ; 9311881.3279665 ; 1.0276174039390977E7 ; 1.6722274666689236E9 ; 1.7675019347752497E9 ; 0.0
173 ; 9302779.528110173 ; 1.0276174039390977E7 ; 1.68153934799689E9 ; 1.7777781088146408E9 ; 0.0
174 ; 9298920.952389577 ; 1.0276174039390977E7 ; 1.6908421275250003E9 ; 1.7880542828540318E9 ; 0.0
175 ; 9290188.375928754 ; 1.0276174039390977E7 ; 1.7001410484773898E9 ; 1.7983304568934228E9 ; 0.0
176 ; 9283984.303056277 ; 1.0276174039390977E7 ; 1.7094312368533185E9 ; 1.808606630932814E9 ; 0.0
177 ; 9283951.437034968 ; 1.0276174039390977E7 ; 1.7187152211563747E9 ; 1.818882804972205E9 ; 0.0
178 ; 9275228.423395885 ; 1.0276174039390977E7 ; 1.7279991725934098E9 ; 1.829158979011596E9 ; 0.0
179 ; 9269127.132203262 ; 1.0276174039390977E7 ; 1.7372744010168056E9 ; 1.839435153050987E9 ; 0.0
180 ; 9264569.493403066 ; 1.0276174039390977E7 ; 1.746543528149009E9 ; 1.849711327090378E9 ; 0.0
181 ; 9257832.311132729 ; 1.0276174039390977E7 ; 1.755808097642412E9 ; 1.859987501129769E9 ; 0.0
182 ; 9250501.569732638 ; 1.0276174039390977E7 ; 1.7650659299535446E9 ; 1.8702636751691601E9 ; 0.0
183 ; 9249918.315619076 ; 1.0276174039390977E7 ; 1.7743164315232773E9 ; 1.8805398492085512E9 ; 0.0
184 ; 9240737.477857016 ; 1.0276174039390977E7 ; 1.7835663498388963E9 ; 1.8908160232479422E9 ; 0.0
185 ; 9234976.71453293 ; 1.0276174039390977E7 ; 1.7928070873167534E9 ; 1.9010921972873333E9 ; 0.0
186 ; 9230494.664570203 ; 1.0276174039390977E7 ; 1.8020420640312862E9 ; 1.9113683713267243E9 ; 0.0
187 ; 9222917.436301252 ; 1.0276174039390977E7 ; 1.8112725586958563E9 ; 1.9216445453661153E9 ; 0.0
188 ; 9218314.00627267 ; 1.0276174039390977E7 ; 1.8204954761321576E9 ; 1.9319207194055064E9 ; 0.0
189 ; 9214684.128574893 ; 1.0276174039390977E7 ; 1.82971379013843E9 ; 1.9421968934448974E9 ; 0.0
190 ; 9206512.642320307 ; 1.0276174039390977E7 ; 1.838928474267005E9 ; 1.9524730674842885E9 ; 0.0
191 ; 9201250.737996457 ; 1.0276174039390977E7 ; 1.8481349869093254E9 ; 1.9627492415236795E9 ; 0.0
192 ; 9194891.857471332 ; 1.0276174039390977E7 ; 1.8573362376473217E9 ; 1.9730254155630705E9 ; 0.0
193 ; 9188215.490016554 ; 1.0276174039390977E7 ; 1.866531129504793E9 ; 1.9833015896024616E9 ; 0.0
194 ; 9184905.196957199 ; 1.0276174039390977E7 ; 1.8757193449948094E9 ; 1.9935777636418526E9 ; 0.0
195 ; 9177884.149089774 ; 1.0276174039390977E7 ; 1.8849042501917665E9 ; 2.0038539376812437E9 ; 0.0
196 ; 9174092.534457538 ; 1.0276174039390977E7 ; 1.8940821343408563E9 ; 2.0141301117206347E9 ; 0.0
197 ; 9164527.783600291 ; 1.0276174039390977E7 ; 1.9032562268753138E9 ; 2.0244062857600257E9 ; 0.0
198 ; 9162055.90611181 ; 1.0276174039390977E7 ; 1.912420754658914E9 ; 2.0346824597994168E9 ; 0.0
199 ; 9153984.392344791 ; 1.0276174039390977E7 ; 1.9215828105650258E9 ; 2.0449586338388078E9 ; 0.0
200 ; 9152483.518008716 ; 1.0276174039390977E7 ; 1.9307367949573705E9 ; 2.0552348078781989E9 ; 0.0
201 ; 9145032.27339671 ; 1.0276174039390977E7 ; 1.9398892784753792E9 ; 2.06551098191759E9 ; 0.0
