CSV File for the City 1 on Day 197
1 - Minute m 
2 - Power Consumed at minute m 
3 - Power Produced at minute m 
4 - Energy Consumed since the beginning of the day 
5 - Energy Produced since the beginning of the day 
6 - Energy Lost since the beginning of the day on lines starting from the city
 
0 ; 1691291.7517911168 ; 1.0541624322901657E8 ; 0.0 ; 0.0 ; 0.0
1 ; 1702268.7122578945 ; 1.0556901925750476E8 ; 1691291.7517911168 ; 1.0541624322901657E8 ; 0.0
2 ; 1726278.6272110352 ; 1.0603059154019341E8 ; 3393560.4640490115 ; 2.1098526248652133E8 ; 0.0
3 ; 1746700.4804283266 ; 1.0680096275093162E8 ; 5119839.091260047 ; 3.1701585402671474E8 ; 0.0
4 ; 1766182.1370238063 ; 1.0788013531114972E8 ; 6866539.571688374 ; 4.2381681677764636E8 ; 0.0
5 ; 1802343.467949567 ; 1.0926811136820787E8 ; 8632721.70871218 ; 5.316969520887961E8 ; 0.0
6 ; 1842901.3854888435 ; 1.1096489277557233E8 ; 1.0435065176661747E7 ; 6.40965063457004E8 ; 0.0
7 ; 1893460.834893506 ; 1.1297048107522959E8 ; 1.227796656215059E7 ; 7.519299562325763E8 ; 0.0
8 ; 1973748.0337858044 ; 1.1528487748271835E8 ; 1.4171427397044096E7 ; 8.649004373078058E8 ; 0.0
9 ; 2098877.97015151 ; 1.1790808287511289E8 ; 1.6145175430829901E7 ; 9.801853147905241E8 ; 0.0
10 ; 2275795.464704071 ; 1.2084009778223312E8 ; 1.824405340098141E7 ; 1.098093397665637E9 ; 0.0
11 ; 2570431.609687799 ; 1.2408092238128576E8 ; 2.051984886568548E7 ; 1.2189334954478703E9 ; 0.0
12 ; 3032493.529121415 ; 1.2763055649506405E8 ; 2.309028047537328E7 ; 1.343014417829156E9 ; 0.0
13 ; 3474689.7328653554 ; 1.314889995937481E8 ; 2.6122774004494693E7 ; 1.47064497432422E9 ; 0.0
14 ; 3530648.54462737 ; 1.356562508002637E8 ; 2.959746373736005E7 ; 1.602133973917968E9 ; 0.0
15 ; 3552522.154583339 ; 1.4013230889907205E8 ; 3.3128112281987417E7 ; 1.7377902247182317E9 ; 0.0
16 ; 3576001.5632784828 ; 1.4491717234818676E8 ; 3.6680634436570756E7 ; 1.8779225336173038E9 ; 0.0
17 ; 3601721.4864632958 ; 1.500108392941415E8 ; 4.025663599984924E7 ; 2.0228397059654906E9 ; 0.0
18 ; 3624996.3050861866 ; 1.5541330758957613E8 ; 4.385835748631253E7 ; 2.172850545259632E9 ; 0.0
19 ; 3647561.8701824117 ; 1.611245748130603E8 ; 4.748335379139872E7 ; 2.3282638528492084E9 ; 0.0
20 ; 3670567.990144754 ; 1.6714463829074493E8 ; 5.113091566158113E7 ; 2.4893884276622686E9 ; 0.0
21 ; 3694772.8345310856 ; 1.7347349511941275E8 ; 5.480148365172588E7 ; 2.6565330659530134E9 ; 0.0
22 ; 3717435.904448897 ; 1.80111142190498E8 ; 5.8496256486256965E7 ; 2.8300065610724263E9 ; 0.0
23 ; 3736946.7305449983 ; 1.8705757621465474E8 ; 6.221369239070586E7 ; 3.010117703262924E9 ; 0.0
24 ; 3763759.913834712 ; 1.9431279374647427E8 ; 6.595063912125086E7 ; 3.197175279477579E9 ; 0.0
25 ; 3784107.5809703018 ; 2.0056483210716993E8 ; 6.971439903508557E7 ; 3.3914880732240534E9 ; 0.0
26 ; 3805730.51869029 ; 2.0056723544542605E8 ; 7.349850661605588E7 ; 3.5920529053312235E9 ; 0.0
27 ; 3833163.0643417286 ; 2.005697692854234E8 ; 7.730423713474616E7 ; 3.7926201407766495E9 ; 0.0
28 ; 3854949.3265837906 ; 2.0057242979566136E8 ; 8.113740019908789E7 ; 3.9931899100620728E9 ; 0.0
29 ; 3877988.4466767297 ; 2.0057521310298893E8 ; 8.499234952567168E7 ; 4.193762339857734E9 ; 0.0
30 ; 3900013.278377787 ; 2.0057811531198013E8 ; 8.88703379723484E7 ; 4.394337552960723E9 ; 0.0
31 ; 3925285.342202431 ; 2.0058113252279583E8 ; 9.27703512507262E7 ; 4.594915668272703E9 ; 0.0
32 ; 3944604.761471487 ; 2.0058426084747E8 ; 9.669563659292862E7 ; 4.795496800795499E9 ; 0.0
33 ; 3962121.86815655 ; 2.005874964245939E8 ; 1.006402413544001E8 ; 4.996081061642969E9 ; 0.0
34 ; 3984864.9352016556 ; 2.005908354324035E8 ; 1.0460236322255665E8 ; 5.196668558067563E9 ; 0.0
35 ; 4003490.1538875303 ; 2.0059427410030153E8 ; 1.0858722815775831E8 ; 5.397259393499967E9 ; 0.0
36 ; 4028344.6675737393 ; 2.005978087188678E8 ; 1.1259071831164584E8 ; 5.597853667600268E9 ; 0.0
37 ; 4045081.976437399 ; 2.0060143564842886E8 ; 1.1661906297921957E8 ; 5.798451476319137E9 ; 0.0
38 ; 4059758.645217192 ; 2.0060515132626995E8 ; 1.2066414495565698E8 ; 5.999052911967566E9 ; 0.0
39 ; 4074873.0493282448 ; 2.00608952272582E8 ; 1.2472390360087417E8 ; 6.199658063293836E9 ; 0.0
40 ; 4099494.6180937006 ; 2.0061283509524202E8 ; 1.2879877665020241E8 ; 6.400267015566418E9 ; 0.0
41 ; 4115156.7608979377 ; 2.0061679649352747E8 ; 1.3289827126829611E8 ; 6.600879850661659E9 ; 0.0
42 ; 4129970.738726883 ; 2.0062083326086554E8 ; 1.3701342802919406E8 ; 6.801496647155187E9 ; 0.0
43 ; 4140388.909913691 ; 2.0062494228671682E8 ; 1.4114339876792094E8 ; 7.002117480416052E9 ; 0.0
44 ; 4161656.355417445 ; 2.0062912055768943E8 ; 1.4528378767783463E8 ; 7.202742422702768E9 ; 0.0
45 ; 4171411.6777963634 ; 2.0063336515797472E8 ; 1.4944544403325206E8 ; 7.403371543260458E9 ; 0.0
46 ; 4184025.94017241 ; 2.0063767326919103E8 ; 1.5361685571104842E8 ; 7.604004908418432E9 ; 0.0
47 ; 4196723.090415327 ; 2.0064204216971582E8 ; 1.5780088165122083E8 ; 7.804642581687623E9 ; 0.0
48 ; 4211233.533883646 ; 2.0064646923358005E8 ; 1.6199760474163616E8 ; 8.005284623857339E9 ; 0.0
49 ; 4219639.917464094 ; 2.0065095192899263E8 ; 1.662088382755198E8 ; 8.205931093090919E9 ; 0.0
50 ; 4233887.847842446 ; 2.0065548781655684E8 ; 1.704284781929839E8 ; 8.406582045019911E9 ; 0.0
51 ; 4239618.327598504 ; 2.0066007454723352E8 ; 1.7466236604082635E8 ; 8.607237532836468E9 ; 0.0
52 ; 4245874.5506518185 ; 2.0066470986010095E8 ; 1.7890198436842486E8 ; 8.807897607383701E9 ; 0.0
53 ; 4259331.721972587 ; 2.0066939157995537E8 ; 1.8314785891907668E8 ; 9.008562317243803E9 ; 0.0
54 ; 4263230.03932913 ; 2.0067411761479062E8 ; 1.8740719064104927E8 ; 9.20923170882376E9 ; 0.0
55 ; 4276080.696276964 ; 2.0067888595319128E8 ; 1.916704206803784E8 ; 9.409905826438549E9 ; 0.0
56 ; 4280855.97036629 ; 2.0068369466166833E8 ; 1.9594650137665537E8 ; 9.61058471239174E9 ; 0.0
57 ; 4289886.270306536 ; 2.006885418819633E8 ; 2.0022735734702167E8 ; 9.81126840705341E9 ; 0.0
58 ; 4302997.284622295 ; 2.006934258283424E8 ; 2.045172436173282E8 ; 1.0011956948935373E10 ; 0.0
59 ; 4306857.934325127 ; 2.0069834478489915E8 ; 2.0882024090195048E8 ; 1.0212650374763716E10 ; 0.0
60 ; 4317696.839762846 ; 2.0070329710288143E8 ; 2.131270988362756E8 ; 1.0413348719548615E10 ; 0.0
61 ; 4321863.826721142 ; 2.0070828119805565E8 ; 2.1744479567603844E8 ; 1.0614052016651497E10 ; 0.0
62 ; 4332274.898459212 ; 2.0071329554811877E8 ; 2.2176665950275958E8 ; 1.0814760297849552E10 ; 0.0
63 ; 4334580.384123759 ; 2.0071833869016695E8 ; 2.260989344012188E8 ; 1.101547359339767E10 ; 0.0
64 ; 4344314.661430033 ; 2.007234092182275E8 ; 2.3043351478534257E8 ; 1.1216191932087837E10 ; 0.0
65 ; 4357339.643414703 ; 2.0072850578085983E8 ; 2.347778294467726E8 ; 1.1416915341306065E10 ; 0.0
66 ; 4361327.14871607 ; 2.0073362707882878E8 ; 2.391351690901873E8 ; 1.1617643847086924E10 ; 0.0
67 ; 4370532.58096286 ; 2.0073877186285397E8 ; 2.4349649623890337E8 ; 1.1818377474165752E10 ; 0.0
68 ; 4375414.312688807 ; 2.0074393893143636E8 ; 2.4786702881986624E8 ; 1.2019116246028606E10 ; 0.0
69 ; 4383199.197751781 ; 2.0074912712876335E8 ; 2.5224244313255504E8 ; 1.2219860184960043E10 ; 0.0
70 ; 4387230.753944497 ; 2.0075433534269285E8 ; 2.5662564233030683E8 ; 1.2420609312088806E10 ; 0.0
71 ; 4399961.269940555 ; 2.007595625028158E8 ; 2.610128730842513E8 ; 1.26213636474315E10 ; 0.0
72 ; 4403539.223764587 ; 2.007648075785966E8 ; 2.6541283435419187E8 ; 1.2822123209934315E10 ; 0.0
73 ; 4406995.626570572 ; 2.0077006957758984E8 ; 2.6981637357795644E8 ; 1.302288801751291E10 ; 0.0
74 ; 4413303.82192167 ; 2.0077534754373288E8 ; 2.74223369204527E8 ; 1.32236580870905E10 ; 0.0
75 ; 4418112.67211086 ; 2.007806405557112E8 ; 2.7863667302644867E8 ; 1.3424433434634233E10 ; 0.0
76 ; 4425891.515564125 ; 2.007859477253955E8 ; 2.830547856985595E8 ; 1.3625214075189945E10 ; 0.0
77 ; 4433863.394190899 ; 2.0079126819634816E8 ; 2.8748067721412367E8 ; 1.382600002291534E10 ; 0.0
78 ; 4434670.629829601 ; 2.0079660114239672E8 ; 2.919145406083146E8 ; 1.4026791291111689E10 ; 0.0
79 ; 4436698.009376832 ; 2.0080194576627246E8 ; 2.9634921123814416E8 ; 1.4227587892254086E10 ; 0.0
80 ; 4436206.023336727 ; 2.008073012983111E8 ; 3.00785909247521E8 ; 1.4428389838020357E10 ; 0.0
81 ; 4435431.22553129 ; 2.00812666995214E8 ; 3.052221152708577E8 ; 1.4629197139318668E10 ; 0.0
82 ; 4433660.104416733 ; 2.0081804213886672E8 ; 3.09657546496389E8 ; 1.4830009806313883E10 ; 0.0
83 ; 4433069.821769415 ; 2.0082342603521356E8 ; 3.140912066008057E8 ; 1.503082784845275E10 ; 0.0
84 ; 4435443.032208808 ; 2.0082881801318446E8 ; 3.185242764225751E8 ; 1.5231651274487963E10 ; 0.0
85 ; 4434685.441424884 ; 2.008342174236732E8 ; 3.229597194547839E8 ; 1.5432480092501146E10 ; 0.0
86 ; 4434798.468862343 ; 2.0083962363856414E8 ; 3.273944048962088E8 ; 1.563331430992482E10 ; 0.0
87 ; 4435863.542171311 ; 2.0084503604980487E8 ; 3.318292033650712E8 ; 1.5834153933563385E10 ; 0.0
88 ; 4434582.1236185655 ; 2.008504540685238E8 ; 3.362650669072425E8 ; 1.603499896961319E10 ; 0.0
89 ; 4427608.842796563 ; 2.008558771241894E8 ; 3.40699649030861E8 ; 1.6235849423681713E10 ; 0.0
90 ; 4429030.290682564 ; 2.0086130466381004E8 ; 3.451272578736576E8 ; 1.6436705300805902E10 ; 0.0
91 ; 4434039.131434739 ; 2.0086673615117192E8 ; 3.4955628816434014E8 ; 1.6637566605469713E10 ; 0.0
92 ; 4430820.7422732385 ; 2.008721710661137E8 ; 3.539903272957749E8 ; 1.6838433341620886E10 ; 0.0
93 ; 4426967.202417076 ; 2.008776089038358E8 ; 3.584211480380481E8 ; 1.7039305512687E10 ; 0.0
94 ; 4430803.090820169 ; 2.0088304917424276E8 ; 3.6284811524046516E8 ; 1.7240183121590836E10 ; 0.0
95 ; 4423581.320436889 ; 2.00888491401317E8 ; 3.6727891833128536E8 ; 1.744106617076508E10 ; 0.0
96 ; 4423708.978736363 ; 2.0089393512252262E8 ; 3.7170249965172225E8 ; 1.7641954662166397E10 ; 0.0
97 ; 4422152.249807108 ; 2.0089937988823754E8 ; 3.761262086304586E8 ; 1.784284859728892E10 ; 0.0
98 ; 4422017.749974134 ; 2.0090482526121268E8 ; 3.805483608802657E8 ; 1.804374797717716E10 ; 0.0
99 ; 4411610.154208741 ; 2.0091027081605685E8 ; 3.8497037863023984E8 ; 1.824465280243837E10 ; 0.0
100 ; 4414984.589137619 ; 2.0091571613874602E8 ; 3.8938198878444856E8 ; 1.8445563073254425E10 ; 0.0
101 ; 4411547.759021545 ; 2.0092116082615584E8 ; 3.937969733735862E8 ; 1.864647878939317E10 ; 0.0
102 ; 4408416.1873889705 ; 2.0092660448561618E8 ; 3.982085211326077E8 ; 1.8847399950219326E10 ; 0.0
103 ; 4411164.092446833 ; 2.0093204673448658E8 ; 4.0261693731999665E8 ; 1.904832655470494E10 ; 0.0
104 ; 4406643.466231412 ; 2.0093748719975168E8 ; 4.0702810141244346E8 ; 1.9249258601439426E10 ; 0.0
105 ; 4403140.985439819 ; 2.0094292551763546E8 ; 4.1143474487867486E8 ; 1.945019608863918E10 ; 0.0
106 ; 4396220.605373623 ; 2.0094836133323345E8 ; 4.158378858641147E8 ; 1.9651139014156815E10 ; 0.0
107 ; 4392991.737464491 ; 2.0095379430016217E8 ; 4.202341064694883E8 ; 1.9852087375490047E10 ; 0.0
108 ; 4390902.90444544 ; 2.0095922408022454E8 ; 4.246270982069528E8 ; 2.005304116979021E10 ; 0.0
109 ; 4392470.951963343 ; 2.0096465034309086E8 ; 4.290180011113982E8 ; 2.0254000393870434E10 ; 0.0
110 ; 4385950.858409733 ; 2.0097007276599443E8 ; 4.334104720633616E8 ; 2.0454965044213524E10 ; 0.0
111 ; 4385708.344991946 ; 2.00975491033441E8 ; 4.377964229217713E8 ; 2.065593511697952E10 ; 0.0
112 ; 4378030.220019552 ; 2.0098090483693162E8 ; 4.421821312667632E8 ; 2.085691060801296E10 ; 0.0
113 ; 4377165.244933361 ; 2.0098631387469777E8 ; 4.465601614867828E8 ; 2.105789151284989E10 ; 0.0
114 ; 4370242.921553324 ; 2.0099171785144883E8 ; 4.5093732673171616E8 ; 2.125887782672459E10 ; 0.0
115 ; 4368523.76192682 ; 2.0099711647813067E8 ; 4.5530756965326947E8 ; 2.145986954457604E10 ; 0.0
116 ; 4363510.156884699 ; 2.0100250947169504E8 ; 4.596760934151963E8 ; 2.166086666105417E10 ; 0.0
117 ; 4355642.050871674 ; 2.0100789655487943E8 ; 4.6403960357208097E8 ; 2.1861869170525864E10 ; 0.0
118 ; 4352414.010701039 ; 2.010132774559965E8 ; 4.6839524562295264E8 ; 2.206287706708074E10 ; 0.0
119 ; 4345841.331798089 ; 2.010186519087331E8 ; 4.727476596336537E8 ; 2.226389034453674E10 ; 0.0
120 ; 4345634.038996055 ; 2.010240196519577E8 ; 4.770935009654518E8 ; 2.2464908996445473E10 ; 0.0
121 ; 4340357.13517044 ; 2.0102938042953682E8 ; 4.814391350044478E8 ; 2.266593301609743E10 ; 0.0
122 ; 4338536.636865212 ; 2.0103473399015903E8 ; 4.857794921396183E8 ; 2.286696239652697E10 ; 0.0
123 ; 4326489.609506224 ; 2.0104008008716682E8 ; 4.901180287764835E8 ; 2.3067997130517128E10 ; 0.0
124 ; 4320359.813810644 ; 2.0104541847839564E8 ; 4.944445183859897E8 ; 2.3269037210604294E10 ; 0.0
125 ; 4320537.344616841 ; 2.0105074892601997E8 ; 4.987648781998004E8 ; 2.347008262908269E10 ; 0.0
126 ; 4317165.764765533 ; 2.0105607119640595E8 ; 5.030854155444172E8 ; 2.3671133378008713E10 ; 0.0
127 ; 4309301.433441416 ; 2.010613850599702E8 ; 5.0740258130918276E8 ; 2.387218944920512E10 ; 0.0
128 ; 4303918.971940319 ; 2.0106669029104495E8 ; 5.1171188274262416E8 ; 2.407325083426509E10 ; 0.0
129 ; 4296739.004138219 ; 2.010719866677484E8 ; 5.160158017145645E8 ; 2.4274317524556137E10 ; 0.0
130 ; 4288155.292478112 ; 2.0107727397186098E8 ; 5.2031254071870273E8 ; 2.4475389511223885E10 ; 0.0
131 ; 4279872.021964205 ; 2.0108255198870662E8 ; 5.246006960111808E8 ; 2.4676466785195747E10 ; 0.0
132 ; 4267514.826416785 ; 2.010878205070389E8 ; 5.28880568033145E8 ; 2.4877549337184456E10 ; 0.0
133 ; 4256244.266949871 ; 2.010930793189321E8 ; 5.331480828595618E8 ; 2.5078637157691494E10 ; 0.0
134 ; 4242018.262774236 ; 2.010983282196765E8 ; 5.374043271265117E8 ; 2.5279730237010426E10 ; 0.0
135 ; 4229464.275746803 ; 2.011035670076785E8 ; 5.416463453892859E8 ; 2.5480828565230103E10 ; 0.0
136 ; 4218193.786420509 ; 2.0110879548436412E8 ; 5.458758096650327E8 ; 2.568193213223778E10 ; 0.0
137 ; 4205970.078392441 ; 2.011140134540871E8 ; 5.500940034514532E8 ; 2.5883040927722145E10 ; 0.0
138 ; 4192252.581856057 ; 2.011192207240403E8 ; 5.542999735298456E8 ; 2.608415494117623E10 ; 0.0
139 ; 4179476.398656411 ; 2.0112441710417086E8 ; 5.584922261117016E8 ; 2.6285274161900272E10 ; 0.0
140 ; 4168557.071817753 ; 2.0112960240709886E8 ; 5.62671702510358E8 ; 2.6486398579004444E10 ; 0.0
141 ; 4159961.91890161 ; 2.0113477644803903E8 ; 5.668402595821757E8 ; 2.6687528181411545E10 ; 0.0
142 ; 4144454.524869719 ; 2.0113993904472578E8 ; 5.710002215010773E8 ; 2.6888662957859585E10 ; 0.0
143 ; 4128886.2819530936 ; 2.0114509001734105E8 ; 5.75144676025947E8 ; 2.7089802896904312E10 ; 0.0
144 ; 4119279.7791806986 ; 2.0115022918844515E8 ; 5.792735623079001E8 ; 2.7290947986921654E10 ; 0.0
145 ; 4111584.9688167055 ; 2.0115535638291028E8 ; 5.833928420870807E8 ; 2.74920982161101E10 ; 0.0
146 ; 4107509.26374454 ; 2.0116047142785665E8 ; 5.875044270558975E8 ; 2.769325357249301E10 ; 0.0
147 ; 4099765.459265918 ; 2.0116557415259108E8 ; 5.916119363196421E8 ; 2.7894414043920868E10 ; 0.0
148 ; 4092593.4436101955 ; 2.0117066438854808E8 ; 5.95711701778908E8 ; 2.809557961807346E10 ; 0.0
149 ; 4086773.839924341 ; 2.0117574196923304E8 ; 5.998042952225182E8 ; 2.829675028246201E10 ; 0.0
150 ; 4080825.745178459 ; 2.0118080673016784E8 ; 6.038910690624425E8 ; 2.8497926024431244E10 ; 0.0
151 ; 4073522.9880597643 ; 2.0118585850883836E8 ; 6.07971894807621E8 ; 2.869910683116141E10 ; 0.0
152 ; 4067938.5764754233 ; 2.011908971446441E8 ; 6.120454177956808E8 ; 2.890029268967025E10 ; 0.0
153 ; 4063357.9209956 ; 2.0119592247884977E8 ; 6.161133563721561E8 ; 2.9101483586814896E10 ; 0.0
154 ; 4057896.961402874 ; 2.0120093435453847E8 ; 6.201767142931517E8 ; 2.9302679509293747E10 ; 0.0
155 ; 4052480.8514107815 ; 2.0120593261656708E8 ; 6.242346112545546E8 ; 2.9503880443648285E10 ; 0.0
156 ; 4042182.644660476 ; 2.012109171115228E8 ; 6.282870921059654E8 ; 2.970508637626485E10 ; 0.0
157 ; 4039913.9709077612 ; 2.0121588768768182E8 ; 6.323292747506258E8 ; 2.9906297293376373E10 ; 0.0
158 ; 4032092.28505975 ; 2.0122084419496927E8 ; 6.363691887215337E8 ; 3.0107513181064056E10 ; 0.0
159 ; 4028470.100573829 ; 2.0122578648492056E8 ; 6.404012810065935E8 ; 3.0308734025259026E10 ; 0.0
160 ; 4021321.0527869714 ; 2.012307144106445E8 ; 6.444297511071672E8 ; 3.0509959811743946E10 ; 0.0
161 ; 4013460.9520509853 ; 2.0123562782678756E8 ; 6.484510721599542E8 ; 3.071119052615459E10 ; 0.0
162 ; 4006355.338234468 ; 2.012405265894993E8 ; 6.524645331120052E8 ; 3.0912426153981377E10 ; 0.0
163 ; 3999833.8786153225 ; 2.0124541055639955E8 ; 6.564708884502397E8 ; 3.1113666680570877E10 ; 0.0
164 ; 3996679.8783291597 ; 2.012502795865462E8 ; 6.60470722328855E8 ; 3.1314912091127277E10 ; 0.0
165 ; 3987521.356396504 ; 2.012551335404047E8 ; 6.644674022071842E8 ; 3.1516162370713825E10 ; 0.0
166 ; 3979377.5921685337 ; 2.0125997227981833E8 ; 6.684549235635808E8 ; 3.171741750425423E10 ; 0.0
167 ; 3975954.5444967556 ; 2.0126479566797954E8 ; 6.724343011557493E8 ; 3.191867747653405E10 ; 0.0
168 ; 3967725.9591091755 ; 2.012696035694027E8 ; 6.764102557002461E8 ; 3.211994227220203E10 ; 0.0
169 ; 3963362.7216022084 ; 2.012743958498973E8 ; 6.803779816593553E8 ; 3.232121187577143E10 ; 0.0
170 ; 3954966.2246482032 ; 2.0127917237654257E8 ; 6.843413443809575E8 ; 3.2522486271621326E10 ; 0.0
171 ; 3947723.119120333 ; 2.0128393301766273E8 ; 6.882963106056057E8 ; 3.2723765443997868E10 ; 0.0
172 ; 3938945.8779643094 ; 2.0128867764280328E8 ; 6.922440337247261E8 ; 3.292504937701553E10 ; 0.0
173 ; 3936774.5965421507 ; 2.0129340612270793E8 ; 6.961829796026903E8 ; 3.3126338054658333E10 ; 0.0
174 ; 3929518.703789543 ; 2.0129811832929668E8 ; 7.001197541992325E8 ; 3.332763146078104E10 ; 0.0
175 ; 3926681.10321175 ; 2.0130281413564438E8 ; 7.04049272903022E8 ; 3.3528929579110336E10 ; 0.0
176 ; 3922321.1055159504 ; 2.0130749341596013E8 ; 7.079759540062338E8 ; 3.373023239324598E10 ; 0.0
177 ; 3917929.9416798884 ; 2.0131215604556748E8 ; 7.118982751117498E8 ; 3.3931539886661938E10 ; 0.0
178 ; 3912099.6196749914 ; 2.0131680190088525E8 ; 7.158162050534296E8 ; 3.4132852042707504E10 ; 0.0
179 ; 3905040.1349919112 ; 2.013214308594091E8 ; 7.197283046731046E8 ; 3.433416884460839E10 ; 0.0
180 ; 3903362.900052646 ; 2.0132604279969355E8 ; 7.236333448080965E8 ; 3.45354902754678E10 ; 0.0
181 ; 3903051.2659644624 ; 2.0133063760133496E8 ; 7.275367077081492E8 ; 3.473681631826749E10 ; 0.0
182 ; 3893392.0599063663 ; 2.0133521514495474E8 ; 7.314397589741137E8 ; 3.493814695586882E10 ; 0.0
183 ; 3890381.2827806384 ; 2.0133977531218335E8 ; 7.353331510340201E8 ; 3.513948217101378E10 ; 0.0
184 ; 3881670.03046023 ; 2.0134431798564497E8 ; 7.392235323168007E8 ; 3.534082194632596E10 ; 0.0
185 ; 3883487.5082993372 ; 2.0134884304894227E8 ; 7.43105202347261E8 ; 3.55421662643116E10 ; 0.0
186 ; 3878791.4747379352 ; 2.0135335038664222E8 ; 7.469886898555603E8 ; 3.574351510736054E10 ; 0.0
187 ; 3876480.389739632 ; 2.01357839884262E8 ; 7.508674813302982E8 ; 3.5944868457747185E10 ; 0.0
188 ; 3870981.4982696925 ; 2.0136231142825568E8 ; 7.547439617200378E8 ; 3.614622629763145E10 ; 0.0
189 ; 3863058.27352551 ; 2.0136676490600106E8 ; 7.586149432183075E8 ; 3.63475886090597E10 ; 0.0
190 ; 3858859.9575243955 ; 2.013712002057872E8 ; 7.62478001491833E8 ; 3.65489553739657E10 ; 0.0
191 ; 3855690.835588341 ; 2.013756172168024E8 ; 7.663368614493574E8 ; 3.6750326574171486E10 ; 0.0
192 ; 3853480.462258077 ; 2.0138001582912222E8 ; 7.701925522849457E8 ; 3.695170219138829E10 ; 0.0
193 ; 3844463.753337069 ; 2.0138439593369845E8 ; 7.740460327472038E8 ; 3.7153082207217415E10 ; 0.0
194 ; 3836562.4899110743 ; 2.0138875742234802E8 ; 7.778904965005409E8 ; 3.7354466603151115E10 ; 0.0
195 ; 3833046.1530860895 ; 2.013931001877425E8 ; 7.817270589904519E8 ; 3.755585536057346E10 ; 0.0
196 ; 3835281.127544732 ; 2.013974241233979E8 ; 7.85560105143538E8 ; 3.775724846076121E10 ; 0.0
197 ; 3829145.2402671985 ; 2.0140172912366477E8 ; 7.893953862710828E8 ; 3.7958645884884605E10 ; 0.0
198 ; 3823951.282970724 ; 2.014060150837188E8 ; 7.932245315113499E8 ; 3.816004761400827E10 ; 0.0
199 ; 3815982.0936833606 ; 2.014102818995515E8 ; 7.970484827943206E8 ; 3.836145362909199E10 ; 0.0
200 ; 3817205.1544438517 ; 2.0141452946796134E8 ; 8.00864464888004E8 ; 3.856286391099154E10 ; 0.0
201 ; 3808281.7224687487 ; 1.955989900874225E8 ; 8.046816700424478E8 ; 3.87642784404595E10 ; 0.0
