CSV File for the City 4 on Day 117
1 - Minute m 
2 - Power Consumed at minute m 
3 - Power Produced at minute m 
4 - Energy Consumed since the beginning of the day 
5 - Energy Produced since the beginning of the day 
6 - Energy Lost since the beginning of the day on lines starting from the city
 
0 ; 6892836.196183294 ; 1.0626060398951462E8 ; 0.0 ; 0.0 ; 0.0
1 ; 6902022.884629731 ; 1.0641117483786601E8 ; 6892836.196183294 ; 1.0626060398951462E8 ; 0.0
2 ; 6909120.064995369 ; 1.0687077072730085E8 ; 1.3794859080813024E7 ; 2.1267177882738063E8 ; 0.0
3 ; 6916104.342656557 ; 1.0763939546799922E8 ; 2.070397914580839E7 ; 3.195425495546815E8 ; 0.0
4 ; 6928114.882682543 ; 1.0871705247107834E8 ; 2.7620083488464948E7 ; 4.271819450226807E8 ; 0.0
5 ; 6939879.126707139 ; 1.1010374473087418E8 ; 3.454819837114749E7 ; 5.3589899749375904E8 ; 0.0
6 ; 6956483.173362521 ; 1.1179947480911002E8 ; 4.148807749785463E7 ; 6.460027422246332E8 ; 0.0
7 ; 6982659.898933 ; 1.1380424482114571E8 ; 4.844456067121715E7 ; 7.578022170337433E8 ; 0.0
8 ; 7014320.474983174 ; 1.1611805642447764E8 ; 5.542722057015015E7 ; 8.716064618548889E8 ; 0.0
9 ; 7063369.240898802 ; 1.1874091080963695E8 ; 6.244154104513332E7 ; 9.877245182793665E8 ; 0.0
10 ; 7144228.608520266 ; 1.2167280869360179E8 ; 6.950491028603213E7 ; 1.1064654290890036E9 ; 0.0
11 ; 7263478.911853791 ; 1.2491375031580982E8 ; 7.66491388945524E7 ; 1.2281382377826054E9 ; 0.0
12 ; 7465838.223451451 ; 1.2846373543682334E8 ; 8.391261780640619E7 ; 1.3530519880984151E9 ; 0.0
13 ; 7656763.8627869375 ; 1.3232276333966422E8 ; 9.137845602985764E7 ; 1.4815157235352385E9 ; 0.0
14 ; 7681096.581128222 ; 1.364908328338014E8 ; 9.903521989264457E7 ; 1.6138384868749027E9 ; 0.0
15 ; 7685532.943151395 ; 1.4096794226173836E8 ; 1.067163164737728E8 ; 1.750329319708704E9 ; 0.0
16 ; 7695506.466933664 ; 1.4575408950811538E8 ; 1.144018494169242E8 ; 1.8912972619704423E9 ; 0.0
17 ; 7706088.187682313 ; 1.508492720112091E8 ; 1.2209735588385786E8 ; 2.0370513514785576E9 ; 0.0
18 ; 7714675.68319009 ; 1.5625348677668357E8 ; 1.2980344407154018E8 ; 2.1879006234897666E9 ; 0.0
19 ; 7726172.999233422 ; 1.6196673039342156E8 ; 1.3751811975473025E8 ; 2.34415411026645E9 ; 0.0
20 ; 7732741.657642523 ; 1.6798899905124298E8 ; 1.4524429275396368E8 ; 2.5061208406598716E9 ; 0.0
21 ; 7744048.684686624 ; 1.7432028856029972E8 ; 1.529770344116062E8 ; 2.6741098397111144E9 ; 0.0
22 ; 7754696.350851044 ; 1.8096059437192345E8 ; 1.6072108309629282E8 ; 2.8484301282714143E9 ; 0.0
23 ; 7762750.149174168 ; 1.8790991160069352E8 ; 1.6847577944714385E8 ; 3.0293907226433377E9 ; 0.0
24 ; 7773024.61323953 ; 1.951682350474879E8 ; 1.76238529596318E8 ; 3.2173006342440314E9 ; 0.0
25 ; 7781594.925021286 ; 2.0142360012146464E8 ; 1.8401155420955753E8 ; 3.412468869291519E9 ; 0.0
26 ; 7789510.570439588 ; 2.0142954890126738E8 ; 1.9179314913457882E8 ; 3.613892469412984E9 ; 0.0
27 ; 7797691.865386154 ; 2.0143584468452674E8 ; 1.995826597050184E8 ; 3.8153220183142514E9 ; 0.0
28 ; 7810973.455049994 ; 2.01442481259302E8 ; 2.0738035157040456E8 ; 4.0167578629987783E9 ; 0.0
29 ; 7819526.529394306 ; 2.0144945222186583E8 ; 2.1519132502545455E8 ; 4.2182003442580805E9 ; 0.0
30 ; 7827101.107354504 ; 2.0145675100092742E8 ; 2.2301085155484885E8 ; 4.419649796479946E9 ; 0.0
31 ; 7836091.499528951 ; 2.014643708813697E8 ; 2.3083795266220334E8 ; 4.621106547480873E9 ; 0.0
32 ; 7843664.249857345 ; 2.014723050273495E8 ; 2.386740441617323E8 ; 4.822570918362243E9 ; 0.0
33 ; 7851786.496570855 ; 2.0148054650462896E8 ; 2.4651770841158962E8 ; 5.024043223389592E9 ; 0.0
34 ; 7860335.386734732 ; 2.0148908830202475E8 ; 2.5436949490816048E8 ; 5.225523769894221E9 ; 0.0
35 ; 7869745.219960947 ; 2.014979233518821E8 ; 2.622298302948952E8 ; 5.427012858196246E9 ; 0.0
36 ; 7876762.068911868 ; 2.015070445494975E8 ; 2.7009957551485616E8 ; 5.628510781548128E9 ; 0.0
37 ; 7881967.875200577 ; 2.0151644477143353E8 ; 2.77976337583768E8 ; 5.830017826097626E9 ; 0.0
38 ; 7890312.074808395 ; 2.0152611689268464E8 ; 2.858583054589686E8 ; 6.03153427086906E9 ; 0.0
39 ; 7896219.388236253 ; 2.0153605380266842E8 ; 2.93748617533777E8 ; 6.2330603877617445E9 ; 0.0
40 ; 7904588.081543402 ; 2.0154624842003217E8 ; 3.016448369220132E8 ; 6.434596441564413E9 ; 0.0
41 ; 7910802.875959218 ; 2.0155669370627543E8 ; 3.095494250035566E8 ; 6.636142689984446E9 ; 0.0
42 ; 7918487.400162421 ; 2.0156738267820224E8 ; 3.174602278795158E8 ; 6.837699383690721E9 ; 0.0
43 ; 7924430.079066506 ; 2.0157830841922534E8 ; 3.253787152796782E8 ; 7.039266766368923E9 ; 0.0
44 ; 7926822.62769227 ; 2.0158946408955336E8 ; 3.3330314535874474E8 ; 7.240845074788149E9 ; 0.0
45 ; 7932674.693116547 ; 2.0160084293529937E8 ; 3.41229967986437E8 ; 7.442434538877703E9 ; 0.0
46 ; 7936347.387416405 ; 2.0161243829655394E8 ; 3.4916264267955357E8 ; 7.644035381813002E9 ; 0.0
47 ; 7941812.896294012 ; 2.016242436144709E8 ; 3.5709899006697E8 ; 7.845647820109555E9 ; 0.0
48 ; 7944532.984531961 ; 2.016362524374172E8 ; 3.65040802963264E8 ; 8.047272063724026E9 ; 0.0
49 ; 7947078.384979694 ; 2.0164845842624027E8 ; 3.729853359477959E8 ; 8.248908316161443E9 ; 0.0
50 ; 7951721.567973224 ; 2.0166085535870773E8 ; 3.809324143327756E8 ; 8.450556774587683E9 ; 0.0
51 ; 7953998.068101192 ; 2.0167343713317546E8 ; 3.888841359007488E8 ; 8.65221762994639E9 ; 0.0
52 ; 7956777.488827191 ; 2.0168619777153865E8 ; 3.9683813396884996E8 ; 8.853891067079565E9 ; 0.0
53 ; 7960337.214232473 ; 2.0169913142152125E8 ; 4.047949114576771E8 ; 9.055577264851103E9 ; 0.0
54 ; 7959622.027646502 ; 2.0171223235835686E8 ; 4.127552486719096E8 ; 9.257276396272625E9 ; 0.0
55 ; 7966829.520544956 ; 2.0172549498591325E8 ; 4.2071487069955605E8 ; 9.458988628630981E9 ; 0.0
56 ; 7970868.466355835 ; 2.017389138373103E8 ; 4.28681700220101E8 ; 9.660714123616894E9 ; 0.0
57 ; 7972741.858255522 ; 2.0175248357507953E8 ; 4.3665256868645686E8 ; 9.862453037454205E9 ; 0.0
58 ; 7975557.505181932 ; 2.0176619899091032E8 ; 4.4462531054471236E8 ; 1.0064205521029284E10 ; 0.0
59 ; 7976892.901033967 ; 2.0178005500502634E8 ; 4.526008680498943E8 ; 1.0265971720020193E10 ; 0.0
60 ; 7978617.538927732 ; 2.0179404666523233E8 ; 4.605777609509282E8 ; 1.0467751775025219E10 ; 0.0
61 ; 7981500.467649672 ; 2.0180816914566943E8 ; 4.6855637848985595E8 ; 1.066954582169045E10 ; 0.0
62 ; 7984663.993479353 ; 2.018224177453144E8 ; 4.7653787895750564E8 ; 1.087135399083612E10 ; 0.0
63 ; 7985041.188688011 ; 2.0183678788625523E8 ; 4.84522542950985E8 ; 1.1073176408581434E10 ; 0.0
64 ; 7989694.398758862 ; 2.018512751117744E8 ; 4.9250758413967305E8 ; 1.127501319646769E10 ; 0.0
65 ; 7990012.385630735 ; 2.0186587508426645E8 ; 5.0049727853843194E8 ; 1.1476864471579464E10 ; 0.0
66 ; 7993031.647587143 ; 2.0188058358301672E8 ; 5.0848729092406267E8 ; 1.167873034666373E10 ; 0.0
67 ; 7995687.3908709865 ; 2.0189539650186414E8 ; 5.164803225716498E8 ; 1.1880610930246748E10 ; 0.0
68 ; 7997603.311831562 ; 2.0191030984676918E8 ; 5.244760099625208E8 ; 1.2082506326748611E10 ; 0.0
69 ; 7997692.355780261 ; 2.019253197333069E8 ; 5.324736132743523E8 ; 1.228441663659538E10 ; 0.0
70 ; 8003178.728067796 ; 2.0194042238410228E8 ; 5.404713056301326E8 ; 1.2486341956328688E10 ; 0.0
71 ; 8001482.907658181 ; 2.019556141262232E8 ; 5.484744843582003E8 ; 1.268828237871279E10 ; 0.0
72 ; 8007764.114809887 ; 2.0197089138854605E8 ; 5.564759672658585E8 ; 1.2890237992839012E10 ; 0.0
73 ; 8004705.367530642 ; 2.019862506991057E8 ; 5.644837313806684E8 ; 1.3092208884227558E10 ; 0.0
74 ; 8009325.015611404 ; 2.0200168868244153E8 ; 5.72488436748199E8 ; 1.3294195134926664E10 ; 0.0
75 ; 8009302.654325202 ; 2.0201720205694917E8 ; 5.804977617638104E8 ; 1.3496196823609106E10 ; 0.0
76 ; 8009467.165725856 ; 2.0203278763224676E8 ; 5.885070644181356E8 ; 1.3698214025666056E10 ; 0.0
77 ; 8011847.010856826 ; 2.020484423065635E8 ; 5.965165315838615E8 ; 1.3900246813298302E10 ; 0.0
78 ; 8012644.230617568 ; 2.020641630641566E8 ; 6.045283785947183E8 ; 1.4102295255604866E10 ; 0.0
79 ; 8008463.32524402 ; 2.02079946972763E8 ; 6.125410228253359E8 ; 1.4304359418669024E10 ; 0.0
80 ; 8009426.044704751 ; 2.0209579118109035E8 ; 6.205494861505799E8 ; 1.4506439365641787E10 ; 0.0
81 ; 8008922.613289259 ; 2.0211169291635135E8 ; 6.285589121952847E8 ; 1.4708535156822876E10 ; 0.0
82 ; 8005871.770363766 ; 2.021276494818452E8 ; 6.36567834808574E8 ; 1.4910646849739227E10 ; 0.0
83 ; 8006043.215839366 ; 2.0214365825458887E8 ; 6.445737065789378E8 ; 1.5112774499221073E10 ; 0.0
84 ; 8001439.084897179 ; 2.0215971668300045E8 ; 6.525797497947772E8 ; 1.5314918157475662E10 ; 0.0
85 ; 7999827.966892881 ; 2.0217582228463644E8 ; 6.605811888796743E8 ; 1.5517077874158663E10 ; 0.0
86 ; 8001453.857339303 ; 2.021919726439846E8 ; 6.685810168465672E8 ; 1.5719253696443298E10 ; 0.0
87 ; 8001587.04761137 ; 2.0220816541031286E8 ; 6.765824707039064E8 ; 1.5921445669087282E10 ; 0.0
88 ; 7999676.093518508 ; 2.0222439829557574E8 ; 6.845840577515178E8 ; 1.6123653834497595E10 ; 0.0
89 ; 7992118.746173211 ; 2.0224066907237762E8 ; 6.925837338450363E8 ; 1.632587823279317E10 ; 0.0
90 ; 7981077.131969972 ; 2.0225697557199398E8 ; 7.005758525912095E8 ; 1.652811890186555E10 ; 0.0
91 ; 7967513.816658725 ; 2.022733156824498E8 ; 7.085569297231795E8 ; 1.6730375877437544E10 ; 0.0
92 ; 7961791.83596948 ; 2.0228968734665486E8 ; 7.165244435398382E8 ; 1.6932649193119993E10 ; 0.0
93 ; 7948716.445724169 ; 2.0230608856059593E8 ; 7.244862353758076E8 ; 1.7134938880466648E10 ; 0.0
94 ; 7935994.972800633 ; 2.023225173715844E8 ; 7.324349518215318E8 ; 1.7337244969027245E10 ; 0.0
95 ; 7926909.472978857 ; 2.0233897187655917E8 ; 7.403709467943324E8 ; 1.753956748639883E10 ; 0.0
96 ; 7912865.172615914 ; 2.0235545022044367E8 ; 7.482978562673112E8 ; 1.774190645827539E10 ; 0.0
97 ; 7903693.951664303 ; 2.0237195059455594E8 ; 7.562107214399271E8 ; 1.7944261908495834E10 ; 0.0
98 ; 7890777.526762966 ; 2.0238847123507088E8 ; 7.641144153915914E8 ; 1.814663385909039E10 ; 0.0
99 ; 7880023.339886686 ; 2.0240501042153326E8 ; 7.720051929183544E8 ; 1.834902233032546E10 ; 0.0
100 ; 7867416.250193794 ; 2.024215664754208E8 ; 7.79885216258241E8 ; 1.855142734074699E10 ; 0.0
101 ; 7856656.904925214 ; 2.0243813775875536E8 ; 7.877526325084349E8 ; 1.8753848907222412E10 ; 0.0
102 ; 7845604.125743174 ; 2.0245472267276183E8 ; 7.956092894133601E8 ; 1.8956287044981167E10 ; 0.0
103 ; 7832489.532346688 ; 2.0247131965657267E8 ; 8.034548935391033E8 ; 1.9158741767653927E10 ; 0.0
104 ; 7819631.1495675985 ; 2.0248792718597746E8 ; 8.1128738307145E8 ; 1.93612130873105E10 ; 0.0
105 ; 7808960.262727952 ; 2.0250454377221563E8 ; 8.191070142210176E8 ; 1.956370101449648E10 ; 0.0
106 ; 7796595.862251432 ; 2.0252116796081167E8 ; 8.269159744837456E8 ; 1.9766205558268696E10 ; 0.0
107 ; 7784364.575625141 ; 2.02537798330451E8 ; 8.34712570345997E8 ; 1.9968726726229507E10 ; 0.0
108 ; 7772619.183984206 ; 2.0255443349189547E8 ; 8.424969349216222E8 ; 2.017126452455996E10 ; 0.0
109 ; 7759392.227336108 ; 2.025710720869372E8 ; 8.502695541056063E8 ; 2.0373818958051853E10 ; 0.0
110 ; 7745745.952814006 ; 2.025877127873898E8 ; 8.580289463329424E8 ; 2.057639003013879E10 ; 0.0
111 ; 7734233.373561618 ; 2.0260435429411528E8 ; 8.657746922857563E8 ; 2.077897774292618E10 ; 0.0
112 ; 7723203.079217671 ; 2.026209953360856E8 ; 8.73508925659318E8 ; 2.09815820972203E10 ; 0.0
113 ; 7709536.278078086 ; 2.0263763466947794E8 ; 8.812321287385356E8 ; 2.1184203092556385E10 ; 0.0
114 ; 7695962.050962048 ; 2.026542710768025E8 ; 8.889416650166137E8 ; 2.1386840727225864E10 ; 0.0
115 ; 7682102.178401516 ; 2.026709033660612E8 ; 8.966376270675758E8 ; 2.1589494998302666E10 ; 0.0
116 ; 7670640.740427585 ; 2.0268753036993703E8 ; 9.043197292459773E8 ; 2.1792165901668728E10 ; 0.0
117 ; 7658365.3636463275 ; 2.0270415094501215E8 ; 9.119903699864049E8 ; 2.1994853432038666E10 ; 0.0
118 ; 7645221.855352078 ; 2.0272076397101438E8 ; 9.196487353500512E8 ; 2.2197557582983677E10 ; 0.0
119 ; 7635592.260139133 ; 2.027373683500908E8 ; 9.272939572054032E8 ; 2.2400278346954693E10 ; 0.0
120 ; 7619222.217935552 ; 2.0275396300610727E8 ; 9.349295494655423E8 ; 2.2603015715304783E10 ; 0.0
121 ; 7609285.8392425915 ; 2.027705468839734E8 ; 9.425487716834779E8 ; 2.280576967831089E10 ; 0.0
122 ; 7594888.140383778 ; 2.0278711894899157E8 ; 9.501580575227205E8 ; 2.3008540225194862E10 ; 0.0
123 ; 7582603.001539873 ; 2.0280367818622965E8 ; 9.577529456631042E8 ; 2.3211327344143852E10 ; 0.0
124 ; 7570023.762348919 ; 2.0282022359991604E8 ; 9.65335548664644E8 ; 2.3414131022330082E10 ; 0.0
125 ; 7553479.268894184 ; 2.028367542128564E8 ; 9.729055724269929E8 ; 2.3616951245929996E10 ; 0.0
126 ; 7540674.11341199 ; 2.0285326906587157E8 ; 9.804590516958871E8 ; 2.3819788000142853E10 ; 0.0
127 ; 7526748.178966894 ; 2.028697672172553E8 ; 9.879997258092991E8 ; 2.4022641269208725E10 ; 0.0
128 ; 7512535.141968045 ; 2.028862477422516E8 ; 9.95526473988266E8 ; 2.422551103642598E10 ; 0.0
129 ; 7501036.740913287 ; 2.0290270973255086E8 ; 1.003039009130234E9 ; 2.4428397284168232E10 ; 0.0
130 ; 7483277.647355633 ; 2.029191522958036E8 ; 1.0105400458711473E9 ; 2.4631299993900784E10 ; 0.0
131 ; 7470225.789043478 ; 2.0293557455515197E8 ; 1.018023323518503E9 ; 2.4834219146196587E10 ; 0.0
132 ; 7452945.962819099 ; 2.0295197564877757E8 ; 1.0254935493075464E9 ; 2.503715472075174E10 ; 0.0
133 ; 7437743.878371368 ; 2.029683547294656E8 ; 1.0329464952703655E9 ; 2.5240106696400517E10 ; 0.0
134 ; 7421724.570389938 ; 2.0298471096418425E8 ; 1.0403842391487368E9 ; 2.5443075051129982E10 ; 0.0
135 ; 7406424.671965295 ; 2.0300104353367922E8 ; 1.0478059637191268E9 ; 2.5646059762094166E10 ; 0.0
136 ; 7387746.868594558 ; 2.0301735163208222E8 ; 1.0552123883910921E9 ; 2.5849060805627846E10 ; 0.0
137 ; 7370788.11204075 ; 2.0303363446653354E8 ; 1.0626001352596866E9 ; 2.605207815725993E10 ; 0.0
138 ; 7355336.837068462 ; 2.0304989125681794E8 ; 1.0699709233717273E9 ; 2.6255111791726463E10 ; 0.0
139 ; 7338874.070035891 ; 2.0306612123501298E8 ; 1.0773262602087958E9 ; 2.645816168298328E10 ; 0.0
140 ; 7324018.638943303 ; 2.0308232364514998E8 ; 1.0846651342788317E9 ; 2.6661227804218292E10 ; 0.0
141 ; 7304646.175405314 ; 2.0309849774288675E8 ; 1.091989152917775E9 ; 2.686431012786344E10 ; 0.0
142 ; 7289930.039624458 ; 2.0311464279519162E8 ; 1.0992937990931802E9 ; 2.7067408625606327E10 ; 0.0
143 ; 7274327.1465424625 ; 2.0313075808003864E8 ; 1.1065837291328046E9 ; 2.727052326840152E10 ; 0.0
144 ; 7254841.338189719 ; 2.0314684288611302E8 ; 1.1138580562793472E9 ; 2.747365402648156E10 ; 0.0
145 ; 7243574.750119038 ; 2.0316289651252726E8 ; 1.1211128976175368E9 ; 2.7676800869367672E10 ; 0.0
146 ; 7228530.255513915 ; 2.031789182685466E8 ; 1.1283564723676558E9 ; 2.78799637658802E10 ; 0.0
147 ; 7214195.312149219 ; 2.0319490747332418E8 ; 1.1355850026231697E9 ; 2.8083142684148746E10 ; 0.0
148 ; 7200320.5023420295 ; 2.0321086345564526E8 ; 1.142799197935319E9 ; 2.828633759162207E10 ; 0.0
149 ; 7186625.081278304 ; 2.0322678555368012E8 ; 1.149999518437661E9 ; 2.8489548455077717E10 ; 0.0
150 ; 7170276.0912206285 ; 2.0324267311474544E8 ; 1.1571861435189393E9 ; 2.8692775240631397E10 ; 0.0
151 ; 7156742.973654275 ; 2.032585254950739E8 ; 1.1643564196101599E9 ; 2.8896017913746143E10 ; 0.0
152 ; 7146315.9421027405 ; 2.0327434205959147E8 ; 1.1715131625838141E9 ; 2.909927643924122E10 ; 0.0
153 ; 7130167.099846189 ; 2.0329012218170232E8 ; 1.1786594785259168E9 ; 2.930255078130081E10 ; 0.0
154 ; 7118989.860173416 ; 2.0330586524308088E8 ; 1.185789645625763E9 ; 2.9505840903482513E10 ; 0.0
155 ; 7103012.9837169945 ; 2.033215706334712E8 ; 1.1929086354859364E9 ; 2.9709146768725594E10 ; 0.0
156 ; 7089954.226684468 ; 2.0333723775049275E8 ; 1.2000116484696534E9 ; 2.9912468339359066E10 ; 0.0
157 ; 7074197.370413463 ; 2.033528659994528E8 ; 1.207101602696338E9 ; 3.011580557710956E10 ; 0.0
158 ; 7059345.669646926 ; 2.033684547931652E8 ; 1.2141758000667515E9 ; 3.0319158443109013E10 ; 0.0
159 ; 7042110.721648567 ; 2.033840035517751E8 ; 1.2212351457363985E9 ; 3.0522526897902176E10 ; 0.0
160 ; 7030732.987773703 ; 2.0339951170258948E8 ; 1.228277256458047E9 ; 3.0725910901453953E10 ; 0.0
161 ; 7016616.243727533 ; 2.034149786799133E8 ; 1.2353079894458206E9 ; 3.0929310413156544E10 ; 0.0
162 ; 7001869.472158726 ; 2.0343040392489123E8 ; 1.242324605689548E9 ; 3.1132725391836456E10 ; 0.0
163 ; 6989291.482077872 ; 2.0344578688535437E8 ; 1.2493264751617067E9 ; 3.133615579576135E10 ; 0.0
164 ; 6971651.783767104 ; 2.0346112701567203E8 ; 1.2563157666437845E9 ; 3.15396015826467E10 ; 0.0
165 ; 6959016.674602825 ; 2.0347642377660868E8 ; 1.2632874184275517E9 ; 3.1743062709662373E10 ; 0.0
166 ; 6942499.4796162825 ; 2.0349167663518512E8 ; 1.2702464351021545E9 ; 3.194653913343898E10 ; 0.0
167 ; 6930261.214245716 ; 2.0350688506454456E8 ; 1.2771889345817707E9 ; 3.2150030810074165E10 ; 0.0
168 ; 6913954.424170615 ; 2.0352204854382282E8 ; 1.2841191957960165E9 ; 3.235353769513871E10 ; 0.0
169 ; 6899364.268257126 ; 2.0353716655802292E8 ; 1.2910331502201872E9 ; 3.2557059743682533E10 ; 0.0
170 ; 6887470.448820597 ; 2.0355223859789348E8 ; 1.2979325144884443E9 ; 3.2760596910240555E10 ; 0.0
171 ; 6872213.8561947625 ; 2.035672641598114E8 ; 1.304819984937265E9 ; 3.2964149148838448E10 ; 0.0
172 ; 6855814.020032441 ; 2.0358224274566793E8 ; 1.3116921987934597E9 ; 3.316771641299826E10 ; 0.0
173 ; 6840476.65504039 ; 2.0359717386275876E8 ; 1.318548012813492E9 ; 3.3371298655743927E10 ; 0.0
174 ; 6828850.985246722 ; 2.036120570236773E8 ; 1.3253884894685326E9 ; 3.3574895829606686E10 ; 0.0
175 ; 6814210.197347225 ; 2.0362689174621162E8 ; 1.3322173404537792E9 ; 3.3778507886630363E10 ; 0.0
176 ; 6805180.719610857 ; 2.036416775532446E8 ; 1.3390315506511264E9 ; 3.3982134778376575E10 ; 0.0
177 ; 6788784.648082935 ; 2.0365641397265714E8 ; 1.3458367313707373E9 ; 3.418577645592982E10 ; 0.0
178 ; 6776411.525597576 ; 2.0367110053723457E8 ; 1.3526255160188203E9 ; 3.438943286990248E10 ; 0.0
179 ; 6767748.134889694 ; 2.0368573678457612E8 ; 1.3594019275444179E9 ; 3.459310397043971E10 ; 0.0
180 ; 6752420.703783853 ; 2.037003222570068E8 ; 1.3661696756793075E9 ; 3.479678970722429E10 ; 0.0
181 ; 6742649.278585461 ; 2.037148565014927E8 ; 1.3729220963830912E9 ; 3.500049002948129E10 ; 0.0
182 ; 6731907.695716945 ; 2.0372933906955838E8 ; 1.3796647456616766E9 ; 3.520420488598279E10 ; 0.0
183 ; 6716476.841445787 ; 2.037437695172072E8 ; 1.3863966533573935E9 ; 3.5407934225052345E10 ; 0.0
184 ; 6702650.490661295 ; 2.03758147404844E8 ; 1.3931131301988392E9 ; 3.561167799456955E10 ; 0.0
185 ; 6692131.15590204 ; 2.0377247229720005E8 ; 1.3998157806895006E9 ; 3.5815436141974396E10 ; 0.0
186 ; 6677642.972012461 ; 2.037867437632608E8 ; 1.4065079118454027E9 ; 3.60192086142716E10 ; 0.0
187 ; 6667217.7743881885 ; 2.0380096137619534E8 ; 1.4131855548174152E9 ; 3.622299535803486E10 ; 0.0
188 ; 6653389.511448972 ; 2.038151247132883E8 ; 1.4198527725918033E9 ; 3.642679631941106E10 ; 0.0
189 ; 6640912.01996229 ; 2.0382923335587388E8 ; 1.4265061621032522E9 ; 3.6630611444124344E10 ; 0.0
190 ; 6628600.077473269 ; 2.0384328688927186E8 ; 1.4331470741232145E9 ; 3.683444067748022E10 ; 0.0
191 ; 6619198.740006827 ; 2.0385728490272552E8 ; 1.4397756742006876E9 ; 3.703828396436949E10 ; 0.0
192 ; 6605703.6654743245 ; 2.0387122698934156E8 ; 1.4463948729406946E9 ; 3.724214124927222E10 ; 0.0
193 ; 6589697.097178634 ; 2.0388511274603185E8 ; 1.453000576606169E9 ; 3.744601247626156E10 ; 0.0
194 ; 6578762.759575243 ; 2.0389894177345696E8 ; 1.4595902737033477E9 ; 3.764989758900759E10 ; 0.0
195 ; 6566688.696532963 ; 2.0391271367597127E8 ; 1.4661690364629228E9 ; 3.785379653078105E10 ; 0.0
196 ; 6553544.077479742 ; 2.0392642806157002E8 ; 1.4727357251594558E9 ; 3.805770924445702E10 ; 0.0
197 ; 6542025.29061653 ; 2.0394008454183775E8 ; 1.4792892692369356E9 ; 3.826163567251859E10 ; 0.0
198 ; 6528929.820622744 ; 2.0395368273189834E8 ; 1.4858312945275521E9 ; 3.846557575706043E10 ; 0.0
199 ; 6517022.744345571 ; 2.0396722225036672E8 ; 1.4923602243481748E9 ; 3.866952943979233E10 ; 0.0
200 ; 6503844.322810176 ; 1.7306438099952546E8 ; 1.4988772470925205E9 ; 3.8873496662042694E10 ; 0.0
