CSV File for the City 1 on Day 12
1 - Minute m 
2 - Power Consumed at minute m 
3 - Power Produced at minute m 
4 - Energy Consumed since the beginning of the day 
5 - Energy Produced since the beginning of the day 
6 - Energy Lost since the beginning of the day on lines starting from the city
 
0 ; 1.5988130570068348E7 ; 1.0527429724565175E8 ; 0.0 ; 0.0 ; 0.0
1 ; 1.6003968897750372E7 ; 1.0542584733647466E8 ; 1.5988130570068348E7 ; 1.0527429724565175E8 ; 0.0
2 ; 1.6022589839657102E7 ; 1.0588627004645887E8 ; 3.1992099467818722E7 ; 2.107001445821264E8 ; 0.0
3 ; 1.6040462756570855E7 ; 1.0665558226091069E8 ; 4.801468930747582E7 ; 3.165864146285853E8 ; 0.0
4 ; 1.6064867237252386E7 ; 1.077338006390537E8 ; 6.405515206404667E7 ; 4.2324199688949597E8 ; 0.0
5 ; 1.6096370694598053E7 ; 1.091209411690529E8 ; 8.012001930129907E7 ; 5.309757975285497E8 ; 0.0
6 ; 1.6134417891084496E7 ; 1.1081701866591564E8 ; 9.621638999589711E7 ; 6.400967386976025E8 ; 0.0
7 ; 1.6184738112476323E7 ; 1.1282204623828101E8 ; 1.123508078869816E8 ; 7.509137573635181E8 ; 0.0
8 ; 1.6263488385463996E7 ; 1.151360347604782E8 ; 1.2853554599945793E8 ; 8.637358036017991E8 ; 0.0
9 ; 1.637994866689917E7 ; 1.1775899239358854E8 ; 1.447990343849219E8 ; 9.788718383622773E8 ; 0.0
10 ; 1.6566106852396319E7 ; 1.2069092420113319E8 ; 1.6117898305182108E8 ; 1.0966308307558658E9 ; 0.0
11 ; 1.684920566484309E7 ; 1.2393183189976141E8 ; 1.777450899042174E8 ; 1.217321754956999E9 ; 0.0
12 ; 1.731075373559961E7 ; 1.274817137728239E8 ; 1.9459429556906047E8 ; 1.3412535868567605E9 ; 0.0
13 ; 1.7757905067608487E7 ; 1.3134056475679952E8 ; 2.1190504930466008E8 ; 1.4687353006295843E9 ; 0.0
14 ; 1.7807630315554395E7 ; 1.35508376690607E8 ; 2.2966295437226856E8 ; 1.6000758653863838E9 ; 0.0
15 ; 1.7830125934950728E7 ; 1.3998513869991708E8 ; 2.4747058468782294E8 ; 1.7355842420769908E9 ; 0.0
16 ; 1.7853063166190896E7 ; 1.4477083767609075E8 ; 2.6530071062277368E8 ; 1.875569380776908E9 ; 0.0
17 ; 1.7874797432732195E7 ; 1.4986545880412057E8 ; 2.8315377378896457E8 ; 2.0203402184529986E9 ; 0.0
18 ; 1.789504576526794E7 ; 1.552689860958416E8 ; 3.0102857122169673E8 ; 2.170205677257119E9 ; 0.0
19 ; 1.7914613586335752E7 ; 1.609814028920302E8 ; 3.189236169869647E8 ; 2.3254746633529606E9 ; 0.0
20 ; 1.793291038847927E7 ; 1.670026923073801E8 ; 3.368382305733005E8 ; 2.486456066244991E9 ; 0.0
21 ; 1.7952682284259684E7 ; 1.733328376033204E8 ; 3.547711409617798E8 ; 2.653458758552371E9 ; 0.0
22 ; 1.7974758172771573E7 ; 1.7997182248339826E8 ; 3.7272382324603945E8 ; 2.8267915961556916E9 ; 0.0
23 ; 1.7995852496897418E7 ; 1.8691963131347328E8 ; 3.90698581418811E8 ; 3.00676341863909E9 ; 0.0
24 ; 1.8018803816459708E7 ; 1.9417624927397686E8 ; 4.086944339157084E8 ; 3.1936830499525633E9 ; 0.0
25 ; 1.8037182584427908E7 ; 2.0042970335238644E8 ; 4.2671323773216814E8 ; 3.38785929922654E9 ; 0.0
26 ; 1.8054158015257493E7 ; 2.0043352842731902E8 ; 4.4475042031659603E8 ; 3.5882890025789266E9 ; 0.0
27 ; 1.8075706362432946E7 ; 2.00437481804079E8 ; 4.628045783318535E8 ; 3.7887225310062456E9 ; 0.0
28 ; 1.8097242161307015E7 ; 2.004415524449813E8 ; 4.8088028469428647E8 ; 3.9891600128103247E9 ; 0.0
29 ; 1.8114899912618853E7 ; 2.0044573022708124E8 ; 4.989775268555935E8 ; 4.189601565255306E9 ; 0.0
30 ; 1.813555167798989E7 ; 2.0045000589410922E8 ; 5.170924267682124E8 ; 4.390047295482387E9 ; 0.0
31 ; 1.8155429503394455E7 ; 2.0045437100094584E8 ; 5.352279784462023E8 ; 4.590497301376495E9 ; 0.0
32 ; 1.8174288501110177E7 ; 2.0045881785447738E8 ; 5.533834079495968E8 ; 4.790951672377441E9 ; 0.0
33 ; 1.819380313250783E7 ; 2.0046333945362636E8 ; 5.71557696450707E8 ; 4.991410490231918E9 ; 0.0
34 ; 1.8211543078881804E7 ; 2.0046792943051395E8 ; 5.897514995832148E8 ; 5.191873829685545E9 ; 0.0
35 ; 1.8228594117618605E7 ; 2.0047258199405763E8 ; 6.079630426620966E8 ; 5.392341759116059E9 ; 0.0
36 ; 1.824345125334996E7 ; 2.004772918768151E8 ; 6.261916367797152E8 ; 5.592814341110117E9 ; 0.0
37 ; 1.8263276470007833E7 ; 2.0048205428552106E8 ; 6.444350880330651E8 ; 5.793291632986932E9 ; 0.0
38 ; 1.8274296871918447E7 ; 2.0048686485550424E8 ; 6.626983645030729E8 ; 5.993773687272453E9 ; 0.0
39 ; 1.82901351081427E7 ; 2.0049171960899082E8 ; 6.809726613749913E8 ; 6.194260552127957E9 ; 0.0
40 ; 1.8303961877215557E7 ; 2.0049661491717994E8 ; 6.99262796483134E8 ; 6.394752271736948E9 ; 0.0
41 ; 1.831459302507626E7 ; 2.005015474659009E8 ; 7.175667583603495E8 ; 6.595248886654128E9 ; 0.0
42 ; 1.832869793352304E7 ; 2.0050651422461653E8 ; 7.358813513854258E8 ; 6.795750434120029E9 ; 0.0
43 ; 1.83402955994606E7 ; 2.005115124185171E8 ; 7.542100493189489E8 ; 6.996256948344646E9 ; 0.0
44 ; 1.8353897737100087E7 ; 2.0051653950344178E8 ; 7.725503449184095E8 ; 7.196768460763164E9 ; 0.0
45 ; 1.8362956628366787E7 ; 2.0052159314336994E8 ; 7.909042426555096E8 ; 7.397285000266605E9 ; 0.0
46 ; 1.8371467390503436E7 ; 2.00526671190236E8 ; 8.092671992838764E8 ; 7.597806593409975E9 ; 0.0
47 ; 1.8381619448470585E7 ; 2.0053177166583624E8 ; 8.276386666743798E8 ; 7.798333264600211E9 ; 0.0
48 ; 1.8384880777077027E7 ; 2.0053689274561346E8 ; 8.460202861228504E8 ; 7.9988650362660475E9 ; 0.0
49 ; 1.8394117938153792E7 ; 2.0054203274412325E8 ; 8.644051668999275E8 ; 8.199401929011661E9 ; 0.0
50 ; 1.8398920970390026E7 ; 2.0054719010200453E8 ; 8.827992848380812E8 ; 8.399943961755784E9 ; 0.0
51 ; 1.840646095922217E7 ; 2.0055236337429225E8 ; 9.011982058084713E8 ; 8.600491151857788E9 ; 0.0
52 ; 1.840897208082295E7 ; 2.0055755121992895E8 ; 9.196046667676935E8 ; 8.80104351523208E9 ; 0.0
53 ; 1.841113093694422E7 ; 2.005627523923447E8 ; 9.380136388485165E8 ; 9.00160106645201E9 ; 0.0
54 ; 1.8420003578487623E7 ; 2.005679657309907E8 ; 9.564247697854607E8 ; 9.202163818844355E9 ; 0.0
55 ; 1.8423690513117023E7 ; 2.005731901537224E8 ; 9.748447733639483E8 ; 9.402731784575346E9 ; 0.0
56 ; 1.843173330505922E7 ; 2.005784246499415E8 ; 9.932684638770654E8 ; 9.603304974729069E9 ; 0.0
57 ; 1.843333622005528E7 ; 2.0058366827441445E8 ; 1.0117001971821246E9 ; 9.803883399379011E9 ; 0.0
58 ; 1.8436279255816806E7 ; 2.005889201416954E8 ; 1.0301335334021798E9 ; 1.0004467067653425E10 ; 0.0
59 ; 1.8441095897204652E7 ; 2.005941794210892E8 ; 1.0485698126579967E9 ; 1.020505598779512E10 ; 0.0
60 ; 1.8438680731990032E7 ; 2.0059944533209702E8 ; 1.0670109085552013E9 ; 1.040565016721621E10 ; 0.0
61 ; 1.844767790318289E7 ; 2.0060471714029428E8 ; 1.0854495892871914E9 ; 1.0606249612548306E10 ; 0.0
62 ; 1.8449394507400822E7 ; 2.0060999415359554E8 ; 1.1038972671903744E9 ; 1.08068543296886E10 ; 0.0
63 ; 1.8458378598871928E7 ; 2.0061527571886623E8 ; 1.1223466616977751E9 ; 1.1007464323842196E10 ; 0.0
64 ; 1.8455809089229528E7 ; 2.0062056121884578E8 ; 1.140805040296647E9 ; 1.1208079599561062E10 ; 0.0
65 ; 1.846165608815542E7 ; 2.006258500693505E8 ; 1.1592608493858767E9 ; 1.1408700160779907E10 ; 0.0
66 ; 1.8463765992898293E7 ; 2.006311417167276E8 ; 1.1777225054740322E9 ; 1.1609326010849258E10 ; 0.0
67 ; 1.8459317628062338E7 ; 2.00636435635536E8 ; 1.1961862714669304E9 ; 1.1809957152565987E10 ; 0.0
68 ; 1.8466255554854687E7 ; 2.0064173132643032E8 ; 1.2146455890949926E9 ; 1.2010593588201523E10 ; 0.0
69 ; 1.846750536283425E7 ; 2.006470283142298E8 ; 1.2331118446498473E9 ; 1.2211235319527954E10 ; 0.0
70 ; 1.8468749979057293E7 ; 2.0065232614615214E8 ; 1.2515793500126815E9 ; 1.2411882347842184E10 ; 0.0
71 ; 1.847361777964071E7 ; 2.0065762439019835E8 ; 1.2700480999917388E9 ; 1.2612534673988337E10 ; 0.0
72 ; 1.8473311079929505E7 ; 2.0066292263367283E8 ; 1.2885217177713795E9 ; 1.2813192298378534E10 ; 0.0
73 ; 1.8474162499721356E7 ; 2.0066822048182666E8 ; 1.306995028851309E9 ; 1.3013855221012207E10 ; 0.0
74 ; 1.8475947659758393E7 ; 2.0067351755661252E8 ; 1.3254691913510303E9 ; 1.3214523441494034E10 ; 0.0
75 ; 1.8477093541509524E7 ; 2.0067881349554053E8 ; 1.3439451390107887E9 ; 1.3415196959050646E10 ; 0.0
76 ; 1.847512569713902E7 ; 2.0068410795062637E8 ; 1.3624222325522983E9 ; 1.3615875772546186E10 ; 0.0
77 ; 1.8474889180537205E7 ; 2.0068940058742288E8 ; 1.3808973582494373E9 ; 1.3816559880496813E10 ; 0.0
78 ; 1.8475106830567203E7 ; 2.006946910841278E8 ; 1.3993722474299746E9 ; 1.4017249281084236E10 ; 0.0
79 ; 1.8468430528041128E7 ; 2.006999791307611E8 ; 1.4178473542605417E9 ; 1.4217943972168364E10 ; 0.0
80 ; 1.846139286004878E7 ; 2.0070526442840526E8 ; 1.4363157847885828E9 ; 1.4418643951299124E10 ; 0.0
81 ; 1.8453548868259665E7 ; 2.0071054668850395E8 ; 1.4547771776486316E9 ; 1.461934921572753E10 ; 0.0
82 ; 1.8450651026317246E7 ; 2.0071582563221285E8 ; 1.4732307265168912E9 ; 1.4820059762416033E10 ; 0.0
83 ; 1.8449263260996174E7 ; 2.0072110098979938E8 ; 1.4916813775432086E9 ; 1.5020775588048246E10 ; 0.0
84 ; 1.843930514912287E7 ; 2.0072637250008646E8 ; 1.5101306408042047E9 ; 1.5221496689038046E10 ; 0.0
85 ; 1.8435199786367033E7 ; 2.007316399099369E8 ; 1.5285699459533277E9 ; 1.5422223061538132E10 ; 0.0
86 ; 1.8422782860521138E7 ; 2.0073690297377503E8 ; 1.5470051457396946E9 ; 1.5622954701448069E10 ; 0.0
87 ; 1.8417987998985417E7 ; 2.007421614531424E8 ; 1.5654279286002157E9 ; 1.5823691604421844E10 ; 0.0
88 ; 1.8409311043034185E7 ; 2.0074741511628518E8 ; 1.5838459165992012E9 ; 1.6024433765874987E10 ; 0.0
89 ; 1.840819210825257E7 ; 2.0075266373777017E8 ; 1.6022552276422353E9 ; 1.6225181180991272E10 ; 0.0
90 ; 1.8400258303840674E7 ; 2.0075790709812763E8 ; 1.6206634197504878E9 ; 1.6425933844729042E10 ; 0.0
91 ; 1.8394626120087504E7 ; 2.007631449835185E8 ; 1.6390636780543284E9 ; 1.662669175182717E10 ; 0.0
92 ; 1.8384625598069E7 ; 2.007683771854244E8 ; 1.657458304174416E9 ; 1.6827454896810688E10 ; 0.0
93 ; 1.8378749979882583E7 ; 2.0077360350035816E8 ; 1.675842929772485E9 ; 1.7028223273996113E10 ; 0.0
94 ; 1.8369225263145138E7 ; 2.0077882372959417E8 ; 1.6942216797523675E9 ; 1.722899687749647E10 ; 0.0
95 ; 1.835883289971985E7 ; 2.0078403767891604E8 ; 1.7125909050155127E9 ; 1.7429775701226067E10 ; 0.0
96 ; 1.8349824790611856E7 ; 2.0078924515838102E8 ; 1.7309497379152327E9 ; 1.7630559738904984E10 ; 0.0
97 ; 1.834417914673879E7 ; 2.0079444598209968E8 ; 1.7492995627058444E9 ; 1.7831348984063366E10 ; 0.0
98 ; 1.8340719068105638E7 ; 2.007996399680296E8 ; 1.7676437418525832E9 ; 1.8032143430045467E10 ; 0.0
99 ; 1.8334613812928807E7 ; 2.0080482693778235E8 ; 1.7859844609206889E9 ; 1.8232943070013496E10 ; 0.0
100 ; 1.831922974912706E7 ; 2.008100067164425E8 ; 1.8043190747336178E9 ; 1.843374789695128E10 ; 0.0
101 ; 1.831145191131015E7 ; 2.0081517913239807E8 ; 1.822638304482745E9 ; 1.863455790366772E10 ; 0.0
102 ; 1.830007168117163E7 ; 2.008203440171813E8 ; 1.8409497563940551E9 ; 1.8835373082800117E10 ; 0.0
103 ; 1.8291120706183217E7 ; 2.0082550120531946E8 ; 1.8592498280752268E9 ; 1.90361934268173E10 ; 0.0
104 ; 1.8283199376323435E7 ; 2.008306505341944E8 ; 1.87754094878141E9 ; 1.9237018928022617E10 ; 0.0
105 ; 1.8273211699554335E7 ; 2.008357918439109E8 ; 1.8958241481577334E9 ; 1.9437849578556812E10 ; 0.0
106 ; 1.826003029779857E7 ; 2.0084092497717264E8 ; 1.914097359857288E9 ; 1.9638685370400723E10 ; 0.0
107 ; 1.8257343716376554E7 ; 2.0084604977916574E8 ; 1.9323573901550865E9 ; 1.9839526295377895E10 ; 0.0
108 ; 1.8246212885994427E7 ; 2.0085116609744903E8 ; 1.950614733871463E9 ; 2.0040372345157063E10 ; 0.0
109 ; 1.822726571687209E7 ; 2.0085627378185076E8 ; 1.9688609467574575E9 ; 2.0241223511254513E10 ; 0.0
110 ; 1.822296847586117E7 ; 2.008613726843712E8 ; 1.9870882124743295E9 ; 2.044207978503636E10 ; 0.0
111 ; 1.8215027017728724E7 ; 2.008664626590911E8 ; 2.0053111809501905E9 ; 2.0642941157720734E10 ; 0.0
112 ; 1.819972676588315E7 ; 2.00871543562085E8 ; 2.0235262079679193E9 ; 2.0843807620379826E10 ; 0.0
113 ; 1.8190160061107386E7 ; 2.0087661525133985E8 ; 2.0417259347338026E9 ; 2.104467916394191E10 ; 0.0
114 ; 1.818067556220326E7 ; 2.0088167758667776E8 ; 2.05991609479491E9 ; 2.124555577919325E10 ; 0.0
115 ; 1.8166811516141854E7 ; 2.0088673042968342E8 ; 2.0780967703571131E9 ; 2.1446437456779926E10 ; 0.0
116 ; 1.815360011618255E7 ; 2.0089177364363545E8 ; 2.096263581873255E9 ; 2.164732418720961E10 ; 0.0
117 ; 1.8141698784800235E7 ; 2.0089680709344134E8 ; 2.1144171819894376E9 ; 2.1848215960853245E10 ; 0.0
118 ; 1.8128865725590236E7 ; 2.0090183064557618E8 ; 2.1325588807742379E9 ; 2.2049112767946686E10 ; 0.0
119 ; 1.81160688798543E7 ; 2.0090684416802457E8 ; 2.1506877464998283E9 ; 2.2250014598592262E10 ; 0.0
120 ; 1.8102948258821487E7 ; 2.0091184753022563E8 ; 2.1688038153796825E9 ; 2.245092144276029E10 ; 0.0
121 ; 1.8092513641395137E7 ; 2.0091684060302117E8 ; 2.186906763638504E9 ; 2.2651833290290512E10 ; 0.0
122 ; 1.807852462600589E7 ; 2.009218232586063E8 ; 2.204999277279899E9 ; 2.285275013089353E10 ; 0.0
123 ; 1.807002786697194E7 ; 2.0092679537048283E8 ; 2.2230778019059052E9 ; 2.3053671954152138E10 ; 0.0
124 ; 1.8052987442016684E7 ; 2.009317568134152E8 ; 2.241147829772877E9 ; 2.325459874952262E10 ; 0.0
125 ; 1.8035715112878058E7 ; 2.009367074633884E8 ; 2.259200817214894E9 ; 2.3455530506336037E10 ; 0.0
126 ; 1.802627202484506E7 ; 2.0094164719756845E8 ; 2.2772365323277717E9 ; 2.3656467213799423E10 ; 0.0
127 ; 1.801060828224854E7 ; 2.009465758942646E8 ; 2.295262804352617E9 ; 2.385740886099699E10 ; 0.0
128 ; 1.799895119901857E7 ; 2.0095149343289366E8 ; 2.3132734126348653E9 ; 2.4058355436891254E10 ; 0.0
129 ; 1.7982006780594856E7 ; 2.0095639969394606E8 ; 2.331272363833884E9 ; 2.4259306930324146E10 ; 0.0
130 ; 1.796875332847887E7 ; 2.0096129455895364E8 ; 2.3492543706144786E9 ; 2.4460263330018093E10 ; 0.0
131 ; 1.7948718565867186E7 ; 2.0096617791045907E8 ; 2.3672231239429574E9 ; 2.4661224624577045E10 ; 0.0
132 ; 1.792512400753291E7 ; 2.0097104963198683E8 ; 2.3851718425088243E9 ; 2.4862190802487503E10 ; 0.0
133 ; 1.79099312902025E7 ; 2.009759096080156E8 ; 2.4030969665163574E9 ; 2.506316185211949E10 ; 0.0
134 ; 1.7886570567702193E7 ; 2.0098075772395205E8 ; 2.42100689780656E9 ; 2.526413776172751E10 ; 0.0
135 ; 1.78652391086801E7 ; 2.0098559386610588E8 ; 2.4388934683742623E9 ; 2.546511851945146E10 ; 0.0
136 ; 1.7845851824465424E7 ; 2.0099041792166612E8 ; 2.4567587074829426E9 ; 2.5666104113317566E10 ; 0.0
137 ; 1.7828294420494907E7 ; 2.009952297786786E8 ; 2.474604559307408E9 ; 2.586709453123923E10 ; 0.0
138 ; 1.780361383969958E7 ; 2.0100002932602447E8 ; 2.492432853727903E9 ; 2.606808976101791E10 ; 0.0
139 ; 1.7779577775631234E7 ; 2.0100481645339993E8 ; 2.5102364675676026E9 ; 2.6269089790343933E10 ; 0.0
140 ; 1.7763496389297865E7 ; 2.010095910512966E8 ; 2.528016045343234E9 ; 2.6470094606797333E10 ; 0.0
141 ; 1.7736848751853533E7 ; 2.0101435301098317E8 ; 2.545779541732532E9 ; 2.667110419784863E10 ; 0.0
142 ; 1.771966339228099E7 ; 2.0101910222448787E8 ; 2.5635163904843855E9 ; 2.687211855085961E10 ; 0.0
143 ; 1.7694687907294188E7 ; 2.0102383858458158E8 ; 2.5812360538766665E9 ; 2.70731376530841E10 ; 0.0
144 ; 1.7670869109530035E7 ; 2.0102856198476195E8 ; 2.598930741783961E9 ; 2.7274161491668682E10 ; 0.0
145 ; 1.765596623445594E7 ; 2.0103327231923816E8 ; 2.616601610893491E9 ; 2.7475190053653442E10 ; 0.0
146 ; 1.764286977253756E7 ; 2.010379694829166E8 ; 2.634257577127947E9 ; 2.767622332597268E10 ; 0.0
147 ; 1.7626556934874088E7 ; 2.0104265337138683E8 ; 2.6519004469004846E9 ; 2.7877261295455597E10 ; 0.0
148 ; 1.7613745312859017E7 ; 2.0104732388090873E8 ; 2.6695270038353586E9 ; 2.8078303948826984E10 ; 0.0
149 ; 1.7601066210101422E7 ; 2.0105198090839976E8 ; 2.6871407491482177E9 ; 2.8279351272707893E10 ; 0.0
150 ; 1.7579276101101823E7 ; 2.0105662435142314E8 ; 2.7047418153583193E9 ; 2.8480403253616295E10 ; 0.0
151 ; 1.756707168108646E7 ; 2.0106125410817653E8 ; 2.722321091459421E9 ; 2.8681459877967716E10 ; 0.0
152 ; 1.7548810048216168E7 ; 2.01065870077481E8 ; 2.7398881631405077E9 ; 2.8882521132075893E10 ; 0.0
153 ; 1.7530714528253086E7 ; 2.0107047215877092E8 ; 2.757436973188724E9 ; 2.9083587002153374E10 ; 0.0
154 ; 1.75142582992242E7 ; 2.010750602520841E8 ; 2.774967687716977E9 ; 2.9284657474312145E10 ; 0.0
155 ; 1.7499379461117867E7 ; 2.010796342580522E8 ; 2.7924819460162015E9 ; 2.9485732534564228E10 ; 0.0
156 ; 1.7484937786710273E7 ; 2.0108419407789204E8 ; 2.8099813254773192E9 ; 2.968681216882228E10 ; 0.0
157 ; 1.747128944343755E7 ; 2.010887396133969E8 ; 2.8274662632640295E9 ; 2.9887896362900173E10 ; 0.0
158 ; 1.7458188776570905E7 ; 2.0109327076692852E8 ; 2.844937552707467E9 ; 3.008898510251357E10 ; 0.0
159 ; 1.7443163689775392E7 ; 2.0109778744140923E8 ; 2.862395741484038E9 ; 3.02900783732805E10 ; 0.0
160 ; 1.7424172218632624E7 ; 2.011022895403147E8 ; 2.8798389051738133E9 ; 3.049117616072191E10 ; 0.0
161 ; 1.740530332637194E7 ; 2.0110677696766675E8 ; 2.897263077392446E9 ; 3.0692278450262222E10 ; 0.0
162 ; 1.7388749603953294E7 ; 2.0111124962802672E8 ; 2.914668380718818E9 ; 3.089338522722989E10 ; 0.0
163 ; 1.737431308542896E7 ; 2.0111570742648917E8 ; 2.9320571303227715E9 ; 3.1094496476857914E10 ; 0.0
164 ; 1.735348379070223E7 ; 2.0112015026867563E8 ; 2.9494314434082007E9 ; 3.1295612184284405E10 ; 0.0
165 ; 1.7339112820305396E7 ; 2.0112457806072882E8 ; 2.966784927198903E9 ; 3.149673233455308E10 ; 0.0
166 ; 1.7323619586616985E7 ; 2.0112899070930722E8 ; 2.9841240400192084E9 ; 3.169785691261381E10 ; 0.0
167 ; 1.730647847613466E7 ; 2.011333881215797E8 ; 3.0014476596058254E9 ; 3.189898590332312E10 ; 0.0
168 ; 1.728735570903263E7 ; 2.0113777020522058E8 ; 3.01875413808196E9 ; 3.21001192914447E10 ; 0.0
169 ; 1.7270106214880925E7 ; 2.0114213686840478E8 ; 3.0360414937909927E9 ; 3.2301257061649918E10 ; 0.0
170 ; 1.7256005967832815E7 ; 2.011464880198033E8 ; 3.0533116000058737E9 ; 3.2502399198518322E10 ; 0.0
171 ; 1.7239612006630253E7 ; 2.0115082356857887E8 ; 3.0705676059737067E9 ; 3.2703545686538124E10 ; 0.0
172 ; 1.722668657259877E7 ; 2.0115514342438188E8 ; 3.087807217980337E9 ; 3.2904696510106705E10 ; 0.0
173 ; 1.7205572432193115E7 ; 2.011594474973464E8 ; 3.105033904552936E9 ; 3.3105851653531086E10 ; 0.0
174 ; 1.7196072145546228E7 ; 2.0116373569808656E8 ; 3.1222394769851294E9 ; 3.330701110102843E10 ; 0.0
175 ; 1.7187449473809194E7 ; 2.0116800793769276E8 ; 3.139435549130676E9 ; 3.3508174836726517E10 ; 0.0
176 ; 1.717308853774458E7 ; 2.0117226412772864E8 ; 3.156622998604485E9 ; 3.370934284466421E10 ; 0.0
177 ; 1.7162195613403957E7 ; 2.0117650418022758E8 ; 3.1737960871422296E9 ; 3.391051510879194E10 ; 0.0
178 ; 1.715168833723126E7 ; 2.011807280076898E8 ; 3.1909582827556334E9 ; 3.4111691612972168E10 ; 0.0
179 ; 1.7142041623236895E7 ; 2.0118493552307948E8 ; 3.2081099710928645E9 ; 3.431287234097986E10 ; 0.0
180 ; 1.7130361375170182E7 ; 2.01189126639822E8 ; 3.2252520127161016E9 ; 3.451405727650294E10 ; 0.0
181 ; 1.7124809218359236E7 ; 2.0119330127180132E8 ; 3.242382374091272E9 ; 3.471524640314276E10 ; 0.0
182 ; 1.7108684561000887E7 ; 2.0119745933335754E8 ; 3.2595071833096313E9 ; 3.4916439704414566E10 ; 0.0
183 ; 1.7100517207828213E7 ; 2.0120160073928457E8 ; 3.276615867870632E9 ; 3.5117637163747925E10 ; 0.0
184 ; 1.7090985943546347E7 ; 2.012057254048279E8 ; 3.29371638507846E9 ; 3.531883876448721E10 ; 0.0
185 ; 1.707732419288975E7 ; 2.0120983324568254E8 ; 3.3108073710220065E9 ; 3.5520044489892044E10 ; 0.0
186 ; 1.706650726885318E7 ; 2.012139241779911E8 ; 3.327884695214896E9 ; 3.5721254323137726E10 ; 0.0
187 ; 1.7056710643151216E7 ; 2.0121799811834174E8 ; 3.3449512024837494E9 ; 3.592246824731572E10 ; 0.0
188 ; 1.704599856010375E7 ; 2.0122205498376667E8 ; 3.3620079131269007E9 ; 3.612368624543406E10 ; 0.0
189 ; 1.703963390602433E7 ; 2.012260946917403E8 ; 3.3790539116870046E9 ; 3.632490830041782E10 ; 0.0
190 ; 1.7025360036972303E7 ; 2.0123011716017777E8 ; 3.396093545593029E9 ; 3.6526134395109566E10 ; 0.0
191 ; 1.7018495647333626E7 ; 2.012341223074334E8 ; 3.4131189056300015E9 ; 3.6727364512269745E10 ; 0.0
192 ; 1.701004820865363E7 ; 2.0123811005229947E8 ; 3.430137401277335E9 ; 3.692859863457718E10 ; 0.0
193 ; 1.699429715260849E7 ; 2.0124208031400475E8 ; 3.4471474494859886E9 ; 3.712983674462948E10 ; 0.0
194 ; 1.698515933944284E7 ; 2.012460330122134E8 ; 3.464141746638597E9 ; 3.733107882494348E10 ; 0.0
195 ; 1.697463359976936E7 ; 2.0124996806702384E8 ; 3.4811269059780397E9 ; 3.7532324857955696E10 ; 0.0
