CSV File for the City 4 on Day 26
1 - Minute m 
2 - Power Consumed at minute m 
3 - Power Produced at minute m 
4 - Energy Consumed since the beginning of the day 
5 - Energy Produced since the beginning of the day 
6 - Energy Lost since the beginning of the day on lines starting from the city
 
0 ; 6797273.324969687 ; 1.0538599081179836E8 ; 0.0 ; 0.0 ; 0.0
1 ; 6799958.00129772 ; 1.0552999533130872E8 ; 6797273.324969687 ; 1.0538599081179836E8 ; 0.0
2 ; 6808581.145766961 ; 1.0598328518281338E8 ; 1.3597231326267406E7 ; 2.109159861431071E8 ; 0.0
3 ; 6817226.748778675 ; 1.0674595656583434E8 ; 2.040581247203437E7 ; 3.1689927132592046E8 ; 0.0
4 ; 6827900.847331582 ; 1.0781811586835045E8 ; 2.7223039220813043E7 ; 4.236452278917548E8 ; 0.0
5 ; 6838757.181748481 ; 1.0919987748563975E8 ; 3.405094006814463E7 ; 5.3146334376010525E8 ; 0.0
6 ; 6855755.270239046 ; 1.1089135972809276E8 ; 4.088969724989311E7 ; 6.40663221245745E8 ; 0.0
7 ; 6878900.6538416715 ; 1.1289267851874083E8 ; 4.7745452520132154E7 ; 7.515545809738377E8 ; 0.0
8 ; 6913661.5525953155 ; 1.1520393903222287E8 ; 5.462435317397383E7 ; 8.644472594925785E8 ; 0.0
9 ; 6961906.79495263 ; 1.1782522613396102E8 ; 6.1538014726569146E7 ; 9.796511985248014E8 ; 0.0
10 ; 7040423.218950343 ; 1.2075659523965353E8 ; 6.849992152152178E7 ; 1.0974764246587625E9 ; 0.0
11 ; 7166520.280630485 ; 1.2399806564013389E8 ; 7.554034474047212E7 ; 1.218233019898416E9 ; 0.0
12 ; 7363832.891910544 ; 1.2754961804456857E8 ; 8.27068650211026E7 ; 1.34223108553855E9 ; 0.0
13 ; 7552646.472029532 ; 1.3141119703725934E8 ; 9.007069791301315E7 ; 1.4697807035831184E9 ; 0.0
14 ; 7575637.429180501 ; 1.3558271775278413E8 ; 9.762334438504268E7 ; 1.6011919006203778E9 ; 0.0
15 ; 7582466.84258679 ; 1.4006407501650393E8 ; 1.0519898181422319E8 ; 1.7367746183731618E9 ; 0.0
16 ; 7591820.929736633 ; 1.448551529053875E8 ; 1.1278144865680997E8 ; 1.8768386933896656E9 ; 0.0
17 ; 7600413.688585404 ; 1.4995583310904422E8 ; 1.203732695865466E8 ; 2.021693846295053E9 ; 0.0
18 ; 7607086.071817222 ; 1.553660012321961E8 ; 1.27973683275132E8 ; 2.171649679404097E9 ; 0.0
19 ; 7620940.209120447 ; 1.6108555088686427E8 ; 1.3558076934694922E8 ; 2.3270156806362934E9 ; 0.0
20 ; 7627604.445922447 ; 1.6711438587352672E8 ; 1.4320170955606967E8 ; 2.4881012315231576E9 ; 0.0
21 ; 7638848.073448276 ; 1.7345242093399426E8 ; 1.508293140019921E8 ; 2.655215617396684E9 ; 0.0
22 ; 7646597.759498047 ; 1.8009958155887824E8 ; 1.5846816207544038E8 ; 2.8286680383306785E9 ; 0.0
23 ; 7654340.620242162 ; 1.870558032439624E8 ; 1.6611475983493844E8 ; 3.008767619889557E9 ; 0.0
24 ; 7664512.851201477 ; 1.943210304790249E8 ; 1.737691004551806E8 ; 3.195823423133519E9 ; 0.0
25 ; 7671695.248788483 ; 2.0058325655203107E8 ; 1.8143361330638206E8 ; 3.390144453612544E9 ; 0.0
26 ; 7681169.436865466 ; 2.005959885187662E8 ; 1.8910530855517054E8 ; 3.590727710164575E9 ; 0.0
27 ; 7688585.682470232 ; 2.006089607449997E8 ; 1.96786477992036E8 ; 3.7913236986833415E9 ; 0.0
28 ; 7699054.452739604 ; 2.0062214327988672E8 ; 2.0447506367450625E8 ; 3.9919326594283414E9 ; 0.0
29 ; 7705643.730138913 ; 2.0063551039052704E8 ; 2.1217411812724584E8 ; 4.192554802708228E9 ; 0.0
30 ; 7715395.411935143 ; 2.0064903991263714E8 ; 2.1987976185738474E8 ; 4.393190313098755E9 ; 0.0
31 ; 7723583.82347809 ; 2.0066271270015395E8 ; 2.275951572693199E8 ; 4.593839353011392E9 ; 0.0
32 ; 7728799.6645661825 ; 2.0067651216151285E8 ; 2.35318741092798E8 ; 4.794502065711546E9 ; 0.0
33 ; 7739831.303528326 ; 2.0069042387032253E8 ; 2.4304754075736418E8 ; 4.995178577873058E9 ; 0.0
34 ; 7745960.474745343 ; 2.0070443523905465E8 ; 2.5078737206089252E8 ; 5.195869001743381E9 ; 0.0
35 ; 7752535.402762955 ; 2.0071853524564996E8 ; 2.5853333253563786E8 ; 5.396573436982435E9 ; 0.0
36 ; 7759808.212224933 ; 2.0073271420432284E8 ; 2.662858679384008E8 ; 5.5972919722280855E9 ; 0.0
37 ; 7767414.973418509 ; 2.0074696357316822E8 ; 2.7404567615062577E8 ; 5.798024686432408E9 ; 0.0
38 ; 7774919.925823383 ; 2.0076127579236645E8 ; 2.818130911240443E8 ; 5.998771650005576E9 ; 0.0
39 ; 7778843.3539572805 ; 2.0077564414782122E8 ; 2.895880110498677E8 ; 6.199532925797942E9 ; 0.0
40 ; 7786244.941653302 ; 2.007900626559491E8 ; 2.97366854403825E8 ; 6.400308569945764E9 ; 0.0
41 ; 7792689.845648941 ; 2.0080452596608174E8 ; 3.051530993454783E8 ; 6.601098632601712E9 ; 0.0
42 ; 7796183.36159083 ; 2.0081902927755988E8 ; 3.1294578919112724E8 ; 6.801903158567794E9 ; 0.0
43 ; 7801607.832077242 ; 2.0083356826910627E8 ; 3.2074197255271804E8 ; 7.002722187845354E9 ; 0.0
44 ; 7806299.198718919 ; 2.00848139038486E8 ; 3.285435803847953E8 ; 7.20355575611446E9 ; 0.0
45 ; 7811556.018519824 ; 2.0086273805080658E8 ; 3.363498795835142E8 ; 7.404403895152946E9 ; 0.0
46 ; 7812985.275261031 ; 2.0087736209409308E8 ; 3.4416143560203403E8 ; 7.605266633203753E9 ; 0.0
47 ; 7817307.060824284 ; 2.0089200824100536E8 ; 3.519744208772951E8 ; 7.806143995297847E9 ; 0.0
48 ; 7819741.248856972 ; 2.0090667381575602E8 ; 3.5979172793811935E8 ; 8.007036003538852E9 ; 0.0
49 ; 7823219.807252873 ; 2.0092135636544272E8 ; 3.676114691869763E8 ; 8.207942677354608E9 ; 0.0
50 ; 7826131.560782438 ; 2.009360536351393E8 ; 3.754346889942292E8 ; 8.40886403372005E9 ; 0.0
51 ; 7829098.34534642 ; 2.009507635461947E8 ; 3.8326082055501163E8 ; 8.609800087355188E9 ; 0.0
52 ; 7828799.938606075 ; 2.0096548417727858E8 ; 3.91089918900358E8 ; 8.810750850901382E9 ; 0.0
53 ; 7829980.513101086 ; 2.0098021374778333E8 ; 3.989187188389641E8 ; 9.011716335078661E9 ; 0.0
54 ; 7835418.237221495 ; 2.009949506032545E8 ; 4.067486993520652E8 ; 9.212696548826445E9 ; 0.0
55 ; 7836555.681664815 ; 2.0100969320257097E8 ; 4.145841175892867E8 ; 9.413691499429699E9 ; 0.0
56 ; 7838854.198007284 ; 2.0102444010663846E8 ; 4.224206732709515E8 ; 9.61470119263227E9 ; 0.0
57 ; 7839281.434456388 ; 2.010391899683953E8 ; 4.302595274689588E8 ; 9.815725632738909E9 ; 0.0
58 ; 7841474.882641757 ; 2.0105394152395886E8 ; 4.380988089034152E8 ; 1.0016764822707304E10 ; 0.0
59 ; 7841466.363429358 ; 2.0106869358476552E8 ; 4.4594028378605694E8 ; 1.0217818764231262E10 ; 0.0
60 ; 7844925.81964189 ; 2.0108344503057867E8 ; 4.537817501494863E8 ; 1.0418887457816029E10 ; 0.0
61 ; 7845211.304054816 ; 2.010981948032558E8 ; 4.616266759691282E8 ; 1.0619970902846607E10 ; 0.0
62 ; 7844815.963468925 ; 2.011129419011821E8 ; 4.69471887273183E8 ; 1.0821069097649862E10 ; 0.0
63 ; 7847284.256365882 ; 2.0112768537428936E8 ; 4.773167032366519E8 ; 1.1022182039551044E10 ; 0.0
64 ; 7847123.554359706 ; 2.0114242431959093E8 ; 4.851639874930178E8 ; 1.1223309724925333E10 ; 0.0
65 ; 7851382.640617862 ; 2.0115715787717152E8 ; 4.930111110473775E8 ; 1.1424452149244925E10 ; 0.0
66 ; 7851380.712536538 ; 2.0117188522658005E8 ; 5.008624936879954E8 ; 1.1625609307122097E10 ; 0.0
67 ; 7854310.457969695 ; 2.0118660558357882E8 ; 5.087138744005319E8 ; 1.1826781192348677E10 ; 0.0
68 ; 7852309.085288643 ; 2.0120131819720978E8 ; 5.1656818485850155E8 ; 1.2027967797932255E10 ; 0.0
69 ; 7854623.276405574 ; 2.0121602234714195E8 ; 5.244204939437902E8 ; 1.2229169116129465E10 ; 0.0
70 ; 7853159.115899126 ; 2.0123071734127027E8 ; 5.322751172201958E8 ; 1.2430385138476606E10 ; 0.0
71 ; 7854828.171478961 ; 2.0124540251353803E8 ; 5.401282763360949E8 ; 1.2631615855817877E10 ; 0.0
72 ; 7856515.500860645 ; 2.012600772219596E8 ; 5.479831045075738E8 ; 1.2832861258331415E10 ; 0.0
73 ; 7857128.458016722 ; 2.0127474084682247E8 ; 5.558396200084345E8 ; 1.3034121335553375E10 ; 0.0
74 ; 7856433.115463547 ; 2.0128939278905E8 ; 5.636967484664513E8 ; 1.3235396076400198E10 ; 0.0
75 ; 7854859.532465099 ; 2.0130403246870857E8 ; 5.715531815819148E8 ; 1.3436685469189247E10 ; 0.0
76 ; 7856800.732813443 ; 2.0131865932364467E8 ; 5.794080411143799E8 ; 1.3637989501657955E10 ; 0.0
77 ; 7856097.863484779 ; 2.0133327280823904E8 ; 5.872648418471934E8 ; 1.38393081609816E10 ; 0.0
78 ; 7855313.580907525 ; 2.013478723922665E8 ; 5.951209397106781E8 ; 1.4040641433789839E10 ; 0.0
79 ; 7855040.070021179 ; 2.0136245755985096E8 ; 6.029762532915857E8 ; 1.4241989306182106E10 ; 0.0
80 ; 7848953.703362256 ; 2.013770278085069E8 ; 6.108312933616068E8 ; 1.4443351763741957E10 ; 0.0
81 ; 7848391.502349154 ; 2.0139158264825922E8 ; 6.186802470649691E8 ; 1.4644728791550463E10 ; 0.0
82 ; 7846099.71917859 ; 2.0140612160083368E8 ; 6.265286385673182E8 ; 1.4846120374198723E10 ; 0.0
83 ; 7842712.696166056 ; 2.0142064419891202E8 ; 6.343747382864968E8 ; 1.5047526495799557E10 ; 0.0
84 ; 7841002.185818819 ; 2.0143514998544568E8 ; 6.422174509826628E8 ; 1.5248947139998468E10 ; 0.0
85 ; 7837058.7910643155 ; 2.014496385130227E8 ; 6.500584531684816E8 ; 1.5450382289983913E10 ; 0.0
86 ; 7836111.179215 ; 2.014641093432835E8 ; 6.578955119595459E8 ; 1.5651831928496937E10 ; 0.0
87 ; 7831113.671896207 ; 2.014785620463808E8 ; 6.657316231387608E8 ; 1.585329603784022E10 ; 0.0
88 ; 7829212.97725947 ; 2.0149299620048025E8 ; 6.73562736810657E8 ; 1.60547745998866E10 ; 0.0
89 ; 7827652.873745474 ; 2.0150741139129815E8 ; 6.813919497879165E8 ; 1.625626759608708E10 ; 0.0
90 ; 7822962.878832287 ; 2.0152180721167305E8 ; 6.89219602661662E8 ; 1.6457775007478378E10 ; 0.0
91 ; 7821360.68267136 ; 2.015361832611686E8 ; 6.970425655404943E8 ; 1.6659296814690052E10 ; 0.0
92 ; 7815699.557603741 ; 2.0155053914570478E8 ; 7.048639262231656E8 ; 1.6860832997951221E10 ; 0.0
93 ; 7814965.141534616 ; 2.0156487447721562E8 ; 7.126796257807693E8 ; 1.7062383537096926E10 ; 0.0
94 ; 7812249.1623840155 ; 2.015791888733308E8 ; 7.204945909223039E8 ; 1.7263948411574142E10 ; 0.0
95 ; 7805324.747403778 ; 2.0159348195707965E8 ; 7.28306840084688E8 ; 1.746552760044747E10 ; 0.0
96 ; 7802963.027148066 ; 2.016077533566154E8 ; 7.361121648320917E8 ; 1.7667121082404552E10 ; 0.0
97 ; 7799875.590336058 ; 2.016220027049584E8 ; 7.439151278592397E8 ; 1.786872883576117E10 ; 0.0
98 ; 7795169.369693607 ; 2.0163622963975686E8 ; 7.517150034495758E8 ; 1.807035083846613E10 ; 0.0
99 ; 7792498.770065355 ; 2.0165043380306324E8 ; 7.595101728192694E8 ; 1.8271987068105885E10 ; 0.0
100 ; 7789789.944163617 ; 2.0166461484112605E8 ; 7.673026715893347E8 ; 1.8473637501908947E10 ; 0.0
101 ; 7785198.098978417 ; 2.0167877240419486E8 ; 7.750924615334983E8 ; 1.8675302116750072E10 ; 0.0
102 ; 7782948.324006904 ; 2.016929061463385E8 ; 7.828776596324767E8 ; 1.8876980889154266E10 ; 0.0
103 ; 7776807.834621198 ; 2.017070157252746E8 ; 7.906606079564836E8 ; 1.9078673795300606E10 ; 0.0
104 ; 7771105.459228332 ; 2.0172110080221042E8 ; 7.984374157911048E8 ; 1.928038081102588E10 ; 0.0
105 ; 7769225.48526338 ; 2.0173516104169375E8 ; 8.062085212503331E8 ; 1.948210191182809E10 ; 0.0
106 ; 7765030.313000074 ; 2.01749196111473E8 ; 8.139777467355964E8 ; 1.9683837072869785E10 ; 0.0
107 ; 7757892.884340773 ; 2.0176320568236643E8 ; 8.217427770485965E8 ; 1.988558626898126E10 ; 0.0
108 ; 7754515.565703667 ; 2.0177718942813912E8 ; 8.295006699329373E8 ; 2.0087349474663624E10 ; 0.0
109 ; 7752946.001825696 ; 2.0179114702538797E8 ; 8.372551854986409E8 ; 2.0289126664091763E10 ; 0.0
110 ; 7747068.501427776 ; 2.0180507815343338E8 ; 8.450081315004666E8 ; 2.049091781111715E10 ; 0.0
111 ; 7741138.723695635 ; 2.018189824942177E8 ; 8.527552000018944E8 ; 2.0692722889270584E10 ; 0.0
112 ; 7736402.526389289 ; 2.0183285973220977E8 ; 8.6049633872559E8 ; 2.08945418717648E10 ; 0.0
113 ; 7730847.658149057 ; 2.0184670955431533E8 ; 8.682327412519792E8 ; 2.109637473149701E10 ; 0.0
114 ; 7728342.467986606 ; 2.0186053164979258E8 ; 8.759635889101282E8 ; 2.1298221441051323E10 ; 0.0
115 ; 7722393.701245705 ; 2.0187432571017286E8 ; 8.836919313781148E8 ; 2.1500081972701115E10 ; 0.0
116 ; 7715854.416446646 ; 2.01888091429186E8 ; 8.914143250793605E8 ; 2.170195629841129E10 ; 0.0
117 ; 7710131.726658154 ; 2.0190182850269002E8 ; 8.991301794958072E8 ; 2.1903844389840477E10 ; 0.0
118 ; 7706179.384469089 ; 2.0191553662860507E8 ; 9.068403112224653E8 ; 2.2105746218343166E10 ; 0.0
119 ; 7701213.159728436 ; 2.019292155068509E8 ; 9.145464906069343E8 ; 2.230766175497177E10 ; 0.0
120 ; 7693892.386638225 ; 2.0194286483928832E8 ; 9.222477037666627E8 ; 2.2509590970478622E10 ; 0.0
121 ; 7692120.693481263 ; 2.0195648432966372E8 ; 9.29941596153301E8 ; 2.271153383531791E10 ; 0.0
122 ; 7683503.0196814155 ; 2.0197007368355697E8 ; 9.376337168467822E8 ; 2.291349031964757E10 ; 0.0
123 ; 7680141.608004565 ; 2.0198363260833216E8 ; 9.453172198664637E8 ; 2.3115460393331127E10 ; 0.0
124 ; 7672758.613257673 ; 2.0199716081309122E8 ; 9.529973614744682E8 ; 2.331744402593946E10 ; 0.0
125 ; 7666635.443565191 ; 2.020106580086301E8 ; 9.606701200877259E8 ; 2.3519441186752552E10 ; 0.0
126 ; 7661182.273106343 ; 2.0202412390739754E8 ; 9.683367555312911E8 ; 2.372145184476118E10 ; 0.0
127 ; 7653921.45625096 ; 2.0203755822345597E8 ; 9.759979378043975E8 ; 2.392347596866858E10 ; 0.0
128 ; 7651081.761558395 ; 2.020509606724448E8 ; 9.836518592606484E8 ; 2.4125513526892036E10 ; 0.0
129 ; 7642428.38605077 ; 2.0206433097154567E8 ; 9.913029410222068E8 ; 2.432756448756448E10 ; 0.0
130 ; 7636198.118538601 ; 2.020776688394496E8 ; 9.989453694082576E8 ; 2.4529628818536026E10 ; 0.0
131 ; 7628278.185932525 ; 2.0209097399632615E8 ; 1.0065815675267962E9 ; 2.4731706487375477E10 ; 0.0
132 ; 7619921.658608086 ; 2.02104246163794E8 ; 1.0142098457127287E9 ; 2.4933797461371803E10 ; 0.0
133 ; 7610441.966706994 ; 2.0211748506489357E8 ; 1.0218297673713368E9 ; 2.51359017075356E10 ; 0.0
134 ; 7600388.245384236 ; 2.021306904240607E8 ; 1.0294402093380438E9 ; 2.533801919260049E10 ; 0.0
135 ; 7590216.012217066 ; 2.0214386196710223E8 ; 1.037040597583428E9 ; 2.554014988302455E10 ; 0.0
136 ; 7583978.232221193 ; 2.0215699942117268E8 ; 1.0446308135956451E9 ; 2.5742293744991653E10 ; 0.0
137 ; 7573370.9746844135 ; 2.021701025147523E8 ; 1.0522147918278663E9 ; 2.5944450744412827E10 ; 0.0
138 ; 7563666.080031677 ; 2.0218317097762635E8 ; 1.0597881628025507E9 ; 2.6146620846927578E10 ; 0.0
139 ; 7557704.977926436 ; 2.0219620454086557E8 ; 1.0673518288825823E9 ; 2.6348804017905205E10 ; 0.0
140 ; 7546843.486456099 ; 2.0220920293680763E8 ; 1.0749095338605087E9 ; 2.655100022244607E10 ; 0.0
141 ; 7536422.916953184 ; 2.0222216589903975E8 ; 1.0824563773469648E9 ; 2.675320942538288E10 ; 0.0
142 ; 7527825.267381512 ; 2.022350931623823E8 ; 1.089992800263918E9 ; 2.695543159128192E10 ; 0.0
143 ; 7517161.931478098 ; 2.0224798446287325E8 ; 1.0975206255312994E9 ; 2.7157666684444305E10 ; 0.0
144 ; 7507849.211948476 ; 2.022608395377535E8 ; 1.1050377874627774E9 ; 2.7359914668907177E10 ; 0.0
145 ; 7501621.298016785 ; 2.022736581254531E8 ; 1.1125456366747258E9 ; 2.756217550844493E10 ; 0.0
146 ; 7497277.756229282 ; 2.0228643996557835E8 ; 1.1200472579727426E9 ; 2.7764449166570385E10 ; 0.0
147 ; 7488526.041535964 ; 2.0229918479889935E8 ; 1.127544535728972E9 ; 2.7966735606535965E10 ; 0.0
148 ; 7483416.869862626 ; 2.0231189236733872E8 ; 1.1350330617705078E9 ; 2.8169034791334866E10 ; 0.0
149 ; 7475429.479875847 ; 2.0232456241396052E8 ; 1.1425164786403704E9 ; 2.8371346683702206E10 ; 0.0
150 ; 7469166.329973504 ; 2.0233719468296015E8 ; 1.1499919081202462E9 ; 2.8573671246116165E10 ; 0.0
151 ; 7459776.534392442 ; 2.0234978891965476E8 ; 1.1574610744502196E9 ; 2.8776008440799126E10 ; 0.0
152 ; 7454322.425608614 ; 2.023623448704741E8 ; 1.164920850984612E9 ; 2.897835822971878E10 ; 0.0
153 ; 7444950.189671375 ; 2.023748622829523E8 ; 1.1723751734102206E9 ; 2.9180720574589256E10 ; 0.0
154 ; 7440631.109912074 ; 2.0238734090571964E8 ; 1.179820123599892E9 ; 2.9383095436872208E10 ; 0.0
155 ; 7433841.997116907 ; 2.0239978048849532E8 ; 1.187260754709804E9 ; 2.9585482777777927E10 ; 0.0
156 ; 7428070.1715302905 ; 2.0241218078208032E8 ; 1.1946945967069209E9 ; 2.9787882558266422E10 ; 0.0
157 ; 7421109.49342527 ; 2.0242454153835106E8 ; 1.202122666878451E9 ; 2.9990294739048504E10 ; 0.0
158 ; 7413637.74412734 ; 2.024368625102532E8 ; 1.2095437763718765E9 ; 3.0192719280586853E10 ; 0.0
159 ; 7404894.699021958 ; 2.0244914345179588E8 ; 1.2169574141160038E9 ; 3.0395156143097107E10 ; 0.0
160 ; 7397274.287331854 ; 2.0246138411804664E8 ; 1.2243623088150258E9 ; 3.0597605286548904E10 ; 0.0
161 ; 7390363.31605258 ; 2.024735842651263E8 ; 1.2317595831023576E9 ; 3.080006667066695E10 ; 0.0
162 ; 7380550.1377222 ; 2.0248574365020454E8 ; 1.2391499464184103E9 ; 3.1002540254932076E10 ; 0.0
163 ; 7376765.539110046 ; 2.0249786203149548E8 ; 1.2465304965561326E9 ; 3.120502599858228E10 ; 0.0
164 ; 7368893.476956272 ; 2.0250993916825405E8 ; 1.2539072620952425E9 ; 3.1407523860613773E10 ; 0.0
165 ; 7361608.111855688 ; 2.0252197482077202E8 ; 1.2612761555721989E9 ; 3.161003379978203E10 ; 0.0
166 ; 7354332.723548104 ; 2.02533968750375E8 ; 1.2686377636840546E9 ; 3.18125557746028E10 ; 0.0
167 ; 7348053.03924874 ; 2.0254592071941924E8 ; 1.2759920964076028E9 ; 3.2015089743353172E10 ; 0.0
168 ; 7339399.061172418 ; 2.0255783049128887E8 ; 1.2833401494468515E9 ; 3.221763566407259E10 ; 0.0
169 ; 7330506.788738443 ; 2.0256969783039343E8 ; 1.290679548508024E9 ; 3.2420193494563877E10 ; 0.0
170 ; 7322414.774042746 ; 2.0258152250216547E8 ; 1.2980100552967625E9 ; 3.262276319239427E10 ; 0.0
171 ; 7314908.969369114 ; 2.0259330427305868E8 ; 1.3053324700708053E9 ; 3.282534471489644E10 ; 0.0
172 ; 7309131.805289601 ; 2.0260504291054586E8 ; 1.3126473790401745E9 ; 3.30279380191695E10 ; 0.0
173 ; 7300685.962851857 ; 2.0261673818311736E8 ; 1.319956510845464E9 ; 3.3230543062080044E10 ; 0.0
174 ; 7297539.833312647 ; 2.0262838986027977E8 ; 1.3272571968083158E9 ; 3.343315980026316E10 ; 0.0
175 ; 7291726.200925579 ; 2.0263999771255448E8 ; 1.3345547366416285E9 ; 3.363578819012344E10 ; 0.0
176 ; 7287055.289521581 ; 2.0265156151147676E8 ; 1.341846462842554E9 ; 3.3838428187835995E10 ; 0.0
177 ; 7281708.704730628 ; 2.026630810295948E8 ; 1.3491335181320758E9 ; 3.4041079749347473E10 ; 0.0
178 ; 7277095.306574529 ; 2.026745560404691E8 ; 1.3564152268368063E9 ; 3.4243742830377068E10 ; 0.0
179 ; 7274623.181488432 ; 2.0268598631867176E8 ; 1.3636923221433809E9 ; 3.4446417386417534E10 ; 0.0
180 ; 7270497.148398379 ; 2.0269737163978615E8 ; 1.3709669453248694E9 ; 3.4649103372736206E10 ; 0.0
181 ; 7264252.753669303 ; 2.0270871178040668E8 ; 1.3782374424732678E9 ; 3.485180074437599E10 ; 0.0
182 ; 7259734.163652697 ; 2.0272000651813853E8 ; 1.385501695226937E9 ; 3.5054509456156395E10 ; 0.0
183 ; 7255467.324165998 ; 2.0273125563159782E8 ; 1.3927614293905897E9 ; 3.525722946267453E10 ; 0.0
184 ; 7250748.345382446 ; 2.027424589004116E8 ; 1.4000168967147558E9 ; 3.545996071830613E10 ; 0.0
185 ; 7245343.735524636 ; 2.0275361610521817E8 ; 1.4072676450601382E9 ; 3.566270317720654E10 ; 0.0
186 ; 7242733.2302432535 ; 2.027647270276674E8 ; 1.4145129887956629E9 ; 3.586545679331176E10 ; 0.0
187 ; 7239542.5619113045 ; 2.027757914504212E8 ; 1.421755722025906E9 ; 3.6068221520339424E10 ; 0.0
188 ; 7236580.236949533 ; 2.027868091571541E8 ; 1.4289952645878174E9 ; 3.627099731178985E10 ; 0.0
189 ; 7227522.501585052 ; 2.0279777993255395E8 ; 1.4362318448247669E9 ; 3.647378412094701E10 ; 0.0
190 ; 7226061.5131772 ; 2.0280870356232253E8 ; 1.443459367326352E9 ; 3.667658190087956E10 ; 0.0
191 ; 7219384.11343676 ; 2.0281957983317664E8 ; 1.450685428839529E9 ; 3.687939060444189E10 ; 0.0
192 ; 7212567.6674919445 ; 2.028304085328488E8 ; 1.4579048129529657E9 ; 3.708221018427506E10 ; 0.0
193 ; 7211295.344183665 ; 2.0284118945008844E8 ; 1.4651173806204576E9 ; 3.7285040592807915E10 ; 0.0
194 ; 7205587.601334029 ; 2.0285192237466297E8 ; 1.4723286759646413E9 ; 3.7487881782258E10 ; 0.0
195 ; 7201587.1846994 ; 2.028626070973588E8 ; 1.4795342635659754E9 ; 3.769073370463267E10 ; 0.0
196 ; 7199881.956590805 ; 2.0287324340998277E8 ; 1.4867358507506747E9 ; 3.789359631173003E10 ; 0.0
197 ; 7190573.430177086 ; 2.028838311053634E8 ; 1.4939357327072656E9 ; 3.809646955514001E10 ; 0.0
198 ; 7186278.988046621 ; 2.0289436997735223E8 ; 1.5011263061374426E9 ; 3.829935338624537E10 ; 0.0
199 ; 7182380.305828832 ; 2.0290485982082525E8 ; 1.5083125851254892E9 ; 3.8502247756222725E10 ; 0.0
200 ; 7180921.642202518 ; 2.029153004316844E8 ; 1.515494965431318E9 ; 3.870515261604355E10 ; 0.0
201 ; 7175262.431574036 ; 1.8354201156182885E8 ; 1.5226758870735207E9 ; 3.8908067916475235E10 ; 0.0
