CSV File for the City 2 on Day 198
1 - Minute m 
2 - Power Consumed at minute m 
3 - Power Produced at minute m 
4 - Energy Consumed since the beginning of the day 
5 - Energy Produced since the beginning of the day 
6 - Energy Lost since the beginning of the day on lines starting from the city
 
0 ; 185523.40545494534 ; 1.0522379517516074E8 ; 0.0 ; 0.0 ; 0.0
1 ; 187579.5714282058 ; 1.0537772614105207E8 ; 185523.40545494534 ; 1.0522379517516074E8 ; 0.0
2 ; 189457.52339434836 ; 1.0584033796734199E8 ; 373102.9768831511 ; 2.106015213162128E8 ; 0.0
3 ; 192187.59707322228 ; 1.066116313481127E8 ; 562560.5002774994 ; 3.164418592835548E8 ; 0.0
4 ; 194572.72091294074 ; 1.0769160691242862E8 ; 754748.0973507217 ; 4.230534906316675E8 ; 0.0
5 ; 198798.70406458166 ; 1.090802652185542E8 ; 949320.8182636625 ; 5.307450975440961E8 ; 0.0
6 ; 205317.01392333434 ; 1.1077760674864992E8 ; 1148119.522328244 ; 6.398253627626503E8 ; 0.0
7 ; 210357.74304290957 ; 1.1278363190406066E8 ; 1353436.5362515785 ; 7.506029695113002E8 ; 0.0
8 ; 217790.053184061 ; 1.1509834100129986E8 ; 1563794.279294488 ; 8.633866014153609E8 ; 0.0
9 ; 233704.10806665145 ; 1.1772173426882273E8 ; 1781584.332478549 ; 9.784849424166608E8 ; 0.0
10 ; 254475.45013581958 ; 1.2065381184466368E8 ; 2015288.4405452006 ; 1.0962066766854835E9 ; 0.0
11 ; 289453.53919026477 ; 1.238945737749956E8 ; 2269763.89068102 ; 1.216860488530147E9 ; 0.0
12 ; 342902.61746971746 ; 1.2744402001364556E8 ; 2559217.429871285 ; 1.3407550623051426E9 ; 0.0
13 ; 395830.3634265617 ; 1.3130215042257917E8 ; 2902120.047341002 ; 1.4681990823187883E9 ; 0.0
14 ; 401473.5099607192 ; 1.354689647733413E8 ; 3297950.4107675636 ; 1.5995012327413673E9 ; 0.0
15 ; 404626.9771241767 ; 1.3994446274941838E8 ; 3699423.920728283 ; 1.7349701975147085E9 ; 0.0
16 ; 406365.89897887723 ; 1.4472864394946566E8 ; 4104050.89785246 ; 1.8749146602641268E9 ; 0.0
17 ; 411216.4157214728 ; 1.4982150789132258E8 ; 4510416.796831337 ; 2.0196433042135925E9 ; 0.0
18 ; 413118.4260422003 ; 1.552230540167247E8 ; 4921633.21255281 ; 2.169464812104915E9 ; 0.0
19 ; 415379.3984855587 ; 1.6093328169660762E8 ; 5334751.63859501 ; 2.3246878661216397E9 ; 0.0
20 ; 418058.4081321628 ; 1.669521902368891E8 ; 5750131.037080569 ; 2.4856211478182473E9 ; 0.0
21 ; 421428.4332882397 ; 1.732797788846136E8 ; 6168189.445212732 ; 2.652573338055136E9 ; 0.0
22 ; 422991.9333827484 ; 1.7991604683434027E8 ; 6589617.878500972 ; 2.8258531169397497E9 ; 0.0
23 ; 426853.05948342953 ; 1.868609932346617E8 ; 7012609.811883721 ; 3.00576916377409E9 ; 0.0
24 ; 429958.48029093706 ; 1.9411461719474423E8 ; 7439462.87136715 ; 3.1926301570087514E9 ; 0.0
25 ; 432132.3002625978 ; 2.0036495868897626E8 ; 7869421.351658087 ; 3.3867447742034955E9 ; 0.0
26 ; 435462.97818926483 ; 2.0036556460016453E8 ; 8301553.651920685 ; 3.587109732892472E9 ; 0.0
27 ; 439085.1504918198 ; 2.0036620325049886E8 ; 8737016.630109949 ; 3.787475297492636E9 ; 0.0
28 ; 440295.01826308033 ; 2.0036687365408382E8 ; 9176101.78060177 ; 3.987841500743135E9 ; 0.0
29 ; 443571.7447371994 ; 2.0036757481559265E8 ; 9616396.79886485 ; 4.1882083743972187E9 ; 0.0
30 ; 444473.3853976076 ; 2.0036830573528737E8 ; 1.005996854360205E7 ; 4.388575949212811E9 ; 0.0
31 ; 448493.18242916605 ; 2.003690654136265E8 ; 1.0504441928999657E7 ; 4.588944254948099E9 ; 0.0
32 ; 450668.77934555925 ; 2.0036985285544538E8 ; 1.0952935111428823E7 ; 4.789313320361726E9 ; 0.0
33 ; 452097.1454543673 ; 2.0037066707370546E8 ; 1.1403603890774382E7 ; 4.989683173217171E9 ; 0.0
34 ; 455669.6471690625 ; 2.0037150709281605E8 ; 1.185570103622875E7 ; 5.190053840290876E9 ; 0.0
35 ; 458036.91520751343 ; 2.0037237195153937E8 ; 1.2311370683397813E7 ; 5.390425347383693E9 ; 0.0
36 ; 460393.3089785879 ; 2.003732607054957E8 ; 1.2769407598605325E7 ; 5.590797719335232E9 ; 0.0
37 ; 463024.41166728357 ; 2.0037417242928886E8 ; 1.3229800907583913E7 ; 5.791170980040728E9 ; 0.0
38 ; 464077.64031906775 ; 2.0037510621827653E8 ; 1.3692825319251196E7 ; 5.9915451524700165E9 ; 0.0
39 ; 466990.42602035176 ; 2.003760611900107E8 ; 1.4156902959570264E7 ; 6.191920258688293E9 ; 0.0
40 ; 468438.8340578901 ; 2.003770364853762E8 ; 1.4623893385590617E7 ; 6.3922963198783045E9 ; 0.0
41 ; 470263.0287754538 ; 2.003780312694545E8 ; 1.5092332219648506E7 ; 6.592673356363681E9 ; 0.0
42 ; 472648.3135638404 ; 2.0037904473214015E8 ; 1.556259524842396E7 ; 6.793051387633136E9 ; 0.0
43 ; 475819.69768788683 ; 2.0038007608853722E8 ; 1.60352435619878E7 ; 6.993430432365276E9 ; 0.0
44 ; 475890.5623982922 ; 2.003811245791606E8 ; 1.6511063259675687E7 ; 7.193810508453814E9 ; 0.0
45 ; 478866.2542784488 ; 2.003821894699671E8 ; 1.698695382207398E7 ; 7.394191633032974E9 ; 0.0
46 ; 479389.0910256448 ; 2.003832700522387E8 ; 1.746582007635243E7 ; 7.594573822502941E9 ; 0.0
47 ; 481844.2094186098 ; 2.0038436564233932E8 ; 1.794520916737807E7 ; 7.79495709255518E9 ; 0.0
48 ; 482604.3275617661 ; 2.0038547558136407E8 ; 1.842705337679668E7 ; 7.995341458197519E9 ; 0.0
49 ; 483199.3349416491 ; 2.003865992346987E8 ; 1.8909657704358447E7 ; 8.195726933778883E9 ; 0.0
50 ; 484150.0149762731 ; 2.0038773599150535E8 ; 1.9392857039300095E7 ; 8.396113533013581E9 ; 0.0
51 ; 486467.2426807332 ; 2.0038888526414806E8 ; 1.987700705427637E7 ; 8.596501269005087E9 ; 0.0
52 ; 486091.6771750294 ; 2.0039004648757148E8 ; 2.03634742969571E7 ; 8.796890154269236E9 ; 0.0
53 ; 489404.2023255307 ; 2.0039121911864334E8 ; 2.084956597413213E7 ; 8.997280200756807E9 ; 0.0
54 ; 488439.39561810036 ; 2.0039240263547054E8 ; 2.1338970176457662E7 ; 9.19767141987545E9 ; 0.0
55 ; 490180.6451923988 ; 2.0039359653669742E8 ; 2.182740957207576E7 ; 9.398063822510921E9 ; 0.0
56 ; 491862.2930006465 ; 2.0039480034079328E8 ; 2.231759021726816E7 ; 9.598457419047619E9 ; 0.0
57 ; 492444.1974732853 ; 2.0039601358533597E8 ; 2.2809452510268807E7 ; 9.798852219388412E9 ; 0.0
58 ; 492622.9101631453 ; 2.0039723582629594E8 ; 2.330189670774209E7 ; 9.99924823297375E9 ; 0.0
59 ; 495484.04736599163 ; 2.003984666373263E8 ; 2.3794519617905237E7 ; 1.0199645468800045E10 ; 0.0
60 ; 495903.9487799084 ; 2.0039970560906163E8 ; 2.429000366527123E7 ; 1.0400043935437372E10 ; 0.0
61 ; 496113.311450716 ; 2.0040095234842944E8 ; 2.4785907614051137E7 ; 1.0600443641046434E10 ; 0.0
62 ; 495513.18784465245 ; 2.004022064779761E8 ; 2.5282020925501853E7 ; 1.0800844593394863E10 ; 0.0
63 ; 498696.1297710676 ; 2.0040346763520965E8 ; 2.5777534113346506E7 ; 1.1001246799872839E10 ; 0.0
64 ; 498808.7194861726 ; 2.0040473547196084E8 ; 2.6276230243117575E7 ; 1.1201650267508049E10 ; 0.0
65 ; 500024.9232024472 ; 2.0040600965376356E8 ; 2.6775038962603748E7 ; 1.140205500298001E10 ; 0.0
66 ; 500880.1834585948 ; 2.0040728985925564E8 ; 2.7275063885806195E7 ; 1.1602461012633772E10 ; 0.0
67 ; 501099.5766004933 ; 2.0040857577960026E8 ; 2.7775944069264792E7 ; 1.1802868302493027E10 ; 0.0
68 ; 501404.1753336334 ; 2.004098671179287E8 ; 2.8277043645865284E7 ; 1.2003276878272627E10 ; 0.0
69 ; 503873.9380049952 ; 2.0041116358880404E8 ; 2.8778447821198918E7 ; 1.2203686745390556E10 ; 0.0
70 ; 504058.06928536465 ; 2.0041246491770613E8 ; 2.9282321759203915E7 ; 1.240409790897936E10 ; 0.0
71 ; 504114.92822797236 ; 2.0041377084053782E8 ; 2.9786379828489278E7 ; 1.2604510373897066E10 ; 0.0
72 ; 506635.48897073197 ; 2.0041508110315117E8 ; 3.029049475671725E7 ; 1.2804924144737604E10 ; 0.0
73 ; 505594.4796014729 ; 2.004163954608946E8 ; 3.079713024568798E7 ; 1.3005339225840755E10 ; 0.0
74 ; 506966.6918253728 ; 2.0041771367817947E8 ; 3.1302724725289453E7 ; 1.3205755621301651E10 ; 0.0
75 ; 508286.93786883197 ; 2.0041903552806583E8 ; 3.1809691417114824E7 ; 1.340617333497983E10 ; 0.0
76 ; 509133.0622563119 ; 2.00420360791867E8 ; 3.2317978354983658E7 ; 1.3606592370507896E10 ; 0.0
77 ; 509657.71914170164 ; 2.0042168925877225E8 ; 3.2827111417239968E7 ; 1.3807012731299763E10 ; 0.0
78 ; 510849.34321127186 ; 2.0042302072548673E8 ; 3.333676913638167E7 ; 1.4007434420558535E10 ; 0.0
79 ; 509200.88121213997 ; 2.0042435499588826E8 ; 3.384761847959294E7 ; 1.4207857441284021E10 ; 0.0
80 ; 509862.53994612064 ; 2.0042569188070044E8 ; 3.435681936080508E7 ; 1.440828179627991E10 ; 0.0
81 ; 509358.5939055956 ; 2.0042703119718078E8 ; 3.48666819007512E7 ; 1.460870748816061E10 ; 0.0
82 ; 510529.70639830653 ; 2.0042837276882428E8 ; 3.53760404946568E7 ; 1.4809134519357792E10 ; 0.0
83 ; 510372.7519565057 ; 2.0042971642508078E8 ; 3.588657020105511E7 ; 1.5009562892126616E10 ; 0.0
84 ; 509215.9366470416 ; 2.00431062001086E8 ; 3.639694295301162E7 ; 1.5209992608551697E10 ; 0.0
85 ; 510531.4042359367 ; 2.0043240933740574E8 ; 3.690615888965866E7 ; 1.5410423670552782E10 ; 0.0
86 ; 511244.44299885817 ; 2.0043375827979225E8 ; 3.74166902938946E7 ; 1.5610856079890188E10 ; 0.0
87 ; 511194.26068215654 ; 2.004351086789524E8 ; 3.792793473689345E7 ; 1.5811289838169981E10 ; 0.0
88 ; 509302.961503886 ; 2.0043646039032742E8 ; 3.843912899757561E7 ; 1.6011724946848934E10 ; 0.0
89 ; 509643.0105857307 ; 2.0043781327388293E8 ; 3.89484319590795E7 ; 1.6212161407239262E10 ; 0.0
90 ; 509174.99943726824 ; 2.0043916719390947E8 ; 3.945807496966523E7 ; 1.6412599220513145E10 ; 0.0
91 ; 511425.03947843064 ; 2.004405220188327E8 ; 3.9967249969102494E7 ; 1.6613038387707054E10 ; 0.0
92 ; 509624.48673298483 ; 2.0044187762103266E8 ; 4.047867500858092E7 ; 1.6813478909725887E10 ; 0.0
93 ; 510196.58674280666 ; 2.0044323387667206E8 ; 4.0988299495313905E7 ; 1.701392078734692E10 ; 0.0
94 ; 508012.82074499 ; 2.0044459066553268E8 ; 4.149849608205671E7 ; 1.721436402122359E10 ; 0.0
95 ; 508461.4374520723 ; 2.0044594787085986E8 ; 4.20065089028017E7 ; 1.7414808611889122E10 ; 0.0
96 ; 508605.4629284264 ; 2.0044730537921444E8 ; 4.251497034025377E7 ; 1.7615254559759983E10 ; 0.0
97 ; 509413.62128942454 ; 2.004486630803318E8 ; 4.30235758031822E7 ; 1.78157018651392E10 ; 0.0
98 ; 507777.26684558485 ; 2.0045002086698794E8 ; 4.3532989424471624E7 ; 1.801615052821953E10 ; 0.0
99 ; 508408.7787507788 ; 2.004513786348716E8 ; 4.404076669131721E7 ; 1.8216600549086517E10 ; 0.0
100 ; 508037.4457546559 ; 2.004527362824629E8 ; 4.4549175470067985E7 ; 1.841705192772139E10 ; 0.0
101 ; 507356.0914093038 ; 2.0045409371091744E8 ; 4.505721291582264E7 ; 1.8617504664003853E10 ; 0.0
102 ; 507955.1379002218 ; 2.004554508239563E8 ; 4.556456900723194E7 ; 1.881795875771477E10 ; 0.0
103 ; 508714.93790542457 ; 2.0045680752776095E8 ; 4.607252414513216E7 ; 1.9018414208538727E10 ; 0.0
104 ; 508255.2561667303 ; 2.0045816373087323E8 ; 4.6581239083037585E7 ; 1.9218871016066486E10 ; 0.0
105 ; 506161.4690406258 ; 2.0045951934410018E8 ; 4.708949433920432E7 ; 1.941932917979736E10 ; 0.0
106 ; 505820.82302804734 ; 2.0046087428042307E8 ; 4.759565580824494E7 ; 1.961978869914146E10 ; 0.0
107 ; 505688.5711976865 ; 2.004622284549111E8 ; 4.8101476631272994E7 ; 1.9820249573421883E10 ; 0.0
108 ; 506204.15733463474 ; 2.004635817846387E8 ; 4.860716520247068E7 ; 2.0020711801876793E10 ; 0.0
109 ; 505656.4544384514 ; 2.0046493418860692E8 ; 4.9113369359805316E7 ; 2.022117538366143E10 ; 0.0
110 ; 505236.69819315895 ; 2.004662855876685E8 ; 4.961902581424376E7 ; 2.0421640317850037E10 ; 0.0
111 ; 503735.3284575273 ; 2.0046763590445617E8 ; 5.012426251243693E7 ; 2.0622106603437706E10 ; 0.0
112 ; 505117.2889402655 ; 2.0046898506331444E8 ; 5.062799784089445E7 ; 2.0822574239342163E10 ; 0.0
113 ; 503325.0635999432 ; 2.0047033299023455E8 ; 5.113311512983472E7 ; 2.102304322440548E10 ; 0.0
114 ; 504280.5055330543 ; 2.0047167961279216E8 ; 5.163644019343466E7 ; 2.1223513557395714E10 ; 0.0
115 ; 503100.85337082046 ; 2.00473024860088E8 ; 5.214072069896772E7 ; 2.1423985237008507E10 ; 0.0
116 ; 502425.96085408767 ; 2.0047436866269124E8 ; 5.264382155233854E7 ; 2.1624458261868595E10 ; 0.0
117 ; 503060.93418166914 ; 2.0047571095258543E8 ; 5.314624751319263E7 ; 2.182493263053129E10 ; 0.0
118 ; 501241.05887780816 ; 2.004770516631166E8 ; 5.36493084473743E7 ; 2.2025408341483875E10 ; 0.0
119 ; 501999.36410533456 ; 2.0047839072894412E8 ; 5.415054950625211E7 ; 2.222588539314699E10 ; 0.0
120 ; 500868.766090793 ; 2.0047972808599326E8 ; 5.465254887035745E7 ; 2.2426363783875935E10 ; 0.0
121 ; 501375.4461091325 ; 2.004810636714101E8 ; 5.515341763644824E7 ; 2.262684351196193E10 ; 0.0
122 ; 499845.7273187254 ; 2.0048239742351863E8 ; 5.565479308255737E7 ; 2.282732457563334E10 ; 0.0
123 ; 499263.0920346847 ; 2.0048372928177914E8 ; 5.61546388098761E7 ; 2.3027806973056858E10 ; 0.0
124 ; 498490.3330629085 ; 2.0048505918674904E8 ; 5.665390190191078E7 ; 2.322829070233864E10 ; 0.0
125 ; 497239.4887222183 ; 2.0048638708004504E8 ; 5.715239223497369E7 ; 2.3428775761525387E10 ; 0.0
126 ; 498524.7583770642 ; 2.0048771290430698E8 ; 5.764963172369591E7 ; 2.362926214860543E10 ; 0.0
127 ; 497166.8393323284 ; 2.004890366031633E8 ; 5.814815648207298E7 ; 2.382974986150974E10 ; 0.0
128 ; 496304.8962605586 ; 2.00490358121198E8 ; 5.864532332140531E7 ; 2.4030238898112904E10 ; 0.0
129 ; 495971.4401468838 ; 2.00491677403919E8 ; 5.9141628217665866E7 ; 2.42307292562341E10 ; 0.0
130 ; 493425.3282311053 ; 2.0049299439772764E8 ; 5.963759965781275E7 ; 2.443122093363802E10 ; 0.0
131 ; 492112.5433008912 ; 2.0049430904988977E8 ; 6.0131024986043856E7 ; 2.4631713928035748E10 ; 0.0
132 ; 491912.29562898906 ; 2.0049562130850795E8 ; 6.0623137529344745E7 ; 2.4832208237085636E10 ; 0.0
133 ; 492119.1596379003 ; 2.0049693112249467E8 ; 6.111504982497373E7 ; 2.5032703858394146E10 ; 0.0
134 ; 488889.5258766052 ; 2.004982384415468E8 ; 6.160716898461163E7 ; 2.523320078951664E10 ; 0.0
135 ; 487103.4360914937 ; 2.0049954321612123E8 ; 6.2096058510488234E7 ; 2.5433699027958187E10 ; 0.0
136 ; 486605.0876012254 ; 2.0050084539741123E8 ; 6.2583161946579725E7 ; 2.563419857117431E10 ; 0.0
137 ; 484076.2411020562 ; 2.0050214493732396E8 ; 6.306976703418095E7 ; 2.583469941657172E10 ; 0.0
138 ; 483300.3062745903 ; 2.0050344178845897E8 ; 6.3553843275283E7 ; 2.6035201561509045E10 ; 0.0
139 ; 482889.58390227804 ; 2.005047359040873E8 ; 6.4037143581557594E7 ; 2.6235705003297504E10 ; 0.0
140 ; 480795.0261759146 ; 2.0050602723813182E8 ; 6.452003316545987E7 ; 2.643620973920159E10 ; 0.0
141 ; 479366.7265424409 ; 2.0050731574514785E8 ; 6.500082819163579E7 ; 2.6636715766439724E10 ; 0.0
142 ; 476685.7681629105 ; 2.0050860138030517E8 ; 6.548019491817823E7 ; 2.683722308218487E10 ; 0.0
143 ; 477436.29134665144 ; 2.0050988409937018E8 ; 6.5956880686341144E7 ; 2.7037731683565178E10 ; 0.0
144 ; 473462.24395453953 ; 2.005111638586892E8 ; 6.64343169776878E7 ; 2.7238241567664547E10 ; 0.0
145 ; 474238.4212200243 ; 2.0051244061517203E8 ; 6.690777922164234E7 ; 2.7438752731523235E10 ; 0.0
146 ; 474459.81340942986 ; 2.005137143262767E8 ; 6.738201764286236E7 ; 2.763926517213841E10 ; 0.0
147 ; 473458.19216562377 ; 2.0051498494999418E8 ; 6.78564774562718E7 ; 2.7839778886464684E10 ; 0.0
148 ; 473273.3223461286 ; 2.0051625244483417E8 ; 6.832993564843743E7 ; 2.8040293871414677E10 ; 0.0
149 ; 470693.23995020625 ; 2.0051751676981136E8 ; 6.880320897078356E7 ; 2.8240810123859512E10 ; 0.0
150 ; 469590.7787339826 ; 2.0051877788443193E8 ; 6.927390221073377E7 ; 2.8441327640629322E10 ; 0.0
151 ; 470527.4519955356 ; 2.0052003574868098E8 ; 6.974349298946775E7 ; 2.8641846418513756E10 ; 0.0
152 ; 468844.933177792 ; 2.0052129032301012E8 ; 7.021402044146329E7 ; 2.8842366454262436E10 ; 0.0
153 ; 467683.1306568648 ; 2.0052254156832573E8 ; 7.068286537464109E7 ; 2.9042887744585445E10 ; 0.0
154 ; 467379.9101597812 ; 2.0052378944597766E8 ; 7.115054850529796E7 ; 2.924341028615377E10 ; 0.0
155 ; 467505.48692835803 ; 2.0052503391774818E8 ; 7.161792841545774E7 ; 2.9443934075599747E10 ; 0.0
156 ; 467342.9483717339 ; 2.0052627494584158E8 ; 7.20854339023861E7 ; 2.9644459109517494E10 ; 0.0
157 ; 466155.28371119354 ; 2.00527512492874E8 ; 7.255277685075784E7 ; 2.9844985384463337E10 ; 0.0
158 ; 464418.04953810165 ; 2.005287465218637E8 ; 7.301893213446903E7 ; 3.004551289695621E10 ; 0.0
159 ; 464843.82848491863 ; 2.0052997699622172E8 ; 7.348335018400714E7 ; 3.0246041643478073E10 ; 0.0
160 ; 464219.9742599998 ; 2.005312038797429E8 ; 7.394819401249206E7 ; 3.0446571620474297E10 ; 0.0
161 ; 462477.1141487601 ; 2.0053242713659707E8 ; 7.441241398675206E7 ; 3.064710282435404E10 ; 0.0
162 ; 462317.01181638474 ; 2.0053364673132086E8 ; 7.487489110090083E7 ; 3.0847635251490635E10 ; 0.0
163 ; 461405.8140193874 ; 2.0053486262880948E8 ; 7.533720811271721E7 ; 3.1048168898221954E10 ; 0.0
164 ; 458979.1492814741 ; 2.0053607479430914E8 ; 7.57986139267366E7 ; 3.1248703760850765E10 ; 0.0
165 ; 460798.29065544106 ; 2.005372831934094E8 ; 7.625759307601807E7 ; 3.1449239835645073E10 ; 0.0
166 ; 460327.28372239583 ; 2.0053848779203615E8 ; 7.67183913666735E7 ; 3.164977711883848E10 ; 0.0
167 ; 459386.76326774474 ; 2.005396885564445E8 ; 7.71787186503959E7 ; 3.185031560663052E10 ; 0.0
168 ; 458949.317807119 ; 2.0054088545321223E8 ; 7.763810541366364E7 ; 3.2050855295186966E10 ; 0.0
169 ; 458027.02708842425 ; 2.0054207844923332E8 ; 7.809705473147076E7 ; 3.225139618064018E10 ; 0.0
170 ; 456662.46362717333 ; 2.0054326751171172E8 ; 7.855508175855918E7 ; 3.2451938259089413E10 ; 0.0
171 ; 456814.11576228443 ; 2.0054445260815537E8 ; 7.901174422218636E7 ; 3.2652481526601124E10 ; 0.0
172 ; 454138.71250424895 ; 2.0054563370637044E8 ; 7.946855833794864E7 ; 3.285302597920928E10 ; 0.0
173 ; 454299.47892106464 ; 2.0054681077445573E8 ; 7.992269705045289E7 ; 3.305357161291565E10 ; 0.0
174 ; 454107.71675921883 ; 2.0054798378079736E8 ; 8.037699652937396E7 ; 3.3254118423690105E10 ; 0.0
175 ; 454212.0483455938 ; 2.005491526940636E8 ; 8.083110424613318E7 ; 3.34546664074709E10 ; 0.0
176 ; 453424.47004950506 ; 2.005503174831998E8 ; 8.128531629447877E7 ; 3.3655215560164967E10 ; 0.0
177 ; 452264.29699538375 ; 2.0055147811742368E8 ; 8.173874076452827E7 ; 3.3855765877648167E10 ; 0.0
178 ; 452656.57344936964 ; 2.0055263456622058E8 ; 8.219100506152366E7 ; 3.405631735576559E10 ; 0.0
179 ; 450857.0792764272 ; 2.0055378679933912E8 ; 8.264366163497303E7 ; 3.425686999033181E10 ; 0.0
180 ; 450764.32430768973 ; 2.0055493478678668E8 ; 8.309451871424946E7 ; 3.445742377713115E10 ; 0.0
181 ; 449656.1009360521 ; 2.005560784988254E8 ; 8.354528303855716E7 ; 3.465797871191794E10 ; 0.0
182 ; 449748.94949915144 ; 2.0055721790596813E8 ; 8.399493913949321E7 ; 3.485853479041676E10 ; 0.0
183 ; 450396.2857553379 ; 2.0055835297897443E8 ; 8.444468808899236E7 ; 3.505909200832273E10 ; 0.0
184 ; 448898.2237037926 ; 2.0055948368884698E8 ; 8.48950843747477E7 ; 3.5259650361301704E10 ; 0.0
185 ; 448737.9056799776 ; 2.005606100068278E8 ; 8.534398259845148E7 ; 3.5460209844990555E10 ; 0.0
186 ; 447605.0142221003 ; 2.005617319043949E8 ; 8.579272050413145E7 ; 3.566077045499738E10 ; 0.0
187 ; 447615.4385680005 ; 2.005628493532588E8 ; 8.624032551835355E7 ; 3.586133218690178E10 ; 0.0
188 ; 446398.70061493886 ; 2.005639623253593E8 ; 8.668794095692155E7 ; 3.6061895036255035E10 ; 0.0
189 ; 445663.40553807135 ; 2.0056507079286247E8 ; 8.713433965753649E7 ; 3.626245899858039E10 ; 0.0
190 ; 446149.79995608237 ; 2.005661747281573E8 ; 8.758000306307456E7 ; 3.646302406937325E10 ; 0.0
191 ; 446281.56746523717 ; 2.0056727410385317E8 ; 8.802615286303064E7 ; 3.666359024410141E10 ; 0.0
192 ; 444270.5007305925 ; 2.0056836889277664E8 ; 8.847243443049587E7 ; 3.686415751820526E10 ; 0.0
193 ; 443811.5666726192 ; 2.0056945906796893E8 ; 8.891670493122646E7 ; 3.706472588709804E10 ; 0.0
194 ; 444145.28093476145 ; 2.0057054460268334E8 ; 8.936051649789909E7 ; 3.726529534616601E10 ; 0.0
195 ; 443422.86738684133 ; 2.0057162547038242E8 ; 8.980466177883385E7 ; 3.746586589076869E10 ; 0.0
196 ; 442479.2193797423 ; 2.005727016447358E8 ; 9.02480846462207E7 ; 3.7666437516239075E10 ; 0.0
197 ; 443458.91203992814 ; 2.005737730996177E8 ; 9.069056386560044E7 ; 3.786701021788381E10 ; 0.0
198 ; 442920.61205884576 ; 2.0057483980910453E8 ; 9.113402277764037E7 ; 3.806758399098343E10 ; 0.0
199 ; 443135.7534833517 ; 2.0057590174747285E8 ; 9.157694338969922E7 ; 3.8268158830792534E10 ; 0.0
200 ; 440547.43523498514 ; 2.0057695888919708E8 ; 9.202007914318258E7 ; 3.846873473254001E10 ; 0.0
201 ; 440076.78317520546 ; 2.005780112089475E8 ; 9.246062657841755E7 ; 3.866931169142921E10 ; 0.0
