CSV File for the City 3 on Day 344
1 - Minute m 
2 - Power Consumed at minute m 
3 - Power Produced at minute m 
4 - Energy Consumed since the beginning of the day 
5 - Energy Produced since the beginning of the day 
6 - Energy Lost since the beginning of the day on lines starting from the city
 
0 ; 2386516.254010829 ; 1.0561350968212107E8 ; 0.0 ; 0.0 ; 0.0
1 ; 2391189.7510562297 ; 1.0576646720111048E8 ; 2386516.254010829 ; 1.0561350968212107E8 ; 0.0
2 ; 2392215.8649422894 ; 1.0622820643332872E8 ; 4777706.005067059 ; 2.1137997688323155E8 ; 0.0
3 ; 2395837.3260883745 ; 1.0699872861615002E8 ; 7169921.870009348 ; 3.1760818331656027E8 ; 0.0
4 ; 2399617.9266695026 ; 1.0807803485547084E8 ; 9565759.196097722 ; 4.246069119327103E8 ; 0.0
5 ; 2404115.242124027 ; 1.0946612612060815E8 ; 1.1965377122767225E7 ; 5.326849467881811E8 ; 0.0
6 ; 2410346.8293372593 ; 1.111630032397581E8 ; 1.4369492364891252E7 ; 6.421510729087893E8 ; 0.0
7 ; 2417549.543782094 ; 1.1316866689606309E8 ; 1.677983919422851E7 ; 7.533140761485474E8 ; 0.0
8 ; 2428289.448626462 ; 1.1548311762433112E8 ; 1.9197388738010604E7 ; 8.664827430446105E8 ; 0.0
9 ; 2444531.53723175 ; 1.181063558084448E8 ; 2.1625678186637066E7 ; 9.819658606689416E8 ; 0.0
10 ; 2472208.6692821784 ; 1.2103838167948884E8 ; 2.4070209723868817E7 ; 1.1000722164773865E9 ; 0.0
11 ; 2513420.793413129 ; 1.2427919531461766E8 ; 2.6542418393150996E7 ; 1.2211105981568754E9 ; 0.0
12 ; 2579335.9182882984 ; 1.2782879663667682E8 ; 2.9055839186564125E7 ; 1.345389793471493E9 ; 0.0
13 ; 2642652.325801619 ; 1.316871854145816E8 ; 3.1635175104852423E7 ; 1.4732185901081698E9 ; 0.0
14 ; 2651035.001857421 ; 1.3585436126444948E8 ; 3.427782743065404E7 ; 1.6049057755227513E9 ; 0.0
15 ; 2654169.919010016 ; 1.4033032365147233E8 ; 3.6928862432511464E7 ; 1.740760136787201E9 ; 0.0
16 ; 2656191.413940734 ; 1.4511507189250788E8 ; 3.958303235152148E7 ; 1.8810904604386733E9 ; 0.0
17 ; 2659100.324914937 ; 1.502086051593599E8 ; 4.223922376546221E7 ; 2.026205532331181E9 ; 0.0
18 ; 2662026.1532413317 ; 1.5561092248271143E8 ; 4.489832409037715E7 ; 2.176414137490541E9 ; 0.0
19 ; 2664223.435262897 ; 1.6132202275666603E8 ; 4.756035024361848E7 ; 2.3320250599732523E9 ; 0.0
20 ; 2668226.9535209863 ; 1.6734190474384943E8 ; 5.022457367888138E7 ; 2.4933470827299185E9 ; 0.0
21 ; 2672795.2067675414 ; 1.7367056708101603E8 ; 5.289280063240236E7 ; 2.6606889874737678E9 ; 0.0
22 ; 2673563.9657362136 ; 1.8030800828510296E8 ; 5.5565595839169905E7 ; 2.834359554554784E9 ; 0.0
23 ; 2677604.1510212296 ; 1.8725422675967115E8 ; 5.8239159804906115E7 ; 3.0146675628398867E9 ; 0.0
24 ; 2679790.2470296226 ; 1.945092208016699E8 ; 6.091676395592734E7 ; 3.201921789599558E9 ; 0.0
25 ; 2683556.8233301095 ; 2.007610295066465E8 ; 6.359655420295697E7 ; 3.396431010401228E9 ; 0.0
26 ; 2687911.350990369 ; 2.0076319881286526E8 ; 6.628011102628708E7 ; 3.5971920399078746E9 ; 0.0
27 ; 2689819.9741509287 ; 2.0076549603357053E8 ; 6.896802237727745E7 ; 3.79795523872074E9 ; 0.0
28 ; 2692952.107696878 ; 2.0076791911119452E8 ; 7.165784235142837E7 ; 3.9987207347543106E9 ; 0.0
29 ; 2696577.5699873334 ; 2.0077046591805705E8 ; 7.435079445912525E7 ; 4.199488653865505E9 ; 0.0
30 ; 2699092.705325899 ; 2.0077313426378506E8 ; 7.704737202911258E7 ; 4.400259119783563E9 ; 0.0
31 ; 2702132.942846693 ; 2.0077592190264732E8 ; 7.974646473443848E7 ; 4.601032254047348E9 ; 0.0
32 ; 2704212.6462421464 ; 2.0077882654075837E8 ; 8.244859767728516E7 ; 4.801808175949995E9 ; 0.0
33 ; 2708548.881662513 ; 2.0078184584311086E8 ; 8.51528103235273E7 ; 5.002587002490753E9 ; 0.0
34 ; 2712098.8929530545 ; 2.007849774403993E8 ; 8.786135920518982E7 ; 5.203368848333864E9 ; 0.0
35 ; 2712685.7500642114 ; 2.0078821893560427E8 ; 9.057345809814288E7 ; 5.404153825774263E9 ; 0.0
36 ; 2715417.4890555153 ; 2.007915679103098E8 ; 9.328614384820709E7 ; 5.6049420447098675E9 ; 0.0
37 ; 2717286.7443260713 ; 2.007950219307316E8 ; 9.60015613372626E7 ; 5.805733612620177E9 ; 0.0
38 ; 2719625.6761890138 ; 2.0079857855343932E8 ; 9.871884808158867E7 ; 6.006528634550909E9 ; 0.0
39 ; 2722613.604088964 ; 2.0080223533075866E8 ; 1.0143847375777769E8 ; 6.207327213104348E9 ; 0.0
40 ; 2724161.656028289 ; 2.008059898158448E8 ; 1.0416108736186665E8 ; 6.408129448435107E9 ; 0.0
41 ; 2726448.683033958 ; 2.0080983956742156E8 ; 1.0688524901789494E8 ; 6.608935438250952E9 ; 0.0
42 ; 2728881.896680734 ; 2.0081378215418386E8 ; 1.096116977009289E8 ; 6.809745277818374E9 ; 0.0
43 ; 2729510.8691411456 ; 2.008178151588654E8 ; 1.1234057959760962E8 ; 7.010559059972557E9 ; 0.0
44 ; 2732668.570362703 ; 2.0082193618197456E8 ; 1.1507009046675077E8 ; 7.211376875131422E9 ; 0.0
45 ; 2733646.8431125907 ; 2.008261428452054E8 ; 1.1780275903711347E8 ; 7.412198811313396E9 ; 0.0
46 ; 2736140.2446078574 ; 2.008304327945318E8 ; 1.2053640588022606E8 ; 7.613024954158602E9 ; 0.0
47 ; 2738205.3420991036 ; 2.0083480370299464E8 ; 1.2327254612483391E8 ; 7.813855386953134E9 ; 0.0
48 ; 2736290.3460646104 ; 2.0083925327319402E8 ; 1.2601075146693301E8 ; 8.014690190656128E9 ; 0.0
49 ; 2738695.0793817947 ; 2.0084377923949838E8 ; 1.2874704181299762E8 ; 8.215529443929322E9 ; 0.0
50 ; 2739940.7609302676 ; 2.0084837936998495E8 ; 1.3148573689237942E8 ; 8.41637322316882E9 ; 0.0
51 ; 2740946.023117282 ; 2.0085305146812466E8 ; 1.3422567765330967E8 ; 8.617221602538805E9 ; 0.0
52 ; 2741782.991433166 ; 2.0085779337422693E8 ; 1.3696662367642695E8 ; 8.81807465400693E9 ; 0.0
53 ; 2742942.1850533956 ; 2.008626029666583E8 ; 1.3970840666786012E8 ; 9.018932447381157E9 ; 0.0
54 ; 2742691.3954784186 ; 2.008674781628504E8 ; 1.4245134885291353E8 ; 9.219795050347815E9 ; 0.0
55 ; 2742781.784918745 ; 2.0087241692011145E8 ; 1.4519404024839196E8 ; 9.420662528510666E9 ; 0.0
56 ; 2746042.8230625214 ; 2.0087741723625588E8 ; 1.479368220333107E8 ; 9.621534945430777E9 ; 0.0
57 ; 2744878.445316606 ; 2.0088247715006617E8 ; 1.5068286485637322E8 ; 9.822412362667032E9 ; 0.0
58 ; 2746402.0019793045 ; 2.0088759474160084E8 ; 1.5342774330168983E8 ; 1.0023294839817099E10 ; 0.0
59 ; 2746992.7336651627 ; 2.0089276813236126E8 ; 1.5617414530366912E8 ; 1.0224182434558699E10 ; 0.0
60 ; 2747998.3937037983 ; 2.008979954853304E8 ; 1.589211380373343E8 ; 1.042507520269106E10 ; 0.0
61 ; 2748922.6156925317 ; 2.0090327500489527E8 ; 1.6166913643103808E8 ; 1.062597319817639E10 ; 0.0
62 ; 2749285.985408791 ; 2.0090860493666488E8 ; 1.644180590467306E8 ; 1.0826876473181286E10 ; 0.0
63 ; 2750599.924414421 ; 2.0091398356719375E8 ; 1.671673450321394E8 ; 1.102778507811795E10 ; 0.0
64 ; 2749160.128391935 ; 2.0091940922362208E8 ; 1.6991794495655382E8 ; 1.1228699061685144E10 ; 0.0
65 ; 2749782.41514976 ; 2.009248802732414E8 ; 1.7266710508494574E8 ; 1.1429618470908766E10 ; 0.0
66 ; 2752765.862183318 ; 2.0093039512299475E8 ; 1.754168875000955E8 ; 1.1630543351182007E10 ; 0.0
67 ; 2750374.5641973875 ; 2.0093595221891987E8 ; 1.7816965336227882E8 ; 1.1831473746305002E10 ; 0.0
68 ; 2751921.5595240314 ; 2.0094155004554266E8 ; 1.809200279264762E8 ; 1.2032409698523922E10 ; 0.0
69 ; 2752083.214234015 ; 2.0094718712522832E8 ; 1.8367194948600024E8 ; 1.2233351248569464E10 ; 0.0
70 ; 2755050.23471222 ; 2.009528620174964E8 ; 1.8642403270023426E8 ; 1.2434298435694693E10 ; 0.0
71 ; 2752981.3684719065 ; 2.0095857331830606E8 ; 1.8917908293494648E8 ; 1.2635251297712189E10 ; 0.0
72 ; 2753757.6001405143 ; 2.009643196593163E8 ; 1.919320643034184E8 ; 1.2836209871030495E10 ; 0.0
73 ; 2754044.633323802 ; 2.0097009970712712E8 ; 1.946858219035589E8 ; 1.3037174190689812E10 ; 0.0
74 ; 2755325.6648084554 ; 2.0097591216250518E8 ; 1.974398665368827E8 ; 1.3238144290396938E10 ; 0.0
75 ; 2753874.082114939 ; 2.009817557595986E8 ; 2.0019519220169115E8 ; 1.3439120202559444E10 ; 0.0
76 ; 2755222.1570287137 ; 2.0098762926514432E8 ; 2.029490662838061E8 ; 1.3640101958319042E10 ; 0.0
77 ; 2755777.596840314 ; 2.0099353147767138E8 ; 2.057042884408348E8 ; 1.3841089587584187E10 ; 0.0
78 ; 2753553.735530127 ; 2.009994612267033E8 ; 2.084600660376751E8 ; 1.4042083119061857E10 ; 0.0
79 ; 2756346.3057195186 ; 2.0100541737196153E8 ; 2.1121361977320525E8 ; 1.424308258028856E10 ; 0.0
80 ; 2753062.3372907834 ; 2.0101139880257338E8 ; 2.1396996607892478E8 ; 1.4444087997660522E10 ; 0.0
81 ; 2753153.688019527 ; 2.0101740443628526E8 ; 2.1672302841621557E8 ; 1.4645099396463097E10 ; 0.0
82 ; 2751671.19042916 ; 2.0102343321868405E8 ; 2.1947618210423508E8 ; 1.4846116800899382E10 ; 0.0
83 ; 2752157.7271698336 ; 2.010294841224275E8 ; 2.2222785329466423E8 ; 1.5047140234118065E10 ; 0.0
84 ; 2750182.1948831 ; 2.0103555614648548E8 ; 2.2498001102183408E8 ; 1.5248169718240492E10 ; 0.0
85 ; 2750585.4560376746 ; 2.0104164831539306E8 ; 2.2773019321671718E8 ; 1.5449205274386978E10 ; 0.0
86 ; 2749536.3280430064 ; 2.0104775967851615E8 ; 2.3048077867275485E8 ; 1.5650246922702372E10 ; 0.0
87 ; 2748484.004065074 ; 2.0105388930933115E8 ; 2.3323031500079787E8 ; 1.5851294682380888E10 ; 0.0
88 ; 2746759.345947897 ; 2.0106003630471882E8 ; 2.3597879900486293E8 ; 1.605234857169022E10 ; 0.0
89 ; 2747403.313592821 ; 2.0106619978427306E8 ; 2.3872555835081083E8 ; 1.6253408607994938E10 ; 0.0
90 ; 2746553.800751346 ; 2.0107237888962498E8 ; 2.4147296166440365E8 ; 1.6454474807779211E10 ; 0.0
91 ; 2747272.8782466645 ; 2.010785727837829E8 ; 2.44219515465155E8 ; 1.6655547186668837E10 ; 0.0
92 ; 2744294.8476226926 ; 2.0108478065048817E8 ; 2.4696678834340167E8 ; 1.685662575945262E10 ; 0.0
93 ; 2743057.8433936667 ; 2.0109100169358715E8 ; 2.4971108319102436E8 ; 1.7057710540103107E10 ; 0.0
94 ; 2743841.6325726146 ; 2.0109723513641933E8 ; 2.5245414103441802E8 ; 1.7258801541796696E10 ; 0.0
95 ; 2741297.6234958842 ; 2.011034802212219E8 ; 2.5519798266699064E8 ; 1.7459898776933117E10 ; 0.0
96 ; 2740038.4938491895 ; 2.0110973620855027E8 ; 2.579392802904865E8 ; 1.766100225715434E10 ; 0.0
97 ; 2741444.696326132 ; 2.0111600237671506E8 ; 2.606793187843357E8 ; 1.786211199336289E10 ; 0.0
98 ; 2738480.6183854784 ; 2.0112227802123457E8 ; 2.6342076348066184E8 ; 1.8063227995739605E10 ; 0.0
99 ; 2736493.6373948874 ; 2.0112856245430362E8 ; 2.661592440990473E8 ; 1.826435027376084E10 ; 0.0
100 ; 2737480.1228166376 ; 2.0113485500427777E8 ; 2.688957377364422E8 ; 1.8465478836215145E10 ; 0.0
101 ; 2736223.8166018026 ; 2.0114115501517275E8 ; 2.7163321785925883E8 ; 1.866661369121942E10 ; 0.0
102 ; 2734674.3038331955 ; 2.011474618461795E8 ; 2.7436944167586064E8 ; 1.8867754846234592E10 ; 0.0
103 ; 2734361.8842942785 ; 2.0115377487119347E8 ; 2.7710411597969383E8 ; 1.9068902308080772E10 ; 0.0
104 ; 2732595.66209429 ; 2.0116009347835922E8 ; 2.798384778639881E8 ; 1.9270056082951965E10 ; 0.0
105 ; 2731423.4694220526 ; 2.011664170696285E8 ; 2.825710735260824E8 ; 1.9471216176430325E10 ; 0.0
106 ; 2729744.4716657116 ; 2.011727450603329E8 ; 2.8530249699550444E8 ; 1.9672382593499954E10 ; 0.0
107 ; 2729680.9811458676 ; 2.011790768787698E8 ; 2.880322414671702E8 ; 1.9873555338560287E10 ; 0.0
108 ; 2728110.4568865155 ; 2.011854119658016E8 ; 2.9076192244831604E8 ; 2.0074734415439056E10 ; 0.0
109 ; 2726278.475394459 ; 2.0119174977446824E8 ; 2.9349003290520257E8 ; 2.0275919827404858E10 ; 0.0
110 ; 2723829.4695746615 ; 2.011980897696118E8 ; 2.9621631138059705E8 ; 2.0477111577179325E10 ; 0.0
111 ; 2723113.9882027064 ; 2.0120443142751378E8 ; 2.9894014085017174E8 ; 2.0678309666948936E10 ; 0.0
112 ; 2721631.9308254304 ; 2.0121077423554412E8 ; 3.0166325483837444E8 ; 2.087951409837645E10 ; 0.0
113 ; 2720414.169757192 ; 2.0121711769182196E8 ; 3.0438488676919985E8 ; 2.108072487261199E10 ; 0.0
114 ; 2718797.8171958663 ; 2.0122346130488744E8 ; 3.0710530093895704E8 ; 2.1281941990303814E10 ; 0.0
115 ; 2717645.4266297948 ; 2.0122980459338462E8 ; 3.098240987561529E8 ; 2.14831654516087E10 ; 0.0
116 ; 2716597.82436742 ; 2.0123614708575487E8 ; 3.125417441827827E8 ; 2.1684395256202084E10 ; 0.0
117 ; 2715002.9081120472 ; 2.012424883199405E8 ; 3.152583420071501E8 ; 2.1885631403287838E10 ; 0.0
118 ; 2713613.3144412804 ; 2.0124882784309858E8 ; 3.1797334491526216E8 ; 2.2086873891607777E10 ; 0.0
119 ; 2712690.6913911523 ; 2.0125516521132398E8 ; 3.206869582297034E8 ; 2.2288122719450874E10 ; 0.0
120 ; 2711888.1342171654 ; 2.0126149998938218E8 ; 3.233996489210946E8 ; 2.2489377884662197E10 ; 0.0
121 ; 2707644.4307037997 ; 2.0126783175045073E8 ; 3.2611153705531174E8 ; 2.269063938465158E10 ; 0.0
122 ; 2706573.3497792925 ; 2.0127416007586974E8 ; 3.2881918148601556E8 ; 2.289190721640203E10 ; 0.0
123 ; 2704262.860951247 ; 2.0128048455490065E8 ; 3.3152575483579487E8 ; 2.30931813764779E10 ; 0.0
124 ; 2703267.447739472 ; 2.0128680478449315E8 ; 3.342300176967461E8 ; 2.3294461861032803E10 ; 0.0
125 ; 2702026.0738281943 ; 2.0129312036906016E8 ; 3.369332851444856E8 ; 2.3495748665817295E10 ; 0.0
126 ; 2699901.268796481 ; 2.0129943092026025E8 ; 3.396353112183138E8 ; 2.3697041786186356E10 ; 0.0
127 ; 2698333.9278066065 ; 2.0130573605678752E8 ; 3.423352124871103E8 ; 2.3898341217106617E10 ; 0.0
128 ; 2696853.6209594933 ; 2.0131203540416875E8 ; 3.4503354641491693E8 ; 2.4099646953163406E10 ; 0.0
129 ; 2694798.684074722 ; 2.0131832859456706E8 ; 3.4773040003587645E8 ; 2.4300958988567574E10 ; 0.0
130 ; 2693030.797008713 ; 2.0132461526659268E8 ; 3.5042519871995115E8 ; 2.450227731716214E10 ; 0.0
131 ; 2688865.539790371 ; 2.0133089506511965E8 ; 3.5311822951695985E8 ; 2.4703601932428734E10 ; 0.0
132 ; 2687933.1210048855 ; 2.0133716764110926E8 ; 3.5580709505675024E8 ; 2.4904932827493855E10 ; 0.0
133 ; 2685157.142349519 ; 2.0134343265143892E8 ; 3.584950281777551E8 ; 2.5106269995134964E10 ; 0.0
134 ; 2682643.336817847 ; 2.0134968975873724E8 ; 3.6118018532010466E8 ; 2.5307613427786404E10 ; 0.0
135 ; 2679262.0235509654 ; 2.013559386312244E8 ; 3.638628286569225E8 ; 2.550896311754514E10 ; 0.0
136 ; 2676390.270407746 ; 2.013621789425581E8 ; 3.665420906804735E8 ; 2.5710319056176365E10 ; 0.0
137 ; 2673936.930283659 ; 2.013684103716846E8 ; 3.6921848095088124E8 ; 2.5911681235118923E10 ; 0.0
138 ; 2672494.4662724943 ; 2.0137463260269472E8 ; 3.718924178811649E8 ; 2.611304964549061E10 ; 0.0
139 ; 2668003.33215867 ; 2.0138084532468483E8 ; 3.745649123474374E8 ; 2.6314424278093304E10 ; 0.0
140 ; 2665928.234632508 ; 2.013870482316223E8 ; 3.7723291567959607E8 ; 2.6515805123417988E10 ; 0.0
141 ; 2663913.8878227025 ; 2.0139324102221578E8 ; 3.7989884391422856E8 ; 2.671719217164961E10 ; 0.0
142 ; 2659761.165672889 ; 2.0139942339978933E8 ; 3.8256275780205125E8 ; 2.6918585412671825E10 ; 0.0
143 ; 2657948.615927587 ; 2.014055950721613E8 ; 3.8522251896772414E8 ; 2.7119984836071613E10 ; 0.0
144 ; 2655080.8861986427 ; 2.014117557515268E8 ; 3.878804675836517E8 ; 2.7321390431143776E10 ; 0.0
145 ; 2652303.6671094215 ; 2.0141790515434432E8 ; 3.9053554846985036E8 ; 2.75228021868953E10 ; 0.0
146 ; 2651134.579488046 ; 2.0142404300122613E8 ; 3.931878521369598E8 ; 2.7724220092049644E10 ; 0.0
147 ; 2647559.1648654593 ; 2.0143016901683205E8 ; 3.9583898671644783E8 ; 2.792564413505087E10 ; 0.0
148 ; 2647740.348719167 ; 2.0143628292976713E8 ; 3.9848654588131326E8 ; 2.81270743040677E10 ; 0.0
149 ; 2644959.854396112 ; 2.0144238447248232E8 ; 4.0113428623003244E8 ; 2.8328510586997467E10 ; 0.0
150 ; 2643666.421249147 ; 2.0144847338117874E8 ; 4.0377924608442855E8 ; 2.8529952971469948E10 ; 0.0
151 ; 2641782.6611477896 ; 2.0145454939571476E8 ; 4.064229125056777E8 ; 2.8731401444851128E10 ; 0.0
152 ; 2638946.1475650645 ; 2.014606122595165E8 ; 4.090646951668255E8 ; 2.893285599424684E10 ; 0.0
153 ; 2637714.7106318125 ; 2.0146666171949098E8 ; 4.1170364131439054E8 ; 2.913431660650636E10 ; 0.0
154 ; 2636027.3275420675 ; 2.0147269752594215E8 ; 4.143413560250223E8 ; 2.933578326822585E10 ; 0.0
155 ; 2631981.448879732 ; 2.0147871943248975E8 ; 4.169773833525644E8 ; 2.9537255965751793E10 ; 0.0
156 ; 2631376.594077788 ; 2.0148472719599086E8 ; 4.196093648014441E8 ; 2.9738734685184284E10 ; 0.0
157 ; 2629531.7162797027 ; 2.014907205764636E8 ; 4.222407413955219E8 ; 2.9940219412380276E10 ; 0.0
158 ; 2627933.685961538 ; 2.0149669933701402E8 ; 4.2487027311180156E8 ; 3.0141710132956738E10 ; 0.0
159 ; 2625087.1878115973 ; 2.0150266324376446E8 ; 4.274982067977631E8 ; 3.034320683229375E10 ; 0.0
160 ; 2622533.8649973776 ; 2.0150861206578502E8 ; 4.301232939855747E8 ; 3.0544709495537514E10 ; 0.0
161 ; 2622149.0477697933 ; 2.0151454557502672E8 ; 4.327458278505721E8 ; 3.07462181076033E10 ; 0.0
162 ; 2620038.8103802414 ; 2.015204635462571E8 ; 4.353679768983419E8 ; 3.0947732653178326E10 ; 0.0
163 ; 2616371.3062991803 ; 2.015263657569976E8 ; 4.379880157087221E8 ; 3.1149253116724583E10 ; 0.0
164 ; 2615677.0032325787 ; 2.0153225198746315E8 ; 4.406043870150213E8 ; 3.135077948248158E10 ; 0.0
165 ; 2613451.849281049 ; 2.015381220205037E8 ; 4.432200640182539E8 ; 3.1552311734469044E10 ; 0.0
166 ; 2610657.436554273 ; 2.0154397564154744E8 ; 4.45833515867535E8 ; 3.1753849856489548E10 ; 0.0
167 ; 2610169.52784131 ; 2.0154981263854593E8 ; 4.4844417330408925E8 ; 3.1955393832131096E10 ; 0.0
168 ; 2606450.0734720742 ; 2.0155563280192095E8 ; 4.510543428319306E8 ; 3.215694364476964E10 ; 0.0
169 ; 2605193.591479134 ; 2.01561435924513E8 ; 4.5366079290540266E8 ; 3.2358499277571564E10 ; 0.0
170 ; 2602695.0619840887 ; 2.0156722180153152E8 ; 4.562659864968818E8 ; 3.256006071349608E10 ; 0.0
171 ; 2600089.1212248476 ; 2.0157299023050642E8 ; 4.5886868155886585E8 ; 3.276162793529761E10 ; 0.0
172 ; 2599167.6118025654 ; 2.0157874101124147E8 ; 4.6146877068009067E8 ; 3.296320092552812E10 ; 0.0
173 ; 2597479.3784622448 ; 2.0158447394576883E8 ; 4.6406793829189324E8 ; 3.316477966653936E10 ; 0.0
174 ; 2594750.315492183 ; 2.015901888383053E8 ; 4.666654176703555E8 ; 3.336636414048513E10 ; 0.0
175 ; 2593541.2982263034 ; 2.0159588549520957E8 ; 4.692601679858477E8 ; 3.3567954329323437E10 ; 0.0
176 ; 2592996.4154173126 ; 2.0160156372494122E8 ; 4.71853709284074E8 ; 3.3769550214818645E10 ; 0.0
177 ; 2591686.680116322 ; 2.016072233380205E8 ; 4.744467056994913E8 ; 3.3971151778543587E10 ; 0.0
178 ; 2590083.144732206 ; 2.0161286414698988E8 ; 4.770383923796076E8 ; 3.4172759001881607E10 ; 0.0
179 ; 2588473.2925031325 ; 2.0161848596637633E8 ; 4.796284755243398E8 ; 3.4374371866028595E10 ; 0.0
180 ; 2588392.854820775 ; 2.0162408861265504E8 ; 4.822169488168429E8 ; 3.457599035199497E10 ; 0.0
181 ; 2586496.828428188 ; 2.016296719042141E8 ; 4.848053416716637E8 ; 3.477761444060763E10 ; 0.0
182 ; 2583151.481889595 ; 2.016352356613204E8 ; 4.873918385000919E8 ; 3.497924411251184E10 ; 0.0
183 ; 2584375.4799139583 ; 2.0164077970608634E8 ; 4.899749899819815E8 ; 3.5180879348173164E10 ; 0.0
184 ; 2582495.614012001 ; 2.016463038624379E8 ; 4.9255936546189547E8 ; 3.538252012787925E10 ; 0.0
185 ; 2580780.814677109 ; 2.0165180795608342E8 ; 4.9514186107590747E8 ; 3.5584166431741684E10 ; 0.0
186 ; 2579591.1296664146 ; 2.0165729181448323E8 ; 4.977226418905846E8 ; 3.578581823969777E10 ; 0.0
187 ; 2579556.9579574107 ; 2.016627552668206E8 ; 5.00302233020251E8 ; 3.598747553151225E10 ; 0.0
188 ; 2576813.8937359215 ; 2.016681981439732E8 ; 5.0288178997820836E8 ; 3.6189138286779076E10 ; 0.0
189 ; 2575773.180275901 ; 2.0167362027848554E8 ; 5.054586038719443E8 ; 3.639080648492305E10 ; 0.0
190 ; 2574589.007208322 ; 2.016790215045423E8 ; 5.080343770522202E8 ; 3.659248010520154E10 ; 0.0
191 ; 2572823.199895654 ; 2.016844016579423E8 ; 5.106089660594286E8 ; 3.679415912670608E10 ; 0.0
192 ; 2569257.7653370285 ; 2.016897605760736E8 ; 5.1318178925932425E8 ; 3.699584352836402E10 ; 0.0
193 ; 2570106.18563931 ; 2.0169509809788874E8 ; 5.157510470246613E8 ; 3.7197533288940094E10 ; 0.0
194 ; 2570739.143758234 ; 2.0170041406388143E8 ; 5.183211532103006E8 ; 3.739922838703798E10 ; 0.0
195 ; 2567498.3083330267 ; 2.0170570831606337E8 ; 5.2089189235405886E8 ; 3.760092880110186E10 ; 0.0
196 ; 2567217.739099299 ; 2.01710980697942E8 ; 5.234593906623919E8 ; 3.780263450941792E10 ; 0.0
197 ; 2567137.2789141214 ; 2.0171623105449894E8 ; 5.260266084014912E8 ; 3.800434549011587E10 ; 0.0
198 ; 2564485.6837800415 ; 2.01721459232169E8 ; 5.285937456804053E8 ; 3.8206061721170364E10 ; 0.0
199 ; 2562724.538455377 ; 2.0172666507881975E8 ; 5.3115823136418533E8 ; 3.8407783180402534E10 ; 0.0
