CSV File for the City 2 on Day 208
1 - Minute m 
2 - Power Consumed at minute m 
3 - Power Produced at minute m 
4 - Energy Consumed since the beginning of the day 
5 - Energy Produced since the beginning of the day 
6 - Energy Lost since the beginning of the day on lines starting from the city
 
0 ; 127475.1592102109 ; 1.0520957583182463E8 ; 0.0 ; 0.0 ; 0.0
1 ; 129732.55112015053 ; 1.0536344342737621E8 ; 127475.1592102109 ; 1.0520957583182463E8 ; 0.0
2 ; 131876.3509771395 ; 1.0582599695159087E8 ; 257207.71033036144 ; 2.1057301925920084E8 ; 0.0
3 ; 134538.08458057608 ; 1.0659723758456719E8 ; 389084.06130750093 ; 3.163990162107917E8 ; 0.0
4 ; 137392.71359687048 ; 1.076771664108659E8 ; 523622.145888077 ; 4.229962537953589E8 ; 0.0
5 ; 141670.79602919577 ; 1.0906578440509796E8 ; 661014.8594849475 ; 5.306734202062248E8 ; 0.0
6 ; 146014.78560395903 ; 1.1076309241829464E8 ; 802685.6555141433 ; 6.397392046113228E8 ; 0.0
7 ; 151926.06083853316 ; 1.1276909116547489E8 ; 948700.4411181023 ; 7.505022970296174E8 ; 0.0
8 ; 161914.5736560661 ; 1.1508378121481198E8 ; 1100626.5019566354 ; 8.632713881950923E8 ; 0.0
9 ; 175896.61695607365 ; 1.1770716297877073E8 ; 1262541.0756127015 ; 9.783551694099042E8 ; 0.0
10 ; 197979.8009095464 ; 1.2063923670753163E8 ; 1438437.692568775 ; 1.096062332388675E9 ; 0.0
11 ; 231244.02224022592 ; 1.238800024849436E8 ; 1636417.4934783215 ; 1.2167015690962067E9 ; 0.0
12 ; 287366.93615700305 ; 1.2742946022715768E8 ; 1867661.5157185474 ; 1.3405815715811503E9 ; 0.0
13 ; 338439.25096300925 ; 1.312876096839934E8 ; 2155028.4518755507 ; 1.468011031808308E9 ; 0.0
14 ; 346461.3644177406 ; 1.35454450442986E8 ; 2493467.70283856 ; 1.5992986414923012E9 ; 0.0
15 ; 348640.7291711207 ; 1.3992998193596214E8 ; 2839929.0672563007 ; 1.7347530919352872E9 ; 0.0
16 ; 350753.8537674565 ; 1.4471420344790295E8 ; 3188569.7964274213 ; 1.8746830738712494E9 ; 0.0
17 ; 353701.97582987027 ; 1.4980711412777707E8 ; 3539323.6501948778 ; 2.0193972773191524E9 ; 0.0
18 ; 356012.62929800246 ; 1.5520871300097358E8 ; 3893025.626024748 ; 2.1692043914469295E9 ; 0.0
19 ; 359668.1897096304 ; 1.6091899898293176E8 ; 4249038.255322751 ; 2.324413104447903E9 ; 0.0
20 ; 362463.35171513626 ; 1.66937970893553E8 ; 4608706.445032381 ; 2.485332103430835E9 ; 0.0
21 ; 364806.4639118664 ; 1.7326562747199252E8 ; 4971169.796747518 ; 2.6522700743243876E9 ; 0.0
22 ; 366783.92901107913 ; 1.7990196739145392E8 ; 5335976.260659385 ; 2.82553570179638E9 ; 0.0
23 ; 371544.2161534737 ; 1.868469892736529E8 ; 5702760.189670464 ; 3.005437669187834E9 ; 0.0
24 ; 372771.55629979336 ; 1.9410069170266515E8 ; 6074304.405823938 ; 3.192284658461487E9 ; 0.0
25 ; 376033.6130993349 ; 2.0035111413611528E8 ; 6447075.962123731 ; 3.386385350164152E9 ; 0.0
26 ; 378662.62880616466 ; 2.0035180295406285E8 ; 6823109.575223066 ; 3.586736464300267E9 ; 0.0
27 ; 380828.3044710233 ; 2.003525259947655E8 ; 7201772.20402923 ; 3.78708826725433E9 ; 0.0
28 ; 384978.5064889364 ; 2.0035328181111428E8 ; 7582600.508500254 ; 3.9874407932490954E9 ; 0.0
29 ; 386940.6966145894 ; 2.0035406897232288E8 ; 7967579.01498919 ; 4.1877940750602098E9 ; 0.0
30 ; 390403.66186136066 ; 2.0035488607116774E8 ; 8354519.711603779 ; 4.388148144032533E9 ; 0.0
31 ; 393098.5383437645 ; 2.003557317300682E8 ; 8744923.37346514 ; 4.588503030103701E9 ; 0.0
32 ; 395050.7650261845 ; 2.003566046060735E8 ; 9138021.911808904 ; 4.788858761833769E9 ; 0.0
33 ; 399275.2557835975 ; 2.0035750339483836E8 ; 9533072.676835088 ; 4.989215366439842E9 ; 0.0
34 ; 399508.9114764435 ; 2.0035842683367878E8 ; 9932347.932618685 ; 5.189572869834681E9 ; 0.0
35 ; 403433.591978355 ; 2.0035937370380482E8 ; 1.033185684409513E7 ; 5.38993129666836E9 ; 0.0
36 ; 404727.1086450159 ; 2.0036034283182713E8 ; 1.0735290436073484E7 ; 5.590290670372165E9 ; 0.0
37 ; 407046.3333243067 ; 2.0036133309063262E8 ; 1.11400175447185E7 ; 5.790651013203992E9 ; 0.0
38 ; 410699.594900209 ; 2.003623433997194E8 ; 1.1547063878042808E7 ; 5.991012346294624E9 ; 0.0
39 ; 413710.8647540741 ; 2.003633727250751E8 ; 1.1957763472943017E7 ; 6.191374689694344E9 ; 0.0
40 ; 414290.1526479864 ; 2.0036442007867613E8 ; 1.237147433769709E7 ; 6.391738062419418E9 ; 0.0
41 ; 417532.02578568604 ; 2.003654845176771E8 ; 1.2785764490345078E7 ; 6.592102482498095E9 ; 0.0
42 ; 418517.7867472227 ; 2.0036656514335236E8 ; 1.3203296516130764E7 ; 6.792467967015772E9 ; 0.0
43 ; 421000.9563795863 ; 2.0036766109984413E8 ; 1.3621814302877987E7 ; 6.992834532159124E9 ; 0.0
44 ; 420535.1150310453 ; 2.003687715727644E8 ; 1.4042815259257574E7 ; 7.193202193258968E9 ; 0.0
45 ; 423165.83355529665 ; 2.0036989578769115E8 ; 1.4463350374288619E7 ; 7.393570964831733E9 ; 0.0
46 ; 425693.3746875271 ; 2.00371033008593E8 ; 1.4886516207843915E7 ; 7.593940860619424E9 ; 0.0
47 ; 426345.867409631 ; 2.003721825362116E8 ; 1.5312209582531441E7 ; 7.794311893628016E9 ; 0.0
48 ; 427691.7474289125 ; 2.003733437064256E8 ; 1.5738555449941073E7 ; 7.994684076164228E9 ; 0.0
49 ; 428214.30957653385 ; 2.0037451588861543E8 ; 1.6166247197369985E7 ; 8.195057419870654E9 ; 0.0
50 ; 431966.63390148 ; 2.0037569848404545E8 ; 1.6594461506946519E7 ; 8.39543193575927E9 ; 0.0
51 ; 432117.5259199213 ; 2.003768909242756E8 ; 1.7026428140848E7 ; 8.595807634243315E9 ; 0.0
52 ; 433122.8152984147 ; 2.0037809266961238E8 ; 1.745854566676792E7 ; 8.796184525167591E9 ; 0.0
53 ; 434830.4272585039 ; 2.0037930320760703E8 ; 1.7891668482066337E7 ; 8.996562617837204E9 ; 0.0
54 ; 434275.62559230434 ; 2.0038052205160573E8 ; 1.832649890932484E7 ; 9.196941921044811E9 ; 0.0
55 ; 437212.3078095389 ; 2.0038174873935643E8 ; 1.8760774534917142E7 ; 9.397322443096416E9 ; 0.0
56 ; 437851.90895020525 ; 2.003829828316738E8 ; 1.919798684272668E7 ; 9.597704191835773E9 ; 0.0
57 ; 439257.6549469689 ; 2.0038422391116482E8 ; 1.9635838751676887E7 ; 9.798087174667448E9 ; 0.0
58 ; 440471.64758217026 ; 2.00385471581014E8 ; 2.0075096406623855E7 ; 9.998471398578613E9 ; 0.0
59 ; 441160.34844358964 ; 2.0038672546382934E8 ; 2.0515568054206025E7 ; 1.0198856870159628E10 ; 0.0
60 ; 442416.0229874714 ; 2.003879852005469E8 ; 2.0956728402649615E7 ; 1.0399243595623457E10 ; 0.0
61 ; 443897.61411940964 ; 2.0038925044939363E8 ; 2.1399144425637085E7 ; 1.0599631580824003E10 ; 0.0
62 ; 444385.45295852545 ; 2.0039052088490608E8 ; 2.1843042039756496E7 ; 1.0800020831273397E10 ; 0.0
63 ; 446434.2852994013 ; 2.003917961970035E8 ; 2.228742749271502E7 ; 1.1000411352158304E10 ; 0.0
64 ; 446828.1353919071 ; 2.0039307609011295E8 ; 2.273386177801442E7 ; 1.1200803148355309E10 ; 0.0
65 ; 447653.3773923991 ; 2.0039436028234446E8 ; 2.3180689913406327E7 ; 1.1401196224445421E10 ; 0.0
66 ; 448034.62599339226 ; 2.0039564850471368E8 ; 2.3628343290798727E7 ; 1.1601590584727766E10 ; 0.0
67 ; 449583.02241935994 ; 2.003969405004102E8 ; 2.407637791679212E7 ; 1.180198623323248E10 ; 0.0
68 ; 451070.91100361873 ; 2.0039823602410853E8 ; 2.452596093921148E7 ; 1.200238317373289E10 ; 0.0
69 ; 451124.08468969277 ; 2.0039953484132016E8 ; 2.49770318502151E7 ; 1.2202781409756998E10 ; 0.0
70 ; 451981.4908802235 ; 2.004008367277841E8 ; 2.542815593490479E7 ; 1.2403180944598318E10 ; 0.0
71 ; 453047.6175598725 ; 2.0040214146889386E8 ; 2.5880137425785016E7 ; 1.2603581781326101E10 ; 0.0
72 ; 454269.86513633194 ; 2.0040344885915884E8 ; 2.633318504334489E7 ; 1.2803983922794994E10 ; 0.0
73 ; 455779.0128649345 ; 2.004047587016981E8 ; 2.678745490848122E7 ; 1.3004387371654154E10 ; 0.0
74 ; 455647.5048061067 ; 2.0040607080776438E8 ; 2.7243233921346158E7 ; 1.3204792130355852E10 ; 0.0
75 ; 456055.0920579748 ; 2.0040738499629706E8 ; 2.7698881426152263E7 ; 1.3405198201163616E10 ; 0.0
76 ; 457135.08686489123 ; 2.0040870109350184E8 ; 2.8154936518210236E7 ; 1.3605605586159914E10 ; 0.0
77 ; 458591.58724953706 ; 2.004100189324557E8 ; 2.861207160507513E7 ; 1.3806014287253416E10 ; 0.0
78 ; 459473.4665392091 ; 2.0041133835273564E8 ; 2.9070663192324664E7 ; 1.4006424306185871E10 ; 0.0
79 ; 459427.17044433 ; 2.004126592000696E8 ; 2.9530136658863872E7 ; 1.4206835644538607E10 ; 0.0
80 ; 458962.492016924 ; 2.0041398132600838E8 ; 2.99895638293082E7 ; 1.4407248303738676E10 ; 0.0
81 ; 458555.2752465943 ; 2.0041530458761683E8 ; 3.0448526321325123E7 ; 1.4607662285064684E10 ; 0.0
82 ; 458335.0280128839 ; 2.004166288471838E8 ; 3.0907081596571717E7 ; 1.48080775896523E10 ; 0.0
83 ; 459614.6405393534 ; 2.0041795397194892E8 ; 3.13654166245846E7 ; 1.5008494218499483E10 ; 0.0
84 ; 459787.61353401135 ; 2.004192798338457E8 ; 3.1825031265123952E7 ; 1.5208912172471432E10 ; 0.0
85 ; 459843.20672998356 ; 2.0042060630925962E8 ; 3.2284818878657963E7 ; 1.5409331452305277E10 ; 0.0
86 ; 459989.5174191753 ; 2.0042193327880052E8 ; 3.2744662085387945E7 ; 1.5609752058614536E10 ; 0.0
87 ; 461465.0164926458 ; 2.0042326062708807E8 ; 3.320465160280712E7 ; 1.5810173991893337E10 ; 0.0
88 ; 458456.01675609313 ; 2.0042458824254984E8 ; 3.366611661929976E7 ; 1.6010597252520426E10 ; 0.0
89 ; 460916.8972471541 ; 2.00425916017231E8 ; 3.412457263605586E7 ; 1.6211021840762976E10 ; 0.0
90 ; 459053.7937006313 ; 2.0042724384661478E8 ; 3.458548953330301E7 ; 1.6411447756780207E10 ; 0.0
91 ; 459948.72678803996 ; 2.0042857162945348E8 ; 3.5044543327003635E7 ; 1.6611875000626822E10 ; 0.0
92 ; 459456.91555089306 ; 2.004298992676089E8 ; 3.550449205379167E7 ; 1.6812303572256275E10 ; 0.0
93 ; 461118.9030001754 ; 2.004312266659018E8 ; 3.596394896934257E7 ; 1.7012733471523884E10 ; 0.0
94 ; 459268.1509929722 ; 2.004325537319698E8 ; 3.642506787234274E7 ; 1.7213164698189785E10 ; 0.0
95 ; 459801.1808572905 ; 2.0043388037613344E8 ; 3.688433602333572E7 ; 1.7413597251921753E10 ; 0.0
96 ; 460145.5641576167 ; 2.004352065112693E8 ; 3.734413720419301E7 ; 1.7614031132297886E10 ; 0.0
97 ; 460829.9333497071 ; 2.0043653205269065E8 ; 3.780428276835063E7 ; 1.7814466338809155E10 ; 0.0
98 ; 460359.1895334066 ; 2.0043785691803408E8 ; 3.826511270170034E7 ; 1.8014902870861847E10 ; 0.0
99 ; 459791.1568021055 ; 2.004391810271529E8 ; 3.872547189123374E7 ; 1.821534072777988E10 ; 0.0
100 ; 459187.09210769803 ; 2.0044050430201575E8 ; 3.9185263048035845E7 ; 1.8415779908807034E10 ; 0.0
101 ; 459845.295511459 ; 2.004418266666113E8 ; 3.964445014014354E7 ; 1.861622041310905E10 ; 0.0
102 ; 459698.9052219689 ; 2.0044314804685754E8 ; 4.0104295435655005E7 ; 1.881666223977566E10 ; 0.0
103 ; 458240.08674312796 ; 2.0044446837051612E8 ; 4.0563994340876974E7 ; 1.9017105387822517E10 ; 0.0
104 ; 458282.0300673639 ; 2.0044578756711143E8 ; 4.1022234427620105E7 ; 1.9217549856193035E10 ; 0.0
105 ; 458527.9770471342 ; 2.0044710556785354E8 ; 4.148051645768747E7 ; 1.9417995643760147E10 ; 0.0
106 ; 457890.42711673956 ; 2.0044842230556548E8 ; 4.19390444347346E7 ; 1.9618442749328E10 ; 0.0
107 ; 458167.64289548754 ; 2.004497377146142E8 ; 4.2396934861851335E7 ; 1.9818891171633564E10 ; 0.0
108 ; 458196.0207631617 ; 2.004510517308452E8 ; 4.2855102504746825E7 ; 2.001934090934818E10 ; 0.0
109 ; 457315.14929068624 ; 2.004523642915203E8 ; 4.331329852550998E7 ; 2.0219791961079025E10 ; 0.0
110 ; 457916.9172285194 ; 2.0045367533525878E8 ; 4.377061367480067E7 ; 2.0420244325370544E10 ; 0.0
111 ; 457890.31370010285 ; 2.004549848019816E8 ; 4.422853059202919E7 ; 2.0620698000705803E10 ; 0.0
112 ; 457891.35282098764 ; 2.004562926328581E8 ; 4.4686420905729294E7 ; 2.0821152985507786E10 ; 0.0
113 ; 456353.0598609737 ; 2.0045759877025574E8 ; 4.514431225855028E7 ; 2.1021609278140644E10 ; 0.0
114 ; 456733.8114505615 ; 2.0045890315769213E8 ; 4.560066531841125E7 ; 2.12220668769109E10 ; 0.0
115 ; 456025.62419947784 ; 2.0046020573978943E8 ; 4.605739912986182E7 ; 2.1422525780068592E10 ; 0.0
116 ; 456240.1688281231 ; 2.0046150646223116E8 ; 4.65134247540613E7 ; 2.162298598580838E10 ; 0.0
117 ; 455154.72066540236 ; 2.0046280527172104E8 ; 4.696966492288942E7 ; 2.182344749227061E10 ; 0.0
118 ; 454681.33600773156 ; 2.0046410211594373E8 ; 4.742481964355482E7 ; 2.202391029754233E10 ; 0.0
119 ; 454054.43419036013 ; 2.0046539694352767E8 ; 4.787950097956255E7 ; 2.2224374399658276E10 ; 0.0
120 ; 454177.7787735687 ; 2.0046668970400956E8 ; 4.833355541375291E7 ; 2.2424839796601803E10 ; 0.0
121 ; 454553.3412093207 ; 2.0046798034780055E8 ; 4.878773319252648E7 ; 2.2625306486305813E10 ; 0.0
122 ; 452940.1116506195 ; 2.0046926882615417E8 ; 4.9242286533735804E7 ; 2.2825774466653614E10 ; 0.0
123 ; 452849.547253396 ; 2.0047055509113562E8 ; 4.969522664538642E7 ; 2.3026243735479767E10 ; 0.0
124 ; 452098.07230065716 ; 2.004718390955925E8 ; 5.014807619263981E7 ; 2.3226714290570904E10 ; 0.0
125 ; 451954.6833845897 ; 2.0047312079312718E8 ; 5.060017426494047E7 ; 2.3427186129666496E10 ; 0.0
126 ; 451808.8493615832 ; 2.0047440013807E8 ; 5.105212894832506E7 ; 2.3627659250459625E10 ; 0.0
127 ; 450785.0802305259 ; 2.004756770854541E8 ; 5.1503937797686644E7 ; 2.3828133650597694E10 ; 0.0
128 ; 449632.6623838 ; 2.0047695159099135E8 ; 5.195472287791717E7 ; 2.4028609327683147E10 ; 0.0
129 ; 449796.0466107433 ; 2.0047822361104906E8 ; 5.240435554030097E7 ; 2.422908627927414E10 ; 0.0
130 ; 448925.55035858846 ; 2.004794931026281E8 ; 5.2854151586911716E7 ; 2.442956450288519E10 ; 0.0
131 ; 448529.53309401206 ; 2.0048076002334207E8 ; 5.33030771372703E7 ; 2.4630043995987816E10 ; 0.0
132 ; 446479.14850498765 ; 2.0048202433139685E8 ; 5.375160667036431E7 ; 2.4830524756011158E10 ; 0.0
133 ; 445718.90442573087 ; 2.004832859855718E8 ; 5.41980858188693E7 ; 2.5031006780342556E10 ; 0.0
134 ; 445595.56763818604 ; 2.0048454494520122E8 ; 5.464380472329503E7 ; 2.523149006632813E10 ; 0.0
135 ; 442832.13619931164 ; 2.00485801170157E8 ; 5.508940029093322E7 ; 2.543197461127333E10 ; 0.0
136 ; 441849.7555136566 ; 2.0048705462083173E8 ; 5.553223242713253E7 ; 2.563246041244349E10 ; 0.0
137 ; 441198.46280272194 ; 2.0048830525812283E8 ; 5.5974082182646185E7 ; 2.583294746706432E10 ; 0.0
138 ; 438994.46340160805 ; 2.0048955304341722E8 ; 5.641528064544891E7 ; 2.603343577232244E10 ; 0.0
139 ; 438335.5361400728 ; 2.0049079793857655E8 ; 5.685427510885052E7 ; 2.623392532536586E10 ; 0.0
140 ; 436970.7445582339 ; 2.0049203990592346E8 ; 5.7292610644990586E7 ; 2.6434416123304436E10 ; 0.0
141 ; 434558.8016203549 ; 2.004932789082279E8 ; 5.772958138954882E7 ; 2.6634908163210358E10 ; 0.0
142 ; 433641.61535476375 ; 2.0049451490869442E8 ; 5.816414019116918E7 ; 2.6835401442118584E10 ; 0.0
143 ; 431793.0781417247 ; 2.004957478709499E8 ; 5.859778180652394E7 ; 2.703589595702728E10 ; 0.0
144 ; 431648.3985163519 ; 2.004969777590317E8 ; 5.902957488466567E7 ; 2.7236391704898228E10 ; 0.0
145 ; 430906.55252209876 ; 2.0049820453737655E8 ; 5.946122328318202E7 ; 2.743688868265726E10 ; 0.0
146 ; 430396.5491607477 ; 2.004994281708095E8 ; 5.989212983570412E7 ; 2.7637386887194637E10 ; 0.0
147 ; 429568.9295744923 ; 2.0050064862453377E8 ; 6.032252638486487E7 ; 2.7837886315365448E10 ; 0.0
148 ; 428097.54987922433 ; 2.0050186586412075E8 ; 6.075209531443936E7 ; 2.8038386963989983E10 ; 0.0
149 ; 428606.93202813965 ; 2.005030798555005E8 ; 6.118019286431858E7 ; 2.8238888829854103E10 ; 0.0
150 ; 427823.91005929536 ; 2.0050429056495258E8 ; 6.160879979634672E7 ; 2.8439391909709602E10 ; 0.0
151 ; 427392.7950320198 ; 2.0050549795909747E8 ; 6.203662370640601E7 ; 2.8639896200274555E10 ; 0.0
152 ; 426394.670045518 ; 2.00506702004888E8 ; 6.246401650143803E7 ; 2.8840401698233654E10 ; 0.0
153 ; 427038.7768269489 ; 2.0050790266960135E8 ; 6.289041117148355E7 ; 2.904090840023854E10 ; 0.0
154 ; 425946.78082549496 ; 2.0050909992083135E8 ; 6.3317449948310494E7 ; 2.9241416302908142E10 ; 0.0
155 ; 426234.74777479324 ; 2.005102937264811E8 ; 6.374339672913599E7 ; 2.944192540282897E10 ; 0.0
156 ; 424057.0137066645 ; 2.005114840547558E8 ; 6.4169631476910785E7 ; 2.9642435696555454E10 ; 0.0
157 ; 424356.262475191 ; 2.00512670874156E8 ; 6.459368849061745E7 ; 2.984294718061021E10 ; 0.0
158 ; 423285.9673610454 ; 2.0051385415347093E8 ; 6.501804475309264E7 ; 3.0043459851484367E10 ; 0.0
159 ; 423114.8424044598 ; 2.0051503386177224E8 ; 6.544133072045369E7 ; 3.0243973705637836E10 ; 0.0
160 ; 422290.76199175714 ; 2.0051620996840808E8 ; 6.586444556285815E7 ; 3.0444488739499607E10 ; 0.0
161 ; 423370.45654230093 ; 2.005173824429971E8 ; 6.62867363248499E7 ; 3.0645004949468014E10 ; 0.0
162 ; 423242.8164564611 ; 2.00518551255423E8 ; 6.67101067813922E7 ; 3.084552233191101E10 ; 0.0
163 ; 421364.149750037 ; 2.005197163758292E8 ; 6.713334959784867E7 ; 3.1046040883166435E10 ; 0.0
164 ; 421665.49959888135 ; 2.0052087777461344E8 ; 6.755471374759871E7 ; 3.1246560599542263E10 ; 0.0
165 ; 419740.2983366066 ; 2.005220354224232E8 ; 6.797637924719758E7 ; 3.1447081477316875E10 ; 0.0
166 ; 419587.9927140848 ; 2.0052318929015067E8 ; 6.83961195455342E7 ; 3.16476035127393E10 ; 0.0
167 ; 419638.15963878 ; 2.0052433934892827E8 ; 6.881570753824829E7 ; 3.184812670202945E10 ; 0.0
168 ; 418080.3838997571 ; 2.0052548557012418E8 ; 6.923534569788706E7 ; 3.2048651041378376E10 ; 0.0
169 ; 416358.2934761647 ; 2.005266279253383E8 ; 6.965342608178683E7 ; 3.22491765269485E10 ; 0.0
170 ; 415856.24274813733 ; 2.0052776638639796E8 ; 7.006978437526299E7 ; 3.244970315487384E10 ; 0.0
171 ; 416649.358879281 ; 2.005289009253541E8 ; 7.048564061801113E7 ; 3.265023092126024E10 ; 0.0
172 ; 416458.7351082723 ; 2.0053003151447758E8 ; 7.090228997689041E7 ; 3.2850759822185593E10 ; 0.0
173 ; 414435.5329728173 ; 2.0053115812625545E8 ; 7.131874871199869E7 ; 3.305128985370007E10 ; 0.0
174 ; 414726.7467550586 ; 2.005322807333876E8 ; 7.17331842449715E7 ; 3.3251821011826324E10 ; 0.0
175 ; 414642.9284484739 ; 2.0053339930878314E8 ; 7.214791099172656E7 ; 3.345235329255971E10 ; 0.0
176 ; 414106.16399571364 ; 2.005345138255576E8 ; 7.256255392017503E7 ; 3.3652886691868496E10 ; 0.0
177 ; 413287.0972466461 ; 2.0053562425702947E8 ; 7.297666008417074E7 ; 3.3853421205694054E10 ; 0.0
178 ; 413097.23391541134 ; 2.0053673057671735E8 ; 7.338994718141739E7 ; 3.4053956829951084E10 ; 0.0
179 ; 412921.3324007706 ; 2.005378327583371E8 ; 7.380304441533281E7 ; 3.42544935605278E10 ; 0.0
180 ; 411671.59793146874 ; 2.0053893077579913E8 ; 7.421596574773358E7 ; 3.445503139328614E10 ; 0.0
181 ; 411274.44761535176 ; 2.005400246032055E8 ; 7.462763734566505E7 ; 3.465557032406194E10 ; 0.0
182 ; 412203.0923237315 ; 2.0054111421484768E8 ; 7.503891179328041E7 ; 3.4856110348665146E10 ; 0.0
183 ; 410849.75066467404 ; 2.005421995852039E8 ; 7.545111488560414E7 ; 3.505665146288E10 ; 0.0
184 ; 411128.3336143763 ; 2.0054328068893674E8 ; 7.586196463626882E7 ; 3.52571936624652E10 ; 0.0
185 ; 410640.3603528224 ; 2.0054435750089106E8 ; 7.62730929698832E7 ; 3.545773694315414E10 ; 0.0
186 ; 410071.67862179875 ; 2.0054542999609154E8 ; 7.668373333023603E7 ; 3.565828130065503E10 ; 0.0
187 ; 409658.25256886525 ; 2.005464981497408E8 ; 7.709380500885783E7 ; 3.585882673065112E10 ; 0.0
188 ; 409161.4677157049 ; 2.0054756193721715E8 ; 7.75034632614267E7 ; 3.6059373228800865E10 ; 0.0
189 ; 409123.1179263747 ; 2.0054862133407283E8 ; 7.791262472914241E7 ; 3.625992079073808E10 ; 0.0
190 ; 408752.7730353293 ; 2.0054967631603202E8 ; 7.832174784706879E7 ; 3.646046941207216E10 ; 0.0
191 ; 408454.2543515186 ; 2.0055072685898897E8 ; 7.873050062010412E7 ; 3.666101908838819E10 ; 0.0
192 ; 408464.87156029546 ; 2.0055177293900642E8 ; 7.913895487445563E7 ; 3.686156981524718E10 ; 0.0
193 ; 406540.05826622306 ; 2.0055281453231373E8 ; 7.954741974601592E7 ; 3.706212158818618E10 ; 0.0
194 ; 406941.29381171317 ; 2.0055385161530536E8 ; 7.995395980428214E7 ; 3.726267440271849E10 ; 0.0
195 ; 407641.16026022506 ; 2.0055488416453934E8 ; 8.036090109809385E7 ; 3.746322825433379E10 ; 0.0
196 ; 405834.4671414166 ; 2.0055591215673566E8 ; 8.076854225835408E7 ; 3.766378313849834E10 ; 0.0
197 ; 404900.5819457565 ; 2.0055693556877494E8 ; 8.11743767254955E7 ; 3.7864339050655075E10 ; 0.0
198 ; 406348.16930979607 ; 2.0055795437769696E8 ; 8.157927730744126E7 ; 3.806489598622385E10 ; 0.0
199 ; 405156.2690466508 ; 2.005589685606993E8 ; 8.198562547675106E7 ; 3.826545394060154E10 ; 0.0
200 ; 404752.13644063624 ; 2.0055997809513626E8 ; 8.239078174579771E7 ; 3.846601290916224E10 ; 0.0
201 ; 403572.79910401144 ; 2.005609829585172E8 ; 8.279553388223834E7 ; 3.866657288725738E10 ; 0.0
