CSV File for the City 4 on Day 265
1 - Minute m 
2 - Power Consumed at minute m 
3 - Power Produced at minute m 
4 - Energy Consumed since the beginning of the day 
5 - Energy Produced since the beginning of the day 
6 - Energy Lost since the beginning of the day on lines starting from the city
 
0 ; 2623453.9919597777 ; 1.0618631283323166E8 ; 0.0 ; 0.0 ; 0.0
1 ; 2628821.8500252534 ; 1.0633685789725083E8 ; 2623453.9919597777 ; 1.0618631283323166E8 ; 0.0
2 ; 2635937.692589868 ; 1.0679642975205323E8 ; 5252275.841985031 ; 2.125231707304825E8 ; 0.0
3 ; 2642266.804325678 ; 1.0756503251483965E8 ; 7888213.534574899 ; 3.193196004825357E8 ; 0.0
4 ; 2649602.6953526135 ; 1.0864266987591088E8 ; 1.0530480338900577E7 ; 4.2688463299737537E8 ; 0.0
5 ; 2659259.350354175 ; 1.1002934507803458E8 ; 1.3180083034253191E7 ; 5.3552730287328625E8 ; 0.0
6 ; 2673629.1973670037 ; 1.1172506089796427E8 ; 1.5839342384607367E7 ; 6.455566479513209E8 ; 0.0
7 ; 2693373.730467915 ; 1.1372981963035297E8 ; 1.8512971581974372E7 ; 7.572817088492851E8 ; 0.0
8 ; 2725036.8355957996 ; 1.1604362307427597E8 ; 2.1206345312442288E7 ; 8.710115284796381E8 ; 0.0
9 ; 2774682.623370624 ; 1.1866647252254885E8 ; 2.393138214803809E7 ; 9.870551515539141E8 ; 0.0
10 ; 2848008.0549036884 ; 1.2159836875398791E8 ; 2.6706064771408714E7 ; 1.105721624076463E9 ; 0.0
11 ; 2970428.9066844597 ; 1.2483931202872172E8 ; 2.9554072826312404E7 ; 1.227319992830451E9 ; 0.0
12 ; 3169650.2257286147 ; 1.2838930208662167E8 ; 3.2524501732996862E7 ; 1.3521593048591728E9 ; 0.0
13 ; 3355179.763185333 ; 1.3224833814887148E8 ; 3.5694151958725475E7 ; 1.4805486069457946E9 ; 0.0
14 ; 3379009.414486619 ; 1.3641641892265564E8 ; 3.9049331721910805E7 ; 1.612796945094666E9 ; 0.0
15 ; 3384353.6443202565 ; 1.4089354260889876E8 ; 4.242834113639742E7 ; 1.7492133640173216E9 ; 0.0
16 ; 3392055.470918645 ; 1.4567970691294792E8 ; 4.581269478071768E7 ; 1.8901069066262202E9 ; 0.0
17 ; 3399636.664493501 ; 1.5077490905804953E8 ; 4.920475025163633E7 ; 2.0357866135391681E9 ; 0.0
18 ; 3404156.3901591953 ; 1.5617914580143595E8 ; 5.260438691612983E7 ; 2.1865615225972176E9 ; 0.0
19 ; 3411440.9859026405 ; 1.6189241345280638E8 ; 5.6008543306289025E7 ; 2.3427406683986535E9 ; 0.0
20 ; 3418739.5409669187 ; 1.6791470789496002E8 ; 5.941998429219166E7 ; 2.50463308185146E9 ; 0.0
21 ; 3426219.2110190075 ; 1.742460246063179E8 ; 6.283872383315858E7 ; 2.67254778974642E9 ; 0.0
22 ; 3436157.5935600298 ; 1.808863586850558E8 ; 6.626494304417759E7 ; 2.846793814352738E9 ; 0.0
23 ; 3439833.6723877504 ; 1.8783570487456143E8 ; 6.970110063773762E7 ; 3.0276801730377936E9 ; 0.0
24 ; 3448731.3199635176 ; 1.9509405758992434E8 ; 7.314093431012537E7 ; 3.215515877912355E9 ; 0.0
25 ; 3456432.25898864 ; 2.0134945184335524E8 ; 7.658966563008888E7 ; 3.4106099355022793E9 ; 0.0
26 ; 3463279.2446756028 ; 2.013554293087806E8 ; 8.004609788907751E7 ; 3.6119593873456345E9 ; 0.0
27 ; 3469777.942739091 ; 2.0136175287463924E8 ; 8.350937713375312E7 ; 3.813314816654415E9 ; 0.0
28 ; 3478451.3367843623 ; 2.013684159184876E8 ; 8.69791550764922E7 ; 4.014676569529054E9 ; 0.0
29 ; 3485022.244759476 ; 2.013754116277822E8 ; 9.045760641327657E7 ; 4.2160449854475417E9 ; 0.0
30 ; 3489508.1146894163 ; 2.0138273302690652E8 ; 9.394262865803604E7 ; 4.417420397075324E9 ; 0.0
31 ; 3498158.4666941683 ; 2.0139037300349602E8 ; 9.743213677272545E7 ; 4.618803130102231E9 ; 0.0
32 ; 3506240.792023434 ; 2.0139832433389342E8 ; 1.0093029523941961E8 ; 4.820193503105727E9 ; 0.0
33 ; 3511680.5152908047 ; 2.0140657970759115E8 ; 1.0443653603144304E8 ; 5.021591827439621E9 ; 0.0
34 ; 3519911.2141388427 ; 2.0141513175054213E8 ; 1.0794821654673386E8 ; 5.222998407147212E9 ; 0.0
35 ; 3523493.5811948357 ; 2.0142397304724342E8 ; 1.1146812776087269E8 ; 5.424413538897754E9 ; 0.0
36 ; 3529763.5976391644 ; 2.0143309616152075E8 ; 1.1499162134206752E8 ; 5.625837511944997E9 ; 0.0
37 ; 3537742.34744483 ; 2.0144249365596262E8 ; 1.1852138493970668E8 ; 5.827270608106518E9 ; 0.0
38 ; 3538863.2757082856 ; 2.0145215810997298E8 ; 1.2205912728715152E8 ; 6.028713101762481E9 ; 0.0
39 ; 3547119.8112247204 ; 2.0146208213642898E8 ; 1.255979905628598E8 ; 6.230165259872454E9 ; 0.0
40 ; 3547901.0422142986 ; 2.0147225839694726E8 ; 1.2914511037408452E8 ; 6.4316273420088825E9 ; 0.0
41 ; 3554259.7504330697 ; 2.014826796157752E8 ; 1.3269301141629882E8 ; 6.633099600405829E9 ; 0.0
42 ; 3559773.070615938 ; 2.0149333859233698E8 ; 1.362472711667319E8 ; 6.834582280021605E9 ; 0.0
43 ; 3561463.3764411123 ; 2.0150422821247402E8 ; 1.3980704423734784E8 ; 7.036075618613941E9 ; 0.0
44 ; 3568958.031791611 ; 2.015153414584274E8 ; 1.4336850761378896E8 ; 7.237579846826415E9 ; 0.0
45 ; 3568101.32086863 ; 2.0152667141761792E8 ; 1.4693746564558056E8 ; 7.4390951882848425E9 ; 0.0
46 ; 3569662.7312747138 ; 2.0153821129028335E8 ; 1.505055669664492E8 ; 7.64062185970246E9 ; 0.0
47 ; 3573000.838663007 ; 2.015499543960369E8 ; 1.5407522969772393E8 ; 7.8421600709927435E9 ; 0.0
48 ; 3576730.616692197 ; 2.0156189417941326E8 ; 1.5764823053638694E8 ; 8.043710025388781E9 ; 0.0
49 ; 3577514.5021781367 ; 2.015740242144697E8 ; 1.6122496115307912E8 ; 8.245271919568193E9 ; 0.0
50 ; 3579319.644275472 ; 2.0158633820851037E8 ; 1.6480247565525725E8 ; 8.446845943782663E9 ; 0.0
51 ; 3580240.871611457 ; 2.0159883000500128E8 ; 1.6838179529953274E8 ; 8.648432281991173E9 ; 0.0
52 ; 3582745.468391064 ; 2.0161149358574182E8 ; 1.719620361711442E8 ; 8.850031111996174E9 ; 0.0
53 ; 3585170.646016488 ; 2.0162432307235762E8 ; 1.7554478163953525E8 ; 9.051642605581915E9 ; 0.0
54 ; 3583898.774904233 ; 2.0163731272717702E8 ; 1.7912995228555173E8 ; 9.253266928654272E9 ; 0.0
55 ; 3584491.8528976156 ; 2.016504569535498E8 ; 1.8271385106045595E8 ; 9.454904241381449E9 ; 0.0
56 ; 3586992.7573651145 ; 2.0166375029566607E8 ; 1.8629834291335356E8 ; 9.656554698335E9 ; 0.0
57 ; 3584490.2879157546 ; 2.0167718743792748E8 ; 1.8988533567071867E8 ; 9.858218448630665E9 ; 0.0
58 ; 3586922.1352906497 ; 2.0169076320392212E8 ; 1.9346982595863444E8 ; 1.0059895636068592E10 ; 0.0
59 ; 3590044.2504206025 ; 2.017044725550493E8 ; 1.970567480939251E8 ; 1.0261586399272514E10 ; 0.0
60 ; 3590615.001690626 ; 2.0171831058883864E8 ; 2.006467923443457E8 ; 1.0463290871827564E10 ; 0.0
61 ; 3589019.6152460654 ; 2.0173227253700337E8 ; 2.0423740734603631E8 ; 1.0665009182416403E10 ; 0.0
62 ; 3589505.849812506 ; 2.0174635376326564E8 ; 2.0782642696128237E8 ; 1.0866741454953405E10 ; 0.0
63 ; 3590640.4377351673 ; 2.0176054976098794E8 ; 2.1141593281109488E8 ; 1.1068487808716671E10 ; 0.0
64 ; 3591820.977808314 ; 2.0177485615064177E8 ; 2.1500657324883005E8 ; 1.127024835847766E10 ; 0.0
65 ; 3591164.9396210797 ; 2.017892686771426E8 ; 2.1859839422663838E8 ; 1.1472023214628302E10 ; 0.0
66 ; 3592527.6206391277 ; 2.018037832070764E8 ; 2.2218955916625947E8 ; 1.1673812483305445E10 ; 0.0
67 ; 3594618.4416884626 ; 2.018183957258415E8 ; 2.2578208678689858E8 ; 1.1875616266512522E10 ; 0.0
68 ; 3593549.952667194 ; 2.018331023347265E8 ; 2.2937670522858703E8 ; 1.2077434662238363E10 ; 0.0
69 ; 3594218.0010300777 ; 2.018478992479434E8 ; 2.3297025518125424E8 ; 1.227926776457309E10 ; 0.0
70 ; 3594781.3224282227 ; 2.0186278278963223E8 ; 2.3656447318228433E8 ; 1.2481115663821033E10 ; 0.0
71 ; 3593980.199255593 ; 2.0187774939085248E8 ; 2.4015925450471255E8 ; 1.2682978446610666E10 ; 0.0
72 ; 3592628.004532256 ; 2.0189279558657423E8 ; 2.4375323470396814E8 ; 1.2884856196001518E10 ; 0.0
73 ; 3592315.254147033 ; 2.019079180126805E8 ; 2.473458627085004E8 ; 1.3086748991588093E10 ; 0.0
74 ; 3593432.162084824 ; 2.019231134029912E8 ; 2.509381779626474E8 ; 1.3288656909600773E10 ; 0.0
75 ; 3594054.4179329243 ; 2.01938378586317E8 ; 2.5453161012473223E8 ; 1.3490580023003763E10 ; 0.0
76 ; 3594247.890091854 ; 2.0195371048355085E8 ; 2.5812566454266515E8 ; 1.369251840159008E10 ; 0.0
77 ; 3592613.006580485 ; 2.019691061048037E8 ; 2.6171991243275702E8 ; 1.3894472112073631E10 ; 0.0
78 ; 3590981.9372692094 ; 2.0198456254658973E8 ; 2.653125254393375E8 ; 1.4096441218178434E10 ; 0.0
79 ; 3587685.4207007573 ; 2.0200007698906544E8 ; 2.689035073766067E8 ; 1.4298425780725023E10 ; 0.0
80 ; 3585769.256390708 ; 2.0201564669332692E8 ; 2.7249119279730743E8 ; 1.4500425857714088E10 ; 0.0
81 ; 3584280.684532112 ; 2.0203126899876752E8 ; 2.760769620536981E8 ; 1.4702441504407415E10 ; 0.0
82 ; 3583218.7055986873 ; 2.0204694132049915E8 ; 2.796612427382302E8 ; 1.4904472773406183E10 ; 0.0
83 ; 3578331.3926453087 ; 2.020626611468383E8 ; 2.8324446144382894E8 ; 1.5106519714726683E10 ; 0.0
84 ; 3574961.2758760136 ; 2.0207842603685856E8 ; 2.8682279283647424E8 ; 1.5308582375873522E10 ; 0.0
85 ; 3572471.0309982044 ; 2.0209423361801022E8 ; 2.903977541123502E8 ; 1.5510660801910381E10 ; 0.0
86 ; 3567561.9606905254 ; 2.0211008158380783E8 ; 2.9397022514334846E8 ; 1.571275503552839E10 ; 0.0
87 ; 3566501.4743908597 ; 2.0212596769158515E8 ; 2.9753778710403895E8 ; 1.5914865117112198E10 ; 0.0
88 ; 3561480.066016649 ; 2.021418897603181E8 ; 3.011042885784298E8 ; 1.6116991084803783E10 ; 0.0
89 ; 3561695.5736617083 ; 2.0215784566851473E8 ; 3.046657686444465E8 ; 1.6319132974564102E10 ; 0.0
90 ; 3557038.189324688 ; 2.021738333521719E8 ; 3.082274642181082E8 ; 1.6521290820232616E10 ; 0.0
91 ; 3554844.180638632 ; 2.0218985080279747E8 ; 3.1178450240743285E8 ; 1.672346465358479E10 ; 0.0
92 ; 3550786.533865628 ; 2.022058960654975E8 ; 3.1533934658807147E8 ; 1.6925654504387587E10 ; 0.0
93 ; 3549446.230022932 ; 2.0222196723712674E8 ; 3.188901331219371E8 ; 1.7127860400453085E10 ; 0.0
94 ; 3541943.469241039 ; 2.0223806246450183E8 ; 3.2243957935196E8 ; 1.7330082367690212E10 ; 0.0
95 ; 3538393.651911653 ; 2.0225417994267514E8 ; 3.25981522821201E8 ; 1.7532320430154713E10 ; 0.0
96 ; 3537587.56974466 ; 2.022703179132684E8 ; 3.295199164731127E8 ; 1.773457461009739E10 ; 0.0
97 ; 3531738.4502629284 ; 2.0228647466286445E8 ; 3.3305750404285735E8 ; 1.793684492801066E10 ; 0.0
98 ; 3530223.543436653 ; 2.0230264852145565E8 ; 3.3658924249312025E8 ; 1.8139131402673523E10 ; 0.0
99 ; 3522766.279823648 ; 2.0231883786094713E8 ; 3.401194660365569E8 ; 1.8341434051194977E10 ; 0.0
100 ; 3520211.792620694 ; 2.0233504109371388E8 ; 3.4364223231638056E8 ; 1.8543752889055923E10 ; 0.0
101 ; 3516188.8277224572 ; 2.0235125667120942E8 ; 3.471624441090013E8 ; 1.874608793014964E10 ; 0.0
102 ; 3513831.5929085556 ; 2.0236748308262515E8 ; 3.506786329367237E8 ; 1.894843918682085E10 ; 0.0
103 ; 3508299.2776077683 ; 2.023837188535983E8 ; 3.541924645296323E8 ; 1.9150806669903477E10 ; 0.0
104 ; 3506614.3342515994 ; 2.0239996254496706E8 ; 3.5770076380724E8 ; 1.9353190388757076E10 ; 0.0
105 ; 3502698.6389100575 ; 2.0241621275157166E8 ; 3.612073781414916E8 ; 1.9555590351302044E10 ; 0.0
106 ; 3499183.707529799 ; 2.024324681010992E8 ; 3.6471007678040165E8 ; 1.9758006564053616E10 ; 0.0
107 ; 3492540.7975886706 ; 2.024487272529716E8 ; 3.6820926048793143E8 ; 1.9960439032154716E10 ; 0.0
108 ; 3490604.426935086 ; 2.024649888972744E8 ; 3.717018012855201E8 ; 2.016288775940769E10 ; 0.0
109 ; 3486182.3064545337 ; 2.024812517537255E8 ; 3.7519240571245515E8 ; 2.0365352748304962E10 ; 0.0
110 ; 3480901.837920578 ; 2.0249751457068217E8 ; 3.786785880189097E8 ; 2.056783400005869E10 ; 0.0
111 ; 3476176.230293668 ; 2.0251377612418506E8 ; 3.821594898568303E8 ; 2.077033151462937E10 ; 0.0
112 ; 3472741.844404952 ; 2.0253003521703795E8 ; 3.85635666087124E8 ; 2.0972845290753555E10 ; 0.0
113 ; 3467275.3096643947 ; 2.025462906779217E8 ; 3.891084079315289E8 ; 2.1175375325970592E10 ; 0.0
114 ; 3461822.7911725393 ; 2.0256254136054137E8 ; 3.925756832411933E8 ; 2.1377921616648514E10 ; 0.0
115 ; 3456537.3491838984 ; 2.0257878614280522E8 ; 3.9603750603236586E8 ; 2.1580484158009056E10 ; 0.0
116 ; 3454120.5234098863 ; 2.0259502392603427E8 ; 3.994940433815498E8 ; 2.1783062944151863E10 ; 0.0
117 ; 3448866.5974633805 ; 2.0261125363420153E8 ; 4.029481639049597E8 ; 2.1985657968077896E10 ; 0.0
118 ; 3440313.615706169 ; 2.026274742131996E8 ; 4.0639703050242305E8 ; 2.2188269221712097E10 ; 0.0
119 ; 3440840.998475932 ; 2.0264368463013536E8 ; 4.098373441181292E8 ; 2.2390896695925297E10 ; 0.0
120 ; 3433777.9774629907 ; 2.0265988387265155E8 ; 4.132781851166051E8 ; 2.259354038055543E10 ; 0.0
121 ; 3427338.0920367246 ; 2.026760709482729E8 ; 4.167119630940681E8 ; 2.279620026442808E10 ; 0.0
122 ; 3423217.501339979 ; 2.0269224488377717E8 ; 4.2013930118610483E8 ; 2.2998876335376354E10 ; 0.0
123 ; 3420237.0507594016 ; 2.027084047245892E8 ; 4.235625186874448E8 ; 2.320156858026013E10 ; 0.0
124 ; 3412433.394131416 ; 2.027245495341977E8 ; 4.269827557382042E8 ; 2.3404276984984722E10 ; 0.0
125 ; 3408808.3994039316 ; 2.0274067839359355E8 ; 4.303951891323356E8 ; 2.360700153451892E10 ; 0.0
126 ; 3404767.100928247 ; 2.027567904007289E8 ; 4.3380399753173953E8 ; 2.3809742212912514E10 ; 0.0
127 ; 3397721.3934336933 ; 2.0277288466999626E8 ; 4.372087646326678E8 ; 2.4012499003313244E10 ; 0.0
128 ; 3391711.588156223 ; 2.027889603317268E8 ; 4.4060648602610147E8 ; 2.421527188798324E10 ; 0.0
129 ; 3388164.3786647106 ; 2.02805016531707E8 ; 4.439981976142577E8 ; 2.4418060848314964E10 ; 0.0
130 ; 3376504.8202633373 ; 2.028210524307134E8 ; 4.473863619929224E8 ; 2.4620865864846672E10 ; 0.0
131 ; 3372883.305218611 ; 2.0283706720406392E8 ; 4.5076286681318575E8 ; 2.4823686917277386E10 ; 0.0
132 ; 3362049.5509726596 ; 2.028530600411861E8 ; 4.541357501184044E8 ; 2.502652398448145E10 ; 0.0
133 ; 3357020.7482617367 ; 2.0286903014520055E8 ; 4.57497799669377E8 ; 2.5229377044522636E10 ; 0.0
134 ; 3351188.259348393 ; 2.0288497673252013E8 ; 4.608548204176388E8 ; 2.5432246074667835E10 ; 0.0
135 ; 3341978.4737108285 ; 2.029008990324632E8 ; 4.642060086769872E8 ; 2.5635131051400356E10 ; 0.0
136 ; 3332676.4740102002 ; 2.0291679628688115E8 ; 4.67547987150698E8 ; 2.583803195043282E10 ; 0.0
137 ; 3324552.300138671 ; 2.029326677497995E8 ; 4.7088066362470824E8 ; 2.60409487467197E10 ; 0.0
138 ; 3317497.6286369767 ; 2.0294851268707144E8 ; 4.742052159248469E8 ; 2.6243881414469498E10 ; 0.0
139 ; 3307733.790226137 ; 2.0296433037604454E8 ; 4.7752271355348384E8 ; 2.644682992715657E10 ; 0.0
140 ; 3298419.2634760104 ; 2.0298012010523865E8 ; 4.8083044734371E8 ; 2.6649794257532616E10 ; 0.0
141 ; 3291683.6785806585 ; 2.0299588117403603E8 ; 4.84128866607186E8 ; 2.6852774377637856E10 ; 0.0
142 ; 3283961.5988219404 ; 2.0301161289238194E8 ; 4.8742055028576666E8 ; 2.705577025881189E10 ; 0.0
143 ; 3274869.9503954225 ; 2.0302731458049637E8 ; 4.907045118845886E8 ; 2.7258781871704273E10 ; 0.0
144 ; 3266345.7005862365 ; 2.030429855685955E8 ; 4.93979381834984E8 ; 2.746180918628477E10 ; 0.0
145 ; 3261703.653408857 ; 2.030586251966235E8 ; 4.9724572753557026E8 ; 2.7664852171853367E10 ; 0.0
146 ; 3258288.5814883607 ; 2.0307423281399348E8 ; 5.0050743118897915E8 ; 2.786791079704999E10 ; 0.0
147 ; 3248427.7054149066 ; 2.0308980777933756E8 ; 5.037657197704675E8 ; 2.8070985029863987E10 ; 0.0
148 ; 3243162.2325530304 ; 2.0310534946026582E8 ; 5.070141474758824E8 ; 2.8274074837643326E10 ; 0.0
149 ; 3238053.707499254 ; 2.0312085723313373E8 ; 5.102573097084354E8 ; 2.8477180187103592E10 ; 0.0
150 ; 3232813.299128278 ; 2.031363304828174E8 ; 5.134953634159347E8 ; 2.8680301044336727E10 ; 0.0
151 ; 3224617.3786335 ; 2.0315176860249704E8 ; 5.16728176715063E8 ; 2.8883437374819546E10 ; 0.0
152 ; 3219279.9737682175 ; 2.0316717099344745E8 ; 5.199527940936965E8 ; 2.9086589143422043E10 ; 0.0
153 ; 3215793.4736371613 ; 2.0318253706483632E8 ; 5.231720740674647E8 ; 2.928975631441549E10 ; 0.0
154 ; 3209839.582920439 ; 2.031978662335289E8 ; 5.263878675411019E8 ; 2.9492938851480324E10 ; 0.0
155 ; 3203227.9285077224 ; 2.032131579238999E8 ; 5.295977071240223E8 ; 2.9696136717713852E10 ; 0.0
156 ; 3197659.9819822754 ; 2.032284115676513E8 ; 5.3280093505253005E8 ; 2.9899349875637753E10 ; 0.0
157 ; 3192646.343039499 ; 2.0324362660363698E8 ; 5.3599859503451234E8 ; 3.0102578287205402E10 ; 0.0
158 ; 3184674.1739257905 ; 2.0325880247769275E8 ; 5.391912413775518E8 ; 3.030582191380904E10 ; 0.0
159 ; 3180296.484733823 ; 2.032739386424726E8 ; 5.423759155514776E8 ; 3.050908071628673E10 ; 0.0
160 ; 3172788.947794725 ; 2.0328903455729017E8 ; 5.455562120362114E8 ; 3.0712354654929203E10 ; 0.0
161 ; 3166475.6189780403 ; 2.0330408968796575E8 ; 5.48729000984006E8 ; 3.0915643689486492E10 ; 0.0
162 ; 3161095.581554738 ; 2.033191035066784E8 ; 5.518954766029841E8 ; 3.1118947779174458E10 ; 0.0
163 ; 3154778.0371951247 ; 2.0333407549182308E8 ; 5.550565721845388E8 ; 3.1322266882681137E10 ; 0.0
164 ; 3149870.0384437633 ; 2.0334900512787232E8 ; 5.582113502217339E8 ; 3.152560095817296E10 ; 0.0
165 ; 3144858.683056826 ; 2.0336389190524283E8 ; 5.613612202601777E8 ; 3.172894996330083E10 ; 0.0
166 ; 3137609.399996569 ; 2.0337873532016635E8 ; 5.645060789432346E8 ; 3.1932313855206074E10 ; 0.0
167 ; 3132205.318348506 ; 2.0339353487456483E8 ; 5.676436883432311E8 ; 3.213569259052624E10 ; 0.0
168 ; 3124979.795255442 ; 2.0340829007592982E8 ; 5.707758936615796E8 ; 3.2339086125400806E10 ; 0.0
169 ; 3117907.7305709915 ; 2.034230004372056E8 ; 5.73900873456835E8 ; 3.2542494415476738E10 ; 0.0
170 ; 3112404.58746703 ; 2.0343766547667646E8 ; 5.770187811874061E8 ; 3.2745917415913944E10 ; 0.0
171 ; 3106684.125330491 ; 2.0345228471785754E8 ; 5.801311857748731E8 ; 3.294935508139062E10 ; 0.0
172 ; 3102367.3513498926 ; 2.0346685768938908E8 ; 5.832378699002036E8 ; 3.315280736610848E10 ; 0.0
173 ; 3095826.4989783433 ; 2.0348138392493448E8 ; 5.863402372515535E8 ; 3.3356274223797867E10 ; 0.0
174 ; 3093201.8930537226 ; 2.034958629630813E8 ; 5.894360637505319E8 ; 3.35597556077228E10 ; 0.0
175 ; 3086781.6280016256 ; 2.035102943472458E8 ; 5.925292656435857E8 ; 3.3763251470685883E10 ; 0.0
176 ; 3081890.993215018 ; 2.0352467762558034E8 ; 5.956160472715873E8 ; 3.3966761765033127E10 ; 0.0
177 ; 3076553.5936886356 ; 2.0353901235088375E8 ; 5.986979382648022E8 ; 3.4170286442658707E10 ; 0.0
178 ; 3070952.4274181193 ; 2.035532980805149E8 ; 6.017744918584908E8 ; 3.437382545500959E10 ; 0.0
179 ; 3068756.8506350825 ; 2.0356753437630865E8 ; 6.048454442859089E8 ; 3.45773787530901E10 ; 0.0
180 ; 3060085.7322323043 ; 2.0358172080449477E8 ; 6.07914201136544E8 ; 3.4780946287466415E10 ; 0.0
181 ; 3059571.851645147 ; 2.035958569356193E8 ; 6.109742868687763E8 ; 3.498452800827091E10 ; 0.0
182 ; 3055670.7716111476 ; 2.0360994234446844E8 ; 6.140338587204214E8 ; 3.518812386520653E10 ; 0.0
183 ; 3047574.907691052 ; 2.0362397660999507E8 ; 6.170895294920325E8 ; 3.5391733807550995E10 ; 0.0
184 ; 3043472.3910950175 ; 2.0363795931524718E8 ; 6.201371043997235E8 ; 3.559535778416099E10 ; 0.0
185 ; 3040595.9071723637 ; 2.036518900472989E8 ; 6.231805767908186E8 ; 3.5798995743476234E10 ; 0.0
186 ; 3033262.709458097 ; 2.0366576839718375E8 ; 6.262211726979909E8 ; 3.600264763352354E10 ; 0.0
187 ; 3026427.165430209 ; 2.0367959395982963E8 ; 6.29254435407449E8 ; 3.620631340192072E10 ; 0.0
188 ; 3022832.128348666 ; 2.0369336633399624E8 ; 6.322808625728792E8 ; 3.6409992995880554E10 ; 0.0
189 ; 3020576.298204511 ; 2.037070851222143E8 ; 6.353036947012279E8 ; 3.6613686362214554E10 ; 0.0
190 ; 3015866.473536489 ; 2.0372074993072653E8 ; 6.383242709994324E8 ; 3.681739344733677E10 ; 0.0
191 ; 3009909.007693289 ; 2.0373436036943084E8 ; 6.413401374729689E8 ; 3.7021114197267494E10 ; 0.0
192 ; 3002953.602220351 ; 2.0374791605182493E8 ; 6.443500464806622E8 ; 3.7224848557636925E10 ; 0.0
193 ; 3001454.5738207446 ; 2.0376141659495273E8 ; 6.473530000828825E8 ; 3.742859647368875E10 ; 0.0
194 ; 2998157.0801009787 ; 2.0377486161935267E8 ; 6.503544546567032E8 ; 3.763235789028371E10 ; 0.0
195 ; 2994502.688131504 ; 2.0378825074900725E8 ; 6.533526117368042E8 ; 3.783613275190306E10 ; 0.0
196 ; 2986093.4572540415 ; 2.0380158361129442E8 ; 6.563471144249357E8 ; 3.803992100265207E10 ; 0.0
197 ; 2980584.581648487 ; 2.038148598369404E8 ; 6.593332078821898E8 ; 3.824372258626337E10 ; 0.0
198 ; 2977363.0108320527 ; 2.038280790599738E8 ; 6.623137924638382E8 ; 3.84475374461003E10 ; 0.0
199 ; 2971806.214317861 ; 2.0384124091768143E8 ; 6.652911554746703E8 ; 3.865136552516028E10 ; 0.0
200 ; 2967715.8723975252 ; 1.7859043466464445E8 ; 6.682629616889882E8 ; 3.885520676607796E10 ; 0.0
