CSV File for the City 4 on Day 236
1 - Minute m 
2 - Power Consumed at minute m 
3 - Power Produced at minute m 
4 - Energy Consumed since the beginning of the day 
5 - Energy Produced since the beginning of the day 
6 - Energy Lost since the beginning of the day on lines starting from the city
 
0 ; 796837.6658901469 ; 1.0540318306837317E8 ; 0.0 ; 0.0 ; 0.0
1 ; 803826.3622644503 ; 1.0554789719287294E8 ; 796837.6658901469 ; 1.0540318306837317E8 ; 0.0
2 ; 811287.3276233439 ; 1.0600191237313685E8 ; 1600664.0281545972 ; 2.1095108026124611E8 ; 0.0
3 ; 819563.8547960565 ; 1.0676531160383481E8 ; 2411951.355777941 ; 3.1695299263438296E8 ; 0.0
4 ; 831469.3185403057 ; 1.0783818351340568E8 ; 3231515.210573998 ; 4.237183042382178E8 ; 0.0
5 ; 843371.4097090759 ; 1.092206200370248E8 ; 4062984.5291143036 ; 5.3155648775162345E8 ; 0.0
6 ; 862004.2861215466 ; 1.1091271291557339E8 ; 4906355.93882338 ; 6.407771077886482E8 ; 0.0
7 ; 881746.4822989249 ; 1.1291454902308643E8 ; 5768360.224944926 ; 7.516898207042216E8 ; 0.0
8 ; 918043.9396347686 ; 1.1522620479551637E8 ; 6650106.70724385 ; 8.64604369727308E8 ; 0.0
9 ; 967725.1690764555 ; 1.178477403653428E8 ; 7568150.646878619 ; 9.798305745228244E8 ; 0.0
10 ; 1046391.8319471987 ; 1.2077919429191625E8 ; 8535875.815955075 ; 1.0976783148881671E9 ; 0.0
11 ; 1171325.929922358 ; 1.2402057987151566E8 ; 9582267.647902273 ; 1.2184575091800833E9 ; 0.0
12 ; 1368120.6246668845 ; 1.2757188380786207E8 ; 1.075359357782463E7 ; 1.342478089051599E9 ; 0.0
13 ; 1559386.417088777 ; 1.3143306754160494E8 ; 1.2121714202491514E7 ; 1.470049972859461E9 ; 0.0
14 ; 1585485.5366804604 ; 1.3560407094026476E8 ; 1.3681100619580291E7 ; 1.601483040401066E9 ; 0.0
15 ; 1596416.4759737628 ; 1.4008481756788898E8 ; 1.5266586156260751E7 ; 1.7370871113413308E9 ; 0.0
16 ; 1601631.891911307 ; 1.4487522055044273E8 ; 1.6863002632234514E7 ; 1.8771719289092197E9 ; 0.0
17 ; 1612333.6090860001 ; 1.499751881470447E8 ; 1.846463452414582E7 ; 2.0220471494596624E9 ; 0.0
18 ; 1621639.1742795436 ; 1.5538462842251956E8 ; 2.007696813323182E7 ; 2.172022337606707E9 ; 0.0
19 ; 1629859.2648936354 ; 1.611034527484285E8 ; 2.1698607307511363E7 ; 2.327406966029227E9 ; 0.0
20 ; 1639872.4723662857 ; 1.6713157813010153E8 ; 2.3328466572405E7 ; 2.488510418777655E9 ; 0.0
21 ; 1651133.5175819916 ; 1.734689285229201E8 ; 2.4968339044771284E7 ; 2.655641996907757E9 ; 0.0
22 ; 1660638.841126932 ; 1.801154353693443E8 ; 2.6619472562353276E7 ; 2.829110925430677E9 ; 0.0
23 ; 1673138.238931372 ; 1.870710375891741E8 ; 2.828011140348021E7 ; 3.009226360800021E9 ; 0.0
24 ; 1681522.1105013343 ; 1.9433568122112876E8 ; 2.9953249642411582E7 ; 3.1962973983891954E9 ; 0.0
25 ; 1692115.5208063493 ; 2.0059735976575056E8 ; 3.1634771752912916E7 ; 3.3906330796103244E9 ; 0.0
26 ; 1699089.6262238217 ; 2.0060957957748544E8 ; 3.3326887273719266E7 ; 3.591230439376075E9 ; 0.0
27 ; 1711132.0390552846 ; 2.0062207372583565E8 ; 3.502597689994309E7 ; 3.7918400189535604E9 ; 0.0
28 ; 1718553.2810820336 ; 2.0063481060245445E8 ; 3.673710893899838E7 ; 3.992462092679396E9 ; 0.0
29 ; 1727963.0269800397 ; 2.0064776262244484E8 ; 3.845566222008041E7 ; 4.193096903281851E9 ; 0.0
30 ; 1737324.529758835 ; 2.0066090569097942E8 ; 4.0183625247060455E7 ; 4.393744665904296E9 ; 0.0
31 ; 1746673.5249107024 ; 2.006742187312894E8 ; 4.192094977681929E7 ; 4.594405571595275E9 ; 0.0
32 ; 1755482.9937981516 ; 2.006876832721062E8 ; 4.366762330172999E7 ; 4.795079790326565E9 ; 0.0
33 ; 1764516.4749680045 ; 2.0070128309011725E8 ; 4.542310629552814E7 ; 4.995767473598671E9 ; 0.0
34 ; 1774438.541648416 ; 2.0071500390186274E8 ; 4.7187622770496145E7 ; 5.196468756688788E9 ; 0.0
35 ; 1784432.075296769 ; 2.0072883309921256E8 ; 4.896206131214456E7 ; 5.3971837605906515E9 ; 0.0
36 ; 1789675.6475843438 ; 2.0074275952275082E8 ; 5.074649338744133E7 ; 5.597912593689864E9 ; 0.0
37 ; 1796661.1237111858 ; 2.007567732678383E8 ; 5.253616903502567E7 ; 5.798655353212615E9 ; 0.0
38 ; 1806196.177686631 ; 2.0077086551867113E8 ; 5.4332830158736855E7 ; 5.9994121264804535E9 ; 0.0
39 ; 1813418.898568246 ; 2.0078502840622884E8 ; 5.613902633642349E7 ; 6.200182991999125E9 ; 0.0
40 ; 1820766.8014952766 ; 2.0079925488655627E8 ; 5.795244523499173E7 ; 6.400968020405354E9 ; 0.0
41 ; 1828650.9769844906 ; 2.0081353863633004E8 ; 5.9773212036487006E7 ; 6.60176727529191E9 ; 0.0
42 ; 1834215.7642915875 ; 2.008278739631104E8 ; 6.16018630134715E7 ; 6.80258081392824E9 ; 0.0
43 ; 1838314.306901359 ; 2.008422557280734E8 ; 6.343607877776308E7 ; 7.00340868789135E9 ; 0.0
44 ; 1848694.0589410951 ; 2.0085667927935597E8 ; 6.527439308466444E7 ; 7.204250943619423E9 ; 0.0
45 ; 1851675.3630382817 ; 2.0087114039443657E8 ; 6.712308714360553E7 ; 7.405107622898779E9 ; 0.0
46 ; 1858630.8930973932 ; 2.0088563523021856E8 ; 6.897476250664382E7 ; 7.605978763293216E9 ; 0.0
47 ; 1863620.3566584564 ; 2.0090016027969158E8 ; 7.08333933997412E7 ; 7.806864398523435E9 ; 0.0
48 ; 1868632.0271586597 ; 2.0091471233421966E8 ; 7.269701375639966E7 ; 8.007764558803126E9 ; 0.0
49 ; 1872241.7683349838 ; 2.0092928845065203E8 ; 7.456564578355832E7 ; 8.208679271137346E9 ; 0.0
50 ; 1874970.8602148916 ; 2.009438859225754E8 ; 7.643788755189331E7 ; 8.409608559587998E9 ; 0.0
51 ; 1878906.0882777 ; 2.009585022551311E8 ; 7.83128584121082E7 ; 8.610552445510574E9 ; 0.0
52 ; 1886134.2664092004 ; 2.0097313514290535E8 ; 8.01917645003859E7 ; 8.811510947765705E9 ; 0.0
53 ; 1887773.57691637 ; 2.0098778245047662E8 ; 8.20778987667951E7 ; 9.012484082908611E9 ; 0.0
54 ; 1889865.2009482381 ; 2.0100244219526348E8 ; 8.396567234371147E7 ; 9.213471865359087E9 ; 0.0
55 ; 1895463.3148654795 ; 2.010171125323695E8 ; 8.58555375446597E7 ; 9.41447430755435E9 ; 0.0
56 ; 1897821.9285598083 ; 2.01031791741165E8 ; 8.775100085952519E7 ; 9.61549142008672E9 ; 0.0
57 ; 1902889.3742174439 ; 2.0104647821338287E8 ; 8.9648822788085E7 ; 9.816523211827885E9 ; 0.0
58 ; 1904998.2821118692 ; 2.0106117044253656E8 ; 9.155171216230245E7 ; 1.0017569690041267E10 ; 0.0
59 ; 1907507.1815931457 ; 2.010758670144956E8 ; 9.345671044441432E7 ; 1.0218630860483805E10 ; 0.0
60 ; 1912352.9059968167 ; 2.0109056659907606E8 ; 9.536421762600747E7 ; 1.04197067274983E10 ; 0.0
61 ; 1915160.0451632852 ; 2.0110526794252297E8 ; 9.727657053200428E7 ; 1.0620797294097376E10 ; 0.0
62 ; 1918853.6557764804 ; 2.0111996986077815E8 ; 9.919173057716757E7 ; 1.0821902562039898E10 ; 0.0
63 ; 1920181.3807510464 ; 2.0113467123344082E8 ; 1.0111058423294406E8 ; 1.1023022531900677E10 ; 0.0
64 ; 1923424.8311809667 ; 2.011493709983403E8 ; 1.030307656136951E8 ; 1.1224157203134117E10 ; 0.0
65 ; 1928642.7281487158 ; 2.0116406814665142E8 ; 1.0495419044487606E8 ; 1.1425306574132458E10 ; 0.0
66 ; 1927664.2272330872 ; 2.011787617184902E8 ; 1.0688283317302477E8 ; 1.162647064227911E10 ; 0.0
67 ; 1934837.775365525 ; 2.011934507989374E8 ; 1.0881049740025786E8 ; 1.18276494039976E10 ; 0.0
68 ; 1938139.4369957668 ; 2.012081345144421E8 ; 1.1074533517562339E8 ; 1.2028842854796537E10 ; 0.0
69 ; 1942266.7028349806 ; 2.012228120295646E8 ; 1.1268347461261915E8 ; 1.223005098931098E10 ; 0.0
70 ; 1942243.2160472462 ; 2.0123748254402235E8 ; 1.1462574131545413E8 ; 1.2431273801340544E10 ; 0.0
71 ; 1946369.259479881 ; 2.0125214529000658E8 ; 1.1656798453150137E8 ; 1.2632511283884565E10 ; 0.0
72 ; 1948955.2951770779 ; 2.012667995297418E8 ; 1.1851435379098125E8 ; 1.2833763429174572E10 ; 0.0
73 ; 1952292.6107327393 ; 2.0128144455326313E8 ; 1.2046330908615832E8 ; 1.3035030228704313E10 ; 0.0
74 ; 1954429.5966526752 ; 2.012960796763894E8 ; 1.2241560169689105E8 ; 1.3236311673257576E10 ; 0.0
75 ; 1955819.1970912598 ; 2.013107042388724E8 ; 1.2437003129354373E8 ; 1.3437607752933966E10 ; 0.0
76 ; 1955914.6391415717 ; 2.0132531760270476E8 ; 1.26325850490635E8 ; 1.3638918457172838E10 ; 0.0
77 ; 1962364.1303435222 ; 2.013399191505713E8 ; 1.2828176512977657E8 ; 1.3840243774775543E10 ; 0.0
78 ; 1962438.801024628 ; 2.0135450828442973E8 ; 1.302441292601201E8 ; 1.4041583693926115E10 ; 0.0
79 ; 1961278.0737007814 ; 2.0136908442420864E8 ; 1.3220656806114472E8 ; 1.4242938202210545E10 ; 0.0
80 ; 1964266.3218834756 ; 2.0138364700661156E8 ; 1.3416784613484551E8 ; 1.4444307286634754E10 ; 0.0
81 ; 1960271.630254844 ; 2.0139819548401737E8 ; 1.36132112456729E8 ; 1.4645690933641365E10 ; 0.0
82 ; 1962508.2469251747 ; 2.0141272932346833E8 ; 1.3809238408698383E8 ; 1.4847089129125381E10 ; 0.0
83 ; 1963382.024861678 ; 2.014272480057374E8 ; 1.40054892333909E8 ; 1.504850185844885E10 ; 0.0
84 ; 1962671.23477996 ; 2.0144175102446833E8 ; 1.4201827435877067E8 ; 1.5249929106454588E10 ; 0.0
85 ; 1960864.8574721178 ; 2.014562378853817E8 ; 1.4398094559355062E8 ; 1.5451370857479055E10 ; 0.0
86 ; 1960657.0362195112 ; 2.0147070810554117E8 ; 1.4594181045102274E8 ; 1.5652827095364437E10 ; 0.0
87 ; 1960013.9389514755 ; 2.0148516121267486E8 ; 1.4790246748724225E8 ; 1.5854297803469978E10 ; 0.0
88 ; 1959769.8014111223 ; 2.0149959674454716E8 ; 1.498624814261937E8 ; 1.6055782964682653E10 ; 0.0
89 ; 1959054.2454982507 ; 2.0151401424837658E8 ; 1.5182225122760484E8 ; 1.62572825614272E10 ; 0.0
90 ; 1960412.9491790019 ; 2.0152841328029594E8 ; 1.5378130547310308E8 ; 1.6458796575675577E10 ; 0.0
91 ; 1959922.8613149005 ; 2.015427934048513E8 ; 1.5574171842228207E8 ; 1.6660324988955873E10 ; 0.0
92 ; 1960471.43422738 ; 2.015571541945366E8 ; 1.5770164128359696E8 ; 1.6861867782360725E10 ; 0.0
93 ; 1957475.9631270121 ; 2.0157149522936097E8 ; 1.5966211271782434E8 ; 1.7063424936555262E10 ; 0.0
94 ; 1959078.6429119501 ; 2.0158581609644613E8 ; 1.6161958868095136E8 ; 1.7264996431784622E10 ; 0.0
95 ; 1958705.4579160544 ; 2.016001163896517E8 ; 1.635786673238633E8 ; 1.746658224788107E10 ; 0.0
96 ; 1953794.1297003566 ; 2.0161439570922592E8 ; 1.6553737278177935E8 ; 1.766818236427072E10 ; 0.0
97 ; 1953861.3507612061 ; 2.0162865366148016E8 ; 1.674911669114797E8 ; 1.7869796759979946E10 ; 0.0
98 ; 1952519.7404851513 ; 2.0164288985848495E8 ; 1.6944502826224092E8 ; 1.8071425413641426E10 ; 0.0
99 ; 1954575.329663012 ; 2.016571039177866E8 ; 1.7139754800272608E8 ; 1.8273068303499912E10 ; 0.0
100 ; 1953857.6549753256 ; 2.0167129546214196E8 ; 1.733521233323891E8 ; 1.8474725407417698E10 ; 0.0
101 ; 1951756.9267267154 ; 2.016854641192707E8 ; 1.753059809873644E8 ; 1.867639670287984E10 ; 0.0
102 ; 1950389.282975235 ; 2.0169960952162373E8 ; 1.7725773791409114E8 ; 1.887808216699911E10 ; 0.0
103 ; 1949179.9981074615 ; 2.0171373130616602E8 ; 1.7920812719706637E8 ; 1.9079781776520737E10 ; 0.0
104 ; 1947107.0611617956 ; 2.0172782911417356E8 ; 1.8115730719517383E8 ; 1.9281495507826904E10 ; 0.0
105 ; 1947618.6748178445 ; 2.0174190259104294E8 ; 1.8310441425633562E8 ; 1.948322333694108E10 ; 0.0
106 ; 1944129.7930362162 ; 2.0175595138611278E8 ; 1.8505203293115345E8 ; 1.968496523953212E10 ; 0.0
107 ; 1939583.4145491756 ; 2.0176997515249622E8 ; 1.8699616272418967E8 ; 1.9886721190918232E10 ; 0.0
108 ; 1941551.540166362 ; 2.0178397354692382E8 ; 1.8893574613873884E8 ; 2.008849116607073E10 ; 0.0
109 ; 1944706.8560619438 ; 2.017979462295957E8 ; 1.908772976789052E8 ; 2.0290275139617653E10 ; 0.0
110 ; 1938991.9839365683 ; 2.0181189286404312E8 ; 1.9282200453496712E8 ; 2.0492073085847248E10 ; 0.0
111 ; 1937938.8777973917 ; 2.0182581311699778E8 ; 1.947609965189037E8 ; 2.0693884978711292E10 ; 0.0
112 ; 1937281.9234241159 ; 2.0183970665826938E8 ; 1.966989353967011E8 ; 2.089571079182829E10 ; 0.0
113 ; 1935837.1196348108 ; 2.0185357316063014E8 ; 1.9863621732012522E8 ; 2.1097550498486557E10 ; 0.0
114 ; 1936740.9262481923 ; 2.0186741229970628E8 ; 2.0057205443976003E8 ; 2.1299404071647186E10 ; 0.0
115 ; 1934166.2738224103 ; 2.0188122375387558E8 ; 2.0250879536600822E8 ; 2.150127148394689E10 ; 0.0
116 ; 1930475.4000373504 ; 2.0189500720417124E8 ; 2.0444296163983062E8 ; 2.1703152707700768E10 ; 0.0
117 ; 1927757.2179968234 ; 2.0190876233419088E8 ; 2.0637343703986797E8 ; 2.1905047714904938E10 ; 0.0
118 ; 1926670.2684732568 ; 2.0192248883001107E8 ; 2.083011942578648E8 ; 2.210695647723913E10 ; 0.0
119 ; 1924259.585025597 ; 2.0193618638010654E8 ; 2.1022786452633807E8 ; 2.2308878966069138E10 ; 0.0
120 ; 1919861.3174707931 ; 2.0194985467527404E8 ; 2.1215212411136368E8 ; 2.2510815152449245E10 ; 0.0
121 ; 1919899.1637280448 ; 2.0196349340856043E8 ; 2.1407198542883447E8 ; 2.271276500712452E10 ; 0.0
122 ; 1917107.8855729173 ; 2.019771022751948E8 ; 2.1599188459256253E8 ; 2.291472850053308E10 ; 0.0
123 ; 1913525.6459948951 ; 2.019906809725245E8 ; 2.1790899247813544E8 ; 2.3116705602808277E10 ; 0.0
124 ; 1914512.202913541 ; 2.0200422919995448E8 ; 2.1982251812413034E8 ; 2.33186962837808E10 ; 0.0
125 ; 1912418.1955068184 ; 2.0201774665889022E8 ; 2.217370303270439E8 ; 2.3520700512980755E10 ; 0.0
126 ; 1908493.1146883345 ; 2.0203123305268353E8 ; 2.236494485225507E8 ; 2.3722718259639645E10 ; 0.0
127 ; 1908180.1545728773 ; 2.0204468808658168E8 ; 2.2555794163723904E8 ; 2.392474949269233E10 ; 0.0
128 ; 1905429.43078665 ; 2.0205811146767884E8 ; 2.274661217918119E8 ; 2.412679418077891E10 ; 0.0
129 ; 1900117.4541135249 ; 2.0207150290487066E8 ; 2.2937155122259855E8 ; 2.432885229224659E10 ; 0.0
130 ; 1898760.3719649848 ; 2.0208486210881084E8 ; 2.3127166867671207E8 ; 2.453092379515146E10 ; 0.0
131 ; 1891672.5500363102 ; 2.020981887918704E8 ; 2.3317042904867706E8 ; 2.473300865726027E10 ; 0.0
132 ; 1888732.525508711 ; 2.0211148266809884E8 ; 2.3506210159871337E8 ; 2.493510684605214E10 ; 0.0
133 ; 1884421.7967993207 ; 2.0212474345318782E8 ; 2.3695083412422207E8 ; 2.5137218328720238E10 ; 0.0
134 ; 1880269.5855731007 ; 2.0213797086443618E8 ; 2.388352559210214E8 ; 2.5339343072173424E10 ; 0.0
135 ; 1875515.2574688788 ; 2.021511646207174E8 ; 2.407155255065945E8 ; 2.554148104303786E10 ; 0.0
136 ; 1866885.2272767574 ; 2.0216432444244847E8 ; 2.425910407640634E8 ; 2.5743632207658577E10 ; 0.0
137 ; 1862433.5713019862 ; 2.0217745005156046E8 ; 2.4445792599134016E8 ; 2.5945796532101025E10 ; 0.0
138 ; 1859211.5169507621 ; 2.021905411714708E8 ; 2.4632035956264216E8 ; 2.6147973982152584E10 ; 0.0
139 ; 1853698.6877385436 ; 2.022035975270569E8 ; 2.481795710795929E8 ; 2.6350164523324055E10 ; 0.0
140 ; 1848164.5877041048 ; 2.0221661884463117E8 ; 2.5003326976733145E8 ; 2.6552368120851112E10 ; 0.0
141 ; 1841604.5557664584 ; 2.0222960485191748E8 ; 2.5188143435503554E8 ; 2.6754584739695744E10 ; 0.0
142 ; 1837707.6809421007 ; 2.0224255527802876E8 ; 2.53723038910802E8 ; 2.695681434454766E10 ; 0.0
143 ; 1832662.2689551625 ; 2.0225546985344586E8 ; 2.555607465917441E8 ; 2.715905689982569E10 ; 0.0
144 ; 1826539.5006321145 ; 2.0226834830999756E8 ; 2.5739340886069927E8 ; 2.736131236967914E10 ; 0.0
145 ; 1823255.2456173613 ; 2.022811903808415E8 ; 2.5921994836133137E8 ; 2.7563580717989136E10 ; 0.0
146 ; 1818906.109529524 ; 2.0229399580044633E8 ; 2.6104320360694873E8 ; 2.7765861908369976E10 ; 0.0
147 ; 1818837.6046912991 ; 2.0230676430457473E8 ; 2.6286210971647826E8 ; 2.796815590417042E10 ; 0.0
148 ; 1814885.9025445106 ; 2.0231949563026735E8 ; 2.6468094732116956E8 ; 2.8170462668474995E10 ; 0.0
149 ; 1814082.5547425577 ; 2.023321895158275E8 ; 2.6649583322371405E8 ; 2.8372782164105263E10 ; 0.0
150 ; 1809687.069587879 ; 2.02344845700807E8 ; 2.683099157784566E8 ; 2.857511435362109E10 ; 0.0
151 ; 1808015.6250642394 ; 2.0235746392599234E8 ; 2.7011960284804446E8 ; 2.8777459199321896E10 ; 0.0
152 ; 1803084.4723152055 ; 2.0237004393339208E8 ; 2.719276184731087E8 ; 2.8979816663247887E10 ; 0.0
153 ; 1801597.7190659647 ; 2.0238258546622455E8 ; 2.737307029454239E8 ; 2.918218670718128E10 ; 0.0
154 ; 1800001.922882941 ; 2.0239508826890647E8 ; 2.7553230066448987E8 ; 2.9384569292647503E10 ; 0.0
155 ; 1795233.2602272364 ; 2.0240755208704218E8 ; 2.773323025873728E8 ; 2.958696438091641E10 ; 0.0
156 ; 1792899.1446735885 ; 2.0241997666741332E8 ; 2.7912753584760004E8 ; 2.9789371933003452E10 ; 0.0
157 ; 1793162.9722454534 ; 2.0243236175796926E8 ; 2.809204349922736E8 ; 2.9991791909670864E10 ; 0.0
158 ; 1787846.152315092 ; 2.0244470710781813E8 ; 2.827135979645191E8 ; 3.0194224271428833E10 ; 0.0
159 ; 1786583.8135756606 ; 2.024570124672181E8 ; 2.8450144411683416E8 ; 3.039666897853665E10 ; 0.0
160 ; 1782116.8264691257 ; 2.0246927758756948E8 ; 2.8628802793040985E8 ; 3.059912599100387E10 ; 0.0
161 ; 1779628.6186895736 ; 2.0248150222140706E8 ; 2.88070144756879E8 ; 3.080159526859144E10 ; 0.0
162 ; 1776576.8612882392 ; 2.024936861223931E8 ; 2.8984977337556857E8 ; 3.1004076770812847E10 ; 0.0
163 ; 1775528.964208107 ; 2.025058290453106E8 ; 2.916263502368568E8 ; 3.120657045693524E10 ; 0.0
164 ; 1770259.3063363375 ; 2.0251793074605694E8 ; 2.9340187920106494E8 ; 3.1409076285980553E10 ; 0.0
165 ; 1770045.2204443703 ; 2.025299909816383E8 ; 2.951721385074013E8 ; 3.161159421672661E10 ; 0.0
166 ; 1766062.392910471 ; 2.0254200951016384E8 ; 2.9694218372784567E8 ; 3.181412420770825E10 ; 0.0
167 ; 1763132.689976968 ; 2.025539860908408E8 ; 2.9870824612075615E8 ; 3.201666621721841E10 ; 0.0
168 ; 1758382.5065519242 ; 2.0256592048396954E8 ; 3.0047137881073314E8 ; 3.221922020330925E10 ; 0.0
169 ; 1758260.7054593882 ; 2.025778124509393E8 ; 3.0222976131728506E8 ; 3.242178612379322E10 ; 0.0
170 ; 1753979.8284798865 ; 2.0258966175422385E8 ; 3.039880220227445E8 ; 3.262436393624416E10 ; 0.0
171 ; 1749237.6062707896 ; 2.026014681573777E8 ; 3.0574200185122436E8 ; 3.2826953597998383E10 ; 0.0
172 ; 1749346.594571168 ; 2.0261323142503253E8 ; 3.0749123945749515E8 ; 3.302955506615576E10 ; 0.0
173 ; 1745843.649486574 ; 2.02624951322894E8 ; 3.092405860520663E8 ; 3.3232168297580795E10 ; 0.0
174 ; 1742107.4206377894 ; 2.026366276177386E8 ; 3.109864297015529E8 ; 3.343479324890369E10 ; 0.0
175 ; 1739468.4230789598 ; 2.0264826007741082E8 ; 3.127285371221907E8 ; 3.3637429876521427E10 ; 0.0
176 ; 1740400.6499450882 ; 2.026598484708207E8 ; 3.1446800554526967E8 ; 3.384007813659884E10 ; 0.0
177 ; 1738251.6994171909 ; 2.0267139256794155E8 ; 3.1620840619521475E8 ; 3.404273798506966E10 ; 0.0
178 ; 1734603.9971639279 ; 2.0268289213980764E8 ; 3.179466578946319E8 ; 3.42454093776376E10 ; 0.0
179 ; 1734992.0046893891 ; 2.026943469585125E8 ; 3.196812618917959E8 ; 3.4448092269777405E10 ; 0.0
180 ; 1730160.6926844248 ; 2.0270575679720718E8 ; 3.2141625389648527E8 ; 3.4650786616735916E10 ; 0.0
181 ; 1728460.3401784028 ; 2.0271712143009856E8 ; 3.231464145891697E8 ; 3.485349237353313E10 ; 0.0
182 ; 1725962.4432635142 ; 2.0272844063244826E8 ; 3.248748749293481E8 ; 3.505620949496323E10 ; 0.0
183 ; 1725313.8179894693 ; 2.027397141805713E8 ; 3.2660083737261164E8 ; 3.525893793559567E10 ; 0.0
184 ; 1722171.8159719121 ; 2.027509418518352E8 ; 3.283261511906011E8 ; 3.5461677649776245E10 ; 0.0
185 ; 1718901.6498510267 ; 2.0276212342465907E8 ; 3.30048323006573E8 ; 3.566442859162808E10 ; 0.0
186 ; 1718270.3714651607 ; 2.02773258678513E8 ; 3.3176722465642405E8 ; 3.586719071505274E10 ; 0.0
187 ; 1717806.78862813 ; 2.0278434739391738E8 ; 3.334854950278892E8 ; 3.6069963973731255E10 ; 0.0
188 ; 1716885.295922469 ; 2.0279538935244262E8 ; 3.352033018165173E8 ; 3.6272748321125175E10 ; 0.0
189 ; 1710341.0464619861 ; 2.0280638433670884E8 ; 3.3692018711243975E8 ; 3.6475543710477615E10 ; 0.0
190 ; 1711888.7673001187 ; 2.0281733213038567E8 ; 3.3863052815890175E8 ; 3.667835009481432E10 ; 0.0
191 ; 1709227.9152053471 ; 2.0282823251819223E8 ; 3.403424169262019E8 ; 3.688116742694471E10 ; 0.0
192 ; 1708486.8667785267 ; 2.0283908528589725E8 ; 3.4205164484140724E8 ; 3.70839956594629E10 ; 0.0
193 ; 1706202.1280937195 ; 2.0284989022031927E8 ; 3.437601317081858E8 ; 3.7286834744748795E10 ; 0.0
194 ; 1704845.2772288718 ; 2.0286064710932687E8 ; 3.454663338362795E8 ; 3.748968463496912E10 ; 0.0
195 ; 1702833.248175584 ; 2.028713557418391E8 ; 3.471711791135084E8 ; 3.7692545282078445E10 ; 0.0
196 ; 1699941.5855998762 ; 2.02882015907826E8 ; 3.4887401236168396E8 ; 3.789541663782028E10 ; 0.0
197 ; 1694143.7928542753 ; 2.0289262739830917E8 ; 3.5057395394728386E8 ; 3.809829865372811E10 ; 0.0
198 ; 1695087.5065904818 ; 2.0290319000536233E8 ; 3.522680977401381E8 ; 3.830119128112642E10 ; 0.0
199 ; 1693378.6259388686 ; 2.029137035221123E8 ; 3.539631852467286E8 ; 3.850409447113178E10 ; 0.0
