CSV File for the City 2 on Day 17
1 - Minute m 
2 - Power Consumed at minute m 
3 - Power Produced at minute m 
4 - Energy Consumed since the beginning of the day 
5 - Energy Produced since the beginning of the day 
6 - Energy Lost since the beginning of the day on lines starting from the city
 
0 ; 1.0285920196147716E7 ; 1.221688993950823E7 ; 0.0 ; 0.0 ; 0.0
1 ; 1.029243096071653E7 ; 1.221688993950823E7 ; 1.0285920196147716E7 ; 1.221688993950823E7 ; 0.0
2 ; 1.0305063054073896E7 ; 1.221688993950823E7 ; 2.057835115686425E7 ; 2.443377987901646E7 ; 0.0
3 ; 1.0318223194329588E7 ; 1.221688993950823E7 ; 3.0883414210938144E7 ; 3.665066981852469E7 ; 0.0
4 ; 1.0334192821169602E7 ; 1.221688993950823E7 ; 4.120163740526773E7 ; 4.886755975803292E7 ; 0.0
5 ; 1.0355924790124718E7 ; 1.221688993950823E7 ; 5.153583022643733E7 ; 6.108444969754115E7 ; 0.0
6 ; 1.0376921859806506E7 ; 1.221688993950823E7 ; 6.1891755016562045E7 ; 7.330133963704938E7 ; 0.0
7 ; 1.0412212705511319E7 ; 1.221688993950823E7 ; 7.226867687636855E7 ; 8.55182295765576E7 ; 0.0
8 ; 1.0460325060055638E7 ; 1.221688993950823E7 ; 8.268088958187987E7 ; 9.773511951606584E7 ; 0.0
9 ; 1.0536606429053344E7 ; 1.221688993950823E7 ; 9.314121464193551E7 ; 1.0995200945557407E8 ; 0.0
10 ; 1.065402617967675E7 ; 1.221688993950823E7 ; 1.0367782107098886E8 ; 1.221688993950823E8 ; 0.0
11 ; 1.0840132299320647E7 ; 1.221688993950823E7 ; 1.1433184725066562E8 ; 1.3438578933459052E8 ; 0.0
12 ; 1.1140714157237684E7 ; 1.221688993950823E7 ; 1.2517197954998627E8 ; 1.4660267927409875E8 ; 0.0
13 ; 1.1431409320438262E7 ; 1.221688993950823E7 ; 1.3631269370722395E8 ; 1.5881956921360698E8 ; 0.0
14 ; 1.1463846373611791E7 ; 1.221688993950823E7 ; 1.4774410302766222E8 ; 1.710364591531152E8 ; 0.0
15 ; 1.1481538558956109E7 ; 1.221688993950823E7 ; 1.59207949401274E8 ; 1.8325334909262344E8 ; 0.0
16 ; 1.1488366954440875E7 ; 1.221688993950823E7 ; 1.706894879602301E8 ; 1.9547023903213167E8 ; 0.0
17 ; 1.1505220259534584E7 ; 1.221688993950823E7 ; 1.8217785491467097E8 ; 2.076871289716399E8 ; 0.0
18 ; 1.1518949948598094E7 ; 1.221688993950823E7 ; 1.9368307517420557E8 ; 2.1990401891114813E8 ; 0.0
19 ; 1.1533716674029803E7 ; 1.221688993950823E7 ; 2.0520202512280366E8 ; 2.3212090885065636E8 ; 0.0
20 ; 1.154689806589692E7 ; 1.221688993950823E7 ; 2.1673574179683346E8 ; 2.443377987901646E8 ; 0.0
21 ; 1.1559076512259342E7 ; 1.221688993950823E7 ; 2.2828263986273038E8 ; 2.5655468872967282E8 ; 0.0
22 ; 1.1575396766930537E7 ; 1.221688993950823E7 ; 2.3984171637498972E8 ; 2.6877157866918105E8 ; 0.0
23 ; 1.1583070709009929E7 ; 1.221688993950823E7 ; 2.5141711314192027E8 ; 2.809884686086893E8 ; 0.0
24 ; 1.160160568750109E7 ; 1.221688993950823E7 ; 2.6300018385093018E8 ; 2.932053585481975E8 ; 0.0
25 ; 1.1611828277334634E7 ; 1.221688993950823E7 ; 2.746017895384313E8 ; 3.054222484877057E8 ; 0.0
26 ; 1.1627272227769388E7 ; 1.221688993950823E7 ; 2.862136178157659E8 ; 3.176391384272139E8 ; 0.0
27 ; 1.1637737381050078E7 ; 1.221688993950823E7 ; 2.978408900435353E8 ; 3.298560283667221E8 ; 0.0
28 ; 1.1653762657812556E7 ; 1.221688993950823E7 ; 3.0947862742458534E8 ; 3.420729183062303E8 ; 0.0
29 ; 1.1661471239214037E7 ; 1.221688993950823E7 ; 3.211323900823979E8 ; 3.542898082457385E8 ; 0.0
30 ; 1.167810063974497E7 ; 1.221688993950823E7 ; 3.3279386132161194E8 ; 3.665066981852467E8 ; 0.0
31 ; 1.1689161176228713E7 ; 1.221688993950823E7 ; 3.4447196196135694E8 ; 3.787235881247549E8 ; 0.0
32 ; 1.1701723174157402E7 ; 1.221688993950823E7 ; 3.5616112313758564E8 ; 3.909404780642631E8 ; 0.0
33 ; 1.171224486112251E7 ; 1.221688993950823E7 ; 3.67862846311743E8 ; 4.031573680037713E8 ; 0.0
34 ; 1.1720558161086172E7 ; 1.221688993950823E7 ; 3.795750911728655E8 ; 4.153742579432795E8 ; 0.0
35 ; 1.1733459350552045E7 ; 1.221688993950823E7 ; 3.912956493339517E8 ; 4.275911478827877E8 ; 0.0
36 ; 1.1746282743803458E7 ; 1.221688993950823E7 ; 4.0302910868450373E8 ; 4.398080378222959E8 ; 0.0
37 ; 1.1755363952025564E7 ; 1.221688993950823E7 ; 4.147753914283072E8 ; 4.520249277618041E8 ; 0.0
38 ; 1.1767121955862058E7 ; 1.221688993950823E7 ; 4.2653075538033277E8 ; 4.642418177013123E8 ; 0.0
39 ; 1.1774555023826761E7 ; 1.221688993950823E7 ; 4.382978773361948E8 ; 4.764587076408205E8 ; 0.0
40 ; 1.178272491338985E7 ; 1.221688993950823E7 ; 4.500724323600216E8 ; 4.886755975803287E8 ; 0.0
41 ; 1.178969444591206E7 ; 1.221688993950823E7 ; 4.6185515727341145E8 ; 5.008924875198369E8 ; 0.0
42 ; 1.1795683386984367E7 ; 1.221688993950823E7 ; 4.736448517193235E8 ; 5.131093774593451E8 ; 0.0
43 ; 1.1806927221511507E7 ; 1.221688993950823E7 ; 4.8544053510630786E8 ; 5.253262673988533E8 ; 0.0
44 ; 1.1815103894688815E7 ; 1.221688993950823E7 ; 4.9724746232781935E8 ; 5.375431573383615E8 ; 0.0
45 ; 1.1819339366983132E7 ; 1.221688993950823E7 ; 5.090625662225082E8 ; 5.497600472778697E8 ; 0.0
46 ; 1.1826920548999302E7 ; 1.221688993950823E7 ; 5.208819055894913E8 ; 5.619769372173779E8 ; 0.0
47 ; 1.1832060924698979E7 ; 1.221688993950823E7 ; 5.327088261384906E8 ; 5.741938271568861E8 ; 0.0
48 ; 1.1836737599111874E7 ; 1.221688993950823E7 ; 5.445408870631896E8 ; 5.864107170963943E8 ; 0.0
49 ; 1.1837996320549669E7 ; 1.221688993950823E7 ; 5.563776246623015E8 ; 5.986276070359025E8 ; 0.0
50 ; 1.1845415404987637E7 ; 1.221688993950823E7 ; 5.682156209828513E8 ; 6.108444969754107E8 ; 0.0
51 ; 1.1847787176209778E7 ; 1.221688993950823E7 ; 5.80061036387839E8 ; 6.230613869149189E8 ; 0.0
52 ; 1.1850236954289865E7 ; 1.221688993950823E7 ; 5.919088235640488E8 ; 6.352782768544271E8 ; 0.0
53 ; 1.1854917100553263E7 ; 1.221688993950823E7 ; 6.037590605183387E8 ; 6.474951667939353E8 ; 0.0
54 ; 1.185328451944836E7 ; 1.221688993950823E7 ; 6.15613977618892E8 ; 6.597120567334435E8 ; 0.0
55 ; 1.186106367900253E7 ; 1.221688993950823E7 ; 6.274672621383404E8 ; 6.719289466729517E8 ; 0.0
56 ; 1.1860120688924728E7 ; 1.221688993950823E7 ; 6.393283258173429E8 ; 6.841458366124599E8 ; 0.0
57 ; 1.1863592020441612E7 ; 1.221688993950823E7 ; 6.511884465062675E8 ; 6.963627265519681E8 ; 0.0
58 ; 1.18644981151816E7 ; 1.221688993950823E7 ; 6.630520385267092E8 ; 7.085796164914763E8 ; 0.0
59 ; 1.1870004897902722E7 ; 1.221688993950823E7 ; 6.749165366418908E8 ; 7.207965064309845E8 ; 0.0
60 ; 1.1874592378463272E7 ; 1.221688993950823E7 ; 6.867865415397935E8 ; 7.330133963704927E8 ; 0.0
61 ; 1.187222259658067E7 ; 1.221688993950823E7 ; 6.986611339182568E8 ; 7.452302863100009E8 ; 0.0
62 ; 1.1874391862184582E7 ; 1.221688993950823E7 ; 7.105333565148374E8 ; 7.574471762495091E8 ; 0.0
63 ; 1.1875782670684252E7 ; 1.221688993950823E7 ; 7.224077483770219E8 ; 7.696640661890173E8 ; 0.0
64 ; 1.1881212268696371E7 ; 1.221688993950823E7 ; 7.342835310477061E8 ; 7.818809561285255E8 ; 0.0
65 ; 1.1879792716780672E7 ; 1.221688993950823E7 ; 7.461647433164026E8 ; 7.940978460680337E8 ; 0.0
66 ; 1.1883167807591395E7 ; 1.221688993950823E7 ; 7.580445360331832E8 ; 8.063147360075419E8 ; 0.0
67 ; 1.188456978928948E7 ; 1.221688993950823E7 ; 7.699277038407747E8 ; 8.185316259470501E8 ; 0.0
68 ; 1.1888869256370991E7 ; 1.221688993950823E7 ; 7.818122736300641E8 ; 8.307485158865583E8 ; 0.0
69 ; 1.1886051737680467E7 ; 1.221688993950823E7 ; 7.937011428864352E8 ; 8.429654058260665E8 ; 0.0
70 ; 1.1887760932343269E7 ; 1.221688993950823E7 ; 8.055871946241156E8 ; 8.551822957655747E8 ; 0.0
71 ; 1.1889171260209247E7 ; 1.221688993950823E7 ; 8.174749555564588E8 ; 8.673991857050829E8 ; 0.0
72 ; 1.1887390001432534E7 ; 1.221688993950823E7 ; 8.29364126816668E8 ; 8.796160756445911E8 ; 0.0
73 ; 1.188944591298864E7 ; 1.221688993950823E7 ; 8.412515168181006E8 ; 8.918329655840993E8 ; 0.0
74 ; 1.189370563518233E7 ; 1.221688993950823E7 ; 8.531409627310892E8 ; 9.040498555236075E8 ; 0.0
75 ; 1.1891225925724063E7 ; 1.221688993950823E7 ; 8.650346683662716E8 ; 9.162667454631157E8 ; 0.0
76 ; 1.1892804396013709E7 ; 1.221688993950823E7 ; 8.769258942919956E8 ; 9.284836354026239E8 ; 0.0
77 ; 1.189189316628921E7 ; 1.221688993950823E7 ; 8.888186986880094E8 ; 9.407005253421321E8 ; 0.0
78 ; 1.1888877099493429E7 ; 1.221688993950823E7 ; 9.007105918542986E8 ; 9.529174152816403E8 ; 0.0
79 ; 1.1883730945977682E7 ; 1.221688993950823E7 ; 9.12599468953792E8 ; 9.651343052211485E8 ; 0.0
80 ; 1.1882349070027407E7 ; 1.221688993950823E7 ; 9.244831998997697E8 ; 9.773511951606567E8 ; 0.0
81 ; 1.1880315993055545E7 ; 1.221688993950823E7 ; 9.36365548969797E8 ; 9.895680851001649E8 ; 0.0
82 ; 1.187619161288442E7 ; 1.221688993950823E7 ; 9.482458649628526E8 ; 1.0017849750396731E9 ; 0.0
83 ; 1.1871934160777025E7 ; 1.221688993950823E7 ; 9.60122056575737E8 ; 1.0140018649791813E9 ; 0.0
84 ; 1.1867253103582725E7 ; 1.221688993950823E7 ; 9.71993990736514E8 ; 1.0262187549186895E9 ; 0.0
85 ; 1.1862206931544363E7 ; 1.221688993950823E7 ; 9.838612438400967E8 ; 1.0384356448581977E9 ; 0.0
86 ; 1.1859790814148681E7 ; 1.221688993950823E7 ; 9.95723450771641E8 ; 1.0506525347977059E9 ; 0.0
87 ; 1.1851949415113349E7 ; 1.221688993950823E7 ; 1.0075832415857897E9 ; 1.0628694247372141E9 ; 0.0
88 ; 1.1849737258836571E7 ; 1.221688993950823E7 ; 1.019435191000903E9 ; 1.0750863146767223E9 ; 0.0
89 ; 1.1846257333844947E7 ; 1.221688993950823E7 ; 1.0312849282597396E9 ; 1.0873032046162305E9 ; 0.0
90 ; 1.184086619133265E7 ; 1.221688993950823E7 ; 1.0431311855935845E9 ; 1.0995200945557387E9 ; 0.0
91 ; 1.1836705991045881E7 ; 1.221688993950823E7 ; 1.0549720517849172E9 ; 1.111736984495247E9 ; 0.0
92 ; 1.1832160915393304E7 ; 1.221688993950823E7 ; 1.0668087577759631E9 ; 1.123953874434755E9 ; 0.0
93 ; 1.182678711079605E7 ; 1.221688993950823E7 ; 1.0786409186913564E9 ; 1.1361707643742633E9 ; 0.0
94 ; 1.1822018452222163E7 ; 1.221688993950823E7 ; 1.0904677058021524E9 ; 1.1483876543137715E9 ; 0.0
95 ; 1.1814147702334851E7 ; 1.221688993950823E7 ; 1.1022897242543745E9 ; 1.1606045442532797E9 ; 0.0
96 ; 1.1808238943988716E7 ; 1.221688993950823E7 ; 1.1141038719567094E9 ; 1.172821434192788E9 ; 0.0
97 ; 1.18051751202743E7 ; 1.221688993950823E7 ; 1.1259121109006982E9 ; 1.185038324132296E9 ; 0.0
98 ; 1.1800586025941474E7 ; 1.221688993950823E7 ; 1.1377172860209725E9 ; 1.1972552140718043E9 ; 0.0
99 ; 1.1796465206613638E7 ; 1.221688993950823E7 ; 1.1495178720469139E9 ; 1.2094721040113125E9 ; 0.0
100 ; 1.1789074360097535E7 ; 1.221688993950823E7 ; 1.1613143372535274E9 ; 1.2216889939508207E9 ; 0.0
101 ; 1.1781501221211692E7 ; 1.221688993950823E7 ; 1.173103411613625E9 ; 1.233905883890329E9 ; 0.0
102 ; 1.177478906846153E7 ; 1.221688993950823E7 ; 1.1848849128348367E9 ; 1.246122773829837E9 ; 0.0
103 ; 1.1770165349015472E7 ; 1.221688993950823E7 ; 1.1966597019032981E9 ; 1.2583396637693453E9 ; 0.0
104 ; 1.1765180406508952E7 ; 1.221688993950823E7 ; 1.2084298672523136E9 ; 1.2705565537088535E9 ; 0.0
105 ; 1.1758658131093264E7 ; 1.221688993950823E7 ; 1.2201950476588225E9 ; 1.2827734436483617E9 ; 0.0
106 ; 1.1751943010265384E7 ; 1.221688993950823E7 ; 1.2319537057899158E9 ; 1.29499033358787E9 ; 0.0
107 ; 1.1743930102269737E7 ; 1.221688993950823E7 ; 1.2437056488001812E9 ; 1.307207223527378E9 ; 0.0
108 ; 1.1736466342416294E7 ; 1.221688993950823E7 ; 1.2554495789024508E9 ; 1.3194241134668863E9 ; 0.0
109 ; 1.172860245870336E7 ; 1.221688993950823E7 ; 1.267186045244867E9 ; 1.3316410034063945E9 ; 0.0
110 ; 1.1726216223231597E7 ; 1.221688993950823E7 ; 1.2789146477035704E9 ; 1.3438578933459027E9 ; 0.0
111 ; 1.1719375788604882E7 ; 1.221688993950823E7 ; 1.290640863926802E9 ; 1.356074783285411E9 ; 0.0
112 ; 1.1711389601757111E7 ; 1.221688993950823E7 ; 1.302360239715407E9 ; 1.368291673224919E9 ; 0.0
113 ; 1.1703154880502025E7 ; 1.221688993950823E7 ; 1.314071629317164E9 ; 1.3805085631644273E9 ; 0.0
114 ; 1.1696364798189953E7 ; 1.221688993950823E7 ; 1.325774784197666E9 ; 1.3927254531039355E9 ; 0.0
115 ; 1.1690728794098163E7 ; 1.221688993950823E7 ; 1.3374711489958558E9 ; 1.4049423430434437E9 ; 0.0
116 ; 1.1681960825480549E7 ; 1.221688993950823E7 ; 1.349161877789954E9 ; 1.4171592329829519E9 ; 0.0
117 ; 1.1672457789837454E7 ; 1.221688993950823E7 ; 1.3608438386154344E9 ; 1.42937612292246E9 ; 0.0
118 ; 1.16670797774425E7 ; 1.221688993950823E7 ; 1.3725162964052718E9 ; 1.4415930128619683E9 ; 0.0
119 ; 1.1656090589368414E7 ; 1.221688993950823E7 ; 1.3841833761827142E9 ; 1.4538099028014765E9 ; 0.0
120 ; 1.1648483578576991E7 ; 1.221688993950823E7 ; 1.3958394667720826E9 ; 1.4660267927409847E9 ; 0.0
121 ; 1.1639697396480324E7 ; 1.221688993950823E7 ; 1.4074879503506596E9 ; 1.4782436826804929E9 ; 0.0
122 ; 1.1634433351278229E7 ; 1.221688993950823E7 ; 1.41912764774714E9 ; 1.490460572620001E9 ; 0.0
123 ; 1.1625377453885568E7 ; 1.221688993950823E7 ; 1.4307620810984182E9 ; 1.5026774625595093E9 ; 0.0
124 ; 1.1615362749347758E7 ; 1.221688993950823E7 ; 1.4423874585523038E9 ; 1.5148943524990175E9 ; 0.0
125 ; 1.1607401142327104E7 ; 1.221688993950823E7 ; 1.4540028213016515E9 ; 1.5271112424385257E9 ; 0.0
126 ; 1.1598633529225353E7 ; 1.221688993950823E7 ; 1.4656102224439785E9 ; 1.5393281323780339E9 ; 0.0
127 ; 1.1589812515924117E7 ; 1.221688993950823E7 ; 1.477208855973204E9 ; 1.551545022317542E9 ; 0.0
128 ; 1.1577865984715108E7 ; 1.221688993950823E7 ; 1.488798668489128E9 ; 1.5637619122570503E9 ; 0.0
129 ; 1.157092514094494E7 ; 1.221688993950823E7 ; 1.5003765344738433E9 ; 1.5759788021965585E9 ; 0.0
130 ; 1.1558067063835757E7 ; 1.221688993950823E7 ; 1.5119474596147883E9 ; 1.5881956921360667E9 ; 0.0
131 ; 1.1548091613876404E7 ; 1.221688993950823E7 ; 1.5235055266786242E9 ; 1.6004125820755749E9 ; 0.0
132 ; 1.1532883968765797E7 ; 1.221688993950823E7 ; 1.5350536182925005E9 ; 1.612629472015083E9 ; 0.0
133 ; 1.1520757522251396E7 ; 1.221688993950823E7 ; 1.5465865022612662E9 ; 1.6248463619545913E9 ; 0.0
134 ; 1.1508623649021972E7 ; 1.221688993950823E7 ; 1.5581072597835176E9 ; 1.6370632518940995E9 ; 0.0
135 ; 1.1495057479289442E7 ; 1.221688993950823E7 ; 1.5696158834325395E9 ; 1.6492801418336077E9 ; 0.0
136 ; 1.1479625015182706E7 ; 1.221688993950823E7 ; 1.581110940911829E9 ; 1.6614970317731159E9 ; 0.0
137 ; 1.1466297493627517E7 ; 1.221688993950823E7 ; 1.5925905659270117E9 ; 1.673713921712624E9 ; 0.0
138 ; 1.1454056798454614E7 ; 1.221688993950823E7 ; 1.6040568634206393E9 ; 1.6859308116521323E9 ; 0.0
139 ; 1.1440231275066635E7 ; 1.221688993950823E7 ; 1.6155109202190938E9 ; 1.6981477015916405E9 ; 0.0
140 ; 1.1426864782023434E7 ; 1.221688993950823E7 ; 1.6269511514941604E9 ; 1.7103645915311487E9 ; 0.0
141 ; 1.1412126646948127E7 ; 1.221688993950823E7 ; 1.6383780162761838E9 ; 1.7225814814706569E9 ; 0.0
142 ; 1.1398444074591456E7 ; 1.221688993950823E7 ; 1.649790142923132E9 ; 1.734798371410165E9 ; 0.0
143 ; 1.1384507631615913E7 ; 1.221688993950823E7 ; 1.6611885869977233E9 ; 1.7470152613496733E9 ; 0.0
144 ; 1.1369325384924732E7 ; 1.221688993950823E7 ; 1.6725730946293392E9 ; 1.7592321512891815E9 ; 0.0
145 ; 1.1354810947526174E7 ; 1.221688993950823E7 ; 1.6839424200142639E9 ; 1.7714490412286897E9 ; 0.0
146 ; 1.1349478104816053E7 ; 1.221688993950823E7 ; 1.69529723096179E9 ; 1.7836659311681979E9 ; 0.0
147 ; 1.134095440540606E7 ; 1.221688993950823E7 ; 1.706646709066606E9 ; 1.795882821107706E9 ; 0.0
148 ; 1.133004722127001E7 ; 1.221688993950823E7 ; 1.717987663472012E9 ; 1.8080997110472143E9 ; 0.0
149 ; 1.1321953545872178E7 ; 1.221688993950823E7 ; 1.7293177106932821E9 ; 1.8203166009867225E9 ; 0.0
150 ; 1.131012525876862E7 ; 1.221688993950823E7 ; 1.7406396642391543E9 ; 1.8325334909262307E9 ; 0.0
151 ; 1.1298474694764167E7 ; 1.221688993950823E7 ; 1.751949789497923E9 ; 1.8447503808657389E9 ; 0.0
152 ; 1.1287536100396816E7 ; 1.221688993950823E7 ; 1.763248264192687E9 ; 1.856967270805247E9 ; 0.0
153 ; 1.1279592546807084E7 ; 1.221688993950823E7 ; 1.774535800293084E9 ; 1.8691841607447553E9 ; 0.0
154 ; 1.1268473947227554E7 ; 1.221688993950823E7 ; 1.785815392839891E9 ; 1.8814010506842635E9 ; 0.0
155 ; 1.1259269512139747E7 ; 1.221688993950823E7 ; 1.7970838667871184E9 ; 1.8936179406237717E9 ; 0.0
156 ; 1.1249397986159367E7 ; 1.221688993950823E7 ; 1.8083431362992582E9 ; 1.9058348305632799E9 ; 0.0
157 ; 1.1235796842524996E7 ; 1.221688993950823E7 ; 1.8195925342854176E9 ; 1.918051720502788E9 ; 0.0
158 ; 1.1224100051476557E7 ; 1.221688993950823E7 ; 1.8308283311279426E9 ; 1.9302686104422963E9 ; 0.0
159 ; 1.1215118100651205E7 ; 1.221688993950823E7 ; 1.842052431179419E9 ; 1.9424855003818045E9 ; 0.0
160 ; 1.1204359292923734E7 ; 1.221688993950823E7 ; 1.8532675492800703E9 ; 1.9547023903213127E9 ; 0.0
161 ; 1.1193128316604923E7 ; 1.221688993950823E7 ; 1.864471908572994E9 ; 1.9669192802608209E9 ; 0.0
162 ; 1.1181515779529642E7 ; 1.221688993950823E7 ; 1.8756650368895988E9 ; 1.979136170200329E9 ; 0.0
163 ; 1.1172749354683084E7 ; 1.221688993950823E7 ; 1.8868465526691284E9 ; 1.9913530601398373E9 ; 0.0
164 ; 1.1161642405173616E7 ; 1.221688993950823E7 ; 1.8980193020238116E9 ; 2.0035699500793455E9 ; 0.0
165 ; 1.1150064474200692E7 ; 1.221688993950823E7 ; 1.909180944428985E9 ; 2.0157868400188537E9 ; 0.0
166 ; 1.1141990509602519E7 ; 1.221688993950823E7 ; 1.9203310089031858E9 ; 2.0280037299583619E9 ; 0.0
167 ; 1.1127748109401267E7 ; 1.221688993950823E7 ; 1.9314729994127884E9 ; 2.04022061989787E9 ; 0.0
168 ; 1.1117962578658555E7 ; 1.221688993950823E7 ; 1.9426007475221896E9 ; 2.0524375098373783E9 ; 0.0
169 ; 1.1107799087056793E7 ; 1.221688993950823E7 ; 1.9537187101008482E9 ; 2.0646543997768865E9 ; 0.0
170 ; 1.1095409852644997E7 ; 1.221688993950823E7 ; 1.964826509187905E9 ; 2.0768712897163947E9 ; 0.0
171 ; 1.10849661968209E7 ; 1.221688993950823E7 ; 1.97592191904055E9 ; 2.0890881796559029E9 ; 0.0
172 ; 1.107441717797933E7 ; 1.221688993950823E7 ; 1.987006885237371E9 ; 2.101305069595411E9 ; 0.0
173 ; 1.1065319885854185E7 ; 1.221688993950823E7 ; 1.9980813024153502E9 ; 2.1135219595349193E9 ; 0.0
174 ; 1.1057506482685825E7 ; 1.221688993950823E7 ; 2.0091466223012044E9 ; 2.1257388494744275E9 ; 0.0
175 ; 1.1051024033790441E7 ; 1.221688993950823E7 ; 2.0202041287838902E9 ; 2.1379557394139357E9 ; 0.0
176 ; 1.104087152868059E7 ; 1.221688993950823E7 ; 2.0312551528176806E9 ; 2.150172629353444E9 ; 0.0
177 ; 1.103538044850025E7 ; 1.221688993950823E7 ; 2.0422960243463612E9 ; 2.1623895192929525E9 ; 0.0
178 ; 1.1031256595834406E7 ; 1.221688993950823E7 ; 2.0533314047948613E9 ; 2.174606409232461E9 ; 0.0
179 ; 1.1022935423212046E7 ; 1.221688993950823E7 ; 2.0643626613906958E9 ; 2.1868232991719694E9 ; 0.0
180 ; 1.1018226649969561E7 ; 1.221688993950823E7 ; 2.0753855968139079E9 ; 2.199040189111478E9 ; 0.0
181 ; 1.1010580619097263E7 ; 1.221688993950823E7 ; 2.0864038234638774E9 ; 2.2112570790509863E9 ; 0.0
182 ; 1.0999825698398165E7 ; 1.221688993950823E7 ; 2.0974144040829747E9 ; 2.2234739689904947E9 ; 0.0
183 ; 1.0993110542715792E7 ; 1.221688993950823E7 ; 2.1084142297813728E9 ; 2.235690858930003E9 ; 0.0
184 ; 1.099078883600663E7 ; 1.221688993950823E7 ; 2.1194073403240886E9 ; 2.2479077488695116E9 ; 0.0
185 ; 1.0979693969615921E7 ; 1.221688993950823E7 ; 2.1303981291600952E9 ; 2.26012463880902E9 ; 0.0
186 ; 1.0972148195272978E7 ; 1.221688993950823E7 ; 2.1413778231297112E9 ; 2.2723415287485285E9 ; 0.0
187 ; 1.096774200445903E7 ; 1.221688993950823E7 ; 2.152349971324984E9 ; 2.284558418688037E9 ; 0.0
188 ; 1.0959954181143275E7 ; 1.221688993950823E7 ; 2.163317713329443E9 ; 2.2967753086275454E9 ; 0.0
189 ; 1.0954869197112847E7 ; 1.221688993950823E7 ; 2.1742776675105863E9 ; 2.308992198567054E9 ; 0.0
190 ; 1.0947668431426065E7 ; 1.221688993950823E7 ; 2.1852325367076993E9 ; 2.321209088506562E9 ; 0.0
191 ; 1.0944324424771115E7 ; 1.221688993950823E7 ; 2.1961802051391253E9 ; 2.3334259784460707E9 ; 0.0
192 ; 1.092933898657445E7 ; 1.221688993950823E7 ; 2.2071245295638967E9 ; 2.345642868385579E9 ; 0.0
193 ; 1.0926599678675715E7 ; 1.221688993950823E7 ; 2.2180538685504713E9 ; 2.3578597583250875E9 ; 0.0
194 ; 1.0916709633796869E7 ; 1.221688993950823E7 ; 2.228980468229147E9 ; 2.370076648264596E9 ; 0.0
195 ; 1.0912664178957567E7 ; 1.221688993950823E7 ; 2.2398971778629436E9 ; 2.3822935382041044E9 ; 0.0
196 ; 1.0905838476126907E7 ; 1.221688993950823E7 ; 2.250809842041901E9 ; 2.394510428143613E9 ; 0.0
197 ; 1.089875598531166E7 ; 1.221688993950823E7 ; 2.261715680518028E9 ; 2.4067273180831213E9 ; 0.0
198 ; 1.0891113725290453E7 ; 1.221688993950823E7 ; 2.2726144365033393E9 ; 2.4189442080226297E9 ; 0.0
