CSV File for the City 4 on Day 223
1 - Minute m 
2 - Power Consumed at minute m 
3 - Power Produced at minute m 
4 - Energy Consumed since the beginning of the day 
5 - Energy Produced since the beginning of the day 
6 - Energy Lost since the beginning of the day on lines starting from the city
 
0 ; 467114.1252021336 ; 1.0542197312027779E8 ; 0.0 ; 0.0 ; 0.0
1 ; 474623.6254116756 ; 1.0556734536454868E8 ; 467114.1252021336 ; 1.0542197312027779E8 ; 0.0
2 ; 483273.43065581855 ; 1.0602202090692124E8 ; 941737.7506138092 ; 2.1098931848482648E8 ; 0.0
3 ; 492060.2087255644 ; 1.0678607013716966E8 ; 1425011.1812696278 ; 3.170113393917477E8 ; 0.0
4 ; 504217.27995631954 ; 1.0785956606796694E8 ; 1917071.3899951922 ; 4.237974095289174E8 ; 0.0
5 ; 516277.7177396858 ; 1.092425822616719E8 ; 2421288.6699515115 ; 5.316569755968843E8 ; 0.0
6 ; 532229.5056621402 ; 1.1093519007858875E8 ; 2937566.3876911975 ; 6.408995578585563E8 ; 0.0
7 ; 555813.2806252429 ; 1.129374553367796E8 ; 3469795.8933533374 ; 7.51834747937145E8 ; 0.0
8 ; 590880.954957749 ; 1.1524943461884415E8 ; 4025609.17397858 ; 8.647722032739246E8 ; 0.0
9 ; 639628.678292909 ; 1.1787117160984772E8 ; 4616490.128936329 ; 9.800216378927687E8 ; 0.0
10 ; 721757.9758233066 ; 1.2080269395325959E8 ; 5256118.807229238 ; 1.0978928095026164E9 ; 0.0
11 ; 847101.9053975221 ; 1.2404401111602059E8 ; 5977876.783052544 ; 1.2186955034558759E9 ; 0.0
12 ; 1043552.0964885683 ; 1.2759511363118985E8 ; 6824978.688450066 ; 1.3427395145718966E9 ; 0.0
13 ; 1234146.7717777328 ; 1.314559738552981E8 ; 7868530.784938634 ; 1.4703346282030864E9 ; 0.0
14 ; 1259985.0625029253 ; 1.3562654810328013E8 ; 9102677.556716368 ; 1.6017906020583844E9 ; 0.0
15 ; 1265513.805840316 ; 1.4010677979253608E8 ; 1.0362662619219292E7 ; 1.7374171501616645E9 ; 0.0
16 ; 1276570.1230342865 ; 1.4489660310500398E8 ; 1.1628176425059607E7 ; 1.8775239299542005E9 ; 0.0
17 ; 1288766.223221773 ; 1.4999594668037954E8 ; 1.2904746548093894E7 ; 2.0224205330592046E9 ; 0.0
18 ; 1299491.1258363514 ; 1.5540473695630395E8 ; 1.4193512771315668E7 ; 2.172416479739584E9 ; 0.0
19 ; 1310433.750754969 ; 1.6112290092010424E8 ; 1.549300389715202E7 ; 2.327821216695888E9 ; 0.0
20 ; 1321823.3716185333 ; 1.6715036818200615E8 ; 1.680343764790699E7 ; 2.488944117615992E9 ; 0.0
21 ; 1329246.1421046 ; 1.7348707239098653E8 ; 1.812526101952552E7 ; 2.6560944857979984E9 ; 0.0
22 ; 1336613.0769164008 ; 1.8013295208196318E8 ; 1.945450716163012E7 ; 2.829581558188985E9 ; 0.0
23 ; 1349386.9319253715 ; 1.8708795107185304E8 ; 2.079112023854652E7 ; 3.009714510270948E9 ; 0.0
24 ; 1359483.4166870795 ; 1.943520185235849E8 ; 2.214050717047189E7 ; 3.196802461342801E9 ; 0.0
25 ; 1370873.7508548424 ; 2.006131496813833E8 ; 2.349999058715897E7 ; 3.391154479866386E9 ; 0.0
26 ; 1379316.217798213 ; 2.0062485160262966E8 ; 2.4870864338013813E7 ; 3.591767629547769E9 ; 0.0
27 ; 1389563.0393528978 ; 2.006368572994254E8 ; 2.6250180555812027E7 ; 3.7923924811503987E9 ; 0.0
28 ; 1400977.3639726872 ; 2.0064913456903952E8 ; 2.7639743595164925E7 ; 3.9930293384498243E9 ; 0.0
29 ; 1409523.9236747932 ; 2.0066165486824E8 ; 2.904072095913761E7 ; 4.1936784730188637E9 ; 0.0
30 ; 1421189.401200235 ; 2.0067439291089728E8 ; 3.0450244882812403E7 ; 4.394340127887104E9 ; 0.0
31 ; 1429306.1555728728 ; 2.0068732629309112E8 ; 3.1871434284012638E7 ; 4.595014520798001E9 ; 0.0
32 ; 1440482.4713432915 ; 2.0070043515111995E8 ; 3.330074043958551E7 ; 4.795701847091092E9 ; 0.0
33 ; 1448210.5974011559 ; 2.0071370185413384E8 ; 3.47412229109288E7 ; 4.996402282242212E9 ; 0.0
34 ; 1458140.0610748155 ; 2.007271107308091E8 ; 3.618943350832996E7 ; 5.197115984096346E9 ; 0.0
35 ; 1466976.490431908 ; 2.007406478281376E8 ; 3.764757356940477E7 ; 5.397843094827155E9 ; 0.0
36 ; 1474172.0873540225 ; 2.00754300699702E8 ; 3.911455005983668E7 ; 5.5985837426552925E9 ; 0.0
37 ; 1484239.3750785247 ; 2.0076805822052315E8 ; 4.05887221471907E7 ; 5.799338043354995E9 ; 0.0
38 ; 1490565.7944693677 ; 2.0078191042554224E8 ; 4.207296152226922E7 ; 6.000106101575518E9 ; 0.0
39 ; 1498072.1529315768 ; 2.0079584836892918E8 ; 4.356352731673859E7 ; 6.20088801200106E9 ; 0.0
40 ; 1506283.4515344228 ; 2.0080986400162065E8 ; 4.506159946967017E7 ; 6.401683860369988E9 ; 0.0
41 ; 1516011.0127016848 ; 2.008239500647402E8 ; 4.656788292120459E7 ; 6.602493724371609E9 ; 0.0
42 ; 1521883.26110351 ; 2.0083809999680987E8 ; 4.808389393390627E7 ; 6.803317674436349E9 ; 0.0
43 ; 1528692.5712130365 ; 2.0085230785291323E8 ; 4.960577719500978E7 ; 7.004155774433159E9 ; 0.0
44 ; 1535621.4905479627 ; 2.00866568234202E8 ; 5.113446976622282E7 ; 7.205008082286072E9 ; 0.0
45 ; 1540856.9639697422 ; 2.008808762263491E8 ; 5.267009125677078E7 ; 7.405874650520274E9 ; 0.0
46 ; 1547412.5448862885 ; 2.0089522734573954E8 ; 5.421094822074053E7 ; 7.606755526746623E9 ; 0.0
47 ; 1550842.2085635941 ; 2.0090961749235636E8 ; 5.575836076562682E7 ; 7.807650754092362E9 ; 0.0
48 ; 1559043.9047639957 ; 2.0092404290846217E8 ; 5.7309202974190414E7 ; 8.008560371584719E9 ; 0.0
49 ; 1563411.581722532 ; 2.0093850014230388E8 ; 5.886824687895441E7 ; 8.209484414493181E9 ; 0.0
50 ; 1566688.4101400103 ; 2.0095298601617485E8 ; 6.0431658460676946E7 ; 8.410422914635485E9 ; 0.0
51 ; 1569746.1312365092 ; 2.0096749759826195E8 ; 6.199834687081695E7 ; 8.611375900651659E9 ; 0.0
52 ; 1575154.613426104 ; 2.009820321777856E8 ; 6.356809300205346E7 ; 8.812343398249922E9 ; 0.0
53 ; 1579065.777444624 ; 2.009965872430082E8 ; 6.5143247615479566E7 ; 9.013325430427708E9 ; 0.0
54 ; 1583168.899508776 ; 2.0101116046174562E8 ; 6.672231339292419E7 ; 9.214322017670715E9 ; 0.0
55 ; 1588753.4401868705 ; 2.010257496640661E8 ; 6.830548229243296E7 ; 9.415333178132462E9 ; 0.0
56 ; 1590763.202461405 ; 2.010403528269044E8 ; 6.989423573261984E7 ; 9.616358927796528E9 ; 0.0
57 ; 1594971.12756088 ; 2.010549680603548E8 ; 7.148499893508124E7 ; 9.817399280623432E9 ; 0.0
58 ; 1598840.4733250951 ; 2.0106959359543964E8 ; 7.307997006264213E7 ; 1.0018454248683786E10 ; 0.0
59 ; 1603992.1262259798 ; 2.0108422777317533E8 ; 7.467881053596722E7 ; 1.0219523842279226E10 ; 0.0
60 ; 1606342.911786546 ; 2.010988690347825E8 ; 7.62828026621932E7 ; 1.0420608070052402E10 ; 0.0
61 ; 1612426.1470306967 ; 2.0111351591290572E8 ; 7.788914557397974E7 ; 1.0621706939087185E10 ; 0.0
62 ; 1614950.6810980246 ; 2.0112816702372673E8 ; 7.950157172101043E7 ; 1.0822820455000092E10 ; 0.0
63 ; 1617816.3165412357 ; 2.0114282105986834E8 ; 8.111652240210846E7 ; 1.1023948622023819E10 ; 0.0
64 ; 1622978.5944896468 ; 2.0115747678400058E8 ; 8.27343387186497E7 ; 1.1225091443083687E10 ; 0.0
65 ; 1625664.6810202063 ; 2.0117213302307034E8 ; 8.435731731313935E7 ; 1.1426248919867687E10 ; 0.0
66 ; 1631057.1934267676 ; 2.0118678866308656E8 ; 8.598298199415955E7 ; 1.1627421052890759E10 ; 0.0
67 ; 1632913.3017395982 ; 2.0120144264440024E8 ; 8.761403918758632E7 ; 1.1828607841553844E10 ; 0.0
68 ; 1636754.5972112394 ; 2.0121609395742634E8 ; 8.924695248932593E7 ; 1.2029809284198244E10 ; 0.0
69 ; 1640201.1764648869 ; 2.012307416387613E8 ; 9.088370708653717E7 ; 1.223102537815567E10 ; 0.0
70 ; 1644346.71066577 ; 2.0124538476765418E8 ; 9.252390826300205E7 ; 1.2432256119794432E10 ; 0.0
71 ; 1647794.137107114 ; 2.0126002246279544E8 ; 9.416825497366783E7 ; 1.2633501504562086E10 ; 0.0
72 ; 1650923.0088221603 ; 2.012746538793909E8 ; 9.581604911077495E7 ; 1.2834761527024881E10 ; 0.0
73 ; 1653821.6513680457 ; 2.012892782064922E8 ; 9.74669721195971E7 ; 1.3036036180904272E10 ; 0.0
74 ; 1656057.8624699684 ; 2.013038946645582E8 ; 9.912079377096516E7 ; 1.3237325459110764E10 ; 0.0
75 ; 1660326.801908721 ; 2.0131850250322488E8 ; 1.0077685163343513E8 ; 1.3438629353775322E10 ; 0.0
76 ; 1662415.2401063319 ; 2.0133310099926317E8 ; 1.0243717843534385E8 ; 1.3639947856278547E10 ; 0.0
77 ; 1666600.4875718532 ; 2.013476894547073E8 ; 1.0409959367545018E8 ; 1.3841280957277811E10 ; 0.0
78 ; 1666624.2042218796 ; 2.013622671951369E8 ; 1.0576619416302203E8 ; 1.404262864673252E10 ; 0.0
79 ; 1665828.9762196452 ; 2.013768335680989E8 ; 1.074328183672439E8 ; 1.4243990913927656E10 ; 0.0
80 ; 1666370.5094881274 ; 2.0139138794165638E8 ; 1.0909864734346354E8 ; 1.4445367747495754E10 ; 0.0
81 ; 1667992.9485469814 ; 2.014059297030522E8 ; 1.1076501785295166E8 ; 1.464675913543741E10 ; 0.0
82 ; 1669361.0755715386 ; 2.014204582574779E8 ; 1.1243301080149864E8 ; 1.4848165065140463E10 ; 0.0
83 ; 1669541.2242993875 ; 2.0143497302693796E8 ; 1.1410237187707017E8 ; 1.5049585523397942E10 ; 0.0
84 ; 1665961.6085728335 ; 2.014494734492008E8 ; 1.1577191310136956E8 ; 1.525102049642488E10 ; 0.0
85 ; 1669885.8828231299 ; 2.0146395897682986E8 ; 1.174378747099424E8 ; 1.545246996987408E10 ; 0.0
86 ; 1668736.603217951 ; 2.0147842907628667E8 ; 1.1910776059276552E8 ; 1.565393392885091E10 ; 0.0
87 ; 1667989.4549626429 ; 2.014928832271009E8 ; 1.2077649719598347E8 ; 1.5855412357927197E10 ; 0.0
88 ; 1671138.2354405245 ; 2.015073209211009E8 ; 1.2244448665094611E8 ; 1.6056905241154297E10 ; 0.0
89 ; 1671445.8188144576 ; 2.0152174166170028E8 ; 1.2411562488638663E8 ; 1.6258412562075397E10 ; 0.0
90 ; 1670404.8505824788 ; 2.0153614496323547E8 ; 1.2578707070520109E8 ; 1.6459934303737099E10 ; 0.0
91 ; 1671264.1519407965 ; 2.0155053035035038E8 ; 1.2745747555578357E8 ; 1.6661470448700335E10 ; 0.0
92 ; 1668973.1979531564 ; 2.015648973574244E8 ; 1.2912873970772436E8 ; 1.6863020979050686E10 ; 0.0
93 ; 1671828.0837727047 ; 2.0157924552804E8 ; 1.3079771290567751E8 ; 1.706458587640811E10 ; 0.0
94 ; 1670397.0851605868 ; 2.015935744144869E8 ; 1.3246954098945022E8 ; 1.726616512193615E10 ; 0.0
95 ; 1671827.227716963 ; 2.0160788357730046E8 ; 1.341399380746108E8 ; 1.7467758696350636E10 ; 0.0
96 ; 1670281.5933496188 ; 2.0162217258483058E8 ; 1.3581176530232775E8 ; 1.7669366579927937E10 ; 0.0
97 ; 1670880.7758423304 ; 2.0163644101284E8 ; 1.3748204689567736E8 ; 1.7870988752512768E10 ; 0.0
98 ; 1668585.776051517 ; 2.016506884441287E8 ; 1.391529276715197E8 ; 1.8072625193525608E10 ; 0.0
99 ; 1671151.8555398635 ; 2.0166491446818328E8 ; 1.4082151344757122E8 ; 1.8274275881969738E10 ; 0.0
100 ; 1670609.0559472707 ; 2.0167911868084896E8 ; 1.4249266530311108E8 ; 1.847594079643792E10 ; 0.0
101 ; 1669441.2377366724 ; 2.0169330068402258E8 ; 1.4416327435905835E8 ; 1.8677619915118767E10 ; 0.0
102 ; 1669449.520617943 ; 2.0170746008536536E8 ; 1.4583271559679502E8 ; 1.8879313215802788E10 ; 0.0
103 ; 1667996.672921586 ; 2.0172159649803376E8 ; 1.4750216511741295E8 ; 1.9081020675888153E10 ; 0.0
104 ; 1666395.4985595574 ; 2.0173570954042718E8 ; 1.4917016179033455E8 ; 1.928274227238619E10 ; 0.0
105 ; 1666261.1085740526 ; 2.0174979883595124E8 ; 1.5083655728889412E8 ; 1.9484477981926617E10 ; 0.0
106 ; 1666415.5759954923 ; 2.0176386401279587E8 ; 1.5250281839746818E8 ; 1.968622778076257E10 ; 0.0
107 ; 1665024.239939361 ; 2.0177790470372674E8 ; 1.5416923397346368E8 ; 1.9887991644775364E10 ; 0.0
108 ; 1664739.9616200475 ; 2.017919205458894E8 ; 1.5583425821340305E8 ; 2.008976954947909E10 ; 0.0
109 ; 1662247.4352666447 ; 2.0180591118062532E8 ; 1.5749899817502308E8 ; 2.0291561470024982E10 ; 0.0
110 ; 1663574.1778460362 ; 2.0181987625329855E8 ; 1.5916124561028972E8 ; 2.049336738120561E10 ; 0.0
111 ; 1659943.691462168 ; 2.0183381541313308E8 ; 1.6082481978813577E8 ; 2.0695187257458908E10 ; 0.0
112 ; 1660296.55592392 ; 2.0184772831305948E8 ; 1.6248476347959793E8 ; 2.089702107287204E10 ; 0.0
113 ; 1658603.6167067839 ; 2.0186161460957047E8 ; 1.6414506003552184E8 ; 2.10988688011851E10 ; 0.0
114 ; 1657414.9055562261 ; 2.0187547396258494E8 ; 1.6580366365222862E8 ; 2.130073041579467E10 ; 0.0
115 ; 1656275.5403091854 ; 2.0188930603531986E8 ; 1.6746107855778486E8 ; 2.1502605889757256E10 ; 0.0
116 ; 1655490.5473758928 ; 2.0190311049416932E8 ; 1.6911735409809405E8 ; 2.1704495195792576E10 ; 0.0
117 ; 1656688.3063512992 ; 2.0191688700859046E8 ; 1.7077284464546993E8 ; 2.1906398306286747E10 ; 0.0
118 ; 1654448.0121461304 ; 2.0193063525099605E8 ; 1.7242953295182124E8 ; 2.2108315193295338E10 ; 0.0
119 ; 1652535.1242948333 ; 2.0194435489665267E8 ; 1.7408398096396738E8 ; 2.2310245828546333E10 ; 0.0
120 ; 1651475.5314491075 ; 2.0195804562358508E8 ; 1.7573651608826223E8 ; 2.2512190183442986E10 ; 0.0
121 ; 1650595.6025794188 ; 2.0197170711248526E8 ; 1.7738799161971134E8 ; 2.271414822906657E10 ; 0.0
122 ; 1648645.3922197751 ; 2.0198533904662707E8 ; 1.7903858722229075E8 ; 2.2916119936179054E10 ; 0.0
123 ; 1648042.23170099 ; 2.019989411117851E8 ; 1.8068723261451054E8 ; 2.311810527522568E10 ; 0.0
124 ; 1644688.1507877978 ; 2.0201251299615824E8 ; 1.8233527484621152E8 ; 2.3320104216337467E10 ; 0.0
125 ; 1643978.0363824368 ; 2.020260543902971E8 ; 1.8397996299699932E8 ; 2.3522116729333626E10 ; 0.0
126 ; 1639658.5913401227 ; 2.0203956498703566E8 ; 1.8562394103338176E8 ; 2.3724142783723923E10 ; 0.0
127 ; 1640118.944660065 ; 2.020530444814262E8 ; 1.8726359962472188E8 ; 2.3926182348710957E10 ; 0.0
128 ; 1638586.806460292 ; 2.0206649257067817E8 ; 1.8890371856938195E8 ; 2.4128235393192383E10 ; 0.0
129 ; 1636470.1185144659 ; 2.020799089540998E8 ; 1.9054230537584224E8 ; 2.433030188576306E10 ; 0.0
130 ; 1632491.746071918 ; 2.0209329333304313E8 ; 1.9217877549435672E8 ; 2.4532381794717163E10 ; 0.0
131 ; 1629374.0365216057 ; 2.0210664541085187E8 ; 1.9381126724042863E8 ; 2.4734475088050205E10 ; 0.0
132 ; 1625560.1083698794 ; 2.021199648928119E8 ; 1.9544064127695024E8 ; 2.4936581733461056E10 ; 0.0
133 ; 1621591.5559731019 ; 2.0213325148610434E8 ; 1.9706620138532013E8 ; 2.5138701698353867E10 ; 0.0
134 ; 1616604.5901982046 ; 2.0214650489976132E8 ; 1.9868779294129324E8 ; 2.534083494983997E10 ; 0.0
135 ; 1612279.6479543461 ; 2.0215972484462368E8 ; 2.0030439753149146E8 ; 2.554298145473973E10 ; 0.0
136 ; 1607529.242748885 ; 2.0217291103330114E8 ; 2.019166771794458E8 ; 2.5745141179584354E10 ; 0.0
137 ; 1602699.3335126583 ; 2.0218606318013433E8 ; 2.035242064221947E8 ; 2.5947314090617657E10 ; 0.0
138 ; 1597952.676518989 ; 2.0219918100115895E8 ; 2.0512690575570735E8 ; 2.614950015379779E10 ; 0.0
139 ; 1593982.4287705258 ; 2.0221226421407163E8 ; 2.0672485843222633E8 ; 2.635169933479895E10 ; 0.0
140 ; 1587685.4954878339 ; 2.0222531253819764E8 ; 2.0831884086099684E8 ; 2.6553911599013023E10 ; 0.0
141 ; 1584941.7419981307 ; 2.022383256944601E8 ; 2.0990652635648468E8 ; 2.675613691155122E10 ; 0.0
142 ; 1579342.0530936788 ; 2.0225130340535107E8 ; 2.1149146809848282E8 ; 2.695837523724568E10 ; 0.0
143 ; 1574617.2294057002 ; 2.0226424539490375E8 ; 2.130708101515765E8 ; 2.716062654065103E10 ; 0.0
144 ; 1567864.3433457788 ; 2.0227715138866627E8 ; 2.146454273809822E8 ; 2.7362890786045937E10 ; 0.0
145 ; 1568543.3600317086 ; 2.0229002111367694E8 ; 2.1621329172432798E8 ; 2.7565167937434605E10 ; 0.0
146 ; 1564919.3788269716 ; 2.0230285429844052E8 ; 2.1778183508435968E8 ; 2.7767457958548283E10 ; 0.0
147 ; 1565003.2855884982 ; 2.023156506729059E8 ; 2.1934675446318665E8 ; 2.796976081284672E10 ; 0.0
148 ; 1562257.9502632008 ; 2.0232840996844476E8 ; 2.2091175774877515E8 ; 2.8172076463519627E10 ; 0.0
149 ; 1558933.1059561959 ; 2.0234113191783154E8 ; 2.2247401569903836E8 ; 2.837440487348807E10 ; 0.0
150 ; 1560799.7880479551 ; 2.0235381625522417E8 ; 2.2403294880499455E8 ; 2.8576746005405903E10 ; 0.0
151 ; 1553872.2256457382 ; 2.0236646271614587E8 ; 2.2559374859304252E8 ; 2.8779099821661125E10 ; 0.0
152 ; 1554558.6783963984 ; 2.023790710374682E8 ; 2.2714762081868827E8 ; 2.898146628437727E10 ; 0.0
153 ; 1553098.2560775299 ; 2.0239164095739442E8 ; 2.2870217949708468E8 ; 2.9183845355414738E10 ; 0.0
154 ; 1549476.0256357922 ; 2.0240417221544415E8 ; 2.302552777531622E8 ; 2.938623699637213E10 ; 0.0
155 ; 1546894.7432927354 ; 2.0241666455243868E8 ; 2.3180475377879798E8 ; 2.9588641168587574E10 ; 0.0
156 ; 1545822.4196782352 ; 2.024291177104871E8 ; 2.3335164852209073E8 ; 2.979105783314001E10 ; 0.0
157 ; 1545470.7879565493 ; 2.0244153143297294E8 ; 2.3489747094176897E8 ; 2.99934869508505E10 ; 0.0
158 ; 1542094.3503884212 ; 2.0245390546454185E8 ; 2.364429417297255E8 ; 3.019592848228347E10 ; 0.0
159 ; 1537971.0927281966 ; 2.0246623955108976E8 ; 2.3798503608011392E8 ; 3.0398382387748013E10 ; 0.0
160 ; 1539931.3212167735 ; 2.0247853343975154E8 ; 2.3952300717284212E8 ; 3.0600848627299103E10 ; 0.0
161 ; 1535396.2742727802 ; 2.024907868788905E8 ; 2.4106293849405888E8 ; 3.0803327160738853E10 ; 0.0
162 ; 1532182.4527210044 ; 2.025029996180884E8 ; 2.4259833476833165E8 ; 3.1005817947617744E10 ; 0.0
163 ; 1530825.038629518 ; 2.0251517140813583E8 ; 2.4413051722105265E8 ; 3.1208320947235832E10 ; 0.0
164 ; 1530902.3618848622 ; 2.0252730200102338E8 ; 2.4566134225968218E8 ; 3.1410836118643967E10 ; 0.0
165 ; 1525716.3099578626 ; 2.0253939114993316E8 ; 2.4719224462156704E8 ; 3.161336342064499E10 ; 0.0
166 ; 1524827.076334034 ; 2.025514386092307E8 ; 2.487179609315249E8 ; 3.181590281179492E10 ; 0.0
167 ; 1522697.796564576 ; 2.0256344413445753E8 ; 2.5024278800785893E8 ; 3.2018454250404152E10 ; 0.0
168 ; 1520411.9848707286 ; 2.0257540748232403E8 ; 2.517654858044235E8 ; 3.222101769453861E10 ; 0.0
169 ; 1518299.3663832154 ; 2.0258732841070282E8 ; 2.5328589778929424E8 ; 3.242359310202093E10 ; 0.0
170 ; 1515011.0689736793 ; 2.0259920667862225E8 ; 2.5480419715567747E8 ; 3.2626180430431633E10 ; 0.0
171 ; 1514788.7725018405 ; 2.026110420462607E8 ; 2.5631920822465116E8 ; 3.2828779637110256E10 ; 0.0
172 ; 1510054.467224388 ; 2.02622834274941E8 ; 2.5783399699715298E8 ; 3.3031390679156517E10 ; 0.0
173 ; 1512350.945164167 ; 2.02634583127125E8 ; 2.5934405146437737E8 ; 3.3234013513431458E10 ; 0.0
174 ; 1508319.4989852025 ; 2.0264628836640894E8 ; 2.6085640240954155E8 ; 3.3436648096558582E10 ; 0.0
175 ; 1504472.747736787 ; 2.0265794975751877E8 ; 2.6236472190852675E8 ; 3.363929438492499E10 ; 0.0
176 ; 1504782.3382892844 ; 2.0266956706630585E8 ; 2.6386919465626353E8 ; 3.384195233468251E10 ; 0.0
177 ; 1503262.7958454893 ; 2.02681140059743E8 ; 2.6537397699455282E8 ; 3.4044621901748817E10 ; 0.0
178 ; 1502207.7471240875 ; 2.026926685059207E8 ; 2.668772397903983E8 ; 3.424730304180856E10 ; 0.0
179 ; 1499718.9005851422 ; 2.0270415217404392E8 ; 2.6837944753752238E8 ; 3.444999571031448E10 ; 0.0
180 ; 1499865.5775886883 ; 2.0271559083442852E8 ; 2.698791664381075E8 ; 3.4652699862488525E10 ; 0.0
181 ; 1498260.0996257486 ; 2.0272698425849858E8 ; 2.7137903201569617E8 ; 3.485541545332295E10 ; 0.0
182 ; 1495661.924806828 ; 2.027383322187836E8 ; 2.7287729211532193E8 ; 3.505814243758145E10 ; 0.0
183 ; 1493880.7006427771 ; 2.0274963448891592E8 ; 2.7437295404012877E8 ; 3.526088076980023E10 ; 0.0
184 ; 1493368.6675013185 ; 2.027608908436286E8 ; 2.7586683474077153E8 ; 3.546363040428915E10 ; 0.0
185 ; 1491524.3273911392 ; 2.0277210105875307E8 ; 2.7736020340827286E8 ; 3.5666391295132774E10 ; 0.0
186 ; 1489672.2180889307 ; 2.027832649112175E8 ; 2.78851727735664E8 ; 3.586916339619153E10 ; 0.0
187 ; 1489387.6527371483 ; 2.0279438217904484E8 ; 2.8034139995375293E8 ; 3.6071946661102745E10 ; 0.0
188 ; 1488390.4920389233 ; 2.0280545264135146E8 ; 2.818307876064901E8 ; 3.627474104328179E10 ; 0.0
189 ; 1486548.065878466 ; 2.0281647607834566E8 ; 2.83319178098529E8 ; 3.647754649592314E10 ; 0.0
190 ; 1486645.1410334592 ; 2.0282745227132654E8 ; 2.8480572616440743E8 ; 3.668036297200149E10 ; 0.0
191 ; 1482561.517286017 ; 2.028383810026829E8 ; 2.862923713054409E8 ; 3.688319042427281E10 ; 0.0
192 ; 1483288.0811204026 ; 2.0284926205589232E8 ; 2.877749328227269E8 ; 3.70860288052755E10 ; 0.0
193 ; 1482371.1919455659 ; 2.0286009521552047E8 ; 2.8925822090384734E8 ; 3.728887806733139E10 ; 0.0
194 ; 1479489.0648616564 ; 2.028708802672204E8 ; 2.907405920957929E8 ; 3.749173816254691E10 ; 0.0
195 ; 1477617.2635062842 ; 2.0288161699773207E8 ; 2.9222008116065454E8 ; 3.769460904281413E10 ; 0.0
196 ; 1476290.2217819563 ; 2.02892305194882E8 ; 2.9369769842416084E8 ; 3.789749065981187E10 ; 0.0
197 ; 1473284.8868741994 ; 2.0290294464758298E8 ; 2.951739886459428E8 ; 3.810038296500675E10 ; 0.0
198 ; 1472778.8274867183 ; 2.0291353514583394E8 ; 2.96647273532817E8 ; 3.8303285909654335E10 ; 0.0
199 ; 1470519.458971582 ; 2.0292407648071992E8 ; 2.981200523603037E8 ; 3.850619944480017E10 ; 0.0
