CSV File for the City 6 on Day 197
1 - Minute m 
2 - Power Consumed at minute m 
3 - Power Produced at minute m 
4 - Energy Consumed since the beginning of the day 
5 - Energy Produced since the beginning of the day 
6 - Energy Lost since the beginning of the day on lines starting from the city
 
0 ; 1176255.4070950765 ; 1.057985953457425E8 ; 0.0 ; 0.0 ; 0.0
1 ; 1188879.6908130876 ; 1.0594905393548161E8 ; 1176255.4070950765 ; 1.057985953457425E8 ; 0.0
2 ; 1202600.1411656055 ; 1.0640854019775876E8 ; 2365135.0979081644 ; 2.117476492812241E8 ; 0.0
3 ; 1213064.3868369444 ; 1.071770608171969E8 ; 3567735.23907377 ; 3.1815618947898287E8 ; 0.0
4 ; 1230747.0506335138 ; 1.0825462184737164E8 ; 4780799.625910714 ; 4.253332502961798E8 ; 0.0
5 ; 1251941.069341446 ; 1.0964122865668374E8 ; 6011546.676544229 ; 5.335878721435514E8 ; 0.0
6 ; 1280099.620924317 ; 1.1133688587879863E8 ; 7263487.745885675 ; 6.432291008002352E8 ; 0.0
7 ; 1322721.1959429835 ; 1.1334159736868256E8 ; 8543587.366809992 ; 7.545659866790338E8 ; 0.0
8 ; 1374270.1355951463 ; 1.1565536616518217E8 ; 9866308.562752975 ; 8.679075840477164E8 ; 0.0
9 ; 1456464.1678717623 ; 1.1827819446098334E8 ; 1.1240578698348122E7 ; 9.835629502128985E8 ; 0.0
10 ; 1574178.8061120906 ; 1.2121008358063573E8 ; 1.2697042866219884E7 ; 1.1018411446738818E9 ; 0.0
11 ; 1777731.6216028736 ; 1.244510339671562E8 ; 1.4271221672331974E7 ; 1.2230512282545176E9 ; 0.0
12 ; 2095213.1427597292 ; 1.2800104517752787E8 ; 1.6048953293934848E7 ; 1.3475022622216737E9 ; 0.0
13 ; 2399412.8444076343 ; 1.3186011588720107E8 ; 1.8144166436694577E7 ; 1.4755033073992016E9 ; 0.0
14 ; 2438224.1924374155 ; 1.3602824390349E8 ; 2.054357928110221E7 ; 1.6073634232864027E9 ; 0.0
15 ; 2453548.7382707675 ; 1.4050542618754792E8 ; 2.2981803473539624E7 ; 1.7433916671898928E9 ; 0.0
16 ; 2469458.302921396 ; 1.4529165888440868E8 ; 2.543535221181039E7 ; 1.8838970933774407E9 ; 0.0
17 ; 2485898.096418864 ; 1.503869373604068E8 ; 2.7904810514731787E7 ; 2.0291887522618494E9 ; 0.0
18 ; 2501271.220235309 ; 1.5579125624714148E8 ; 3.0390708611150652E7 ; 2.1795756896222563E9 ; 0.0
19 ; 2516711.620477549 ; 1.6150460949103716E8 ; 3.2891979831385963E7 ; 2.3353669458693976E9 ; 0.0
20 ; 2534492.172954174 ; 1.6752699040747085E8 ; 3.540869145186351E7 ; 2.496871555360435E9 ; 0.0
21 ; 2549317.195315165 ; 1.7385839173839965E8 ; 3.7943183624817684E7 ; 2.6643985457679057E9 ; 0.0
22 ; 2562974.016397548 ; 1.8049880571240914E8 ; 4.049250082013285E7 ; 2.838256937506305E9 ; 0.0
23 ; 2584790.575607225 ; 1.8744822410613418E8 ; 4.30554748365304E7 ; 3.018755743218714E9 ; 0.0
24 ; 2596854.0962393354 ; 1.9470663830605352E8 ; 4.564026541213763E7 ; 3.206203967324848E9 ; 0.0
25 ; 2617262.342875863 ; 2.0096208026792482E8 ; 4.823711950837696E7 ; 3.400910605630902E9 ; 0.0
26 ; 2627861.6319651008 ; 2.0096808861356512E8 ; 5.0854381851252824E7 ; 3.6018726858988266E9 ; 0.0
27 ; 2649394.0963621307 ; 2.009744232135585E8 ; 5.3482243483217925E7 ; 3.8028407745123916E9 ; 0.0
28 ; 2662200.8254311136 ; 2.009810744891534E8 ; 5.613163757958005E7 ; 4.0038151977259502E9 ; 0.0
29 ; 2675252.6864980124 ; 2.0098803275747234E8 ; 5.879383840501117E7 ; 4.2047962722151036E9 ; 0.0
30 ; 2692363.241733484 ; 2.0099528827995035E8 ; 6.146909109150918E7 ; 4.405784304972576E9 ; 0.0
31 ; 2706623.2399394554 ; 2.0100283130698955E8 ; 6.416145433324266E7 ; 4.606779593252526E9 ; 0.0
32 ; 2723321.6581299333 ; 2.0101065211867493E8 ; 6.686807757318212E7 ; 4.807782424559516E9 ; 0.0
33 ; 2735700.2524203146 ; 2.0101874106148472E8 ; 6.959139923131205E7 ; 5.008793076678191E9 ; 0.0
34 ; 2747518.296911635 ; 2.010270885810088E8 ; 7.232709948373237E7 ; 5.2098118177396755E9 ; 0.0
35 ; 2765801.570528732 ; 2.0103568525075382E8 ; 7.507461778064401E7 ; 5.410838906320684E9 ; 0.0
36 ; 2773458.004256797 ; 2.010445217971695E8 ; 7.784041935117275E7 ; 5.611874591571438E9 ; 0.0
37 ; 2790320.2286107033 ; 2.0105358912107217E8 ; 8.061387735542955E7 ; 5.8129191133686075E9 ; 0.0
38 ; 2803243.6801886894 ; 2.0106287831567484E8 ; 8.340419758404025E7 ; 6.013972702489679E9 ; 0.0
39 ; 2814611.930129585 ; 2.0107238068145496E8 ; 8.620744126422894E7 ; 6.215035580805354E9 ; 0.0
40 ; 2824973.8633772153 ; 2.0108208773810506E8 ; 8.902205319435853E7 ; 6.416107961486809E9 ; 0.0
41 ; 2836005.2173720705 ; 2.0109199123381868E8 ; 9.184702705773574E7 ; 6.617190049224914E9 ; 0.0
42 ; 2849770.4137000376 ; 2.0110208315216383E8 ; 9.468303227510782E7 ; 6.818282040458733E9 ; 0.0
43 ; 2862032.773056114 ; 2.0111235571679205E8 ; 9.753280268880786E7 ; 7.019384123610896E9 ; 0.0
44 ; 2869033.368009303 ; 2.0112280139422357E8 ; 1.0039483546186398E8 ; 7.220496479327688E9 ; 0.0
45 ; 2879777.7709099725 ; 2.0113341289493677E8 ; 1.0326386882987328E8 ; 7.421619280721911E9 ; 0.0
46 ; 2891359.2688808125 ; 2.0114418317297757E8 ; 1.0614364660078326E8 ; 7.622752693616848E9 ; 0.0
47 ; 2897018.102132805 ; 2.0115510542428958E8 ; 1.0903500586966407E8 ; 7.823896876789825E9 ; 0.0
48 ; 2906294.145924578 ; 2.011661730839501E8 ; 1.1193202397179689E8 ; 8.025051982214115E9 ; 0.0
49 ; 2908243.72954971 ; 2.0117737982248157E8 ; 1.1483831811772147E8 ; 8.226218155298065E9 ; 0.0
50 ; 2921700.255887444 ; 2.011887195413921E8 ; 1.1774656184727117E8 ; 8.427395535120546E9 ; 0.0
51 ; 2926553.77676496 ; 2.0120018636808378E8 ; 1.2066826210315862E8 ; 8.628584254661938E9 ; 0.0
52 ; 2929057.7720677424 ; 2.0121177465025237E8 ; 1.2359481587992358E8 ; 8.829784441030022E9 ; 0.0
53 ; 2937710.6126901 ; 2.012234789498884E8 ; 1.2652387365199132E8 ; 9.030996215680275E9 ; 0.0
54 ; 2943583.291848271 ; 2.0123529403697655E8 ; 1.2946158426468143E8 ; 9.232219694630163E9 ; 0.0
55 ; 2951353.3359025833 ; 2.0124721488297817E8 ; 1.324051675565297E8 ; 9.43345498866714E9 ; 0.0
56 ; 2954919.0567808333 ; 2.012592366541708E8 ; 1.3535652089243227E8 ; 9.634702203550117E9 ; 0.0
57 ; 2964249.4954911587 ; 2.012713547049083E8 ; 1.3831143994921312E8 ; 9.835961440204288E9 ; 0.0
58 ; 2966603.1762622125 ; 2.0128356457085603E8 ; 1.4127568944470426E8 ; 1.0037232794909197E10 ; 0.0
59 ; 2972314.7306142994 ; 2.0129586196224788E8 ; 1.4424229262096646E8 ; 1.0238516359480053E10 ; 0.0
60 ; 2975498.1921376484 ; 2.0130824275720358E8 ; 1.4721460735158077E8 ; 1.04398122214423E10 ; 0.0
61 ; 2984603.031603983 ; 2.0132070299513912E8 ; 1.5019010554371843E8 ; 1.0641120464199505E10 ; 0.0
62 ; 2987423.82525231 ; 2.0133323887029693E8 ; 1.5317470857532242E8 ; 1.0842441167194645E10 ; 0.0
63 ; 2993482.1012773807 ; 2.0134584672541735E8 ; 1.5616213240057474E8 ; 1.1043774406064941E10 ; 0.0
64 ; 3004280.5278398246 ; 2.0135852304556876E8 ; 1.5915561450185212E8 ; 1.124512025279036E10 ; 0.0
65 ; 3006421.027012724 ; 2.0137126445214957E8 ; 1.6215989502969193E8 ; 1.1446478775835928E10 ; 0.0
66 ; 3010815.9015646074 ; 2.0138406769707197E8 ; 1.6516631605670467E8 ; 1.1647850040288078E10 ; 0.0
67 ; 3018363.6777040465 ; 2.0139692965713495E8 ; 1.6817713195826927E8 ; 1.184923410798515E10 ; 0.0
68 ; 3020011.6016813847 ; 2.014098473285909E8 ; 1.711954956359733E8 ; 1.2050631037642284E10 ; 0.0
69 ; 3026285.36918972 ; 2.0142281782190835E8 ; 1.742155072376547E8 ; 1.2252040884970875E10 ; 0.0
70 ; 3031596.465017319 ; 2.0143583835673213E8 ; 1.772417926068444E8 ; 1.2453463702792784E10 ; 0.0
71 ; 3033769.734919363 ; 2.0144890625703958E8 ; 1.802733890718617E8 ; 1.2654899541149515E10 ; 0.0
72 ; 3038801.2673466518 ; 2.0146201894649145E8 ; 1.8330715880678108E8 ; 1.2856348447406555E10 ; 0.0
73 ; 3042655.378240471 ; 2.0147517394397458E8 ; 1.8634596007412773E8 ; 1.3057810466353046E10 ; 0.0
74 ; 3048493.5798264234 ; 2.014883688593322E8 ; 1.893886154523682E8 ; 1.3259285640297022E10 ; 0.0
75 ; 3053473.759374834 ; 2.0150160138927802E8 ; 1.924371090321946E8 ; 1.3460774009156355E10 ; 0.0
76 ; 3058315.5539394985 ; 2.0151486931348878E8 ; 1.9549058279156944E8 ; 1.3662275610545633E10 ; 0.0
77 ; 3057907.0341250463 ; 2.015281704908704E8 ; 1.9854889834550893E8 ; 1.3863790479859121E10 ; 0.0
78 ; 3064010.5113157863 ; 2.015415028559918E8 ; 2.01606805379634E8 ; 1.406531865034999E10 ; 0.0
79 ; 3060054.134964497 ; 2.0155486441568115E8 ; 2.046708158909498E8 ; 1.4266860153205982E10 ; 0.0
80 ; 3065523.7600579816 ; 2.015682532457778E8 ; 2.0773087002591428E8 ; 1.4468415017621664E10 ; 0.0
81 ; 3063339.2963262205 ; 2.0158166748803493E8 ; 2.1079639378597227E8 ; 1.4669983270867441E10 ; 0.0
82 ; 3062713.609159572 ; 2.0159510534716684E8 ; 2.138597330822985E8 ; 1.4871564938355476E10 ; 0.0
83 ; 3064551.7601920506 ; 2.016085650880339E8 ; 2.1692244669145805E8 ; 1.5073160043702642E10 ; 0.0
84 ; 3061982.8271943037 ; 2.0162204503296113E8 ; 2.1998699845165008E8 ; 1.5274768608790676E10 ; 0.0
85 ; 3065973.0365101863 ; 2.0163554355918306E8 ; 2.230489812788444E8 ; 1.5476390653823637E10 ; 0.0
86 ; 3065316.8483848474 ; 2.0164905909641033E8 ; 2.261149543153546E8 ; 1.567802619738282E10 ; 0.0
87 ; 3061462.763220559 ; 2.016625901245122E8 ; 2.2918027116373944E8 ; 1.587967525647923E10 ; 0.0
88 ; 3062595.490439896 ; 2.0167613517130953E8 ; 2.3224173392696E8 ; 1.6081337846603743E10 ; 0.0
89 ; 3062295.561803258 ; 2.0168969281047356E8 ; 2.3530432941739988E8 ; 1.6283013981775053E10 ; 0.0
90 ; 3060629.2789366404 ; 2.0170326165952513E8 ; 2.3836662497920313E8 ; 1.6484703674585527E10 ; 0.0
91 ; 3057992.8951335293 ; 2.017168403779298E8 ; 2.414272542581398E8 ; 1.6686406936245052E10 ; 0.0
92 ; 3059622.062953078 ; 2.0173042766528425E8 ; 2.444852471532733E8 ; 1.6888123776622982E10 ; 0.0
93 ; 3060917.323470997 ; 2.0174402225958952E8 ; 2.475448692162264E8 ; 1.7089854204288267E10 ; 0.0
94 ; 3060926.31997025 ; 2.0175762293560687E8 ; 2.506057865396974E8 ; 1.7291598226547855E10 ; 0.0
95 ; 3056429.247316376 ; 2.0177122850329247E8 ; 2.5366671285966766E8 ; 1.7493355849483463E10 ; 0.0
96 ; 3055781.970862555 ; 2.0178483780630654E8 ; 2.5672314210698405E8 ; 1.7695127077986755E10 ; 0.0
97 ; 3053531.175359403 ; 2.0179844972059387E8 ; 2.5977892407784662E8 ; 1.789691191579306E10 ; 0.0
98 ; 3052874.9276238624 ; 2.018120631530317E8 ; 2.62832455253206E8 ; 1.8098710365513653E10 ; 0.0
99 ; 3055731.6674643294 ; 2.0182567704014215E8 ; 2.6588533018082988E8 ; 1.8300522428666683E10 ; 0.0
100 ; 3051388.329972497 ; 2.0183929034686506E8 ; 2.689410618482942E8 ; 1.8502348105706825E10 ; 0.0
101 ; 3048943.477644229 ; 2.018529020653896E8 ; 2.719924501782667E8 ; 1.870418739605369E10 ; 0.0
102 ; 3044507.16087395 ; 2.0186651121404043E8 ; 2.750413936559109E8 ; 1.890604029811908E10 ; 0.0
103 ; 3042500.62635554 ; 2.0188011683621645E8 ; 2.7808590081678486E8 ; 1.910790680933312E10 ; 0.0
104 ; 3046627.927814031 ; 2.0189371799937922E8 ; 2.811284014431404E8 ; 1.9309786926169334E10 ; 0.0
105 ; 3041384.420938257 ; 2.0190731379408863E8 ; 2.841750293709544E8 ; 1.9511680644168713E10 ; 0.0
106 ; 3041719.4369044947 ; 2.0192090333308363E8 ; 2.8721641379189265E8 ; 1.9713587957962803E10 ; 0.0
107 ; 3040422.0406841123 ; 2.0193448575040546E8 ; 2.9025813322879714E8 ; 1.9915508861295887E10 ; 0.0
108 ; 3038763.5312883803 ; 2.0194806020056137E8 ; 2.9329855526948124E8 ; 2.011744334704629E10 ; 0.0
109 ; 3036720.61979567 ; 2.0196162585772717E8 ; 2.963373188007696E8 ; 2.0319391407246853E10 ; 0.0
110 ; 3028698.4987617834 ; 2.019751819149861E8 ; 2.993740394205653E8 ; 2.052135303310458E10 ; 0.0
111 ; 3028111.679594674 ; 2.0198872758360255E8 ; 3.024027379193271E8 ; 2.0723328215019566E10 ; 0.0
112 ; 3029452.756872265 ; 2.0200226209232903E8 ; 3.054308495989218E8 ; 2.092531694260317E10 ; 0.0
113 ; 3028376.8445586516 ; 2.0201578468674442E8 ; 3.08460302355794E8 ; 2.1127319204695496E10 ; 0.0
114 ; 3024262.272546589 ; 2.0202929462862208E8 ; 3.1148867920035267E8 ; 2.132933498938224E10 ; 0.0
115 ; 3020342.5598342777 ; 2.020427911953267E8 ; 3.1451294147289926E8 ; 2.1531364284010864E10 ; 0.0
116 ; 3018291.962895578 ; 2.020562736792376E8 ; 3.1753328403273356E8 ; 2.1733407075206192E10 ; 0.0
117 ; 3017293.7483147876 ; 2.0206974138719857E8 ; 3.2055157599562913E8 ; 2.193546334888543E10 ; 0.0
118 ; 3008442.335113702 ; 2.0208319363999128E8 ; 3.235688697439439E8 ; 2.213753309027263E10 ; 0.0
119 ; 3007568.1692253784 ; 2.0209662977183273E8 ; 3.2657731207905763E8 ; 2.233961628391262E10 ; 0.0
120 ; 3003331.7547851107 ; 2.0211004912989426E8 ; 3.29584880248283E8 ; 2.2541712913684452E10 ; 0.0
121 ; 3003259.5761685516 ; 2.0212345107384208E8 ; 3.3258821200306815E8 ; 2.2743822962814346E10 ; 0.0
122 ; 3000248.67701778 ; 2.0213683497539762E8 ; 3.355914715792367E8 ; 2.2945946413888187E10 ; 0.0
123 ; 2994813.450469175 ; 2.0215020021791708E8 ; 3.385917202562545E8 ; 2.3148083248863586E10 ; 0.0
124 ; 2991548.729090446 ; 2.021635461959891E8 ; 3.415865337067237E8 ; 2.3350233449081505E10 ; 0.0
125 ; 2990205.1441413783 ; 2.0217687231504992E8 ; 3.4457808243581414E8 ; 2.3552396995277493E10 ; 0.0
126 ; 2982926.8060284965 ; 2.0219017799101484E8 ; 3.475682875799555E8 ; 2.375457386759254E10 ; 0.0
127 ; 2981184.2221430736 ; 2.022034626499255E8 ; 3.50551214385984E8 ; 2.3956764045583557E10 ; 0.0
128 ; 2977059.0259471103 ; 2.0221672572761235E8 ; 3.5353239860812706E8 ; 2.4158967508233482E10 ; 0.0
129 ; 2972830.8213182446 ; 2.0222996666937095E8 ; 3.5650945763407415E8 ; 2.4361184233961094E10 ; 0.0
130 ; 2968733.8675261065 ; 2.0224318492965245E8 ; 3.594822884553924E8 ; 2.4563414200630466E10 ; 0.0
131 ; 2960045.689032321 ; 2.0225637997176656E8 ; 3.6245102232291853E8 ; 2.476565738556012E10 ; 0.0
132 ; 2953331.392170764 ; 2.0226955126759726E8 ; 3.6541106801195085E8 ; 2.4967913765531887E10 ; 0.0
133 ; 2947059.8580333423 ; 2.0228269829733017E8 ; 3.6836439940412164E8 ; 2.5170183316799484E10 ; 0.0
134 ; 2939601.4873387776 ; 2.0229582054919127E8 ; 3.71311459262155E8 ; 2.5372466015096813E10 ; 0.0
135 ; 2931225.6131803165 ; 2.0230891751919624E8 ; 3.742510607494938E8 ; 2.5574761835646004E10 ; 0.0
136 ; 2923813.0705516757 ; 2.0232198871091032E8 ; 3.771822863626741E8 ; 2.57770707531652E10 ; 0.0
137 ; 2911664.0200953786 ; 2.0233503363521776E8 ; 3.801060994332258E8 ; 2.597939274187611E10 ; 0.0
138 ; 2901248.4882473224 ; 2.023480518101007E8 ; 3.830177634533212E8 ; 2.618172777551133E10 ; 0.0
139 ; 2899759.2855711603 ; 2.0236104276042715E8 ; 3.8591901194156855E8 ; 2.638407582732143E10 ; 0.0
140 ; 2890653.348375575 ; 2.0237400601774713E8 ; 3.888187712271397E8 ; 2.6586436870081856E10 ; 0.0
141 ; 2878536.2668022956 ; 2.023869411200976E8 ; 3.917094245755153E8 ; 2.67888108760996E10 ; 0.0
142 ; 2870099.4737356263 ; 2.0239984761181444E8 ; 3.945879608423176E8 ; 2.69911978172197E10 ; 0.0
143 ; 2864879.6718746205 ; 2.024127250433526E8 ; 3.974580603160532E8 ; 2.7193597664831512E10 ; 0.0
144 ; 2851596.02397606 ; 2.0242557297111285E8 ; 4.0032293998792785E8 ; 2.7396010389874866E10 ; 0.0
145 ; 2848052.507483506 ; 2.024383909572757E8 ; 4.0317453601190394E8 ; 2.7598435962845978E10 ; 0.0
146 ; 2846109.093716364 ; 2.0245117856964162E8 ; 4.060225885193874E8 ; 2.7800874353803253E10 ; 0.0
147 ; 2839486.5989540596 ; 2.024639353814777E8 ; 4.088686976131038E8 ; 2.8003325532372894E10 ; 0.0
148 ; 2834184.8730817935 ; 2.024766609713702E8 ; 4.117081842120579E8 ; 2.820578946775437E10 ; 0.0
149 ; 2831535.860250678 ; 2.0248935492308262E8 ; 4.145423690851397E8 ; 2.8408266128725742E10 ; 0.0
150 ; 2828045.703460653 ; 2.025020168254196E8 ; 4.1737390494539034E8 ; 2.8610755483648827E10 ; 0.0
151 ; 2823358.683099199 ; 2.025146462720959E8 ; 4.20201950648851E8 ; 2.8813257500474247E10 ; 0.0
152 ; 2824294.90320855 ; 2.025272428616103E8 ; 4.230253093319502E8 ; 2.901577214674634E10 ; 0.0
153 ; 2817437.053177033 ; 2.0253980619712442E8 ; 4.2584960423515874E8 ; 2.9218299389607952E10 ; 0.0
154 ; 2812371.2856956795 ; 2.025523358863462E8 ; 4.286670412883358E8 ; 2.9420839195805077E10 ; 0.0
155 ; 2806910.755562714 ; 2.0256483154141766E8 ; 4.314794125740315E8 ; 2.962339153169142E10 ; 0.0
156 ; 2804530.5765417847 ; 2.0257729277880698E8 ; 4.342863233295942E8 ; 2.9825956363232838E10 ; 0.0
157 ; 2803550.877034174 ; 2.0258971921920457E8 ; 4.37090853906136E8 ; 3.0028533656011646E10 ; 0.0
158 ; 2797198.2360741096 ; 2.0260211048742315E8 ; 4.3989440478317016E8 ; 3.023112337523085E10 ; 0.0
159 ; 2793610.792520685 ; 2.0261446621230137E8 ; 4.4269160301924425E8 ; 3.0433725485718273E10 ; 0.0
160 ; 2788414.386697037 ; 2.0262678602661127E8 ; 4.4548521381176496E8 ; 3.0636339951930576E10 ; 0.0
161 ; 2781670.1892400603 ; 2.0263906956696886E8 ; 4.48273628198462E8 ; 3.0838966737957188E10 ; 0.0
162 ; 2777826.6303870957 ; 2.0265131647374827E8 ; 4.5105529838770205E8 ; 3.1041605807524155E10 ; 0.0
163 ; 2774839.363763004 ; 2.0266352639099887E8 ; 4.538331250180891E8 ; 3.1244257123997902E10 ; 0.0
164 ; 2770982.3632869795 ; 2.0267569896636552E8 ; 4.566079643818521E8 ; 3.14469206503889E10 ; 0.0
165 ; 2766474.632790828 ; 2.026878338510118E8 ; 4.5937894674513906E8 ; 3.1649596349355267E10 ; 0.0
166 ; 2761549.919244482 ; 2.026999306995458E8 ; 4.6214542137792987E8 ; 3.185228418320628E10 ; 0.0
167 ; 2757261.2864998183 ; 2.0271198916994888E8 ; 4.6490697129717433E8 ; 3.2054984113905827E10 ; 0.0
168 ; 2753685.2771888003 ; 2.0272400892350674E8 ; 4.6766423258367413E8 ; 3.2257696103075775E10 ; 0.0
169 ; 2748015.844070519 ; 2.0273598962474322E8 ; 4.704179178608629E8 ; 3.2460420111999283E10 ; 0.0
170 ; 2742112.7076755655 ; 2.0274793094135642E8 ; 4.731659337049334E8 ; 3.2663156101624027E10 ; 0.0
171 ; 2739475.1662404095 ; 2.0275983254415685E8 ; 4.75908046412609E8 ; 3.2865904032565384E10 ; 0.0
172 ; 2734145.294849254 ; 2.0277169410700816E8 ; 4.786475215788494E8 ; 3.306866386510954E10 ; 0.0
173 ; 2729702.9484520485 ; 2.0278351530676982E8 ; 4.8138166687369865E8 ; 3.327143555921655E10 ; 0.0
174 ; 2730859.980112467 ; 2.027952958232417E8 ; 4.841113698221507E8 ; 3.347421907452332E10 ; 0.0
175 ; 2727046.817278975 ; 2.0280703533911094E8 ; 4.868422298022632E8 ; 3.367701437034656E10 ; 0.0
176 ; 2721872.1543395696 ; 2.0281873353990033E8 ; 4.895692766195422E8 ; 3.3879821405685673E10 ; 0.0
177 ; 2716937.3818029403 ; 2.028303901139187E8 ; 4.9229114877388173E8 ; 3.4082640139225574E10 ; 0.0
178 ; 2716747.268165076 ; 2.0284200475221315E8 ; 4.9500808615568465E8 ; 3.4285470529339493E10 ; 0.0
179 ; 2713755.774305884 ; 2.0285357714852276E8 ; 4.977248334238497E8 ; 3.4488312534091705E10 ; 0.0
180 ; 2708951.948155192 ; 2.028651069992339E8 ; 5.004385891981556E8 ; 3.469116611124023E10 ; 0.0
181 ; 2706269.4256274262 ; 2.028765940033374E8 ; 5.0314754114631075E8 ; 3.489403121823946E10 ; 0.0
182 ; 2704654.1137231155 ; 2.0288803786238682E8 ; 5.0585381057193816E8 ; 3.50969078122428E10 ; 0.0
183 ; 2701647.139977159 ; 2.0289943828045842E8 ; 5.0855846468566126E8 ; 3.529979585010519E10 ; 0.0
184 ; 2700565.9528602776 ; 2.029107949641124E8 ; 5.112601118256384E8 ; 3.550269528838564E10 ; 0.0
185 ; 2696016.4770913543 ; 2.0292210762235567E8 ; 5.139606777784987E8 ; 3.5705606083349754E10 ; 0.0
186 ; 2693094.308396599 ; 2.029333759666055E8 ; 5.166566942555901E8 ; 3.590852819097211E10 ; 0.0
187 ; 2691223.3560814494 ; 2.0294459971065503E8 ; 5.1934978856398666E8 ; 3.611146156693871E10 ; 0.0
188 ; 2686190.752097579 ; 2.029557785706392E8 ; 5.220410119200681E8 ; 3.631440616664937E10 ; 0.0
189 ; 2681002.9652795168 ; 2.0296691226500264E8 ; 5.247272026721657E8 ; 3.651736194522001E10 ; 0.0
190 ; 2679549.7730935244 ; 2.0297800051446804E8 ; 5.274082056374452E8 ; 3.672032885748501E10 ; 0.0
191 ; 2675503.267367682 ; 2.02989043042006E8 ; 5.3008775541053873E8 ; 3.692330685799947E10 ; 0.0
192 ; 2675483.4607213703 ; 2.0300003957280555E8 ; 5.327632586779064E8 ; 3.712629590104148E10 ; 0.0
193 ; 2672836.340429556 ; 2.030109898342461E8 ; 5.3543874213862777E8 ; 3.732929594061429E10 ; 0.0
194 ; 2669428.868450438 ; 2.0302189355587003E8 ; 5.381115784790573E8 ; 3.753230693044853E10 ; 0.0
195 ; 2665427.1387637807 ; 2.0303275046935624E8 ; 5.407810073475077E8 ; 3.77353288240044E10 ; 0.0
196 ; 2666489.9801049014 ; 2.0304356030849472E8 ; 5.434464344862715E8 ; 3.7938361574473755E10 ; 0.0
197 ; 2660155.8499866463 ; 2.0305432280916196E8 ; 5.461129244663764E8 ; 3.814140513478225E10 ; 0.0
198 ; 2656856.3010467994 ; 2.0306503770929703E8 ; 5.487730803163631E8 ; 3.834445945759141E10 ; 0.0
199 ; 2653435.1847509695 ; 2.0307570474887875E8 ; 5.5142993661741E8 ; 3.8547524495300705E10 ; 0.0
200 ; 2650901.5729744243 ; 2.0308632366990334E8 ; 5.540833718021609E8 ; 3.875060020004958E10 ; 0.0
