CSV File for the City 1 on Day 20
1 - Minute m 
2 - Power Consumed at minute m 
3 - Power Produced at minute m 
4 - Energy Consumed since the beginning of the day 
5 - Energy Produced since the beginning of the day 
6 - Energy Lost since the beginning of the day on lines starting from the city
 
0 ; 1.5979773578713505E7 ; 1.0523001802163008E8 ; 0.0 ; 0.0 ; 0.0
1 ; 1.6001777836920725E7 ; 1.0537987990580136E8 ; 1.5979773578713505E7 ; 1.0523001802163008E8 ; 0.0
2 ; 1.6014944207549224E7 ; 1.0583857163693759E8 ; 3.198155141563423E7 ; 2.1060989792743143E8 ; 0.0
3 ; 1.603453769038444E7 ; 1.0660613665347576E8 ; 4.799649562318345E7 ; 3.16448469564369E8 ; 0.0
4 ; 1.6061279700240262E7 ; 1.0768262908065045E8 ; 6.403103331356789E7 ; 4.230546062178448E8 ; 0.0
5 ; 1.6086618885585327E7 ; 1.0906811523067552E8 ; 8.009231301380816E7 ; 5.3073723529849523E8 ; 0.0
6 ; 1.6122200227715326E7 ; 1.1076267389705107E8 ; 9.617893189939348E7 ; 6.398053505291708E8 ; 0.0
7 ; 1.6177195828333348E7 ; 1.127663940288449E8 ; 1.1230113212710881E8 ; 7.505680244262218E8 ; 0.0
8 ; 1.6256030022683948E7 ; 1.1507936807507116E8 ; 1.2847832795544216E8 ; 8.633344184550667E8 ; 0.0
9 ; 1.6373174953993868E7 ; 1.177016800450716E8 ; 1.447343579781261E8 ; 9.784137865301378E8 ; 0.0
10 ; 1.6560789631382583E7 ; 1.2063338990412188E8 ; 1.6110753293211997E8 ; 1.0961154665752094E9 ; 0.0
11 ; 1.6844918663621634E7 ; 1.2387451955124447E8 ; 1.7766832256350255E8 ; 1.2167488564793313E9 ; 0.0
12 ; 1.7303489673548527E7 ; 1.2742504708741686E8 ; 1.9451324122712418E8 ; 1.3406233760305758E9 ; 0.0
13 ; 1.7747919336880077E7 ; 1.312849125473634E8 ; 2.118167309006727E8 ; 1.4680484231179926E9 ; 0.0
14 ; 1.7802531144209314E7 ; 1.3545403192174244E8 ; 2.295646502375528E8 ; 1.5993333356653562E9 ; 0.0
15 ; 1.782249710261505E7 ; 1.399323127615397E8 ; 2.4736718138176212E8 ; 1.7347873675870986E9 ; 0.0
16 ; 1.784654162224642E7 ; 1.447196661176875E8 ; 2.6518967848437718E8 ; 1.8747196803486383E9 ; 0.0
17 ; 1.7865891199032106E7 ; 1.4981601319668564E8 ; 2.830362201066236E8 ; 2.0194393464663258E9 ; 0.0
18 ; 1.7884162374011174E7 ; 1.552212876863203E8 ; 3.009021113056557E8 ; 2.1692553596630116E9 ; 0.0
19 ; 1.7907725632864043E7 ; 1.609354354613569E8 ; 3.187862736796669E8 ; 2.324476647349332E9 ; 0.0
20 ; 1.7928282378125522E7 ; 1.6695841308335844E8 ; 3.3669399931253093E8 ; 2.485412082810689E9 ; 0.0
21 ; 1.7950531922952034E7 ; 1.7329018596054074E8 ; 3.546222816906565E8 ; 2.6523704958940473E9 ; 0.0
22 ; 1.7969911770115606E7 ; 1.7993072659578145E8 ; 3.7257281361360854E8 ; 2.825660681854588E9 ; 0.0
23 ; 1.799002112352066E7 ; 1.868800130870093E8 ; 3.9054272538372415E8 ; 3.0055914084503694E9 ; 0.0
24 ; 1.8012546204434708E7 ; 1.9413802791093117E8 ; 4.085327465072448E8 ; 3.192471421537379E9 ; 0.0
25 ; 1.803452004245845E7 ; 2.0039279786260632E8 ; 4.265452927116795E8 ; 3.38660944944831E9 ; 0.0
26 ; 1.8052580647164196E7 ; 2.003978593478924E8 ; 4.44579812754138E8 ; 3.5870022473109164E9 ; 0.0
27 ; 1.806966716779289E7 ; 2.004029723339976E8 ; 4.626323934013022E8 ; 3.7874001066588087E9 ; 0.0
28 ; 1.8096308300760694E7 ; 2.004081291538055E8 ; 4.8070206056909513E8 ; 3.9878030789928064E9 ; 0.0
29 ; 1.8113798737570137E7 ; 2.0041332345771825E8 ; 4.987983688698558E8 ; 4.188211208146612E9 ; 0.0
30 ; 1.8133288109164614E7 ; 2.0041854994925892E8 ; 5.169121676074259E8 ; 4.38862453160433E9 ; 0.0
31 ; 1.8153614666880716E7 ; 2.0042380417930433E8 ; 5.350454557165905E8 ; 4.589043081553589E9 ; 0.0
32 ; 1.817000894595541E7 ; 2.004290823850409E8 ; 5.531990703834713E8 ; 4.789466885732893E9 ; 0.0
33 ; 1.8189150136109438E7 ; 2.0043438136315715E8 ; 5.713690793294266E8 ; 4.989895968117934E9 ; 0.0
34 ; 1.820575191890864E7 ; 2.004396983693678E8 ; 5.895582294655361E8 ; 5.1903303494810915E9 ; 0.0
35 ; 1.8223584732031837E7 ; 2.0044503103829944E8 ; 6.077639813844447E8 ; 5.390770047850459E9 ; 0.0
36 ; 1.8240909229662046E7 ; 2.0045037731921062E8 ; 6.259875661164765E8 ; 5.591215078888759E9 ; 0.0
37 ; 1.8256856823962532E7 ; 2.004557354241004E8 ; 6.442284753461386E8 ; 5.79166545620797E9 ; 0.0
38 ; 1.8270748558512047E7 ; 2.0046110378556734E8 ; 6.624853321701012E8 ; 5.992121191632071E9 ; 0.0
39 ; 1.8285206035981383E7 ; 2.0046648102238834E8 ; 6.807560807286133E8 ; 6.192582295417638E9 ; 0.0
40 ; 1.829689104492646E7 ; 2.004718659112466E8 ; 6.990412867645947E8 ; 6.393048776440026E9 ; 0.0
41 ; 1.83122220910012E7 ; 2.004772573633851E8 ; 7.173381778095211E8 ; 6.593520642351273E9 ; 0.0
42 ; 1.8326734425102632E7 ; 2.0048265440522832E8 ; 7.356503999005222E8 ; 6.793997899714658E9 ; 0.0
43 ; 1.8333345482966233E7 ; 2.0048805616221774E8 ; 7.539771343256248E8 ; 6.994480554119886E9 ; 0.0
44 ; 1.834396860999503E7 ; 2.0049346184526476E8 ; 7.72310479808591E8 ; 7.1949686102821045E9 ; 0.0
45 ; 1.835971967171353E7 ; 2.004988707393453E8 ; 7.90654448418586E8 ; 7.395462072127369E9 ; 0.0
46 ; 1.8366592993611027E7 ; 2.0050428219385588E8 ; 8.090141680902996E8 ; 7.5959609428667145E9 ; 0.0
47 ; 1.837615509654758E7 ; 2.0050969561442497E8 ; 8.273807610839106E8 ; 7.796465225060571E9 ; 0.0
48 ; 1.83811084170761E7 ; 2.0051511045593297E8 ; 8.457569161804582E8 ; 7.996974920674995E9 ; 0.0
49 ; 1.8388149767293822E7 ; 2.0052052621653882E8 ; 8.641380245975343E8 ; 8.197490031130928E9 ; 0.0
50 ; 1.8396707018733438E7 ; 2.0052594243255E8 ; 8.825261743648281E8 ; 8.398010557347466E9 ; 0.0
51 ; 1.839820474804173E7 ; 2.0053135867400151E8 ; 9.009228813835615E8 ; 8.598536499780016E9 ; 0.0
52 ; 1.840350669393805E7 ; 2.0053677454083222E8 ; 9.193210861316032E8 ; 8.799067858454018E9 ; 0.0
53 ; 1.8412203077023935E7 ; 2.0054218965956837E8 ; 9.377245928255413E8 ; 8.99960463299485E9 ; 0.0
54 ; 1.841542962526858E7 ; 2.0054760368043706E8 ; 9.561367959025652E8 ; 9.200146822654419E9 ; 0.0
55 ; 1.8422836896007E7 ; 2.005530162748473E8 ; 9.745522255278338E8 ; 9.400694426334856E9 ; 0.0
56 ; 1.8424516756387673E7 ; 2.005584271331849E8 ; 9.929750624238408E8 ; 9.601247442609703E9 ; 0.0
57 ; 1.8429423217578705E7 ; 2.0056383596287733E8 ; 1.0113995791802285E9 ; 9.801805869742887E9 ; 0.0
58 ; 1.84331155786991E7 ; 2.0056924248669076E8 ; 1.0298290023978071E9 ; 1.0002369705705765E10 ; 0.0
59 ; 1.843381943682541E7 ; 2.005746464412277E8 ; 1.0482621179765062E9 ; 1.0202938948192455E10 ; 0.0
60 ; 1.8437239688994277E7 ; 2.005800475755984E8 ; 1.0666959374133316E9 ; 1.0403513594633682E10 ; 0.0
61 ; 1.8442812322491318E7 ; 2.0058544565024304E8 ; 1.085133177102326E9 ; 1.060409364220928E10 ; 0.0
62 ; 1.844443449795783E7 ; 2.0059084043588546E8 ; 1.1035759894248173E9 ; 1.0804679087859524E10 ; 0.0
63 ; 1.8446275891866595E7 ; 2.0059623171260157E8 ; 1.1220204239227753E9 ; 1.100526992829541E10 ; 0.0
64 ; 1.845343935486384E7 ; 2.006016192689881E8 ; 1.140466699814642E9 ; 1.120586616000801E10 ; 0.0
65 ; 1.8453680732129656E7 ; 2.006070029014194E8 ; 1.1589201391695058E9 ; 1.1406467779276999E10 ; 0.0
66 ; 1.8456915406829253E7 ; 2.0061238241338187E8 ; 1.1773738199016354E9 ; 1.1607074782178417E10 ; 0.0
67 ; 1.8456192083248757E7 ; 2.0061775761487648E8 ; 1.1958307353084648E9 ; 1.1807687164591799E10 ; 0.0
68 ; 1.8459221355259378E7 ; 2.006231283218816E8 ; 1.2142869273917136E9 ; 1.2008304922206675E10 ; 0.0
69 ; 1.8461872565347996E7 ; 2.0062849435586917E8 ; 1.232746148746973E9 ; 1.2208928050528557E10 ; 0.0
70 ; 1.84632962816593E7 ; 2.0063385554336843E8 ; 1.251208021312321E9 ; 1.2409556544884426E10 ; 0.0
71 ; 1.8466781512831435E7 ; 2.0063921171557114E8 ; 1.2696713175939803E9 ; 1.2610190400427795E10 ; 0.0
72 ; 1.8468282901424002E7 ; 2.006445627079749E8 ; 1.2881380991068118E9 ; 1.2810829612143366E10 ; 0.0
73 ; 1.8470268989136964E7 ; 2.0064990836005935E8 ; 1.3066063820082357E9 ; 1.3011474174851341E10 ; 0.0
74 ; 1.8470338388232857E7 ; 2.0065524851499242E8 ; 1.3250766509973726E9 ; 1.3212124083211401E10 ; 0.0
75 ; 1.8472529153012123E7 ; 2.0066058301936316E8 ; 1.3435469893856056E9 ; 1.3412779331726393E10 ; 0.0
76 ; 1.846929590677217E7 ; 2.0066591172293875E8 ; 1.3620195185386176E9 ; 1.3613439914745756E10 ; 0.0
77 ; 1.8470535605474804E7 ; 2.006712344784426E8 ; 1.3804888144453897E9 ; 1.3814105826468695E10 ; 0.0
78 ; 1.8465235802497316E7 ; 2.0067655114135218E8 ; 1.3989593500508645E9 ; 1.4014777060947138E10 ; 0.0
79 ; 1.8460248923818965E7 ; 2.0068186156971404E8 ; 1.4174245858533618E9 ; 1.421545361208849E10 ; 0.0
80 ; 1.8457953536867682E7 ; 2.0068716562397462E8 ; 1.435884834777181E9 ; 1.4416135473658203E10 ; 0.0
81 ; 1.8448450514375176E7 ; 2.0069246316682512E8 ; 1.4543427883140485E9 ; 1.4616822639282177E10 ; 0.0
82 ; 1.844281539797343E7 ; 2.0069775406305948E8 ; 1.4727912388284237E9 ; 1.4817515102449001E10 ; 0.0
83 ; 1.8436848857634597E7 ; 2.0070303817944375E8 ; 1.4912340542263973E9 ; 1.501821285651206E10 ; 0.0
84 ; 1.843184661569946E7 ; 2.0070831538459614E8 ; 1.5096709030840318E9 ; 1.5218915894691504E10 ; 0.0
85 ; 1.8427145080823265E7 ; 2.0071358554887658E8 ; 1.5281027496997313E9 ; 1.54196242100761E10 ; 0.0
86 ; 1.842029266699073E7 ; 2.0071884854428515E8 ; 1.5465298947805545E9 ; 1.5620337795624975E10 ; 0.0
87 ; 1.8412354481117576E7 ; 2.0072410424436817E8 ; 1.5649501874475453E9 ; 1.582105664416926E10 ; 0.0
88 ; 1.8405728371568367E7 ; 2.0072935252413195E8 ; 1.5833625419286628E9 ; 1.6021780748413628E10 ; 0.0
89 ; 1.8398320159456737E7 ; 2.0073459325996274E8 ; 1.6017682703002312E9 ; 1.622251010093776E10 ; 0.0
90 ; 1.8389047783647172E7 ; 2.007398263295529E8 ; 1.620166590459688E9 ; 1.6423244694197721E10 ; 0.0
91 ; 1.8383619785784706E7 ; 2.0074505161183274E8 ; 1.638555638243335E9 ; 1.6623984520527275E10 ; 0.0
92 ; 1.8376188616075568E7 ; 2.0075026898690712E8 ; 1.6569392580291197E9 ; 1.6824729572139109E10 ; 0.0
93 ; 1.836968139059554E7 ; 2.0075547833599705E8 ; 1.6753154466451952E9 ; 1.7025479841126017E10 ; 0.0
94 ; 1.8360621863065425E7 ; 2.0076067954138505E8 ; 1.6936851280357907E9 ; 1.7226235319462013E10 ; 0.0
95 ; 1.8348577329005923E7 ; 2.0076587248636508E8 ; 1.7120457498988562E9 ; 1.74269959990034E10 ; 0.0
96 ; 1.8346607906986907E7 ; 2.0077105705519545E8 ; 1.7303943272278621E9 ; 1.7627761871489765E10 ; 0.0
97 ; 1.8336901891517095E7 ; 2.0077623313305548E8 ; 1.748740935134849E9 ; 1.782853292854496E10 ; 0.0
98 ; 1.8328464202966124E7 ; 2.0078140060600495E8 ; 1.7670778370263662E9 ; 1.8029309161678017E10 ; 0.0
99 ; 1.832035100029314E7 ; 2.0078655936094666E8 ; 1.7854063012293324E9 ; 1.8230090562284023E10 ; 0.0
100 ; 1.8308482074340723E7 ; 2.0079170928559104E8 ; 1.8037266522296257E9 ; 1.843087712164497E10 ; 0.0
101 ; 1.830066917606839E7 ; 2.0079685026842394E8 ; 1.8220351343039665E9 ; 1.863166883093056E10 ; 0.0
102 ; 1.8289519976339202E7 ; 2.008019821986759E8 ; 1.8403358034800348E9 ; 1.8832465681198986E10 ; 0.0
103 ; 1.8283972747545175E7 ; 2.0080710496629405E8 ; 1.858625323456374E9 ; 1.9033267663397663E10 ; 0.0
104 ; 1.8273234445787396E7 ; 2.0081221846191546E8 ; 1.8769092962039192E9 ; 1.9234074768363956E10 ; 0.0
105 ; 1.825960012351638E7 ; 2.0081732257684264E8 ; 1.8951825306497066E9 ; 1.943488698682587E10 ; 0.0
106 ; 1.8253101944236714E7 ; 2.008224172030203E8 ; 1.913442130773223E9 ; 1.9635704309402714E10 ; 0.0
107 ; 1.8239273999543633E7 ; 2.0082750223301414E8 ; 1.9316952327174597E9 ; 1.9836526726605736E10 ; 0.0
108 ; 1.8231589587632213E7 ; 2.008325775599904E8 ; 1.9499345067170033E9 ; 2.003735422883875E10 ; 0.0
109 ; 1.8221105029796965E7 ; 2.0083764307769737E8 ; 1.9681660963046355E9 ; 2.023818680639874E10 ; 0.0
110 ; 1.8209216441164088E7 ; 2.0084269868044758E8 ; 1.9863872013344326E9 ; 2.0439024449476437E10 ; 0.0
111 ; 1.8198170860499516E7 ; 2.0084774426310158E8 ; 2.0045964177755966E9 ; 2.0639867148156883E10 ; 0.0
112 ; 1.8187013149227276E7 ; 2.0085277972105247E8 ; 2.0227945886360962E9 ; 2.0840714892419983E10 ; 0.0
113 ; 1.817625813575266E7 ; 2.008578049502115E8 ; 2.0409816017853236E9 ; 2.1041567672141037E10 ; 0.0
114 ; 1.81637999928366E7 ; 2.0086281984699473E8 ; 2.0591578599210763E9 ; 2.1242425477091248E10 ; 0.0
115 ; 1.8153613173720796E7 ; 2.0086782430831036E8 ; 2.077321659913913E9 ; 2.1443288296938244E10 ; 0.0
116 ; 1.813776896321403E7 ; 2.008728182315469E8 ; 2.0954752730876338E9 ; 2.1644156121246555E10 ; 0.0
117 ; 1.8128071581549056E7 ; 2.008778015145623E8 ; 2.1136130420508478E9 ; 2.1845028939478104E10 ; 0.0
118 ; 1.8115167084442466E7 ; 2.0088277405567348E8 ; 2.131741113632397E9 ; 2.2045906740992664E10 ; 0.0
119 ; 1.810316075998094E7 ; 2.0088773575364667E8 ; 2.1498562807168393E9 ; 2.2246789515048336E10 ; 0.0
120 ; 1.809152187848065E7 ; 2.008926865076885E8 ; 2.1679594414768205E9 ; 2.2447677250801983E10 ; 0.0
121 ; 1.807776852753726E7 ; 2.0089762621743733E8 ; 2.186050963355301E9 ; 2.264856993730967E10 ; 0.0
122 ; 1.8063926573332753E7 ; 2.0090255478295547E8 ; 2.2041287318828382E9 ; 2.2849467563527107E10 ; 0.0
123 ; 1.8054789076881584E7 ; 2.0090747210472175E8 ; 2.222192658456171E9 ; 2.3050370118310062E10 ; 0.0
124 ; 1.8038837152736187E7 ; 2.009123780836245E8 ; 2.2402474475330524E9 ; 2.3251277590414783E10 ; 0.0
125 ; 1.8026767960079636E7 ; 2.0091727262095508E8 ; 2.2582862846857886E9 ; 2.345218996849841E10 ; 0.0
126 ; 1.8012158851528294E7 ; 2.0092215561840186E8 ; 2.2763130526458683E9 ; 2.3653107241119366E10 ; 0.0
127 ; 1.7997526060519367E7 ; 2.0092702697804448E8 ; 2.2943252114973965E9 ; 2.3854029396737766E10 ; 0.0
128 ; 1.7979668228609473E7 ; 2.009318866023486E8 ; 2.3123227375579157E9 ; 2.405495642371581E10 ; 0.0
129 ; 1.7963730164454237E7 ; 2.009367343941609E8 ; 2.3303024057865252E9 ; 2.4255888310318157E10 ; 0.0
130 ; 1.794930849350378E7 ; 2.0094157025670448E8 ; 2.3482661359509797E9 ; 2.445682504471232E10 ; 0.0
131 ; 1.7931652276450645E7 ; 2.0094639409357455E8 ; 2.3662154444444833E9 ; 2.4657766614969025E10 ; 0.0
132 ; 1.7909572831875283E7 ; 2.0095120580873442E8 ; 2.384147096720934E9 ; 2.48587130090626E10 ; 0.0
133 ; 1.788845929487496E7 ; 2.0095600530651167E8 ; 2.4020566695528092E9 ; 2.5059664214871334E10 ; 0.0
134 ; 1.78661704070762E7 ; 2.009607924915948E8 ; 2.4199451288476844E9 ; 2.5260620220177845E10 ; 0.0
135 ; 1.784943312734145E7 ; 2.0096556726902986E8 ; 2.4378112992547607E9 ; 2.546158101266944E10 ; 0.0
136 ; 1.7826984573305212E7 ; 2.009703295442175E8 ; 2.455660732382102E9 ; 2.5662546579938473E10 ; 0.0
137 ; 1.7805698932960503E7 ; 2.0097507922291026E8 ; 2.473487716955407E9 ; 2.586351690948269E10 ; 0.0
138 ; 1.7781145955049664E7 ; 2.009798162112098E8 ; 2.4912934158883677E9 ; 2.60644919887056E10 ; 0.0
139 ; 1.7762478856126316E7 ; 2.0098454041556472E8 ; 2.509074561843417E9 ; 2.626547180491681E10 ; 0.0
140 ; 1.774435688923642E7 ; 2.0098925174276814E8 ; 2.5268370406995435E9 ; 2.6466456345332375E10 ; 0.0
141 ; 1.7719376841897495E7 ; 2.0099395009995586E8 ; 2.54458139758878E9 ; 2.666744559707514E10 ; 0.0
142 ; 1.7694896350406706E7 ; 2.0099863539460438E8 ; 2.5623007744306774E9 ; 2.68684395471751E10 ; 0.0
143 ; 1.767284320379632E7 ; 2.0100330753452927E8 ; 2.579995670781084E9 ; 2.7069438182569702E10 ; 0.0
144 ; 1.7649432348739352E7 ; 2.0100796642788348E8 ; 2.5976685139848804E9 ; 2.7270441490104233E10 ; 0.0
145 ; 1.763564711857507E7 ; 2.0101261198315606E8 ; 2.6153179463336196E9 ; 2.7471449456532116E10 ; 0.0
146 ; 1.7618288218577713E7 ; 2.0101724410917076E8 ; 2.6329535934521947E9 ; 2.767246206851527E10 ; 0.0
147 ; 1.7604437227047868E7 ; 2.01021862715085E8 ; 2.6505718816707726E9 ; 2.787347931262444E10 ; 0.0
148 ; 1.7591029796969898E7 ; 2.0102646771038863E8 ; 2.6681763188978205E9 ; 2.8074501175339523E10 ; 0.0
149 ; 1.757356044769753E7 ; 2.0103105900490314E8 ; 2.6857673486947904E9 ; 2.827552764304991E10 ; 0.0
150 ; 1.7554945141470406E7 ; 2.0103563650878078E8 ; 2.703340909142488E9 ; 2.8476558702054813E10 ; 0.0
151 ; 1.7542562685243204E7 ; 2.0104020013250387E8 ; 2.7208958542839584E9 ; 2.8677594338563595E10 ; 0.0
152 ; 1.7528874538025763E7 ; 2.0104474978688413E8 ; 2.7384384169692016E9 ; 2.88786345386961E10 ; 0.0
153 ; 1.7510806273359545E7 ; 2.010492853830621E8 ; 2.7559672915072274E9 ; 2.9079679288482983E10 ; 0.0
154 ; 1.7492478389214337E7 ; 2.0105380683250678E8 ; 2.773478097780587E9 ; 2.9280728573866043E10 ; 0.0
155 ; 1.7473695952703893E7 ; 2.010583140470152E8 ; 2.7909705761698017E9 ; 2.948178238069855E10 ; 0.0
156 ; 1.7462429007177223E7 ; 2.0106280693871212E8 ; 2.8084442721225057E9 ; 2.9682840694745567E10 ; 0.0
157 ; 1.7445260175096817E7 ; 2.0106728542004985E8 ; 2.825906701129683E9 ; 2.988390350168428E10 ; 0.0
158 ; 1.742636951353328E7 ; 2.0107174940380803E8 ; 2.84335196130478E9 ; 3.0084970787104332E10 ; 0.0
159 ; 1.7411920440129437E7 ; 2.010761988030936E8 ; 2.860778330818313E9 ; 3.028604253650814E10 ; 0.0
160 ; 1.7394139552680492E7 ; 2.010806335313408E8 ; 2.8781902512584424E9 ; 3.0487118735311234E10 ; 0.0
161 ; 1.7375139130753566E7 ; 2.0108505350231105E8 ; 2.895584390811123E9 ; 3.0688199368842575E10 ; 0.0
162 ; 1.735951868738425E7 ; 2.010894586300933E8 ; 2.9129595299418764E9 ; 3.0889284422344887E10 ; 0.0
163 ; 1.7344483279789504E7 ; 2.0109384882910392E8 ; 2.9303190486292605E9 ; 3.109037388097498E10 ; 0.0
164 ; 1.732813519637259E7 ; 2.0109822401408708E8 ; 2.94766353190905E9 ; 3.1291467729804085E10 ; 0.0
165 ; 1.7312114516013604E7 ; 2.0110258410011488E8 ; 2.9649916671054225E9 ; 3.1492565953818172E10 ; 0.0
166 ; 1.729364679127451E7 ; 2.0110692900258774E8 ; 2.982303781621436E9 ; 3.169366853791829E10 ; 0.0
167 ; 1.7272165813281078E7 ; 2.011112586372347E8 ; 2.9995974284127107E9 ; 3.1894775466920876E10 ; 0.0
168 ; 1.725760707982104E7 ; 2.0111557292011368E8 ; 3.0168695942259917E9 ; 3.209588672555811E10 ; 0.0
169 ; 1.724226358502453E7 ; 2.0111987176761213E8 ; 3.034127201305813E9 ; 3.229700229847822E10 ; 0.0
170 ; 1.7220057609085757E7 ; 2.0112415509644732E8 ; 3.051369464890837E9 ; 3.2498122170245834E10 ; 0.0
171 ; 1.720319479582712E7 ; 2.0112842282366684E8 ; 3.0685895224999228E9 ; 3.269924632534228E10 ; 0.0
172 ; 1.7187700043393806E7 ; 2.0113267486664918E8 ; 3.0857927172957497E9 ; 3.2900374748165947E10 ; 0.0
173 ; 1.717051053824506E7 ; 2.011369111431043E8 ; 3.1029804173391433E9 ; 3.3101507423032597E10 ; 0.0
174 ; 1.7159534027393773E7 ; 2.0114113157107413E8 ; 3.1201509278773885E9 ; 3.33026443341757E10 ; 0.0
175 ; 1.7147581196237087E7 ; 2.0114533606893322E8 ; 3.1373104619047823E9 ; 3.3503785465746777E10 ; 0.0
176 ; 1.7142082870549794E7 ; 2.011495245553895E8 ; 3.1544580431010194E9 ; 3.370493080181571E10 ; 0.0
177 ; 1.712956515896087E7 ; 2.011536969494847E8 ; 3.171600125971569E9 ; 3.3906080326371098E10 ; 0.0
178 ; 1.7114709511548284E7 ; 2.0115785317059538E8 ; 3.18872969113053E9 ; 3.4107234023320583E10 ; 0.0
179 ; 1.71066383954714E7 ; 2.011619931384333E8 ; 3.2058444006420784E9 ; 3.430839187649118E10 ; 0.0
180 ; 1.709684249867093E7 ; 2.011661167730464E8 ; 3.22295103903755E9 ; 3.4509553869629616E10 ; 0.0
181 ; 1.7083697518980175E7 ; 2.011702239948195E8 ; 3.240047881536221E9 ; 3.4710719986402664E10 ; 0.0
182 ; 1.707636976277906E7 ; 2.0117431472447503E8 ; 3.257131579055201E9 ; 3.4911890210397484E10 ; 0.0
183 ; 1.7065139987100903E7 ; 2.0117838888307387E8 ; 3.2742079488179803E9 ; 3.5113064525121956E10 ; 0.0
184 ; 1.705312494615572E7 ; 2.0118244639201614E8 ; 3.2912730888050814E9 ; 3.531424291400503E10 ; 0.0
185 ; 1.704477857179073E7 ; 2.0118648717304218E8 ; 3.308326213751237E9 ; 3.551542536039704E10 ; 0.0
186 ; 1.7031325328658875E7 ; 2.011905111482331E8 ; 3.3253709923230276E9 ; 3.571661184757008E10 ; 0.0
187 ; 1.7020193009228528E7 ; 2.011945182400119E8 ; 3.3424023176516867E9 ; 3.5917802358718315E10 ; 0.0
188 ; 1.701115800384842E7 ; 2.0119850837114432E8 ; 3.3594225106609154E9 ; 3.611899687695833E10 ; 0.0
189 ; 1.700264153790247E7 ; 2.0120248146473965E8 ; 3.376433668664764E9 ; 3.6320195385329475E10 ; 0.0
190 ; 1.6992202619063683E7 ; 2.0120643744425163E8 ; 3.3934363102026663E9 ; 3.652139786679421E10 ; 0.0
191 ; 1.697904837363819E7 ; 2.0121037623347944E8 ; 3.41042851282173E9 ; 3.6722604304238464E10 ; 0.0
192 ; 1.696915253329095E7 ; 2.012142977565686E8 ; 3.4274075611953683E9 ; 3.692381468047195E10 ; 0.0
193 ; 1.6958792326886393E7 ; 2.0121820193801194E8 ; 3.444376713728659E9 ; 3.7125028978228516E10 ; 0.0
194 ; 1.6949524827635113E7 ; 2.0122208870265037E8 ; 3.4613355060555453E9 ; 3.732624718016653E10 ; 0.0
195 ; 1.693832064291363E7 ; 2.0122595797567415E8 ; 3.4782850308831806E9 ; 3.752746926886918E10 ; 0.0
