CSV File for the City 4 on Day 3
1 - Minute m 
2 - Power Consumed at minute m 
3 - Power Produced at minute m 
4 - Energy Consumed since the beginning of the day 
5 - Energy Produced since the beginning of the day 
6 - Energy Lost since the beginning of the day on lines starting from the city
 
0 ; 4724868.402418587 ; 5.137451001393388E7 ; 0.0 ; 0.0 ; 0.0
1 ; 4727483.629157245 ; 5.152883100158818E7 ; 4724868.402418587 ; 5.137451001393388E7 ; 613.6199999999999
2 ; 4732582.673676697 ; 5.1991793964551136E7 ; 9452352.031575833 ; 1.0290334101552206E8 ; 1227.2399999999998
3 ; 4737374.561692378 ; 5.276339890282275E7 ; 1.4184934705252528E7 ; 1.548951349800732E8 ; 1840.8599999999997
4 ; 4746140.725347042 ; 5.384364581640299E7 ; 1.8922309266944908E7 ; 2.0765853388289595E8 ; 2454.4799999999996
5 ; 4753718.351624391 ; 5.523253470529188E7 ; 2.366844999229195E7 ; 2.6150217969929892E8 ; 3068.0999999999995
6 ; 4763705.999107262 ; 5.6930065569489405E7 ; 2.842216834391634E7 ; 3.167347144045908E8 ; 3681.7199999999993
7 ; 4780576.522394611 ; 5.893623840899558E7 ; 3.3185874343023606E7 ; 3.736647799740802E8 ; 4295.339999999999
8 ; 4800981.489417937 ; 6.125105322381039E7 ; 3.796645086541822E7 ; 4.326010183830758E8 ; 4908.959999999999
9 ; 4832817.701877183 ; 6.387451001393385E7 ; 4.276743235483615E7 ; 4.9385207160688615E8 ; 5522.579999999999
10 ; 4885833.70505437 ; 6.680660877936597E7 ; 4.7600250056713335E7 ; 5.5772658162082E8 ; 6136.199999999999
11 ; 4963817.156359436 ; 7.004734952010672E7 ; 5.248608376176771E7 ; 6.245331904001861E8 ; 6749.819999999999
12 ; 5092834.778889747 ; 7.359673223615609E7 ; 5.744990091812714E7 ; 6.945805399202927E8 ; 7363.439999999999
13 ; 5212854.225438335 ; 7.745475692751409E7 ; 6.254273569701689E7 ; 7.681772721564488E8 ; 7977.059999999999
14 ; 5231104.1765851285 ; 8.162142359418078E7 ; 6.775558992245522E7 ; 8.456320290839629E8 ; 8590.679999999998
15 ; 5235495.726742813 ; 8.609673223615606E7 ; 7.298669409904034E7 ; 9.272534526781437E8 ; 9204.3
16 ; 5239080.702850543 ; 9.088068285344003E7 ; 7.822218982578316E7 ; 1.0133501849142998E9 ; 9817.919999999998
17 ; 5245667.204785419 ; 9.597327544603266E7 ; 8.346127052863371E7 ; 1.1042308677677398E9 ; 10431.539999999997
18 ; 5251070.152387296 ; 1.0137451001393388E8 ; 8.870693773341914E7 ; 1.2002041432137725E9 ; 11045.159999999996
19 ; 5258916.505680858 ; 1.0708438655714376E8 ; 9.395800788580643E7 ; 1.3015786532277064E9 ; 11658.779999999995
20 ; 5262809.526856977 ; 1.1310290507566227E8 ; 9.921692439148729E7 ; 1.4086630397848501E9 ; 12272.399999999994
21 ; 5270393.531917629 ; 1.1943006556948943E8 ; 1.0447973391834426E8 ; 1.5217659448605125E9 ; 12886.019999999993
22 ; 5275788.937180598 ; 1.2606586803862523E8 ; 1.0975012745026189E8 ; 1.641196010430002E9 ; 13499.639999999992
23 ; 5282060.1116643315 ; 1.330103124830697E8 ; 1.1502591638744248E8 ; 1.7672618784686272E9 ; 14113.259999999991
24 ; 5286697.789661489 ; 1.4026339890282276E8 ; 1.2030797649910681E8 ; 1.9002721909516969E9 ; 14726.87999999999
25 ; 5293896.375488433 ; 1.4651316819606796E8 ; 1.2559467428876829E8 ; 2.0405355898545196E9 ; 15340.499999999989
26 ; 5298582.469674744 ; 1.4651316819606796E8 ; 1.3088857066425672E8 ; 2.1870487580505877E9 ; 15954.119999999988
27 ; 5305538.806723175 ; 1.4651316819606796E8 ; 1.3618715313393146E8 ; 2.3335619262466555E9 ; 16567.739999999987
28 ; 5308449.548180603 ; 1.4651316819606796E8 ; 1.4149269194065464E8 ; 2.4800750944427233E9 ; 17181.359999999986
29 ; 5315857.170849479 ; 1.4651316819606796E8 ; 1.4680114148883525E8 ; 2.626588262638791E9 ; 17794.979999999985
30 ; 5319740.7169378055 ; 1.4651316819606796E8 ; 1.5211699865968472E8 ; 2.773101430834859E9 ; 18408.599999999984
31 ; 5326229.055104879 ; 1.4651316819606796E8 ; 1.5743673937662253E8 ; 2.9196145990309267E9 ; 19022.219999999983
32 ; 5331999.712525383 ; 1.4651316819606796E8 ; 1.627629684317274E8 ; 3.0661277672269945E9 ; 19635.839999999982
33 ; 5335876.631261436 ; 1.4651316819606796E8 ; 1.6809496814425278E8 ; 3.2126409354230623E9 ; 20249.45999999998
34 ; 5341511.772291523 ; 1.4651316819606796E8 ; 1.7343084477551422E8 ; 3.35915410361913E9 ; 20863.07999999998
35 ; 5348366.681525471 ; 1.4651316819606796E8 ; 1.7877235654780573E8 ; 3.505667271815198E9 ; 21476.69999999998
36 ; 5352014.11816594 ; 1.4651316819606796E8 ; 1.841207232293312E8 ; 3.6521804400112658E9 ; 22090.319999999978
37 ; 5358179.118668149 ; 1.4651316819606796E8 ; 1.8947273734749714E8 ; 3.7986936082073336E9 ; 22703.939999999977
38 ; 5359302.746333545 ; 1.4651316819606796E8 ; 1.9483091646616527E8 ; 3.9452067764034014E9 ; 23317.559999999976
39 ; 5364484.293574777 ; 1.4651316819606796E8 ; 2.001902192124988E8 ; 4.091719944599469E9 ; 23931.179999999975
40 ; 5369619.091543721 ; 1.4651316819606796E8 ; 2.055547035060736E8 ; 4.238233112795537E9 ; 24544.799999999974
41 ; 5369601.190465555 ; 1.4651316819606796E8 ; 2.1092432259761733E8 ; 4.384746280991605E9 ; 25158.419999999973
42 ; 5377095.23842418 ; 1.4651316819606796E8 ; 2.162939237880829E8 ; 4.531259449187673E9 ; 25772.03999999997
43 ; 5378357.353929076 ; 1.4651316819606796E8 ; 2.2167101902650708E8 ; 4.67777261738374E9 ; 26385.65999999997
44 ; 5380889.710837694 ; 1.4651316819606796E8 ; 2.2704937638043615E8 ; 4.824285785579808E9 ; 26999.27999999997
45 ; 5384576.867609158 ; 1.4651316819606796E8 ; 2.3243026609127384E8 ; 4.970798953775876E9 ; 27612.89999999997
46 ; 5388538.54553536 ; 1.4651316819606796E8 ; 2.37814842958883E8 ; 5.117312121971944E9 ; 28226.519999999968
47 ; 5390777.703729077 ; 1.4651316819606796E8 ; 2.4320338150441834E8 ; 5.263825290168012E9 ; 28840.139999999967
48 ; 5393334.08738838 ; 1.4651316819606796E8 ; 2.485941592081474E8 ; 5.410338458364079E9 ; 29453.759999999966
49 ; 5394638.02668261 ; 1.4651316819606796E8 ; 2.5398749329553577E8 ; 5.556851626560147E9 ; 30067.379999999965
50 ; 5397972.603822515 ; 1.4651316819606796E8 ; 2.593821313222184E8 ; 5.703364794756215E9 ; 30680.999999999964
51 ; 5399068.653578513 ; 1.4651316819606796E8 ; 2.6478010392604092E8 ; 5.849877962952283E9 ; 31294.619999999963
52 ; 5397930.663447905 ; 1.4651316819606796E8 ; 2.701791725796194E8 ; 5.996391131148351E9 ; 31908.23999999996
53 ; 5398923.653278875 ; 1.4651316819606796E8 ; 2.755771032430673E8 ; 6.142904299344419E9 ; 32521.85999999996
54 ; 5403790.742168534 ; 1.4651316819606796E8 ; 2.809760268963462E8 ; 6.289417467540486E9 ; 33135.47999999996
55 ; 5403801.560119213 ; 1.4651316819606796E8 ; 2.8637981763851476E8 ; 6.435930635736554E9 ; 33749.09999999996
56 ; 5405157.11344688 ; 1.4651316819606796E8 ; 2.9178361919863397E8 ; 6.582443803932622E9 ; 34362.719999999965
57 ; 5403783.944903753 ; 1.4651316819606796E8 ; 2.9718877631208086E8 ; 6.72895697212869E9 ; 34976.33999999997
58 ; 5407130.115469759 ; 1.4651316819606796E8 ; 3.025925602569846E8 ; 6.875470140324758E9 ; 35589.95999999997
59 ; 5408581.574071712 ; 1.4651316819606796E8 ; 3.0799969037245435E8 ; 7.021983308520825E9 ; 36203.57999999997
60 ; 5410369.644918421 ; 1.4651316819606796E8 ; 3.1340827194652605E8 ; 7.168496476716893E9 ; 36817.199999999975
61 ; 5410650.897797301 ; 1.4651316819606796E8 ; 3.188186415914445E8 ; 7.315009644912961E9 ; 37430.81999999998
62 ; 5411868.275134663 ; 1.4651316819606796E8 ; 3.242292924892418E8 ; 7.461522813109029E9 ; 38044.43999999998
63 ; 5411668.6969574345 ; 1.4651316819606796E8 ; 3.2964116076437646E8 ; 7.608035981305097E9 ; 38658.05999999998
64 ; 5414788.296148229 ; 1.4651316819606796E8 ; 3.350528294613339E8 ; 7.754549149501164E9 ; 39271.679999999986
65 ; 5413133.596762645 ; 1.4651316819606796E8 ; 3.404676177574821E8 ; 7.901062317697232E9 ; 39885.29999999999
66 ; 5415207.063660396 ; 1.4651316819606796E8 ; 3.4588075135424477E8 ; 8.0475754858933E9 ; 40498.91999999999
67 ; 5415522.177944982 ; 1.4651316819606796E8 ; 3.5129595841790515E8 ; 8.194088654089368E9 ; 41112.53999999999
68 ; 5414812.192193297 ; 1.4651316819606796E8 ; 3.567114805958501E8 ; 8.340601822285436E9 ; 41726.159999999996
69 ; 5416871.957502073 ; 1.4651316819606796E8 ; 3.621262927880434E8 ; 8.4871149904815035E9 ; 42339.78
70 ; 5416586.220651824 ; 1.4651316819606796E8 ; 3.6754316474554545E8 ; 8.633628158677572E9 ; 42953.4
71 ; 5417523.120792694 ; 1.4651316819606796E8 ; 3.7295975096619725E8 ; 8.78014132687364E9 ; 43567.020000000004
72 ; 5417407.599573627 ; 1.4651316819606796E8 ; 3.7837727408698994E8 ; 8.926654495069708E9 ; 44180.64000000001
73 ; 5419188.069476657 ; 1.4651316819606796E8 ; 3.8379468168656355E8 ; 9.073167663265776E9 ; 44794.26000000001
74 ; 5419004.638922983 ; 1.4651316819606796E8 ; 3.892138697560402E8 ; 9.219680831461843E9 ; 45407.88000000001
75 ; 5421027.059876956 ; 1.4651316819606796E8 ; 3.946328743949632E8 ; 9.366193999657911E9 ; 46021.500000000015
76 ; 5419161.964239932 ; 1.4651316819606796E8 ; 4.000539014548402E8 ; 9.51270716785398E9 ; 46635.12000000002
77 ; 5419281.755922888 ; 1.4651316819606796E8 ; 4.0547306341908014E8 ; 9.659220336050047E9 ; 47248.74000000002
78 ; 5419427.749074968 ; 1.4651316819606796E8 ; 4.1089234517500305E8 ; 9.805733504246115E9 ; 47862.36000000002
79 ; 5418586.171957125 ; 1.4651316819606796E8 ; 4.1631177292407805E8 ; 9.952246672442183E9 ; 48475.980000000025
80 ; 5413885.365698251 ; 1.4651316819606796E8 ; 4.217303590960352E8 ; 1.009875984063825E10 ; 49089.60000000003
81 ; 5415497.351087707 ; 1.4651316819606796E8 ; 4.2714424446173346E8 ; 1.0245273008834318E10 ; 49703.22000000003
82 ; 5411070.623397976 ; 1.4651316819606796E8 ; 4.3255974181282115E8 ; 1.0391786177030386E10 ; 50316.84000000003
83 ; 5409624.286524156 ; 1.4651316819606796E8 ; 4.379708124362191E8 ; 1.0538299345226454E10 ; 50930.460000000036
84 ; 5407405.641975995 ; 1.4651316819606796E8 ; 4.433804367227433E8 ; 1.0684812513422522E10 ; 51544.08000000004
85 ; 5407804.540520837 ; 1.4651316819606796E8 ; 4.487878423647193E8 ; 1.083132568161859E10 ; 52157.70000000004
86 ; 5407518.112678792 ; 1.4651316819606796E8 ; 4.541956469052401E8 ; 1.0977838849814657E10 ; 52771.32000000004
87 ; 5403112.421558465 ; 1.4651316819606796E8 ; 4.596031650179189E8 ; 1.1124352018010725E10 ; 53384.940000000046
88 ; 5404280.776444866 ; 1.4651316819606796E8 ; 4.650062774394773E8 ; 1.1270865186206793E10 ; 53998.56000000005
89 ; 5400228.019574999 ; 1.4651316819606796E8 ; 4.704105582159222E8 ; 1.141737835440286E10 ; 54612.18000000005
90 ; 5400292.725453904 ; 1.4651316819606796E8 ; 4.758107862354972E8 ; 1.1563891522598928E10 ; 55225.800000000054
91 ; 5399194.1537003135 ; 1.4651316819606796E8 ; 4.812110789609511E8 ; 1.1710404690794996E10 ; 55839.42000000006
92 ; 5394580.334695788 ; 1.4651316819606796E8 ; 4.866102731146514E8 ; 1.1856917858991064E10 ; 56453.04000000006
93 ; 5394975.731031525 ; 1.4651316819606796E8 ; 4.920048534493472E8 ; 1.2003431027187132E10 ; 57066.66000000006
94 ; 5391095.45559954 ; 1.4651316819606796E8 ; 4.9739982918037874E8 ; 1.21499441953832E10 ; 57680.280000000064
95 ; 5387844.306390253 ; 1.4651316819606796E8 ; 5.027909246359783E8 ; 1.2296457363579268E10 ; 58293.90000000007
96 ; 5385757.284274247 ; 1.4651316819606796E8 ; 5.081787689423685E8 ; 1.2442970531775335E10 ; 58907.52000000007
97 ; 5384241.53893501 ; 1.4651316819606796E8 ; 5.135645262266427E8 ; 1.2589483699971403E10 ; 59521.14000000007
98 ; 5380803.101317041 ; 1.4651316819606796E8 ; 5.1894876776557773E8 ; 1.273599686816747E10 ; 60134.760000000075
99 ; 5380503.211760041 ; 1.4651316819606796E8 ; 5.243295708668948E8 ; 1.2882510036363539E10 ; 60748.38000000008
100 ; 5378064.416721214 ; 1.4651316819606796E8 ; 5.297100740786548E8 ; 1.3029023204559607E10 ; 61362.00000000008
101 ; 5375691.388238582 ; 1.4651316819606796E8 ; 5.3508813849537605E8 ; 1.3175536372755674E10 ; 61975.62000000008
102 ; 5373236.807208599 ; 1.4651316819606796E8 ; 5.404638298836147E8 ; 1.3322049540951742E10 ; 62589.240000000085
103 ; 5370007.162358829 ; 1.4651316819606796E8 ; 5.458370666908233E8 ; 1.346856270914781E10 ; 63202.86000000009
104 ; 5367884.8209955245 ; 1.4651316819606796E8 ; 5.512070738531822E8 ; 1.3615075877343878E10 ; 63816.48000000009
105 ; 5363211.284041441 ; 1.4651316819606796E8 ; 5.565749586741778E8 ; 1.3761589045539946E10 ; 64430.10000000009
106 ; 5360915.440977818 ; 1.4651316819606796E8 ; 5.619381699582192E8 ; 1.3908102213736013E10 ; 65043.720000000096
107 ; 5361290.3434331985 ; 1.4651316819606796E8 ; 5.67299085399197E8 ; 1.4054615381932081E10 ; 65657.3400000001
108 ; 5357093.004344541 ; 1.4651316819606796E8 ; 5.726603757426301E8 ; 1.4201128550128149E10 ; 66270.9600000001
109 ; 5353790.233992846 ; 1.4651316819606796E8 ; 5.780174687469747E8 ; 1.4347641718324217E10 ; 66884.58000000009
110 ; 5349988.719956127 ; 1.4651316819606796E8 ; 5.833712589809675E8 ; 1.4494154886520285E10 ; 67498.20000000008
111 ; 5348542.513013126 ; 1.4651316819606796E8 ; 5.887212477009237E8 ; 1.4640668054716352E10 ; 68111.82000000008
112 ; 5344691.602253651 ; 1.4651316819606796E8 ; 5.940697902139368E8 ; 1.478718122291242E10 ; 68725.44000000008
113 ; 5342623.1960887145 ; 1.4651316819606796E8 ; 5.994144818161905E8 ; 1.4933694391108488E10 ; 69339.06000000007
114 ; 5338537.142237361 ; 1.4651316819606796E8 ; 6.047571050122792E8 ; 1.5080207559304556E10 ; 69952.68000000007
115 ; 5336021.272786731 ; 1.4651316819606796E8 ; 6.100956421545165E8 ; 1.5226720727500624E10 ; 70566.30000000006
116 ; 5331935.311271547 ; 1.4651316819606796E8 ; 6.154316634273032E8 ; 1.5373233895696692E10 ; 71179.92000000006
117 ; 5329258.071445892 ; 1.4651316819606796E8 ; 6.207635987385747E8 ; 1.551974706389276E10 ; 71793.54000000005
118 ; 5324034.768904624 ; 1.4651316819606796E8 ; 6.260928568100207E8 ; 1.5666260232088827E10 ; 72407.16000000005
119 ; 5321141.937768207 ; 1.4651316819606796E8 ; 6.314168915789253E8 ; 1.5812773400284895E10 ; 73020.78000000004
120 ; 5318697.71031997 ; 1.4651316819606796E8 ; 6.367380335166935E8 ; 1.5959286568480963E10 ; 73634.40000000004
121 ; 5315281.868886792 ; 1.4651316819606796E8 ; 6.420567312270135E8 ; 1.610579973667703E10 ; 74248.02000000003
122 ; 5313705.731324715 ; 1.4651316819606796E8 ; 6.473720130959003E8 ; 1.6252312904873098E10 ; 74861.64000000003
123 ; 5308802.775360375 ; 1.4651316819606796E8 ; 6.52685718827225E8 ; 1.6398826073069166E10 ; 75475.26000000002
124 ; 5305182.015642646 ; 1.4651316819606796E8 ; 6.579945216025853E8 ; 1.6545339241265234E10 ; 76088.88000000002
125 ; 5300686.351806781 ; 1.4651316819606796E8 ; 6.63299703618228E8 ; 1.6691852409461302E10 ; 76702.50000000001
126 ; 5296311.014503452 ; 1.4651316819606796E8 ; 6.686003899700347E8 ; 1.683836557765737E10 ; 77316.12000000001
127 ; 5293332.736635523 ; 1.4651316819606796E8 ; 6.738967009845382E8 ; 1.6984878745853437E10 ; 77929.74
128 ; 5291079.536630381 ; 1.4651316819606796E8 ; 6.791900337211738E8 ; 1.7131391914049505E10 ; 78543.36
129 ; 5286378.754122392 ; 1.4651316819606796E8 ; 6.844811132578042E8 ; 1.7277905082245575E10 ; 79156.98
130 ; 5280592.155321043 ; 1.4651316819606796E8 ; 6.897674920119265E8 ; 1.7424418250441643E10 ; 79770.59999999999
131 ; 5275505.467917874 ; 1.4651316819606796E8 ; 6.950480841672475E8 ; 1.757093141863771E10 ; 80384.21999999999
132 ; 5271231.520057397 ; 1.4651316819606796E8 ; 7.003235896351655E8 ; 1.771744458683378E10 ; 80997.83999999998
133 ; 5265857.521405453 ; 1.4651316819606796E8 ; 7.055948211552229E8 ; 1.7863957755029846E10 ; 81611.45999999998
134 ; 5260123.430832046 ; 1.4651316819606796E8 ; 7.108606786766284E8 ; 1.8010470923225914E10 ; 82225.07999999997
135 ; 5253658.501377481 ; 1.4651316819606796E8 ; 7.161208021074604E8 ; 1.815698409142198E10 ; 82838.69999999997
136 ; 5248106.053838285 ; 1.4651316819606796E8 ; 7.213744606088378E8 ; 1.830349725961805E10 ; 83452.31999999996
137 ; 5242998.06964303 ; 1.4651316819606796E8 ; 7.266225666626761E8 ; 1.8450010427814117E10 ; 84065.93999999996
138 ; 5236528.887926285 ; 1.4651316819606796E8 ; 7.318655647323191E8 ; 1.8596523596010185E10 ; 84679.55999999995
139 ; 5233869.233128987 ; 1.4651316819606796E8 ; 7.371020936202455E8 ; 1.8743036764206253E10 ; 85293.17999999995
140 ; 5225845.023395111 ; 1.4651316819606796E8 ; 7.423359628533745E8 ; 1.888954993240232E10 ; 85906.79999999994
141 ; 5219877.681940954 ; 1.4651316819606796E8 ; 7.475618078767695E8 ; 1.903606310059839E10 ; 86520.41999999994
142 ; 5214883.1857909765 ; 1.4651316819606796E8 ; 7.527816855587105E8 ; 1.9182576268794456E10 ; 87134.03999999994
143 ; 5206639.595972162 ; 1.4651316819606796E8 ; 7.579965687445015E8 ; 1.9329089436990524E10 ; 87747.65999999993
144 ; 5201052.782662507 ; 1.4651316819606796E8 ; 7.632032083404737E8 ; 1.9475602605186592E10 ; 88361.27999999993
145 ; 5196940.816569895 ; 1.4651316819606796E8 ; 7.684042611231362E8 ; 1.962211577338266E10 ; 88974.89999999992
146 ; 5191814.850216476 ; 1.4651316819606796E8 ; 7.736012019397061E8 ; 1.9768628941578728E10 ; 89588.51999999992
147 ; 5185488.924324744 ; 1.4651316819606796E8 ; 7.787930167899226E8 ; 1.9915142109774796E10 ; 90202.13999999991
148 ; 5184001.745698534 ; 1.4651316819606796E8 ; 7.839785057142473E8 ; 2.0061655277970863E10 ; 90815.75999999991
149 ; 5179669.65314884 ; 1.4651316819606796E8 ; 7.891625074599459E8 ; 2.020816844616693E10 ; 91429.3799999999
150 ; 5173537.673489303 ; 1.4651316819606796E8 ; 7.943421771130948E8 ; 2.0354681614363E10 ; 92042.9999999999
151 ; 5170778.297072639 ; 1.4651316819606796E8 ; 7.995157147865841E8 ; 2.0501194782559067E10 ; 92656.6199999999
152 ; 5168297.111596902 ; 1.4651316819606796E8 ; 8.046864930836568E8 ; 2.0647707950755135E10 ; 93270.23999999989
153 ; 5163429.018677708 ; 1.4651316819606796E8 ; 8.098547901952537E8 ; 2.0794221118951202E10 ; 93883.85999999988
154 ; 5158843.651871062 ; 1.4651316819606796E8 ; 8.150182192139314E8 ; 2.094073428714727E10 ; 94497.47999999988
155 ; 5154190.184439364 ; 1.4651316819606796E8 ; 8.201770628658025E8 ; 2.1087247455343338E10 ; 95111.09999999987
156 ; 5151172.404741747 ; 1.4651316819606796E8 ; 8.25331253050242E8 ; 2.1233760623539406E10 ; 95724.71999999987
157 ; 5145295.73649525 ; 1.4651316819606796E8 ; 8.304824254549837E8 ; 2.1380273791735474E10 ; 96338.33999999987
158 ; 5141141.724140677 ; 1.4651316819606796E8 ; 8.35627721191479E8 ; 2.152678695993154E10 ; 96951.95999999986
159 ; 5137066.092660448 ; 1.4651316819606796E8 ; 8.407688629156196E8 ; 2.167330012812761E10 ; 97565.57999999986
160 ; 5131785.471445619 ; 1.4651316819606796E8 ; 8.4590592900828E8 ; 2.1819813296323677E10 ; 98179.19999999985
161 ; 5128611.136986874 ; 1.4651316819606796E8 ; 8.510377144797256E8 ; 2.1966326464519745E10 ; 98792.81999999985
162 ; 5123849.839278148 ; 1.4651316819606796E8 ; 8.561663256167125E8 ; 2.2112839632715813E10 ; 99406.43999999984
163 ; 5119936.088173273 ; 1.4651316819606796E8 ; 8.612901754559906E8 ; 2.225935280091188E10 ; 100020.05999999984
164 ; 5116774.96093964 ; 1.4651316819606796E8 ; 8.664101115441638E8 ; 2.240586596910795E10 ; 100633.67999999983
165 ; 5110323.79173719 ; 1.4651316819606796E8 ; 8.715268865051035E8 ; 2.2552379137304016E10 ; 101247.29999999983
166 ; 5107728.491489206 ; 1.4651316819606796E8 ; 8.766372102968407E8 ; 2.2698892305500084E10 ; 101860.91999999982
167 ; 5101282.804749118 ; 1.4651316819606796E8 ; 8.817449387883298E8 ; 2.284540547369615E10 ; 102474.53999999982
168 ; 5097473.488522063 ; 1.4651316819606796E8 ; 8.86846221593079E8 ; 2.299191864189222E10 ; 103088.15999999981
169 ; 5093387.009065877 ; 1.4651316819606796E8 ; 8.91943695081601E8 ; 2.3138431810088287E10 ; 103701.77999999981
170 ; 5090126.432264871 ; 1.4651316819606796E8 ; 8.970370820906669E8 ; 2.3284944978284355E10 ; 104315.3999999998
171 ; 5083715.517563224 ; 1.4651316819606796E8 ; 9.021272085229318E8 ; 2.3431458146480423E10 ; 104929.0199999998
172 ; 5077765.872832662 ; 1.4651316819606796E8 ; 9.07210924040495E8 ; 2.357797131467649E10 ; 105542.6399999998
173 ; 5075106.799323762 ; 1.4651316819606796E8 ; 9.122886899133277E8 ; 2.372448448287256E10 ; 106156.25999999979
174 ; 5069921.69329095 ; 1.4651316819606796E8 ; 9.173637967126515E8 ; 2.3870997651068626E10 ; 106769.87999999979
175 ; 5067837.557223068 ; 1.4651316819606796E8 ; 9.224337184059424E8 ; 2.4017510819264694E10 ; 107383.49999999978
176 ; 5068058.310424113 ; 1.4651316819606796E8 ; 9.275015559631655E8 ; 2.4164023987460762E10 ; 107997.11999999978
