CSV File for the City 1 on Day 340
1 - Minute m 
2 - Power Consumed at minute m 
3 - Power Produced at minute m 
4 - Energy Consumed since the beginning of the day 
5 - Energy Produced since the beginning of the day 
6 - Energy Lost since the beginning of the day on lines starting from the city
 
0 ; 1.6100436257511582E7 ; 1.0564974440299717E8 ; 0.0 ; 0.0 ; 0.0
1 ; 1.6119978597017797E7 ; 1.0580269149971956E8 ; 1.6100436257511582E7 ; 1.0564974440299717E8 ; 0.0
2 ; 1.6134703899596147E7 ; 1.0626442161620525E8 ; 3.222041485452938E7 ; 2.1145243590271673E8 ; 0.0
3 ; 1.6154094727722505E7 ; 1.0703493592291093E8 ; 4.835511875412553E7 ; 3.17716857518922E8 ; 0.0
4 ; 1.6173944027392615E7 ; 1.0811423546502006E8 ; 6.450921348184803E7 ; 4.247517934418329E8 ; 0.0
5 ; 1.6204817090829285E7 ; 1.0950232115793395E8 ; 8.068315750924064E7 ; 5.3286602890685296E8 ; 0.0
6 ; 1.6245500573896205E7 ; 1.1119919378326538E8 ; 9.688797460006993E7 ; 6.423683500647869E8 ; 0.0
7 ; 1.6304580376770018E7 ; 1.1320485398537439E8 ; 1.1313347517396612E8 ; 7.535675438480523E8 ; 0.0
8 ; 1.6379728299677106E7 ; 1.155193022684825E8 ; 1.2943805555073614E8 ; 8.667723978334267E8 ; 0.0
9 ; 1.6496115757545376E7 ; 1.1814253899439567E8 ; 1.4581778385041326E8 ; 9.822917001019092E8 ; 0.0
10 ; 1.6675869325156176E7 ; 1.2107456438086003E8 ; 1.6231389960795864E8 ; 1.100434239096305E9 ; 0.0
11 ; 1.696715047432707E7 ; 1.2431537850056854E8 ; 1.7898976893311483E8 ; 1.221508803477165E9 ; 0.0
12 ; 1.7430760077938434E7 ; 1.2786498128082821E8 ; 1.9595691940744188E8 ; 1.3458241819777336E9 ; 0.0
13 ; 1.7873769557778418E7 ; 1.317233725038929E8 ; 2.1338767948538032E8 ; 1.4736891632585618E9 ; 0.0
14 ; 1.7924713104030613E7 ; 1.3589055180795676E8 ; 2.3126144904315874E8 ; 1.6054125357624547E9 ; 0.0
15 ; 1.7946483849652484E7 ; 1.4036651868879813E8 ; 2.4918616214718935E8 ; 1.7413030875704114E9 ; 0.0
16 ; 1.796712814290961E7 ; 1.451512725020571E8 ; 2.6713264599684185E8 ; 1.8816696062592096E9 ; 0.0
17 ; 1.7989586401271317E7 ; 1.502448124661208E8 ; 2.8509977413975143E8 ; 2.0268208787612667E9 ; 0.0
18 ; 1.801179958873372E7 ; 1.5564713766558796E8 ; 3.030893605410228E8 ; 2.1770656912273874E9 ; 0.0
19 ; 1.8032234525358163E7 ; 1.613582470552751E8 ; 3.211011601297565E8 ; 2.3327128288929753E9 ; 0.0
20 ; 1.8058767582049064E7 ; 1.6737813946472552E8 ; 3.3913339465511465E8 ; 2.4940710759482503E9 ; 0.0
21 ; 1.8075403292578533E7 ; 1.7370681360317466E8 ; 3.571921622371637E8 ; 2.661449215412976E9 ; 0.0
22 ; 1.809368791536925E7 ; 1.8034426806492412E8 ; 3.7526756552974224E8 ; 2.8351560290161505E9 ; 0.0
23 ; 1.811583274744972E7 ; 1.87290501335074E8 ; 3.933612534451115E8 ; 3.0155002970810747E9 ; 0.0
24 ; 1.8141717722078122E7 ; 1.9454551179556012E8 ; 4.114770861925612E8 ; 3.2027907984161487E9 ; 0.0
25 ; 1.816382535477778E7 ; 2.0079733862962702E8 ; 4.2961880391463935E8 ; 3.397336310211709E9 ; 0.0
26 ; 1.8184270900828406E7 ; 2.007995278652114E8 ; 4.477826292694171E8 ; 3.5981336488413363E9 ; 0.0
27 ; 1.8200716244436886E7 ; 2.0080184690647838E8 ; 4.659669001702455E8 ; 3.7989331767065477E9 ; 0.0
28 ; 1.822599257268788E7 ; 2.0080429378732076E8 ; 4.841676164146824E8 ; 3.999735023613026E9 ; 0.0
29 ; 1.824373467064744E7 ; 2.00806866471375E8 ; 5.0239360898737025E8 ; 4.2005393174003468E9 ; 0.0
30 ; 1.8263505090242222E7 ; 2.0080956285878882E8 ; 5.206373436580177E8 ; 4.401346183871721E9 ; 0.0
31 ; 1.82832417569658E7 ; 2.0081238079294118E8 ; 5.389008487482599E8 ; 4.60215574673051E9 ; 0.0
32 ; 1.8303250626213577E7 ; 2.0081531806707367E8 ; 5.571840905052257E8 ; 4.802968127523451E9 ; 0.0
33 ; 1.8326296936369784E7 ; 2.008183724307956E8 ; 5.754873411314392E8 ; 5.003783445590525E9 ; 0.0
34 ; 1.833930348995022E7 ; 2.0082154159642938E8 ; 5.93813638067809E8 ; 5.20460181802132E9 ; 0.0
35 ; 1.8356702885501757E7 ; 2.0082482324516624E8 ; 6.121529415577592E8 ; 5.40542335961775E9 ; 0.0
36 ; 1.8376474755741626E7 ; 2.0082821503300622E8 ; 6.305096444432609E8 ; 5.606248182862916E9 ; 0.0
37 ; 1.8394389130989917E7 ; 2.0083171459646082E8 ; 6.488861191990025E8 ; 5.807076397895923E9 ; 0.0
38 ; 1.840979103022178E7 ; 2.0083531955799985E8 ; 6.672805083299924E8 ; 6.007908112492384E9 ; 0.0
39 ; 1.841842465215738E7 ; 2.0083902753122818E8 ; 6.856902993602142E8 ; 6.208743432050384E9 ; 0.0
40 ; 1.843824561514052E7 ; 2.008428361257815E8 ; 7.041087240123717E8 ; 6.409582459581612E9 ; 0.0
41 ; 1.8452245553209834E7 ; 2.008467429519334E8 ; 7.225469696275122E8 ; 6.610425295707393E9 ; 0.0
42 ; 1.8468314547056396E7 ; 2.0085074562490916E8 ; 7.40999215180722E8 ; 6.811272038659327E9 ; 0.0
43 ; 1.8478231424036786E7 ; 2.0085484176890466E8 ; 7.594675297277784E8 ; 7.012122784284236E9 ; 0.0
44 ; 1.848935308242376E7 ; 2.0085902902081108E8 ; 7.779457611518152E8 ; 7.212977626053141E9 ; 0.0
45 ; 1.8500804090520076E7 ; 2.0086330503364852E8 ; 7.96435114234239E8 ; 7.413836655073952E9 ; 0.0
46 ; 1.8512759908250783E7 ; 2.008676674797136E8 ; 8.14935918324759E8 ; 7.6146999601076E9 ; 0.0
47 ; 1.8519193662159197E7 ; 2.0087211405344772E8 ; 8.334486782330098E8 ; 7.815567627587314E9 ; 0.0
48 ; 1.8530586393968083E7 ; 2.0087664247403446E8 ; 8.51967871895169E8 ; 8.016439741640761E9 ; 0.0
49 ; 1.853610978473513E7 ; 2.0088125048773533E8 ; 8.704984582891371E8 ; 8.217316384114796E9 ; 0.0
50 ; 1.854036350807071E7 ; 2.0088593586997446E8 ; 8.890345680738722E8 ; 8.418197634602531E9 ; 0.0
51 ; 1.8550371970023468E7 ; 2.0089069642718348E8 ; 9.075749315819429E8 ; 8.619083570472506E9 ; 0.0
52 ; 1.855869140443243E7 ; 2.0089552999841833E8 ; 9.261253035519664E8 ; 8.819974266899689E9 ; 0.0
53 ; 1.8562288188263986E7 ; 2.009004344567602E8 ; 9.446839949563988E8 ; 9.020869796898108E9 ; 0.0
54 ; 1.856931515907307E7 ; 2.0090540771051311E8 ; 9.632462831446629E8 ; 9.221770231354868E9 ; 0.0
55 ; 1.857361644795315E7 ; 2.0091044770421055E8 ; 9.81815598303736E8 ; 9.42267563906538E9 ; 0.0
56 ; 1.8578178760652184E7 ; 2.0091555241944367E8 ; 1.0003892147516891E9 ; 9.62358608676959E9 ; 0.0
57 ; 1.858532137646839E7 ; 2.0092071987552342E8 ; 1.0189673935123413E9 ; 9.824501639189034E9 ; 0.0
58 ; 1.8585390780351322E7 ; 2.0092594812998873E8 ; 1.0375527148888097E9 ; 1.0025422359064556E10 ; 0.0
59 ; 1.859433865337299E7 ; 2.009312352789726E8 ; 1.056138105669161E9 ; 1.0226348307194546E10 ; 0.0
60 ; 1.8604556831132684E7 ; 2.009365794574372E8 ; 1.0747324443225338E9 ; 1.0427279542473518E10 ; 0.0
61 ; 1.860265191911367E7 ; 2.0094197883928958E8 ; 1.0933370011536665E9 ; 1.0628216121930956E10 ; 0.0
62 ; 1.8606804074805792E7 ; 2.0094743163738787E8 ; 1.1119396530727801E9 ; 1.0829158100770245E10 ; 0.0
63 ; 1.8613019637954194E7 ; 2.0095293610344863E8 ; 1.1305464571475859E9 ; 1.1030105532407633E10 ; 0.0
64 ; 1.8615597943966065E7 ; 2.0095849052786422E8 ; 1.14915947678554E9 ; 1.1231058468511082E10 ; 0.0
65 ; 1.8620094147991616E7 ; 2.0096409323943993E8 ; 1.1677750747295063E9 ; 1.1432016959038946E10 ; 0.0
66 ; 1.862364052653782E7 ; 2.009697426050589E8 ; 1.186395168877498E9 ; 1.1632981052278385E10 ; 0.0
67 ; 1.8629694571718097E7 ; 2.0097543702928278E8 ; 1.2050188094040358E9 ; 1.1833950794883444E10 ; 0.0
68 ; 1.8632892262123935E7 ; 2.0098117495389602E8 ; 1.2236485039757538E9 ; 1.2034926231912727E10 ; 0.0
69 ; 1.8634031405670643E7 ; 2.0098695485740003E8 ; 1.2422813962378776E9 ; 1.2235907406866623E10 ; 0.0
70 ; 1.8640298418269355E7 ; 2.009927752544645E8 ; 1.2609154276435483E9 ; 1.2436894361724024E10 ; 0.0
71 ; 1.864071646023518E7 ; 2.0099863469534105E8 ; 1.2795557260618176E9 ; 1.2637887136978489E10 ; 0.0
72 ; 1.864241989618795E7 ; 2.0100453176524523E8 ; 1.2981964425220528E9 ; 1.283888577167383E10 ; 0.0
73 ; 1.8645587488877937E7 ; 2.010104650837118E8 ; 1.3168388624182408E9 ; 1.3039890303439075E10 ; 0.0
74 ; 1.864705513130935E7 ; 2.0101643330392784E8 ; 1.3354844499071188E9 ; 1.3240900768522787E10 ; 0.0
75 ; 1.865139675338112E7 ; 2.01022435112048E8 ; 1.354131505038428E9 ; 1.3441917201826715E10 ; 0.0
76 ; 1.865450749763478E7 ; 2.01028469226496E8 ; 1.372782901791809E9 ; 1.3642939636938763E10 ; 0.0
77 ; 1.8654622923581917E7 ; 2.0103453439725542E8 ; 1.391437409289444E9 ; 1.3843968106165258E10 ; 0.0
78 ; 1.8648201294551484E7 ; 2.010406294051532E8 ; 1.4100920322130258E9 ; 1.4045002640562513E10 ; 0.0
79 ; 1.864702908076846E7 ; 2.0104675306113905E8 ; 1.4287402335075772E9 ; 1.4246043269967667E10 ; 0.0
80 ; 1.8644953043088853E7 ; 2.010529042055628E8 ; 1.4473872625883455E9 ; 1.4447090023028805E10 ; 0.0
81 ; 1.863803095666187E7 ; 2.010590817074524E8 ; 1.4660322156314344E9 ; 1.4648142927234367E10 ; 0.0
82 ; 1.8632978055105034E7 ; 2.0106528446379423E8 ; 1.4846702465880964E9 ; 1.484920200894182E10 ; 0.0
83 ; 1.863203312503561E7 ; 2.010715113988183E8 ; 1.5033032246432014E9 ; 1.5050267293405615E10 ; 0.0
84 ; 1.8629205680334724E7 ; 2.0107776146328908E8 ; 1.5219352577682369E9 ; 1.5251338804804434E10 ; 0.0
85 ; 1.8623145501422465E7 ; 2.0108403363380376E8 ; 1.5405644634485717E9 ; 1.5452416566267723E10 ; 0.0
86 ; 1.861921559956275E7 ; 2.0109032691209963E8 ; 1.559187608949994E9 ; 1.5653500599901527E10 ; 0.0
87 ; 1.8611147823846865E7 ; 2.010966403243709E8 ; 1.5778068245495567E9 ; 1.5854590926813627E10 ; 0.0
88 ; 1.8604636318641536E7 ; 2.0110297292059615E8 ; 1.5964179723734035E9 ; 1.6055687567137999E10 ; 0.0
89 ; 1.8601590534736525E7 ; 2.0110932377387768E8 ; 1.615022608692045E9 ; 1.6256790540058596E10 ; 0.0
90 ; 1.8597994077677786E7 ; 2.0111569197979254E8 ; 1.6336241992267816E9 ; 1.6457899863832474E10 ; 0.0
91 ; 1.859481368029962E7 ; 2.011220766557567E8 ; 1.6522221933044593E9 ; 1.6659015555812265E10 ; 0.0
92 ; 1.8585913116863947E7 ; 2.0112847694040218E8 ; 1.6708170069847589E9 ; 1.6860137632468021E10 ; 0.0
93 ; 1.8582324608398236E7 ; 2.0113489199296764E8 ; 1.6894029201016228E9 ; 1.7061266109408424E10 ; 0.0
94 ; 1.8570703248389456E7 ; 2.0114132099270293E8 ; 1.707985244710021E9 ; 1.7262401001401394E10 ; 0.0
95 ; 1.8566561954574093E7 ; 2.0114776313828754E8 ; 1.7265559479584105E9 ; 1.7463542322394096E10 ; 0.0
96 ; 1.8557545149382517E7 ; 2.011542176472632E8 ; 1.7451225099129846E9 ; 1.7664690085532383E10 ; 0.0
97 ; 1.855514120863544E7 ; 2.0116068375548068E8 ; 1.7636800550623672E9 ; 1.7865844303179646E10 ; 0.0
98 ; 1.854697850197203E7 ; 2.011671607165607E8 ; 1.7822351962710025E9 ; 1.8067004986935127E10 ; 0.0
99 ; 1.8538464910453007E7 ; 2.0117364780136925E8 ; 1.8007821747729745E9 ; 1.8268172147651688E10 ; 0.0
100 ; 1.853346931354635E7 ; 2.0118014429750684E8 ; 1.8193206396834276E9 ; 1.8469345795453056E10 ; 0.0
101 ; 1.8523944678687867E7 ; 2.011866495088117E8 ; 1.837854108996974E9 ; 1.8670525939750565E10 ; 0.0
102 ; 1.8517505395238217E7 ; 2.0119316275487715E8 ; 1.8563780536756618E9 ; 1.8871712589259377E10 ; 0.0
103 ; 1.850869209416601E7 ; 2.0119968337058213E8 ; 1.8748955590709E9 ; 1.9072905752014256E10 ; 0.0
104 ; 1.850671998023425E7 ; 2.0120621070563594E8 ; 1.893404251165066E9 ; 1.927410543538484E10 ; 0.0
105 ; 1.849577529827582E7 ; 2.0121274412413555E8 ; 1.9119109711453001E9 ; 1.9475311646090473E10 ; 0.0
106 ; 1.8487317908331983E7 ; 2.0121928300413656E8 ; 1.9304067464435759E9 ; 1.9676524390214607E10 ; 0.0
107 ; 1.8474675695332076E7 ; 2.0122582673723662E8 ; 1.9488940643519077E9 ; 1.9877743673218742E10 ; 0.0
108 ; 1.8467426269940075E7 ; 2.012323747281715E8 ; 1.9673687400472398E9 ; 2.007896949995598E10 ; 0.0
109 ; 1.8464620624438424E7 ; 2.012389263944235E8 ; 1.98583616631718E9 ; 2.028020187468415E10 ; 0.0
110 ; 1.8451544145740632E7 ; 2.0124548116584197E8 ; 2.0043007869416184E9 ; 2.0481440801078575E10 ; 0.0
111 ; 1.8444269372994147E7 ; 2.0125203848427522E8 ; 2.0227523310873592E9 ; 2.0682686282244415E10 ; 0.0
112 ; 1.8435998303977404E7 ; 2.0125859780321437E8 ; 2.0411966004603534E9 ; 2.088393832072869E10 ; 0.0
113 ; 1.842968760652446E7 ; 2.01265158587448E8 ; 2.0596325987643309E9 ; 2.1085196918531906E10 ; 0.0
114 ; 1.8417216870232277E7 ; 2.012717203127279E8 ; 2.0780622863708553E9 ; 2.1286462077119354E10 ; 0.0
115 ; 1.8406380664430354E7 ; 2.0127828246544522E8 ; 2.0964795032410877E9 ; 2.1487733797432083E10 ; 0.0
116 ; 1.8398544901193425E7 ; 2.012848445423172E8 ; 2.114885883905518E9 ; 2.168901207989753E10 ; 0.0
117 ; 1.839039730424287E7 ; 2.0129140605008373E8 ; 2.1332844288067114E9 ; 2.1890296924439846E10 ; 0.0
118 ; 1.8377105086420614E7 ; 2.0129796650521356E8 ; 2.1516748261109543E9 ; 2.209158833048993E10 ; 0.0
119 ; 1.8367964247030146E7 ; 2.0130452543362027E8 ; 2.170051931197375E9 ; 2.2292886296995144E10 ; 0.0
120 ; 1.835815196933536E7 ; 2.013110823703873E8 ; 2.188419895444405E9 ; 2.2494190822428764E10 ; 0.0
121 ; 1.834681226525625E7 ; 2.0131763685950154E8 ; 2.2067780474137406E9 ; 2.2695501904799152E10 ; 0.0
122 ; 1.8334051869017843E7 ; 2.0132418845359632E8 ; 2.225124859678997E9 ; 2.2896819541658653E10 ; 0.0
123 ; 1.8322237868579343E7 ; 2.0133073671370196E8 ; 2.243458911548015E9 ; 2.309814373011225E10 ; 0.0
124 ; 1.8315289275513694E7 ; 2.01337281209005E8 ; 2.2617811494165945E9 ; 2.3299474466825954E10 ; 0.0
125 ; 1.8304555743410774E7 ; 2.0134382151661512E8 ; 2.280096438692108E9 ; 2.3500811748034958E10 ; 0.0
126 ; 1.8293580774334416E7 ; 2.013503572213396E8 ; 2.2984009944355187E9 ; 2.3702155569551575E10 ; 0.0
127 ; 1.8278038724311076E7 ; 2.0135688791546527E8 ; 2.316694575209853E9 ; 2.3903505926772915E10 ; 0.0
128 ; 1.826740036904307E7 ; 2.0136341319854757E8 ; 2.334972613934164E9 ; 2.410486281468838E10 ; 0.0
129 ; 1.825757198080357E7 ; 2.0136993267720658E8 ; 2.353240014303207E9 ; 2.430622622788693E10 ; 0.0
130 ; 1.8240260457650684E7 ; 2.0137644596492952E8 ; 2.3714975862840104E9 ; 2.4507596160564137E10 ; 0.0
131 ; 1.821976541903531E7 ; 2.0138295268188015E8 ; 2.389737846741661E9 ; 2.4708972606529064E10 ; 0.0
132 ; 1.8207040179551642E7 ; 2.0138945245471394E8 ; 2.4079576121606965E9 ; 2.4910355559210945E10 ; 0.0
133 ; 1.8184335714151915E7 ; 2.013959449163996E8 ; 2.426164652340248E9 ; 2.511174501166566E10 ; 0.0
134 ; 1.816514658200389E7 ; 2.0140242970604646E8 ; 2.4443489880544E9 ; 2.531314095658206E10 ; 0.0
135 ; 1.8151457428057395E7 ; 2.0140890646873733E8 ; 2.462514134636404E9 ; 2.551454338628811E10 ; 0.0
136 ; 1.8129573214624193E7 ; 2.0141537485536703E8 ; 2.480665592064461E9 ; 2.5715952292756847E10 ; 0.0
137 ; 1.8114889917281535E7 ; 2.0142183452248606E8 ; 2.4987951652790856E9 ; 2.5917367667612213E10 ; 0.0
138 ; 1.8093306697155703E7 ; 2.014282851321495E8 ; 2.5169100551963673E9 ; 2.61187895021347E10 ; 0.0
139 ; 1.8072059142966352E7 ; 2.0143472635177073E8 ; 2.5350033618935227E9 ; 2.632021778726685E10 ; 0.0
140 ; 1.8056365341681022E7 ; 2.0144115785398012E8 ; 2.553075421036489E9 ; 2.652165251361862E10 ; 0.0
141 ; 1.8034060544542402E7 ; 2.0144757931648806E8 ; 2.57113178637817E9 ; 2.6723093671472603E10 ; 0.0
142 ; 1.8020370542197574E7 ; 2.0145399042195264E8 ; 2.5891658469227123E9 ; 2.692454125078909E10 ; 0.0
143 ; 1.79998041719583E7 ; 2.0146039085785162E8 ; 2.60718621746491E9 ; 2.712599524121104E10 ; 0.0
144 ; 1.7980020854772657E7 ; 2.0146678031635857E8 ; 2.6251860216368685E9 ; 2.7327455632068893E10 ; 0.0
145 ; 1.796695377538131E7 ; 2.014731584942229E8 ; 2.643166042491641E9 ; 2.7528922412385254E10 ; 0.0
146 ; 1.79514844119588E7 ; 2.0147952509265393E8 ; 2.661132996267022E9 ; 2.773039557087948E10 ; 0.0
147 ; 1.7937959183898944E7 ; 2.0148587981720868E8 ; 2.679084480678981E9 ; 2.7931875095972134E10 ; 0.0
148 ; 1.792967800910545E7 ; 2.0149222237768316E8 ; 2.6970224398628798E9 ; 2.813336097578934E10 ; 0.0
149 ; 1.791416499960646E7 ; 2.014985524880074E8 ; 2.7149521178719854E9 ; 2.8334853198167023E10 ; 0.0
150 ; 1.7899451587646E7 ; 2.0150486986614355E8 ; 2.732866282871592E9 ; 2.853635175065503E10 ; 0.0
151 ; 1.788848737467166E7 ; 2.0151117423398763E8 ; 2.750765734459238E9 ; 2.873785662052117E10 ; 0.0
152 ; 1.7873249790307015E7 ; 2.015174653172741E8 ; 2.7686542218339095E9 ; 2.8939367794755157E10 ; 0.0
153 ; 1.7859353945537534E7 ; 2.0152374284548363E8 ; 2.7865274716242166E9 ; 2.9140885260072433E10 ; 0.0
154 ; 1.784960578241292E7 ; 2.0153000655175385E8 ; 2.804386825569754E9 ; 2.9342409002917915E10 ; 0.0
155 ; 1.7836155124319945E7 ; 2.0153625617279288E8 ; 2.822236431352167E9 ; 2.954393900946967E10 ; 0.0
156 ; 1.782113392913661E7 ; 2.0154249144879562E8 ; 2.840072586476487E9 ; 2.9745475265642464E10 ; 0.0
157 ; 1.7808209187234186E7 ; 2.0154871212336275E8 ; 2.857893720405624E9 ; 2.994701775709126E10 ; 0.0
158 ; 1.7796588439653512E7 ; 2.0155491794342223E8 ; 2.8757019295928583E9 ; 3.0148566469214622E10 ; 0.0
159 ; 1.778059329863113E7 ; 2.015611086591533E8 ; 2.8934985180325117E9 ; 3.0350121387158043E10 ; 0.0
160 ; 1.7766076504962787E7 ; 2.0156728402391306E8 ; 2.911279111331143E9 ; 3.0551682495817196E10 ; 0.0
161 ; 1.7756643872731686E7 ; 2.0157344379416493E8 ; 2.929045187836106E9 ; 3.075324977984111E10 ; 0.0
162 ; 1.7739317768211633E7 ; 2.015795877294098E8 ; 2.9468018317088375E9 ; 3.0954823223635277E10 ; 0.0
163 ; 1.7721861805158224E7 ; 2.0158571559211925E8 ; 2.9645411494770494E9 ; 3.1156402811364685E10 ; 0.0
164 ; 1.771672993226603E7 ; 2.015918271476706E8 ; 2.9822630112822075E9 ; 3.1357988526956806E10 ; 0.0
165 ; 1.7694983028040458E7 ; 2.015979221642842E8 ; 2.9999797412144737E9 ; 3.1559580354104477E10 ; 0.0
166 ; 1.7684157375401843E7 ; 2.0160400041296288E8 ; 3.017674724242514E9 ; 3.176117827626876E10 ; 0.0
167 ; 1.76688603536734E7 ; 2.016100616674327E8 ; 3.035358881617916E9 ; 3.1962782276681725E10 ; 0.0
168 ; 1.7652754214816935E7 ; 2.0161610570408612E8 ; 3.0530277419715896E9 ; 3.2164392338349155E10 ; 0.0
169 ; 1.7645119486899626E7 ; 2.0162213230192673E8 ; 3.0706804961864066E9 ; 3.236600844405324E10 ; 0.0
170 ; 1.762429593590165E7 ; 2.0162814124251547E8 ; 3.0883256156733065E9 ; 3.2567630576355167E10 ; 0.0
171 ; 1.761047461768743E7 ; 2.0163413230991885E8 ; 3.105949911609208E9 ; 3.2769258717597683E10 ; 0.0
172 ; 1.7595097556137394E7 ; 2.0164010529065853E8 ; 3.1235603862268953E9 ; 3.29708928499076E10 ; 0.0
173 ; 1.75859728101977E7 ; 2.0164605997366267E8 ; 3.141155483783033E9 ; 3.3172532955198257E10 ; 0.0
174 ; 1.757704306895564E7 ; 2.016519961502184E8 ; 3.1587414565932307E9 ; 3.337417901517192E10 ; 0.0
175 ; 1.7562261475688815E7 ; 2.0165791361392617E8 ; 3.176318499662186E9 ; 3.357583101132214E10 ; 0.0
176 ; 1.7553239479216423E7 ; 2.016638121606552E8 ; 3.193880761137875E9 ; 3.3777488924936066E10 ; 0.0
177 ; 1.7548616151442066E7 ; 2.0166969158850044E8 ; 3.2114340006170917E9 ; 3.397915273709672E10 ; 0.0
178 ; 1.7538706649427712E7 ; 2.0167555169774064E8 ; 3.2289826167685337E9 ; 3.4180822428685223E10 ; 0.0
179 ; 1.7530467718748193E7 ; 2.016813922907981E8 ; 3.2465213234179616E9 ; 3.4382497980382965E10 ; 0.0
180 ; 1.752154665603827E7 ; 2.01687213172199E8 ; 3.2640517911367097E9 ; 3.458417937267376E10 ; 0.0
181 ; 1.7509623722726006E7 ; 2.016930141485357E8 ; 3.281573337792748E9 ; 3.4785866585845955E10 ; 0.0
182 ; 1.750112143948804E7 ; 2.0169879502842942E8 ; 3.299082961515474E9 ; 3.498755959999449E10 ; 0.0
183 ; 1.749134891938556E7 ; 2.0170455562249452E8 ; 3.316584082954962E9 ; 3.518925839502292E10 ; 0.0
184 ; 1.74853517958137E7 ; 2.017102957433038E8 ; 3.334075431874347E9 ; 3.539096295064542E10 ; 0.0
185 ; 1.747501293721667E7 ; 2.017160152053547E8 ; 3.351560783670161E9 ; 3.559267324638872E10 ; 0.0
186 ; 1.747060356576382E7 ; 2.0172171382503644E8 ; 3.3690357966073775E9 ; 3.579438926159407E10 ; 0.0
187 ; 1.745526370095951E7 ; 2.0172739142059857E8 ; 3.3865064001731415E9 ; 3.5996110975419106E10 ; 0.0
188 ; 1.7452620571212593E7 ; 2.0173304781211978E8 ; 3.403961663874101E9 ; 3.619783836683971E10 ; 0.0
189 ; 1.743760302762573E7 ; 2.0173868282147834E8 ; 3.421414284445314E9 ; 3.6399571414651825E10 ; 0.0
190 ; 1.742910142521059E7 ; 2.0174429627232283E8 ; 3.4388518874729395E9 ; 3.6601310097473305E10 ; 0.0
191 ; 1.742353497164022E7 ; 2.017498879900442E8 ; 3.45628098889815E9 ; 3.680305439374563E10 ; 0.0
192 ; 1.7411283598775923E7 ; 2.017554578017483E8 ; 3.47370452386979E9 ; 3.700480428173567E10 ; 0.0
193 ; 1.7410339372599527E7 ; 2.0176100553622937E8 ; 3.491115807468566E9 ; 3.720655973953742E10 ; 0.0
194 ; 1.7401573620924797E7 ; 2.0176653102394444E8 ; 3.5085261468411655E9 ; 3.7408320745073654E10 ; 0.0
195 ; 1.738452724103126E7 ; 2.017720340969881E8 ; 3.5259277204620905E9 ; 3.7610087276097595E10 ; 0.0
