CSV File for the City 4 on Day 12
1 - Minute m 
2 - Power Consumed at minute m 
3 - Power Produced at minute m 
4 - Energy Consumed since the beginning of the day 
5 - Energy Produced since the beginning of the day 
6 - Energy Lost since the beginning of the day on lines starting from the city
 
0 ; 6802186.956524486 ; 1.0547196924427685E8 ; 0.0 ; 0.0 ; 0.0
1 ; 6808159.464836093 ; 1.0561867026564479E8 ; 6802186.956524486 ; 1.0547196924427685E8 ; 0.0
2 ; 6814444.946101566 ; 1.0607464753291628E8 ; 1.3610346421360578E7 ; 2.1109063950992164E8 ; 0.0
3 ; 6823741.526923905 ; 1.0683994748068345E8 ; 2.0424791367462143E7 ; 3.171652870428379E8 ; 0.0
4 ; 6831545.366258248 ; 1.079146159218114E8 ; 2.724853289438605E7 ; 4.2400523452352136E8 ; 0.0
5 ; 6845110.835097686 ; 1.092986968237536E8 ; 3.4080078260644294E7 ; 5.3191985044533277E8 ; 0.0
6 ; 6859297.199621124 ; 1.1099223092778036E8 ; 4.092518909574198E7 ; 6.412185472690864E8 ; 0.0
7 ; 6883806.758537147 ; 1.129952542826494E8 ; 4.7784486295363106E7 ; 7.522107781968668E8 ; 0.0
8 ; 6915155.243818654 ; 1.153077967927658E8 ; 5.466829305390026E7 ; 8.652060324795161E8 ; 0.0
9 ; 6967303.493464147 ; 1.1792988090110314E8 ; 6.158344829771891E7 ; 9.805138292722819E8 ; 0.0
10 ; 7041235.1029324 ; 1.2086152053234476E8 ; 6.855075179118305E7 ; 1.0984437101733851E9 ; 0.0
11 ; 7167556.930343603 ; 1.24102720407276E8 ; 7.559198689411545E7 ; 1.21930523070573E9 ; 0.0
12 ; 7363813.328965979 ; 1.276534758051115E8 ; 8.275954382445905E7 ; 1.3434079511130059E9 ; 0.0
13 ; 7555822.682773834 ; 1.315137728011679E8 ; 9.012335715342502E7 ; 1.4710614269181173E9 ; 0.0
14 ; 7579688.758097722 ; 1.3568358895247173E8 ; 9.767917983619885E7 ; 1.6025751997192852E9 ; 0.0
15 ; 7586138.0773881385 ; 1.4016289435461777E8 ; 1.0525886859429657E8 ; 1.738258788671757E9 ; 0.0
16 ; 7598525.998549264 ; 1.4495165295884845E8 ; 1.1284500667168471E8 ; 1.8784216830263748E9 ; 0.0
17 ; 7602791.957024184 ; 1.5004982402389333E8 ; 1.2044353267023398E8 ; 2.0233733359852233E9 ; 0.0
18 ; 7613191.38314399 ; 1.55457363582299E8 ; 1.2804632462725817E8 ; 2.1734231600091166E9 ; 0.0
19 ; 7623877.322179729 ; 1.6117422582120034E8 ; 1.3565951601040214E8 ; 2.3288805235914154E9 ; 0.0
20 ; 7628824.361399942 ; 1.672003643060052E8 ; 1.4328339333258188E8 ; 2.490054749412616E9 ; 0.0
21 ; 7639742.048402994 ; 1.7353573300564358E8 ; 1.5091221769398183E8 ; 2.657255113718621E9 ; 0.0
22 ; 7647351.735664469 ; 1.8018028710487002E8 ; 1.5855195974238482E8 ; 2.830790846724264E9 ; 0.0
23 ; 7657386.409593069 ; 1.8713398360979855E8 ; 1.6619931147804928E8 ; 3.010971133829134E9 ; 0.0
24 ; 7669125.39275676 ; 1.943967817666155E8 ; 1.7385669788764235E8 ; 3.1981051174389324E9 ; 0.0
25 ; 7674581.201941646 ; 2.0065668421906272E8 ; 1.815258232803991E8 ; 3.392501899205548E9 ; 0.0
26 ; 7685227.957010056 ; 2.006672031751273E8 ; 1.8920040448234075E8 ; 3.5931585834246106E9 ; 0.0
27 ; 7692370.607895103 ; 2.0067807496121725E8 ; 1.968856324393508E8 ; 3.793825786599738E9 ; 0.0
28 ; 7698926.6315713385 ; 2.0068926922369856E8 ; 2.0457800304724592E8 ; 3.9945038615609555E9 ; 0.0
29 ; 7707996.514536952 ; 2.007007581244734E8 ; 2.1227692967881727E8 ; 4.195193130784654E9 ; 0.0
30 ; 7715652.097137447 ; 2.0071251620880032E8 ; 2.1998492619335422E8 ; 4.395893888909127E9 ; 0.0
31 ; 7726763.064367089 ; 2.0072452025260103E8 ; 2.2770057829049167E8 ; 4.596606405117928E9 ; 0.0
32 ; 7731057.081019834 ; 2.0073674909981278E8 ; 2.3542734135485876E8 ; 4.797330925370528E9 ; 0.0
33 ; 7741902.3589277165 ; 2.007491834974725E8 ; 2.4315839843587857E8 ; 4.998067674470341E9 ; 0.0
34 ; 7746705.2504233 ; 2.0076180593391332E8 ; 2.509003007948063E8 ; 5.1988168579678135E9 ; 0.0
35 ; 7753449.755148092 ; 2.0077460048365846E8 ; 2.586470060452296E8 ; 5.399578663901727E9 ; 0.0
36 ; 7761418.041560634 ; 2.0078755266124153E8 ; 2.664004558003777E8 ; 5.6003532643853855E9 ; 0.0
37 ; 7769657.909074884 ; 2.0080064928518292E8 ; 2.741618738419383E8 ; 5.801140817046627E9 ; 0.0
38 ; 7772913.424108199 ; 2.0081387835263667E8 ; 2.819315317510132E8 ; 6.00194146633181E9 ; 0.0
39 ; 7782071.043151755 ; 2.0082722892472473E8 ; 2.897044451751214E8 ; 6.202755344684446E9 ; 0.0
40 ; 7787546.777276239 ; 2.0084069102224487E8 ; 2.9748651621827316E8 ; 6.403582573609171E9 ; 0.0
41 ; 7793851.17267719 ; 2.0085425553122747E8 ; 3.052740629955494E8 ; 6.604423264631415E9 ; 0.0
42 ; 7795338.952116526 ; 2.0086791411769548E8 ; 3.130679141682266E8 ; 6.8052775201626425E9 ; 0.0
43 ; 7800702.443536719 ; 2.008816591509221E8 ; 3.2086325312034315E8 ; 7.006145434280338E9 ; 0.0
44 ; 7806216.713084529 ; 2.0089548363446495E8 ; 3.2866395556387985E8 ; 7.20702709343126E9 ; 0.0
45 ; 7810980.288771318 ; 2.0090938114426732E8 ; 3.3647017227696437E8 ; 7.407922577065725E9 ; 0.0
46 ; 7814285.596246637 ; 2.0092334577314898E8 ; 3.442811525657357E8 ; 7.608831958209992E9 ; 0.0
47 ; 7819589.736283173 ; 2.0093737208104968E8 ; 3.5209543816198236E8 ; 7.809755303983141E9 ; 0.0
48 ; 7821216.35269906 ; 2.0095145505043697E8 ; 3.5991502789826554E8 ; 8.010692676064191E9 ; 0.0
49 ; 7823200.081232063 ; 2.0096559004633898E8 ; 3.677362442509646E8 ; 8.211644131114628E9 ; 0.0
50 ; 7825860.691283167 ; 2.0097977278051245E8 ; 3.7555944433219665E8 ; 8.412609721160967E9 ; 0.0
51 ; 7829068.112426685 ; 2.0099399927930373E8 ; 3.833853050234798E8 ; 8.613589493941479E9 ; 0.0
52 ; 7830318.322609132 ; 2.010082658548046E8 ; 3.912143731359065E8 ; 8.814583493220783E9 ; 0.0
53 ; 7831467.372061368 ; 2.01022569078948E8 ; 3.9904469145851564E8 ; 9.015591759075588E9 ; 0.0
54 ; 7835516.737828296 ; 2.0103690576022443E8 ; 4.06876158830577E8 ; 9.216614328154535E9 ; 0.0
55 ; 7837787.841613022 ; 2.0105127292273661E8 ; 4.1471167556840533E8 ; 9.41765123391476E9 ; 0.0
56 ; 7841363.347562105 ; 2.0106566778733912E8 ; 4.225494634100183E8 ; 9.618702506837498E9 ; 0.0
57 ; 7841358.713501804 ; 2.0108008775463971E8 ; 4.3039082675758046E8 ; 9.819768174624836E9 ; 0.0
58 ; 7843023.733434602 ; 2.0109453038966238E8 ; 4.3823218547108227E8 ; 1.0020848262379477E10 ; 0.0
59 ; 7844663.1203900855 ; 2.011089934079953E8 ; 4.460752092045169E8 ; 1.0221942792769138E10 ; 0.0
60 ; 7847385.493677849 ; 2.0112347466326678E8 ; 4.5391987232490695E8 ; 1.0423051786177134E10 ; 0.0
61 ; 7846326.297328567 ; 2.0113797213580927E8 ; 4.617672578185848E8 ; 1.06241752608404E10 ; 0.0
62 ; 7846409.540555927 ; 2.0115248392238775E8 ; 4.696135841159134E8 ; 1.082531323297621E10 ; 0.0
63 ; 7850718.681762389 ; 2.0116700822688213E8 ; 4.7745999365646935E8 ; 1.1026465716898598E10 ; 0.0
64 ; 7850669.223322815 ; 2.0118154335182595E8 ; 4.8531071233823174E8 ; 1.122763272512548E10 ; 0.0
65 ; 7849844.077596869 ; 2.0119608769071388E8 ; 4.9316138156155455E8 ; 1.1428814268477306E10 ; 0.0
66 ; 7852228.076138045 ; 2.0121063972100097E8 ; 5.010112256391514E8 ; 1.163001035616802E10 ; 0.0
67 ; 7854654.77926203 ; 2.012251979977239E8 ; 5.088634537152894E8 ; 1.183122099588902E10 ; 0.0
68 ; 7853244.124278949 ; 2.012397611476834E8 ; 5.167181084945514E8 ; 1.2032446193886745E10 ; 0.0
69 ; 7856972.036638768 ; 2.0125432786413193E8 ; 5.245713526188304E8 ; 1.223368595503443E10 ; 0.0
70 ; 7855888.579826487 ; 2.012688969019184E8 ; 5.324283246554692E8 ; 1.2434940282898561E10 ; 0.0
71 ; 7856579.784639107 ; 2.012834670730455E8 ; 5.402842132352957E8 ; 1.263620917980048E10 ; 0.0
72 ; 7856746.352318548 ; 2.0129803724260026E8 ; 5.481407930199348E8 ; 1.2837492646873526E10 ; 0.0
73 ; 7857043.915909798 ; 2.0131260632502332E8 ; 5.559975393722533E8 ; 1.3038790684116125E10 ; 0.0
74 ; 7857452.702667394 ; 2.013271732806844E8 ; 5.638545832881631E8 ; 1.3240103290441149E10 ; 0.0
75 ; 7859525.640422537 ; 2.0134173711273643E8 ; 5.717120359908304E8 ; 1.3441430463721832E10 ; 0.0
76 ; 7861123.496503742 ; 2.013562968642225E8 ; 5.79571561631253E8 ; 1.3642772200834568E10 ; 0.0
77 ; 7857707.694433941 ; 2.013708516154129E8 ; 5.874326851277567E8 ; 1.384412849769879E10 ; 0.0
78 ; 7856610.245706581 ; 2.0138540048135146E8 ; 5.952903928221906E8 ; 1.4045499349314203E10 ; 0.0
79 ; 7852757.808813285 ; 2.0139994260959297E8 ; 6.031470030678972E8 ; 1.4246884749795555E10 ; 0.0
80 ; 7852917.052291405 ; 2.014144771781145E8 ; 6.109997608767105E8 ; 1.4448284692405148E10 ; 0.0
81 ; 7850064.302436242 ; 2.0142900339338586E8 ; 6.188526779290019E8 ; 1.4649699169583261E10 ; 0.0
82 ; 7848811.588035534 ; 2.014435204885853E8 ; 6.267027422314382E8 ; 1.4851128172976646E10 ; 0.0
83 ; 7847578.353664536 ; 2.0145802772194827E8 ; 6.345515538194737E8 ; 1.505257169346523E10 ; 0.0
84 ; 7842678.301328779 ; 2.014725243752378E8 ; 6.423991321731383E8 ; 1.525402972118718E10 ; 0.0
85 ; 7842218.521153061 ; 2.0148700975232652E8 ; 6.50241810474467E8 ; 1.5455502245562418E10 ; 0.0
86 ; 7837881.224283 ; 2.0150148317788133E8 ; 6.580840289956201E8 ; 1.5656989255314745E10 ; 0.0
87 ; 7837013.153821598 ; 2.015159439961416E8 ; 6.659219102199031E8 ; 1.5858490738492626E10 ; 0.0
88 ; 7831243.81441587 ; 2.0153039156978422E8 ; 6.737589233737247E8 ; 1.6060006682488768E10 ; 0.0
89 ; 7829845.511702461 ; 2.0154482527886793E8 ; 6.815901671881405E8 ; 1.6261537074058552E10 ; 0.0
90 ; 7827322.43907502 ; 2.0155924451985094E8 ; 6.894200126998429E8 ; 1.646308189933742E10 ; 0.0
91 ; 7823932.890084356 ; 2.0157364870467588E8 ; 6.972473351389179E8 ; 1.6664641143857271E10 ; 0.0
92 ; 7819259.1550924275 ; 2.0158803725991702E8 ; 7.050712680290023E8 ; 1.6866214792561947E10 ; 0.0
93 ; 7816966.188966236 ; 2.016024096259849E8 ; 7.128905271840948E8 ; 1.7067802829821863E10 ; 0.0
94 ; 7814642.854723642 ; 2.0161676525638396E8 ; 7.207074933730611E8 ; 1.726940523944785E10 ; 0.0
95 ; 7812612.112982314 ; 2.016311036170191E8 ; 7.285221362277848E8 ; 1.7471022004704235E10 ; 0.0
96 ; 7803901.159945774 ; 2.016454241855478E8 ; 7.36334748340767E8 ; 1.7672653108321255E10 ; 0.0
97 ; 7801034.101506732 ; 2.016597264507741E8 ; 7.441386495007128E8 ; 1.78742985325068E10 ; 0.0
98 ; 7801111.431889765 ; 2.0167400991208136E8 ; 7.519396836022195E8 ; 1.8075958258957577E10 ; 0.0
99 ; 7793157.804552429 ; 2.016882740789014E8 ; 7.597407950341092E8 ; 1.827763226886966E10 ; 0.0
100 ; 7790607.966321005 ; 2.0170251847021684E8 ; 7.675339528386617E8 ; 1.8479320542948563E10 ; 0.0
101 ; 7787635.980067053 ; 2.0171674261409467E8 ; 7.753245608049827E8 ; 1.868102306141878E10 ; 0.0
102 ; 7785647.8894585455 ; 2.0173094604724863E8 ; 7.831121967850497E8 ; 1.8882739804032875E10 ; 0.0
103 ; 7782342.210798092 ; 2.0174512831462857E8 ; 7.908978446745082E8 ; 1.9084470750080124E10 ; 0.0
104 ; 7776535.992796638 ; 2.0175928896903464E8 ; 7.986801868853064E8 ; 1.9286215878394753E10 ; 0.0
105 ; 7773218.589457418 ; 2.0177342757075498E8 ; 8.06456722878103E8 ; 1.948797516736379E10 ; 0.0
106 ; 7767845.664326532 ; 2.0178754368722475E8 ; 8.142299414675604E8 ; 1.9689748594934544E10 ; 0.0
107 ; 7763847.829256655 ; 2.018016368927058E8 ; 8.21997787131887E8 ; 1.989153613862177E10 ; 0.0
108 ; 7760020.019377946 ; 2.0181570676798484E8 ; 8.297616349611436E8 ; 2.0093337775514473E10 ; 0.0
109 ; 7756251.519768353 ; 2.0182975290008956E8 ; 8.375216549805216E8 ; 2.029515348228246E10 ; 0.0
110 ; 7749895.292827417 ; 2.018437748820208E8 ; 8.452779065002899E8 ; 2.049698323518255E10 ; 0.0
111 ; 7744797.175129731 ; 2.018577723125005E8 ; 8.530278017931173E8 ; 2.0698827010064568E10 ; 0.0
112 ; 7743576.640205265 ; 2.018717447957338E8 ; 8.60772598968247E8 ; 2.0900684782377068E10 ; 0.0
113 ; 7738713.436762768 ; 2.0188569194118458E8 ; 8.685161756084523E8 ; 2.1102556527172802E10 ; 0.0
114 ; 7734580.226758201 ; 2.018996133633638E8 ; 8.762548890452151E8 ; 2.1304442219113987E10 ; 0.0
115 ; 7728988.44682854 ; 2.0191350868162942E8 ; 8.839894692719734E8 ; 2.1506341832477352E10 ; 0.0
116 ; 7720685.96680779 ; 2.019273775199975E8 ; 8.917184577188019E8 ; 2.170825534115898E10 ; 0.0
117 ; 7718371.428987459 ; 2.019412195069637E8 ; 8.994391436856097E8 ; 2.1910182718678978E10 ; 0.0
118 ; 7712264.454544403 ; 2.0195503427533454E8 ; 9.071575151145972E8 ; 2.211212393818594E10 ; 0.0
119 ; 7705882.571864941 ; 2.0196882146206754E8 ; 9.148697795691416E8 ; 2.2314078972461273E10 ; 0.0
120 ; 7703463.889590142 ; 2.0198258070812052E8 ; 9.225756621410066E8 ; 2.251604779392334E10 ; 0.0
121 ; 7694312.486790299 ; 2.0199631165830824E8 ; 9.302791260305967E8 ; 2.2718030374631462E10 ; 0.0
122 ; 7692603.663806981 ; 2.0201001396116734E8 ; 9.37973438517387E8 ; 2.2920026686289772E10 ; 0.0
123 ; 7687744.607521844 ; 2.0202368726882783E8 ; 9.456660421811941E8 ; 2.312203670025094E10 ; 0.0
124 ; 7678427.021394904 ; 2.0203733123689178E8 ; 9.53353786788716E8 ; 2.3324060387519768E10 ; 0.0
125 ; 7673990.60980293 ; 2.020509455243181E8 ; 9.610322138101108E8 ; 2.352609771875666E10 ; 0.0
126 ; 7673108.946129358 ; 2.0206452979331324E8 ; 9.687062044199138E8 ; 2.372814866428098E10 ; 0.0
127 ; 7662891.182803898 ; 2.0207808370922768E8 ; 9.763793133660431E8 ; 2.393021319407429E10 ; 0.0
128 ; 7657179.218716025 ; 2.020916069404576E8 ; 9.84042204548847E8 ; 2.413229127778352E10 ; 0.0
129 ; 7650655.777188295 ; 2.021050991583517E8 ; 9.91699383767563E8 ; 2.4334382884723976E10 ; 0.0
130 ; 7643711.598751718 ; 2.0211856003712252E8 ; 9.993500395447513E8 ; 2.4536487983882328E10 ; 0.0
131 ; 7637094.291570968 ; 2.0213198925376242E8 ; 1.006993751143503E9 ; 2.473860654391945E10 ; 0.0
132 ; 7630645.09258834 ; 2.0214538648796377E8 ; 1.014630845435074E9 ; 2.494073853317321E10 ; 0.0
133 ; 7617240.03083171 ; 2.0215875142204294E8 ; 1.0222614905276623E9 ; 2.5142883919661175E10 ; 0.0
134 ; 7609041.192415819 ; 2.0217208374086818E8 ; 1.029878730558494E9 ; 2.5345042671083218E10 ; 0.0
135 ; 7601710.402271329 ; 2.0218538313179117E8 ; 1.0374877717509098E9 ; 2.5547214754824085E10 ; 0.0
136 ; 7593395.513373733 ; 2.021986492845818E8 ; 1.0450894821531811E9 ; 2.5749400137955875E10 ; 0.0
137 ; 7584581.150309952 ; 2.022118818913661E8 ; 1.0526828776665548E9 ; 2.5951598787240456E10 ; 0.0
138 ; 7574873.750586725 ; 2.022250806465673E8 ; 1.0602674588168647E9 ; 2.615381066913182E10 ; 0.0
139 ; 7567077.703309859 ; 2.0223824524684978E8 ; 1.0678423325674515E9 ; 2.635603574977839E10 ; 0.0
140 ; 7560261.6146879755 ; 2.022513753910656E8 ; 1.0754094102707613E9 ; 2.6558273995025238E10 ; 0.0
141 ; 7550745.694193872 ; 2.0226447078020373E8 ; 1.0829696718854492E9 ; 2.6760525370416306E10 ; 0.0
142 ; 7536741.672159734 ; 2.0227753111734167E8 ; 1.090520417579643E9 ; 2.696278984119651E10 ; 0.0
143 ; 7529564.649942677 ; 2.0229055610759938E8 ; 1.0980571592518027E9 ; 2.716506737231385E10 ; 0.0
144 ; 7521228.641160261 ; 2.0230354545809534E8 ; 1.1055867239017453E9 ; 2.736735792842145E10 ; 0.0
145 ; 7516009.599684546 ; 2.0231649887790495E8 ; 1.1131079525429056E9 ; 2.7569661473879547E10 ; 0.0
146 ; 7509530.389955069 ; 2.023294160780206E8 ; 1.12062396214259E9 ; 2.7771977972757454E10 ; 0.0
147 ; 7502178.448166064 ; 2.023422967713138E8 ; 1.128133492532545E9 ; 2.7974307388835476E10 ; 0.0
148 ; 7495660.027752897 ; 2.0235514067249903E8 ; 1.1356356709807112E9 ; 2.817664968560679E10 ; 0.0
149 ; 7488273.164985323 ; 2.0236794749809936E8 ; 1.143131331008464E9 ; 2.837900482627929E10 ; 0.0
150 ; 7482037.325996686 ; 2.0238071696641368E8 ; 1.1506196041734495E9 ; 2.858137277377739E10 ; 0.0
151 ; 7474711.691888494 ; 2.023934487974854E8 ; 1.1581016414994462E9 ; 2.8783753490743805E10 ; 0.0
152 ; 7468585.043598687 ; 2.0240614271307272E8 ; 1.1655763531913347E9 ; 2.898614693954129E10 ; 0.0
153 ; 7465704.816718901 ; 2.0241879843662006E8 ; 1.1730449382349334E9 ; 2.9188553082254364E10 ; 0.0
154 ; 7453355.326080723 ; 2.0243141569323125E8 ; 1.1805106430516522E9 ; 2.9390971880690983E10 ; 0.0
155 ; 7449123.004935754 ; 2.0244399420964354E8 ; 1.187963998377733E9 ; 2.9593403296384212E10 ; 0.0
156 ; 7440518.551014341 ; 2.024565337142031E8 ; 1.1954131213826687E9 ; 2.9795847290593857E10 ; 0.0
157 ; 7436076.349707251 ; 2.024690339368415E8 ; 1.2028536399336832E9 ; 2.999830382430806E10 ; 0.0
158 ; 7425247.4097989695 ; 2.0248149460905343E8 ; 1.2102897162833905E9 ; 3.02007728582449E10 ; 0.0
159 ; 7420679.982762186 ; 2.024939154638754E8 ; 1.2177149636931894E9 ; 3.0403254352853954E10 ; 0.0
160 ; 7412688.844688357 ; 2.025062962358654E8 ; 1.2251356436759515E9 ; 3.060574826831783E10 ; 0.0
161 ; 7404929.569320236 ; 2.0251863666108352E8 ; 1.23254833252064E9 ; 3.0808254564553696E10 ; 0.0
162 ; 7398150.586613028 ; 2.025309364770735E8 ; 1.23995326208996E9 ; 3.101077320121478E10 ; 0.0
163 ; 7394344.701215887 ; 2.025431954228452E8 ; 1.247351412676573E9 ; 3.1213304137691853E10 ; 0.0
164 ; 7385491.479253282 ; 2.0255541323885795E8 ; 1.254745757377789E9 ; 3.1415847333114697E10 ; 0.0
165 ; 7378340.415457036 ; 2.0256758966700423E8 ; 1.2621312488570423E9 ; 3.1618402746353554E10 ; 0.0
166 ; 7369120.762155496 ; 2.0257972445059484E8 ; 1.2695095892724993E9 ; 3.1820970336020557E10 ; 0.0
167 ; 7364120.904310337 ; 2.025918173343442E8 ; 1.2768787100346549E9 ; 3.2023550060471153E10 ; 0.0
168 ; 7359271.810286543 ; 2.0260386806435663E8 ; 1.284242830938965E9 ; 3.2226141877805496E10 ; 0.0
169 ; 7350684.266460462 ; 2.0261587638811314E8 ; 1.2916021027492516E9 ; 3.2428745745869854E10 ; 0.0
170 ; 7343868.020699915 ; 2.0262784205445904E8 ; 1.298952787015712E9 ; 3.263136162225797E10 ; 0.0
171 ; 7334151.890152412 ; 2.0263976481359187E8 ; 1.306296655036412E9 ; 3.2833989464312428E10 ; 0.0
172 ; 7328314.3448503055 ; 2.0265164441705015E8 ; 1.3136308069265645E9 ; 3.303662922912602E10 ; 0.0
173 ; 7322151.04553919 ; 2.0266348061770263E8 ; 1.3209591212714148E9 ; 3.3239280873543068E10 ; 0.0
174 ; 7312964.426063579 ; 2.02675273169738E8 ; 1.328281272316954E9 ; 3.344194435416077E10 ; 0.0
175 ; 7312467.9804763 ; 2.0268702182865512E8 ; 1.3355942367430174E9 ; 3.364461962733051E10 ; 0.0
176 ; 7305261.730386667 ; 2.0269872635125375E8 ; 1.3429067047234938E9 ; 3.3847306649159164E10 ; 0.0
177 ; 7302886.354466182 ; 2.027103864956258E8 ; 1.3502119664538805E9 ; 3.4050005375510418E10 ; 0.0
178 ; 7299220.529242656 ; 2.0272200202114692E8 ; 1.3575148528083467E9 ; 3.4252715762006042E10 ; 0.0
179 ; 7294867.241461991 ; 2.0273357268846858E8 ; 1.3648140733375895E9 ; 3.445543776402719E10 ; 0.0
180 ; 7289046.166261411 ; 2.0274509825951052E8 ; 1.3721089405790515E9 ; 3.465817133671566E10 ; 0.0
181 ; 7283161.98411613 ; 2.0275657849745366E8 ; 1.379397986745313E9 ; 3.4860916434975174E10 ; 0.0
182 ; 7278237.56078253 ; 2.0276801316673326E8 ; 1.386681148729429E9 ; 3.5063673013472626E10 ; 0.0
183 ; 7279968.878962478 ; 2.0277940203303257E8 ; 1.3939593862902114E9 ; 3.526644102663936E10 ; 0.0
184 ; 7269667.875481899 ; 2.0279074486327672E8 ; 1.401239355169174E9 ; 3.546922042867239E10 ; 0.0
185 ; 7267990.884412892 ; 2.02802041425627E8 ; 1.4085090230446558E9 ; 3.567201117353567E10 ; 0.0
186 ; 7264178.33258361 ; 2.028132914894755E8 ; 1.4157770139290688E9 ; 3.5874813214961296E10 ; 0.0
187 ; 7259727.873295394 ; 2.0282449482543978E8 ; 1.4230411922616525E9 ; 3.6077626506450775E10 ; 0.0
188 ; 7254062.853741774 ; 2.0283565120535836E8 ; 1.4303009201349478E9 ; 3.6280451001276215E10 ; 0.0
189 ; 7251236.309925561 ; 2.0284676040228584E8 ; 1.4375549829886897E9 ; 3.6483286652481575E10 ; 0.0
190 ; 7246272.162527903 ; 2.0285782219048885E8 ; 1.4448062192986152E9 ; 3.668613341288386E10 ; 0.0
191 ; 7238785.716231248 ; 2.0286883634544188E8 ; 1.452052491461143E9 ; 3.688899123507435E10 ; 0.0
192 ; 7236845.502370704 ; 2.0287980264382356E8 ; 1.4592912771773744E9 ; 3.709186007141979E10 ; 0.0
193 ; 7229647.295371553 ; 2.0289072086351308E8 ; 1.466528122679745E9 ; 3.7294739874063614E10 ; 0.0
194 ; 7225759.493085214 ; 2.0290159078358692E8 ; 1.4737577699751165E9 ; 3.7497630594927124E10 ; 0.0
195 ; 7223575.451012923 ; 2.029124121843156E8 ; 1.4809835294682016E9 ; 3.770053218571071E10 ; 0.0
196 ; 7217490.781518928 ; 2.0292318484716097E8 ; 1.4882071049192145E9 ; 3.790344459789503E10 ; 0.0
197 ; 7215348.063007306 ; 2.0293390855477333E8 ; 1.4954245957007334E9 ; 3.810636778274219E10 ; 0.0
198 ; 7209070.642176299 ; 2.029445830909891E8 ; 1.5026399437637408E9 ; 3.830930169129696E10 ; 0.0
199 ; 7206160.816631874 ; 2.029552082408283E8 ; 1.5098490144059172E9 ; 3.851224627438795E10 ; 0.0
200 ; 7199590.771012806 ; 2.0296578379049253E8 ; 1.517055175222549E9 ; 3.871520148262878E10 ; 0.0
201 ; 7195990.731546891 ; 1.787722927651467E8 ; 1.5242547659935617E9 ; 3.8918167266419266E10 ; 0.0
