CSV File for the City 4 on Day 4
1 - Minute m 
2 - Power Consumed at minute m 
3 - Power Produced at minute m 
4 - Energy Consumed since the beginning of the day 
5 - Energy Produced since the beginning of the day 
6 - Energy Lost since the beginning of the day on lines starting from the city
 
0 ; 4723654.957530259 ; 5.122804699635937E7 ; 0.0 ; 0.0 ; 0.0
1 ; 4725984.532332931 ; 5.138236798401367E7 ; 4723654.957530259 ; 5.122804699635937E7 ; 613.6199999999999
2 ; 4733509.645404373 ; 5.1845330946976624E7 ; 9449639.48986319 ; 1.0261041498037304E8 ; 1227.2399999999998
3 ; 4739398.995328422 ; 5.261693588524824E7 ; 1.4183149135267563E7 ; 1.5445574592734966E8 ; 1840.8599999999997
4 ; 4744652.091189728 ; 5.3697182798828475E7 ; 1.8922548130595986E7 ; 2.070726818125979E8 ; 2454.4799999999996
5 ; 4751897.929093628 ; 5.508607168771737E7 ; 2.3667200221785713E7 ; 2.6076986461142638E8 ; 3068.0999999999995
6 ; 4762529.538410325 ; 5.678360255191489E7 ; 2.8419098150879342E7 ; 3.1585593629914373E8 ; 3681.7199999999993
7 ; 4778925.908960851 ; 5.878977539142107E7 ; 3.3181627689289667E7 ; 3.726395388510586E8 ; 4295.339999999999
8 ; 4800892.414727689 ; 6.110459020623588E7 ; 3.7960553598250516E7 ; 4.314293142424797E8 ; 4908.959999999999
9 ; 4833392.7276432365 ; 6.372804699635934E7 ; 4.27614460129782E7 ; 4.9253390444871557E8 ; 5522.579999999999
10 ; 4882566.951860371 ; 6.666014576179146E7 ; 4.759483874062144E7 ; 5.562619514450749E8 ; 6136.199999999999
11 ; 4964185.650985823 ; 6.990088650253221E7 ; 5.247740569248181E7 ; 6.229220972068664E8 ; 6749.819999999999
12 ; 5091661.371531184 ; 7.345026921858159E7 ; 5.744159134346763E7 ; 6.928229837093986E8 ; 7363.439999999999
13 ; 5211713.6264659725 ; 7.730829390993959E7 ; 6.253325271499881E7 ; 7.662732529279802E8 ; 7977.059999999999
14 ; 5228603.431365276 ; 8.147496057660627E7 ; 6.774496634146479E7 ; 8.435815468379197E8 ; 8590.679999999998
15 ; 5232094.508234131 ; 8.595026921858156E7 ; 7.297356977283007E7 ; 9.25056507414526E8 ; 9204.3
16 ; 5238828.512649922 ; 9.073421983586553E7 ; 7.82056642810642E7 ; 1.0110067766331075E9 ; 9817.919999999998
17 ; 5246049.792900712 ; 9.582681242845812E7 ; 8.344449279371412E7 ; 1.1017409964689732E9 ; 10431.539999999997
18 ; 5251742.538432271 ; 1.0122804699635935E8 ; 8.869054258661483E7 ; 1.1975678088974314E9 ; 11045.159999999996
19 ; 5258511.805494245 ; 1.0693792353956923E8 ; 9.39422851250471E7 ; 1.2987958558937907E9 ; 11658.779999999995
20 ; 5263739.542556053 ; 1.1295644205808774E8 ; 9.920079693054135E7 ; 1.4057337794333599E9 ; 12272.399999999994
21 ; 5270775.569110694 ; 1.192836025519149E8 ; 1.044645364730974E8 ; 1.5186902214914477E9 ; 12886.019999999993
22 ; 5276109.683592694 ; 1.2591940502105069E8 ; 1.0973531204220809E8 ; 1.6379738240433626E9 ; 13499.639999999992
23 ; 5280079.308265858 ; 1.3286384946549517E8 ; 1.1501142172580078E8 ; 1.7638932290644133E9 ; 14113.259999999991
24 ; 5286958.250180659 ; 1.4011693588524824E8 ; 1.2029150103406665E8 ; 1.8967570785299084E9 ; 14726.87999999999
25 ; 5293287.185249309 ; 1.4636670517849344E8 ; 1.2557845928424731E8 ; 2.0368740144151566E9 ; 15340.499999999989
26 ; 5297887.502965443 ; 1.4636670517849344E8 ; 1.3087174646949662E8 ; 2.18324071959365E9 ; 15954.119999999988
27 ; 5304883.2081600595 ; 1.4636670517849344E8 ; 1.3616963397246206E8 ; 2.3296074247721434E9 ; 16567.739999999987
28 ; 5309340.548211291 ; 1.4636670517849344E8 ; 1.4147451718062213E8 ; 2.475974129950637E9 ; 17181.359999999986
29 ; 5316835.980861275 ; 1.4636670517849344E8 ; 1.4678385772883344E8 ; 2.6223408351291304E9 ; 17794.979999999985
30 ; 5320924.245113724 ; 1.4636670517849344E8 ; 1.521006937096947E8 ; 2.768707540307624E9 ; 18408.599999999984
31 ; 5325501.103925133 ; 1.4636670517849344E8 ; 1.5742161795480844E8 ; 2.9150742454861174E9 ; 19022.219999999983
32 ; 5330996.8886416685 ; 1.4636670517849344E8 ; 1.6274711905873358E8 ; 3.061440950664611E9 ; 19635.839999999982
33 ; 5338859.5725643495 ; 1.4636670517849344E8 ; 1.6807811594737524E8 ; 3.2078076558431044E9 ; 20249.45999999998
34 ; 5341682.786432664 ; 1.4636670517849344E8 ; 1.734169755199396E8 ; 3.354174361021598E9 ; 20863.07999999998
35 ; 5346287.719637644 ; 1.4636670517849344E8 ; 1.7875865830637226E8 ; 3.5005410662000914E9 ; 21476.69999999998
36 ; 5351612.9474890875 ; 1.4636670517849344E8 ; 1.841049460260099E8 ; 3.646907771378585E9 ; 22090.319999999978
37 ; 5354330.337378121 ; 1.4636670517849344E8 ; 1.8945655897349897E8 ; 3.7932744765570784E9 ; 22703.939999999977
38 ; 5361243.259232563 ; 1.4636670517849344E8 ; 1.9481088931087708E8 ; 3.939641181735572E9 ; 23317.559999999976
39 ; 5364419.641785185 ; 1.4636670517849344E8 ; 2.0017213257010964E8 ; 4.0860078869140654E9 ; 23931.179999999975
40 ; 5366611.851131804 ; 1.4636670517849344E8 ; 2.055365522118948E8 ; 4.232374592092559E9 ; 24544.799999999974
41 ; 5371394.675596827 ; 1.4636670517849344E8 ; 2.109031640630266E8 ; 4.378741297271052E9 ; 25158.419999999973
42 ; 5377518.171002813 ; 1.4636670517849344E8 ; 2.1627455873862344E8 ; 4.525108002449546E9 ; 25772.03999999997
43 ; 5378977.798066114 ; 1.4636670517849344E8 ; 2.2165207690962625E8 ; 4.671474707628039E9 ; 26385.65999999997
44 ; 5382806.695562181 ; 1.4636670517849344E8 ; 2.2703105470769235E8 ; 4.817841412806533E9 ; 26999.27999999997
45 ; 5384603.711151507 ; 1.4636670517849344E8 ; 2.3241386140325454E8 ; 4.964208117985026E9 ; 27612.89999999997
46 ; 5387586.412513505 ; 1.4636670517849344E8 ; 2.3779846511440605E8 ; 5.11057482316352E9 ; 28226.519999999968
47 ; 5389988.278876327 ; 1.4636670517849344E8 ; 2.4318605152691954E8 ; 5.256941528342013E9 ; 28840.139999999967
48 ; 5392042.9019148005 ; 1.4636670517849344E8 ; 2.4857603980579588E8 ; 5.403308233520507E9 ; 29453.759999999966
49 ; 5394253.180261192 ; 1.4636670517849344E8 ; 2.5396808270771068E8 ; 5.549674938699E9 ; 30067.379999999965
50 ; 5393456.4329184955 ; 1.4636670517849344E8 ; 2.5936233588797188E8 ; 5.696041643877494E9 ; 30680.999999999964
51 ; 5397288.502330781 ; 1.4636670517849344E8 ; 2.6475579232089037E8 ; 5.842408349055987E9 ; 31294.619999999963
52 ; 5399767.765537241 ; 1.4636670517849344E8 ; 2.7015308082322115E8 ; 5.988775054234481E9 ; 31908.23999999996
53 ; 5399495.921969002 ; 1.4636670517849344E8 ; 2.755528485887584E8 ; 6.135141759412974E9 ; 32521.85999999996
54 ; 5399878.543738144 ; 1.4636670517849344E8 ; 2.809523445107274E8 ; 6.281508464591468E9 ; 33135.47999999996
55 ; 5401123.529968967 ; 1.4636670517849344E8 ; 2.8635222305446553E8 ; 6.427875169769961E9 ; 33749.09999999996
56 ; 5404791.687795618 ; 1.4636670517849344E8 ; 2.917533465844345E8 ; 6.574241874948455E9 ; 34362.719999999965
57 ; 5401615.941343709 ; 1.4636670517849344E8 ; 2.9715813827223015E8 ; 6.720608580126948E9 ; 34976.33999999997
58 ; 5405017.494714868 ; 1.4636670517849344E8 ; 3.025597542135739E8 ; 6.866975285305442E9 ; 35589.95999999997
59 ; 5409341.672110422 ; 1.4636670517849344E8 ; 3.079647717082887E8 ; 7.013341990483935E9 ; 36203.57999999997
60 ; 5409551.3713734625 ; 1.4636670517849344E8 ; 3.1337411338039917E8 ; 7.159708695662429E9 ; 36817.199999999975
61 ; 5409839.889019978 ; 1.4636670517849344E8 ; 3.1878366475177264E8 ; 7.306075400840922E9 ; 37430.81999999998
62 ; 5410483.417528319 ; 1.4636670517849344E8 ; 3.241935046407926E8 ; 7.452442106019416E9 ; 38044.43999999998
63 ; 5410713.575653799 ; 1.4636670517849344E8 ; 3.2960398805832094E8 ; 7.598808811197909E9 ; 38658.05999999998
64 ; 5411505.940073309 ; 1.4636670517849344E8 ; 3.3501470163397473E8 ; 7.745175516376403E9 ; 39271.679999999986
65 ; 5412476.357038186 ; 1.4636670517849344E8 ; 3.4042620757404804E8 ; 7.891542221554896E9 ; 39885.29999999999
66 ; 5413843.367082152 ; 1.4636670517849344E8 ; 3.4583868393108624E8 ; 8.03790892673339E9 ; 40498.91999999999
67 ; 5416602.001410929 ; 1.4636670517849344E8 ; 3.512525272981684E8 ; 8.184275631911883E9 ; 41112.53999999999
68 ; 5417181.290998934 ; 1.4636670517849344E8 ; 3.566691292995793E8 ; 8.330642337090377E9 ; 41726.159999999996
69 ; 5415797.081228385 ; 1.4636670517849344E8 ; 3.6208631059057826E8 ; 8.47700904226887E9 ; 42339.78
70 ; 5417462.364826137 ; 1.4636670517849344E8 ; 3.6750210767180663E8 ; 8.623375747447363E9 ; 42953.4
71 ; 5417381.089287311 ; 1.4636670517849344E8 ; 3.729195700366328E8 ; 8.769742452625856E9 ; 43567.020000000004
72 ; 5416559.658238843 ; 1.4636670517849344E8 ; 3.7833695112592006E8 ; 8.91610915780435E9 ; 44180.64000000001
73 ; 5417834.310665916 ; 1.4636670517849344E8 ; 3.837535107841589E8 ; 9.062475862982843E9 ; 44794.26000000001
74 ; 5419343.214993512 ; 1.4636670517849344E8 ; 3.891713450948248E8 ; 9.208842568161337E9 ; 45407.88000000001
75 ; 5419259.7511418145 ; 1.4636670517849344E8 ; 3.945906883098183E8 ; 9.35520927333983E9 ; 46021.500000000015
76 ; 5418183.7611548565 ; 1.4636670517849344E8 ; 4.000099480609601E8 ; 9.501575978518324E9 ; 46635.12000000002
77 ; 5421593.446742773 ; 1.4636670517849344E8 ; 4.0542813182211494E8 ; 9.647942683696817E9 ; 47248.74000000002
78 ; 5416325.383447506 ; 1.4636670517849344E8 ; 4.108497252688577E8 ; 9.79430938887531E9 ; 47862.36000000002
79 ; 5415020.943526497 ; 1.4636670517849344E8 ; 4.1626605065230525E8 ; 9.940676094053804E9 ; 48475.980000000025
80 ; 5412729.281013737 ; 1.4636670517849344E8 ; 4.2168107159583175E8 ; 1.0087042799232298E10 ; 49089.60000000003
81 ; 5414274.172748554 ; 1.4636670517849344E8 ; 4.270938008768455E8 ; 1.0233409504410791E10 ; 49703.22000000003
82 ; 5410694.7180632055 ; 1.4636670517849344E8 ; 4.3250807504959404E8 ; 1.0379776209589285E10 ; 50316.84000000003
83 ; 5410181.096068915 ; 1.4636670517849344E8 ; 4.379187697676573E8 ; 1.0526142914767778E10 ; 50930.460000000036
84 ; 5408721.856704893 ; 1.4636670517849344E8 ; 4.433289508637262E8 ; 1.0672509619946272E10 ; 51544.08000000004
85 ; 5406916.9981327085 ; 1.4636670517849344E8 ; 4.487376727204311E8 ; 1.0818876325124765E10 ; 52157.70000000004
86 ; 5406751.892603312 ; 1.4636670517849344E8 ; 4.541445897185638E8 ; 1.0965243030303259E10 ; 52771.32000000004
87 ; 5405467.602961191 ; 1.4636670517849344E8 ; 4.5955134161116713E8 ; 1.1111609735481752E10 ; 53384.940000000046
88 ; 5402188.125771191 ; 1.4636670517849344E8 ; 4.649568092141283E8 ; 1.1257976440660246E10 ; 53998.56000000005
89 ; 5398642.373998606 ; 1.4636670517849344E8 ; 4.703589973398995E8 ; 1.140434314583874E10 ; 54612.18000000005
90 ; 5397025.095367082 ; 1.4636670517849344E8 ; 4.7575763971389806E8 ; 1.1550709851017233E10 ; 55225.800000000054
91 ; 5398024.193098159 ; 1.4636670517849344E8 ; 4.8115466480926514E8 ; 1.1697076556195726E10 ; 55839.42000000006
92 ; 5394304.93361018 ; 1.4636670517849344E8 ; 4.865526890023633E8 ; 1.184344326137422E10 ; 56453.04000000006
93 ; 5393043.986245046 ; 1.4636670517849344E8 ; 4.919469939359735E8 ; 1.1989809966552713E10 ; 57066.66000000006
94 ; 5389832.322892178 ; 1.4636670517849344E8 ; 4.9734003792221856E8 ; 1.2136176671731207E10 ; 57680.280000000064
95 ; 5387927.42890805 ; 1.4636670517849344E8 ; 5.0272987024511075E8 ; 1.22825433769097E10 ; 58293.90000000007
96 ; 5387071.732671422 ; 1.4636670517849344E8 ; 5.081177976740188E8 ; 1.2428910082088194E10 ; 58907.52000000007
97 ; 5383529.881087422 ; 1.4636670517849344E8 ; 5.1350486940669024E8 ; 1.2575276787266687E10 ; 59521.14000000007
98 ; 5381231.495932979 ; 1.4636670517849344E8 ; 5.1888839928777766E8 ; 1.272164349244518E10 ; 60134.760000000075
99 ; 5379510.135167558 ; 1.4636670517849344E8 ; 5.2426963078371066E8 ; 1.2868010197623674E10 ; 60748.38000000008
100 ; 5376291.8106069155 ; 1.4636670517849344E8 ; 5.296491409188782E8 ; 1.3014376902802168E10 ; 61362.00000000008
101 ; 5374679.768930209 ; 1.4636670517849344E8 ; 5.350254327294851E8 ; 1.3160743607980661E10 ; 61975.62000000008
102 ; 5371235.298993147 ; 1.4636670517849344E8 ; 5.404001124984154E8 ; 1.3307110313159155E10 ; 62589.240000000085
103 ; 5368925.422359237 ; 1.4636670517849344E8 ; 5.457713477974085E8 ; 1.3453477018337648E10 ; 63202.86000000009
104 ; 5368194.720604418 ; 1.4636670517849344E8 ; 5.511402732197677E8 ; 1.3599843723516142E10 ; 63816.48000000009
105 ; 5362258.638840727 ; 1.4636670517849344E8 ; 5.565084679403721E8 ; 1.3746210428694635E10 ; 64430.10000000009
106 ; 5358889.028220575 ; 1.4636670517849344E8 ; 5.618707265792128E8 ; 1.3892577133873129E10 ; 65043.720000000096
107 ; 5358757.139869834 ; 1.4636670517849344E8 ; 5.672296156074333E8 ; 1.4038943839051622E10 ; 65657.3400000001
108 ; 5355482.930916383 ; 1.4636670517849344E8 ; 5.725883727473031E8 ; 1.4185310544230116E10 ; 66270.9600000001
109 ; 5350130.121073587 ; 1.4636670517849344E8 ; 5.779438556782196E8 ; 1.433167724940861E10 ; 66884.58000000009
110 ; 5348864.534057819 ; 1.4636670517849344E8 ; 5.832939857992932E8 ; 1.4478043954587103E10 ; 67498.20000000008
111 ; 5347038.076405882 ; 1.4636670517849344E8 ; 5.88642850333351E8 ; 1.4624410659765596E10 ; 68111.82000000008
112 ; 5343751.5569830295 ; 1.4636670517849344E8 ; 5.939898884097569E8 ; 1.477077736494409E10 ; 68725.44000000008
113 ; 5341770.439711423 ; 1.4636670517849344E8 ; 5.993336399667399E8 ; 1.4917144070122583E10 ; 69339.06000000007
114 ; 5338793.986052773 ; 1.4636670517849344E8 ; 6.046754104064513E8 ; 1.5063510775301077E10 ; 69952.68000000007
115 ; 5332851.293857237 ; 1.4636670517849344E8 ; 6.100142043925041E8 ; 1.520987748047957E10 ; 70566.30000000006
116 ; 5329245.2316113 ; 1.4636670517849344E8 ; 6.153470556863613E8 ; 1.5356244185658064E10 ; 71179.92000000006
117 ; 5328342.289939815 ; 1.4636670517849344E8 ; 6.206763009179726E8 ; 1.5502610890836557E10 ; 71793.54000000005
118 ; 5322913.677382237 ; 1.4636670517849344E8 ; 6.260046432079123E8 ; 1.564897759601505E10 ; 72407.16000000005
119 ; 5322728.652431209 ; 1.4636670517849344E8 ; 6.313275568852946E8 ; 1.5795344301193544E10 ; 73020.78000000004
120 ; 5316323.701500903 ; 1.4636670517849344E8 ; 6.366502855377258E8 ; 1.5941711006372038E10 ; 73634.40000000004
121 ; 5314152.564863586 ; 1.4636670517849344E8 ; 6.419666092392267E8 ; 1.6088077711550531E10 ; 74248.02000000003
122 ; 5307977.415562891 ; 1.4636670517849344E8 ; 6.472807618040903E8 ; 1.6234444416729025E10 ; 74861.64000000003
123 ; 5306610.842835595 ; 1.4636670517849344E8 ; 6.525887392196531E8 ; 1.6380811121907518E10 ; 75475.26000000002
124 ; 5304094.6167582655 ; 1.4636670517849344E8 ; 6.578953500624887E8 ; 1.6527177827086012E10 ; 76088.88000000002
125 ; 5299476.538905905 ; 1.4636670517849344E8 ; 6.631994446792469E8 ; 1.6673544532264505E10 ; 76702.50000000001
126 ; 5294158.221115667 ; 1.4636670517849344E8 ; 6.684989212181528E8 ; 1.6819911237442999E10 ; 77316.12000000001
127 ; 5291391.095974996 ; 1.4636670517849344E8 ; 6.737930794392685E8 ; 1.6966277942621492E10 ; 77929.74
128 ; 5286711.201886768 ; 1.4636670517849344E8 ; 6.790844705352435E8 ; 1.7112644647799986E10 ; 78543.36
129 ; 5284038.8901800355 ; 1.4636670517849344E8 ; 6.843711817371303E8 ; 1.7259011352978477E10 ; 79156.98
130 ; 5279390.646951498 ; 1.4636670517849344E8 ; 6.896552206273103E8 ; 1.740537805815697E10 ; 79770.59999999999
131 ; 5273614.904540848 ; 1.4636670517849344E8 ; 6.949346112742618E8 ; 1.7551744763335464E10 ; 80384.21999999999
132 ; 5267404.918814001 ; 1.4636670517849344E8 ; 7.002082261788027E8 ; 1.7698111468513958E10 ; 80997.83999999998
133 ; 5263747.817370227 ; 1.4636670517849344E8 ; 7.054756310976167E8 ; 1.784447817369245E10 ; 81611.45999999998
134 ; 5257535.4636226725 ; 1.4636670517849344E8 ; 7.107393789149868E8 ; 1.7990844878870945E10 ; 82225.07999999997
135 ; 5250970.7031969 ; 1.4636670517849344E8 ; 7.159969143786095E8 ; 1.813721158404944E10 ; 82838.69999999997
136 ; 5245913.713844953 ; 1.4636670517849344E8 ; 7.212478850818064E8 ; 1.8283578289227932E10 ; 83452.31999999996
137 ; 5240375.0377919 ; 1.4636670517849344E8 ; 7.264937987956513E8 ; 1.8429944994406425E10 ; 84065.93999999996
138 ; 5235527.734161041 ; 1.4636670517849344E8 ; 7.317341738334432E8 ; 1.857631169958492E10 ; 84679.55999999995
139 ; 5229173.660726822 ; 1.4636670517849344E8 ; 7.369697015676042E8 ; 1.8722678404763412E10 ; 85293.17999999995
140 ; 5222525.264389902 ; 1.4636670517849344E8 ; 7.42198875228331E8 ; 1.8869045109941906E10 ; 85906.79999999994
141 ; 5216498.08569636 ; 1.4636670517849344E8 ; 7.474214004927208E8 ; 1.90154118151204E10 ; 86520.41999999994
142 ; 5210274.421725238 ; 1.4636670517849344E8 ; 7.526378985784172E8 ; 1.9161778520298893E10 ; 87134.03999999994
143 ; 5205088.540469966 ; 1.4636670517849344E8 ; 7.578481730001425E8 ; 1.9308145225477386E10 ; 87747.65999999993
144 ; 5198109.808957144 ; 1.4636670517849344E8 ; 7.630532615406125E8 ; 1.945451193065588E10 ; 88361.27999999993
145 ; 5194040.980416363 ; 1.4636670517849344E8 ; 7.682513713495696E8 ; 1.9600878635834373E10 ; 88974.89999999992
146 ; 5192728.802424507 ; 1.4636670517849344E8 ; 7.73445412329986E8 ; 1.9747245341012867E10 ; 89588.51999999992
147 ; 5188772.672210862 ; 1.4636670517849344E8 ; 7.786381411324105E8 ; 1.989361204619136E10 ; 90202.13999999991
148 ; 5182460.187661378 ; 1.4636670517849344E8 ; 7.838269138046213E8 ; 2.0039978751369854E10 ; 90815.75999999991
149 ; 5176267.387538919 ; 1.4636670517849344E8 ; 7.890093739922827E8 ; 2.0186345456548347E10 ; 91429.3799999999
150 ; 5174786.585861459 ; 1.4636670517849344E8 ; 7.941856413798217E8 ; 2.033271216172684E10 ; 92042.9999999999
151 ; 5168743.367487411 ; 1.4636670517849344E8 ; 7.993604279656831E8 ; 2.0479078866905334E10 ; 92656.6199999999
152 ; 5166520.229567281 ; 1.4636670517849344E8 ; 8.045291713331705E8 ; 2.0625445572083828E10 ; 93270.23999999989
153 ; 5163821.212581077 ; 1.4636670517849344E8 ; 8.096956915627378E8 ; 2.077181227726232E10 ; 93883.85999999988
154 ; 5157560.81096957 ; 1.4636670517849344E8 ; 8.148595127753189E8 ; 2.0918178982440815E10 ; 94497.47999999988
155 ; 5151663.153211882 ; 1.4636670517849344E8 ; 8.200170735862885E8 ; 2.106454568761931E10 ; 95111.09999999987
156 ; 5149427.588571983 ; 1.4636670517849344E8 ; 8.251687367395003E8 ; 2.1210912392797802E10 ; 95724.71999999987
157 ; 5144879.966680392 ; 1.4636670517849344E8 ; 8.303181643280723E8 ; 2.1357279097976295E10 ; 96338.33999999987
158 ; 5139437.948819719 ; 1.4636670517849344E8 ; 8.354630442947527E8 ; 2.150364580315479E10 ; 96951.95999999986
159 ; 5135335.56227274 ; 1.4636670517849344E8 ; 8.406024822435725E8 ; 2.1650012508333282E10 ; 97565.57999999986
160 ; 5129057.592350208 ; 1.4636670517849344E8 ; 8.457378178058453E8 ; 2.1796379213511776E10 ; 98179.19999999985
161 ; 5125848.439520842 ; 1.4636670517849344E8 ; 8.508668753981955E8 ; 2.194274591869027E10 ; 98792.81999999985
162 ; 5122834.415577006 ; 1.4636670517849344E8 ; 8.559927238377163E8 ; 2.2089112623868763E10 ; 99406.43999999984
163 ; 5119118.911125751 ; 1.4636670517849344E8 ; 8.611155582532934E8 ; 2.2235479329047256E10 ; 100020.05999999984
164 ; 5113847.553704248 ; 1.4636670517849344E8 ; 8.662346771644192E8 ; 2.238184603422575E10 ; 100633.67999999983
165 ; 5105598.039909241 ; 1.4636670517849344E8 ; 8.713485247181234E8 ; 2.2528212739404243E10 ; 101247.29999999983
166 ; 5104784.803840155 ; 1.4636670517849344E8 ; 8.764541227580327E8 ; 2.2674579444582737E10 ; 101860.91999999982
167 ; 5097787.713984022 ; 1.4636670517849344E8 ; 8.815589075618728E8 ; 2.282094614976123E10 ; 102474.53999999982
168 ; 5094651.663742722 ; 1.4636670517849344E8 ; 8.866566952758569E8 ; 2.2967312854939724E10 ; 103088.15999999981
169 ; 5090286.135384774 ; 1.4636670517849344E8 ; 8.917513469395996E8 ; 2.3113679560118217E10 ; 103701.77999999981
170 ; 5086411.213805641 ; 1.4636670517849344E8 ; 8.968416330749844E8 ; 2.326004626529671E10 ; 104315.3999999998
171 ; 5080346.864506292 ; 1.4636670517849344E8 ; 9.019280442887901E8 ; 2.3406412970475204E10 ; 104929.0199999998
172 ; 5076039.28107649 ; 1.4636670517849344E8 ; 9.070083911532964E8 ; 2.3552779675653698E10 ; 105542.6399999998
173 ; 5073399.328146744 ; 1.4636670517849344E8 ; 9.120844304343728E8 ; 2.369914638083219E10 ; 106156.25999999979
174 ; 5069656.624681319 ; 1.4636670517849344E8 ; 9.171578297625195E8 ; 2.3845513086010685E10 ; 106769.87999999979
175 ; 5067892.355580864 ; 1.4636670517849344E8 ; 9.222274863872008E8 ; 2.399187979118918E10 ; 107383.49999999978
176 ; 5065214.780863877 ; 1.4636670517849344E8 ; 9.272953787427816E8 ; 2.4138246496367672E10 ; 107997.11999999978
