CSV File for the City 6 on Day 48
1 - Minute m 
2 - Power Consumed at minute m 
3 - Power Produced at minute m 
4 - Energy Consumed since the beginning of the day 
5 - Energy Produced since the beginning of the day 
6 - Energy Lost since the beginning of the day on lines starting from the city
 
0 ; 1.1115153086964576E7 ; 1.0571295321889481E8 ; 0.0 ; 0.0 ; 0.0
1 ; 1.1127323449073259E7 ; 1.0586310496933031E8 ; 1.1115153086964576E7 ; 1.0571295321889481E8 ; 0.0
2 ; 1.1139315532351624E7 ; 1.0632230960027245E8 ; 2.2242476536037832E7 ; 2.1157605818822512E8 ; 0.0
3 ; 1.115329024613995E7 ; 1.0709057597483236E8 ; 3.3381792068389457E7 ; 3.1789836778849757E8 ; 0.0
4 ; 1.116677641200033E7 ; 1.0816791217233169E8 ; 4.4535082314529404E7 ; 4.249889437633299E8 ; 0.0
5 ; 1.1186173319724767E7 ; 1.0955432539987838E8 ; 5.570185872652973E7 ; 5.331568559356616E8 ; 0.0
6 ; 1.1214800064030286E7 ; 1.1124982191024134E8 ; 6.68880320462545E7 ; 6.4271118133554E8 ; 0.0
7 ; 1.125347913242607E7 ; 1.1325440692809409E8 ; 7.810283211028479E7 ; 7.539610032457814E8 ; 0.0
8 ; 1.1302864041694272E7 ; 1.1556808458658504E8 ; 8.935631124271086E7 ; 8.672154101738756E8 ; 0.0
9 ; 1.1383782914090892E7 ; 1.1819085787599033E8 ; 1.0065917528440513E8 ; 9.827834947604606E8 ; 0.0
10 ; 1.151006318239424E7 ; 1.2112272860591662E8 ; 1.1204295819849601E8 ; 1.100974352636451E9 ; 0.0
11 ; 1.170835563614963E7 ; 1.243636973821632E8 ; 1.2355302138089025E8 ; 1.2220970812423677E9 ; 0.0
12 ; 1.2022034218346199E7 ; 1.2791376359893075E8 ; 1.352613770170399E8 ; 1.346460778624531E9 ; 0.0
13 ; 1.2328562303545158E7 ; 1.317729254466126E8 ; 1.472834112353861E8 ; 1.4743745422234619E9 ; 0.0
14 ; 1.2364846427912334E7 ; 1.359411799349327E8 ; 1.5961197353893125E8 ; 1.6061474676700745E9 ; 0.0
15 ; 1.2375478206457222E7 ; 1.4041852293074256E8 ; 1.7197681996684358E8 ; 1.7420886476050072E9 ; 0.0
16 ; 1.2394022079461336E7 ; 1.4520494920936874E8 ; 1.843522981733008E8 ; 1.8825071705357497E9 ; 0.0
17 ; 1.2404732898074728E7 ; 1.5030045251804224E8 ; 1.9674632025276214E8 ; 2.0277121197451184E9 ; 0.0
18 ; 1.2421073179665718E7 ; 1.5570502564965516E8 ; 2.0915105315083686E8 ; 2.1780125722631607E9 ; 0.0
19 ; 1.2436333989956433E7 ; 1.6141866052488586E8 ; 2.2157212633050257E8 ; 2.333717597912816E9 ; 0.0
20 ; 1.245030585223473E7 ; 1.6744134828062317E8 ; 2.34008460320459E8 ; 2.4951362584377017E9 ; 0.0
21 ; 1.2465443694327598E7 ; 1.7377307936259356E8 ; 2.4645876617269373E8 ; 2.6625776067183247E9 ; 0.0
22 ; 1.247944195437401E7 ; 1.804138436201517E8 ; 2.5892420986702132E8 ; 2.8363506860809183E9 ; 0.0
23 ; 1.2492246779044528E7 ; 1.873636304013183E8 ; 2.7140365182139534E8 ; 3.01676452970107E9 ; 0.0
24 ; 1.2507433289377632E7 ; 1.9462242864633214E8 ; 2.8389589860043985E8 ; 3.2041281601023884E9 ; 0.0
25 ; 1.2521874361274572E7 ; 2.0087826787638614E8 ; 2.964033318898175E8 ; 3.3987505887487206E9 ; 0.0
26 ; 1.2532516992706211E7 ; 2.0088468431680885E8 ; 3.089252062510921E8 ; 3.599628856625107E9 ; 0.0
27 ; 1.254845429574582E7 ; 2.0089143550297704E8 ; 3.214577232437983E8 ; 3.8005135409419155E9 ; 0.0
28 ; 1.256374555746201E7 ; 2.008985096020627E8 ; 3.340061775395441E8 ; 4.0014049764448924E9 ; 0.0
29 ; 1.2574713341687832E7 ; 2.0090589477470404E8 ; 3.4656992309700614E8 ; 4.202303486046955E9 ; 0.0
30 ; 1.2593473556913504E7 ; 2.0091357923658675E8 ; 3.59144636438694E8 ; 4.403209380821659E9 ; 0.0
31 ; 1.2601682916632954E7 ; 2.009215513130816E8 ; 3.717381099956075E8 ; 4.604122960058246E9 ; 0.0
32 ; 1.2616420127335398E7 ; 2.0092979948700324E8 ; 3.8433979291224045E8 ; 4.805044511371327E9 ; 0.0
33 ; 1.2627504421793217E7 ; 2.0093831243969327E8 ; 3.969562130395758E8 ; 5.005974310858331E9 ; 0.0
34 ; 1.264042596839908E7 ; 2.009470790857358E8 ; 4.0958371746136904E8 ; 5.206912623298024E9 ; 0.0
35 ; 1.2649482741488421E7 ; 2.009560886016938E8 ; 4.2222414342976815E8 ; 5.40785970238376E9 ; 0.0
36 ; 1.2662430605178228E7 ; 2.0096533044931E8 ; 4.3487362617125654E8 ; 5.608815790985455E9 ; 0.0
37 ; 1.267764175091384E7 ; 2.0097479439364755E8 ; 4.475360567764348E8 ; 5.809781121434765E9 ; 0.0
38 ; 1.2683825077771029E7 ; 2.0098447051666272E8 ; 4.6021369852734864E8 ; 6.010755915828412E9 ; 0.0
39 ; 1.269420314192441E7 ; 2.0099434922669998E8 ; 4.7289752360511965E8 ; 6.211740386345075E9 ; 0.0
40 ; 1.270195033975488E7 ; 2.0100442126438957E8 ; 4.85591726747044E8 ; 6.4127347355717745E9 ; 0.0
41 ; 1.271298201553711E7 ; 2.0101467770540655E8 ; 4.982936770867989E8 ; 6.613739156836164E9 ; 0.0
42 ; 1.2723520868345471E7 ; 2.0102510996052277E8 ; 5.11006659102336E8 ; 6.814753834541571E9 ; 0.0
43 ; 1.272575450625471E7 ; 2.0103570977335352E8 ; 5.237301799706815E8 ; 7.015778944502093E9 ; 0.0
44 ; 1.273456993861758E7 ; 2.0104646921616545E8 ; 5.364559344769362E8 ; 7.216814654275447E9 ; 0.0
45 ; 1.2743913319648879E7 ; 2.010573806840789E8 ; 5.491905044155538E8 ; 7.417861123491612E9 ; 0.0
46 ; 1.2749346981611567E7 ; 2.0106843688796318E8 ; 5.619344177352027E8 ; 7.618918504175692E9 ; 0.0
47 ; 1.2756657114372892E7 ; 2.0107963084628943E8 ; 5.746837647168143E8 ; 7.819986941063655E9 ; 0.0
48 ; 1.2757278302309051E7 ; 2.0109095587617472E8 ; 5.874404218311871E8 ; 8.021066571909945E9 ; 0.0
49 ; 1.276303503874129E7 ; 2.011024055838203E8 ; 6.001977001334962E8 ; 8.222157527786119E9 ; 0.0
50 ; 1.2770753698437344E7 ; 2.0111397385452068E8 ; 6.129607351722374E8 ; 8.42325993336994E9 ; 0.0
51 ; 1.2772863324166099E7 ; 2.0112565484239325E8 ; 6.257314888706747E8 ; 8.62437390722446E9 ; 0.0
52 ; 1.277696394385902E7 ; 2.011374429599578E8 ; 6.385043521948408E8 ; 8.825499562066854E9 ; 0.0
53 ; 1.2781295730938623E7 ; 2.0114933286767244E8 ; 6.512813161386998E8 ; 9.026637005026812E9 ; 0.0
54 ; 1.278257129739775E7 ; 2.0116131946351668E8 ; 6.640626118696384E8 ; 9.227786337894484E9 ; 0.0
55 ; 1.2786345548778841E7 ; 2.0117339787269455E8 ; 6.768451831670362E8 ; 9.428947657358E9 ; 0.0
56 ; 1.2788056424967766E7 ; 2.0118556343751833E8 ; 6.896315287158151E8 ; 9.630121055230694E9 ; 0.0
57 ; 1.2793325050084902E7 ; 2.0119781170752007E8 ; 7.024195851407828E8 ; 9.831306618668213E9 ; 0.0
58 ; 1.279442324166106E7 ; 2.0121013842982864E8 ; 7.152129101908678E8 ; 1.0032504430375732E10 ; 0.0
59 ; 1.2797193837779488E7 ; 2.0122253953984052E8 ; 7.280073334325289E8 ; 1.0233714568805561E10 ; 0.0
60 ; 1.279923493101729E7 ; 2.0123501115220478E8 ; 7.408045272703084E8 ; 1.0434937108345402E10 ; 0.0
61 ; 1.2802247837003563E7 ; 2.0124754955213705E8 ; 7.536037622013257E8 ; 1.0636172119497606E10 ; 0.0
62 ; 1.2801186202454615E7 ; 2.01260151187071E8 ; 7.664060100383292E8 ; 1.0837419669049744E10 ; 0.0
63 ; 1.2803284623091824E7 ; 2.0127281265865174E8 ; 7.792071962407838E8 ; 1.1038679820236814E10 ; 0.0
64 ; 1.2807850082841665E7 ; 2.01285530715072E8 ; 7.920104808638756E8 ; 1.1239952632895466E10 ; 0.0
65 ; 1.281154248125008E7 ; 2.0129830224374822E8 ; 8.048183309467173E8 ; 1.1441238163610538E10 ; 0.0
66 ; 1.281082397692292E7 ; 2.0131112426433238E8 ; 8.176298734279673E8 ; 1.1642536465854286E10 ; 0.0
67 ; 1.2811608963117415E7 ; 2.0132399392205215E8 ; 8.304406974048902E8 ; 1.1843847590118618E10 ; 0.0
68 ; 1.2814531236686807E7 ; 2.0133690848137137E8 ; 8.432523063680075E8 ; 1.204517158404067E10 ; 0.0
69 ; 1.2812623284546562E7 ; 2.0134986531996137E8 ; 8.560668376046944E8 ; 1.2246508492522041E10 ; 0.0
70 ; 1.2816433268591823E7 ; 2.0136286192297265E8 ; 8.68879460889241E8 ; 1.2447858357842003E10 ; 0.0
71 ; 1.2817992200301796E7 ; 2.0137589587759617E8 ; 8.816958941578329E8 ; 1.2649221219764975E10 ; 0.0
72 ; 1.2819456964710517E7 ; 2.0138896486790264E8 ; 8.945138863581346E8 ; 1.285059711564257E10 ; 0.0
73 ; 1.2818943721605862E7 ; 2.014020666699486E8 ; 9.073333433228451E8 ; 1.3051986080510473E10 ; 0.0
74 ; 1.2819278357143177E7 ; 2.0141519914713767E8 ; 9.20152287044451E8 ; 1.3253388147180422E10 ; 0.0
75 ; 1.281995412910309E7 ; 2.0142836024582484E8 ; 9.329715654015942E8 ; 1.345480334632756E10 ; 0.0
76 ; 1.2821825041160073E7 ; 2.0144154799115342E8 ; 9.457915195306972E8 ; 1.3656231706573385E10 ; 0.0
77 ; 1.2826024526748272E7 ; 2.0145476048311248E8 ; 9.586133445718573E8 ; 1.3857673254564539E10 ; 0.0
78 ; 1.2817776742948208E7 ; 2.0146799589280438E8 ; 9.714393690986056E8 ; 1.4059128015047651E10 ; 0.0
79 ; 1.281208811196333E7 ; 2.014812524589118E8 ; 9.842571458415538E8 ; 1.4260596010940456E10 ; 0.0
80 ; 1.2810920259863494E7 ; 2.0149452848435378E8 ; 9.970692339535171E8 ; 1.4462077263399368E10 ; 0.0
81 ; 1.2805935494340489E7 ; 2.0150782233312115E8 ; 1.0098801542133806E9 ; 1.4663571791883722E10 ; 0.0
82 ; 1.2801611361780819E7 ; 2.015211324272817E8 ; 1.0226860897077211E9 ; 1.4865079614216843E10 ; 0.0
83 ; 1.279881034760076E7 ; 2.015344572441463E8 ; 1.0354877010695019E9 ; 1.5066600746644125E10 ; 0.0
84 ; 1.279287377550426E7 ; 2.0154779531358668E8 ; 1.0482865114171027E9 ; 1.5268135203888271E10 ; 0.0
85 ; 1.279182617410879E7 ; 2.0156114521549767E8 ; 1.0610793851926069E9 ; 1.5469682999201859E10 ; 0.0
86 ; 1.2784856043439483E7 ; 2.0157450557739484E8 ; 1.0738712113667157E9 ; 1.5671244144417356E10 ; 0.0
87 ; 1.2781509351523466E7 ; 2.0158787507214075E8 ; 1.086656067410155E9 ; 1.5872818649994751E10 ; 0.0
88 ; 1.277849435852758E7 ; 2.016012524157928E8 ; 1.0994375767616785E9 ; 1.6074406525066893E10 ; 0.0
89 ; 1.2773722510239793E7 ; 2.016146363655654E8 ; 1.112216071120206E9 ; 1.6276007777482685E10 ; 0.0
90 ; 1.2768502277629446E7 ; 2.0162802571790054E8 ; 1.124989793630446E9 ; 1.6477622413848251E10 ; 0.0
91 ; 1.2762679431152245E7 ; 2.0164141930664068E8 ; 1.1377582959080753E9 ; 1.6679250439566153E10 ; 0.0
92 ; 1.2753777030634083E7 ; 2.0165481600129786E8 ; 1.1505209753392277E9 ; 1.6880891858872793E10 ; 0.0
93 ; 1.275250059248811E7 ; 2.016682147054142E8 ; 1.1632747523698618E9 ; 1.708254667487409E10 ; 0.0
94 ; 1.2745768946818674E7 ; 2.016816143550083E8 ; 1.17602725296235E9 ; 1.7284214889579506E10 ; 0.0
95 ; 1.274215582346463E7 ; 2.016950139171027E8 ; 1.1887730219091685E9 ; 1.7485896503934513E10 ; 0.0
96 ; 1.2734601181649175E7 ; 2.017084123883283E8 ; 1.201515177732633E9 ; 1.7687591517851616E10 ; 0.0
97 ; 1.2728122136482073E7 ; 2.0172180879360095E8 ; 1.2142497789142823E9 ; 1.7889299930239944E10 ; 0.0
98 ; 1.2720351053244935E7 ; 2.0173520218486637E8 ; 1.2269779010507643E9 ; 1.8091021739033546E10 ; 0.0
99 ; 1.2715953625399228E7 ; 2.0174859163990974E8 ; 1.2396982521040092E9 ; 1.8292756941218414E10 ; 0.0
100 ; 1.271049380147635E7 ; 2.0176197626122612E8 ; 1.2524142057294083E9 ; 1.8494505532858322E10 ; 0.0
101 ; 1.2704920881050456E7 ; 2.0177535517494845E8 ; 1.2651246995308845E9 ; 1.869626750911955E10 ; 0.0
102 ; 1.2698156941225505E7 ; 2.0178872752983007E8 ; 1.2778296204119349E9 ; 1.88980428642945E10 ; 0.0
103 ; 1.2687716990590042E7 ; 2.0180209249627832E8 ; 1.2905277773531604E9 ; 1.909983159182433E10 ; 0.0
104 ; 1.2680882886558857E7 ; 2.0181544926543713E8 ; 1.3032154943437505E9 ; 1.9301633684320606E10 ; 0.0
105 ; 1.2676122885292007E7 ; 2.0182879704831502E8 ; 1.3158963772303092E9 ; 1.9503449133586044E10 ; 0.0
106 ; 1.2666479757206794E7 ; 2.018421350749569E8 ; 1.3285725001156013E9 ; 1.9705277930634357E10 ; 0.0
107 ; 1.266459143953165E7 ; 2.0185546259365657E8 ; 1.341238979872808E9 ; 1.9907120065709312E10 ; 0.0
108 ; 1.2657776675434288E7 ; 2.018687788702082E8 ; 1.3539035713123395E9 ; 2.010897552830297E10 ; 0.0
109 ; 1.2647156983780686E7 ; 2.0188208318719453E8 ; 1.366561347987774E9 ; 2.031084430717318E10 ; 0.0
110 ; 1.2639775010714054E7 ; 2.0189537484330955E8 ; 1.3792085049715545E9 ; 2.0512726390360374E10 ; 0.0
111 ; 1.2632365367672335E7 ; 2.0190865315271425E8 ; 1.3918482799822686E9 ; 2.0714621765203686E10 ; 0.0
112 ; 1.2625738091147896E7 ; 2.019219174444235E8 ; 1.404480645349941E9 ; 2.09165304183564E10 ; 0.0
113 ; 1.2619478323689708E7 ; 2.0193516706172216E8 ; 1.417106383441089E9 ; 2.1118452335800823E10 ; 0.0
114 ; 1.260809211688132E7 ; 2.0194840136160925E8 ; 1.4297258617647786E9 ; 2.1320387502862545E10 ; 0.0
115 ; 1.2605315533782475E7 ; 2.0196161971426854E8 ; 1.44233395388166E9 ; 2.1522335904224155E10 ; 0.0
116 ; 1.2594896167311488E7 ; 2.019748215025639E8 ; 1.4549392694154425E9 ; 2.1724297523938423E10 ; 0.0
117 ; 1.258453054586205E7 ; 2.0198800612155882E8 ; 1.467534165582754E9 ; 2.1926272345440987E10 ; 0.0
118 ; 1.2580321440733954E7 ; 2.0200117297805807E8 ; 1.4801186961286159E9 ; 2.2128260351562546E10 ; 0.0
119 ; 1.2568884036663918E7 ; 2.020143214901707E8 ; 1.4926990175693498E9 ; 2.2330261524540604E10 ; 0.0
120 ; 1.25609288221007E7 ; 2.0202745108689344E8 ; 1.5052679016060138E9 ; 2.2532275846030773E10 ; 0.0
121 ; 1.2551172215164747E7 ; 2.0204056120771313E8 ; 1.5178288304281144E9 ; 2.273430329711767E10 ; 0.0
122 ; 1.2541360644987497E7 ; 2.0205365130222744E8 ; 1.530380002643279E9 ; 2.2936343858325382E10 ; 0.0
123 ; 1.253200582651582E7 ; 2.020667208297828E8 ; 1.5429213632882667E9 ; 2.313839750962761E10 ; 0.0
124 ; 1.2522549385866346E7 ; 2.0207976925912884E8 ; 1.5554533691147826E9 ; 2.3340464230457394E10 ; 0.0
125 ; 1.2513445409131128E7 ; 2.0209279606808817E8 ; 1.567975918500649E9 ; 2.3542543999716522E10 ; 0.0
126 ; 1.2502936237129455E7 ; 2.021058007432414E8 ; 1.58048936390978E9 ; 2.374463679578461E10 ; 0.0
127 ; 1.2491730558714837E7 ; 2.0211878277962568E8 ; 1.5929923001469095E9 ; 2.394674259652785E10 ; 0.0
128 ; 1.2483898761029866E7 ; 2.0213174168044713E8 ; 1.6054840307056243E9 ; 2.4148861379307476E10 ; 0.0
129 ; 1.2473944008796E7 ; 2.0214467695680556E8 ; 1.6179679294666543E9 ; 2.4350993120987923E10 ; 0.0
130 ; 1.2463243236480014E7 ; 2.0215758812743154E8 ; 1.6304418734754503E9 ; 2.455313779794473E10 ; 0.0
131 ; 1.245139172025501E7 ; 2.021704747184348E8 ; 1.6429051167119303E9 ; 2.475529538607216E10 ; 0.0
132 ; 1.2436860108201547E7 ; 2.0218333626306385E8 ; 1.6553565084321852E9 ; 2.4957465860790592E10 ; 0.0
133 ; 1.242135747884666E7 ; 2.021961723014754E8 ; 1.6677933685403867E9 ; 2.5159649197053658E10 ; 0.0
134 ; 1.2406534161396282E7 ; 2.022089823805146E8 ; 1.6802147260192332E9 ; 2.5361845369355133E10 ; 0.0
135 ; 1.2396046531439334E7 ; 2.0222176605350378E8 ; 1.6926212601806295E9 ; 2.556405435173565E10 ; 0.0
136 ; 1.2376697985675633E7 ; 2.0223452288004082E8 ; 1.7050173067120688E9 ; 2.5766276117789154E10 ; 0.0
137 ; 1.2363383519970227E7 ; 2.022472524258059E8 ; 1.7173940046977444E9 ; 2.5968510640669193E10 ; 0.0
138 ; 1.2348762510159599E7 ; 2.0225995426237622E8 ; 1.7297573882177145E9 ; 2.6170757893094997E10 ; 0.0
139 ; 1.2334083727691988E7 ; 2.0227262796704876E8 ; 1.742106150727874E9 ; 2.6373017847357372E10 ; 0.0
140 ; 1.2322799682243392E7 ; 2.0228527312267038E8 ; 1.754440234455566E9 ; 2.657529047532442E10 ; 0.0
141 ; 1.230531559320528E7 ; 2.022978893174748E8 ; 1.7667630341378093E9 ; 2.677757574844709E10 ; 0.0
142 ; 1.22863875130945E7 ; 2.023104761449268E8 ; 1.7790683497310145E9 ; 2.6979873637764565E10 ; 0.0
143 ; 1.2273841178732086E7 ; 2.0232303320357206E8 ; 1.791354737244109E9 ; 2.7182184113909492E10 ; 0.0
144 ; 1.225709418188548E7 ; 2.023355600968942E8 ; 1.803628578422841E9 ; 2.7384507147113064E10 ; 0.0
145 ; 1.2246843250072362E7 ; 2.0234805643317658E8 ; 1.8158856726047266E9 ; 2.7586842707209957E10 ; 0.0
146 ; 1.2238057132107498E7 ; 2.023605218253706E8 ; 1.828132515854799E9 ; 2.7789190763643135E10 ; 0.0
147 ; 1.2225927308967307E7 ; 2.023729558909688E8 ; 1.8403705729869065E9 ; 2.7991551285468506E10 ; 0.0
148 ; 1.2215569595206937E7 ; 2.0238535825188327E8 ; 1.8525965002958739E9 ; 2.8193924241359474E10 ; 0.0
149 ; 1.2207980883127099E7 ; 2.0239772853432894E8 ; 1.8648120698910809E9 ; 2.839630959961136E10 ; 0.0
150 ; 1.2194927329843067E7 ; 2.0241006636871144E8 ; 1.877020050774208E9 ; 2.8598707328145687E10 ; 0.0
151 ; 1.2185927278000003E7 ; 2.0242237138951963E8 ; 1.889214978104051E9 ; 2.8801117394514397E10 ; 0.0
152 ; 1.2171613286379047E7 ; 2.024346432352221E8 ; 1.9014009053820512E9 ; 2.9003539765903915E10 ; 0.0
153 ; 1.2162996530079983E7 ; 2.0244688154816794E8 ; 1.9135725186684303E9 ; 2.9205974409139137E10 ; 0.0
154 ; 1.2149591219182676E7 ; 2.0245908597449154E8 ; 1.9257355151985104E9 ; 2.9408421290687305E10 ; 0.0
155 ; 1.2136271927532919E7 ; 2.024712561640206E8 ; 1.9378851064176931E9 ; 2.9610880376661797E10 ; 0.0
156 ; 1.212534999259529E7 ; 2.0248339177018848E8 ; 1.950021378345226E9 ; 2.9813351632825817E10 ; 0.0
157 ; 1.2118388883308792E7 ; 2.0249549244994926E8 ; 1.9621467283378212E9 ; 3.0015835024596004E10 ; 0.0
158 ; 1.210668821431937E7 ; 2.0250755786369652E8 ; 1.9742651172211301E9 ; 3.021833051704595E10 ; 0.0
159 ; 1.2098929149610199E7 ; 2.0251958767518502E8 ; 1.9863718054354496E9 ; 3.042083807490965E10 ; 0.0
160 ; 1.2081277035985596E7 ; 2.0253158155145565E8 ; 1.99847073458506E9 ; 3.0623357662584835E10 ; 0.0
161 ; 1.2068742224968908E7 ; 2.025435391627628E8 ; 2.0105520116210456E9 ; 3.082588924413629E10 ; 0.0
162 ; 1.2058781998176187E7 ; 2.0255546018250507E8 ; 2.0226207538460145E9 ; 3.1028432783299053E10 ; 0.0
163 ; 1.2047166906609636E7 ; 2.0256734428715813E8 ; 2.0346795358441906E9 ; 3.123098824348156E10 ; 0.0
164 ; 1.203714234866458E7 ; 2.025791911562104E8 ; 2.0467267027508001E9 ; 3.143355558776872E10 ; 0.0
165 ; 1.202323100528668E7 ; 2.0259100047210106E8 ; 2.0587638450994647E9 ; 3.163613477892493E10 ; 0.0
166 ; 1.2008384553824592E7 ; 2.0260277192016038E8 ; 2.0707870761047513E9 ; 3.183872577939703E10 ; 0.0
167 ; 1.1998760934331676E7 ; 2.0261450518855238E8 ; 2.082795460658576E9 ; 3.2041328551317192E10 ; 0.0
168 ; 1.1985264848224133E7 ; 2.0262619996821946E8 ; 2.0947942215929077E9 ; 3.2243943056505745E10 ; 0.0
169 ; 1.1974201540702162E7 ; 2.0263785595282927E8 ; 2.1067794864411318E9 ; 3.2446569256473965E10 ; 0.0
170 ; 1.196425565160031E7 ; 2.0264947283872354E8 ; 2.118753687981834E9 ; 3.2649207112426792E10 ; 0.0
171 ; 1.1953453221425388E7 ; 2.026610503248686E8 ; 2.1307179436334343E9 ; 3.2851856585265514E10 ; 0.0
172 ; 1.1939360354392866E7 ; 2.0267258811280802E8 ; 2.1426713968548596E9 ; 3.305451763559038E10 ; 0.0
173 ; 1.1924939784021175E7 ; 2.026840859066168E8 ; 2.1546107572092524E9 ; 3.325719022370319E10 ; 0.0
174 ; 1.1920766825177139E7 ; 2.0269554341285726E8 ; 2.1665356969932737E9 ; 3.3459874309609806E10 ; 0.0
175 ; 1.1917094928084077E7 ; 2.0270696034053665E8 ; 2.178456463818451E9 ; 3.3662569853022663E10 ; 0.0
176 ; 1.1910200473035868E7 ; 2.0271833640106624E8 ; 2.190373558746535E9 ; 3.38652768133632E10 ; 0.0
177 ; 1.1900578773135414E7 ; 2.0272967130822188E8 ; 2.2022837592195706E9 ; 3.4067995149764267E10 ; 0.0
178 ; 1.1894171071158277E7 ; 2.027409647781059E8 ; 2.214184337992706E9 ; 3.427072482107249E10 ; 0.0
179 ; 1.188510109683759E7 ; 2.0275221652911088E8 ; 2.226078509063864E9 ; 3.447346578585059E10 ; 0.0
180 ; 1.187760868187957E7 ; 2.027634262818839E8 ; 2.2379636101607018E9 ; 3.467621800237971E10 ; 0.0
181 ; 1.187179688285233E7 ; 2.0277459375929293E8 ; 2.2498412188425813E9 ; 3.487898142866159E10 ; 0.0
182 ; 1.1864438111667095E7 ; 2.0278571868639386E8 ; 2.261713015725434E9 ; 3.508175602242088E10 ; 0.0
183 ; 1.1856086892561873E7 ; 2.027968007903989E8 ; 2.273577453837101E9 ; 3.528454174110728E10 ; 0.0
184 ; 1.1852221708252601E7 ; 2.0280783980064628E8 ; 2.285433540729663E9 ; 3.5487338541897675E10 ; 0.0
185 ; 1.184229854298568E7 ; 2.0281883544857073E8 ; 2.2972857624379153E9 ; 3.569014638169832E10 ; 0.0
186 ; 1.1836647653575124E7 ; 2.0282978746767527E8 ; 2.3091280609809012E9 ; 3.589296521714689E10 ; 0.0
187 ; 1.1828022991177974E7 ; 2.0284069559350383E8 ; 2.320964708634476E9 ; 3.609579500461456E10 ; 0.0
188 ; 1.1820610568485456E7 ; 2.0285155956361502E8 ; 2.332792731625654E9 ; 3.629863570020807E10 ; 0.0
189 ; 1.1812146289403772E7 ; 2.0286237911755672E8 ; 2.3446133421941395E9 ; 3.650148725977168E10 ; 0.0
190 ; 1.1805120673017615E7 ; 2.0287315399684155E8 ; 2.3564254884835434E9 ; 3.670434963888924E10 ; 0.0
191 ; 1.1802246419768518E7 ; 2.028838839449233E8 ; 2.368230609156561E9 ; 3.690722279288608E10 ; 0.0
192 ; 1.1788154056700954E7 ; 2.0289456870717427E8 ; 2.380032855576329E9 ; 3.7110106676831E10 ; 0.0
193 ; 1.1783958761602907E7 ; 2.0290520803086308E8 ; 2.3918210096330304E9 ; 3.731300124553818E10 ; 0.0
194 ; 1.177827976929455E7 ; 2.0291580166513374E8 ; 2.4036049683946333E9 ; 3.751590645356904E10 ; 0.0
195 ; 1.17684837783594E7 ; 2.029263493609851E8 ; 2.415383248163928E9 ; 3.771882225523417E10 ; 0.0
