CSV File for the City 4 on Day 178
1 - Minute m 
2 - Power Consumed at minute m 
3 - Power Produced at minute m 
4 - Energy Consumed since the beginning of the day 
5 - Energy Produced since the beginning of the day 
6 - Energy Lost since the beginning of the day on lines starting from the city
 
0 ; 1704801.0099280565 ; 1.0607289620653209E8 ; 0.0 ; 0.0 ; 0.0
1 ; 1709241.9668861614 ; 1.0622335627356017E8 ; 1704801.0099280565 ; 1.0607289620653209E8 ; 0.0
2 ; 1716792.1798887951 ; 1.066828499603847E8 ; 3414042.976814218 ; 2.1229625248009226E8 ; 0.0
3 ; 1722871.76709839 ; 1.0745138205591637E8 ; 5130835.156703013 ; 3.1897910244047695E8 ; 0.0
4 ; 1734085.8730904108 ; 1.0852895686273491E8 ; 6853706.9238014035 ; 4.264304844963933E8 ; 0.0
5 ; 1743805.4579689289 ; 1.0991557816961032E8 ; 8587792.796891814 ; 5.3495944135912824E8 ; 0.0
6 ; 1760479.0386057105 ; 1.1161124922676507E8 ; 1.0331598254860744E7 ; 6.448750195287385E8 ; 0.0
7 ; 1782455.905243983 ; 1.1361597272424883E8 ; 1.2092077293466454E7 ; 7.564862687555035E8 ; 0.0
8 ; 1816365.8819627508 ; 1.1592975077375513E8 ; 1.3874533198710438E7 ; 8.701022414797523E8 ; 0.0
9 ; 1863863.7569757998 ; 1.1855258489416683E8 ; 1.5690899080673188E7 ; 9.860319922535074E8 ; 0.0
10 ; 1942520.9569787206 ; 1.2148447600106055E8 ; 1.7554762837648988E7 ; 1.104584577147674E9 ; 0.0
11 ; 2064551.7505649778 ; 1.247254244003397E8 ; 1.9497283794627707E7 ; 1.2260690531487346E9 ; 0.0
12 ; 2262330.102969323 ; 1.2827542978610083E8 ; 2.1561835545192685E7 ; 1.3507944775490742E9 ; 0.0
13 ; 2452346.9184666667 ; 1.3213449124276733E8 ; 2.3824165648162007E7 ; 1.479069907335175E9 ; 0.0
14 ; 2474833.555758965 ; 1.3630260725145644E8 ; 2.6276512566628672E7 ; 1.6112043985779424E9 ; 0.0
15 ; 2480607.2061947384 ; 1.407797757004745E8 ; 2.8751346122387636E7 ; 1.7475070058293989E9 ; 0.0
16 ; 2490891.9969173153 ; 1.4556599389977196E8 ; 3.1231953328582376E7 ; 1.8882867815298734E9 ; 0.0
17 ; 2498712.3929419853 ; 1.5066125859912625E8 ; 3.372284532549969E7 ; 2.0338527754296453E9 ; 0.0
18 ; 2506920.5643557147 ; 1.560655660097674E8 ; 3.622155771844168E7 ; 2.1845140340287714E9 ; 0.0
19 ; 2515491.86753709 ; 1.6177891182911572E8 ; 3.8728478282797396E7 ; 2.340579600038539E9 ; 0.0
20 ; 2524657.8890387984 ; 1.6780129126826045E8 ; 4.1243970150334485E7 ; 2.502358511867655E9 ; 0.0
21 ; 2531895.9028677293 ; 1.7413269908178398E8 ; 4.3768628039373286E7 ; 2.6701598031359153E9 ; 0.0
22 ; 2542312.5832828116 ; 1.8077312959951532E8 ; 4.630052394224101E7 ; 2.844292502217699E9 ; 0.0
23 ; 2549510.4575027176 ; 1.8772257675978982E8 ; 4.884283652552383E7 ; 3.0250656318172145E9 ; 0.0
24 ; 2558224.914187515 ; 1.9498103414379215E8 ; 5.139234698302654E7 ; 3.2127882085770044E9 ; 0.0
25 ; 2568271.000766203 ; 2.0123653590875438E8 ; 5.3950571897214055E7 ; 3.4077692427207966E9 ; 0.0
26 ; 2576042.668017081 ; 2.0124262286014152E8 ; 5.651884289798026E7 ; 3.609005778629551E9 ; 0.0
27 ; 2581734.6019796696 ; 2.0124905701174954E8 ; 5.909488556599734E7 ; 3.8102484014896927E9 ; 0.0
28 ; 2591899.3972771307 ; 2.0125583086723506E8 ; 6.167662016797701E7 ; 4.0114974585014424E9 ; 0.0
29 ; 2601223.316800793 ; 2.0126293674737236E8 ; 6.4268519565254144E7 ; 4.2127532893686776E9 ; 0.0
30 ; 2609921.8859555935 ; 2.012703668230471E8 ; 6.686974288205494E7 ; 4.41401622611605E9 ; 0.0
31 ; 2616140.7117722165 ; 2.0127811314699864E8 ; 6.947966476801053E7 ; 4.615286592939096E9 ; 0.0
32 ; 2622928.89793427 ; 2.012861676841138E8 ; 7.209580547978275E7 ; 4.816564706086095E9 ; 0.0
33 ; 2631840.084850782 ; 2.0129452234011513E8 ; 7.471873437771702E7 ; 5.017850873770208E9 ; 0.0
34 ; 2639708.8627567403 ; 2.0130316898852172E8 ; 7.73505744625678E7 ; 5.219145396110324E9 ; 0.0
35 ; 2647565.597605111 ; 2.013120994957957E8 ; 7.999028332532455E7 ; 5.4204485650988455E9 ; 0.0
36 ; 2651160.384001617 ; 2.0132130574461976E8 ; 8.263784892292966E7 ; 5.621760664594641E9 ; 0.0
37 ; 2658522.6608960046 ; 2.0133077965527982E8 ; 8.528900930693127E7 ; 5.82308197033926E9 ; 0.0
38 ; 2665539.1139754034 ; 2.0134051320515317E8 ; 8.794753196782728E7 ; 6.02441274999454E9 ; 0.0
39 ; 2671241.549236091 ; 2.013504984463247E8 ; 9.061307108180268E7 ; 6.225753263199694E9 ; 0.0
40 ; 2679518.8994411225 ; 2.0136072752137393E8 ; 9.328431263103877E7 ; 6.427103761646018E9 ; 0.0
41 ; 2685376.880483476 ; 2.0137119267739096E8 ; 9.59638315304799E7 ; 6.628464489167392E9 ; 0.0
42 ; 2689652.953136896 ; 2.0138188627829298E8 ; 9.864920841096337E7 ; 6.829835681844783E9 ; 0.0
43 ; 2693402.3302827952 ; 2.0139280081552342E8 ; 1.0133886136410026E8 ; 7.0312175681230755E9 ; 0.0
44 ; 2702573.4230910433 ; 2.0140392891722256E8 ; 1.0403226369438305E8 ; 7.232610368938599E9 ; 0.0
45 ; 2703868.272659887 ; 2.0141526335596532E8 ; 1.067348371174741E8 ; 7.434014297855822E9 ; 0.0
46 ; 2707888.897760842 ; 2.0142679705516303E8 ; 1.0943870539013398E8 ; 7.635429561211787E9 ; 0.0
47 ; 2711921.9933154746 ; 2.0143852309422922E8 ; 1.1214659428789482E8 ; 7.836856358266951E9 ; 0.0
48 ; 2715165.3822537423 ; 2.0145043471260813E8 ; 1.1485851628121029E8 ; 8.038294881361179E9 ; 0.0
49 ; 2719167.233130042 ; 2.014625253127633E8 ; 1.1757368166346402E8 ; 8.239745316073788E9 ; 0.0
50 ; 2719992.8891247585 ; 2.0147478846222186E8 ; 1.2029284889659406E8 ; 8.441207841386551E9 ; 0.0
51 ; 2723404.247019949 ; 2.0148721789476532E8 ; 1.2301284178571883E8 ; 8.642682629848772E9 ; 0.0
52 ; 2724598.2324057906 ; 2.014998075108549E8 ; 1.2573624603273878E8 ; 8.844169847743538E9 ; 0.0
53 ; 2727048.3044197178 ; 2.015125513773743E8 ; 1.2846084426514457E8 ; 9.045669655254393E9 ; 0.0
54 ; 2730015.933925963 ; 2.0152544372676784E8 ; 1.3118789256956428E8 ; 9.247182206631767E9 ; 0.0
55 ; 2732359.8255009362 ; 2.015384789556475E8 ; 1.3391790850349024E8 ; 9.448707650358536E9 ; 0.0
56 ; 2735583.3057860592 ; 2.0155165162293622E8 ; 1.3665026832899117E8 ; 9.650246129314184E9 ; 0.0
57 ; 2738860.724598127 ; 2.0156495644761103E8 ; 1.3938585163477725E8 ; 9.85179778093712E9 ; 0.0
58 ; 2738983.633518676 ; 2.0157838830610296E8 ; 1.421247123593754E8 ; 1.0053362737384731E10 ; 0.0
59 ; 2742899.580931766 ; 2.015919422294075E8 ; 1.4486369599289405E8 ; 1.0254941125690834E10 ; 0.0
60 ; 2743320.2478956617 ; 2.0160561339995265E8 ; 1.476065955738258E8 ; 1.0456533067920242E10 ; 0.0
61 ; 2744662.9729251084 ; 2.016193971482695E8 ; 1.5034991582172146E8 ; 1.0658138681320194E10 ; 0.0
62 ; 2746168.8012223067 ; 2.0163328894950324E8 ; 1.5309457879464656E8 ; 1.0859758078468464E10 ; 0.0
63 ; 2750790.6861570682 ; 2.0164728441980085E8 ; 1.5584074759586886E8 ; 1.1061391367417967E10 ; 0.0
64 ; 2749681.8821598496 ; 2.0166137931260687E8 ; 1.5859153828202593E8 ; 1.1263038651837769E10 ; 0.0
65 ; 2751397.8752154186 ; 2.0167556951489466E8 ; 1.613412201641858E8 ; 1.1464700031150375E10 ; 0.0
66 ; 2755084.722915216 ; 2.016898510433589E8 ; 1.640926180394012E8 ; 1.166637560066527E10 ; 0.0
67 ; 2755438.1975726183 ; 2.0170422004059005E8 ; 1.668477027623164E8 ; 1.186806545170863E10 ; 0.0
68 ; 2758302.5151903136 ; 2.017186727712509E8 ; 1.6960314095988902E8 ; 1.206976967174922E10 ; 0.0
69 ; 2759269.844890091 ; 2.017332056182709E8 ; 1.7236144347507933E8 ; 1.2271488344520472E10 ; 0.0
70 ; 2760267.538487954 ; 2.0174781507907322E8 ; 1.7512071331996942E8 ; 1.2473221550138742E10 ; 0.0
71 ; 2762204.308936513 ; 2.0176249776184636E8 ; 1.7788098085845736E8 ; 1.2674969365217815E10 ; 0.0
72 ; 2763724.195959003 ; 2.0177725038187116E8 ; 1.8064318516739386E8 ; 1.2876731862979662E10 ; 0.0
73 ; 2763663.1614036313 ; 2.017920697579115E8 ; 1.8340690936335286E8 ; 1.3078509113361532E10 ; 0.0
74 ; 2765291.9305550763 ; 2.018069528086764E8 ; 1.861705725247565E8 ; 1.3280301183119444E10 ; 0.0
75 ; 2766819.136196889 ; 2.0182189654935914E8 ; 1.8893586445531157E8 ; 1.348210813592812E10 ; 0.0
76 ; 2770415.1399249467 ; 2.0183689808825845E8 ; 1.9170268359150845E8 ; 1.3683930032477478E10 ; 0.0
77 ; 2771938.904921041 ; 2.0185195462348515E8 ; 1.944730987314334E8 ; 1.3885766930565737E10 ; 0.0
78 ; 2770190.4043932506 ; 2.0186706343975753E8 ; 1.9724503763635445E8 ; 1.4087618885189222E10 ; 0.0
79 ; 2769847.1682955655 ; 2.0188222190528688E8 ; 2.000152280407477E8 ; 1.428948594862898E10 ; 0.0
80 ; 2764066.864014035 ; 2.0189742746875492E8 ; 2.0278507520904326E8 ; 1.4491368170534267E10 ; 0.0
81 ; 2764191.5737405 ; 2.019126776563837E8 ; 2.055491420730573E8 ; 1.4693265598003023E10 ; 0.0
82 ; 2760363.2204199387 ; 2.0192797006909794E8 ; 2.083133336467978E8 ; 1.4895178275659407E10 ; 0.0
83 ; 2759548.548680909 ; 2.0194330237977958E8 ; 2.1107369686721775E8 ; 1.5097106245728504E10 ; 0.0
84 ; 2758529.8629215597 ; 2.0195867233061406E8 ; 2.1383324541589865E8 ; 1.5299049548108284E10 ; 0.0
85 ; 2758163.9379455755 ; 2.019740777305267E8 ; 2.1659177527882022E8 ; 1.5501008220438898E10 ; 0.0
86 ; 2756359.8257674696 ; 2.0198951645270857E8 ; 2.193499392167658E8 ; 1.5702982298169424E10 ; 0.0
87 ; 2757900.383165914 ; 2.0200498643222973E8 ; 2.2210629904253325E8 ; 1.5904971814622133E10 ; 0.0
88 ; 2750021.936262615 ; 2.020204856637383E8 ; 2.2486419942569917E8 ; 1.6106976801054363E10 ; 0.0
89 ; 2753501.2183940895 ; 2.0203601219924352E8 ; 2.2761422136196178E8 ; 1.6308997286718102E10 ; 0.0
90 ; 2747727.4097912293 ; 2.0205156414598042E8 ; 2.3036772258035588E8 ; 1.6511033298917345E10 ; 0.0
91 ; 2747048.302844748 ; 2.0206713966435453E8 ; 2.331154499901471E8 ; 1.6713084863063326E10 ; 0.0
92 ; 2748770.558736196 ; 2.0208273696596372E8 ; 2.3586249829299188E8 ; 1.691515200272768E10 ; 0.0
93 ; 2745383.206945725 ; 2.0209835431169567E8 ; 2.3861126885172808E8 ; 1.7117234739693644E10 ; 0.0
94 ; 2740611.990921298 ; 2.021139900098979E8 ; 2.413566520586738E8 ; 1.731933309400534E10 ; 0.0
95 ; 2740196.539449894 ; 2.021296424146186E8 ; 2.440972640495951E8 ; 1.752144708401524E10 ; 0.0
96 ; 2737197.9655239787 ; 2.0214530992391598E8 ; 2.46837460589045E8 ; 1.772357672642986E10 ; 0.0
97 ; 2734018.4798374544 ; 2.0216099097823322E8 ; 2.4957465855456898E8 ; 1.7925722036353775E10 ; 0.0
98 ; 2734150.2238821266 ; 2.0217668405883747E8 ; 2.5230867703440642E8 ; 1.812788302733201E10 ; 0.0
99 ; 2730738.805169935 ; 2.021923876863204E8 ; 2.5504282725828856E8 ; 1.8330059711390846E10 ; 0.0
100 ; 2727526.9079736453 ; 2.0220810041915762E8 ; 2.577735660634585E8 ; 1.8532252099077168E10 ; 0.0
101 ; 2726345.3822556892 ; 2.0222382085232577E8 ; 2.6050109297143215E8 ; 1.8734460199496326E10 ; 0.0
102 ; 2720635.896800564 ; 2.0223954761597398E8 ; 2.6322743835368785E8 ; 1.893668402034865E10 ; 0.0
103 ; 2722492.2956464505 ; 2.0225527937414888E8 ; 2.6594807425048843E8 ; 1.9138923567964626E10 ; 0.0
104 ; 2717210.3137376443 ; 2.0227101482356983E8 ; 2.686705665461349E8 ; 1.9341178847338776E10 ; 0.0
105 ; 2716002.9984560222 ; 2.0228675269245356E8 ; 2.713877768598725E8 ; 1.9543449862162346E10 ; 0.0
106 ; 2712673.8681026176 ; 2.0230249173938563E8 ; 2.741037798583285E8 ; 1.97457366148548E10 ; 0.0
107 ; 2710737.170918572 ; 2.0231823075223684E8 ; 2.7681645372643113E8 ; 1.994803910659419E10 ; 0.0
108 ; 2707712.3688900876 ; 2.0233396854712337E8 ; 2.795271908973497E8 ; 2.0150357337346424E10 ; 0.0
109 ; 2702972.8483015243 ; 2.0234970396740827E8 ; 2.822349032662398E8 ; 2.0352691305893547E10 ; 0.0
110 ; 2699514.977629007 ; 2.0236543588274288E8 ; 2.8493787611454135E8 ; 2.0555041009860954E10 ; 0.0
111 ; 2696321.89709295 ; 2.023811631881468E8 ; 2.8763739109217036E8 ; 2.07574064457437E10 ; 0.0
112 ; 2696674.819507684 ; 2.0239688480312437E8 ; 2.903337129892633E8 ; 2.0959787608931847E10 ; 0.0
113 ; 2691810.5869406625 ; 2.024125996708165E8 ; 2.9303038780877095E8 ; 2.116218449373497E10 ; 0.0
114 ; 2688464.2428574264 ; 2.0242830675718644E8 ; 2.957221983957116E8 ; 2.136459709340579E10 ; 0.0
115 ; 2684802.8635536274 ; 2.0244400505023775E8 ; 2.98410662638569E8 ; 2.1567025400162975E10 ; 0.0
116 ; 2682878.5719673196 ; 2.0245969355926356E8 ; 3.0109546550212264E8 ; 2.1769469405213215E10 ; 0.0
117 ; 2680560.51131834 ; 2.0247537131412548E8 ; 3.0377834407408994E8 ; 2.197192909877248E10 ; 0.0
118 ; 2675309.4375201636 ; 2.0249103736456126E8 ; 3.064589045854083E8 ; 2.2174404470086605E10 ; 0.0
119 ; 2672803.7229091837 ; 2.0250669077951956E8 ; 3.091342140229284E8 ; 2.2376895507451168E10 ; 0.0
120 ; 2667837.9518944244 ; 2.025223306465213E8 ; 3.118070177458376E8 ; 2.2579402198230686E10 ; 0.0
121 ; 2665288.211707321 ; 2.0253795607104588E8 ; 3.1447485569773203E8 ; 2.278192452887721E10 ; 0.0
122 ; 2660588.9261186062 ; 2.0255356617594165E8 ; 3.171401439094393E8 ; 2.2984462484948254E10 ; 0.0
123 ; 2657242.930287284 ; 2.025691601008595E8 ; 3.1980073283555794E8 ; 2.3187016051124195E10 ; 0.0
124 ; 2651291.263996882 ; 2.0258473700170854E8 ; 3.2245797576584524E8 ; 2.3389585211225056E10 ; 0.0
125 ; 2648946.23547963 ; 2.0260029605013308E8 ; 3.2510926702984214E8 ; 2.3592169948226765E10 ; 0.0
126 ; 2648029.41374022 ; 2.0261583643300983E8 ; 3.277582132653218E8 ; 2.3794770244276897E10 ; 0.0
127 ; 2642797.9913155977 ; 2.026313573519647E8 ; 3.30406242679062E8 ; 2.3997386080709908E10 ; 0.0
128 ; 2639682.5754206614 ; 2.026468580229084E8 ; 3.330490406703776E8 ; 2.420001743806187E10 ; 0.0
129 ; 2636661.1636980018 ; 2.0266233767558962E8 ; 3.356887232457983E8 ; 2.4402664296084778E10 ; 0.0
130 ; 2632167.9054071973 ; 2.0267779555316573E8 ; 3.383253844094963E8 ; 2.460532663376037E10 ; 0.0
131 ; 2622407.5301491693 ; 2.0269323091178983E8 ; 3.409575523149035E8 ; 2.4808004429313534E10 ; 0.0
132 ; 2615138.211626317 ; 2.027086430202135E8 ; 3.4357995984505266E8 ; 2.5010697660225323E10 ; 0.0
133 ; 2609307.029618188 ; 2.027240311594049E8 ; 3.4619509805667895E8 ; 2.5213406303245537E10 ; 0.0
134 ; 2602955.809364103 ; 2.02739394622181E8 ; 3.4880440508629715E8 ; 2.541613033440494E10 ; 0.0
135 ; 2595761.1769870683 ; 2.0275473271285424E8 ; 3.5140736089566123E8 ; 2.5618869729027122E10 ; 0.0
136 ; 2589294.5947098057 ; 2.0277004474689212E8 ; 3.540031220726483E8 ; 2.5821624461739975E10 ; 0.0
137 ; 2582822.4004828967 ; 2.0278533005058986E8 ; 3.565924166673581E8 ; 2.6024394506486866E10 ; 0.0
138 ; 2576154.756610262 ; 2.0280058796075517E8 ; 3.59175239067841E8 ; 2.6227179836537457E10 ; 0.0
139 ; 2569847.1643549637 ; 2.028158178244049E8 ; 3.6175139382445127E8 ; 2.642998042449821E10 ; 0.0
140 ; 2562556.189014671 ; 2.028310189984729E8 ; 3.6432124098880625E8 ; 2.6632796242322617E10 ; 0.0
141 ; 2554465.826306817 ; 2.0284619084952897E8 ; 3.668837971778209E8 ; 2.683562726132109E10 ; 0.0
142 ; 2552178.3482455765 ; 2.028613327535079E8 ; 3.6943826300412774E8 ; 2.703847345217062E10 ; 0.0
143 ; 2538771.407415975 ; 2.0287644409544876E8 ; 3.719904413523733E8 ; 2.724133478492413E10 ; 0.0
144 ; 2534649.460041291 ; 2.0289152426924354E8 ; 3.745292127597893E8 ; 2.7444211229019577E10 ; 0.0
145 ; 2529112.3415077925 ; 2.0290657267739525E8 ; 3.770638622198306E8 ; 2.7647102753288822E10 ; 0.0
146 ; 2527009.573493558 ; 2.0292158873078483E8 ; 3.7959297456133837E8 ; 2.7850009325966217E10 ; 0.0
147 ; 2519795.6653866996 ; 2.029365718484462E8 ; 3.821199841348319E8 ; 2.8052930914697002E10 ; 0.0
148 ; 2516600.581267947 ; 2.0295152145735002E8 ; 3.846397798002186E8 ; 2.825586748654545E10 ; 0.0
149 ; 2513801.5818305477 ; 2.0296643699219477E8 ; 3.8715638038148654E8 ; 2.84588190080028E10 ; 0.0
150 ; 2510990.510531668 ; 2.029813178952058E8 ; 3.896701819633171E8 ; 2.8661785444994995E10 ; 0.0
151 ; 2502384.147590954 ; 2.0299616361594108E8 ; 3.9218117247384876E8 ; 2.88647667628902E10 ; 0.0
152 ; 2498552.2184639066 ; 2.0301097361110455E8 ; 3.946835566214397E8 ; 2.906776292650614E10 ; 0.0
153 ; 2496004.8077436164 ; 2.0302574734436554E8 ; 3.971821088399036E8 ; 2.9270773900117245E10 ; 0.0
154 ; 2492944.997675983 ; 2.0304048428618485E8 ; 3.996781136476472E8 ; 2.947379964746161E10 ; 0.0
155 ; 2485073.595487955 ; 2.0305518391364723E8 ; 4.0217105864532316E8 ; 2.9676840131747795E10 ; 0.0
156 ; 2483093.20566733 ; 2.0306984571029928E8 ; 4.046561322408111E8 ; 2.987989531566144E10 ; 0.0
157 ; 2477654.9028906305 ; 2.0308446916599357E8 ; 4.071392254464784E8 ; 3.0082965161371742E10 ; 0.0
158 ; 2473240.7985522384 ; 2.0309905377673775E8 ; 4.0961688034936905E8 ; 3.0286049630537735E10 ; 0.0
159 ; 2469897.5186269823 ; 2.031135990445494E8 ; 4.1209012114792126E8 ; 3.0489148684314472E10 ; 0.0
160 ; 2463552.002330008 ; 2.031281044773156E8 ; 4.1456001866654825E8 ; 3.069226228335902E10 ; 0.0
161 ; 2459445.4731455413 ; 2.031425695886576E8 ; 4.1702357066887826E8 ; 3.0895390387836334E10 ; 0.0
162 ; 2456601.068925715 ; 2.031569938977999E8 ; 4.194830161420238E8 ; 3.109853295742499E10 ; 0.0
163 ; 2451517.0109109874 ; 2.0317137692944434E8 ; 4.2193961721094954E8 ; 3.1301689951322792E10 ; 0.0
164 ; 2447615.4213124425 ; 2.0318571821364793E8 ; 4.243911342218605E8 ; 3.1504861328252235E10 ; 0.0
165 ; 2442413.2621231303 ; 2.0320001728570533E8 ; 4.26838749643173E8 ; 3.1708047046465885E10 ; 0.0
166 ; 2441838.2711112457 ; 2.0321427368603513E8 ; 4.292811629052961E8 ; 3.191124706375159E10 ; 0.0
167 ; 2432481.942627994 ; 2.0322848696007016E8 ; 4.3172300117640734E8 ; 3.2114461337437626E10 ; 0.0
168 ; 2430473.2783966577 ; 2.032426566581513E8 ; 4.341554831190353E8 ; 3.2317689824397697E10 ; 0.0
169 ; 2423670.1917967196 ; 2.032567823354252E8 ; 4.3658595639743197E8 ; 3.2520932481055847E10 ; 0.0
170 ; 2419574.796170429 ; 2.032708635517451E8 ; 4.390096265892287E8 ; 3.2724189263391273E10 ; 0.0
171 ; 2415895.5196578093 ; 2.032848998715754E8 ; 4.414292013853991E8 ; 3.292746012694302E10 ; 0.0
172 ; 2410095.978668779 ; 2.03298890863899E8 ; 4.438450969050569E8 ; 3.3130745026814594E10 ; 0.0
173 ; 2408498.5157513525 ; 2.0331283610212818E8 ; 4.4625519288372564E8 ; 3.3334043917678493E10 ; 0.0
174 ; 2404592.9887408316 ; 2.0332673516401812E8 ; 4.48663691399477E8 ; 3.353735675378062E10 ; 0.0
175 ; 2399169.834544553 ; 2.0334058763158348E8 ; 4.510682843882178E8 ; 3.3740683488944637E10 ; 0.0
176 ; 2396033.809127207 ; 2.0335439309101763E8 ; 4.5346745422276235E8 ; 3.394402407657622E10 ; 0.0
177 ; 2392658.0028739776 ; 2.0336815113261482E8 ; 4.5586348803188956E8 ; 3.414737846966724E10 ; 0.0
178 ; 2392194.6360447197 ; 2.0338186135069445E8 ; 4.582561460347635E8 ; 3.4350746620799854E10 ; 0.0
179 ; 2388541.742485237 ; 2.033955233435284E8 ; 4.6064834067080826E8 ; 3.455412848215055E10 ; 0.0
180 ; 2383277.1723993304 ; 2.034091367132703E8 ; 4.630368824132935E8 ; 3.475752400549408E10 ; 0.0
181 ; 2379186.56203903 ; 2.034227010658874E8 ; 4.654201595856928E8 ; 3.496093314220735E10 ; 0.0
182 ; 2380288.8000499564 ; 2.034362160110944E8 ; 4.6779934614773184E8 ; 3.516435584327324E10 ; 0.0
183 ; 2373576.307000346 ; 2.034496811622898E8 ; 4.701796349477818E8 ; 3.536779205928433E10 ; 0.0
184 ; 2368575.7697226447 ; 2.0346309613649404E8 ; 4.7255321125478214E8 ; 3.5571241740446625E10 ; 0.0
185 ; 2366755.398947594 ; 2.034764605542897E8 ; 4.749217870245048E8 ; 3.577470483658312E10 ; 0.0
186 ; 2363300.4628650034 ; 2.0348977403976366E8 ; 4.772885424234524E8 ; 3.597818129713741E10 ; 0.0
187 ; 2359798.612741 ; 2.0350303622045127E8 ; 4.796518428863174E8 ; 3.618167107117718E10 ; 0.0
188 ; 2356194.3045368143 ; 2.0351624672728202E8 ; 4.8201164149905837E8 ; 3.638517410739763E10 ; 0.0
189 ; 2352548.579554487 ; 2.0352940519452727E8 ; 4.843678358035952E8 ; 3.658869035412491E10 ; 0.0
190 ; 2348402.7097649546 ; 2.0354251125974947E8 ; 4.867203843831497E8 ; 3.6792219759319435E10 ; 0.0
191 ; 2347146.418381277 ; 2.0355556456375304E8 ; 4.8906878709291464E8 ; 3.6995762270579185E10 ; 0.0
192 ; 2343072.32971061 ; 2.0356856475053683E8 ; 4.914159335112959E8 ; 3.719931783514294E10 ; 0.0
193 ; 2339438.5203169743 ; 2.035815114672482E8 ; 4.937590058410065E8 ; 3.740288639989347E10 ; 0.0
194 ; 2336740.60936446 ; 2.0359440436413836E8 ; 4.960984443613235E8 ; 3.760646791136072E10 ; 0.0
195 ; 2331753.575553729 ; 2.0360724309451932E8 ; 4.984351849706879E8 ; 3.781006231572485E10 ; 0.0
196 ; 2328107.5563387545 ; 2.0362002731472206E8 ; 5.0076693854624164E8 ; 3.8013669558819374E10 ; 0.0
197 ; 2323740.9628360067 ; 2.0363275668405613E8 ; 5.0309504610258037E8 ; 3.8217289586134094E10 ; 0.0
198 ; 2321722.4316708623 ; 2.0364543086477053E8 ; 5.054187870654164E8 ; 3.842092234281815E10 ; 0.0
199 ; 2319048.658680698 ; 2.0365804952201572E8 ; 5.0774050949708724E8 ; 3.862456777368292E10 ; 0.0
