CSV File for the City 2 on Day 22
1 - Minute m 
2 - Power Consumed at minute m 
3 - Power Produced at minute m 
4 - Energy Consumed since the beginning of the day 
5 - Energy Produced since the beginning of the day 
6 - Energy Lost since the beginning of the day on lines starting from the city
 
0 ; 1.0283093927971166E7 ; 1.2204249831273675E7 ; 0.0 ; 0.0 ; 0.0
1 ; 1.0293190746336522E7 ; 1.2204249831273675E7 ; 1.0283093927971166E7 ; 1.2204249831273675E7 ; 0.0
2 ; 1.0302349554819003E7 ; 1.2204249831273675E7 ; 2.057628467430769E7 ; 2.440849966254735E7 ; 0.0
3 ; 1.0318940349785674E7 ; 1.2204249831273675E7 ; 3.087863422912669E7 ; 3.6612749493821025E7 ; 0.0
4 ; 1.033205132920517E7 ; 1.2204249831273675E7 ; 4.119757457891236E7 ; 4.88169993250947E7 ; 0.0
5 ; 1.0348971668285212E7 ; 1.2204249831273675E7 ; 5.152962590811753E7 ; 6.1021249156368375E7 ; 0.0
6 ; 1.0376647063891262E7 ; 1.2204249831273675E7 ; 6.1878597576402746E7 ; 7.322549898764205E7 ; 0.0
7 ; 1.0408199822580114E7 ; 1.2204249831273675E7 ; 7.225524464029402E7 ; 8.542974881891572E7 ; 0.0
8 ; 1.0458839286381148E7 ; 1.2204249831273675E7 ; 8.266344446287413E7 ; 9.76339986501894E7 ; 0.0
9 ; 1.053314243703467E7 ; 1.2204249831273675E7 ; 9.312228374925527E7 ; 1.0983824848146307E8 ; 0.0
10 ; 1.0653310320114905E7 ; 1.2204249831273675E7 ; 1.0365542618628994E8 ; 1.2204249831273675E8 ; 0.0
11 ; 1.0838615979999961E7 ; 1.2204249831273675E7 ; 1.1430873650640485E8 ; 1.3424674814401042E8 ; 0.0
12 ; 1.1141981960596379E7 ; 1.2204249831273675E7 ; 1.251473524864048E8 ; 1.464509979752841E8 ; 0.0
13 ; 1.1432285183518281E7 ; 1.2204249831273675E7 ; 1.362893344470012E8 ; 1.5865524780655777E8 ; 0.0
14 ; 1.1467265326464212E7 ; 1.2204249831273675E7 ; 1.4772161963051948E8 ; 1.7085949763783145E8 ; 0.0
15 ; 1.1480235407202173E7 ; 1.2204249831273675E7 ; 1.591888849569837E8 ; 1.8306374746910512E8 ; 0.0
16 ; 1.1489430883517873E7 ; 1.2204249831273675E7 ; 1.7066912036418587E8 ; 1.952679973003788E8 ; 0.0
17 ; 1.1506030212360628E7 ; 1.2204249831273675E7 ; 1.8215855124770373E8 ; 2.0747224713165247E8 ; 0.0
18 ; 1.1520212668521123E7 ; 1.2204249831273675E7 ; 1.9366458146006435E8 ; 2.1967649696292615E8 ; 0.0
19 ; 1.1534176740937065E7 ; 1.2204249831273675E7 ; 2.051847941285855E8 ; 2.3188074679419982E8 ; 0.0
20 ; 1.1543203047325037E7 ; 1.2204249831273675E7 ; 2.1671897086952254E8 ; 2.440849966254735E8 ; 0.0
21 ; 1.155801200222444E7 ; 1.2204249831273675E7 ; 2.282621739168476E8 ; 2.5628924645674717E8 ; 0.0
22 ; 1.1570956278218128E7 ; 1.2204249831273675E7 ; 2.3982018591907203E8 ; 2.6849349628802085E8 ; 0.0
23 ; 1.1586653729049522E7 ; 1.2204249831273675E7 ; 2.5139114219729015E8 ; 2.806977461192945E8 ; 0.0
24 ; 1.159652508367577E7 ; 1.2204249831273675E7 ; 2.629777959263397E8 ; 2.929019959505682E8 ; 0.0
25 ; 1.161084290288607E7 ; 1.2204249831273675E7 ; 2.745743210100154E8 ; 3.051062457818419E8 ; 0.0
26 ; 1.1626532189466855E7 ; 1.2204249831273675E7 ; 2.861851639129015E8 ; 3.1731049561311555E8 ; 0.0
27 ; 1.1636964027751429E7 ; 1.2204249831273675E7 ; 2.9781169610236835E8 ; 3.295147454443892E8 ; 0.0
28 ; 1.1651567911076646E7 ; 1.2204249831273675E7 ; 3.094486601301198E8 ; 3.417189952756629E8 ; 0.0
29 ; 1.1659453921144765E7 ; 1.2204249831273675E7 ; 3.2110022804119647E8 ; 3.539232451069366E8 ; 0.0
30 ; 1.1678301290299894E7 ; 1.2204249831273675E7 ; 3.3275968196234125E8 ; 3.6612749493821025E8 ; 0.0
31 ; 1.1687152521738304E7 ; 1.2204249831273675E7 ; 3.4443798325264114E8 ; 3.783317447694839E8 ; 0.0
32 ; 1.1700969655368399E7 ; 1.2204249831273675E7 ; 3.5612513577437943E8 ; 3.905359946007576E8 ; 0.0
33 ; 1.1709408470960015E7 ; 1.2204249831273675E7 ; 3.678261054297478E8 ; 4.027402444320313E8 ; 0.0
34 ; 1.1724334217063252E7 ; 1.2204249831273675E7 ; 3.7953551390070784E8 ; 4.1494449426330495E8 ; 0.0
35 ; 1.1733298909886993E7 ; 1.2204249831273675E7 ; 3.912598481177711E8 ; 4.271487440945786E8 ; 0.0
36 ; 1.1743090694786262E7 ; 1.2204249831273675E7 ; 4.029931470276581E8 ; 4.393529939258523E8 ; 0.0
37 ; 1.175307160911432E7 ; 1.2204249831273675E7 ; 4.1473623772244436E8 ; 4.51557243757126E8 ; 0.0
38 ; 1.176429187875884E7 ; 1.2204249831273675E7 ; 4.264893093315587E8 ; 4.6376149358839965E8 ; 0.0
39 ; 1.1773511290891746E7 ; 1.2204249831273675E7 ; 4.3825360121031755E8 ; 4.759657434196733E8 ; 0.0
40 ; 1.1781974425019875E7 ; 1.2204249831273675E7 ; 4.500271125012093E8 ; 4.88169993250947E8 ; 0.0
41 ; 1.1788723752665486E7 ; 1.2204249831273675E7 ; 4.618090869262292E8 ; 5.003742430822207E8 ; 0.0
42 ; 1.1797402618773373E7 ; 1.2204249831273675E7 ; 4.7359781067889464E8 ; 5.1257849291349435E8 ; 0.0
43 ; 1.1808137282510346E7 ; 1.2204249831273675E7 ; 4.8539521329766804E8 ; 5.24782742744768E8 ; 0.0
44 ; 1.1812031439155314E7 ; 1.2204249831273675E7 ; 4.972033505801784E8 ; 5.369869925760417E8 ; 0.0
45 ; 1.1818382774810603E7 ; 1.2204249831273675E7 ; 5.090153820193337E8 ; 5.491912424073154E8 ; 0.0
46 ; 1.1823473195038171E7 ; 1.2204249831273675E7 ; 5.2083376479414433E8 ; 5.61395492238589E8 ; 0.0
47 ; 1.1830144807455923E7 ; 1.2204249831273675E7 ; 5.3265723798918253E8 ; 5.735997420698627E8 ; 0.0
48 ; 1.1834257073400328E7 ; 1.2204249831273675E7 ; 5.444873827966385E8 ; 5.858039919011364E8 ; 0.0
49 ; 1.1839339093973082E7 ; 1.2204249831273675E7 ; 5.563216398700389E8 ; 5.980082417324101E8 ; 0.0
50 ; 1.1843054721011471E7 ; 1.2204249831273675E7 ; 5.681609789640119E8 ; 6.102124915636837E8 ; 0.0
51 ; 1.1848422041493168E7 ; 1.2204249831273675E7 ; 5.800040336850234E8 ; 6.224167413949574E8 ; 0.0
52 ; 1.1848419436842915E7 ; 1.2204249831273675E7 ; 5.918524557265166E8 ; 6.346209912262311E8 ; 0.0
53 ; 1.1851321727120403E7 ; 1.2204249831273675E7 ; 6.037008751633595E8 ; 6.468252410575048E8 ; 0.0
54 ; 1.1858138130714294E7 ; 1.2204249831273675E7 ; 6.155521968904799E8 ; 6.590294908887784E8 ; 0.0
55 ; 1.1860732889654316E7 ; 1.2204249831273675E7 ; 6.274103350211942E8 ; 6.712337407200521E8 ; 0.0
56 ; 1.1860545204945344E7 ; 1.2204249831273675E7 ; 6.392710679108485E8 ; 6.834379905513258E8 ; 0.0
57 ; 1.1866401967835769E7 ; 1.2204249831273675E7 ; 6.511316131157938E8 ; 6.956422403825995E8 ; 0.0
58 ; 1.1865187414812487E7 ; 1.2204249831273675E7 ; 6.629980150836296E8 ; 7.078464902138731E8 ; 0.0
59 ; 1.1868876460901897E7 ; 1.2204249831273675E7 ; 6.74863202498442E8 ; 7.200507400451468E8 ; 0.0
60 ; 1.1873337009807967E7 ; 1.2204249831273675E7 ; 6.867320789593439E8 ; 7.322549898764205E8 ; 0.0
61 ; 1.1873833586809082E7 ; 1.2204249831273675E7 ; 6.986054159691519E8 ; 7.444592397076942E8 ; 0.0
62 ; 1.187906058081687E7 ; 1.2204249831273675E7 ; 7.104792495559609E8 ; 7.566634895389678E8 ; 0.0
63 ; 1.1872865382759761E7 ; 1.2204249831273675E7 ; 7.223583101367778E8 ; 7.688677393702415E8 ; 0.0
64 ; 1.1877513167134887E7 ; 1.2204249831273675E7 ; 7.342311755195376E8 ; 7.810719892015152E8 ; 0.0
65 ; 1.1877695027778808E7 ; 1.2204249831273675E7 ; 7.461086886866724E8 ; 7.932762390327889E8 ; 0.0
66 ; 1.1881391745530538E7 ; 1.2204249831273675E7 ; 7.579863837144513E8 ; 8.054804888640625E8 ; 0.0
67 ; 1.188280033164905E7 ; 1.2204249831273675E7 ; 7.698677754599818E8 ; 8.176847386953362E8 ; 0.0
68 ; 1.1880206032485973E7 ; 1.2204249831273675E7 ; 7.817505757916309E8 ; 8.298889885266099E8 ; 0.0
69 ; 1.1886461701670662E7 ; 1.2204249831273675E7 ; 7.936307818241168E8 ; 8.420932383578836E8 ; 0.0
70 ; 1.188767016803497E7 ; 1.2204249831273675E7 ; 8.055172435257875E8 ; 8.542974881891572E8 ; 0.0
71 ; 1.1890711708856568E7 ; 1.2204249831273675E7 ; 8.174049136938224E8 ; 8.665017380204309E8 ; 0.0
72 ; 1.1890276504352305E7 ; 1.2204249831273675E7 ; 8.29295625402679E8 ; 8.787059878517046E8 ; 0.0
73 ; 1.1888250039595E7 ; 1.2204249831273675E7 ; 8.411859019070313E8 ; 8.909102376829783E8 ; 0.0
74 ; 1.1888883234569384E7 ; 1.2204249831273675E7 ; 8.530741519466263E8 ; 9.03114487514252E8 ; 0.0
75 ; 1.189181409931735E7 ; 1.2204249831273675E7 ; 8.649630351811957E8 ; 9.153187373455256E8 ; 0.0
76 ; 1.1889304105723377E7 ; 1.2204249831273675E7 ; 8.76854849280513E8 ; 9.275229871767993E8 ; 0.0
77 ; 1.1890235505723847E7 ; 1.2204249831273675E7 ; 8.887441533862364E8 ; 9.39727237008073E8 ; 0.0
78 ; 1.1887354506840305E7 ; 1.2204249831273675E7 ; 9.006343888919603E8 ; 9.519314868393466E8 ; 0.0
79 ; 1.188185468945642E7 ; 1.2204249831273675E7 ; 9.125217433988006E8 ; 9.641357366706203E8 ; 0.0
80 ; 1.188161115582421E7 ; 1.2204249831273675E7 ; 9.244035980882571E8 ; 9.76339986501894E8 ; 0.0
81 ; 1.1878114497060481E7 ; 1.2204249831273675E7 ; 9.362852092440813E8 ; 9.885442363331677E8 ; 0.0
82 ; 1.1872497162422964E7 ; 1.2204249831273675E7 ; 9.481633237411418E8 ; 1.0007484861644413E9 ; 0.0
83 ; 1.1869631092145523E7 ; 1.2204249831273675E7 ; 9.600358209035648E8 ; 1.012952735995715E9 ; 0.0
84 ; 1.1866374836382963E7 ; 1.2204249831273675E7 ; 9.719054519957104E8 ; 1.0251569858269887E9 ; 0.0
85 ; 1.186262445044456E7 ; 1.2204249831273675E7 ; 9.837718268320934E8 ; 1.0373612356582624E9 ; 0.0
86 ; 1.1856541933399772E7 ; 1.2204249831273675E7 ; 9.956344512825379E8 ; 1.049565485489536E9 ; 0.0
87 ; 1.1852537253306884E7 ; 1.2204249831273675E7 ; 1.0074909932159377E9 ; 1.0617697353208097E9 ; 0.0
88 ; 1.1845818411939692E7 ; 1.2204249831273675E7 ; 1.0193435304692446E9 ; 1.0739739851520834E9 ; 0.0
89 ; 1.1846239375913085E7 ; 1.2204249831273675E7 ; 1.0311893488811843E9 ; 1.086178234983357E9 ; 0.0
90 ; 1.1838862029602224E7 ; 1.2204249831273675E7 ; 1.0430355882570975E9 ; 1.0983824848146305E9 ; 0.0
91 ; 1.1835795705382714E7 ; 1.2204249831273675E7 ; 1.0548744502866997E9 ; 1.110586734645904E9 ; 0.0
92 ; 1.1830544155659143E7 ; 1.2204249831273675E7 ; 1.0667102459920824E9 ; 1.1227909844771776E9 ; 0.0
93 ; 1.1825686042782798E7 ; 1.2204249831273675E7 ; 1.0785407901477416E9 ; 1.1349952343084512E9 ; 0.0
94 ; 1.1818240768815033E7 ; 1.2204249831273675E7 ; 1.0903664761905243E9 ; 1.1471994841397247E9 ; 0.0
95 ; 1.1817597918326776E7 ; 1.2204249831273675E7 ; 1.1021847169593394E9 ; 1.1594037339709983E9 ; 0.0
96 ; 1.1810434474611454E7 ; 1.2204249831273675E7 ; 1.1140023148776662E9 ; 1.1716079838022718E9 ; 0.0
97 ; 1.1804081984212564E7 ; 1.2204249831273675E7 ; 1.1258127493522778E9 ; 1.1838122336335454E9 ; 0.0
98 ; 1.1798024252288967E7 ; 1.2204249831273675E7 ; 1.1376168313364904E9 ; 1.196016483464819E9 ; 0.0
99 ; 1.1790764383247323E7 ; 1.2204249831273675E7 ; 1.1494148555887794E9 ; 1.2082207332960925E9 ; 0.0
100 ; 1.1788135697163109E7 ; 1.2204249831273675E7 ; 1.1612056199720268E9 ; 1.220424983127366E9 ; 0.0
101 ; 1.1778307854082752E7 ; 1.2204249831273675E7 ; 1.17299375566919E9 ; 1.2326292329586396E9 ; 0.0
102 ; 1.1775658976552093E7 ; 1.2204249831273675E7 ; 1.1847720635232728E9 ; 1.2448334827899132E9 ; 0.0
103 ; 1.177158013477592E7 ; 1.2204249831273675E7 ; 1.1965477224998248E9 ; 1.2570377326211867E9 ; 0.0
104 ; 1.1762676834555766E7 ; 1.2204249831273675E7 ; 1.2083193026346006E9 ; 1.2692419824524603E9 ; 0.0
105 ; 1.175610246302178E7 ; 1.2204249831273675E7 ; 1.2200819794691565E9 ; 1.2814462322837338E9 ; 0.0
106 ; 1.1749105119349636E7 ; 1.2204249831273675E7 ; 1.2318380819321783E9 ; 1.2936504821150074E9 ; 0.0
107 ; 1.174154300487219E7 ; 1.2204249831273675E7 ; 1.243587187051528E9 ; 1.305854731946281E9 ; 0.0
108 ; 1.173760042452746E7 ; 1.2204249831273675E7 ; 1.2553287300564E9 ; 1.3180589817775545E9 ; 0.0
109 ; 1.1730508459420454E7 ; 1.2204249831273675E7 ; 1.2670663304809275E9 ; 1.330263231608828E9 ; 0.0
110 ; 1.1722062918375008E7 ; 1.2204249831273675E7 ; 1.278796838940348E9 ; 1.3424674814401016E9 ; 0.0
111 ; 1.171496361402957E7 ; 1.2204249831273675E7 ; 1.290518901858723E9 ; 1.3546717312713752E9 ; 0.0
112 ; 1.1709291071383208E7 ; 1.2204249831273675E7 ; 1.3022338654727526E9 ; 1.3668759811026487E9 ; 0.0
113 ; 1.1698443744997263E7 ; 1.2204249831273675E7 ; 1.3139431565441358E9 ; 1.3790802309339223E9 ; 0.0
114 ; 1.1694796436719526E7 ; 1.2204249831273675E7 ; 1.325641600289133E9 ; 1.3912844807651958E9 ; 0.0
115 ; 1.1689255756002065E7 ; 1.2204249831273675E7 ; 1.3373363967258525E9 ; 1.4034887305964694E9 ; 0.0
116 ; 1.1677682070655605E7 ; 1.2204249831273675E7 ; 1.3490256524818544E9 ; 1.415692980427743E9 ; 0.0
117 ; 1.1668725179509526E7 ; 1.2204249831273675E7 ; 1.36070333455251E9 ; 1.4278972302590165E9 ; 0.0
118 ; 1.1665175583399808E7 ; 1.2204249831273675E7 ; 1.3723720597320197E9 ; 1.44010148009029E9 ; 0.0
119 ; 1.1650613844762085E7 ; 1.2204249831273675E7 ; 1.3840372353154194E9 ; 1.4523057299215636E9 ; 0.0
120 ; 1.1644223965992745E7 ; 1.2204249831273675E7 ; 1.3956878491601815E9 ; 1.4645099797528372E9 ; 0.0
121 ; 1.1639934525628634E7 ; 1.2204249831273675E7 ; 1.4073320731261742E9 ; 1.4767142295841107E9 ; 0.0
122 ; 1.1629493043267326E7 ; 1.2204249831273675E7 ; 1.4189720076518028E9 ; 1.4889184794153843E9 ; 0.0
123 ; 1.162157680789415E7 ; 1.2204249831273675E7 ; 1.43060150069507E9 ; 1.5011227292466578E9 ; 0.0
124 ; 1.1609065677547606E7 ; 1.2204249831273675E7 ; 1.4422230775029643E9 ; 1.5133269790779314E9 ; 0.0
125 ; 1.1605257329896402E7 ; 1.2204249831273675E7 ; 1.453832143180512E9 ; 1.525531228909205E9 ; 0.0
126 ; 1.1591668908818899E7 ; 1.2204249831273675E7 ; 1.4654374005104084E9 ; 1.5377354787404785E9 ; 0.0
127 ; 1.158443699721391E7 ; 1.2204249831273675E7 ; 1.4770290694192274E9 ; 1.549939728571752E9 ; 0.0
128 ; 1.1574101904459158E7 ; 1.2204249831273675E7 ; 1.4886135064164412E9 ; 1.5621439784030256E9 ; 0.0
129 ; 1.1564097839995597E7 ; 1.2204249831273675E7 ; 1.5001876083209004E9 ; 1.5743482282342992E9 ; 0.0
130 ; 1.155476757051947E7 ; 1.2204249831273675E7 ; 1.511751706160896E9 ; 1.5865524780655727E9 ; 0.0
131 ; 1.1543376943907918E7 ; 1.2204249831273675E7 ; 1.5233064737314155E9 ; 1.5987567278968463E9 ; 0.0
132 ; 1.1530164713351747E7 ; 1.2204249831273675E7 ; 1.5348498506753235E9 ; 1.6109609777281199E9 ; 0.0
133 ; 1.1518990369874362E7 ; 1.2204249831273675E7 ; 1.5463800153886752E9 ; 1.6231652275593934E9 ; 0.0
134 ; 1.1504415145477876E7 ; 1.2204249831273675E7 ; 1.5578990057585497E9 ; 1.635369477390667E9 ; 0.0
135 ; 1.148962151642152E7 ; 1.2204249831273675E7 ; 1.5694034209040275E9 ; 1.6475737272219405E9 ; 0.0
136 ; 1.1472382311767127E7 ; 1.2204249831273675E7 ; 1.580893042420449E9 ; 1.659777977053214E9 ; 0.0
137 ; 1.1461154235751182E7 ; 1.2204249831273675E7 ; 1.5923654247322161E9 ; 1.6719822268844876E9 ; 0.0
138 ; 1.1448999462670652E7 ; 1.2204249831273675E7 ; 1.6038265789679673E9 ; 1.6841864767157612E9 ; 0.0
139 ; 1.1437775218288342E7 ; 1.2204249831273675E7 ; 1.6152755784306378E9 ; 1.6963907265470347E9 ; 0.0
140 ; 1.1423784083757268E7 ; 1.2204249831273675E7 ; 1.6267133536489263E9 ; 1.7085949763783083E9 ; 0.0
141 ; 1.140729307229773E7 ; 1.2204249831273675E7 ; 1.6381371377326834E9 ; 1.7207992262095819E9 ; 0.0
142 ; 1.1392232168826224E7 ; 1.2204249831273675E7 ; 1.6495444308049812E9 ; 1.7330034760408554E9 ; 0.0
143 ; 1.1378713668642284E7 ; 1.2204249831273675E7 ; 1.6609366629738076E9 ; 1.745207725872129E9 ; 0.0
144 ; 1.1363631612128856E7 ; 1.2204249831273675E7 ; 1.6723153766424499E9 ; 1.7574119757034025E9 ; 0.0
145 ; 1.1354497270999953E7 ; 1.2204249831273675E7 ; 1.6836790082545788E9 ; 1.769616225534676E9 ; 0.0
146 ; 1.134545461493017E7 ; 1.2204249831273675E7 ; 1.6950335055255787E9 ; 1.7818204753659496E9 ; 0.0
147 ; 1.1332755406969387E7 ; 1.2204249831273675E7 ; 1.706378960140509E9 ; 1.7940247251972232E9 ; 0.0
148 ; 1.131991399544336E7 ; 1.2204249831273675E7 ; 1.7177117155474782E9 ; 1.8062289750284967E9 ; 0.0
149 ; 1.131374958207524E7 ; 1.2204249831273675E7 ; 1.7290316295429215E9 ; 1.8184332248597703E9 ; 0.0
150 ; 1.1303060460508265E7 ; 1.2204249831273675E7 ; 1.740345379124997E9 ; 1.8306374746910439E9 ; 0.0
151 ; 1.1292619231710976E7 ; 1.2204249831273675E7 ; 1.7516484395855052E9 ; 1.8428417245223174E9 ; 0.0
152 ; 1.1282373496426905E7 ; 1.2204249831273675E7 ; 1.7629410588172162E9 ; 1.855045974353591E9 ; 0.0
153 ; 1.1270038418042004E7 ; 1.2204249831273675E7 ; 1.774223432313643E9 ; 1.8672502241848645E9 ; 0.0
154 ; 1.1260870776105512E7 ; 1.2204249831273675E7 ; 1.785493470731685E9 ; 1.879454474016138E9 ; 0.0
155 ; 1.1252262168009933E7 ; 1.2204249831273675E7 ; 1.7967543415077903E9 ; 1.8916587238474116E9 ; 0.0
156 ; 1.123959355570168E7 ; 1.2204249831273675E7 ; 1.8080066036758003E9 ; 1.9038629736786852E9 ; 0.0
157 ; 1.1231231250333589E7 ; 1.2204249831273675E7 ; 1.819246197231502E9 ; 1.9160672235099587E9 ; 0.0
158 ; 1.1220588445261568E7 ; 1.2204249831273675E7 ; 1.8304774284818356E9 ; 1.9282714733412323E9 ; 0.0
159 ; 1.1210327779522326E7 ; 1.2204249831273675E7 ; 1.841698016927097E9 ; 1.9404757231725059E9 ; 0.0
160 ; 1.1195973078352382E7 ; 1.2204249831273675E7 ; 1.8529083447066195E9 ; 1.9526799730037794E9 ; 0.0
161 ; 1.1188358765227813E7 ; 1.2204249831273675E7 ; 1.864104317784972E9 ; 1.964884222835053E9 ; 0.0
162 ; 1.11749541545037E7 ; 1.2204249831273675E7 ; 1.8752926765501997E9 ; 1.9770884726663265E9 ; 0.0
163 ; 1.1161554507764315E7 ; 1.2204249831273675E7 ; 1.8864676307047033E9 ; 1.9892927224976E9 ; 0.0
164 ; 1.1154168748008687E7 ; 1.2204249831273675E7 ; 1.8976291852124677E9 ; 2.0014969723288736E9 ; 0.0
165 ; 1.1140108291544905E7 ; 1.2204249831273675E7 ; 1.9087833539604764E9 ; 2.0137012221601472E9 ; 0.0
166 ; 1.1131456881677039E7 ; 1.2204249831273675E7 ; 1.9199234622520213E9 ; 2.0259054719914207E9 ; 0.0
167 ; 1.1118769942551723E7 ; 1.2204249831273675E7 ; 1.9310549191336985E9 ; 2.0381097218226943E9 ; 0.0
168 ; 1.1109056461023493E7 ; 1.2204249831273675E7 ; 1.94217368907625E9 ; 2.0503139716539679E9 ; 0.0
169 ; 1.1098881193393473E7 ; 1.2204249831273675E7 ; 1.9532827455372736E9 ; 2.0625182214852414E9 ; 0.0
170 ; 1.1086143276024435E7 ; 1.2204249831273675E7 ; 1.964381626730667E9 ; 2.074722471316515E9 ; 0.0
171 ; 1.1075214141178967E7 ; 1.2204249831273675E7 ; 1.9754677700066915E9 ; 2.0869267211477885E9 ; 0.0
172 ; 1.1064857750678986E7 ; 1.2204249831273675E7 ; 1.9865429841478705E9 ; 2.099130970979062E9 ; 0.0
173 ; 1.1053165450592233E7 ; 1.2204249831273675E7 ; 1.9976078418985496E9 ; 2.1113352208103356E9 ; 0.0
174 ; 1.1047539373928871E7 ; 1.2204249831273675E7 ; 2.0086610073491418E9 ; 2.1235394706416092E9 ; 0.0
175 ; 1.1038330568246683E7 ; 1.2204249831273675E7 ; 2.0197085467230706E9 ; 2.1357437204728827E9 ; 0.0
176 ; 1.103611201020549E7 ; 1.2204249831273675E7 ; 2.0307468772913172E9 ; 2.1479479703041563E9 ; 0.0
177 ; 1.1025261883026727E7 ; 1.2204249831273675E7 ; 2.0417829893015227E9 ; 2.16015222013543E9 ; 0.0
178 ; 1.1020619858775025E7 ; 1.2204249831273675E7 ; 2.0528082511845496E9 ; 2.1723564699667034E9 ; 0.0
179 ; 1.101312722410369E7 ; 1.2204249831273675E7 ; 2.0638288710433247E9 ; 2.184560719797977E9 ; 0.0
180 ; 1.1008483587728249E7 ; 1.2204249831273675E7 ; 2.0748419982674284E9 ; 2.1967649696292505E9 ; 0.0
181 ; 1.0999123937827893E7 ; 1.2204249831273675E7 ; 2.0858504818551567E9 ; 2.208969219460524E9 ; 0.0
182 ; 1.0991579739837874E7 ; 1.2204249831273675E7 ; 2.0968496057929845E9 ; 2.2211734692917976E9 ; 0.0
183 ; 1.0983507649598436E7 ; 1.2204249831273675E7 ; 2.1078411855328224E9 ; 2.233377719123071E9 ; 0.0
184 ; 1.0975380066750053E7 ; 1.2204249831273675E7 ; 2.1188246931824207E9 ; 2.2455819689543447E9 ; 0.0
185 ; 1.0969919473595265E7 ; 1.2204249831273675E7 ; 2.1298000732491708E9 ; 2.2577862187856183E9 ; 0.0
186 ; 1.0965624441806681E7 ; 1.2204249831273675E7 ; 2.1407699927227662E9 ; 2.269990468616892E9 ; 0.0
187 ; 1.0957139588804895E7 ; 1.2204249831273675E7 ; 2.1517356171645727E9 ; 2.2821947184481654E9 ; 0.0
188 ; 1.0950517664187869E7 ; 1.2204249831273675E7 ; 2.1626927567533774E9 ; 2.294398968279439E9 ; 0.0
189 ; 1.0946372579186238E7 ; 1.2204249831273675E7 ; 2.1736432744175653E9 ; 2.3066032181107125E9 ; 0.0
190 ; 1.0937831721139407E7 ; 1.2204249831273675E7 ; 2.184589646996752E9 ; 2.318807467941986E9 ; 0.0
191 ; 1.0930593455803772E7 ; 1.2204249831273675E7 ; 2.195527478717891E9 ; 2.3310117177732596E9 ; 0.0
192 ; 1.0920960795608383E7 ; 1.2204249831273675E7 ; 2.206458072173695E9 ; 2.343215967604533E9 ; 0.0
193 ; 1.0914888713930776E7 ; 1.2204249831273675E7 ; 2.2173790329693036E9 ; 2.3554202174358068E9 ; 0.0
194 ; 1.0909333981193485E7 ; 1.2204249831273675E7 ; 2.228293921683234E9 ; 2.3676244672670803E9 ; 0.0
195 ; 1.0902432877984537E7 ; 1.2204249831273675E7 ; 2.2392032556644278E9 ; 2.379828717098354E9 ; 0.0
