CSV File for the City 1 on Day 324
1 - Minute m 
2 - Power Consumed at minute m 
3 - Power Produced at minute m 
4 - Energy Consumed since the beginning of the day 
5 - Energy Produced since the beginning of the day 
6 - Energy Lost since the beginning of the day on lines starting from the city
 
0 ; 1.617060440274297E7 ; 1.057609296222994E8 ; 0.0 ; 0.0 ; 0.0
1 ; 1.6189681326117389E7 ; 1.059138088154335E8 ; 1.617060440274297E7 ; 1.057609296222994E8 ; 0.0
2 ; 1.620933638887733E7 ; 1.0637547850360098E8 ; 3.236028572886036E7 ; 2.116747384377329E8 ; 0.0
3 ; 1.622744645360004E7 ; 1.0714593975288862E8 ; 4.856962211773769E7 ; 3.180502169413339E8 ; 0.0
4 ; 1.625690107561526E7 ; 1.0822519351362109E8 ; 6.479706857133773E7 ; 4.251961566942225E8 ; 0.0
5 ; 1.6281486818047347E7 ; 1.096132406168397E8 ; 8.105396964695299E7 ; 5.334213502078436E8 ; 0.0
6 ; 1.6321930973054197E7 ; 1.1131008177118388E8 ; 9.733545646500033E7 ; 6.430345908246833E8 ; 0.0
7 ; 1.6377182581881281E7 ; 1.1331571756020361E8 ; 1.1365738743805453E8 ; 7.543446725958672E8 ; 0.0
8 ; 1.6453007345548661E7 ; 1.1563014844012618E8 ; 1.3003457001993582E8 ; 8.676603901560707E8 ; 0.0
9 ; 1.6571535508594265E7 ; 1.1825337473809838E8 ; 1.4648757736548448E8 ; 9.832905385961969E8 ; 0.0
10 ; 1.6753669362361755E7 ; 1.2118539665091848E8 ; 1.6305911287407875E8 ; 1.1015439133342953E9 ; 0.0
11 ; 1.704375705674248E7 ; 1.2442621424427125E8 ; 1.798127822364405E8 ; 1.2227293099852138E9 ; 0.0
12 ; 1.7511095037057787E7 ; 1.2797582745247188E8 ; 1.96856539293183E8 ; 1.347155524229485E9 ; 0.0
13 ; 1.7951335036155067E7 ; 1.3183423607872212E8 ; 2.143676343302408E8 ; 1.475131351681957E9 ; 0.0
14 ; 1.8004281991071705E7 ; 1.3600143979587525E8 ; 2.3231896936639586E8 ; 1.6069655877606792E9 ; 0.0
15 ; 1.803026838380155E7 ; 1.404774381477039E8 ; 2.5032325135746756E8 ; 1.7429670275565546E9 ; 0.0
16 ; 1.8050386070945743E7 ; 1.4526223055065814E8 ; 2.683535197412691E8 ; 1.8834444657042584E9 ; 0.0
17 ; 1.806871811324592E7 ; 1.503558162960985E8 ; 2.8640390581221485E8 ; 2.0287066962549167E9 ; 0.0
18 ; 1.809269116348844E7 ; 1.557581945529837E8 ; 3.0447262392546076E8 ; 2.1790625125510154E9 ; 0.0
19 ; 1.8115087129863624E7 ; 1.6146936437098905E8 ; 3.225653150889492E8 ; 2.334820707103999E9 ; 0.0
20 ; 1.8137453546593584E7 ; 1.6748932468402776E8 ; 3.406804022188128E8 ; 2.496290071474988E9 ; 0.0
21 ; 1.815680576185487E7 ; 1.738180743141462E8 ; 3.588178557654064E8 ; 2.6637793961590157E9 ; 0.0
22 ; 1.8179568773067713E7 ; 1.804556119757586E8 ; 3.769746615272613E8 ; 2.8375974704731617E9 ; 0.0
23 ; 1.820522378529313E7 ; 1.874019362801876E8 ; 3.95154230300329E8 ; 3.0180530824489202E9 ; 0.0
24 ; 1.8224924565424845E7 ; 1.9465704574047345E8 ; 4.1335945408562213E8 ; 3.205455018729108E9 ; 0.0
25 ; 1.8247332789813627E7 ; 2.009089796745984E8 ; 4.31584378651047E8 ; 3.400112064469581E9 ; 0.0
26 ; 1.827312114173055E7 ; 2.009112842476166E8 ; 4.498317114408606E8 ; 3.6010210441441793E9 ; 0.0
27 ; 1.8287770861351773E7 ; 2.009137270019468E8 ; 4.681048325825912E8 ; 3.801932328391796E9 ; 0.0
28 ; 1.8311302938540548E7 ; 2.0091630610965195E8 ; 4.8639260344394296E8 ; 4.002846055393743E9 ; 0.0
29 ; 1.833373873865263E7 ; 2.00919019671272E8 ; 5.047039063824835E8 ; 4.203762361503395E9 ; 0.0
30 ; 1.8354124370950896E7 ; 2.009218657214567E8 ; 5.230376451211361E8 ; 4.404681381174667E9 ; 0.0
31 ; 1.8376600833456147E7 ; 2.0092484223460892E8 ; 5.41391769492087E8 ; 4.605603246896124E9 ; 0.0
32 ; 1.8393663485436745E7 ; 2.0092794713050652E8 ; 5.597683703255432E8 ; 4.806528089130733E9 ; 0.0
33 ; 1.841506366450448E7 ; 2.0093117827987173E8 ; 5.7816203381098E8 ; 5.007456036261239E9 ; 0.0
34 ; 1.8435744428297054E7 ; 2.009345335098609E8 ; 5.965770974754845E8 ; 5.208387214541111E9 ; 0.0
35 ; 1.8455601735067833E7 ; 2.0093801060944805E8 ; 6.150128419037815E8 ; 5.409321748050972E9 ; 0.0
36 ; 1.8467698297312383E7 ; 2.0094160733467957E8 ; 6.334684436388494E8 ; 5.61025975866042E9 ; 0.0
37 ; 1.8487904577409156E7 ; 2.009453214137795E8 ; 6.519361419361618E8 ; 5.8112013659951E9 ; 0.0
38 ; 1.8502260639904514E7 ; 2.0094915055208677E8 ; 6.704240465135709E8 ; 6.012146687408879E9 ; 0.0
39 ; 1.852011642178163E7 ; 2.0095309243681E8 ; 6.889263071534754E8 ; 6.213095837960966E9 ; 0.0
40 ; 1.853315498798223E7 ; 2.0095714474158576E8 ; 7.074464235752571E8 ; 6.414048930397776E9 ; 0.0
41 ; 1.8546034519995417E7 ; 2.00961305130831E8 ; 7.259795785632393E8 ; 6.615006075139361E9 ; 0.0
42 ; 1.8563377004147038E7 ; 2.0096557126388007E8 ; 7.445256130832348E8 ; 6.815967380270192E9 ; 0.0
43 ; 1.857417977948615E7 ; 2.00969940798902E8 ; 7.630889900873818E8 ; 7.016932951534072E9 ; 0.0
44 ; 1.85871231036442E7 ; 2.0097441139659262E8 ; 7.81663169866868E8 ; 7.2179028923329735E9 ; 0.0
45 ; 1.8599033771402825E7 ; 2.0097898072364047E8 ; 8.002502929705123E8 ; 7.418877303729567E9 ; 0.0
46 ; 1.860922057326413E7 ; 2.0098364645596611E8 ; 8.188493267419151E8 ; 7.619856284453207E9 ; 0.0
47 ; 1.861968996561864E7 ; 2.0098840628173566E8 ; 8.374585473151792E8 ; 7.820839930909173E9 ; 0.0
48 ; 1.8628128960594807E7 ; 2.0099325790415186E8 ; 8.560782372807978E8 ; 8.021828337190908E9 ; 0.0
49 ; 1.8642738867353268E7 ; 2.0099819904402655E8 ; 8.747063662413926E8 ; 8.22282159509506E9 ; 0.0
50 ; 1.864288075444607E7 ; 2.0100322744213927E8 ; 8.933491051087459E8 ; 8.423819794139087E9 ; 0.0
51 ; 1.8653977780577462E7 ; 2.0100834086138836E8 ; 9.11991985863192E8 ; 8.624823021581226E9 ; 0.0
52 ; 1.8659562971687496E7 ; 2.0101353708874136E8 ; 9.306459636437694E8 ; 8.825831362442616E9 ; 0.0
53 ; 1.8662953555587016E7 ; 2.010188139369918E8 ; 9.493055266154568E8 ; 9.026844899531357E9 ; 0.0
54 ; 1.86722231870453E7 ; 2.010241692463307E8 ; 9.679684801710439E8 ; 9.22786371346835E9 ; 0.0
55 ; 1.8676268804443527E7 ; 2.0102960088574082E8 ; 9.866407033580892E8 ; 9.42888788271468E9 ; 0.0
56 ; 1.8681453876659162E7 ; 2.010351067542224E8 ; 1.0053169721625327E9 ; 9.62991748360042E9 ; 0.0
57 ; 1.868964217770517E7 ; 2.010406847818594E8 ; 1.0239984260391918E9 ; 9.830952590354643E9 ; 0.0
58 ; 1.8695045212544776E7 ; 2.0104633293073452E8 ; 1.042688068216897E9 ; 1.0031993275136501E10 ; 0.0
59 ; 1.870450021865449E7 ; 2.0105204919570255E8 ; 1.0613831134294418E9 ; 1.0233039608067236E10 ; 0.0
60 ; 1.8707238338954702E7 ; 2.0105783160503045E8 ; 1.0800876136480963E9 ; 1.043409165726294E10 ; 0.0
61 ; 1.871368740281392E7 ; 2.0106367822091314E8 ; 1.098794851987051E9 ; 1.063514948886797E10 ; 0.0
62 ; 1.8717143761882953E7 ; 2.0106958713987312E8 ; 1.117508539389865E9 ; 1.0836213167088882E10 ; 0.0
63 ; 1.872441441381683E7 ; 2.01075556493053E8 ; 1.136225683151748E9 ; 1.1037282754228756E10 ; 0.0
64 ; 1.8724737091171276E7 ; 2.0108158444640797E8 ; 1.1549500975655649E9 ; 1.123835831072181E10 ; 0.0
65 ; 1.873334927895847E7 ; 2.010876692008071E8 ; 1.1736748346567361E9 ; 1.1439439895168217E10 ; 0.0
66 ; 1.8734347614054088E7 ; 2.0109380899204993E8 ; 1.1924081839356947E9 ; 1.1640527564369024E10 ; 0.0
67 ; 1.8743478516032413E7 ; 2.0110000209080637E8 ; 1.211142531549749E9 ; 1.1841621373361074E10 ; 0.0
68 ; 1.874727758028019E7 ; 2.0110624680248618E8 ; 1.2298860100657814E9 ; 1.2042721375451881E10 ; 0.0
69 ; 1.8750596908670865E7 ; 2.0111254146704468E8 ; 1.2486332876460617E9 ; 1.2243827622254368E10 ; 0.0
70 ; 1.8753019349092297E7 ; 2.0111888445873094E8 ; 1.2673838845547326E9 ; 1.2444940163721413E10 ; 0.0
71 ; 1.8762751962635025E7 ; 2.0112527418578404E8 ; 1.2861369039038248E9 ; 1.2646059048180143E10 ; 0.0
72 ; 1.8757613339007042E7 ; 2.0113170909008306E8 ; 1.3048996558664598E9 ; 1.2847184322365927E10 ; 0.0
73 ; 1.8766509589671224E7 ; 2.0113818764675584E8 ; 1.323657269205467E9 ; 1.3048316031456009E10 ; 0.0
74 ; 1.877121288412176E7 ; 2.011447083637512E8 ; 1.3424237787951381E9 ; 1.3249454219102764E10 ; 0.0
75 ; 1.8776091552266624E7 ; 2.011512697813791E8 ; 1.3611949916792598E9 ; 1.3450598927466515E10 ; 0.0
76 ; 1.8774364950389028E7 ; 2.0115787047182328E8 ; 1.3799710832315264E9 ; 1.3651750197247894E10 ; 0.0
77 ; 1.8776357681053333E7 ; 2.0116450903862947E8 ; 1.3987454481819153E9 ; 1.3852908067719717E10 ; 0.0
78 ; 1.8779364787079666E7 ; 2.0117118411617357E8 ; 1.4175218058629687E9 ; 1.4054072576758347E10 ; 0.0
79 ; 1.877193082802347E7 ; 2.0117789436911246E8 ; 1.4363011706500483E9 ; 1.425524376087452E10 ; 0.0
80 ; 1.8769628942645982E7 ; 2.0118463849182093E8 ; 1.4550731014780717E9 ; 1.4456421655243631E10 ; 0.0
81 ; 1.876945770581757E7 ; 2.0119141520781705E8 ; 1.4738427304207177E9 ; 1.4657606293735453E10 ; 0.0
82 ; 1.8763656258935094E7 ; 2.0119822326917902E8 ; 1.4926121881265352E9 ; 1.485879770894327E10 ; 0.0
83 ; 1.875929243123922E7 ; 2.0120506145595545E8 ; 1.5113758443854704E9 ; 1.5059995932212448E10 ; 0.0
84 ; 1.87588291076564E7 ; 2.0121192857557142E8 ; 1.5301351368167095E9 ; 1.5261200993668404E10 ; 0.0
85 ; 1.875358755232556E7 ; 2.012188234622321E8 ; 1.548893965924366E9 ; 1.5462412922243975E10 ; 0.0
86 ; 1.874839754538238E7 ; 2.012257449763258E8 ; 1.5676475534766915E9 ; 1.5663631745706207E10 ; 0.0
87 ; 1.874398824047391E7 ; 2.0123269200382778E8 ; 1.5863959510220737E9 ; 1.5864857490682533E10 ; 0.0
88 ; 1.87410825540022E7 ; 2.0123966345570663E8 ; 1.6051399392625477E9 ; 1.6066090182686361E10 ; 0.0
89 ; 1.8736699896292754E7 ; 2.0124665826733407E8 ; 1.62388102181655E9 ; 1.6267329846142069E10 ; 0.0
90 ; 1.8732915550004166E7 ; 2.012536753978996E8 ; 1.6426177217128427E9 ; 1.6468576504409403E10 ; 0.0
91 ; 1.8727809701020878E7 ; 2.0126071382983074E8 ; 1.661350637262847E9 ; 1.6669830179807302E10 ; 0.0
92 ; 1.872272926839227E7 ; 2.0126777256822008E8 ; 1.680078446963868E9 ; 1.6871090893637133E10 ; 0.0
93 ; 1.8716359131091505E7 ; 2.0127485064025947E8 ; 1.6988011762322602E9 ; 1.7072358666205353E10 ; 0.0
94 ; 1.8712907596506525E7 ; 2.0128194709468248E8 ; 1.7175175353633518E9 ; 1.727363351684561E10 ; 0.0
95 ; 1.8708889742999226E7 ; 2.0128906100121522E8 ; 1.7362304429598584E9 ; 1.7474915463940292E10 ; 0.0
96 ; 1.870133309581932E7 ; 2.012961914500367E8 ; 1.7549393327028577E9 ; 1.767620452494151E10 ; 0.0
97 ; 1.8697718167629104E7 ; 2.0130333755124834E8 ; 1.773640665798677E9 ; 1.7877500716391544E10 ; 0.0
98 ; 1.8687751617240224E7 ; 2.0131049843435353E8 ; 1.792338383966306E9 ; 1.807880405394279E10 ; 0.0
99 ; 1.868564108570767E7 ; 2.0131767324774745E8 ; 1.8110261355835462E9 ; 1.8280114552377144E10 ; 0.0
100 ; 1.8680894823130373E7 ; 2.0132486115821728E8 ; 1.8297117766692538E9 ; 1.8481432225624893E10 ; 0.0
101 ; 1.866716543933763E7 ; 2.0133206135045284E8 ; 1.8483926714923842E9 ; 1.868275708678311E10 ; 0.0
102 ; 1.8658711530808415E7 ; 2.013392730265682E8 ; 1.867059836931722E9 ; 1.8884089148133564E10 ; 0.0
103 ; 1.8656474531848177E7 ; 2.013464954056338E8 ; 1.8857185484625304E9 ; 1.9085428421160133E10 ; 0.0
104 ; 1.865035849413299E7 ; 2.0135372772321978E8 ; 1.9043750229943786E9 ; 1.9286774916565765E10 ; 0.0
105 ; 1.8645181335061003E7 ; 2.0136096923094988E8 ; 1.9230253814885116E9 ; 1.9488128644288986E10 ; 0.0
106 ; 1.86395856424126E7 ; 2.0136821919606623E8 ; 1.9416705628235726E9 ; 1.9689489613519936E10 ; 0.0
107 ; 1.8631347926274374E7 ; 2.0137547690100512E8 ; 1.9603101484659853E9 ; 1.9890857832716003E10 ; 0.0
108 ; 1.8617572463737406E7 ; 2.0138274164298326E8 ; 1.9789414963922596E9 ; 2.009223330961701E10 ; 0.0
109 ; 1.8618382788432032E7 ; 2.013900127335949E8 ; 1.997559068855997E9 ; 2.029361605125999E10 ; 0.0
110 ; 1.8605181413579825E7 ; 2.0139728949841917E8 ; 2.0161774516444292E9 ; 2.0495006063993584E10 ; 0.0
111 ; 1.8600836785407744E7 ; 2.014045712766382E8 ; 2.0347826330580091E9 ; 2.0696403353492004E10 ; 0.0
112 ; 1.8595704165259928E7 ; 2.0141185742066526E8 ; 2.053383469843417E9 ; 2.0897807924768642E10 ; 0.0
113 ; 1.8587316158806182E7 ; 2.014191472957829E8 ; 2.0719791740086768E9 ; 2.109921978218931E10 ; 0.0
114 ; 1.8575621615449946E7 ; 2.0142644027979127E8 ; 2.0905664901674829E9 ; 2.1300638929485092E10 ; 0.0
115 ; 1.8563469343357746E7 ; 2.0143373576266605E8 ; 2.1091421117829328E9 ; 2.1502065369764885E10 ; 0.0
116 ; 1.855692668685173E7 ; 2.0144103314622605E8 ; 2.1277055811262906E9 ; 2.170349910552755E10 ; 0.0
117 ; 1.855084086219264E7 ; 2.0144833184381002E8 ; 2.1462625078131423E9 ; 2.1904940138673775E10 ; 0.0
118 ; 1.854075570852012E7 ; 2.0145563127996287E8 ; 2.164813348675335E9 ; 2.2106388470517586E10 ; 0.0
119 ; 1.8531511906478904E7 ; 2.0146293089013073E8 ; 2.183354104383855E9 ; 2.230784410179755E10 ; 0.0
120 ; 1.852571703050776E7 ; 2.0147023012036484E8 ; 2.2018856162903337E9 ; 2.250930703268768E10 ; 0.0
121 ; 1.8511235428797532E7 ; 2.014775284270342E8 ; 2.2204113333208413E9 ; 2.2710777262808044E10 ; 0.0
122 ; 1.8505007267179526E7 ; 2.0148482527654627E8 ; 2.238922568749639E9 ; 2.2912254791235077E10 ; 0.0
123 ; 1.8494305959323674E7 ; 2.0149212014507613E8 ; 2.2574275760168185E9 ; 2.3113739616511623E10 ; 0.0
124 ; 1.8484412363688502E7 ; 2.0149941251830366E8 ; 2.2759218819761424E9 ; 2.33152317366567E10 ; 0.0
125 ; 1.847109879856852E7 ; 2.0150670189115822E8 ; 2.294406294339831E9 ; 2.3516731149175003E10 ; 0.0
126 ; 1.8463558412333615E7 ; 2.0151398776757124E8 ; 2.3128773931383996E9 ; 2.3718237851066162E10 ; 0.0
127 ; 1.8456602424319033E7 ; 2.015212696602359E8 ; 2.331340951550733E9 ; 2.3919751838833733E10 ; 0.0
128 ; 1.8439688661507137E7 ; 2.0152854709037423E8 ; 2.3497975539750524E9 ; 2.412127310849397E10 ; 0.0
129 ; 1.8434607697739813E7 ; 2.015358195875111E8 ; 2.3682372426365595E9 ; 2.4322801655584343E10 ; 0.0
130 ; 1.841948850338137E7 ; 2.0154308668925485E8 ; 2.386671850334299E9 ; 2.4524337475171856E10 ; 0.0
131 ; 1.8403396837929603E7 ; 2.0155034794108498E8 ; 2.4050913388376803E9 ; 2.472588056186111E10 ; 0.0
132 ; 1.838397588747655E7 ; 2.0155760289614567E8 ; 2.42349473567561E9 ; 2.4927430909802197E10 ; 0.0
133 ; 1.837030088504426E7 ; 2.0156485111504596E8 ; 2.4418787115630865E9 ; 2.512898851269834E10 ; 0.0
134 ; 1.8351808793839533E7 ; 2.0157209216566595E8 ; 2.4602490124481306E9 ; 2.533055336381339E10 ; 0.0
135 ; 1.8334369983664736E7 ; 2.0157932562296864E8 ; 2.47860082124197E9 ; 2.5532125455979053E10 ; 0.0
136 ; 1.831203026198411E7 ; 2.0158655106881773E8 ; 2.4969351912256346E9 ; 2.573370478160202E10 ; 0.0
137 ; 1.8295782903480876E7 ; 2.0159376809180078E8 ; 2.5152472214876184E9 ; 2.5935291332670837E10 ; 0.0
138 ; 1.8282114361301675E7 ; 2.01600976287058E8 ; 2.5335430043910995E9 ; 2.6136885100762638E10 ; 0.0
139 ; 1.8266052690684184E7 ; 2.0160817525611594E8 ; 2.5518251187524014E9 ; 2.6338486077049698E10 ; 0.0
140 ; 1.8247146228774868E7 ; 2.016153646067265E8 ; 2.5700911714430857E9 ; 2.6540094252305813E10 ; 0.0
141 ; 1.822626472891486E7 ; 2.0162254395271066E8 ; 2.5883383176718607E9 ; 2.674170961691254E10 ; 0.0
142 ; 1.820360938389666E7 ; 2.016297129138071E8 ; 2.6065645824007754E9 ; 2.694333216086525E10 ; 0.0
143 ; 1.819531609588326E7 ; 2.0163687111552542E8 ; 2.6247681917846723E9 ; 2.7144961873779057E10 ; 0.0
144 ; 1.8173907443600956E7 ; 2.0164401818900377E8 ; 2.6429635078805556E9 ; 2.734659874489458E10 ; 0.0
145 ; 1.8161283436105244E7 ; 2.0165115377087086E8 ; 2.6611374153241568E9 ; 2.7548242763083584E10 ; 0.0
146 ; 1.8150592033753194E7 ; 2.0165827750311214E8 ; 2.679298698760262E9 ; 2.7749893916854454E10 ; 0.0
147 ; 1.8137068278775685E7 ; 2.0166538903294006E8 ; 2.6974492907940154E9 ; 2.7951552194357567E10 ; 0.0
148 ; 1.812663159442907E7 ; 2.016724880126684E8 ; 2.715586359072791E9 ; 2.8153217583390507E10 ; 0.0
149 ; 1.8115653753630523E7 ; 2.0167957409959018E8 ; 2.73371299066722E9 ; 2.8354890071403175E10 ; 0.0
150 ; 1.8107195608843572E7 ; 2.016866469558595E8 ; 2.7518286444208508E9 ; 2.8556569645502766E10 ; 0.0
151 ; 1.809203297913401E7 ; 2.0169370624837685E8 ; 2.7699358400296946E9 ; 2.8758256292458626E10 ; 0.0
152 ; 1.8078902446416482E7 ; 2.017007516486779E8 ; 2.7880278730088286E9 ; 2.8959949998707E10 ; 0.0
153 ; 1.8071300528501585E7 ; 2.0170778283282572E8 ; 2.806106775455245E9 ; 2.916165075035568E10 ; 0.0
154 ; 1.8057471481233425E7 ; 2.017147994813063E8 ; 2.8241780759837465E9 ; 2.9363358533188503E10 ; 0.0
155 ; 1.8043086584948193E7 ; 2.01721801278927E8 ; 2.84223554746498E9 ; 2.956507333266981E10 ; 0.0
156 ; 1.8031602741321903E7 ; 2.0172878791471836E8 ; 2.860278634049928E9 ; 2.976679513394874E10 ; 0.0
157 ; 1.801411796624223E7 ; 2.017357590818387E8 ; 2.87831023679125E9 ; 2.9968523921863457E10 ; 0.0
158 ; 1.8006923324025884E7 ; 2.0174271447748157E8 ; 2.8963243547574925E9 ; 3.0170259680945297E10 ; 0.0
159 ; 1.7998865473046083E7 ; 2.0174965380278617E8 ; 2.9143312780815187E9 ; 3.037200239542278E10 ; 0.0
160 ; 1.798441192889578E7 ; 2.017565767627502E8 ; 2.932330143554565E9 ; 3.0573752049225567E10 ; 0.0
161 ; 1.7969496110301796E7 ; 2.0176348306614566E8 ; 2.950314555483461E9 ; 3.0775508625988316E10 ; 0.0
162 ; 1.795427412523995E7 ; 2.017703724254367E8 ; 2.968284051593763E9 ; 3.0977272109054462E10 ; 0.0
163 ; 1.7944064935554817E7 ; 2.017772445567004E8 ; 2.9862383257190027E9 ; 3.11790424814799E10 ; 0.0
164 ; 1.7933897140650693E7 ; 2.0178409917954978E8 ; 3.0041823906545577E9 ; 3.1380819726036602E10 ; 0.0
165 ; 1.791897954197494E7 ; 2.0179093601705876E8 ; 3.0221162877952085E9 ; 3.1582603825216152E10 ; 0.0
166 ; 1.790499347591359E7 ; 2.0179775479568994E8 ; 3.0400352673371835E9 ; 3.178439476123321E10 ; 0.0
167 ; 1.7898405268208686E7 ; 2.018045552452241E8 ; 3.057940260813097E9 ; 3.19861925160289E10 ; 0.0
168 ; 1.7884428922680803E7 ; 2.0181133709869185E8 ; 3.0758386660813055E9 ; 3.2187997071274124E10 ; 0.0
169 ; 1.7871483976100188E7 ; 2.0181810009230754E8 ; 3.0937230950039864E9 ; 3.2389808408372814E10 ; 0.0
170 ; 1.7857334194945704E7 ; 2.0182484396540478E8 ; 3.1115945789800863E9 ; 3.2591626508465122E10 ; 0.0
171 ; 1.78398378417923E7 ; 2.018315684603742E8 ; 3.129451913175032E9 ; 3.2793451352430527E10 ; 0.0
172 ; 1.7831318434998937E7 ; 2.0183827332260284E8 ; 3.1472917510168242E9 ; 3.29952829208909E10 ; 0.0
173 ; 1.7820404593293644E7 ; 2.0184495830041525E8 ; 3.165123069451823E9 ; 3.31971211942135E10 ; 0.0
174 ; 1.7810401484718565E7 ; 2.018516231450166E8 ; 3.182943474045117E9 ; 3.3398966152513916E10 ; 0.0
175 ; 1.7801966209519994E7 ; 2.0185826761043733E8 ; 3.2007538755298357E9 ; 3.360081777565893E10 ; 0.0
176 ; 1.779502180902716E7 ; 2.018648914534792E8 ; 3.2185558417393556E9 ; 3.3802676043269367E10 ; 0.0
177 ; 1.7786316595249616E7 ; 2.0187149443366322E8 ; 3.2363508635483828E9 ; 3.4004540934722847E10 ; 0.0
178 ; 1.7778040331301328E7 ; 2.0187807631317902E8 ; 3.2541371801436324E9 ; 3.420641242915651E10 ; 0.0
179 ; 1.7771240237979E7 ; 2.0188463685683563E8 ; 3.2719152204749336E9 ; 3.440829050546969E10 ; 0.0
180 ; 1.77573237356142E7 ; 2.0189117583201367E8 ; 3.2896864607129126E9 ; 3.461017514232652E10 ; 0.0
181 ; 1.775402085281044E7 ; 2.0189769300861907E8 ; 3.307443784448527E9 ; 3.481206631815854E10 ; 0.0
182 ; 1.772039934968565E7 ; 2.019E8 ; 3.3251978053013372E9 ; 3.501396401116716E10 ; 0.0
183 ; 1.768583909032552E7 ; 2.019E8 ; 3.342918204651023E9 ; 3.521586401116716E10 ; 0.0
184 ; 1.766147368233582E7 ; 2.019E8 ; 3.3606040437413483E9 ; 3.541776401116716E10 ; 0.0
185 ; 1.7623522946273588E7 ; 2.019E8 ; 3.378265517423684E9 ; 3.561966401116716E10 ; 0.0
186 ; 1.758834145981446E7 ; 2.019E8 ; 3.395889040369958E9 ; 3.582156401116716E10 ; 0.0
187 ; 1.7555543369320903E7 ; 2.019E8 ; 3.4134773818297725E9 ; 3.602346401116716E10 ; 0.0
188 ; 1.7523711871413615E7 ; 2.019E8 ; 3.4310329251990933E9 ; 3.622536401116716E10 ; 0.0
189 ; 1.7494215337953784E7 ; 2.019E8 ; 3.448556637070507E9 ; 3.642726401116716E10 ; 0.0
190 ; 1.745636199997963E7 ; 2.019E8 ; 3.4660508524084606E9 ; 3.662916401116716E10 ; 0.0
191 ; 1.7425890056342587E7 ; 2.019E8 ; 3.48350721440844E9 ; 3.683106401116716E10 ; 0.0
192 ; 1.7392847242374983E7 ; 2.019E8 ; 3.5009331044647827E9 ; 3.703296401116716E10 ; 0.0
193 ; 1.7358973452535696E7 ; 2.019E8 ; 3.5183259517071576E9 ; 3.723486401116716E10 ; 0.0
194 ; 1.732877034242166E7 ; 2.019E8 ; 3.5356849251596932E9 ; 3.743676401116716E10 ; 0.0
195 ; 1.729398947481611E7 ; 2.019E8 ; 3.553013695502115E9 ; 3.763866401116716E10 ; 0.0
196 ; 1.725841686649914E7 ; 2.019E8 ; 3.570307684976931E9 ; 3.784056401116716E10 ; 0.0
197 ; 1.7225657318708975E7 ; 2.019E8 ; 3.58756610184343E9 ; 3.804246401116716E10 ; 0.0
