CSV File for the City 2 on Day 3
1 - Minute m 
2 - Power Consumed at minute m 
3 - Power Produced at minute m 
4 - Energy Consumed since the beginning of the day 
5 - Energy Produced since the beginning of the day 
6 - Energy Lost since the beginning of the day on lines starting from the city
 
0 ; 1779054.8122061563 ; 1.0521088921247265E8 ; 0.0 ; 0.0 ; 0.0
1 ; 1781635.5190733154 ; 1.0536476475505304E8 ; 1779054.8122061563 ; 1.0521088921247265E8 ; 0.0
2 ; 1783143.189880778 ; 1.0582732561613092E8 ; 3560690.3312794715 ; 2.105756539675257E8 ; 0.0
3 ; 1785176.677337543 ; 1.0659857290825766E8 ; 5343833.52116025 ; 3.164029795836566E8 ; 0.0
4 ; 1787710.491994508 ; 1.0767850765205127E8 ; 7129010.198497793 ; 4.230015524919143E8 ; 0.0
5 ; 1789491.6937018062 ; 1.0906713076315421E8 ; 8916720.6904923 ; 5.3068006014396554E8 ; 0.0
6 ; 1794589.9960309283 ; 1.1076444303994939E8 ; 1.0706212384194106E7 ; 6.397471909071198E8 ; 0.0
7 ; 1802537.6150682804 ; 1.1277044515239388E8 ; 1.2500802380225034E7 ; 7.505116339470692E8 ; 0.0
8 ; 1811919.0410604964 ; 1.1508513763231784E8 ; 1.4303339995293316E7 ; 8.63282079099463E8 ; 0.0
9 ; 1825068.5406070075 ; 1.1770852086550725E8 ; 1.6115259036353812E7 ; 9.783672167317808E8 ; 0.0
10 ; 1847446.4611887587 ; 1.2064059508583981E8 ; 1.794032757696082E7 ; 1.0960757375972881E9 ; 0.0
11 ; 1880081.178592053 ; 1.2388136037168011E8 ; 1.978777403814958E7 ; 1.2167163326831279E9 ; 0.0
12 ; 1934317.978714939 ; 1.2743081664466354E8 ; 2.1667855216741633E7 ; 1.340597693054808E9 ; 0.0
13 ; 1986796.34286861 ; 1.3128896367091238E8 ; 2.3602173195456572E7 ; 1.4680285096994715E9 ; 0.0
14 ; 1992234.265752136 ; 1.3545580106464076E8 ; 2.5588969538325183E7 ; 1.5993174733703837E9 ; 0.0
15 ; 1996255.985072008 ; 1.399313282940184E8 ; 2.758120380407732E7 ; 1.7347732744350245E9 ; 0.0
16 ; 1998070.4116409798 ; 1.447155446890883E8 ; 2.957745978914933E7 ; 1.874704602729043E9 ; 0.0
17 ; 1999550.5870814887 ; 1.4980844945146754E8 ; 3.157553020079031E7 ; 2.0194201474181314E9 ; 0.0
18 ; 2002732.5515769206 ; 1.5521004166551363E8 ; 3.35750807878718E7 ; 2.169228596869599E9 ; 0.0
19 ; 2005631.2849566091 ; 1.609203203106086E8 ; 3.557781333944872E7 ; 2.3244386385351124E9 ; 0.0
20 ; 2007091.0858327367 ; 1.66939284274201E8 ; 3.758344462440533E7 ; 2.485358958845721E9 ; 0.0
21 ; 2009344.0999621009 ; 1.7326693236525396E8 ; 3.959053571023807E7 ; 2.6522982431199217E9 ; 0.0
22 ; 2012239.3078899325 ; 1.799032633277642E8 ; 4.159987981020017E7 ; 2.8255651754851756E9 ; 0.0
23 ; 2013564.4399273086 ; 1.8684827585405517E8 ; 4.36121191180901E7 ; 3.0054684388129396E9 ; 0.0
24 ; 2016781.7046942748 ; 1.9410196859758323E8 ; 4.562568355801741E7 ; 3.192316714666995E9 ; 0.0
25 ; 2020087.2598182177 ; 2.0035238108323142E8 ; 4.764246526271169E7 ; 3.3864186832645783E9 ; 0.0
26 ; 2021604.987312517 ; 2.0035305975545356E8 ; 4.966255252252991E7 ; 3.58677106434781E9 ; 0.0
27 ; 2024951.1255213257 ; 2.003537725134498E8 ; 5.1684157509842426E7 ; 3.7871241241032634E9 ; 0.0
28 ; 2026416.901819597 ; 2.0035451796716192E8 ; 5.370910863536375E7 ; 3.987477896616713E9 ; 0.0
29 ; 2030014.4822528127 ; 2.0035529473866025E8 ; 5.5735525537183344E7 ; 4.187832414583875E9 ; 0.0
30 ; 2029996.6224504851 ; 2.0035610146920487E8 ; 5.776554001943616E7 ; 4.3881877093225355E9 ; 0.0
31 ; 2034807.1287903925 ; 2.003569368252547E8 ; 5.9795536641886644E7 ; 4.58854381079174E9 ; 0.0
32 ; 2036258.8431075865 ; 2.003577995034748E8 ; 6.183034377067704E7 ; 4.788900747616995E9 ; 0.0
33 ; 2038046.4265211343 ; 2.0035868823480675E8 ; 6.3866602613784626E7 ; 4.98925854712047E9 ; 0.0
34 ; 2039231.458592256 ; 2.003596017876792E8 ; 6.590464904030576E7 ; 5.189617235355277E9 ; 0.0
35 ; 2041705.9729902267 ; 2.0036053897043967E8 ; 6.794388049889801E7 ; 5.389976837142956E9 ; 0.0
36 ; 2044496.6241850816 ; 2.003614986330929E8 ; 6.998558647188824E7 ; 5.590337376113396E9 ; 0.0
37 ; 2044095.6469371691 ; 2.0036247966842905E8 ; 7.203008309607333E7 ; 5.790698874746489E9 ; 0.0
38 ; 2047380.8838673069 ; 2.00363481012623E8 ; 7.407417874301049E7 ; 5.991061354414918E9 ; 0.0
39 ; 2049663.1121057088 ; 2.0036450164538154E8 ; 7.61215596268778E7 ; 6.191424835427541E9 ; 0.0
40 ; 2052266.7639321694 ; 2.003655405897088E8 ; 7.817122273898351E7 ; 6.391789337072923E9 ; 0.0
41 ; 2053408.182432346 ; 2.0036659691135567E8 ; 8.022348950291568E7 ; 6.592154877662632E9 ; 0.0
42 ; 2052192.8339787233 ; 2.003676697180103E8 ; 8.227689768534803E7 ; 6.792521474573988E9 ; 0.0
43 ; 2055452.430138047 ; 2.003687581582829E8 ; 8.432909051932676E7 ; 6.992889144291998E9 ; 0.0
44 ; 2055932.5934557465 ; 2.00369861420529E8 ; 8.638454294946481E7 ; 7.193257902450281E9 ; 0.0
45 ; 2057690.7545031514 ; 2.0037097873155198E8 ; 8.844047554292056E7 ; 7.3936277638708105E9 ; 0.0
46 ; 2058447.851421314 ; 2.003721093552176E8 ; 9.04981662974237E7 ; 7.593998742602363E9 ; 0.0
47 ; 2059579.9298708723 ; 2.003732525910106E8 ; 9.255661414884502E7 ; 7.794370851957581E9 ; 0.0
48 ; 2059651.2767950671 ; 2.003744077725567E8 ; 9.461619407871589E7 ; 7.994744104548592E9 ; 0.0
49 ; 2060814.6221736132 ; 2.00375574266131E8 ; 9.667584535551096E7 ; 8.195118512321148E9 ; 0.0
50 ; 2062763.1473699377 ; 2.003767514691689E8 ; 9.873665997768457E7 ; 8.395494086587279E9 ; 0.0
51 ; 2062691.527375865 ; 2.0037793880879313E8 ; 1.0079942312505451E8 ; 8.595870838056448E9 ; 0.0
52 ; 2063812.376250287 ; 2.0037913574036804E8 ; 1.0286211465243037E8 ; 8.796248776865242E9 ; 0.0
53 ; 2062902.46470369 ; 2.003803417460888E8 ; 1.0492592702868065E8 ; 8.99662791260561E9 ; 0.0
54 ; 2064054.9125829642 ; 2.003815563336128E8 ; 1.0698882949338435E8 ; 9.197008254351698E9 ; 0.0
55 ; 2064763.1293492136 ; 2.0038277903473732E8 ; 1.0905288440596731E8 ; 9.39738981068531E9 ; 0.0
56 ; 2065430.5222046296 ; 2.0038400940412718E8 ; 1.1111764753531653E8 ; 9.597772589720047E9 ; 0.0
57 ; 2064911.2729429055 ; 2.0038524701809454E8 ; 1.1318307805752115E8 ; 9.798156599124174E9 ; 0.0
58 ; 2066075.8788788186 ; 2.0038649147343174E8 ; 1.1524798933046405E8 ; 9.99854184614227E9 ; 0.0
59 ; 2067120.055005808 ; 2.0038774238629806E8 ; 1.1731406520934287E8 ; 1.0198928337615702E10 ; 0.0
60 ; 2067159.5790913387 ; 2.003889993911599E8 ; 1.1938118526434867E8 ; 1.0399316080001999E10 ; 0.0
61 ; 2067794.303763961 ; 2.0039026213978353E8 ; 1.2144834484344001E8 ; 1.0599705079393158E10 ; 0.0
62 ; 2068809.8873594322 ; 2.003915303002799E8 ; 1.2351613914720397E8 ; 1.0800095341532942E10 ; 0.0
63 ; 2068179.1905103624 ; 2.0039280355619934E8 ; 1.2558494903456339E8 ; 1.1000486871833221E10 ; 0.0
64 ; 2070110.9620502004 ; 2.003940816056752E8 ; 1.2765312822507375E8 ; 1.1200879675389421E10 ; 0.0
65 ; 2069058.3683653998 ; 2.0039536416061407E8 ; 1.2972323918712395E8 ; 1.1401273756995096E10 ; 0.0
66 ; 2069928.1134107483 ; 2.0039665094593117E8 ; 1.3179229755548936E8 ; 1.160166912115571E10 ; 0.0
67 ; 2070530.1621700025 ; 2.0039794169882873E8 ; 1.338622256689001E8 ; 1.180206577210164E10 ; 0.0
68 ; 2069017.4197191545 ; 2.0039923616811514E8 ; 1.359327558310701E8 ; 1.200246371380047E10 ; 0.0
69 ; 2070501.689208425 ; 2.0040053411356342E8 ; 1.3800177325078925E8 ; 1.2202862949968586E10 ; 0.0
70 ; 2072511.0114735048 ; 2.0040183530530646E8 ; 1.4007227493999767E8 ; 1.240326348408215E10 ; 0.0
71 ; 2071008.0454433775 ; 2.0040313952326766E8 ; 1.4214478595147118E8 ; 1.2603665319387457E10 ; 0.0
72 ; 2071112.6965911286 ; 2.004044465566243E8 ; 1.4421579399691457E8 ; 1.2804068458910725E10 ; 0.0
73 ; 2072316.332471132 ; 2.004057562033028E8 ; 1.462869066935057E8 ; 1.3004472905467348E10 ; 0.0
74 ; 2071786.4467231322 ; 2.0040706826950333E8 ; 1.4835922302597684E8 ; 1.320487866167065E10 ; 0.0
75 ; 2071632.4261495816 ; 2.0040838256925225E8 ; 1.5043100947269997E8 ; 1.3405285729940153E10 ; 0.0
76 ; 2072643.0224343343 ; 2.0040969892398107E8 ; 1.5250264189884955E8 ; 1.3605694112509405E10 ; 0.0
77 ; 2072158.4902258932 ; 2.0041101716213003E8 ; 1.5457528492128387E8 ; 1.3806103811433386E10 ; 0.0
78 ; 2072251.529307191 ; 2.00412337118775E8 ; 1.5664744341150975E8 ; 1.4006514828595516E10 ; 0.0
79 ; 2070327.316464905 ; 2.004136586352763E8 ; 1.5871969494081694E8 ; 1.420692716571429E10 ; 0.0
80 ; 2070313.326612229 ; 2.0041498155894795E8 ; 1.6079002225728184E8 ; 1.4407340824349567E10 ; 0.0
81 ; 2069938.346596637 ; 2.004163057427466E8 ; 1.6286033558389407E8 ; 1.4607755805908516E10 ; 0.0
82 ; 2068870.5670406995 ; 2.0041763104497823E8 ; 1.649302739304907E8 ; 1.4808172111651262E10 ; 0.0
83 ; 2067978.1945843138 ; 2.0041895732902217E8 ; 1.669991444975314E8 ; 1.5008589742696241E10 ; 0.0
84 ; 2067566.5854591718 ; 2.0042028446307096E8 ; 1.6906712269211572E8 ; 1.5209008700025263E10 ; 0.0
85 ; 2067487.8725356085 ; 2.004216123198854E8 ; 1.711346892775749E8 ; 1.5409428984488335E10 ; 0.0
86 ; 2066921.9921161912 ; 2.0042294077656356E8 ; 1.732021771501105E8 ; 1.560985059680822E10 ; 0.0
87 ; 2065888.7113778943 ; 2.004242697143232E8 ; 1.752690991422267E8 ; 1.5810273537584784E10 ; 0.0
88 ; 2064655.0117817498 ; 2.0042559901829645E8 ; 1.7733498785360458E8 ; 1.6010697807299107E10 ; 0.0
89 ; 2064878.8963265328 ; 2.004269285773363E8 ; 1.7939964286538634E8 ; 1.6211123406317404E10 ; 0.0
90 ; 2063645.4645479617 ; 2.0042825828383398E8 ; 1.8146452176171288E8 ; 1.6411550334894741E10 ; 0.0
91 ; 2061690.090693735 ; 2.0042958803354663E8 ; 1.8352816722626084E8 ; 1.6611978593178576E10 ; 0.0
92 ; 2061308.6576670157 ; 2.0043091772543466E8 ; 1.8558985731695458E8 ; 1.6812408181212122E10 ; 0.0
93 ; 2061417.0314680552 ; 2.004322472615083E8 ; 1.876511659746216E8 ; 1.7012839098937557E10 ; 0.0
94 ; 2061398.9638594768 ; 2.0043357654668227E8 ; 1.8971258300608966E8 ; 1.7213271346199066E10 ; 0.0
95 ; 2059264.23451823 ; 2.0043490548863906E8 ; 1.9177398196994913E8 ; 1.7413704922745747E10 ; 0.0
96 ; 2058082.3591096664 ; 2.0043623399769926E8 ; 1.9383324620446736E8 ; 1.7614139828234386E10 ; 0.0
97 ; 2056816.7783683063 ; 2.004375619866991E8 ; 1.9589132856357703E8 ; 1.7814576062232086E10 ; 0.0
98 ; 2057573.7915512442 ; 2.0043888937087482E8 ; 1.9794814534194532E8 ; 1.8015013624218784E10 ; 0.0
99 ; 2054507.0281337493 ; 2.0044021606775296E8 ; 2.0000571913349655E8 ; 1.821545251358966E10 ; 0.0
100 ; 2053677.8106944275 ; 2.0044154199704683E8 ; 2.020602261616303E8 ; 1.8415892729657413E10 ; 0.0
101 ; 2053414.3487009841 ; 2.0044286708055848E8 ; 2.0411390397232473E8 ; 1.861633427165446E10 ; 0.0
102 ; 2051797.0133437465 ; 2.0044419124208567E8 ; 2.061673183210257E8 ; 1.881677713873502E10 ; 0.0
103 ; 2050221.3262739761 ; 2.004455144073339E8 ; 2.0821911533436945E8 ; 1.9017221329977104E10 ; 0.0
104 ; 2050301.9192181327 ; 2.004468365038332E8 ; 2.1026933666064343E8 ; 1.9217666844384438E10 ; 0.0
105 ; 2049121.499214226 ; 2.0044815746085894E8 ; 2.1231963857986155E8 ; 1.941811368088827E10 ; 0.0
106 ; 2047651.9832950807 ; 2.0044947720935702E8 ; 2.1436876007907578E8 ; 1.961856183834913E10 ; 0.0
107 ; 2045393.5835968044 ; 2.0045079568187273E8 ; 2.1641641206237087E8 ; 1.9819011315558487E10 ; 0.0
108 ; 2045955.4428618012 ; 2.0045211281248352E8 ; 2.1846180564596766E8 ; 2.001946211124036E10 ; 0.0
109 ; 2044520.8917868263 ; 2.0045342853673485E8 ; 2.2050776108882946E8 ; 2.0219914224052845E10 ; 0.0
110 ; 2043689.197578909 ; 2.0045474279157957E8 ; 2.2255228198061627E8 ; 2.042036765258958E10 ; 0.0
111 ; 2040706.0788770793 ; 2.004560555153202E8 ; 2.2459597117819518E8 ; 2.062082239538116E10 ; 0.0
112 ; 2040015.282615499 ; 2.0045736664755422E8 ; 2.2663667725707227E8 ; 2.082127845089648E10 ; 0.0
113 ; 2038887.2350497695 ; 2.0045867612912196E8 ; 2.2867669253968778E8 ; 2.1021735817544033E10 ; 0.0
114 ; 2038916.8382371329 ; 2.004599839020571E8 ; 2.3071557977473757E8 ; 2.1222194493673157E10 ; 0.0
115 ; 2036572.1657749063 ; 2.004612899095398E8 ; 2.327544966129747E8 ; 2.1422654477575214E10 ; 0.0
116 ; 2035293.652533329 ; 2.0046259409585172E8 ; 2.3479106877874961E8 ; 2.1623115767484753E10 ; 0.0
117 ; 2036424.6940414552 ; 2.0046389640633366E8 ; 2.3682636243128294E8 ; 2.1823578361580605E10 ; 0.0
118 ; 2032639.9739212743 ; 2.0046519678734487E8 ; 2.388627871253244E8 ; 2.202404225798694E10 ; 0.0
119 ; 2030963.9674546723 ; 2.0046649518622476E8 ; 2.4089542709924567E8 ; 2.2224507454774284E10 ; 0.0
120 ; 2030039.7139292236 ; 2.0046779155125588E8 ; 2.4292639106670034E8 ; 2.242497394996051E10 ; 0.0
121 ; 2028179.7908591921 ; 2.004690858316291E8 ; 2.4495643078062958E8 ; 2.2625441741511765E10 ; 0.0
122 ; 2026428.4962834308 ; 2.0047037797741038E8 ; 2.4698461057148877E8 ; 2.2825910827343395E10 ; 0.0
123 ; 2024835.4175517804 ; 2.004716679395088E8 ; 2.490110390677722E8 ; 2.3026381205320805E10 ; 0.0
124 ; 2023636.1181137883 ; 2.0047295566964644E8 ; 2.51035874485324E8 ; 2.3226852873260315E10 ; 0.0
125 ; 2021627.252368807 ; 2.0047424112032953E8 ; 2.5305951060343778E8 ; 2.3427325828929962E10 ; 0.0
126 ; 2019541.4783819776 ; 2.0047552424482077E8 ; 2.550811378558066E8 ; 2.3627800070050293E10 ; 0.0
127 ; 2019435.532875111 ; 2.004768049971132E8 ; 2.5710067933418858E8 ; 2.3828275594295113E10 ; 0.0
128 ; 2018097.2624050172 ; 2.004780833319051E8 ; 2.591201148670637E8 ; 2.4028752399292225E10 ; 0.0
129 ; 2016850.9961459767 ; 2.00479359204576E8 ; 2.611382121294687E8 ; 2.422923048262413E10 ; 0.0
130 ; 2014202.4659787405 ; 2.004806325711639E8 ; 2.6315506312561467E8 ; 2.4429709841828705E10 ; 0.0
131 ; 2010805.4319917432 ; 2.0048190338834336E8 ; 2.651692655915934E8 ; 2.4630190474399868E10 ; 0.0
132 ; 2009598.493996191 ; 2.004831716134048E8 ; 2.6718007102358517E8 ; 2.483067237778821E10 ; 0.0
133 ; 2007346.679956994 ; 2.0048443720423445E8 ; 2.6918966951758134E8 ; 2.5031155549401615E10 ; 0.0
134 ; 2005048.5361733683 ; 2.0048570011929527E8 ; 2.711970161975383E8 ; 2.523163998660585E10 ; 0.0
135 ; 2001631.3115018755 ; 2.004869603176089E8 ; 2.7320206473371166E8 ; 2.5432125686725147E10 ; 0.0
136 ; 1998341.570555373 ; 2.004882177587381E8 ; 2.752036960452135E8 ; 2.5632612647042755E10 ; 0.0
137 ; 1997734.6886626394 ; 2.0048947240277028E8 ; 2.772020376157689E8 ; 2.5833100864801495E10 ; 0.0
138 ; 1995207.781230146 ; 2.004907242103013E8 ; 2.7919977230443156E8 ; 2.6033590337204266E10 ; 0.0
139 ; 1994074.790815023 ; 2.004919731424205E8 ; 2.811949800856617E8 ; 2.6234081061414566E10 ; 0.0
140 ; 1991105.259747811 ; 2.0049321916069597E8 ; 2.831890548764767E8 ; 2.6434573034556988E10 ; 0.0
141 ; 1989020.380865075 ; 2.0049446222716057E8 ; 2.851801601362245E8 ; 2.663506625371768E10 ; 0.0
142 ; 1985664.1992729667 ; 2.0049570230429864E8 ; 2.871691805170896E8 ; 2.6835560715944843E10 ; 0.0
143 ; 1983874.734972411 ; 2.004969393550331E8 ; 2.891548447163626E8 ; 2.703605641824914E10 ; 0.0
144 ; 1980391.033738013 ; 2.004981733427132E8 ; 2.91138719451335E8 ; 2.7236553357604176E10 ; 0.0
145 ; 1977206.3642007064 ; 2.0049940423110288E8 ; 2.9311911048507303E8 ; 2.7437051530946888E10 ; 0.0
146 ; 1975557.6735494523 ; 2.005006319843693E8 ; 2.9509631684927374E8 ; 2.763755093517799E10 ; 0.0
147 ; 1974975.0023572522 ; 2.005018565670722E8 ; 2.970718745228232E8 ; 2.783805156716236E10 ; 0.0
148 ; 1974100.672384267 ; 2.005030779441535E8 ; 2.9904684952518046E8 ; 2.8038553423729435E10 ; 0.0
149 ; 1972610.8517407728 ; 2.0050429608092728E8 ; 3.010209501975647E8 ; 2.8239056501673588E10 ; 0.0
150 ; 1970347.2562438229 ; 2.0050551094307044E8 ; 3.029935610493055E8 ; 2.8439560797754517E10 ; 0.0
151 ; 1967686.167343067 ; 2.005067224966134E8 ; 3.049639083055493E8 ; 2.8640066308697586E10 ; 0.0
152 ; 1965582.0818502137 ; 2.0050793070793146E8 ; 3.069315944728924E8 ; 2.88405730311942E10 ; 0.0
153 ; 1965336.2718807256 ; 2.0050913554373625E8 ; 3.0889717655474263E8 ; 2.904108096190213E10 ; 0.0
154 ; 1962127.2517792298 ; 2.0051033697106782E8 ; 3.108625128266234E8 ; 2.9241590097445866E10 ; 0.0
155 ; 1960923.2475441226 ; 2.0051153495728678E8 ; 3.1282464007840264E8 ; 2.9442100434416935E10 ; 0.0
156 ; 1959587.8514749892 ; 2.0051272947006688E8 ; 3.1478556332594675E8 ; 2.964261196937422E10 ; 0.0
157 ; 1956440.4644689788 ; 2.0051392047738788E8 ; 3.1674515117742175E8 ; 2.9843124698844288E10 ; 0.0
158 ; 1956537.0946934563 ; 2.0051510794752875E8 ; 3.187015916418907E8 ; 3.0043638619321674E10 ; 0.0
159 ; 1953743.6902811427 ; 2.0051629184906098E8 ; 3.206581287365842E8 ; 3.0244153727269203E10 ; 0.0
160 ; 1952628.1294517254 ; 2.0051747215084228E8 ; 3.2261187242686534E8 ; 3.0444670019118263E10 ; 0.0
161 ; 1950947.575762554 ; 2.0051864882201058E8 ; 3.245645005563171E8 ; 3.0645187491269104E10 ; 0.0
162 ; 1947434.1245108063 ; 2.0051982183197805E8 ; 3.2651544813207966E8 ; 3.0845706140091114E10 ; 0.0
163 ; 1946182.923253874 ; 2.005209911504256E8 ; 3.284628822565905E8 ; 3.104622596192309E10 ; 0.0
164 ; 1946182.2814202586 ; 2.005221567472975E8 ; 3.304090651798444E8 ; 3.1246746953073517E10 ; 0.0
165 ; 1942898.5509555843 ; 2.00523318592796E8 ; 3.323552474612646E8 ; 3.1447269109820816E10 ; 0.0
166 ; 1940497.5150383145 ; 2.0052447665737653E8 ; 3.342981460122202E8 ; 3.1647792428413612E10 ; 0.0
167 ; 1939658.7540062293 ; 2.0052563091174287E8 ; 3.362386435272585E8 ; 3.1848316905070988E10 ; 0.0
168 ; 1937026.0697982977 ; 2.0052678132684252E8 ; 3.381783022812647E8 ; 3.204884253598273E10 ; 0.0
169 ; 1935173.065077454 ; 2.0052792787386224E8 ; 3.40115328351063E8 ; 3.2249369317309574E10 ; 0.0
170 ; 1932523.4009224374 ; 2.0052907052422374E8 ; 3.420505014161405E8 ; 3.2449897245183437E10 ; 0.0
171 ; 1931555.71912214 ; 2.0053020924957973E8 ; 3.439830248170629E8 ; 3.265042631570766E10 ; 0.0
172 ; 1927878.1113066338 ; 2.0053134402180985E8 ; 3.45914580536185E8 ; 3.285095652495724E10 ; 0.0
173 ; 1928696.966429389 ; 2.0053247481301686E8 ; 3.4784245864749163E8 ; 3.305148786897905E10 ; 0.0
174 ; 1925277.4083599122 ; 2.0053360159552303E8 ; 3.4977115561392105E8 ; 3.3252020343792065E10 ; 0.0
175 ; 1924768.635736472 ; 2.0053472434186664E8 ; 3.5169643302228093E8 ; 3.345255394538759E10 ; 0.0
176 ; 1923756.5790554772 ; 2.0053584302479854E8 ; 3.536212016580174E8 ; 3.3653088669729454E10 ; 0.0
177 ; 1921810.6895701822 ; 2.0053695761727893E8 ; 3.555449582370729E8 ; 3.3853624512754253E10 ; 0.0
178 ; 1922568.5448875863 ; 2.0053806809247422E8 ; 3.574667689266431E8 ; 3.4054161470371532E10 ; 0.0
179 ; 1920769.0894878483 ; 2.0053917442375395E8 ; 3.593893374715307E8 ; 3.425469953846401E10 ; 0.0
180 ; 1918357.6924654404 ; 2.0054027658468798E8 ; 3.613101065610185E8 ; 3.4455238712887764E10 ; 0.0
181 ; 1918834.6940716873 ; 2.0054137454904366E8 ; 3.6322846425348395E8 ; 3.465577898947245E10 ; 0.0
182 ; 1917216.0167877674 ; 2.0054246829078305E8 ; 3.6514729894755566E8 ; 3.485632036402149E10 ; 0.0
183 ; 1915608.1322912879 ; 2.0054355778406045E8 ; 3.670645149643434E8 ; 3.505686283231228E10 ; 0.0
184 ; 1913665.9148698472 ; 2.005446430032198E8 ; 3.6898012309663475E8 ; 3.525740639009634E10 ; 0.0
185 ; 1912925.9776623081 ; 2.0054572392279243E8 ; 3.708937890115046E8 ; 3.5457951033099556E10 ; 0.0
186 ; 1911575.8141508603 ; 2.005468005174945E8 ; 3.728067149891669E8 ; 3.565849675702235E10 ; 0.0
187 ; 1909792.8246825195 ; 2.0054787276222494E8 ; 3.747182908033178E8 ; 3.585904355753984E10 ; 0.0
188 ; 1908506.0422491252 ; 2.0054894063206336E8 ; 3.766280836280003E8 ; 3.605959143030206E10 ; 0.0
189 ; 1908719.1100775325 ; 2.0055000410226774E8 ; 3.7853658967024946E8 ; 3.626014037093413E10 ; 0.0
190 ; 1907282.8055818884 ; 2.005510631482727E8 ; 3.80445308780327E8 ; 3.646069037503639E10 ; 0.0
191 ; 1906142.8525978636 ; 2.005521177456874E8 ; 3.823525915859089E8 ; 3.666124143818466E10 ; 0.0
192 ; 1904290.8426591216 ; 2.0055316787029377E8 ; 3.842587344385068E8 ; 3.686179355593035E10 ; 0.0
193 ; 1904898.6446173245 ; 2.0055421349804476E8 ; 3.861630252811659E8 ; 3.7062346723800644E10 ; 0.0
194 ; 1901850.3715988144 ; 2.0055525460506254E8 ; 3.880679239257832E8 ; 3.726290093729869E10 ; 0.0
195 ; 1900581.6992302085 ; 2.005562911676369E8 ; 3.8996977429738206E8 ; 3.7463456191903755E10 ; 0.0
196 ; 1900441.2101656504 ; 2.0055732316222364E8 ; 3.9187035599661225E8 ; 3.7664012483071396E10 ; 0.0
197 ; 1898994.7726909379 ; 2.0055835056544307E8 ; 3.9377079720677793E8 ; 3.786456980623362E10 ; 0.0
198 ; 1898010.0295193337 ; 2.005593733540785E8 ; 3.956697919794689E8 ; 3.8065128156799065E10 ; 0.0
199 ; 1896231.3300830163 ; 2.0056039150507486E8 ; 3.975678020089882E8 ; 3.8265687530153145E10 ; 0.0
