CSV File for the City 6 on Day 101
1 - Minute m 
2 - Power Consumed at minute m 
3 - Power Produced at minute m 
4 - Energy Consumed since the beginning of the day 
5 - Energy Produced since the beginning of the day 
6 - Energy Lost since the beginning of the day on lines starting from the city
 
0 ; 1.1221934563750308E7 ; 1.0613083174029914E8 ; 0.0 ; 0.0 ; 0.0
1 ; 1.1232719132277895E7 ; 1.0628173541957378E8 ; 1.1221934563750308E7 ; 1.0613083174029914E8 ; 0.0
2 ; 1.1243318199647168E7 ; 1.0674162980942407E8 ; 2.2454653696028203E7 ; 2.1241256715987292E8 ; 0.0
3 ; 1.1256949604805574E7 ; 1.0751051848769659E8 ; 3.369797189567537E7 ; 3.19154196969297E8 ; 0.0
4 ; 1.1271706724765498E7 ; 1.0858840465906882E8 ; 4.495492150048094E7 ; 4.266647154569936E8 ; 0.0
5 ; 1.1295280787552107E7 ; 1.0997529113787293E8 ; 5.6226628225246444E7 ; 5.352531201160624E8 ; 0.0
6 ; 1.132114494577705E7 ; 1.1167118033273354E8 ; 6.752190901279855E7 ; 6.452284112539353E8 ; 0.0
7 ; 1.1359084664145906E7 ; 1.1367607423321158E8 ; 7.884305395857559E7 ; 7.568995915866688E8 ; 0.0
8 ; 1.141166059951987E7 ; 1.159899743986274E8 ; 9.02021386227215E7 ; 8.705756658198805E8 ; 0.0
9 ; 1.149322286309049E7 ; 1.1861288194920826E8 ; 1.0161379922224136E8 ; 9.865656402185079E8 ; 0.0
10 ; 1.161841198994383E7 ; 1.2154479755967903E8 ; 1.1310702208533184E8 ; 1.105178522167716E9 ; 0.0
11 ; 1.1814821460998464E7 ; 1.2478572145538113E8 ; 1.2472543407527567E8 ; 1.226723319727395E9 ; 0.0
12 ; 1.2132238825666936E7 ; 1.283356534109731E8 ; 1.3654025553627414E8 ; 1.3515090411827762E9 ; 0.0
13 ; 1.243743665306263E7 ; 1.3219459275173008E8 ; 1.4867249436194107E8 ; 1.4798446945937493E9 ; 0.0
14 ; 1.247370202363351E7 ; 1.363625383574249E8 ; 1.611099310150037E8 ; 1.6120392873454795E9 ; 0.0
15 ; 1.2489385989110004E7 ; 1.408394886687371E8 ; 1.7358363303863722E8 ; 1.7484018257029045E9 ; 0.0
16 ; 1.2501733268345365E7 ; 1.4562544169610587E8 ; 1.860730190277472E8 ; 1.8892413143716416E9 ; 0.0
17 ; 1.251796419097055E7 ; 1.5072039503090647E8 ; 1.9857475229609257E8 ; 2.0348667560677476E9 ; 0.0
18 ; 1.2530337007061778E7 ; 1.561243458588068E8 ; 2.110927164870631E8 ; 2.1855871510986543E9 ; 0.0
19 ; 1.2549789508746533E7 ; 1.6183729097512934E8 ; 2.236230534941249E8 ; 2.341711496957461E9 ; 0.0
20 ; 1.2562728709462246E7 ; 1.678592268020275E8 ; 2.3617284300287142E8 ; 2.50354878793259E9 ; 0.0
21 ; 1.2577516131470978E7 ; 1.7419014940726534E8 ; 2.4873557171233368E8 ; 2.6714080147346177E9 ; 0.0
22 ; 1.2588484931024328E7 ; 1.80830054524377E8 ; 2.6131308784380466E8 ; 2.845598164141883E9 ; 0.0
23 ; 1.2605619818233272E7 ; 1.8777893757397592E8 ; 2.73901572774829E8 ; 3.02642821866626E9 ; 0.0
24 ; 1.2621534275733447E7 ; 1.9503679368597817E8 ; 2.865071925930622E8 ; 3.214207156240236E9 ; 0.0
25 ; 1.2634116342409344E7 ; 2.0129165862068927E8 ; 2.991287268687957E8 ; 3.409243949926214E9 ; 0.0
26 ; 1.2651068962157521E7 ; 2.0129707482905385E8 ; 3.1176284321120507E8 ; 3.6105356085469036E9 ; 0.0
27 ; 1.2668243661387732E7 ; 2.0130280600114226E8 ; 3.244139121733626E8 ; 3.8118326833759575E9 ; 0.0
28 ; 1.2678014071677895E7 ; 2.0130884633652508E8 ; 3.3708215583475035E8 ; 4.0131354893771E9 ; 0.0
29 ; 1.2694086294197507E7 ; 2.0131518986094338E8 ; 3.497601699064283E8 ; 4.214444335713625E9 ; 0.0
30 ; 1.2707631367625555E7 ; 2.0132183044937703E8 ; 3.624542562006258E8 ; 4.415759525574569E9 ; 0.0
31 ; 1.2719578539707646E7 ; 2.013287618485933E8 ; 3.751618875682513E8 ; 4.617081356023946E9 ; 0.0
32 ; 1.2733850191980572E7 ; 2.0133597769903234E8 ; 3.87881466107959E8 ; 4.8184101178725395E9 ; 0.0
33 ; 1.2748022423454296E7 ; 2.013434715559048E8 ; 4.006153162999396E8 ; 5.019746095571572E9 ; 0.0
34 ; 1.2761869134039076E7 ; 2.0135123690939692E8 ; 4.1336333872339386E8 ; 5.221089567127477E9 ; 0.0
35 ; 1.2775303018225018E7 ; 2.0135926720389608E8 ; 4.2612520785743296E8 ; 5.422440804036874E9 ; 0.0
36 ; 1.2788975782499153E7 ; 2.0136755585617015E8 ; 4.38900510875658E8 ; 5.62380007124077E9 ; 0.0
37 ; 1.2797322649202708E7 ; 2.0137609627244976E8 ; 4.516894866581571E8 ; 5.82516762709694E9 ; 0.0
38 ; 1.2808171081128778E7 ; 2.0138488186437976E8 ; 4.644868093073598E8 ; 6.02654372336939E9 ; 0.0
39 ; 1.2823685538876934E7 ; 2.0139390606382158E8 ; 4.772949803884886E8 ; 6.227928605233769E9 ; 0.0
40 ; 1.2828265378664592E7 ; 2.0140316233650056E8 ; 4.9011866592736554E8 ; 6.429322511297591E9 ; 0.0
41 ; 1.2838513414671613E7 ; 2.014126441945058E8 ; 5.0294693130603015E8 ; 6.630725673634091E9 ; 0.0
42 ; 1.2847255770336375E7 ; 2.014223452076603E8 ; 5.1578544472070175E8 ; 6.832138317828597E9 ; 0.0
43 ; 1.285994822761542E7 ; 2.0143225901378727E8 ; 5.2863270049103814E8 ; 7.033560663036258E9 ; 0.0
44 ; 1.2866984427329503E7 ; 2.0144237932790813E8 ; 5.414926487186536E8 ; 7.234992922050045E9 ; 0.0
45 ; 1.287329931625595E7 ; 2.014526999504119E8 ; 5.543596331459831E8 ; 7.436435301377954E9 ; 0.0
46 ; 1.2879961308840891E7 ; 2.0146321477424246E8 ; 5.67232932462239E8 ; 7.637888001328365E9 ; 0.0
47 ; 1.2885427482614018E7 ; 2.0147391779115272E8 ; 5.801128937710799E8 ; 7.839351216102608E9 ; 0.0
48 ; 1.2893905494459463E7 ; 2.0148480309707785E8 ; 5.929983212536939E8 ; 8.040825133893761E9 ; 0.0
49 ; 1.2896019589907356E7 ; 2.0149586489668193E8 ; 6.058922267481534E8 ; 8.242309936990839E9 ; 0.0
50 ; 1.2904960773135018E7 ; 2.0150709750713247E8 ; 6.187882463380609E8 ; 8.443805801887521E9 ; 0.0
51 ; 1.290606886400624E7 ; 2.0151849536115772E8 ; 6.316932071111959E8 ; 8.645312899394653E9 ; 0.0
52 ; 1.2914265179030955E7 ; 2.0153005300944158E8 ; 6.445992759752022E8 ; 8.846831394755812E9 ; 0.0
53 ; 1.2916176455330474E7 ; 2.0154176512240934E8 ; 6.575135411542332E8 ; 9.048361447765253E9 ; 0.0
54 ; 1.292208730563346E7 ; 2.015536264914559E8 ; 6.704297176095637E8 ; 9.249903212887663E9 ; 0.0
55 ; 1.2924662178588582E7 ; 2.0156563202966708E8 ; 6.833518049151971E8 ; 9.451456839379118E9 ; 0.0
56 ; 1.293079823257485E7 ; 2.0157777677208185E8 ; 6.962764670937858E8 ; 9.653022471408785E9 ; 0.0
57 ; 1.293436849939887E7 ; 2.0159005587554094E8 ; 7.092072653263606E8 ; 9.854600248180866E9 ; 0.0
58 ; 1.293601175880652E7 ; 2.0160246461816552E8 ; 7.221416338257594E8 ; 1.0056190304056408E10 ; 0.0
59 ; 1.2939853902741019E7 ; 2.0161499839850628E8 ; 7.350776455845659E8 ; 1.0257792768674574E10 ; 0.0
60 ; 1.2946987650961027E7 ; 2.0162765273440123E8 ; 7.48017499487307E8 ; 1.045940776707308E10 ; 0.0
61 ; 1.2949232512457242E7 ; 2.0164042326157773E8 ; 7.60964487138268E8 ; 1.0661035419807482E10 ; 0.0
62 ; 1.2954117592237825E7 ; 2.016533057320318E8 ; 7.739137196507252E8 ; 1.086267584306906E10 ; 0.0
63 ; 1.2956809832300398E7 ; 2.01666296012215E8 ; 7.868678372429631E8 ; 1.106432914880109E10 ; 0.0
64 ; 1.2957556265302362E7 ; 2.01679390081057E8 ; 7.998246470752635E8 ; 1.1265995444813305E10 ; 0.0
65 ; 1.2960727927378394E7 ; 2.016925840278498E8 ; 8.127822033405659E8 ; 1.1467674834894361E10 ; 0.0
66 ; 1.2966092906472102E7 ; 2.0170587405001637E8 ; 8.257429312679443E8 ; 1.166936741892221E10 ; 0.0
67 ; 1.296412178094252E7 ; 2.01719256450786E8 ; 8.387090241744164E8 ; 1.1871073292972227E10 ; 0.0
68 ; 1.2967681203796728E7 ; 2.0173272763679475E8 ; 8.51673145955359E8 ; 1.2072792549423014E10 ; 0.0
69 ; 1.2971250421823043E7 ; 2.0174628411562908E8 ; 8.646408271591557E8 ; 1.2274525277059809E10 ; 0.0
70 ; 1.2972998989073455E7 ; 2.017599224933279E8 ; 8.776120775809788E8 ; 1.2476271561175438E10 ; 0.0
71 ; 1.2976735017819269E7 ; 2.017736394718574E8 ; 8.905850765700521E8 ; 1.2678031483668766E10 ; 0.0
72 ; 1.297672181793972E7 ; 2.0178743184657094E8 ; 9.035618115878714E8 ; 1.2879805123140623E10 ; 0.0
73 ; 1.2983053495543754E7 ; 2.0180129650366506E8 ; 9.165385334058112E8 ; 1.3081592554987194E10 ; 0.0
74 ; 1.2980025061017498E7 ; 2.018152304176414E8 ; 9.295215869013549E8 ; 1.328339385149086E10 ; 0.0
75 ; 1.2985423342849538E7 ; 2.0182923064878333E8 ; 9.425016119623724E8 ; 1.34852090819085E10 ; 0.0
76 ; 1.2986349457989044E7 ; 2.0184329434065443E8 ; 9.554870353052219E8 ; 1.3687038312557283E10 ; 0.0
77 ; 1.2984348227443302E7 ; 2.0185741871762562E8 ; 9.68473384763211E8 ; 1.3888881606897938E10 ; 0.0
78 ; 1.2984870603961358E7 ; 2.0187160108243617E8 ; 9.814577329906543E8 ; 1.4090739025615562E10 ; 0.0
79 ; 1.2982654863010315E7 ; 2.0188583881379384E8 ; 9.944426035946157E8 ; 1.4292610626697998E10 ; 0.0
80 ; 1.2982822349681877E7 ; 2.0190012936401764E8 ; 1.007425258457626E9 ; 1.4494496465511791E10 ; 0.0
81 ; 1.2980457182237335E7 ; 2.0191447025672695E8 ; 1.0204080808073078E9 ; 1.4696396594875809E10 ; 0.0
82 ; 1.2976091115983903E7 ; 2.0192885908457968E8 ; 1.0333885379895452E9 ; 1.4898311065132536E10 ; 0.0
83 ; 1.2971456628051475E7 ; 2.0194329350706142E8 ; 1.0463646291055291E9 ; 1.5100239924217115E10 ; 0.0
84 ; 1.2968559368045961E7 ; 2.019577712483276E8 ; 1.0593360857335806E9 ; 1.5302183217724176E10 ; 0.0
85 ; 1.297026073289418E7 ; 2.0197229009509987E8 ; 1.0723046451016265E9 ; 1.5504140988972504E10 ; 0.0
86 ; 1.2963953017688848E7 ; 2.0198684789461756E8 ; 1.0852749058345206E9 ; 1.5706113279067604E10 ; 0.0
87 ; 1.29547340451038E7 ; 2.0200144255264494E8 ; 1.0982388588522093E9 ; 1.5908100126962221E10 ; 0.0
88 ; 1.2959447955530813E7 ; 2.0201607203153428E8 ; 1.111193592897313E9 ; 1.6110101569514866E10 ; 0.0
89 ; 1.2953576529187242E7 ; 2.0203073434834513E8 ; 1.124153040852844E9 ; 1.63121176415464E10 ; 0.0
90 ; 1.2953565709474308E7 ; 2.0204542757301936E8 ; 1.1371066173820312E9 ; 1.6514148375894745E10 ; 0.0
91 ; 1.2949939400131261E7 ; 2.0206014982661155E8 ; 1.1500601830915055E9 ; 1.6716193803467764E10 ; 0.0
92 ; 1.2944954790751979E7 ; 2.020748992795744E8 ; 1.1630101224916368E9 ; 1.6918253953294376E10 ; 0.0
93 ; 1.2936833455592833E7 ; 2.020896741500981E8 ; 1.1759550772823887E9 ; 1.7120328852573952E10 ; 0.0
94 ; 1.2936180464129675E7 ; 2.021044727025032E8 ; 1.1888919107379816E9 ; 1.732241852672405E10 ; 0.0
95 ; 1.293243188418656E7 ; 2.0211929324568594E8 ; 1.2018280912021112E9 ; 1.752452299942655E10 ; 0.0
96 ; 1.2929049075125262E7 ; 2.0213413413161454E8 ; 1.2147605230862978E9 ; 1.7726642292672237E10 ; 0.0
97 ; 1.2925297195348723E7 ; 2.0214899375387633E8 ; 1.227689572161423E9 ; 1.7928776426803852E10 ; 0.0
98 ; 1.291701293685837E7 ; 2.021638705462736E8 ; 1.2406148693567717E9 ; 1.8130925420557728E10 ; 0.0
99 ; 1.291094224708043E7 ; 2.021787629814676E8 ; 1.2535318822936301E9 ; 1.8333089291104E10 ; 0.0
100 ; 1.2912125478699146E7 ; 2.0219366956966928E8 ; 1.2664428245407104E9 ; 1.853526805408547E10 ; 0.0
101 ; 1.2903941441798916E7 ; 2.022085888573752E8 ; 1.2793549500194097E9 ; 1.8737461723655136E10 ; 0.0
102 ; 1.290107856530733E7 ; 2.0222351942614827E8 ; 1.2922588914612086E9 ; 1.8939670312512512E10 ; 0.0
103 ; 1.2895652581809375E7 ; 2.022384598914406E8 ; 1.305159970026516E9 ; 1.914189383193866E10 ; 0.0
104 ; 1.2890673857859077E7 ; 2.0225340890145886E8 ; 1.3180556226083252E9 ; 1.93441322918301E10 ; 0.0
105 ; 1.28867138877156E7 ; 2.0226836513606936E8 ; 1.3309462964661844E9 ; 1.954638570073156E10 ; 0.0
106 ; 1.2881223899521481E7 ; 2.0228332730574268E8 ; 1.3438330103539E9 ; 1.974865406586763E10 ; 0.0
107 ; 1.287677249528612E7 ; 2.0229829415053612E8 ; 1.3567142342534215E9 ; 1.9950937393173374E10 ; 0.0
108 ; 1.2873567416940477E7 ; 2.0231326443911248E8 ; 1.3695910067487078E9 ; 2.015323568732391E10 ; 0.0
109 ; 1.286589978625038E7 ; 2.0232823696779487E8 ; 1.3824645741656482E9 ; 2.0355548951763023E10 ; 0.0
110 ; 1.2859970639271507E7 ; 2.0234321055965522E8 ; 1.3953304739518986E9 ; 2.055787718873082E10 ; 0.0
111 ; 1.285296704128021E7 ; 2.0235818406363624E8 ; 1.40819044459117E9 ; 2.0760220399290474E10 ; 0.0
112 ; 1.2850277298131708E7 ; 2.0237315635370517E8 ; 1.4210434116324503E9 ; 2.096257858335411E10 ; 0.0
113 ; 1.2841628706890898E7 ; 2.0238812632803828E8 ; 1.433893688930582E9 ; 2.1164951739707817E10 ; 0.0
114 ; 1.2834035300264645E7 ; 2.0240309290823543E8 ; 1.4467353176374729E9 ; 2.1367339866035854E10 ; 0.0
115 ; 1.2828027573006175E7 ; 2.0241805503856295E8 ; 1.4595693529377375E9 ; 2.1569742958944088E10 ; 0.0
116 ; 1.2820278811963817E7 ; 2.0243301168522444E8 ; 1.4723973805107436E9 ; 2.177216101398265E10 ; 0.0
117 ; 1.2814355089573773E7 ; 2.0244796183565807E8 ; 1.4852176593227074E9 ; 2.1974594025667873E10 ; 0.0
118 ; 1.2808361985173188E7 ; 2.024629044978597E8 ; 1.4980320144122813E9 ; 2.2177041987503532E10 ; 0.0
119 ; 1.2801302102628093E7 ; 2.0247783869973055E8 ; 1.5108403763974545E9 ; 2.2379504892001392E10 ; 0.0
120 ; 1.279859864678071E7 ; 2.024927634884491E8 ; 1.5236416785000825E9 ; 2.2581982730701122E10 ; 0.0
121 ; 1.2792052336693438E7 ; 2.025076779298654E8 ; 1.5364402771468632E9 ; 2.278447549418957E10 ; 0.0
122 ; 1.2782872690790053E7 ; 2.0252258110791796E8 ; 1.5492323294835567E9 ; 2.298698317211944E10 ; 0.0
123 ; 1.2775189851725532E7 ; 2.025374721240717E8 ; 1.5620152021743467E9 ; 2.3189505753227356E10 ; 0.0
124 ; 1.2773721435586443E7 ; 2.025523500967764E8 ; 1.5747903920260723E9 ; 2.339204322535143E10 ; 0.0
125 ; 1.2762012479453823E7 ; 2.0256721416094488E8 ; 1.5875641134616587E9 ; 2.3594595575448204E10 ; 0.0
126 ; 1.2752490948736781E7 ; 2.0258206346745023E8 ; 1.6003261259411125E9 ; 2.379716278960915E10 ; 0.0
127 ; 1.2748114417209132E7 ; 2.025968971826412E8 ; 1.6130786168898492E9 ; 2.39997448530766E10 ; 0.0
128 ; 1.2738867997127673E7 ; 2.0261171448787516E8 ; 1.6258267313070583E9 ; 2.420234175025924E10 ; 0.0
129 ; 1.2731632902032409E7 ; 2.0262651457906812E8 ; 1.638565599304186E9 ; 2.4404953464747116E10 ; 0.0
130 ; 1.2723725224443909E7 ; 2.026412966662608E8 ; 1.6512972322062185E9 ; 2.4607579979326183E10 ; 0.0
131 ; 1.2708901958330356E7 ; 2.026560599732005E8 ; 1.6640209574306624E9 ; 2.4810221275992443E10 ; 0.0
132 ; 1.2697074705548866E7 ; 2.02670803736938E8 ; 1.6767298593889928E9 ; 2.5012877335965645E10 ; 0.0
133 ; 1.2684766216062114E7 ; 2.0268552720743892E8 ; 1.6894269340945415E9 ; 2.5215548139702583E10 ; 0.0
134 ; 1.267084253189537E7 ; 2.0270022964720908E8 ; 1.7021117003106036E9 ; 2.5418233666910023E10 ; 0.0
135 ; 1.2663189722151665E7 ; 2.0271491033093318E8 ; 1.714782542842499E9 ; 2.562093389655723E10 ; 0.0
136 ; 1.2651995053231975E7 ; 2.027295685451264E8 ; 1.7274457325646508E9 ; 2.5823648806888165E10 ; 0.0
137 ; 1.2635629996104978E7 ; 2.0274420358779854E8 ; 1.7400977276178827E9 ; 2.6026378375433292E10 ; 0.0
138 ; 1.2627044163004998E7 ; 2.0275881476812991E8 ; 1.7527333576139877E9 ; 2.622912257902109E10 ; 0.0
139 ; 1.2610218800517468E7 ; 2.0277340140615883E8 ; 1.7653604017769928E9 ; 2.6431881393789223E10 ; 0.0
140 ; 1.2600741990244921E7 ; 2.0278796283248025E8 ; 1.7779706205775104E9 ; 2.663465479519538E10 ; 0.0
141 ; 1.258339486442847E7 ; 2.0280249838795477E8 ; 1.7905713625677552E9 ; 2.6837442758027863E10 ; 0.0
142 ; 1.2571138276982136E7 ; 2.0281700742342815E8 ; 1.8031547574321837E9 ; 2.7040245256415817E10 ; 0.0
143 ; 1.2559975240185201E7 ; 2.028314892994605E8 ; 1.8157258957091658E9 ; 2.7243062263839245E10 ; 0.0
144 ; 1.2548476048773708E7 ; 2.028459433860652E8 ; 1.828285870949351E9 ; 2.7445893753138706E10 ; 0.0
145 ; 1.2540836707355047E7 ; 2.0286036906245652E8 ; 1.8408343469981248E9 ; 2.7648739696524773E10 ; 0.0
146 ; 1.253123191469293E7 ; 2.028747657168064E8 ; 1.8533751837054799E9 ; 2.785160006558723E10 ; 0.0
147 ; 1.252255712391027E7 ; 2.0288913274600962E8 ; 1.8659064156201727E9 ; 2.805447483130404E10 ; 0.0
148 ; 1.2514370084388524E7 ; 2.029034695554569E8 ; 1.878428972744083E9 ; 2.825736396405005E10 ; 0.0
149 ; 1.2505202199685726E7 ; 2.029177755588161E8 ; 1.8909433428284714E9 ; 2.8460267433605507E10 ; 0.0
150 ; 1.2498518896190364E7 ; 2.029320501778208E8 ; 1.9034485450281572E9 ; 2.866318520916432E10 ; 0.0
151 ; 1.2487426072220024E7 ; 2.0294629284206614E8 ; 1.9159470639243476E9 ; 2.8866117259342144E10 ; 0.0
152 ; 1.2480929172980515E7 ; 2.029605029888118E8 ; 1.9284344899965677E9 ; 2.906906355218421E10 ; 0.0
153 ; 1.2470709026440578E7 ; 2.0297468006279156E8 ; 1.9409154191695483E9 ; 2.9272024055173023E10 ; 0.0
154 ; 1.2463113226143654E7 ; 2.0298882351602942E8 ; 1.953386128195989E9 ; 2.9474998735235813E10 ; 0.0
155 ; 1.245303367285324E7 ; 2.0300293280766198E8 ; 1.9658492414221325E9 ; 2.9677987558751842E10 ; 0.0
156 ; 1.2443470593256108E7 ; 2.0301700740376678E8 ; 1.9783022750949857E9 ; 2.9880990491559505E10 ; 0.0
157 ; 1.243658845922257E7 ; 2.030310467771965E8 ; 1.9907457456882417E9 ; 3.0084007498963272E10 ; 0.0
158 ; 1.2426518353199951E7 ; 2.0304505040741867E8 ; 2.0031823341474643E9 ; 3.0287038545740467E10 ; 0.0
159 ; 1.2419690594294965E7 ; 2.0305901778036094E8 ; 2.0156088525006642E9 ; 3.0490083596147884E10 ; 0.0
160 ; 1.2410091030279033E7 ; 2.0307294838826132E8 ; 2.0280285430949593E9 ; 3.0693142613928246E10 ; 0.0
161 ; 1.2401110541288037E7 ; 2.0308684172952348E8 ; 2.0404386341252382E9 ; 3.0896215562316505E10 ; 0.0
162 ; 1.2392200653767914E7 ; 2.0310069730857706E8 ; 2.0528397446665263E9 ; 3.109930240404603E10 ; 0.0
163 ; 1.2380928147195151E7 ; 2.0311451463574234E8 ; 2.0652319453202941E9 ; 3.1302403101354607E10 ; 0.0
164 ; 1.2373318323575005E7 ; 2.031282932270996E8 ; 2.0776128734674892E9 ; 3.150551761599035E10 ; 0.0
165 ; 1.2361312788737973E7 ; 2.031420326043626E8 ; 2.0899861917910643E9 ; 3.170864590921745E10 ; 0.0
166 ; 1.2354864835537385E7 ; 2.031557322947566E8 ; 2.1023475045798023E9 ; 3.191178794182181E10 ; 0.0
167 ; 1.23455927307638E7 ; 2.031693918308998E8 ; 2.1147023694153397E9 ; 3.211494367411657E10 ; 0.0
168 ; 1.2335926283332415E7 ; 2.031830107506894E8 ; 2.1270479621461036E9 ; 3.2318113065947468E10 ; 0.0
169 ; 1.2324921938237889E7 ; 2.031965885971906E8 ; 2.139383888429436E9 ; 3.252129607669816E10 ; 0.0
170 ; 1.2317834667867552E7 ; 2.0321012491852984E8 ; 2.151708810367674E9 ; 3.272449266529535E10 ; 0.0
171 ; 1.230776159677904E7 ; 2.0322361926779124E8 ; 2.1640266450355415E9 ; 3.292770279021388E10 ; 0.0
172 ; 1.2299718073894937E7 ; 2.0323707120291647E8 ; 2.1763344066323204E9 ; 3.313092640948167E10 ; 0.0
173 ; 1.2287158101367876E7 ; 2.0325048028660765E8 ; 2.1886341247062154E9 ; 3.3334163480684586E10 ; 0.0
174 ; 1.2285139709387213E7 ; 2.032638460862338E8 ; 2.2009212828075833E9 ; 3.353741396097119E10 ; 0.0
175 ; 1.2278949091017498E7 ; 2.032771681737398E8 ; 2.2132064225169706E9 ; 3.3740677807057426E10 ; 0.0
176 ; 1.2268261381244553E7 ; 2.0329044612555873E8 ; 2.2254853716079884E9 ; 3.3943954975231167E10 ; 0.0
177 ; 1.2261629899542106E7 ; 2.0330367952252674E8 ; 2.237753632989233E9 ; 3.4147245421356724E10 ; 0.0
178 ; 1.2259516065433897E7 ; 2.0331686794980064E8 ; 2.2500152628887753E9 ; 3.435054910087925E10 ; 0.0
179 ; 1.2257557425446933E7 ; 2.0333001099677825E8 ; 2.2622747789542093E9 ; 3.455386596882905E10 ; 0.0
180 ; 1.2249124894479334E7 ; 2.0334310825702122E8 ; 2.2745323363796563E9 ; 3.475719597982583E10 ; 0.0
181 ; 1.2243493427658778E7 ; 2.0335615932818016E8 ; 2.2867814612741356E9 ; 3.496053908808285E10 ; 0.0
182 ; 1.2238067823006053E7 ; 2.033691638119225E8 ; 2.299024954701794E9 ; 3.5163895247411026E10 ; 0.0
183 ; 1.2234452097307317E7 ; 2.033821213138621E8 ; 2.3112630225248003E9 ; 3.5367264411222946E10 ; 0.0
184 ; 1.2224734740456274E7 ; 2.0339503144349155E8 ; 2.3234974746221075E9 ; 3.557064653253681E10 ; 0.0
185 ; 1.2221067823473472E7 ; 2.0340789381411642E8 ; 2.3357222093625636E9 ; 3.57740415639803E10 ; 0.0
186 ; 1.2212747170288894E7 ; 2.0342070804279137E8 ; 2.347943277186037E9 ; 3.597744945779442E10 ; 0.0
187 ; 1.2208582517155314E7 ; 2.0343347375025862E8 ; 2.360156024356326E9 ; 3.618087016583721E10 ; 0.0
188 ; 1.220295020897847E7 ; 2.0344619056088805E8 ; 2.3723646068734813E9 ; 3.638430363958747E10 ; 0.0
189 ; 1.2195829747682793E7 ; 2.0345885810261935E8 ; 2.38456755708246E9 ; 3.658774983014836E10 ; 0.0
190 ; 1.219302797004313E7 ; 2.034714760069058E8 ; 2.3967633868301425E9 ; 3.6791208688250984E10 ; 0.0
191 ; 1.2183217370069439E7 ; 2.034840439086599E8 ; 2.4089564148001857E9 ; 3.699468016425789E10 ; 0.0
192 ; 1.2179495727888511E7 ; 2.0349656144620076E8 ; 2.421139632170255E9 ; 3.719816420816655E10 ; 0.0
193 ; 1.2170035990782345E7 ; 2.035090282612028E8 ; 2.433319127898144E9 ; 3.740166076961275E10 ; 0.0
194 ; 1.2169548223080631E7 ; 2.0352144399864647E8 ; 2.445489163888926E9 ; 3.760516979787395E10 ; 0.0
195 ; 1.2161346182515912E7 ; 2.0353380830677006E8 ; 2.4576587121120067E9 ; 3.78086912418726E10 ; 0.0
