CSV File for the City 6 on Day 93
1 - Minute m 
2 - Power Consumed at minute m 
3 - Power Produced at minute m 
4 - Energy Consumed since the beginning of the day 
5 - Energy Produced since the beginning of the day 
6 - Energy Lost since the beginning of the day on lines starting from the city
 
0 ; 1.1193147145598082E7 ; 1.0610337762752625E8 ; 0.0 ; 0.0 ; 0.0
1 ; 1.1206871369077519E7 ; 1.0625427072936368E8 ; 1.1193147145598082E7 ; 1.0610337762752625E8 ; 0.0
2 ; 1.1219694012327727E7 ; 1.0671415528543201E8 ; 2.2400018514675602E7 ; 2.1235764835688993E8 ; 0.0
3 ; 1.123233962421513E7 ; 1.0748303499125606E8 ; 3.361971252700333E7 ; 3.1907180364232194E8 ; 0.0
4 ; 1.1249557043564498E7 ; 1.0856091315853971E8 ; 4.485205215121846E7 ; 4.26554838633578E8 ; 0.0
5 ; 1.1268826209389694E7 ; 1.0994779269686717E8 ; 5.610160919478296E7 ; 5.351157517921177E8 ; 0.0
6 ; 1.12998174008206E7 ; 1.116436760973191E8 ; 6.737043540417266E7 ; 6.450635444889848E8 ; 0.0
7 ; 1.1330163344610697E7 ; 1.1364856541821623E8 ; 7.867025280499326E7 ; 7.56707220586304E8 ; 0.0
8 ; 1.1390681294924494E7 ; 1.1596246227317989E8 ; 9.000041614960395E7 ; 8.703557860045202E8 ; 0.0
9 ; 1.1466002393173156E7 ; 1.1858536782167011E8 ; 1.0139109744452845E8 ; 9.863182482777001E8 ; 0.0
10 ; 1.1590135727931866E7 ; 1.2151728276213175E8 ; 1.128570998377016E8 ; 1.1049036160993702E9 ; 0.0
11 ; 1.1785385098148488E7 ; 1.2475820732784298E8 ; 1.2444723556563348E8 ; 1.226420898861502E9 ; 0.0
12 ; 1.210204637301664E7 ; 1.2830814128552559E8 ; 1.3623262066378197E8 ; 1.351179106189345E9 ; 0.0
13 ; 1.2411372408351723E7 ; 1.3216708393673474E8 ; 1.483346670367986E8 ; 1.4794872474748704E9 ; 0.0
14 ; 1.2445650335234892E7 ; 1.3633503412201047E8 ; 1.6074603944515032E8 ; 1.6116543314116051E9 ; 0.0
15 ; 1.2460666874539563E7 ; 1.4081199022773135E8 ; 1.731916897803852E8 ; 1.7479893655336156E9 ; 0.0
16 ; 1.2474914762376104E7 ; 1.4559795019557676E8 ; 1.8565235665492475E8 ; 1.8888013557613468E9 ; 0.0
17 ; 1.248753297995418E7 ; 1.5069291153446594E8 ; 1.9812727141730085E8 ; 2.0343993059569235E9 ; 0.0
18 ; 1.2504784572120259E7 ; 1.5609687133481473E8 ; 2.1061480439725503E8 ; 2.1850922174913893E9 ; 0.0
19 ; 1.2519251054282585E7 ; 1.6180982628491923E8 ; 2.2311958896937528E8 ; 2.341189088826204E9 ; 0.0
20 ; 1.2533482249928264E7 ; 1.678317726892546E8 ; 2.3563884002365786E8 ; 2.502998915111123E9 ; 0.0
21 ; 1.2548861837800795E7 ; 1.7416270648845932E8 ; 2.4817232227358612E8 ; 2.670830687800378E9 ; 0.0
22 ; 1.2563055959642807E7 ; 1.8080262328075898E8 ; 2.6072118411138692E8 ; 2.844993394288837E9 ; 0.0
23 ; 1.2579720198048478E7 ; 1.8775151834457934E8 ; 2.732842400710297E8 ; 3.025796017569596E9 ; 0.0
24 ; 1.2592067432577759E7 ; 1.9500938666209167E8 ; 2.858639602690782E8 ; 3.213547535914175E9 ; 0.0
25 ; 1.260843565370627E7 ; 2.012642638416205E8 ; 2.98456027701656E8 ; 3.408556922576267E9 ; 0.0
26 ; 1.2624272999239812E7 ; 2.0126969217919442E8 ; 3.1106446335536224E8 ; 3.609821186417887E9 ; 0.0
27 ; 1.2637786028356647E7 ; 2.0127543520829654E8 ; 3.2368873635460204E8 ; 3.8110908785970817E9 ; 0.0
28 ; 1.265105641351271E7 ; 2.0128148697145134E8 ; 3.363265223829587E8 ; 4.012366313805378E9 ; 0.0
29 ; 1.2665853107885737E7 ; 2.0128784133804277E8 ; 3.489775787964714E8 ; 4.2136478007768292E9 ; 0.0
30 ; 1.2679477470199415E7 ; 2.012944920284546E8 ; 3.6164343190435714E8 ; 4.414935642114872E9 ; 0.0
31 ; 1.269054392341023E7 ; 2.0130143263760763E8 ; 3.7432290937455654E8 ; 4.616230134143327E9 ; 0.0
32 ; 1.2705505199970067E7 ; 2.013086566577432E8 ; 3.870134532979668E8 ; 4.817531566780934E9 ; 0.0
33 ; 1.2721453766771995E7 ; 2.0131615750032496E8 ; 3.9971895849793684E8 ; 5.018840223438678E9 ; 0.0
34 ; 1.2735017398899471E7 ; 2.0132392851695135E8 ; 4.124404122647088E8 ; 5.220156380939003E9 ; 0.0
35 ; 1.2748165649755284E7 ; 2.0133196301919186E8 ; 4.251754296636083E8 ; 5.421480309455955E9 ; 0.0
36 ; 1.275559328481026E7 ; 2.0134025429728127E8 ; 4.379235953133636E8 ; 5.622812272475146E9 ; 0.0
37 ; 1.2768151266127583E7 ; 2.01348795637624E8 ; 4.5067918859817386E8 ; 5.824152526772428E9 ; 0.0
38 ; 1.2775760316584144E7 ; 2.013575803390784E8 ; 4.6344733986430144E8 ; 6.025501322410051E9 ; 0.0
39 ; 1.2791352657595469E7 ; 2.0136660172800717E8 ; 4.762231001808856E8 ; 6.226858902749129E9 ; 0.0
40 ; 1.2797229452559479E7 ; 2.0137585317209417E8 ; 4.8901445283848107E8 ; 6.428225504477137E9 ; 0.0
41 ; 1.2804568479478123E7 ; 2.0138532809294054E8 ; 5.0181168229104054E8 ; 6.629601357649231E9 ; 0.0
42 ; 1.281636191252254E7 ; 2.0139501997746438E8 ; 5.1461625077051866E8 ; 6.830986685742171E9 ; 0.0
43 ; 1.2827921740408992E7 ; 2.0140492238813686E8 ; 5.274326126830412E8 ; 7.032381705719636E9 ; 0.0
44 ; 1.2834271528317763E7 ; 2.014150289720963E8 ; 5.402605344234502E8 ; 7.233786628107773E9 ; 0.0
45 ; 1.284154805153159E7 ; 2.0142533346918705E8 ; 5.53094805951768E8 ; 7.435201657079869E9 ; 0.0
46 ; 1.2847172000278942E7 ; 2.0143582971897537E8 ; 5.659363540032996E8 ; 7.636626990549056E9 ; 0.0
47 ; 1.2852471156005228E7 ; 2.014465116667979E8 ; 5.787835260035785E8 ; 7.838062820268031E9 ; 0.0
48 ; 1.2859258385309821E7 ; 2.0145737336890072E8 ; 5.916359971595838E8 ; 8.039509331934829E9 ; 0.0
49 ; 1.2866122876201836E7 ; 2.0146840899672815E8 ; 6.044952555448936E8 ; 8.240966705303729E9 ; 0.0
50 ; 1.2869884332200862E7 ; 2.0147961284042132E8 ; 6.173613784210955E8 ; 8.442435114300457E9 ; 0.0
51 ; 1.2876140044453407E7 ; 2.0149097931158572E8 ; 6.302312627532964E8 ; 8.643914727140879E9 ; 0.0
52 ; 1.2879416043087665E7 ; 2.0150250294538686E8 ; 6.431074027977498E8 ; 8.845405706452465E9 ; 0.0
53 ; 1.2883507831662359E7 ; 2.0151417840203023E8 ; 6.559868188408375E8 ; 9.046908209397852E9 ; 0.0
54 ; 1.2888588126736723E7 ; 2.0152600046768188E8 ; 6.688703266724999E8 ; 9.248422387799883E9 ; 0.0
55 ; 1.2893286347108E7 ; 2.0153796405488175E8 ; 6.817589147992367E8 ; 9.449948388267565E9 ; 0.0
56 ; 1.2888355168624E7 ; 2.0155006420250046E8 ; 6.946522011463447E8 ; 9.651486352322447E9 ; 0.0
57 ; 1.289712627031583E7 ; 2.0156229607528764E8 ; 7.075405563149687E8 ; 9.853036416524948E9 ; 0.0
58 ; 1.2903587998458115E7 ; 2.0157465496305665E8 ; 7.204376825852846E8 ; 1.0054598712600235E10 ; 0.0
59 ; 1.2904303682426563E7 ; 2.0158713627954766E8 ; 7.333412705837427E8 ; 1.0256173367563292E10 ; 0.0
60 ; 1.290722755982468E7 ; 2.015997355610089E8 ; 7.462455742661693E8 ; 1.0457760503842838E10 ; 0.0
61 ; 1.2912571983518893E7 ; 2.0161244846453205E8 ; 7.59152801825994E8 ; 1.0659360239403847E10 ; 0.0
62 ; 1.2909763805307878E7 ; 2.0162527076617596E8 ; 7.720653738095129E8 ; 1.086097268786838E10 ; 0.0
63 ; 1.29179473812578E7 ; 2.016381983589091E8 ; 7.849751376148207E8 ; 1.1062597958634556E10 ; 0.0
64 ; 1.2919982949745916E7 ; 2.0165122725039986E8 ; 7.978930849960785E8 ; 1.1264236156993465E10 ; 0.0
65 ; 1.2923463110141883E7 ; 2.0166435356067973E8 ; 8.108130679458244E8 ; 1.1465887384243866E10 ; 0.0
66 ; 1.2923719112019809E7 ; 2.0167757351970372E8 ; 8.237365310559663E8 ; 1.1667551737804546E10 ; 0.0
67 ; 1.2928206814531345E7 ; 2.0169088346482852E8 ; 8.36660250167986E8 ; 1.186922931132425E10 ; 0.0
68 ; 1.2933436317204872E7 ; 2.017042798382282E8 ; 8.495884569825174E8 ; 1.2070920194789078E10 ; 0.0
69 ; 1.2931053856075738E7 ; 2.0171775918426433E8 ; 8.625218932997222E8 ; 1.2272624474627306E10 ; 0.0
70 ; 1.2933527457262345E7 ; 2.017313181468258E8 ; 8.75452947155798E8 ; 1.2474342233811571E10 ; 0.0
71 ; 1.2936666016551377E7 ; 2.0174495346665227E8 ; 8.883864746130604E8 ; 1.2676073551958397E10 ; 0.0
72 ; 1.2937527108268762E7 ; 2.0175866197865337E8 ; 9.013231406296117E8 ; 1.2877818505425049E10 ; 0.0
73 ; 1.2936358153727572E7 ; 2.017724406092338E8 ; 9.142606677378805E8 ; 1.3079577167403702E10 ; 0.0
74 ; 1.2941447923696604E7 ; 2.0178628637363452E8 ; 9.27197025891608E8 ; 1.3281349608012936E10 ; 0.0
75 ; 1.294202381565008E7 ; 2.0180019637329727E8 ; 9.401384738153046E8 ; 1.348313589438657E10 ; 0.0
76 ; 1.2940285567736398E7 ; 2.0181416779326025E8 ; 9.530804976309547E8 ; 1.3684936090759867E10 ; 0.0
77 ; 1.2948061775629018E7 ; 2.0182819789959034E8 ; 9.660207831986911E8 ; 1.3886750258553127E10 ; 0.0
78 ; 1.2944111205159714E7 ; 2.0184228403685743E8 ; 9.789688449743202E8 ; 1.4088578456452717E10 ; 0.0
79 ; 1.2938817846215893E7 ; 2.0185642362565488E8 ; 9.919129561794798E8 ; 1.4290420740489574E10 ; 0.0
80 ; 1.293511824353256E7 ; 2.0187061416016996E8 ; 1.0048517740256957E9 ; 1.4492277164115229E10 ; 0.0
81 ; 1.2937385185597455E7 ; 2.0188485320580703E8 ; 1.0177868922692282E9 ; 1.4694147778275398E10 ; 0.0
82 ; 1.29319788311922E7 ; 2.0189913839686576E8 ; 1.0307242774548256E9 ; 1.4896032631481205E10 ; 0.0
83 ; 1.2928604916294444E7 ; 2.0191346743427613E8 ; 1.0436562562860179E9 ; 1.509793176987807E10 ; 0.0
84 ; 1.2928813272338133E7 ; 2.019278380833921E8 ; 1.0565848612023124E9 ; 1.5299845237312347E10 ; 0.0
85 ; 1.2924919706328236E7 ; 2.0194224817184395E8 ; 1.0695136744746505E9 ; 1.5501773075395739E10 ; 0.0
86 ; 1.2921087082806021E7 ; 2.0195669558745065E8 ; 1.0824385941809788E9 ; 1.5703715323567583E10 ; 0.0
87 ; 1.2917830958708886E7 ; 2.0197117827619228E8 ; 1.095359681263785E9 ; 1.5905672019155033E10 ; 0.0
88 ; 1.2914534508475248E7 ; 2.0198569424024212E8 ; 1.108277512222494E9 ; 1.6107643197431225E10 ; 0.0
89 ; 1.29112790457143E7 ; 2.0200024153605887E8 ; 1.1211920467309692E9 ; 1.6309628891671467E10 ; 0.0
90 ; 1.2903600412251642E7 ; 2.0201481827253768E8 ; 1.1341033257766836E9 ; 1.6511629133207525E10 ; 0.0
91 ; 1.2901607210072415E7 ; 2.0202942260921988E8 ; 1.1470069261889353E9 ; 1.6713643951480062E10 ; 0.0
92 ; 1.289805491142214E7 ; 2.0204405275456062E8 ; 1.1599085333990078E9 ; 1.6915673374089283E10 ; 0.0
93 ; 1.2894332838427763E7 ; 2.0205870696425313E8 ; 1.17280658831043E9 ; 1.7117717426843843E10 ; 0.0
94 ; 1.2890537865909059E7 ; 2.0207338353960872E8 ; 1.1857009211488578E9 ; 1.7319776133808098E10 ; 0.0
95 ; 1.2884223323844794E7 ; 2.0208808082599154E8 ; 1.198591459014767E9 ; 1.7521849517347706E10 ; 0.0
96 ; 1.288179287502765E7 ; 2.0210279721130663E8 ; 1.2114756823386118E9 ; 1.77239375981737E10 ; 0.0
97 ; 1.2877475630654406E7 ; 2.0211753112454024E8 ; 1.2243574752136395E9 ; 1.7926040395385006E10 ; 0.0
98 ; 1.2869409100603182E7 ; 2.0213228103435078E8 ; 1.2372349508442938E9 ; 1.8128157926509544E10 ; 0.0
99 ; 1.2867189857711323E7 ; 2.021470454477094E8 ; 1.250104359944897E9 ; 1.8330290207543896E10 ; 0.0
100 ; 1.2860286348699963E7 ; 2.0216182290858874E8 ; 1.2629715498026083E9 ; 1.8532437252991604E10 ; 0.0
101 ; 1.285684666367132E7 ; 2.0217661199669823E8 ; 1.2758318361513083E9 ; 1.8734599075900192E10 ; 0.0
102 ; 1.2848268083239134E7 ; 2.0219141132626486E8 ; 1.2886886828149796E9 ; 1.893677568789689E10 ; 0.0
103 ; 1.2846271946011577E7 ; 2.02206219544858E8 ; 1.3015369508982186E9 ; 1.9138967099223152E10 ; 0.0
104 ; 1.2839277680465758E7 ; 2.022210353322566E8 ; 1.3143832228442302E9 ; 1.934117331876801E10 ; 0.0
105 ; 1.2836313896955047E7 ; 2.0223585739935777E8 ; 1.3272225005246959E9 ; 1.9543394354100266E10 ; 0.0
106 ; 1.2830625322484743E7 ; 2.022506844871252E8 ; 1.340058814421651E9 ; 1.9745630211499622E10 ; 0.0
107 ; 1.2824471729246069E7 ; 2.022655153655761E8 ; 1.3528894397441356E9 ; 1.9947880895986748E10 ; 0.0
108 ; 1.2819924660994254E7 ; 2.0228034883280542E8 ; 1.3657139114733818E9 ; 2.0150146411352325E10 ; 0.0
109 ; 1.2814047379238207E7 ; 2.0229518371404603E8 ; 1.378533836134376E9 ; 2.035242676018513E10 ; 0.0
110 ; 1.2808585224091455E7 ; 2.0231001886076352E8 ; 1.3913478835136142E9 ; 2.0554721943899178E10 ; 0.0
111 ; 1.2801794226459779E7 ; 2.0232485314978454E8 ; 1.4041564687377057E9 ; 2.075703196275994E10 ; 0.0
112 ; 1.2796741570032315E7 ; 2.0233968548245746E8 ; 1.4169582629641654E9 ; 2.0959356815909725E10 ; 0.0
113 ; 1.278618790306428E7 ; 2.0235451478384408E8 ; 1.4297550045341978E9 ; 2.116169650139218E10 ; 0.0
114 ; 1.2781090304702425E7 ; 2.0236934000194138E8 ; 1.442541192437262E9 ; 2.1364051016176025E10 ; 0.0
115 ; 1.27774621214583E7 ; 2.0238416010693225E8 ; 1.4553222827419646E9 ; 2.1566420356177967E10 ; 0.0
116 ; 1.2770588247008337E7 ; 2.0239897409046367E8 ; 1.4680997448634229E9 ; 2.17688045162849E10 ; 0.0
117 ; 1.275898185524382E7 ; 2.024137809649523E8 ; 1.4808703331104312E9 ; 2.1971203490375366E10 ; 0.0
118 ; 1.2753031549198208E7 ; 2.0242857976291522E8 ; 1.493629314965675E9 ; 2.2173617271340317E10 ; 0.0
119 ; 1.2748628363597501E7 ; 2.0244336953632602E8 ; 1.5063823465148733E9 ; 2.2376045851103233E10 ; 0.0
120 ; 1.2742240339225218E7 ; 2.024581493559944E8 ; 1.5191309748784707E9 ; 2.257848922063956E10 ; 0.0
121 ; 1.273325332219213E7 ; 2.0247291831096905E8 ; 1.531873215217696E9 ; 2.2780947369995556E10 ; 0.0
122 ; 1.2727272160341317E7 ; 2.0248767550796235E8 ; 1.5446064685398881E9 ; 2.2983420288306526E10 ; 0.0
123 ; 1.2720356577107001E7 ; 2.0250242007079664E8 ; 1.5573337407002294E9 ; 2.3185907963814487E10 ; 0.0
124 ; 1.270964791530444E7 ; 2.0251715113987073E8 ; 1.5700540972773364E9 ; 2.3388410383885284E10 ; 0.0
125 ; 1.2703113790557332E7 ; 2.025318678716462E8 ; 1.5827637451926408E9 ; 2.3590927535025154E10 ; 0.0
126 ; 1.2697073306079738E7 ; 2.025465694381525E8 ; 1.5954668589831982E9 ; 2.37934594028968E10 ; 0.0
127 ; 1.2688810019169703E7 ; 2.0256125502651045E8 ; 1.6081639322892778E9 ; 2.3996005972334953E10 ; 0.0
128 ; 1.267642257718747E7 ; 2.0257592383847308E8 ; 1.6208527423084476E9 ; 2.4198567227361465E10 ; 0.0
129 ; 1.2671260247026846E7 ; 2.0259057508998325E8 ; 1.6335291648856351E9 ; 2.440114315119994E10 ; 0.0
130 ; 1.2660753104502209E7 ; 2.026052080107476E8 ; 1.646200425132662E9 ; 2.4603733726289925E10 ; 0.0
131 ; 1.2648732801529262E7 ; 2.0261982184382603E8 ; 1.6588611782371643E9 ; 2.480633893430067E10 ; 0.0
132 ; 1.263564133371001E7 ; 2.0263441584523585E8 ; 1.6715099110386934E9 ; 2.5008958756144497E10 ; 0.0
133 ; 1.262276307739089E7 ; 2.0264898928357092E8 ; 1.6841455523724034E9 ; 2.5211593171989735E10 ; 0.0
134 ; 1.2611068114935165E7 ; 2.026635414396338E8 ; 1.6967683154497943E9 ; 2.5414242161273304E10 ; 0.0
135 ; 1.2598976008559506E7 ; 2.026780716060819E8 ; 1.7093793835647295E9 ; 2.5616905702712936E10 ; 0.0
136 ; 1.2586068116003709E7 ; 2.026925790870861E8 ; 1.721978359573289E9 ; 2.581958377431902E10 ; 0.0
137 ; 1.2572707789292932E7 ; 2.027070631980016E8 ; 1.7345644276892927E9 ; 2.6022276353406105E10 ; 0.0
138 ; 1.2561949048414234E7 ; 2.027215232650507E8 ; 1.7471371354785857E9 ; 2.6224983416604107E10 ; 0.0
139 ; 1.2548967915507395E7 ; 2.0273595862501702E8 ; 1.759699084527E9 ; 2.6427704939869156E10 ; 0.0
140 ; 1.2531679328385886E7 ; 2.0275036862495032E8 ; 1.7722480524425073E9 ; 2.663044089849417E10 ; 0.0
141 ; 1.2522733359995019E7 ; 2.0276475262188235E8 ; 1.784779731770893E9 ; 2.683319126711912E10 ; 0.0
142 ; 1.2510819252493199E7 ; 2.027791099825523E8 ; 1.7973024651308882E9 ; 2.7035956019741005E10 ; 0.0
143 ; 1.2492240741268713E7 ; 2.027934400831422E8 ; 1.8098132843833814E9 ; 2.7238735129723557E10 ; 0.0
144 ; 1.2481939256777849E7 ; 2.028077423090218E8 ; 1.82230552512465E9 ; 2.7441528569806698E10 ; 0.0
145 ; 1.2473295303709388E7 ; 2.0282201605450213E8 ; 1.8347874643814278E9 ; 2.764433631211572E10 ; 0.0
146 ; 1.246572835091781E7 ; 2.0283626072259808E8 ; 1.8472607596851373E9 ; 2.784715832817022E10 ; 0.0
147 ; 1.2451903866618099E7 ; 2.0285047572479886E8 ; 1.859726488036055E9 ; 2.804999458889282E10 ; 0.0
148 ; 1.2445172978719948E7 ; 2.0286466048084706E8 ; 1.8721783919026732E9 ; 2.825284506461762E10 ; 0.0
149 ; 1.2437695947894728E7 ; 2.028788144185248E8 ; 1.8846235648813932E9 ; 2.8455709725098465E10 ; 0.0
150 ; 1.2427516306973897E7 ; 2.0289293697344774E8 ; 1.897061260829288E9 ; 2.865858853951699E10 ; 0.0
151 ; 1.2419220279771507E7 ; 2.0290702758886608E8 ; 1.909488777136262E9 ; 2.8861481476490437E10 ; 0.0
152 ; 1.2409816126542374E7 ; 2.029210857154724E8 ; 1.9219079974160335E9 ; 2.9064388504079304E10 ; 0.0
153 ; 1.2401814617743798E7 ; 2.0293511081121624E8 ; 1.9343178135425758E9 ; 2.9267309589794777E10 ; 0.0
154 ; 1.2391236347914085E7 ; 2.0294910234112483E8 ; 1.9467196281603196E9 ; 2.947024470060599E10 ; 0.0
155 ; 1.238120406841881E7 ; 2.0296305977713025E8 ; 1.9591108645082335E9 ; 2.9673193802947117E10 ; 0.0
156 ; 1.237278424558413E7 ; 2.0297698259790227E8 ; 1.9714920685766523E9 ; 2.9876156862724247E10 ; 0.0
157 ; 1.2365752703884369E7 ; 2.0299087028868693E8 ; 1.9838648528222365E9 ; 3.0079133845322147E10 ; 0.0
158 ; 1.2356117910322925E7 ; 2.030047223411507E8 ; 1.996230605526121E9 ; 3.0282124715610836E10 ; 0.0
159 ; 1.2346479027829044E7 ; 2.0301853825322983E8 ; 2.0085867234364438E9 ; 3.048512943795199E10 ; 0.0
160 ; 1.233549069542458E7 ; 2.0303231752898467E8 ; 2.0209332024642727E9 ; 3.068814797620522E10 ; 0.0
161 ; 1.2331411173258416E7 ; 2.0304605967845923E8 ; 2.0332686931596973E9 ; 3.0891180293734203E10 ; 0.0
162 ; 1.2316957787192898E7 ; 2.0305976421754506E8 ; 2.0456001043329556E9 ; 3.1094226353412663E10 ; 0.0
163 ; 1.2305055460782032E7 ; 2.0307343066785005E8 ; 2.0579170621201484E9 ; 3.1297286117630207E10 ; 0.0
164 ; 1.230008723125257E7 ; 2.0308705855657122E8 ; 2.0702221175809305E9 ; 3.1500359548298058E10 ; 0.0
165 ; 1.2290270749471981E7 ; 2.031006474163721E8 ; 2.0825222048121831E9 ; 3.170344660685463E10 ; 0.0
166 ; 1.227881998616458E7 ; 2.03114196785264E8 ; 2.094812475561655E9 ; 3.1906547254271E10 ; 0.0
167 ; 1.2271740919219775E7 ; 2.031277062064912E8 ; 2.1070912955478196E9 ; 3.2109661451056263E10 ; 0.0
168 ; 1.225877560034484E7 ; 2.0314117522842005E8 ; 2.1193630364670393E9 ; 3.2312789157262753E10 ; 0.0
169 ; 1.224936960056231E7 ; 2.0315460340443152E8 ; 2.1316218120673842E9 ; 3.2515930332491173E10 ; 0.0
170 ; 1.2242863519356193E7 ; 2.031679902928175E8 ; 2.1438711816679466E9 ; 3.2719084935895603E10 ; 0.0
171 ; 1.2225832632559763E7 ; 2.031813354566803E8 ; 2.1561140451873026E9 ; 3.292225292618842E10 ; 0.0
172 ; 1.2220545464414388E7 ; 2.0319463846383554E8 ; 2.1683398778198624E9 ; 3.31254342616451E10 ; 0.0
173 ; 1.2209769860424597E7 ; 2.0320789888671827E8 ; 2.180560423284277E9 ; 3.3328628900108936E10 ; 0.0
174 ; 1.2204830817486206E7 ; 2.0322111630229187E8 ; 2.1927701931447015E9 ; 3.3531836798995655E10 ; 0.0
175 ; 1.2198534046983082E7 ; 2.0323429029196024E8 ; 2.204975023962188E9 ; 3.3735057915297947E10 ; 0.0
176 ; 1.2194302546847804E7 ; 2.032474204414825E8 ; 2.217173558009171E9 ; 3.393829220558991E10 ; 0.0
177 ; 1.2185757270071449E7 ; 2.032605063408908E8 ; 2.229367860556019E9 ; 3.414153962603139E10 ; 0.0
178 ; 1.2179626349863283E7 ; 2.0327354758441028E8 ; 2.2415536178260903E9 ; 3.434480013237228E10 ; 0.0
179 ; 1.2175366848237883E7 ; 2.0328654377038217E8 ; 2.2537332441759534E9 ; 3.454807367995669E10 ; 0.0
180 ; 1.216433956771716E7 ; 2.032994945011889E8 ; 2.2659086110241914E9 ; 3.475136022372707E10 ; 0.0
181 ; 1.2161704155342875E7 ; 2.0331239938318172E8 ; 2.2780729505919085E9 ; 3.4954659718228264E10 ; 0.0
182 ; 1.2157472868794711E7 ; 2.033252580266108E8 ; 2.2902346547472515E9 ; 3.515797211761144E10 ; 0.0
183 ; 1.215070940774976E7 ; 2.0333807004555726E8 ; 2.3023921276160464E9 ; 3.5361297375638054E10 ; 0.0
184 ; 1.2141866124001577E7 ; 2.0335083505786762E8 ; 2.314542837023796E9 ; 3.556463544568361E10 ; 0.0
185 ; 1.2138880583954634E7 ; 2.0336355268509012E8 ; 2.3266847031477976E9 ; 3.576798628074148E10 ; 0.0
186 ; 1.2129828665444259E7 ; 2.033762225524131E8 ; 2.3388235837317524E9 ; 3.597134983342657E10 ; 0.0
187 ; 1.212633837771658E7 ; 2.033888442886054E8 ; 2.350953412397197E9 ; 3.617472605597898E10 ; 0.0
188 ; 1.2116825278470924E7 ; 2.0340141752595857E8 ; 2.3630797507749133E9 ; 3.6378114900267586E10 ; 0.0
189 ; 1.2114143954951635E7 ; 2.034139419002308E8 ; 2.3751965760533843E9 ; 3.658151631779354E10 ; 0.0
190 ; 1.2110446429901859E7 ; 2.0342641705059284E8 ; 2.387310720008336E9 ; 3.678493025969377E10 ; 0.0
191 ; 1.2100188306112079E7 ; 2.034388426195753E8 ; 2.399421166438238E9 ; 3.698835667674436E10 ; 0.0
192 ; 1.209208132639283E7 ; 2.0345121825301778E8 ; 2.4115213547443504E9 ; 3.719179551936394E10 ; 0.0
193 ; 1.2085271886325883E7 ; 2.0346354360001963E8 ; 2.423613436070743E9 ; 3.739524673761696E10 ; 0.0
194 ; 1.2083888456932552E7 ; 2.0347581831289202E8 ; 2.435698707957069E9 ; 3.759871028121698E10 ; 0.0
195 ; 1.2077185645667633E7 ; 2.0348804204711175E8 ; 2.4477825964140015E9 ; 3.780218609952987E10 ; 0.0
