CSV File for the City 2 on Day 209
1 - Minute m 
2 - Power Consumed at minute m 
3 - Power Produced at minute m 
4 - Energy Consumed since the beginning of the day 
5 - Energy Produced since the beginning of the day 
6 - Energy Lost since the beginning of the day on lines starting from the city
 
0 ; 125820.52020628657 ; 1.0520801170603046E8 ; 0.0 ; 0.0 ; 0.0
1 ; 128036.49392097822 ; 1.0536186909046543E8 ; 125820.52020628657 ; 1.0520801170603046E8 ; 0.0
2 ; 129527.5028816225 ; 1.058244131756827E8 ; 253857.0141272648 ; 2.1056988079649588E8 ; 0.0
3 ; 132782.87587424475 ; 1.0659564523157525E8 ; 383384.51700888725 ; 3.163942939721786E8 ; 0.0
4 ; 135495.1535450579 ; 1.0767556642801595E8 ; 516167.392883132 ; 4.229899392037538E8 ; 0.0
5 ; 139996.33431631397 ; 1.090641778185466E8 ; 651662.5464281898 ; 5.306655056317698E8 ; 0.0
6 ; 144246.25753468426 ; 1.1076148032487002E8 ; 791658.8807445038 ; 6.397296834503164E8 ; 0.0
7 ; 150147.55308518047 ; 1.1276747472263825E8 ; 935905.1382791881 ; 7.504911637751864E8 ; 0.0
8 ; 158706.64067831615 ; 1.1508216162902111E8 ; 1086052.6913643684 ; 8.632586384978247E8 ; 0.0
9 ; 174653.990521267 ; 1.1770554149250424E8 ; 1244759.3320426845 ; 9.783408001268458E8 ; 0.0
10 ; 195557.7920419481 ; 1.2063761458530134E8 ; 1419413.3225639516 ; 1.09604634161935E9 ; 0.0
11 ; 229644.28282913708 ; 1.238783809986771E8 ; 1614971.1146058997 ; 1.2166839562046514E9 ; 0.0
12 ; 284555.2159515273 ; 1.2742784064136681E8 ; 1844615.3974350367 ; 1.3405623372033284E9 ; 0.0
13 ; 336663.2233676187 ; 1.3128599324115676E8 ; 2129170.613386564 ; 1.467990177844695E9 ; 0.0
14 ; 342508.6371345136 ; 1.354528383495614E8 ; 2465833.836754183 ; 1.599276171085852E9 ; 0.0
15 ; 345620.13538454083 ; 1.3992837534941077E8 ; 2808342.473888696 ; 1.7347290094354134E9 ; 0.0
16 ; 348266.7326833975 ; 1.44712603465053E8 ; 3153962.609273237 ; 1.8746573847848241E9 ; 0.0
17 ; 352530.15514316736 ; 1.4980552177478513E8 ; 3502229.3419566345 ; 2.0193699882498772E9 ; 0.0
18 ; 354316.3944742892 ; 1.552071292250654E8 ; 3854759.497099802 ; 2.1691755100246625E9 ; 0.0
19 ; 357202.33581762656 ; 1.6091742464602098E8 ; 4209075.891574091 ; 2.3243826392497277E9 ; 0.0
20 ; 359556.8600234801 ; 1.6693640676775882E8 ; 4566278.227391718 ; 2.4853000638957486E9 ; 0.0
21 ; 362693.0951241989 ; 1.7326407423700526E8 ; 4925835.087415198 ; 2.6522364706635075E9 ; 0.0
22 ; 366086.5482951421 ; 1.7990042563363647E8 ; 5288528.182539397 ; 2.8255005449005127E9 ; 0.0
23 ; 367327.656054017 ; 1.8684545948671854E8 ; 5654614.730834539 ; 3.005400970534149E9 ; 0.0
24 ; 370234.7812392005 ; 1.9409917428973913E8 ; 6021942.386888556 ; 3.192246430020868E9 ; 0.0
25 ; 374753.80023890414 ; 2.0034960941296706E8 ; 6392177.168127757 ; 3.386345604310607E9 ; 0.0
26 ; 376837.0618245509 ; 2.0035031115328905E8 ; 6766930.968366661 ; 3.586695213723574E9 ; 0.0
27 ; 378594.70467024343 ; 2.0035104727070647E8 ; 7143768.030191212 ; 3.787045524876863E9 ; 0.0
28 ; 382874.78858849825 ; 2.0035181624529895E8 ; 7522362.734861456 ; 3.9873965721475697E9 ; 0.0
29 ; 384462.5579130765 ; 2.0035261657925457E8 ; 7905237.523449954 ; 4.1877483883928685E9 ; 0.0
30 ; 386860.3975930535 ; 2.0035344680428484E8 ; 8289700.08136303 ; 4.388101004972123E9 ; 0.0
31 ; 390496.9914411926 ; 2.003543054877381E8 ; 8676560.478956083 ; 4.588454451776408E9 ; 0.0
32 ; 393159.7240890892 ; 2.003551912375014E8 ; 9067057.470397275 ; 4.788808757264146E9 ; 0.0
33 ; 396705.2996030281 ; 2.00356102705797E8 ; 9460217.194486365 ; 4.989163948501647E9 ; 0.0
34 ; 398040.47815017006 ; 2.0035703859198624E8 ; 9856922.494089393 ; 5.189520051207444E9 ; 0.0
35 ; 400514.59761320404 ; 2.003579976444978E8 ; 1.0254962972239563E7 ; 5.389877089799431E9 ; 0.0
36 ; 404001.750481755 ; 2.003589786619937E8 ; 1.0655477569852768E7 ; 5.590235087443929E9 ; 0.0
37 ; 405520.7550049103 ; 2.0035998049388343E8 ; 1.1059479320334522E7 ; 5.790594066105923E9 ; 0.0
38 ; 407926.4996175588 ; 2.0036100204028794E8 ; 1.1465000075339433E7 ; 5.990954046599806E9 ; 0.0
39 ; 410109.6256253014 ; 2.0036204225154796E8 ; 1.187292657495699E7 ; 6.191315048640094E9 ; 0.0
40 ; 412517.3187041478 ; 2.0036310012736085E8 ; 1.2283036200582292E7 ; 6.391677090891642E9 ; 0.0
41 ; 414704.52180116164 ; 2.0036417471562153E8 ; 1.2695553519286439E7 ; 6.592040191019003E9 ; 0.0
42 ; 416996.000394386 ; 2.003652651110331E8 ; 1.3110258041087601E7 ; 6.792404365734625E9 ; 0.0
43 ; 418575.32310688164 ; 2.0036637045354474E8 ; 1.3527254041481987E7 ; 6.992769630845658E9 ; 0.0
44 ; 419871.5359404982 ; 2.0036748992666498E8 ; 1.3945829364588868E7 ; 7.193136001299203E9 ; 0.0
45 ; 422285.2388652915 ; 2.0036862275569227E8 ; 1.4365700900529366E7 ; 7.393503491225868E9 ; 0.0
46 ; 422080.95302234136 ; 2.003697682058968E8 ; 1.4787986139394658E7 ; 7.593872113981561E9 ; 0.0
47 ; 425073.5026980452 ; 2.003709255806822E8 ; 1.5210067092417E7 ; 7.794241882187457E9 ; 0.0
48 ; 425386.17130201054 ; 2.0037209421975023E8 ; 1.5635140595115045E7 ; 7.994612807768139E9 ; 0.0
49 ; 427373.8211551912 ; 2.003732734972871E8 ; 1.6060526766417056E7 ; 8.194984901987889E9 ; 0.0
50 ; 428920.23337322095 ; 2.0037446282018557E8 ; 1.6487900587572247E7 ; 8.395358175485176E9 ; 0.0
51 ; 430453.1202759085 ; 2.0037566162631485E8 ; 1.6916820820945468E7 ; 8.59573263830536E9 ; 0.0
52 ; 431077.7696837006 ; 2.0037686938284603E8 ; 1.7347273941221375E7 ; 8.796108299931675E9 ; 0.0
53 ; 432434.19554259 ; 2.0037808558463925E8 ; 1.7778351710905075E7 ; 8.996485169314522E9 ; 0.0
54 ; 434871.5267665032 ; 2.0037930975269717E8 ; 1.8210785906447664E7 ; 9.19686325489916E9 ; 0.0
55 ; 434585.1873093207 ; 2.0038054143268675E8 ; 1.8645657433214165E7 ; 9.397242564651857E9 ; 0.0
56 ; 436819.03302504914 ; 2.0038178019353056E8 ; 1.9080242620523486E7 ; 9.597623106084543E9 ; 0.0
57 ; 437402.7448965905 ; 2.003830256260683E8 ; 1.9517061653548535E7 ; 9.798004886278074E9 ; 0.0
58 ; 437439.7735850189 ; 2.0038427734178716E8 ; 1.9954464398445126E7 ; 9.998387911904142E9 ; 0.0
59 ; 439144.7809296849 ; 2.003855349716205E8 ; 2.0391904172030143E7 ; 1.019877218924593E10 ; 0.0
60 ; 440302.2331651728 ; 2.0038679816481212E8 ; 2.0831048952959828E7 ; 1.039915772421755E10 ; 0.0
61 ; 441846.2393878965 ; 2.0038806658784506E8 ; 2.1271351186125E7 ; 1.0599544522382362E10 ; 0.0
62 ; 442374.9471826668 ; 2.0038933992343158E8 ; 2.1713197425512895E7 ; 1.0799932588970207E10 ; 0.0
63 ; 444275.97907925077 ; 2.0039061786956227E8 ; 2.215557237269556E7 ; 1.1000321928893639E10 ; 0.0
64 ; 444284.93204036675 ; 2.0039190013861156E8 ; 2.259984835177481E7 ; 1.12007125467632E10 ; 0.0
65 ; 445466.85862748994 ; 2.0039318645649648E8 ; 2.304413328381518E7 ; 1.1401104446901812E10 ; 0.0
66 ; 447721.61458828417 ; 2.0039447656188664E8 ; 2.348960014244267E7 ; 1.1601497633358309E10 ; 0.0
67 ; 447495.73464662913 ; 2.0039577020546198E8 ; 2.3937321757030953E7 ; 1.1801892109920195E10 ; 0.0
68 ; 448908.7144925706 ; 2.003970671492162E8 ; 2.4384817491677582E7 ; 1.2002287880125656E10 ; 0.0
69 ; 449688.3446118766 ; 2.0039836716580287E8 ; 2.4833726206170153E7 ; 1.2202684947274872E10 ; 0.0
70 ; 448573.1869193081 ; 2.0039967003792194E8 ; 2.528341455078203E7 ; 1.2403083314440674E10 ; 0.0
71 ; 451754.95966002473 ; 2.0040097555774432E8 ; 2.5731987737701338E7 ; 1.2603482984478596E10 ; 0.0
72 ; 453068.02784576657 ; 2.004022835263719E8 ; 2.618374269736136E7 ; 1.280388396003634E10 ; 0.0
73 ; 452704.6326635459 ; 2.0040359375333115E8 ; 2.6636810725207128E7 ; 1.3004286243562712E10 ; 0.0
74 ; 454161.19924812886 ; 2.0040490605609822E8 ; 2.7089515357870672E7 ; 1.3204689837316042E10 ; 0.0
75 ; 454145.71048245544 ; 2.004062202596531E8 ; 2.75436765571188E7 ; 1.340509474337214E10 ; 0.0
76 ; 455861.6704523628 ; 2.0040753619606173E8 ; 2.7997822267601255E7 ; 1.3605500963631794E10 ; 0.0
77 ; 457158.4820544946 ; 2.0040885370408365E8 ; 2.845368393805362E7 ; 1.3805908499827856E10 ; 0.0
78 ; 457050.738872671 ; 2.004101726288039E8 ; 2.8910842420108113E7 ; 1.400631735353194E10 ; 0.0
79 ; 457339.3704801806 ; 2.0041149282128754E8 ; 2.9367893158980783E7 ; 1.4206727526160744E10 ; 0.0
80 ; 456265.6066657107 ; 2.0041281413825518E8 ; 2.9825232529460963E7 ; 1.440713901898203E10 ; 0.0
81 ; 457717.39924418996 ; 2.004141364417784E8 ; 3.0281498136126675E7 ; 1.4607551833120287E10 ; 0.0
82 ; 458035.86767163005 ; 2.0041545959899375E8 ; 3.0739215535370864E7 ; 1.4807965969562065E10 ; 0.0
83 ; 458199.26947210706 ; 2.0041678348183385E8 ; 3.1197251403042495E7 ; 1.5008381429161058E10 ; 0.0
84 ; 457517.6470972926 ; 2.0041810796677482E8 ; 3.1655450672514603E7 ; 1.5208798212642893E10 ; 0.0
85 ; 456890.9034095254 ; 2.0041943293459886E8 ; 3.2112968319611896E7 ; 1.5409216320609667E10 ; 0.0
86 ; 457691.7583613134 ; 2.004207582701708E8 ; 3.256985922302142E7 ; 1.5609635753544266E10 ; 0.0
87 ; 457808.7758651573 ; 2.004220838622283E8 ; 3.3027550981382735E7 ; 1.5810056511814436E10 ; 0.0
88 ; 458303.55415420677 ; 2.00423409603184E8 ; 3.348535975724789E7 ; 1.6010478595676664E10 ; 0.0
89 ; 458391.67106169305 ; 2.0042473538893962E8 ; 3.39436633114021E7 ; 1.6210902005279848E10 ; 0.0
90 ; 457518.13469031005 ; 2.0042606111871064E8 ; 3.440205498246379E7 ; 1.6411326740668787E10 ; 0.0
91 ; 458626.78819405666 ; 2.0042738669486153E8 ; 3.48595731171541E7 ; 1.6611752801787498E10 ; 0.0
92 ; 458395.482685387 ; 2.0042871202275014E8 ; 3.531819990534816E7 ; 1.681218018848236E10 ; 0.0
93 ; 457699.81747202383 ; 2.0043003701058114E8 ; 3.577659538803355E7 ; 1.7012608900505112E10 ; 0.0
94 ; 458137.6208558535 ; 2.0043136156926802E8 ; 3.623429520550557E7 ; 1.7213038937515694E10 ; 0.0
95 ; 458626.666075872 ; 2.004326856123026E8 ; 3.6692432826361425E7 ; 1.741347029908496E10 ; 0.0
96 ; 458864.12946894014 ; 2.004340090556321E8 ; 3.7151059492437296E7 ; 1.761390298469726E10 ; 0.0
97 ; 457807.9851123335 ; 2.0043533181754315E8 ; 3.7609923621906236E7 ; 1.7814336993752895E10 ; 0.0
98 ; 457594.0945059721 ; 2.00436653818552E8 ; 3.806773160701857E7 ; 1.801477232557044E10 ; 0.0
99 ; 457607.45532680745 ; 2.004379749813012E8 ; 3.852532570152454E7 ; 1.821520897938899E10 ; 0.0
100 ; 457297.42497831356 ; 2.004392952304615E8 ; 3.898293315685135E7 ; 1.841564695437029E10 ; 0.0
101 ; 457462.48873766826 ; 2.004406144926397E8 ; 3.944023058182967E7 ; 1.861608624960075E10 ; 0.0
102 ; 458118.22509561275 ; 2.0044193269629073E8 ; 3.989769307056733E7 ; 1.881652686409339E10 ; 0.0
103 ; 457221.19784745073 ; 2.0044324977163532E8 ; 4.035581129566295E7 ; 1.901696879678968E10 ; 0.0
104 ; 456852.4618661086 ; 2.0044456565058154E8 ; 4.0813032493510395E7 ; 1.9217412046561317E10 ; 0.0
105 ; 456833.451462192 ; 2.0044588026665062E8 ; 4.1269884955376506E7 ; 1.94178566122119E10 ; 0.0
106 ; 456070.96030376776 ; 2.0044719355490676E8 ; 4.17267184068387E7 ; 1.961830249247855E10 ; 0.0
107 ; 455776.6969652833 ; 2.004485054518908E8 ; 4.218278936714247E7 ; 1.9818749686033455E10 ; 0.0
108 ; 456260.0131533733 ; 2.0044981589555696E8 ; 4.263856606410775E7 ; 2.0019198191485344E10 ; 0.0
109 ; 455230.4662598958 ; 2.0045112482521322E8 ; 4.309482607726113E7 ; 2.02196480073809E10 ; 0.0
110 ; 455685.78572498995 ; 2.0045243218146473E8 ; 4.3550056543521024E7 ; 2.0420099132206116E10 ; 0.0
111 ; 455428.04364996037 ; 2.0045373790615988E8 ; 4.4005742329246014E7 ; 2.062055156438758E10 ; 0.0
112 ; 455061.77155359345 ; 2.0045504194233942E8 ; 4.446117037289598E7 ; 2.082100530229374E10 ; 0.0
113 ; 455466.93646569527 ; 2.0045634423418805E8 ; 4.491623214444957E7 ; 2.102146034423608E10 ; 0.0
114 ; 454474.137823533 ; 2.0045764472698835E8 ; 4.5371699080915265E7 ; 2.122191668847027E10 ; 0.0
115 ; 454378.0647178915 ; 2.004589433670772E8 ; 4.5826173218738794E7 ; 2.1422374333197258E10 ; 0.0
116 ; 453678.4035372949 ; 2.0046024010180417E8 ; 4.628055128345668E7 ; 2.1622833276564335E10 ; 0.0
117 ; 453223.619883469 ; 2.004615348794922E8 ; 4.673422968699398E7 ; 2.1823293516666138E10 ; 0.0
118 ; 453332.96996767126 ; 2.004628276493999E8 ; 4.718745330687745E7 ; 2.202375505154563E10 ; 0.0
119 ; 452159.43773521343 ; 2.0046411836168617E8 ; 4.764078627684512E7 ; 2.222421787919503E10 ; 0.0
120 ; 453089.4262637097 ; 2.0046540696737584E8 ; 4.8092945714580335E7 ; 2.2424681997556717E10 ; 0.0
121 ; 452130.61955052 ; 2.0046669341832775E8 ; 4.854603514084405E7 ; 2.2625147404524094E10 ; 0.0
122 ; 450736.0516627744 ; 2.0046797766720378E8 ; 4.8998165760394566E7 ; 2.282561409794242E10 ; 0.0
123 ; 451968.561719673 ; 2.0046925966743958E8 ; 4.944890181205734E7 ; 2.3026082075609623E10 ; 0.0
124 ; 450634.1338546588 ; 2.0047053937321672E8 ; 4.990087037377701E7 ; 2.322655133527706E10 ; 0.0
125 ; 450330.1752038986 ; 2.0047181673943612E8 ; 5.035150450763167E7 ; 2.342702187465028E10 ; 0.0
126 ; 449635.95414973865 ; 2.0047309172169256E8 ; 5.0801834682835564E7 ; 2.3627493691389717E10 ; 0.0
127 ; 448929.89836860064 ; 2.0047436427625075E8 ; 5.12514706369853E7 ; 2.382796678311141E10 ; 0.0
128 ; 448686.188184103 ; 2.0047563436002207E8 ; 5.17004005353539E7 ; 2.4028441147387657E10 ; 0.0
129 ; 446834.9676954929 ; 2.004769019305427E8 ; 5.2149086723538004E7 ; 2.422891678174768E10 ; 0.0
130 ; 446626.3715383948 ; 2.004781669459527E8 ; 5.259592169123349E7 ; 2.4429393683678223E10 ; 0.0
131 ; 445456.7029541619 ; 2.0047942936497584E8 ; 5.304254806277189E7 ; 2.4629871850624176E10 ; 0.0
132 ; 444742.8428876424 ; 2.004806891469006E8 ; 5.3488004765726045E7 ; 2.483035127998915E10 ; 0.0
133 ; 444037.3783096807 ; 2.004819462515619E8 ; 5.3932747608613685E7 ; 2.503083196913605E10 ; 0.0
134 ; 442913.86067472224 ; 2.0048320063932368E8 ; 5.437678498692337E7 ; 2.523131391538761E10 ; 0.0
135 ; 440763.0003847537 ; 2.004844522710622E8 ; 5.481969884759809E7 ; 2.5431797116026936E10 ; 0.0
136 ; 440152.5866740783 ; 2.004857011081501E8 ; 5.5260461847982846E7 ; 2.5632281568297997E10 ; 0.0
137 ; 438376.0462380327 ; 2.0048694711244133E8 ; 5.5700614434656925E7 ; 2.5832767269406147E10 ; 0.0
138 ; 437678.7820771338 ; 2.004881902462565E8 ; 5.613899048089496E7 ; 2.603325421651859E10 ; 0.0
139 ; 436433.7706772047 ; 2.0048943047236887E8 ; 5.6576669262972094E7 ; 2.6233742406764847E10 ; 0.0
140 ; 434348.7027567312 ; 2.0049066775399125E8 ; 5.7013103033649296E7 ; 2.6434231837237217E10 ; 0.0
141 ; 433344.87135174184 ; 2.004919020547631E8 ; 5.744745173640603E7 ; 2.6634722504991207E10 ; 0.0
142 ; 432423.2360978116 ; 2.004931333387385E8 ; 5.788079660775777E7 ; 2.683521440704597E10 ; 0.0
143 ; 430723.2903039852 ; 2.004943615703743E8 ; 5.831321984385558E7 ; 2.703570754038471E10 ; 0.0
144 ; 429715.6964939813 ; 2.0049558671451908E8 ; 5.8743943134159565E7 ; 2.7236201901955082E10 ; 0.0
145 ; 428498.05371302256 ; 2.0049680873640248E8 ; 5.917365883065355E7 ; 2.74366974886696E10 ; 0.0
146 ; 427864.660053517 ; 2.0049802760162485E8 ; 5.960215688436657E7 ; 2.7637194297406002E10 ; 0.0
147 ; 428158.39668991166 ; 2.0049924327614748E8 ; 6.0030021544420086E7 ; 2.7837692325007626E10 ; 0.0
148 ; 428343.78624883445 ; 2.0050045572628325E8 ; 6.045817994111E7 ; 2.803819156828377E10 ; 0.0
149 ; 427948.5042378564 ; 2.0050166491868758E8 ; 6.088652372735883E7 ; 2.8238692024010056E10 ; 0.0
150 ; 426200.35965083644 ; 2.005028708203498E8 ; 6.1314472231596686E7 ; 2.843919368892874E10 ; 0.0
151 ; 426843.3059885178 ; 2.005040733985849E8 ; 6.174067259124752E7 ; 2.8639696559749092E10 ; 0.0
152 ; 424368.23981205147 ; 2.0050527262102544E8 ; 6.216751589723604E7 ; 2.884020063314768E10 ; 0.0
153 ; 424480.5087679738 ; 2.0050646845561415E8 ; 6.2591884137048095E7 ; 2.9040705905768703E10 ; 0.0
154 ; 424136.6805321246 ; 2.0050766087059656E8 ; 6.301636464581607E7 ; 2.924121237422432E10 ; 0.0
155 ; 423928.2395627773 ; 2.005088498345139E8 ; 6.34405013263482E7 ; 2.9441720035094917E10 ; 0.0
156 ; 423317.0065973295 ; 2.0051003531619647E8 ; 6.386442956591098E7 ; 2.9642228884929432E10 ; 0.0
157 ; 421845.4096717881 ; 2.005112172847571E8 ; 6.428774657250831E7 ; 2.984273892024563E10 ; 0.0
158 ; 422911.0641080444 ; 2.0051239570958516E8 ; 6.47095919821801E7 ; 3.0043250137530384E10 ; 0.0
159 ; 421389.86237162777 ; 2.005135705603403E8 ; 6.513250304628815E7 ; 3.0243762533239967E10 ; 0.0
160 ; 421338.6420600002 ; 2.0051474180694702E8 ; 6.555389290865978E7 ; 3.044427610380031E10 ; 0.0
161 ; 420974.9934266191 ; 2.0051590941958907E8 ; 6.5975231550719775E7 ; 3.0644790845607254E10 ; 0.0
162 ; 419871.4935435821 ; 2.0051707336870414E8 ; 6.6396206544146396E7 ; 3.0845306755026844E10 ; 0.0
163 ; 418948.7975785055 ; 2.0051823362497893E8 ; 6.681607803768998E7 ; 3.104582382839555E10 ; 0.0
164 ; 419158.68358656747 ; 2.0051939015934423E8 ; 6.723502683526848E7 ; 3.1246342062020527E10 ; 0.0
165 ; 419142.05787306273 ; 2.0052054294297016E8 ; 6.765418551885505E7 ; 3.144686145217987E10 ; 0.0
166 ; 417879.66971743794 ; 2.0052169194726184E8 ; 6.80733275767281E7 ; 3.164738199512284E10 ; 0.0
167 ; 417147.51300174027 ; 2.0052283714385504E8 ; 6.849120724644554E7 ; 3.1847903687070103E10 ; 0.0
168 ; 415886.0435055734 ; 2.0052397850461197E8 ; 6.890835475944728E7 ; 3.204842652421396E10 ; 0.0
169 ; 416331.30254918314 ; 2.0052511600161734E8 ; 6.932424080295286E7 ; 3.224895050271857E10 ; 0.0
170 ; 415142.31700651423 ; 2.0052624960717458E8 ; 6.974057210550204E7 ; 3.244947561872019E10 ; 0.0
171 ; 414457.99159140093 ; 2.0052737929380208E8 ; 7.015571442250855E7 ; 3.2650001868327362E10 ; 0.0
172 ; 414648.71026770904 ; 2.0052850503422973E8 ; 7.057017241409995E7 ; 3.2850529247621162E10 ; 0.0
173 ; 413301.23089011596 ; 2.0052962680139548E8 ; 7.098482112436765E7 ; 3.305105775265539E10 ; 0.0
174 ; 413269.55859722325 ; 2.00530744568442E8 ; 7.139812235525776E7 ; 3.3251587379456787E10 ; 0.0
175 ; 413117.51134733297 ; 2.005318583087137E8 ; 7.181139191385499E7 ; 3.345211812402523E10 ; 0.0
176 ; 412486.5551442041 ; 2.0053296799575362E8 ; 7.222450942520232E7 ; 3.3652649982333942E10 ; 0.0
177 ; 411023.57356391 ; 2.005340736033004E8 ; 7.263699598034653E7 ; 3.3853182950329697E10 ; 0.0
178 ; 410757.5926055497 ; 2.0053517510528573E8 ; 7.304801955391043E7 ; 3.4053717023933E10 ; 0.0
179 ; 411286.8490896099 ; 2.0053627247583145E8 ; 7.345877714651598E7 ; 3.4254252199038284E10 ; 0.0
180 ; 411540.14439775265 ; 2.0053736568924707E8 ; 7.387006399560559E7 ; 3.4454788471514114E10 ; 0.0
181 ; 410389.4374401657 ; 2.005384547200272E8 ; 7.428160414000334E7 ; 3.465532583720336E10 ; 0.0
182 ; 410267.4984049993 ; 2.0053953954284927E8 ; 7.469199357744351E7 ; 3.4855864291923386E10 ; 0.0
183 ; 410496.2323842933 ; 2.0054062013257107E8 ; 7.51022610758485E7 ; 3.505640383146623E10 ; 0.0
184 ; 410383.01197358087 ; 2.0054169646422866E8 ; 7.55127573082328E7 ; 3.52569444515988E10 ; 0.0
185 ; 408660.84314819623 ; 2.005427685130342E8 ; 7.592314032020637E7 ; 3.545748614806303E10 ; 0.0
186 ; 407708.9602086353 ; 2.0054383625437388E8 ; 7.633180116335458E7 ; 3.565802891657606E10 ; 0.0
187 ; 408829.2452429553 ; 2.0054489966380587E8 ; 7.673951012356322E7 ; 3.585857275283043E10 ; 0.0
188 ; 408181.27099783986 ; 2.0054595871705863E8 ; 7.714833936880617E7 ; 3.605911765249423E10 ; 0.0
189 ; 407896.22587986704 ; 2.0054701339002886E8 ; 7.7556520639804E7 ; 3.625966361121129E10 ; 0.0
190 ; 407565.64686949516 ; 2.0054806365877983E8 ; 7.796441686568387E7 ; 3.646021062460132E10 ; 0.0
191 ; 406454.76944475656 ; 2.0054910949953973E8 ; 7.837198251255336E7 ; 3.66607586882601E10 ; 0.0
192 ; 407490.0101837448 ; 2.0055015088869992E8 ; 7.877843728199813E7 ; 3.686130779775964E10 ; 0.0
193 ; 405878.0611382786 ; 2.0055118780281347E8 ; 7.918592729218188E7 ; 3.7061857948648346E10 ; 0.0
194 ; 405816.52074596856 ; 2.005522202185936E8 ; 7.959180535332015E7 ; 3.726240913645116E10 ; 0.0
195 ; 404271.58553929336 ; 2.005532481129123E8 ; 7.999762187406611E7 ; 3.7462961356669754E10 ; 0.0
196 ; 404796.46353119146 ; 2.005542714627988E8 ; 8.040189345960541E7 ; 3.766351460478267E10 ; 0.0
197 ; 404557.4935054076 ; 2.0055529024543834E8 ; 8.08066899231366E7 ; 3.786406887624547E10 ; 0.0
198 ; 403589.2373535482 ; 2.005563044381708E8 ; 8.121124741664201E7 ; 3.8064624166490906E10 ; 0.0
199 ; 404213.95172237325 ; 2.0055731401848954E8 ; 8.161483665399556E7 ; 3.826518047092908E10 ; 0.0
200 ; 403531.7122531867 ; 2.005583189640401E8 ; 8.201905060571793E7 ; 3.846573778494756E10 ; 0.0
201 ; 402317.0344409004 ; 2.0055931925261915E8 ; 8.242258231797111E7 ; 3.8666296103911606E10 ; 0.0
