CSV File for the City 4 on Day 227
1 - Minute m 
2 - Power Consumed at minute m 
3 - Power Produced at minute m 
4 - Energy Consumed since the beginning of the day 
5 - Energy Produced since the beginning of the day 
6 - Energy Lost since the beginning of the day on lines starting from the city
 
0 ; 525438.3922961791 ; 1.0536624062191936E8 ; 0.0 ; 0.0 ; 0.0
1 ; 529709.1632910654 ; 1.0550926524412072E8 ; 525438.3922961791 ; 1.0536624062191936E8 ; 0.0
2 ; 540411.1160772281 ; 1.059615279887074E8 ; 1055147.5555872445 ; 2.1087550586604008E8 ; 0.0
3 ; 549933.5894426124 ; 1.0672314045342904E8 ; 1595558.6716644727 ; 3.168370338547475E8 ; 0.0
4 ; 556683.7652952193 ; 1.077942330782249E8 ; 2145492.2611070853 ; 4.235601743081765E8 ; 0.0
5 ; 573100.5220772353 ; 1.0917495463648689E8 ; 2702176.0264023044 ; 5.313544073864014E8 ; 0.0
6 ; 590181.6417427566 ; 1.1086546865324268E8 ; 3275276.54847954 ; 6.405293620228883E8 ; 0.0
7 ; 612862.4326196546 ; 1.1286594530539286E8 ; 3865458.1902222964 ; 7.51394830676131E8 ; 0.0
8 ; 646608.794333406 ; 1.1517654790074188E8 ; 4478320.6228419505 ; 8.642607759815239E8 ; 0.0
9 ; 697444.279116525 ; 1.1779741465278566E8 ; 5124929.417175356 ; 9.794373238822658E8 ; 0.0
10 ; 776943.4154814716 ; 1.2072863902411789E8 ; 5822373.696291882 ; 1.0972347385350513E9 ; 0.0
11 ; 900850.5498546867 ; 1.2397025415895852E8 ; 6599317.111773353 ; 1.2179633775591693E9 ; 0.0
12 ; 1099503.9131930415 ; 1.2752222691308758E8 ; 7500167.66162804 ; 1.3419336317181277E9 ; 0.0
13 ; 1292226.0370669363 ; 1.3138446382391137E8 ; 8599671.574821081 ; 1.4694558586312153E9 ; 0.0
14 ; 1315555.7541709815 ; 1.3555682667793405E8 ; 9891897.611888018 ; 1.6008403224551268E9 ; 0.0
15 ; 1323589.6502879744 ; 1.4003915216735107E8 ; 1.1207453366059E7 ; 1.736397149133061E9 ; 0.0
16 ; 1334628.2254930497 ; 1.4483127011526194E8 ; 1.2531043016346974E7 ; 1.876436301300412E9 ; 0.0
17 ; 1348228.4879038576 ; 1.4993301699663892E8 ; 1.3865671241840024E7 ; 2.021267571415674E9 ; 0.0
18 ; 1354960.9138437118 ; 1.553442440380901E8 ; 1.5213899729743881E7 ; 2.171200588412313E9 ; 0.0
19 ; 1363864.7938094663 ; 1.6106482079967627E8 ; 1.6568860643587593E7 ; 2.326544832450403E9 ; 0.0
20 ; 1374612.5162733376 ; 1.6709463568364772E8 ; 1.793272543739706E7 ; 2.4876096532500796E9 ; 0.0
21 ; 1384175.222504704 ; 1.7343359468849233E8 ; 1.9307337953670397E7 ; 2.6547042889337273E9 ; 0.0
22 ; 1395227.250344738 ; 1.8008161935853642E8 ; 2.0691513176175103E7 ; 2.8281378836222196E9 ; 0.0
23 ; 1406928.1408510501 ; 1.8703864451567316E8 ; 2.208674042651984E7 ; 3.008219502980756E9 ; 0.0
24 ; 1414439.9494474228 ; 1.943046160888437E8 ; 2.349366856737089E7 ; 3.195258147496429E9 ; 0.0
25 ; 1424777.1583980632 ; 2.0056753008190238E8 ; 2.4908108516818315E7 ; 3.389562763585273E9 ; 0.0
26 ; 1436057.4068618151 ; 2.0058089696386263E8 ; 2.6332885675216377E7 ; 3.5901302936671753E9 ; 0.0
27 ; 1444956.1844875792 ; 2.005944548235441E8 ; 2.7768943082078192E7 ; 3.7907111906310377E9 ; 0.0
28 ; 1456489.2586695892 ; 2.006081774928267E8 ; 2.921389926656577E7 ; 3.9913056454545817E9 ; 0.0
29 ; 1463578.31732508 ; 2.006220429264328E8 ; 3.067038852523536E7 ; 4.1919138229474087E9 ; 0.0
30 ; 1476210.262466991 ; 2.0063603246241385E8 ; 3.213396684256044E7 ; 4.392535865873841E9 ; 0.0
31 ; 1483516.1285351217 ; 2.0065013022433245E8 ; 3.361017710502743E7 ; 4.593171898336255E9 ; 0.0
32 ; 1493589.4470064216 ; 2.006643226377639E8 ; 3.509369323356255E7 ; 4.793822028560588E9 ; 0.0
33 ; 1500523.940389786 ; 2.006785980385561E8 ; 3.658728268056897E7 ; 4.994486351198352E9 ; 0.0
34 ; 1511266.1171617487 ; 2.0069294635457757E8 ; 3.808780662095876E7 ; 5.195164949236908E9 ; 0.0
35 ; 1519966.4951669956 ; 2.0070735884631133E8 ; 3.959907273812051E7 ; 5.395857895591486E9 ; 0.0
36 ; 1529983.837648269 ; 2.0072182789462855E8 ; 4.1119039233287506E7 ; 5.596565254437798E9 ; 0.0
37 ; 1537628.4619760956 ; 2.0073634682647234E8 ; 4.264902307093578E7 ; 5.797287082332426E9 ; 0.0
38 ; 1547575.5936546328 ; 2.0075090977109033E8 ; 4.4186651532911874E7 ; 5.998023429158898E9 ; 0.0
39 ; 1553127.8540809986 ; 2.0076551154096767E8 ; 4.573422712656651E7 ; 6.198774338929989E9 ; 0.0
40 ; 1561560.081719444 ; 2.0078014753280345E8 ; 4.7287354980647504E7 ; 6.399539850470957E9 ; 0.0
41 ; 1569586.2382820628 ; 2.0079481364481428E8 ; 4.884891506236695E7 ; 6.60031999800376E9 ; 0.0
42 ; 1577019.233274046 ; 2.008095062073908E8 ; 5.041850130064901E7 ; 6.801114811648575E9 ; 0.0
43 ; 1581931.4399320139 ; 2.008242219247173E8 ; 5.199552053392305E7 ; 7.001924317855966E9 ; 0.0
44 ; 1589825.1627208113 ; 2.0083895782542935E8 ; 5.357745197385506E7 ; 7.202748539780683E9 ; 0.0
45 ; 1594776.5037534793 ; 2.0085371122075087E8 ; 5.516727713657588E7 ; 7.403587497606112E9 ; 0.0
46 ; 1601125.7096136387 ; 2.0086847966884625E8 ; 5.676205364032935E7 ; 7.604441208826862E9 ; 0.0
47 ; 1607214.3672882805 ; 2.0088326094435546E8 ; 5.836317934994299E7 ; 7.805309688495708E9 ; 0.0
48 ; 1608605.926395141 ; 2.0089805301226872E8 ; 5.997039371723127E7 ; 8.006192949440063E9 ; 0.0
49 ; 1616586.4384787919 ; 2.0091285400544724E8 ; 6.1578999643626414E7 ; 8.2070910024523325E9 ; 0.0
50 ; 1622910.419387064 ; 2.0092766220521885E8 ; 6.3195586082105204E7 ; 8.40800385645778E9 ; 0.0
51 ; 1625793.7938854739 ; 2.0094247602457505E8 ; 6.481849650149227E7 ; 8.608931518662998E9 ; 0.0
52 ; 1628838.612670285 ; 2.009572939935773E8 ; 6.6444290295377746E7 ; 8.809873994687572E9 ; 0.0
53 ; 1632600.6845475996 ; 2.0097211474664477E8 ; 6.807312890804803E7 ; 9.01083128868115E9 ; 0.0
54 ; 1638120.8703716104 ; 2.0098693701145014E8 ; 6.970572959259564E7 ; 9.211803403427795E9 ; 0.0
55 ; 1638933.0708648053 ; 2.010017595991934E8 ; 7.134385046296725E7 ; 9.412790340439245E9 ; 0.0
56 ; 1644909.9116257022 ; 2.0101658139606073E8 ; 7.298278353383206E7 ; 9.613792100038439E9 ; 0.0
57 ; 1646717.100741372 ; 2.010314013557046E8 ; 7.462769344545776E7 ; 9.8148086814345E9 ; 0.0
58 ; 1654703.4281357366 ; 2.0104621849260736E8 ; 7.627441054619913E7 ; 1.0015840082790205E10 ; 0.0
59 ; 1656018.1782820811 ; 2.0106103187621033E8 ; 7.792911397433487E7 ; 1.0216886301282812E10 ; 0.0
60 ; 1660731.76211072 ; 2.0107584062570846E8 ; 7.958513215261695E7 ; 1.0417947333159023E10 ; 0.0
61 ; 1666918.2395671944 ; 2.0109064390542486E8 ; 8.124586391472767E7 ; 1.061902317378473E10 ; 0.0
62 ; 1667713.0528732163 ; 2.0110544092069203E8 ; 8.291278215429486E7 ; 1.0820113817690155E10 ; 0.0
63 ; 1670286.3670832666 ; 2.011202309141764E8 ; 8.458049520716807E7 ; 1.1021219258610847E10 ; 0.0
64 ; 1673987.614847694 ; 2.0113501316259256E8 ; 8.625078157425134E7 ; 1.1222339489525024E10 ; 0.0
65 ; 1679855.8573172025 ; 2.011497869737595E8 ; 8.792476918909903E7 ; 1.1423474502687616E10 ; 0.0
66 ; 1679088.7060681947 ; 2.0116455168395898E8 ; 8.960462504641624E7 ; 1.1624624289661375E10 ; 0.0
67 ; 1685949.2162614048 ; 2.0117930665556037E8 ; 9.128371375248443E7 ; 1.1825788841345333E10 ; 0.0
68 ; 1689328.057984532 ; 2.0119405127488163E8 ; 9.296966296874583E7 ; 1.2026968148000893E10 ; 0.0
69 ; 1694177.4788924567 ; 2.012087849502594E8 ; 9.465899102673036E7 ; 1.2228162199275774E10 ; 0.0
70 ; 1693558.490593772 ; 2.0122350711030522E8 ; 9.635316850562282E7 ; 1.2429370984226034E10 ; 0.0
71 ; 1697846.2439889917 ; 2.0123821720232752E8 ; 9.80467269962166E7 ; 1.263059449133634E10 ; 0.0
72 ; 1701193.5806629558 ; 2.012529146909008E8 ; 9.974457324020559E7 ; 1.2831832708538668E10 ; 0.0
73 ; 1700477.6660298463 ; 2.012675990565672E8 ; 1.0144576682086854E8 ; 1.3033085623229568E10 ; 0.0
74 ; 1707226.1948985741 ; 2.0128226979465592E8 ; 1.0314624448689838E8 ; 1.3234353222286137E10 ; 0.0
75 ; 1709658.6601028717 ; 2.012969264142085E8 ; 1.0485347068179695E8 ; 1.3435635492080793E10 ; 0.0
76 ; 1715701.9839723995 ; 2.0131156843699932E8 ; 1.0656312934189983E8 ; 1.3636932418495003E10 ; 0.0
77 ; 1717280.771256327 ; 2.0132619539664122E8 ; 1.0827883132587223E8 ; 1.3838243986932003E10 ; 0.0
78 ; 1717729.8503335428 ; 2.0134080683776838E8 ; 1.0999611209712856E8 ; 1.4039570182328644E10 ; 0.0
79 ; 1719671.9720086663 ; 2.013554023152885E8 ; 1.117138419474621E8 ; 1.4240910989166412E10 ; 0.0
80 ; 1718515.3579991888 ; 2.0136998139369783E8 ; 1.1343351391947076E8 ; 1.44422663914817E10 ; 0.0
81 ; 1720706.3259171094 ; 2.0138454364645267E8 ; 1.1515202927746995E8 ; 1.4643636372875399E10 ; 0.0
82 ; 1719747.4614959739 ; 2.0139908865539247E8 ; 1.1687273560338706E8 ; 1.484502091652185E10 ; 0.0
83 ; 1719485.4618093735 ; 2.0141361601020947E8 ; 1.1859248306488304E8 ; 1.5046420005177242E10 ; 0.0
84 ; 1719460.6144428698 ; 2.0142812530796063E8 ; 1.203119685266924E8 ; 1.5247833621187452E10 ; 0.0
85 ; 1718776.0442985117 ; 2.0144261615261817E8 ; 1.2203142914113528E8 ; 1.5449261746495413E10 ; 0.0
86 ; 1720763.308711927 ; 2.014570881546548E8 ; 1.2375020518543379E8 ; 1.5650704362648031E10 ; 0.0
87 ; 1721015.8228519126 ; 2.014715409306615E8 ; 1.2547096849414572E8 ; 1.5852161450802687E10 ; 0.0
88 ; 1721717.5032335243 ; 2.014859741029937E8 ; 1.2719198431699763E8 ; 1.6053632991733349E10 ; 0.0
89 ; 1720217.2046339149 ; 2.015003872994448E8 ; 1.2891370182023115E8 ; 1.6255118965836342E10 ; 0.0
90 ; 1721536.833715559 ; 2.0151478015294352E8 ; 1.3063391902486508E8 ; 1.6456619353135786E10 ; 0.0
91 ; 1720072.0686884392 ; 2.0152915230127385E8 ; 1.3235545585858063E8 ; 1.6658134133288729E10 ; 0.0
92 ; 1721487.6946329013 ; 2.015435033868153E8 ; 1.3407552792726907E8 ; 1.6859663285590002E10 ; 0.0
93 ; 1717643.4178896684 ; 2.0155783305630195E8 ; 1.3579701562190196E8 ; 1.7061206788976818E10 ; 0.0
94 ; 1716743.8693008623 ; 2.015721409605988E8 ; 1.375146590397916E8 ; 1.726276462203312E10 ; 0.0
95 ; 1720193.2545663991 ; 2.0158642675449386E8 ; 1.392314029090925E8 ; 1.7464336762993717E10 ; 0.0
96 ; 1718498.9953698316 ; 2.0160069009650487E8 ; 1.409515961636589E8 ; 1.766592318974821E10 ; 0.0
97 ; 1717762.1832464498 ; 2.0161493064869943E8 ; 1.426700951590287E8 ; 1.7867523879844715E10 ; 0.0
98 ; 1716298.1879261194 ; 2.0162914807652748E8 ; 1.4438785734227517E8 ; 1.8069138810493416E10 ; 0.0
99 ; 1716381.3578623463 ; 2.016433420486654E8 ; 1.461041555302013E8 ; 1.8270767958569942E10 ; 0.0
100 ; 1717750.4442904678 ; 2.0165751223687032E8 ; 1.4782053688806364E8 ; 1.8472411300618607E10 ; 0.0
101 ; 1716519.3718754065 ; 2.016716583158446E8 ; 1.495382873323541E8 ; 1.8674068812855476E10 ; 0.0
102 ; 1716565.566927506 ; 2.0168577996310887E8 ; 1.512548067042295E8 ; 1.887574047117132E10 ; 0.0
103 ; 1714680.0610224449 ; 2.0169987685888398E8 ; 1.52971372271157E8 ; 1.907742625113443E10 ; 0.0
104 ; 1715040.520642425 ; 2.017139486859802E8 ; 1.5468605233217943E8 ; 1.9279126127993313E10 ; 0.0
105 ; 1712601.419249405 ; 2.0172799512969387E8 ; 1.5640109285282186E8 ; 1.9480840076679295E10 ; 0.0
106 ; 1714080.420307903 ; 2.0174201587771073E8 ; 1.5811369427207127E8 ; 1.9682568071808987E10 ; 0.0
107 ; 1711392.1313870973 ; 2.0175601062001532E8 ; 1.5982777469237918E8 ; 1.98843100876867E10 ; 0.0
108 ; 1710547.1730569133 ; 2.0176997904880625E8 ; 1.6153916682376626E8 ; 2.0086066098306713E10 ; 0.0
109 ; 1711576.0498437774 ; 2.017839208584167E8 ; 1.6324971399682316E8 ; 2.028783607735552E10 ; 0.0
110 ; 1708169.1252547964 ; 2.017978357452402E8 ; 1.6496129004666695E8 ; 2.0489619998213936E10 ; 0.0
111 ; 1707819.2709368886 ; 2.0181172340766063E8 ; 1.6666945917192176E8 ; 2.0691417833959175E10 ; 0.0
112 ; 1706927.9117785706 ; 2.0182558354598692E8 ; 1.6837727844285864E8 ; 2.0893229557366837E10 ; 0.0
113 ; 1707260.6082223293 ; 2.0183941586239162E8 ; 1.700842063546372E8 ; 2.1095055140912823E10 ; 0.0
114 ; 1705954.2007541289 ; 2.018532200608533E8 ; 1.7179146696285954E8 ; 2.1296894556775215E10 ; 0.0
115 ; 1704504.8021331774 ; 2.0186699584710243E8 ; 1.7349742116361368E8 ; 2.1498747776836067E10 ; 0.0
116 ; 1702823.8384024736 ; 2.0188074292857057E8 ; 1.7520192596574685E8 ; 2.170061477268317E10 ; 0.0
117 ; 1701358.3251297502 ; 2.018944610143427E8 ; 1.7690474980414933E8 ; 2.190249551561174E10 ; 0.0
118 ; 1702005.1694785466 ; 2.0190814981511235E8 ; 1.7860610812927908E8 ; 2.2104389976626083E10 ; 0.0
119 ; 1699115.7773743838 ; 2.019218090431395E8 ; 1.803081132987576E8 ; 2.2306298126441196E10 ; 0.0
120 ; 1696798.1910173718 ; 2.0193543841221094E8 ; 1.82007229076132E8 ; 2.2508219935484337E10 ; 0.0
121 ; 1695215.6796712568 ; 2.019490376376031E8 ; 1.8370402726714936E8 ; 2.271015537389655E10 ; 0.0
122 ; 1694546.268755173 ; 2.0196260643604693E8 ; 1.8539924294682062E8 ; 2.2912104411534153E10 ; 0.0
123 ; 1691199.4096802564 ; 2.0197614452569512E8 ; 1.8709378921557578E8 ; 2.31140670179702E10 ; 0.0
124 ; 1689039.143923916 ; 2.0198965162609103E8 ; 1.8878498862525603E8 ; 2.3316043162495895E10 ; 0.0
125 ; 1688664.0705894076 ; 2.020031274581397E8 ; 1.9047402776917994E8 ; 2.3518032814121986E10 ; 0.0
126 ; 1687662.4801258002 ; 2.0201657174408028E8 ; 1.9216269183976933E8 ; 2.3720035941580128E10 ; 0.0
127 ; 1683788.1265153664 ; 2.020299842074605E8 ; 1.9385035431989515E8 ; 2.3922052513324207E10 ; 0.0
128 ; 1683314.8755191932 ; 2.0204336457311222E8 ; 1.955341424464105E8 ; 2.412408249753167E10 ; 0.0
129 ; 1682810.9293052682 ; 2.0205671256712887E8 ; 1.972174573219297E8 ; 2.4326125862104782E10 ; 0.0
130 ; 1677573.962973268 ; 2.0207002791684383E8 ; 1.9890026825123495E8 ; 2.452818257467191E10 ; 0.0
131 ; 1673863.5317701127 ; 2.0208331035081038E8 ; 2.0057784221420822E8 ; 2.4730252602588753E10 ; 0.0
132 ; 1670334.6913581784 ; 2.0209655959878278E8 ; 2.0225170574597833E8 ; 2.4932335912939564E10 ; 0.0
133 ; 1665011.4824472086 ; 2.021097753916984E8 ; 2.039220404373365E8 ; 2.5134432472538345E10 ; 0.0
134 ; 1660700.1988301857 ; 2.0212295746166107E8 ; 2.055870519197837E8 ; 2.5336542247930042E10 ; 0.0
135 ; 1654357.4349256572 ; 2.0213610554192528E8 ; 2.072477521186139E8 ; 2.5538665205391705E10 ; 0.0
136 ; 1651334.4575471496 ; 2.0214921936688146E8 ; 2.0890210955353954E8 ; 2.5740801310933628E10 ; 0.0
137 ; 1647943.9381555824 ; 2.021622986720422E8 ; 2.105534440110867E8 ; 2.594295053030051E10 ; 0.0
138 ; 1640817.0517885922 ; 2.0217534319402906E8 ; 2.122013879492423E8 ; 2.6145112828972553E10 ; 0.0
139 ; 1636217.7804238864 ; 2.0218835267056057E8 ; 2.138422050010309E8 ; 2.6347288172166584E10 ; 0.0
140 ; 1631654.4271219706 ; 2.0220132684044072E8 ; 2.1547842278145477E8 ; 2.6549476524837143E10 ; 0.0
141 ; 1626595.0214024452 ; 2.0221426544354817E8 ; 2.1711007720857674E8 ; 2.675167785167758E10 ; 0.0
142 ; 1623672.0388632792 ; 2.022271682208264E8 ; 2.187366722299792E8 ; 2.6953892117121128E10 ; 0.0
143 ; 1617332.978541263 ; 2.022400349142741E8 ; 2.2036034426884246E8 ; 2.7156119285341953E10 ; 0.0
144 ; 1611403.5662385973 ; 2.0225286526693663E8 ; 2.219776772473837E8 ; 2.7358359320256226E10 ; 0.0
145 ; 1612184.9752931139 ; 2.0226565902289772E8 ; 2.2358908081362233E8 ; 2.7560612185523163E10 ; 0.0
146 ; 1609328.596266199 ; 2.0227841592727184E8 ; 2.2520126578891543E8 ; 2.776287784454606E10 ; 0.0
147 ; 1605576.605347716 ; 2.0229113572619706E8 ; 2.2681059438518164E8 ; 2.796515626047333E10 ; 0.0
148 ; 1603235.9498602194 ; 2.0230381816682845E8 ; 2.2841617099052936E8 ; 2.8167447396199528E10 ; 0.0
149 ; 1600934.603384431 ; 2.02316462997332E8 ; 2.3001940694038957E8 ; 2.8369751214366356E10 ; 0.0
150 ; 1598216.061428243 ; 2.0232906996687877E8 ; 2.31620341543774E8 ; 2.857206767736369E10 ; 0.0
151 ; 1597445.5462008219 ; 2.0234163882563975E8 ; 2.3321855760520226E8 ; 2.8774396747330566E10 ; 0.0
152 ; 1596137.1739558182 ; 2.0235416932478088E8 ; 2.3481600315140307E8 ; 2.8976738386156208E10 ; 0.0
153 ; 1594388.2115145698 ; 2.0236666121645856E8 ; 2.364121403253589E8 ; 2.9179092555480988E10 ; 0.0
154 ; 1591664.5502289126 ; 2.023791142538155E8 ; 2.3800652853687346E8 ; 2.9381459216697445E10 ; 0.0
155 ; 1587122.9873149104 ; 2.02391528190977E8 ; 2.3959819308710238E8 ; 2.958383833095126E10 ; 0.0
156 ; 1589357.3678222557 ; 2.0240390278304738E8 ; 2.411853160744173E8 ; 2.9786229859142235E10 ; 0.0
157 ; 1583546.587763515 ; 2.0241623778610685E8 ; 2.4277467344223955E8 ; 2.998863376192528E10 ; 0.0
158 ; 1582322.2958930247 ; 2.024285329572087E8 ; 2.4435822003000307E8 ; 3.0191049999711388E10 ; 0.0
159 ; 1579314.151922116 ; 2.0244078805437654E8 ; 2.4594054232589608E8 ; 3.03934785326686E10 ; 0.0
160 ; 1577993.2209171292 ; 2.0245300283660227E8 ; 2.475198564778182E8 ; 3.0595919320722973E10 ; 0.0
161 ; 1574492.797031672 ; 2.0246517706384367E8 ; 2.4909784969873533E8 ; 3.0798372323559574E10 ; 0.0
162 ; 1572881.578956994 ; 2.0247731049702284E8 ; 2.50672342495767E8 ; 3.1000837500623417E10 ; 0.0
163 ; 1570348.3551005602 ; 2.024894028980245E8 ; 2.52245224074724E8 ; 3.120331481112044E10 ; 0.0
164 ; 1566838.124810277 ; 2.025014540296946E8 ; 2.5381557242982456E8 ; 3.1405804214018467E10 ; 0.0
165 ; 1565337.5757966845 ; 2.0251346365583912E8 ; 2.5538241055463484E8 ; 3.160830566804816E10 ; 0.0
166 ; 1563023.9719133778 ; 2.0252543154122323E8 ; 2.5694774813043153E8 ; 3.1810819131704E10 ; 0.0
167 ; 1560278.041636434 ; 2.0253735745157036E8 ; 2.585107721023449E8 ; 3.201334456324522E10 ; 0.0
168 ; 1559868.0925243108 ; 2.0254924115356165E8 ; 2.6007105014398134E8 ; 3.221588192069679E10 ; 0.0
169 ; 1559863.4631626722 ; 2.0256108241483557E8 ; 2.6163091823650566E8 ; 3.241843116185035E10 ; 0.0
170 ; 1554769.079644793 ; 2.0257288100398755E8 ; 2.6319078169966832E8 ; 3.2620992244265186E10 ; 0.0
171 ; 1553858.8651000315 ; 2.025846366905699E8 ; 2.6474555077931312E8 ; 3.2823565125269173E10 ; 0.0
172 ; 1549589.275120048 ; 2.0259634924509186E8 ; 2.6629940964441314E8 ; 3.3026149761959743E10 ; 0.0
173 ; 1547809.045522674 ; 2.026080184390197E8 ; 2.678489989195332E8 ; 3.3228746111204834E10 ; 0.0
174 ; 1545500.2359175496 ; 2.026196440447772E8 ; 2.693968079650559E8 ; 3.3431354129643852E10 ; 0.0
175 ; 1545913.4524441843 ; 2.0263122583574587E8 ; 2.7094230820097345E8 ; 3.363397377368863E10 ; 0.0
176 ; 1542119.1667468855 ; 2.0264276358626556E8 ; 2.7248822165341765E8 ; 3.3836604999524376E10 ; 0.0
177 ; 1539648.7403444767 ; 2.0265425707163525E8 ; 2.7403034082016456E8 ; 3.403924776311064E10 ; 0.0
178 ; 1539697.9610419145 ; 2.0266570606811363E8 ; 2.75569989560509E8 ; 3.4241902020182278E10 ; 0.0
179 ; 1538517.674267976 ; 2.0267711035292014E8 ; 2.7710968752155095E8 ; 3.444456772625039E10 ; 0.0
180 ; 1534811.4370623946 ; 2.0268846970423594E8 ; 2.786482051958189E8 ; 3.464724483660331E10 ; 0.0
181 ; 1535429.7175039628 ; 2.0269978390120485E8 ; 2.801830166328813E8 ; 3.484993330630755E10 ; 0.0
182 ; 1532365.471002522 ; 2.0271105272393465E8 ; 2.8171844635038525E8 ; 3.5052633090208755E10 ; 0.0
183 ; 1533906.1561925171 ; 2.0272227595349824E8 ; 2.8325081182138777E8 ; 3.525534414293269E10 ; 0.0
184 ; 1530998.2568414626 ; 2.027334533719351E8 ; 2.847847179775803E8 ; 3.545806641888619E10 ; 0.0
185 ; 1528208.5900043217 ; 2.0274458476225257E8 ; 2.863157162344218E8 ; 3.5660799872258125E10 ; 0.0
186 ; 1526959.0931976005 ; 2.027556699084274E8 ; 2.878439248244261E8 ; 3.586354445702038E10 ; 0.0
187 ; 1525905.6813223653 ; 2.0276670859540722E8 ; 2.893708839176237E8 ; 3.60663001269288E10 ; 0.0
188 ; 1523900.94347145 ; 2.0277770060911235E8 ; 2.9089678959894603E8 ; 3.626906683552421E10 ; 0.0
189 ; 1523678.0897027312 ; 2.027886457364373E8 ; 2.9242069054241747E8 ; 3.647184453613332E10 ; 0.0
190 ; 1522928.1713395813 ; 2.0279954376525253E8 ; 2.939443686321202E8 ; 3.667463318186976E10 ; 0.0
191 ; 1520954.3980795292 ; 2.028103944844064E8 ; 2.9546729680345976E8 ; 3.687743272563501E10 ; 0.0
192 ; 1518946.897642924 ; 2.028211976837269E8 ; 2.969882512015393E8 ; 3.7080243120119415E10 ; 0.0
193 ; 1516527.7066534052 ; 2.0283195315402353E8 ; 2.985071980991822E8 ; 3.728306431780314E10 ; 0.0
194 ; 1515210.5000637716 ; 2.0284266068708938E8 ; 3.000237258058356E8 ; 3.748589627095716E10 ; 0.0
195 ; 1514691.727068209 ; 2.0285332007570302E8 ; 3.015389363058994E8 ; 3.768873893164425E10 ; 0.0
196 ; 1511246.9340033107 ; 2.0286393111363065E8 ; 3.0305362803296757E8 ; 3.7891592251719955E10 ; 0.0
197 ; 1510503.3650063649 ; 2.0287449359562805E8 ; 3.0456487496697086E8 ; 3.809445618283359E10 ; 0.0
198 ; 1508062.324979834 ; 2.0288500731744283E8 ; 3.0607537833197725E8 ; 3.8297330676429214E10 ; 0.0
199 ; 1506489.8998373274 ; 2.028954720758166E8 ; 3.075834406569571E8 ; 3.850021568374666E10 ; 0.0
