CSV File for the City 3 on Day 97
1 - Minute m 
2 - Power Consumed at minute m 
3 - Power Produced at minute m 
4 - Energy Consumed since the beginning of the day 
5 - Energy Produced since the beginning of the day 
6 - Energy Lost since the beginning of the day on lines starting from the city
 
0 ; 2392463.750899557 ; 1.0554411199881151E8 ; 0.0 ; 0.0 ; 0.0
1 ; 2396008.5050719343 ; 1.0569706428249323E8 ; 2392463.750899557 ; 1.0554411199881151E8 ; 0.0
2 ; 2397136.51196337 ; 1.0615879815738627E8 ; 4788472.255971491 ; 2.1124117628130475E8 ; 0.0
3 ; 2401270.4653884606 ; 1.0692931507552445E8 ; 7185608.767934861 ; 3.17399974438691E8 ; 0.0
4 ; 2403140.1082888697 ; 1.0800861633777952E8 ; 9586879.23332332 ; 4.2432928951421547E8 ; 0.0
5 ; 2408405.0537456097 ; 1.0939670308679211E8 ; 1.199001934161219E7 ; 5.32337905851995E8 ; 0.0
6 ; 2413690.7865483807 ; 1.1109357630064663E8 ; 1.4398424395357799E7 ; 6.417346089387871E8 ; 0.0
7 ; 2422634.630369519 ; 1.1309923678736973E8 ; 1.681211518190618E7 ; 7.528281852394338E8 ; 0.0
8 ; 2433091.286670342 ; 1.1541368518032503E8 ; 1.9234749812275697E7 ; 8.659274220268035E8 ; 0.0
9 ; 2450668.940146777 ; 1.1803692193456471E8 ; 2.166784109894604E7 ; 9.813411072071285E8 ; 0.0
10 ; 2475712.5436783107 ; 1.2096894732418734E8 ; 2.4118510039092816E7 ; 1.099378029141693E9 ; 0.0
11 ; 2519557.3279746063 ; 1.2420976144073758E8 ; 2.6594222582771126E7 ; 1.2203469764658804E9 ; 0.0
12 ; 2584398.5494304434 ; 1.2775936419267073E8 ; 2.9113779910745732E7 ; 1.3445567379066179E9 ; 0.0
13 ; 2647061.1671119477 ; 1.3161775530588824E8 ; 3.1698178460176177E7 ; 1.4723161020992887E9 ; 0.0
14 ; 2655860.931588298 ; 1.35784934325338E8 ; 3.4345239627288125E7 ; 1.6039338574051769E9 ; 0.0
15 ; 2659109.6198324664 ; 1.402609006176563E8 ; 3.7001100558876425E7 ; 1.739718791730515E9 ; 0.0
16 ; 2661630.081428227 ; 1.4504565337481657E8 ; 3.966021017870889E7 ; 1.8799796923481712E9 ; 0.0
17 ; 2663271.261129318 ; 1.5013919161873433E8 ; 4.232184026013712E7 ; 2.025025345722988E9 ; 0.0
18 ; 2666839.135167423 ; 1.55541514206769E8 ; 4.498511152126644E7 ; 2.175164537341722E9 ; 0.0
19 ; 2669987.5339352884 ; 1.612526198380488E8 ; 4.765195065643386E7 ; 2.330706051548491E9 ; 0.0
20 ; 2673890.779043001 ; 1.6727250706053987E8 ; 5.0321938190369144E7 ; 2.49195867138654E9 ; 0.0
21 ; 2676716.2452047076 ; 1.7360117427877066E8 ; 5.299582896941215E7 ; 2.6592311784470797E9 ; 0.0
22 ; 2678365.8430292225 ; 1.802386197621196E8 ; 5.567254521461686E7 ; 2.83283235272585E9 ; 0.0
23 ; 2682780.1592123467 ; 1.871848416535691E8 ; 5.835091105764608E7 ; 3.01307097248797E9 ; 0.0
24 ; 2685631.699363888 ; 1.9443983797882915E8 ; 6.1033691216858424E7 ; 3.200255814141539E9 ; 0.0
25 ; 2690059.8593673958 ; 2.0069164755391604E8 ; 6.371932291622231E7 ; 3.394695652120368E9 ; 0.0
26 ; 2691876.304074654 ; 2.006938160316202E8 ; 6.6409382775589705E7 ; 3.595387299674284E9 ; 0.0
27 ; 2694527.181150008 ; 2.0069611043606725E8 ; 6.910125907966436E7 ; 3.796081115705904E9 ; 0.0
28 ; 2699069.0530607565 ; 2.006985284191463E8 ; 7.179578626081437E7 ; 3.996777226141971E9 ; 0.0
29 ; 2700966.8678505234 ; 2.0070106756332916E8 ; 7.449485531387512E7 ; 4.197475754561117E9 ; 0.0
30 ; 2704948.347827205 ; 2.007037253910886E8 ; 7.719582218172565E7 ; 4.398176822124446E9 ; 0.0
31 ; 2708455.3654875364 ; 2.0070649937409374E8 ; 7.990077052955286E7 ; 4.598880547515534E9 ; 0.0
32 ; 2708593.5782376695 ; 2.007093869421245E8 ; 8.26092258950404E7 ; 4.799587046889628E9 ; 0.0
33 ; 2713705.34844365 ; 2.0071238549165428E8 ; 8.531781947327806E7 ; 5.000296433831753E9 ; 0.0
34 ; 2715525.4834540165 ; 2.0071549239405876E8 ; 8.803152482172172E7 ; 5.201008819323407E9 ; 0.0
35 ; 2718038.3611745345 ; 2.0071870500341547E8 ; 9.074705030517574E7 ; 5.401724311717466E9 ; 0.0
36 ; 2721112.9866937697 ; 2.0072202066386813E8 ; 9.346508866635028E7 ; 5.602443016720881E9 ; 0.0
37 ; 2723212.425285731 ; 2.007254367165359E8 ; 9.618620165304404E7 ; 5.803165037384749E9 ; 0.0
38 ; 2725877.6589338137 ; 2.00728950505954E8 ; 9.890941407832977E7 ; 6.003890474101285E9 ; 0.0
39 ; 2728060.495129544 ; 2.0073255938604015E8 ; 1.0163529173726359E8 ; 6.204619424607239E9 ; 0.0
40 ; 2728972.072158646 ; 2.0073626072558466E8 ; 1.0436335223239313E8 ; 6.4053519839932785E9 ; 0.0
41 ; 2732928.9854936325 ; 2.0074005191326857E8 ; 1.0709232430455178E8 ; 6.6060882447188635E9 ; 0.0
42 ; 2732475.1880273046 ; 2.0074393036221808E8 ; 1.0982525329004541E8 ; 6.806828296632132E9 ; 0.0
43 ; 2735176.328877083 ; 2.0074789351410675E8 ; 1.1255772847807272E8 ; 7.0075722269943495E9 ; 0.0
44 ; 2737575.406814822 ; 2.007519388428205E8 ; 1.152929048069498E8 ; 7.208320120508456E9 ; 0.0
45 ; 2740653.5715769045 ; 2.0075606385770327E8 ; 1.1803048021376462E8 ; 7.409072059351276E9 ; 0.0
46 ; 2740200.3843804635 ; 2.0076026610640195E8 ; 1.2077113378534153E8 ; 7.60982812320898E9 ; 0.0
47 ; 2740992.6634323937 ; 2.0076454317733234E8 ; 1.2351133416972199E8 ; 7.810588389315382E9 ; 0.0
48 ; 2743859.723203789 ; 2.0076889270178714E8 ; 1.2625232683315438E8 ; 8.011352932492714E9 ; 0.0
49 ; 2744055.446537535 ; 2.0077331235570943E8 ; 1.2899618655635817E8 ; 8.212121825194501E9 ; 0.0
50 ; 2744952.2519830978 ; 2.0077779986115366E8 ; 1.3174024200289571E8 ; 8.41289513755021E9 ; 0.0
51 ; 2747417.1762030176 ; 2.0078235298745728E8 ; 1.3448519425487882E8 ; 8.613672937411364E9 ; 0.0
52 ; 2747097.074924064 ; 2.0078696955214584E8 ; 1.3723261143108183E8 ; 8.81445529039882E9 ; 0.0
53 ; 2748385.5378486044 ; 2.007916474215928E8 ; 1.3997970850600588E8 ; 9.015242259950966E9 ; 0.0
54 ; 2748563.2570218984 ; 2.0079638451145637E8 ; 1.4272809404385448E8 ; 9.216033907372559E9 ; 0.0
55 ; 2749814.9246507287 ; 2.00801178786913E8 ; 1.4547665730087638E8 ; 9.416830291884014E9 ; 0.0
56 ; 2750990.021926764 ; 2.0080602826270804E8 ; 1.482264722255271E8 ; 9.617631470670927E9 ; 0.0
57 ; 2752503.5259093624 ; 2.008109310030415E8 ; 1.5097746224745387E8 ; 9.818437498933636E9 ; 0.0
58 ; 2752260.7656575227 ; 2.0081588512130705E8 ; 1.5372996577336323E8 ; 1.0019248429936678E10 ; 0.0
59 ; 2752871.8364867116 ; 2.0082088877970058E8 ; 1.5648222653902075E8 ; 1.0220064315057985E10 ; 0.0
60 ; 2753406.5982713234 ; 2.008259401887138E8 ; 1.5923509837550744E8 ; 1.0420885203837687E10 ; 0.0
61 ; 2753545.753535698 ; 2.008310376065274E8 ; 1.6198850497377875E8 ; 1.06217111440264E10 ; 0.0
62 ; 2755847.066372277 ; 2.008361793383168E8 ; 1.6474205072731444E8 ; 1.0822542181632927E10 ; 0.0
63 ; 2755125.6782561396 ; 2.0084136373548326E8 ; 1.6749789779368672E8 ; 1.1023378360971243E10 ; 0.0
64 ; 2755853.209403381 ; 2.0084658919482103E8 ; 1.7025302347194287E8 ; 1.1224219724706726E10 ; 0.0
65 ; 2756422.1260704156 ; 2.008518541576315E8 ; 1.7300887668134627E8 ; 1.1425066313901546E10 ; 0.0
66 ; 2758189.440233225 ; 2.0085715710879305E8 ; 1.7576529880741668E8 ; 1.1625918168059177E10 ; 0.0
67 ; 2757024.962934154 ; 2.0086249657579592E8 ; 1.785234882476499E8 ; 1.182677532516797E10 ; 0.0
68 ; 2758672.8020655685 ; 2.0086787112774897E8 ; 1.8128051321058407E8 ; 1.2027637821743767E10 ; 0.0
69 ; 2759923.2587686647 ; 2.0087327937436587E8 ; 1.8403918601264966E8 ; 1.2228505692871515E10 ; 0.0
70 ; 2758663.484353592 ; 2.0087871996493682E8 ; 1.8679910927141833E8 ; 1.2429378972245882E10 ; 0.0
71 ; 2759225.290989392 ; 2.0088419158729103E8 ; 1.8955777275577193E8 ; 1.263025769221082E10 ; 0.0
72 ; 2761014.7006641235 ; 2.008896929667553E8 ; 1.9231699804676133E8 ; 1.2831141883798111E10 ; 0.0
73 ; 2761933.666839372 ; 2.0089522286511284E8 ; 1.9507801274742547E8 ; 1.3032031576764866E10 ; 0.0
74 ; 2760951.3751490638 ; 2.0090078007956618E8 ; 1.9783994641426483E8 ; 1.3232926799629978E10 ; 0.0
75 ; 2761498.463562857 ; 2.0090636344170746E8 ; 2.006008977894139E8 ; 1.3433827579709545E10 ; 0.0
76 ; 2762435.863478498 ; 2.0091197181649935E8 ; 2.0336239625297675E8 ; 1.3634733943151253E10 ; 0.0
77 ; 2763467.1194358254 ; 2.0091760410126862E8 ; 2.0612483211645526E8 ; 1.3835645914967752E10 ; 0.0
78 ; 2760669.064782281 ; 2.0092325922471488E8 ; 2.0888829923589107E8 ; 1.4036563519069021E10 ; 0.0
79 ; 2760136.3373880796 ; 2.009289361459361E8 ; 2.1164896830067337E8 ; 1.4237486778293736E10 ; 0.0
80 ; 2760367.7660775273 ; 2.009346338534727E8 ; 2.1440910463806143E8 ; 1.4438415714439672E10 ; 0.0
81 ; 2759402.0835582684 ; 2.0094035136437118E8 ; 2.1716947240413895E8 ; 1.4639350348293144E10 ; 0.0
82 ; 2760625.503345517 ; 2.0094608772326836E8 ; 2.199288744876972E8 ; 1.4840290699657515E10 ; 0.0
83 ; 2757965.8486523475 ; 2.009518420014974E8 ; 2.2268949999104273E8 ; 1.5041236787380783E10 ; 0.0
84 ; 2758916.3119115653 ; 2.0095761329621565E8 ; 2.2544746583969507E8 ; 1.524218862938228E10 ; 0.0
85 ; 2757311.484364654 ; 2.009634007295553E8 ; 2.2820638215160662E8 ; 1.5443146242678495E10 ; 0.0
86 ; 2756107.7662335713 ; 2.0096920344779682E8 ; 2.3096369363597128E8 ; 1.564410964340805E10 ; 0.0
87 ; 2757127.280454193 ; 2.0097502062056533E8 ; 2.3371980140220484E8 ; 1.5845078846855846E10 ; 0.0
88 ; 2754952.0510064703 ; 2.009808514400504E8 ; 2.3647692868265903E8 ; 1.6046053867476412E10 ; 0.0
89 ; 2753899.5009826533 ; 2.0098669512024868E8 ; 2.392318807336655E8 ; 1.6247034718916462E10 ; 0.0
90 ; 2753913.4405131037 ; 2.0099255089622954E8 ; 2.4198578023464814E8 ; 1.644802141403671E10 ; 0.0
91 ; 2753002.6825515637 ; 2.009984180234234E8 ; 2.4473969367516124E8 ; 1.664901396493294E10 ; 0.0
92 ; 2751230.5559130944 ; 2.0100429577693266E8 ; 2.474926963577128E8 ; 1.6850012382956364E10 ; 0.0
93 ; 2753153.7926057265 ; 2.0101018345086464E8 ; 2.502439269136259E8 ; 1.7051016678733295E10 ; 0.0
94 ; 2750500.7873308496 ; 2.0101608035768643E8 ; 2.5299708070623162E8 ; 1.725202686218416E10 ; 0.0
95 ; 2750137.3728044336 ; 2.010219858276009E8 ; 2.5574758149356246E8 ; 1.7453042942541843E10 ; 0.0
96 ; 2748524.0601917612 ; 2.0102789920794383E8 ; 2.584977188663669E8 ; 1.7654064928369446E10 ; 0.0
97 ; 2746323.416532317 ; 2.0103381986260137E8 ; 2.6124624292655864E8 ; 1.785509282757739E10 ; 0.0
98 ; 2747261.0456550033 ; 2.0103974717144758E8 ; 2.6399256634309095E8 ; 1.805612664743999E10 ; 0.0
99 ; 2745195.659505326 ; 2.0104568052980122E8 ; 2.6673982738874596E8 ; 1.825716639461144E10 ; 0.0
100 ; 2742943.408278166 ; 2.010516193479018E8 ; 2.694850230482513E8 ; 1.845821207514124E10 ; 0.0
101 ; 2745228.751227664 ; 2.0105756305040365E8 ; 2.7222796645652944E8 ; 1.865926369448914E10 ; 0.0
102 ; 2742748.7806151463 ; 2.0106351107588834E8 ; 2.749731952077571E8 ; 1.8860321257539543E10 ; 0.0
103 ; 2743304.3195711346 ; 2.01069462876394E8 ; 2.7771594398837227E8 ; 1.9061384768615433E10 ; 0.0
104 ; 2740514.9953719047 ; 2.0107541791696185E8 ; 2.804592483079434E8 ; 1.9262454231491825E10 ; 0.0
105 ; 2739065.9787669145 ; 2.0108137567519882E8 ; 2.831997633033153E8 ; 1.9463529649408787E10 ; 0.0
106 ; 2738106.4040745753 ; 2.0108733564085612E8 ; 2.859388292820822E8 ; 1.9664611025083984E10 ; 0.0
107 ; 2736896.9525516755 ; 2.010932973154229E8 ; 2.8867693568615675E8 ; 1.9865698360724842E10 ; 0.0
108 ; 2736876.695950379 ; 2.0109926021173474E8 ; 2.914138326387084E8 ; 2.0066791658040264E10 ; 0.0
109 ; 2736669.1077078413 ; 2.0110522385359666E8 ; 2.941507093346588E8 ; 2.0267890918252E10 ; 0.0
110 ; 2733737.9069149233 ; 2.0111118777541947E8 ; 2.9688737844236666E8 ; 2.0468996142105595E10 ; 0.0
111 ; 2731336.10032826 ; 2.011171515218698E8 ; 2.996211163492816E8 ; 2.0670107329881016E10 ; 0.0
112 ; 2731050.7835735814 ; 2.011231146475328E8 ; 3.023524524496099E8 ; 2.0871224481402885E10 ; 0.0
113 ; 2727948.1341976956 ; 2.0112907671658722E8 ; 3.0508350323318344E8 ; 2.107234759605042E10 ; 0.0
114 ; 2729420.443221631 ; 2.0113503730249253E8 ; 3.0781145136738116E8 ; 2.1273476672767006E10 ; 0.0
115 ; 2727658.9835308404 ; 2.0114099598768753E8 ; 3.105408718106028E8 ; 2.14746117100695E10 ; 0.0
116 ; 2725074.539908148 ; 2.011469523632999E8 ; 3.132685307941336E8 ; 2.1675752706057186E10 ; 0.0
117 ; 2723913.7396934023 ; 2.011529060288667E8 ; 3.159936053340418E8 ; 2.1876899658420486E10 ; 0.0
118 ; 2721648.6910692835 ; 2.0115885659206495E8 ; 3.187175190737352E8 ; 2.2078052564449352E10 ; 0.0
119 ; 2721598.849439053 ; 2.0116480366845217E8 ; 3.214391677648045E8 ; 2.2279211421041416E10 ; 0.0
120 ; 2719695.630217573 ; 2.0117074688121662E8 ; 3.241607666142435E8 ; 2.248037622470987E10 ; 0.0
121 ; 2717968.916335006 ; 2.0117668586093646E8 ; 3.2688046224446106E8 ; 2.2681546971591087E10 ; 0.0
122 ; 2716420.8931733686 ; 2.0118262024534807E8 ; 3.2959843116079605E8 ; 2.2882723657452023E10 ; 0.0
123 ; 2716610.2631151555 ; 2.0118854967912257E8 ; 3.3231485205396944E8 ; 2.3083906277697372E10 ; 0.0
124 ; 2713316.3913297043 ; 2.0119447381365076E8 ; 3.350314623170846E8 ; 2.3285094827376495E10 ; 0.0
125 ; 2711247.086486352 ; 2.0120039230683574E8 ; 3.377447787084143E8 ; 2.3486289301190147E10 ; 0.0
126 ; 2710824.13899958 ; 2.0120630482289344E8 ; 3.4045602579490066E8 ; 2.3687489693496983E10 ; 0.0
127 ; 2708426.1924250354 ; 2.0121221103216E8 ; 3.4316684993390024E8 ; 2.3888695998319878E10 ; 0.0
128 ; 2706455.934802286 ; 2.0121811061090657E8 ; 3.4587527612632525E8 ; 2.408990820935204E10 ; 0.0
129 ; 2704418.6500027417 ; 2.0122400324116048E8 ; 3.4858173206112754E8 ; 2.4291126319962944E10 ; 0.0
130 ; 2702026.087293813 ; 2.012298886105334E8 ; 3.5128615071113026E8 ; 2.4492350323204105E10 ; 0.0
131 ; 2701912.3055247157 ; 2.0123576641205513E8 ; 3.5398817679842407E8 ; 2.469358021181464E10 ; 0.0
132 ; 2698039.8384732665 ; 2.0124163634401396E8 ; 3.566900891039488E8 ; 2.4894815978226696E10 ; 0.0
133 ; 2695418.4445514777 ; 2.0124749810980242E8 ; 3.5938812894242203E8 ; 2.509605761457071E10 ; 0.0
134 ; 2693462.6503442866 ; 2.0125335141776878E8 ; 3.620835473869735E8 ; 2.529730511268051E10 ; 0.0
135 ; 2689409.0803030236 ; 2.0125919598107374E8 ; 3.647770100373178E8 ; 2.549855846409828E10 ; 0.0
136 ; 2688563.617725754 ; 2.0126503151755255E8 ; 3.674664191176208E8 ; 2.5699817660079357E10 ; 0.0
137 ; 2684022.630106792 ; 2.0127085774958166E8 ; 3.7015498273534656E8 ; 2.590108269159691E10 ; 0.0
138 ; 2682465.1720883627 ; 2.012766744039505E8 ; 3.7283900536545336E8 ; 2.610235354934649E10 ; 0.0
139 ; 2678984.6961473483 ; 2.0128248121173763E8 ; 3.7552147053754175E8 ; 2.630363022375044E10 ; 0.0
140 ; 2675950.270352509 ; 2.012882779081912E8 ; 3.7820045523368907E8 ; 2.6504912704962177E10 ; 0.0
141 ; 2673576.7231422495 ; 2.0129406423261407E8 ; 3.8087640550404155E8 ; 2.670620098287037E10 ; 0.0
142 ; 2671862.328342801 ; 2.0129983992825237E8 ; 3.835499822271838E8 ; 2.690749504710298E10 ; 0.0
143 ; 2669151.2343572364 ; 2.013056047421886E8 ; 3.862218445555266E8 ; 2.7108794887031235E10 ; 0.0
144 ; 2665741.981445582 ; 2.0131135842523807E8 ; 3.8889099578988385E8 ; 2.7310100491773422E10 ; 0.0
145 ; 2663286.365690524 ; 2.0131710073184913E8 ; 3.9155673777132946E8 ; 2.751141185019866E10 ; 0.0
146 ; 2661749.7604497755 ; 2.0132283142000684E8 ; 3.9422002413702E8 ; 2.771272895093051E10 ; 0.0
147 ; 2661806.2650858457 ; 2.0132855025114018E8 ; 3.9688177389746976E8 ; 2.7914051782350517E10 ; 0.0
148 ; 2658413.245650683 ; 2.0133425699003214E8 ; 3.995435801625556E8 ; 2.8115380332601658E10 ; 0.0
149 ; 2656699.377573366 ; 2.013399514047333E8 ; 4.022019934082063E8 ; 2.831671458959169E10 ; 0.0
150 ; 2654534.252440226 ; 2.0134563326647815E8 ; 4.0485869278577965E8 ; 2.851805454099642E10 ; 0.0
151 ; 2653031.585957369 ; 2.0135130234960437E8 ; 4.0751322703821987E8 ; 2.87194001742629E10 ; 0.0
152 ; 2653149.285211157 ; 2.013569584314749E8 ; 4.101662586241772E8 ; 2.8920751476612507E10 ; 0.0
153 ; 2649622.121547083 ; 2.013626012924027E8 ; 4.1281940790938836E8 ; 2.9122108435043983E10 ; 0.0
154 ; 2647821.9614999234 ; 2.013682307155781E8 ; 4.1546903003093547E8 ; 2.9323471036336388E10 ; 0.0
155 ; 2646745.1487628343 ; 2.013738464869984E8 ; 4.181168519924354E8 ; 2.9524839267051968E10 ; 0.0
156 ; 2643382.84531053 ; 2.0137944839540035E8 ; 4.207635971411982E8 ; 2.9726213113538967E10 ; 0.0
157 ; 2641714.9441631394 ; 2.0138503623219433E8 ; 4.234069799865087E8 ; 2.992759256193437E10 ; 0.0
158 ; 2640760.9293650845 ; 2.013906097914012E8 ; 4.260486949306719E8 ; 3.012897759816656E10 ; 0.0
159 ; 2639205.368467328 ; 2.0139616886959112E8 ; 4.2868945586003697E8 ; 3.0330368207957962E10 ; 0.0
160 ; 2635395.7804510863 ; 2.014017132658244E8 ; 4.313286612285043E8 ; 3.0531764376827553E10 ; 0.0
161 ; 2634606.8987315753 ; 2.0140724278159437E8 ; 4.3396405700895536E8 ; 3.0733166090093376E10 ; 0.0
162 ; 2631561.951754764 ; 2.0141275722077215E8 ; 4.3659866390768695E8 ; 3.093457333287497E10 ; 0.0
163 ; 2631156.5582651896 ; 2.0141825638955328E8 ; 4.392302258594417E8 ; 3.113598609009574E10 ; 0.0
164 ; 2629094.1114734295 ; 2.014237400964061E8 ; 4.418613824177069E8 ; 3.1337404346485294E10 ; 0.0
165 ; 2625999.191825667 ; 2.014292081520219E8 ; 4.4449047652918035E8 ; 3.15388280865817E10 ; 0.0
166 ; 2624404.4806220634 ; 2.014346603692666E8 ; 4.4711647572100604E8 ; 3.1740257294733723E10 ; 0.0
167 ; 2623091.5927384887 ; 2.0144009656313407E8 ; 4.497408802016281E8 ; 3.194169195510299E10 ; 0.0
168 ; 2620491.740215445 ; 2.0144551655070114E8 ; 4.523639717943666E8 ; 3.2143132051666122E10 ; 0.0
169 ; 2619586.7230781685 ; 2.014509201510838E8 ; 4.54984463534582E8 ; 3.2344577568216824E10 ; 0.0
170 ; 2615711.288075446 ; 2.0145630718539506E8 ; 4.576040502576602E8 ; 3.254602848836791E10 ; 0.0
171 ; 2614702.778038044 ; 2.0146167747670415E8 ; 4.6021976154573566E8 ; 3.2747484795553303E10 ; 0.0
172 ; 2612533.413139142 ; 2.0146703084999692E8 ; 4.628344643237737E8 ; 3.2948946473030006E10 ; 0.0
173 ; 2610545.575537733 ; 2.0147236713213763E8 ; 4.6544699773691285E8 ; 3.3150413503880005E10 ; 0.0
174 ; 2610299.9582385356 ; 2.0147768615183195E8 ; 4.680575433124506E8 ; 3.3351885871012142E10 ; 0.0
175 ; 2608087.5655421526 ; 2.0148298773959124E8 ; 4.7066784327068913E8 ; 3.3553363557163975E10 ; 0.0
176 ; 2606146.972692632 ; 2.014882717276978E8 ; 4.732759308362313E8 ; 3.3754846544903564E10 ; 0.0
177 ; 2606142.22170506 ; 2.0149353795017126E8 ; 4.758820778089239E8 ; 3.3956334816631264E10 ; 0.0
178 ; 2602938.627931082 ; 2.014987862427364E8 ; 4.78488220030629E8 ; 3.4157828354581436E10 ; 0.0
179 ; 2603615.9464526135 ; 2.015040164427914E8 ; 4.8109115865856004E8 ; 3.4359327140824173E10 ; 0.0
180 ; 2601205.3735817126 ; 2.0150922838937762E8 ; 4.8369477460501266E8 ; 3.456083115726697E10 ; 0.0
181 ; 2600221.1811775602 ; 2.015144219231501E8 ; 4.8629597997859436E8 ; 3.476234038565635E10 ; 0.0
182 ; 2599640.647166523 ; 2.0151959688634884E8 ; 4.888962011597719E8 ; 3.49638548075795E10 ; 0.0
183 ; 2597589.197508755 ; 2.0152475312277156E8 ; 4.9149584180693847E8 ; 3.516537440446585E10 ; 0.0
184 ; 2597868.6733908346 ; 2.015298904777466E8 ; 4.940934310044472E8 ; 3.536689915758862E10 ; 0.0
185 ; 2596478.0110152564 ; 2.0153500879810712E8 ; 4.96691299677838E8 ; 3.556842904806637E10 ; 0.0
186 ; 2594802.0027225628 ; 2.0154010793216607E8 ; 4.9928777768885326E8 ; 3.576996405686447E10 ; 0.0
187 ; 2593102.3372558863 ; 2.0154518772969183E8 ; 5.018825796915758E8 ; 3.597150416479664E10 ; 0.0
188 ; 2592013.8912398536 ; 2.0155024804188463E8 ; 5.044756820288317E8 ; 3.617304935252633E10 ; 0.0
189 ; 2589399.9192931023 ; 2.015552887213537E8 ; 5.070676959200716E8 ; 3.6374599600568214E10 ; 0.0
190 ; 2588895.8314866237 ; 2.0156030962209535E8 ; 5.096570958393647E8 ; 3.6576154889289566E10 ; 0.0
191 ; 2587566.4727055323 ; 2.015653105994713E8 ; 5.1224599167085135E8 ; 3.677771519891166E10 ; 0.0
192 ; 2587970.054915474 ; 2.015702915101881E8 ; 5.148335581435569E8 ; 3.697928050951113E10 ; 0.0
193 ; 2584351.79371963 ; 2.015752522122769E8 ; 5.174215281984724E8 ; 3.718085080102132E10 ; 0.0
194 ; 2586355.5025981255 ; 2.0158019256507412E8 ; 5.2000587999219203E8 ; 3.73824260532336E10 ; 0.0
195 ; 2584320.460706359 ; 2.0158511242920232E8 ; 5.2259223549479014E8 ; 3.758400624579867E10 ; 0.0
196 ; 2582811.532580706 ; 2.015900116665521E8 ; 5.251765559554965E8 ; 3.778559135822787E10 ; 0.0
197 ; 2582077.0834985906 ; 2.0159489014026424E8 ; 5.277593674880772E8 ; 3.798718136989442E10 ; 0.0
198 ; 2580452.048875419 ; 2.0159974771471253E8 ; 5.303414445715758E8 ; 3.818877626003468E10 ; 0.0
199 ; 2578540.6186135807 ; 2.0160458425548705E8 ; 5.329218966204512E8 ; 3.83903760077494E10 ; 0.0
