CSV File for the City 4 on Day 260
1 - Minute m 
2 - Power Consumed at minute m 
3 - Power Produced at minute m 
4 - Energy Consumed since the beginning of the day 
5 - Energy Produced since the beginning of the day 
6 - Energy Lost since the beginning of the day on lines starting from the city
 
0 ; 2217717.18660051 ; 1.0604279307482186E8 ; 0.0 ; 0.0 ; 0.0
1 ; 2224302.7380854725 ; 1.0619321902097684E8 ; 2217717.18660051 ; 1.0604279307482186E8 ; 0.0
2 ; 2229661.1956288083 ; 1.066526814324244E8 ; 4442019.924685983 ; 2.122360120957987E8 ; 0.0
3 ; 2234042.2991227293 ; 1.0742118533386123E8 ; 6671681.120314792 ; 3.188886935282231E8 ; 0.0
4 ; 2242986.0611695377 ; 1.0849873524328607E8 ; 8905723.41943752 ; 4.263098788620843E8 ; 0.0
5 ; 2255731.7825116487 ; 1.098853351419602E8 ; 1.1148709480607059E7 ; 5.348086141053704E8 ; 0.0
6 ; 2270328.155322672 ; 1.1158098844732061E8 ; 1.3404441263118707E7 ; 6.446939492473307E8 ; 0.0
7 ; 2294580.8298282195 ; 1.1358569798926544E8 ; 1.5674769418441378E7 ; 7.562749376946512E8 ; 0.0
8 ; 2322531.4216087116 ; 1.1589946599019086E8 ; 1.7969350248269595E7 ; 8.698606356839167E8 ; 0.0
9 ; 2372640.9583803555 ; 1.1852229404910535E8 ; 2.0291881669878308E7 ; 9.857601016741076E8 ; 0.0
10 ; 2450227.6585416584 ; 1.2145418313008702E8 ; 2.2664522628258664E7 ; 1.104282395723213E9 ; 0.0
11 ; 2572690.4520210912 ; 1.2469513355527821E8 ; 2.511475028680032E7 ; 1.2257365788533E9 ; 0.0
12 ; 2769136.847550615 ; 1.2824514500253657E8 ; 2.7687440738821413E7 ; 1.3504317124085784E9 ; 0.0
13 ; 2957447.156576563 ; 1.3210421650778395E8 ; 3.045657758637203E7 ; 1.478676857411115E9 ; 0.0
14 ; 2978717.930581757 ; 1.3627234647201198E8 ; 3.341402474294859E7 ; 1.6107810739188988E9 ; 0.0
15 ; 2988270.2754242583 ; 1.4074953267282438E8 ; 3.639274267353035E7 ; 1.7470534203909109E9 ; 0.0
16 ; 2993503.8956828597 ; 1.4553577228032312E8 ; 3.9381012948954605E7 ; 1.8878029530637352E9 ; 0.0
17 ; 3000359.7543847025 ; 1.506310618770711E8 ; 4.237451684463746E7 ; 2.0333387253440583E9 ; 0.0
18 ; 3008910.932067661 ; 1.560353974818071E8 ; 4.5374876599022165E7 ; 2.1839697872211294E9 ; 0.0
19 ; 3018992.8426308297 ; 1.617487745765324E8 ; 4.838378753108983E7 ; 2.3400051847029366E9 ; 0.0
20 ; 3025195.494847036 ; 1.6777118813655022E8 ; 5.140278037372066E7 ; 2.501753959279469E9 ; 0.0
21 ; 3031576.1980067585 ; 1.7410263266300544E8 ; 5.44279758685677E7 ; 2.6695251474160194E9 ; 0.0
22 ; 3041129.8860309715 ; 1.8074310221745592E8 ; 5.7459552066574454E7 ; 2.843627780079025E9 ; 0.0
23 ; 3048762.841145937 ; 1.8769259045799845E8 ; 6.050068195260543E7 ; 3.0243708822964807E9 ; 0.0
24 ; 3059513.209294579 ; 1.94951090676475E8 ; 6.354944479375137E7 ; 3.212063472754479E9 ; 0.0
25 ; 3063049.1697145193 ; 2.01206636734484E8 ; 6.660895800304595E7 ; 3.407014563430954E9 ; 0.0
26 ; 3071174.760578509 ; 2.0121276913828623E8 ; 6.967200717276047E7 ; 3.608221200165438E9 ; 0.0
27 ; 3077868.4260863857 ; 2.0121924960149372E8 ; 7.274318193333898E7 ; 3.8094339693037243E9 ; 0.0
28 ; 3088521.044255764 ; 2.0122607032902882E8 ; 7.582105035942537E7 ; 4.010653218905218E9 ; 0.0
29 ; 3093065.2413795474 ; 2.0123322334662524E8 ; 7.890957140368113E7 ; 4.2118792892342467E9 ; 0.0
30 ; 3104922.181397933 ; 2.012407005358614E8 ; 8.200263664506067E7 ; 4.413112512580872E9 ; 0.0
31 ; 3109227.1240009055 ; 2.0124849366772485E8 ; 8.51075588264586E7 ; 4.614353213116733E9 ; 0.0
32 ; 3119488.6502299337 ; 2.0125659443450478E8 ; 8.821678595045951E7 ; 4.815601706784457E9 ; 0.0
33 ; 3124165.915462168 ; 2.0126499447985262E8 ; 9.133627460068944E7 ; 5.016858301218962E9 ; 0.0
34 ; 3131779.816668519 ; 2.012736854268926E8 ; 9.44604405161516E7 ; 5.218123295698814E9 ; 0.0
35 ; 3136587.3310335935 ; 2.0128265890430135E8 ; 9.759222033282013E7 ; 5.419396981125707E9 ; 0.0
36 ; 3142743.890658003 ; 2.0129190657031175E8 ; 1.0072880766385372E8 ; 5.620679640030008E9 ; 0.0
37 ; 3148008.2683031913 ; 2.0130142013462827E8 ; 1.0387155155451173E8 ; 5.82197154660032E9 ; 0.0
38 ; 3154545.5328198527 ; 2.0131119137826708E8 ; 1.0701955982281491E8 ; 6.023272966734948E9 ; 0.0
39 ; 3162312.633366728 ; 2.0132121217136085E8 ; 1.1017410535563476E8 ; 6.224584158113215E9 ; 0.0
40 ; 3169119.638171556 ; 2.013314744889856E8 ; 1.133364179890015E8 ; 6.425905370284576E9 ; 0.0
41 ; 3172861.5407185494 ; 2.0134197042508587E8 ; 1.1650553762717305E8 ; 6.627236844773562E9 ; 0.0
42 ; 3178380.610652758 ; 2.0135269220458537E8 ; 1.196783991678916E8 ; 6.828578815198648E9 ; 0.0
43 ; 3178964.9030906106 ; 2.0136363219378176E8 ; 1.2285677977854437E8 ; 7.029931507403234E9 ; 0.0
44 ; 3184678.996023632 ; 2.0137478290913033E8 ; 1.2603574468163498E8 ; 7.231295139597015E9 ; 0.0
45 ; 3190901.19643313 ; 2.0138613702452573E8 ; 1.292204236776586E8 ; 7.4326699225061455E9 ; 0.0
46 ; 3191928.4442656864 ; 2.0139768737719312E8 ; 1.3241132487409173E8 ; 7.634056059530671E9 ; 0.0
47 ; 3195127.57372335 ; 2.0140942697230068E8 ; 1.356032533183574E8 ; 7.835453746907865E9 ; 0.0
48 ; 3196569.909368041 ; 2.0142134898640364E8 ; 1.3879838089208075E8 ; 8.036863173880165E9 ; 0.0
49 ; 3199142.0467017777 ; 2.0143344676982704E8 ; 1.419949508014488E8 ; 8.238284522866569E9 ; 0.0
50 ; 3201662.536919352 ; 2.0144571384809178E8 ; 1.4519409284815058E8 ; 8.439717969636395E9 ; 0.0
51 ; 3204065.327523416 ; 2.0145814392248264E8 ; 1.4839575538506994E8 ; 8.641163683484488E9 ; 0.0
52 ; 3207533.0756305275 ; 2.0147073086985272E8 ; 1.5159982071259335E8 ; 8.842621827406971E9 ; 0.0
53 ; 3207111.092816311 ; 2.0148346874175298E8 ; 1.5480735378822386E8 ; 9.044092558276823E9 ; 0.0
54 ; 3208657.9043818484 ; 2.0149635176296967E8 ; 1.580144648810402E8 ; 9.245576027018576E9 ; 0.0
55 ; 3209817.1435251026 ; 2.015093743295465E8 ; 1.6122312278542203E8 ; 9.447072378781546E9 ; 0.0
56 ; 3211002.8599573397 ; 2.0152253100636294E8 ; 1.6443293992894712E8 ; 9.648581753111092E9 ; 0.0
57 ; 3211565.7464862326 ; 2.0153581652433336E8 ; 1.6764394278890446E8 ; 9.850104284117455E9 ; 0.0
58 ; 3214055.8497372153 ; 2.0154922577728698E8 ; 1.708555085353907E8 ; 1.0051640100641788E10 ; 0.0
59 ; 3217175.9292284646 ; 2.0156275381858283E8 ; 1.7406956438512793E8 ; 1.0253189326419075E10 ; 0.0
60 ; 3215857.031310395 ; 2.0157639585750806E8 ; 1.772867403143564E8 ; 1.0454752080237658E10 ; 0.0
61 ; 3217732.6561434707 ; 2.0159014725550434E8 ; 1.805025973456668E8 ; 1.0656328476095165E10 ; 0.0
62 ; 3220551.8105846923 ; 2.0160400352226117E8 ; 1.8372033000181025E8 ; 1.085791862335067E10 ; 0.0
63 ; 3219648.6208060547 ; 2.0161796031171146E8 ; 1.8694088181239495E8 ; 1.105952262687293E10 ; 0.0
64 ; 3224293.662075073 ; 2.016320134179605E8 ; 1.9016053043320101E8 ; 1.1261140587184643E10 ; 0.0
65 ; 3223168.2022034302 ; 2.0164615877117535E8 ; 1.933848240952761E8 ; 1.1462772600602604E10 ; 0.0
66 ; 3226563.334141065 ; 2.0166039243345934E8 ; 1.966079922974795E8 ; 1.166441875937378E10 ; 0.0
67 ; 3226584.5033106073 ; 2.0167471059473184E8 ; 1.998345556316206E8 ; 1.186607915180724E10 ; 0.0
68 ; 3225760.702339101 ; 2.01689109568632E8 ; 2.030611401349312E8 ; 1.2067753862401972E10 ; 0.0
69 ; 3226565.738102019 ; 2.0170358578846174E8 ; 2.0628690083727032E8 ; 1.2269442971970604E10 ; 0.0
70 ; 3225837.157092865 ; 2.0171813580318123E8 ; 2.0951346657537234E8 ; 1.2471146557759066E10 ; 0.0
71 ; 3227456.581402888 ; 2.0173275627346838E8 ; 2.127393037324652E8 ; 1.2672864693562246E10 ; 0.0
72 ; 3228660.2425488057 ; 2.0174744396785107E8 ; 2.159667603138681E8 ; 1.2874597449835714E10 ; 0.0
73 ; 3230852.9767287658 ; 2.017621957589207E8 ; 2.191954205564169E8 ; 1.3076344893803566E10 ; 0.0
74 ; 3230124.0778056406 ; 2.0177700861963218E8 ; 2.2242627353314567E8 ; 1.3278107089562487E10 ; 0.0
75 ; 3232032.340193836 ; 2.0179187961969644E8 ; 2.256563976109513E8 ; 1.347988409818212E10 ; 0.0
76 ; 3230009.175304419 ; 2.018068059220683E8 ; 2.2888842995114514E8 ; 1.3681675977801815E10 ; 0.0
77 ; 3232071.6446900154 ; 2.0182178477953297E8 ; 2.3211843912644956E8 ; 1.3883482783723883E10 ; 0.0
78 ; 3231656.4035701053 ; 2.01836813531393E8 ; 2.3535051077113956E8 ; 1.4085304568503416E10 ; 0.0
79 ; 3226857.531427625 ; 2.0185188960025665E8 ; 2.3858216717470968E8 ; 1.428714138203481E10 ; 0.0
80 ; 3227004.3026630706 ; 2.0186701048892838E8 ; 2.418090247061373E8 ; 1.4488993271635065E10 ; 0.0
81 ; 3223251.9260377185 ; 2.018821737774009E8 ; 2.4503602900880036E8 ; 1.4690860282123993E10 ; 0.0
82 ; 3219824.5349725354 ; 2.0189737711994898E8 ; 2.482592809348381E8 ; 1.4892742455901394E10 ; 0.0
83 ; 3215308.6497059194 ; 2.0191261824232295E8 ; 2.5147910546981063E8 ; 1.5094639833021343E10 ; 0.0
84 ; 3217407.218799041 ; 2.0192789493904155E8 ; 2.5469441411951655E8 ; 1.5296552451263666E10 ; 0.0
85 ; 3213834.7539939317 ; 2.0194320507078162E8 ; 2.579118213383156E8 ; 1.5498480346202707E10 ; 0.0
86 ; 3211678.033493297 ; 2.0195854656186342E8 ; 2.6112565609230953E8 ; 1.5700423551273489E10 ; 0.0
87 ; 3209788.794883017 ; 2.0197391739782888E8 ; 2.6433733412580284E8 ; 1.5902382097835352E10 ; 0.0
88 ; 3206830.578079349 ; 2.01989315623111E8 ; 2.6754712292068586E8 ; 1.6104356015233181E10 ; 0.0
89 ; 3205561.535266239 ; 2.0200473933879173E8 ; 2.7075395349876523E8 ; 1.6306345330856293E10 ; 0.0
90 ; 3204818.2977878316 ; 2.0202018670044598E8 ; 2.7395951503403145E8 ; 1.6508350070195084E10 ; 0.0
91 ; 3202181.648076329 ; 2.0203565591606933E8 ; 2.771643333318193E8 ; 1.6710370256895529E10 ; 0.0
92 ; 3198045.640774444 ; 2.0205114524408638E8 ; 2.8036651497989565E8 ; 1.6912405912811598E10 ; 0.0
93 ; 3194520.4273057743 ; 2.020666529914381E8 ; 2.835645606206701E8 ; 1.7114457058055685E10 ; 0.0
94 ; 3189943.7557745976 ; 2.0208217751174426E8 ; 2.8675908104797584E8 ; 1.7316523711047123E10 ; 0.0
95 ; 3189465.320735408 ; 2.020977172035397E8 ; 2.8994902480375046E8 ; 1.751860588855887E10 ; 0.0
96 ; 3184398.267949329 ; 2.0211327050858086E8 ; 2.9313849012448585E8 ; 1.772070360576241E10 ; 0.0
97 ; 3182318.8156076386 ; 2.021288359102206E8 ; 2.963228883924352E8 ; 1.792281687627099E10 ; 0.0
98 ; 3180858.260820102 ; 2.021444119318484E8 ; 2.9950520720804286E8 ; 1.812494571218121E10 ; 0.0
99 ; 3177277.865789434 ; 2.02159997135394E8 ; 3.0268606546886295E8 ; 1.8327090124113056E10 ; 0.0
100 ; 3171180.821096452 ; 2.0217559011989146E8 ; 3.0586334333465236E8 ; 1.852925012124845E10 ; 0.0
101 ; 3172531.1736414367 ; 2.0219118952010188E8 ; 3.0903452415574884E8 ; 1.8731425711368343E10 ; 0.0
102 ; 3167057.162512576 ; 2.0220679400519198E8 ; 3.122070553293903E8 ; 1.8933616900888447E10 ; 0.0
103 ; 3165046.2730583074 ; 2.02222402277467E8 ; 3.153741124919029E8 ; 1.913582369489364E10 ; 0.0
104 ; 3159902.7007990433 ; 2.022380130711548E8 ; 3.185391587649612E8 ; 1.9338046097171104E10 ; 0.0
105 ; 3156772.016301632 ; 2.0225362515124E8 ; 3.2169906146576023E8 ; 1.954028411024226E10 ; 0.0
106 ; 3155110.3023046385 ; 2.0226923731234565E8 ; 3.2485583348206186E8 ; 1.97425377353935E10 ; 0.0
107 ; 3149911.801056268 ; 2.022848483776607E8 ; 3.280109437843665E8 ; 1.994480697270585E10 ; 0.0
108 ; 3148731.541567933 ; 2.02300457197911E8 ; 3.3116085558542275E8 ; 2.0147091821083508E10 ; 0.0
109 ; 3144026.1900925054 ; 2.0231606265037268E8 ; 3.343095871269907E8 ; 2.0349392278281418E10 ; 0.0
110 ; 3138309.9661924597 ; 2.023316636379255E8 ; 3.374536133170832E8 ; 2.055170834093179E10 ; 0.0
111 ; 3137342.529195226 ; 2.0234725908814496E8 ; 3.4059192328327566E8 ; 2.0754040004569714E10 ; 0.0
112 ; 3132359.3609093316 ; 2.0236284795243117E8 ; 3.437292658124709E8 ; 2.095638726365786E10 ; 0.0
113 ; 3129463.2753589344 ; 2.0237842920517328E8 ; 3.4686162517338026E8 ; 2.115875011161029E10 ; 0.0
114 ; 3125504.608653801 ; 2.023940018429479E8 ; 3.499910884487392E8 ; 2.1361128540815464E10 ; 0.0
115 ; 3122971.044621809 ; 2.0240956488374963E8 ; 3.5311659305739295E8 ; 2.1563522542658413E10 ; 0.0
116 ; 3117366.2406364274 ; 2.024251173662532E8 ; 3.562395641020148E8 ; 2.1765932107542164E10 ; 0.0
117 ; 3111199.404691203 ; 2.0244065834910494E8 ; 3.593569303426512E8 ; 2.1968357224908417E10 ; 0.0
118 ; 3106568.9419563026 ; 2.0245618691024312E8 ; 3.624681297473424E8 ; 2.2170797883257523E10 ; 0.0
119 ; 3105277.2114691455 ; 2.0247170214624533E8 ; 3.655746986892987E8 ; 2.2373254070167767E10 ; 0.0
120 ; 3099348.402212207 ; 2.024872031717022E8 ; 3.6867997590076786E8 ; 2.257572577231401E10 ; 0.0
121 ; 3094661.335742559 ; 2.0250268911861607E8 ; 3.7177932430298007E8 ; 2.2778212975485714E10 ; 0.0
122 ; 3088412.7663165703 ; 2.0251815913582367E8 ; 3.748739856387226E8 ; 2.298071566460433E10 ; 0.0
123 ; 3086319.9989921134 ; 2.0253361238844174E8 ; 3.779623984050392E8 ; 2.318323382374015E10 ; 0.0
124 ; 3080743.816550582 ; 2.0254904805733466E8 ; 3.810487184040313E8 ; 2.3385767436128593E10 ; 0.0
125 ; 3077271.1462051254 ; 2.0256446533860305E8 ; 3.841294622205818E8 ; 2.358831648418593E10 ; 0.0
126 ; 3070737.7001244365 ; 2.0257986344309276E8 ; 3.8720673336678696E8 ; 2.3790880949524532E10 ; 0.0
127 ; 3069048.3769301786 ; 2.025952415959228E8 ; 3.902774710669114E8 ; 2.3993460812967625E10 ; 0.0
128 ; 3063020.7721250704 ; 2.026105990360322E8 ; 3.933465194438416E8 ; 2.419605605456355E10 ; 0.0
129 ; 3059032.4500452434 ; 2.026259350157441E8 ; 3.9640954021596664E8 ; 2.4398666653599583E10 ; 0.0
130 ; 3052265.602988926 ; 2.0264124880034733E8 ; 3.9946857266601187E8 ; 2.4601292588615326E10 ; 0.0
131 ; 3044276.891294117 ; 2.026565396676938E8 ; 4.0252083826900077E8 ; 2.4803933837415672E10 ; 0.0
132 ; 3036933.3900959324 ; 2.026718069078117E8 ; 4.055651151602949E8 ; 2.5006590377083366E10 ; 0.0
133 ; 3031222.5658448488 ; 2.0268704982253367E8 ; 4.0860204855039084E8 ; 2.5209262183991177E10 ; 0.0
134 ; 3024551.1283145035 ; 2.027022677251389E8 ; 4.116332711162357E8 ; 2.541194923381371E10 ; 0.0
135 ; 3014816.4186249366 ; 2.027174599400096E8 ; 4.1465782224455017E8 ; 2.561465150153885E10 ; 0.0
136 ; 3009663.2157589556 ; 2.0273262580229974E8 ; 4.176726386631751E8 ; 2.581736896147886E10 ; 0.0
137 ; 3001304.457027309 ; 2.027477646576173E8 ; 4.206823018789341E8 ; 2.602010158728116E10 ; 0.0
138 ; 2994600.4757464835 ; 2.0276287586171782E8 ; 4.236836063359614E8 ; 2.6222849351938774E10 ; 0.0
139 ; 2984135.4878851864 ; 2.0277795878020996E8 ; 4.266782068117079E8 ; 2.642561222780049E10 ; 0.0
140 ; 2977921.1520615052 ; 2.02793012788272E8 ; 4.296623422995931E8 ; 2.66283901865807E10 ; 0.0
141 ; 2969102.649977713 ; 2.0280803727037907E8 ; 4.326402634516546E8 ; 2.6831183199368973E10 ; 0.0
142 ; 2962012.055931145 ; 2.0282303162004048E8 ; 4.356093661016323E8 ; 2.703399123663935E10 ; 0.0
143 ; 2953124.4468094613 ; 2.028379952395469E8 ; 4.3857137815756345E8 ; 2.723681426825939E10 ; 0.0
144 ; 2947153.1408451344 ; 2.028529275397269E8 ; 4.415245026043729E8 ; 2.743965226349894E10 ; 0.0
145 ; 2941246.3116999506 ; 2.0286782793971264E8 ; 4.4447165574521804E8 ; 2.7642505191038666E10 ; 0.0
146 ; 2937199.310358533 ; 2.0288269586671394E8 ; 4.4741290205691797E8 ; 2.784537301897838E10 ; 0.0
147 ; 2931279.567675406 ; 2.0289753075580093E8 ; 4.503501013672765E8 ; 2.8048255714845093E10 ; 0.0
148 ; 2927878.8257314013 ; 2.0291233204969445E8 ; 4.532813809349519E8 ; 2.8251153245600895E10 ; 0.0
149 ; 2920816.5552465864 ; 2.0292709919856426E8 ; 4.562092597606833E8 ; 2.845406557765059E10 ; 0.0
150 ; 2914283.7987830415 ; 2.029418316598345E8 ; 4.591300763159299E8 ; 2.865699267684915E10 ; 0.0
151 ; 2909680.9577635364 ; 2.0295652889799625E8 ; 4.6204436011471295E8 ; 2.8859934508508987E10 ; 0.0
152 ; 2907339.0280421665 ; 2.0297119038442683E8 ; 4.649540410724765E8 ; 2.9062891037406982E10 ; 0.0
153 ; 2902022.758729931 ; 2.029858155972156E8 ; 4.6786138010051864E8 ; 2.926586222779141E10 ; 0.0
154 ; 2896220.7402292425 ; 2.03000404020996E8 ; 4.707634028592486E8 ; 2.9468848043388622E10 ; 0.0
155 ; 2893222.805118414 ; 2.0301495514678383E8 ; 4.736596235994778E8 ; 2.967184844740962E10 ; 0.0
156 ; 2888109.3474923344 ; 2.0302946847182074E8 ; 4.7655284640459627E8 ; 2.9874863402556404E10 ; 0.0
157 ; 2880497.4695107327 ; 2.03043943499424E8 ; 4.794409557520886E8 ; 3.0077892871028225E10 ; 0.0
158 ; 2875232.0343070836 ; 2.0305837973884094E8 ; 4.8232145322159934E8 ; 3.028093681452765E10 ; 0.0
159 ; 2872769.136919519 ; 2.03072776705109E8 ; 4.851966852559064E8 ; 3.048399519426649E10 ; 0.0
160 ; 2866832.2792055616 ; 2.0308713391892037E8 ; 4.880694543928259E8 ; 3.06870679709716E10 ; 0.0
161 ; 2859078.5187867503 ; 2.0310145090649158E8 ; 4.9093628667203146E8 ; 3.089015510489052E10 ; 0.0
162 ; 2854891.066162204 ; 2.031157271994376E8 ; 4.937953651908182E8 ; 3.109325655579701E10 ; 0.0
163 ; 2847926.0187909375 ; 2.0312996233465028E8 ; 4.966502562569804E8 ; 3.1296372282996445E10 ; 0.0
164 ; 2844427.835961525 ; 2.0314415585418105E8 ; 4.994981822757714E8 ; 3.1499502245331097E10 ; 0.0
165 ; 2838370.061215585 ; 2.031583073051276E8 ; 5.023426101117329E8 ; 3.1702646401185276E10 ; 0.0
166 ; 2832602.945590587 ; 2.0317241623952463E8 ; 5.051809801729485E8 ; 3.1905804708490402E10 ; 0.0
167 ; 2826848.4878522763 ; 2.0318648221423826E8 ; 5.080135831185391E8 ; 3.2108977124729927E10 ; 0.0
168 ; 2824091.8257778836 ; 2.0320050479086396E8 ; 5.108404316063914E8 ; 3.2312163606944164E10 ; 0.0
169 ; 2817545.3496960113 ; 2.0321448353562817E8 ; 5.1366452343216926E8 ; 3.2515364111735027E10 ; 0.0
170 ; 2812418.9368653037 ; 2.0322841801929313E8 ; 5.164820687818653E8 ; 3.2718578595270657E10 ; 0.0
171 ; 2806199.713772744 ; 2.0324230781706506E8 ; 5.192944877187306E8 ; 3.292180701328995E10 ; 0.0
172 ; 2800078.3009433676 ; 2.0325615250850525E8 ; 5.2210068743250334E8 ; 3.3125049321107018E10 ; 0.0
173 ; 2795122.7050276585 ; 2.032699516774444E8 ; 5.249007657334467E8 ; 3.3328305473615524E10 ; 0.0
174 ; 2792154.756404053 ; 2.032837049118997E8 ; 5.2769588843847436E8 ; 3.353157542529297E10 ; 0.0
175 ; 2789541.0648054606 ; 2.0329741180399463E8 ; 5.304880431948784E8 ; 3.373485913020487E10 ; 0.0
176 ; 2783618.14718587 ; 2.033110719498817E8 ; 5.3327758425968385E8 ; 3.393815654200886E10 ; 0.0
177 ; 2777054.695216836 ; 2.0332468494966754E8 ; 5.360612024068697E8 ; 3.4141467613958744E10 ; 0.0
178 ; 2773820.1244195546 ; 2.0333825040734047E8 ; 5.388382571020865E8 ; 3.4344792298908413E10 ; 0.0
179 ; 2771655.5605799383 ; 2.033517679307007E8 ; 5.416120772265061E8 ; 3.454813054931575E10 ; 0.0
180 ; 2766393.6039512902 ; 2.0336523713129258E8 ; 5.44383732787086E8 ; 3.475148231724645E10 ; 0.0
181 ; 2762703.4388061655 ; 2.0337865762433943E8 ; 5.471501263910373E8 ; 3.495484755437775E10 ; 0.0
182 ; 2759585.7040609173 ; 2.0339202902867997E8 ; 5.499128298298435E8 ; 3.515822621200208E10 ; 0.0
183 ; 2753454.980186868 ; 2.034053509667075E8 ; 5.526724155339044E8 ; 3.536161824103076E10 ; 0.0
184 ; 2751227.5397054087 ; 2.034186230643105E8 ; 5.554258705140913E8 ; 3.556502359199747E10 ; 0.0
185 ; 2746555.1780906217 ; 2.0343184495081565E8 ; 5.581770980537966E8 ; 3.5768442215061775E10 ; 0.0
186 ; 2742590.5225743987 ; 2.0344501625893226E8 ; 5.609236532318872E8 ; 3.597187406001259E10 ; 0.0
187 ; 2737039.2558051418 ; 2.0345813662469897E8 ; 5.636662437544616E8 ; 3.617531907627152E10 ; 0.0
188 ; 2732413.742105126 ; 2.0347120568743172E8 ; 5.664032830102668E8 ; 3.6378777212896225E10 ; 0.0
189 ; 2730848.7451029816 ; 2.0348422308967376E8 ; 5.691356967523719E8 ; 3.658224841858366E10 ; 0.0
190 ; 2727446.7422661027 ; 2.034971884771472E8 ; 5.718665454974749E8 ; 3.678573264167333E10 ; 0.0
191 ; 2719485.1864798563 ; 2.035101014987059E8 ; 5.74593992239741E8 ; 3.698922983015048E10 ; 0.0
192 ; 2718497.832756306 ; 2.0352296180629033E8 ; 5.773134774262208E8 ; 3.7192739931649185E10 ; 0.0
193 ; 2712072.942640873 ; 2.035357690548833E8 ; 5.80031975258977E8 ; 3.7396262893455475E10 ; 0.0
194 ; 2707475.754700846 ; 2.0354852290246767E8 ; 5.82744048201618E8 ; 3.759979866251036E10 ; 0.0
195 ; 2706438.1138645713 ; 2.0356122300998506E8 ; 5.854515239563189E8 ; 3.780334718541283E10 ; 0.0
196 ; 2699124.3454502956 ; 2.0357386904129595E8 ; 5.881579620701834E8 ; 3.800690840842281E10 ; 0.0
197 ; 2695854.017877855 ; 2.0358646066314116E8 ; 5.908570864156337E8 ; 3.821048227746411E10 ; 0.0
198 ; 2690914.5985261574 ; 2.0359899754510453E8 ; 5.935529404335115E8 ; 3.841406873812725E10 ; 0.0
199 ; 2689599.1685540117 ; 2.0361147935957664E8 ; 5.962438550320376E8 ; 3.8617667735672356E10 ; 0.0
200 ; 2684784.4668654324 ; 1.8920241918406624E8 ; 5.989334542005917E8 ; 3.882127921503193E10 ; 0.0
