CSV File for the City 6 on Day 50
1 - Minute m 
2 - Power Consumed at minute m 
3 - Power Produced at minute m 
4 - Energy Consumed since the beginning of the day 
5 - Energy Produced since the beginning of the day 
6 - Energy Lost since the beginning of the day on lines starting from the city
 
0 ; 1.111591063609223E7 ; 1.0574107255944172E8 ; 0.0 ; 0.0 ; 0.0
1 ; 1.1128646873374712E7 ; 1.0589133963258928E8 ; 1.111591063609223E7 ; 1.0574107255944172E8 ; 0.0
2 ; 1.113788185025912E7 ; 1.0635065021930161E8 ; 2.2244557509466942E7 ; 2.11632412192031E8 ; 0.0
3 ; 1.1154242284585895E7 ; 1.0711901233557403E8 ; 3.3382439359726064E7 ; 3.179830624113326E8 ; 0.0
4 ; 1.1170150931846354E7 ; 1.0819643327035952E8 ; 4.453668164431196E7 ; 4.2510207474690664E8 ; 0.0
5 ; 1.1190193728808658E7 ; 1.0958291951123631E8 ; 5.5706832576158315E7 ; 5.3329850801726615E8 ; 0.0
6 ; 1.1217194295217408E7 ; 1.1127847667574409E8 ; 6.689702630496697E7 ; 6.428814275285025E8 ; 0.0
7 ; 1.12544496186471E7 ; 1.1328310945000613E8 ; 7.811422060018438E7 ; 7.541599042042465E8 ; 0.0
8 ; 1.1307529135528486E7 ; 1.1559682153615254E8 ; 8.936867021883148E7 ; 8.674430136542526E8 ; 0.0
9 ; 1.1386408067461804E7 ; 1.1821961560989279E8 ; 1.0067619935435997E8 ; 9.830398351904051E8 ; 0.0
10 ; 1.151333957062954E7 ; 1.2115149328935951E8 ; 1.1206260742182177E8 ; 1.101259450800298E9 ; 0.0
11 ; 1.1709186950808171E7 ; 1.2439245511606565E8 ; 1.2357594699245131E8 ; 1.2224109440896575E9 ; 0.0
12 ; 1.2021504042855425E7 ; 1.2794250054849824E8 ; 1.3528513394325948E8 ; 1.3468033992057233E9 ; 0.0
13 ; 1.23289094168823E7 ; 1.3180162796852463E8 ; 1.473066379861149E8 ; 1.4747458997542214E9 ; 0.0
14 ; 1.2364172938365238E7 ; 1.3596983470043546E8 ; 1.596355474029972E8 ; 1.6065475277227461E9 ; 0.0
15 ; 1.237900273825719E7 ; 1.404471170421005E8 ; 1.7199972034136245E8 ; 1.7425173624231815E9 ; 0.0
16 ; 1.2393743578581827E7 ; 1.4523347030739656E8 ; 1.8437872307961965E8 ; 1.882964479465282E9 ; 0.0
17 ; 1.2406702068254218E7 ; 1.503288888787839E8 ; 1.967724666582015E8 ; 2.0281979497726786E9 ; 0.0
18 ; 1.2422488784193933E7 ; 1.5573336626868433E8 ; 2.091791687264557E8 ; 2.1785268386514626E9 ; 0.0
19 ; 1.2435655062378777E7 ; 1.6144689518814483E8 ; 2.2160165751064962E8 ; 2.334260204920147E9 ; 0.0
20 ; 1.2450754733995158E7 ; 1.6746946762117007E8 ; 2.340373125730284E8 ; 2.4957071001082916E9 ; 0.0
21 ; 1.2464589968991019E7 ; 1.7380107490307024E8 ; 2.4648806730702356E8 ; 2.6631765677294617E9 ; 0.0
22 ; 1.247888900338929E7 ; 1.8044170780119085E8 ; 2.5895265727601457E8 ; 2.836977642632532E9 ; 0.0
23 ; 1.2492210371304331E7 ; 1.8739135659647238E8 ; 2.7143154627940387E8 ; 3.017419350433723E9 ; 0.0
24 ; 1.25050184952537E7 ; 1.9465001116440344E8 ; 2.839237566507082E8 ; 3.204810707030195E9 ; 0.0
25 ; 1.2517830957166456E7 ; 2.0090570195227537E8 ; 2.964287751459619E8 ; 3.3994607181945987E9 ; 0.0
26 ; 1.2537187435731152E7 ; 2.0091196609216467E8 ; 3.089466061031283E8 ; 3.600366420146874E9 ; 0.0
27 ; 1.2552981714574924E7 ; 2.0091856199803254E8 ; 3.214837935388595E8 ; 3.8012783862390385E9 ; 0.0
28 ; 1.2564030611628808E7 ; 2.009254786800871E8 ; 3.340367752534344E8 ; 4.002196948237071E9 ; 0.0
29 ; 1.2576263062848281E7 ; 2.0093270510048798E8 ; 3.4660080586506325E8 ; 4.203122426917158E9 ; 0.0
30 ; 1.258969608251297E7 ; 2.0094023023032853E8 ; 3.591770689279115E8 ; 4.404055132017646E9 ; 0.0
31 ; 1.2603688275034156E7 ; 2.0094804310095417E8 ; 3.717667650104245E8 ; 4.604995362247974E9 ; 0.0
32 ; 1.2614914129164077E7 ; 2.0095613284957358E8 ; 3.843704532854586E8 ; 4.805943405348928E9 ; 0.0
33 ; 1.2628085150452612E7 ; 2.0096448875923842E8 ; 3.969853674146227E8 ; 5.006899538198502E9 ; 0.0
34 ; 1.2639994978723396E7 ; 2.00973100293367E8 ; 4.0961345256507534E8 ; 5.20786402695774E9 ; 0.0
35 ; 1.2651808351602307E7 ; 2.009819571250643E8 ; 4.2225344754379874E8 ; 5.408837127251107E9 ; 0.0
36 ; 1.2665961092644185E7 ; 2.0099104916154933E8 ; 4.3490525589540106E8 ; 5.609819084376171E9 ; 0.0
37 ; 1.2674114586396335E7 ; 2.010003665640405E8 ; 4.475712169880452E8 ; 5.810810133537721E9 ; 0.0
38 ; 1.2683418784837643E7 ; 2.0100989976347503E8 ; 4.6024533157444155E8 ; 6.011810500101761E9 ; 0.0
39 ; 1.269643592963534E7 ; 2.0101963947244895E8 ; 4.729287503592792E8 ; 6.212820399865236E9 ; 0.0
40 ; 1.2703957892395146E7 ; 2.0102957669376644E8 ; 4.8562518628891456E8 ; 6.413840039337686E9 ; 0.0
41 ; 1.271124261075778E7 ; 2.0103970272597703E8 ; 4.983291441813097E8 ; 6.614869616031452E9 ; 0.0
42 ; 1.2720984830470305E7 ; 2.0105000916626635E8 ; 5.1104038679206747E8 ; 6.815909318757429E9 ; 0.0
43 ; 1.2730678077847961E7 ; 2.0106048791104537E8 ; 5.237613716225378E8 ; 7.016959327923696E9 ; 0.0
44 ; 1.2735540457049944E7 ; 2.0107113115456033E8 ; 5.3649204970038575E8 ; 7.218019815834741E9 ; 0.0
45 ; 1.2742054739646595E7 ; 2.0108193138582066E8 ; 5.492275901574357E8 ; 7.419090946989301E9 ; 0.0
46 ; 1.2750266683858778E7 ; 2.0109288138411605E8 ; 5.619696448970822E8 ; 7.620172878375121E9 ; 0.0
47 ; 1.2752004088555975E7 ; 2.0110397421336776E8 ; 5.74719911580941E8 ; 7.821265759759237E9 ; 0.0
48 ; 1.2760382054163931E7 ; 2.011152032155335E8 ; 5.874719156694969E8 ; 8.022369733972605E9 ; 0.0
49 ; 1.2765983802590707E7 ; 2.0112656200326106E8 ; 6.002322977236608E8 ; 8.223484937188138E9 ; 0.0
50 ; 1.2770759289226722E7 ; 2.0113804445196185E8 ; 6.129982815262516E8 ; 8.424611499191399E9 ; 0.0
51 ; 1.2771280985111073E7 ; 2.0114964469145447E8 ; 6.257690408154783E8 ; 8.62574954364336E9 ; 0.0
52 ; 1.2772564523401357E7 ; 2.011613570973082E8 ; 6.385403218005894E8 ; 8.826899188334814E9 ; 0.0
53 ; 1.2780732664833196E7 ; 2.0117317628199795E8 ; 6.513128863239908E8 ; 9.028060545432123E9 ; 0.0
54 ; 1.2783575416019972E7 ; 2.0118509708596596E8 ; 6.64093618988824E8 ; 9.22923372171412E9 ; 0.0
55 ; 1.2785963591765337E7 ; 2.0119711456867036E8 ; 6.768771944048439E8 ; 9.430418818800087E9 ; 0.0
56 ; 1.2789540406105816E7 ; 2.0120922399968803E8 ; 6.896631579966092E8 ; 9.631615933368757E9 ; 0.0
57 ; 1.2789341255865209E7 ; 2.0122142084992704E8 ; 7.02452698402715E8 ; 9.832825157368444E9 ; 0.0
58 ; 1.2793127944578864E7 ; 2.012337007829942E8 ; 7.152420396585802E8 ; 1.0034046578218372E10 ; 0.0
59 ; 1.2795773810372151E7 ; 2.0124605964675388E8 ; 7.280351676031591E8 ; 1.0235280279001366E10 ; 0.0
60 ; 1.280101739871419E7 ; 2.0125849346510676E8 ; 7.408309414135312E8 ; 1.0436526338648119E10 ; 0.0
61 ; 1.2800428173481802E7 ; 2.0127099843001068E8 ; 7.536319588122454E8 ; 1.0637784832113226E10 ; 0.0
62 ; 1.2799577059711289E7 ; 2.0128357089375928E8 ; 7.664323869857272E8 ; 1.0839055830543236E10 ; 0.0
63 ; 1.2801263639318677E7 ; 2.0129620736153063E8 ; 7.792319640454385E8 ; 1.1040339401436995E10 ; 0.0
64 ; 1.2810273295359535E7 ; 2.0130890448421204E8 ; 7.920332276847572E8 ; 1.1241635608798525E10 ; 0.0
65 ; 1.2807956644307783E7 ; 2.0132165905150568E8 ; 8.048435009801167E8 ; 1.1442944513282738E10 ; 0.0
66 ; 1.2810743024922384E7 ; 2.0133446798531556E8 ; 8.176514576244245E8 ; 1.1644266172334244E10 ; 0.0
67 ; 1.2810371317098793E7 ; 2.0134732833341426E8 ; 8.304622006493468E8 ; 1.184560064031956E10 ; 0.0
68 ; 1.2816353146061879E7 ; 2.0136023726338622E8 ; 8.432725719664456E8 ; 1.2046947968652973E10 ; 0.0
69 ; 1.2815360307175783E7 ; 2.0137319205684265E8 ; 8.560889251125075E8 ; 1.2248308205916359E10 ; 0.0
70 ; 1.281473880686726E7 ; 2.013861901039015E8 ; 8.689042854196832E8 ; 1.2449681397973202E10 ; 0.0
71 ; 1.2817222460456312E7 ; 2.0139922889792576E8 ; 8.817190242265505E8 ; 1.2651067588077103E10 ; 0.0
72 ; 1.2815296698979879E7 ; 2.0141230603051168E8 ; 8.945362466870067E8 ; 1.2852466816975029E10 ; 0.0
73 ; 1.2821593780461783E7 ; 2.0142541918671918E8 ; 9.073515433859866E8 ; 1.305387912300554E10 ; 0.0
74 ; 1.281853933969853E7 ; 2.0143856614053473E8 ; 9.201731371664484E8 ; 1.325530454219226E10 ; 0.0
75 ; 1.282259982223738E7 ; 2.0145174475055867E8 ; 9.329916765061469E8 ; 1.3456743108332796E10 ; 0.0
76 ; 1.2820841624242984E7 ; 2.0146495295590708E8 ; 9.458142763283843E8 ; 1.3658194853083355E10 ; 0.0
77 ; 1.2819427548262453E7 ; 2.0147818877231935E8 ; 9.586351179526273E8 ; 1.3859659806039263E10 ; 0.0
78 ; 1.2816019437040914E7 ; 2.0149145028846264E8 ; 9.714545455008898E8 ; 1.4061137994811583E10 ; 0.0
79 ; 1.281450289162492E7 ; 2.0150473566242382E8 ; 9.842705649379307E8 ; 1.4262629445100044E10 ; 0.0
80 ; 1.2809429957766498E7 ; 2.015180431183804E8 ; 9.970850678295556E8 ; 1.4464134180762468E10 ; 0.0
81 ; 1.2805236118526135E7 ; 2.0153137094344205E8 ; 1.0098944977873222E9 ; 1.4665652223880848E10 ; 0.0
82 ; 1.2803902323557092E7 ; 2.015447174846541E8 ; 1.0226997339058483E9 ; 1.486718359482429E10 ; 0.0
83 ; 1.279898123246897E7 ; 2.0155808114615515E8 ; 1.0355036362294054E9 ; 1.5068728312308943E10 ; 0.0
84 ; 1.2795414401236925E7 ; 2.0157146038648134E8 ; 1.0483026174618744E9 ; 1.5270286393455097E10 ; 0.0
85 ; 1.2789548241504163E7 ; 2.015848537160091E8 ; 1.0610980318631113E9 ; 1.547185785384158E10 ; 0.0
86 ; 1.2787021667794237E7 ; 2.0159825969453037E8 ; 1.0738875801046154E9 ; 1.5673442707557589E10 ; 0.0
87 ; 1.2784455198789658E7 ; 2.016116769289522E8 ; 1.0866746017724097E9 ; 1.587504096725212E10 ; 0.0
88 ; 1.277842682079093E7 ; 2.016251040711152E8 ; 1.0994590569711993E9 ; 1.607665264418107E10 ; 0.0
89 ; 1.2773282196196413E7 ; 2.0163853981572437E8 ; 1.1122374837919903E9 ; 1.6278277748252186E10 ; 0.0
90 ; 1.2765188555041268E7 ; 2.0165198289838582E8 ; 1.1250107659881866E9 ; 1.647991628806791E10 ; 0.0
91 ; 1.276075144545628E7 ; 2.016654320937446E8 ; 1.137775954543228E9 ; 1.6681568270966295E10 ; 0.0
92 ; 1.2756599825236596E7 ; 2.0167888621371764E8 ; 1.1505367059886842E9 ; 1.688323370306004E10 ; 0.0
93 ; 1.274939251047552E7 ; 2.0169234410581696E8 ; 1.1632933058139207E9 ; 1.7084912589273758E10 ; 0.0
94 ; 1.2747374510575086E7 ; 2.017058046515585E8 ; 1.1760426983243964E9 ; 1.7286604933379574E10 ; 0.0
95 ; 1.2739410420892516E7 ; 2.0171926676495135E8 ; 1.1887900728349714E9 ; 1.748831073803113E10 ; 0.0
96 ; 1.2737827092659278E7 ; 2.0173272939106387E8 ; 1.201529483255864E9 ; 1.769003000479608E10 ; 0.0
97 ; 1.2727542840076985E7 ; 2.0174619150466213E8 ; 1.2142673103485231E9 ; 1.7891762734187145E10 ; 0.0
98 ; 1.2721834216083046E7 ; 2.017596521089165E8 ; 1.2269948531886E9 ; 1.8093508925691807E10 ; 0.0
99 ; 1.271400448444034E7 ; 2.0177311023417357E8 ; 1.239716687404683E9 ; 1.8295268577800724E10 ; 0.0
100 ; 1.271081878999809E7 ; 2.01786564936789E8 ; 1.2524306918891234E9 ; 1.8497041688034897E10 ; 0.0
101 ; 1.2705497443700377E7 ; 2.018000152980187E8 ; 1.2651415106791215E9 ; 1.8698828252971687E10 ; 0.0
102 ; 1.2695321377759645E7 ; 2.0181346042296463E8 ; 1.2778470081228218E9 ; 1.8900628268269707E10 ; 0.0
103 ; 1.2693661096281044E7 ; 2.0182689943957296E8 ; 1.2905423295005815E9 ; 1.9102441728692673E10 ; 0.0
104 ; 1.2683283034389364E7 ; 2.0184033149768126E8 ; 1.3032359905968626E9 ; 1.9304268628132244E10 ; 0.0
105 ; 1.2677332330648528E7 ; 2.018537557681122E8 ; 1.3159192736312518E9 ; 1.9506108959629925E10 ; 0.0
106 ; 1.2672456956109222E7 ; 2.018671714418118E8 ; 1.3285966059619002E9 ; 1.9707962715398037E10 ; 0.0
107 ; 1.2664426033356681E7 ; 2.0188057772902885E8 ; 1.3412690629180095E9 ; 1.9909829886839848E10 ; 0.0
108 ; 1.2657225238182519E7 ; 2.018939738585345E8 ; 1.3539334889513662E9 ; 2.011171046456888E10 ; 0.0
109 ; 1.2651392019001024E7 ; 2.0190735907687902E8 ; 1.3665907141895487E9 ; 2.0313604438427414E10 ; 0.0
110 ; 1.2638843312969739E7 ; 2.0192073264768425E8 ; 1.3792421062085497E9 ; 2.051551179750429E10 ; 0.0
111 ; 1.2635338598578585E7 ; 2.0193409385096955E8 ; 1.3918809495215194E9 ; 2.0717432530151978E10 ; 0.0
112 ; 1.2624479927670091E7 ; 2.019474419825099E8 ; 1.404516288120098E9 ; 2.091936662400295E10 ; 0.0
113 ; 1.261924816075755E7 ; 2.0196077635322413E8 ; 1.417140768047768E9 ; 2.112131406598546E10 ; 0.0
114 ; 1.2610689295242937E7 ; 2.019740962885918E8 ; 1.4297600162085257E9 ; 2.1323274842338684E10 ; 0.0
115 ; 1.2602983472920286E7 ; 2.0198740112809741E8 ; 1.4423707055037687E9 ; 2.1525248938627277E10 ; 0.0
116 ; 1.2594905404735664E7 ; 2.020006902247004E8 ; 1.4549736889766889E9 ; 2.1727236339755375E10 ; 0.0
117 ; 1.2587068257593913E7 ; 2.0201396294432953E8 ; 1.4675685943814244E9 ; 2.1929237029980076E10 ; 0.0
118 ; 1.2578256544022119E7 ; 2.0202721866540077E8 ; 1.4801556626390183E9 ; 2.2131250992924404E10 ; 0.0
119 ; 1.2567650470111296E7 ; 2.020404567783569E8 ; 1.4927339191830404E9 ; 2.2333278211589806E10 ; 0.0
120 ; 1.255823259749881E7 ; 2.020536766852285E8 ; 1.5053015696531518E9 ; 2.2535318668368164E10 ; 0.0
121 ; 1.255051915516956E7 ; 2.0206687779921436E8 ; 1.5178598022506506E9 ; 2.2737372345053394E10 ; 0.0
122 ; 1.2543139218605334E7 ; 2.020800595442812E8 ; 1.5304103214058201E9 ; 2.2939439222852608E10 ; 0.0
123 ; 1.2535175593645168E7 ; 2.0209322135478118E8 ; 1.5429534606244254E9 ; 2.314151928239689E10 ; 0.0
124 ; 1.2524149570511095E7 ; 2.021063626750865E8 ; 1.5554886362180705E9 ; 2.334361250375167E10 ; 0.0
125 ; 1.2515625501930278E7 ; 2.021194829592401E8 ; 1.5680127857885816E9 ; 2.3545718866426758E10 ; 0.0
126 ; 1.2509732585201815E7 ; 2.0213258167062217E8 ; 1.5805284112905118E9 ; 2.3747838349385998E10 ; 0.0
127 ; 1.2494551473643746E7 ; 2.0214565828163087E8 ; 1.5930381438757136E9 ; 2.394997093105662E10 ; 0.0
128 ; 1.248682504595591E7 ; 2.021587122733773E8 ; 1.6055326953493574E9 ; 2.4152116589338253E10 ; 0.0
129 ; 1.247675475550224E7 ; 2.0217174313539374E8 ; 1.6180195203953133E9 ; 2.435427530161163E10 ; 0.0
130 ; 1.2468025942976024E7 ; 2.0218475036535433E8 ; 1.6304962751508155E9 ; 2.4556447044747025E10 ; 0.0
131 ; 1.2451575741002416E7 ; 2.0219773346880817E8 ; 1.6429643010937915E9 ; 2.4758631795112377E10 ; 0.0
132 ; 1.2440788308567002E7 ; 2.0221069195892334E8 ; 1.6554158768347938E9 ; 2.4960829528581184E10 ; 0.0
133 ; 1.2421076817472769E7 ; 2.0222362535624248E8 ; 1.6678566651433609E9 ; 2.5163040220540108E10 ; 0.0
134 ; 1.2411367972610699E7 ; 2.0223653318844807E8 ; 1.6802777419608335E9 ; 2.536526384589635E10 ; 0.0
135 ; 1.239699355677242E7 ; 2.0224941499013835E8 ; 1.6926891099334443E9 ; 2.55675003790848E10 ; 0.0
136 ; 1.2378801042944359E7 ; 2.0226227030261204E8 ; 1.7050861034902167E9 ; 2.576974979407494E10 ; 0.0
137 ; 1.236563417762275E7 ; 2.0227509867366242E8 ; 1.7174649045331612E9 ; 2.5972012064377552E10 ; 0.0
138 ; 1.2350886803312978E7 ; 2.0228789965738004E8 ; 1.729830538710784E9 ; 2.6174287163051216E10 ; 0.0
139 ; 1.234199699433412E7 ; 2.023006728139633E8 ; 1.742181425514097E9 ; 2.6376575062708595E10 ; 0.0
140 ; 1.2318712512217723E7 ; 2.0231341770953724E8 ; 1.7545234225084312E9 ; 2.657887573552256E10 ; 0.0
141 ; 1.230673148584094E7 ; 2.0232613391597942E8 ; 1.766842135020649E9 ; 2.6781189153232098E10 ; 0.0
142 ; 1.2297854437221466E7 ; 2.023388210107533E8 ; 1.77914886650649E9 ; 2.698351528714808E10 ; 0.0
143 ; 1.227752548105782E7 ; 2.0235147857674795E8 ; 1.7914467209437115E9 ; 2.7185854108158833E10 ; 0.0
144 ; 1.2263633487049302E7 ; 2.0236410620212477E8 ; 1.8037242464247694E9 ; 2.738820558673558E10 ; 0.0
145 ; 1.2250812674818862E7 ; 2.0237670348016992E8 ; 1.8159878799118187E9 ; 2.7590569692937706E10 ; 0.0
146 ; 1.2240955817564404E7 ; 2.023892700091531E8 ; 1.8282386925866375E9 ; 2.7792946396417877E10 ; 0.0
147 ; 1.2230411390712922E7 ; 2.0240180539219162E8 ; 1.840479648404202E9 ; 2.799533566642703E10 ; 0.0
148 ; 1.2218878344037825E7 ; 2.0241430923712012E8 ; 1.852710059794915E9 ; 2.819773747181922E10 ; 0.0
149 ; 1.2204695675463237E7 ; 2.0242678115636545E8 ; 1.8649289381389527E9 ; 2.8400151781056343E10 ; 0.0
150 ; 1.2195432645508954E7 ; 2.0243922076682633E8 ; 1.877133633814416E9 ; 2.8602578562212708E10 ; 0.0
151 ; 1.2184112640484236E7 ; 2.0245162768975794E8 ; 1.889329066459925E9 ; 2.8805017782979534E10 ; 0.0
152 ; 1.2176820740672998E7 ; 2.024640015506608E8 ; 1.9015131791004093E9 ; 2.9007469410669292E10 ; 0.0
153 ; 1.2162530967335729E7 ; 2.0247634197917432E8 ; 1.9136899998410823E9 ; 2.920993341221995E10 ; 0.0
154 ; 1.2153960750585306E7 ; 2.0248864860897413E8 ; 1.925852530808418E9 ; 2.9412409754199127E10 ; 0.0
155 ; 1.2143648600100268E7 ; 2.0250092107767364E8 ; 1.9380064915590034E9 ; 2.96148984028081E10 ; 0.0
156 ; 1.2131319163907714E7 ; 2.0251315902672926E8 ; 1.9501501401591036E9 ; 2.9817399323885777E10 ; 0.0
157 ; 1.2118573171078729E7 ; 2.025253621013493E8 ; 1.9622814593230114E9 ; 3.0019912482912506E10 ; 0.0
158 ; 1.2107554961197382E7 ; 2.025375299504064E8 ; 1.97440003249409E9 ; 3.0222437845013855E10 ; 0.0
159 ; 1.2097831806774696E7 ; 2.0254966222635323E8 ; 1.9865075874552875E9 ; 3.042497537496426E10 ; 0.0
160 ; 1.2084504077569824E7 ; 2.025617585851414E8 ; 1.998605419262062E9 ; 3.0627525037190613E10 ; 0.0
161 ; 1.2075701545641838E7 ; 2.0257381868614343E8 ; 2.0106899233396318E9 ; 3.0830086795775753E10 ; 0.0
162 ; 1.2062933170297641E7 ; 2.0258584219207785E8 ; 2.0227656248852737E9 ; 3.1032660614461895E10 ; 0.0
163 ; 1.2051505799271187E7 ; 2.0259782876893675E8 ; 2.0348285580555713E9 ; 3.1235246456653973E10 ; 0.0
164 ; 1.2042623082124893E7 ; 2.0260977808591634E8 ; 2.0468800638548424E9 ; 3.143784428542291E10 ; 0.0
165 ; 1.2028759917021107E7 ; 2.0262168981535006E8 ; 2.0589226869369674E9 ; 3.1640454063508823E10 ; 0.0
166 ; 1.2014308908609906E7 ; 2.0263356363264394E8 ; 2.0709514468539884E9 ; 3.1843075753324173E10 ; 0.0
167 ; 1.200485541259718E7 ; 2.0264539921621484E8 ; 2.0829657557625983E9 ; 3.2045709316956818E10 ; 0.0
168 ; 1.1993125861248763E7 ; 2.0265719624743035E8 ; 2.0949706111751955E9 ; 3.224835471617303E10 ; 0.0
169 ; 1.1979149709942129E7 ; 2.026689544105515E8 ; 2.1069637370364442E9 ; 3.245101191242046E10 ; 0.0
170 ; 1.1969930111651193E7 ; 2.0268067339267704E8 ; 2.1189428867463863E9 ; 3.2653680866831013E10 ; 0.0
171 ; 1.1954720301599886E7 ; 2.0269235288369033E8 ; 2.1309128168580375E9 ; 3.285636154022369E10 ; 0.0
172 ; 1.1945933391528383E7 ; 2.027039925762076E8 ; 2.1428675371596375E9 ; 3.305905389310738E10 ; 0.0
173 ; 1.1931606206053168E7 ; 2.0271559216552845E8 ; 2.154813470551166E9 ; 3.3261757885683586E10 ; 0.0
174 ; 1.1926235169643695E7 ; 2.0272715134958813E8 ; 2.1667450767572193E9 ; 3.3464473477849113E10 ; 0.0
175 ; 1.1919141957069522E7 ; 2.027386698289113E8 ; 2.178671311926863E9 ; 3.36672006291987E10 ; 0.0
176 ; 1.1908790891396482E7 ; 2.0275014730656782E8 ; 2.1905904538839326E9 ; 3.386993929902761E10 ; 0.0
177 ; 1.1903651686881853E7 ; 2.027615834881298E8 ; 2.202499244775329E9 ; 3.407268944633418E10 ; 0.0
178 ; 1.1897578926791718E7 ; 2.0277297808163044E8 ; 2.214402896462211E9 ; 3.4275451029822308E10 ; 0.0
179 ; 1.1891265566222472E7 ; 2.0278433079752412E8 ; 2.226300475389003E9 ; 3.447822400790394E10 ; 0.0
180 ; 1.188036717421896E7 ; 2.0279564134864822E8 ; 2.2381917409552255E9 ; 3.468100833870146E10 ; 0.0
181 ; 1.1874140055583252E7 ; 2.0280690945018595E8 ; 2.2500721081294446E9 ; 3.488380398005011E10 ; 0.0
182 ; 1.1866866284507884E7 ; 2.0281813481963077E8 ; 2.261946248185028E9 ; 3.50866108895003E10 ; 0.0
183 ; 1.1861402072015075E7 ; 2.0282931717675197E8 ; 2.273813114469536E9 ; 3.528942902431993E10 ; 0.0
184 ; 1.1852652505388627E7 ; 2.028404562435615E8 ; 2.285674516541551E9 ; 3.549225834149668E10 ; 0.0
185 ; 1.1845095225210467E7 ; 2.0285155174428195E8 ; 2.29752716904694E9 ; 3.569509879774024E10 ; 0.0
186 ; 1.1840789985092316E7 ; 2.0286260340531555E8 ; 2.3093722642721505E9 ; 3.589795034948453E10 ; 0.0
187 ; 1.1830133619439982E7 ; 2.0287361095521462E8 ; 2.3212130542572427E9 ; 3.610081295288985E10 ; 0.0
188 ; 1.182123738953925E7 ; 2.0288457412465268E8 ; 2.3330431878766828E9 ; 3.630368656384506E10 ; 0.0
189 ; 1.1818972558845721E7 ; 2.0289549264639667E8 ; 2.344864425266222E9 ; 3.650657113796971E10 ; 0.0
190 ; 1.1811002096632045E7 ; 2.0290636625528035E8 ; 2.3566833978250675E9 ; 3.670946663061611E10 ; 0.0
191 ; 1.1802139806189138E7 ; 2.0291719468817836E8 ; 2.3684943999216995E9 ; 3.691237299687139E10 ; 0.0
192 ; 1.1797149163177164E7 ; 2.0292797768398136E8 ; 2.3802965397278886E9 ; 3.711529019155957E10 ; 0.0
193 ; 1.1788949655412419E7 ; 2.02938714983572E8 ; 2.3920936888910656E9 ; 3.731821816924355E10 ; 0.0
194 ; 1.1780316050835606E7 ; 2.029494063298017E8 ; 2.403882638546478E9 ; 3.752115688422713E10 ; 0.0
195 ; 1.1775355425847623E7 ; 2.0296005146746826E8 ; 2.4156629545973134E9 ; 3.772410629055693E10 ; 0.0
