CSV File for the City 6 on Day 2
1 - Minute m 
2 - Power Consumed at minute m 
3 - Power Produced at minute m 
4 - Energy Consumed since the beginning of the day 
5 - Energy Produced since the beginning of the day 
6 - Energy Lost since the beginning of the day on lines starting from the city
 
0 ; 8678113.445801575 ; 1.027046879296427E7 ; 0.0 ; 0.0 ; 0.0
1 ; 8686755.440889612 ; 1.027046879296427E7 ; 8678113.445801575 ; 1.027046879296427E7 ; 0.0
2 ; 8699153.162279453 ; 1.027046879296427E7 ; 1.7364868886691187E7 ; 2.054093758592854E7 ; 0.0
3 ; 8708917.24924535 ; 1.027046879296427E7 ; 2.606402204897064E7 ; 3.081140637889281E7 ; 0.0
4 ; 8721431.480245482 ; 1.027046879296427E7 ; 3.4772939298215985E7 ; 4.108187517185708E7 ; 0.0
5 ; 8736672.954705214 ; 1.027046879296427E7 ; 4.349437077846147E7 ; 5.135234396482135E7 ; 0.0
6 ; 8758658.950736936 ; 1.027046879296427E7 ; 5.223104373316669E7 ; 6.1622812757785626E7 ; 0.0
7 ; 8784865.689668847 ; 1.027046879296427E7 ; 6.098970268390362E7 ; 7.18932815507499E7 ; 0.0
8 ; 8830504.837497639 ; 1.027046879296427E7 ; 6.977456837357247E7 ; 8.216375034371416E7 ; 0.0
9 ; 8891260.162192544 ; 1.027046879296427E7 ; 7.86050732110701E7 ; 9.243421913667843E7 ; 0.0
10 ; 8991970.534012849 ; 1.027046879296427E7 ; 8.749633337326264E7 ; 1.0270468792964269E8 ; 0.0
11 ; 9145662.73584 ; 1.027046879296427E7 ; 9.64883039072755E7 ; 1.1297515672260696E8 ; 0.0
12 ; 9393876.930188414 ; 1.027046879296427E7 ; 1.0563396664311549E8 ; 1.2324562551557122E8 ; 0.0
13 ; 9630315.067557435 ; 1.027046879296427E7 ; 1.1502784357330391E8 ; 1.3351609430853549E8 ; 0.0
14 ; 9659200.733284704 ; 1.027046879296427E7 ; 1.2465815864086135E8 ; 1.4378656310149977E8 ; 0.0
15 ; 9670095.355210584 ; 1.027046879296427E7 ; 1.3431735937414604E8 ; 1.5405703189446405E8 ; 0.0
16 ; 9680290.53557894 ; 1.027046879296427E7 ; 1.4398745472935662E8 ; 1.6432750068742833E8 ; 0.0
17 ; 9692492.083668174 ; 1.027046879296427E7 ; 1.5366774526493555E8 ; 1.745979694803926E8 ; 0.0
18 ; 9702414.092162414 ; 1.027046879296427E7 ; 1.6336023734860373E8 ; 1.8486843827335688E8 ; 0.0
19 ; 9711635.668565938 ; 1.027046879296427E7 ; 1.7306265144076613E8 ; 1.9513890706632116E8 ; 0.0
20 ; 9728732.092672898 ; 1.027046879296427E7 ; 1.8277428710933205E8 ; 2.0540937585928544E8 ; 0.0
21 ; 9735362.065329526 ; 1.027046879296427E7 ; 1.9250301920200494E8 ; 2.1567984465224972E8 ; 0.0
22 ; 9747456.546072641 ; 1.027046879296427E7 ; 2.0223838126733446E8 ; 2.25950313445214E8 ; 0.0
23 ; 9761261.30976392 ; 1.027046879296427E7 ; 2.119858378134071E8 ; 2.3622078223817828E8 ; 0.0
24 ; 9771943.537010843 ; 1.027046879296427E7 ; 2.21747099123171E8 ; 2.4649125103114256E8 ; 0.0
25 ; 9783307.872634616 ; 1.027046879296427E7 ; 2.3151904266018185E8 ; 2.5676171982410684E8 ; 0.0
26 ; 9795485.464905981 ; 1.027046879296427E7 ; 2.4130235053281647E8 ; 2.6703218861707112E8 ; 0.0
27 ; 9804434.88568203 ; 1.027046879296427E7 ; 2.5109783599772245E8 ; 2.773026574100354E8 ; 0.0
28 ; 9817132.655967293 ; 1.027046879296427E7 ; 2.6090227088340446E8 ; 2.8757312620299965E8 ; 0.0
29 ; 9828058.670874028 ; 1.027046879296427E7 ; 2.707194035393717E8 ; 2.9784359499596393E8 ; 0.0
30 ; 9838262.352840684 ; 1.027046879296427E7 ; 2.805474622102457E8 ; 3.081140637889282E8 ; 0.0
31 ; 9846740.914813522 ; 1.027046879296427E7 ; 2.903857245630864E8 ; 3.183845325818925E8 ; 0.0
32 ; 9859407.82119954 ; 1.027046879296427E7 ; 3.002324654778999E8 ; 3.2865500137485677E8 ; 0.0
33 ; 9869297.800967397 ; 1.027046879296427E7 ; 3.1009187329909945E8 ; 3.3892547016782105E8 ; 0.0
34 ; 9877240.847433044 ; 1.027046879296427E7 ; 3.1996117110006684E8 ; 3.491959389607853E8 ; 0.0
35 ; 9887768.833829524 ; 1.027046879296427E7 ; 3.298384119474999E8 ; 3.594664077537496E8 ; 0.0
36 ; 9896599.391652845 ; 1.027046879296427E7 ; 3.397261807813294E8 ; 3.697368765467139E8 ; 0.0
37 ; 9904302.168822976 ; 1.027046879296427E7 ; 3.496227801729822E8 ; 3.8000734533967817E8 ; 0.0
38 ; 9913749.708315063 ; 1.027046879296427E7 ; 3.595270823418052E8 ; 3.9027781413264245E8 ; 0.0
39 ; 9922873.344275068 ; 1.027046879296427E7 ; 3.694408320501203E8 ; 4.005482829256067E8 ; 0.0
40 ; 9927524.952144315 ; 1.027046879296427E7 ; 3.7936370539439535E8 ; 4.10818751718571E8 ; 0.0
41 ; 9936082.948373906 ; 1.027046879296427E7 ; 3.892912303465397E8 ; 4.210892205115353E8 ; 0.0
42 ; 9942680.303480513 ; 1.027046879296427E7 ; 3.992273132949136E8 ; 4.3135968930449957E8 ; 0.0
43 ; 9952078.058495732 ; 1.027046879296427E7 ; 4.091699935983941E8 ; 4.4163015809746385E8 ; 0.0
44 ; 9954543.050312549 ; 1.027046879296427E7 ; 4.1912207165688986E8 ; 4.519006268904281E8 ; 0.0
45 ; 9961908.719232228 ; 1.027046879296427E7 ; 4.2907661470720243E8 ; 4.621710956833924E8 ; 0.0
46 ; 9965560.592182845 ; 1.027046879296427E7 ; 4.3903852342643464E8 ; 4.724415644763567E8 ; 0.0
47 ; 9971477.815570759 ; 1.027046879296427E7 ; 4.490040840186175E8 ; 4.8271203326932096E8 ; 0.0
48 ; 9979146.248093877 ; 1.027046879296427E7 ; 4.589755618341883E8 ; 4.9298250206228524E8 ; 0.0
49 ; 9976859.357837573 ; 1.027046879296427E7 ; 4.689547080822822E8 ; 5.032529708552495E8 ; 0.0
50 ; 9983923.909211777 ; 1.027046879296427E7 ; 4.7893156744011974E8 ; 5.135234396482138E8 ; 0.0
51 ; 9989508.30278441 ; 1.027046879296427E7 ; 4.889154913493315E8 ; 5.237939084411781E8 ; 0.0
52 ; 9987890.203022124 ; 1.027046879296427E7 ; 4.989049996521159E8 ; 5.3406437723414236E8 ; 0.0
53 ; 9989703.44188949 ; 1.027046879296427E7 ; 5.08892889855138E8 ; 5.443348460271066E8 ; 0.0
54 ; 9994980.909354197 ; 1.027046879296427E7 ; 5.1888259329702747E8 ; 5.546053148200709E8 ; 0.0
55 ; 9997457.980848357 ; 1.027046879296427E7 ; 5.288775742063817E8 ; 5.648757836130351E8 ; 0.0
56 ; 9999603.705977129 ; 1.027046879296427E7 ; 5.3887503218723E8 ; 5.751462524059993E8 ; 0.0
57 ; 1.000055443214712E7 ; 1.027046879296427E7 ; 5.488746358932071E8 ; 5.854167211989635E8 ; 0.0
58 ; 1.0002975007117815E7 ; 1.027046879296427E7 ; 5.588751903253542E8 ; 5.956871899919277E8 ; 0.0
59 ; 1.0004537302145177E7 ; 1.027046879296427E7 ; 5.688781653324721E8 ; 6.05957658784892E8 ; 0.0
60 ; 1.0010134053941924E7 ; 1.027046879296427E7 ; 5.788827026346172E8 ; 6.162281275778562E8 ; 0.0
61 ; 1.0011716297778383E7 ; 1.027046879296427E7 ; 5.888928366885592E8 ; 6.264985963708204E8 ; 0.0
62 ; 1.0013088218437761E7 ; 1.027046879296427E7 ; 5.989045529863375E8 ; 6.367690651637846E8 ; 0.0
63 ; 1.0015554149204621E7 ; 1.027046879296427E7 ; 6.089176412047753E8 ; 6.470395339567488E8 ; 0.0
64 ; 1.0013474987535728E7 ; 1.027046879296427E7 ; 6.1893319535398E8 ; 6.573100027497131E8 ; 0.0
65 ; 1.0016159313100638E7 ; 1.027046879296427E7 ; 6.289466703415157E8 ; 6.675804715426773E8 ; 0.0
66 ; 1.0021157618610006E7 ; 1.027046879296427E7 ; 6.389628296546164E8 ; 6.778509403356415E8 ; 0.0
67 ; 1.00221271134871E7 ; 1.027046879296427E7 ; 6.489839872732264E8 ; 6.881214091286057E8 ; 0.0
68 ; 1.0020295525701156E7 ; 1.027046879296427E7 ; 6.590061143867135E8 ; 6.9839187792157E8 ; 0.0
69 ; 1.0023918256606314E7 ; 1.027046879296427E7 ; 6.690264099124147E8 ; 7.086623467145342E8 ; 0.0
70 ; 1.0025408687415594E7 ; 1.027046879296427E7 ; 6.79050328169021E8 ; 7.189328155074984E8 ; 0.0
71 ; 1.0024249889524413E7 ; 1.027046879296427E7 ; 6.890757368564366E8 ; 7.292032843004626E8 ; 0.0
72 ; 1.0025784365006229E7 ; 1.027046879296427E7 ; 6.990999867459611E8 ; 7.394737530934268E8 ; 0.0
73 ; 1.0028589857161846E7 ; 1.027046879296427E7 ; 7.091257711109673E8 ; 7.49744221886391E8 ; 0.0
74 ; 1.0028073784140592E7 ; 1.027046879296427E7 ; 7.191543609681292E8 ; 7.600146906793553E8 ; 0.0
75 ; 1.0030176262913238E7 ; 1.027046879296427E7 ; 7.291824347522697E8 ; 7.702851594723195E8 ; 0.0
76 ; 1.0031647487476395E7 ; 1.027046879296427E7 ; 7.39212611015183E8 ; 7.805556282652837E8 ; 0.0
77 ; 1.0031811739618503E7 ; 1.027046879296427E7 ; 7.492442585026593E8 ; 7.908260970582479E8 ; 0.0
78 ; 1.0027440763418652E7 ; 1.027046879296427E7 ; 7.592760702422779E8 ; 8.010965658512121E8 ; 0.0
79 ; 1.0026577949363124E7 ; 1.027046879296427E7 ; 7.693035110056965E8 ; 8.113670346441764E8 ; 0.0
80 ; 1.0022952945284648E7 ; 1.027046879296427E7 ; 7.793300889550596E8 ; 8.216375034371406E8 ; 0.0
81 ; 1.0017748819548959E7 ; 1.027046879296427E7 ; 7.893530419003443E8 ; 8.319079722301048E8 ; 0.0
82 ; 1.0017034343271801E7 ; 1.027046879296427E7 ; 7.993707907198932E8 ; 8.42178441023069E8 ; 0.0
83 ; 1.0013227540500334E7 ; 1.027046879296427E7 ; 8.093878250631651E8 ; 8.524489098160332E8 ; 0.0
84 ; 1.0008895880096953E7 ; 1.027046879296427E7 ; 8.194010526036654E8 ; 8.627193786089975E8 ; 0.0
85 ; 1.000382120295725E7 ; 1.027046879296427E7 ; 8.294099484837623E8 ; 8.729898474019617E8 ; 0.0
86 ; 1.0002058405360332E7 ; 1.027046879296427E7 ; 8.394137696867195E8 ; 8.832603161949259E8 ; 0.0
87 ; 1.0001424781334888E7 ; 1.027046879296427E7 ; 8.494158280920799E8 ; 8.935307849878901E8 ; 0.0
88 ; 9996864.636427082 ; 1.027046879296427E7 ; 8.594172528734148E8 ; 9.038012537808543E8 ; 0.0
89 ; 9990712.226259694 ; 1.027046879296427E7 ; 8.694141175098418E8 ; 9.140717225738186E8 ; 0.0
90 ; 9988635.198488299 ; 1.027046879296427E7 ; 8.794048297361015E8 ; 9.243421913667828E8 ; 0.0
91 ; 9985879.34200071 ; 1.027046879296427E7 ; 8.893934649345899E8 ; 9.34612660159747E8 ; 0.0
92 ; 9980220.353647718 ; 1.027046879296427E7 ; 8.993793442765906E8 ; 9.448831289527112E8 ; 0.0
93 ; 9976895.318898682 ; 1.027046879296427E7 ; 9.093595646302383E8 ; 9.551535977456754E8 ; 0.0
94 ; 9973069.42239199 ; 1.027046879296427E7 ; 9.19336459949137E8 ; 9.654240665386397E8 ; 0.0
95 ; 9967683.152502581 ; 1.027046879296427E7 ; 9.29309529371529E8 ; 9.756945353316039E8 ; 0.0
96 ; 9968684.66346972 ; 1.027046879296427E7 ; 9.392772125240315E8 ; 9.859650041245681E8 ; 0.0
97 ; 9959948.886770343 ; 1.027046879296427E7 ; 9.492458971875012E8 ; 9.962354729175323E8 ; 0.0
98 ; 9956112.397688372 ; 1.027046879296427E7 ; 9.592058460742716E8 ; 1.0065059417104965E9 ; 0.0
99 ; 9950606.245502796 ; 1.027046879296427E7 ; 9.6916195847196E8 ; 1.0167764105034608E9 ; 0.0
100 ; 9947894.081094202 ; 1.027046879296427E7 ; 9.791125647174628E8 ; 1.027046879296425E9 ; 0.0
101 ; 9941633.397666303 ; 1.027046879296427E7 ; 9.890604587985569E8 ; 1.0373173480893892E9 ; 0.0
102 ; 9936537.97184811 ; 1.027046879296427E7 ; 9.990020921962233E8 ; 1.0475878168823534E9 ; 0.0
103 ; 9932436.893018862 ; 1.027046879296427E7 ; 1.0089386301680714E9 ; 1.0578582856753176E9 ; 0.0
104 ; 9925473.355290607 ; 1.027046879296427E7 ; 1.0188710670610902E9 ; 1.0681287544682819E9 ; 0.0
105 ; 9923215.305997021 ; 1.027046879296427E7 ; 1.0287965404163809E9 ; 1.0783992232612462E9 ; 0.0
106 ; 9918807.331953192 ; 1.027046879296427E7 ; 1.0387197557223779E9 ; 1.0886696920542104E9 ; 0.0
107 ; 9913273.354849374 ; 1.027046879296427E7 ; 1.0486385630543311E9 ; 1.0989401608471746E9 ; 0.0
108 ; 9905794.018260226 ; 1.027046879296427E7 ; 1.0585518364091804E9 ; 1.1092106296401389E9 ; 0.0
109 ; 9900278.80249577 ; 1.027046879296427E7 ; 1.0684576304274406E9 ; 1.119481098433103E9 ; 0.0
110 ; 9892851.209318051 ; 1.027046879296427E7 ; 1.0783579092299364E9 ; 1.1297515672260673E9 ; 0.0
111 ; 9887573.761336654 ; 1.027046879296427E7 ; 1.0882507604392545E9 ; 1.1400220360190315E9 ; 0.0
112 ; 9880372.916129556 ; 1.027046879296427E7 ; 1.098138334200591E9 ; 1.1502925048119957E9 ; 0.0
113 ; 9875224.194060124 ; 1.027046879296427E7 ; 1.1080187071167207E9 ; 1.16056297360496E9 ; 0.0
114 ; 9870290.486875862 ; 1.027046879296427E7 ; 1.1178939313107808E9 ; 1.1708334423979242E9 ; 0.0
115 ; 9863232.834325539 ; 1.027046879296427E7 ; 1.1277642217976565E9 ; 1.1811039111908884E9 ; 0.0
116 ; 9859114.76883164 ; 1.027046879296427E7 ; 1.137627454631982E9 ; 1.1913743799838526E9 ; 0.0
117 ; 9854073.008264815 ; 1.027046879296427E7 ; 1.1474865694008138E9 ; 1.2016448487768168E9 ; 0.0
118 ; 9845845.9741233 ; 1.027046879296427E7 ; 1.1573406424090786E9 ; 1.211915317569781E9 ; 0.0
119 ; 9838645.29885939 ; 1.027046879296427E7 ; 1.1671864883832018E9 ; 1.2221857863627453E9 ; 0.0
120 ; 9831121.791548334 ; 1.027046879296427E7 ; 1.1770251336820612E9 ; 1.2324562551557095E9 ; 0.0
121 ; 9825923.672120586 ; 1.027046879296427E7 ; 1.1868562554736094E9 ; 1.2427267239486737E9 ; 0.0
122 ; 9821609.078591501 ; 1.027046879296427E7 ; 1.19668217914573E9 ; 1.252997192741638E9 ; 0.0
123 ; 9811670.951232081 ; 1.027046879296427E7 ; 1.2065037882243216E9 ; 1.2632676615346022E9 ; 0.0
124 ; 9804413.110199226 ; 1.027046879296427E7 ; 1.2163154591755538E9 ; 1.2735381303275664E9 ; 0.0
125 ; 9796241.84255955 ; 1.027046879296427E7 ; 1.226119872285753E9 ; 1.2838085991205306E9 ; 0.0
126 ; 9790336.289485088 ; 1.027046879296427E7 ; 1.2359161141283126E9 ; 1.2940790679134948E9 ; 0.0
127 ; 9783034.4362202 ; 1.027046879296427E7 ; 1.2457064504177976E9 ; 1.304349536706459E9 ; 0.0
128 ; 9776101.126610769 ; 1.027046879296427E7 ; 1.2554894848540177E9 ; 1.3146200054994233E9 ; 0.0
129 ; 9769674.157409787 ; 1.027046879296427E7 ; 1.2652655859806285E9 ; 1.3248904742923875E9 ; 0.0
130 ; 9758081.084372383 ; 1.027046879296427E7 ; 1.2750352601380382E9 ; 1.3351609430853517E9 ; 0.0
131 ; 9747442.696616 ; 1.027046879296427E7 ; 1.2847933412224104E9 ; 1.345431411878316E9 ; 0.0
132 ; 9739663.555058222 ; 1.027046879296427E7 ; 1.2945407839190264E9 ; 1.3557018806712801E9 ; 0.0
133 ; 9728635.342890963 ; 1.027046879296427E7 ; 1.3042804474740846E9 ; 1.3659723494642444E9 ; 0.0
134 ; 9716122.77281032 ; 1.027046879296427E7 ; 1.3140090828169756E9 ; 1.3762428182572086E9 ; 0.0
135 ; 9706620.366369966 ; 1.027046879296427E7 ; 1.3237252055897858E9 ; 1.3865132870501728E9 ; 0.0
136 ; 9692946.997934498 ; 1.027046879296427E7 ; 1.3334318259561558E9 ; 1.396783755843137E9 ; 0.0
137 ; 9685910.525014289 ; 1.027046879296427E7 ; 1.3431247729540904E9 ; 1.4070542246361012E9 ; 0.0
138 ; 9671593.925355827 ; 1.027046879296427E7 ; 1.3528106834791048E9 ; 1.4173246934290655E9 ; 0.0
139 ; 9662419.6551736 ; 1.027046879296427E7 ; 1.3624822774044607E9 ; 1.4275951622220297E9 ; 0.0
140 ; 9652087.789268823 ; 1.027046879296427E7 ; 1.3721446970596342E9 ; 1.437865631014994E9 ; 0.0
141 ; 9640390.986805622 ; 1.027046879296427E7 ; 1.381796784848903E9 ; 1.4481360998079581E9 ; 0.0
142 ; 9627377.380261293 ; 1.027046879296427E7 ; 1.3914371758357086E9 ; 1.4584065686009223E9 ; 0.0
143 ; 9618470.518904127 ; 1.027046879296427E7 ; 1.4010645532159698E9 ; 1.4686770373938866E9 ; 0.0
144 ; 9606145.41862324 ; 1.027046879296427E7 ; 1.410683023734874E9 ; 1.4789475061868508E9 ; 0.0
145 ; 9594681.672670435 ; 1.027046879296427E7 ; 1.4202891691534972E9 ; 1.489217974979815E9 ; 0.0
146 ; 9590285.904241528 ; 1.027046879296427E7 ; 1.4298838508261676E9 ; 1.4994884437727792E9 ; 0.0
147 ; 9583122.039985688 ; 1.027046879296427E7 ; 1.4394741367304091E9 ; 1.5097589125657434E9 ; 0.0
148 ; 9574061.55332771 ; 1.027046879296427E7 ; 1.4490572587703948E9 ; 1.5200293813587077E9 ; 0.0
149 ; 9565703.359395001 ; 1.027046879296427E7 ; 1.4586313203237226E9 ; 1.530299850151672E9 ; 0.0
150 ; 9554968.891367855 ; 1.027046879296427E7 ; 1.4681970236831176E9 ; 1.540570318944636E9 ; 0.0
151 ; 9549126.228690159 ; 1.027046879296427E7 ; 1.4777519925744855E9 ; 1.5508407877376003E9 ; 0.0
152 ; 9540653.73506772 ; 1.027046879296427E7 ; 1.4873011188031757E9 ; 1.5611112565305645E9 ; 0.0
153 ; 9533770.487005832 ; 1.027046879296427E7 ; 1.4968417725382433E9 ; 1.5713817253235288E9 ; 0.0
154 ; 9526378.962742021 ; 1.027046879296427E7 ; 1.5063755430252492E9 ; 1.581652194116493E9 ; 0.0
155 ; 9516950.226613324 ; 1.027046879296427E7 ; 1.5159019219879913E9 ; 1.5919226629094572E9 ; 0.0
156 ; 9509521.26692094 ; 1.027046879296427E7 ; 1.5254188722146046E9 ; 1.6021931317024214E9 ; 0.0
157 ; 9501179.714421783 ; 1.027046879296427E7 ; 1.5349283934815257E9 ; 1.6124636004953856E9 ; 0.0
158 ; 9489071.937844379 ; 1.027046879296427E7 ; 1.5444295731959474E9 ; 1.6227340692883499E9 ; 0.0
159 ; 9481441.446106112 ; 1.027046879296427E7 ; 1.5539186451337917E9 ; 1.633004538081314E9 ; 0.0
160 ; 9473546.5031116 ; 1.027046879296427E7 ; 1.5634000865798979E9 ; 1.6432750068742783E9 ; 0.0
161 ; 9466389.703730661 ; 1.027046879296427E7 ; 1.5728736330830095E9 ; 1.6535454756672425E9 ; 0.0
162 ; 9458092.801550884 ; 1.027046879296427E7 ; 1.58234002278674E9 ; 1.6638159444602067E9 ; 0.0
163 ; 9447567.509271985 ; 1.027046879296427E7 ; 1.591798115588291E9 ; 1.674086413253171E9 ; 0.0
164 ; 9441854.938880108 ; 1.027046879296427E7 ; 1.601245683097563E9 ; 1.6843568820461352E9 ; 0.0
165 ; 9434767.933132932 ; 1.027046879296427E7 ; 1.6106875380364432E9 ; 1.6946273508390994E9 ; 0.0
166 ; 9421851.183747813 ; 1.027046879296427E7 ; 1.6201223059695761E9 ; 1.7048978196320636E9 ; 0.0
167 ; 9417511.336311158 ; 1.027046879296427E7 ; 1.629544157153324E9 ; 1.7151682884250278E9 ; 0.0
168 ; 9403534.068034371 ; 1.027046879296427E7 ; 1.638961668489635E9 ; 1.725438757217992E9 ; 0.0
169 ; 9396507.949132426 ; 1.027046879296427E7 ; 1.6483652025576694E9 ; 1.7357092260109563E9 ; 0.0
170 ; 9388339.608614087 ; 1.027046879296427E7 ; 1.6577617105068018E9 ; 1.7459796948039205E9 ; 0.0
171 ; 9377849.187923564 ; 1.027046879296427E7 ; 1.667150050115416E9 ; 1.7562501635968847E9 ; 0.0
172 ; 9371599.232028939 ; 1.027046879296427E7 ; 1.6765278993033397E9 ; 1.766520632389849E9 ; 0.0
173 ; 9363251.312534695 ; 1.027046879296427E7 ; 1.6858994985353687E9 ; 1.7767911011828132E9 ; 0.0
174 ; 9352937.566779401 ; 1.027046879296427E7 ; 1.6952627498479035E9 ; 1.7870615699757774E9 ; 0.0
175 ; 9351247.360273078 ; 1.027046879296427E7 ; 1.7046156874146829E9 ; 1.7973320387687416E9 ; 0.0
176 ; 9344285.331280712 ; 1.027046879296427E7 ; 1.713966934774956E9 ; 1.8076025075617058E9 ; 0.0
177 ; 9337520.995651625 ; 1.027046879296427E7 ; 1.7233112201062367E9 ; 1.81787297635467E9 ; 0.0
178 ; 9333887.422749752 ; 1.027046879296427E7 ; 1.7326487411018884E9 ; 1.8281434451476343E9 ; 0.0
179 ; 9331214.449935677 ; 1.027046879296427E7 ; 1.7419826285246382E9 ; 1.8384139139405985E9 ; 0.0
180 ; 9321915.029085714 ; 1.027046879296427E7 ; 1.7513138429745739E9 ; 1.8486843827335627E9 ; 0.0
181 ; 9317527.50606552 ; 1.027046879296427E7 ; 1.7606357580036595E9 ; 1.858954851526527E9 ; 0.0
182 ; 9311995.223433133 ; 1.027046879296427E7 ; 1.769953285509725E9 ; 1.8692253203194911E9 ; 0.0
183 ; 9309864.058501374 ; 1.027046879296427E7 ; 1.779265280733158E9 ; 1.8794957891124554E9 ; 0.0
184 ; 9301372.820169922 ; 1.027046879296427E7 ; 1.7885751447916596E9 ; 1.8897662579054196E9 ; 0.0
185 ; 9295284.06635731 ; 1.027046879296427E7 ; 1.7978765176118295E9 ; 1.9000367266983838E9 ; 0.0
186 ; 9291755.756427165 ; 1.027046879296427E7 ; 1.807171801678187E9 ; 1.910307195491348E9 ; 0.0
187 ; 9287219.530124635 ; 1.027046879296427E7 ; 1.816463557434614E9 ; 1.9205776642843122E9 ; 0.0
188 ; 9279249.195227832 ; 1.027046879296427E7 ; 1.8257507769647386E9 ; 1.9308481330772765E9 ; 0.0
189 ; 9274832.943792103 ; 1.027046879296427E7 ; 1.8350300261599665E9 ; 1.9411186018702407E9 ; 0.0
190 ; 9273201.77334258 ; 1.027046879296427E7 ; 1.8443048591037586E9 ; 1.951389070663205E9 ; 0.0
191 ; 9262923.358954983 ; 1.027046879296427E7 ; 1.8535780608771012E9 ; 1.9616595394561691E9 ; 0.0
192 ; 9260873.822952157 ; 1.027046879296427E7 ; 1.862840984236056E9 ; 1.9719300082491333E9 ; 0.0
193 ; 9252090.182012457 ; 1.027046879296427E7 ; 1.8721018580590084E9 ; 1.9822004770420976E9 ; 0.0
194 ; 9247218.146006495 ; 1.027046879296427E7 ; 1.881353948241021E9 ; 1.9924709458350618E9 ; 0.0
195 ; 9243550.9320727 ; 1.027046879296427E7 ; 1.8906011663870275E9 ; 2.002741414628026E9 ; 0.0
196 ; 9236952.88474335 ; 1.027046879296427E7 ; 1.8998447173191001E9 ; 2.0130118834209902E9 ; 0.0
197 ; 9232967.306342063 ; 1.027046879296427E7 ; 1.9090816702038436E9 ; 2.0232823522139544E9 ; 0.0
198 ; 9226618.605593134 ; 1.027046879296427E7 ; 1.9183146375101857E9 ; 2.0335528210069187E9 ; 0.0
199 ; 9224000.82506418 ; 1.027046879296427E7 ; 1.927541256115779E9 ; 2.043823289799883E9 ; 0.0
200 ; 9215648.488092441 ; 1.027046879296427E7 ; 1.936765256940843E9 ; 2.054093758592847E9 ; 0.0
201 ; 9209012.423596684 ; 1.027046879296427E7 ; 1.9459809054289355E9 ; 2.0643642273858113E9 ; 0.0
202 ; 9202129.09099026 ; 1.027046879296427E7 ; 1.9551899178525321E9 ; 2.0746346961787755E9 ; 0.0
203 ; 9201282.378846867 ; 1.027046879296427E7 ; 1.9643920469435225E9 ; 2.0849051649717398E9 ; 0.0
