CSV File for the City 4 on Day 114
1 - Minute m 
2 - Power Consumed at minute m 
3 - Power Produced at minute m 
4 - Energy Consumed since the beginning of the day 
5 - Energy Produced since the beginning of the day 
6 - Energy Lost since the beginning of the day on lines starting from the city
 
0 ; 6887398.372681244 ; 1.0625697461267856E8 ; 0.0 ; 0.0 ; 0.0
1 ; 6894550.842158438 ; 1.0640754465837526E8 ; 6887398.372681244 ; 1.0625697461267856E8 ; 0.0
2 ; 6902813.234056723 ; 1.0686713978837004E8 ; 1.3781949214839682E7 ; 2.1266451927105382E8 ; 0.0
3 ; 6910749.015962049 ; 1.0763576382599676E8 ; 2.0684762448896404E7 ; 3.1953165905942386E8 ; 0.0
4 ; 6919195.636152465 ; 1.0871342019432545E8 ; 2.7595511464858454E7 ; 4.271674228854206E8 ; 0.0
5 ; 6934487.304882444 ; 1.1010011189832199E8 ; 3.451470710101092E7 ; 5.3588084307974607E8 ; 0.0
6 ; 6948459.499380456 ; 1.1179584150890562E8 ; 4.144919440589336E7 ; 6.459809549780681E8 ; 0.0
7 ; 6971776.1359084835 ; 1.1380061114910018E8 ; 4.839765390527382E7 ; 7.577767964869738E8 ; 0.0
8 ; 7005429.40177825 ; 1.1611442248245198E8 ; 5.53694300411823E7 ; 8.71577407636074E8 ; 0.0
9 ; 7056120.531663985 ; 1.1873727670386177E8 ; 6.237485944296055E7 ; 9.87691830118526E8 ; 0.0
10 ; 7138248.127249348 ; 1.2166917453294891E8 ; 6.943097997462454E7 ; 1.1064291068223877E9 ; 0.0
11 ; 7257920.855250433 ; 1.2491011621003464E8 ; 7.656922810187389E7 ; 1.2280982813553367E9 ; 0.0
12 ; 7458035.967936071 ; 1.2846010149479768E8 ; 8.382714895712432E7 ; 1.3530083975653713E9 ; 0.0
13 ; 7652266.500582476 ; 1.3231912966761869E8 ; 9.128518492506039E7 ; 1.481468499060169E9 ; 0.0
14 ; 7671699.924560802 ; 1.36487199533597E8 ; 9.893745142564286E7 ; 1.6137876287277877E9 ; 0.0
15 ; 7678386.060092042 ; 1.4096430942918617E8 ; 1.0660915135020366E8 ; 1.7502748282613847E9 ; 0.0
16 ; 7692346.272678261 ; 1.457504572313625E8 ; 1.1428753741029571E8 ; 1.8912391376905708E9 ; 0.0
17 ; 7700654.946552117 ; 1.5084564036920664E8 ; 1.2197988368297397E8 ; 2.0369895949219334E9 ; 0.0
18 ; 7708014.389847182 ; 1.5624985583775276E8 ; 1.2968053862952608E8 ; 2.18783523529114E9 ; 0.0
19 ; 7717317.192575778 ; 1.6196310021393076E8 ; 1.3738855301937327E8 ; 2.344085091128893E9 ; 0.0
20 ; 7725800.554567731 ; 1.6798536967440692E8 ; 1.4510587021194905E8 ; 2.5060481913428235E9 ; 0.0
21 ; 7738339.006808957 ; 1.7431666001511E8 ; 1.5283167076651677E8 ; 2.6740335610172305E9 ; 0.0
22 ; 7745844.267336152 ; 1.809569666722178E8 ; 1.6057000977332574E8 ; 2.8483502210323405E9 ; 0.0
23 ; 7756192.240279083 ; 1.8790628474436772E8 ; 1.683158540406619E8 ; 3.0293071877045584E9 ; 0.0
24 ; 7764257.9517347235 ; 1.9516460901585352E8 ; 1.7607204628094098E8 ; 3.217213472448926E9 ; 0.0
25 ; 7775371.383498128 ; 2.0141997487875247E8 ; 1.838363042326757E8 ; 3.4123780814647794E9 ; 0.0
26 ; 7781040.166957697 ; 2.0142592439427537E8 ; 1.9161167561617383E8 ; 3.6137980563435316E9 ; 0.0
27 ; 7793670.461237643 ; 2.014322208424084E8 ; 1.9939271578313154E8 ; 3.815223980737807E9 ; 0.0
28 ; 7801007.64855277 ; 2.014388579934905E8 ; 2.0718638624436918E8 ; 4.016656201580215E9 ; 0.0
29 ; 7809486.981655944 ; 2.0144582942612728E8 ; 2.1498739389292195E8 ; 4.2180950595737057E9 ; 0.0
30 ; 7818534.13692032 ; 2.0145312855153528E8 ; 2.227968808745779E8 ; 4.419540888999833E9 ; 0.0
31 ; 7826219.906667844 ; 2.014607486373914E8 ; 2.3061541501149824E8 ; 4.620994017551369E9 ; 0.0
32 ; 7838946.185571301 ; 2.0146868283103627E8 ; 2.384416349181661E8 ; 4.82245476618876E9 ; 0.0
33 ; 7843880.326318391 ; 2.0147692418189815E8 ; 2.462805811037374E8 ; 5.023923449019796E9 ; 0.0
34 ; 7850586.725567945 ; 2.0148546566302478E8 ; 2.541244614300558E8 ; 5.2254003732016945E9 ; 0.0
35 ; 7859206.176952433 ; 2.0149430019162902E8 ; 2.6197504815562373E8 ; 5.426885838864719E9 ; 0.0
36 ; 7868366.398872156 ; 2.0150342064857322E8 ; 2.6983425433257616E8 ; 5.628380139056349E9 ; 0.0
37 ; 7873194.471476085 ; 2.015128198967349E8 ; 2.777026207314483E8 ; 5.829883559704922E9 ; 0.0
38 ; 7885011.3283756925 ; 2.0152249079821378E8 ; 2.855758152029244E8 ; 6.031396379601657E9 ; 0.0
39 ; 7890433.1405992815 ; 2.01532426230355E8 ; 2.9346082653130007E8 ; 6.232918870399871E9 ; 0.0
40 ; 7893383.353411295 ; 2.015426191005782E8 ; 3.013512596718994E8 ; 6.434451296630226E9 ; 0.0
41 ; 7900843.247830198 ; 2.015530623600147E8 ; 3.092446430253107E8 ; 6.635993915730804E9 ; 0.0
42 ; 7908453.612224147 ; 2.0156374901596665E8 ; 3.171454862731409E8 ; 6.837546978090819E9 ; 0.0
43 ; 7912822.070632531 ; 2.0157467214321083E8 ; 3.2505393988536507E8 ; 7.039110727106786E9 ; 0.0
44 ; 7919222.967411676 ; 2.0158582489417973E8 ; 3.329667619559976E8 ; 7.240685399249996E9 ; 0.0
45 ; 7923270.867640635 ; 2.0159720050805804E8 ; 3.408859849234093E8 ; 7.442271224144176E9 ; 0.0
46 ; 7928426.936854673 ; 2.0160879231883886E8 ; 3.488092557910499E8 ; 7.643868424652233E9 ; 0.0
47 ; 7931135.09950392 ; 2.0162059376238853E8 ; 3.5673768272790456E8 ; 7.845477216971072E9 ; 0.0
48 ; 7936129.791778734 ; 2.0163259838257182E8 ; 3.646688178274085E8 ; 8.04709781073346E9 ; 0.0
49 ; 7938816.988667787 ; 2.0164479983649182E8 ; 3.7260494761918724E8 ; 8.248730409116033E9 ; 0.0
50 ; 7945519.089764694 ; 2.0165719189889994E8 ; 3.80543764607855E8 ; 8.450375208952524E9 ; 0.0
51 ; 7947290.727243015 ; 2.0166976846583188E8 ; 3.8848928369761974E8 ; 8.652032400851423E9 ; 0.0
52 ; 7949459.355313746 ; 2.016825235575258E8 ; 3.9643657442486274E8 ; 8.853702169317255E9 ; 0.0
53 ; 7952216.384334933 ; 2.016954513206777E8 ; 4.0438603378017646E8 ; 9.05538469287478E9 ; 0.0
54 ; 7954210.944382711 ; 2.017085460300875E8 ; 4.123382501645114E8 ; 9.257080144195457E9 ; 0.0
55 ; 7958829.8314304 ; 2.017218020897488E8 ; 4.202924611088941E8 ; 9.458788690225546E9 ; 0.0
56 ; 7959614.278898522 ; 2.0173521403343207E8 ; 4.282512909403245E8 ; 9.660510492315294E9 ; 0.0
57 ; 7961445.383630636 ; 2.0174877652480963E8 ; 4.36210905219223E8 ; 9.862245706348726E9 ; 0.0
58 ; 7966019.503901473 ; 2.0176248435716814E8 ; 4.4417235060285366E8 ; 1.0063994482873535E10 ; 0.0
59 ; 7968090.900394355 ; 2.017763324527518E8 ; 4.5213837010675514E8 ; 1.0265756967230703E10 ; 0.0
60 ; 7971707.4773107255 ; 2.0179031586177692E8 ; 4.601064610071495E8 ; 1.0467533299683455E10 ; 0.0
61 ; 7973934.807510858 ; 2.0180442976115623E8 ; 4.6807816848446023E8 ; 1.066932361554523E10 ; 0.0
62 ; 7976148.535195245 ; 2.018186694529678E8 ; 4.760521032919711E8 ; 1.0871128045306387E10 ; 0.0
63 ; 7976139.876333164 ; 2.0183303036270213E8 ; 4.840282518271663E8 ; 1.1072946714759356E10 ; 0.0
64 ; 7981578.2904009335 ; 2.0184750803731757E8 ; 4.920043917034995E8 ; 1.1274779745122057E10 ; 0.0
65 ; 7979499.964165077 ; 2.0186209814313188E8 ; 4.999859699939004E8 ; 1.1476627253159374E10 ; 0.0
66 ; 7983644.344412506 ; 2.0187679646357593E8 ; 5.079654699580655E8 ; 1.1678489351302505E10 ; 0.0
67 ; 7987532.859147716 ; 2.018915988968328E8 ; 5.15949114302478E8 ; 1.188036614776608E10 ; 0.0
68 ; 7986433.552935101 ; 2.0190650145338374E8 ; 5.2393664716162574E8 ; 1.2082257746662914E10 ; 0.0
69 ; 7986365.281359287 ; 2.0192150025348005E8 ; 5.3192308071456087E8 ; 1.2284164248116299E10 ; 0.0
70 ; 7992760.174169031 ; 2.0193659152455866E8 ; 5.399094459959202E8 ; 1.248608574836978E10 ; 0.0
71 ; 7992108.000289183 ; 2.0195177159861705E8 ; 5.479022061700892E8 ; 1.2688022339894339E10 ; 0.0
72 ; 7996237.120121309 ; 2.0196703690956128E8 ; 5.558943141703784E8 ; 1.2889974111492956E10 ; 0.0
73 ; 7997137.4750857605 ; 2.0198238399054018E8 ; 5.638905512904998E8 ; 1.3091941148402517E10 ; 0.0
74 ; 7999929.408080278 ; 2.019978094712764E8 ; 5.718876887655855E8 ; 1.3293923532393057E10 ; 0.0
75 ; 7997338.42892676 ; 2.0201331007540435E8 ; 5.798876181736658E8 ; 1.3495921341864334E10 ; 0.0
76 ; 8000945.056986885 ; 2.020288826178238E8 ; 5.878849566025925E8 ; 1.369793465193974E10 ; 0.0
77 ; 8001897.875401814 ; 2.0204452400207645E8 ; 5.958859016595794E8 ; 1.3899963534557564E10 ; 0.0
78 ; 8001092.866058205 ; 2.0206023121775225E8 ; 6.038877995349813E8 ; 1.410200805855964E10 ; 0.0
79 ; 7999483.342882855 ; 2.0207600133793107E8 ; 6.118888924010395E8 ; 1.4304068289777393E10 ; 0.0
80 ; 7997958.039172529 ; 2.0209183151666453E8 ; 6.198883757439224E8 ; 1.4506144291115324E10 ; 0.0
81 ; 7993090.933648089 ; 2.021077189865021E8 ; 6.278863337830949E8 ; 1.4708236122631989E10 ; 0.0
82 ; 7996109.2527439 ; 2.0212366105606502E8 ; 6.35879424716743E8 ; 1.491034384161849E10 ; 0.0
83 ; 7997771.430810263 ; 2.0213965510767046E8 ; 6.43875533969487E8 ; 1.5112467502674555E10 ; 0.0
84 ; 7994623.794880395 ; 2.0215569859500888E8 ; 6.518733054002972E8 ; 1.5314607157782225E10 ; 0.0
85 ; 7989331.467558281 ; 2.0217178904087558E8 ; 6.598679291951776E8 ; 1.5516762856377234E10 ; 0.0
86 ; 7990008.60438208 ; 2.021879240349585E8 ; 6.678572606627358E8 ; 1.571893464541811E10 ; 0.0
87 ; 7990888.82095404 ; 2.0220410123168278E8 ; 6.758472692671179E8 ; 1.5921122569453068E10 ; 0.0
88 ; 7988919.697379623 ; 2.0222031834811276E8 ; 6.83838158088072E8 ; 1.612332667068475E10 ; 0.0
89 ; 7985767.730182818 ; 2.0223657316191214E8 ; 6.918270777854515E8 ; 1.6325546989032862E10 ; 0.0
90 ; 7982453.360024676 ; 2.0225286350936174E8 ; 6.998128455156343E8 ; 1.6527783562194775E10 ; 0.0
91 ; 7981633.784295409 ; 2.0226918728343526E8 ; 7.07795298875659E8 ; 1.6730036425704136E10 ; 0.0
92 ; 7978158.901068227 ; 2.0228554243193227E8 ; 7.157769326599544E8 ; 1.6932305612987572E10 ; 0.0
93 ; 7976178.921481324 ; 2.0230192695566815E8 ; 7.237550915610226E8 ; 1.7134591155419504E10 ; 0.0
94 ; 7975497.464102312 ; 2.0231833890672016E8 ; 7.31731270482504E8 ; 1.733689308237517E10 ; 0.0
95 ; 7973085.451185472 ; 2.023347763867287E8 ; 7.397067679466063E8 ; 1.753921142128189E10 ; 0.0
96 ; 7968519.692506396 ; 2.023512375452532E8 ; 7.476798533977917E8 ; 1.774154619766862E10 ; 0.0
97 ; 7968228.291433414 ; 2.0236772057818124E8 ; 7.556483730902982E8 ; 1.7943897435213875E10 ; 0.0
98 ; 7968805.689476001 ; 2.023842237261899E8 ; 7.636166013817316E8 ; 1.8146265155792057E10 ; 0.0
99 ; 7963545.830880814 ; 2.024007452732586E8 ; 7.715854070712076E8 ; 1.8348649379518246E10 ; 0.0
100 ; 7961054.0114904065 ; 2.0241728354523113E8 ; 7.795489529020884E8 ; 1.8551050124791504E10 ; 0.0
101 ; 7959908.51610417 ; 2.024338369084274E8 ; 7.875100069135789E8 ; 1.8753467408336735E10 ; 0.0
102 ; 7956035.149459098 ; 2.0245040376830155E8 ; 7.954699154296831E8 ; 1.8955901245245163E10 ; 0.0
103 ; 7954061.455736985 ; 2.0246698256814712E8 ; 8.034259505791422E8 ; 1.9158351649013466E10 ; 0.0
104 ; 7952976.3769153375 ; 2.0248357178784642E8 ; 8.113800120348792E8 ; 1.936081863158161E10 ; 0.0
105 ; 7950296.557532051 ; 2.025001699426638E8 ; 8.193329884117945E8 ; 1.9563302203369457E10 ; 0.0
106 ; 7945439.751353189 ; 2.0251677558208108E8 ; 8.272832849693266E8 ; 1.9765802373312122E10 ; 0.0
107 ; 7941384.003002779 ; 2.0253338728867394E8 ; 8.352287247206798E8 ; 1.9968319148894203E10 ; 0.0
108 ; 7938800.734726241 ; 2.025500036770281E8 ; 8.431701087236825E8 ; 2.0170852536182877E10 ; 0.0
109 ; 7940004.751919897 ; 2.025666233926937E8 ; 8.511089094584087E8 ; 2.0373402539859905E10 ; 0.0
110 ; 7934381.122055009 ; 2.0258324511117724E8 ; 8.590489142103286E8 ; 2.0575969163252598E10 ; 0.0
111 ; 7933905.276416827 ; 2.025998675369691E8 ; 8.669832953323836E8 ; 2.0778552408363773E10 ; 0.0
112 ; 7927687.02482859 ; 2.0261648940260613E8 ; 8.749172006088004E8 ; 2.098115227590074E10 ; 0.0
113 ; 7923211.399012985 ; 2.0263310946776766E8 ; 8.82844887633629E8 ; 2.118376876530335E10 ; 0.0
114 ; 7923038.321173092 ; 2.0264972651840398E8 ; 8.90768099032642E8 ; 2.1386401874771114E10 ; 0.0
115 ; 7916773.964663037 ; 2.0266633936589625E8 ; 8.986911373538151E8 ; 2.1589051601289516E10 ; 0.0
116 ; 7913326.547124507 ; 2.0268294684624657E8 ; 9.066079113184781E8 ; 2.1791717940655415E10 ; 0.0
117 ; 7910014.659679389 ; 2.026995478192971E8 ; 9.145212378656026E8 ; 2.199440088750166E10 ; 0.0
118 ; 7909878.433921 ; 2.0271614116797754E8 ; 9.22431252525282E8 ; 2.2197100435320957E10 ; 0.0
119 ; 7901514.621436702 ; 2.0273272579757953E8 ; 9.30341130959203E8 ; 2.2399816576488934E10 ; 0.0
120 ; 7894435.428767728 ; 2.0274930063505742E8 ; 9.382426455806397E8 ; 2.2602549302286514E10 ; 0.0
121 ; 7879104.312552469 ; 2.0276586462835404E8 ; 9.461370810094074E8 ; 2.280529860292157E10 ; 0.0
122 ; 7866968.40919432 ; 2.027824167457508E8 ; 9.540161853219599E8 ; 2.3008064467549923E10 ; 0.0
123 ; 7854586.104986404 ; 2.0279895597524142E8 ; 9.618831537311542E8 ; 2.3210846884295673E10 ; 0.0
124 ; 7841749.267871456 ; 2.0281548132392776E8 ; 9.697377398361406E8 ; 2.3413645840270916E10 ; 0.0
125 ; 7827593.0386131685 ; 2.0283199181743795E8 ; 9.775794891040121E8 ; 2.3616461321594845E10 ; 0.0
126 ; 7812751.965701742 ; 2.0284848649936482E8 ; 9.854070821426253E8 ; 2.381929331341228E10 ; 0.0
127 ; 7798663.518737171 ; 2.0286496443072507E8 ; 9.93219834108327E8 ; 2.4022141799911644E10 ; 0.0
128 ; 7786541.571813822 ; 2.0288142468943727E8 ; 1.0010184976270642E9 ; 2.422500676434237E10 ; 0.0
129 ; 7769029.410153226 ; 2.0289786636981905E8 ; 1.008805039198878E9 ; 2.4427888189031807E10 ; 0.0
130 ; 7755163.722298238 ; 2.0291428858210188E8 ; 1.0165740686090313E9 ; 2.4630786055401627E10 ; 0.0
131 ; 7735829.708337817 ; 2.0293069045196337E8 ; 1.0243292323313296E9 ; 2.483370034398373E10 ; 0.0
132 ; 7722700.514814323 ; 2.0294707112007618E8 ; 1.0320650620396674E9 ; 2.503663103443569E10 ; 0.0
133 ; 7705238.108006488 ; 2.0296342974167293E8 ; 1.0397877625544817E9 ; 2.5239578105555767E10 ; 0.0
134 ; 7689375.635185375 ; 2.0297976548612672E8 ; 1.0474930006624882E9 ; 2.544254153529744E10 ; 0.0
135 ; 7672860.0197233725 ; 2.0299607753654623E8 ; 1.0551823762976736E9 ; 2.5645521300783566E10 ; 0.0
136 ; 7655225.895404328 ; 2.030123650893854E8 ; 1.062855236317397E9 ; 2.584851737832011E10 ; 0.0
137 ; 7637226.018162842 ; 2.0302862735406676E8 ; 1.0705104622128013E9 ; 2.6051529743409496E10 ; 0.0
138 ; 7620555.731769553 ; 2.030448635526181E8 ; 1.0781476882309642E9 ; 2.625455837076356E10 ; 0.0
139 ; 7602415.7063259315 ; 2.030610729193217E8 ; 1.0857682439627337E9 ; 2.645760323431618E10 ; 0.0
140 ; 7584234.84793919 ; 2.030772547003761E8 ; 1.0933706596690598E9 ; 2.6660664307235504E10 ; 0.0
141 ; 7567921.073826324 ; 2.0309340815356973E8 ; 1.100954894516999E9 ; 2.686374156193588E10 ; 0.0
142 ; 7550658.873223195 ; 2.0310953254796556E8 ; 1.1085228155908253E9 ; 2.7066834970089447E10 ; 0.0
143 ; 7535187.650060115 ; 2.0312562716359705E8 ; 1.1160734744640486E9 ; 2.7269944502637413E10 ; 0.0
144 ; 7516515.0668510925 ; 2.0314169129117474E8 ; 1.1236086621141088E9 ; 2.747307012980101E10 ; 0.0
145 ; 7502509.645020402 ; 2.0315772423180252E8 ; 1.13112517718096E9 ; 2.7676211821092186E10 ; 0.0
146 ; 7487179.68810833 ; 2.0317372529670435E8 ; 1.1386276868259804E9 ; 2.787936954532399E10 ; 0.0
147 ; 7473069.663205352 ; 2.0318969380695984E8 ; 1.1461148665140889E9 ; 2.8082543270620693E10 ; 0.0
148 ; 7459637.279398841 ; 2.032056290932491E8 ; 1.1535879361772943E9 ; 2.8285732964427654E10 ; 0.0
149 ; 7444144.048022007 ; 2.032215304956067E8 ; 1.1610475734566932E9 ; 2.8488938593520905E10 ; 0.0
150 ; 7428363.289152358 ; 2.032373973631833E8 ; 1.1684917175047152E9 ; 2.869216012401651E10 ; 0.0
151 ; 7418945.735237693 ; 2.0325322905401608E8 ; 1.1759200807938676E9 ; 2.8895397521379692E10 ; 0.0
152 ; 7401955.295362287 ; 2.0326902493480673E8 ; 1.1833390265291052E9 ; 2.909865075043371E10 ; 0.0
153 ; 7388725.4585203305 ; 2.0328478438070682E8 ; 1.1907409818244674E9 ; 2.9301919775368515E10 ; 0.0
154 ; 7370812.459492193 ; 2.0330050677511066E8 ; 1.1981297072829878E9 ; 2.950520455974922E10 ; 0.0
155 ; 7355960.255517883 ; 2.033161915094551E8 ; 1.20550051974248E9 ; 2.9708505066524334E10 ; 0.0
156 ; 7342157.448877032 ; 2.033318379830259E8 ; 1.212856479997998E9 ; 2.991182125803379E10 ; 0.0
157 ; 7325448.3006489985 ; 2.033474456027709E8 ; 1.220198637446875E9 ; 3.0115153096016815E10 ; 0.0
158 ; 7313521.834414563 ; 2.03363013783119E8 ; 1.227524085747524E9 ; 3.0318500541619587E10 ; 0.0
159 ; 7296669.889582433 ; 2.033785419458057E8 ; 1.2348376075819385E9 ; 3.0521863555402706E10 ; 0.0
160 ; 7282164.32081094 ; 2.0339402951970407E8 ; 1.242134277471521E9 ; 3.072524209734851E10 ; 0.0
161 ; 7268982.237119775 ; 2.0340947594066146E8 ; 1.249416441792332E9 ; 3.0928636126868214E10 ; 0.0
162 ; 7251549.882582786 ; 2.0342488065134156E8 ; 1.2566854240294516E9 ; 3.1132045602808876E10 ; 0.0
163 ; 7239400.536521113 ; 2.0344024310107175E8 ; 1.2639369739120345E9 ; 3.1335470483460217E10 ; 0.0
164 ; 7222309.233116944 ; 2.0345556274569544E8 ; 1.2711763744485557E9 ; 3.1538910726561287E10 ; 0.0
165 ; 7208630.975235313 ; 2.0347083904742932E8 ; 1.2783986836816726E9 ; 3.1742366289306984E10 ; 0.0
166 ; 7194548.837488662 ; 2.03486071474725E8 ; 1.2856073146569078E9 ; 3.1945837128354412E10 ; 0.0
167 ; 7176663.161320611 ; 2.0350125950213563E8 ; 1.2928018634943964E9 ; 3.2149323199829136E10 ; 0.0
168 ; 7160265.162967107 ; 2.0351640261018652E8 ; 1.2999785266557171E9 ; 3.2352824459331272E10 ; 0.0
169 ; 7149078.197453967 ; 2.0353150028524995E8 ; 1.3071387918186843E9 ; 3.255634086194146E10 ; 0.0
170 ; 7130650.833834179 ; 2.0354655201942432E8 ; 1.3142878700161383E9 ; 3.275987236222671E10 ; 0.0
171 ; 7118778.4945279155 ; 2.0356155731041694E8 ; 1.3214185208499725E9 ; 3.2963418914246136E10 ; 0.0
172 ; 7102271.095563133 ; 2.0357651566143066E8 ; 1.3285372993445003E9 ; 3.3166980471556553E10 ; 0.0
173 ; 7085998.997586277 ; 2.0359142658105424E8 ; 1.3356395704400635E9 ; 3.3370556987217983E10 ; 0.0
174 ; 7075943.603635281 ; 2.0360628958315608E8 ; 1.3427255694376497E9 ; 3.3574148413799038E10 ; 0.0
175 ; 7063666.156502113 ; 2.0362110418678144E8 ; 1.349801513041285E9 ; 3.3777754703382195E10 ; 0.0
176 ; 7045605.305980459 ; 2.03635869916053E8 ; 1.356865179197787E9 ; 3.3981375807568977E10 ; 0.0
177 ; 7034757.527922966 ; 2.0365058630007443E8 ; 1.3639107845037675E9 ; 3.418501167748503E10 ; 0.0
178 ; 7020420.055702531 ; 2.036652528728371E8 ; 1.3709455420316904E9 ; 3.43886622637851E10 ; 0.0
179 ; 7008157.1946012275 ; 2.0367986917312977E8 ; 1.3779659620873928E9 ; 3.459232751665794E10 ; 0.0
180 ; 6993829.76838727 ; 2.0369443474445108E8 ; 1.384974119281994E9 ; 3.479600738583107E10 ; 0.0
181 ; 6984301.169899487 ; 2.0370894913492483E8 ; 1.3919679490503814E9 ; 3.499970182057552E10 ; 0.0
182 ; 6970759.692903471 ; 2.037234118972179E8 ; 1.398952250220281E9 ; 3.520341076971045E10 ; 0.0
183 ; 6958313.237093904 ; 2.0373782258846074E8 ; 1.4059230099131844E9 ; 3.5407134181607666E10 ; 0.0
184 ; 6944672.25462745 ; 2.037521807701704E8 ; 1.4128813231502783E9 ; 3.561087200419613E10 ; 0.0
185 ; 6932032.985921452 ; 2.0376648600817588E8 ; 1.4198259954049058E9 ; 3.58146241849663E10 ; 0.0
186 ; 6919985.2900785655 ; 2.037807378725458E8 ; 1.4267580283908272E9 ; 3.601839067097448E10 ; 0.0
187 ; 6905736.02022596 ; 2.0379493593751854E8 ; 1.4336780136809058E9 ; 3.622217140884702E10 ; 0.0
188 ; 6890863.3783945665 ; 2.038090797814341E8 ; 1.4405837497011318E9 ; 3.642596634478454E10 ; 0.0
189 ; 6879395.648899075 ; 2.0382316898666853E8 ; 1.4474746130795264E9 ; 3.662977542456597E10 ; 0.0
190 ; 6863408.776487845 ; 2.0383720313957018E8 ; 1.4543540087284255E9 ; 3.683359859355264E10 ; 0.0
191 ; 6851789.587887014 ; 2.0385118183039775E8 ; 1.4612174175049133E9 ; 3.7037435796692215E10 ; 0.0
192 ; 6841278.349277762 ; 2.0386510465326062E8 ; 1.4680692070928004E9 ; 3.724128697852261E10 ; 0.0
193 ; 6825589.823524315 ; 2.038789712060607E8 ; 1.474910485442078E9 ; 3.744515208317587E10 ; 0.0
194 ; 6812954.631662872 ; 2.0389278109043613E8 ; 1.4817360752656024E9 ; 3.7649031054381935E10 ; 0.0
195 ; 6802993.850723988 ; 2.0390653391170678E8 ; 1.4885490298972652E9 ; 3.7852923835472374E10 ; 0.0
196 ; 6786671.047212683 ; 2.039202292788214E8 ; 1.4953520237479892E9 ; 3.805683036938408E10 ; 0.0
197 ; 6773143.531359414 ; 2.039338668043063E8 ; 1.5021386947952018E9 ; 3.82607505986629E10 ; 0.0
198 ; 6761550.1190455435 ; 2.0394744610421553E8 ; 1.5089118383265612E9 ; 3.846468446546721E10 ; 0.0
199 ; 6747006.856434038 ; 2.0396096679808292E8 ; 1.5156733884456067E9 ; 3.866863191157143E10 ; 0.0
200 ; 6732549.52575421 ; 1.7333358853387347E8 ; 1.5224203953020408E9 ; 3.887259287836951E10 ; 0.0
201 ; 6724180.460490391 ; 1.5514783764409006E8 ; 1.529152944827795E9 ; 3.904592646690338E10 ; 0.0
