CSV File for the City 6 on Day 66
1 - Minute m 
2 - Power Consumed at minute m 
3 - Power Produced at minute m 
4 - Energy Consumed since the beginning of the day 
5 - Energy Produced since the beginning of the day 
6 - Energy Lost since the beginning of the day on lines starting from the city
 
0 ; 1.1132268905539019E7 ; 1.059267146093792E8 ; 0.0 ; 0.0 ; 0.0
1 ; 1.1142518752958443E7 ; 1.060774457420497E8 ; 1.1132268905539019E7 ; 1.059267146093792E8 ; 0.0
2 ; 1.115617379391202E7 ; 1.0653718158998975E8 ; 2.227478765849746E7 ; 2.120041603514289E8 ; 0.0
3 ; 1.1166303228865227E7 ; 1.0730592704754615E8 ; 3.343096145240948E7 ; 3.1854134194141865E8 ; 0.0
4 ; 1.1183405377497554E7 ; 1.0838368652068311E8 ; 4.4597264681274705E7 ; 4.258472689889648E8 ; 0.0
5 ; 1.120554216021317E7 ; 1.0977046389598876E8 ; 5.578067005877226E7 ; 5.342309555096479E8 ; 0.0
6 ; 1.122802894229152E7 ; 1.114662625126575E8 ; 6.698621221898543E7 ; 6.440014194056367E8 ; 0.0
7 ; 1.1269270979813403E7 ; 1.134710851379072E8 ; 7.821424116127695E7 ; 7.554676819182942E8 ; 0.0
8 ; 1.13202097766936E7 ; 1.1578493394624889E8 ; 8.948351214109035E7 ; 8.689387670562015E8 ; 0.0
9 ; 1.1401386234268969E7 ; 1.184078105029661E8 ; 1.0080372191778395E8 ; 9.847237010024503E8 ; 0.0
10 ; 1.1523388178912858E7 ; 1.213397157520976E8 ; 1.1220510815205291E8 ; 1.1031315115054164E9 ; 0.0
11 ; 1.17217142339444E7 ; 1.2458065000913897E8 ; 1.2372849633096577E8 ; 1.224471227257514E9 ; 0.0
12 ; 1.2039425819248997E7 ; 1.2813061295859459E8 ; 1.3545021056491017E8 ; 1.349051877266653E9 ; 0.0
13 ; 1.2341152273048634E7 ; 1.3198960365642571E8 ; 1.4748963638415918E8 ; 1.4771824902252476E9 ; 0.0
14 ; 1.2376247642695019E7 ; 1.3615762053734887E8 ; 1.5983078865720782E8 ; 1.6091720938816733E9 ; 0.0
15 ; 1.2392397834565895E7 ; 1.4063466142685294E8 ; 1.7220703629990283E8 ; 1.745329714419022E9 ; 0.0
16 ; 1.2405195326428313E7 ; 1.4542072355772015E8 ; 1.8459943413446873E8 ; 1.885964375845875E9 ; 0.0
17 ; 1.2420139622183131E7 ; 1.5051580359075603E8 ; 1.9700462946089706E8 ; 2.0313850994035952E9 ; 0.0
18 ; 1.2435409667957166E7 ; 1.5591989763937247E8 ; 2.094247690830802E8 ; 2.1819009029943514E9 ; 0.0
19 ; 1.2450447600247433E7 ; 1.6163300129760525E8 ; 2.2186017875103736E8 ; 2.3378208006337237E9 ; 0.0
20 ; 1.2465894559652528E7 ; 1.6765510967110756E8 ; 2.343106263512848E8 ; 2.499453801931329E9 ; 0.0
21 ; 1.2478961328340568E7 ; 1.7398621741062942E8 ; 2.4677652091093734E8 ; 2.6671089116024365E9 ; 0.0
22 ; 1.249163828181007E7 ; 1.806263187474739E8 ; 2.592554822392779E8 ; 2.841095129013066E9 ; 0.0
23 ; 1.250545666075368E7 ; 1.8757540753041804E8 ; 2.7174712052108794E8 ; 3.0217214477605395E9 ; 0.0
24 ; 1.251864405307335E7 ; 1.9483347726359272E8 ; 2.842525771818416E8 ; 3.2092968552909575E9 ; 0.0
25 ; 1.2534279021298163E7 ; 2.0108856204301906E8 ; 2.9677122123491496E8 ; 3.40413033255455E9 ; 0.0
26 ; 1.2547720142624633E7 ; 2.0109420263186964E8 ; 3.093055002562131E8 ; 3.6052188945975695E9 ; 0.0
27 ; 1.2562951270695588E7 ; 2.0110016102332747E8 ; 3.2185322039883775E8 ; 3.8063130972294393E9 ; 0.0
28 ; 1.2577544865284523E7 ; 2.011064297245216E8 ; 3.344161716695333E8 ; 4.0074132582527666E9 ; 0.0
29 ; 1.2590667917418433E7 ; 2.0111300108580709E8 ; 3.469937165348178E8 ; 4.2085196879772882E9 ; 0.0
30 ; 1.261112220779695E7 ; 2.0111986733538288E8 ; 3.5958438445223624E8 ; 4.409632689063095E9 ; 0.0
31 ; 1.2614413920466518E7 ; 2.0112702061225337E8 ; 3.7219550666003317E8 ; 4.610752556398478E9 ; 0.0
32 ; 1.2631099767408928E7 ; 2.0113445299734262E8 ; 3.848099205804997E8 ; 4.811879577010731E9 ; 0.0
33 ; 1.264188549853393E7 ; 2.0114215654261667E8 ; 3.974410203479086E8 ; 5.013014030008074E9 ; 0.0
34 ; 1.2652610725890812E7 ; 2.0115012329811317E8 ; 4.100829058464425E8 ; 5.214156186550691E9 ; 0.0
35 ; 1.266639308082615E7 ; 2.0115834533681813E8 ; 4.2273551657233334E8 ; 5.4153063098488035E9 ; 0.0
36 ; 1.267365635179711E7 ; 2.0116681477736548E8 ; 4.354019096531595E8 ; 5.616464655185621E9 ; 0.0
37 ; 1.2683778053085594E7 ; 2.0117552380456793E8 ; 4.480755660049566E8 ; 5.817631469962987E9 ; 0.0
38 ; 1.2700739976465164E7 ; 2.0118446468781447E8 ; 4.6075934405804217E8 ; 6.018806993767555E9 ; 0.0
39 ; 1.2706645792906834E7 ; 2.0119362979739377E8 ; 4.7346008403450733E8 ; 6.21999145845537E9 ; 0.0
40 ; 1.2714390313923601E7 ; 2.0120301161882156E8 ; 4.8616672982741416E8 ; 6.421185088252764E9 ; 0.0
41 ; 1.2728319949865272E7 ; 2.012126027652647E8 ; 4.9888112014133775E8 ; 6.622388099871585E9 ; 0.0
42 ; 1.273655310289785E7 ; 2.012223959881667E8 ; 5.1160944009120303E8 ; 6.823600702636849E9 ; 0.0
43 ; 1.2741819537855575E7 ; 2.0123238418618688E8 ; 5.2434599319410086E8 ; 7.024823098625016E9 ; 0.0
44 ; 1.2749989902288487E7 ; 2.0124256041257045E8 ; 5.370878127319565E8 ; 7.226055482811203E9 ; 0.0
45 ; 1.2758422073242215E7 ; 2.0125291788106927E8 ; 5.498378026342449E8 ; 7.427298043223773E9 ; 0.0
46 ; 1.2765268606061382E7 ; 2.0126344997053358E8 ; 5.625962247074871E8 ; 7.628550961104842E9 ; 0.0
47 ; 1.2773297547657E7 ; 2.012741502282928E8 ; 5.753614933135484E8 ; 7.829814411075376E9 ; 0.0
48 ; 1.2772075003640676E7 ; 2.012850123724412E8 ; 5.881347908612055E8 ; 8.031088561303668E9 ; 0.0
49 ; 1.278038445453631E7 ; 2.0129603029313916E8 ; 6.009068658648461E8 ; 8.232373573676109E9 ; 0.0
50 ; 1.2783233038098967E7 ; 2.013071980530365E8 ; 6.136872503193824E8 ; 8.433669603969249E9 ; 0.0
51 ; 1.2788424660934066E7 ; 2.013185098869178E8 ; 6.264704833574814E8 ; 8.634976802022285E9 ; 0.0
52 ; 1.2788247164128097E7 ; 2.0132996020066378E8 ; 6.392589080184155E8 ; 8.836295311909203E9 ; 0.0
53 ; 1.2794866475387245E7 ; 2.0134154356961682E8 ; 6.520471551825435E8 ; 9.037625272109867E9 ; 0.0
54 ; 1.279876781505598E7 ; 2.0135325473643082E8 ; 6.648420216579307E8 ; 9.238966815679483E9 ; 0.0
55 ; 1.280084704326157E7 ; 2.013650886084808E8 ; 6.776407894729867E8 ; 9.440320070415915E9 ; 0.0
56 ; 1.2804004094430193E7 ; 2.0137704025489962E8 ; 6.904416365162482E8 ; 9.641685159024395E9 ; 0.0
57 ; 1.280508178680491E7 ; 2.0138910490330404E8 ; 7.032456406106784E8 ; 9.843062199279295E9 ; 0.0
58 ; 1.2809473407204932E7 ; 2.0140127793626642E8 ; 7.160507223974833E8 ; 1.0044451304182598E10 ; 0.0
59 ; 1.2811053076148767E7 ; 2.0141355488758144E8 ; 7.288601958046883E8 ; 1.0245852582118864E10 ; 0.0
60 ; 1.2815403527116928E7 ; 2.0142593143837395E8 ; 7.416712488808371E8 ; 1.0447266137006445E10 ; 0.0
61 ; 1.281825292007393E7 ; 2.0143840341308713E8 ; 7.54486652407954E8 ; 1.0648692068444818E10 ; 0.0
62 ; 1.2820209371382799E7 ; 2.01450966775387E8 ; 7.67304905328028E8 ; 1.0850130471857906E10 ; 0.0
63 ; 1.2822478580441056E7 ; 2.0146361762401387E8 ; 7.801251146994108E8 ; 1.1051581438633293E10 ; 0.0
64 ; 1.28251697056793E7 ; 2.014763521886089E8 ; 7.929475932798518E8 ; 1.1253045056257307E10 ; 0.0
65 ; 1.2827045312724303E7 ; 2.0148916682553872E8 ; 8.057727629855311E8 ; 1.1454521408445915E10 ; 0.0
66 ; 1.2830539706291037E7 ; 2.0150205801373875E8 ; 8.185998082982554E8 ; 1.1656010575271454E10 ; 0.0
67 ; 1.283022207786922E7 ; 2.015150223505934E8 ; 8.314303480045465E8 ; 1.1857512633285192E10 ; 0.0
68 ; 1.283030588980464E7 ; 2.015280565478673E8 ; 8.442605700824157E8 ; 1.2059027655635786E10 ; 0.0
69 ; 1.2834188674135456E7 ; 2.0154115742770085E8 ; 8.570908759722203E8 ; 1.2260555712183653E10 ; 0.0
70 ; 1.2835607604350302E7 ; 2.0155432191868004E8 ; 8.699250646463557E8 ; 1.2462096869611353E10 ; 0.0
71 ; 1.2835490210315237E7 ; 2.0156754705198938E8 ; 8.827606722507061E8 ; 1.2663651191530033E10 ; 0.0
72 ; 1.2838903286512572E7 ; 2.0158082995765492E8 ; 8.955961624610213E8 ; 1.2865218738582022E10 ; 0.0
73 ; 1.2840812548090637E7 ; 2.0159416786088285E8 ; 9.084350657475339E8 ; 1.3066799568539677E10 ; 0.0
74 ; 1.283979768842468E7 ; 2.0160755807849747E8 ; 9.212758782956245E8 ; 1.326839373640056E10 ; 0.0
75 ; 1.2840166127741823E7 ; 2.0162099801548228E8 ; 9.341156759840492E8 ; 1.3470001294479057E10 ; 0.0
76 ; 1.2841712739997195E7 ; 2.016344851616256E8 ; 9.46955842111791E8 ; 1.367162229249454E10 ; 0.0
77 ; 1.2841578093268435E7 ; 2.0164801708827212E8 ; 9.597975548517882E8 ; 1.3873256777656164E10 ; 0.0
78 ; 1.2841736580023011E7 ; 2.0166159144518128E8 ; 9.726391329450566E8 ; 1.4074904794744436E10 ; 0.0
79 ; 1.2836520559914988E7 ; 2.0167520595749152E8 ; 9.854808695250796E8 ; 1.4276566386189617E10 ; 0.0
80 ; 1.28319101482908E7 ; 2.0168885842279047E8 ; 9.983173900849946E8 ; 1.4478241592147108E10 ; 0.0
81 ; 1.282884298602838E7 ; 2.0170254670828947E8 ; 1.0111493002332853E9 ; 1.4679930450569899E10 ; 0.0
82 ; 1.2825561827838948E7 ; 2.0171626874810106E8 ; 1.0239781432193137E9 ; 1.4881632997278189E10 ; 0.0
83 ; 1.28202379671797E7 ; 2.017300225406176E8 ; 1.0368037050471526E9 ; 1.5083349266026289E10 ; 0.0
84 ; 1.2818179429438116E7 ; 2.0174380614598882E8 ; 1.0496239430143323E9 ; 1.5285079288566906E10 ; 0.0
85 ; 1.2815753585272988E7 ; 2.0175761768369627E8 ; 1.0624421224437704E9 ; 1.5486823094712894E10 ; 0.0
86 ; 1.2806651133600056E7 ; 2.0177145533022165E8 ; 1.0752578760290434E9 ; 1.5688580712396591E10 ; 0.0
87 ; 1.2806132404637292E7 ; 2.017853173168071E8 ; 1.0880645271626434E9 ; 1.5890352167726812E10 ; 0.0
88 ; 1.2800297214133928E7 ; 2.017992019273043E8 ; 1.1008706595672808E9 ; 1.609213748504362E10 ; 0.0
89 ; 1.2794299706739033E7 ; 2.018131074961098E8 ; 1.1136709567814147E9 ; 1.6293936686970924E10 ; 0.0
90 ; 1.2788608682527011E7 ; 2.0182703240618378E8 ; 1.1264652564881537E9 ; 1.6495749794467033E10 ; 0.0
91 ; 1.2789840920921324E7 ; 2.0184097508714932E8 ; 1.1392538651706808E9 ; 1.6697576826873217E10 ; 0.0
92 ; 1.2784453549949413E7 ; 2.0185493401346973E8 ; 1.152043706091602E9 ; 1.6899417801960365E10 ; 0.0
93 ; 1.2776710715596931E7 ; 2.0186890770270056E8 ; 1.1648281596415515E9 ; 1.7101272735973835E10 ; 0.0
94 ; 1.2771456817185968E7 ; 2.0188289471381432E8 ; 1.1776048703571484E9 ; 1.7303141643676537E10 ; 0.0
95 ; 1.2767406131336568E7 ; 2.0189689364559442E8 ; 1.1903763271743343E9 ; 1.750502453839035E10 ; 0.0
96 ; 1.2764657915170157E7 ; 2.0191090313509616E8 ; 1.2031437333056707E9 ; 1.7706921432035946E10 ; 0.0
97 ; 1.2756582172381772E7 ; 2.0192492185617206E8 ; 1.215908391220841E9 ; 1.7908832335171043E10 ; 0.0
98 ; 1.2752402139532123E7 ; 2.0193894851805875E8 ; 1.2286649733932228E9 ; 1.8110757257027214E10 ; 0.0
99 ; 1.2746707080508446E7 ; 2.019529818640235E8 ; 1.241417375532755E9 ; 1.8312696205545273E10 ; 0.0
100 ; 1.2739375761503553E7 ; 2.0196702067006728E8 ; 1.2541640826132634E9 ; 1.8514649187409298E10 ; 0.0
101 ; 1.2730673941031618E7 ; 2.019810637436825E8 ; 1.2669034583747668E9 ; 1.8716616208079365E10 ; 0.0
102 ; 1.2725646371333748E7 ; 2.0199510992266303E8 ; 1.2796341323157985E9 ; 1.8918597271823048E10 ; 0.0
103 ; 1.2719625639948677E7 ; 2.0200915807396427E8 ; 1.2923597786871324E9 ; 1.9120592381745712E10 ; 0.0
104 ; 1.2713358631474407E7 ; 2.020232070926113E8 ; 1.305079404327081E9 ; 1.9322601539819675E10 ; 0.0
105 ; 1.2709671505028661E7 ; 2.0203725590065283E8 ; 1.3177927629585555E9 ; 1.9524624746912285E10 ; 0.0
106 ; 1.2701092815817142E7 ; 2.020513034461593E8 ; 1.3305024344635842E9 ; 1.972666200281294E10 ; 0.0
107 ; 1.2696901187225955E7 ; 2.0206534870226294E8 ; 1.3432035272794013E9 ; 1.9928713306259098E10 ; 0.0
108 ; 1.2687254196637223E7 ; 2.0207939066623825E8 ; 1.3559004284666274E9 ; 2.013077865496136E10 ; 0.0
109 ; 1.2683712655493613E7 ; 2.0209342835862088E8 ; 1.3685876826632645E9 ; 2.0332858045627598E10 ; 0.0
110 ; 1.2673947752590245E7 ; 2.0210746082236364E8 ; 1.381271395318758E9 ; 2.0534951473986217E10 ; 0.0
111 ; 1.2667121187543426E7 ; 2.0212148712202746E8 ; 1.3939453430713482E9 ; 2.0737058934808582E10 ; 0.0
112 ; 1.26617996376342E7 ; 2.021355063430064E8 ; 1.4066124642588916E9 ; 2.093918042193061E10 ; 0.0
113 ; 1.2651237288714351E7 ; 2.021495175907847E8 ; 1.4192742638965259E9 ; 2.1141315928273617E10 ; 0.0
114 ; 1.2648472992557663E7 ; 2.0216351999022487E8 ; 1.4319255011852403E9 ; 2.1343465445864403E10 ; 0.0
115 ; 1.2636831823179124E7 ; 2.021775126848851E8 ; 1.444573974177798E9 ; 2.154562896585463E10 ; 0.0
116 ; 1.2626611751517246E7 ; 2.0219149483636513E8 ; 1.457210806000977E9 ; 2.1747806478539516E10 ; 0.0
117 ; 1.2624665784915838E7 ; 2.022054656236789E8 ; 1.4698374177524943E9 ; 2.194999797337588E10 ; 0.0
118 ; 1.2615229123786591E7 ; 2.02219424242653E8 ; 1.4824620835374103E9 ; 2.215220343899956E10 ; 0.0
119 ; 1.260741600551338E7 ; 2.0223336990535006E8 ; 1.495077312661197E9 ; 2.2354422863242214E10 ; 0.0
120 ; 1.2598288058956932E7 ; 2.0224730183951536E8 ; 1.5076847286667104E9 ; 2.2556656233147564E10 ; 0.0
121 ; 1.2589783325939417E7 ; 2.0226121928804624E8 ; 1.5202830167256672E9 ; 2.275890353498708E10 ; 0.0
122 ; 1.2582988683381878E7 ; 2.022751215084831E8 ; 1.5328728000516067E9 ; 2.2961164754275127E10 ; 0.0
123 ; 1.256876094008484E7 ; 2.02289007772521E8 ; 1.5454557887349885E9 ; 2.316343987578361E10 ; 0.0
124 ; 1.2565963967383523E7 ; 2.0230287736554068E8 ; 1.5580245496750734E9 ; 2.3365728883556133E10 ; 0.0
125 ; 1.2553199553393103E7 ; 2.0231672958615923E8 ; 1.570590513642457E9 ; 2.3568031760921673E10 ; 0.0
126 ; 1.254530360849423E7 ; 2.023305637457979E8 ; 1.5831437131958501E9 ; 2.377034849050783E10 ; 0.0
127 ; 1.253817391651948E7 ; 2.0234437916826794E8 ; 1.5956890168043444E9 ; 2.3972679054253628E10 ; 0.0
128 ; 1.2526536736643184E7 ; 2.023581751893724E8 ; 1.6082271907208638E9 ; 2.4175023433421894E10 ; 0.0
129 ; 1.2515544170231821E7 ; 2.0237195115652424E8 ; 1.620753727457507E9 ; 2.4377381608611267E10 ; 0.0
130 ; 1.2508317694741886E7 ; 2.023857064283792E8 ; 1.6332692716277387E9 ; 2.457975355976779E10 ; 0.0
131 ; 1.2496051717871761E7 ; 2.023994403744834E8 ; 1.6457775893224807E9 ; 2.478213926619617E10 ; 0.0
132 ; 1.247907988224613E7 ; 2.0241315237493455E8 ; 1.6582736410403523E9 ; 2.4984538706570656E10 ; 0.0
133 ; 1.2470025444062203E7 ; 2.0242684182005674E8 ; 1.6707527209225984E9 ; 2.518695185894559E10 ; 0.0
134 ; 1.2457500574980764E7 ; 2.0244050811008772E8 ; 1.6832227463666606E9 ; 2.5389378700765648E10 ; 0.0
135 ; 1.2438403709812447E7 ; 2.0245415065487838E8 ; 1.6956802469416413E9 ; 2.5591819208875736E10 ; 0.0
136 ; 1.2424528009248205E7 ; 2.0246776887360397E8 ; 1.7081186506514537E9 ; 2.5794273359530613E10 ; 0.0
137 ; 1.241206093942663E7 ; 2.0248136219448638E8 ; 1.720543178660702E9 ; 2.5996741128404217E10 ; 0.0
138 ; 1.2395864922553768E7 ; 2.024949300545272E8 ; 1.7329552396001287E9 ; 2.61992224905987E10 ; 0.0
139 ; 1.2383280996216908E7 ; 2.0250847189925086E8 ; 1.7453511045226824E9 ; 2.640171742065323E10 ; 0.0
140 ; 1.2366761340830555E7 ; 2.025219871824578E8 ; 1.7577343855188994E9 ; 2.660422589255248E10 ; 0.0
141 ; 1.235422233668495E7 ; 2.0253547536598688E8 ; 1.77010114685973E9 ; 2.6806747879734936E10 ; 0.0
142 ; 1.234051617739941E7 ; 2.0254893591948685E8 ; 1.782455369196415E9 ; 2.700928335510092E10 ; 0.0
143 ; 1.232285900209823E7 ; 2.025623683201965E8 ; 1.7947958853738143E9 ; 2.721183229102041E10 ; 0.0
144 ; 1.2310226379303902E7 ; 2.0257577205273294E8 ; 1.8071187443759127E9 ; 2.7414394659340607E10 ; 0.0
145 ; 1.2302218235419948E7 ; 2.025891466088881E8 ; 1.8194289707552166E9 ; 2.761697043139334E10 ; 0.0
146 ; 1.229036166598067E7 ; 2.0260249148743245E8 ; 1.8317311889906366E9 ; 2.7819559578002228E10 ; 0.0
147 ; 1.2277950097106807E7 ; 2.0261580619392648E8 ; 1.8440215506566172E9 ; 2.802216206948966E10 ; 0.0
148 ; 1.2272258710689437E7 ; 2.026290902405388E8 ; 1.8562995007537239E9 ; 2.8224777875683586E10 ; 0.0
149 ; 1.2261631986027535E7 ; 2.0264234314587113E8 ; 1.8685717594644134E9 ; 2.8427406965924126E10 ; 0.0
150 ; 1.2250135627992492E7 ; 2.0265556443478975E8 ; 1.880833391450441E9 ; 2.8630049309069996E10 ; 0.0
151 ; 1.2238126449599192E7 ; 2.0266875363826302E8 ; 1.8930835270784333E9 ; 2.8832704873504787E10 ; 0.0
152 ; 1.2228327421870466E7 ; 2.0268191029320505E8 ; 1.9053216535280325E9 ; 2.903537362714305E10 ; 0.0
153 ; 1.2218390556117438E7 ; 2.0269503394232494E8 ; 1.917549980949903E9 ; 2.9238055537436256E10 ; 0.0
154 ; 1.2205257578284845E7 ; 2.0270812413398132E8 ; 1.9297683715060205E9 ; 2.9440750571378582E10 ; 0.0
155 ; 1.2195598110330507E7 ; 2.0272118042204255E8 ; 1.9419736290843053E9 ; 2.964345869551256E10 ; 0.0
156 ; 1.21846457404111E7 ; 2.0273420236575168E8 ; 1.9541692271946359E9 ; 2.9846179875934605E10 ; 0.0
157 ; 1.2174349457673125E7 ; 2.027471895295963E8 ; 1.966353872935047E9 ; 3.0048914078300358E10 ; 0.0
158 ; 1.2168048905496163E7 ; 2.0276014148318303E8 ; 1.97852822239272E9 ; 3.0251661267829952E10 ; 0.0
159 ; 1.2156760325456034E7 ; 2.0277305780111668E8 ; 1.990696271298216E9 ; 3.0454421409313137E10 ; 0.0
160 ; 1.214162446036683E7 ; 2.027859380628835E8 ; 2.0028530316236722E9 ; 3.0657194467114254E10 ; 0.0
161 ; 1.213350810269513E7 ; 2.0279878185273865E8 ; 2.014994656084039E9 ; 3.085998040517714E10 ; 0.0
162 ; 1.2121920382690966E7 ; 2.0281158875959757E8 ; 2.0271281641867342E9 ; 3.1062779187029877E10 ; 0.0
163 ; 1.2115698834343681E7 ; 2.0282435837693137E8 ; 2.039250084569425E9 ; 3.1265590775789474E10 ; 0.0
164 ; 1.2095994659533076E7 ; 2.0283709030266568E8 ; 2.0513657834037688E9 ; 3.1468415134166405E10 ; 0.0
165 ; 1.2090669366811806E7 ; 2.0284978413908306E8 ; 2.0634617780633018E9 ; 3.167125222446907E10 ; 0.0
166 ; 1.207813433887777E7 ; 2.028624394927291E8 ; 2.0755524474301136E9 ; 3.1874102008608154E10 ; 0.0
167 ; 1.2067346330994176E7 ; 2.0287505597432128E8 ; 2.0876305817689912E9 ; 3.2076964448100883E10 ; 0.0
168 ; 1.2056571160303857E7 ; 2.0288763319866148E8 ; 2.0996979280999854E9 ; 3.2279839504075203E10 ; 0.0
169 ; 1.2044779503650809E7 ; 2.0290017078455126E8 ; 2.1117544992602892E9 ; 3.2482727137273865E10 ; 0.0
170 ; 1.2031593704679769E7 ; 2.0291266835470998E8 ; 2.12379927876394E9 ; 3.2685627308058414E10 ; 0.0
171 ; 1.202075301437693E7 ; 2.0292512553569606E8 ; 2.1358308724686198E9 ; 3.2888539976413124E10 ; 0.0
172 ; 1.2011095911962181E7 ; 2.029375419578305E8 ; 2.147851625482997E9 ; 3.3091465101948822E10 ; 0.0
173 ; 1.1999393864077834E7 ; 2.0294991725512344E8 ; 2.159862721394959E9 ; 3.3294402643906654E10 ; 0.0
174 ; 1.1991548214675352E7 ; 2.0296225106520295E8 ; 2.171862115259037E9 ; 3.3497352561161777E10 ; 0.0
175 ; 1.1983941543789446E7 ; 2.0297454302924618E8 ; 2.1838536634737124E9 ; 3.3700314812226982E10 ; 0.0
176 ; 1.19829272340664E7 ; 2.0298679279191324E8 ; 2.195837605017502E9 ; 3.390328935525623E10 ; 0.0
177 ; 1.197365323269775E7 ; 2.0299900000128278E8 ; 2.2078205322515683E9 ; 3.410627614804814E10 ; 0.0
178 ; 1.1964775306687951E7 ; 2.0301116430879012E8 ; 2.2197941854842663E9 ; 3.4309275148049423E10 ; 0.0
179 ; 1.195968860058725E7 ; 2.0302328536916733E8 ; 2.231758960790954E9 ; 3.4512286312358215E10 ; 0.0
180 ; 1.1951875608757626E7 ; 2.030353628403853E8 ; 2.2437186493915415E9 ; 3.471530959772739E10 ; 0.0
181 ; 1.1947181375724323E7 ; 2.030473963835978E8 ; 2.255670525000299E9 ; 3.491834496056777E10 ; 0.0
182 ; 1.193487287855992E7 ; 2.030593856630873E8 ; 2.2676177063760233E9 ; 3.512139235695137E10 ; 0.0
183 ; 1.1930284772749195E7 ; 2.0307133034621277E8 ; 2.2795525792545834E9 ; 3.5324451742614456E10 ; 0.0
184 ; 1.1926132674268587E7 ; 2.0308323010335904E8 ; 2.291482864027333E9 ; 3.552752307296067E10 ; 0.0
185 ; 1.191642798252481E7 ; 2.0309508460788786E8 ; 2.3034089967016015E9 ; 3.5730606303064026E10 ; 0.0
186 ; 1.190992668826518E7 ; 2.0310689353609064E8 ; 2.3153254246841264E9 ; 3.593370138767191E10 ; 0.0
187 ; 1.1902286545088843E7 ; 2.031186565671428E8 ; 2.3272353513723917E9 ; 3.6136808281208E10 ; 0.0
188 ; 1.1896599487621734E7 ; 2.0313037338305944E8 ; 2.3391376379174805E9 ; 3.633992693777515E10 ; 0.0
189 ; 1.1885895957773678E7 ; 2.0314204366865253E8 ; 2.3510342374051023E9 ; 3.65430573111582E10 ; 0.0
190 ; 1.1881931146631857E7 ; 2.0315366711148968E8 ; 2.362920133362876E9 ; 3.674619935482686E10 ; 0.0
191 ; 1.1875465557080181E7 ; 2.0316524340185398E8 ; 2.3748020645095077E9 ; 3.694935302193835E10 ; 0.0
192 ; 1.1868271632109286E7 ; 2.0317677223270535E8 ; 2.386677530066588E9 ; 3.71525182653402E10 ; 0.0
193 ; 1.1861699995148677E7 ; 2.0318825329964295E8 ; 2.398545801698697E9 ; 3.735569503757291E10 ; 0.0
194 ; 1.1851257275635412E7 ; 2.0319968630086917E8 ; 2.4104075016938457E9 ; 3.755888329087255E10 ; 0.0
195 ; 1.1847412919875665E7 ; 2.0321107093715426E8 ; 2.422258758969481E9 ; 3.776208297717342E10 ; 0.0
