CSV File for the City 6 on Day 230
1 - Minute m 
2 - Power Consumed at minute m 
3 - Power Produced at minute m 
4 - Energy Consumed since the beginning of the day 
5 - Energy Produced since the beginning of the day 
6 - Energy Lost since the beginning of the day on lines starting from the city
 
0 ; 970604.9109988904 ; 1.0533127116623601E8 ; 0.0 ; 0.0 ; 0.0
1 ; 986927.3520760558 ; 1.0547432676095653E8 ; 970604.9109988904 ; 1.0533127116623601E8 ; 0.0
2 ; 996995.659075503 ; 1.059264818372046E8 ; 1957532.2630749461 ; 2.1080559792719254E8 ; 0.0
3 ; 1014714.0545027499 ; 1.066878451486997E8 ; 2954527.922150449 ; 3.1673207976439714E8 ; 0.0
4 ; 1029853.6815075998 ; 1.0775855348116195E8 ; 3969241.9766531987 ; 4.2341992491309685E8 ; 0.0
5 ; 1055661.6980019428 ; 1.0913877624307936E8 ; 4999095.658160798 ; 5.311784783942588E8 ; 0.0
6 ; 1077520.854513938 ; 1.1082871719814315E8 ; 6054757.356162741 ; 6.403172546373382E8 ; 0.0
7 ; 1118335.4971045176 ; 1.1282860942725843E8 ; 7132278.210676679 ; 7.511459718354813E8 ; 0.0
8 ; 1172929.1090357222 ; 1.151386984503755E8 ; 8250613.7077811975 ; 8.639745812627397E8 ; 0.0
9 ; 1255570.4866936947 ; 1.1775921014128458E8 ; 9423542.81681692 ; 9.791132797131152E8 ; 0.0
10 ; 1381012.8385125562 ; 1.2069030728531384E8 ; 1.0679113303510616E7 ; 1.0968724898543997E9 ; 0.0
11 ; 1574944.523015724 ; 1.2393204964745745E8 ; 1.2060126142023172E7 ; 1.2175627971397135E9 ; 0.0
12 ; 1895987.3541341391 ; 1.274843774627212E8 ; 1.3635070665038897E7 ; 1.341494846787171E9 ; 0.0
13 ; 2201869.4138867343 ; 1.3134712794577694E8 ; 1.5531058019173035E7 ; 1.468979224249892E9 ; 0.0
14 ; 2241724.7690619472 ; 1.3552007522283453E8 ; 1.773292743305977E7 ; 1.600326352195669E9 ; 0.0
15 ; 2256117.580245859 ; 1.4000297377394354E8 ; 1.997465220212172E7 ; 1.7358464274185035E9 ; 0.0
16 ; 2270752.696379762 ; 1.44795590518199E8 ; 2.223076978236758E7 ; 1.8758494011924472E9 ; 0.0
17 ; 2284706.771166626 ; 1.4989772169190958E8 ; 2.450152247874734E7 ; 2.0206449917106462E9 ; 0.0
18 ; 2300515.2005946976 ; 1.5530919788658732E8 ; 2.678622924991397E7 ; 2.170542713402556E9 ; 0.0
19 ; 2319275.2034952473 ; 1.6102988231651208E8 ; 2.9086744450508665E7 ; 2.325851911289143E9 ; 0.0
20 ; 2335506.0046204706 ; 1.6705966622796437E8 ; 3.140601965400391E7 ; 2.486881793605655E9 ; 0.0
21 ; 2349861.2371057067 ; 1.7339846370621714E8 ; 3.374152565862438E7 ; 2.6539414598336196E9 ; 0.0
22 ; 2369602.0869465857 ; 1.8004620691881257E8 ; 3.6091386895730086E7 ; 2.827339923539837E9 ; 0.0
23 ; 2384219.901729024 ; 1.8700284214415765E8 ; 3.846098898267667E7 ; 3.0073861304586496E9 ; 0.0
24 ; 2401827.034523836 ; 1.9426832660819715E8 ; 4.0845208884405695E7 ; 3.194388972602807E9 ; 0.0
25 ; 2418294.545905436 ; 2.0053066692392787E8 ; 4.324703591892953E7 ; 3.3886572992110043E9 ; 0.0
26 ; 2430902.7088589505 ; 2.0054338324003252E8 ; 4.5665330464834966E7 ; 3.589187966134932E9 ; 0.0
27 ; 2448668.5316817295 ; 2.0055622232213545E8 ; 4.809623317369392E7 ; 3.7897313493749647E9 ; 0.0
28 ; 2464865.41966648 ; 2.005691656958127E8 ; 5.054490170537565E7 ; 3.9902875716971E9 ; 0.0
29 ; 2477062.346709228 ; 2.0058219809351876E8 ; 5.3009767125042126E7 ; 4.190856737392913E9 ; 0.0
30 ; 2494892.2946210126 ; 2.005953068026641E8 ; 5.5486829471751355E7 ; 4.391438935486432E9 ; 0.0
31 ; 2515219.8295508744 ; 2.0060848116058126E8 ; 5.798172176637237E7 ; 4.592034242289096E9 ; 0.0
32 ; 2524983.0032789973 ; 2.006217121608205E8 ; 6.0496941595923245E7 ; 4.792642723449677E9 ; 0.0
33 ; 2540555.6824429403 ; 2.0063499214420757E8 ; 6.3021924599202245E7 ; 4.993264435610498E9 ; 0.0
34 ; 2556788.9614227866 ; 2.0064831455478755E8 ; 6.5562480281645186E7 ; 5.193899427754706E9 ; 0.0
35 ; 2571749.2186871893 ; 2.0066167374573922E8 ; 6.811926924306798E7 ; 5.394547742309494E9 ; 0.0
36 ; 2583486.201465417 ; 2.0067506482401296E8 ; 7.069101846175517E7 ; 5.595209416055233E9 ; 0.0
37 ; 2596352.7276787353 ; 2.0068848352516967E8 ; 7.327450466322058E7 ; 5.795884480879246E9 ; 0.0
38 ; 2609598.179532728 ; 2.0070192611192456E8 ; 7.587085739089932E7 ; 5.996572964404415E9 ; 0.0
39 ; 2624479.741479265 ; 2.0071538929141366E8 ; 7.848045557043204E7 ; 6.197274890516339E9 ; 0.0
40 ; 2635582.400004512 ; 2.0072887014734033E8 ; 8.11049353119113E7 ; 6.397990279807753E9 ; 0.0
41 ; 2646492.368957816 ; 2.0074236608401802E8 ; 8.37405177119158E7 ; 6.598719149955093E9 ; 0.0
42 ; 2658206.2043043096 ; 2.0075587477997985E8 ; 8.638701008087362E7 ; 6.799461516039111E9 ; 0.0
43 ; 2669341.1906236876 ; 2.007693941493251E8 ; 8.904521628517793E7 ; 7.000217390819091E9 ; 0.0
44 ; 2678587.815757284 ; 2.0078292230935577E8 ; 9.171455747580162E7 ; 7.200986784968416E9 ; 0.0
45 ; 2688427.6504019108 ; 2.0079645755335495E8 ; 9.43931452915589E7 ; 7.401769707277772E9 ; 0.0
46 ; 2698537.476684511 ; 2.0080999832758826E8 ; 9.708157294196081E7 ; 7.602566164831127E9 ; 0.0
47 ; 2704893.559319589 ; 2.0082354321179143E8 ; 9.978011041864532E7 ; 7.803376163158715E9 ; 0.0
48 ; 2715349.595456926 ; 2.0083709090254822E8 ; 1.0248500397796491E8 ; 8.004199706370506E9 ; 0.0
49 ; 2726820.0663784193 ; 2.00850640199076E8 ; 1.0520035357342184E8 ; 8.205036797273054E9 ; 0.0
50 ; 2729543.365972896 ; 2.0086418999102515E8 ; 1.0792717363980025E8 ; 8.40588743747213E9 ; 0.0
51 ; 2737214.420785273 ; 2.0087773924796987E8 ; 1.1065671700577314E8 ; 8.606751627463156E9 ; 0.0
52 ; 2743060.200299687 ; 2.0089128701032487E8 ; 1.1339393142655842E8 ; 8.807629366711126E9 ; 0.0
53 ; 2749585.160521718 ; 2.0090483238146937E8 ; 1.161369916268581E8 ; 9.00852065372145E9 ; 0.0
54 ; 2755948.7042885995 ; 2.009183745208964E8 ; 1.1888657678737982E8 ; 9.20942548610292E9 ; 0.0
55 ; 2763823.9625416244 ; 2.0093191263823578E8 ; 1.2164252549166842E8 ; 9.410343860623817E9 ; 0.0
56 ; 2770799.3426698083 ; 2.0094544598802504E8 ; 1.2440634945421004E8 ; 9.611275773262053E9 ; 0.0
57 ; 2775791.826628711 ; 2.0095897386512125E8 ; 1.2717714879687986E8 ; 9.812221219250078E9 ; 0.0
58 ; 2784023.1373108 ; 2.009724956006653E8 ; 1.2995294062350857E8 ; 1.00131801931152E10 ; 0.0
59 ; 2787920.4080104725 ; 2.009860105585224E8 ; 1.3273696376081938E8 ; 1.0214152688715866E10 ; 0.0
60 ; 2796110.773712435 ; 2.0099951813213542E8 ; 1.3552488416882986E8 ; 1.041513869927439E10 ; 0.0
61 ; 2800599.682613472 ; 2.0101301774173614E8 ; 1.3832099494254228E8 ; 1.0616138217406525E10 ; 0.0
62 ; 2807621.8946699165 ; 2.0102650883186856E8 ; 1.4112159462515575E8 ; 1.081715123514826E10 ; 0.0
63 ; 2808769.0471941857 ; 2.010399908691842E8 ; 1.4392921651982567E8 ; 1.101817774398013E10 ; 0.0
64 ; 2814790.7131994027 ; 2.0105346334047547E8 ; 1.4673798556701985E8 ; 1.1219217734849314E10 ; 0.0
65 ; 2824278.3816665984 ; 2.0106692575091794E8 ; 1.4955277628021926E8 ; 1.1420271198189789E10 ; 0.0
66 ; 2825932.5120908534 ; 2.01080377622496E8 ; 1.5237705466188586E8 ; 1.1621338123940706E10 ; 0.0
67 ; 2831329.7865149453 ; 2.0109381849259043E8 ; 1.5520298717397672E8 ; 1.1822418501563202E10 ; 0.0
68 ; 2837674.3225608086 ; 2.0110724791270867E8 ; 1.5803431696049166E8 ; 1.2023512320055792E10 ; 0.0
69 ; 2839759.8782798634 ; 2.0112066544734135E8 ; 1.6087199128305247E8 ; 1.22246195679685E10 ; 0.0
70 ; 2847436.28011643 ; 2.0113407067293108E8 ; 1.6371175116133234E8 ; 1.2425740233415842E10 ; 0.0
71 ; 2852390.743238662 ; 2.0114746317694044E8 ; 1.6655918744144878E8 ; 1.2626874304088774E10 ; 0.0
72 ; 2856620.5869010943 ; 2.011608425570089E8 ; 1.6941157818468744E8 ; 1.2828021767265715E10 ; 0.0
73 ; 2863137.6755527547 ; 2.011742084201883E8 ; 1.7226819877158853E8 ; 1.3029182609822723E10 ; 0.0
74 ; 2867025.2540661152 ; 2.0118756038224941E8 ; 1.751313364471413E8 ; 1.3230356818242912E10 ; 0.0
75 ; 2872882.3679796066 ; 2.012008980670512E8 ; 1.779983617012074E8 ; 1.3431544378625162E10 ; 0.0
76 ; 2876674.5127717527 ; 2.012142211059668E8 ; 1.8087124406918702E8 ; 1.3632745276692213E10 ; 0.0
77 ; 2881333.217883322 ; 2.0122752913736054E8 ; 1.8374791858195877E8 ; 1.383395949779818E10 ; 0.0
78 ; 2884594.1064249324 ; 2.0124082180611032E8 ; 1.866292517998421E8 ; 1.403518702693554E10 ; 0.0
79 ; 2880738.4961614087 ; 2.0125409876317146E8 ; 1.8951384590626702E8 ; 1.423642784874165E10 ; 0.0
80 ; 2886168.168983412 ; 2.0126735966517746E8 ; 1.9239458440242842E8 ; 1.4437681947504822E10 ; 0.0
81 ; 2887413.108590266 ; 2.0128060417407438E8 ; 1.9528075257141182E8 ; 1.463894930717E10 ; 0.0
82 ; 2885868.3158562365 ; 2.0129383195678562E8 ; 1.981681656800021E8 ; 1.4840229911344074E10 ; 0.0
83 ; 2888657.5726406737 ; 2.0130704268490413E8 ; 2.0105403399585834E8 ; 1.504152374330086E10 ; 0.0
84 ; 2882309.3881227253 ; 2.0132023603440958E8 ; 2.0394269156849903E8 ; 1.5242830785985764E10 ; 0.0
85 ; 2888094.8813832793 ; 2.0133341168540806E8 ; 2.0682500095662177E8 ; 1.5444151022020174E10 ; 0.0
86 ; 2889307.814673565 ; 2.0134656932189268E8 ; 2.0971309583800504E8 ; 1.5645484433705582E10 ; 0.0
87 ; 2882534.803108063 ; 2.0135970863152254E8 ; 2.126024036526786E8 ; 1.5846831003027473E10 ; 0.0
88 ; 2884904.150758129 ; 2.0137282930541912E8 ; 2.1548493845578668E8 ; 1.6048190711658997E10 ; 0.0
89 ; 2882106.2667616955 ; 2.0138593103797805E8 ; 2.183698426065448E8 ; 1.6249563540964417E10 ; 0.0
90 ; 2885555.2423186954 ; 2.013990135266954E8 ; 2.2125194887330648E8 ; 1.6450949472002394E10 ; 0.0
91 ; 2885069.148716554 ; 2.0141207647200668E8 ; 2.2413750411562517E8 ; 1.6652348485529089E10 ; 0.0
92 ; 2887868.781793034 ; 2.0142511957713807E8 ; 2.270225732643417E8 ; 1.6853760562001095E10 ; 0.0
93 ; 2885325.2564998316 ; 2.014381425479686E8 ; 2.2991044204613474E8 ; 1.7055185681578234E10 ; 0.0
94 ; 2888696.389901016 ; 2.0145114509290212E8 ; 2.3279576730263457E8 ; 1.72566238241262E10 ; 0.0
95 ; 2886367.895602112 ; 2.014641269227489E8 ; 2.3568446369253558E8 ; 1.7458074969219105E10 ; 0.0
96 ; 2882579.098704062 ; 2.0147708775061524E8 ; 2.385708315881377E8 ; 1.7659539096141853E10 ; 0.0
97 ; 2880725.794376621 ; 2.014900272918015E8 ; 2.4145341068684176E8 ; 1.7861016183892467E10 ; 0.0
98 ; 2877790.263347803 ; 2.0150294526370686E8 ; 2.4433413648121837E8 ; 1.806250621118427E10 ; 0.0
99 ; 2881431.009504442 ; 2.0151584138574076E8 ; 2.4721192674456617E8 ; 1.8264009156447975E10 ; 0.0
100 ; 2878571.5772069083 ; 2.0152871537924084E8 ; 2.500933577540706E8 ; 1.8465524997833717E10 ; 0.0
101 ; 2878268.5967669883 ; 2.0154156696739617E8 ; 2.5297192933127752E8 ; 1.866705371321296E10 ; 0.0
102 ; 2878178.438005345 ; 2.0155439587517586E8 ; 2.558501979280445E8 ; 1.8868595280180355E10 ; 0.0
103 ; 2877619.613570294 ; 2.015672018292625E8 ; 2.5872837636604986E8 ; 1.907014967605553E10 ; 0.0
104 ; 2871830.4216299024 ; 2.0157998455799025E8 ; 2.6160599597962016E8 ; 1.9271716877884792E10 ; 0.0
105 ; 2873857.44105643 ; 2.015927437912867E8 ; 2.6447782640125006E8 ; 1.9473296862442783E10 ; 0.0
106 ; 2871001.893683703 ; 2.0160547926061916E8 ; 2.673516838423065E8 ; 1.967488960623407E10 ; 0.0
107 ; 2872332.431499683 ; 2.0161819069894394E8 ; 2.702226857359902E8 ; 1.987649508549469E10 ; 0.0
108 ; 2866951.7321197516 ; 2.016308778406594E8 ; 2.730950181674899E8 ; 2.0078113276193634E10 ; 0.0
109 ; 2865293.680997353 ; 2.01643540421562E8 ; 2.759619698996096E8 ; 2.0279744154034294E10 ; 0.0
110 ; 2864198.0040870956 ; 2.016561781788049E8 ; 2.78827263580607E8 ; 2.0481387694455856E10 ; 0.0
111 ; 2861305.9078804967 ; 2.016687908508599E8 ; 2.816914615846941E8 ; 2.0683043872634663E10 ; 0.0
112 ; 2858818.0308071985 ; 2.0168137817748126E8 ; 2.845527674925746E8 ; 2.0884712663485523E10 ; 0.0
113 ; 2857670.3197261463 ; 2.0169393989967218E8 ; 2.8741158552338177E8 ; 2.1086394041663006E10 ; 0.0
114 ; 2855853.252112134 ; 2.017064757596533E8 ; 2.9026925584310794E8 ; 2.128808798156268E10 ; 0.0
115 ; 2857709.2483362355 ; 2.017189855008334E8 ; 2.931251090952201E8 ; 2.1489794457322334E10 ; 0.0
116 ; 2853224.3782130033 ; 2.0173146886778185E8 ; 2.9598281834355634E8 ; 2.1691513442823166E10 ; 0.0
117 ; 2848291.7063955246 ; 2.0174392560620293E8 ; 2.9883604272176933E8 ; 2.189324491169095E10 ; 0.0
118 ; 2843706.5438187285 ; 2.0175635546291167E8 ; 3.0168433442816484E8 ; 2.209498883729715E10 ; 0.0
119 ; 2841610.8045976595 ; 2.0176875818581146E8 ; 3.0452804097198355E8 ; 2.2296745192760063E10 ; 0.0
120 ; 2840702.1965364055 ; 2.0178113352387294E8 ; 3.073696517765812E8 ; 2.2498513950945873E10 ; 0.0
121 ; 2838764.806529586 ; 2.017934812271143E8 ; 3.1021035397311765E8 ; 2.2700295084469746E10 ; 0.0
122 ; 2834798.7037012735 ; 2.018058010465828E8 ; 3.1304911877964723E8 ; 2.290208856569686E10 ; 0.0
123 ; 2831980.070584926 ; 2.0181809273433772E8 ; 3.158839174833485E8 ; 2.3103894366743443E10 ; 0.0
124 ; 2830997.6966441902 ; 2.0183035604343414E8 ; 3.1871589755393344E8 ; 2.330571245947778E10 ; 0.0
125 ; 2828832.043192867 ; 2.0184259072790787E8 ; 3.215468952505776E8 ; 2.3507542815521214E10 ; 0.0
126 ; 2825909.8435843936 ; 2.0185479654276156E8 ; 3.243757272937705E8 ; 2.3709385406249123E10 ; 0.0
127 ; 2821640.055832831 ; 2.018669732439514E8 ; 3.272016371373549E8 ; 2.3911240202791885E10 ; 0.0
128 ; 2815803.5031363843 ; 2.018791205883751E8 ; 3.300232771931877E8 ; 2.4113107176035835E10 ; 0.0
129 ; 2814172.9047257216 ; 2.0189123833386013E8 ; 3.328390806963241E8 ; 2.431498629662421E10 ; 0.0
130 ; 2808600.6803797972 ; 2.0190332623915353E8 ; 3.3565325360104984E8 ; 2.451687753495807E10 ; 0.0
131 ; 2801104.5213836995 ; 2.019153840639117E8 ; 3.3846185428142965E8 ; 2.4718780861197224E10 ; 0.0
132 ; 2793771.952818792 ; 2.0192741156869122E8 ; 3.4126295880281335E8 ; 2.4920696245261135E10 ; 0.0
133 ; 2786788.8698615283 ; 2.0193940851494038E8 ; 3.4405673075563216E8 ; 2.5122623656829826E10 ; 0.0
134 ; 2778191.659102648 ; 2.0195137466499114E8 ; 3.468435196254937E8 ; 2.532456306534477E10 ; 0.0
135 ; 2772749.237002537 ; 2.019633097820518E8 ; 3.496217112845963E8 ; 2.5526514440009758E10 ; 0.0
136 ; 2762513.906049833 ; 2.0197521363020012E8 ; 3.523944605215989E8 ; 2.572847774979181E10 ; 0.0
137 ; 2755776.5757601815 ; 2.019870859743771E8 ; 3.551569744276487E8 ; 2.593045296342201E10 ; 0.0
138 ; 2744625.9260582128 ; 2.0199892658038098E8 ; 3.579127510034089E8 ; 2.6132440049396385E10 ; 0.0
139 ; 2739537.734276912 ; 2.0201073521486202E8 ; 3.6065737692946714E8 ; 2.6334438975976765E10 ; 0.0
140 ; 2727374.1766226613 ; 2.0202251164531747E8 ; 3.6339691466374403E8 ; 2.6536449711191628E10 ; 0.0
141 ; 2722298.673003479 ; 2.0203425564008707E8 ; 3.661242888403667E8 ; 2.6738472222836945E10 ; 0.0
142 ; 2716536.79928024 ; 2.0204596696834886E8 ; 3.688465875133702E8 ; 2.694050647847703E10 ; 0.0
143 ; 2705454.0166993523 ; 2.020576454001155E8 ; 3.7156312431265044E8 ; 2.714255244544538E10 ; 0.0
144 ; 2695045.862935471 ; 2.0206929070623073E8 ; 3.742685783293498E8 ; 2.7344610090845497E10 ; 0.0
145 ; 2697673.8664732366 ; 2.0208090265836626E8 ; 3.769636241922853E8 ; 2.7546679381551727E10 ; 0.0
146 ; 2691938.945817633 ; 2.0209248102901915E8 ; 3.7966129805875856E8 ; 2.7748760284210094E10 ; 0.0
147 ; 2687340.9279574547 ; 2.02104025591509E8 ; 3.823532370045762E8 ; 2.7950852765239113E10 ; 0.0
148 ; 2683441.4354566885 ; 2.021155361199761E8 ; 3.850405779325337E8 ; 2.8152956790830624E10 ; 0.0
149 ; 2679776.7753935773 ; 2.0212701238937914E8 ; 3.877240193679904E8 ; 2.83550723269506E10 ; 0.0
150 ; 2676311.1272602896 ; 2.0213845417549372E8 ; 3.90403796143384E8 ; 2.8557199339339977E10 ; 0.0
151 ; 2671297.4658055427 ; 2.0214986125491068E8 ; 3.9308010727064425E8 ; 2.8759337793515472E10 ; 0.0
152 ; 2670336.8929058933 ; 2.021612334050351E8 ; 3.957514047364498E8 ; 2.8961487654770382E10 ; 0.0
153 ; 2661429.213256864 ; 2.0217257040408513E8 ; 3.9842174162935567E8 ; 2.916364888817542E10 ; 0.0
154 ; 2663014.2809417564 ; 2.0218387203109106E8 ; 4.010831708426125E8 ; 2.9365821458579502E10 ; 0.0
155 ; 2657214.1329074963 ; 2.0219513806589487E8 ; 4.037461851235543E8 ; 2.956800533061059E10 ; 0.0
156 ; 2651691.7920508482 ; 2.022063682891497E8 ; 4.064033992564618E8 ; 2.9770200468676487E10 ; 0.0
157 ; 2655860.884088157 ; 2.0221756248231944E8 ; 4.0905509104851264E8 ; 2.9972406836965637E10 ; 0.0
158 ; 2645093.7357084267 ; 2.0222872042767885E8 ; 4.117109519326008E8 ; 3.0174624399447956E10 ; 0.0
159 ; 2645166.1322572078 ; 2.022398419083134E8 ; 4.143560456683092E8 ; 3.0376853119875633E10 ; 0.0
160 ; 2637537.74923161 ; 2.0225092670811945E8 ; 4.1700121180056643E8 ; 3.0579092961783947E10 ; 0.0
161 ; 2638093.067335419 ; 2.0226197461180478E8 ; 4.196387495497981E8 ; 3.0781343888492065E10 ; 0.0
162 ; 2632642.1821860364 ; 2.0227298540488875E8 ; 4.222768426171335E8 ; 3.098360586310387E10 ; 0.0
163 ; 2627953.253205229 ; 2.022839588737031E8 ; 4.249094847993195E8 ; 3.118587884850876E10 ; 0.0
164 ; 2624773.803742422 ; 2.0229489480539256E8 ; 4.2753743805252475E8 ; 3.138816280738246E10 ; 0.0
165 ; 2620506.2784581413 ; 2.0230579298791564E8 ; 4.3016221185626715E8 ; 3.1590457702187855E10 ; 0.0
166 ; 2614381.0434345626 ; 2.023166532100456E8 ; 4.327827181347253E8 ; 3.179276349517577E10 ; 0.0
167 ; 2609687.933931359 ; 2.0232747526137152E8 ; 4.3539709917815983E8 ; 3.1995080148385815E10 ; 0.0
168 ; 2608145.7177986046 ; 2.023382589322993E8 ; 4.380067871120912E8 ; 3.2197407623647186E10 ; 0.0
169 ; 2604925.6453919173 ; 2.0234900401405287E8 ; 4.406149328298898E8 ; 3.2399745882579487E10 ; 0.0
170 ; 2597431.9158882783 ; 2.0235971029867566E8 ; 4.432198584752817E8 ; 3.260209488659354E10 ; 0.0
171 ; 2596784.0178135755 ; 2.0237037757903185E8 ; 4.4581729039116997E8 ; 3.2804454596892216E10 ; 0.0
172 ; 2590052.2068294557 ; 2.023810056488078E8 ; 4.484140744089835E8 ; 3.300682497447125E10 ; 0.0
173 ; 2588290.7803300703 ; 2.0239159430251366E8 ; 4.5100412661581296E8 ; 3.3209205980120056E10 ; 0.0
174 ; 2587359.315402028 ; 2.02402143335485E8 ; 4.53592417396143E8 ; 3.341159757442257E10 ; 0.0
175 ; 2582778.9943331126 ; 2.0241265254388443E8 ; 4.5617977671154505E8 ; 3.3613999717758053E10 ; 0.0
176 ; 2579917.2616079147 ; 2.0242312172470325E8 ; 4.5876255570587814E8 ; 3.3816412370301937E10 ; 0.0
177 ; 2575855.8563669045 ; 2.0243355067576352E8 ; 4.61342472967486E8 ; 3.401883549202664E10 ; 0.0
178 ; 2572285.150480488 ; 2.0244393919571963E8 ; 4.6391832882385296E8 ; 3.4221269042702404E10 ; 0.0
179 ; 2570917.269334622 ; 2.0245428708406034E8 ; 4.6649061397433347E8 ; 3.4423712981898125E10 ; 0.0
180 ; 2570889.8733428214 ; 2.0246459414111078E8 ; 4.690615312436681E8 ; 3.4626167268982185E10 ; 0.0
181 ; 2569671.1330266465 ; 2.0247486016803432E8 ; 4.716324211170109E8 ; 3.48286318631233E10 ; 0.0
182 ; 2562183.837480365 ; 2.0248508496683478E8 ; 4.7420209225003755E8 ; 3.5031106723291336E10 ; 0.0
183 ; 2560370.5442989077 ; 2.024952683403585E8 ; 4.767642760875179E8 ; 3.523359180825817E10 ; 0.0
184 ; 2560014.1195578133 ; 2.025054100922963E8 ; 4.793246466318168E8 ; 3.5436087076598526E10 ; 0.0
185 ; 2554740.6022262806 ; 2.0251551002718598E8 ; 4.818846607513746E8 ; 3.563859248669082E10 ; 0.0
186 ; 2554295.082282575 ; 2.025255679504142E8 ; 4.8443940135360086E8 ; 3.5841107996718E10 ; 0.0
187 ; 2557374.0019113533 ; 2.02535583668219E8 ; 4.8699369643588346E8 ; 3.604363356466842E10 ; 0.0
188 ; 2549512.0121274367 ; 2.025455569876919E8 ; 4.895510704377948E8 ; 3.624616914833664E10 ; 0.0
189 ; 2547430.0854702163 ; 2.0255548771678036E8 ; 4.9210058244992226E8 ; 3.644871470532433E10 ; 0.0
190 ; 2540978.4005750567 ; 2.0256537566428995E8 ; 4.9464801253539246E8 ; 3.6651270193041115E10 ; 0.0
191 ; 2541853.4358606962 ; 2.0257522063988686E8 ; 4.971889909359675E8 ; 3.685383556870541E10 ; 0.0
192 ; 2538379.7560699293 ; 2.0258502245410022E8 ; 4.997308443718282E8 ; 3.705641078934529E10 ; 0.0
193 ; 2537914.2179573867 ; 2.025947809183246E8 ; 5.0226922412789816E8 ; 3.725899581179939E10 ; 0.0
194 ; 2535265.4900502376 ; 2.0260449584482232E8 ; 5.0480713834585553E8 ; 3.746159059271772E10 ; 0.0
195 ; 2531970.3862144626 ; 2.0261416704672602E8 ; 5.073424038359058E8 ; 3.7664195088562546E10 ; 0.0
196 ; 2528286.942175288 ; 2.026237943380411E8 ; 5.098743742221202E8 ; 3.786680925560927E10 ; 0.0
197 ; 2525721.4303038116 ; 2.0263337753364813E8 ; 5.124026611642955E8 ; 3.806943304994731E10 ; 0.0
198 ; 2525959.0638407734 ; 2.026429164493056E8 ; 5.149283825945993E8 ; 3.827206642748096E10 ; 0.0
199 ; 2522528.093035118 ; 2.0265241090165216E8 ; 5.1745434165844005E8 ; 3.847470934393026E10 ; 0.0
