CSV File for the City 6 on Day 363
1 - Minute m 
2 - Power Consumed at minute m 
3 - Power Produced at minute m 
4 - Energy Consumed since the beginning of the day 
5 - Energy Produced since the beginning of the day 
6 - Energy Lost since the beginning of the day on lines starting from the city
 
0 ; 1.113853752353813E7 ; 1.0580495420463905E8 ; 0.0 ; 0.0 ; 0.0
1 ; 1.1152118179520518E7 ; 1.0595543083311677E8 ; 1.113853752353813E7 ; 1.0580495420463905E8 ; 0.0
2 ; 1.1164851573582474E7 ; 1.0641493362601873E8 ; 2.2290655703058645E7 ; 2.1176038503775582E8 ; 0.0
3 ; 1.1176500126104234E7 ; 1.0718346914679188E8 ; 3.345550727664112E7 ; 3.1817531866377455E8 ; 0.0
4 ; 1.1192764663774561E7 ; 1.0826104333699447E8 ; 4.463200740274535E7 ; 4.253587878105664E8 ; 0.0
5 ; 1.1212919680914164E7 ; 1.0964766146388352E8 ; 5.5824772066519916E7 ; 5.336198311475609E8 ; 0.0
6 ; 1.1237839504148487E7 ; 1.1134332807246605E8 ; 6.703769174743408E7 ; 6.432674926114445E8 ; 0.0
7 ; 1.127787273672126E7 ; 1.1334804694299394E8 ; 7.827553125158256E7 ; 7.546108206839105E8 ; 0.0
8 ; 1.1326879412339257E7 ; 1.156618210548076E8 ; 8.955340398830383E7 ; 8.679588676269045E8 ; 0.0
9 ; 1.1411652603727944E7 ; 1.182846525573231E8 ; 1.0088028340064308E8 ; 9.836206886817122E8 ; 0.0
10 ; 1.153740267978652E7 ; 1.2121654274881697E8 ; 1.1229193600437102E8 ; 1.1019053412390351E9 ; 0.0
11 ; 1.1733565127511315E7 ; 1.2445749206349596E8 ; 1.2382933868415754E8 ; 1.223121883987852E9 ; 0.0
12 ; 1.2049325064605663E7 ; 1.280075000671533E8 ; 1.3556290381166884E8 ; 1.347579376051348E9 ; 0.0
13 ; 1.2352291719912745E7 ; 1.3186656546151245E8 ; 1.476122288762745E8 ; 1.4755868761185012E9 ; 0.0
14 ; 1.2389554408734895E7 ; 1.3603468609715742E8 ; 1.5996452059618723E8 ; 1.6074534415800138E9 ; 0.0
15 ; 1.2403729100351863E7 ; 1.405118589947477E8 ; 1.7235407500492212E8 ; 1.7434881276771712E9 ; 0.0
16 ; 1.2419288758069098E7 ; 1.452980803740315E8 ; 1.84757804105274E8 ; 1.8839999866719189E9 ; 0.0
17 ; 1.2432542503883094E7 ; 1.5039334569000176E8 ; 1.971770928633431E8 ; 2.0292980670459504E9 ; 0.0
18 ; 1.2445769291850796E7 ; 1.5579764967540145E8 ; 2.0960963536722618E8 ; 2.1796914127359524E9 ; 0.0
19 ; 1.2458804936444156E7 ; 1.6151098638867232E8 ; 2.22055404659077E8 ; 2.335489062411354E9 ; 0.0
20 ; 1.2474224512922639E7 ; 1.675333492663674E8 ; 2.3451420959552115E8 ; 2.4970000488000264E9 ; 0.0
21 ; 1.248369023884279E7 ; 1.738647311790031E8 ; 2.469884341084438E8 ; 2.664533398066394E9 ; 0.0
22 ; 1.250172549708217E7 ; 1.8050512448932028E8 ; 2.5947212434728658E8 ; 2.838398129245397E9 ; 0.0
23 ; 1.2514864038277796E7 ; 1.8745452111194485E8 ; 2.7197384984436876E8 ; 3.0189032537347174E9 ; 0.0
24 ; 1.2534505753353788E7 ; 1.9471291257348853E8 ; 2.8448871388264656E8 ; 3.206357774846662E9 ; 0.0
25 ; 1.254570619480055E7 ; 2.0096833097038582E8 ; 2.9702321963600034E8 ; 3.4010706874201508E9 ; 0.0
26 ; 1.256326760567312E7 ; 2.009743150641997E8 ; 3.095689258308009E8 ; 3.602039018390537E9 ; 0.0
27 ; 1.2571369472677574E7 ; 2.0098062486299524E8 ; 3.22132193436474E8 ; 3.8030133334547367E9 ; 0.0
28 ; 1.2586428041414883E7 ; 2.0098725092205754E8 ; 3.347035629091516E8 ; 4.003993958317732E9 ; 0.0
29 ; 1.2604356501544887E7 ; 2.009941836880837E8 ; 3.472899909505665E8 ; 4.2049812092397895E9 ; 0.0
30 ; 1.261292040082257E7 ; 2.01001413546766E8 ; 3.5989434745211136E8 ; 4.405975392927874E9 ; 0.0
31 ; 1.2629264010832207E7 ; 2.0100893086675268E8 ; 3.7250726785293394E8 ; 4.60697680647464E9 ; 0.0
32 ; 1.2639997920417242E7 ; 2.0101672603982338E8 ; 3.8513653186376613E8 ; 4.8079857373413925E9 ; 0.0
33 ; 1.2656272420671847E7 ; 2.0102478951720417E8 ; 3.977765297841834E8 ; 5.009002463381216E9 ; 0.0
34 ; 1.2666712593186257E7 ; 2.010331118420233E8 ; 4.104328022048552E8 ; 5.21002725289842E9 ; 0.0
35 ; 1.2680864908658072E7 ; 2.010416836779743E8 ; 4.2309951479804146E8 ; 5.411060364740443E9 ; 0.0
36 ; 1.2688151616619334E7 ; 2.010504958343058E8 ; 4.3578037970669955E8 ; 5.612102048418418E9 ; 0.0
37 ; 1.2700826934190823E7 ; 2.01059539287301E8 ; 4.484685313233189E8 ; 5.813152544252724E9 ; 0.0
38 ; 1.2708402319472441E7 ; 2.010688051984421E8 ; 4.611693582575097E8 ; 6.014212083540025E9 ; 0.0
39 ; 1.2721245869468851E7 ; 2.010782849294767E8 ; 4.7387776057698214E8 ; 6.215280888738467E9 ; 0.0
40 ; 1.2732153222019972E7 ; 2.0108797005462018E8 ; 4.86599006446451E8 ; 6.416359173667944E9 ; 0.0
41 ; 1.2741377057166731E7 ; 2.0109785237013346E8 ; 4.99331159668471E8 ; 6.617447143722564E9 ; 0.0
42 ; 1.2745523426262593E7 ; 2.0110792390151927E8 ; 5.1207253672563773E8 ; 6.818544996092697E9 ; 0.0
43 ; 1.2756293727001505E7 ; 2.0111817690857515E8 ; 5.2481806015190035E8 ; 7.019652919994216E9 ; 0.0
44 ; 1.2768036700924767E7 ; 2.0112860388853568E8 ; 5.375743538789018E8 ; 7.220771096902791E9 ; 0.0
45 ; 1.277249915895418E7 ; 2.0113919757752535E8 ; 5.503423905798266E8 ; 7.4218997007913265E9 ; 0.0
46 ; 1.2778422910408342E7 ; 2.0114995095053175E8 ; 5.631148897387807E8 ; 7.623038898368852E9 ; 0.0
47 ; 1.2784161159072854E7 ; 2.0116085722009546E8 ; 5.758933126491891E8 ; 7.824188849319384E9 ; 0.0
48 ; 1.2787888915065916E7 ; 2.011719098338972E8 ; 5.88677473808262E8 ; 8.025349706539479E9 ; 0.0
49 ; 1.279343888808122E7 ; 2.011831024714094E8 ; 6.014653627233279E8 ; 8.226521616373377E9 ; 0.0
50 ; 1.2798931624582252E7 ; 2.011944290397633E8 ; 6.142588016114091E8 ; 8.427704718844787E9 ; 0.0
51 ; 1.2800282269305604E7 ; 2.0120588366896793E8 ; 6.270577332359914E8 ; 8.62889914788455E9 ; 0.0
52 ; 1.2802015127027506E7 ; 2.012174607066047E8 ; 6.39858015505297E8 ; 8.830105031553518E9 ; 0.0
53 ; 1.2806468464963164E7 ; 2.0122915471210542E8 ; 6.526600306323245E8 ; 9.031322492260122E9 ; 0.0
54 ; 1.2808892683012066E7 ; 2.0124096045071152E8 ; 6.654664990972877E8 ; 9.232551646972227E9 ; 0.0
55 ; 1.2815558946731491E7 ; 2.012528728871986E8 ; 6.782753917802997E8 ; 9.43379260742294E9 ; 0.0
56 ; 1.2820701124248631E7 ; 2.012648871794403E8 ; 6.910909507270311E8 ; 9.635045480310139E9 ; 0.0
57 ; 1.2823661795348447E7 ; 2.012769986718762E8 ; 7.039116518512797E8 ; 9.836310367489578E9 ; 0.0
58 ; 1.2826105340568984E7 ; 2.0128920288893822E8 ; 7.167353136466281E8 ; 1.0037587366161455E10 ; 0.0
59 ; 1.2830909661384001E7 ; 2.0130149552848297E8 ; 7.295614189871972E8 ; 1.0238876569050394E10 ; 0.0
60 ; 1.2830790871529259E7 ; 2.013138724552695E8 ; 7.423923286485811E8 ; 1.0440178064578876E10 ; 0.0
61 ; 1.2833129576561054E7 ; 2.0132632969451594E8 ; 7.552231195201104E8 ; 1.0641491937034145E10 ; 0.0
62 ; 1.2837405435345007E7 ; 2.013388634255627E8 ; 7.680562490966715E8 ; 1.084281826672866E10 ; 0.0
63 ; 1.283863760048634E7 ; 2.013514699756644E8 ; 7.808936545320165E8 ; 1.1044157130154222E10 ; 0.0
64 ; 1.2842507857438188E7 ; 2.0136414581392875E8 ; 7.937322921325029E8 ; 1.1245508600129887E10 ; 0.0
65 ; 1.2842957818225268E7 ; 2.013768875454164E8 ; 8.065747999899411E8 ; 1.1446872745943815E10 ; 0.0
66 ; 1.2847856173072118E7 ; 2.0138969190541315E8 ; 8.194177578081664E8 ; 1.1648249633489231E10 ; 0.0
67 ; 1.2842390483385326E7 ; 2.014025557538813E8 ; 8.322656139812385E8 ; 1.1849639325394644E10 ; 0.0
68 ; 1.2847943648026979E7 ; 2.0141547607009697E8 ; 8.451080044646238E8 ; 1.2051041881148525E10 ; 0.0
69 ; 1.284997409924537E7 ; 2.014284499474752E8 ; 8.579559481126508E8 ; 1.2252457357218622E10 ; 0.0
70 ; 1.285098101768912E7 ; 2.0144147458858553E8 ; 8.708059222118962E8 ; 1.2453885807166098E10 ; 0.0
71 ; 1.2857136759643327E7 ; 2.0145454730035746E8 ; 8.836569032295853E8 ; 1.2655327281754683E10 ; 0.0
72 ; 1.2853021882546995E7 ; 2.0146766548947424E8 ; 8.965140399892286E8 ; 1.285678182905504E10 ; 0.0
73 ; 1.285441564028237E7 ; 2.014808266579533E8 ; 9.093670618717756E8 ; 1.3058249494544514E10 ; 0.0
74 ; 1.2858181266781028E7 ; 2.0149402839890948E8 ; 9.22221477512058E8 ; 1.3259730321202467E10 ; 0.0
75 ; 1.2856573606824141E7 ; 2.0150726839249757E8 ; 9.35079658778839E8 ; 1.3461224349601376E10 ; 0.0
76 ; 1.2855723235700244E7 ; 2.015205444020294E8 ; 9.479362323856632E8 ; 1.3662731617993874E10 ; 0.0
77 ; 1.2861416163895434E7 ; 2.015338542702609E8 ; 9.607919556213634E8 ; 1.3864252162395903E10 ; 0.0
78 ; 1.2858762083509272E7 ; 2.015471959158438E8 ; 9.736533717852589E8 ; 1.4065786016666164E10 ; 0.0
79 ; 1.2852747803212428E7 ; 2.015605673299364E8 ; 9.865121338687682E8 ; 1.4267333212582008E10 ; 0.0
80 ; 1.2848630239847468E7 ; 2.0157396657296804E8 ; 9.993648816719806E8 ; 1.4468893779911945E10 ; 0.0
81 ; 1.2842910772782099E7 ; 2.015873917715518E8 ; 1.012213511911828E9 ; 1.4670467746484913E10 ; 0.0
82 ; 1.2842488723323453E7 ; 2.0160084111553916E8 ; 1.0250564226846101E9 ; 1.4872055138256464E10 ; 0.0
83 ; 1.283922615475406E7 ; 2.0161431285521173E8 ; 1.0378989114079336E9 ; 1.5073655979372004E10 ; 0.0
84 ; 1.283638890231172E7 ; 2.0162780529860368E8 ; 1.0507381375626876E9 ; 1.5275270292227215E10 ; 0.0
85 ; 1.2833794883443085E7 ; 2.0164131680894992E8 ; 1.0635745264649993E9 ; 1.5476898097525818E10 ; 0.0
86 ; 1.2828832067687906E7 ; 2.0165484580225432E8 ; 1.0764083213484423E9 ; 1.5678539414334768E10 ; 0.0
87 ; 1.2823676406439401E7 ; 2.016683907449728E8 ; 1.0892371534161303E9 ; 1.5880194260137022E10 ; 0.0
88 ; 1.2819393007925984E7 ; 2.0168195015180603E8 ; 1.1020608298225696E9 ; 1.6081862650881994E10 ; 0.0
89 ; 1.281650720756075E7 ; 2.016955225835969E8 ; 1.1148802228304956E9 ; 1.62835446010338E10 ; 0.0
90 ; 1.28093423558632E7 ; 2.0170910664532784E8 ; 1.1276967300380564E9 ; 1.6485240123617397E10 ; 0.0
91 ; 1.2807788484187774E7 ; 2.0172270098421317E8 ; 1.1405060723939195E9 ; 1.6686949230262726E10 ; 0.0
92 ; 1.2798292851351975E7 ; 2.0173630428788254E8 ; 1.1533138608781073E9 ; 1.6888671931246939E10 ; 0.0
93 ; 1.2797509891903235E7 ; 2.017499152826503E8 ; 1.1661121537294593E9 ; 1.709040823553482E10 ; 0.0
94 ; 1.2788688191436326E7 ; 2.0176353273186743E8 ; 1.1789096636213624E9 ; 1.729215815081747E10 ; 0.0
95 ; 1.2786018480566297E7 ; 2.0177715543435186E8 ; 1.1916983518127987E9 ; 1.749392168354934E10 ; 0.0
96 ; 1.2779637908096991E7 ; 2.0179078222289273E8 ; 1.204484370293365E9 ; 1.7695698838983692E10 ; 0.0
97 ; 1.2771392197667824E7 ; 2.018044119628263E8 ; 1.217264008201462E9 ; 1.7897489621206585E10 ; 0.0
98 ; 1.2769408492616875E7 ; 2.0181804355067855E8 ; 1.2300354003991299E9 ; 1.809929403316941E10 ; 0.0
99 ; 1.276693002159937E7 ; 2.0183167591287217E8 ; 1.2428048088917468E9 ; 1.830111207672009E10 ; 0.0
100 ; 1.276293762670622E7 ; 2.018453080044946E8 ; 1.255571738913346E9 ; 1.850294375263296E10 ; 0.0
101 ; 1.275535152789981E7 ; 2.0185893880812368E8 ; 1.2683346765400522E9 ; 1.8704789060637455E10 ; 0.0
102 ; 1.2749929053914819E7 ; 2.0187256733270857E8 ; 1.281090028067952E9 ; 1.890664799944558E10 ; 0.0
103 ; 1.274025453556017E7 ; 2.0188619261250296E8 ; 1.2938399571218667E9 ; 1.910852056677829E10 ; 0.0
104 ; 1.273358209470445E7 ; 2.0189981370604795E8 ; 1.3065802116574268E9 ; 1.9310406759390793E10 ; 0.0
105 ; 1.272743719683468E7 ; 2.0191342969520238E8 ; 1.3193137937521312E9 ; 1.951230657309684E10 ; 0.0
106 ; 1.2720973646666897E7 ; 2.0192703968421784E8 ; 1.3320412309489658E9 ; 1.971422000279204E10 ; 0.0
107 ; 1.2714808192464747E7 ; 2.0194064279885656E8 ; 1.3447622045956328E9 ; 1.991614704247626E10 ; 0.0
108 ; 1.2706567390856454E7 ; 2.0195423818555E8 ; 1.3574770127880976E9 ; 2.0118087685275116E10 ; 0.0
109 ; 1.2702837503092047E7 ; 2.019678250105958E8 ; 1.3701835801789541E9 ; 2.0320041923460667E10 ; 0.0
110 ; 1.2696242826907024E7 ; 2.019814024593915E8 ; 1.3828864176820462E9 ; 2.0522009748471264E10 ; 0.0
111 ; 1.2689544907765146E7 ; 2.019949697357033E8 ; 1.395582660508953E9 ; 2.0723991150930656E10 ; 0.0
112 ; 1.2679817249063572E7 ; 2.020085260609677E8 ; 1.4082722054167182E9 ; 2.092598612066636E10 ; 0.0
113 ; 1.2675413994051553E7 ; 2.020220706736251E8 ; 1.4209520226657817E9 ; 2.1127994646727325E10 ; 0.0
114 ; 1.2666150264473567E7 ; 2.0203560282848284E8 ; 1.4336274366598332E9 ; 2.133001671740095E10 ; 0.0
115 ; 1.26613090823963E7 ; 2.020491217961073E8 ; 1.4462935869243069E9 ; 2.1532052320229435E10 ; 0.0
116 ; 1.2652180387019219E7 ; 2.020626268622427E8 ; 1.4589548960067031E9 ; 2.1734101442025543E10 ; 0.0
117 ; 1.2644184289783847E7 ; 2.0207611732725626E8 ; 1.4716070763937223E9 ; 2.1936164068887787E10 ; 0.0
118 ; 1.2640408457715E7 ; 2.0208959250560728E8 ; 1.4842512606835063E9 ; 2.2138240186215042E10 ; 0.0
119 ; 1.2625713682559412E7 ; 2.021030517253401E8 ; 1.4968916691412213E9 ; 2.234032977872065E10 ; 0.0
120 ; 1.2619954478690708E7 ; 2.0211649432759914E8 ; 1.5095173828237808E9 ; 2.254243283044599E10 ; 0.0
121 ; 1.2609464474452183E7 ; 2.0212991966616508E8 ; 1.5221373373024714E9 ; 2.274454932477359E10 ; 0.0
122 ; 1.2604296157336712E7 ; 2.0214332710701138E8 ; 1.5347468017769237E9 ; 2.2946679244439754E10 ; 0.0
123 ; 1.2592820857571797E7 ; 2.0215671602787974E8 ; 1.5473510979342604E9 ; 2.3148822571546764E10 ; 0.0
124 ; 1.2586127287782129E7 ; 2.0217008581787428E8 ; 1.5599439187918322E9 ; 2.3350979287574646E10 ; 0.0
125 ; 1.2575164853507932E7 ; 2.0218343587707266E8 ; 1.5725300460796144E9 ; 2.355314937339252E10 ; 0.0
126 ; 1.2570539685753934E7 ; 2.0219676561615425E8 ; 1.5851052109331224E9 ; 2.3755332809269592E10 ; 0.0
127 ; 1.2556047538550492E7 ; 2.0221007445604384E8 ; 1.5976757506188762E9 ; 2.3957529574885746E10 ; 0.0
128 ; 1.2549781923928576E7 ; 2.0222336182757053E8 ; 1.6102317981574266E9 ; 2.415973964934179E10 ; 0.0
129 ; 1.2541615829291105E7 ; 2.0223662717114112E8 ; 1.622781580081355E9 ; 2.436196301116936E10 ; 0.0
130 ; 1.2530758469821712E7 ; 2.0224986993642706E8 ; 1.6353231959106462E9 ; 2.4564199638340504E10 ; 0.0
131 ; 1.2515829936087945E7 ; 2.022630895820645E8 ; 1.647853954380468E9 ; 2.476644950827693E10 ; 0.0
132 ; 1.250444781084245E7 ; 2.022762855753671E8 ; 1.6603697843165557E9 ; 2.4968712597858997E10 ; 0.0
133 ; 1.2490994750760725E7 ; 2.0228945739205012E8 ; 1.6728742321273983E9 ; 2.5170988883434364E10 ; 0.0
134 ; 1.247902963189088E7 ; 2.0230260451596665E8 ; 1.685365226878159E9 ; 2.5373278340826416E10 ; 0.0
135 ; 1.2463296272144062E7 ; 2.023157264388542E8 ; 1.6978442565100498E9 ; 2.5575580945342384E10 ; 0.0
136 ; 1.2448497077319875E7 ; 2.0232882266009164E8 ; 1.710307552782194E9 ; 2.577789667178124E10 ; 0.0
137 ; 1.2437048715689937E7 ; 2.0234189268646634E8 ; 1.7227560498595138E9 ; 2.598022549444133E10 ; 0.0
138 ; 1.2422186432303373E7 ; 2.023549360319504E8 ; 1.7351930985752037E9 ; 2.6182567387127796E10 ; 0.0
139 ; 1.2405669154484004E7 ; 2.0236795221748632E8 ; 1.747615285007507E9 ; 2.6384922323159748E10 ; 0.0
140 ; 1.239324909091854E7 ; 2.0238094077078074E8 ; 1.7600209541619911E9 ; 2.6587290275377235E10 ; 0.0
141 ; 1.2379331576200092E7 ; 2.023939012261069E8 ; 1.7724142032529097E9 ; 2.6789671216148018E10 ; 0.0
142 ; 1.236453969542723E7 ; 2.0240683312411487E8 ; 1.7847935348291097E9 ; 2.6992065117374126E10 ; 0.0
143 ; 1.2351421729355196E7 ; 2.0241973601164907E8 ; 1.7971580745245368E9 ; 2.719447195049824E10 ; 0.0
144 ; 1.2338501785195613E7 ; 2.0243260944157332E8 ; 1.809509496253892E9 ; 2.739689168650989E10 ; 0.0
145 ; 1.232861319920507E7 ; 2.024454529726025E8 ; 1.8218479980390875E9 ; 2.7599324295951466E10 ; 0.0
146 ; 1.231553267803839E7 ; 2.02458266169141E8 ; 1.8341766112382927E9 ; 2.780176974892407E10 ; 0.0
147 ; 1.2309238747898895E7 ; 2.024710486011274E8 ; 1.846492143916331E9 ; 2.800422801509321E10 ; 0.0
148 ; 1.2296414753399093E7 ; 2.0248379984388512E8 ; 1.8588013826642299E9 ; 2.8206699063694336E10 ; 0.0
149 ; 1.2286587921953136E7 ; 2.0249651947797897E8 ; 1.871097797417629E9 ; 2.840918286353822E10 ; 0.0
150 ; 1.227537322703512E7 ; 2.0250920708907714E8 ; 1.8833843853395822E9 ; 2.8611679383016197E10 ; 0.0
151 ; 1.2264774011009885E7 ; 2.0252186226781845E8 ; 1.8956597585666173E9 ; 2.8814188590105274E10 ; 0.0
152 ; 1.2256726286746617E7 ; 2.025344846096849E8 ; 1.9079245325776272E9 ; 2.9016710452373093E10 ; 0.0
153 ; 1.2246830855980432E7 ; 2.0254707371487868E8 ; 1.9201812588643737E9 ; 2.9219244936982777E10 ; 0.0
154 ; 1.223443074290827E7 ; 2.025596291882043E8 ; 1.932428089720354E9 ; 2.9421792010697655E10 ; 0.0
155 ; 1.2225407213890163E7 ; 2.025721506389547E8 ; 1.9446625204632623E9 ; 2.962435163988586E10 ; 0.0
156 ; 1.2216313428302238E7 ; 2.0258463768080214E8 ; 1.9568879276771524E9 ; 2.9826923790524815E10 ; 0.0
157 ; 1.2202381467014896E7 ; 2.0259708993169278E8 ; 1.9691042411054547E9 ; 3.0029508428205616E10 ; 0.0
158 ; 1.2195243684702247E7 ; 2.0260950701374537E8 ; 1.9813066225724695E9 ; 3.023210551813731E10 ; 0.0
159 ; 1.2184507964448676E7 ; 2.026218885531537E8 ; 1.9935018662571716E9 ; 3.0434715025151054E10 ; 0.0
160 ; 1.2170748819551622E7 ; 2.026342341800926E8 ; 2.0056863742216203E9 ; 3.063733691370421E10 ; 0.0
161 ; 1.2160180944667703E7 ; 2.0264654352862766E8 ; 2.017857123041172E9 ; 3.08399711478843E10 ; 0.0
162 ; 1.2156017878085405E7 ; 2.0265881623662782E8 ; 2.0300173039858398E9 ; 3.104261769141293E10 ; 0.0
163 ; 1.213952325402846E7 ; 2.0267105194568154E8 ; 2.0421733218639252E9 ; 3.124527650764956E10 ; 0.0
164 ; 1.2129760801544275E7 ; 2.0268325030101603E8 ; 2.0543128451179538E9 ; 3.144794755959524E10 ; 0.0
165 ; 1.2119472040491806E7 ; 2.0269541095141914E8 ; 2.066442605919498E9 ; 3.165063080989626E10 ; 0.0
166 ; 1.2106354712608399E7 ; 2.0270753354916438E8 ; 2.0785620779599898E9 ; 3.185332622084768E10 ; 0.0
167 ; 1.2094495832125805E7 ; 2.0271961774993846E8 ; 2.0906684326725981E9 ; 3.2056033754396843E10 ; 0.0
168 ; 1.2085858938127613E7 ; 2.0273166321277153E8 ; 2.102762928504724E9 ; 3.2258753372146782E10 ; 0.0
169 ; 1.2074365166352412E7 ; 2.0274366959997007E8 ; 2.1148487874428515E9 ; 3.2461485035359554E10 ; 0.0
170 ; 1.2066428525255578E7 ; 2.0275563657705176E8 ; 2.126923152609204E9 ; 3.2664228704959526E10 ; 0.0
171 ; 1.2054751435189037E7 ; 2.0276756381268317E8 ; 2.1389895811344597E9 ; 3.286698434153658E10 ; 0.0
172 ; 1.2043107597125443E7 ; 2.0277945097861937E8 ; 2.1510443325696487E9 ; 3.3069751905349262E10 ; 0.0
173 ; 1.2031526838558316E7 ; 2.0279129774964577E8 ; 2.1630874401667743E9 ; 3.327253135632788E10 ; 0.0
174 ; 1.2023592286373118E7 ; 2.0280310380352208E8 ; 2.1751189670053325E9 ; 3.3475322654077526E10 ; 0.0
175 ; 1.2015655035337145E7 ; 2.0281486882092807E8 ; 2.1871425592917056E9 ; 3.3678125757881046E10 ; 0.0
176 ; 1.2007951220221741E7 ; 2.028265924854115E8 ; 2.1991582143270426E9 ; 3.3880940626701973E10 ; 0.0
177 ; 1.2005974991393598E7 ; 2.0283827448333755E8 ; 2.211166165547264E9 ; 3.4083767219187386E10 ; 0.0
178 ; 1.199399198412729E7 ; 2.028499145038405E8 ; 2.2231721405386577E9 ; 3.4286605493670723E10 ; 0.0
179 ; 1.1989063895112753E7 ; 2.028615122387765E8 ; 2.235166132522785E9 ; 3.448945540817456E10 ; 0.0
180 ; 1.1980735860416079E7 ; 2.0287306738267848E8 ; 2.247155196417898E9 ; 3.469231692041334E10 ; 0.0
181 ; 1.1979714448694684E7 ; 2.028845796327124E8 ; 2.259135932278314E9 ; 3.489518998779601E10 ; 0.0
182 ; 1.1969578030114468E7 ; 2.0289604868863508E8 ; 2.271115646727009E9 ; 3.509807456742873E10 ; 0.0
183 ; 1.1959095069425818E7 ; 2.0290747425275347E8 ; 2.2830852247571235E9 ; 3.530097061611736E10 ; 0.0
184 ; 1.1955549630748346E7 ; 2.0291885602988526E8 ; 2.295044319826549E9 ; 3.550387809037012E10 ; 0.0
185 ; 1.1950523896740178E7 ; 2.0293019372732103E8 ; 2.3069998694572973E9 ; 3.57067969464E10 ; 0.0
186 ; 1.1943046628053466E7 ; 2.0294148705478755E8 ; 2.3189503933540373E9 ; 3.590972714012732E10 ; 0.0
187 ; 1.193628139790949E7 ; 2.029527357244123E8 ; 2.330893439982091E9 ; 3.6112668627182106E10 ; 0.0
188 ; 1.1926946586787477E7 ; 2.0296393945068944E8 ; 2.3428297213800006E9 ; 3.631562136290652E10 ; 0.0
189 ; 1.1922327266413191E7 ; 2.029750979504466E8 ; 2.3547566679667883E9 ; 3.651858530235721E10 ; 0.0
190 ; 1.1915660879073264E7 ; 2.0298621094281325E8 ; 2.3666789952332015E9 ; 3.6721560400307655E10 ; 0.0
191 ; 1.1908429533344932E7 ; 2.0299727814918956E8 ; 2.3785946561122746E9 ; 3.6924546611250465E10 ; 0.0
192 ; 1.1900977678091675E7 ; 2.03008299293217E8 ; 2.3905030856456194E9 ; 3.712754388939966E10 ; 0.0
193 ; 1.1894214561875105E7 ; 2.030192741007493E8 ; 2.402404063323711E9 ; 3.733055218869288E10 ; 0.0
194 ; 1.1884233761328643E7 ; 2.0303020229982486E8 ; 2.414298277885586E9 ; 3.7533571462793625E10 ; 0.0
195 ; 1.188147201593993E7 ; 2.030410836206399E8 ; 2.4261825116469145E9 ; 3.773660166509345E10 ; 0.0
