CSV File for the City 2 on Day 82
1 - Minute m 
2 - Power Consumed at minute m 
3 - Power Produced at minute m 
4 - Energy Consumed since the beginning of the day 
5 - Energy Produced since the beginning of the day 
6 - Energy Lost since the beginning of the day on lines starting from the city
 
0 ; 1785244.9165044145 ; 1.0525009931874385E8 ; 0.0 ; 0.0 ; 0.0
1 ; 1786708.663875602 ; 1.0540407441851503E8 ; 1785244.9165044145 ; 1.0525009931874385E8 ; 0.0
2 ; 1788896.045030992 ; 1.058667266806468E8 ; 3571953.5803800165 ; 2.1065417373725888E8 ; 0.0
3 ; 1790887.2775923081 ; 1.0663805650236017E8 ; 5360849.6254110085 ; 3.165209004179057E8 ; 0.0
4 ; 1795005.2947675672 ; 1.0771806424001622E8 ; 7151736.903003316 ; 4.2315895692026585E8 ; 0.0
5 ; 1797774.4250428572 ; 1.0910675020701396E8 ; 8946742.197770884 ; 5.308770211602821E8 ; 0.0
6 ; 1800054.6331342754 ; 1.1080411467190292E8 ; 1.074451662281374E7 ; 6.39983771367296E8 ; 0.0
7 ; 1807971.3991969218 ; 1.1281015785673875E8 ; 1.2544571255948016E7 ; 7.507878860391989E8 ; 0.0
8 ; 1817344.3774204184 ; 1.151248799357025E8 ; 1.4352542655144937E7 ; 8.635980438959377E8 ; 0.0
9 ; 1831689.8068836587 ; 1.1774828103400588E8 ; 1.6169887032565355E7 ; 9.787229238316402E8 ; 0.0
10 ; 1852088.138685217 ; 1.2068036122709692E8 ; 1.8001576839449015E7 ; 1.0964712048656461E9 ; 0.0
11 ; 1886572.362700756 ; 1.2392112054017875E8 ; 1.985366497813423E7 ; 1.217151566092743E9 ; 0.0
12 ; 1940659.7967368083 ; 1.274705589480482E8 ; 2.1740237340834986E7 ; 1.3410726866329217E9 ; 0.0
13 ; 1991497.9082264148 ; 1.3132867637525725E8 ; 2.3680897137571793E7 ; 1.4685432455809698E9 ; 0.0
14 ; 1997806.649256807 ; 1.354954726965943E8 ; 2.567239504579821E7 ; 1.599871921956227E9 ; 0.0
15 ; 2000261.8009596153 ; 1.3997094773787814E8 ; 2.7670201695055015E7 ; 1.7353673946528213E9 ; 0.0
16 ; 2001881.8347365137 ; 1.4475510127705327E8 ; 2.9670463496014632E7 ; 1.8753383423906994E9 ; 0.0
17 ; 2004962.3154860493 ; 1.4984793304557005E8 ; 3.1672345330751147E7 ; 2.0200934436677527E9 ; 0.0
18 ; 2008618.6049656272 ; 1.5524944273002952E8 ; 3.3677307646237195E7 ; 2.1699413767133226E9 ; 0.0
19 ; 2011634.7551665045 ; 1.6095962997407058E8 ; 3.568592625120282E7 ; 2.325190819443352E9 ; 0.0
20 ; 2012477.8757419568 ; 1.669784943804722E8 ; 3.769756100636932E7 ; 2.486150449417423E9 ; 0.0
21 ; 2015629.741300216 ; 1.7330603551344332E8 ; 3.971003888211128E7 ; 2.653128943797895E9 ; 0.0
22 ; 2018843.324575663 ; 1.799422529010703E8 ; 4.17256686234115E7 ; 2.8264349793113384E9 ; 0.0
23 ; 2019551.457995306 ; 1.8688714603789204E8 ; 4.374451194798716E7 ; 3.0063772322124085E9 ; 0.0
24 ; 2021857.6860972086 ; 1.941407143875711E8 ; 4.5764063405982465E7 ; 3.1932643782503004E9 ; 0.0
25 ; 2025330.809988073 ; 2.0039099828381526E8 ; 4.778592109207968E7 ; 3.3874050926378717E9 ; 0.0
26 ; 2028163.2691607852 ; 2.0039154497004744E8 ; 4.981125190206775E7 ; 3.587796090921687E9 ; 0.0
27 ; 2031358.394086221 ; 2.003921231270929E8 ; 5.1839415171228535E7 ; 3.7881876358917346E9 ; 0.0
28 ; 2033853.197393364 ; 2.003927321227179E8 ; 5.3870773565314755E7 ; 3.9885797590188274E9 ; 0.0
29 ; 2035989.1909412541 ; 2.0039337130760077E8 ; 5.590462676270812E7 ; 4.1889724911415453E9 ; 0.0
30 ; 2036496.0237383707 ; 2.0039404001799473E8 ; 5.794061595364937E7 ; 4.389365862449146E9 ; 0.0
31 ; 2038456.4024522733 ; 2.003947375783097E8 ; 5.997711197738774E7 ; 4.589759902467141E9 ; 0.0
32 ; 2042758.7561413327 ; 2.0039546330359602E8 ; 6.201556837984002E7 ; 4.790154640045451E9 ; 0.0
33 ; 2043894.2078138948 ; 2.0039621650191674E8 ; 6.405832713598135E7 ; 4.990550103349047E9 ; 0.0
34 ; 2045770.0712797958 ; 2.0039699647659737E8 ; 6.610222134379525E7 ; 5.190946319850964E9 ; 0.0
35 ; 2046898.8684577295 ; 2.0039780252834475E8 ; 6.814799141507505E7 ; 5.391343316327561E9 ; 0.0
36 ; 2050094.4413492675 ; 2.0039863395722833E8 ; 7.019489028353278E7 ; 5.5917411188559065E9 ; 0.0
37 ; 2052620.8172820362 ; 2.003994900645206E8 ; 7.224498472488205E7 ; 5.792139752813135E9 ; 0.0
38 ; 2053767.667985827 ; 2.0040037015439427E8 ; 7.429760554216409E7 ; 5.992539242877656E9 ; 0.0
39 ; 2055807.1017686217 ; 2.0040127353547642E8 ; 7.635137321014991E7 ; 6.19293961303205E9 ; 0.0
40 ; 2056131.2641327821 ; 2.0040219952226076E8 ; 7.840718031191854E7 ; 6.393340886567527E9 ; 0.0
41 ; 2059214.5506670803 ; 2.0040314743638125E8 ; 8.046331157605132E7 ; 6.5937430860897875E9 ; 0.0
42 ; 2061011.360364846 ; 2.004041166077508E8 ; 8.25225261267184E7 ; 6.794146233526169E9 ; 0.0
43 ; 2061964.7819441492 ; 2.0040510637557018E8 ; 8.458353748708324E7 ; 6.99455035013392E9 ; 0.0
44 ; 2063212.195266862 ; 2.0040611608921278E8 ; 8.66455022690274E7 ; 7.19495545650949E9 ; 0.0
45 ; 2063961.9029924679 ; 2.0040714510899156E8 ; 8.870871446429425E7 ; 7.395361572598702E9 ; 0.0
46 ; 2064121.3897098107 ; 2.0040819280681512E8 ; 9.077267636728673E7 ; 7.595768717707694E9 ; 0.0
47 ; 2067204.452867437 ; 2.0040925856673953E8 ; 9.283679775699654E7 ; 7.796176910514509E9 ; 0.0
48 ; 2067865.459947729 ; 2.004103417854233E8 ; 9.490400220986398E7 ; 7.996586169081248E9 ; 0.0
49 ; 2068584.5396872326 ; 2.0041144187249276E8 ; 9.697186766981171E7 ; 8.196996510866672E9 ; 0.0
50 ; 2068488.5085302056 ; 2.0041255825082475E8 ; 9.904045220949894E7 ; 8.397407952739164E9 ; 0.0
51 ; 2069985.2793437906 ; 2.0041369035675377E8 ; 1.0110894071802914E8 ; 8.597820510989988E9 ; 0.0
52 ; 2072472.697472209 ; 2.0041483764021018E8 ; 1.0317892599737293E8 ; 8.798234201346743E9 ; 0.0
53 ; 2071601.2787240807 ; 2.004159995647964E8 ; 1.0525139869484514E8 ; 8.998649038986954E9 ; 0.0
54 ; 2072127.4756034815 ; 2.0041717560780677E8 ; 1.0732299997356921E8 ; 9.19906503855175E9 ; 0.0
55 ; 2072283.3087233782 ; 2.0041836526019752E8 ; 1.0939512744917269E8 ; 9.399482214159557E9 ; 0.0
56 ; 2071912.3756555726 ; 2.0041956802651194E8 ; 1.1146741075789607E8 ; 9.599900579419754E9 ; 0.0
57 ; 2073477.898975021 ; 2.0042078342476645E8 ; 1.1353932313355164E8 ; 9.800320147446266E9 ; 0.0
58 ; 2073793.671940697 ; 2.0042201098630208E8 ; 1.1561280103252666E8 ; 1.0000740930871033E10 ; 0.0
59 ; 2075381.7315010924 ; 2.0042325025560606E8 ; 1.1768659470446736E8 ; 1.0201162941857334E10 ; 0.0
60 ; 2075511.1637123015 ; 2.004245007901075E8 ; 1.1976197643596844E8 ; 1.040158619211294E10 ; 0.0
61 ; 2076383.7609860236 ; 2.0042576215995136E8 ; 1.2183748759968075E8 ; 1.0602010692903048E10 ; 0.0
62 ; 2076037.3745899086 ; 2.0042703394775358E8 ; 1.2391387136066678E8 ; 1.0802436455063E10 ; 0.0
63 ; 2076051.240432562 ; 2.004283157483413E8 ; 1.2598990873525669E8 ; 1.1002863489010754E10 ; 0.0
64 ; 2077037.478924901 ; 2.004296071684803E8 ; 1.2806595997568925E8 ; 1.1203291804759094E10 ; 0.0
65 ; 2076602.7220634823 ; 2.0043090782659298E8 ; 1.3014299745461415E8 ; 1.1403721411927574E10 ; 0.0
66 ; 2078514.4917721448 ; 2.004322173524685E8 ; 1.3221960017667763E8 ; 1.1604152319754168E10 ; 0.0
67 ; 2078447.621937713 ; 2.0043353538696784E8 ; 1.3429811466844976E8 ; 1.1804584537106636E10 ; 0.0
68 ; 2077115.4401613888 ; 2.0043486158172506E8 ; 1.3637656229038748E8 ; 1.2005018072493605E10 ; 0.0
69 ; 2078173.7490108889 ; 2.0043619559884697E8 ; 1.3845367773054886E8 ; 1.2205452934075329E10 ; 0.0
70 ; 2078814.986592431 ; 2.0043753711061195E8 ; 1.4053185147955975E8 ; 1.2405889129674175E10 ; 0.0
71 ; 2078780.2938970164 ; 2.0043888579917E8 ; 1.426106664661522E8 ; 1.2606326666784788E10 ; 0.0
72 ; 2080647.6560777603 ; 2.0044024135624453E8 ; 1.446894467600492E8 ; 1.2806765552583958E10 ; 0.0
73 ; 2080316.881047767 ; 2.00441603482837E8 ; 1.4677009441612697E8 ; 1.3007205793940203E10 ; 0.0
74 ; 2081095.5388186823 ; 2.0044297188893548E8 ; 1.4885041129717472E8 ; 1.320764739742304E10 ; 0.0
75 ; 2080656.8941026689 ; 2.0044434629322743E8 ; 1.509315068359934E8 ; 1.3408090369311975E10 ; 0.0
76 ; 2078623.9548523992 ; 2.0044572642281768E8 ; 1.5301216373009607E8 ; 1.3608534715605204E10 ; 0.0
77 ; 2082101.6267171546 ; 2.0044711201295164E8 ; 1.5509078768494847E8 ; 1.380898044202802E10 ; 0.0
78 ; 2080090.6928150235 ; 2.004485028067449E8 ; 1.5717288931166562E8 ; 1.4009427554040972E10 ; 0.0
79 ; 2079898.8687187275 ; 2.004498985549186E8 ; 1.5925298000448066E8 ; 1.4209876056847717E10 ; 0.0
80 ; 2079034.4231053442 ; 2.0045129901554143E8 ; 1.6133287887319937E8 ; 1.4410325955402636E10 ; 0.0
81 ; 2078717.0474594855 ; 2.0045270395377865E8 ; 1.634119132963047E8 ; 1.4610777254418177E10 ; 0.0
82 ; 2077468.85124215 ; 2.004541131416474E8 ; 1.654906303437642E8 ; 1.4811229958371956E10 ; 0.0
83 ; 2075808.4936220378 ; 2.0045552635777926E8 ; 1.6756809919500634E8 ; 1.5011684071513603E10 ; 0.0
84 ; 2075391.9789775219 ; 2.0045694338718978E8 ; 1.6964390768862838E8 ; 1.5212139597871382E10 ; 0.0
85 ; 2076104.0159687735 ; 2.004583640210549E8 ; 1.717192996676059E8 ; 1.5412596541258572E10 ; 0.0
86 ; 2074633.0822360031 ; 2.0045978805649424E8 ; 1.7379540368357468E8 ; 1.5613054905279627E10 ; 0.0
87 ; 2074326.7457936218 ; 2.0046121529636154E8 ; 1.7587003676581067E8 ; 1.581351469333612E10 ; 0.0
88 ; 2074883.0663674737 ; 2.0046264554904166E8 ; 1.7794436351160428E8 ; 1.6013975908632483E10 ; 0.0
89 ; 2074438.8718915798 ; 2.0046407862825456E8 ; 1.8001924657797176E8 ; 1.6214438554181524E10 ; 0.0
90 ; 2074180.8187340933 ; 2.004655143528657E8 ; 1.8209368544986334E8 ; 1.6414902632809778E10 ; 0.0
91 ; 2071487.927130592 ; 2.0046695254670307E8 ; 1.8416786626859742E8 ; 1.6615368147162643E10 ; 0.0
92 ; 2071127.9131102643 ; 2.0046839303838062E8 ; 1.86239354195728E8 ; 1.6815835099709347E10 ; 0.0
93 ; 2070874.930295775 ; 2.0046983566112784E8 ; 1.8831048210883826E8 ; 1.7016303492747726E10 ; 0.0
94 ; 2070074.1355756302 ; 2.0047128025262532E8 ; 1.9038135703913403E8 ; 1.7216773328408855E10 ; 0.0
95 ; 2070162.9265776207 ; 2.0047272665484652E8 ; 1.9245143117470965E8 ; 1.741724460866148E10 ; 0.0
96 ; 2068008.1592772657 ; 2.0047417471390507E8 ; 1.9452159410128728E8 ; 1.7617717335316326E10 ; 0.0
97 ; 2066381.0355168914 ; 2.0047562427990755E8 ; 1.9658960226056454E8 ; 1.781819151003023E10 ; 0.0
98 ; 2065712.401889407 ; 2.004770752068121E8 ; 1.9865598329608142E8 ; 1.801866713431014E10 ; 0.0
99 ; 2065372.4913273654 ; 2.004785273522919E8 ; 2.0072169569797084E8 ; 1.8219144209516953E10 ; 0.0
100 ; 2064797.5178931016 ; 2.0047998057760385E8 ; 2.027870681892982E8 ; 1.8419622736869244E10 ; 0.0
101 ; 2064217.5839125954 ; 2.0048143474746227E8 ; 2.0485186570719132E8 ; 1.8620102717446846E10 ; 0.0
102 ; 2061728.7139645524 ; 2.0048288972991738E8 ; 2.069160832911039E8 ; 1.882058415219431E10 ; 0.0
103 ; 2061676.8619576057 ; 2.0048434539623812E8 ; 2.0897781200506845E8 ; 1.9021067041924225E10 ; 0.0
104 ; 2061131.4914774222 ; 2.004858016207997E8 ; 2.1103948886702606E8 ; 1.922155138732046E10 ; 0.0
105 ; 2059580.1764041341 ; 2.0048725828097528E8 ; 2.131006203585035E8 ; 1.942203718894126E10 ; 0.0
106 ; 2057378.6238194716 ; 2.0048871525703192E8 ; 2.1516020053490764E8 ; 1.9622524447222237E10 ; 0.0
107 ; 2057946.6109553757 ; 2.0049017243203023E8 ; 2.172175791587271E8 ; 1.9823013162479267E10 ; 0.0
108 ; 2056596.026728334 ; 2.0049162969172817E8 ; 2.192755257696825E8 ; 2.0023503334911297E10 ; 0.0
109 ; 2055446.2942395625 ; 2.0049308692448846E8 ; 2.2133212179641083E8 ; 2.0223994964603024E10 ; 0.0
110 ; 2054717.2882673892 ; 2.0049454402118927E8 ; 2.2338756809065038E8 ; 2.042448805152751E10 ; 0.0
111 ; 2054314.5082736409 ; 2.0049600087513882E8 ; 2.2544228537891778E8 ; 2.0624982595548702E10 ; 0.0
112 ; 2051804.3489443033 ; 2.004974573819928E8 ; 2.274965998871914E8 ; 2.082547859642384E10 ; 0.0
113 ; 2051868.1266509532 ; 2.004989134396752E8 ; 2.2954840423613572E8 ; 2.1025976053805832E10 ; 0.0
114 ; 2050370.271800849 ; 2.0050036894830233E8 ; 2.3160027236278668E8 ; 2.1226474967245506E10 ; 0.0
115 ; 2048875.7222824967 ; 2.005018238101092E8 ; 2.3365064263458753E8 ; 2.142697533619381E10 ; 0.0
116 ; 2047750.077437114 ; 2.0050327792937943E8 ; 2.3569951835687003E8 ; 2.1627477160003918E10 ; 0.0
117 ; 2046656.9134584547 ; 2.005047312123773E8 ; 2.3774726843430713E8 ; 2.1827980437933296E10 ; 0.0
118 ; 2046127.8473092017 ; 2.005061835672827E8 ; 2.397939253477656E8 ; 2.202848516914567E10 ; 0.0
119 ; 2043319.6479916624 ; 2.005076349041285E8 ; 2.418400531950748E8 ; 2.2228991352712955E10 ; 0.0
120 ; 2043575.0820488974 ; 2.005090851347401E8 ; 2.4388337284306645E8 ; 2.2429498987617085E10 ; 0.0
121 ; 2041600.8988464428 ; 2.0051053417267776E8 ; 2.4592694792511535E8 ; 2.2630008072751823E10 ; 0.0
122 ; 2039750.7463939732 ; 2.0051198193318057E8 ; 2.479685488239618E8 ; 2.28305186069245E10 ; 0.0
123 ; 2039840.140257292 ; 2.00513428333113E8 ; 2.5000829957035577E8 ; 2.303103058885768E10 ; 0.0
124 ; 2036774.4010917114 ; 2.0051487329091328E8 ; 2.5204813971061307E8 ; 2.3231544017190796E10 ; 0.0
125 ; 2035567.2290444477 ; 2.0051631672654358E8 ; 2.540849141117048E8 ; 2.343205889048171E10 ; 0.0
126 ; 2034221.922182787 ; 2.005177585614425E8 ; 2.5612048134074923E8 ; 2.3632575207208252E10 ; 0.0
127 ; 2032246.9124175394 ; 2.0051919871847886E8 ; 2.5815470326293203E8 ; 2.3833092965769695E10 ; 0.0
128 ; 2030315.8992747217 ; 2.0052063712190765E8 ; 2.6018695017534956E8 ; 2.4033612164488174E10 ; 0.0
129 ; 2029471.8590535596 ; 2.0052207369732738E8 ; 2.622172660746243E8 ; 2.423413280161008E10 ; 0.0
130 ; 2028034.7097113824 ; 2.0052350837163907E8 ; 2.6424673793367785E8 ; 2.4434654875307407E10 ; 0.0
131 ; 2024810.4892526942 ; 2.005249410730068E8 ; 2.6627477264338923E8 ; 2.4635178383679047E10 ; 0.0
132 ; 2022911.776426072 ; 2.0052637173081982E8 ; 2.682995831326419E8 ; 2.4835703324752052E10 ; 0.0
133 ; 2022340.768786607 ; 2.0052780027565584E8 ; 2.70322494909068E8 ; 2.5036229696482872E10 ; 0.0
134 ; 2019223.0931882241 ; 2.0052922663924593E8 ; 2.723448356778546E8 ; 2.523675749675853E10 ; 0.0
135 ; 2015545.8014238093 ; 2.0053065075444058E8 ; 2.743640587710428E8 ; 2.5437286723397774E10 ; 0.0
136 ; 2014664.10975189 ; 2.0053207255517694E8 ; 2.763796045724666E8 ; 2.5637817374152214E10 ; 0.0
137 ; 2012589.2381744562 ; 2.0053349197644755E8 ; 2.783942686822185E8 ; 2.583834944670739E10 ; 0.0
138 ; 2009448.6136012778 ; 2.0053490895426986E8 ; 2.8040685792039293E8 ; 2.6038882938683838E10 ; 0.0
139 ; 2007819.7066713178 ; 2.0053632342565712E8 ; 2.824163065339942E8 ; 2.6239417847638107E10 ; 0.0
140 ; 2005639.1877237298 ; 2.0053773532859018E8 ; 2.844241262406655E8 ; 2.6439954171063763E10 ; 0.0
141 ; 2002381.8776308843 ; 2.005391446019905E8 ; 2.8642976542838925E8 ; 2.6640491906392353E10 ; 0.0
142 ; 2000333.7730504663 ; 2.005405511856938E8 ; 2.8843214730602014E8 ; 2.6841031050994343E10 ; 0.0
143 ; 1997559.4229728035 ; 2.005419550204251E8 ; 2.904324810790706E8 ; 2.704157160218004E10 ; 0.0
144 ; 1996132.466190281 ; 2.0054335604777437E8 ; 2.924300405020434E8 ; 2.7242113557200462E10 ; 0.0
145 ; 1994067.0586827258 ; 2.00544754210173E8 ; 2.944261729682337E8 ; 2.7442656913248238E10 ; 0.0
146 ; 1992371.4923847578 ; 2.005461494508714E8 ; 2.9642024002691644E8 ; 2.7643201667458412E10 ; 0.0
147 ; 1990918.195238637 ; 2.005475417139171E8 ; 2.984126115193012E8 ; 2.7843747816909283E10 ; 0.0
148 ; 1989553.8355193145 ; 2.005489309441339E8 ; 3.004035297145398E8 ; 2.80442953586232E10 ; 0.0
149 ; 1986910.67159016 ; 2.005503170871015E8 ; 3.0239308355005914E8 ; 2.8244844289567333E10 ; 0.0
150 ; 1986500.7131953458 ; 2.0055170008913594E8 ; 3.043799942216493E8 ; 2.8445394606654434E10 ; 0.0
151 ; 1983926.1201328298 ; 2.0055307989727092E8 ; 3.063664949348446E8 ; 2.864594630674357E10 ; 0.0
152 ; 1984443.3803824785 ; 2.005544564592395E8 ; 3.083504210549774E8 ; 2.884649938664084E10 ; 0.0
153 ; 1981344.2575208088 ; 2.005558297234566E8 ; 3.103348644353599E8 ; 2.904705384310008E10 ; 0.0
154 ; 1980402.5142288366 ; 2.00557199639002E8 ; 3.123162086928807E8 ; 2.9247609672823536E10 ; 0.0
155 ; 1977467.0343209023 ; 2.005585661556041E8 ; 3.142966112071095E8 ; 2.944816687246254E10 ; 0.0
156 ; 1976201.030486411 ; 2.0055992922362405E8 ; 3.162740782414304E8 ; 2.9648725438618145E10 ; 0.0
157 ; 1973881.723172916 ; 2.0056128879404062E8 ; 3.182502792719168E8 ; 2.984928536784177E10 ; 0.0
158 ; 1972524.6121577467 ; 2.0056264481843537E8 ; 3.202241609950897E8 ; 3.004984665663581E10 ; 0.0
159 ; 1970007.5959705145 ; 2.0056399724897859E8 ; 3.221966856072475E8 ; 3.0250409301454247E10 ; 0.0
160 ; 1969576.556854721 ; 2.005653460384155E8 ; 3.24166693203218E8 ; 3.0450973298703224E10 ; 0.0
161 ; 1966571.6250445663 ; 2.0056669114005294E8 ; 3.261362697600727E8 ; 3.065153864474164E10 ; 0.0
162 ; 1964927.224352385 ; 2.0056803250774685E8 ; 3.281028413851173E8 ; 3.085210533588169E10 ; 0.0
163 ; 1963210.7379609144 ; 2.0056937009588954E8 ; 3.3006776860946965E8 ; 3.105267336838944E10 ; 0.0
164 ; 1963477.254075869 ; 2.00570703859398E8 ; 3.320309793474306E8 ; 3.125324273848533E10 ; 0.0
165 ; 1959740.7980251808 ; 2.005720337537024E8 ; 3.339944566015065E8 ; 3.1453813442344727E10 ; 0.0
166 ; 1958218.425515733 ; 2.0057335973473468E8 ; 3.3595419739953166E8 ; 3.165438547609843E10 ; 0.0
167 ; 1956934.6546176549 ; 2.0057468175891808E8 ; 3.379124158250474E8 ; 3.1854958835833164E10 ; 0.0
168 ; 1954570.9203396563 ; 2.0057599978315648E8 ; 3.3986935047966504E8 ; 3.2055533517592083E10 ; 0.0
169 ; 1953751.0424872173 ; 2.0057731376482448E8 ; 3.418239214000047E8 ; 3.225610951737524E10 ; 0.0
170 ; 1951496.9169920748 ; 2.0057862366175768E8 ; 3.437776724424919E8 ; 3.2456686831140064E10 ; 0.0
171 ; 1950092.2962859352 ; 2.0057992943224317E8 ; 3.4572916935948396E8 ; 3.2657265454801823E10 ; 0.0
172 ; 1946784.7674097682 ; 2.0058123103501046E8 ; 3.476792616557699E8 ; 3.2857845384234066E10 ; 0.0
173 ; 1946846.6227885121 ; 2.005825284292228E8 ; 3.496260464231796E8 ; 3.3058426615269077E10 ; 0.0
174 ; 1946481.5740020429 ; 2.0058382157446846E8 ; 3.515728930459681E8 ; 3.32590091436983E10 ; 0.0
175 ; 1943684.3877153394 ; 2.0058511043075278E8 ; 3.5351937461997014E8 ; 3.3459592965272766E10 ; 0.0
176 ; 1944806.7176225798 ; 2.005863949584899E8 ; 3.554630590076855E8 ; 3.3660178075703518E10 ; 0.0
177 ; 1943005.755385276 ; 2.0058767511849535E8 ; 3.5740786572530806E8 ; 3.3860764470662006E10 ; 0.0
178 ; 1942437.0399591909 ; 2.0058895087197837E8 ; 3.5935087148069334E8 ; 3.4061352145780502E10 ; 0.0
179 ; 1940777.8817606207 ; 2.0059022218053484E8 ; 3.6129330852065253E8 ; 3.426194109665248E10 ; 0.0
180 ; 1938897.9373952865 ; 2.0059148900614032E8 ; 3.6323408640241313E8 ; 3.4462531318833015E10 ; 0.0
181 ; 1937857.6961120497 ; 2.0059275131114316E8 ; 3.651729843398084E8 ; 3.466312280783916E10 ; 0.0
182 ; 1936414.2964320614 ; 2.0059400905825812E8 ; 3.6711084203592044E8 ; 3.48637155591503E10 ; 0.0
183 ; 1935119.1090952319 ; 2.0059526221056002E8 ; 3.690472563323525E8 ; 3.506430956820856E10 ; 0.0
184 ; 1934322.9718983918 ; 2.0059651073147753E8 ; 3.7098237544144773E8 ; 3.526490483041912E10 ; 0.0
185 ; 1933322.1258156148 ; 2.0059775458478734E8 ; 3.729166984133461E8 ; 3.54655013411506E10 ; 0.0
186 ; 1932904.909399211 ; 2.005989937346084E8 ; 3.7485002053916174E8 ; 3.566609909573538E10 ; 0.0
187 ; 1932401.902171738 ; 2.0060022814539638E8 ; 3.7678292544856095E8 ; 3.586669808946999E10 ; 0.0
188 ; 1930662.6528038988 ; 2.006014577819383E8 ; 3.787153273507327E8 ; 3.606729831761539E10 ; 0.0
189 ; 1928108.258132219 ; 2.0060268260934728E8 ; 3.806459900035366E8 ; 3.626789977539732E10 ; 0.0
190 ; 1927588.0488803685 ; 2.006039025930575E8 ; 3.825740982616688E8 ; 3.646850245800667E10 ; 0.0
191 ; 1927539.4762790431 ; 2.0060511769881946E8 ; 3.8450168631054914E8 ; 3.6669106360599724E10 ; 0.0
192 ; 1925745.0188199678 ; 2.0060632789269507E8 ; 3.8642922578682816E8 ; 3.6869711478298546E10 ; 0.0
193 ; 1924396.1094019809 ; 2.0060753314105314E8 ; 3.8835497080564815E8 ; 3.707031780619124E10 ; 0.0
194 ; 1922366.4288689592 ; 2.00608733410565E8 ; 3.9027936691505015E8 ; 3.727092533933229E10 ; 0.0
195 ; 1921850.473778446 ; 2.006099286682001E8 ; 3.922017333439191E8 ; 3.747153407274286E10 ; 0.0
196 ; 1921544.2114264984 ; 2.00611118881222E8 ; 3.941235838176975E8 ; 3.767214400141106E10 ; 0.0
197 ; 1920918.7576978973 ; 2.0061230401718417E8 ; 3.96045128029124E8 ; 3.787275512029228E10 ; 0.0
198 ; 1918591.578841444 ; 2.006134840439262E8 ; 3.979660467868219E8 ; 3.807336742430946E10 ; 0.0
199 ; 1917676.2044463304 ; 2.0061465892957E8 ; 3.9988463836566335E8 ; 3.8273980908353386E10 ; 0.0
