CSV File for the City 4 on Day 325
1 - Minute m 
2 - Power Consumed at minute m 
3 - Power Produced at minute m 
4 - Energy Consumed since the beginning of the day 
5 - Energy Produced since the beginning of the day 
6 - Energy Lost since the beginning of the day on lines starting from the city
 
0 ; 6876574.24866964 ; 1.0679636942890248E8 ; 0.0 ; 0.0 ; 0.0
1 ; 6886182.003044923 ; 1.0694673638048428E8 ; 6876574.24866964 ; 1.0679636942890248E8 ; 0.0
2 ; 6892774.511601034 ; 1.0740615256761119E8 ; 1.3762756251714563E7 ; 2.1374310580938676E8 ; 0.0
3 ; 6902832.9562000595 ; 1.0817462092890084E8 ; 2.0655530763315596E7 ; 3.2114925837699795E8 ; 0.0
4 ; 6911502.7627611505 ; 1.092521440840317E8 ; 2.7558363719515655E7 ; 4.293238793058988E8 ; 0.0
5 ; 6924007.217014682 ; 1.1063872432398164E8 ; 3.4469866482276805E7 ; 5.385760233899305E8 ; 0.0
6 ; 6941509.412771317 ; 1.1233436360238317E8 ; 4.139387369929148E7 ; 6.492147477139121E8 ; 0.0
7 ; 6961711.813868715 ; 1.143390635280723E8 ; 4.83353831120628E7 ; 7.615491113162953E8 ; 0.0
8 ; 6996704.875583024 ; 1.1665282535889703E8 ; 5.529709492593151E7 ; 8.758881748443675E8 ; 0.0
9 ; 7045149.190762689 ; 1.1927564999684185E8 ; 6.2293799801514536E7 ; 9.925410002032645E8 ; 0.0
10 ; 7122549.46419644 ; 1.2220753798451275E8 ; 6.933894899227722E7 ; 1.1118166502001064E9 ; 0.0
11 ; 7251016.941135583 ; 1.2544848950301471E8 ; 7.646149845647366E7 ; 1.2340241881846192E9 ; 0.0
12 ; 7446173.7661010455 ; 1.2899850437124273E8 ; 8.371251539760925E7 ; 1.359472677687634E9 ; 0.0
13 ; 7637678.99118543 ; 1.328575820465908E8 ; 9.11586891637103E7 ; 1.4884711820588768E9 ; 0.0
14 ; 7662687.785905103 ; 1.3702572162707454E8 ; 9.879636815489572E7 ; 1.6213287641054676E9 ; 0.0
15 ; 7668015.858442784 ; 1.4150292185484582E8 ; 1.0645905594080083E8 ; 1.758354485732542E9 ; 0.0
16 ; 7676573.059455057 ; 1.4628918112106875E8 ; 1.1412707179924361E8 ; 1.8998574075873878E9 ; 0.0
17 ; 7688157.663435925 ; 1.5138449747211072E8 ; 1.2180364485869867E8 ; 2.0461465887084565E9 ; 0.0
18 ; 7695491.460604012 ; 1.567888686169939E8 ; 1.2949180252213459E8 ; 2.1975310861805673E9 ; 0.0
19 ; 7705592.702750313 ; 1.6250229193603984E8 ; 1.371872939827386E8 ; 2.354319954797561E9 ; 0.0
20 ; 7713906.801583843 ; 1.6852476449063084E8 ; 1.4489288668548894E8 ; 2.516822246733601E9 ; 0.0
21 ; 7725117.538898015 ; 1.7485628303400442E8 ; 1.526067934870728E8 ; 2.6853470112242317E9 ; 0.0
22 ; 7733661.752974804 ; 1.8149684402298838E8 ; 1.6033191102597082E8 ; 2.860203294258236E9 ; 0.0
23 ; 7744950.502610338 ; 1.8844644363058025E8 ; 1.6806557277894562E8 ; 3.0417001382812243E9 ; 0.0
24 ; 7754674.079373554 ; 1.9570507775926924E8 ; 1.7581052328155595E8 ; 3.2301465819118047E9 ; 0.0
25 ; 7761419.381375646 ; 2.0196078295317984E8 ; 1.8356519736092952E8 ; 3.425851659671074E9 ; 0.0
26 ; 7768665.111982385 ; 2.019671024494602E8 ; 1.9132661674230516E8 ; 3.6278124426242537E9 ; 0.0
27 ; 7782431.713939364 ; 2.0197380071810466E8 ; 1.9909528185428753E8 ; 3.829779545073714E9 ; 0.0
28 ; 7787352.720147042 ; 2.0198087272396675E8 ; 2.068777135682269E8 ; 4.0317533457918186E9 ; 0.0
29 ; 7799263.315378555 ; 2.0198831323546442E8 ; 2.1466506628837395E8 ; 4.233734218515785E9 ; 0.0
30 ; 7809679.348951892 ; 2.019961168401598E8 ; 2.224643296037525E8 ; 4.435722531751249E9 ; 0.0
31 ; 7815034.363556656 ; 2.0200427796036395E8 ; 2.302740089527044E8 ; 4.637718648591409E9 ; 0.0
32 ; 7824983.070233087 ; 2.0201279086867654E8 ; 2.3808904331626105E8 ; 4.839722926551773E9 ; 0.0
33 ; 7830270.509400391 ; 2.0202164970337677E8 ; 2.4591402638649413E8 ; 5.041735717420449E9 ; 0.0
34 ; 7840403.842814404 ; 2.0203084848358732E8 ; 2.5374429689589453E8 ; 5.243757367123826E9 ; 0.0
35 ; 7849316.02955688 ; 2.0204038112414098E8 ; 2.6158470073870894E8 ; 5.445788215607413E9 ; 0.0
36 ; 7855285.565960353 ; 2.0205024145008504E8 ; 2.6943401676826584E8 ; 5.647828596731554E9 ; 0.0
37 ; 7863984.579018226 ; 2.0206042321076775E8 ; 2.772893023342262E8 ; 5.849878838181639E9 ; 0.0
38 ; 7870093.820234137 ; 2.0207092009345633E8 ; 2.851532869132444E8 ; 6.051939261392406E9 ; 0.0
39 ; 7876241.636165936 ; 2.020817257364447E8 ; 2.9302338073347855E8 ; 6.254010181485863E9 ; 0.0
40 ; 7884003.713478988 ; 2.0209283374161515E8 ; 3.0089962236964446E8 ; 6.456091907222307E9 ; 0.0
41 ; 7886491.804017837 ; 2.021042376864254E8 ; 3.0878362608312345E8 ; 6.6581847409639225E9 ; 0.0
42 ; 7897657.750994999 ; 2.021159311352989E8 ; 3.166701178871413E8 ; 6.860288978650348E9 ; 0.0
43 ; 7897999.766436759 ; 2.021279076504023E8 ; 3.2456777563813627E8 ; 7.062404909785646E9 ; 0.0
44 ; 7905618.423631375 ; 2.021401608017995E8 ; 3.32465775404573E8 ; 7.2645328174360485E9 ; 0.0
45 ; 7911488.430605483 ; 2.021526841769773E8 ; 3.403713938282044E8 ; 7.466672978237848E9 ; 0.0
46 ; 7914073.031763117 ; 2.021654713897426E8 ; 3.4828288225880986E8 ; 7.668825662414825E9 ; 0.0
47 ; 7920036.646126459 ; 2.021785160884948E8 ; 3.56196955290573E8 ; 7.870991133804568E9 ; 0.0
48 ; 7924659.414615938 ; 2.0219181196388152E8 ; 3.6411699193669945E8 ; 8.073169649893064E9 ; 0.0
49 ; 7926764.407210146 ; 2.0220535275584957E8 ; 3.720416513513154E8 ; 8.275361461856945E9 ; 0.0
50 ; 7928862.519854191 ; 2.022191322601046E8 ; 3.7996841575852555E8 ; 8.477566814612795E9 ; 0.0
51 ; 7932180.781862776 ; 2.022331443339972E8 ; 3.8789727827837974E8 ; 8.6797859468729E9 ; 0.0
52 ; 7935361.346953088 ; 2.0224738290185428E8 ; 3.9582945906024253E8 ; 8.882019091206898E9 ; 0.0
53 ; 7937763.955519158 ; 2.0226184195977655E8 ; 4.037648204071956E8 ; 9.084266474108751E9 ; 0.0
54 ; 7942683.781214107 ; 2.0227651557992408E8 ; 4.1170258436271477E8 ; 9.286528316068527E9 ; 0.0
55 ; 7946560.952900718 ; 2.0229139791431373E8 ; 4.196452681439289E8 ; 9.48880483164845E9 ; 0.0
56 ; 7945639.138403189 ; 2.0230648319815218E8 ; 4.275918290968296E8 ; 9.691096229562765E9 ; 0.0
57 ; 7949492.38598728 ; 2.023217657527289E8 ; 4.355374682352328E8 ; 9.893402712760918E9 ; 0.0
58 ; 7952373.762205718 ; 2.0233723998789412E8 ; 4.4348696062122005E8 ; 1.0095724478513647E10 ; 0.0
59 ; 7951045.527496862 ; 2.023529004041462E8 ; 4.514393343834258E8 ; 1.0298061718501541E10 ; 0.0
60 ; 7956109.034042476 ; 2.023687415943532E8 ; 4.5939037991092265E8 ; 1.0500414618905687E10 ; 0.0
61 ; 7959016.136885787 ; 2.0238475824513257E8 ; 4.673464889449651E8 ; 1.070278336050004E10 ; 0.0
62 ; 7958554.340609411 ; 2.0240094513791266E8 ; 4.753055050818509E8 ; 1.0905168118745173E10 ; 0.0
63 ; 7963497.740671759 ; 2.0241729714969945E8 ; 4.832640594224603E8 ; 1.1107569063883085E10 ; 0.0
64 ; 7963833.516436549 ; 2.0243380925357005E8 ; 4.912275571631321E8 ; 1.1309986361032785E10 ; 0.0
65 ; 7964972.849314794 ; 2.024504765189156E8 ; 4.9919139067956865E8 ; 1.1512420170286356E10 ; 0.0
66 ; 7965707.55785974 ; 2.0246729411145315E8 ; 5.0715636352888346E8 ; 1.1714870646805271E10 ; 0.0
67 ; 7969812.434656227 ; 2.02484257293027E8 ; 5.151220710867432E8 ; 1.1917337940916725E10 ; 0.0
68 ; 7970671.320873054 ; 2.025013614212182E8 ; 5.230918835213994E8 ; 1.2119822198209753E10 ; 0.0
69 ; 7972155.305637812 ; 2.0251860194877982E8 ; 5.3106255484227246E8 ; 1.2322323559630972E10 ; 0.0
70 ; 7973918.261086118 ; 2.0253597442291534E8 ; 5.390347101479102E8 ; 1.2524842161579752E10 ; 0.0
71 ; 7975003.84069903 ; 2.0255347448441583E8 ; 5.470086284089963E8 ; 1.2727378136002666E10 ; 0.0
72 ; 7978746.319322462 ; 2.0257109786667094E8 ; 5.549836322496954E8 ; 1.2929931610487082E10 ; 0.0
73 ; 7981081.379518506 ; 2.0258884039456797E8 ; 5.629623785690179E8 ; 1.3132502708353752E10 ; 0.0
74 ; 7981672.592734696 ; 2.02606697983292E8 ; 5.709434599485364E8 ; 1.333509154874832E10 ; 0.0
75 ; 7983356.494568237 ; 2.026246666370394E8 ; 5.789251325412711E8 ; 1.3537698246731611E10 ; 0.0
76 ; 7985998.732537404 ; 2.02642742447656E8 ; 5.869084890358393E8 ; 1.374032291336865E10 ; 0.0
77 ; 7985988.872105907 ; 2.02660921593211E8 ; 5.948944877683767E8 ; 1.3942965655816307E10 ; 0.0
78 ; 7984868.858866436 ; 2.0267920033651558E8 ; 6.028804766404827E8 ; 1.4145626577409517E10 ; 0.0
79 ; 7982907.668706122 ; 2.026975750235959E8 ; 6.108653454993491E8 ; 1.4348305777746033E10 ; 0.0
80 ; 7980755.467636335 ; 2.0271604208212864E8 ; 6.188482531680553E8 ; 1.4551003352769629E10 ; 0.0
81 ; 7981493.504102088 ; 2.0273459801984638E8 ; 6.268290086356916E8 ; 1.4753719394851757E10 ; 0.0
82 ; 7979627.090348074 ; 2.0275323942292026E8 ; 6.348105021397938E8 ; 1.4956453992871603E10 ; 0.0
83 ; 7976491.736864507 ; 2.0277196295432588E8 ; 6.427901292301419E8 ; 1.5159207232294523E10 ; 0.0
84 ; 7976308.660609718 ; 2.0279076535219857E8 ; 6.507666209670064E8 ; 1.536197919524885E10 ; 0.0
85 ; 7972898.873161084 ; 2.028096434281829E8 ; 6.587429296276162E8 ; 1.5564769960601048E10 ; 0.0
86 ; 7972441.390946299 ; 2.0282859406578144E8 ; 6.667158285007772E8 ; 1.576757960402923E10 ; 0.0
87 ; 7972755.917139953 ; 2.0284761421870708E8 ; 6.746882698917235E8 ; 1.597040819809501E10 ; 0.0
88 ; 7967926.784355249 ; 2.0286670090924233E8 ; 6.826610258088635E8 ; 1.6173255812313717E10 ; 0.0
89 ; 7967179.711623158 ; 2.028858512266098E8 ; 6.906289525932188E8 ; 1.637612251322296E10 ; 0.0
90 ; 7965322.949951903 ; 2.029050623253559E8 ; 6.98596132304842E8 ; 1.657900836444957E10 ; 0.0
91 ; 7962917.871175306 ; 2.0292433142375135E8 ; 7.065614552547939E8 ; 1.6781913426774925E10 ; 0.0
92 ; 7962586.963097658 ; 2.029436558022106E8 ; 7.145243731259692E8 ; 1.6984837758198677E10 ; 0.0
93 ; 7958614.313340946 ; 2.0296303280173177E8 ; 7.224869600890669E8 ; 1.718778141400089E10 ; 0.0
94 ; 7955735.373862683 ; 2.0298245982235962E8 ; 7.304455744024078E8 ; 1.739074444680262E10 ; 0.0
95 ; 7955322.6672637295 ; 2.030019343216729E8 ; 7.384013097762704E8 ; 1.759372690662498E10 ; 0.0
96 ; 7953026.416583494 ; 2.0302145381329697E8 ; 7.463566324435341E8 ; 1.7796728840946655E10 ; 0.0
97 ; 7949835.528511162 ; 2.0304101586544362E8 ; 7.543096588601177E8 ; 1.7999750294759953E10 ; 0.0
98 ; 7949416.778450001 ; 2.0306061809947798E8 ; 7.622594943886288E8 ; 1.8202791310625397E10 ; 0.0
99 ; 7947144.649839111 ; 2.030802581885145E8 ; 7.702089111670789E8 ; 1.8405851928724876E10 ; 0.0
100 ; 7944068.238354887 ; 2.0309993385604146E8 ; 7.78156055816918E8 ; 1.860893218691339E10 ; 0.0
101 ; 7940541.258474554 ; 2.0311964287457523E8 ; 7.861001240552729E8 ; 1.8812032120769432E10 ; 0.0
102 ; 7937013.858503025 ; 2.0313938306434417E8 ; 7.940406653137475E8 ; 1.901515176364401E10 ; 0.0
103 ; 7936557.783314664 ; 2.0315915229200277E8 ; 8.019776791722505E8 ; 1.921829114670835E10 ; 0.0
104 ; 7933198.992672958 ; 2.0317894846937552E8 ; 8.099142369555652E8 ; 1.9421450299000355E10 ; 0.0
105 ; 7926441.910202299 ; 2.0319876955223146E8 ; 8.178474359482381E8 ; 1.962462924746973E10 ; 0.0
106 ; 7924811.938574467 ; 2.032186135390882E8 ; 8.257738778584404E8 ; 1.982782801702196E10 ; 0.0
107 ; 7920712.076073598 ; 2.032384784700462E8 ; 8.336986897970148E8 ; 2.003104663056105E10 ; 0.0
108 ; 7916686.897745075 ; 2.0325836242565283E8 ; 8.416194018730885E8 ; 2.0234285109031097E10 ; 0.0
109 ; 7913923.806267429 ; 2.0327826352579546E8 ; 8.495360887708336E8 ; 2.043754347145675E10 ; 0.0
110 ; 7913187.784440578 ; 2.0329817992862397E8 ; 8.57450012577101E8 ; 2.0640821734982544E10 ; 0.0
111 ; 7907130.7158505805 ; 2.033181098295019E8 ; 8.653632003615416E8 ; 2.0844119914911167E10 ; 0.0
112 ; 7905483.641817158 ; 2.0333805145998588E8 ; 8.732703310773922E8 ; 2.104743802474067E10 ; 0.0
113 ; 7903270.072244857 ; 2.03358003086833E8 ; 8.811758147192094E8 ; 2.1250776076200657E10 ; 0.0
114 ; 7900889.741015486 ; 2.0337796301103553E8 ; 8.890790847914543E8 ; 2.145413407928749E10 ; 0.0
115 ; 7894966.583173159 ; 2.0339792956688267E8 ; 8.969799745324697E8 ; 2.1657512042298527E10 ; 0.0
116 ; 7892128.162416543 ; 2.034179011210485E8 ; 9.048749411156429E8 ; 2.186090997186541E10 ; 0.0
117 ; 7886323.05888455 ; 2.0343787607170612E8 ; 9.127670692780595E8 ; 2.2064327872986458E10 ; 0.0
118 ; 7885194.539815743 ; 2.0345785284766674E8 ; 9.20653392336944E8 ; 2.2267765749058163E10 ; 0.0
119 ; 7878990.8380769035 ; 2.0347782990754402E8 ; 9.285385868767598E8 ; 2.247122360190583E10 ; 0.0
120 ; 7879406.999101438 ; 2.0349780573894212E8 ; 9.364175777148367E8 ; 2.2674701431813374E10 ; 0.0
121 ; 7871984.88547964 ; 2.0351777885766792E8 ; 9.442969847139381E8 ; 2.2878199237552315E10 ; 0.0
122 ; 7867064.902996747 ; 2.03537747806966E8 ; 9.521689695994178E8 ; 2.308171701640998E10 ; 0.0
123 ; 7865398.308823141 ; 2.0355771115677625E8 ; 9.600360345024146E8 ; 2.3285254764216946E10 ; 0.0
124 ; 7861372.1091326 ; 2.0357766750301352E8 ; 9.679014328112377E8 ; 2.3488812475373722E10 ; 0.0
125 ; 7856791.22204397 ; 2.035976154668686E8 ; 9.757628049203703E8 ; 2.3692390142876736E10 ; 0.0
126 ; 7853196.85060793 ; 2.0361755369413E8 ; 9.836195961424143E8 ; 2.3895987758343605E10 ; 0.0
127 ; 7848683.440047213 ; 2.036374808545263E8 ; 9.914727929930222E8 ; 2.4099605312037735E10 ; 0.0
128 ; 7844132.3226798875 ; 2.0365739564108777E8 ; 9.993214764330695E8 ; 2.430324279289226E10 ; 0.0
129 ; 7838476.9607715085 ; 2.0367729676952776E8 ; 1.0071656087557493E9 ; 2.4506900188533348E10 ; 0.0
130 ; 7831982.256972802 ; 2.0369718297764224E8 ; 1.0150040857165209E9 ; 2.4710577485302876E10 ; 0.0
131 ; 7827008.162612746 ; 2.0371705302472797E8 ; 1.0228360679734937E9 ; 2.4914274668280518E10 ; 0.0
132 ; 7818469.17418441 ; 2.0373690569101784E8 ; 1.0306630761361065E9 ; 2.5117991721305244E10 ; 0.0
133 ; 7814867.95648808 ; 2.037567397771338E8 ; 1.0384815453102909E9 ; 2.532172862699626E10 ; 0.0
134 ; 7804973.8400061065 ; 2.0377655410355604E8 ; 1.0462964132667791E9 ; 2.5525485366773396E10 ; 0.0
135 ; 7796840.935042579 ; 2.0379634751010856E8 ; 1.0541013871067852E9 ; 2.5729261920876953E10 ; 0.0
136 ; 7789039.989208267 ; 2.0381611885546038E8 ; 1.0618982280418278E9 ; 2.5933058268387062E10 ; 0.0
137 ; 7783283.405511506 ; 2.0383586701664183E8 ; 1.069687268031036E9 ; 2.6136874387242523E10 ; 0.0
138 ; 7776439.405883915 ; 2.0385559088857576E8 ; 1.0774705514365475E9 ; 2.6340710254259167E10 ; 0.0
139 ; 7766062.094820135 ; 2.0387528938362306E8 ; 1.0852469908424315E9 ; 2.6544565845147743E10 ; 0.0
140 ; 7761789.243870913 ; 2.0389496143114182E8 ; 1.0930130529372516E9 ; 2.6748441134531364E10 ; 0.0
141 ; 7751012.82061638 ; 2.0391460597706035E8 ; 1.1007748421811225E9 ; 2.6952336095962505E10 ; 0.0
142 ; 7745887.810263072 ; 2.039342219834629E8 ; 1.108525855001739E9 ; 2.7156250701939568E10 ; 0.0
143 ; 7736947.545193329 ; 2.039538084281882E8 ; 1.1162717428120022E9 ; 2.736018492392303E10 ; 0.0
144 ; 7729704.351229644 ; 2.0397336430444035E8 ; 1.1240086903571956E9 ; 2.756413873235122E10 ; 0.0
145 ; 7723676.53258118 ; 2.039928886204113E8 ; 1.1317383947084253E9 ; 2.776811209665566E10 ; 0.0
146 ; 7721051.629607601 ; 2.040123803989152E8 ; 1.1394620712410064E9 ; 2.797210498527607E10 ; 0.0
147 ; 7714166.625083777 ; 2.040318386770336E8 ; 1.147183122870614E9 ; 2.8176117365674984E10 ; 0.0
148 ; 7712243.859096724 ; 2.0405126250577182E8 ; 1.1548972894956977E9 ; 2.8380149204352016E10 ; 0.0
149 ; 7704436.5354296295 ; 2.0407065094972536E8 ; 1.1626095333547945E9 ; 2.8584200466857788E10 ; 0.0
150 ; 7699981.4043540815 ; 2.0409000308675686E8 ; 1.1703139698902242E9 ; 2.8788271117807514E10 ; 0.0
151 ; 7696727.774901196 ; 2.0410931800768265E8 ; 1.1780139512945783E9 ; 2.899236112089427E10 ; 0.0
152 ; 7692195.640186295 ; 2.0412859481596887E8 ; 1.1857106790694795E9 ; 2.9196470438901955E10 ; 0.0
153 ; 7683434.214389246 ; 2.04147832627437E8 ; 1.1934028747096658E9 ; 2.9400599033717922E10 ; 0.0
154 ; 7681946.391117992 ; 2.0416703056997797E8 ; 1.201086308924055E9 ; 2.960474686634536E10 ; 0.0
155 ; 7673781.27981014 ; 2.0418618778327534E8 ; 1.2087682553151731E9 ; 2.9808913896915337E10 ; 0.0
156 ; 7669972.137809546 ; 2.0420530341853645E8 ; 1.2164420365949833E9 ; 3.0013100084698612E10 ; 0.0
157 ; 7664333.274414555 ; 2.0422437663823205E8 ; 1.2241120087327929E9 ; 3.021730538811715E10 ; 0.0
158 ; 7659020.598706636 ; 2.0424340661584362E8 ; 1.2317763420072074E9 ; 3.0421529764755383E10 ; 0.0
159 ; 7653638.018665579 ; 2.0426239253561825E8 ; 1.239435362605914E9 ; 3.0625773171371227E10 ; 0.0
160 ; 7647372.806084375 ; 2.04281333592331E8 ; 1.2470890006245797E9 ; 3.0830035563906845E10 ; 0.0
161 ; 7643707.247960924 ; 2.0430022899105442E8 ; 1.254736373430664E9 ; 3.1034316897499176E10 ; 0.0
162 ; 7638949.163555253 ; 2.0431907794693497E8 ; 1.2623800806786249E9 ; 3.123861712649023E10 ; 0.0
163 ; 7632071.895150163 ; 2.0433787968497604E8 ; 1.27001902984218E9 ; 3.1442936204437164E10 ; 0.0
164 ; 7626776.486466475 ; 2.0435663343982756E8 ; 1.2776511017373302E9 ; 3.164727408412214E10 ; 0.0
165 ; 7622191.043388204 ; 2.043753384555819E8 ; 1.2852778782237966E9 ; 3.1851630717561966E10 ; 0.0
166 ; 7617369.463648457 ; 2.0439399398557582E8 ; 1.2929000692671847E9 ; 3.2056006056017548E10 ; 0.0
167 ; 7610282.995219023 ; 2.0441259929219842E8 ; 1.3005174387308333E9 ; 3.2260400050003124E10 ; 0.0
168 ; 7604432.618421777 ; 2.044311536467045E8 ; 1.3081277217260523E9 ; 3.2464812649295322E10 ; 0.0
169 ; 7599513.096666792 ; 2.044496563290339E8 ; 1.315732154344474E9 ; 3.2669243802942028E10 ; 0.0
170 ; 7593256.477564774 ; 2.0446810662763587E8 ; 1.323331667441141E9 ; 3.287369345927106E10 ; 0.0
171 ; 7588430.714573237 ; 2.0448650383929867E8 ; 1.3309249239187057E9 ; 3.3078161565898697E10 ; 0.0
172 ; 7583312.5515162945 ; 2.0450484726898438E8 ; 1.3385133546332788E9 ; 3.3282648069737995E10 ; 0.0
173 ; 7578736.068479876 ; 2.045231362296684E8 ; 1.3460966671847951E9 ; 3.348715291700698E10 ; 0.0
174 ; 7573152.622137473 ; 2.0454137004218376E8 ; 1.353675403253275E9 ; 3.369167605323665E10 ; 0.0
175 ; 7570800.840032515 ; 2.045595480350699E8 ; 1.3612485558754125E9 ; 3.389621742327883E10 ; 0.0
176 ; 7566294.662134417 ; 2.0457766954442608E8 ; 1.368819356715445E9 ; 3.41007769713139E10 ; 0.0
177 ; 7564728.810208751 ; 2.0459573391376892E8 ; 1.3763856513775795E9 ; 3.4305354640858326E10 ; 0.0
178 ; 7564109.441819864 ; 2.0461374049389404E8 ; 1.3839503801877882E9 ; 3.4509950374772095E10 ; 0.0
179 ; 7556462.262936051 ; 2.04631688642742E8 ; 1.3915144896296082E9 ; 3.471456411526599E10 ; 0.0
180 ; 7554445.403788324 ; 2.0464957772526795E8 ; 1.3990709518925443E9 ; 3.491919580390873E10 ; 0.0
181 ; 7549002.319813301 ; 2.0466740711331493E8 ; 1.4066253972963326E9 ; 3.5123845381633995E10 ; 0.0
182 ; 7547981.611759817 ; 2.0468517618549123E8 ; 1.4141743996161458E9 ; 3.532851278874731E10 ; 0.0
183 ; 7540999.614755887 ; 2.047E8 ; 1.4217223812279058E9 ; 3.55331979649328E10 ; 0.0
184 ; 7538981.004084254 ; 2.047E8 ; 1.4292633808426616E9 ; 3.57378979649328E10 ; 0.0
185 ; 7536358.101309136 ; 2.047E8 ; 1.436802361846746E9 ; 3.59425979649328E10 ; 0.0
186 ; 7532182.296535493 ; 2.047E8 ; 1.444338719948055E9 ; 3.61472979649328E10 ; 0.0
187 ; 7531560.522503242 ; 2.047E8 ; 1.4518709022445905E9 ; 3.63519979649328E10 ; 0.0
188 ; 7523967.685094252 ; 2.047E8 ; 1.4594024627670937E9 ; 3.65566979649328E10 ; 0.0
189 ; 7521299.273219049 ; 2.047E8 ; 1.466926430452188E9 ; 3.67613979649328E10 ; 0.0
190 ; 7505015.754778824 ; 2.047E8 ; 1.4744477297254071E9 ; 3.69660979649328E10 ; 0.0
191 ; 7493528.009657625 ; 2.047E8 ; 1.481952745480186E9 ; 3.71707979649328E10 ; 0.0
192 ; 7478112.157244218 ; 2.047E8 ; 1.4894462734898436E9 ; 3.73754979649328E10 ; 0.0
193 ; 7463933.829018342 ; 2.047E8 ; 1.4969243856470878E9 ; 3.75801979649328E10 ; 0.0
194 ; 7449546.625406031 ; 2.047E8 ; 1.5043883194761062E9 ; 3.77848979649328E10 ; 0.0
195 ; 7435879.160454346 ; 2.047E8 ; 1.5118378661015122E9 ; 3.79895979649328E10 ; 0.0
196 ; 7419259.34242253 ; 2.047E8 ; 1.5192737452619665E9 ; 3.81942979649328E10 ; 0.0
197 ; 7406810.185369379 ; 2.047E8 ; 1.526693004604389E9 ; 3.83989979649328E10 ; 0.0
198 ; 7390643.333041604 ; 2.047E8 ; 1.5340998147897584E9 ; 3.86036979649328E10 ; 0.0
199 ; 7376800.251891058 ; 1.809418140980948E8 ; 1.5414904581228E9 ; 3.88083979649328E10 ; 0.0
200 ; 7362265.2564574 ; 1.5620807492166224E8 ; 1.5488672583746912E9 ; 3.898933977903089E10 ; 0.0
201 ; 7347124.805268046 ; 1.5586000678114402E8 ; 1.5562295236311486E9 ; 3.914554785395255E10 ; 0.0
202 ; 7335634.109605324 ; 1.555127382774142E8 ; 1.5635766484364166E9 ; 3.9301407860733696E10 ; 0.0
203 ; 7318330.625357393 ; 1.5516626757342157E8 ; 1.570912282546022E9 ; 3.945692059901111E10 ; 0.0
