CSV File for the City 6 on Day 226
1 - Minute m 
2 - Power Consumed at minute m 
3 - Power Produced at minute m 
4 - Energy Consumed since the beginning of the day 
5 - Energy Produced since the beginning of the day 
6 - Energy Lost since the beginning of the day on lines starting from the city
 
0 ; 822865.8620992671 ; 1.0535800232205918E8 ; 0.0 ; 0.0 ; 0.0
1 ; 836303.448822645 ; 1.0550259137885088E8 ; 822865.8620992671 ; 1.0535800232205918E8 ; 0.0
2 ; 847157.0255043276 ; 1.059563936496841E8 ; 1659169.310921912 ; 2.1086059370091006E8 ; 0.0
3 ; 866596.566705431 ; 1.0671950265513241E8 ; 2506326.3364262395 ; 3.1681698735059416E8 ; 0.0
4 ; 883037.2568475065 ; 1.0779202400631833E8 ; 3372922.9031316703 ; 4.235364900057266E8 ; 0.0
5 ; 906007.8917044416 ; 1.0917407378496623E8 ; 4255960.159979177 ; 5.313285140120449E8 ; 0.0
6 ; 929713.970431226 ; 1.108657747600533E8 ; 5161968.051683619 ; 6.405025877970111E8 ; 0.0
7 ; 970891.6617514945 ; 1.1286724987465042E8 ; 6091682.022114845 ; 7.513683625570644E8 ; 0.0
8 ; 1025459.8953754941 ; 1.1517861292768139E8 ; 7062573.68386634 ; 8.642356124317148E8 ; 0.0
9 ; 1107064.9041684426 ; 1.1779995730056095E8 ; 8088033.579241834 ; 9.794142253593962E8 ; 0.0
10 ; 1232163.2033541687 ; 1.2073134471832222E8 ; 9195098.483410276 ; 1.0972141826599572E9 ; 0.0
11 ; 1432945.0327922686 ; 1.2397279680673382E8 ; 1.0427261686764445E7 ; 1.2179455273782794E9 ; 0.0
12 ; 1747443.7112946322 ; 1.2752429194002709E8 ; 1.1860206719556713E7 ; 1.3419183241850133E9 ; 0.0
13 ; 2052798.0613444645 ; 1.3138576839316893E8 ; 1.3607650430851346E7 ; 1.4694426161250403E9 ; 0.0
14 ; 2093386.9902919526 ; 1.3555713278474468E8 ; 1.5660448492195811E7 ; 1.6008283845182092E9 ; 0.0
15 ; 2112384.729115499 ; 1.400382713158304E8 ; 1.7753835482487764E7 ; 1.736385517302954E9 ; 0.0
16 ; 2121406.561213597 ; 1.4482906104335538E8 ; 1.986622021160326E7 ; 1.8764237886187844E9 ; 0.0
17 ; 2138574.0157865454 ; 1.499293791983423E8 ; 2.198762677281686E7 ; 2.02125284966214E9 ; 0.0
18 ; 2156285.644549802 ; 1.5533910969906682E8 ; 2.4126200788603403E7 ; 2.171182228860482E9 ; 0.0
19 ; 2174792.7180965454 ; 1.6105814693440643E8 ; 2.6282486433153205E7 ; 2.326521338559549E9 ; 0.0
20 ; 2190268.9932150627 ; 1.6708639738378754E8 ; 2.845727915124975E7 ; 2.487579485493955E9 ; 0.0
21 ; 2206739.85662951 ; 1.734237797613761E8 ; 3.0647548144464813E7 ; 2.654665882877743E9 ; 0.0
22 ; 2224471.0975834606 ; 1.800702242848711E8 ; 3.2854288001094323E7 ; 2.8280896626391187E9 ; 0.0
23 ; 2240960.036323935 ; 1.870256715099542E8 ; 3.5078759098677784E7 ; 3.00815988692399E9 ; 0.0
24 ; 2259159.5301990267 ; 1.9429007101732928E8 ; 3.731971913500172E7 ; 3.1951855584339437E9 ; 0.0
25 ; 2269302.488975461 ; 2.0055142101806927E8 ; 3.957887866520075E7 ; 3.389475629451273E9 ; 0.0
26 ; 2289779.7191424454 ; 2.0056323320389122E8 ; 4.1848181154176205E7 ; 3.590027050469342E9 ; 0.0
27 ; 2306292.152229596 ; 2.005752462271024E8 ; 4.413796087331865E7 ; 3.7905902836732335E9 ; 0.0
28 ; 2317987.5494805314 ; 2.005874340505493E8 ; 4.644425302554825E7 ; 3.991165529900336E9 ; 0.0
29 ; 2336742.881029305 ; 2.0059977448360798E8 ; 4.876224057502878E7 ; 4.1917529639508853E9 ; 0.0
30 ; 2352105.356266713 ; 2.0061224854925817E8 ; 5.1098983456058085E7 ; 4.392352738434493E9 ; 0.0
31 ; 2369069.1891850713 ; 2.0062483995828578E8 ; 5.34510888123248E7 ; 4.592964986983751E9 ; 0.0
32 ; 2385626.6319932747 ; 2.0063753467389873E8 ; 5.582015800150987E7 ; 4.793589826942037E9 ; 0.0
33 ; 2398685.2139788955 ; 2.0065032055166155E8 ; 5.820578463350314E7 ; 4.994227361615935E9 ; 0.0
34 ; 2414824.235588262 ; 2.0066318704166877E8 ; 6.060446984748203E7 ; 5.194877682167597E9 ; 0.0
35 ; 2428212.1997845364 ; 2.006761249419071E8 ; 6.301929408307029E7 ; 5.395540869209266E9 ; 0.0
36 ; 2440714.6322259866 ; 2.006891261936174E8 ; 6.544750628285483E7 ; 5.596216994151173E9 ; 0.0
37 ; 2454732.2631057226 ; 2.007021837110922E8 ; 6.788822091508082E7 ; 5.79690612034479E9 ; 0.0
38 ; 2467947.546393137 ; 2.0071529123971945E8 ; 7.034295317818654E7 ; 5.997608304055882E9 ; 0.0
39 ; 2483276.7415835545 ; 2.0072844323722523E8 ; 7.281090072457968E7 ; 6.198323595295602E9 ; 0.0
40 ; 2493006.0177060417 ; 2.0074163477400798E8 ; 7.529417746616323E7 ; 6.399052038532827E9 ; 0.0
41 ; 2505733.8652251735 ; 2.0075486144921955E8 ; 7.778718348386927E7 ; 6.599793673306835E9 ; 0.0
42 ; 2518841.058804186 ; 2.007681193198706E8 ; 8.029291734909445E7 ; 6.800548534756055E9 ; 0.0
43 ; 2526853.097754881 ; 2.0078140484073845E8 ; 8.281175840789863E7 ; 7.001316654075926E9 ; 0.0
44 ; 2537025.442095443 ; 2.0079471481326297E8 ; 8.533861150565352E7 ; 7.202098058916664E9 ; 0.0
45 ; 2547563.017340141 ; 2.0080804634194297E8 ; 8.787563694774896E7 ; 7.402892773729927E9 ; 0.0
46 ; 2559044.6817098414 ; 2.008213967970127E8 ; 9.04231999650891E7 ; 7.60370082007187E9 ; 0.0
47 ; 2565761.26931932 ; 2.008347637823926E8 ; 9.298224464679894E7 ; 7.804522216868882E9 ; 0.0
48 ; 2576515.674141625 ; 2.0084814510808417E8 ; 9.554800591611826E7 ; 8.005356980651275E9 ; 0.0
49 ; 2584566.7216618815 ; 2.0086153876632094E8 ; 9.81245215902599E7 ; 8.206205125759358E9 ; 0.0
50 ; 2591124.5340451677 ; 2.0087494291090384E8 ; 1.0070908831192178E8 ; 8.40706666452568E9 ; 0.0
51 ; 2598579.613010209 ; 2.0088835583924496E8 ; 1.0330021284596695E8 ; 8.607941607436583E9 ; 0.0
52 ; 2608000.9102702774 ; 2.009017759767215E8 ; 1.0589879245897716E8 ; 8.808829963275827E9 ; 0.0
53 ; 2610291.2335793176 ; 2.009152018630057E8 ; 1.0850679336924744E8 ; 9.009731739252548E9 ; 0.0
54 ; 2622117.9242713824 ; 2.0092863214009055E8 ; 1.1111708460282676E8 ; 9.210646941115555E9 ; 0.0
55 ; 2627566.681533983 ; 2.009420655417739E8 ; 1.1373920252709815E8 ; 9.411575573255646E9 ; 0.0
56 ; 2629002.1596315266 ; 2.0095550088440108E8 ; 1.1636676920863213E8 ; 9.61251763879742E9 ; 0.0
57 ; 2638022.349345173 ; 2.0096893705869612E8 ; 1.1899577136826365E8 ; 9.813473139681822E9 ; 0.0
58 ; 2644107.246868332 ; 2.0098237302253655E8 ; 1.2163379371760882E8 ; 1.0014442076740519E10 ; 0.0
59 ; 2649528.9782665037 ; 2.0099580779454896E8 ; 1.2427790096447715E8 ; 1.0215424449763056E10 ; 0.0
60 ; 2655718.1523909606 ; 2.0100924044841996E8 ; 1.2692742994274366E8 ; 1.0416420257557604E10 ; 0.0
61 ; 2664051.676380949 ; 2.0102267010783136E8 ; 1.2958314809513462E8 ; 1.0617429498006023E10 ; 0.0
62 ; 2669191.6447189483 ; 2.0103609594194302E8 ; 1.3224719977151556E8 ; 1.0818452168113855E10 ; 0.0
63 ; 2674405.078010337 ; 2.0104951716135505E8 ; 1.3491639141623452E8 ; 1.1019488264055798E10 ; 0.0
64 ; 2680586.567134515 ; 2.0106293301449284E8 ; 1.3759079649424487E8 ; 1.1220537781217154E10 ; 0.0
65 ; 2685923.3722578017 ; 2.0107634278436357E8 ; 1.402713830613794E8 ; 1.1421600714231646E10 ; 0.0
66 ; 2695106.0593823926 ; 2.0108974578564185E8 ; 1.429573064336372E8 ; 1.1622677057016008E10 ; 0.0
67 ; 2699205.632899904 ; 2.0110314136204562E8 ; 1.4565241249301958E8 ; 1.1823766802801651E10 ; 0.0
68 ; 2702182.270982376 ; 2.0111652888397023E8 ; 1.483516181259195E8 ; 1.2024869944163696E10 ; 0.0
69 ; 2709921.587620153 ; 2.0112990774635136E8 ; 1.5105380039690188E8 ; 1.2225986473047667E10 ; 0.0
70 ; 2713887.4002777725 ; 2.011432773667316E8 ; 1.53763721984522E8 ; 1.2427116380794018E10 ; 0.0
71 ; 2721962.495438323 ; 2.011566371835092E8 ; 1.5647760938479978E8 ; 1.262825965816075E10 ; 0.0
72 ; 2725483.615954404 ; 2.011699866543483E8 ; 1.5919957188023812E8 ; 1.282941629534426E10 ; 0.0
73 ; 2730156.233595023 ; 2.0118332525473508E8 ; 1.619250554961925E8 ; 1.3030586281998608E10 ; 0.0
74 ; 2735104.808002995 ; 2.0119665247666344E8 ; 1.6465521172978753E8 ; 1.3231769607253344E10 ; 0.0
75 ; 2740364.723742394 ; 2.0120996782743764E8 ; 1.6739031653779054E8 ; 1.3432966259730007E10 ; 0.0
76 ; 2744948.9646103005 ; 2.0122327082857987E8 ; 1.7013068126153293E8 ; 1.3634176227557446E10 ; 0.0
77 ; 2748524.8460652702 ; 2.0123656101483205E8 ; 1.7287563022614324E8 ; 1.3835399498386024E10 ; 0.0
78 ; 2750264.12168665 ; 2.0124983793324307E8 ; 1.7562415507220852E8 ; 1.4036636059400856E10 ; 0.0
79 ; 2750106.052177852 ; 2.012631011423326E8 ; 1.7837441919389516E8 ; 1.4237885897334099E10 ; 0.0
80 ; 2755108.4350686474 ; 2.0127635021132487E8 ; 1.81124525246073E8 ; 1.443914899847643E10 ; 0.0
81 ; 2755402.6811514883 ; 2.012895847194447E8 ; 1.8387963368114164E8 ; 1.4640425348687756E10 ; 0.0
82 ; 2754832.991721706 ; 2.013028042552712E8 ; 1.8663503636229312E8 ; 1.48417149334072E10 ; 0.0
83 ; 2754911.456137807 ; 2.01316008416143E8 ; 1.8938986935401484E8 ; 1.5043017737662472E10 ; 0.0
84 ; 2758706.4131575264 ; 2.013291968076105E8 ; 1.9214478081015265E8 ; 1.5244333746078615E10 ; 0.0
85 ; 2754636.1866927613 ; 2.01342369042931E8 ; 1.9490348722331017E8 ; 1.5445662942886227E10 ; 0.0
86 ; 2755683.388606845 ; 2.0135552474260277E8 ; 1.9765812341000295E8 ; 1.5647005311929157E10 ; 0.0
87 ; 2757299.4972282513 ; 2.01368663533935E8 ; 2.004138067986098E8 ; 1.584836083667176E10 ; 0.0
88 ; 2756301.047759299 ; 2.0138178505064994E8 ; 2.0317110629583806E8 ; 1.6049729500205696E10 ; 0.0
89 ; 2755580.635837865 ; 2.0139488893251473E8 ; 2.0592740734359735E8 ; 1.6251111285256346E10 ; 0.0
90 ; 2757786.9127996685 ; 2.0140797482500076E8 ; 2.086829879794352E8 ; 1.645250617418886E10 ; 0.0
91 ; 2758530.8016604455 ; 2.0142104237896773E8 ; 2.1144077489223486E8 ; 1.665391414901386E10 ; 0.0
92 ; 2756165.244795176 ; 2.0143409125037035E8 ; 2.141993056938953E8 ; 1.6855335191392828E10 ; 0.0
93 ; 2759306.4934541592 ; 2.0144712109998658E8 ; 2.1695547093869048E8 ; 1.7056769282643198E10 ; 0.0
94 ; 2757017.671133966 ; 2.0146013159316453E8 ; 2.1971477743214464E8 ; 1.7258216403743183E10 ; 0.0
95 ; 2756481.8209018656 ; 2.014731223995876E8 ; 2.224717951032786E8 ; 1.745967653533635E10 ; 0.0
96 ; 2759237.8517755694 ; 2.014860931930556E8 ; 2.2522827692418048E8 ; 1.7661149657735935E10 ; 0.0
97 ; 2756481.958716343 ; 2.0149904365128112E8 ; 2.2798751477595603E8 ; 1.786263575092899E10 ; 0.0
98 ; 2756199.6090250253 ; 2.0151197345569974E8 ; 2.3074399673467237E8 ; 1.806413479458027E10 ; 0.0
99 ; 2753999.0673893774 ; 2.01524882291293E8 ; 2.335001963436974E8 ; 1.826564676803597E10 ; 0.0
100 ; 2752898.525165825 ; 2.015377698464233E8 ; 2.3625419541108677E8 ; 1.8467171650327263E10 ; 0.0
101 ; 2752072.4910452757 ; 2.0155063581267968E8 ; 2.390070939362526E8 ; 1.8668709420173687E10 ; 0.0
102 ; 2751313.776792676 ; 2.0156347988473386E8 ; 2.4175916642729786E8 ; 1.8870260055986366E10 ; 0.0
103 ; 2752070.4328418775 ; 2.0157630176020548E8 ; 2.4451048020409054E8 ; 1.90718235358711E10 ; 0.0
104 ; 2749785.3106189044 ; 2.0158910113953623E8 ; 2.472625506369324E8 ; 1.9273399837631306E10 ; 0.0
105 ; 2747858.9258610974 ; 2.016018777258721E8 ; 2.500123359475513E8 ; 1.9474988938770844E10 ; 0.0
106 ; 2749179.3757566237 ; 2.0161463122495276E8 ; 2.527601948734124E8 ; 1.9676590816496716E10 ; 0.0
107 ; 2747294.0122746443 ; 2.0162736134500846E8 ; 2.5550937424916902E8 ; 1.987820544772167E10 ; 0.0
108 ; 2747602.482543825 ; 2.0164006779666308E8 ; 2.5825666826144367E8 ; 2.0079832809066677E10 ; 0.0
109 ; 2745581.731068644 ; 2.0165275029284316E8 ; 2.610042707439875E8 ; 2.028147287686334E10 ; 0.0
110 ; 2741341.445412071 ; 2.0166540854869276E8 ; 2.6374985247505614E8 ; 2.048312562715618E10 ; 0.0
111 ; 2740474.91223082 ; 2.0167804228149354E8 ; 2.664911939204682E8 ; 2.0684791035704876E10 ; 0.0
112 ; 2737427.230601152 ; 2.0169065121058953E8 ; 2.6923166883269906E8 ; 2.088646907798637E10 ; 0.0
113 ; 2734675.846122705 ; 2.017032350573166E8 ; 2.719690960633002E8 ; 2.108815972919696E10 ; 0.0
114 ; 2731832.5899361204 ; 2.0171579354493627E8 ; 2.747037719094229E8 ; 2.1289862964254276E10 ; 0.0
115 ; 2734575.7661397904 ; 2.017283263985733E8 ; 2.77435604499359E8 ; 2.1491578757799213E10 ; 0.0
116 ; 2731578.4480051687 ; 2.0174083334515718E8 ; 2.801701802654988E8 ; 2.169330708419779E10 ; 0.0
117 ; 2728537.0385986282 ; 2.0175331411336684E8 ; 2.8290175871350396E8 ; 2.1895047917542946E10 ; 0.0
118 ; 2727282.364416258 ; 2.0176576843357906E8 ; 2.856302957521026E8 ; 2.209680123165631E10 ; 0.0
119 ; 2724542.476393968 ; 2.0177819603781942E8 ; 2.8835757811651886E8 ; 2.229856700008989E10 ; 0.0
120 ; 2721880.89665918 ; 2.0179059665971652E8 ; 2.910821205929128E8 ; 2.250034519612771E10 ; 0.0
121 ; 2721519.1380721102 ; 2.0180297003445864E8 ; 2.93804001489572E8 ; 2.2702135792787426E10 ; 0.0
122 ; 2715632.6296129413 ; 2.018153158987529E8 ; 2.965255206276441E8 ; 2.2903938762821884E10 ; 0.0
123 ; 2713616.896501425 ; 2.018276339907871E8 ; 2.9924115325725704E8 ; 2.310575407872064E10 ; 0.0
124 ; 2712076.5044390005 ; 2.0183992405019325E8 ; 3.0195477015375847E8 ; 2.3307581712711426E10 ; 0.0
125 ; 2708590.8044418357 ; 2.018521858180138E8 ; 3.0466684665819746E8 ; 2.350942163676162E10 ; 0.0
126 ; 2705465.2410011506 ; 2.0186441903666916E8 ; 3.073754374626393E8 ; 2.371127382257963E10 ; 0.0
127 ; 2702939.935250771 ; 2.0187662344992775E8 ; 3.100809027036404E8 ; 2.3913138241616302E10 ; 0.0
128 ; 2699692.4150254107 ; 2.0188879880287722E8 ; 3.1278384263889116E8 ; 2.411501486506623E10 ; 0.0
129 ; 2698190.6928593265 ; 2.0190094484189755E8 ; 3.154835350539166E8 ; 2.4316903663869106E10 ; 0.0
130 ; 2689744.077367666 ; 2.019130613146358E8 ; 3.181817257467759E8 ; 2.4518804608711002E10 ; 0.0
131 ; 2689038.155231798 ; 2.019251479699821E8 ; 3.208714698241436E8 ; 2.472071767002564E10 ; 0.0
132 ; 2679629.3531000386 ; 2.0193720455804697E8 ; 3.2356050797937536E8 ; 2.492264281799562E10 ; 0.0
133 ; 2668184.4777322095 ; 2.019492308301402E8 ; 3.262401373324754E8 ; 2.512458002255367E10 ; 0.0
134 ; 2666616.3850159394 ; 2.0196122653875083E8 ; 3.289083218102076E8 ; 2.532652925338381E10 ; 0.0
135 ; 2656165.4313109904 ; 2.01973191437528E8 ; 3.3157493819522357E8 ; 2.5528490479922558E10 ; 0.0
136 ; 2648242.088021131 ; 2.0198512528126344E8 ; 3.342311036265346E8 ; 2.5730463671360085E10 ; 0.0
137 ; 2642161.1211532163 ; 2.0199702782587442E8 ; 3.3687934571455574E8 ; 2.593244879664135E10 ; 0.0
138 ; 2635288.304702247 ; 2.02008898828388E8 ; 3.39521506835709E8 ; 2.6134445824467224E10 ; 0.0
139 ; 2623581.39452757 ; 2.020207380469262E8 ; 3.421567951404112E8 ; 2.6336454723295612E10 ; 0.0
140 ; 2619765.7773927 ; 2.0203254524069187E8 ; 3.4478037653493875E8 ; 2.6538475461342537E10 ; 0.0
141 ; 2611065.7117226394 ; 2.0204432016995543E8 ; 3.4740014231233144E8 ; 2.674050800658323E10 ; 0.0
142 ; 2601720.11736019 ; 2.0205606259604257E8 ; 3.5001120802405405E8 ; 2.6942552326753185E10 ; 0.0
143 ; 2594480.891066246 ; 2.020677722813224E8 ; 3.526129281414142E8 ; 2.7144608389349228E10 ; 0.0
144 ; 2584378.2734467615 ; 2.0207944898919645E8 ; 3.552074090324805E8 ; 2.734667616163055E10 ; 0.0
145 ; 2581960.0401655133 ; 2.0209109248408845E8 ; 3.577917873059272E8 ; 2.7548755610619747E10 ; 0.0
146 ; 2578618.413526011 ; 2.0210270253143445E8 ; 3.603737473460927E8 ; 2.7750846703103836E10 ; 0.0
147 ; 2576649.7898114203 ; 2.0211427889767376E8 ; 3.629523657596187E8 ; 2.795294940563527E10 ; 0.0
148 ; 2571312.576194343 ; 2.0212582135024038E8 ; 3.6552901554943013E8 ; 2.8155063684532944E10 ; 0.0
149 ; 2567036.153678548 ; 2.0213732965755495E8 ; 3.681003281256245E8 ; 2.8357189505883183E10 ; 0.0
150 ; 2569603.320332098 ; 2.0214880358901724E8 ; 3.70667364279303E8 ; 2.8559326835540737E10 ; 0.0
151 ; 2565422.4635335854 ; 2.0216024291499913E8 ; 3.732369675996351E8 ; 2.8761475639129753E10 ; 0.0
152 ; 2559359.170517545 ; 2.021716474068379E8 ; 3.758023900631687E8 ; 2.8963635882044754E10 ; 0.0
153 ; 2555515.9972565915 ; 2.021830168368303E8 ; 3.7836174923368627E8 ; 2.916580752945159E10 ; 0.0
154 ; 2553313.117887405 ; 2.0219435097822654E8 ; 3.8091726523094285E8 ; 2.936799054628842E10 ; 0.0
155 ; 2551657.1086480324 ; 2.022056496052253E8 ; 3.834705783488302E8 ; 2.9570184897266647E10 ; 0.0
156 ; 2545246.0239358344 ; 2.0221691249296832E8 ; 3.860222354574783E8 ; 2.9772390546871872E10 ; 0.0
157 ; 2543673.213423761 ; 2.022281394175362E8 ; 3.8856748148141414E8 ; 2.997460745936484E10 ; 0.0
158 ; 2542162.0483610337 ; 2.0223933015594384E8 ; 3.911111546948379E8 ; 3.017683559878238E10 ; 0.0
159 ; 2536895.4371913974 ; 2.0225048448613662E8 ; 3.93653316743199E8 ; 3.0379074928938324E10 ; 0.0
160 ; 2535499.406310755 ; 2.0226160218698668E8 ; 3.961902121803904E8 ; 3.058132541342446E10 ; 0.0
161 ; 2529029.7756917924 ; 2.022726830382896E8 ; 3.9872571158670115E8 ; 3.0783587015611446E10 ; 0.0
162 ; 2528695.330744166 ; 2.0228372682076135E8 ; 4.0125474136239296E8 ; 3.0985859698649734E10 ; 0.0
163 ; 2523753.879235421 ; 2.0229473331603536E8 ; 4.037834366931371E8 ; 3.1188143425470497E10 ; 0.0
164 ; 2519313.914823928 ; 2.023057023066601E8 ; 4.0630719057237256E8 ; 3.1390438158786533E10 ; 0.0
165 ; 2518007.030984748 ; 2.0231663357609656E8 ; 4.088265044871965E8 ; 3.1592743861093193E10 ; 0.0
166 ; 2512580.444692373 ; 2.023275269087164E8 ; 4.1134451151818126E8 ; 3.179506049466929E10 ; 0.0
167 ; 2507935.16557243 ; 2.0233838208979988E8 ; 4.1385709196287364E8 ; 3.1997388021578007E10 ; 0.0
168 ; 2506366.528810008 ; 2.023491989055342E8 ; 4.1636502712844604E8 ; 3.219972640366781E10 ; 0.0
169 ; 2502692.809069002 ; 2.0235997714301208E8 ; 4.1887139365725607E8 ; 3.240207560257334E10 ; 0.0
170 ; 2497525.262639909 ; 2.0237071659023046E8 ; 4.2137408646632504E8 ; 3.2604435579716354E10 ; 0.0
171 ; 2495410.8874925748 ; 2.0238141703608936E8 ; 4.238716117289649E8 ; 3.2806806296306583E10 ; 0.0
172 ; 2490778.4308793996 ; 2.0239207827039096E8 ; 4.263670226164575E8 ; 3.3009187713342674E10 ; 0.0
173 ; 2486783.294649794 ; 2.0240270008383882E8 ; 4.2885780104733694E8 ; 3.3211579791613064E10 ; 0.0
174 ; 2483356.3749358943 ; 2.0241328226803726E8 ; 4.313445843419867E8 ; 3.3413982491696903E10 ; 0.0
175 ; 2481957.5525268726 ; 2.024238246154909E8 ; 4.338279407169226E8 ; 3.361639577396494E10 ; 0.0
176 ; 2480166.3384887525 ; 2.0243432691960427E8 ; 4.363098982694495E8 ; 3.381881959858043E10 ; 0.0
177 ; 2481634.4990146016 ; 2.024447889746817E8 ; 4.3879006460793823E8 ; 3.4021253925500034E10 ; 0.0
178 ; 2477719.0879594353 ; 2.0245521057592714E8 ; 4.4127169910695285E8 ; 3.4223698714474716E10 ; 0.0
179 ; 2475917.6969284783 ; 2.0246559151944435E8 ; 4.4374941819491225E8 ; 3.4426153925050644E10 ; 0.0
180 ; 2471146.9761339924 ; 2.0247593160223693E8 ; 4.4622533589184076E8 ; 3.462861951657009E10 ; 0.0
181 ; 2470378.2322434806 ; 2.024862306222087E8 ; 4.4869648286797476E8 ; 3.4831095448172325E10 ; 0.0
182 ; 2467859.3149984335 ; 2.0249648837816414E8 ; 4.5116686110021824E8 ; 3.503358167879453E10 ; 0.0
183 ; 2462538.0896878154 ; 2.025067046698086E8 ; 4.536347204152167E8 ; 3.52360781671727E10 ; 0.0
184 ; 2463985.6335979938 ; 2.0251687929774922E8 ; 4.560972585049045E8 ; 3.543858487184251E10 ; 0.0
185 ; 2460361.74843335 ; 2.0252701206349546E8 ; 4.585612441385025E8 ; 3.564110175114026E10 ; 0.0
186 ; 2459010.5613678354 ; 2.0253710276945984E8 ; 4.6102160588693583E8 ; 3.584362876320375E10 ; 0.0
187 ; 2456238.8030192195 ; 2.0254715121895885E8 ; 4.6348061644830364E8 ; 3.604616586597321E10 ; 0.0
188 ; 2451649.3827977204 ; 2.0255715721621382E8 ; 4.6593685525132287E8 ; 3.624871301719217E10 ; 0.0
189 ; 2449750.538239202 ; 2.0256712056635195E8 ; 4.683885046341206E8 ; 3.645127017440839E10 ; 0.0
190 ; 2449557.4281394864 ; 2.0257704107540742E8 ; 4.7083825517235976E8 ; 3.665383729497474E10 ; 0.0
191 ; 2442609.2814981705 ; 2.025869185503225E8 ; 4.732878126004993E8 ; 3.685641433605015E10 ; 0.0
192 ; 2442649.5906854067 ; 2.0259675279894876E8 ; 4.7573042188199747E8 ; 3.705900125460047E10 ; 0.0
193 ; 2440836.518405265 ; 2.026065436300484E8 ; 4.781730714726829E8 ; 3.726159800739942E10 ; 0.0
194 ; 2439687.207726679 ; 2.0261629085329545E8 ; 4.8061390799108815E8 ; 3.746420455102947E10 ; 0.0
195 ; 2435330.617358116 ; 2.026259942792773E8 ; 4.830535951988148E8 ; 3.766682084188277E10 ; 0.0
196 ; 2437074.151107824 ; 2.026356537194961E8 ; 4.854889258161729E8 ; 3.786944683616204E10 ; 0.0
197 ; 2429466.6982831205 ; 2.0264526898637024E8 ; 4.8792599996728075E8 ; 3.807208248988154E10 ; 0.0
198 ; 2428117.4624786004 ; 2.0265483989323586E8 ; 4.903554666655639E8 ; 3.827472775886791E10 ; 0.0
199 ; 2425689.2255326128 ; 2.026643662543485E8 ; 4.9278358412804246E8 ; 3.847738259876115E10 ; 0.0
200 ; 2422536.481943568 ; 2.0267384788488474E8 ; 4.9520927335357505E8 ; 3.8680046965015495E10 ; 0.0
