CSV File for the City 6 on Day 215
1 - Minute m 
2 - Power Consumed at minute m 
3 - Power Produced at minute m 
4 - Energy Consumed since the beginning of the day 
5 - Energy Produced since the beginning of the day 
6 - Energy Lost since the beginning of the day on lines starting from the city
 
0 ; 709266.2639922365 ; 1.0552997362211487E8 ; 0.0 ; 0.0 ; 0.0
1 ; 721317.9028278777 ; 1.056787682177121E8 ; 709266.2639922365 ; 1.0552997362211487E8 ; 0.0
2 ; 734568.8105186068 ; 1.061367130717285E8 ; 1430584.166820114 ; 2.1120874183982697E8 ; 0.0
3 ; 749018.0177177291 ; 1.0690383021446645E8 ; 2165152.977338721 ; 3.1734545491155547E8 ; 0.0
4 ; 766060.2297889023 ; 1.0798014041348934E8 ; 2914170.9950564504 ; 4.242492851260219E8 ; 0.0
5 ; 788151.4272320658 ; 1.0936566276789337E8 ; 3680231.2248453526 ; 5.3222942553951126E8 ; 0.0
6 ; 817030.7694321705 ; 1.1106041430144116E8 ; 4468382.652077419 ; 6.415950883074046E8 ; 0.0
7 ; 855011.0846271118 ; 1.1306440957210416E8 ; 5285413.421509589 ; 7.526555026088458E8 ; 0.0
8 ; 907302.0757991937 ; 1.1537766031701344E8 ; 6140424.5061367005 ; 8.657199121809499E8 ; 0.0
9 ; 991573.686505649 ; 1.180001751518107E8 ; 7047726.581935894 ; 9.810975724979634E8 ; 0.0
10 ; 1118181.04540936 ; 1.2093195934168655E8 ; 8039300.268441543 ; 1.099097747649774E9 ; 0.0
11 ; 1314851.6891719978 ; 1.2417301465798357E8 ; 9157481.313850902 ; 1.2200297069914606E9 ; 0.0
12 ; 1635734.7887869223 ; 1.2772333932935914E8 ; 1.04723330030229E7 ; 1.344202721649444E9 ; 0.0
13 ; 1939966.5729535224 ; 1.3158292809062266E8 ; 1.2108067791809822E7 ; 1.4719260609788032E9 ; 0.0
14 ; 1979058.224177025 ; 1.3575177232613254E8 ; 1.4048034364763344E7 ; 1.6035089890694258E9 ; 0.0
15 ; 1995755.4064930968 ; 1.4022986029875755E8 ; 1.6027092588940369E7 ; 1.7392607613955584E9 ; 0.0
16 ; 2011076.9391726234 ; 1.450171774505264E8 ; 1.8022847995433465E7 ; 1.879490621694316E9 ; 0.0
17 ; 2025064.4874956496 ; 1.5011370675767633E8 ; 2.0033924934606086E7 ; 2.0245077991448424E9 ; 0.0
18 ; 2043436.4094475217 ; 1.555194291211112E8 ; 2.2058989422101736E7 ; 2.1746215059025187E9 ; 0.0
19 ; 2058133.0429488092 ; 1.6123432377326766E8 ; 2.4102425831549257E7 ; 2.33014093502363E9 ; 0.0
20 ; 2076027.7808558268 ; 1.6725836868384323E8 ; 2.6160558874498066E7 ; 2.491375258796898E9 ; 0.0
21 ; 2090267.5538356379 ; 1.7359154094938633E8 ; 2.8236586655353893E7 ; 2.658633627480741E9 ; 0.0
22 ; 2108245.523828973 ; 1.8023381715494376E8 ; 3.032685420918953E7 ; 2.832225168430127E9 ; 0.0
23 ; 2123719.519505625 ; 1.8718517369939286E8 ; 3.2435099733018503E7 ; 3.012458985585071E9 ; 0.0
24 ; 2143815.198158924 ; 1.9444558707939273E8 ; 3.455881925252413E7 ; 3.199644159284464E9 ; 0.0
25 ; 2159460.1550399503 ; 2.00703075028009E8 ; 3.670263445068306E7 ; 3.394089746363857E9 ; 0.0
26 ; 2174116.415203726 ; 2.0071116274881768E8 ; 3.886209460572301E7 ; 3.5947928213918657E9 ; 0.0
27 ; 2190896.1840669014 ; 2.007195975968947E8 ; 4.103621102092674E7 ; 3.795503984140683E9 ; 0.0
28 ; 2207906.301058801 ; 2.0072835844392526E8 ; 4.3227107204993635E7 ; 3.996223581737578E9 ; 0.0
29 ; 2222984.7944251285 ; 2.007374250561744E8 ; 4.5435013506052434E7 ; 4.1969519401815033E9 ; 0.0
30 ; 2238926.7533062636 ; 2.007467781500861E8 ; 4.7657998300477564E7 ; 4.397689365237678E9 ; 0.0
31 ; 2255175.6429482982 ; 2.007563994232713E8 ; 4.989692505378383E7 ; 4.598436143387764E9 ; 0.0
32 ; 2271977.440294126 ; 2.0076627156520373E8 ; 5.2152100696732126E7 ; 4.799192542811035E9 ; 0.0
33 ; 2284786.1729009165 ; 2.0077637825159645E8 ; 5.442407813702625E7 ; 4.999958814376239E9 ; 0.0
34 ; 2300258.6488815416 ; 2.0078670412600377E8 ; 5.6708864309927166E7 ; 5.200735192627835E9 ; 0.0
35 ; 2316782.084801962 ; 2.0079723477173018E8 ; 5.9009122958808705E7 ; 5.4015218967538395E9 ; 0.0
36 ; 2329908.3665544963 ; 2.008079566766667E8 ; 6.132590504361067E7 ; 5.60231913152557E9 ; 0.0
37 ; 2342946.272763938 ; 2.0081885719323704E8 ; 6.365581341016517E7 ; 5.803127088202236E9 ; 0.0
38 ; 2353166.4620931507 ; 2.0082992449523768E8 ; 6.5998759682929106E7 ; 6.0039459453954735E9 ; 0.0
39 ; 2369305.7463991903 ; 2.0084114753300336E8 ; 6.835192614502226E7 ; 6.204775869890711E9 ; 0.0
40 ; 2383161.929601577 ; 2.0085251598802254E8 ; 7.072123189142145E7 ; 6.405617017423715E9 ; 0.0
41 ; 2391237.4633499286 ; 2.0086402022786984E8 ; 7.310439382102303E7 ; 6.606469533411737E9 ; 0.0
42 ; 2407058.3833597396 ; 2.0087565126210597E8 ; 7.549563128437296E7 ; 6.807333553639607E9 ; 0.0
43 ; 2414482.409207577 ; 2.0088740069961825E8 ; 7.79026896677327E7 ; 7.008209204901713E9 ; 0.0
44 ; 2427043.2102694307 ; 2.0089926070773196E8 ; 8.031717207694028E7 ; 7.209096605601332E9 ; 0.0
45 ; 2436904.3484528377 ; 2.0091122397330844E8 ; 8.274421528720972E7 ; 7.409995866309064E9 ; 0.0
46 ; 2445207.852618273 ; 2.0092328366595626E8 ; 8.518111963566256E7 ; 7.610907090282372E9 ; 0.0
47 ; 2454897.7299510837 ; 2.00935433403412E8 ; 8.762632748828083E7 ; 7.811830373948329E9 ; 0.0
48 ; 2462216.378140371 ; 2.0094766721909583E8 ; 9.008122521823192E7 ; 8.012765807351741E9 ; 0.0
49 ; 2472752.628615476 ; 2.0095997953180587E8 ; 9.254344159637229E7 ; 8.213713474570837E9 ; 0.0
50 ; 2478150.388111552 ; 2.0097236511748952E8 ; 9.501619422498778E7 ; 8.414673454102643E9 ; 0.0
51 ; 2484542.1983537986 ; 2.0098481908300817E8 ; 9.749434461309932E7 ; 8.615645819220133E9 ; 0.0
52 ; 2491188.197230215 ; 2.009973368417999E8 ; 9.997888681145312E7 ; 8.81663063830314E9 ; 0.0
53 ; 2499803.479618395 ; 2.0100991409133708E8 ; 1.0247007500868334E8 ; 9.017627975144941E9 ; 0.0
54 ; 2506546.0615601456 ; 2.010225467922708E8 ; 1.0496987848830174E8 ; 9.218637889236279E9 ; 0.0
55 ; 2513386.063842788 ; 2.010352311491552E8 ; 1.0747642454986188E8 ; 9.41966043602855E9 ; 0.0
56 ; 2522686.1411425676 ; 2.0104796359264424E8 ; 1.0998981061370467E8 ; 9.620695667177704E9 ; 0.0
57 ; 2526844.340385633 ; 2.0106074076305792E8 ; 1.1251249675484723E8 ; 9.821743630770348E9 ; 0.0
58 ; 2530098.9669767874 ; 2.0107355949521804E8 ; 1.1503934109523286E8 ; 1.0022804371533405E10 ; 0.0
59 ; 2539893.580668232 ; 2.01086416804459E8 ; 1.1756944006220965E8 ; 1.0223877931028624E10 ; 0.0
60 ; 2546038.957554319 ; 2.010993098737241E8 ; 1.2010933364287788E8 ; 1.0424964347833082E10 ; 0.0
61 ; 2553565.562508959 ; 2.0111223604166335E8 ; 1.226553726004322E8 ; 1.0626063657706806E10 ; 0.0
62 ; 2557708.9521521544 ; 2.0112519279165408E8 ; 1.2520893816294116E8 ; 1.082717589374847E10 ; 0.0
63 ; 2562670.8070012643 ; 2.011381777416716E8 ; 1.277666471150933E8 ; 1.1028301086540125E10 ; 0.0
64 ; 2571354.957737054 ; 2.011511886349414E8 ; 1.3032931792209457E8 ; 1.1229439264281797E10 ; 0.0
65 ; 2577461.4157181843 ; 2.0116422333131102E8 ; 1.3290067287983163E8 ; 1.1430590452916739E10 ; 0.0
66 ; 2579846.1513655405 ; 2.0117727979928267E8 ; 1.354781342955498E8 ; 1.1631754676248049E10 ; 0.0
67 ; 2589790.978714187 ; 2.0119035610865384E8 ; 1.3805798044691536E8 ; 1.183293195604733E10 ; 0.0
68 ; 2593324.842208974 ; 2.0120345042371637E8 ; 1.4064777142562956E8 ; 1.2034122312155985E10 ; 0.0
69 ; 2600859.8672917737 ; 2.0121656099696895E8 ; 1.4324109626783854E8 ; 1.22353257625797E10 ; 0.0
70 ; 2604576.3910196987 ; 2.0122968616330132E8 ; 1.4584195613513032E8 ; 1.243654232357667E10 ; 0.0
71 ; 2610449.800960735 ; 2.012428243346125E8 ; 1.4844653252615002E8 ; 1.2637772009739971E10 ; 0.0
72 ; 2610845.311458638 ; 2.0125597399482742E8 ; 1.5105698232711077E8 ; 1.2839014834074583E10 ; 0.0
73 ; 2625046.8356505544 ; 2.0126913369528064E8 ; 1.536678276385694E8 ; 1.304027080806941E10 ; 0.0
74 ; 2625775.856944121 ; 2.012823020504374E8 ; 1.5629287447421998E8 ; 1.324153994176469E10 ; 0.0
75 ; 2630916.8149733134 ; 2.0129547773392513E8 ; 1.589186503311641E8 ; 1.3442822243815128E10 ; 0.0
76 ; 2635927.8469179175 ; 2.0130865947485098E8 ; 1.6154956714613742E8 ; 1.3644117721549053E10 ; 0.0
77 ; 2640993.3409899063 ; 2.013218460543824E8 ; 1.6418549499305534E8 ; 1.3845426381023905E10 ; 0.0
78 ; 2643447.7011685492 ; 2.0133503630257085E8 ; 1.6682648833404526E8 ; 1.4046748227078287E10 ; 0.0
79 ; 2643658.194716632 ; 2.0134822909539843E8 ; 1.694699360352138E8 ; 1.4248083263380857E10 ; 0.0
80 ; 2641008.677711539 ; 2.013614233520316E8 ; 1.7211359422993043E8 ; 1.4449431492476255E10 ; 0.0
81 ; 2645897.1986196646 ; 2.013746180322647E8 ; 1.7475460290764198E8 ; 1.4650792915828287E10 ; 0.0
82 ; 2647692.2642805283 ; 2.0138781213413966E8 ; 1.7740050010626164E8 ; 1.4852167533860552E10 ; 0.0
83 ; 2647472.3527831566 ; 2.0140100469172758E8 ; 1.8004819237054217E8 ; 1.5053555345994692E10 ; 0.0
84 ; 2646830.582537167 ; 2.0141419477306095E8 ; 1.826956647233253E8 ; 1.5254956350686419E10 ; 0.0
85 ; 2650084.196836103 ; 2.014273814782042E8 ; 1.853424953058625E8 ; 1.545637054545948E10 ; 0.0
86 ; 2651511.6914661033 ; 2.0144056393745288E8 ; 1.879925795026986E8 ; 1.5657797926937685E10 ; 0.0
87 ; 2649887.7993907253 ; 2.014537413096518E8 ; 1.906440911941647E8 ; 1.5859238490875137E10 ; 0.0
88 ; 2653952.4016730455 ; 2.0146691278062308E8 ; 1.9329397899355543E8 ; 1.606069223218479E10 ; 0.0
89 ; 2653599.7842106908 ; 2.0148007756169647E8 ; 1.9594793139522848E8 ; 1.6262159144965412E10 ; 0.0
90 ; 2651030.0797046176 ; 2.0149323488833427E8 ; 1.9860153117943916E8 ; 1.646363922252711E10 ; 0.0
91 ; 2653483.4830005313 ; 2.0150638401884416E8 ; 2.0125256125914377E8 ; 1.6665132457415443E10 ; 0.0
92 ; 2650225.036551854 ; 2.015195242331734E8 ; 2.039060447421443E8 ; 1.6866638841434288E10 ; 0.0
93 ; 2652361.0838460363 ; 2.015326548317791E8 ; 2.0655626977869615E8 ; 1.7068158365667461E10 ; 0.0
94 ; 2654817.7120058592 ; 2.0154577513456872E8 ; 2.0920863086254218E8 ; 1.726969102049924E10 ; 0.0
95 ; 2652330.343359078 ; 2.0155888447990617E8 ; 2.1186344857454804E8 ; 1.747123679563381E10 ; 0.0
96 ; 2651700.7766287387 ; 2.0157198222367874E8 ; 2.1451577891790712E8 ; 1.7672795680113716E10 ; 0.0
97 ; 2650901.190150632 ; 2.01585067738421E8 ; 2.1716747969453585E8 ; 1.7874367662337395E10 ; 0.0
98 ; 2651775.4525663 ; 2.0159814041249135E8 ; 2.1981838088468647E8 ; 1.8075952730075817E10 ; 0.0
99 ; 2652257.9560923353 ; 2.016111996492982E8 ; 2.2247015633725277E8 ; 1.8277550870488308E10 ; 0.0
100 ; 2649891.228647479 ; 2.0162424486657158E8 ; 2.251224142933451E8 ; 1.8479162070137608E10 ; 0.0
101 ; 2649517.456401617 ; 2.0163727549567834E8 ; 2.2777230552199256E8 ; 1.868078631500418E10 ; 0.0
102 ; 2649597.4436863614 ; 2.016502909809768E8 ; 2.3042182297839418E8 ; 1.888242359049986E10 ; 0.0
103 ; 2650696.2441305043 ; 2.0166329077920917E8 ; 2.3307142042208055E8 ; 1.9084073881480835E10 ; 0.0
104 ; 2647173.0086475518 ; 2.016762743589288E8 ; 2.3572211666621104E8 ; 1.9285737172260044E10 ; 0.0
105 ; 2646013.319870867 ; 2.0168924119996032E8 ; 2.383692896748586E8 ; 1.9487413446618973E10 ; 0.0
106 ; 2646322.654641157 ; 2.0170219079289004E8 ; 2.4101530299472946E8 ; 1.968910268781893E10 ; 0.0
107 ; 2645789.023441268 ; 2.017151226385855E8 ; 2.436616256493706E8 ; 1.989080487861182E10 ; 0.0
108 ; 2641757.8035663767 ; 2.0172803624774128E8 ; 2.4630741467281187E8 ; 2.0092520001250404E10 ; 0.0
109 ; 2645483.725851412 ; 2.017409311404505E8 ; 2.4894917247637823E8 ; 2.0294248037498146E10 ; 0.0
110 ; 2639948.349060805 ; 2.0175380684579957E8 ; 2.5159465620222965E8 ; 2.0495988968638596E10 ; 0.0
111 ; 2639447.963179313 ; 2.0176666290148512E8 ; 2.5423460455129045E8 ; 2.0697742775484394E10 ; 0.0
112 ; 2638839.8118567048 ; 2.017794988534517E8 ; 2.5687405251446977E8 ; 2.089950943838588E10 ; 0.0
113 ; 2635311.5582577568 ; 2.017923142555492E8 ; 2.595128923263265E8 ; 2.110128893723933E10 ; 0.0
114 ; 2634083.650624091 ; 2.0180510866920808E8 ; 2.6214820388458425E8 ; 2.130308125149488E10 ; 0.0
115 ; 2635268.1670557605 ; 2.0181788166313234E8 ; 2.6478228753520834E8 ; 2.150488636016409E10 ; 0.0
116 ; 2630845.3728536 ; 2.0183063281300828E8 ; 2.674175557022641E8 ; 2.170670424182722E10 ; 0.0
117 ; 2628550.177448733 ; 2.0184336170122883E8 ; 2.700484010751177E8 ; 2.190853487464023E10 ; 0.0
118 ; 2628109.188335745 ; 2.0185606791663188E8 ; 2.7267695125256646E8 ; 2.2110378236341457E10 ; 0.0
119 ; 2626729.095249653 ; 2.0186875105425227E8 ; 2.753050604409022E8 ; 2.231223430425809E10 ; 0.0
120 ; 2623893.6886364175 ; 2.0188141071508655E8 ; 2.779317895361518E8 ; 2.2514103055312344E10 ; 0.0
121 ; 2622234.9435664034 ; 2.0189404650586963E8 ; 2.8055568322478825E8 ; 2.271598446602743E10 ; 0.0
122 ; 2620360.542634084 ; 2.0190665803886262E8 ; 2.8317791816835463E8 ; 2.2917878512533302E10 ; 0.0
123 ; 2618830.1907623494 ; 2.0191924493165165E8 ; 2.857982787109887E8 ; 2.3119785170572166E10 ; 0.0
124 ; 2616233.293739553 ; 2.0193180680695635E8 ; 2.8841710890175104E8 ; 2.332170441550382E10 ; 0.0
125 ; 2612940.249689141 ; 2.0194434329244816E8 ; 2.910333421954906E8 ; 2.3523636222310776E10 ; 0.0
126 ; 2610041.840817772 ; 2.0195685402057734E8 ; 2.9364628244517976E8 ; 2.3725580565603226E10 ; 0.0
127 ; 2606902.0260918783 ; 2.019693386284086E8 ; 2.962563242859975E8 ; 2.3927537419623802E10 ; 0.0
128 ; 2602345.3236902575 ; 2.019817967574648E8 ; 2.988632263120894E8 ; 2.4129506758252213E10 ; 0.0
129 ; 2600591.015784915 ; 2.0199422805357796E8 ; 3.014655716357796E8 ; 2.4331488555009678E10 ; 0.0
130 ; 2592119.7770924103 ; 2.0200663216674772E8 ; 3.0406616265156454E8 ; 2.4533482783063255E10 ; 0.0
131 ; 2592483.527960493 ; 2.0201900875100645E8 ; 3.0665828242865694E8 ; 2.4735489415230003E10 ; 0.0
132 ; 2582688.647958457 ; 2.0203135746429074E8 ; 3.092507659566174E8 ; 2.493750842398101E10 ; 0.0
133 ; 2576645.768022415 ; 2.02043677968319E8 ; 3.118334546045759E8 ; 2.51395397814453E10 ; 0.0
134 ; 2567174.748380413 ; 2.0205596992847484E8 ; 3.144101003725983E8 ; 2.534158345941362E10 ; 0.0
135 ; 2564602.824479616 ; 2.0206823301369596E8 ; 3.169772751209787E8 ; 2.5543639429342094E10 ; 0.0
136 ; 2554285.7863753024 ; 2.0208046689636806E8 ; 3.1954187794545835E8 ; 2.574570766235579E10 ; 0.0
137 ; 2546827.1137877787 ; 2.0209267125222376E8 ; 3.2209616373183364E8 ; 2.594778812925216E10 ; 0.0
138 ; 2540443.9626046913 ; 2.0210484576024622E8 ; 3.246429908456214E8 ; 2.6149880800504383E10 ; 0.0
139 ; 2534637.7566758976 ; 2.021169901025771E8 ; 3.271834348082261E8 ; 2.635198564626463E10 ; 0.0
140 ; 2526451.4765318567 ; 2.021291039644286E8 ; 3.29718072564902E8 ; 2.6554102636367207E10 ; 0.0
141 ; 2518313.382514698 ; 2.021411870339999E8 ; 3.322445240414339E8 ; 2.6756231740331635E10 ; 0.0
142 ; 2510931.6541209044 ; 2.0215323900239685E8 ; 3.347628374239486E8 ; 2.6958372927365635E10 ; 0.0
143 ; 2503261.6086303615 ; 2.0216525956355566E8 ; 3.372737690780695E8 ; 2.716052616636803E10 ; 0.0
144 ; 2496025.128563054 ; 2.021772484141698E8 ; 3.3977703068669987E8 ; 2.7362691425931587E10 ; 0.0
145 ; 2494529.788729329 ; 2.0218920525362024E8 ; 3.422730558152629E8 ; 2.7564868674345757E10 ; 0.0
146 ; 2490345.8609820474 ; 2.022011297839088E8 ; 3.447675856039922E8 ; 2.7767057879599377E10 ; 0.0
147 ; 2486156.790737595 ; 2.0221302170959443E8 ; 3.472579314649743E8 ; 2.7969259009383286E10 ; 0.0
148 ; 2485241.8379642405 ; 2.0222488073773217E8 ; 3.4974408825571185E8 ; 2.817147203109288E10 ; 0.0
149 ; 2482346.1412721607 ; 2.0223670657781494E8 ; 3.522293300936761E8 ; 2.8373696911830612E10 ; 0.0
150 ; 2478527.4404561636 ; 2.0224849894171792E8 ; 3.547116762349483E8 ; 2.857593361840843E10 ; 0.0
151 ; 2475836.0142240813 ; 2.022602575436451E8 ; 3.571902036754044E8 ; 2.8778182117350147E10 ; 0.0
152 ; 2472843.150509881 ; 2.0227198210007843E8 ; 3.596660396896285E8 ; 2.898044237489379E10 ; 0.0
153 ; 2468670.670673988 ; 2.022836723297289E8 ; 3.621388828401384E8 ; 2.918271435699387E10 ; 0.0
154 ; 2465797.506804512 ; 2.0229532795349002E8 ; 3.6460755351081234E8 ; 2.9384998029323597E10 ; 0.0
155 ; 2461639.9218706433 ; 2.0230694869439295E8 ; 3.6707335101761687E8 ; 2.958729335727709E10 ; 0.0
156 ; 2460612.677472064 ; 2.0231853427756393E8 ; 3.695349909394875E8 ; 2.978960030597148E10 ; 0.0
157 ; 2455294.2756064376 ; 2.023300844301832E8 ; 3.719956036169596E8 ; 2.9991918840249046E10 ; 0.0
158 ; 2454543.067004318 ; 2.0234159888144583E8 ; 3.74450897892566E8 ; 3.019424892467923E10 ; 0.0
159 ; 2453984.79214697 ; 2.0235307736252412E8 ; 3.7690544095957035E8 ; 3.0396590523560677E10 ; 0.0
160 ; 2450280.358747431 ; 2.0236451960653186E8 ; 3.793594257517173E8 ; 3.0598943600923203E10 ; 0.0
161 ; 2446702.606426277 ; 2.0237592534848964E8 ; 3.8180970611046475E8 ; 3.0801308120529736E10 ; 0.0
162 ; 2441815.6943647927 ; 2.02387294325292E8 ; 3.8425640871689105E8 ; 3.1003684045878223E10 ; 0.0
163 ; 2440050.9297038307 ; 2.0239862627567577E8 ; 3.8669822441125584E8 ; 3.1206071340203514E10 ; 0.0
164 ; 2436633.885595671 ; 2.024099209401899E8 ; 3.8913827534095967E8 ; 3.140846996647919E10 ; 0.0
165 ; 2433549.733023178 ; 2.0242117806116638E8 ; 3.9157490922655535E8 ; 3.161087988741938E10 ; 0.0
166 ; 2429435.4520357344 ; 2.0243239738269237E8 ; 3.940084589595785E8 ; 3.1813301065480545E10 ; 0.0
167 ; 2427452.850055396 ; 2.0244357865058377E8 ; 3.9643789441161424E8 ; 3.201573346286324E10 ; 0.0
168 ; 2425841.857498765 ; 2.0245472161235955E8 ; 3.9886534726166964E8 ; 3.2218177041513824E10 ; 0.0
169 ; 2420881.3933317508 ; 2.0246582601721728E8 ; 4.012911891191684E8 ; 3.2420631763126183E10 ; 0.0
170 ; 2418340.843323047 ; 2.024768916160098E8 ; 4.0371207051250017E8 ; 3.26230975891434E10 ; 0.0
171 ; 2414042.666241431 ; 2.0248791816122264E8 ; 4.061304113558232E8 ; 3.2825574480759407E10 ; 0.0
172 ; 2411521.1080572214 ; 2.0249890540695256E8 ; 4.085444540220646E8 ; 3.302806239892063E10 ; 0.0
173 ; 2406905.6690208055 ; 2.025098531088869E8 ; 4.109559751301218E8 ; 3.3230561304327583E10 ; 0.0
174 ; 2405734.832316838 ; 2.025207610242838E8 ; 4.1336288079914266E8 ; 3.343307115743647E10 ; 0.0
175 ; 2403638.040334857 ; 2.0253162891195318E8 ; 4.157686156314595E8 ; 3.3635591918460754E10 ; 0.0
176 ; 2403664.0234672013 ; 2.0254245653223872E8 ; 4.1817225367179435E8 ; 3.3838123547372707E10 ; 0.0
177 ; 2397793.357947225 ; 2.0255324364700025E8 ; 4.2057591769526154E8 ; 3.4040666003904945E10 ; 0.0
178 ; 2395676.0657512527 ; 2.025639900195972E8 ; 4.2297371105320877E8 ; 3.4243219247551945E10 ; 0.0
179 ; 2396736.2054639 ; 2.0257469541487256E8 ; 4.2536938711896E8 ; 3.444578323757154E10 ; 0.0
180 ; 2393464.2119715298 ; 2.0258535959913754E8 ; 4.277661233244239E8 ; 3.464835793298641E10 ; 0.0
181 ; 2391398.151880577 ; 2.0259598234015688E8 ; 4.3015958753639543E8 ; 3.485094329258555E10 ; 0.0
182 ; 2387502.2653455487 ; 2.0260656340713486E8 ; 4.32550985688276E8 ; 3.5053539274925705E10 ; 0.0
183 ; 2388237.1207001796 ; 2.026171025707016E8 ; 4.3493848795362157E8 ; 3.525614583833284E10 ; 0.0
184 ; 2383216.5058616307 ; 2.0262759960290036E8 ; 4.3732672507432175E8 ; 3.545876294090354E10 ; 0.0
185 ; 2382729.232974137 ; 2.026380542771751E8 ; 4.397099415801834E8 ; 3.566139054050644E10 ; 0.0
186 ; 2381155.4255303307 ; 2.0264846636835852E8 ; 4.420926708131575E8 ; 3.5864028594783615E10 ; 0.0
187 ; 2380164.4647006406 ; 2.0265883565266088E8 ; 4.444738262386878E8 ; 3.606667706115197E10 ; 0.0
188 ; 2376558.586019637 ; 2.0266916190765896E8 ; 4.4685399070338845E8 ; 3.6269335896804634E10 ; 0.0
189 ; 2374919.2653193315 ; 2.0267944491228572E8 ; 4.492305492894081E8 ; 3.6472005058712296E10 ; 0.0
190 ; 2371837.0551199093 ; 2.0268968444682038E8 ; 4.5160546855472744E8 ; 3.667468450362458E10 ; 0.0
191 ; 2370745.4458620194 ; 2.0269988029287878E8 ; 4.5397730560984737E8 ; 3.68773741880714E10 ; 0.0
192 ; 2367080.284194317 ; 2.027100322334044E8 ; 4.5634805105570936E8 ; 3.708007406836428E10 ; 0.0
193 ; 2363965.168385787 ; 2.027201400526594E8 ; 4.5871513133990365E8 ; 3.728278410059769E10 ; 0.0
194 ; 2363907.259463279 ; 2.027302035362165E8 ; 4.6107909650828946E8 ; 3.7485504240650345E10 ; 0.0
195 ; 2362342.1478836285 ; 2.0274022247095087E8 ; 4.634430037677527E8 ; 3.768823444418656E10 ; 0.0
196 ; 2360652.1910354584 ; 2.0275019664503247E8 ; 4.6580534591563636E8 ; 3.789097466665751E10 ; 0.0
197 ; 2357255.8018858684 ; 2.0276012584791884E8 ; 4.681659981066718E8 ; 3.809372486330254E10 ; 0.0
198 ; 2354445.2495821314 ; 2.0277000987034807E8 ; 4.7052325390855765E8 ; 3.829648498915046E10 ; 0.0
199 ; 2353490.6074605 ; 2.0277984850433207E8 ; 4.7287769915813977E8 ; 3.8499254999020805E10 ; 0.0
200 ; 2351333.1561618936 ; 2.027896415431504E8 ; 4.7523118976560026E8 ; 3.870203484752514E10 ; 0.0
