CSV File for the City 1 on Day 84
1 - Minute m 
2 - Power Consumed at minute m 
3 - Power Produced at minute m 
4 - Energy Consumed since the beginning of the day 
5 - Energy Produced since the beginning of the day 
6 - Energy Lost since the beginning of the day on lines starting from the city
 
0 ; 1.6054260242034234E7 ; 1.0552097237771621E8 ; 0.0 ; 0.0 ; 0.0
1 ; 1.607039412530383E7 ; 1.0567391291033083E8 ; 1.6054260242034234E7 ; 1.0552097237771621E8 ; 0.0
2 ; 1.6088577352469914E7 ; 1.0613563592090425E8 ; 3.212465436733806E7 ; 2.1119488528804705E8 ; 0.0
3 ; 1.611233234977019E7 ; 1.0690614297280198E8 ; 4.8213231719807975E7 ; 3.173305212089513E8 ; 0.0
4 ; 1.6135769497062394E7 ; 1.0798543546822196E8 ; 6.432556406957816E7 ; 4.242366641817533E8 ; 0.0
5 ; 1.6163507193646302E7 ; 1.093735146400401E8 ; 8.046133356664056E7 ; 5.3222209964997524E8 ; 0.0
6 ; 1.6202087504116798E7 ; 1.1107038154449669E8 ; 9.662484076028685E7 ; 6.415956142900153E8 ; 0.0
7 ; 1.6255247798791694E7 ; 1.1307603705482233E8 ; 1.1282692826440366E8 ; 7.52665995834512E8 ; 0.0
8 ; 1.6332624907912483E7 ; 1.1539048185589236E8 ; 1.2908217606319535E8 ; 8.657420328893343E8 ; 0.0
9 ; 1.6451202732023943E7 ; 1.18013716439987E8 ; 1.4541480097110784E8 ; 9.811325147452266E8 ; 0.0
10 ; 1.6631257371679075E7 ; 1.2094574110371679E8 ; 1.618660037031318E8 ; 1.0991462311852136E9 ; 0.0
11 ; 1.6921390725831855E7 ; 1.2418655594615987E8 ; 1.7849726107481086E8 ; 1.2200919722889304E9 ; 0.0
12 ; 1.7382127971355718E7 ; 1.2773616086823806E8 ; 1.9541865180064273E8 ; 1.3442785282350903E9 ; 0.0
13 ; 1.782713261565798E7 ; 1.3159455557334083E8 ; 2.1280077977199844E8 ; 1.4720146891033282E9 ; 0.0
14 ; 1.7881992119556118E7 ; 1.3576173956918806E8 ; 2.3062791238765642E8 ; 1.6036092446766691E9 ; 0.0
15 ; 1.790065357625513E7 ; 1.4023771217090428E8 ; 2.4850990450721255E8 ; 1.7393709842458572E9 ; 0.0
16 ; 1.792205907757697E7 ; 1.45022472505259E8 ; 2.664105580834677E8 ; 1.8796086964167614E9 ; 0.0
17 ; 1.794308345136911E7 ; 1.5011601951601186E8 ; 2.8433261716104466E8 ; 2.0246311689220204E9 ; 0.0
18 ; 1.796382544530188E7 ; 1.5551835197028697E8 ; 3.0227570061241376E8 ; 2.174747188438032E9 ; 0.0
19 ; 1.7983909394900404E7 ; 1.6122946846588638E8 ; 3.2023952605771565E8 ; 2.330265540408319E9 ; 0.0
20 ; 1.8007214794797447E7 ; 1.6724936743944457E8 ; 3.3822343545261604E8 ; 2.4914950088742056E9 ; 0.0
21 ; 1.802724328749568E7 ; 1.7357804717531428E8 ; 3.5623065024741346E8 ; 2.65874437631365E9 ; 0.0
22 ; 1.8049715583708268E7 ; 1.80215505815072E8 ; 3.742578935349091E8 ; 2.8323224234889646E9 ; 0.0
23 ; 1.806926128558112E7 ; 1.8716174136752427E8 ; 3.923076091186174E8 ; 3.0125379293040366E9 ; 0.0
24 ; 1.8089890520666867E7 ; 1.944167517190981E8 ; 4.103768704041985E8 ; 3.199699670671561E9 ; 0.0
25 ; 1.8115483339146234E7 ; 2.0066857554268223E8 ; 4.2846676092486537E8 ; 3.394116422390659E9 ; 0.0
26 ; 1.813397478823337E7 ; 2.0067075834533438E8 ; 4.465822442640116E8 ; 3.594784997933341E9 ; 0.0
27 ; 1.8153306825419772E7 ; 2.006730670040425E8 ; 4.64716219052245E8 ; 3.7954557562786756E9 ; 0.0
28 ; 1.8175816124585193E7 ; 2.0067549902330047E8 ; 4.828695258776648E8 ; 3.996128823282718E9 ; 0.0
29 ; 1.8196394542382292E7 ; 2.0067805183900887E8 ; 5.0104534200225E8 ; 4.196804322306019E9 ; 0.0
30 ; 1.8208556232644595E7 ; 2.0068072282889915E8 ; 5.192417365446323E8 ; 4.397482374145028E9 ; 0.0
31 ; 1.8235703212886438E7 ; 2.0068350932265207E8 ; 5.374502927772769E8 ; 4.5981630969739275E9 ; 0.0
32 ; 1.825171475525779E7 ; 2.0068640861164635E8 ; 5.556859959901633E8 ; 4.798846606296579E9 ; 0.0
33 ; 1.8272424233050566E7 ; 2.006894179582831E8 ; 5.739377107454212E8 ; 4.999533014908226E9 ; 0.0
34 ; 1.8289224408018224E7 ; 2.006925346048427E8 ; 5.922101349784718E8 ; 5.200222432866509E9 ; 0.0
35 ; 1.8312236047763165E7 ; 2.0069575578183907E8 ; 6.1049935938649E8 ; 5.400914967471353E9 ; 0.0
36 ; 1.8323807563109517E7 ; 2.0069907871584672E8 ; 6.288115954342531E8 ; 5.601610723253192E9 ; 0.0
37 ; 1.8343647154014748E7 ; 2.007025006367835E8 ; 6.471354029973626E8 ; 5.802309801969039E9 ; 0.0
38 ; 1.8354681065298527E7 ; 2.0070601878464097E8 ; 6.654790501513773E8 ; 6.003012302605823E9 ; 0.0
39 ; 1.837429813730667E7 ; 2.0070963041565952E8 ; 6.838337312166759E8 ; 6.203718321390464E9 ; 0.0
40 ; 1.8388296733389713E7 ; 2.007133328079544E8 ; 7.022080293539826E8 ; 6.404427951806124E9 ; 0.0
41 ; 1.840044214231792E7 ; 2.0071712326660094E8 ; 7.205963260873723E8 ; 6.6051412846140785E9 ; 0.0
42 ; 1.841146448861295E7 ; 2.0072099912819457E8 ; 7.389967682296902E8 ; 6.805858407880679E9 ; 0.0
43 ; 1.8424764974895816E7 ; 2.0072495776490372E8 ; 7.574082327183032E8 ; 7.006579407008874E9 ; 0.0
44 ; 1.843361037754926E7 ; 2.0072899658803675E8 ; 7.75832997693199E8 ; 7.207304364773778E9 ; 0.0
45 ; 1.844668636215401E7 ; 2.0073311305114684E8 ; 7.942666080707483E8 ; 7.4080333613618145E9 ; 0.0
46 ; 1.8455348723663986E7 ; 2.007373046527005E8 ; 8.127132944329023E8 ; 7.608766474412961E9 ; 0.0
47 ; 1.8462138360453147E7 ; 2.0074156893833622E8 ; 8.311686431565664E8 ; 7.809503779065661E9 ; 0.0
48 ; 1.847578992732426E7 ; 2.0074590350274056E8 ; 8.496307815170195E8 ; 8.010245348003998E9 ; 0.0
49 ; 1.8481112144302238E7 ; 2.0075030599116942E8 ; 8.681065714443438E8 ; 8.210991251506739E9 ; 0.0
50 ; 1.8484267988667276E7 ; 2.0075477410064188E8 ; 8.86587683588646E8 ; 8.411741557497908E9 ; 0.0
51 ; 1.8488847627929356E7 ; 2.0075930558083367E8 ; 9.050719515773133E8 ; 8.612496331598549E9 ; 0.0
52 ; 1.8499946466101293E7 ; 2.0076389823469648E8 ; 9.235607992052426E8 ; 8.813255637179382E9 ; 0.0
53 ; 1.850264393137879E7 ; 2.0076854991882855E8 ; 9.420607456713439E8 ; 9.01401953541408E9 ; 0.0
54 ; 1.850892929589872E7 ; 2.0077325854362094E8 ; 9.605633896027228E8 ; 9.214788085332909E9 ; 0.0
55 ; 1.8515133496124946E7 ; 2.0077802207320246E8 ; 9.790723188986214E8 ; 9.41556134387653E9 ; 0.0
56 ; 1.851873178927272E7 ; 2.0078283852520508E8 ; 9.975874523947464E8 ; 9.616339365949732E9 ; 0.0
57 ; 1.852462019012895E7 ; 2.0078770597037047E8 ; 1.0161061841840191E9 ; 9.817122204474937E9 ; 0.0
58 ; 1.852728567897741E7 ; 2.0079262253201696E8 ; 1.034630804374148E9 ; 1.0017909910445309E10 ; 0.0
59 ; 1.853288883398315E7 ; 2.007975863853842E8 ; 1.0531580900531254E9 ; 1.0218702532977325E10 ; 0.0
60 ; 1.853966602927971E7 ; 2.0080259575687253E8 ; 1.0716909788871086E9 ; 1.0419500119362709E10 ; 0.0
61 ; 1.8542541596031815E7 ; 2.0080764892319193E8 ; 1.0902306449163883E9 ; 1.0620302715119581E10 ; 0.0
62 ; 1.8544286224931534E7 ; 2.0081274421043462E8 ; 1.1087731865124202E9 ; 1.0821110364042772E10 ; 0.0
63 ; 1.8548451817716263E7 ; 2.0081787999308354E8 ; 1.1273174727373517E9 ; 1.1021923108253206E10 ; 0.0
64 ; 1.8555460403901543E7 ; 2.0082305469296885E8 ; 1.145865924555068E9 ; 1.122274098824629E10 ; 0.0
65 ; 1.855509982583122E7 ; 2.008282667781823E8 ; 1.1644213849589696E9 ; 1.1423564042939259E10 ; 0.0
66 ; 1.8561340237940226E7 ; 2.008335147619591E8 ; 1.1829764847848008E9 ; 1.1624392309717442E10 ; 0.0
67 ; 1.856376798640977E7 ; 2.0083879720153573E8 ; 1.201537825022741E9 ; 1.18252258244794E10 ; 0.0
68 ; 1.8568386414042205E7 ; 2.0084411269699094E8 ; 1.2201015930091507E9 ; 1.2026064621680937E10 ; 0.0
69 ; 1.8568902644810308E7 ; 2.0084945989007676E8 ; 1.238669979423193E9 ; 1.2226908734377928E10 ; 0.0
70 ; 1.8570941234151155E7 ; 2.008548374630456E8 ; 1.2572388820680032E9 ; 1.2427758194268005E10 ; 0.0
71 ; 1.8579830703055747E7 ; 2.0086024413747826E8 ; 1.2758098233021543E9 ; 1.262861303173105E10 ; 0.0
72 ; 1.857999409085681E7 ; 2.0086567867311752E8 ; 1.2943896540052102E9 ; 1.2829473275868528E10 ; 0.0
73 ; 1.858400250004043E7 ; 2.008711398667114E8 ; 1.312969648096067E9 ; 1.3030338954541645E10 ; 0.0
74 ; 1.858146803304452E7 ; 2.0087662655086935E8 ; 1.3315536505961075E9 ; 1.3231210094408356E10 ; 0.0
75 ; 1.85853558204774E7 ; 2.0088213759293425E8 ; 1.350135118629152E9 ; 1.3432086720959225E10 ; 0.0
76 ; 1.8587601536714025E7 ; 2.0088767189387283E8 ; 1.3687204744496295E9 ; 1.3632968858552158E10 ; 0.0
77 ; 1.8586151258809272E7 ; 2.0089322838718635E8 ; 1.3873080759863436E9 ; 1.3833856530446032E10 ; 0.0
78 ; 1.8581421510522734E7 ; 2.0089880603784373E8 ; 1.405894227245153E9 ; 1.4034749758833218E10 ; 0.0
79 ; 1.858153278547547E7 ; 2.0090440384123784E8 ; 1.4244756487556758E9 ; 1.4235648564871061E10 ; 0.0
80 ; 1.857236446874419E7 ; 2.0091002082216668E8 ; 1.4430571815411513E9 ; 1.44365529687123E10 ; 0.0
81 ; 1.8568325975208566E7 ; 2.0091565603384003E8 ; 1.4616295460098956E9 ; 1.4637462989534466E10 ; 0.0
82 ; 1.8563980285047077E7 ; 2.0092130855691224E8 ; 1.480197871985104E9 ; 1.4838378645568306E10 ; 0.0
83 ; 1.855281419379155E7 ; 2.009269774985416E8 ; 1.4987618522701511E9 ; 1.5039299954125217E10 ; 0.0
84 ; 1.8551531637782108E7 ; 2.0093266199147654E8 ; 1.5173146664639428E9 ; 1.5240226931623758E10 ; 0.0
85 ; 1.8548605923978925E7 ; 2.009383611931689E8 ; 1.5358661981017249E9 ; 1.5441159593615234E10 ; 0.0
86 ; 1.854391746725843E7 ; 2.009440742849141E8 ; 1.554414804025704E9 ; 1.5642097954808403E10 ; 0.0
87 ; 1.8535245986354012E7 ; 2.009498004710182E8 ; 1.5729587214929624E9 ; 1.5843042029093317E10 ; 0.0
88 ; 1.853422380254632E7 ; 2.009555389779914E8 ; 1.5914939674793165E9 ; 1.6043991829564335E10 ; 0.0
89 ; 1.8525939397710826E7 ; 2.00961289053768E8 ; 1.6100281912818627E9 ; 1.6244947368542326E10 ; 0.0
90 ; 1.8521708625138626E7 ; 2.0096704996695238E8 ; 1.6285541306795735E9 ; 1.6445908657596094E10 ; 0.0
91 ; 1.8511725066374376E7 ; 2.0097282100609002E8 ; 1.647075839304712E9 ; 1.6646875707563047E10 ; 0.0
92 ; 1.8511545415567577E7 ; 2.0097860147896382E8 ; 1.6655875643710864E9 ; 1.6847848528569138E10 ; 0.0
93 ; 1.8501553930967644E7 ; 2.0098439071191502E8 ; 1.684099109786654E9 ; 1.7048827130048101E10 ; 0.0
94 ; 1.8491137283283114E7 ; 2.0099018804918736E8 ; 1.7026006637176216E9 ; 1.7249811520760017E10 ; 0.0
95 ; 1.8490989110279787E7 ; 2.0099599285229534E8 ; 1.7210918010009046E9 ; 1.7450801708809204E10 ; 0.0
96 ; 1.8481282299168106E7 ; 2.0100180449941435E8 ; 1.7395827901111844E9 ; 1.76517977016615E10 ; 0.0
97 ; 1.8475126686058156E7 ; 2.0100762238479346E8 ; 1.7580640724103525E9 ; 1.785279950616091E10 ; 0.0
98 ; 1.846465961099603E7 ; 2.0101344591818932E8 ; 1.7765391990964105E9 ; 1.8053807128545704E10 ; 0.0
99 ; 1.845634674520868E7 ; 2.0101927452432078E8 ; 1.7950038587074065E9 ; 1.8254820574463894E10 ; 0.0
100 ; 1.8453541374570943E7 ; 2.0102510764234394E8 ; 1.8134602054526153E9 ; 1.8455839848988216E10 ; 0.0
101 ; 1.8443138712300487E7 ; 2.010309447253462E8 ; 1.831913746827186E9 ; 1.865686495663056E10 ; 0.0
102 ; 1.843582143616616E7 ; 2.0103678523985985E8 ; 1.8503568855394866E9 ; 1.8857895901355907E10 ; 0.0
103 ; 1.8425817072766434E7 ; 2.0104262866539302E8 ; 1.8687927069756527E9 ; 1.9058932686595768E10 ; 0.0
104 ; 1.8418403947408758E7 ; 2.0104847449397922E8 ; 1.8872185240484192E9 ; 1.925997531526116E10 ; 0.0
105 ; 1.8411102676512763E7 ; 2.0105432222974288E8 ; 1.905636927995828E9 ; 1.9461023789755142E10 ; 0.0
106 ; 1.8406996793361112E7 ; 2.0106017138848218E8 ; 1.9240480306723406E9 ; 1.9662078111984886E10 ; 0.0
107 ; 1.839556458635835E7 ; 2.0106602149726707E8 ; 1.9424550274657018E9 ; 1.9863138283373367E10 ; 0.0
108 ; 1.838638643137313E7 ; 2.0107187209405285E8 ; 1.9608505920520601E9 ; 2.0064204304870636E10 ; 0.0
109 ; 1.8372468167228594E7 ; 2.010777227273084E8 ; 1.9792369784834332E9 ; 2.0265276176964687E10 ; 0.0
110 ; 1.8365804727575928E7 ; 2.0108357295565838E8 ; 1.997609446650662E9 ; 2.0466353899691998E10 ; 0.0
111 ; 1.835337286596458E7 ; 2.0108942234753937E8 ; 2.015975251378238E9 ; 2.0667437472647655E10 ; 0.0
112 ; 1.8346474858781938E7 ; 2.0109527048086873E8 ; 2.0343286242442026E9 ; 2.0868526894995193E10 ; 0.0
113 ; 1.8337064083965827E7 ; 2.0110111694272658E8 ; 2.0526750991029847E9 ; 2.1069622165476063E10 ; 0.0
114 ; 1.8329057744953334E7 ; 2.0110696132904926E8 ; 2.0710121631869504E9 ; 2.127072328241879E10 ; 0.0
115 ; 1.8317256169543203E7 ; 2.0111280324433511E8 ; 2.0893412209319038E9 ; 2.1471830243747837E10 ; 0.0
116 ; 1.8304559649642635E7 ; 2.0111864230136102E8 ; 2.107658477101447E9 ; 2.1672943046992172E10 ; 0.0
117 ; 1.8296867944079626E7 ; 2.0112447812091E8 ; 2.1259630367510898E9 ; 2.1874061689293533E10 ; 0.0
118 ; 1.8284672124032274E7 ; 2.0113031033150893E8 ; 2.1442599046951694E9 ; 2.2075186167414444E10 ; 0.0
119 ; 1.8274494187766045E7 ; 2.0113613856917652E8 ; 2.162544576819202E9 ; 2.2276316477745953E10 ; 0.0
120 ; 1.8264226888272986E7 ; 2.0114196247718057E8 ; 2.180819071006968E9 ; 2.247745261631513E10 ; 0.0
121 ; 1.825009615995612E7 ; 2.011477817058047E8 ; 2.199083297895241E9 ; 2.267859457879231E10 ; 0.0
122 ; 1.8244049286420017E7 ; 2.0115359591212365E8 ; 2.217333394055197E9 ; 2.287974236049811E10 ; 0.0
123 ; 1.822876578211167E7 ; 2.011594047597872E8 ; 2.2355774433416166E9 ; 2.3080895956410236E10 ; 0.0
124 ; 1.8219143790071737E7 ; 2.0116520791881233E8 ; 2.2538062091237283E9 ; 2.3282055361170025E10 ; 0.0
125 ; 1.82070704712907E7 ; 2.0117100506538302E8 ; 2.2720253529138002E9 ; 2.3483220569088837E10 ; 0.0
126 ; 1.8198658559839133E7 ; 2.0117679588165775E8 ; 2.290232423385091E9 ; 2.368439157415422E10 ; 0.0
127 ; 1.8183127480014633E7 ; 2.0118258005558407E8 ; 2.30843108194493E9 ; 2.3885568370035877E10 ; 0.0
128 ; 1.816861913518806E7 ; 2.0118835728072017E8 ; 2.326614209424945E9 ; 2.408675095009146E10 ; 0.0
129 ; 1.816239575117601E7 ; 2.0119412725606322E8 ; 2.344782828560133E9 ; 2.428793930737218E10 ; 0.0
130 ; 1.8142084963680614E7 ; 2.0119988968588394E8 ; 2.362945224311309E9 ; 2.4489133434628242E10 ; 0.0
131 ; 1.8122383869763494E7 ; 2.0120564427956736E8 ; 2.3810873092749896E9 ; 2.4690333324314125E10 ; 0.0
132 ; 1.8101957188100815E7 ; 2.012113907514596E8 ; 2.399209693144753E9 ; 2.4891538968593693E10 ; 0.0
133 ; 1.8086112351725895E7 ; 2.0121712882072017E8 ; 2.417311650332854E9 ; 2.5092750359345154E10 ; 0.0
134 ; 1.8066120094341286E7 ; 2.0122285821117982E8 ; 2.43539776268458E9 ; 2.5293967488165874E10 ; 0.0
135 ; 1.804560980498424E7 ; 2.012285786512035E8 ; 2.453463882778921E9 ; 2.5495190346377056E10 ; 0.0
136 ; 1.8029457030482724E7 ; 2.0123428987355864E8 ; 2.471509492583905E9 ; 2.569641892502826E10 ; 0.0
137 ; 1.80048969952054E7 ; 2.0123999161528772E8 ; 2.489538949614388E9 ; 2.5897653214901817E10 ; 0.0
138 ; 1.7987685796767175E7 ; 2.012456836175861E8 ; 2.5075438466095934E9 ; 2.6098893206517105E10 ; 0.0
139 ; 1.7968669506123886E7 ; 2.012513656256839E8 ; 2.5255315324063606E9 ; 2.630013889013469E10 ; 0.0
140 ; 1.7953310290125176E7 ; 2.0125703738873222E8 ; 2.5435002019124846E9 ; 2.6501390255760372E10 ; 0.0
141 ; 1.7933238982636314E7 ; 2.0126269865969363E8 ; 2.56145351220261E9 ; 2.6702647293149105E10 ; 0.0
142 ; 1.791193306942786E7 ; 2.0126834919523647E8 ; 2.5793867511852465E9 ; 2.69039099918088E10 ; 0.0
143 ; 1.7890911232270144E7 ; 2.01273988755633E8 ; 2.5972986842546744E9 ; 2.7105178341004036E10 ; 0.0
144 ; 1.786784596763039E7 ; 2.0127961710466117E8 ; 2.6151895954869447E9 ; 2.730645232975967E10 ; 0.0
145 ; 1.785300121154176E7 ; 2.0128523400950995E8 ; 2.633057441454575E9 ; 2.750773194686433E10 ; 0.0
146 ; 1.784104784725585E7 ; 2.0129083924068812E8 ; 2.6509104426661167E9 ; 2.770901718087384E10 ; 0.0
147 ; 1.7830005804370403E7 ; 2.0129643257193598E8 ; 2.6687514905133724E9 ; 2.791030802011453E10 ; 0.0
148 ; 1.7818189542452175E7 ; 2.013020137801406E8 ; 2.686581496317743E9 ; 2.8111604452686466E10 ; 0.0
149 ; 1.7801932250523467E7 ; 2.0130758264525384E8 ; 2.704399685860195E9 ; 2.8312906466466606E10 ; 0.0
150 ; 1.7788125661035933E7 ; 2.0131313895021313E8 ; 2.7222016181107187E9 ; 2.851421404911186E10 ; 0.0
151 ; 1.7777068067250524E7 ; 2.013186824808655E8 ; 2.7399897437717547E9 ; 2.8715527188062073E10 ; 0.0
152 ; 1.776066912897582E7 ; 2.0132421302589363E8 ; 2.7577668118390055E9 ; 2.891684587054294E10 ; 0.0
153 ; 1.7745450867408093E7 ; 2.01329730376745E8 ; 2.7755274809679813E9 ; 2.9118170083568832E10 ; 0.0
154 ; 1.7735343123410705E7 ; 2.0133523432756326E8 ; 2.7932729318353896E9 ; 2.9319499813945576E10 ; 0.0
155 ; 1.77199658526445E7 ; 2.013407246751221E8 ; 2.8110082749588003E9 ; 2.952083504827314E10 ; 0.0
156 ; 1.7700176685820617E7 ; 2.0134620121876132E8 ; 2.8287282408114448E9 ; 2.972217577294826E10 ; 0.0
157 ; 1.769028024890174E7 ; 2.01351663760325E8 ; 2.8464284174972653E9 ; 2.9923521974167023E10 ; 0.0
158 ; 1.767449908115659E7 ; 2.0135711210410213E8 ; 2.864118697746167E9 ; 3.012487363792735E10 ; 0.0
159 ; 1.7660105900569808E7 ; 2.0136254605676892E8 ; 2.881793196827324E9 ; 3.0326230750031452E10 ; 0.0
160 ; 1.7648753631183635E7 ; 2.0136796542733327E8 ; 2.899453302727894E9 ; 3.0527593296088223E10 ; 0.0
161 ; 1.7631195755128082E7 ; 2.0137337002708113E8 ; 2.9171020563590775E9 ; 3.0728961261515556E10 ; 0.0
162 ; 1.761499931617102E7 ; 2.013787596695246E8 ; 2.9347332521142054E9 ; 3.0930334631542637E10 ; 0.0
163 ; 1.759942534639644E7 ; 2.0138413417035183E8 ; 2.9523482514303765E9 ; 3.1131713391212162E10 ; 0.0
164 ; 1.7589730650344923E7 ; 2.0138949334737858E8 ; 2.969947676776773E9 ; 3.1333097525382515E10 ; 0.0
165 ; 1.7575549560564436E7 ; 2.0139483702050158E8 ; 2.987537407427118E9 ; 3.1534487018729893E10 ; 0.0
166 ; 1.756256865714329E7 ; 2.0140016501165313E8 ; 3.0051129569876823E9 ; 3.1735881855750393E10 ; 0.0
167 ; 1.7543266725738257E7 ; 2.0140547714475745E8 ; 3.0226755256448255E9 ; 3.1937282020762047E10 ; 0.0
168 ; 1.752843258536499E7 ; 2.0141077324568865E8 ; 3.0402187923705635E9 ; 3.2138687497906803E10 ; 0.0
169 ; 1.751265423506044E7 ; 2.014160531422295E8 ; 3.0577472249559283E9 ; 3.2340098271152493E10 ; 0.0
170 ; 1.7495844939226415E7 ; 2.0142131666403237E8 ; 3.0752598791909885E9 ; 3.2541514324294724E10 ; 0.0
171 ; 1.7486629692504052E7 ; 2.0142656364258075E8 ; 3.092755724130215E9 ; 3.2742935640958755E10 ; 0.0
172 ; 1.746606749231869E7 ; 2.0143179391115245E8 ; 3.110242353822719E9 ; 3.2944362204601337E10 ; 0.0
173 ; 1.7449975850796405E7 ; 2.014370073047839E8 ; 3.1277084213150377E9 ; 3.314579399851249E10 ; 0.0
174 ; 1.7446366079949465E7 ; 2.014422036602357E8 ; 3.145158397165834E9 ; 3.3347231005817272E10 ; 0.0
175 ; 1.74343499967053E7 ; 2.01447382815959E8 ; 3.1626047632457833E9 ; 3.354867320947751E10 ; 0.0
176 ; 1.7424199564298313E7 ; 2.014525446120634E8 ; 3.180039113242489E9 ; 3.375012059229347E10 ; 0.0
177 ; 1.7418597118682634E7 ; 2.014576888902856E8 ; 3.197463312806787E9 ; 3.3951573136905533E10 ; 0.0
178 ; 1.7407848436446436E7 ; 2.0146281549395925E8 ; 3.21488190992547E9 ; 3.415303082579582E10 ; 0.0
179 ; 1.7397840026866253E7 ; 2.0146792426798543E8 ; 3.2322897583619165E9 ; 3.4354493641289776E10 ; 0.0
180 ; 1.738927259553312E7 ; 2.014730150588047E8 ; 3.249687598388783E9 ; 3.455596156555776E10 ; 0.0
181 ; 1.7377619555801254E7 ; 2.0147808771436942E8 ; 3.267076870984316E9 ; 3.475743458061657E10 ; 0.0
182 ; 1.7370529656563576E7 ; 2.0148314208411726E8 ; 3.2844544905401173E9 ; 3.495891266833094E10 ; 0.0
183 ; 1.735851846040573E7 ; 2.014881780189457E8 ; 3.301825020196681E9 ; 3.5160395810415054E10 ; 0.0
184 ; 1.735074625905351E7 ; 2.0149319537118694E8 ; 3.319183538657087E9 ; 3.5361883988434E10 ; 0.0
185 ; 1.7344861413867462E7 ; 2.0149819399458396E8 ; 3.3365342849161406E9 ; 3.556337718380518E10 ; 0.0
186 ; 1.7331667945116866E7 ; 2.0150317374426723E8 ; 3.353879146330008E9 ; 3.576487537779977E10 ; 0.0
187 ; 1.7324916336439025E7 ; 2.0150813447673216E8 ; 3.371210814275125E9 ; 3.596637855154404E10 ; 0.0
188 ; 1.7311275860864993E7 ; 2.0151307604981717E8 ; 3.388535730611564E9 ; 3.616788668602077E10 ; 0.0
189 ; 1.7303214291212063E7 ; 2.0151799832268262E8 ; 3.4058470064724293E9 ; 3.636939976207059E10 ; 0.0
190 ; 1.7292735358466078E7 ; 2.015229011557903E8 ; 3.4231502207636414E9 ; 3.657091776039327E10 ; 0.0
191 ; 1.7285009603334066E7 ; 2.0152778441088364E8 ; 3.4404429561221075E9 ; 3.6772440661549065E10 ; 0.0
192 ; 1.7275274088395014E7 ; 2.0153264795096835E8 ; 3.4577279657254415E9 ; 3.6973968445959946E10 ; 0.0
193 ; 1.7265739983463027E7 ; 2.0153749164029405E8 ; 3.4750032398138366E9 ; 3.717550109391091E10 ; 0.0
194 ; 1.725817290754497E7 ; 2.015423153443359E8 ; 3.4922689797972994E9 ; 3.737703858555121E10 ; 0.0
195 ; 1.7249031868404247E7 ; 2.0154711892977753E8 ; 3.5095271527048445E9 ; 3.7578580900895546E10 ; 0.0
