CSV File for the City 2 on Day 334
1 - Minute m 
2 - Power Consumed at minute m 
3 - Power Produced at minute m 
4 - Energy Consumed since the beginning of the day 
5 - Energy Produced since the beginning of the day 
6 - Energy Lost since the beginning of the day on lines starting from the city
 
0 ; 1794184.0159635 ; 1.0529563466353884E8 ; 0.0 ; 0.0 ; 0.0
1 ; 1795521.3246869473 ; 1.0544960613573325E8 ; 1794184.0159635 ; 1.0529563466353884E8 ; 0.0
2 ; 1797374.9580506189 ; 1.0591225552769843E8 ; 3589705.340650447 ; 2.107452407992721E8 ; 0.0
3 ; 1800883.7073431627 ; 1.0668358311695653E8 ; 5387080.2987010665 ; 3.166574963269705E8 ; 0.0
4 ; 1802309.4433794888 ; 1.0776358915110373E8 ; 7187964.0060442295 ; 4.2334107944392705E8 ; 0.0
5 ; 1806594.9806666556 ; 1.0915227384681988E8 ; 8990273.44942372 ; 5.311046685950308E8 ; 0.0
6 ; 1811130.9615907099 ; 1.1084963738898948E8 ; 1.0796868430090375E7 ; 6.402569424418507E8 ; 0.0
7 ; 1817527.6720953113 ; 1.1285567992994338E8 ; 1.2607999391681084E7 ; 7.511065798308401E8 ; 0.0
8 ; 1827855.608970794 ; 1.1517040158882755E8 ; 1.4425527063776396E7 ; 8.639622597607834E8 ; 0.0
9 ; 1839354.1464053886 ; 1.177938024511059E8 ; 1.6253382672747191E7 ; 9.79132661349611E8 ; 0.0
10 ; 1861800.7709089182 ; 1.2072588256820124E8 ; 1.809273681915258E7 ; 1.0969264638007169E9 ; 0.0
11 ; 1895207.7169630637 ; 1.2396664195727876E8 ; 1.9954537590061497E7 ; 1.2176523463689182E9 ; 0.0
12 ; 1948836.5290192543 ; 1.2751608060117325E8 ; 2.184974530702456E7 ; 1.341618988326197E9 ; 0.0
13 ; 2002363.703054562 ; 1.3137419844846189E8 ; 2.3798581836043816E7 ; 1.46913506892737E9 ; 0.0
14 ; 2008207.9485104624 ; 1.3554099541368085E8 ; 2.580094553909838E7 ; 1.600509267375832E9 ; 0.0
15 ; 2012265.5899168113 ; 1.4001647137768406E8 ; 2.7809153487608843E7 ; 1.7360502627895129E9 ; 0.0
16 ; 2013739.3212439825 ; 1.4480062618814078E8 ; 2.9821419077525653E7 ; 1.876066734167197E9 ; 0.0
17 ; 2015664.963349845 ; 1.498934596601664E8 ; 3.1835158398769636E7 ; 2.0208673603553379E9 ; 0.0
18 ; 2017831.7577438396 ; 1.5529497157708114E8 ; 3.385082336211948E7 ; 2.1707608200155044E9 ; 0.0
19 ; 2020024.5867637915 ; 1.610051616912888E8 ; 3.5868655119863324E7 ; 2.3260557915925856E9 ; 0.0
20 ; 2024541.9581640852 ; 1.670240297252672E8 ; 3.7888679706627116E7 ; 2.4870609532838745E9 ; 0.0
21 ; 2026937.546430398 ; 1.7335157537266198E8 ; 3.9913221664791204E7 ; 2.654084983009142E9 ; 0.0
22 ; 2028342.3941725756 ; 1.7998779829947257E8 ; 4.1940159211221606E7 ; 2.827436558381804E9 ; 0.0
23 ; 2029990.5513333746 ; 1.869326981453209E8 ; 4.3968501605394185E7 ; 3.0074243566812763E9 ; 0.0
24 ; 2033915.9572541905 ; 1.9418627452479154E8 ; 4.599849215672756E7 ; 3.194357054826597E9 ; 0.0
25 ; 2035355.5906193568 ; 2.0043656792701566E8 ; 4.803240811398175E7 ; 3.388543329351389E9 ; 0.0
26 ; 2037660.934390225 ; 2.0043712575401613E8 ; 5.006776370460111E7 ; 3.5889798972784047E9 ; 0.0
27 ; 2040590.0342066642 ; 2.0043771684709847E8 ; 5.210542463899133E7 ; 3.7894170230324206E9 ; 0.0
28 ; 2044407.0930516901 ; 2.004383407351373E8 ; 5.4146014673198E7 ; 3.989854739879519E9 ; 0.0
29 ; 2046882.2024782472 ; 2.0043899692935222E8 ; 5.619042176624969E7 ; 4.1902930806146564E9 ; 0.0
30 ; 2047604.2387297763 ; 2.0043968492484426E8 ; 5.823730396872793E7 ; 4.390732077544008E9 ; 0.0
31 ; 2051362.8908178248 ; 2.0044040420212877E8 ; 6.028490820745771E7 ; 4.591171762468853E9 ; 0.0
32 ; 2054271.4354933908 ; 2.0044115422865522E8 ; 6.233627109827553E7 ; 4.791612166670981E9 ; 0.0
33 ; 2055038.6165854605 ; 2.0044193446030602E8 ; 6.4390542533768915E7 ; 4.992053320899636E9 ; 0.0
34 ; 2057923.2563933344 ; 2.0044274434286615E8 ; 6.644558115035438E7 ; 5.192495255359942E9 ; 0.0
35 ; 2059318.953387987 ; 2.004435833134569E8 ; 6.850350440674771E7 ; 5.392937999702808E9 ; 0.0
36 ; 2061452.8153980463 ; 2.0044445080192775E8 ; 7.05628233601357E7 ; 5.593381583016265E9 ; 0.0
37 ; 2063306.4587122204 ; 2.0044534623220062E8 ; 7.262427617553376E7 ; 5.7938260338181925E9 ; 0.0
38 ; 2066110.5407528 ; 2.0044626902356243E8 ; 7.468758263424598E7 ; 5.994271380050393E9 ; 0.0
39 ; 2067276.3731285604 ; 2.0044721859190175E8 ; 7.675369317499878E7 ; 6.194717649073956E9 ; 0.0
40 ; 2069295.0315442828 ; 2.0044819435088673E8 ; 7.882096954812734E7 ; 6.395164867665857E9 ; 0.0
41 ; 2070630.2067107928 ; 2.0044919571308196E8 ; 8.089026457967162E7 ; 6.595613062016744E9 ; 0.0
42 ; 2072098.015751185 ; 2.0045022209100243E8 ; 8.29608947863824E7 ; 6.796062257729826E9 ; 0.0
43 ; 2074191.0146664432 ; 2.0045127289810404E8 ; 8.503299280213359E7 ; 6.996512479820828E9 ; 0.0
44 ; 2075994.2446792205 ; 2.0045234754970938E8 ; 8.710718381680003E7 ; 7.196963752718932E9 ; 0.0
45 ; 2076118.8328523869 ; 2.0045344546386954E8 ; 8.918317806147926E7 ; 7.397416100268641E9 ; 0.0
46 ; 2078263.739716575 ; 2.0045456606216237E8 ; 9.125929689433165E7 ; 7.597869545732511E9 ; 0.0
47 ; 2079093.3834700997 ; 2.0045570877042776E8 ; 9.333756063404822E7 ; 7.798324111794673E9 ; 0.0
48 ; 2079927.4985980382 ; 2.0045687301944166E8 ; 9.541665401751833E7 ; 7.998779820565101E9 ; 0.0
49 ; 2081034.498307765 ; 2.004580582455302E8 ; 9.749658151611637E7 ; 8.199236693584542E9 ; 0.0
50 ; 2082638.6895170228 ; 2.0045926389112598E8 ; 9.957761601442413E7 ; 8.399694751830072E9 ; 0.0
51 ; 2082423.8002733365 ; 2.0046048940526858E8 ; 1.0166025470394115E8 ; 8.600154015721199E9 ; 0.0
52 ; 2083947.4651627117 ; 2.004617342440514E8 ; 1.037426785042145E8 ; 8.800614505126467E9 ; 0.0
53 ; 2082895.7575096143 ; 2.004629978710176E8 ; 1.058266259693772E8 ; 9.001076239370518E9 ; 0.0
54 ; 2086000.333583795 ; 2.004642797575072E8 ; 1.0790952172688682E8 ; 9.201539237241535E9 ; 0.0
55 ; 2084144.5638538715 ; 2.004655793829585E8 ; 1.0999552206047063E8 ; 9.402003516999043E9 ; 0.0
56 ; 2085525.3035164226 ; 2.0046689623516566E8 ; 1.120796666243245E8 ; 9.602469096382002E9 ; 0.0
57 ; 2087882.8230807062 ; 2.00468229810496E8 ; 1.1416519192784092E8 ; 9.802935992617168E9 ; 0.0
58 ; 2085948.9348405027 ; 2.0046957961406866E8 ; 1.1625307475092162E8 ; 1.0003404222427664E10 ; 0.0
59 ; 2086998.0986950654 ; 2.004709451598981E8 ; 1.1833902368576212E8 ; 1.0203873802041733E10 ; 0.0
60 ; 2089461.8372250202 ; 2.0047232597100416E8 ; 1.2042602178445719E8 ; 1.0404344747201632E10 ; 0.0
61 ; 2088364.3774306676 ; 2.0047372157949182E8 ; 1.2251548362168221E8 ; 1.0604817073172636E10 ; 0.0
62 ; 2089046.620874445 ; 2.004751315266025E8 ; 1.2460384799911287E8 ; 1.0805290794752129E10 ; 0.0
63 ; 2090702.6840770014 ; 2.0047655536273962E8 ; 1.2669289461998732E8 ; 1.100576592627873E10 ; 0.0
64 ; 2089984.7644322463 ; 2.004779926474703E8 ; 1.2878359730406432E8 ; 1.120624248164147E10 ; 0.0
65 ; 2091058.9132874012 ; 2.0047944294950554E8 ; 1.3087358206849657E8 ; 1.140672047428894E10 ; 0.0
66 ; 2092652.5247123393 ; 2.004809058466607E8 ; 1.3296464098178397E8 ; 1.1607199917238445E10 ; 0.0
67 ; 2092970.4008190723 ; 2.0048238092579836E8 ; 1.350572935064963E8 ; 1.1807680823085106E10 ; 0.0
68 ; 2093765.634505124 ; 2.004838677827551E8 ; 1.3715026390731537E8 ; 1.2008163204010904E10 ; 0.0
69 ; 2092584.505811376 ; 2.0048536602225423E8 ; 1.392440295418205E8 ; 1.220864707179366E10 ; 0.0
70 ; 2094152.7238127382 ; 2.0048687525780562E8 ; 1.4133661404763186E8 ; 1.2409132437815914E10 ; 0.0
71 ; 2095318.5082190526 ; 2.0048839511159462E8 ; 1.434307667714446E8 ; 1.2609619313073719E10 ; 0.0
72 ; 2094308.5183545582 ; 2.0048992521436083E8 ; 1.4552608527966365E8 ; 1.2810107708185314E10 ; 0.0
73 ; 2095841.170065531 ; 2.004914652052687E8 ; 1.4762039379801822E8 ; 1.3010597633399675E10 ; 0.0
74 ; 2095086.0265404657 ; 2.0049301473177055E8 ; 1.4971623496808374E8 ; 1.3211089098604944E10 ; 0.0
75 ; 2094862.8562823762 ; 2.0049457344946322E8 ; 1.518113209946242E8 ; 1.3411582113336716E10 ; 0.0
76 ; 2095673.979966631 ; 2.0049614102193996E8 ; 1.5390618385090658E8 ; 1.3612076686786179E10 ; 0.0
77 ; 2095566.3857456318 ; 2.004977171206374E8 ; 1.5600185783087322E8 ; 1.3812572827808119E10 ; 0.0
78 ; 2095084.353450481 ; 2.0049930142467943E8 ; 1.5809742421661887E8 ; 1.4013070544928757E10 ; 0.0
79 ; 2094723.7825612721 ; 2.005008936207184E8 ; 1.6019250857006934E8 ; 1.4213569846353436E10 ; 0.0
80 ; 2093300.216438391 ; 2.005024934027741E8 ; 1.6228723235263062E8 ; 1.4414070739974154E10 ; 0.0
81 ; 2094834.5438545207 ; 2.0050410047207153E8 ; 1.64380532569069E8 ; 1.4614573233376928E10 ; 0.0
82 ; 2092903.5745498803 ; 2.0050571453687796E8 ; 1.6647536711292353E8 ; 1.4815077333848999E10 ; 0.0
83 ; 2094112.4254247774 ; 2.0050733531233957E8 ; 1.6856827068747342E8 ; 1.5015583048385878E10 ; 0.0
84 ; 2093362.0914739163 ; 2.0050896252031854E8 ; 1.706623831128982E8 ; 1.5216090383698217E10 ; 0.0
85 ; 2090756.3023838983 ; 2.005105958892306E8 ; 1.727557452043721E8 ; 1.5416599346218536E10 ; 0.0
86 ; 2091436.2695195284 ; 2.0051223515388373E8 ; 1.74846501506756E8 ; 1.5617109942107767E10 ; 0.0
87 ; 2090491.3728444343 ; 2.00513880055318E8 ; 1.7693793777627555E8 ; 1.581762217726165E10 ; 0.0
88 ; 2090889.1492302301 ; 2.0051553034064746E8 ; 1.7902842914911997E8 ; 1.6018136057316969E10 ; 0.0
89 ; 2090476.573126259 ; 2.0051718576290348E8 ; 1.8111931829835021E8 ; 1.6218651587657616E10 ; 0.0
90 ; 2089736.9883144817 ; 2.005188460808805E8 ; 1.8320979487147647E8 ; 1.6419168773420519E10 ; 0.0
91 ; 2089303.0471538876 ; 2.0052051105898404E8 ; 1.8529953185979095E8 ; 1.66196876195014E10 ; 0.0
92 ; 2089114.5521368522 ; 2.005221804670812E8 ; 1.8738883490694484E8 ; 1.6820208130560385E10 ; 0.0
93 ; 2088159.0965847604 ; 2.005238540803537E8 ; 1.8947794945908168E8 ; 1.7020730311027466E10 ; 0.0
94 ; 2086223.2001269623 ; 2.0052553167915386E8 ; 1.9156610855566645E8 ; 1.722125416510782E10 ; 0.0
95 ; 2086205.2128045247 ; 2.0052721304886326E8 ; 1.9365233175579342E8 ; 1.7421779696786972E10 ; 0.0
96 ; 2086763.2474017316 ; 2.0052889797975433E8 ; 1.9573853696859795E8 ; 1.7622306909835835E10 ; 0.0
97 ; 2084685.2956126684 ; 2.005305862668551E8 ; 1.978253002159997E8 ; 1.782283580781559E10 ; 0.0
98 ; 2084045.226321498 ; 2.0053227770981666E8 ; 1.9990998551161236E8 ; 1.8023366394082443E10 ; 0.0
99 ; 2083004.4776112752 ; 2.0053397211278412E8 ; 2.0199403073793384E8 ; 1.822389867179226E10 ; 0.0
100 ; 2081346.5258329432 ; 2.0053566928427023E8 ; 2.0407703521554512E8 ; 1.8424432643905045E10 ; 0.0
101 ; 2082344.3331733006 ; 2.0053736903703228E8 ; 2.0615838174137807E8 ; 1.8624968313189316E10 ; 0.0
102 ; 2081416.0636226581 ; 2.005390711879522E8 ; 2.0824072607455137E8 ; 1.882550568222635E10 ; 0.0
103 ; 2079646.6422769062 ; 2.0054077555791938E8 ; 2.1032214213817403E8 ; 1.9026044753414303E10 ; 0.0
104 ; 2079887.4956436323 ; 2.005424819717171E8 ; 2.1240178878045094E8 ; 1.922658552897222E10 ; 0.0
105 ; 2078988.033702112 ; 2.005441902579113E8 ; 2.144816762760946E8 ; 1.942712801094394E10 ; 0.0
106 ; 2077796.1120553808 ; 2.0054590024874297E8 ; 2.165606643097967E8 ; 1.962767220120185E10 ; 0.0
107 ; 2075394.2374769123 ; 2.0054761178002322E8 ; 2.1863846042185208E8 ; 1.9828218101450592E10 ; 0.0
108 ; 2074809.8539014347 ; 2.0054932469103113E8 ; 2.20713854659329E8 ; 2.0028765713230614E10 ; 0.0
109 ; 2074084.5624789 ; 2.0055103882441488E8 ; 2.2278866451323044E8 ; 2.0229315037921646E10 ; 0.0
110 ; 2072734.432942611 ; 2.0055275402609524E8 ; 2.2486274907570934E8 ; 2.042986607674606E10 ; 0.0
111 ; 2073733.5727545978 ; 2.0055447014517227E8 ; 2.2693548350865194E8 ; 2.0630418830772156E10 ; 0.0
112 ; 2070883.696946566 ; 2.005561870338343E8 ; 2.2900921708140653E8 ; 2.0830973300917328E10 ; 0.0
113 ; 2070632.4910670035 ; 2.005579045472701E8 ; 2.310801007783531E8 ; 2.103152948795116E10 ; 0.0
114 ; 2067363.2701199425 ; 2.005596225435831E8 ; 2.331507332694201E8 ; 2.1232087392498432E10 ; 0.0
115 ; 2068370.1047390858 ; 2.005613408837085E8 ; 2.3521809653954002E8 ; 2.1432647015042015E10 ; 0.0
116 ; 2067008.9712831748 ; 2.0056305943133295E8 ; 2.3728646664427912E8 ; 2.1633208355925724E10 ; 0.0
117 ; 2065556.1118130016 ; 2.0056477805281624E8 ; 2.393534756155623E8 ; 2.1833771415357056E10 ; 0.0
118 ; 2065855.1780229234 ; 2.0056649661711583E8 ; 2.414190317273753E8 ; 2.203433619340987E10 ; 0.0
119 ; 2064180.917385613 ; 2.005682149957134E8 ; 2.4348488690539822E8 ; 2.2234902690026985E10 ; 0.0
120 ; 2062568.5250722468 ; 2.0056993306254372E8 ; 2.4554906782278383E8 ; 2.2435470905022697E10 ; 0.0
121 ; 2062287.5985471038 ; 2.0057165069392577E8 ; 2.4761163634785607E8 ; 2.263604083808524E10 ; 0.0
122 ; 2059719.2095074311 ; 2.005733677684959E8 ; 2.4967392394640318E8 ; 2.2836612488779163E10 ; 0.0
123 ; 2058425.5913631737 ; 2.0057508416714308E8 ; 2.517336431559106E8 ; 2.303718585654766E10 ; 0.0
124 ; 2056302.5799099726 ; 2.005767997729463E8 ; 2.5379206874727377E8 ; 2.3237760940714806E10 ; 0.0
125 ; 2055964.844939742 ; 2.0057851447111368E8 ; 2.5584837132718375E8 ; 2.343833774048775E10 ; 0.0
126 ; 2054742.2245492432 ; 2.005802281489237E8 ; 2.579043361721235E8 ; 2.3638916254958866E10 ; 0.0
127 ; 2054749.7231746975 ; 2.0058194069566813E8 ; 2.5995907839667273E8 ; 2.3839496483107788E10 ; 0.0
128 ; 2052286.802760419 ; 2.0058365200259683E8 ; 2.6201382811984742E8 ; 2.4040078423803455E10 ; 0.0
129 ; 2051162.5465163887 ; 2.0058536196286428E8 ; 2.6406611492260784E8 ; 2.4240662075806053E10 ; 0.0
130 ; 2048951.2065718973 ; 2.0058707047147778E8 ; 2.6611727746912423E8 ; 2.4441247437768917E10 ; 0.0
131 ; 2047938.9833132473 ; 2.0058877742524725E8 ; 2.6816622867569613E8 ; 2.4641834508240395E10 ; 0.0
132 ; 2045295.587186921 ; 2.0059048272273663E8 ; 2.702141676590094E8 ; 2.484242328566564E10 ; 0.0
133 ; 2043441.3266616906 ; 2.005921862642169E8 ; 2.722594632461963E8 ; 2.504301376838838E10 ; 0.0
134 ; 2041733.7950137644 ; 2.0059388795162043E8 ; 2.7430290457285804E8 ; 2.5243605954652596E10 ; 0.0
135 ; 2038429.299815937 ; 2.0059558768849695E8 ; 2.763446383678718E8 ; 2.5444199842604218E10 ; 0.0
136 ; 2038748.2283904369 ; 2.005972853799707E8 ; 2.783830676676878E8 ; 2.5644795430292713E10 ; 0.0
137 ; 2034236.1554284333 ; 2.0059898093269917E8 ; 2.804218158960782E8 ; 2.5845392715672684E10 ; 0.0
138 ; 2033059.0672318633 ; 2.0060067425483298E8 ; 2.8245605205150664E8 ; 2.604599169660538E10 ; 0.0
139 ; 2030411.9535079007 ; 2.0060236525597703E8 ; 2.844891111187385E8 ; 2.6246592370860214E10 ; 0.0
140 ; 2028271.248425323 ; 2.00604053847153E8 ; 2.865195230722464E8 ; 2.644719473611619E10 ; 0.0
141 ; 2026605.258911501 ; 2.0060573994076297E8 ; 2.885477943206717E8 ; 2.6647798789963345E10 ; 0.0
142 ; 2023376.9267803049 ; 2.0060742345055407E8 ; 2.9057439957958317E8 ; 2.6848404529904106E10 ; 0.0
143 ; 2021616.0689503122 ; 2.0060910429158443E8 ; 2.9259777650636345E8 ; 2.704901195335466E10 ; 0.0
144 ; 2018964.203615129 ; 2.0061078238019016E8 ; 2.9461939257531375E8 ; 2.7249621057646244E10 ; 0.0
145 ; 2017085.66213142 ; 2.0061245763395327E8 ; 2.966383567789289E8 ; 2.7450231840026436E10 ; 0.0
146 ; 2016161.1543001735 ; 2.0061412997167066E8 ; 2.986554424410603E8 ; 2.765084429766039E10 ; 0.0
147 ; 2015360.3236799818 ; 2.0061579931332415E8 ; 3.0067160359536046E8 ; 2.785145842763206E10 ; 0.0
148 ; 2013009.1620030128 ; 2.006174655800514E8 ; 3.0268696391904044E8 ; 2.8052074226945385E10 ; 0.0
149 ; 2012638.7943066815 ; 2.0061912869411764E8 ; 3.046999730810435E8 ; 2.8252691692525436E10 ; 0.0
150 ; 2010505.7122328104 ; 2.0062078857888842E8 ; 3.067126118753502E8 ; 2.8453310821219555E10 ; 0.0
151 ; 2010837.300077023 ; 2.0062244515880328E8 ; 3.08723117587583E8 ; 2.8653931609798443E10 ; 0.0
152 ; 2008550.5329652082 ; 2.0062409835934997E8 ; 3.1073395488766E8 ; 2.8854554054957245E10 ; 0.0
153 ; 2007093.7021909084 ; 2.0062574810703972E8 ; 3.127425054206252E8 ; 2.9055178153316593E10 ; 0.0
154 ; 2004472.1731726364 ; 2.0062739432938322E8 ; 3.1474959912281615E8 ; 2.9255803901423634E10 ; 0.0
155 ; 2005926.8847506542 ; 2.006290369548673E8 ; 3.167540712959888E8 ; 2.9456431295753017E10 ; 0.0
156 ; 2000274.1472981318 ; 2.006306759129323E8 ; 3.1875999818073946E8 ; 2.9657060332707886E10 ; 0.0
157 ; 1999755.5807315113 ; 2.0063231113395038E8 ; 3.207602723280376E8 ; 2.985769100862082E10 ; 0.0
158 ; 1997127.6419641539 ; 2.0063394254920405E8 ; 3.2276002790876913E8 ; 3.005832331975477E10 ; 0.0
159 ; 1997238.3454015432 ; 2.006355700908659E8 ; 3.2475715555073327E8 ; 3.0258957262303974E10 ; 0.0
160 ; 1996899.5419542827 ; 2.006371936919786E8 ; 3.267543938961348E8 ; 3.045959283239484E10 ; 0.0
161 ; 1995195.1078637787 ; 2.006388132864355E8 ; 3.287512934380891E8 ; 3.066023002608682E10 ; 0.0
162 ; 1993015.649370851 ; 2.0064042880896208E8 ; 3.3074648854595286E8 ; 3.0860868839373253E10 ; 0.0
163 ; 1990217.7644642736 ; 2.0064204019509774E8 ; 3.327395041953237E8 ; 3.1061509268182217E10 ; 0.0
164 ; 1988436.2902266763 ; 2.006436473811783E8 ; 3.3472972195978796E8 ; 3.1262151308377316E10 ; 0.0
165 ; 1987594.8573605001 ; 2.0064525030431885E8 ; 3.3671815825001466E8 ; 3.1462794955758495E10 ; 0.0
166 ; 1986294.6487739813 ; 2.006468489023974E8 ; 3.3870575310737514E8 ; 3.1663440206062813E10 ; 0.0
167 ; 1984674.4898445746 ; 2.006484431140387E8 ; 3.406920477561491E8 ; 3.186408705496521E10 ; 0.0
168 ; 1985262.4890831704 ; 2.0065003287859884E8 ; 3.426767222459937E8 ; 3.206473549807925E10 ; 0.0
169 ; 1981928.00529651 ; 2.0065161813615012E8 ; 3.4466198473507684E8 ; 3.2265385530957848E10 ; 0.0
170 ; 1980528.5350119555 ; 2.006531988274665E8 ; 3.466439127403734E8 ; 3.2466037149093998E10 ; 0.0
171 ; 1978341.0782368376 ; 2.0065477489400938E8 ; 3.486244412753853E8 ; 3.2666690347921463E10 ; 0.0
172 ; 1977295.5359555595 ; 2.0065634627791396E8 ; 3.5060278235362214E8 ; 3.286734512281547E10 ; 0.0
173 ; 1975332.5013727727 ; 2.0065791292197585E8 ; 3.525800778895777E8 ; 3.3068001469093384E10 ; 0.0
174 ; 1975150.1482436196 ; 2.006594747696382E8 ; 3.5455541039095044E8 ; 3.3268659382015358E10 ; 0.0
175 ; 1972347.824900259 ; 2.0066103176497912E8 ; 3.5653056053919405E8 ; 3.3469318856784996E10 ; 0.0
176 ; 1973172.51139711 ; 2.0066258385269958E8 ; 3.585029083640943E8 ; 3.3669979888549976E10 ; 0.0
177 ; 1972531.390375453 ; 2.006641309781115E8 ; 3.6047608087549144E8 ; 3.3870642472402676E10 ; 0.0
178 ; 1970074.6759698256 ; 2.006656730871265E8 ; 3.624486122658669E8 ; 3.4071306603380787E10 ; 0.0
179 ; 1971585.7598417667 ; 2.0066721012624466E8 ; 3.644186869418367E8 ; 3.4271972276467915E10 ; 0.0
180 ; 1969231.5035572124 ; 2.0066874204254377E8 ; 3.6639027270167845E8 ; 3.447263948659416E10 ; 0.0
181 ; 1966541.3951272308 ; 2.006702687836689E8 ; 3.6835950420523566E8 ; 3.46733082286367E10 ; 0.0
182 ; 1966420.0228683227 ; 2.006717902978222E8 ; 3.703260456003629E8 ; 3.487397849742037E10 ; 0.0
183 ; 1965385.6829041233 ; 2.0067330653375322E8 ; 3.7229246562323123E8 ; 3.507465028771819E10 ; 0.0
184 ; 1963825.2404383223 ; 2.0067481744074908E8 ; 3.7425785130613536E8 ; 3.5275323594251945E10 ; 0.0
185 ; 1964200.496782554 ; 2.0067632296862546E8 ; 3.762216765465737E8 ; 3.5475998411692696E10 ; 0.0
186 ; 1961469.3903115827 ; 2.0067782306771746E8 ; 3.7818587704335624E8 ; 3.567667473466132E10 ; 0.0
187 ; 1960795.5192310454 ; 2.0067931768887088E8 ; 3.8014734643366784E8 ; 3.587735255772904E10 ; 0.0
188 ; 1959818.6411587973 ; 2.006808067834337E8 ; 3.8210814195289886E8 ; 3.6078031875417915E10 ; 0.0
189 ; 1958058.9570258649 ; 2.0068229030324802E8 ; 3.840679605940577E8 ; 3.627871268220135E10 ; 0.0
190 ; 1958351.7866466523 ; 2.006837682006418E8 ; 3.8602601955108356E8 ; 3.647939497250459E10 ; 0.0
191 ; 1957083.5389002338 ; 2.0068524042842132E8 ; 3.879843713377302E8 ; 3.668007874070524E10 ; 0.0
192 ; 1956621.9428218761 ; 2.006867069398635E8 ; 3.899414548766305E8 ; 3.688076398113366E10 ; 0.0
193 ; 1955731.5130245113 ; 2.006881676887086E8 ; 3.9189807681945235E8 ; 3.7081450688073524E10 ; 0.0
194 ; 1952990.87286535 ; 2.0068962262915325E8 ; 3.9385380833247685E8 ; 3.728213885576223E10 ; 0.0
195 ; 1953978.2563921772 ; 2.0069107171584332E8 ; 3.9580679920534223E8 ; 3.748282847839138E10 ; 0.0
196 ; 1951186.1192426346 ; 2.006925149038674E8 ; 3.977607774617344E8 ; 3.768351955010722E10 ; 0.0
197 ; 1951036.2960525658 ; 2.006939521487502E8 ; 3.99711963580977E8 ; 3.788421206501109E10 ; 0.0
198 ; 1950669.2493752758 ; 2.006953834064462E8 ; 4.016629998770296E8 ; 3.808490601715984E10 ; 0.0
199 ; 1948455.0098197632 ; 2.006968086333336E8 ; 4.036136691264049E8 ; 3.828560140056629E10 ; 0.0
