CSV File for the City 1 on Day 242
1 - Minute m 
2 - Power Consumed at minute m 
3 - Power Produced at minute m 
4 - Energy Consumed since the beginning of the day 
5 - Energy Produced since the beginning of the day 
6 - Energy Lost since the beginning of the day on lines starting from the city
 
0 ; 2490380.969765936 ; 1.0529737035557804E8 ; 0.0 ; 0.0 ; 0.0
1 ; 2509512.615787152 ; 1.0544933067144173E8 ; 2490380.969765936 ; 1.0529737035557804E8 ; 0.0
2 ; 2523961.993363793 ; 1.059101450477238E8 ; 4999893.585553088 ; 2.1074670102701977E8 ; 0.0
3 ; 2544960.254240926 ; 1.0667982420103103E8 ; 7523855.578916881 ; 3.1665684607474357E8 ; 0.0
4 ; 2567355.2245502477 ; 1.0775837834556371E8 ; 1.0068815833157808E7 ; 4.233366702757746E8 ; 0.0
5 ; 2596039.6900304784 ; 1.0914581697095376E8 ; 1.2636171057708055E7 ; 5.310950486213383E8 ; 0.0
6 ; 2636561.756164896 ; 1.1084214861342761E8 ; 1.5232210747738533E7 ; 6.402408655922921E8 ; 0.0
7 ; 2691744.78378222 ; 1.128473806310547E8 ; 1.786877250390343E7 ; 7.510830142057197E8 ; 0.0
8 ; 2768779.9790884894 ; 1.1516151899535513E8 ; 2.056051728768565E7 ; 8.639303948367743E8 ; 0.0
9 ; 2887097.7572029997 ; 1.1778456811203218E8 ; 2.332929726677414E7 ; 9.790919138321295E8 ; 0.0
10 ; 3069601.2026166306 ; 1.2071653068280971E8 ; 2.6216395023977138E7 ; 1.0968764819441617E9 ; 0.0
11 ; 3363658.1317203795 ; 1.2395740761820504E8 ; 2.928599622659377E7 ; 1.2175930126269712E9 ; 0.0
12 ; 3823648.5562609555 ; 1.2750719800770083E8 ; 3.264965435831415E7 ; 1.3415504202451763E9 ; 0.0
13 ; 4271036.668666238 ; 1.313658991495732E8 ; 3.647330291457511E7 ; 1.4690576182528772E9 ; 0.0
14 ; 4323327.203423116 ; 1.3553350663811898E8 ; 4.074433958324134E7 ; 1.6004235174024506E9 ; 0.0
15 ; 4344882.888864782 ; 1.4001001450181794E8 ; 4.5067666786664456E7 ; 1.7359570240405695E9 ; 0.0
16 ; 4367401.369471501 ; 1.4479541538260075E8 ; 4.941254967552924E7 ; 1.8759670385423875E9 ; 0.0
17 ; 4385534.538143574 ; 1.498897007442409E8 ; 5.377995104500074E7 ; 2.0207624539249883E9 ; 0.0
18 ; 4412563.713416715 ; 1.5529286109710652E8 ; 5.8165485583144315E7 ; 2.170652154669229E9 ; 0.0
19 ; 4430214.906817553 ; 1.610048862269973E8 ; 6.257804929656103E7 ; 2.3259450157663355E9 ; 0.0
20 ; 4455084.428011159 ; 1.670257654173064E8 ; 6.700826420337859E7 ; 2.486949901993333E9 ; 0.0
21 ; 4475044.182321138 ; 1.733554876559225E8 ; 7.146334863138975E7 ; 2.6539756674106393E9 ; 0.0
22 ; 4496769.489185982 ; 1.7999404182075334E8 ; 7.593839281371088E7 ; 2.8273311550665617E9 ; 0.0
23 ; 4520471.361990233 ; 1.869414168401838E8 ; 8.043516230289687E7 ; 3.007325196887315E9 ; 0.0
24 ; 4546441.697865177 ; 1.9419760182694334E8 ; 8.49556336648871E7 ; 3.1942666137274985E9 ; 0.0
25 ; 4565807.805356873 ; 2.0045062708379883E8 ; 8.950207536275227E7 ; 3.388464215554442E9 ; 0.0
26 ; 4586064.973930559 ; 2.0045403022312546E8 ; 9.406788316810915E7 ; 3.588914842638241E9 ; 0.0
27 ; 4610177.544747127 ; 2.0045757075203535E8 ; 9.86539481420397E7 ; 3.7893688728613663E9 ; 0.0
28 ; 4631482.454259511 ; 2.0046123935977623E8 ; 1.0326412568678683E8 ; 3.9898264436134014E9 ; 0.0
29 ; 4651457.453203064 ; 2.0046502723502356E8 ; 1.0789560814104635E8 ; 4.1902876829731774E9 ; 0.0
30 ; 4674692.316838098 ; 2.004689260763088E8 ; 1.1254706559424941E8 ; 4.390752710208201E9 ; 0.0
31 ; 4694047.817872837 ; 2.0047292809158447E8 ; 1.1722175791108751E8 ; 4.591221636284511E9 ; 0.0
32 ; 4715810.82176895 ; 2.004770259893882E8 ; 1.2191580572896035E8 ; 4.791694564376095E9 ; 0.0
33 ; 4736117.149121052 ; 2.0048121296373636E8 ; 1.266316165507293E8 ; 4.992171590365483E9 ; 0.0
34 ; 4758312.637088246 ; 2.0048548267454064E8 ; 1.3136773369985035E8 ; 5.19265280332922E9 ; 0.0
35 ; 4774263.051200182 ; 2.0048982922502035E8 ; 1.361260463369386E8 ; 5.39313828600376E9 ; 0.0
36 ; 4792214.328415356 ; 2.004942471372933E8 ; 1.4090030938813877E8 ; 5.593628115228781E9 ; 0.0
37 ; 4809140.118649853 ; 2.0049873132707277E8 ; 1.4569252371655414E8 ; 5.794122362366074E9 ; 0.0
38 ; 4828242.908743637 ; 2.00503277078183E8 ; 1.5050166383520398E8 ; 5.994621093693147E9 ; 0.0
39 ; 4847732.382378536 ; 2.0050788001742423E8 ; 1.5532990674394763E8 ; 6.19512437077133E9 ; 0.0
40 ; 4856376.450251446 ; 2.0051253609017193E8 ; 1.6017763912632617E8 ; 6.395632250788754E9 ; 0.0
41 ; 4876064.1569091985 ; 2.0051724153697708E8 ; 1.6503401557657763E8 ; 6.596144786878926E9 ; 0.0
42 ; 4890654.081632178 ; 2.005219928713414E8 ; 1.6991007973348683E8 ; 6.796662028415903E9 ; 0.0
43 ; 4908610.904486035 ; 2.0052678685877058E8 ; 1.74800733815119E8 ; 6.997184021287245E9 ; 0.0
44 ; 4920693.768917677 ; 2.0053162049715254E8 ; 1.7970934471960503E8 ; 7.197710808146015E9 ; 0.0
45 ; 4933606.209199273 ; 2.0053649099846935E8 ; 1.846300384885227E8 ; 7.3982424286431675E9 ; 0.0
46 ; 4942056.391051758 ; 2.0054139577181977E8 ; 1.89563644697722E8 ; 7.598778919641637E9 ; 0.0
47 ; 4955071.196015794 ; 2.0054633240771046E8 ; 1.9450570108877376E8 ; 7.799320315413457E9 ; 0.0
48 ; 4961497.967364675 ; 2.005512986635589E8 ; 1.9946077228478956E8 ; 7.999866647821167E9 ; 0.0
49 ; 4972815.926220175 ; 2.0055629245034286E8 ; 2.0442227025215423E8 ; 8.200417946484726E9 ; 0.0
50 ; 4987463.909632977 ; 2.005613118203263E8 ; 2.093950861783744E8 ; 8.400974238935069E9 ; 0.0
51 ; 4993537.123224333 ; 2.0056635495578945E8 ; 2.143825500880074E8 ; 8.601535550755396E9 ; 0.0
52 ; 5000557.175855527 ; 2.0057142015869153E8 ; 2.193760872112317E8 ; 8.802101905711185E9 ; 0.0
53 ; 5006835.900109865 ; 2.0057650584119558E8 ; 2.2437664438708723E8 ; 9.002673325869877E9 ; 0.0
54 ; 5015505.700530235 ; 2.0058161051698816E8 ; 2.2938348028719708E8 ; 9.203249831711073E9 ; 0.0
55 ; 5022817.372224354 ; 2.005867327933298E8 ; 2.343989859877273E8 ; 9.403831442228062E9 ; 0.0
56 ; 5031222.035675228 ; 2.0059187136377582E8 ; 2.3942180335995167E8 ; 9.60441817502139E9 ; 0.0
57 ; 5032575.1412831545 ; 2.0059702500151122E8 ; 2.444530253956269E8 ; 9.805010046385166E9 ; 0.0
58 ; 5048878.791914124 ; 2.0060219255324706E8 ; 2.4948560053691006E8 ; 1.0005607071386677E10 ; 0.0
59 ; 5050793.963250285 ; 2.0060737293363047E8 ; 2.545344793288242E8 ; 1.0206209263939924E10 ; 0.0
60 ; 5061590.398520502 ; 2.0061256512012267E8 ; 2.5958527329207447E8 ; 1.0406816636873554E10 ; 0.0
61 ; 5065510.307430561 ; 2.006177681483054E8 ; 2.6464686369059497E8 ; 1.0607429201993677E10 ; 0.0
62 ; 5072971.503630135 ; 2.0062298110757688E8 ; 2.6971237399802554E8 ; 1.0808046970141983E10 ; 0.0
63 ; 5077992.673753819 ; 2.0062820313720405E8 ; 2.747853455016557E8 ; 1.100866995124956E10 ; 0.0
64 ; 5085456.795921497 ; 2.0063343342269927E8 ; 2.798633381754095E8 ; 1.1209298154386763E10 ; 0.0
65 ; 5090169.723081658 ; 2.006386711924929E8 ; 2.84948794971331E8 ; 1.1409931587809462E10 ; 0.0
66 ; 5101293.276853504 ; 2.0064391571487603E8 ; 2.9003896469441265E8 ; 1.1610570259001955E10 ; 0.0
67 ; 5103401.831814879 ; 2.0064916629518968E8 ; 2.9514025797126615E8 ; 1.1811214174716831E10 ; 0.0
68 ; 5110575.081578308 ; 2.0065442227323875E8 ; 3.0024365980308104E8 ; 1.201186334101202E10 ; 0.0
69 ; 5112346.0780630475 ; 2.0065968302091128E8 ; 3.0535423488465935E8 ; 1.221251776328526E10 ; 0.0
70 ; 5121615.038637235 ; 2.0066494793998533E8 ; 3.104665809627224E8 ; 1.2413177446306171E10 ; 0.0
71 ; 5128928.439117243 ; 2.0067021646010727E8 ; 3.1558819600135964E8 ; 1.2613842394246157E10 ; 0.0
72 ; 5131010.427930653 ; 2.0067548803692654E8 ; 3.207171244404769E8 ; 1.2814512610706264E10 ; 0.0
73 ; 5138159.721222668 ; 2.006807621503741E8 ; 3.2584813486840755E8 ; 1.301518809874319E10 ; 0.0
74 ; 5142772.191171146 ; 2.006860383030719E8 ; 3.309862945896302E8 ; 1.3215868860893564E10 ; 0.0
75 ; 5147251.375215513 ; 2.0069131601886228E8 ; 3.3612906678080136E8 ; 1.3416554899196636E10 ; 0.0
76 ; 5155563.997008313 ; 2.006965948414481E8 ; 3.412763181560169E8 ; 1.3617246215215498E10 ; 0.0
77 ; 5160653.3905981975 ; 2.007018743331333E8 ; 3.464318821530252E8 ; 1.3817942810056946E10 ; 0.0
78 ; 5157945.121644675 ; 2.007071540736564E8 ; 3.515925355436234E8 ; 1.401864468439008E10 ; 0.0
79 ; 5159291.372801599 ; 2.0071243365910897E8 ; 3.5675048066526806E8 ; 1.4219351838463736E10 ; 0.0
80 ; 5156301.574167911 ; 2.0071771270093238E8 ; 3.6190977203806967E8 ; 1.4420064272122845E10 ; 0.0
81 ; 5157089.9660754 ; 2.007229908249863E8 ; 3.670660736122376E8 ; 1.4620781984823776E10 ; 0.0
82 ; 5158569.330480892 ; 2.0072826767068356E8 ; 3.72223163578313E8 ; 1.4821504975648762E10 ; 0.0
83 ; 5154297.725497945 ; 2.007335428901856E8 ; 3.7738173290879387E8 ; 1.5022233243319445E10 ; 0.0
84 ; 5151025.113645635 ; 2.007388161476542E8 ; 3.825360306342918E8 ; 1.5222966786209631E10 ; 0.0
85 ; 5152313.6871638475 ; 2.0074408711855504E8 ; 3.8768705574793744E8 ; 1.5423705602357285E10 ; 0.0
86 ; 5150535.637983715 ; 2.0074935548900855E8 ; 3.928393694351013E8 ; 1.562444968947584E10 ; 0.0
87 ; 5146838.374011746 ; 2.0075462095518532E8 ; 3.97989905073085E8 ; 1.5825199044964848E10 ; 0.0
88 ; 5147657.456407053 ; 2.0075988322274187E8 ; 4.0313674344709677E8 ; 1.6025953665920033E10 ; 0.0
89 ; 5144305.035441748 ; 2.0076514200629416E8 ; 4.0828440090350384E8 ; 1.6226713549142775E10 ; 0.0
90 ; 5144183.448075684 ; 2.0077039702892584E8 ; 4.134287059389456E8 ; 1.6427478691149069E10 ; 0.0
91 ; 5145287.104677128 ; 2.0077564802172872E8 ; 4.185728893870213E8 ; 1.6628249088177994E10 ; 0.0
92 ; 5135021.45248406 ; 2.0078089472337326E8 ; 4.2371817649169844E8 ; 1.6829024736199722E10 ; 0.0
93 ; 5135857.147691065 ; 2.0078613687970635E8 ; 4.288531979441825E8 ; 1.7029805630923096E10 ; 0.0
94 ; 5133236.7169105895 ; 2.0079137424337503E8 ; 4.339890550918736E8 ; 1.7230591767802803E10 ; 0.0
95 ; 5129890.082635897 ; 2.0079660657347402E8 ; 4.391222918087842E8 ; 1.7431383142046177E10 ; 0.0
96 ; 5131017.345389584 ; 2.0080183363521522E8 ; 4.4425218189142007E8 ; 1.763217974861965E10 ; 0.0
97 ; 5121516.19683258 ; 2.0080705519961774E8 ; 4.493831992368097E8 ; 1.7832981582254868E10 ; 0.0
98 ; 5120054.109457673 ; 2.0081227104321724E8 ; 4.5450471543364227E8 ; 1.8033788637454487E10 ; 0.0
99 ; 5114853.849379954 ; 2.0081748094779292E8 ; 4.5962476954309994E8 ; 1.8234600908497704E10 ; 0.0
100 ; 5118522.561230298 ; 2.008226847001109E8 ; 4.647396233924799E8 ; 1.8435418389445496E10 ; 0.0
101 ; 5113498.658829291 ; 2.008278820916834E8 ; 4.698581459537102E8 ; 1.8636241074145607E10 ; 0.0
102 ; 5108789.806710474 ; 2.008330729185419E8 ; 4.7497164461253947E8 ; 1.883706895623729E10 ; 0.0
103 ; 5101095.215260164 ; 2.0083825698102403E8 ; 4.8008043441924995E8 ; 1.903790202915583E10 ; 0.0
104 ; 5100575.980658944 ; 2.008434340835727E8 ; 4.851815296345101E8 ; 1.9238740286136856E10 ; 0.0
105 ; 5094061.761666739 ; 2.0084860403454706E8 ; 4.9028210561516905E8 ; 1.943958372022043E10 ; 0.0
106 ; 5089678.003883444 ; 2.0085376664604443E8 ; 4.9537616737683576E8 ; 1.9640432324254974E10 ; 0.0
107 ; 5087749.048228733 ; 2.0085892173373225E8 ; 5.004658453807192E8 ; 1.984128609090102E10 ; 0.0
108 ; 5084527.655966375 ; 2.008640691166897E8 ; 5.055535944289479E8 ; 2.0042145012634754E10 ; 0.0
109 ; 5077991.426335318 ; 2.0086920861725837E8 ; 5.106381220849143E8 ; 2.0243009081751446E10 ; 0.0
110 ; 5076194.146665734 ; 2.0087434006090087E8 ; 5.1571611351124966E8 ; 2.0443878290368706E10 ; 0.0
111 ; 5069206.795198191 ; 2.0087946327606785E8 ; 5.207923076579154E8 ; 2.0644752630429607E10 ; 0.0
112 ; 5064464.899507252 ; 2.0088457809407187E8 ; 5.258615144531136E8 ; 2.0845632093705677E10 ; 0.0
113 ; 5055018.912032075 ; 2.008896843489685E8 ; 5.3092597935262084E8 ; 2.1046516671799747E10 ; 0.0
114 ; 5051456.1239085 ; 2.008947818774437E8 ; 5.359809982646529E8 ; 2.1247406356148716E10 ; 0.0
115 ; 5045855.809141128 ; 2.008998705187073E8 ; 5.410324543885614E8 ; 2.144830113802616E10 ; 0.0
116 ; 5040747.29387799 ; 2.009049501143922E8 ; 5.460783101977025E8 ; 2.164920100854487E10 ; 0.0
117 ; 5037882.201102145 ; 2.00910020508459E8 ; 5.511190574915805E8 ; 2.185010595865926E10 ; 0.0
118 ; 5030617.963035411 ; 2.009150815471055E8 ; 5.561569396926826E8 ; 2.2051015979167717E10 ; 0.0
119 ; 5029744.201415242 ; 2.0092013307868108E8 ; 5.611875576557181E8 ; 2.225193106071482E10 ; 0.0
120 ; 5018798.449375247 ; 2.0092517495360553E8 ; 5.662173018571334E8 ; 2.2452851193793503E10 ; 0.0
121 ; 5013198.881298814 ; 2.0093020702429196E8 ; 5.712361003065087E8 ; 2.265377636874711E10 ; 0.0
122 ; 5010436.048616062 ; 2.009352291450738E8 ; 5.762492991878074E8 ; 2.28547065757714E10 ; 0.0
123 ; 5000336.991932917 ; 2.0094024117213553E8 ; 5.812597352364235E8 ; 2.3055641804916473E10 ; 0.0
124 ; 4991747.271066674 ; 2.0094524296344674E8 ; 5.862600722283564E8 ; 2.3256582046088608E10 ; 0.0
125 ; 4990768.91066142 ; 2.0095023437869972E8 ; 5.91251819499423E8 ; 2.3457527289052055E10 ; 0.0
126 ; 4980720.531724561 ; 2.009552152792501E8 ; 5.962425884100845E8 ; 2.3658477523430756E10 ; 0.0
127 ; 4974588.784314956 ; 2.009601855280604E8 ; 6.01223308941809E8 ; 2.3859432738710007E10 ; 0.0
128 ; 4967088.089321604 ; 2.0096514498964643E8 ; 6.06197897726124E8 ; 2.4060392924238068E10 ; 0.0
129 ; 4959970.190264125 ; 2.0097009353002635E8 ; 6.111649858154457E8 ; 2.4261358069227715E10 ; 0.0
130 ; 4955835.383780331 ; 2.0097503101667204E8 ; 6.161249560057098E8 ; 2.446232816275774E10 ; 0.0
131 ; 4941225.063318023 ; 2.0097995731846312E8 ; 6.210807913894901E8 ; 2.466330319377441E10 ; 0.0
132 ; 4927315.251821109 ; 2.0098487230564293E8 ; 6.260220164528081E8 ; 2.4864283151092873E10 ; 0.0
133 ; 4914892.309228299 ; 2.009897758497768E8 ; 6.309493317046293E8 ; 2.5065268023398514E10 ; 0.0
134 ; 4898719.502090729 ; 2.009946678237122E8 ; 6.358642240138576E8 ; 2.526625779924829E10 ; 0.0
135 ; 4886436.474230844 ; 2.0099954810154086E8 ; 6.407629435159483E8 ; 2.5467252467072002E10 ; 0.0
136 ; 4871975.681651405 ; 2.0100441655856264E8 ; 6.456493799901792E8 ; 2.5668252015173542E10 ; 0.0
137 ; 4864703.17692951 ; 2.010092730712511E8 ; 6.505213556718305E8 ; 2.5869256431732105E10 ; 0.0
138 ; 4844958.381384945 ; 2.0101411751722074E8 ; 6.5538605884876E8 ; 2.6070265704803356E10 ; 0.0
139 ; 4832766.12837945 ; 2.0101894977519563E8 ; 6.60231017230145E8 ; 2.6271279822320576E10 ; 0.0
140 ; 4822341.463629698 ; 2.010237697249797E8 ; 6.650637833585244E8 ; 2.647229877209577E10 ; 0.0
141 ; 4805581.510718582 ; 2.0102857724742815E8 ; 6.698861248221542E8 ; 2.667332254182075E10 ; 0.0
142 ; 4793425.126882423 ; 2.010333722244205E8 ; 6.746917063328727E8 ; 2.687435111906818E10 ; 0.0
143 ; 4780887.058044009 ; 2.0103815453883442E8 ; 6.794851314597552E8 ; 2.70753844912926E10 ; 0.0
144 ; 4764108.7357914485 ; 2.0104292407452124E8 ; 6.842660185177991E8 ; 2.7276422645831432E10 ; 0.0
145 ; 4760393.379906558 ; 2.0104768071628225E8 ; 6.890301272535906E8 ; 2.7477465569905952E10 ; 0.0
146 ; 4749168.281703005 ; 2.0105242434984612E8 ; 6.937905206334971E8 ; 2.7678513250622234E10 ; 0.0
147 ; 4744722.058350963 ; 2.0105715486184752E8 ; 6.985396889152001E8 ; 2.787956567497208E10 ; 0.0
148 ; 4735184.151395262 ; 2.0106187213980636E8 ; 7.03284410973551E8 ; 2.8080622829833927E10 ; 0.0
149 ; 4725905.252757093 ; 2.010665760721083E8 ; 7.080195951249464E8 ; 2.8281684701973732E10 ; 0.0
150 ; 4720477.793398158 ; 2.0107126654798597E8 ; 7.127455003777034E8 ; 2.848275127804584E10 ; 0.0
151 ; 4708690.45266429 ; 2.01075943457501E8 ; 7.174659781711016E8 ; 2.8683822544593826E10 ; 0.0
152 ; 4704163.252096428 ; 2.0108060669152686E8 ; 7.221746686237658E8 ; 2.8884898488051327E10 ; 0.0
153 ; 4695092.649200347 ; 2.0108525614173248E8 ; 7.268788318758622E8 ; 2.9085979094742855E10 ; 0.0
154 ; 4689289.901570519 ; 2.0108989170056674E8 ; 7.315739245250626E8 ; 2.9287064350884586E10 ; 0.0
155 ; 4681343.300584452 ; 2.0109451326124316E8 ; 7.362632144266331E8 ; 2.948815424258515E10 ; 0.0
156 ; 4674815.842913234 ; 2.01099120717726E8 ; 7.409445577272176E8 ; 2.9689248755846394E10 ; 0.0
157 ; 4671817.838590839 ; 2.0110371396471614E8 ; 7.456193735701308E8 ; 2.989034787656412E10 ; 0.0
158 ; 4660397.110152251 ; 2.0110829289763835E8 ; 7.502911914087217E8 ; 3.009145159052884E10 ; 0.0
159 ; 4648715.956483311 ; 2.0111285741262844E8 ; 7.549515885188739E8 ; 3.029255988342648E10 ; 0.0
160 ; 4641566.2914063195 ; 2.0111740740652156E8 ; 7.596003044753573E8 ; 3.0493672740839108E10 ; 0.0
161 ; 4633041.128399143 ; 2.011219427768405E8 ; 7.642418707667636E8 ; 3.069479014824563E10 ; 0.0
162 ; 4629211.9583122255 ; 2.0112646342178482E8 ; 7.688749118951627E8 ; 3.089591209102247E10 ; 0.0
163 ; 4619834.540308164 ; 2.0113096924022037E8 ; 7.73504123853475E8 ; 3.1097038554444252E10 ; 0.0
164 ; 4615123.621326001 ; 2.0113546013166913E8 ; 7.781239583937831E8 ; 3.129816952368447E10 ; 0.0
165 ; 4605527.301710055 ; 2.011399359962998E8 ; 7.827390820151091E8 ; 3.149930498381614E10 ; 0.0
166 ; 4593677.77790227 ; 2.011443967349184E8 ; 7.873446093168191E8 ; 3.170044491981244E10 ; 0.0
167 ; 4584665.725000038 ; 2.0114884224895948E8 ; 7.919382870947213E8 ; 3.1901589316547356E10 ; 0.0
168 ; 4582985.866026558 ; 2.0115327244047782E8 ; 7.965229528197213E8 ; 3.2102738158796314E10 ; 0.0
169 ; 4570736.955915395 ; 2.0115768721214032E8 ; 8.011059386857479E8 ; 3.2303891431236794E10 ; 0.0
170 ; 4569374.704498311 ; 2.011620864672182E8 ; 8.056766756416633E8 ; 3.2505049118448933E10 ; 0.0
171 ; 4559536.99055448 ; 2.0116647010957968E8 ; 8.102460503461616E8 ; 3.270621120491615E10 ; 0.0
172 ; 4547651.8454642575 ; 2.011708380436829E8 ; 8.14805587336716E8 ; 3.290737767502573E10 ; 0.0
173 ; 4543910.030629185 ; 2.011751901745692E8 ; 8.193532391821803E8 ; 3.3108548513069412E10 ; 0.0
174 ; 4537985.001474923 ; 2.0117952640785652E8 ; 8.238971492128094E8 ; 3.330972370324398E10 ; 0.0
175 ; 4530884.939690286 ; 2.011838466497334E8 ; 8.284351342142844E8 ; 3.3510903229651836E10 ; 0.0
176 ; 4523936.535303318 ; 2.0118815080695286E8 ; 8.329660191539747E8 ; 3.371208707630157E10 ; 0.0
177 ; 4518540.611208513 ; 2.0119243878682688E8 ; 8.37489955689278E8 ; 3.3913275227108524E10 ; 0.0
178 ; 4510665.399678914 ; 2.011967104972208E8 ; 8.420084963004866E8 ; 3.411446766589535E10 ; 0.0
179 ; 4510374.494097129 ; 2.0120096584654844E8 ; 8.465191617001655E8 ; 3.431566437639257E10 ; 0.0
180 ; 4507743.223264044 ; 2.0120520474376675E8 ; 8.510295361942626E8 ; 3.451686534223912E10 ; 0.0
181 ; 4493352.961415936 ; 2.0120942709837136E8 ; 8.555372794175267E8 ; 3.471807054698289E10 ; 0.0
182 ; 4491972.064609286 ; 2.0121363282039192E8 ; 8.600306323789426E8 ; 3.491927997408126E10 ; 0.0
183 ; 4484175.793994831 ; 2.012178218203878E8 ; 8.645226044435519E8 ; 3.512049360690165E10 ; 0.0
184 ; 4477010.30555438 ; 2.012219940094439E8 ; 8.690067802375467E8 ; 3.532171142872204E10 ; 0.0
185 ; 4472654.502807803 ; 2.0122614929916677E8 ; 8.734837905431011E8 ; 3.552293342273148E10 ; 0.0
186 ; 4470284.277391853 ; 2.012302876016807E8 ; 8.779564450459089E8 ; 3.572415957203065E10 ; 0.0
187 ; 4462350.219342921 ; 2.0123440882962424E8 ; 8.824267293233008E8 ; 3.5925389859632324E10 ; 0.0
188 ; 4459234.204813046 ; 2.0123851289614663E8 ; 8.868890795426438E8 ; 3.612662426846195E10 ; 0.0
189 ; 4451437.277137207 ; 2.012425997149046E8 ; 8.913483137474568E8 ; 3.63278627813581E10 ; 0.0
190 ; 4446811.278077495 ; 2.012466692000592E8 ; 8.95799751024594E8 ; 3.6529105381073006E10 ; 0.0
191 ; 4442642.071440615 ; 2.0125072126627275E8 ; 9.002465623026714E8 ; 3.673035205027306E10 ; 0.0
192 ; 4432672.478233414 ; 2.0125475582870594E8 ; 9.04689204374112E8 ; 3.693160277153934E10 ; 0.0
193 ; 4430844.100973432 ; 2.012587728030153E8 ; 9.091218768523455E8 ; 3.713285752736804E10 ; 0.0
194 ; 4424965.238574816 ; 2.0126277210535032E8 ; 9.13552720953319E8 ; 3.733411630017106E10 ; 0.0
195 ; 4417687.3862844175 ; 2.012667536523512E8 ; 9.179776861918938E8 ; 3.7535379072276405E10 ; 0.0
196 ; 4413241.609696749 ; 2.012707173611464E8 ; 9.223953735781783E8 ; 3.773664582592876E10 ; 0.0
197 ; 4411212.408662032 ; 2.0127466314935035E8 ; 9.26808615187875E8 ; 3.79379165432899E10 ; 0.0
198 ; 4400969.524643353 ; 2.012785909350613E8 ; 9.312198275965371E8 ; 3.8139191206439255E10 ; 0.0
199 ; 4396073.849577924 ; 2.012825006368595E8 ; 9.356207971211804E8 ; 3.834046979737431E10 ; 0.0
200 ; 4391456.168069475 ; 2.0128639217380497E8 ; 9.400168709707583E8 ; 3.854175229801117E10 ; 0.0
201 ; 4378818.323901011 ; 2.0129026546543577E8 ; 9.444083271388278E8 ; 3.8743038690184975E10 ; 0.0
