CSV File for the City 3 on Day 219
1 - Minute m 
2 - Power Consumed at minute m 
3 - Power Produced at minute m 
4 - Energy Consumed since the beginning of the day 
5 - Energy Produced since the beginning of the day 
6 - Energy Lost since the beginning of the day on lines starting from the city
 
0 ; 152905.46521605508 ; 1.0528184474776116E8 ; 0.0 ; 0.0 ; 0.0
1 ; 156187.29472141142 ; 1.0543354844886589E8 ; 152905.46521605508 ; 1.0528184474776116E8 ; 0.0
2 ; 158163.46378607623 ; 1.0589411881183252E8 ; 309092.7599374665 ; 2.1071539319662705E8 ; 0.0
3 ; 162383.7797542714 ; 1.0666357025458121E8 ; 467256.2237235427 ; 3.1660951200845957E8 ; 0.0
4 ; 163717.65567559242 ; 1.0774191680802542E8 ; 629640.0034778141 ; 4.232730822630408E8 ; 0.0
5 ; 168650.77992301533 ; 1.0912917176386505E8 ; 793357.6591534065 ; 5.310149990710662E8 ; 0.0
6 ; 176631.7492748649 ; 1.1082534729187301E8 ; 962008.4390764218 ; 6.401441708349313E8 ; 0.0
7 ; 182055.48038915987 ; 1.1283045404632986E8 ; 1138640.1883512866 ; 7.509695181268042E8 ; 0.0
8 ; 194128.6846364878 ; 1.151445007867164E8 ; 1320695.6687404464 ; 8.637999721731341E8 ; 0.0
9 ; 211151.11082854884 ; 1.1776749404104418E8 ; 1514824.3533769343 ; 9.789444729598505E8 ; 0.0
10 ; 239769.72847182167 ; 1.2069943784014547E8 ; 1725975.4642054832 ; 1.0967119670008948E9 ; 0.0
11 ; 280789.47682416404 ; 1.2394033354721704E8 ; 1965745.1926773048 ; 1.2174114048410401E9 ; 0.0
12 ; 347694.2558053387 ; 1.274901797990621E8 ; 2246534.669501469 ; 1.3413517383882573E9 ; 0.0
13 ; 411085.9279537485 ; 1.3134897256484836E8 ; 2594228.9253068077 ; 1.4688419181873193E9 ; 0.0
14 ; 418008.4117301412 ; 1.3551670531656438E8 ; 3005314.8532605562 ; 1.6001908907521677E9 ; 0.0
15 ; 421984.7164107513 ; 1.3999336929472923E8 ; 3423323.2649906976 ; 1.735707596068732E9 ; 0.0
16 ; 424350.17442784196 ; 1.4477895384506246E8 ; 3845307.981401449 ; 1.8757009653634613E9 ; 0.0
17 ; 428656.7964017962 ; 1.498734467977911E8 ; 4269658.155829291 ; 2.0204799192085238E9 ; 0.0
18 ; 432613.2015121224 ; 1.552768348612153E8 ; 4698314.952231087 ; 2.1703533660063148E9 ; 0.0
19 ; 435358.42524245917 ; 1.6098910400442144E8 ; 5130928.153743209 ; 2.32563020086753E9 ; 0.0
20 ; 438977.7946628463 ; 1.6701023980948952E8 ; 5566286.578985669 ; 2.486619304871951E9 ; 0.0
21 ; 441836.7457644236 ; 1.7334022777991655E8 ; 6005264.373648515 ; 2.653629544681441E9 ; 0.0
22 ; 446105.8618640385 ; 1.7997905359819114E8 ; 6447101.119412938 ; 2.8269697724613576E9 ; 0.0
23 ; 448895.984703083 ; 1.8692670333074516E8 ; 6893206.981276977 ; 3.006948826059549E9 ; 0.0
24 ; 453213.2995687019 ; 1.9418316358251542E8 ; 7342102.9659800595 ; 3.193875529390294E9 ; 0.0
25 ; 456796.9294890966 ; 2.0043646250418136E8 ; 7795316.265548761 ; 3.3880586929728093E9 ; 0.0
26 ; 459932.2562598715 ; 2.0044013589894098E8 ; 8252113.195037858 ; 3.5884951554769907E9 ; 0.0
27 ; 463698.5331166992 ; 2.004439417849518E8 ; 8712045.451297728 ; 3.7889352913759317E9 ; 0.0
28 ; 466195.6473148169 ; 2.004478696539582E8 ; 9175743.984414428 ; 3.9893792331608834E9 ; 0.0
29 ; 470403.9132951702 ; 2.004519097567784E8 ; 9641939.631729245 ; 4.1898271028148417E9 ; 0.0
30 ; 473565.50167502183 ; 2.0045605308119476E8 ; 1.0112343545024415E7 ; 4.39027901257162E9 ; 0.0
31 ; 477137.7128248757 ; 2.004602913198769E8 ; 1.0585909046699438E7 ; 4.590735065652815E9 ; 0.0
32 ; 480405.79814712453 ; 2.0046461683186784E8 ; 1.1063046759524314E7 ; 4.791195356972692E9 ; 0.0
33 ; 483604.29967061104 ; 2.0046902260039163E8 ; 1.1543452557671439E7 ; 4.99165997380456E9 ; 0.0
34 ; 486469.8938417577 ; 2.004735021890733E8 ; 1.202705685734205E7 ; 5.192128996404951E9 ; 0.0
35 ; 489449.9930786142 ; 2.004780496981076E8 ; 1.2513526751183808E7 ; 5.392602498594025E9 ; 0.0
36 ; 492146.5652106157 ; 2.0048265972146595E8 ; 1.3002976744262422E7 ; 5.593080548292132E9 ; 0.0
37 ; 494822.4060243136 ; 2.004873273058793E8 ; 1.3495123309473038E7 ; 5.793563208013598E9 ; 0.0
38 ; 499174.0373605771 ; 2.00492047912065E8 ; 1.3989945715497352E7 ; 5.994050535319478E9 ; 0.0
39 ; 501959.0634920777 ; 2.0049681737846315E8 ; 1.448911975285793E7 ; 6.194542583231543E9 ; 0.0
40 ; 503429.317423981 ; 2.0050163188759884E8 ; 1.4991078816350007E7 ; 6.395039400610005E9 ; 0.0
41 ; 506941.2014243152 ; 2.005064879350819E8 ; 1.5494508133773988E7 ; 6.595541032497604E9 ; 0.0
42 ; 508519.56483572634 ; 2.005113823011814E8 ; 1.6001449335198304E7 ; 6.796047520432686E9 ; 0.0
43 ; 510398.85146221664 ; 2.005163120248648E8 ; 1.650996890003403E7 ; 6.996558902733868E9 ; 0.0
44 ; 513755.3157063441 ; 2.0052127438016075E8 ; 1.7020367751496248E7 ; 7.197075214758733E9 ; 0.0
45 ; 515498.3839955478 ; 2.0052626685468924E8 ; 1.753412306720259E7 ; 7.397596489138893E9 ; 0.0
46 ; 517515.7915319124 ; 2.0053128713019514E8 ; 1.804962145119814E7 ; 7.598122755993583E9 ; 0.0
47 ; 519889.3851883583 ; 2.005363330649218E8 ; 1.856713724273005E7 ; 7.798654043123777E9 ; 0.0
48 ; 522166.26965326 ; 2.005414026776654E8 ; 1.908702662791841E7 ; 7.999190376188699E9 ; 0.0
49 ; 522909.9526929645 ; 2.0054649413335866E8 ; 1.960919289757167E7 ; 8.1997317788663645E9 ; 0.0
50 ; 523946.6806072749 ; 2.0055160573004156E8 ; 2.0132102850264635E7 ; 8.400278272999723E9 ; 0.0
51 ; 525701.6655947564 ; 2.005567358870869E8 ; 2.065604953087191E7 ; 8.600829878729765E9 ; 0.0
52 ; 528296.4019277829 ; 2.005618831345587E8 ; 2.1181751196466666E7 ; 8.801386614616852E9 ; 0.0
53 ; 529273.0908511968 ; 2.005670461035926E8 ; 2.171004759839445E7 ; 9.001948497751411E9 ; 0.0
54 ; 530302.5896240306 ; 2.005722235176963E8 ; 2.2239320689245645E7 ; 9.202515543855003E9 ; 0.0
55 ; 532793.39182056 ; 2.0057741418487862E8 ; 2.2769623278869677E7 ; 9.4030877673727E9 ; 0.0
56 ; 532613.7521533584 ; 2.0058261699052393E8 ; 2.330241667069024E7 ; 9.603665181557579E9 ; 0.0
57 ; 535386.2428447672 ; 2.0058783089093718E8 ; 2.3835030422843598E7 ; 9.804247798548103E9 ; 0.0
58 ; 535857.8172319037 ; 2.0059305490749207E8 ; 2.4370416665688366E7 ; 1.0004835629439041E10 ; 0.0
59 ; 536937.9207846447 ; 2.0059828812132242E8 ; 2.490627448292027E7 ; 1.0205428684346533E10 ; 0.0
60 ; 539548.0302403287 ; 2.0060352966850156E8 ; 2.5443212403704915E7 ; 1.0406026972467855E10 ; 0.0
61 ; 540116.5447630425 ; 2.0060877873566186E8 ; 2.5982760433945242E7 ; 1.0606630502136356E10 ; 0.0
62 ; 541890.1151504174 ; 2.0061403455601048E8 ; 2.6522876978708286E7 ; 1.0807239280872019E10 ; 0.0
63 ; 543424.3569135685 ; 2.0061929640570202E8 ; 2.7064767093858704E7 ; 1.100785331542803E10 ; 0.0
64 ; 545582.8270680839 ; 2.0062456360053366E8 ; 2.760819145077227E7 ; 1.1208472611833733E10 ; 0.0
65 ; 546289.038509238 ; 2.0062983549293053E8 ; 2.8153774277840354E7 ; 1.1409097175434267E10 ; 0.0
66 ; 546695.0075286068 ; 2.0063511146919408E8 ; 2.8700063316349592E7 ; 1.1609727010927198E10 ; 0.0
67 ; 548210.4339283576 ; 2.006403909469875E8 ; 2.92467583238782E7 ; 1.1810362122396393E10 ; 0.0
68 ; 549734.8936819441 ; 2.00645673373036E8 ; 2.979496875780656E7 ; 1.201100251334338E10 ; 0.0
69 ; 550380.073770052 ; 2.0065095822102132E8 ; 3.03447036514885E7 ; 1.2211648186716415E10 ; 0.0
70 ; 551417.7953387981 ; 2.0065624498965278E8 ; 3.0895083725258555E7 ; 1.2412299144937437E10 ; 0.0
71 ; 552568.4949614403 ; 2.0066153320089754E8 ; 3.1446501520597354E7 ; 1.261295538992709E10 ; 0.0
72 ; 553331.2654870359 ; 2.0066682239835647E8 ; 3.1999070015558794E7 ; 1.2813616923127987E10 ; 0.0
73 ; 554990.880851187 ; 2.0067211214577135E8 ; 3.255240128104583E7 ; 1.3014283745526344E10 ; 0.0
74 ; 556441.7944415954 ; 2.0067740202565226E8 ; 3.310739216189702E7 ; 1.3214955857672115E10 ; 0.0
75 ; 556904.4701651222 ; 2.0068269163801378E8 ; 3.3663833956338614E7 ; 1.3415633259697767E10 ; 0.0
76 ; 557561.879761392 ; 2.0068798059921083E8 ; 3.422073842650373E7 ; 1.3616315951335781E10 ; 0.0
77 ; 559257.6229505461 ; 2.0069326854086483E8 ; 3.477830030626512E7 ; 1.3817003931934992E10 ; 0.0
78 ; 558264.5647254197 ; 2.0069855510887292E8 ; 3.533755792921567E7 ; 1.4017697200475857E10 ; 0.0
79 ; 559136.8659339233 ; 2.0070383996249244E8 ; 3.589582249394109E7 ; 1.421839575558473E10 ; 0.0
80 ; 559291.5245104337 ; 2.0070912277349463E8 ; 3.6454959359875016E7 ; 1.4419099595547222E10 ; 0.0
81 ; 560526.0277552857 ; 2.0071440322538152E8 ; 3.701425088438545E7 ; 1.4619808718320717E10 ; 0.0
82 ; 561244.0202096303 ; 2.0071968101266083E8 ; 3.7574776912140734E7 ; 1.4820523121546099E10 ; 0.0
83 ; 559655.9790148431 ; 2.0072495584017372E8 ; 3.813602093235037E7 ; 1.502124280255876E10 ; 0.0
84 ; 560505.3812301448 ; 2.007302274224714E8 ; 3.869567691136521E7 ; 1.5221967758398933E10 ; 0.0
85 ; 560609.3371157823 ; 2.0073549548323655E8 ; 3.925618229259536E7 ; 1.5422697985821405E10 ; 0.0
86 ; 561027.144369297 ; 2.007407597547456E8 ; 3.9816791629711136E7 ; 1.5623433481304642E10 ; 0.0
87 ; 559725.933768837 ; 2.0074601997736895E8 ; 4.037781877408043E7 ; 1.5824174241059387E10 ; 0.0
88 ; 560421.0325026172 ; 2.007512758991061E8 ; 4.093754470784927E7 ; 1.6024920261036757E10 ; 0.0
89 ; 560916.2563105294 ; 2.0075652727515265E8 ; 4.1497965740351886E7 ; 1.6225671536935863E10 ; 0.0
90 ; 560024.6554979141 ; 2.0076177386749697E8 ; 4.2058881996662416E7 ; 1.6426428064211016E10 ; 0.0
91 ; 561408.8633070977 ; 2.0076701544454417E8 ; 4.261890665216033E7 ; 1.6627189838078512E10 ; 0.0
92 ; 562539.1696918905 ; 2.007722517807651E8 ; 4.318031551546743E7 ; 1.6827956853523056E10 ; 0.0
93 ; 560803.4761428388 ; 2.0077748265636894E8 ; 4.374285468515932E7 ; 1.7028729105303822E10 ; 0.0
94 ; 561179.673295162 ; 2.0078270785699713E8 ; 4.430365816130216E7 ; 1.722950658796019E10 ; 0.0
95 ; 560968.3801645396 ; 2.0078792717343715E8 ; 4.486483783459732E7 ; 1.743028929581719E10 ; 0.0
96 ; 560164.1711086467 ; 2.0079314040135494E8 ; 4.542580621476186E7 ; 1.7631077222990627E10 ; 0.0
97 ; 560723.9295683524 ; 2.0079834734104437E8 ; 4.598597038587051E7 ; 1.7831870363391983E10 ; 0.0
98 ; 561269.541995645 ; 2.008035477971927E8 ; 4.654669431543886E7 ; 1.803266871073303E10 ; 0.0
99 ; 560298.3846647966 ; 2.0080874157866043E8 ; 4.7107963857434504E7 ; 1.823347225853022E10 ; 0.0
100 ; 562031.5226022243 ; 2.0081392849827534E8 ; 4.76682622420993E7 ; 1.843428100010888E10 ; 0.0
101 ; 560923.0503321987 ; 2.0081910837263888E8 ; 4.823029376470152E7 ; 1.8635094928607155E10 ; 0.0
102 ; 560746.4134616884 ; 2.0082428102194443E8 ; 4.879121681503372E7 ; 1.8835914036979794E10 ; 0.0
103 ; 559950.0620651988 ; 2.008294462698069E8 ; 4.9351963228495404E7 ; 1.903673831800174E10 ; 0.0
104 ; 560404.0276781443 ; 2.0083460394310212E8 ; 4.99119132905606E7 ; 1.9237567764271545E10 ; 0.0
105 ; 561558.9016935623 ; 2.008397538718162E8 ; 5.047231731823875E7 ; 1.943840236821465E10 ; 0.0
106 ; 559684.0567329348 ; 2.0084489588890353E8 ; 5.103387621993231E7 ; 1.9639242122086464E10 ; 0.0
107 ; 559475.832903849 ; 2.008500298301533E8 ; 5.159356027666525E7 ; 1.984008701797537E10 ; 0.0
108 ; 558829.9835925819 ; 2.0085515553406364E8 ; 5.2153036109569095E7 ; 2.0040937047805523E10 ; 0.0
109 ; 558246.6909216483 ; 2.0086027284172317E8 ; 5.271186609316168E7 ; 2.024179220333959E10 ; 0.0
110 ; 557658.3662658152 ; 2.0086538159669924E8 ; 5.327011278408333E7 ; 2.0442652476181313E10 ; 0.0
111 ; 557770.6218835757 ; 2.008704816449324E8 ; 5.382777115034915E7 ; 2.064351785777801E10 ; 0.0
112 ; 556686.5476192875 ; 2.0087557283463717E8 ; 5.4385541772232726E7 ; 2.0844388339422943E10 ; 0.0
113 ; 557305.8407947656 ; 2.0088065501620793E8 ; 5.494222831985202E7 ; 2.104526391225758E10 ; 0.0
114 ; 557278.7675742315 ; 2.008857280421305E8 ; 5.549953416064678E7 ; 2.124614456727379E10 ; 0.0
115 ; 556103.4991303505 ; 2.008907917668981E8 ; 5.605681292822101E7 ; 2.1447030295315918E10 ; 0.0
116 ; 557222.8878938654 ; 2.0089584604693234E8 ; 5.661291642735136E7 ; 2.1647921087082817E10 ; 0.0
117 ; 555924.8703630441 ; 2.009008907405082E8 ; 5.7170139315245226E7 ; 2.184881693312975E10 ; 0.0
118 ; 555476.2260284206 ; 2.0090592570768332E8 ; 5.772606418560827E7 ; 2.204971782387026E10 ; 0.0
119 ; 555094.2757979048 ; 2.009109508102308E8 ; 5.828154041163669E7 ; 2.225062374957794E10 ; 0.0
120 ; 554791.5966879978 ; 2.009159659115757E8 ; 5.883663468743459E7 ; 2.2451534700388172E10 ; 0.0
121 ; 553854.3394865791 ; 2.0092097087673512E8 ; 5.9391426284122586E7 ; 2.2652450666299747E10 ; 0.0
122 ; 552200.028446386 ; 2.0092596557226098E8 ; 5.994528062360916E7 ; 2.2853371637176483E10 ; 0.0
123 ; 553086.5518310928 ; 2.009309498661861E8 ; 6.049748065205555E7 ; 2.3054297602748745E10 ; 0.0
124 ; 553110.052799022 ; 2.009359236279731E8 ; 6.105056720388664E7 ; 2.325522855261493E10 ; 0.0
125 ; 551221.5708518972 ; 2.0094088672846562E8 ; 6.160367725668567E7 ; 2.34561644762429E10 ; 0.0
126 ; 551039.164274092 ; 2.0094583903984246E8 ; 6.215489882753757E7 ; 2.3657105362971367E10 ; 0.0
127 ; 549969.6559673102 ; 2.0095078043557364E8 ; 6.2705937991811655E7 ; 2.3858051202011208E10 ; 0.0
128 ; 549966.1767950518 ; 2.0095571079037905E8 ; 6.3255907647778966E7 ; 2.405900198244678E10 ; 0.0
129 ; 549542.56859452 ; 2.0096062998018897E8 ; 6.3805873824574016E7 ; 2.425995769323716E10 ; 0.0
130 ; 548341.9551252687 ; 2.0096553788210645E8 ; 6.435541639316854E7 ; 2.446091832321735E10 ; 0.0
131 ; 546834.3160736585 ; 2.0097043437437198E8 ; 6.490375834829381E7 ; 2.4661883861099457E10 ; 0.0
132 ; 544953.2495163619 ; 2.009753193363294E8 ; 6.545059266436747E7 ; 2.4862854295473827E10 ; 0.0
133 ; 544898.1517402282 ; 2.0098019264839387E8 ; 6.599554591388383E7 ; 2.5063829614810158E10 ; 0.0
134 ; 542912.0729302089 ; 2.0098505419202125E8 ; 6.654044406562406E7 ; 2.5264809807458553E10 ; 0.0
135 ; 541825.391015946 ; 2.009899038496789E8 ; 6.708335613855427E7 ; 2.5465794861650574E10 ; 0.0
136 ; 539549.7863370031 ; 2.009947415048181E8 ; 6.76251815295702E7 ; 2.566678476550025E10 ; 0.0
137 ; 538253.8376319843 ; 2.009995670418477E8 ; 6.816473131590721E7 ; 2.586777950700507E10 ; 0.0
138 ; 535939.7421995745 ; 2.0100438034610882E8 ; 6.87029851535392E7 ; 2.6068779074046917E10 ; 0.0
139 ; 535433.950425419 ; 2.0100918130385125E8 ; 6.923892489573877E7 ; 2.6269783454393024E10 ; 0.0
140 ; 533935.4170492099 ; 2.010139698022104E8 ; 6.977435884616418E7 ; 2.6470792635696877E10 ; 0.0
141 ; 531724.2590413155 ; 2.0101874572918588E8 ; 7.03082942632134E7 ; 2.667180660549909E10 ; 0.0
142 ; 529568.3009725192 ; 2.0102350897362062E8 ; 7.08400185222547E7 ; 2.6872825351228275E10 ; 0.0
143 ; 529206.0433416445 ; 2.010282594251814E8 ; 7.136958682322723E7 ; 2.7073848860201897E10 ; 0.0
144 ; 526669.6947069506 ; 2.010329969743399E8 ; 7.189879286656888E7 ; 2.727487711962708E10 ; 0.0
145 ; 525729.9908475213 ; 2.010377215123549E8 ; 7.242546256127582E7 ; 2.7475910116601418E10 ; 0.0
146 ; 525805.1540817656 ; 2.0104243293125528E8 ; 7.295119255212335E7 ; 2.7676947838113773E10 ; 0.0
147 ; 525927.6134041203 ; 2.0104713112382367E8 ; 7.347699770620511E7 ; 2.787799027104503E10 ; 0.0
148 ; 525079.5203154993 ; 2.0105181598358095E8 ; 7.400292531960924E7 ; 2.8079037402168854E10 ; 0.0
149 ; 524269.2547277572 ; 2.0105648740477157E8 ; 7.452800483992474E7 ; 2.8280089218152435E10 ; 0.0
150 ; 523413.3211547356 ; 2.0106114528234926E8 ; 7.505227409465249E7 ; 2.8481145705557205E10 ; 0.0
151 ; 522638.1522894118 ; 2.0106578951196373E8 ; 7.557568741580722E7 ; 2.8682206850839554E10 ; 0.0
152 ; 522415.64915728505 ; 2.0107041998994774E8 ; 7.609832556809662E7 ; 2.8883272640351517E10 ; 0.0
153 ; 520933.94759280956 ; 2.0107503661330485E8 ; 7.662074121725391E7 ; 2.9084343060341465E10 ; 0.0
154 ; 520401.9520514588 ; 2.0107963927969775E8 ; 7.714167516484672E7 ; 2.928541809695477E10 ; 0.0
155 ; 519804.5705620632 ; 2.0108422788743705E8 ; 7.766207711689818E7 ; 2.9486497736234467E10 ; 0.0
156 ; 520243.1804036226 ; 2.0108880233547068E8 ; 7.818188168746024E7 ; 2.9687581964121902E10 ; 0.0
157 ; 519517.03059432073 ; 2.010933625233737E8 ; 7.870212486786386E7 ; 2.9888670766457375E10 ; 0.0
158 ; 519046.3075324209 ; 2.010979083513385E8 ; 7.922164189845818E7 ; 3.0089764128980747E10 ; 0.0
159 ; 518078.38780700264 ; 2.0110243972016573E8 ; 7.97406882059906E7 ; 3.0290862037332085E10 ; 0.0
160 ; 518459.50745128107 ; 2.0110695653125522E8 ; 8.02587665937976E7 ; 3.049196447705225E10 ; 0.0
161 ; 518063.20928842056 ; 2.0111145868659768E8 ; 8.077722610124888E7 ; 3.0693071433583504E10 ; 0.0
162 ; 516660.5767106902 ; 2.0111594608876657E8 ; 8.12952893105373E7 ; 3.08941828922701E10 ; 0.0
163 ; 514545.81828033214 ; 2.011204186409105E8 ; 8.181194988724798E7 ; 3.1095298838358868E10 ; 0.0
164 ; 515028.1240392769 ; 2.0112487624674574E8 ; 8.232649570552832E7 ; 3.129641925699978E10 ; 0.0
165 ; 514195.13969406905 ; 2.0112931881054932E8 ; 8.28415238295676E7 ; 3.1497544133246525E10 ; 0.0
166 ; 513158.78265898064 ; 2.011337462371522E8 ; 8.335571896926166E7 ; 3.1698673452057076E10 ; 0.0
167 ; 512301.55745273957 ; 2.0113815843193308E8 ; 8.386887775192064E7 ; 3.1899807198294228E10 ; 0.0
168 ; 511504.91679393704 ; 2.011425553008121E8 ; 8.438117930937338E7 ; 3.2100945356726162E10 ; 0.0
169 ; 511364.93786737503 ; 2.0114693675024512E8 ; 8.489268422616732E7 ; 3.2302087912026974E10 ; 0.0
170 ; 511646.65310029144 ; 2.0115130268721822E8 ; 8.54040491640347E7 ; 3.2503234848777218E10 ; 0.0
171 ; 510818.4117556475 ; 2.011556530192422E8 ; 8.591569581713499E7 ; 3.2704386151464436E10 ; 0.0
172 ; 510224.9953008253 ; 2.0115998765434778E8 ; 8.642651422889064E7 ; 3.2905541804483677E10 ; 0.0
173 ; 508540.82201491843 ; 2.0116430650108057E8 ; 8.693673922419147E7 ; 3.3106701792138023E10 ; 0.0
174 ; 508888.92493601923 ; 2.0116860946849656E8 ; 8.744528004620638E7 ; 3.3307866098639103E10 ; 0.0
175 ; 507718.14978760254 ; 2.011728964661578E8 ; 8.795416897114241E7 ; 3.35090347081076E10 ; 0.0
176 ; 507929.8566325251 ; 2.0117716740412804E8 ; 8.846188712093002E7 ; 3.3710207604573757E10 ; 0.0
177 ; 507305.8560642198 ; 2.01181422192969E8 ; 8.896981697756255E7 ; 3.3911384771977886E10 ; 0.0
178 ; 508270.4692575964 ; 2.0118566074373627E8 ; 8.947712283362676E7 ; 3.4112566194170856E10 ; 0.0
179 ; 506520.258209716 ; 2.01189882967976E8 ; 8.998539330288436E7 ; 3.4313751854914593E10 ; 0.0
180 ; 505729.99831057654 ; 2.0119408877772126E8 ; 9.049191356109408E7 ; 3.451494173788257E10 ; 0.0
181 ; 505243.852586868 ; 2.0119827808548877E8 ; 9.099764355940466E7 ; 3.4716135826660286E10 ; 0.0
182 ; 504545.0362921237 ; 2.0120245080427596E8 ; 9.150288741199152E7 ; 3.491733410474577E10 ; 0.0
183 ; 505243.6305728041 ; 2.0120660684755775E8 ; 9.200743244828364E7 ; 3.511853655555005E10 ; 0.0
184 ; 504360.61729684676 ; 2.0121074612928396E8 ; 9.251267607885645E7 ; 3.5319743162397606E10 ; 0.0
185 ; 503267.51147672924 ; 2.0121486856387645E8 ; 9.30170366961533E7 ; 3.552095390852689E10 ; 0.0
186 ; 503424.395268082 ; 2.0121897406622675E8 ; 9.352030420763002E7 ; 3.572216877709077E10 ; 0.0
187 ; 503160.3284219421 ; 2.0122306255169344E8 ; 9.40237286028981E7 ; 3.592338775115699E10 ; 0.0
188 ; 502645.2242573633 ; 2.0122713393610007E8 ; 9.452688893132004E7 ; 3.612461081370869E10 ; 0.0
189 ; 502318.095409152 ; 2.0123118813573283E8 ; 9.50295341555774E7 ; 3.632583794764479E10 ; 0.0
190 ; 500931.4093039954 ; 2.0123522506733853E8 ; 9.553185225098656E7 ; 3.6527069135780525E10 ; 0.0
191 ; 501289.2378569727 ; 2.0123924464812267E8 ; 9.603278366029055E7 ; 3.672830436084786E10 ; 0.0
192 ; 500842.8419336377 ; 2.0124324679574767E8 ; 9.653407289814752E7 ; 3.692954360549599E10 ; 0.0
193 ; 500423.0907335197 ; 2.0124723142833093E8 ; 9.703491574008116E7 ; 3.713078685229173E10 ; 0.0
194 ; 498863.5218099546 ; 2.0125119846444333E8 ; 9.753533883081467E7 ; 3.733203408372006E10 ; 0.0
195 ; 499975.61218156345 ; 2.0125514782310766E8 ; 9.803420235262462E7 ; 3.753328528218451E10 ; 0.0
196 ; 498933.9496975446 ; 2.0125907942379707E8 ; 9.853417796480618E7 ; 3.7734540430007614E10 ; 0.0
197 ; 498927.6175078797 ; 2.0126299318643385E8 ; 9.903311191450372E7 ; 3.793579950943141E10 ; 0.0
198 ; 498371.134929476 ; 2.0126688903138795E8 ; 9.95320395320116E7 ; 3.813706250261784E10 ; 0.0
199 ; 497761.8023425559 ; 2.0127076687947583E8 ; 1.0003041066694108E8 ; 3.833832939164923E10 ; 0.0
200 ; 497915.8861596005 ; 2.012746266519594E8 ; 1.0052817246928363E8 ; 3.853960015852871E10 ; 0.0
201 ; 497782.55485382123 ; 2.0127846827054477E8 ; 1.0102608835544322E8 ; 3.874087478518067E10 ; 0.0
