CSV File for the City 6 on Day 5
1 - Minute m 
2 - Power Consumed at minute m 
3 - Power Produced at minute m 
4 - Energy Consumed since the beginning of the day 
5 - Energy Produced since the beginning of the day 
6 - Energy Lost since the beginning of the day on lines starting from the city
 
0 ; 1.1128360844636532E7 ; 1.0560626823553899E8 ; 0.0 ; 0.0 ; 0.0
1 ; 1.1140079630664362E7 ; 1.0575579597311598E8 ; 1.1128360844636532E7 ; 1.0560626823553899E8 ; 0.0
2 ; 1.1153661288021471E7 ; 1.0621442455782983E8 ; 2.2268440475300893E7 ; 2.1136206420865497E8 ; 0.0
3 ; 1.1165977195532052E7 ; 1.069821681385724E8 ; 3.3422101763322365E7 ; 3.175764887664848E8 ; 0.0
4 ; 1.1182163011093326E7 ; 1.0805903979903203E8 ; 4.4588078958854415E7 ; 4.245586569050572E8 ; 0.0
5 ; 1.1201734671828985E7 ; 1.0944505136212653E8 ; 5.577024196994774E7 ; 5.326176967040892E8 ; 0.0
6 ; 1.122928627803672E7 ; 1.1114021320247921E8 ; 6.6971976641776726E7 ; 6.420627480662158E8 ; 0.0
7 ; 1.1262782924076103E7 ; 1.1314453407329822E8 ; 7.820126291981344E7 ; 7.53202961268695E8 ; 0.0
8 ; 1.1316892853205737E7 ; 1.1545802095400536E8 ; 8.946404584388953E7 ; 8.663474953419932E8 ; 0.0
9 ; 1.1396727292521885E7 ; 1.180806789245646E8 ; 1.0078093869709527E8 ; 9.818055162959986E8 ; 0.0
10 ; 1.1521173772732444E7 ; 1.2101251107166404E8 ; 1.1217766598961715E8 ; 1.0998861952205632E9 ; 0.0
11 ; 1.1722226425178109E7 ; 1.2425351843073747E8 ; 1.236988397623496E8 ; 1.2208987062922273E9 ; 0.0
12 ; 1.2033388938469844E7 ; 1.2780369996635106E8 ; 1.3542106618752772E8 ; 1.3451522247229648E9 ; 0.0
13 ; 1.2341632300785914E7 ; 1.3166305259181672E8 ; 1.4745445512599757E8 ; 1.4729559246893158E9 ; 0.0
14 ; 1.2375797607087722E7 ; 1.358315712271706E8 ; 1.597960874267835E8 ; 1.6046189772811325E9 ; 0.0
15 ; 1.2388508095154775E7 ; 1.403092488929907E8 ; 1.7217188503387123E8 ; 1.7404505485083032E9 ; 0.0
16 ; 1.2405305488862235E7 ; 1.4509607683606908E8 ; 1.84560393129026E8 ; 1.8807597974012938E9 ; 0.0
17 ; 1.2418769937023427E7 ; 1.5019204468178228E8 ; 1.9696569861788824E8 ; 2.0258558742373629E9 ; 0.0
18 ; 1.243392981540309E7 ; 1.5559714060721254E8 ; 2.0938446855491167E8 ; 2.176047918919145E9 ; 0.0
19 ; 1.2447572440506052E7 ; 1.6131135152867153E8 ; 2.2181839837031478E8 ; 2.3316450595263577E9 ; 0.0
20 ; 1.246098736174275E7 ; 1.6733466329726735E8 ; 2.3426597081082082E8 ; 2.4929564110550294E9 ; 0.0
21 ; 1.2473114071780005E7 ; 1.7366706089649287E8 ; 2.4672695817256355E8 ; 2.660291074352297E9 ; 0.0
22 ; 1.248991273730233E7 ; 1.803085286364206E8 ; 2.5920007224434355E8 ; 2.83395813524879E9 ; 0.0
23 ; 1.2503338616205558E7 ; 1.872590503398974E8 ; 2.716899849816459E8 ; 3.0142666638852105E9 ; 0.0
24 ; 1.2519567686656037E7 ; 1.9451860951704645E8 ; 2.8419332359785146E8 ; 3.201525714225108E9 ; 0.0
25 ; 1.2531674483772265E7 ; 2.0077523042352054E8 ; 2.967128912845075E8 ; 3.3960443237421546E9 ; 0.0
26 ; 1.2549037650369683E7 ; 2.0078244424120936E8 ; 3.092445657682798E8 ; 3.596819554165675E9 ; 0.0
27 ; 1.2561185736468174E7 ; 2.0079000372971192E8 ; 3.217936034186495E8 ; 3.7976019984068847E9 ; 0.0
28 ; 1.2575004867853014E7 ; 2.007978925821731E8 ; 3.343547891551177E8 ; 3.9983920021365967E9 ; 0.0
29 ; 1.2588957967469815E7 ; 2.0080609481042108E8 ; 3.469297940229707E8 ; 4.19918989471877E9 ; 0.0
30 ; 1.2601227185111433E7 ; 2.008145948204811E8 ; 3.595187519904405E8 ; 4.399995989529191E9 ; 0.0
31 ; 1.2614160898435906E7 ; 2.008233774728379E8 ; 3.721199791755519E8 ; 4.600810584349672E9 ; 0.0
32 ; 1.2626347057287026E7 ; 2.008324281287927E8 ; 3.847341400739878E8 ; 4.80163396182251E9 ; 0.0
33 ; 1.2640503597556096E7 ; 2.0084173268438083E8 ; 3.973604871312748E8 ; 5.002466389951303E9 ; 0.0
34 ; 1.265084725659566E7 ; 2.0085127759335724E8 ; 4.1000099072883093E8 ; 5.203308122635683E9 ; 0.0
35 ; 1.2667753761056162E7 ; 2.0086104988073644E8 ; 4.226518379854266E8 ; 5.40415940022904E9 ; 0.0
36 ; 1.2675453719705274E7 ; 2.0087103714830557E8 ; 4.353195917464828E8 ; 5.6050204501097765E9 ; 0.0
37 ; 1.2686508606092544E7 ; 2.0088122757343325E8 ; 4.479950454661881E8 ; 5.805891487258082E9 ; 0.0
38 ; 1.2697591067452017E7 ; 2.0089160990237907E8 ; 4.6068155407228065E8 ; 6.006772714831515E9 ; 0.0
39 ; 1.270950301307609E7 ; 2.0090217343918276E8 ; 4.7337914513973266E8 ; 6.207664324733894E9 ; 0.0
40 ; 1.2717473354616484E7 ; 2.0091290803108442E8 ; 4.860886481528087E8 ; 6.408566498173077E9 ; 0.0
41 ; 1.2726812152692094E7 ; 2.0092380405130056E8 ; 4.988061215074252E8 ; 6.609479406204161E9 ; 0.0
42 ; 1.2732327197379543E7 ; 2.0093485237986413E8 ; 5.1153293366011727E8 ; 6.810403210255462E9 ; 0.0
43 ; 1.274560896205087E7 ; 2.0094604438312608E8 ; 5.242652608574968E8 ; 7.011338062635325E9 ; 0.0
44 ; 1.2750601944660118E7 ; 2.009573718924179E8 ; 5.370108698195477E8 ; 7.212284107018452E9 ; 0.0
45 ; 1.2759435861670267E7 ; 2.009688271822865E8 ; 5.497614717642077E8 ; 7.41324147891087E9 ; 0.0
46 ; 1.2765831113733158E7 ; 2.0098040294863576E8 ; 5.62520907625878E8 ; 7.614210306093156E9 ; 0.0
47 ; 1.2769360196810817E7 ; 2.0099209228704143E8 ; 5.752867387396111E8 ; 7.815190709041792E9 ; 0.0
48 ; 1.2774469131073456E7 ; 2.0100388867145035E8 ; 5.88056098936422E8 ; 8.016182801328834E9 ; 0.0
49 ; 1.2777334345516006E7 ; 2.010157859334241E8 ; 6.008305680674955E8 ; 8.217186690000284E9 ; 0.0
50 ; 1.2783608595073247E7 ; 2.010277782420491E8 ; 6.136079024130114E8 ; 8.418202475933708E9 ; 0.0
51 ; 1.2787343649229642E7 ; 2.0103986008459872E8 ; 6.263915110080847E8 ; 8.619230254175756E9 ; 0.0
52 ; 1.2789704185167126E7 ; 2.010520262480071E8 ; 6.391788546573143E8 ; 8.820270114260355E9 ; 0.0
53 ; 1.2796721139533425E7 ; 2.0106427180119E8 ; 6.519685588424814E8 ; 9.021322140508362E9 ; 0.0
54 ; 1.2798503084822733E7 ; 2.0107659207823163E8 ; 6.647652799820148E8 ; 9.222386412309551E9 ; 0.0
55 ; 1.280260647385438E7 ; 2.0108898266243953E8 ; 6.775637830668375E8 ; 9.423463004387783E9 ; 0.0
56 ; 1.280212362955424E7 ; 2.0110143937126032E8 ; 6.90366389540692E8 ; 9.624551987050222E9 ; 0.0
57 ; 1.2804384014204824E7 ; 2.011139582420391E8 ; 7.031685131702462E8 ; 9.825653426421482E9 ; 0.0
58 ; 1.2807846486654986E7 ; 2.0112653551859903E8 ; 7.159728971844511E8 ; 1.002676738466352E10 ; 0.0
59 ; 1.2814162425081223E7 ; 2.0113916763861257E8 ; 7.287807436711061E8 ; 1.022789392018212E10 ; 0.0
60 ; 1.281530491685616E7 ; 2.0115185122173345E8 ; 7.415949060961874E8 ; 1.0429033087820732E10 ; 0.0
61 ; 1.2818347112155689E7 ; 2.0116458305845445E8 ; 7.544102110130435E8 ; 1.0630184939042465E10 ; 0.0
62 ; 1.2816915175488772E7 ; 2.0117736009965667E8 ; 7.672285581251992E8 ; 1.083134952210092E10 ; 0.0
63 ; 1.282630756080996E7 ; 2.0119017944681427E8 ; 7.80045473300688E8 ; 1.1032526882200577E10 ; 0.0
64 ; 1.2823955055551356E7 ; 2.0120303834281915E8 ; 7.92871780861498E8 ; 1.123371706164739E10 ; 0.0
65 ; 1.2826743071027229E7 ; 2.0121593416339028E8 ; 8.056957359170494E8 ; 1.143492009999021E10 ; 0.0
66 ; 1.2828763416177554E7 ; 2.01228864409034E8 ; 8.185224789880767E8 ; 1.16361360341536E10 ; 0.0
67 ; 1.2829562863625854E7 ; 2.012418266975213E8 ; 8.313512424042542E8 ; 1.1837364898562635E10 ; 0.0
68 ; 1.2832735103262158E7 ; 2.01254818756851E8 ; 8.441808052678801E8 ; 1.2038606725260157E10 ; 0.0
69 ; 1.2832594547999518E7 ; 2.0126783841866767E8 ; 8.570135403711423E8 ; 1.2239861544017008E10 ; 0.0
70 ; 1.2837398485172847E7 ; 2.0128088361210582E8 ; 8.698461349191418E8 ; 1.2441129382435675E10 ; 0.0
71 ; 1.2834251584928252E7 ; 2.0129395235803238E8 ; 8.826835334043146E8 ; 1.2642410266047781E10 ; 0.0
72 ; 1.283794744065828E7 ; 2.0130704276366153E8 ; 8.955177849892429E8 ; 1.2843704218405813E10 ; 0.0
73 ; 1.2836025486064851E7 ; 2.0132015301751775E8 ; 9.083557324299012E8 ; 1.3045011261169476E10 ; 0.0
74 ; 1.283971340327505E7 ; 2.01333281384723E8 ; 9.21191757915966E8 ; 1.3246331414186993E10 ; 0.0
75 ; 1.2838167780569557E7 ; 2.0134642620258784E8 ; 9.34031471319241E8 ; 1.3447664695571716E10 ; 0.0
76 ; 1.2840503883988034E7 ; 2.0135958587648442E8 ; 9.468696390998106E8 ; 1.3649011121774303E10 ; 0.0
77 ; 1.2843825742263023E7 ; 2.0137275887598395E8 ; 9.597101429837986E8 ; 1.3850370707650787E10 ; 0.0
78 ; 1.2834617454264218E7 ; 2.013859437312398E8 ; 9.725539687260617E8 ; 1.4051743466526772E10 ; 0.0
79 ; 1.2836354489152271E7 ; 2.013991390295999E8 ; 9.853885861803259E8 ; 1.425312941025801E10 ; 0.0
80 ; 1.2829033841831177E7 ; 2.0141234341243342E8 ; 9.982249406694782E8 ; 1.4454528549287611E10 ; 0.0
81 ; 1.2825902150599161E7 ; 2.014255555721565E8 ; 1.0110539745113094E9 ; 1.4655940892700045E10 ; 0.0
82 ; 1.2823038415161407E7 ; 2.014387742494443E8 ; 1.0238798766619085E9 ; 1.4857366448272202E10 ; 0.0
83 ; 1.2821700981727509E7 ; 2.0145199823061636E8 ; 1.0367029150770699E9 ; 1.5058805222521646E10 ; 0.0
84 ; 1.2814882032760484E7 ; 2.0146522634518388E8 ; 1.0495246160587974E9 ; 1.5260257220752262E10 ; 0.0
85 ; 1.2814116464794293E7 ; 2.0147845746354803E8 ; 1.0623394980915579E9 ; 1.5461722447097446E10 ; 0.0
86 ; 1.2811077544832535E7 ; 2.014916904948391E8 ; 1.0751536145563521E9 ; 1.5663200904560995E10 ; 0.0
87 ; 1.2801437504550697E7 ; 2.01504924384887E8 ; 1.0879646921011846E9 ; 1.5864692595055834E10 ; 0.0
88 ; 1.2800010924978662E7 ; 2.01518158114315E8 ; 1.1007661296057353E9 ; 1.6066197519440722E10 ; 0.0
89 ; 1.2798730687559156E7 ; 2.0153139069674754E8 ; 1.113566140530714E9 ; 1.6267715677555037E10 ; 0.0
90 ; 1.2787577078473074E7 ; 2.015446211771255E8 ; 1.1263648712182732E9 ; 1.6469247068251783E10 ; 0.0
91 ; 1.2786081403903088E7 ; 2.0155784863012162E8 ; 1.1391524482967463E9 ; 1.667079168942891E10 ; 0.0
92 ; 1.277738672842967E7 ; 2.01571072158649E8 ; 1.1519385297006493E9 ; 1.687234953805903E10 ; 0.0
93 ; 1.2773396568801986E7 ; 2.0158429089245763E8 ; 1.1647159164290788E9 ; 1.707392061021768E10 ; 0.0
94 ; 1.2767109465433532E7 ; 2.0159750398681226E8 ; 1.1774893129978807E9 ; 1.7275504901110138E10 ; 0.0
95 ; 1.2767300808340024E7 ; 2.0161071062124708E8 ; 1.1902564224633143E9 ; 1.747710240509695E10 ; 0.0
96 ; 1.2760783398639843E7 ; 2.0162390999839187E8 ; 1.2030237232716544E9 ; 1.7678713115718197E10 ; 0.0
97 ; 1.2753649364517853E7 ; 2.016371013428653E8 ; 1.2157845066702943E9 ; 1.7880337025716587E10 ; 0.0
98 ; 1.2746064194663014E7 ; 2.016502839002311E8 ; 1.2285381560348122E9 ; 1.8081974127059452E10 ; 0.0
99 ; 1.2743236519969668E7 ; 2.0166345693601292E8 ; 1.2412842202294753E9 ; 1.8283624410959682E10 ; 0.0
100 ; 1.2733284950635243E7 ; 2.0167661973476458E8 ; 1.254027456749445E9 ; 1.8485287867895695E10 ; 0.0
101 ; 1.2732003158471206E7 ; 2.0168977159919187E8 ; 1.2667607417000802E9 ; 1.868696448763046E10 ; 0.0
102 ; 1.2720773029451327E7 ; 2.0170291184932306E8 ; 1.2794927448585513E9 ; 1.8888654259229652E10 ; 0.0
103 ; 1.2719648717333183E7 ; 2.017160398217248E8 ; 1.2922135178880026E9 ; 1.9090357171078976E10 ; 0.0
104 ; 1.2708997913485192E7 ; 2.0172915486876088E8 ; 1.3049331666053357E9 ; 1.92920732109007E10 ; 0.0
105 ; 1.2706496514622774E7 ; 2.0174225635789114E8 ; 1.317642164518821E9 ; 1.949380236576946E10 ; 0.0
106 ; 1.2699938412884442E7 ; 2.0175534367100808E8 ; 1.3303486610334437E9 ; 1.969554462212735E10 ; 0.0
107 ; 1.2688920472363455E7 ; 2.017684162038089E8 ; 1.3430485994463282E9 ; 1.989729996579836E10 ; 0.0
108 ; 1.2685461344646849E7 ; 2.0178147336520115E8 ; 1.3557375199186916E9 ; 2.0099068382002167E10 ; 0.0
109 ; 1.2679272006243827E7 ; 2.0179451457673922E8 ; 1.3684229812633386E9 ; 2.0300849855367367E10 ; 0.0
110 ; 1.2674171573357323E7 ; 2.018075392720909E8 ; 1.3811022532695825E9 ; 2.0502644369944107E10 ; 0.0
111 ; 1.2664046211910333E7 ; 2.0182054689653146E8 ; 1.3937764248429399E9 ; 2.0704451909216198E10 ; 0.0
112 ; 1.265495714065389E7 ; 2.0183353690646386E8 ; 1.40644047105485E9 ; 2.090627245611273E10 ; 0.0
113 ; 1.2647222996049862E7 ; 2.0184650876896372E8 ; 1.419095428195504E9 ; 2.110810599301919E10 ; 0.0
114 ; 1.2640692001213344E7 ; 2.0185946196134758E8 ; 1.4317426511915538E9 ; 2.1309952501788155E10 ; 0.0
115 ; 1.2633426025685724E7 ; 2.0187239597076282E8 ; 1.4443833431927671E9 ; 2.1511811963749504E10 ; 0.0
116 ; 1.2625498605170656E7 ; 2.018853102937985E8 ; 1.457016769218453E9 ; 2.171368435972027E10 ; 0.0
117 ; 1.2617046017467834E7 ; 2.018982044361157E8 ; 1.4696422678236237E9 ; 2.191556967001407E10 ; 0.0
118 ; 1.2609238522011532E7 ; 2.0191107791209593E8 ; 1.4822593138410914E9 ; 2.2117467874450184E10 ; 0.0
119 ; 1.259954316334026E7 ; 2.019239302445074E8 ; 1.494868552363103E9 ; 2.2319378952362278E10 ; 0.0
120 ; 1.2592866363225197E7 ; 2.0193676096418726E8 ; 1.5074680955264432E9 ; 2.2521302882606785E10 ; 0.0
121 ; 1.2587537249541491E7 ; 2.019495696097397E8 ; 1.5200609618896685E9 ; 2.2723239643570972E10 ; 0.0
122 ; 1.2574663148569066E7 ; 2.0196235572724852E8 ; 1.53264849913921E9 ; 2.2925189213180714E10 ; 0.0
123 ; 1.2565155150401166E7 ; 2.019751188700036E8 ; 1.545223162287779E9 ; 2.3127151568907963E10 ; 0.0
124 ; 1.256105375018239E7 ; 2.0198785859824046E8 ; 1.5577883174381802E9 ; 2.3329126687777966E10 ; 0.0
125 ; 1.255217487016499E7 ; 2.0200057447889242E8 ; 1.5703493711883626E9 ; 2.3531114546376205E10 ; 0.0
126 ; 1.2541093258797273E7 ; 2.020132660853542E8 ; 1.5829015460585275E9 ; 2.37331151208551E10 ; 0.0
127 ; 1.2533063700278537E7 ; 2.0202593299725696E8 ; 1.5954426393173246E9 ; 2.3935128386940453E10 ; 0.0
128 ; 1.2522331741799492E7 ; 2.020385748002536E8 ; 1.6079757030176032E9 ; 2.413715431993771E10 ; 0.0
129 ; 1.2513062522713512E7 ; 2.0205119108581433E8 ; 1.6204980347594028E9 ; 2.4339192894737965E10 ; 0.0
130 ; 1.250513727284419E7 ; 2.0206378145103154E8 ; 1.6330110972821162E9 ; 2.454124408582378E10 ; 0.0
131 ; 1.2489066577093577E7 ; 2.0207634549843362E8 ; 1.6455162345549603E9 ; 2.474330786727481E10 ; 0.0
132 ; 1.247256863066773E7 ; 2.0208888283580744E8 ; 1.6580053011320539E9 ; 2.4945384212773243E10 ; 0.0
133 ; 1.246039173672391E7 ; 2.0210139307602882E8 ; 1.6704778697627215E9 ; 2.514747309560905E10 ; 0.0
134 ; 1.2448693040067518E7 ; 2.0211387583690074E8 ; 1.6829382614994454E9 ; 2.534957448868508E10 ; 0.0
135 ; 1.2434117475788925E7 ; 2.0212633074099872E8 ; 1.6953869545395129E9 ; 2.5551688364521984E10 ; 0.0
136 ; 1.2417460262288041E7 ; 2.0213875741552326E8 ; 1.7078210720153017E9 ; 2.575381469526298E10 ; 0.0
137 ; 1.2406489764907813E7 ; 2.0215115549215877E8 ; 1.7202385322775898E9 ; 2.5955953452678505E10 ; 0.0
138 ; 1.2393338581127772E7 ; 2.0216352460693884E8 ; 1.7326450220424976E9 ; 2.6158104608170662E10 ; 0.0
139 ; 1.2379666564311862E7 ; 2.0217586440011734E8 ; 1.7450383606236255E9 ; 2.63602681327776E10 ; 0.0
140 ; 1.2362766165540481E7 ; 2.0218817451604524E8 ; 1.7574180271879373E9 ; 2.6562443997177715E10 ; 0.0
141 ; 1.2347621073818479E7 ; 2.0220045460305285E8 ; 1.7697807933534777E9 ; 2.676463217169376E10 ; 0.0
142 ; 1.2332098683794519E7 ; 2.0221270431333703E8 ; 1.7821284144272962E9 ; 2.6966832626296814E10 ; 0.0
143 ; 1.2320034558530975E7 ; 2.0222492330285344E8 ; 1.7944605131110907E9 ; 2.716904533061015E10 ; 0.0
144 ; 1.2302251334854592E7 ; 2.0223711123121342E8 ; 1.8067805476696217E9 ; 2.7371270253913002E10 ; 0.0
145 ; 1.2294139020960087E7 ; 2.022492677615851E8 ; 1.8190827990044763E9 ; 2.7573507365144215E10 ; 0.0
146 ; 1.2285032663922438E7 ; 2.0226139256059885E8 ; 1.8313769380254364E9 ; 2.77757566329058E10 ; 0.0
147 ; 1.2275082697211578E7 ; 2.0227348529825696E8 ; 1.843661970689359E9 ; 2.79780180254664E10 ; 0.0
148 ; 1.226017424657853E7 ; 2.0228554564784664E8 ; 1.8559370533865705E9 ; 2.8180291510764656E10 ; 0.0
149 ; 1.2250005644857042E7 ; 2.0229757328585717E8 ; 1.868197227633149E9 ; 2.8382577056412502E10 ; 0.0
150 ; 1.224066450393883E7 ; 2.0230956789190018E8 ; 1.8804472332780058E9 ; 2.858487462969836E10 ; 0.0
151 ; 1.2231262818330444E7 ; 2.0232152914863345E8 ; 1.8926878977819448E9 ; 2.878718419759026E10 ; 0.0
152 ; 1.2217431398915168E7 ; 2.0233345674168786E8 ; 1.9049191606002753E9 ; 2.898950572673889E10 ; 0.0
153 ; 1.2208351705941854E7 ; 2.023453503595972E8 ; 1.9171365919991903E9 ; 2.919183918348058E10 ; 0.0
154 ; 1.2201128740283E7 ; 2.0235720969373107E8 ; 1.9293449437051322E9 ; 2.9394184533840176E10 ; 0.0
155 ; 1.2187582791560823E7 ; 2.0236903443823043E8 ; 1.9415460724454153E9 ; 2.9596541743533905E10 ; 0.0
156 ; 1.2181817052855164E7 ; 2.023808242899458E8 ; 1.9537336552369761E9 ; 2.9798910777972134E10 ; 0.0
157 ; 1.216538638912385E7 ; 2.023925789483781E8 ; 1.9659154722898314E9 ; 3.000129160226208E10 ; 0.0
158 ; 1.215519019689825E7 ; 2.0240429811562154E8 ; 1.9780808586789553E9 ; 3.020368418121046E10 ; 0.0
159 ; 1.2148901815288933E7 ; 2.024159814963093E8 ; 1.9902360488758535E9 ; 3.040608847932608E10 ; 0.0
160 ; 1.213563206326398E7 ; 2.0242762879756102E8 ; 2.0023849506911426E9 ; 3.060850446082239E10 ; 0.0
161 ; 1.2120324666746955E7 ; 2.0243923972893262E8 ; 2.0145205827544065E9 ; 3.0810932089619953E10 ; 0.0
162 ; 1.211477268552128E7 ; 2.0245081400236803E8 ; 2.0266409074211533E9 ; 3.1013371329348885E10 ; 0.0
163 ; 1.2101722091598561E7 ; 2.024623513321528E8 ; 2.0387556801066747E9 ; 3.1215822143351254E10 ; 0.0
164 ; 1.2090760870609015E7 ; 2.0247385143486986E8 ; 2.0508574021982732E9 ; 3.1418284494683407E10 ; 0.0
165 ; 1.2080388985121345E7 ; 2.024853140293564E8 ; 2.0629481630688822E9 ; 3.162075834611828E10 ; 0.0
166 ; 1.2069592118102107E7 ; 2.0249673883666334E8 ; 2.0750285520540035E9 ; 3.1823243660147636E10 ; 0.0
167 ; 1.2057612064699871E7 ; 2.0250812558001557E8 ; 2.0870981441721056E9 ; 3.20257403989843E10 ; 0.0
168 ; 1.2043474928223751E7 ; 2.0251947398477432E8 ; 2.0991557562368054E9 ; 3.2228248524564316E10 ; 0.0
169 ; 1.2038954550692143E7 ; 2.0253078377840066E8 ; 2.1111992311650293E9 ; 3.243076799854909E10 ; 0.0
170 ; 1.2019548188126538E7 ; 2.0254205469042066E8 ; 2.1232381857157214E9 ; 3.263329878232749E10 ; 0.0
171 ; 1.2007994407738108E7 ; 2.0255328645239183E8 ; 2.135257733903848E9 ; 3.2835840837017914E10 ; 0.0
172 ; 1.2003063814104557E7 ; 2.0256447879787084E8 ; 2.1472657283115861E9 ; 3.3038394123470306E10 ; 0.0
173 ; 1.1987880936659116E7 ; 2.0257563146238256E8 ; 2.1592687921256905E9 ; 3.3240958602268177E10 ; 0.0
174 ; 1.1984563308739813E7 ; 2.0258674418339017E8 ; 2.17125667306235E9 ; 3.344353423373056E10 ; 0.0
175 ; 1.1973314608812742E7 ; 2.025978167002667E8 ; 2.1832412363710895E9 ; 3.364612097791395E10 ; 0.0
176 ; 1.1969270630029067E7 ; 2.026088487542674E8 ; 2.1952145509799023E9 ; 3.384871879461422E10 ; 0.0
177 ; 1.1958923417732406E7 ; 2.0261984008850324E8 ; 2.2071838216099315E9 ; 3.405132764336849E10 ; 0.0
178 ; 1.1952203795990055E7 ; 2.0263079044791564E8 ; 2.2191427450276637E9 ; 3.4253947483456993E10 ; 0.0
179 ; 1.1940099185856827E7 ; 2.0264169957925192E8 ; 2.2310949488236537E9 ; 3.445657827390491E10 ; 0.0
180 ; 1.1937253103754807E7 ; 2.026525672310417E8 ; 2.2430350480095105E9 ; 3.465921997348416E10 ; 0.0
181 ; 1.1932142364128817E7 ; 2.0266339315357456E8 ; 2.2549723011132655E9 ; 3.48618725407152E10 ; 0.0
182 ; 1.1927707941410506E7 ; 2.0267417709887806E8 ; 2.266904443477394E9 ; 3.5064535933868774E10 ; 0.0
183 ; 1.1917257415004047E7 ; 2.0268491882069698E8 ; 2.2788321514188046E9 ; 3.526721011096765E10 ; 0.0
184 ; 1.1911487848143801E7 ; 2.0269561807447323E8 ; 2.290749408833809E9 ; 3.5469895029788345E10 ; 0.0
185 ; 1.1905786272945235E7 ; 2.0270627461732647E8 ; 2.3026608966819525E9 ; 3.5672590647862816E10 ; 0.0
186 ; 1.189623934006644E7 ; 2.027168882080356E8 ; 2.314566682954898E9 ; 3.587529692248014E10 ; 0.0
187 ; 1.1889538701251907E7 ; 2.027274586070209E8 ; 2.3264629222949643E9 ; 3.607801381068818E10 ; 0.0
188 ; 1.1883310525340304E7 ; 2.0273798557632688E8 ; 2.3383524609962163E9 ; 3.62807412692952E10 ; 0.0
189 ; 1.1877866968089953E7 ; 2.0274846887960568E8 ; 2.3502357715215564E9 ; 3.648347925487152E10 ; 0.0
190 ; 1.1870318618392974E7 ; 2.0275890828210133E8 ; 2.3621136384896464E9 ; 3.668622772375113E10 ; 0.0
191 ; 1.1860163907655483E7 ; 2.0276930355063435E8 ; 2.3739839571080394E9 ; 3.688898663203323E10 ; 0.0
192 ; 1.1858385354888614E7 ; 2.0277965445358726E8 ; 2.385844121015695E9 ; 3.709175593558387E10 ; 0.0
193 ; 1.184977682422861E7 ; 2.0278996076089025E8 ; 2.3977025063705835E9 ; 3.729453559003746E10 ; 0.0
194 ; 1.1840223052368993E7 ; 2.0280022224400783E8 ; 2.4095522831948123E9 ; 3.749732555079835E10 ; 0.0
195 ; 1.1835150472776297E7 ; 2.0281043867592567E8 ; 2.4213925062471814E9 ; 3.770012577304236E10 ; 0.0
