CSV File for the City 4 on Day 226
1 - Minute m 
2 - Power Consumed at minute m 
3 - Power Produced at minute m 
4 - Energy Consumed since the beginning of the day 
5 - Energy Produced since the beginning of the day 
6 - Energy Lost since the beginning of the day on lines starting from the city
 
0 ; 507968.8920652085 ; 1.0537766837247851E8 ; 0.0 ; 0.0 ; 0.0
1 ; 513931.83869126433 ; 1.0552128423618394E8 ; 507968.8920652085 ; 1.0537766837247851E8 ; 0.0
2 ; 523028.83188102685 ; 1.0597417043780419E8 ; 1021900.7307564728 ; 2.1089895260866246E8 ; 0.0
3 ; 530498.730001651 ; 1.0673642984997022E8 ; 1544929.5626374995 ; 3.1687312304646665E8 ; 0.0
4 ; 542774.5385446791 ; 1.0780817864491665E8 ; 2075428.2926391505 ; 4.2360955289643687E8 ; 0.0
5 ; 554540.8035094715 ; 1.0918954451254046E8 ; 2618202.8311838293 ; 5.314177315413535E8 ; 0.0
6 ; 569401.0056616149 ; 1.108806624987165E8 ; 3172743.634693301 ; 6.40607276053894E8 ; 0.0
7 ; 597124.8376768169 ; 1.128816678408227E8 ; 3742144.6403549155 ; 7.514879385526105E8 ; 0.0
8 ; 629045.3043351347 ; 1.1519268571767533E8 ; 4339269.478031732 ; 8.643696063934332E8 ; 0.0
9 ; 681433.8481307991 ; 1.1781381884883046E8 ; 4968314.782366867 ; 9.795622921111085E8 ; 0.0
10 ; 759303.154555348 ; 1.2074513513182467E8 ; 5649748.630497666 ; 1.097376110959939E9 ; 0.0
11 ; 883256.224805736 ; 1.2398665835500333E8 ; 6409051.785053014 ; 1.2181212460917637E9 ; 0.0
12 ; 1083778.3609106033 ; 1.2753836473002103E8 ; 7292308.00985875 ; 1.342107904446767E9 ; 0.0
13 ; 1277743.2658299936 ; 1.314001863593412E8 ; 8376086.370769354 ; 1.469646269176788E9 ; 0.0
14 ; 1296497.1579278777 ; 1.3557202052340788E8 ; 9653829.636599347 ; 1.6010464555361292E9 ; 0.0
15 ; 1306508.306641726 ; 1.4005374204340464E8 ; 1.0950326794527225E7 ; 1.7366184760595372E9 ; 0.0
16 ; 1316329.7414867184 ; 1.448452156819537E8 ; 1.2256835101168951E7 ; 1.8766722181029418E9 ; 0.0
17 ; 1327547.5995302952 ; 1.499463063931801E8 ; 1.357316484265567E7 ; 2.0215174337848954E9 ; 0.0
18 ; 1337191.3626224108 ; 1.553568864871869E8 ; 1.4900712442185964E7 ; 2.1714637401780753E9 ; 0.0
19 ; 1347506.2097976345 ; 1.610768397917395E8 ; 1.6237903804808374E7 ; 2.326820626665262E9 ; 0.0
20 ; 1356918.6882384329 ; 1.6710606343420687E8 ; 1.758541001460601E7 ; 2.4878974664570017E9 ; 0.0
21 ; 1365568.9251864832 ; 1.7344446800017157E8 ; 1.8942328702844445E7 ; 2.6550035298912086E9 ; 0.0
22 ; 1379119.4211647187 ; 1.800919767291025E8 ; 2.0307897628030926E7 ; 2.8284479978913803E9 ; 0.0
23 ; 1388413.940889959 ; 1.870485242322495E8 ; 2.1687017049195644E7 ; 3.008539974620483E9 ; 0.0
24 ; 1397649.9791114493 ; 1.9431405504838675E8 ; 2.30754309900856E7 ; 3.1955884988527327E9 ; 0.0
25 ; 1409314.750405968 ; 2.0057656311987618E8 ; 2.447308096919705E7 ; 3.389902553901119E9 ; 0.0
26 ; 1417934.1848588989 ; 2.0058955652428037E8 ; 2.5882395719603017E7 ; 3.5904791170209956E9 ; 0.0
27 ; 1427519.7530510528 ; 2.0060277084981263E8 ; 2.7300329904461917E7 ; 3.791068673545276E9 ; 0.0
28 ; 1437578.6116232763 ; 2.0061617745560426E8 ; 2.872784965751297E7 ; 3.9916714443950887E9 ; 0.0
29 ; 1448162.32752622 ; 2.0062975193196878E8 ; 3.0165428269136246E7 ; 4.1922876218506927E9 ; 0.0
30 ; 1458050.1035451808 ; 2.0064347340418398E8 ; 3.1613590596662465E7 ; 4.392917373782661E9 ; 0.0
31 ; 1467949.3509345325 ; 2.0065732395411438E8 ; 3.3071640700207647E7 ; 4.593560847186846E9 ; 0.0
32 ; 1477538.825951319 ; 2.006712881412886E8 ; 3.453959005114218E7 ; 4.79421817114096E9 ; 0.0
33 ; 1484233.9346686353 ; 2.006853526068277E8 ; 3.6017128877093494E7 ; 4.9948894592822485E9 ; 0.0
34 ; 1496314.634515281 ; 2.0069950574583566E8 ; 3.750136281176213E7 ; 5.195574811889076E9 ; 0.0
35 ; 1502489.2025132987 ; 2.0071373743609783E8 ; 3.899767744627741E7 ; 5.396274317634912E9 ; 0.0
36 ; 1510792.64211718 ; 2.0072803881297913E8 ; 4.050016664879071E7 ; 5.59698805507101E9 ; 0.0
37 ; 1521405.4082041294 ; 2.0074240208220142E8 ; 4.201095929090789E7 ; 5.797716093883988E9 ; 0.0
38 ; 1525474.0087791188 ; 2.007568203636914E8 ; 4.353236469911202E7 ; 5.998458495966189E9 ; 0.0
39 ; 1536136.4731552796 ; 2.0077128756094775E8 ; 4.505783870789114E7 ; 6.199215316329881E9 ; 0.0
40 ; 1545604.155829245 ; 2.0078579825140876E8 ; 4.659397518104642E7 ; 6.399986603890828E9 ; 0.0
41 ; 1550145.690495791 ; 2.008003475941415E8 ; 4.813957933687566E7 ; 6.600772402142237E9 ; 0.0
42 ; 1558754.7018097274 ; 2.0081493125185764E8 ; 4.968972502737145E7 ; 6.801572749736379E9 ; 0.0
43 ; 1565569.4051858746 ; 2.008295453248123E8 ; 5.124847972918118E7 ; 7.002387680988236E9 ; 0.0
44 ; 1571084.905519121 ; 2.0084418629458925E8 ; 5.281404913436705E7 ; 7.203217226313048E9 ; 0.0
45 ; 1577074.1819001003 ; 2.0085885097613725E8 ; 5.438513403988617E7 ; 7.404061412607637E9 ; 0.0
46 ; 1584655.0002135434 ; 2.0087353647671396E8 ; 5.596220822178627E7 ; 7.604920263583775E9 ; 0.0
47 ; 1586223.7516853446 ; 2.0088824016063184E8 ; 5.754686322199981E7 ; 7.805793800060489E9 ; 0.0
48 ; 1592210.6482927043 ; 2.009029596188926E8 ; 5.913308697368515E7 ; 8.006682040221121E9 ; 0.0
49 ; 1599807.0936479988 ; 2.0091769264295304E8 ; 6.072529762197786E7 ; 8.2075849998400135E9 ; 0.0
50 ; 1600053.231119209 ; 2.0093243720199424E8 ; 6.232510471562586E7 ; 8.408502692482966E9 ; 0.0
51 ; 1609057.6119104808 ; 2.0094719142316946E8 ; 6.392515794674507E7 ; 8.609435129684961E9 ; 0.0
52 ; 1612483.5933179616 ; 2.0096195357439363E8 ; 6.5534215558655545E7 ; 8.810382321108131E9 ; 0.0
53 ; 1614342.9090059195 ; 2.0097672204930627E8 ; 6.71466991519735E7 ; 9.011344274682526E9 ; 0.0
54 ; 1621240.6025692853 ; 2.009914953540996E8 ; 6.876104206097943E7 ; 9.212320996731833E9 ; 0.0
55 ; 1624646.598885908 ; 2.0100627209595126E8 ; 7.038228266354871E7 ; 9.413312492085932E9 ; 0.0
56 ; 1626585.0929181576 ; 2.0102105097284117E8 ; 7.200692926243462E7 ; 9.614318764181883E9 ; 0.0
57 ; 1632863.7452221422 ; 2.0103583076456574E8 ; 7.363351435535277E7 ; 9.815339815154724E9 ; 0.0
58 ; 1636890.056784001 ; 2.0105061032479018E8 ; 7.526637810057491E7 ; 1.001637564591929E10 ; 0.0
59 ; 1638921.9270677273 ; 2.0106538857400388E8 ; 7.690326815735891E7 ; 1.0217426256244081E10 ; 0.0
60 ; 1643679.205285322 ; 2.0108016449326193E8 ; 7.854219008442664E7 ; 1.0418491644818085E10 ; 0.0
61 ; 1645870.1898726346 ; 2.0109493711861452E8 ; 8.018586928971197E7 ; 1.0619571809311346E10 ; 0.0
62 ; 1651078.6830909902 ; 2.011097055361373E8 ; 8.18317394795846E7 ; 1.082066674642996E10 ; 0.0
63 ; 1654231.2908871935 ; 2.0112446887749055E8 ; 8.348281816267559E7 ; 1.1021776451966097E10 ; 0.0
64 ; 1658934.86744354 ; 2.011392263159421E8 ; 8.513704945356278E7 ; 1.1222900920843588E10 ; 0.0
65 ; 1661534.5713200248 ; 2.0115397706279993E8 ; 8.679598432100633E7 ; 1.142404014715953E10 ; 0.0
66 ; 1665127.237100556 ; 2.0116872036420605E8 ; 8.845751889232635E7 ; 1.162519412422233E10 ; 0.0
67 ; 1668671.5311798055 ; 2.011834554982502E8 ; 9.012264612942691E7 ; 1.1826362844586536E10 ; 0.0
68 ; 1668862.4069594787 ; 2.0119818177236727E8 ; 9.179131766060671E7 ; 1.2027546300084787E10 ; 0.0
69 ; 1672981.3925150628 ; 2.0121289852098647E8 ; 9.346018006756619E7 ; 1.2228744481857155E10 ; 0.0
70 ; 1679081.7078359767 ; 2.012276051034048E8 ; 9.513316146008125E7 ; 1.2429957380378141E10 ; 0.0
71 ; 1681716.9497205596 ; 2.0124230090186012E8 ; 9.681224316791722E7 ; 1.2631184985481546E10 ; 0.0
72 ; 1683556.2990635382 ; 2.0125698531978312E8 ; 9.849396011763778E7 ; 1.2832427286383406E10 ; 0.0
73 ; 1687853.7578062313 ; 2.012716577802086E8 ; 1.0017751641670132E8 ; 1.3033684271703188E10 ; 0.0
74 ; 1693891.8646937897 ; 2.0128631772432977E8 ; 1.0186537017450754E8 ; 1.3234955929483397E10 ; 0.0
75 ; 1694606.6776834782 ; 2.0130096461018142E8 ; 1.0355926203920133E8 ; 1.3436242247207726E10 ; 0.0
76 ; 1697158.32756047 ; 2.0131559791143787E8 ; 1.052538687168848E8 ; 1.3637543211817907E10 ; 0.0
77 ; 1702504.9006837255 ; 2.0133021711631528E8 ; 1.0695102704444528E8 ; 1.3838858809729345E10 ; 0.0
78 ; 1699582.631013383 ; 2.0134482172656736E8 ; 1.08653531945129E8 ; 1.4040189026845661E10 ; 0.0
79 ; 1698165.0141998 ; 2.0135941125656587E8 ; 1.1035311457614239E8 ; 1.424153384857223E10 ; 0.0
80 ; 1704692.2561317666 ; 2.0137398523245734E8 ; 1.1205127959034218E8 ; 1.4442893259828794E10 ; 0.0
81 ; 1702246.8251302273 ; 2.0138854319138914E8 ; 1.1375597184647395E8 ; 1.4644267245061253E10 ; 0.0
82 ; 1706197.9569434403 ; 2.0140308468079832E8 ; 1.1545821867160417E8 ; 1.4845655788252642E10 ; 0.0
83 ; 1705664.7288834476 ; 2.014176092577573E8 ; 1.1716441662854761E8 ; 1.504705887293344E10 ; 0.0
84 ; 1700004.0842128138 ; 2.0143211648837155E8 ; 1.1887008135743105E8 ; 1.5248476482191196E10 ; 0.0
85 ; 1703288.3335899245 ; 2.0144660594722408E8 ; 1.2057008544164386E8 ; 1.5449908598679567E10 ; 0.0
86 ; 1704282.7924601324 ; 2.0146107721686304E8 ; 1.2227337377523379E8 ; 1.5651355204626791E10 ; 0.0
87 ; 1705745.6663994621 ; 2.014755298873285E8 ; 1.2397765656769392E8 ; 1.5852816281843655E10 ; 0.0
88 ; 1703919.1782353274 ; 2.0148996355571494E8 ; 1.2568340223409338E8 ; 1.6054291811730984E10 ; 0.0
89 ; 1706146.741598171 ; 2.015043778257662E8 ; 1.273873214123287E8 ; 1.62557817752867E10 ; 0.0
90 ; 1704138.1011976982 ; 2.0151877230750084E8 ; 1.2909346815392688E8 ; 1.6457286153112465E10 ; 0.0
91 ; 1703989.7598456042 ; 2.015331466168645E8 ; 1.3079760625512458E8 ; 1.6658804925419966E10 ; 0.0
92 ; 1706827.0483357182 ; 2.015475003754074E8 ; 1.3250159601497018E8 ; 1.686033807203683E10 ; 0.0
93 ; 1702672.7175855772 ; 2.0156183320998523E8 ; 1.342084230633059E8 ; 1.706188557241224E10 ; 0.0
94 ; 1704898.6803966456 ; 2.0157614475248098E8 ; 1.3591109578089148E8 ; 1.7263447405622223E10 ; 0.0
95 ; 1705063.338921601 ; 2.0159043463954636E8 ; 1.3761599446128812E8 ; 1.7465023550374702E10 ; 0.0
96 ; 1704094.8944296257 ; 2.0160470251236117E8 ; 1.3932105780020973E8 ; 1.7666613985014248E10 ; 0.0
97 ; 1704336.9522594747 ; 2.0161894801640922E8 ; 1.4102515269463935E8 ; 1.7868218687526608E10 ; 0.0
98 ; 1702004.7512164752 ; 2.016331708012697E8 ; 1.4272948964689884E8 ; 1.806983763554302E10 ; 0.0
99 ; 1700251.5039771253 ; 2.0164737052042228E8 ; 1.444314943981153E8 ; 1.8271470806344288E10 ; 0.0
100 ; 1701292.6113064997 ; 2.0166154683106562E8 ; 1.4613174590209243E8 ; 1.847311817686471E10 ; 0.0
101 ; 1699866.1394393693 ; 2.0167569939394763E8 ; 1.4783303851339892E8 ; 1.8674779723695778E10 ; 0.0
102 ; 1701816.1016399092 ; 2.0168982787320724E8 ; 1.495329046528383E8 ; 1.8876455423089725E10 ; 0.0
103 ; 1700816.9968634548 ; 2.01703931936226E8 ; 1.512347207544782E8 ; 1.9078145250962933E10 ; 0.0
104 ; 1699156.864648269 ; 2.0171801125348988E8 ; 1.5293553775134164E8 ; 1.927984918289916E10 ; 0.0
105 ; 1698784.5089269578 ; 2.017320654984593E8 ; 1.5463469461598992E8 ; 1.948156719415265E10 ; 0.0
106 ; 1699466.521820299 ; 2.0174609434744802E8 ; 1.5633347912491688E8 ; 1.9683299259651108E10 ; 0.0
107 ; 1699024.758303014 ; 2.0176009747950932E8 ; 1.580329456467372E8 ; 1.9885045353998554E10 ; 0.0
108 ; 1696643.3680287995 ; 2.0177407457632938E8 ; 1.597319704050402E8 ; 2.008680545147806E10 ; 0.0
109 ; 1695955.0768757937 ; 2.0178802532212746E8 ; 1.61428613773069E8 ; 2.028857952605439E10 ; 0.0
110 ; 1694962.483383147 ; 2.0180194940356204E8 ; 1.631245688499448E8 ; 2.049036755137652E10 ; 0.0
111 ; 1693362.6926906838 ; 2.018158465096429E8 ; 1.6481953133332795E8 ; 2.069216950078008E10 ; 0.0
112 ; 1693232.3784778367 ; 2.0182971633164847E8 ; 1.6651289402601862E8 ; 2.0893985347289722E10 ; 0.0
113 ; 1690715.7205280433 ; 2.0184355856304827E8 ; 1.6820612640449646E8 ; 2.1095815063621372E10 ; 0.0
114 ; 1690743.1099135475 ; 2.0185737289942992E8 ; 1.698968421250245E8 ; 2.129765862218442E10 ; 0.0
115 ; 1688263.9461333407 ; 2.0187115903843066E8 ; 1.7158758523493806E8 ; 2.149951599508385E10 ; 0.0
116 ; 1689211.6441660663 ; 2.0188491667967287E8 ; 1.732758491810714E8 ; 2.170138715412228E10 ; 0.0
117 ; 1687821.1075301247 ; 2.018986455247035E8 ; 1.7496506082523745E8 ; 2.1903272070801952E10 ; 0.0
118 ; 1684071.409999995 ; 2.0191234527693695E8 ; 1.7665288193276757E8 ; 2.2105170716326656E10 ; 0.0
119 ; 1683516.5292997079 ; 2.0192601564160135E8 ; 1.7833695334276757E8 ; 2.2307083061603592E10 ; 0.0
120 ; 1681950.3445448086 ; 2.0193965632568818E8 ; 1.8002046987206727E8 ; 2.2509009077245193E10 ; 0.0
121 ; 1681996.732861732 ; 2.0195326703790447E8 ; 1.8170242021661207E8 ; 2.271094873357088E10 ; 0.0
122 ; 1680693.6017815226 ; 2.0196684748862818E8 ; 1.833844169494738E8 ; 2.2912902000608784E10 ; 0.0
123 ; 1677762.7976998338 ; 2.019803973898658E8 ; 1.8506511055125532E8 ; 2.3114868848097412E10 ; 0.0
124 ; 1679310.1229310127 ; 2.019939164552126E8 ; 1.8674287334895515E8 ; 2.3316849245487278E10 ; 0.0
125 ; 1675330.8024784403 ; 2.0200740439981517E8 ; 1.8842218347188616E8 ; 2.351884316194249E10 ; 0.0
126 ; 1670816.0903706697 ; 2.0202086094033608E8 ; 1.900975142743646E8 ; 2.3720850566342304E10 ; 0.0
127 ; 1670914.708341342 ; 2.0203428579492053E8 ; 1.9176833036473525E8 ; 2.392287142728264E10 ; 0.0
128 ; 1667735.9587584313 ; 2.0204767868316492E8 ; 1.9343924507307658E8 ; 2.412490571307756E10 ; 0.0
129 ; 1665832.1053037557 ; 2.0206103932608733E8 ; 1.9510698103183502E8 ; 2.4326953391760727E10 ; 0.0
130 ; 1662828.0733291437 ; 2.020743674460994E8 ; 1.9677281313713878E8 ; 2.4529014431086815E10 ; 0.0
131 ; 1656500.5824822683 ; 2.0208766276698032E8 ; 1.9843564121046793E8 ; 2.4731088798532913E10 ; 0.0
132 ; 1653992.064392336 ; 2.0210092501385164E8 ; 2.000921417929502E8 ; 2.4933176461299892E10 ; 0.0
133 ; 1652549.2014777572 ; 2.021141539131542E8 ; 2.0174613385734254E8 ; 2.5135277386313744E10 ; 0.0
134 ; 1647189.968361822 ; 2.021273491926259E8 ; 2.033986830588203E8 ; 2.53373915402269E10 ; 0.0
135 ; 1643302.589563268 ; 2.0214051058128083E8 ; 2.0504587302718213E8 ; 2.5539518889419525E10 ; 0.0
136 ; 1637061.0284069069 ; 2.021536378093898E8 ; 2.066891756167454E8 ; 2.5741659400000805E10 ; 0.0
137 ; 1633884.4492509628 ; 2.0216673060846186E8 ; 2.0832623664515233E8 ; 2.5943813037810196E10 ; 0.0
138 ; 1628664.4849103298 ; 2.0217978871122682E8 ; 2.099601210944033E8 ; 2.614597976841866E10 ; 0.0
139 ; 1622514.8276727374 ; 2.0219281185161883E8 ; 2.1158878557931364E8 ; 2.6348159557129887E10 ; 0.0
140 ; 1619891.583500115 ; 2.0220579976476106E8 ; 2.132113004069864E8 ; 2.6550352368981506E10 ; 0.0
141 ; 1615599.1204500552 ; 2.0221875218695098E8 ; 2.148311919904865E8 ; 2.675255816874627E10 ; 0.0
142 ; 1610989.7841164726 ; 2.0223166885564682E8 ; 2.1644679111093655E8 ; 2.695477692093322E10 ; 0.0
143 ; 1603645.3491425232 ; 2.022445495094546E8 ; 2.1805778089505303E8 ; 2.7157008589788868E10 ; 0.0
144 ; 1601277.5000741752 ; 2.022573938881161E8 ; 2.1966142624419555E8 ; 2.735925313929832E10 ; 0.0
145 ; 1597738.1421031202 ; 2.0227020173249727E8 ; 2.2126270374426973E8 ; 2.7561510533186436E10 ; 0.0
146 ; 1593849.222478577 ; 2.022829727845779E8 ; 2.2286044188637283E8 ; 2.7763780734918934E10 ; 0.0
147 ; 1592836.713108552 ; 2.0229570678744113E8 ; 2.244542911088514E8 ; 2.796606370770351E10 ; 0.0
148 ; 1589746.8195721495 ; 2.0230840348526442E8 ; 2.2604712782195994E8 ; 2.816835941449095E10 ; 0.0
149 ; 1589171.0377442245 ; 2.0232106262331045E8 ; 2.276368746415321E8 ; 2.8370667817976215E10 ; 0.0
150 ; 1587183.381653105 ; 2.0233368394791898E8 ; 2.2922604567927632E8 ; 2.8572988880599525E10 ; 0.0
151 ; 1584104.6119396198 ; 2.0234626720649904E8 ; 2.3081322906092942E8 ; 2.8775322564547443E10 ; 0.0
152 ; 1581908.5283406943 ; 2.0235881214752167E8 ; 2.3239733367286903E8 ; 2.897766883175394E10 ; 0.0
153 ; 1579522.6781033315 ; 2.023713185205133E8 ; 2.3397924220120972E8 ; 2.9180027643901463E10 ; 0.0
154 ; 1575559.4089573673 ; 2.023837860760492E8 ; 2.3555876487931305E8 ; 2.9382398962421974E10 ; 0.0
155 ; 1575797.5575674903 ; 2.0239621456574783E8 ; 2.371343242882704E8 ; 2.9584782748498024E10 ; 0.0
156 ; 1573984.9643583351 ; 2.0240860374226516E8 ; 2.387101218458379E8 ; 2.978717896306377E10 ; 0.0
157 ; 1570332.8958933777 ; 2.0242095335928982E8 ; 2.4028410681019622E8 ; 2.9989587566806034E10 ; 0.0
158 ; 1568778.5989866015 ; 2.0243326317153823E8 ; 2.418544397060896E8 ; 3.0192008520165325E10 ; 0.0
159 ; 1569567.6221902526 ; 2.024455329347503E8 ; 2.4342321830507618E8 ; 3.0394441783336864E10 ; 0.0
160 ; 1564742.458983178 ; 2.0245776240568534E8 ; 2.4499278592726645E8 ; 3.0596887316271614E10 ; 0.0
161 ; 1562915.6078751655 ; 2.0246995134211856E8 ; 2.4655752838624963E8 ; 3.07993450786773E10 ; 0.0
162 ; 1558146.3331895515 ; 2.0248209950283748E8 ; 2.481204439941248E8 ; 3.1001815030019417E10 ; 0.0
163 ; 1556520.8377195466 ; 2.024942066476389E8 ; 2.4967859032731435E8 ; 3.1204297129522255E10 ; 0.0
164 ; 1556228.0276454736 ; 2.0250627253732607E8 ; 2.512351111650339E8 ; 3.1406791336169895E10 ; 0.0
165 ; 1552833.819091317 ; 2.0251829693370622E8 ; 2.5279133919267938E8 ; 3.1609297608707222E10 ; 0.0
166 ; 1548658.1826815417 ; 2.0253027959958807E8 ; 2.543441730117707E8 ; 3.1811815905640926E10 ; 0.0
167 ; 1548925.8527477523 ; 2.0254222029877988E8 ; 2.5589283119445223E8 ; 3.2014346185240513E10 ; 0.0
168 ; 1547972.3971403062 ; 2.0255411879608762E8 ; 2.5744175704719996E8 ; 3.221688840553929E10 ; 0.0
169 ; 1543409.5887375576 ; 2.0256597485731328E8 ; 2.5898972944434026E8 ; 3.241944252433538E10 ; 0.0
170 ; 1543627.9613005675 ; 2.025777882492535E8 ; 2.605331390330778E8 ; 3.2622008499192696E10 ; 0.0
171 ; 1539222.0536095211 ; 2.025895587396983E8 ; 2.620767669943784E8 ; 3.2824586287441948E10 ; 0.0
172 ; 1536816.6062942382 ; 2.0260128609743005E8 ; 2.636159890479879E8 ; 3.3027175846181644E10 ; 0.0
173 ; 1534735.4563436492 ; 2.026129700922227E8 ; 2.6515280565428215E8 ; 3.3229777132279076E10 ; 0.0
174 ; 1534087.3046311524 ; 2.0262461049484098E8 ; 2.666875411106258E8 ; 3.34323901023713E10 ; 0.0
175 ; 1532073.019216428 ; 2.0263620707704E8 ; 2.6822162841525695E8 ; 3.3635014712866142E10 ; 0.0
176 ; 1527711.793212311 ; 2.026477596115647E8 ; 2.697537014344734E8 ; 3.3837650919943184E10 ; 0.0
177 ; 1528915.3766945063 ; 2.0265926787214985E8 ; 2.712814132276857E8 ; 3.404029867955475E10 ; 0.0
178 ; 1529505.0649595745 ; 2.0267073163351986E8 ; 2.728103286043802E8 ; 3.42429579474269E10 ; 0.0
179 ; 1526531.5725721137 ; 2.0268215067138878E8 ; 2.743398336693398E8 ; 3.444562867906042E10 ; 0.0
180 ; 1525407.9301989663 ; 2.0269352476246062E8 ; 2.758663652419119E8 ; 3.4648310829731804E10 ; 0.0
181 ; 1523721.7842008998 ; 2.0270485368442962E8 ; 2.7739177317211086E8 ; 3.485100435449426E10 ; 0.0
182 ; 1521266.5973171715 ; 2.0271613721598053E8 ; 2.7891549495631176E8 ; 3.5053709208178696E10 ; 0.0
183 ; 1520475.1144147762 ; 2.0272737513678944E8 ; 2.804367615536289E8 ; 3.525642534539468E10 ; 0.0
184 ; 1518654.8384135792 ; 2.0273856722752416E8 ; 2.819572366680437E8 ; 3.545915272053146E10 ; 0.0
185 ; 1518553.3696397683 ; 2.02749713269845E8 ; 2.8347589150645727E8 ; 3.566189128775899E10 ; 0.0
186 ; 1515614.2949489257 ; 2.0276081304640585E8 ; 2.84994444876097E8 ; 3.586464100102883E10 ; 0.0
187 ; 1514938.649877302 ; 2.0277186634085473E8 ; 2.8651005917104596E8 ; 3.606740181407524E10 ; 0.0
188 ; 1510884.153053558 ; 2.027828729378352E8 ; 2.8802499782092327E8 ; 3.62701736804161E10 ; 0.0
189 ; 1512966.005718891 ; 2.0279383262298712E8 ; 2.8953588197397685E8 ; 3.6472956553353935E10 ; 0.0
190 ; 1510831.850536425 ; 2.0280474518294814E8 ; 2.9104884797969574E8 ; 3.667575038597692E10 ; 0.0
191 ; 1507214.701932659 ; 2.0281561040535474E8 ; 2.9255967983023214E8 ; 3.687855513115987E10 ; 0.0
192 ; 1505593.1170799572 ; 2.0282642807884365E8 ; 2.940668945321648E8 ; 3.708137074156522E10 ; 0.0
193 ; 1505414.8121700163 ; 2.0283719799305323E8 ; 2.955724876492448E8 ; 3.7284197169644066E10 ; 0.0
194 ; 1503760.012789834 ; 2.0284791993862498E8 ; 2.970779024614148E8 ; 3.7487034367637115E10 ; 0.0
195 ; 1503805.4351203425 ; 2.0285859370720503E8 ; 2.9858166247420466E8 ; 3.768988228757574E10 ; 0.0
196 ; 1500575.339409973 ; 2.028692190914457E8 ; 3.00085467909325E8 ; 3.789274088128294E10 ; 0.0
197 ; 1497423.1885774445 ; 2.0287979588500726E8 ; 3.0158604324873495E8 ; 3.809561010037439E10 ; 0.0
198 ; 1497013.1348443686 ; 2.0289032388255942E8 ; 3.030834664373124E8 ; 3.82984898962594E10 ; 0.0
199 ; 1497400.2416193476 ; 2.0290080287978333E8 ; 3.045804795721568E8 ; 3.850138022014196E10 ; 0.0
