CSV File for the City 6 on Day 219
1 - Minute m 
2 - Power Consumed at minute m 
3 - Power Produced at minute m 
4 - Energy Consumed since the beginning of the day 
5 - Energy Produced since the beginning of the day 
6 - Energy Lost since the beginning of the day on lines starting from the city
 
0 ; 718277.7164450606 ; 1.0546259914260396E8 ; 0.0 ; 0.0 ; 0.0
1 ; 730455.4602136358 ; 1.056103769138844E8 ; 718277.7164450606 ; 1.0546259914260396E8 ; 0.0
2 ; 744793.9447219969 ; 1.060673583768566E8 ; 1448733.1766586965 ; 2.1107297605648836E8 ; 0.0
3 ; 760084.6312144474 ; 1.0683357957632089E8 ; 2193527.1213806933 ; 3.1714033443334496E8 ; 0.0
4 ; 778926.258320158 ; 1.0790907558956099E8 ; 2953611.7525951406 ; 4.2397391400966585E8 ; 0.0
5 ; 797931.7010116474 ; 1.0929387964582676E8 ; 3732538.0109152985 ; 5.3188298959922683E8 ; 0.0
6 ; 823934.0805237754 ; 1.1098802216955039E8 ; 4530469.7119269455 ; 6.411768692450535E8 ; 0.0
7 ; 864558.4797773105 ; 1.1299152979643315E8 ; 5354403.79245072 ; 7.52164891414604E8 ; 0.0
8 ; 919325.939428782 ; 1.1530442442517728E8 ; 6218962.2722280305 ; 8.651564212110372E8 ; 0.0
9 ; 1001595.5933245906 ; 1.1792672237581158E8 ; 7138288.211656813 ; 9.804608456362145E8 ; 0.0
10 ; 1128978.407653625 ; 1.208584337254166E8 ; 8139883.804981403 ; 1.098387568012026E9 ; 0.0
11 ; 1326516.9361405254 ; 1.2409956188198444E8 ; 9268862.212635027 ; 1.2192460017374427E9 ; 0.0
12 ; 1643868.589138914 ; 1.2765010343752298E8 ; 1.0595379148775553E7 ; 1.3433455636194272E9 ; 0.0
13 ; 1951343.0628950289 ; 1.3151004831495166E8 ; 1.2239247737914467E7 ; 1.47099566705695E9 ; 0.0
14 ; 1987760.3850760413 ; 1.3567938019424176E8 ; 1.4190590800809495E7 ; 1.6025057153719018E9 ; 0.0
15 ; 2002021.588089603 ; 1.4015807717669094E8 ; 1.6178351185885537E7 ; 1.7381850955661435E9 ; 0.0
16 ; 2018979.6189216317 ; 1.4494611262659803E8 ; 1.818037277397514E7 ; 1.8783431727428346E9 ; 0.0
17 ; 2036788.2757081874 ; 1.5004345611953077E8 ; 2.019935239289677E7 ; 2.0232892853694327E9 ; 0.0
18 ; 2051066.081853673 ; 1.554500744262393E8 ; 2.223614066860496E7 ; 2.1733327414889636E9 ; 0.0
19 ; 2073486.346748362 ; 1.6116593246943995E8 ; 2.428720675045863E7 ; 2.328782815915203E9 ; 0.0
20 ; 2085061.0266978014 ; 1.6719099420433232E8 ; 2.6360693097206995E7 ; 2.489948748384643E9 ; 0.0
21 ; 2102466.273618963 ; 1.7352522338965926E8 ; 2.8445754123904794E7 ; 2.6571397425889754E9 ; 0.0
22 ; 2117516.767238565 ; 1.8016858423164195E8 ; 3.0548220397523757E7 ; 2.830664965978635E9 ; 0.0
23 ; 2135890.4505013977 ; 1.871210418963604E8 ; 3.266573716476232E7 ; 3.0108335502102766E9 ; 0.0
24 ; 2151721.700645006 ; 1.9438256289615637E8 ; 3.480162761526372E7 ; 3.197954592106637E9 ; 0.0
25 ; 2170812.685213832 ; 2.006411562604534E8 ; 3.695334931590873E7 ; 3.3923371550027933E9 ; 0.0
26 ; 2184318.803692715 ; 2.0065033974735248E8 ; 3.9124162001122564E7 ; 3.5929783112632465E9 ; 0.0
27 ; 2200640.7178248283 ; 2.0065985446237954E8 ; 4.130848080481528E7 ; 3.793628651010599E9 ; 0.0
28 ; 2217809.2228961354 ; 2.0066967413489553E8 ; 4.350912152264011E7 ; 3.9942885054729786E9 ; 0.0
29 ; 2233906.5882107145 ; 2.0067977439194596E8 ; 4.5726930745536245E7 ; 4.194958179607874E9 ; 0.0
30 ; 2249592.0366196134 ; 2.006901327029869E8 ; 4.796083733374696E7 ; 4.39563795399982E9 ; 0.0
31 ; 2266410.037874767 ; 2.007007282996923E8 ; 5.021042937036657E7 ; 4.596328086702806E9 ; 0.0
32 ; 2282516.9862295627 ; 2.0071154207966965E8 ; 5.247683940824134E7 ; 4.797028815002499E9 ; 0.0
33 ; 2294061.7795308633 ; 2.007225565009791E8 ; 5.47593563944709E7 ; 4.997740357082169E9 ; 0.0
34 ; 2312587.713766568 ; 2.0073375547268325E8 ; 5.705341817400176E7 ; 5.198462913583148E9 ; 0.0
35 ; 2326809.4675746923 ; 2.00745124245269E8 ; 5.936600588776833E7 ; 5.399196669055831E9 ; 0.0
36 ; 2342047.166881827 ; 2.007566493036649E8 ; 6.169281535534302E7 ; 5.5999417933011E9 ; 0.0
37 ; 2354847.025705791 ; 2.0076831826469824E8 ; 6.403486252222485E7 ; 5.800698442604765E9 ; 0.0
38 ; 2367024.2219346385 ; 2.0078011978016254E8 ; 6.638970954793064E7 ; 6.001466760869463E9 ; 0.0
39 ; 2378210.013622968 ; 2.007920434461579E8 ; 6.875673376986527E7 ; 6.202246880649626E9 ; 0.0
40 ; 2393787.6696367026 ; 2.0080407971899712E8 ; 7.113494378348824E7 ; 6.403038924095783E9 ; 0.0
41 ; 2406047.319444727 ; 2.0081621983770475E8 ; 7.352873145312494E7 ; 6.60384300381478E9 ; 0.0
42 ; 2413971.3771401523 ; 2.0082845575295353E8 ; 7.593477877256967E7 ; 6.804659223652485E9 ; 0.0
43 ; 2425311.7023866964 ; 2.00840780062162E8 ; 7.834875014970982E7 ; 7.005487679405438E9 ; 0.0
44 ; 2439271.548482993 ; 2.0085318595040187E8 ; 8.077406185209651E7 ; 7.206328459467601E9 ; 0.0
45 ; 2446533.8110500406 ; 2.0086566713672307E8 ; 8.321333340057951E7 ; 7.407181645418003E9 ; 0.0
46 ; 2458364.307348999 ; 2.0087821782548782E8 ; 8.565986721162955E7 ; 7.608047312554727E9 ; 0.0
47 ; 2466329.8507760502 ; 2.0089083266230452E8 ; 8.811823151897855E7 ; 7.808925530380215E9 ; 0.0
48 ; 2472433.0986786312 ; 2.009035066941635E8 ; 9.05845613697546E7 ; 8.00981636304252E9 ; 0.0
49 ; 2482467.332726004 ; 2.0091623533339664E8 ; 9.305699446843323E7 ; 8.210719869736683E9 ; 0.0
50 ; 2489092.9062632746 ; 2.0092901432510394E8 ; 9.553946180115923E7 ; 8.41163610507008E9 ; 0.0
51 ; 2498020.957956714 ; 2.0094183971771723E8 ; 9.802855470742251E7 ; 8.612565119395184E9 ; 0.0
52 ; 2502105.1062605493 ; 2.0095470783639672E8 ; 1.0052657566537923E8 ; 8.813506959112902E9 ; 0.0
53 ; 2511614.866282966 ; 2.0096761525898147E8 ; 1.0302868077163978E8 ; 9.014461666949299E9 ; 0.0
54 ; 2518418.5072622118 ; 2.0098055879424074E8 ; 1.0554029563792275E8 ; 9.21542928220828E9 ; 0.0
55 ; 2524870.3090736587 ; 2.009935354621966E8 ; 1.0805871414518496E8 ; 9.416409841002522E9 ; 0.0
56 ; 2530642.0867842142 ; 2.0100654247630987E8 ; 1.1058358445425862E8 ; 9.617403376464718E9 ; 0.0
57 ; 2538442.819900482 ; 2.010195772273429E8 ; 1.1311422654104283E8 ; 9.818409918941029E9 ; 0.0
58 ; 2544520.906706053 ; 2.010326372687302E8 ; 1.1565266936094332E8 ; 1.0019429496168371E10 ; 0.0
59 ; 2550560.789831557 ; 2.0104572030330607E8 ; 1.1819719026764937E8 ; 1.0220462133437101E10 ; 0.0
60 ; 2558494.3612295566 ; 2.0105882417125392E8 ; 1.2074775105748093E8 ; 1.0421507853740408E10 ; 0.0
61 ; 2564871.5200114707 ; 2.010719468391547E8 ; 1.2330624541871049E8 ; 1.0622566677911661E10 ; 0.0
62 ; 2569139.2280429476 ; 2.0108508639002618E8 ; 1.2587111693872195E8 ; 1.0823638624750816E10 ; 0.0
63 ; 2577190.101385871 ; 2.0109824101425508E8 ; 1.284402561667649E8 ; 1.1024723711140842E10 ; 0.0
64 ; 2583617.523176487 ; 2.0111140900133413E8 ; 1.3101744626815078E8 ; 1.1225821952155098E10 ; 0.0
65 ; 2586861.733499641 ; 2.0112458873232633E8 ; 1.3360106379132727E8 ; 1.1426933361156431E10 ; 0.0
66 ; 2595496.8000956047 ; 2.0113777867298523E8 ; 1.361879255248269E8 ; 1.1628057949888758E10 ; 0.0
67 ; 2599917.7896572426 ; 2.0115097736746877E8 ; 1.3878342232492253E8 ; 1.1829195728561743E10 ; 0.0
68 ; 2601528.123598346 ; 2.0116418343258998E8 ; 1.4138334011457977E8 ; 1.203034670592921E10 ; 0.0
69 ; 2610574.8214425244 ; 2.0117739555255336E8 ; 1.439848682381781E8 ; 1.2231510889361801E10 ; 0.0
70 ; 2617466.866622513 ; 2.0119061247413197E8 ; 1.4659544305962062E8 ; 1.2432688284914354E10 ; 0.0
71 ; 2621609.7203953345 ; 2.012038330022439E8 ; 1.4921290992624313E8 ; 1.2633878897388487E10 ; 0.0
72 ; 2625507.5458044223 ; 2.0121705599589118E8 ; 1.5183451964663845E8 ; 1.283508273039073E10 ; 0.0
73 ; 2633266.370377275 ; 2.012302803644284E8 ; 1.5446002719244286E8 ; 1.3036299786386621E10 ; 0.0
74 ; 2638937.011679875 ; 2.0124350506413066E8 ; 1.5709329356282014E8 ; 1.3237530066751049E10 ; 0.0
75 ; 2643401.249594943 ; 2.0125672909503448E8 ; 1.5973223057450002E8 ; 1.343877357181518E10 ; 0.0
76 ; 2647748.788981326 ; 2.0126995149802706E8 ; 1.6237563182409498E8 ; 1.3640030300910213E10 ; 0.0
77 ; 2651833.467584898 ; 2.012831713521621E8 ; 1.650233806130763E8 ; 1.3841300252408241E10 ; 0.0
78 ; 2655315.967674633 ; 2.0129638777218232E8 ; 1.676752140806612E8 ; 1.4042583423760403E10 ; 0.0
79 ; 2652541.839897787 ; 2.013095999062311E8 ; 1.7033053004833585E8 ; 1.4243879811532585E10 ; 0.0
80 ; 2658465.779222288 ; 2.0132280693373653E8 ; 1.7298307188823363E8 ; 1.4445189411438816E10 ; 0.0
81 ; 2658274.574962042 ; 2.0133600806345382E8 ; 1.756415376674559E8 ; 1.4646512218372553E10 ; 0.0
82 ; 2659511.266920207 ; 2.013492025316521E8 ; 1.7829981224241796E8 ; 1.4847848226436007E10 ; 0.0
83 ; 2660996.3744995683 ; 2.013623896004343E8 ; 1.8095932350933817E8 ; 1.5049197428967659E10 ; 0.0
84 ; 2659039.361773825 ; 2.0137556855617854E8 ; 1.8362031988383773E8 ; 1.5250559818568092E10 ; 0.0
85 ; 2661806.2050438737 ; 2.013887387080914E8 ; 1.8627935924561155E8 ; 1.5451935387124271E10 ; 0.0
86 ; 2661128.079350812 ; 2.0140189938686398E8 ; 1.8894116545065543E8 ; 1.5653324125832363E10 ; 0.0
87 ; 2663724.8277951786 ; 2.0141504994342235E8 ; 1.9160229353000623E8 ; 1.5854726025219227E10 ; 0.0
88 ; 2662882.600677723 ; 2.0142818974776524E8 ; 1.942660183578014E8 ; 1.605614107516265E10 ; 0.0
89 ; 2661734.0957286344 ; 2.0144131818788165E8 ; 1.9692890095847914E8 ; 1.6257569264910414E10 ; 0.0
90 ; 2662887.502106673 ; 2.0145443466874245E8 ; 1.9959063505420777E8 ; 1.6459010583098295E10 ; 0.0
91 ; 2663111.1330421036 ; 2.0146753861136037E8 ; 2.0225352255631444E8 ; 1.6660465017767038E10 ; 0.0
92 ; 2660185.1338247014 ; 2.014806294519127E8 ; 2.0491663368935654E8 ; 1.6861932556378399E10 ; 0.0
93 ; 2663038.4156007417 ; 2.0149370664092237E8 ; 2.0757681882318124E8 ; 1.706341318583031E10 ; 0.0
94 ; 2663368.8080513747 ; 2.0150676964249286E8 ; 2.10239857238782E8 ; 1.7264906892471233E10 ; 0.0
95 ; 2661991.351493734 ; 2.0151981793359286E8 ; 2.1290322604683337E8 ; 1.7466413662113728E10 ; 0.0
96 ; 2665459.43586097 ; 2.0153285100338733E8 ; 2.155652173983271E8 ; 1.766793348004732E10 ; 0.0
97 ; 2664664.8753212793 ; 2.0154586835261095E8 ; 2.1823067683418807E8 ; 1.786946633105071E10 ; 0.0
98 ; 2662840.233187534 ; 2.015588694929817E8 ; 2.2089534170950934E8 ; 1.807101219940332E10 ; 0.0
99 ; 2664343.5409636768 ; 2.0157185394665107E8 ; 2.2355818194269687E8 ; 1.82725710688963E10 ; 0.0
100 ; 2662101.2706127237 ; 2.0158482124568838E8 ; 2.2622252548366055E8 ; 1.8474142922842953E10 ; 0.0
101 ; 2663029.8380118622 ; 2.0159777093159717E8 ; 2.2888462675427327E8 ; 1.8675727744088642E10 ; 0.0
102 ; 2662299.8559780195 ; 2.016107025548611E8 ; 2.3154765659228513E8 ; 1.887732551502024E10 ; 0.0
103 ; 2660328.07879139 ; 2.0162361567451724E8 ; 2.3420995644826314E8 ; 1.9078936217575104E10 ; 0.0
104 ; 2660729.170621839 ; 2.016365098577553E8 ; 2.3687028452705452E8 ; 1.9280559833249622E10 ; 0.0
105 ; 2656830.3885524333 ; 2.016493846795405E8 ; 2.3953101369767636E8 ; 1.9482196343107376E10 ; 0.0
106 ; 2657219.667407823 ; 2.0166223972225878E8 ; 2.421878440862288E8 ; 1.9683845727786915E10 ; 0.0
107 ; 2656516.7908442034 ; 2.016750745753832E8 ; 2.448450637536366E8 ; 1.9885507967509174E10 ; 0.0
108 ; 2654269.5019021444 ; 2.016878888351591E8 ; 2.475015805444808E8 ; 2.0087183042084557E10 ; 0.0
109 ; 2652147.656272746 ; 2.0170068210430795E8 ; 2.5015585004638293E8 ; 2.0288870930919716E10 ; 0.0
110 ; 2651589.2096282896 ; 2.017134539917481E8 ; 2.5280799770265567E8 ; 2.0490571613024025E10 ; 0.0
111 ; 2649211.519190158 ; 2.01726204112331E8 ; 2.5545958691228396E8 ; 2.0692285067015774E10 ; 0.0
112 ; 2648626.2100689556 ; 2.0173893208659288E8 ; 2.5810879843147412E8 ; 2.0894011271128105E10 ; 0.0
113 ; 2647488.7573307077 ; 2.0175163754051983E8 ; 2.6075742464154306E8 ; 2.10957502032147E10 ; 0.0
114 ; 2647042.6193893766 ; 2.0176432010532624E8 ; 2.6340491339887378E8 ; 2.129750184075522E10 ; 0.0
115 ; 2643961.304514444 ; 2.0177697941724524E8 ; 2.6605195601826316E8 ; 2.1499266160860546E10 ; 0.0
116 ; 2644124.538755724 ; 2.0178961511733082E8 ; 2.686959173227776E8 ; 2.170104314027779E10 ; 0.0
117 ; 2640321.8010130133 ; 2.0180222685127053E8 ; 2.7134004186153334E8 ; 2.1902832755395123E10 ; 0.0
118 ; 2639751.821484971 ; 2.018148142692083E8 ; 2.7398036366254634E8 ; 2.210463498224639E10 ; 0.0
119 ; 2635778.781614596 ; 2.0182737702557695E8 ; 2.766201154840313E8 ; 2.23064497965156E10 ; 0.0
120 ; 2634074.461003972 ; 2.0183991477893928E8 ; 2.792558942656459E8 ; 2.2508277173541176E10 ; 0.0
121 ; 2632913.450877491 ; 2.0185242719183785E8 ; 2.818899687266499E8 ; 2.2710117088320114E10 ; 0.0
122 ; 2629679.9454258825 ; 2.0186491393065247E8 ; 2.8452288217752737E8 ; 2.291196951551195E10 ; 0.0
123 ; 2626704.1586955194 ; 2.0187737466546533E8 ; 2.8715256212295324E8 ; 2.3113834429442604E10 ; 0.0
124 ; 2626573.350437041 ; 2.0188980906993276E8 ; 2.8977926628164876E8 ; 2.331571180410807E10 ; 0.0
125 ; 2621479.9768821807 ; 2.0190221682116407E8 ; 2.924058396320858E8 ; 2.3517601613178E10 ; 0.0
126 ; 2619632.097311377 ; 2.019145975996061E8 ; 2.9502731960896796E8 ; 2.3719503829999165E10 ; 0.0
127 ; 2618214.1641515023 ; 2.0192695108893406E8 ; 2.9764695170627934E8 ; 2.392141842759877E10 ; 0.0
128 ; 2615433.636377517 ; 2.0193927697594765E8 ; 3.002651658704308E8 ; 2.4123345378687706E10 ; 0.0
129 ; 2612022.2942342563 ; 2.0195157495047238E8 ; 3.0288059950680834E8 ; 2.4325284655663654E10 ; 0.0
130 ; 2604359.5891350284 ; 2.0196384470526615E8 ; 3.054926218010426E8 ; 2.452723623061413E10 ; 0.0
131 ; 2598669.479551461 ; 2.0197608593592995E8 ; 3.0809698139017767E8 ; 2.4729200075319393E10 ; 0.0
132 ; 2593007.137194313 ; 2.019882983408235E8 ; 3.106956508697291E8 ; 2.493117616125532E10 ; 0.0
133 ; 2587852.598052747 ; 2.020004816209847E8 ; 3.1328865800692344E8 ; 2.5133164459596146E10 ; 0.0
134 ; 2576344.8792246375 ; 2.020126354800531E8 ; 3.158765106049762E8 ; 2.533516494121713E10 ; 0.0
135 ; 2575566.924945273 ; 2.020247596241972E8 ; 3.1845285548420084E8 ; 2.553717757669718E10 ; 0.0
136 ; 2567242.128533337 ; 2.020368537620453E8 ; 3.2102842240914613E8 ; 2.573920233632138E10 ; 0.0
137 ; 2555930.9676763574 ; 2.0204891760461923E8 ; 3.235956645376795E8 ; 2.5941239190083427E10 ; 0.0
138 ; 2553549.8402646272 ; 2.0206095086527207E8 ; 3.2615159550535583E8 ; 2.6143288107688046E10 ; 0.0
139 ; 2544005.4663221035 ; 2.020729532596281E8 ; 3.2870514534562045E8 ; 2.6345349058553318E10 ; 0.0
140 ; 2534989.2285702294 ; 2.02084924505526E8 ; 3.312491508119426E8 ; 2.6547422011812946E10 ; 0.0
141 ; 2530149.3960697707 ; 2.0209686432296467E8 ; 3.337841400405128E8 ; 2.6749506936318474E10 ; 0.0
142 ; 2521347.731658863 ; 2.0210877243405157E8 ; 3.3631428943658257E8 ; 2.6951603800641438E10 ; 0.0
143 ; 2512386.6380936783 ; 2.021206485629535E8 ; 3.3883563716824144E8 ; 2.715371257307549E10 ; 0.0
144 ; 2506472.1814080277 ; 2.0213249243584973E8 ; 3.413480238063351E8 ; 2.7355833221638443E10 ; 0.0
145 ; 2502307.2996996823 ; 2.0214430378088725E8 ; 3.4385449598774314E8 ; 2.755796571407429E10 ; 0.0
146 ; 2500648.926094413 ; 2.021560823281382E8 ; 3.463568032874428E8 ; 2.776011001785518E10 ; 0.0
147 ; 2498461.478938799 ; 2.0216782780955917E8 ; 3.488574522135372E8 ; 2.7962266100183315E10 ; 0.0
148 ; 2493829.4659266463 ; 2.021795399589524E8 ; 3.5135591369247603E8 ; 2.8164433927992874E10 ; 0.0
149 ; 2489947.522495406 ; 2.0219121851192892E8 ; 3.538497431584027E8 ; 2.8366613467951828E10 ; 0.0
150 ; 2489992.510569312 ; 2.0220286320587313E8 ; 3.563396906808981E8 ; 2.8568804686463757E10 ; 0.0
151 ; 2484523.539999939 ; 2.022144737799093E8 ; 3.588296831914674E8 ; 2.877100754966963E10 ; 0.0
152 ; 2481137.8940712 ; 2.022260499748693E8 ; 3.6131420673146737E8 ; 2.897322202344954E10 ; 0.0
153 ; 2478272.236388415 ; 2.022375915332621E8 ; 3.637953446255386E8 ; 2.9175448073424408E10 ; 0.0
154 ; 2477113.4974424765 ; 2.0224909819924432E8 ; 3.6627361686192703E8 ; 2.937768566495767E10 ; 0.0
155 ; 2475050.505839099 ; 2.022605697185926E8 ; 3.687507303593695E8 ; 2.9579934763156914E10 ; 0.0
156 ; 2469708.1224390254 ; 2.0227200583867672E8 ; 3.712257808652086E8 ; 2.9782195332875507E10 ; 0.0
157 ; 2465207.7785992543 ; 2.0228340630843425E8 ; 3.7369548898764765E8 ; 2.9984467338714184E10 ; 0.0
158 ; 2462906.078465945 ; 2.022947708783463E8 ; 3.761606967662469E8 ; 3.0186750745022617E10 ; 0.0
159 ; 2459673.0787376 ; 2.0230609930041432E8 ; 3.7862360284471285E8 ; 3.0389045515900963E10 ; 0.0
160 ; 2456848.2265943885 ; 2.0231739132813802E8 ; 3.8108327592345047E8 ; 3.0591351615201378E10 ; 0.0
161 ; 2454481.9578659693 ; 2.0232864671649417E8 ; 3.8354012415004486E8 ; 3.0793669006529514E10 ; 0.0
162 ; 2452902.5834887144 ; 2.0233986522191644E8 ; 3.859946061079108E8 ; 3.099599765324601E10 ; 0.0
163 ; 2448220.381945453 ; 2.0235104660227627E8 ; 3.884475086913995E8 ; 3.1198337518467926E10 ; 0.0
164 ; 2442401.503817166 ; 2.0236219061686438E8 ; 3.9089572907334495E8 ; 3.14006885650702E10 ; 0.0
165 ; 2441069.813207103 ; 2.0237329702637327E8 ; 3.933381305771621E8 ; 3.1603050755687065E10 ; 0.0
166 ; 2438890.9291074695 ; 2.023843655928805E8 ; 3.957792003903692E8 ; 3.180542405271344E10 ; 0.0
167 ; 2434788.788714675 ; 2.0239539607983267E8 ; 3.9821809131947666E8 ; 3.200780841830632E10 ; 0.0
168 ; 2434599.476597188 ; 2.0240638825203022E8 ; 4.006528801081913E8 ; 3.2210203814386154E10 ; 0.0
169 ; 2429866.602582544 ; 2.0241734187561283E8 ; 4.030874795847885E8 ; 3.2412610202638184E10 ; 0.0
170 ; 2424669.389683651 ; 2.0242825671804553E8 ; 4.05517346187371E8 ; 3.2615027544513798E10 ; 0.0
171 ; 2422412.799723305 ; 2.0243913254810554E8 ; 4.079420155770547E8 ; 3.2817455801231842E10 ; 0.0
172 ; 2419123.0752321524 ; 2.0244996913586944E8 ; 4.10364428376778E8 ; 3.301989493377995E10 ; 0.0
173 ; 2417217.7018657904 ; 2.024607662527014E8 ; 4.1278355145201015E8 ; 3.3222344902915817E10 ; 0.0
174 ; 2415210.3798697516 ; 2.024715236712414E8 ; 4.1520076915387595E8 ; 3.3424805669168518E10 ; 0.0
175 ; 2409132.4611761677 ; 2.0248224116539446E8 ; 4.176159795337457E8 ; 3.362727719283976E10 ; 0.0
176 ; 2412125.458384989 ; 2.0249291851032013E8 ; 4.2002511199492186E8 ; 3.3829759434005154E10 ; 0.0
177 ; 2405892.682247827 ; 2.0250355548242247E8 ; 4.2243723745330685E8 ; 3.4032252352515472E10 ; 0.0
178 ; 2405238.5518873986 ; 2.0251415185934067E8 ; 4.248431301355547E8 ; 3.4234755907997894E10 ; 0.0
179 ; 2400965.3159078592 ; 2.0252470741994E8 ; 4.2724836868744206E8 ; 3.443727005985724E10 ; 0.0
180 ; 2401561.5753925806 ; 2.0253522194430313E8 ; 4.296493340033499E8 ; 3.4639794767277176E10 ; 0.0
181 ; 2399954.1221909286 ; 2.0254569521372193E8 ; 4.320508955787425E8 ; 3.484232998922148E10 ; 0.0
182 ; 2394644.968266225 ; 2.0255612701068988E8 ; 4.3445084970093346E8 ; 3.50448756844352E10 ; 0.0
183 ; 2393492.048318637 ; 2.0256651711889437E8 ; 4.368454946691997E8 ; 3.524743181144589E10 ; 0.0
184 ; 2391570.9477533 ; 2.0257686532320988E8 ; 4.392389867175183E8 ; 3.544999832856479E10 ; 0.0
185 ; 2390604.180101005 ; 2.0258717140969115E8 ; 4.4163055766527164E8 ; 3.5652575193888E10 ; 0.0
186 ; 2388003.715060429 ; 2.0259743516556686E8 ; 4.440211618453726E8 ; 3.585516236529769E10 ; 0.0
187 ; 2385327.172626567 ; 2.0260765637923363E8 ; 4.4640916556043303E8 ; 3.605775980046326E10 ; 0.0
188 ; 2382748.8436549 ; 2.0261783484025016E8 ; 4.487944927330596E8 ; 3.626036745684249E10 ; 0.0
189 ; 2381631.0708089075 ; 2.0262797033933204E8 ; 4.5117724157671446E8 ; 3.646298529168274E10 ; 0.0
190 ; 2379621.2093667667 ; 2.026380626683463E8 ; 4.5355887264752334E8 ; 3.666561326202207E10 ; 0.0
191 ; 2378043.0286105755 ; 2.026481116203067E8 ; 4.559384938568901E8 ; 3.6868251324690414E10 ; 0.0
192 ; 2374356.124656777 ; 2.0265811698936918E8 ; 4.5831653688550067E8 ; 3.707089943631072E10 ; 0.0
193 ; 2373188.987075934 ; 2.026680785708273E8 ; 4.6069089301015747E8 ; 3.7273557553300095E10 ; 0.0
194 ; 2368822.768273798 ; 2.0267799616110831E8 ; 4.630640819972334E8 ; 3.747622563187092E10 ; 0.0
195 ; 2366839.2981837927 ; 2.0268786955776912E8 ; 4.6543290476550716E8 ; 3.767890362803203E10 ; 0.0
196 ; 2369743.9645048925 ; 2.026976985594927E8 ; 4.6779974406369096E8 ; 3.78815914975898E10 ; 0.0
197 ; 2364099.616301425 ; 2.0270748296608466E8 ; 4.7016948802819586E8 ; 3.808428919614929E10 ; 0.0
198 ; 2362362.8585509676 ; 2.027172225784699E8 ; 4.725335876444973E8 ; 3.828699667911538E10 ; 0.0
199 ; 2359255.7522897013 ; 2.027269171986896E8 ; 4.7489595050304824E8 ; 3.848971390169385E10 ; 0.0
200 ; 2357672.0816943347 ; 2.027365666298985E8 ; 4.7725520625533795E8 ; 3.869244081889254E10 ; 0.0
