CSV File for the City 1 on Day 186
1 - Minute m 
2 - Power Consumed at minute m 
3 - Power Produced at minute m 
4 - Energy Consumed since the beginning of the day 
5 - Energy Produced since the beginning of the day 
6 - Energy Lost since the beginning of the day on lines starting from the city
 
0 ; 2849296.540923023 ; 1.0546505182920167E8 ; 0.0 ; 0.0 ; 0.0
1 ; 2869701.7945452062 ; 1.0561793315456152E8 ; 2849296.540923023 ; 1.0546505182920167E8 ; 0.0
2 ; 2885034.902269052 ; 1.0607960186509356E8 ; 5718998.335468229 ; 2.110829849837632E8 ; 0.0
3 ; 2902613.7777329558 ; 1.06850059942999E8 ; 8604033.237737281 ; 3.1716258684885675E8 ; 0.0
4 ; 2927052.6256808415 ; 1.0792930917307079E8 ; 1.1506647015470237E7 ; 4.2401264679185575E8 ; 0.0
5 ; 2956640.581812534 ; 1.0931735113001269E8 ; 1.4433699641151078E7 ; 5.3194195596492654E8 ; 0.0
6 ; 2997347.060440314 ; 1.1101418716696998E8 ; 1.7390340222963613E7 ; 6.412593070949392E8 ; 0.0
7 ; 3048331.084949857 ; 1.1301981840546346E8 ; 2.0387687283403926E7 ; 7.522734942619092E8 ; 0.0
8 ; 3127485.835740818 ; 1.1533424572689652E8 ; 2.3436018368353784E7 ; 8.652933126673727E8 ; 0.0
9 ; 3244267.489226686 ; 1.179574697657867E8 ; 2.6563504204094604E7 ; 9.806275583942692E8 ; 0.0
10 ; 3425941.309283492 ; 1.2088949090484005E8 ; 2.9807771693321288E7 ; 1.0985850281600559E9 ; 0.0
11 ; 3710032.477053689 ; 1.2413030927195957E8 ; 3.323371300260478E7 ; 1.2194745190648959E9 ; 0.0
12 ; 4178031.2606284325 ; 1.2767992473924223E8 ; 3.694374547965847E7 ; 1.3436048283368554E9 ; 0.0
13 ; 4624137.651175123 ; 1.3153833692398196E8 ; 4.11217767402869E7 ; 1.4712847530760977E9 ; 0.0
14 ; 4677364.681513807 ; 1.3570554519166136E8 ; 4.574591439146203E7 ; 1.6028230900000796E9 ; 0.0
15 ; 4696648.76073255 ; 1.4018154866087687E8 ; 5.042327907297584E7 ; 1.738528635191741E9 ; 0.0
16 ; 4713663.234774185 ; 1.4496634621010783E8 ; 5.511992783370839E7 ; 1.8787101838526177E9 ; 0.0
17 ; 4735663.073729537 ; 1.500599364862089E8 ; 5.983359106848258E7 ; 2.0236765300627255E9 ; 0.0
18 ; 4756922.20082496 ; 1.5546231791447628E8 ; 6.4569254142212115E7 ; 2.1737364665489345E9 ; 0.0
19 ; 4779081.743858922 ; 1.6117348871011707E8 ; 6.932617634303707E7 ; 2.329198784463411E9 ; 0.0
20 ; 4801782.465234602 ; 1.6719344689093003E8 ; 7.410525808689599E7 ; 2.4903722731735277E9 ; 0.0
21 ; 4823400.4242662545 ; 1.7352219029099682E8 ; 7.89070405521306E7 ; 2.657565720064458E9 ; 0.0
22 ; 4843790.557132338 ; 1.801597165751729E8 ; 8.373044097639684E7 ; 2.831087910355455E9 ; 0.0
23 ; 4868617.672473369 ; 1.8710602325416756E8 ; 8.857423153352918E7 ; 3.011247626930628E9 ; 0.0
24 ; 4890622.921787626 ; 1.9436110770000446E8 ; 9.344284920600255E7 ; 3.1983536501847954E9 ; 0.0
25 ; 4912317.1399577325 ; 2.0061300805984673E8 ; 9.833347212779017E7 ; 3.3927147578848E9 ; 0.0
26 ; 4934243.768312508 ; 2.0061526930852684E8 ; 1.032457892677479E8 ; 3.593327765944647E9 ; 0.0
27 ; 4956418.855532619 ; 2.00617657788903E8 ; 1.0818003303606041E8 ; 3.793943035253174E9 ; 0.0
28 ; 4978797.63870179 ; 2.0062017047374773E8 ; 1.1313645189159302E8 ; 3.994560693042077E9 ; 0.0
29 ; 4997426.538487398 ; 2.006228042736357E8 ; 1.1811524953029482E8 ; 4.195180863515825E9 ; 0.0
30 ; 5016516.292068697 ; 2.0062555605099508E8 ; 1.2311267606878223E8 ; 4.39580366778946E9 ; 0.0
31 ; 5034877.351057865 ; 2.0062842263347188E8 ; 1.2812919236085092E8 ; 4.596429223840455E9 ; 0.0
32 ; 5061188.538624614 ; 2.0063140082652923E8 ; 1.3316406971190879E8 ; 4.797057646473927E9 ; 0.0
33 ; 5075955.177953727 ; 2.0063448742522544E8 ; 1.382252582505334E8 ; 4.997689047300456E9 ; 0.0
34 ; 5101506.061104752 ; 2.006376792251299E8 ; 1.4330121342848712E8 ; 5.198323534725681E9 ; 0.0
35 ; 5115292.293428642 ; 2.0064097303235486E8 ; 1.4840271948959187E8 ; 5.398961213950811E9 ; 0.0
36 ; 5133028.291002206 ; 2.006443656726943E8 ; 1.535180117830205E8 ; 5.599602186983167E9 ; 0.0
37 ; 5153333.561174959 ; 2.0064785399987522E8 ; 1.586510400740227E8 ; 5.800246552655861E9 ; 0.0
38 ; 5164616.003963099 ; 2.00651434902937E8 ; 1.6380437363519767E8 ; 6.000894406655736E9 ; 0.0
39 ; 5183162.393989293 ; 2.0065510531276485E8 ; 1.6896898963916078E8 ; 6.201545841558673E9 ; 0.0
40 ; 5197265.371020455 ; 2.006588622078102E8 ; 1.7415215203315008E8 ; 6.402200946871438E9 ; 0.0
41 ; 5211705.927931379 ; 2.0066270261903724E8 ; 1.7934941740417054E8 ; 6.602859809079248E9 ; 0.0
42 ; 5228922.854217877 ; 2.0066662363413942E8 ; 1.845611233321019E8 ; 6.803522511698286E9 ; 0.0
43 ; 5238647.906535851 ; 2.0067062240107235E8 ; 1.897900461863198E8 ; 7.004189135332425E9 ; 0.0
44 ; 5255068.126801977 ; 2.0067469613095176E8 ; 1.9502869409285566E8 ; 7.204859757733498E9 ; 0.0
45 ; 5266130.887816122 ; 2.0067884210036632E8 ; 2.0028376221965763E8 ; 7.4055344538644495E9 ; 0.0
46 ; 5279302.389575899 ; 2.0068305765315425E8 ; 2.0554989310747376E8 ; 7.606213295964816E9 ; 0.0
47 ; 5289064.66125084 ; 2.0068734020169258E8 ; 2.1082919549704966E8 ; 7.80689635361797E9 ; 0.0
48 ; 5299521.270653072 ; 2.0069168722774646E8 ; 2.161182601583005E8 ; 8.007583693819663E9 ; 0.0
49 ; 5309317.3510300955 ; 2.006960962829236E8 ; 2.2141778142895356E8 ; 8.208275381047409E9 ; 0.0
50 ; 5313718.339908616 ; 2.007005649887777E8 ; 2.2672709877998364E8 ; 8.408971477330333E9 ; 0.0
51 ; 5320147.280790082 ; 2.0070509103660068E8 ; 2.3204081711989227E8 ; 8.60967204231911E9 ; 0.0
52 ; 5328909.48932926 ; 2.007096721869431E8 ; 2.3736096440068236E8 ; 8.810377133355711E9 ; 0.0
53 ; 5338908.140279747 ; 2.007143062688975E8 ; 2.426898738900116E8 ; 9.011086805542654E9 ; 0.0
54 ; 5349345.512138249 ; 2.0071899117917746E8 ; 2.4802878203029135E8 ; 9.211801111811552E9 ; 0.0
55 ; 5356649.726743411 ; 2.007237248810232E8 ; 2.533781275424296E8 ; 9.41252010299073E9 ; 0.0
56 ; 5361567.733953156 ; 2.0072850540296024E8 ; 2.58734777269173E8 ; 9.613243827871754E9 ; 0.0
57 ; 5363574.541343759 ; 2.0073333083743665E8 ; 2.6409634500312614E8 ; 9.813972333274714E9 ; 0.0
58 ; 5374182.540742903 ; 2.0073819933936134E8 ; 2.694599195444699E8 ; 1.001470566411215E10 ; 0.0
59 ; 5376775.1151615 ; 2.0074310912456328E8 ; 2.7483410208521277E8 ; 1.0215443863451511E10 ; 0.0
60 ; 5385018.289991733 ; 2.007480584681898E8 ; 2.8021087720037425E8 ; 1.0416186972576075E10 ; 0.0
61 ; 5390451.984204162 ; 2.007530457030602E8 ; 2.85595895490366E8 ; 1.0616935031044264E10 ; 0.0
62 ; 5393003.9770105835 ; 2.007580692179884E8 ; 2.9098634747457016E8 ; 1.0817688076747324E10 ; 0.0
63 ; 5406014.4168354 ; 2.007631274560874E8 ; 2.9637935145158076E8 ; 1.1018446145965313E10 ; 0.0
64 ; 5409397.951677646 ; 2.00768218913066E8 ; 3.017853658684162E8 ; 1.12192092734214E10 ; 0.0
65 ; 5416556.5837034285 ; 2.0077334213552764E8 ; 3.071947638200938E8 ; 1.1419977492334467E10 ; 0.0
66 ; 5420398.063131843 ; 2.0077849571927902E8 ; 3.1261132040379727E8 ; 1.1620750834469995E10 ; 0.0
67 ; 5424823.187382682 ; 2.0078367830765584E8 ; 3.1803171846692914E8 ; 1.1821529330189274E10 ; 0.0
68 ; 5430646.891687322 ; 2.00788888589871E8 ; 3.2345654165431184E8 ; 1.202231300849693E10 ; 0.0
69 ; 5435604.115577604 ; 2.0079412529939055E8 ; 3.2888718854599917E8 ; 1.22231018970868E10 ; 0.0
70 ; 5442571.403304021 ; 2.0079938721234173E8 ; 3.3432279266157675E8 ; 1.242389602238619E10 ; 0.0
71 ; 5449057.97912463 ; 2.0080467314595538E8 ; 3.397653640648808E8 ; 1.2624695409598532E10 ; 0.0
72 ; 5451785.593201884 ; 2.0080998195704675E8 ; 3.452144220440054E8 ; 1.2825500082744488E10 ; 0.0
73 ; 5458747.030289132 ; 2.008153125405356E8 ; 3.5066620763720727E8 ; 1.3026310064701534E10 ; 0.0
74 ; 5461195.814917745 ; 2.0082066382800785E8 ; 3.561249546674964E8 ; 1.322712537724207E10 ; 0.0
75 ; 5469539.86987905 ; 2.0082603478631976E8 ; 3.615861504824141E8 ; 1.3427946041070078E10 ; 0.0
76 ; 5468770.352780611 ; 2.0083142441624507E8 ; 3.670556903522932E8 ; 1.3628772075856398E10 ; 0.0
77 ; 5476593.033878635 ; 2.0083683175116584E8 ; 3.7252446070507383E8 ; 1.3829603500272642E10 ; 0.0
78 ; 5472971.437359551 ; 2.0084225585580695E8 ; 3.7800105373895246E8 ; 1.4030440332023808E10 ; 0.0
79 ; 5473502.487316532 ; 2.0084769582501405E8 ; 3.83474025176312E8 ; 1.4231282587879614E10 ; 0.0
80 ; 5469705.83070324 ; 2.0085315078257477E8 ; 3.889475276636286E8 ; 1.4432130283704628E10 ; 0.0
81 ; 5463684.511298543 ; 2.0085861988008234E8 ; 3.9441723349433184E8 ; 1.4632983434487204E10 ; 0.0
82 ; 5467906.3900159905 ; 2.0086410229584146E8 ; 3.998809180056304E8 ; 1.4833842054367287E10 ; 0.0
83 ; 5463565.179189279 ; 2.0086959723381495E8 ; 4.053488243956464E8 ; 1.5034706156663128E10 ; 0.0
84 ; 5459266.783913902 ; 2.00875103922611E8 ; 4.1081238957483566E8 ; 1.5235575753896942E10 ; 0.0
85 ; 5462530.9187996015 ; 2.0088062161450928E8 ; 4.1627165635874957E8 ; 1.5436450857819553E10 ; 0.0
86 ; 5457242.622909056 ; 2.0088614958452573E8 ; 4.2173418727754915E8 ; 1.5637331479434063E10 ; 0.0
87 ; 5456794.660093829 ; 2.008916871295139E8 ; 4.271914299004582E8 ; 1.5838217629018589E10 ; 0.0
88 ; 5454221.430403067 ; 2.0089723356730285E8 ; 4.3264822456055206E8 ; 1.6039109316148104E10 ; 0.0
89 ; 5451167.036004318 ; 2.0090278823586968E8 ; 4.381024459909551E8 ; 1.6240006549715406E10 ; 0.0
90 ; 5448340.125816532 ; 2.009083504925456E8 ; 4.435536130269594E8 ; 1.6440909337951277E10 ; 0.0
91 ; 5446391.558103109 ; 2.009139197132549E8 ; 4.4900195315277594E8 ; 1.6641817688443823E10 ; 0.0
92 ; 5442244.865156584 ; 2.0091949529178515E8 ; 4.54448344710879E8 ; 1.6842731608157078E10 ; 0.0
93 ; 5442587.627528038 ; 2.0092507663908765E8 ; 4.598905895760356E8 ; 1.7043651103448862E10 ; 0.0
94 ; 5438915.334382363 ; 2.0093066318260702E8 ; 4.6533317720356363E8 ; 1.7244576180087948E10 ; 0.0
95 ; 5433526.7717021685 ; 2.0093625436563897E8 ; 4.70772092537946E8 ; 1.7445506843270554E10 ; 0.0
96 ; 5432793.571257695 ; 2.0094184964671475E8 ; 4.7620561930964816E8 ; 1.7646443097636192E10 ; 0.0
97 ; 5428609.643463975 ; 2.0094744849901175E8 ; 4.8163841288090587E8 ; 1.7847384947282906E10 ; 0.0
98 ; 5423415.400709409 ; 2.009530504097887E8 ; 4.8706702252436984E8 ; 1.8048332395781918E10 ; 0.0
99 ; 5420475.452141573 ; 2.0095865487984493E8 ; 4.924904379250792E8 ; 1.8249285446191708E10 ; 0.0
100 ; 5416134.3580327025 ; 2.0096426142300236E8 ; 4.979109133772208E8 ; 1.8450244101071552E10 ; 0.0
101 ; 5408803.559058144 ; 2.0096986956560925E8 ; 5.033270477352535E8 ; 1.8651208362494556E10 ; 0.0
102 ; 5404415.9805326965 ; 2.0097547884606537E8 ; 5.0873585129431164E8 ; 1.8852178232060165E10 ; 0.0
103 ; 5399257.729781878 ; 2.009810888143668E8 ; 5.1414026727484435E8 ; 1.905315371090623E10 ; 0.0
104 ; 5394641.990148207 ; 2.0098669903167027E8 ; 5.195395250046262E8 ; 1.9254134799720596E10 ; 0.0
105 ; 5391819.841457377 ; 2.009923090698759E8 ; 5.249341669947744E8 ; 1.9455121498752266E10 ; 0.0
106 ; 5389490.763821814 ; 2.0099791851122737E8 ; 5.3032598683623177E8 ; 1.9656113807822144E10 ; 0.0
107 ; 5383954.875792431 ; 2.0100352694792935E8 ; 5.357154776000536E8 ; 1.985711172633337E10 ; 0.0
108 ; 5376772.658800823 ; 2.0100913398178065E8 ; 5.41099432475846E8 ; 2.00581152532813E10 ; 0.0
109 ; 5373856.538831276 ; 2.0101473922382313E8 ; 5.464762051346469E8 ; 2.025912438726308E10 ; 0.0
110 ; 5366779.983471596 ; 2.0102034229400516E8 ; 5.518500616734781E8 ; 2.0460139126486904E10 ; 0.0
111 ; 5364410.419117355 ; 2.0102594282085934E8 ; 5.572168416569498E8 ; 2.066115946878091E10 ; 0.0
112 ; 5355061.409234153 ; 2.0103154044119376E8 ; 5.625812520760671E8 ; 2.086218541160177E10 ; 0.0
113 ; 5348197.891714789 ; 2.010371347997959E8 ; 5.679363134853013E8 ; 2.106321695204296E10 ; 0.0
114 ; 5343730.308508826 ; 2.0104272554914925E8 ; 5.732845113770161E8 ; 2.126425408684276E10 ; 0.0
115 ; 5338455.982172151 ; 2.010483123491614E8 ; 5.78628241685525E8 ; 2.1465296812391907E10 ; 0.0
116 ; 5332482.25896648 ; 2.0105389486690363E8 ; 5.839666976676971E8 ; 2.166634512474107E10 ; 0.0
117 ; 5324368.690932302 ; 2.0105947277636123E8 ; 5.892991799266635E8 ; 2.1867399019607975E10 ; 0.0
118 ; 5323645.854903434 ; 2.0106504575819394E8 ; 5.946235486175958E8 ; 2.2068458492384335E10 ; 0.0
119 ; 5311342.241501361 ; 2.010706134995066E8 ; 5.999471944724993E8 ; 2.226952353814253E10 ; 0.0
120 ; 5310047.024736869 ; 2.010761756936289E8 ; 6.052585367140006E8 ; 2.2470594151642036E10 ; 0.0
121 ; 5300123.824632113 ; 2.0108173203990442E8 ; 6.105685837387375E8 ; 2.2671670327335667E10 ; 0.0
122 ; 5289358.522975194 ; 2.010872822434879E8 ; 6.158687075633696E8 ; 2.2872752059375572E10 ; 0.0
123 ; 5285310.472755038 ; 2.0109282601515117E8 ; 6.211580660863448E8 ; 2.307383934161906E10 ; 0.0
124 ; 5278592.804412782 ; 2.0109836307109675E8 ; 6.264433765590999E8 ; 2.3274932167634212E10 ; 0.0
125 ; 5271013.090715747 ; 2.0110389313277882E8 ; 6.317219693635128E8 ; 2.347603053070531E10 ; 0.0
126 ; 5262475.515026939 ; 2.0110941592673185E8 ; 6.369929824542285E8 ; 2.367713442383809E10 ; 0.0
127 ; 5258570.596587586 ; 2.0111493118440562E8 ; 6.422554579692554E8 ; 2.387824383976482E10 ; 0.0
128 ; 5250209.656440973 ; 2.0112043864200714E8 ; 6.47514028565843E8 ; 2.4079358770949226E10 ; 0.0
129 ; 5239558.883931273 ; 2.011259380403487E8 ; 6.52764238222284E8 ; 2.4280479209591232E10 ; 0.0
130 ; 5232035.675149877 ; 2.0113142912470222E8 ; 6.580037971062152E8 ; 2.448160514763158E10 ; 0.0
131 ; 5218283.5064600855 ; 2.0113691164465898E8 ; 6.632358327813652E8 ; 2.4682736576756283E10 ; 0.0
132 ; 5204146.262441845 ; 2.011423853539952E8 ; 6.684541162878252E8 ; 2.488387348840094E10 ; 0.0
133 ; 5191127.812160685 ; 2.0114785001054287E8 ; 6.736582625502671E8 ; 2.5085015873754936E10 ; 0.0
134 ; 5175053.247009667 ; 2.011533053760653E8 ; 6.788493903624278E8 ; 2.528616372376548E10 ; 0.0
135 ; 5164194.730797182 ; 2.0115875121613812E8 ; 6.840244436094375E8 ; 2.5487317029141544E10 ; 0.0
136 ; 5150263.264693374 ; 2.0116418730003425E8 ; 6.891886383402346E8 ; 2.568847578035768E10 ; 0.0
137 ; 5136511.641825355 ; 2.0116961340061393E8 ; 6.94338901604928E8 ; 2.5889639967657715E10 ; 0.0
138 ; 5119985.749220768 ; 2.011750292942185E8 ; 6.994754132467533E8 ; 2.609080958105833E10 ; 0.0
139 ; 5101603.156853685 ; 2.011804347605686E8 ; 7.045953989959741E8 ; 2.629198461035255E10 ; 0.0
140 ; 5092969.528575947 ; 2.01185829582666E8 ; 7.096970021528277E8 ; 2.6493165045113117E10 ; 0.0
141 ; 5074980.231647378 ; 2.011912135466996E8 ; 7.147899716814036E8 ; 2.669435087469578E10 ; 0.0
142 ; 5058051.933018219 ; 2.0119658644195443E8 ; 7.19864951913051E8 ; 2.689554208824248E10 ; 0.0
143 ; 5049367.628714154 ; 2.012019480607245E8 ; 7.249230038460692E8 ; 2.7096738674684437E10 ; 0.0
144 ; 5035513.793806865 ; 2.0120729819822887E8 ; 7.299723714747834E8 ; 2.7297940622745163E10 ; 0.0
145 ; 5026293.339574216 ; 2.012126366525308E8 ; 7.350078852685903E8 ; 2.7499147920943394E10 ; 0.0
146 ; 5017392.481954978 ; 2.0121796322446E8 ; 7.400341786081645E8 ; 2.7700360557595924E10 ; 0.0
147 ; 5008498.34478258 ; 2.012232777175377E8 ; 7.450515710901195E8 ; 2.7901578520820385E10 ; 0.0
148 ; 5003077.167779742 ; 2.0122857993790463E8 ; 7.500600694349021E8 ; 2.810280179853792E10 ; 0.0
149 ; 4994110.438835442 ; 2.0123386969425145E8 ; 7.550631466026818E8 ; 2.8304030378475826E10 ; 0.0
150 ; 4983940.96609787 ; 2.0123914679775205E8 ; 7.600572570415173E8 ; 2.850526424817008E10 ; 0.0
151 ; 4978556.27754904 ; 2.0124441106199914E8 ; 7.650411980076151E8 ; 2.870650339496783E10 ; 0.0
152 ; 4965742.989946223 ; 2.0124966230294207E8 ; 7.700197542851641E8 ; 2.890774780602983E10 ; 0.0
153 ; 4956125.3335314235 ; 2.0125490033882716E8 ; 7.749854972751104E8 ; 2.910899746833277E10 ; 0.0
154 ; 4953251.019220537 ; 2.012601249901401E8 ; 7.799416226086417E8 ; 2.93102523686716E10 ; 0.0
155 ; 4946202.824660465 ; 2.0126533607955047E8 ; 7.848948736278623E8 ; 2.951151249366174E10 ; 0.0
156 ; 4936468.3426269395 ; 2.0127053343185815E8 ; 7.898410764525228E8 ; 2.971277782974129E10 ; 0.0
157 ; 4928380.69984179 ; 2.0127571687394175E8 ; 7.947775447951497E8 ; 2.991404836317315E10 ; 0.0
158 ; 4916768.092491086 ; 2.01280886234709E8 ; 7.997059254949914E8 ; 3.0115324080047092E10 ; 0.0
159 ; 4912131.283316196 ; 2.0128604134504864E8 ; 8.046226935874825E8 ; 3.0316604966281803E10 ; 0.0
160 ; 4901169.321541067 ; 2.0129118203778434E8 ; 8.095348248707987E8 ; 3.051789100762685E10 ; 0.0
161 ; 4894949.786122947 ; 2.0129630814763E8 ; 8.144359941923398E8 ; 3.0719182189664635E10 ; 0.0
162 ; 4883308.682834792 ; 2.0130141951114678E8 ; 8.193309439784627E8 ; 3.0920478497812263E10 ; 0.0
163 ; 4875139.3996511595 ; 2.0130651596670154E8 ; 8.242142526612974E8 ; 3.112177991732341E10 ; 0.0
164 ; 4867501.121818328 ; 2.0131159735442686E8 ; 8.290893920609486E8 ; 3.132308643329011E10 ; 0.0
165 ; 4857638.518509744 ; 2.013166635161824E8 ; 8.339568931827669E8 ; 3.152439803064454E10 ; 0.0
166 ; 4850785.413926685 ; 2.0132171429551762E8 ; 8.388145317012767E8 ; 3.172571469416072E10 ; 0.0
167 ; 4842112.086072456 ; 2.013267495376357E8 ; 8.436653171152034E8 ; 3.1927036408456238E10 ; 0.0
168 ; 4835708.593217688 ; 2.0133176908935902E8 ; 8.485074292012758E8 ; 3.2128363157993874E10 ; 0.0
169 ; 4823293.4502857905 ; 2.0133677279909533E8 ; 8.533431377944936E8 ; 3.2329694927083233E10 ; 0.0
170 ; 4815421.423675106 ; 2.013417605168056E8 ; 8.581664312447793E8 ; 3.2531031699882328E10 ; 0.0
171 ; 4805210.1388092935 ; 2.0134673209397265E8 ; 8.629818526684544E8 ; 3.273237346039913E10 ; 0.0
172 ; 4797895.613980211 ; 2.0135168738357103E8 ; 8.677870628072637E8 ; 3.2933720192493103E10 ; 0.0
173 ; 4793039.970807856 ; 2.013566262400378E8 ; 8.725849584212439E8 ; 3.3135071879876675E10 ; 0.0
174 ; 4782093.749062353 ; 2.0136154851924437E8 ; 8.773779983920518E8 ; 3.333642850611671E10 ; 0.0
175 ; 4776662.050381529 ; 2.013664540784693E8 ; 8.821600921411141E8 ; 3.3537790054635956E10 ; 0.0
176 ; 4770416.1627138425 ; 2.0137134277637208E8 ; 8.869367541914957E8 ; 3.3739156508714424E10 ; 0.0
177 ; 4767284.066331799 ; 2.0137621447296762E8 ; 8.917071703542095E8 ; 3.3940527851490795E10 ; 0.0
178 ; 4756723.503123866 ; 2.013810690296018E8 ; 8.964744544205413E8 ; 3.4141904065963764E10 ; 0.0
179 ; 4753792.577684953 ; 2.0138590630892774E8 ; 9.012311779236652E8 ; 3.4343285134993366E10 ; 0.0
180 ; 4748071.756826097 ; 2.0139072617488283E8 ; 9.059849705013502E8 ; 3.454467104130229E10 ; 0.0
181 ; 4737636.771697683 ; 2.0139552849266666E8 ; 9.107330422581762E8 ; 3.474606176747717E10 ; 0.0
182 ; 4732773.132218355 ; 2.0140031312871957E8 ; 9.154706790298738E8 ; 3.494745729596984E10 ; 0.0
183 ; 4732168.379448382 ; 2.0140507995070186E8 ; 9.202034521620922E8 ; 3.5148857609098564E10 ; 0.0
184 ; 4721822.7304659095 ; 2.01409828827474E8 ; 9.249356205415406E8 ; 3.535026268904926E10 ; 0.0
185 ; 4715626.756893305 ; 2.0141455962907708E8 ; 9.296574432720065E8 ; 3.555167251787674E10 ; 0.0
186 ; 4708021.139851729 ; 2.0141927222671413E8 ; 9.343730700288998E8 ; 3.575308707750581E10 ; 0.0
187 ; 4698329.92309908 ; 2.0142396649273217E8 ; 9.390810911687515E8 ; 3.595450634973253E10 ; 0.0
188 ; 4692768.004885901 ; 2.0142864230060452E8 ; 9.437794210918505E8 ; 3.615593031622526E10 ; 0.0
189 ; 4690443.3924351735 ; 2.0143329952491403E8 ; 9.484721890967364E8 ; 3.635735895852586E10 ; 0.0
190 ; 4684041.933175524 ; 2.0143793804133663E8 ; 9.531626324891716E8 ; 3.655879225805078E10 ; 0.0
191 ; 4677334.121792419 ; 2.0144255772662556E8 ; 9.578466744223472E8 ; 3.676023019609212E10 ; 0.0
192 ; 4672994.377587335 ; 2.0144715845859596E8 ; 9.625240085441396E8 ; 3.696167275381874E10 ; 0.0
193 ; 4661990.613701034 ; 2.0145174011611018E8 ; 9.67197002921727E8 ; 3.7163119912277336E10 ; 0.0
194 ; 4657110.426106853 ; 2.0145630257906333E8 ; 9.718589935354279E8 ; 3.736457165239345E10 ; 0.0
195 ; 4649922.274096057 ; 2.0146084572836947E8 ; 9.765161039615347E8 ; 3.756602795497251E10 ; 0.0
196 ; 4642718.227983405 ; 2.0146536944594827E8 ; 9.811660262356308E8 ; 3.776748880070088E10 ; 0.0
197 ; 4642440.2284752 ; 2.014698736147118E8 ; 9.858087444636141E8 ; 3.796895417014683E10 ; 0.0
198 ; 4630736.296288207 ; 2.014743581185522E8 ; 9.904511846920893E8 ; 3.817042404376154E10 ; 0.0
199 ; 4625368.453016604 ; 2.014788228423294E8 ; 9.950819209883776E8 ; 3.83718984018801E10 ; 0.0
200 ; 4620614.29991473 ; 2.0148326767185938E8 ; 9.997072894413942E8 ; 3.857337722472243E10 ; 0.0
201 ; 4617802.895170266 ; 1.920188839826631E8 ; 1.0043279037413089E9 ; 3.877486049239429E10 ; 0.0
