CSV File for the City 3 on Day 58
1 - Minute m 
2 - Power Consumed at minute m 
3 - Power Produced at minute m 
4 - Energy Consumed since the beginning of the day 
5 - Energy Produced since the beginning of the day 
6 - Energy Lost since the beginning of the day on lines starting from the city
 
0 ; 2374058.0337922736 ; 1.0543382022054586E8 ; 0.0 ; 0.0 ; 0.0
1 ; 2376226.8468583664 ; 1.0558664178226638E8 ; 2374058.0337922736 ; 1.0543382022054586E8 ; 0.0
2 ; 2377691.938353501 ; 1.0604825577666089E8 ; 4750284.8806506395 ; 2.1102046200281224E8 ; 0.0
3 ; 2381662.5320318965 ; 1.0681866457547826E8 ; 7127976.819004141 ; 3.170687177794731E8 ; 0.0
4 ; 2385385.8485088027 ; 1.0789787032134765E8 ; 9509639.351036038 ; 4.238873823549514E8 ; 0.0
5 ; 2389366.063927395 ; 1.0928587491026592E8 ; 1.1895025199544841E7 ; 5.3178525267629904E8 ; 0.0
6 ; 2395449.65483801 ; 1.1098267997564682E8 ; 1.4284391263472237E7 ; 6.41071127586565E8 ; 0.0
7 ; 2402403.4397320063 ; 1.1298828687423497E8 ; 1.6679840918310247E7 ; 7.520538075622119E8 ; 0.0
8 ; 2415290.700091739 ; 1.1530269667416155E8 ; 1.9082244358042255E7 ; 8.650420944364469E8 ; 0.0
9 ; 2431306.6098215114 ; 1.1792591014538497E8 ; 2.1497535058133993E7 ; 9.803447911106085E8 ; 0.0
10 ; 2457441.0033889385 ; 1.2085792775271326E8 ; 2.3928841667955503E7 ; 1.0982707012559934E9 ; 0.0
11 ; 2499782.2680131034 ; 1.2409874965155783E8 ; 2.638628267134444E7 ; 1.2191286290087066E9 ; 0.0
12 ; 2563605.2176165474 ; 1.2764837568650725E8 ; 2.8886064939357545E7 ; 1.3432273786602645E9 ; 0.0
13 ; 2628080.4758225754 ; 1.3150680539275348E8 ; 3.1449670156974092E7 ; 1.4708757543467717E9 ; 0.0
14 ; 2635405.909958331 ; 1.356740380003382E8 ; 3.407775063279667E7 ; 1.6023825597395253E9 ; 0.0
15 ; 2639123.0207447424 ; 1.401500724411301E8 ; 3.6713156542755E7 ; 1.7380565977398634E9 ; 0.0
16 ; 2642367.8234526115 ; 1.449349073583847E8 ; 3.935227956349974E7 ; 1.8782066701809936E9 ; 0.0
17 ; 2645274.6440062122 ; 1.5002854111868814E8 ; 4.1994647386952356E7 ; 2.0231415775393782E9 ; 0.0
18 ; 2647721.158205715 ; 1.554309718260436E8 ; 4.463992203095857E7 ; 2.1731701186580663E9 ; 0.0
19 ; 2650599.18401496 ; 1.6114219733782193E8 ; 4.728764318916429E7 ; 2.32860109048411E9 ; 0.0
20 ; 2654996.038707433 ; 1.6716221528227422E8 ; 4.993824237317925E7 ; 2.489743287821932E9 ; 0.0
21 ; 2656096.646845062 ; 1.7349102307728723E8 ; 5.2593238411886685E7 ; 2.656905503104206E9 ; 0.0
22 ; 2660186.752609195 ; 1.8012861795005757E8 ; 5.524933505873175E7 ; 2.8303965261814933E9 ; 0.0
23 ; 2662668.6815442326 ; 1.8707499695736277E8 ; 5.790952181134094E7 ; 3.010525144131551E9 ; 0.0
24 ; 2664833.2457259204 ; 1.943301570061205E8 ; 6.057219049288517E7 ; 3.1976001410889134E9 ; 0.0
25 ; 2668413.5405176994 ; 2.005821357721282E8 ; 6.3237023738611095E7 ; 3.391930298095034E9 ; 0.0
26 ; 2671833.6408362607 ; 2.005844777572459E8 ; 6.59054372791288E7 ; 3.592512433867162E9 ; 0.0
27 ; 2673561.223360241 ; 2.005869488340806E8 ; 6.857727091996506E7 ; 3.7930969116244082E9 ; 0.0
28 ; 2678563.4544822243 ; 2.0058954551182812E8 ; 7.12508321433253E7 ; 3.993683860458489E9 ; 0.0
29 ; 2681715.7355508413 ; 2.0059226424770465E8 ; 7.392939559780753E7 ; 4.194273405970317E9 ; 0.0
30 ; 2684857.2218282702 ; 2.005951014641114E8 ; 7.661111133335836E7 ; 4.394865670218021E9 ; 0.0
31 ; 2686766.335956175 ; 2.005980535646718E8 ; 7.929596855518663E7 ; 4.595460771682133E9 ; 0.0
32 ; 2687859.903988086 ; 2.006011169490672E8 ; 8.19827348911428E7 ; 4.796058825246804E9 ; 0.0
33 ; 2692227.297965079 ; 2.0060428802662438E8 ; 8.46705947951309E7 ; 4.996659942195871E9 ; 0.0
34 ; 2693655.4693877078 ; 2.006075632286355E8 ; 8.736282209309597E7 ; 5.197264230222496E9 ; 0.0
35 ; 2695811.8965788404 ; 2.0061093901941246E8 ; 9.005647756248368E7 ; 5.397871793451132E9 ; 0.0
36 ; 2698378.5880660615 ; 2.0061441190609804E8 ; 9.275228945906252E7 ; 5.598482732470544E9 ; 0.0
37 ; 2701147.012920008 ; 2.006179784472709E8 ; 9.545066804712857E7 ; 5.799097144376642E9 ; 0.0
38 ; 2703256.4497906747 ; 2.0062163526039606E8 ; 9.815181506004858E7 ; 5.999715122823914E9 ; 0.0
39 ; 2705280.778759451 ; 2.0062537902818096E8 ; 1.0085507150983925E8 ; 6.20033675808431E9 ; 0.0
40 ; 2706602.633624843 ; 2.006292065039049E8 ; 1.035603522885987E8 ; 6.400962137112491E9 ; 0.0
41 ; 2708314.96760434 ; 2.006331145157949E8 ; 1.0626695492222354E8 ; 6.601591343616396E9 ; 0.0
42 ; 2711926.905989349 ; 2.006370999705227E8 ; 1.0897526988982788E8 ; 6.802224458132191E9 ; 0.0
43 ; 2713948.3872778933 ; 2.0064115985589954E8 ; 1.1168719679581723E8 ; 7.002861558102714E9 ; 0.0
44 ; 2713769.6821829 ; 2.006452912428437E8 ; 1.1440114518309511E8 ; 7.203502717958613E9 ; 0.0
45 ; 2714314.8280297234 ; 2.006494912866952E8 ; 1.17114914865278E8 ; 7.404148009201457E9 ; 0.0
46 ; 2718452.218147253 ; 2.00653757227948E8 ; 1.1982922969330773E8 ; 7.6047975004881525E9 ; 0.0
47 ; 2718919.934421583 ; 2.0065808639246753E8 ; 1.2254768191145498E8 ; 7.805451257716101E9 ; 0.0
48 ; 2718828.8989864816 ; 2.0066247619125706E8 ; 1.2526660184587656E8 ; 8.006109344108568E9 ; 0.0
49 ; 2720807.7757498217 ; 2.0066692411983234E8 ; 1.2798543074486305E8 ; 8.206771820299826E9 ; 0.0
50 ; 2722805.8479897436 ; 2.0067142775725886E8 ; 1.3070623852061287E8 ; 8.407438744419658E9 ; 0.0
51 ; 2721881.4211918786 ; 2.006759847649027E8 ; 1.334290443686026E8 ; 8.608110172176916E9 ; 0.0
52 ; 2722769.6910218885 ; 2.0068059288494027E8 ; 1.3615092578979447E8 ; 8.808786156941818E9 ; 0.0
53 ; 2723449.0505238227 ; 2.006852499386685E8 ; 1.3887369548081636E8 ; 9.00946674982676E9 ; 0.0
54 ; 2725017.1616970035 ; 2.0068995382465297E8 ; 1.4159714453134018E8 ; 9.210151999765429E9 ; 0.0
55 ; 2724150.9453242957 ; 2.0069470251674718E8 ; 1.4432216169303718E8 ; 9.410841953590082E9 ; 0.0
56 ; 2724099.1358666387 ; 2.0069949406201223E8 ; 1.4704631263836148E8 ; 9.611536656106829E9 ; 0.0
57 ; 2726553.5799068757 ; 2.0070432657856336E8 ; 1.4977041177422813E8 ; 9.81223615016884E9 ; 0.0
58 ; 2727269.4416716965 ; 2.0070919825336602E8 ; 1.52496965354135E8 ; 1.0012940476747404E10 ; 0.0
59 ; 2727484.61513204 ; 2.0071410734000134E8 ; 1.552242347958067E8 ; 1.021364967500077E10 ; 0.0
60 ; 2728310.739968648 ; 2.0071905215641832E8 ; 1.5795171941093874E8 ; 1.0414363782340773E10 ; 0.0
61 ; 2728341.3906092234 ; 2.0072403108268744E8 ; 1.606800301509074E8 ; 1.061508283449719E10 ; 0.0
62 ; 2727057.8290913776 ; 2.0072904255876827E8 ; 1.6340837154151663E8 ; 1.0815806865579878E10 ; 0.0
63 ; 2728852.4755995097 ; 2.007340850823019E8 ; 1.66135429370608E8 ; 1.1016535908138645E10 ; 0.0
64 ; 2728937.5105346157 ; 2.0073915720643675E8 ; 1.688642818462075E8 ; 1.1217269993220947E10 ; 0.0
65 ; 2728806.8856297717 ; 2.007442575376952E8 ; 1.715932193567421E8 ; 1.1418009150427383E10 ; 0.0
66 ; 2731223.0716561275 ; 2.007493847338873E8 ; 1.743220262423719E8 ; 1.1618753407965078E10 ; 0.0
67 ; 2731373.9560258174 ; 2.0075453750207594E8 ; 1.7705324931402802E8 ; 1.1819502792698965E10 ; 0.0
68 ; 2730188.1434328035 ; 2.00759714596597E8 ; 1.7978462327005383E8 ; 1.202025733020104E10 ; 0.0
69 ; 2731219.850473869 ; 2.0076491481713805E8 ; 1.8251481141348663E8 ; 1.2221017044797638E10 ; 0.0
70 ; 2732353.7088436177 ; 2.0077013700687677E8 ; 1.852460312639605E8 ; 1.2421781959614777E10 ; 0.0
71 ; 2731692.640888434 ; 2.0077538005068073E8 ; 1.8797838497280413E8 ; 1.2622552096621653E10 ; 0.0
72 ; 2731766.966070711 ; 2.0078064287336937E8 ; 1.9071007761369255E8 ; 1.2823327476672333E10 ; 0.0
73 ; 2732992.5895804944 ; 2.007859244380382E8 ; 1.9344184457976326E8 ; 1.3024108119545702E10 ; 0.0
74 ; 2732982.966583291 ; 2.0079122374444494E8 ; 1.9617483716934377E8 ; 1.322489404398374E10 ; 0.0
75 ; 2732375.3962877844 ; 2.007965398274575E8 ; 1.9890782013592705E8 ; 1.3425685267728186E10 ; 0.0
76 ; 2733837.1478030127 ; 2.008018717555624E8 ; 2.0164019553221485E8 ; 1.3626481807555643E10 ; 0.0
77 ; 2732608.72329939 ; 2.0080721862943292E8 ; 2.0437403268001786E8 ; 1.3827283679311205E10 ; 0.0
78 ; 2733345.0492908754 ; 2.0081257958055553E8 ; 2.0710664140331724E8 ; 1.4028090897940638E10 ; 0.0
79 ; 2731553.9874180756 ; 2.0081795376991323E8 ; 2.098399864526081E8 ; 1.4228903477521193E10 ; 0.0
80 ; 2731182.9094851366 ; 2.0082334038672435E8 ; 2.125715404400262E8 ; 1.4429721431291105E10 ; 0.0
81 ; 2730378.584572334 ; 2.0082873864723495E8 ; 2.1530272334951133E8 ; 1.463054477167783E10 ; 0.0
82 ; 2729887.259464113 ; 2.0083414779356313E8 ; 2.1803310193408367E8 ; 1.4831373510325066E10 ; 0.0
83 ; 2729393.448484926 ; 2.0083956709259397E8 ; 2.207629891935478E8 ; 1.503220765811863E10 ; 0.0
84 ; 2727878.9784263223 ; 2.008449958349225E8 ; 2.234923826420327E8 ; 1.5233047225211224E10 ; 0.0
85 ; 2726601.2085943096 ; 2.0085043333384377E8 ; 2.2622026162045902E8 ; 1.5433892221046146E10 ; 0.0
86 ; 2726880.4303908134 ; 2.008558789243875E8 ; 2.2894686282905334E8 ; 1.563474265437999E10 ; 0.0
87 ; 2725594.155066579 ; 2.0086133196239626E8 ; 2.3167374325944415E8 ; 1.5835598533304377E10 ; 0.0
88 ; 2723917.160997503 ; 2.0086679182364473E8 ; 2.3439933741451073E8 ; 1.6036459865266773E10 ; 0.0
89 ; 2723275.657182888 ; 2.0087225790299895E8 ; 2.3712325457550824E8 ; 1.6237326657090418E10 ; 0.0
90 ; 2721918.81157124 ; 2.008777296136135E8 ; 2.3984653023269114E8 ; 1.6438198914993418E10 ; 0.0
91 ; 2721649.697760453 ; 2.00883206386165E8 ; 2.4256844904426238E8 ; 1.663907664460703E10 ; 0.0
92 ; 2718925.891110552 ; 2.0088868766812083E8 ; 2.4529009874202284E8 ; 1.6839959850993196E10 ; 0.0
93 ; 2718317.8582121683 ; 2.0089417292304063E8 ; 2.4800902463313338E8 ; 1.7040848538661318E10 ; 0.0
94 ; 2718769.01801816 ; 2.0089966162991008E8 ; 2.5072734249134555E8 ; 1.724174271158436E10 ; 0.0
95 ; 2715420.0929697966 ; 2.009051532825049E8 ; 2.534461115093637E8 ; 1.7442642373214268E10 ; 0.0
96 ; 2713395.027046543 ; 2.0091064738878363E8 ; 2.5616153160233352E8 ; 1.7643547526496773E10 ; 0.0
97 ; 2713267.961447888 ; 2.009161434703087E8 ; 2.5887492662938005E8 ; 1.7844458173885555E10 ; 0.0
98 ; 2712446.0872275643 ; 2.009216410616932E8 ; 2.6158819459082794E8 ; 1.8045374317355865E10 ; 0.0
99 ; 2710861.189823875 ; 2.0092713971007326E8 ; 2.643006406780555E8 ; 1.8246295958417557E10 ; 0.0
100 ; 2709860.2374571785 ; 2.0093263897460452E8 ; 2.6701150186787936E8 ; 1.844722309812763E10 ; 0.0
101 ; 2709098.7368969508 ; 2.0093813842598104E8 ; 2.6972136210533655E8 ; 1.8648155737102234E10 ; 0.0
102 ; 2707695.363973272 ; 2.009436376459765E8 ; 2.724304608422335E8 ; 1.8849093875528214E10 ; 0.0
103 ; 2706342.732400198 ; 2.0094913622700596E8 ; 2.7513815620620674E8 ; 1.905003751317419E10 ; 0.0
104 ; 2703628.748187997 ; 2.0095463377170733E8 ; 2.778444989386069E8 ; 1.9250986649401196E10 ; 0.0
105 ; 2702972.803555062 ; 2.0096012989254192E8 ; 2.8054812768679494E8 ; 1.94519412831729E10 ; 0.0
106 ; 2701287.6805091635 ; 2.0096562421141282E8 ; 2.8325110049035E8 ; 1.9652901413065445E10 ; 0.0
107 ; 2699995.791558216 ; 2.0097111635930052E8 ; 2.8595238817085916E8 ; 1.985386703727686E10 ; 0.0
108 ; 2697672.9521690956 ; 2.0097660597591466E8 ; 2.8865238396241736E8 ; 2.0054838153636158E10 ; 0.0
109 ; 2695851.95059266 ; 2.0098209270936146E8 ; 2.913500569145865E8 ; 2.0255814759612072E10 ; 0.0
110 ; 2694053.199896612 ; 2.0098757621582592E8 ; 2.940459088651791E8 ; 2.0456796852321434E10 ; 0.0
111 ; 2692832.3042222816 ; 2.0099305615926796E8 ; 2.9673996206507576E8 ; 2.065778442853726E10 ; 0.0
112 ; 2692093.8161072643 ; 2.0099853221113232E8 ; 2.9943279436929804E8 ; 2.0858777484696526E10 ; 0.0
113 ; 2690833.809491028 ; 2.0100400405007088E8 ; 3.021248881854053E8 ; 2.1059776016907658E10 ; 0.0
114 ; 2688855.1454143515 ; 2.010094713616774E8 ; 3.0481572199489635E8 ; 2.126078002095773E10 ; 0.0
115 ; 2686515.3098739875 ; 2.0101493383823377E8 ; 3.075045771403107E8 ; 2.146178949231941E10 ; 0.0
116 ; 2686132.0849572304 ; 2.0102039117846727E8 ; 3.101910924501847E8 ; 2.1662804426157642E10 ; 0.0
117 ; 2683217.2174934754 ; 2.010258430873186E8 ; 3.1287722453514194E8 ; 2.186382481733611E10 ; 0.0
118 ; 2681508.41689786 ; 2.0103128927571967E8 ; 3.155604417526354E8 ; 2.2064850660423428E10 ; 0.0
119 ; 2678429.1749370894 ; 2.0103672946038112E8 ; 3.1824195016953325E8 ; 2.2265881949699146E10 ; 0.0
120 ; 2679278.8388091675 ; 2.010421633635889E8 ; 3.209203793444703E8 ; 2.2466918679159527E10 ; 0.0
121 ; 2677352.8271981 ; 2.0104759071300966E8 ; 3.235996581832795E8 ; 2.2667960842523117E10 ; 0.0
122 ; 2673938.256537244 ; 2.010530112415043E8 ; 3.262770110104776E8 ; 2.2869008433236126E10 ; 0.0
123 ; 2673971.049139429 ; 2.010584246869495E8 ; 3.2895094926701486E8 ; 2.307006144447763E10 ; 0.0
124 ; 2670504.87281092 ; 2.010638307920667E8 ; 3.316249203161543E8 ; 2.327111986916458E10 ; 0.0
125 ; 2669030.043520475 ; 2.0106922930425856E8 ; 3.342954251889652E8 ; 2.347218369995665E10 ; 0.0
126 ; 2666859.1401219754 ; 2.010746199754518E8 ; 3.3696445523248565E8 ; 2.367325292926091E10 ; 0.0
127 ; 2664709.2191548757 ; 2.010800025619471E8 ; 3.3963131437260765E8 ; 2.3874327549236362E10 ; 0.0
128 ; 2663744.7927688826 ; 2.0108537682427496E8 ; 3.4229602359176254E8 ; 2.407540755179831E10 ; 0.0
129 ; 2661721.09576469 ; 2.0109074252705744E8 ; 3.4495976838453144E8 ; 2.4276492928622585E10 ; 0.0
130 ; 2659478.859056169 ; 2.0109609943887594E8 ; 3.4762148948029613E8 ; 2.4477583671149643E10 ; 0.0
131 ; 2656675.924738437 ; 2.0110144733214414E8 ; 3.502809683393523E8 ; 2.467867977058852E10 ; 0.0
132 ; 2652741.6885974547 ; 2.0110678598298615E8 ; 3.529376442640908E8 ; 2.4879781217920666E10 ; 0.0
133 ; 2650899.198097448 ; 2.0111211517111975E8 ; 3.555903859526882E8 ; 2.5080888003903652E10 ; 0.0
134 ; 2645599.75674568 ; 2.011174346797443E8 ; 3.582412851507857E8 ; 2.528200011907477E10 ; 0.0
135 ; 2644574.178187272 ; 2.0112274429543316E8 ; 3.608868849075314E8 ; 2.5483117553754517E10 ; 0.0
136 ; 2640382.498537536 ; 2.0112804380803043E8 ; 3.6353145908571863E8 ; 2.568424029804995E10 ; 0.0
137 ; 2638126.7274282114 ; 2.011333330105518E8 ; 3.661718415842562E8 ; 2.588536834185798E10 ; 0.0
138 ; 2634796.8058201917 ; 2.0113861169908962E8 ; 3.6880996831168437E8 ; 2.608650167486853E10 ; 0.0
139 ; 2633457.985330929 ; 2.011438796727212E8 ; 3.7144476511750454E8 ; 2.628764028656762E10 ; 0.0
140 ; 2627017.1294905324 ; 2.0114913673342127E8 ; 3.740782231028355E8 ; 2.648878416624034E10 ; 0.0
141 ; 2626399.542925458 ; 2.0115438268597767E8 ; 3.7670524023232603E8 ; 2.6689933302973763E10 ; 0.0
142 ; 2623679.4528371664 ; 2.0115961733791023E8 ; 3.793316397752515E8 ; 2.689108768565974E10 ; 0.0
143 ; 2619479.9546111193 ; 2.0116484049939308E8 ; 3.819553192280887E8 ; 2.709224730299765E10 ; 0.0
144 ; 2617898.531763966 ; 2.0117005198317975E8 ; 3.845747991826998E8 ; 2.7293412143497044E10 ; 0.0
145 ; 2614413.2983481963 ; 2.0117525160453132E8 ; 3.871926977144638E8 ; 2.7494582195480225E10 ; 0.0
146 ; 2612259.5884176595 ; 2.0118043918114722E8 ; 3.8980711101281196E8 ; 2.7695757447084755E10 ; 0.0
147 ; 2609479.775007166 ; 2.0118561453309888E8 ; 3.924193706012296E8 ; 2.7896937886265903E10 ; 0.0
148 ; 2608463.0980659155 ; 2.0119077748276567E8 ; 3.950288503762368E8 ; 2.8098123500799004E10 ; 0.0
149 ; 2604879.359350877 ; 2.0119592785477352E8 ; 3.976373134743027E8 ; 2.829931427828177E10 ; 0.0
150 ; 2601988.669044538 ; 2.0120106547593567E8 ; 4.0024219283365357E8 ; 2.8500510206136543E10 ; 0.0
151 ; 2600209.5812924905 ; 2.012061901751958E8 ; 4.028441815026981E8 ; 2.870171127161248E10 ; 0.0
152 ; 2598639.7291591265 ; 2.012113017835734E8 ; 4.0544439108399063E8 ; 2.8902917461787678E10 ; 0.0
153 ; 2596034.4661078253 ; 2.012164001341107E8 ; 4.0804303081314975E8 ; 2.910412876357125E10 ; 0.0
154 ; 2594191.9185209027 ; 2.0122148506182232E8 ; 4.106390652792576E8 ; 2.930534516370536E10 ; 0.0
155 ; 2591365.642723017 ; 2.0122655640364617E8 ; 4.132332571977785E8 ; 2.950656664876718E10 ; 0.0
156 ; 2589722.39835257 ; 2.0123161399839652E8 ; 4.1582462284050155E8 ; 2.9707793205170826E10 ; 0.0
157 ; 2586359.069499365 ; 2.0123665768671867E8 ; 4.184143452388541E8 ; 2.9909024819169224E10 ; 0.0
158 ; 2584207.4603507803 ; 2.0124168731104532E8 ; 4.210007043083535E8 ; 3.011026147685594E10 ; 0.0
159 ; 2583233.18878989 ; 2.0124670271555457E8 ; 4.2358491176870424E8 ; 3.031150316416699E10 ; 0.0
160 ; 2581668.049289277 ; 2.0125170374612933E8 ; 4.2616814495749414E8 ; 3.051274986688254E10 ; 0.0
161 ; 2577065.4689229517 ; 2.0125669025031847E8 ; 4.287498130067834E8 ; 3.071400157062867E10 ; 0.0
162 ; 2575047.265810811 ; 2.0126166207729915E8 ; 4.313268784757064E8 ; 3.0915258260878986E10 ; 0.0
163 ; 2573080.1537784776 ; 2.0126661907784054E8 ; 4.339019257415172E8 ; 3.1116519922956287E10 ; 0.0
164 ; 2570758.3472392275 ; 2.012715611042689E8 ; 4.364750058952957E8 ; 3.1317786542034126E10 ; 0.0
165 ; 2566742.1429507183 ; 2.01276488010434E8 ; 4.3904576424253494E8 ; 3.1519058103138393E10 ; 0.0
166 ; 2565562.9855143833 ; 2.012813996516766E8 ; 4.4161250638548565E8 ; 3.1720334591148827E10 ; 0.0
167 ; 2563052.9005433475 ; 2.012862958847971E8 ; 4.4417806937100005E8 ; 3.1921615990800503E10 ; 0.0
168 ; 2561486.372645018 ; 2.012911765680254E8 ; 4.467411222715434E8 ; 3.21229022866853E10 ; 0.0
169 ; 2561744.9512743405 ; 2.0129604156099182E8 ; 4.493026086441884E8 ; 3.2324193463253323E10 ; 0.0
170 ; 2555435.1644540755 ; 2.013008907246989E8 ; 4.5186435359546274E8 ; 3.2525489504814316E10 ; 0.0
171 ; 2554161.246571875 ; 2.0130572392149442E8 ; 4.5441978875991684E8 ; 3.2726790395539013E10 ; 0.0
172 ; 2552476.2507514083 ; 2.013105410150452E8 ; 4.5697395000648874E8 ; 3.2928096119460506E10 ; 0.0
173 ; 2549193.430114663 ; 2.0131534187031186E8 ; 4.595264262572402E8 ; 3.312940666047555E10 ; 0.0
174 ; 2546900.139063522 ; 2.013201263535245E8 ; 4.6207561968735486E8 ; 3.3330722002345863E10 ; 0.0
175 ; 2545176.449523557 ; 2.0132489433215925E8 ; 4.646225198264184E8 ; 3.3532042128699387E10 ; 0.0
176 ; 2545690.5168132484 ; 2.0132964567491546E8 ; 4.6716769627594197E8 ; 3.3733367023031548E10 ; 0.0
177 ; 2543176.0445944984 ; 2.0133438025169393E8 ; 4.6971338679275525E8 ; 3.3934696668706463E10 ; 0.0
178 ; 2541064.416423356 ; 2.0133909793357575E8 ; 4.722565628373498E8 ; 3.4136031048958157E10 ; 0.0
179 ; 2539482.7118766466 ; 2.0134379859280184E8 ; 4.7479762725377315E8 ; 3.433737014689173E10 ; 0.0
180 ; 2538724.1643946096 ; 2.013484821027533E8 ; 4.773371099656498E8 ; 3.4538713945484535E10 ; 0.0
181 ; 2536594.0534513625 ; 2.0135314833793235E8 ; 4.798758341300444E8 ; 3.474006242758729E10 ; 0.0
182 ; 2536112.5413107644 ; 2.01357797173944E8 ; 4.8241242818349576E8 ; 3.494141557592522E10 ; 0.0
183 ; 2534518.1393219787 ; 2.0136242848747817E8 ; 4.8494854072480655E8 ; 3.514277337309916E10 ; 0.0
184 ; 2533346.476567125 ; 2.013670421562928E8 ; 4.8748305886412853E8 ; 3.534413580158664E10 ; 0.0
185 ; 2532579.240196207 ; 2.0137163805919695E8 ; 4.900164053406957E8 ; 3.5545502843742935E10 ; 0.0
186 ; 2530640.092753684 ; 2.013762160760351E8 ; 4.925489845808919E8 ; 3.574687448180213E10 ; 0.0
187 ; 2528502.6168086575 ; 2.0138077608767155E8 ; 4.950796246736456E8 ; 3.594825069787817E10 ; 0.0
188 ; 2526635.617285505 ; 2.0138531797597548E8 ; 4.9760812729045427E8 ; 3.6149631473965836E10 ; 0.0
189 ; 2524935.7976538073 ; 2.013898416238065E8 ; 5.0013476290773976E8 ; 3.635101679194181E10 ; 0.0
190 ; 2524607.3625912336 ; 2.013943469150009E8 ; 5.0265969870539355E8 ; 3.655240663356562E10 ; 0.0
191 ; 2522826.9387032925 ; 2.0139883373435777E8 ; 5.0518430606798476E8 ; 3.675380098048062E10 ; 0.0
192 ; 2523217.124673979 ; 2.0140330196762642E8 ; 5.0770713300668806E8 ; 3.695519981421498E10 ; 0.0
193 ; 2518370.8081029546 ; 2.0140775150149354E8 ; 5.10230350131362E8 ; 3.715660311618261E10 ; 0.0
194 ; 2517640.315230662 ; 2.0141218222357106E8 ; 5.12748720939465E8 ; 3.7358010867684105E10 ; 0.0
195 ; 2517147.3804779425 ; 2.0141659402238435E8 ; 5.1526636125469565E8 ; 3.755942304990768E10 ; 0.0
196 ; 2515577.361798631 ; 2.01420986787361E8 ; 5.177835086351736E8 ; 3.776083964393006E10 ; 0.0
197 ; 2514690.5130116385 ; 2.0142536040881965E8 ; 5.2029908599697226E8 ; 3.796226063071742E10 ; 0.0
198 ; 2511692.4307829547 ; 2.0142971477795947E8 ; 5.228137765099839E8 ; 3.816368599112624E10 ; 0.0
199 ; 2511778.6068129395 ; 2.0143404978684986E8 ; 5.253254689407669E8 ; 3.8365115705904205E10 ; 0.0
200 ; 2511429.4686602494 ; 2.014383653284205E8 ; 5.278372475475798E8 ; 3.8566549755691055E10 ; 0.0
