CSV File for the City 3 on Day 182
1 - Minute m 
2 - Power Consumed at minute m 
3 - Power Produced at minute m 
4 - Energy Consumed since the beginning of the day 
5 - Energy Produced since the beginning of the day 
6 - Energy Lost since the beginning of the day on lines starting from the city
 
0 ; 503488.8558806969 ; 1.0547969764074972E8 ; 0.0 ; 0.0 ; 0.0
1 ; 506282.25293269363 ; 1.0563259954223198E8 ; 503488.8558806969 ; 1.0547969764074972E8 ; 0.0
2 ; 508402.2999882894 ; 1.0609428709683415E8 ; 1009771.1088133906 ; 2.111122971829817E8 ; 0.0
3 ; 511046.2546518663 ; 1.0686476215005255E8 ; 1518173.40880168 ; 3.1720658427981585E8 ; 0.0
4 ; 514329.8634913041 ; 1.0794402636155802E8 ; 2029219.6634535464 ; 4.240713464298684E8 ; 0.0
5 ; 518004.4140063947 ; 1.0933208119406992E8 ; 2543549.5269448506 ; 5.320153727914264E8 ; 0.0
6 ; 524125.6162737421 ; 1.1102892790331957E8 ; 3061553.9409512454 ; 6.413474539854963E8 ; 0.0
7 ; 530952.0403929126 ; 1.1303456752926105E8 ; 3585679.5572249875 ; 7.523763818888159E8 ; 0.0
8 ; 541268.8080581302 ; 1.1534900088867015E8 ; 4116631.5976179 ; 8.65410949418077E8 ; 0.0
9 ; 559911.9302045773 ; 1.1797222856925374E8 ; 4657900.405676031 ; 9.807599503067472E8 ; 0.0
10 ; 585949.9843290267 ; 1.2090425092536944E8 ; 5217812.335880607 ; 1.098732178876001E9 ; 0.0
11 ; 627702.9226894169 ; 1.2414506807542661E8 ; 5803762.320209634 ; 1.2196364298013704E9 ; 0.0
12 ; 692271.2192746842 ; 1.2769467990101585E8 ; 6431465.242899051 ; 1.343781497876797E9 ; 0.0
13 ; 756449.7134794805 ; 1.3155308604777956E8 ; 7123736.462173735 ; 1.4714761777778127E9 ; 0.0
14 ; 763977.109911038 ; 1.3572028592801094E8 ; 7880186.1756532155 ; 1.6030292638255923E9 ; 0.0
15 ; 766513.2961424945 ; 1.401962787249341E8 ; 8644163.285564253 ; 1.7387495497536032E9 ; 0.0
16 ; 769720.8424060806 ; 1.4498106339859506E8 ; 9410676.581706747 ; 1.8789458284785373E9 ; 0.0
17 ; 771543.5396327404 ; 1.5007463869326243E8 ; 1.0180397424112828E7 ; 2.0239268918771324E9 ; 0.0
18 ; 775065.4046781746 ; 1.5547700314621687E8 ; 1.0951940963745568E7 ; 2.174001530570395E9 ; 0.0
19 ; 777754.3079341091 ; 1.6118815509778753E8 ; 1.1727006368423743E7 ; 2.329478533716612E9 ; 0.0
20 ; 780866.0645289745 ; 1.6720809270247808E8 ; 1.2504760676357852E7 ; 2.4906666888143992E9 ; 0.0
21 ; 785011.2662263074 ; 1.7353681394101444E8 ; 1.3285626740886826E7 ; 2.657874781516877E9 ; 0.0
22 ; 787790.1219119385 ; 1.8017431663313872E8 ; 1.4070638007113133E7 ; 2.8314115954578915E9 ; 0.0
23 ; 789753.265410251 ; 1.8712059845097178E8 ; 1.4858428129025072E7 ; 3.01158591209103E9 ; 0.0
24 ; 794012.6530642676 ; 1.943756569327677E8 ; 1.5648181394435324E7 ; 3.1987065105420017E9 ; 0.0
25 ; 795672.426955583 ; 2.0062753039507398E8 ; 1.6442194047499591E7 ; 3.3930821674747696E9 ; 0.0
26 ; 799910.4746462201 ; 2.0062976398366153E8 ; 1.7237866474455174E7 ; 3.5937096978698435E9 ; 0.0
27 ; 803126.5694817078 ; 2.0063212421237034E8 ; 1.8037776949101396E7 ; 3.794339461853505E9 ; 0.0
28 ; 806603.1111224329 ; 2.0063460822359297E8 ; 1.8840903518583104E7 ; 3.9949715860658755E9 ; 0.0
29 ; 809607.1451746579 ; 2.0063721309487736E8 ; 1.9647506629705537E7 ; 4.1956061942894683E9 ; 0.0
30 ; 811478.5246584043 ; 2.0063993585182342E8 ; 2.0457113774880193E7 ; 4.396243407384346E9 ; 0.0
31 ; 814159.5709545319 ; 2.006427734804279E8 ; 2.1268592299538597E7 ; 4.59688334323617E9 ; 0.0
32 ; 817844.9602449429 ; 2.0064572293880355E8 ; 2.208275187049313E7 ; 4.797526116716598E9 ; 0.0
33 ; 820439.7532872951 ; 2.0064878116821417E8 ; 2.290059683073807E7 ; 4.998171839655401E9 ; 0.0
34 ; 821759.3293659211 ; 2.0065194510338268E8 ; 2.3721036584025368E7 ; 5.198820620823615E9 ; 0.0
35 ; 826659.9145166847 ; 2.0065521168204385E8 ; 2.454279591339129E7 ; 5.399472565926998E9 ; 0.0
36 ; 827056.0340776925 ; 2.0065857785372612E8 ; 2.5369455827907972E7 ; 5.600127777609042E9 ; 0.0
37 ; 830522.5940330409 ; 2.006620405877584E8 ; 2.6196511861985665E7 ; 5.800786355462769E9 ; 0.0
38 ; 831577.5702280438 ; 2.0066559688050875E8 ; 2.7027034456018705E7 ; 6.001448396050527E9 ; 0.0
39 ; 834141.3084170801 ; 2.006692437618701E8 ; 2.785861202624675E7 ; 6.202113992931035E9 ; 0.0
40 ; 836414.2626620686 ; 2.0067297830101517E8 ; 2.869275333466383E7 ; 6.402783236692905E9 ; 0.0
41 ; 839166.0601549876 ; 2.0067679761145028E8 ; 2.95291675973259E7 ; 6.60345621499392E9 ; 0.0
42 ; 840905.3099129188 ; 2.0068069885540032E8 ; 3.0368333657480888E7 ; 6.8041330126053705E9 ; 0.0
43 ; 842659.2563492031 ; 2.006846792475626E8 ; 3.1209238967393808E7 ; 7.004813711460771E9 ; 0.0
44 ; 845546.2640095811 ; 2.0068873605826843E8 ; 3.205189822374301E7 ; 7.205498390708333E9 ; 0.0
45 ; 845634.0800569875 ; 2.006928666160939E8 ; 3.289744448775259E7 ; 7.406187126766602E9 ; 0.0
46 ; 847467.0592199301 ; 2.0069706830996057E8 ; 3.3743078567809574E7 ; 7.606879993382695E9 ; 0.0
47 ; 848927.7019197935 ; 2.007013385907685E8 ; 3.45905456270295E7 ; 7.807577061692656E9 ; 0.0
48 ; 850732.7309722784 ; 2.007056749726021E8 ; 3.5439473328949295E7 ; 8.008278400283424E9 ; 0.0
49 ; 851083.5611730788 ; 2.007100750335488E8 ; 3.629020605992157E7 ; 8.208984075256026E9 ; 0.0
50 ; 852257.6425604995 ; 2.0071453641616893E8 ; 3.714128962109465E7 ; 8.409694150289575E9 ; 0.0
51 ; 854964.5371976703 ; 2.0071905682765356E8 ; 3.799354726365515E7 ; 8.610408686705744E9 ; 0.0
52 ; 853935.0974657042 ; 2.0072363403970513E8 ; 3.884851180085282E7 ; 8.811127743533398E9 ; 0.0
53 ; 857231.514369618 ; 2.0072826588817322E8 ; 3.970244689831852E7 ; 9.011851377573103E9 ; 0.0
54 ; 857233.528204039 ; 2.007329502724765E8 ; 4.0559678412688136E7 ; 9.212579643461277E9 ; 0.0
55 ; 857781.473591448 ; 2.0073768515483826E8 ; 4.1416911940892175E7 ; 9.413312593733753E9 ; 0.0
56 ; 857635.6205618829 ; 2.007424685593626E8 ; 4.227469341448362E7 ; 9.614050278888592E9 ; 0.0
57 ; 859446.6388224596 ; 2.0074729857097408E8 ; 4.3132329035045505E7 ; 9.814792747447954E9 ; 0.0
58 ; 860569.3488547028 ; 2.0075217333424383E8 ; 4.399177567386796E7 ; 1.0015540046018929E10 ; 0.0
59 ; 860864.162413607 ; 2.007570910521207E8 ; 4.485234502272267E7 ; 1.0216292219353172E10 ; 0.0
60 ; 862003.0265206498 ; 2.0076204998458582E8 ; 4.571320918513627E7 ; 1.0417049310405293E10 ; 0.0
61 ; 864156.0610572662 ; 2.007670484472471E8 ; 4.657521221165692E7 ; 1.061781136038988E10 ; 0.0
62 ; 864116.170306817 ; 2.0077208480988675E8 ; 4.743936827271419E7 ; 1.0818578408837126E10 ; 0.0
63 ; 863109.3208377822 ; 2.0077715749497595E8 ; 4.830348444302101E7 ; 1.1019350493647013E10 ; 0.0
64 ; 865336.7584135417 ; 2.0078226497616658E8 ; 4.916659376385879E7 ; 1.1220127651141989E10 ; 0.0
65 ; 866170.9126421933 ; 2.0078740577677107E8 ; 5.0031930522272326E7 ; 1.1420909916118155E10 ; 0.0
66 ; 868310.1146642152 ; 2.007925784682384E8 ; 5.089810143491452E7 ; 1.1621697321894926E10 ; 0.0
67 ; 866975.0907697405 ; 2.007977816686339E8 ; 5.1766411549578734E7 ; 1.1822489900363165E10 ; 0.0
68 ; 868939.5605464912 ; 2.0080301404112935E8 ; 5.263338664034847E7 ; 1.20232876820318E10 ; 0.0
69 ; 867901.018756783 ; 2.0080827429250902E8 ; 5.350232620089496E7 ; 1.222409069607293E10 ; 0.0
70 ; 870465.1809710112 ; 2.0081356117169654E8 ; 5.4370227219651744E7 ; 1.2424898970365438E10 ; 0.0
71 ; 870125.3901611714 ; 2.00818873468306E8 ; 5.5240692400622755E7 ; 1.2625712531537134E10 ; 0.0
72 ; 869606.6812557738 ; 2.0082421001122156E8 ; 5.611081779078393E7 ; 1.282653140500544E10 ; 0.0
73 ; 870535.00858373 ; 2.008295696672071E8 ; 5.69804244720397E7 ; 1.302735561501666E10 ; 0.0
74 ; 871438.0933133495 ; 2.0083495133954924E8 ; 5.785095948062343E7 ; 1.3228185184683868E10 ; 0.0
75 ; 872862.3614666241 ; 2.0084035396673456E8 ; 5.872239757393678E7 ; 1.3429020136023418E10 ; 0.0
76 ; 874449.8413800951 ; 2.008457765211629E8 ; 5.959525993540341E7 ; 1.3629860489990152E10 ; 0.0
77 ; 873607.9858598761 ; 2.0085121800789732E8 ; 6.04697097767835E7 ; 1.3830706266511314E10 ; 0.0
78 ; 873962.8085157968 ; 2.0085667746345145E8 ; 6.134331776264338E7 ; 1.403155748451921E10 ; 0.0
79 ; 873373.1514323885 ; 2.008621539546146E8 ; 6.221728057115918E7 ; 1.4232414161982662E10 ; 0.0
80 ; 872744.0638016182 ; 2.0086764657731482E8 ; 6.3090653722591564E7 ; 1.4433276315937277E10 ; 0.0
81 ; 870296.1981482352 ; 2.0087315445551956E8 ; 6.396339778639318E7 ; 1.4634143962514591E10 ; 0.0
82 ; 872225.917475958 ; 2.008786767401738E8 ; 6.4833693984541416E7 ; 1.483501711697011E10 ; 0.0
83 ; 872049.2163498849 ; 2.008842126081753E8 ; 6.570591990201738E7 ; 1.5035895793710283E10 ; 0.0
84 ; 871808.1557942616 ; 2.0088976126138642E8 ; 6.657796911836726E7 ; 1.5236780006318459E10 ; 0.0
85 ; 869430.9503713313 ; 2.0089532192568156E8 ; 6.744977727416152E7 ; 1.5437669767579845E10 ; 0.0
86 ; 870926.4598679431 ; 2.0090089385002983E8 ; 6.831920822453284E7 ; 1.5638565089505527E10 ; 0.0
87 ; 869460.4925049116 ; 2.0090647630561212E8 ; 6.919013468440078E7 ; 1.5839465983355556E10 ; 0.0
88 ; 869229.016133845 ; 2.009120685849715E8 ; 7.005959517690569E7 ; 1.604037245966117E10 ; 0.0
89 ; 869268.9948037631 ; 2.0091767000119612E8 ; 7.092882419303954E7 ; 1.6241284528246141E10 ; 0.0
90 ; 866820.6468534268 ; 2.0092327988713402E8 ; 7.17980931878433E7 ; 1.6442202198247337E10 ; 0.0
91 ; 868143.1060422785 ; 2.009288975946382E8 ; 7.266491383469673E7 ; 1.6643125478134472E10 ; 0.0
92 ; 867491.0055199439 ; 2.0093452249384168E8 ; 7.3533056940739E7 ; 1.684405437572911E10 ; 0.0
93 ; 866047.8093103498 ; 2.0094015397246128E8 ; 7.440054794625895E7 ; 1.7044988898222952E10 ; 0.0
94 ; 865835.6493643658 ; 2.0094579143512908E8 ; 7.52665957555693E7 ; 1.724592905219541E10 ; 0.0
95 ; 866040.8169038568 ; 2.0095143430275062E8 ; 7.613243140493366E7 ; 1.744687484363054E10 ; 0.0
96 ; 864100.3773519098 ; 2.0095708201188928E8 ; 7.699847222183752E7 ; 1.764782627793329E10 ; 0.0
97 ; 864814.5405505516 ; 2.0096273401417512E8 ; 7.786257259918943E7 ; 1.784878335994518E10 ; 0.0
98 ; 863960.9579017295 ; 2.00968389775738E8 ; 7.872738713973998E7 ; 1.8049746093959354E10 ; 0.0
99 ; 862763.1028141282 ; 2.0097404877666378E8 ; 7.95913480976417E7 ; 1.8250714483735092E10 ; 0.0
100 ; 861662.2075572198 ; 2.0097971051047254E8 ; 8.045411120045583E7 ; 1.8451688532511757E10 ; 0.0
101 ; 861201.9410853955 ; 2.0098537448361817E8 ; 8.131577340801305E7 ; 1.865266824302223E10 ; 0.0
102 ; 860474.8576886884 ; 2.0099104021500868E8 ; 8.217697534909844E7 ; 1.8853653617505848E10 ; 0.0
103 ; 859248.6829206051 ; 2.0099670723554578E8 ; 8.303745020678714E7 ; 1.9054644657720856E10 ; 0.0
104 ; 858166.3933683785 ; 2.0100237508768374E8 ; 8.389669888970774E7 ; 1.92556413649564E10 ; 0.0
105 ; 857711.3696306333 ; 2.01008043325006E8 ; 8.475486528307612E7 ; 1.9456643740044086E10 ; 0.0
106 ; 857131.2875776148 ; 2.0101371151181945E8 ; 8.561257665270676E7 ; 1.965765178336909E10 ; 0.0
107 ; 855594.3668183833 ; 2.0101937922276515E8 ; 8.646970794028437E7 ; 1.985866549488091E10 ; 0.0
108 ; 854913.1096395792 ; 2.0102504604244512E8 ; 8.732530230710275E7 ; 2.0059684874103676E10 ; 0.0
109 ; 854345.8531325986 ; 2.010307115650645E8 ; 8.818021541674234E7 ; 2.0260709920146122E10 ; 0.0
110 ; 852849.7627012478 ; 2.010363753940881E8 ; 8.903456126987495E7 ; 2.0461740631711185E10 ; 0.0
111 ; 851148.3847571409 ; 2.0104203714191127E8 ; 8.988741103257619E7 ; 2.0662777007105274E10 ; 0.0
112 ; 853196.616671972 ; 2.0104769642954418E8 ; 9.073855941733333E7 ; 2.0863819044247185E10 ; 0.0
113 ; 850783.3210766551 ; 2.010533528863088E8 ; 9.159175603400531E7 ; 2.1064866740676727E10 ; 0.0
114 ; 850597.1411901835 ; 2.0105900614954832E8 ; 9.244253935508198E7 ; 2.1265920093563038E10 ; 0.0
115 ; 848613.815278298 ; 2.0106465586434865E8 ; 9.329313649627216E7 ; 2.1466979099712585E10 ; 0.0
116 ; 848122.5075056246 ; 2.010703016832706E8 ; 9.414175031155045E7 ; 2.1668043755576935E10 ; 0.0
117 ; 845458.4289817343 ; 2.0107594326609352E8 ; 9.498987281905608E7 ; 2.1869114057260204E10 ; 0.0
118 ; 846351.802110991 ; 2.0108158027956906E8 ; 9.583533124803782E7 ; 2.20701900005263E10 ; 0.0
119 ; 843795.371521465 ; 2.0108721239718467E8 ; 9.66816830501488E7 ; 2.2271271580805866E10 ; 0.0
120 ; 843557.3625917404 ; 2.010928392989369E8 ; 9.752547842167026E7 ; 2.2472358793203053E10 ; 0.0
121 ; 842424.8755193795 ; 2.0109846067111373E8 ; 9.8369035784262E7 ; 2.267345163250199E10 ; 0.0
122 ; 842363.2757177036 ; 2.0110407620608538E8 ; 9.921146065978138E7 ; 2.2874550093173103E10 ; 0.0
123 ; 840978.6422799722 ; 2.011096856021038E8 ; 1.0005382393549909E8 ; 2.307565416937919E10 ; 0.0
124 ; 839357.3494295055 ; 2.0111528856310976E8 ; 1.0089480257777905E8 ; 2.3276763854981293E10 ; 0.0
125 ; 837603.7970454314 ; 2.0112088479854804E8 ; 1.0173415992720856E8 ; 2.3477879143544403E10 ; 0.0
126 ; 837324.530354741 ; 2.0112647402318949E8 ; 1.0257176372425398E8 ; 2.3679000028342953E10 ; 0.0
127 ; 834619.9051788229 ; 2.011320559569604E8 ; 1.0340908825460872E8 ; 2.3880126502366142E10 ; 0.0
128 ; 833977.5587482933 ; 2.0113763032477844E8 ; 1.0424370815978755E8 ; 2.40812585583231E10 ; 0.0
129 ; 833103.6876474951 ; 2.0114319685639495E8 ; 1.0507768571853584E8 ; 2.428239618864788E10 ; 0.0
130 ; 831707.2551561143 ; 2.0114875528624377E8 ; 1.0591078940618333E8 ; 2.4483539385504276E10 ; 0.0
131 ; 830261.6955184327 ; 2.0115430535329533E8 ; 1.0674249666133945E8 ; 2.468468814079052E10 ; 0.0
132 ; 828170.2430195784 ; 2.0115984680091703E8 ; 1.0757275835685788E8 ; 2.4885842446143814E10 ; 0.0
133 ; 825985.3459596945 ; 2.011653793767386E8 ; 1.0840092859987746E8 ; 2.5087002292944733E10 ; 0.0
134 ; 822192.3001186203 ; 2.0117090283252287E8 ; 1.0922691394583715E8 ; 2.5288167672321472E10 ; 0.0
135 ; 820487.9964334517 ; 2.0117641692404127E8 ; 1.1004910624595578E8 ; 2.5489338575153996E10 ; 0.0
136 ; 819084.0375143474 ; 2.0118192141095442E8 ; 1.1086959424238923E8 ; 2.5690514992078037E10 ; 0.0
137 ; 815884.8754533934 ; 2.01187416056697E8 ; 1.1168867827990358E8 ; 2.589169691348899E10 ; 0.0
138 ; 813859.9459425771 ; 2.0119290062836716E8 ; 1.1250456315535697E8 ; 2.609288432954569E10 ; 0.0
139 ; 812245.7860097385 ; 2.0119837489661998E8 ; 1.1331842310129955E8 ; 2.6294077230174057E10 ; 0.0
140 ; 808976.8496250369 ; 2.0120383863556504E8 ; 1.141306688873093E8 ; 2.649527560507068E10 ; 0.0
141 ; 808192.4800547103 ; 2.0120929162266797E8 ; 1.1493964573693433E8 ; 2.6696479443706245E10 ; 0.0
142 ; 806517.874076486 ; 2.012147336386553E8 ; 1.1574783821698904E8 ; 2.6897688735328915E10 ; 0.0
143 ; 803239.7330034387 ; 2.0122016446742338E8 ; 1.1655435609106553E8 ; 2.709890346896757E10 ; 0.0
144 ; 801087.3932552696 ; 2.012255838959502E8 ; 1.1735759582406896E8 ; 2.7300123633434994E10 ; 0.0
145 ; 800903.1546152144 ; 2.0123099171421093E8 ; 1.1815868321732423E8 ; 2.7501349217330944E10 ; 0.0
146 ; 798717.9870249815 ; 2.0123638771509618E8 ; 1.1895958637193944E8 ; 2.7702580209045155E10 ; 0.0
147 ; 798162.885889015 ; 2.0124177169433346E8 ; 1.1975830435896441E8 ; 2.790381659676025E10 ; 0.0
148 ; 796575.0154880215 ; 2.012471434504117E8 ; 1.2055646724485342E8 ; 2.8105058368454582E10 ; 0.0
149 ; 794951.8350411308 ; 2.0125250278450817E8 ; 1.2135304226034145E8 ; 2.8306305511904995E10 ; 0.0
150 ; 792789.5303148146 ; 2.0125784950041822E8 ; 1.2214799409538259E8 ; 2.8507558014689503E10 ; 0.0
151 ; 792141.3839680457 ; 2.012631834044877E8 ; 1.229407836256974E8 ; 2.8708815864189922E10 ; 0.0
152 ; 789325.5856046343 ; 2.0126850430554774E8 ; 1.2373292500966544E8 ; 2.891007904759441E10 ; 0.0
153 ; 789846.5532655268 ; 2.0127381201485172E8 ; 1.2452225059527008E8 ; 2.911134755189996E10 ; 0.0
154 ; 788646.1677275997 ; 2.0127910634601474E8 ; 1.2531209714853561E8 ; 2.931262136391481E10 ; 0.0
155 ; 786621.9951106212 ; 2.0128438711495516E8 ; 1.2610074331626321E8 ; 2.9513900470260826E10 ; 0.0
156 ; 785334.9179161073 ; 2.0128965413983825E8 ; 1.2688736531137383E8 ; 2.9715184857375782E10 ; 0.0
157 ; 782390.3755144186 ; 2.0129490724102172E8 ; 1.2767270022928993E8 ; 2.991647451151562E10 ; 0.0
158 ; 782463.8761900013 ; 2.0130014624100348E8 ; 1.2845509060480435E8 ; 3.011776941875664E10 ; 0.0
159 ; 781920.9374619975 ; 2.0130537096437085E8 ; 1.2923755448099436E8 ; 3.0319069564997646E10 ; 0.0
160 ; 780771.0332138757 ; 2.0131058123775193E8 ; 1.3001947541845636E8 ; 3.0520374935962017E10 ; 0.0
161 ; 779716.8455801627 ; 2.013157768897684E8 ; 1.3080024645167023E8 ; 3.0721685517199768E10 ; 0.0
162 ; 777820.8787864494 ; 2.0132095775099015E8 ; 1.3157996329725039E8 ; 3.0923001294089535E10 ; 0.0
163 ; 777329.4963271195 ; 2.0132612365389144E8 ; 1.3235778417603683E8 ; 3.1124322251840527E10 ; 0.0
164 ; 775355.3286785119 ; 2.013312744328085E8 ; 1.3313511367236395E8 ; 3.132564837549442E10 ; 0.0
165 ; 772827.3908176974 ; 2.0133640992389873E8 ; 1.3391046900104247E8 ; 3.1526979649927227E10 ; 0.0
166 ; 772612.9318498368 ; 2.013415299651012E8 ; 1.3468329639186016E8 ; 3.1728316059851128E10 ; 0.0
167 ; 771156.8031355418 ; 2.0134663439609873E8 ; 1.3545590932371E8 ; 3.1929657589816227E10 ; 0.0
168 ; 769912.7340391148 ; 2.013517230582808E8 ; 1.3622706612684554E8 ; 3.2131004224212326E10 ; 0.0
169 ; 769189.5753204725 ; 2.0135679579470834E8 ; 1.3699697886088467E8 ; 3.2332355947270607E10 ; 0.0
170 ; 768034.8352717685 ; 2.0136185245007923E8 ; 1.3776616843620515E8 ; 3.2533712743065315E10 ; 0.0
171 ; 765757.5209810033 ; 2.0136689287069523E8 ; 1.3853420327147692E8 ; 3.2735074595515396E10 ; 0.0
172 ; 763740.8359756813 ; 2.0137191690442997E8 ; 1.3929996079245794E8 ; 3.2936441488386093E10 ; 0.0
173 ; 762819.3454844739 ; 2.01376924400698E8 ; 1.4006370162843361E8 ; 3.3137813405290524E10 ; 0.0
174 ; 762247.5262349314 ; 2.0138191521042487E8 ; 1.4082652097391808E8 ; 3.3339190329691223E10 ; 0.0
175 ; 759532.4210386026 ; 2.013868891860183E8 ; 1.41588768500153E8 ; 3.354057224490165E10 ; 0.0
176 ; 761278.4544357146 ; 2.013918461813402E8 ; 1.423483009211916E8 ; 3.374195913408767E10 ; 0.0
177 ; 759484.7196368941 ; 2.013967860516798E8 ; 1.431095793756273E8 ; 3.394335098026901E10 ; 0.0
178 ; 759488.3717563588 ; 2.0140170865372744E8 ; 1.438690640952642E8 ; 3.414474776632069E10 ; 0.0
179 ; 758454.1174633484 ; 2.0140661384554943E8 ; 1.4462855246702054E8 ; 3.434614947497442E10 ; 0.0
180 ; 753479.5477577075 ; 2.014115014865637E8 ; 1.453870065844839E8 ; 3.454755608881997E10 ; 0.0
181 ; 755342.4582619246 ; 2.0141637143751618E8 ; 1.461404861322416E8 ; 3.474896759030653E10 ; 0.0
182 ; 752815.608607597 ; 2.0142122356045794E8 ; 1.4689582859050354E8 ; 3.495038396174405E10 ; 0.0
183 ; 753329.0571861118 ; 2.014260577187233E8 ; 1.4764864419911113E8 ; 3.5151805185304504E10 ; 0.0
184 ; 753075.9001483464 ; 2.0143087377690843E8 ; 1.4840197325629723E8 ; 3.5353231243023224E10 ; 0.0
185 ; 750511.8293277251 ; 2.0143567160085076E8 ; 1.4915504915644556E8 ; 3.555466211680013E10 ; 0.0
186 ; 749538.7549100145 ; 2.01440451057609E8 ; 1.499055609857733E8 ; 3.5756097788400986E10 ; 0.0
187 ; 749420.9616940706 ; 2.0144521201544386E8 ; 1.5065509974068332E8 ; 3.5957538239458595E10 ; 0.0
188 ; 748761.2847394041 ; 2.0144995434379944E8 ; 1.5140452070237738E8 ; 3.615898345147404E10 ; 0.0
189 ; 746348.1266128691 ; 2.0145467791328514E8 ; 1.5215328198711678E8 ; 3.636043340581783E10 ; 0.0
190 ; 746331.275533468 ; 2.014593825956581E8 ; 1.5289963011372966E8 ; 3.656188808373112E10 ; 0.0
191 ; 746113.1107063221 ; 2.014640682638064E8 ; 1.5364596138926312E8 ; 3.6763347466326775E10 ; 0.0
192 ; 743665.5602350546 ; 2.0146873479173273E8 ; 1.5439207449996945E8 ; 3.696481153459058E10 ; 0.0
193 ; 744003.7662978703 ; 2.014733820545384E8 ; 1.551357400602045E8 ; 3.716628026938232E10 ; 0.0
194 ; 741698.232195872 ; 2.014780099284082E8 ; 1.5587974382650238E8 ; 3.736775365143685E10 ; 0.0
195 ; 742052.0954299963 ; 2.014826182905954E8 ; 1.5662144205869827E8 ; 3.756923166136526E10 ; 0.0
196 ; 739890.6816341091 ; 2.0148720701940757E8 ; 1.5736349415412825E8 ; 3.777071427965585E10 ; 0.0
197 ; 738733.600946003 ; 2.0149177599419248E8 ; 1.5810338483576235E8 ; 3.797220148667526E10 ; 0.0
198 ; 736979.7286994336 ; 2.0149632509532475E8 ; 1.5884211843670836E8 ; 3.817369326266946E10 ; 0.0
199 ; 737626.6800530548 ; 2.015008542041929E8 ; 1.595790981654078E8 ; 3.837518958776478E10 ; 0.0
200 ; 735049.2183567282 ; 2.0150536320318666E8 ; 1.6031672484546086E8 ; 3.857669044196897E10 ; 0.0
201 ; 734793.5355382084 ; 1.9092389096903688E8 ; 1.610517740638176E8 ; 3.877819580517216E10 ; 0.0
