CSV File for the City 3 on Day 322
1 - Minute m 
2 - Power Consumed at minute m 
3 - Power Produced at minute m 
4 - Energy Consumed since the beginning of the day 
5 - Energy Produced since the beginning of the day 
6 - Energy Lost since the beginning of the day on lines starting from the city
 
0 ; 2403658.6888855984 ; 1.057701213149288E8 ; 0.0 ; 0.0 ; 0.0
1 ; 2405868.6004706137 ; 1.0592299309444368E8 ; 2403658.6888855984 ; 1.057701213149288E8 ; 0.0
2 ; 2406685.3825153043 ; 1.0638465616259238E8 ; 4809527.289356212 ; 2.1169311440937248E8 ; 0.0
3 ; 2409910.1646258677 ; 1.0715511158128965E8 ; 7216212.671871517 ; 3.1807777057196486E8 ; 0.0
4 ; 2416042.500295935 ; 1.0823436029704404E8 ; 9626122.836497385 ; 4.252328821532545E8 ; 0.0
5 ; 2420446.351677821 ; 1.0962240313748443E8 ; 1.204216533679332E7 ; 5.3346724245029855E8 ; 0.0
6 ; 2424593.262527404 ; 1.1131924080828515E8 ; 1.4462611688471142E7 ; 6.43089645587783E8 ; 0.0
7 ; 2433681.7219785703 ; 1.1332487389051628E8 ; 1.6887204950998545E7 ; 7.544088863960681E8 ; 0.0
8 ; 2444082.099078073 ; 1.156393028384425E8 ; 1.9320886672977116E7 ; 8.677337602865844E8 ; 0.0
9 ; 2460697.082025083 ; 1.1826252797779024E8 ; 2.176496877205519E7 ; 9.83373063125027E8 ; 0.0
10 ; 2485153.1204950786 ; 1.2119454950449812E8 ; 2.4225665854080275E7 ; 1.101635591102817E9 ; 0.0
11 ; 2527555.050368021 ; 1.244353674839631E8 ; 2.6710818974575352E7 ; 1.222830140607315E9 ; 0.0
12 ; 2594669.511237086 ; 1.279849818507882E8 ; 2.9238374024943374E7 ; 1.347265508091278E9 ; 0.0
13 ; 2658128.276315804 ; 1.3184339240903479E8 ; 3.183304353618046E7 ; 1.4752504899420662E9 ; 0.0
14 ; 2665472.5368113304 ; 1.3601059883297652E8 ; 3.449117181249626E7 ; 1.607093882351101E9 ; 0.0
15 ; 2668322.1803040146 ; 1.404866006683486E8 ; 3.715664434930759E7 ; 1.7431044811840775E9 ; 0.0
16 ; 2672206.489682482 ; 1.4527139733408108E8 ; 3.98249665296116E7 ; 1.883591081852426E9 ; 0.0
17 ; 2675754.630589579 ; 1.5036498812449953E8 ; 4.249717301929408E7 ; 2.0288624791865072E9 ; 0.0
18 ; 2678896.9545068103 ; 1.557673722119751E8 ; 4.5172927649883665E7 ; 2.1792274673110065E9 ; 0.0
19 ; 2682396.7649908746 ; 1.6147854864999923E8 ; 4.785182460439047E7 ; 2.3349948395229816E9 ; 0.0
20 ; 2683880.4245908787 ; 1.6749851637665716E8 ; 5.0534221369381346E7 ; 2.496473388172981E9 ; 0.0
21 ; 2687008.6941636875 ; 1.7382727421847025E8 ; 5.3218101793972224E7 ; 2.663971904549638E9 ; 0.0
22 ; 2692499.620623039 ; 1.8046482089457494E8 ; 5.590511048813591E7 ; 2.837799178768108E9 ; 0.0
23 ; 2695629.3615138996 ; 1.8741115502120483E8 ; 5.859761010875895E7 ; 3.018263999662683E9 ; 0.0
24 ; 2698863.1206974695 ; 1.9466627511643922E8 ; 6.129323947027285E7 ; 3.205675154683888E9 ; 0.0
25 ; 2701231.304830733 ; 2.009182205033661E8 ; 6.3992102590970315E7 ; 3.4003414298003273E9 ; 0.0
26 ; 2704867.854538966 ; 2.0092053735214984E8 ; 6.6693333895801045E7 ; 3.6012596503036933E9 ; 0.0
27 ; 2707877.7040285645 ; 2.009229932102627E8 ; 6.939820175034001E7 ; 3.8021801876558433E9 ; 0.0
28 ; 2710882.87454706 ; 2.0092558625470367E8 ; 7.210607945436858E7 ; 4.003103180866106E9 ; 0.0
29 ; 2713607.6161492723 ; 2.0092831459077272E8 ; 7.481696232891564E7 ; 4.2040287671208096E9 ; 0.0
30 ; 2717756.9692650065 ; 2.009311762576471E8 ; 7.753056994506492E7 ; 4.404957081711582E9 ; 0.0
31 ; 2719770.8839240554 ; 2.009341692339712E8 ; 8.024832691432992E7 ; 4.60588825796923E9 ; 0.0
32 ; 2723360.336123946 ; 2.00937291443428E8 ; 8.296809779825397E7 ; 4.806822427203201E9 ; 0.0
33 ; 2726541.859945471 ; 2.00940540760262E8 ; 8.569145813437791E7 ; 5.007759718646629E9 ; 0.0
34 ; 2729708.528419181 ; 2.009439150147263E8 ; 8.841799999432339E7 ; 5.208700259406891E9 ; 0.0
35 ; 2730179.0152773876 ; 2.0094741199842787E8 ; 9.114770852274257E7 ; 5.4096441744216175E9 ; 0.0
36 ; 2734454.1764283506 ; 2.0095102946954834E8 ; 9.387788753801996E7 ; 5.610591586420046E9 ; 0.0
37 ; 2735323.7572500105 ; 2.0095476515791976E8 ; 9.66123417144483E7 ; 5.811542615889594E9 ; 0.0
38 ; 2739164.097239067 ; 2.0095861676993713E8 ; 9.934766547169831E7 ; 6.012497381047514E9 ; 0.0
39 ; 2740887.762151408 ; 2.0096258199329275E8 ; 1.0208682956893738E8 ; 6.2134559978174515E9 ; 0.0
40 ; 2743156.9784481297 ; 2.0096665850151873E8 ; 1.0482771733108878E8 ; 6.414418579810744E9 ; 0.0
41 ; 2745447.072313841 ; 2.0097084395832768E8 ; 1.075708743095369E8 ; 6.6153852383122635E9 ; 0.0
42 ; 2749720.074046499 ; 2.009751360217427E8 ; 1.1031632138185075E8 ; 6.816356082270591E9 ; 0.0
43 ; 2748104.700566837 ; 2.00979532348011E8 ; 1.1306604145589724E8 ; 7.017331218292334E9 ; 0.0
44 ; 2751956.6046244525 ; 2.009840305952966E8 ; 1.1581414615646408E8 ; 7.218310750640345E9 ; 0.0
45 ; 2752749.953751408 ; 2.0098862842715016E8 ; 1.1856610276108854E8 ; 7.4192947812356415E9 ; 0.0
46 ; 2755956.7199189914 ; 2.009933235157553E8 ; 1.2131885271483995E8 ; 7.620283409662791E9 ; 0.0
47 ; 2755607.9037108836 ; 2.0099811354495236E8 ; 1.2407480943475895E8 ; 7.821276733178547E9 ; 0.0
48 ; 2757703.9676651624 ; 2.010029962130424E8 ; 1.2683041733846983E8 ; 8.022274846723499E9 ; 0.0
49 ; 2758909.0134233683 ; 2.010079692353746E8 ; 1.29588121306135E8 ; 8.223277842936542E9 ; 0.0
50 ; 2760418.8132008556 ; 2.0101303034672245E8 ; 1.3234703031955837E8 ; 8.424285812171916E9 ; 0.0
51 ; 2760230.139573891 ; 2.01018177303454E8 ; 1.351074491327592E8 ; 8.625298842518639E9 ; 0.0
52 ; 2763035.6255547456 ; 2.0102340788550287E8 ; 1.3786767927233312E8 ; 8.826317019822092E9 ; 0.0
53 ; 2762806.302749682 ; 2.010287198981472E8 ; 1.4063071489788786E8 ; 9.027340427707596E9 ; 0.0
54 ; 2764219.532546135 ; 2.010341111736042E8 ; 1.4339352120063755E8 ; 9.228369147605743E9 ; 0.0
55 ; 2764955.6165294405 ; 2.010395795724483E8 ; 1.4615774073318368E8 ; 9.429403258779348E9 ; 0.0
56 ; 2765562.274507137 ; 2.0104512298486173E8 ; 1.4892269634971312E8 ; 9.630442838351797E9 ; 0.0
57 ; 2767487.4039152716 ; 2.0105073933172515E8 ; 1.5168825862422025E8 ; 9.831487961336658E9 ; 0.0
58 ; 2768372.2308551404 ; 2.010564265655583E8 ; 1.5445574602813554E8 ; 1.0032538700668385E10 ; 0.0
59 ; 2769238.6007111464 ; 2.0106218267131838E8 ; 1.5722411825899068E8 ; 1.0233595127233942E10 ; 0.0
60 ; 2769756.2259541773 ; 2.0106800566706514E8 ; 1.599933568597018E8 ; 1.043465730990526E10 ; 0.0
61 ; 2770817.76689017 ; 2.0107389360450158E8 ; 1.62763113085656E8 ; 1.0635725315572325E10 ; 0.0
62 ; 2770754.59729511 ; 2.010798445693982E8 ; 1.6553393085254616E8 ; 1.0836799209176826E10 ; 0.0
63 ; 2771087.100566408 ; 2.0108585668190917E8 ; 1.6830468544984126E8 ; 1.1037879053746225E10 ; 0.0
64 ; 2773475.842855712 ; 2.0109192809678864E8 ; 1.7107577255040768E8 ; 1.1238964910428135E10 ; 0.0
65 ; 2772888.414514535 ; 2.0109805700351447E8 ; 1.738492483932634E8 ; 1.1440056838524923E10 ; 0.0
66 ; 2773076.748342994 ; 2.0110424162632713E8 ; 1.7662213680777794E8 ; 1.1641154895528439E10 ; 0.0
67 ; 2775328.2817912484 ; 2.011104802241908E8 ; 1.7939521355612093E8 ; 1.1842259137154766E10 ; 0.0
68 ; 2775635.6071016537 ; 2.0111677109068328E8 ; 1.8217054183791217E8 ; 1.2043369617378958E10 ; 0.0
69 ; 2775525.7252492094 ; 2.0112311255382153E8 ; 1.8494617744501382E8 ; 1.224448638846964E10 ; 0.0
70 ; 2775764.031382791 ; 2.0112950297582844E8 ; 1.8772170317026302E8 ; 1.2445609501023462E10 ; 0.0
71 ; 2777147.8100797767 ; 2.0113594075284714E8 ; 1.9049746720164582E8 ; 1.264673900399929E10 ; 0.0
72 ; 2778637.038429221 ; 2.0114242431460792E8 ; 1.932746150117256E8 ; 1.2847874944752138E10 ; 0.0
73 ; 2779092.0424951427 ; 2.011489521240531E8 ; 1.9605325205015483E8 ; 1.3049017369066746E10 ; 0.0
74 ; 2778591.3059739284 ; 2.011555226769244E8 ; 1.9883234409264997E8 ; 1.32501663211908E10 ; 0.0
75 ; 2778317.664169168 ; 2.0116213450131768E8 ; 2.0161093539862388E8 ; 1.3451321843867723E10 ; 0.0
76 ; 2780293.5483229477 ; 2.0116878615720877E8 ; 2.0438925306279305E8 ; 1.3652483978369041E10 ; 0.0
77 ; 2780230.6844007806 ; 2.0117547623595446E8 ; 2.07169546611116E8 ; 1.385365276452625E10 ; 0.0
78 ; 2778680.2741287914 ; 2.0118220335977244E8 ; 2.0994977729551676E8 ; 1.4054828240762205E10 ; 0.0
79 ; 2779021.0912361937 ; 2.0118896618120307E8 ; 2.1272845756964555E8 ; 1.4256010444121977E10 ; 0.0
80 ; 2779625.2626065165 ; 2.0119576338255647E8 ; 2.1550747866088176E8 ; 1.445719941030318E10 ; 0.0
81 ; 2777628.233602546 ; 2.0120259367534745E8 ; 2.1828710392348826E8 ; 1.4658395173685738E10 ; 0.0
82 ; 2778505.029369635 ; 2.01209455799721E8 ; 2.210647321570908E8 ; 1.4859597767361086E10 ; 0.0
83 ; 2779277.335195942 ; 2.0121634852387065E8 ; 2.2384323718646044E8 ; 1.5060807223160807E10 ; 0.0
84 ; 2777854.542329112 ; 2.0122327064345172E8 ; 2.2662251452165636E8 ; 1.5262023571684677E10 ; 0.0
85 ; 2776840.786814295 ; 2.0123022098099187E8 ; 2.2940036906398547E8 ; 1.5463246842328129E10 ; 0.0
86 ; 2776625.2843024433 ; 2.012371983853E8 ; 2.3217720985079977E8 ; 1.566447706330912E10 ; 0.0
87 ; 2777329.9159268355 ; 2.0124420173087594E8 ; 2.349538351351022E8 ; 1.586571426169442E10 ; 0.0
88 ; 2775583.310584211 ; 2.012512299173214E8 ; 2.3773116505102906E8 ; 1.6066958463425295E10 ; 0.0
89 ; 2774832.835407696 ; 2.0125828186875454E8 ; 2.4050674836161327E8 ; 1.6268209693342617E10 ; 0.0
90 ; 2772972.70599533 ; 2.012653565332284E8 ; 2.4328158119702098E8 ; 1.6469467975211372E10 ; 0.0
91 ; 2773352.5711141075 ; 2.012724528821547E8 ; 2.460545539030163E8 ; 1.66707333317446E10 ; 0.0
92 ; 2772508.3637421904 ; 2.01279569909734E8 ; 2.488279064741304E8 ; 1.6872005784626755E10 ; 0.0
93 ; 2771822.6263457513 ; 2.012867066323925E8 ; 2.516004148378726E8 ; 1.707328535453649E10 ; 0.0
94 ; 2770481.4562600614 ; 2.0129386208822674E8 ; 2.5437223746421835E8 ; 1.727457206116888E10 ; 0.0
95 ; 2770597.4925955296 ; 2.0130103533645648E8 ; 2.571427189204784E8 ; 1.7475865923257107E10 ; 0.0
96 ; 2769907.5999730662 ; 2.013082254568864E8 ; 2.5991331641307393E8 ; 1.7677166958593563E10 ; 0.0
97 ; 2768217.2167865983 ; 2.0131543154937714E8 ; 2.6268322401304698E8 ; 1.787847518405045E10 ; 0.0
98 ; 2767095.379642901 ; 2.013226527333257E8 ; 2.6545144122983357E8 ; 1.8079790615599827E10 ; 0.0
99 ; 2766790.2009106553 ; 2.0132988814715597E8 ; 2.6821853660947648E8 ; 1.8281113268333153E10 ; 0.0
100 ; 2766609.541747613 ; 2.013371369478194E8 ; 2.7098532681038713E8 ; 1.848244315648031E10 ; 0.0
101 ; 2764104.9899770548 ; 2.01344398310306E8 ; 2.7375193635213476E8 ; 1.8683780293428127E10 ; 0.0
102 ; 2763299.3201720025 ; 2.0135167142716572E8 ; 2.765160413421118E8 ; 1.8885124691738434E10 ; 0.0
103 ; 2762551.2946995716 ; 2.0135895550804064E8 ; 2.7927934066228384E8 ; 1.90864763631656E10 ; 0.0
104 ; 2762320.659756775 ; 2.013662497792078E8 ; 2.820418919569834E8 ; 1.928783531867364E10 ; 0.0
105 ; 2762698.1386186327 ; 2.0137355348313257E8 ; 2.8480421261674017E8 ; 1.948920156845285E10 ; 0.0
106 ; 2759350.7731833644 ; 2.013808658780329E8 ; 2.875669107553588E8 ; 1.969057512193598E10 ; 0.0
107 ; 2758576.398912227 ; 2.013881862374541E8 ; 2.9032626152854216E8 ; 1.9891955987814014E10 ; 0.0
108 ; 2756567.824218944 ; 2.013955138498543E8 ; 2.930848379274544E8 ; 2.0093344174051468E10 ; 0.0
109 ; 2758340.5508624758 ; 2.0140284801820037E8 ; 2.9584140575167334E8 ; 2.029473968790132E10 ; 0.0
110 ; 2755830.4896681923 ; 2.0141018805957434E8 ; 2.9859974630253583E8 ; 2.049614253591952E10 ; 0.0
111 ; 2755364.9046803587 ; 2.0141753330479008E8 ; 3.01355576792204E8 ; 2.0697552723979095E10 ; 0.0
112 ; 2754742.7153207897 ; 2.0142488309802008E8 ; 3.041109416968844E8 ; 2.0898970257283886E10 ; 0.0
113 ; 2751663.6492225183 ; 2.0143223679643244E8 ; 3.0686568441220516E8 ; 2.1100395140381905E10 ; 0.0
114 ; 2752039.750833481 ; 2.014395937698375E8 ; 3.0961734806142765E8 ; 2.1301827377178337E10 ; 0.0
115 ; 2749518.5546895997 ; 2.0144695340034434E8 ; 3.123693878122611E8 ; 2.1503266970948174E10 ; 0.0
116 ; 2748561.2177198622 ; 2.0145431508202672E8 ; 3.151189063669507E8 ; 2.170471392434852E10 ; 0.0
117 ; 2748637.0344533315 ; 2.0146167822059846E8 ; 3.1786746758467054E8 ; 2.1906168239430546E10 ; 0.0
118 ; 2745563.816934359 ; 2.0146904223309785E8 ; 3.206161046191239E8 ; 2.2107629917651146E10 ; 0.0
119 ; 2744617.5723915426 ; 2.0147640654758105E8 ; 3.233616684360582E8 ; 2.2309098959884243E10 ; 0.0
120 ; 2744477.705282949 ; 2.014837706028244E8 ; 3.261062860084498E8 ; 2.2510575366431824E10 ; 0.0
121 ; 2742518.2780104633 ; 2.014911338480351E8 ; 3.288507637137327E8 ; 2.271205913703465E10 ; 0.0
122 ; 2741927.530741549 ; 2.0149849574257052E8 ; 3.315932819917432E8 ; 2.2913550270882683E10 ; 0.0
123 ; 2740107.869564813 ; 2.015058557556653E8 ; 3.343352095224848E8 ; 2.311504876662525E10 ; 0.0
124 ; 2739282.6901299683 ; 2.0151321336616695E8 ; 3.370753173920496E8 ; 2.3316554622380917E10 ; 0.0
125 ; 2734798.8831190947 ; 2.0152056806227863E8 ; 3.398146000821796E8 ; 2.351806783574708E10 ; 0.0
126 ; 2734293.215390493 ; 2.0152791934131008E8 ; 3.425493989652987E8 ; 2.371958840380936E10 ; 0.0
127 ; 2733762.8861663425 ; 2.015352667094356E8 ; 3.452836921806892E8 ; 2.392111632315067E10 ; 0.0
128 ; 2731555.5664959727 ; 2.0154260968145922E8 ; 3.4801745506685555E8 ; 2.4122651589860104E10 ; 0.0
129 ; 2731419.3010605625 ; 2.0154994778058705E8 ; 3.507490106333515E8 ; 2.432419419954156E10 ; 0.0
130 ; 2728269.144609611 ; 2.015572805382062E8 ; 3.5348042993441206E8 ; 2.4525744147322147E10 ; 0.0
131 ; 2725961.684082435 ; 2.015646074936706E8 ; 3.562086990790217E8 ; 2.4727301427860355E10 ; 0.0
132 ; 2721671.5506005 ; 2.0157192819409305E8 ; 3.5893466076310414E8 ; 2.4928866035354027E10 ; 0.0
133 ; 2722051.940798897 ; 2.0157924219414347E8 ; 3.6165633231370467E8 ; 2.513043796354812E10 ; 0.0
134 ; 2719213.68383392 ; 2.0158654905585358E8 ; 3.6437838425450355E8 ; 2.5332017205742264E10 ; 0.0
135 ; 2715742.5977145014 ; 2.0159384834842688E8 ; 3.6709759793833745E8 ; 2.553360375479812E10 ; 0.0
136 ; 2713659.8369517927 ; 2.0160113964805508E8 ; 3.698133405360519E8 ; 2.5735197603146545E10 ; 0.0
137 ; 2712360.636983294 ; 2.016084225377395E8 ; 3.725270003730037E8 ; 2.59367987427946E10 ; 0.0
138 ; 2708859.712457269 ; 2.0161569660711816E8 ; 3.75239361009987E8 ; 2.613840716533234E10 ; 0.0
139 ; 2705879.6142557673 ; 2.0162296145229807E8 ; 3.7794822072244424E8 ; 2.6340022861939457E10 ; 0.0
140 ; 2704433.591755433 ; 2.016302166756926E8 ; 3.806541003367E8 ; 2.6541645823391754E10 ; 0.0
141 ; 2702997.753870095 ; 2.0163746188586363E8 ; 3.833585339284555E8 ; 2.6743276040067448E10 ; 0.0
142 ; 2700402.1347568776 ; 2.016446966973688E8 ; 3.8606153168232554E8 ; 2.6944913501953312E10 ; 0.0
143 ; 2694497.7139749317 ; 2.0165192073061314E8 ; 3.887619338170824E8 ; 2.714655819865068E10 ; 0.0
144 ; 2695013.699042781 ; 2.016591336117052E8 ; 3.9145643153105736E8 ; 2.7348210119381294E10 ; 0.0
145 ; 2692909.4645806933 ; 2.0166633497231776E8 ; 3.9415144523010015E8 ; 2.7549869252993E10 ; 0.0
146 ; 2689683.566982342 ; 2.0167352444955248E8 ; 3.9684435469468087E8 ; 2.7751535587965317E10 ; 0.0
147 ; 2688435.4503706046 ; 2.016807016858089E8 ; 3.995340382616632E8 ; 2.7953209112414867E10 ; 0.0
148 ; 2687022.844194138 ; 2.0168786632865727E8 ; 4.022224737120338E8 ; 2.8154889814100677E10 ; 0.0
149 ; 2684913.2062553014 ; 2.0169501803071523E8 ; 4.049094965562279E8 ; 2.8356577680429337E10 ; 0.0
150 ; 2684758.5910097416 ; 2.0170215644952828E8 ; 4.0759440976248324E8 ; 2.8558272698460052E10 ; 0.0
151 ; 2681181.2399321017 ; 2.017092812474538E8 ; 4.10279168353493E8 ; 2.875997485490958E10 ; 0.0
152 ; 2680290.642508753 ; 2.017163920915487E8 ; 4.129603495934251E8 ; 2.8961684136157036E10 ; 0.0
153 ; 2680592.2943377583 ; 2.0172348865346032E8 ; 4.1564064023593384E8 ; 2.9163400528248585E10 ; 0.0
154 ; 2675984.1607072824 ; 2.0173057060932058E8 ; 4.183212325302716E8 ; 2.9365124016902046E10 ; 0.0
155 ; 2675596.599677274 ; 2.017376376396436E8 ; 4.209972166909789E8 ; 2.9566854587511368E10 ; 0.0
156 ; 2674660.220627142 ; 2.0174468942922604E8 ; 4.2367281329065615E8 ; 2.9768592225151012E10 ; 0.0
157 ; 2672628.9121248825 ; 2.0175172566705072E8 ; 4.263474735112833E8 ; 2.997033691458024E10 ; 0.0
158 ; 2670294.967698603 ; 2.0175874604619288E8 ; 4.2902010242340815E8 ; 3.0172088640247288E10 ; 0.0
159 ; 2668987.2303807246 ; 2.0176575026372963E8 ; 4.316903973911067E8 ; 3.037384738629348E10 ; 0.0
160 ; 2666494.49482653 ; 2.0177273802065158E8 ; 4.3435938462148744E8 ; 3.057561313655721E10 ; 0.0
161 ; 2665551.6347245164 ; 2.0177970902177763E8 ; 4.37025879116314E8 ; 3.077738587457786E10 ; 0.0
162 ; 2662801.9213249325 ; 2.0178666297567195E8 ; 4.396914307510385E8 ; 3.097916558359964E10 ; 0.0
163 ; 2660314.8926876397 ; 2.0179359959456363E8 ; 4.423542326723634E8 ; 3.1180952246575314E10 ; 0.0
164 ; 2660316.1522185523 ; 2.018005185942686E8 ; 4.45014547565051E8 ; 3.1382745846169876E10 ; 0.0
165 ; 2656430.093714233 ; 2.0180741969411394E8 ; 4.476748637172696E8 ; 3.1584546364764145E10 ; 0.0
166 ; 2651751.5493881656 ; 2.0181430261686447E8 ; 4.5033129381098384E8 ; 3.178635378445826E10 ; 0.0
167 ; 2646327.2754359823 ; 2.0182116708865145E8 ; 4.52983045360372E8 ; 3.1988168087075123E10 ; 0.0
168 ; 2639563.5869787475 ; 2.0182801283890334E8 ; 4.55629372635808E8 ; 3.2189989254163773E10 ; 0.0
169 ; 2634345.200621486 ; 2.018348396002787E8 ; 4.582689362227867E8 ; 3.2391817267002674E10 ; 0.0
170 ; 2629354.1727031553 ; 2.0184164710860112E8 ; 4.609032814234082E8 ; 3.259365210660295E10 ; 0.0
171 ; 2622947.035770471 ; 2.018484351027959E8 ; 4.6353263559611136E8 ; 3.279549375371155E10 ; 0.0
172 ; 2619510.660044797 ; 2.0185520332482868E8 ; 4.6615558263188183E8 ; 3.2997342188814346E10 ; 0.0
173 ; 2615565.4815905234 ; 2.0186195151964596E8 ; 4.687750932919266E8 ; 3.3199197392139175E10 ; 0.0
174 ; 2607750.887263201 ; 2.018686794351171E8 ; 4.7139065877351713E8 ; 3.340105934365882E10 ; 0.0
175 ; 2603337.161553198 ; 2.0187538682197836E8 ; 4.739984096607803E8 ; 3.3602928023093937E10 ; 0.0
176 ; 2599692.649163273 ; 2.0188207343377835E8 ; 4.766017468223335E8 ; 3.3804803409915916E10 ; 0.0
177 ; 2595065.0381607576 ; 2.0188873902682504E8 ; 4.7920143947149676E8 ; 3.4006685483349693E10 ; 0.0
178 ; 2591443.7479459825 ; 2.0189538336013445E8 ; 4.817965045096575E8 ; 3.420857422237652E10 ; 0.0
179 ; 2585795.0553115276 ; 2.019E8 ; 4.8438794825760347E8 ; 3.441046960573666E10 ; 0.0
180 ; 2582022.3957522535 ; 2.019E8 ; 4.8697374331291497E8 ; 3.461236960573666E10 ; 0.0
181 ; 2575451.90325236 ; 2.019E8 ; 4.895557657086672E8 ; 3.481426960573666E10 ; 0.0
182 ; 2570430.0782614 ; 2.019E8 ; 4.921312176119196E8 ; 3.501616960573666E10 ; 0.0
183 ; 2566978.5614004256 ; 2.019E8 ; 4.9470164769018096E8 ; 3.521806960573666E10 ; 0.0
184 ; 2561029.7701692064 ; 2.019E8 ; 4.972686262515814E8 ; 3.541996960573666E10 ; 0.0
185 ; 2556926.31656774 ; 2.019E8 ; 4.9982965602175057E8 ; 3.562186960573666E10 ; 0.0
186 ; 2553928.785125853 ; 2.019E8 ; 5.023865823383183E8 ; 3.582376960573666E10 ; 0.0
187 ; 2548086.2914973763 ; 2.019E8 ; 5.0494051112344414E8 ; 3.602566960573666E10 ; 0.0
188 ; 2543146.8843090846 ; 2.019E8 ; 5.074885974149415E8 ; 3.622756960573666E10 ; 0.0
189 ; 2536710.5915383394 ; 2.019E8 ; 5.100317442992506E8 ; 3.642946960573666E10 ; 0.0
190 ; 2531998.40438286 ; 2.019E8 ; 5.125684548907889E8 ; 3.663136960573666E10 ; 0.0
191 ; 2529905.9182415586 ; 2.019E8 ; 5.151004532951718E8 ; 3.683326960573666E10 ; 0.0
192 ; 2522943.0180062824 ; 2.019E8 ; 5.1763035921341336E8 ; 3.703516960573666E10 ; 0.0
193 ; 2518513.276790411 ; 2.019E8 ; 5.201533022314196E8 ; 3.723706960573666E10 ; 0.0
194 ; 2513846.656772065 ; 2.019E8 ; 5.2267181550821006E8 ; 3.743896960573666E10 ; 0.0
195 ; 2509275.921556559 ; 2.019E8 ; 5.2518566216498214E8 ; 3.764086960573666E10 ; 0.0
196 ; 2505322.550976844 ; 2.019E8 ; 5.276949380865387E8 ; 3.784276960573666E10 ; 0.0
197 ; 2500473.502003659 ; 2.019E8 ; 5.3020026063751554E8 ; 3.804466960573666E10 ; 0.0
198 ; 2495204.3129395335 ; 2.019E8 ; 5.327007341395192E8 ; 3.824656960573666E10 ; 0.0
199 ; 2489830.379727706 ; 2.019E8 ; 5.3519593845245874E8 ; 3.844846960573666E10 ; 0.0
200 ; 2486655.6338244807 ; 2.019E8 ; 5.376857688321865E8 ; 3.865036960573666E10 ; 0.0
201 ; 2480043.0292212865 ; 1.6817171641032854E8 ; 5.401724244660109E8 ; 3.885226960573666E10 ; 0.0
202 ; 2475733.2145808786 ; 1.527127382774142E8 ; 5.426524674952322E8 ; 3.902044132214699E10 ; 0.0
203 ; 2472685.392385007 ; 1.5236626757342157E8 ; 5.451282007098131E8 ; 3.91731540604244E10 ; 0.0
