CSV File for the City 6 on Day 11
1 - Minute m 
2 - Power Consumed at minute m 
3 - Power Produced at minute m 
4 - Energy Consumed since the beginning of the day 
5 - Energy Produced since the beginning of the day 
6 - Energy Lost since the beginning of the day on lines starting from the city
 
0 ; 8668516.159463415 ; 1.0294276704492357E7 ; 0.0 ; 0.0 ; 0.0
1 ; 8678566.559869949 ; 1.0294276704492357E7 ; 8668516.159463415 ; 1.0294276704492357E7 ; 0.0
2 ; 8691533.199382873 ; 1.0294276704492357E7 ; 1.7347082719333366E7 ; 2.0588553408984713E7 ; 0.0
3 ; 8703539.001770126 ; 1.0294276704492357E7 ; 2.6038615918716237E7 ; 3.088283011347707E7 ; 0.0
4 ; 8715649.920608608 ; 1.0294276704492357E7 ; 3.474215492048636E7 ; 4.117710681796943E7 ; 0.0
5 ; 8730875.88036902 ; 1.0294276704492357E7 ; 4.345780484109497E7 ; 5.147138352246179E7 ; 0.0
6 ; 8751448.331738077 ; 1.0294276704492357E7 ; 5.218868072146399E7 ; 6.176566022695415E7 ; 0.0
7 ; 8779339.220533295 ; 1.0294276704492357E7 ; 6.094012905320207E7 ; 7.205993693144651E7 ; 0.0
8 ; 8818981.598834936 ; 1.0294276704492357E7 ; 6.971946827373536E7 ; 8.235421363593887E7 ; 0.0
9 ; 8884029.115261955 ; 1.0294276704492357E7 ; 7.853844987257029E7 ; 9.264849034043123E7 ; 0.0
10 ; 8983579.201959863 ; 1.0294276704492357E7 ; 8.742247898783225E7 ; 1.0294276704492359E8 ; 0.0
11 ; 9138479.453465499 ; 1.0294276704492357E7 ; 9.640605818979211E7 ; 1.1323704374941595E8 ; 0.0
12 ; 9384459.060192905 ; 1.0294276704492357E7 ; 1.0554453764325762E8 ; 1.2353132045390831E8 ; 0.0
13 ; 9622309.490584493 ; 1.0294276704492357E7 ; 1.1492899670345053E8 ; 1.3382559715840067E8 ; 0.0
14 ; 9649388.720739093 ; 1.0294276704492357E7 ; 1.2455130619403502E8 ; 1.4411987386289302E8 ; 0.0
15 ; 9660313.238050463 ; 1.0294276704492357E7 ; 1.3420069491477412E8 ; 1.5441415056738538E8 ; 0.0
16 ; 9670370.054447426 ; 1.0294276704492357E7 ; 1.4386100815282458E8 ; 1.6470842727187774E8 ; 0.0
17 ; 9682178.782374758 ; 1.0294276704492357E7 ; 1.53531378207272E8 ; 1.750027039763701E8 ; 0.0
18 ; 9697184.985103576 ; 1.0294276704492357E7 ; 1.6321355698964676E8 ; 1.8529698068086246E8 ; 0.0
19 ; 9704973.865537474 ; 1.0294276704492357E7 ; 1.7291074197475034E8 ; 1.9559125738535482E8 ; 0.0
20 ; 9718534.155288586 ; 1.0294276704492357E7 ; 1.826157158402878E8 ; 2.0588553408984718E8 ; 0.0
21 ; 9728243.82233388 ; 1.0294276704492357E7 ; 1.9233424999557638E8 ; 2.1617981079433954E8 ; 0.0
22 ; 9741636.195934411 ; 1.0294276704492357E7 ; 2.0206249381791025E8 ; 2.264740874988319E8 ; 0.0
23 ; 9752188.322418723 ; 1.0294276704492357E7 ; 2.1180413001384467E8 ; 2.3676836420332426E8 ; 0.0
24 ; 9760847.070540253 ; 1.0294276704492357E7 ; 2.215563183362634E8 ; 2.4706264090781662E8 ; 0.0
25 ; 9774793.04425218 ; 1.0294276704492357E7 ; 2.3131716540680364E8 ; 2.5735691761230898E8 ; 0.0
26 ; 9783959.532418322 ; 1.0294276704492357E7 ; 2.4109195845105582E8 ; 2.6765119431680134E8 ; 0.0
27 ; 9796484.437868388 ; 1.0294276704492357E7 ; 2.5087591798347414E8 ; 2.779454710212937E8 ; 0.0
28 ; 9807323.699251022 ; 1.0294276704492357E7 ; 2.6067240242134252E8 ; 2.8823974772578603E8 ; 0.0
29 ; 9819012.844590582 ; 1.0294276704492357E7 ; 2.7047972612059355E8 ; 2.9853402443027836E8 ; 0.0
30 ; 9830086.04412972 ; 1.0294276704492357E7 ; 2.8029873896518415E8 ; 3.088283011347707E8 ; 0.0
31 ; 9835623.948801653 ; 1.0294276704492357E7 ; 2.901288250093139E8 ; 3.19122577839263E8 ; 0.0
32 ; 9851589.079711683 ; 1.0294276704492357E7 ; 2.999644489581155E8 ; 3.2941685454375535E8 ; 0.0
33 ; 9858942.106205018 ; 1.0294276704492357E7 ; 3.098160380378272E8 ; 3.397111312482477E8 ; 0.0
34 ; 9870619.296430133 ; 1.0294276704492357E7 ; 3.1967498014403224E8 ; 3.5000540795274E8 ; 0.0
35 ; 9878982.35009758 ; 1.0294276704492357E7 ; 3.2954559944046235E8 ; 3.6029968465723234E8 ; 0.0
36 ; 9888805.791865822 ; 1.0294276704492357E7 ; 3.3942458179055995E8 ; 3.705939613617247E8 ; 0.0
37 ; 9898021.154157149 ; 1.0294276704492357E7 ; 3.493133875824258E8 ; 3.80888238066217E8 ; 0.0
38 ; 9906107.631954523 ; 1.0294276704492357E7 ; 3.5921140873658293E8 ; 3.9118251477070934E8 ; 0.0
39 ; 9912824.732523989 ; 1.0294276704492357E7 ; 3.691175163685375E8 ; 4.0147679147520167E8 ; 0.0
40 ; 9920022.530904286 ; 1.0294276704492357E7 ; 3.7903034110106146E8 ; 4.11771068179694E8 ; 0.0
41 ; 9929036.075835424 ; 1.0294276704492357E7 ; 3.8895036363196576E8 ; 4.220653448841863E8 ; 0.0
42 ; 9936534.83223614 ; 1.0294276704492357E7 ; 3.9887939970780116E8 ; 4.3235962158867866E8 ; 0.0
43 ; 9939614.826123064 ; 1.0294276704492357E7 ; 4.088159345400373E8 ; 4.42653898293171E8 ; 0.0
44 ; 9949946.410139257 ; 1.0294276704492357E7 ; 4.1875554936616033E8 ; 4.529481749976633E8 ; 0.0
45 ; 9950101.712754425 ; 1.0294276704492357E7 ; 4.287054957762996E8 ; 4.6324245170215565E8 ; 0.0
46 ; 9956719.818309365 ; 1.0294276704492357E7 ; 4.38655597489054E8 ; 4.73536728406648E8 ; 0.0
47 ; 9960947.844498245 ; 1.0294276704492357E7 ; 4.486123173073634E8 ; 4.838310051111403E8 ; 0.0
48 ; 9966587.21641397 ; 1.0294276704492357E7 ; 4.585732651518616E8 ; 4.9412528181563264E8 ; 0.0
49 ; 9968944.322925517 ; 1.0294276704492357E7 ; 4.685398523682756E8 ; 5.04419558520125E8 ; 0.0
50 ; 9972984.796557432 ; 1.0294276704492357E7 ; 4.785087966912011E8 ; 5.147138352246173E8 ; 0.0
51 ; 9977740.109300405 ; 1.0294276704492357E7 ; 4.884817814877585E8 ; 5.2500811192910963E8 ; 0.0
52 ; 9972487.42781508 ; 1.0294276704492357E7 ; 4.984595215970589E8 ; 5.3530238863360196E8 ; 0.0
53 ; 9978556.569997681 ; 1.0294276704492357E7 ; 5.08432009024874E8 ; 5.455966653380944E8 ; 0.0
54 ; 9983224.427545467 ; 1.0294276704492357E7 ; 5.1841056559487164E8 ; 5.558909420425867E8 ; 0.0
55 ; 9987056.54931412 ; 1.0294276704492357E7 ; 5.283937900224171E8 ; 5.66185218747079E8 ; 0.0
56 ; 9989277.803544702 ; 1.0294276704492357E7 ; 5.383808465717312E8 ; 5.764794954515713E8 ; 0.0
57 ; 9990719.085159436 ; 1.0294276704492357E7 ; 5.48370124375276E8 ; 5.867737721560637E8 ; 0.0
58 ; 9994289.338033842 ; 1.0294276704492357E7 ; 5.583608434604354E8 ; 5.97068048860556E8 ; 0.0
59 ; 9996811.448021762 ; 1.0294276704492357E7 ; 5.683551327984692E8 ; 6.073623255650483E8 ; 0.0
60 ; 1.000006472594046E7 ; 1.0294276704492357E7 ; 5.78351944246491E8 ; 6.176566022695407E8 ; 0.0
61 ; 9999340.030050483 ; 1.0294276704492357E7 ; 5.883520089724314E8 ; 6.27950878974033E8 ; 0.0
62 ; 1.0001433241947003E7 ; 1.0294276704492357E7 ; 5.983513490024819E8 ; 6.382451556785253E8 ; 0.0
63 ; 1.0003047463041117E7 ; 1.0294276704492357E7 ; 6.08352782244429E8 ; 6.485394323830177E8 ; 0.0
64 ; 1.0003906745121248E7 ; 1.0294276704492357E7 ; 6.1835582970747E8 ; 6.5883370908751E8 ; 0.0
65 ; 1.0006975457703263E7 ; 1.0294276704492357E7 ; 6.283597364525913E8 ; 6.691279857920023E8 ; 0.0
66 ; 1.0007698714843355E7 ; 1.0294276704492357E7 ; 6.383667119102945E8 ; 6.794222624964947E8 ; 0.0
67 ; 1.0007144718799073E7 ; 1.0294276704492357E7 ; 6.483744106251379E8 ; 6.89716539200987E8 ; 0.0
68 ; 1.0008518366802126E7 ; 1.0294276704492357E7 ; 6.58381555343937E8 ; 7.000108159054793E8 ; 0.0
69 ; 1.001181231888012E7 ; 1.0294276704492357E7 ; 6.683900737107391E8 ; 7.103050926099716E8 ; 0.0
70 ; 1.0013026188034218E7 ; 1.0294276704492357E7 ; 6.784018860296192E8 ; 7.20599369314464E8 ; 0.0
71 ; 1.0013496358838208E7 ; 1.0294276704492357E7 ; 6.884149122176534E8 ; 7.308936460189563E8 ; 0.0
72 ; 1.0011786721721156E7 ; 1.0294276704492357E7 ; 6.984284085764916E8 ; 7.411879227234486E8 ; 0.0
73 ; 1.0012015072441882E7 ; 1.0294276704492357E7 ; 7.084401952982128E8 ; 7.51482199427941E8 ; 0.0
74 ; 1.0016891441972913E7 ; 1.0294276704492357E7 ; 7.184522103706547E8 ; 7.617764761324333E8 ; 0.0
75 ; 1.0014748988991719E7 ; 1.0294276704492357E7 ; 7.284691018126277E8 ; 7.720707528369256E8 ; 0.0
76 ; 1.001494317520669E7 ; 1.0294276704492357E7 ; 7.384838508016194E8 ; 7.82365029541418E8 ; 0.0
77 ; 1.0014904567863638E7 ; 1.0294276704492357E7 ; 7.484987939768261E8 ; 7.926593062459103E8 ; 0.0
78 ; 1.0014997764477782E7 ; 1.0294276704492357E7 ; 7.585136985446897E8 ; 8.029535829504026E8 ; 0.0
79 ; 1.00115071662046E7 ; 1.0294276704492357E7 ; 7.685286963091674E8 ; 8.13247859654895E8 ; 0.0
80 ; 1.0008857289830603E7 ; 1.0294276704492357E7 ; 7.78540203475372E8 ; 8.235421363593873E8 ; 0.0
81 ; 1.0004253543070866E7 ; 1.0294276704492357E7 ; 7.885490607652025E8 ; 8.338364130638796E8 ; 0.0
82 ; 1.000014683426453E7 ; 1.0294276704492357E7 ; 7.985533143082734E8 ; 8.441306897683719E8 ; 0.0
83 ; 9998046.82458947 ; 1.0294276704492357E7 ; 8.08553461142538E8 ; 8.544249664728643E8 ; 0.0
84 ; 9993989.399827467 ; 1.0294276704492357E7 ; 8.185515079671274E8 ; 8.647192431773566E8 ; 0.0
85 ; 9989916.65722601 ; 1.0294276704492357E7 ; 8.285454973669549E8 ; 8.750135198818489E8 ; 0.0
86 ; 9988219.776449285 ; 1.0294276704492357E7 ; 8.385354140241809E8 ; 8.853077965863413E8 ; 0.0
87 ; 9984484.672386358 ; 1.0294276704492357E7 ; 8.485236338006302E8 ; 8.956020732908336E8 ; 0.0
88 ; 9979519.65417216 ; 1.0294276704492357E7 ; 8.585081184730166E8 ; 9.058963499953259E8 ; 0.0
89 ; 9977072.583093653 ; 1.0294276704492357E7 ; 8.684876381271888E8 ; 9.161906266998183E8 ; 0.0
90 ; 9973772.278121771 ; 1.0294276704492357E7 ; 8.784647107102824E8 ; 9.264849034043106E8 ; 0.0
91 ; 9970879.852869581 ; 1.0294276704492357E7 ; 8.884384829884043E8 ; 9.367791801088029E8 ; 0.0
92 ; 9964528.583557075 ; 1.0294276704492357E7 ; 8.984093628412739E8 ; 9.470734568132952E8 ; 0.0
93 ; 9962062.52239044 ; 1.0294276704492357E7 ; 9.08373891424831E8 ; 9.573677335177876E8 ; 0.0
94 ; 9954204.65140369 ; 1.0294276704492357E7 ; 9.183359539472215E8 ; 9.676620102222799E8 ; 0.0
95 ; 9952349.298034713 ; 1.0294276704492357E7 ; 9.282901585986252E8 ; 9.779562869267722E8 ; 0.0
96 ; 9947493.701877227 ; 1.0294276704492357E7 ; 9.382425078966599E8 ; 9.882505636312646E8 ; 0.0
97 ; 9943292.118854603 ; 1.0294276704492357E7 ; 9.481900015985371E8 ; 9.985448403357569E8 ; 0.0
98 ; 9940952.837286726 ; 1.0294276704492357E7 ; 9.581332937173917E8 ; 1.0088391170402492E9 ; 0.0
99 ; 9933846.523357028 ; 1.0294276704492357E7 ; 9.680742465546784E8 ; 1.0191333937447416E9 ; 0.0
100 ; 9932152.487819057 ; 1.0294276704492357E7 ; 9.780080930780355E8 ; 1.0294276704492339E9 ; 0.0
101 ; 9925347.937193932 ; 1.0294276704492357E7 ; 9.879402455658545E8 ; 1.0397219471537262E9 ; 0.0
102 ; 9921551.435268039 ; 1.0294276704492357E7 ; 9.978655935030485E8 ; 1.0500162238582186E9 ; 0.0
103 ; 9914511.578985235 ; 1.0294276704492357E7 ; 1.0077871449383166E9 ; 1.0603105005627109E9 ; 0.0
104 ; 9908605.921577645 ; 1.0294276704492357E7 ; 1.0177016565173018E9 ; 1.0706047772672032E9 ; 0.0
105 ; 9904190.817567788 ; 1.0294276704492357E7 ; 1.0276102624388795E9 ; 1.0808990539716957E9 ; 0.0
106 ; 9897733.1121872 ; 1.0294276704492357E7 ; 1.0375144532564473E9 ; 1.091193330676188E9 ; 0.0
107 ; 9894812.857222073 ; 1.0294276704492357E7 ; 1.0474121863686345E9 ; 1.1014876073806803E9 ; 0.0
108 ; 9883252.244382719 ; 1.0294276704492357E7 ; 1.0573069992258565E9 ; 1.1117818840851727E9 ; 0.0
109 ; 9884441.575800344 ; 1.0294276704492357E7 ; 1.0671902514702393E9 ; 1.122076160789665E9 ; 0.0
110 ; 9876571.143910218 ; 1.0294276704492357E7 ; 1.0770746930460396E9 ; 1.1323704374941573E9 ; 0.0
111 ; 9870382.825977387 ; 1.0294276704492357E7 ; 1.0869512641899498E9 ; 1.1426647141986496E9 ; 0.0
112 ; 9865346.44036598 ; 1.0294276704492357E7 ; 1.096821647015927E9 ; 1.152958990903142E9 ; 0.0
113 ; 9858405.759905163 ; 1.0294276704492357E7 ; 1.106686993456293E9 ; 1.1632532676076343E9 ; 0.0
114 ; 9848372.313206816 ; 1.0294276704492357E7 ; 1.1165453992161982E9 ; 1.1735475443121266E9 ; 0.0
115 ; 9845241.335242564 ; 1.0294276704492357E7 ; 1.126393771529405E9 ; 1.183841821016619E9 ; 0.0
116 ; 9836735.05057082 ; 1.0294276704492357E7 ; 1.1362390128646476E9 ; 1.1941360977211113E9 ; 0.0
117 ; 9829396.557523327 ; 1.0294276704492357E7 ; 1.1460757479152184E9 ; 1.2044303744256036E9 ; 0.0
118 ; 9826751.210222555 ; 1.0294276704492357E7 ; 1.1559051444727416E9 ; 1.214724651130096E9 ; 0.0
119 ; 9819891.7514511 ; 1.0294276704492357E7 ; 1.165731895682964E9 ; 1.2250189278345883E9 ; 0.0
120 ; 9812204.422344968 ; 1.0294276704492357E7 ; 1.175551787434415E9 ; 1.2353132045390806E9 ; 0.0
121 ; 9803331.197520072 ; 1.0294276704492357E7 ; 1.18536399185676E9 ; 1.245607481243573E9 ; 0.0
122 ; 9797196.769353693 ; 1.0294276704492357E7 ; 1.19516732305428E9 ; 1.2559017579480653E9 ; 0.0
123 ; 9791975.91498431 ; 1.0294276704492357E7 ; 1.2049645198236337E9 ; 1.2661960346525576E9 ; 0.0
124 ; 9782483.264872584 ; 1.0294276704492357E7 ; 1.214756495738618E9 ; 1.27649031135705E9 ; 0.0
125 ; 9776607.322095955 ; 1.0294276704492357E7 ; 1.2245389790034904E9 ; 1.2867845880615423E9 ; 0.0
126 ; 9766421.919009019 ; 1.0294276704492357E7 ; 1.2343155863255863E9 ; 1.2970788647660346E9 ; 0.0
127 ; 9761818.256908022 ; 1.0294276704492357E7 ; 1.2440820082445953E9 ; 1.307373141470527E9 ; 0.0
128 ; 9751270.341122298 ; 1.0294276704492357E7 ; 1.2538438265015032E9 ; 1.3176674181750193E9 ; 0.0
129 ; 9745643.931174096 ; 1.0294276704492357E7 ; 1.2635950968426256E9 ; 1.3279616948795116E9 ; 0.0
130 ; 9734502.098609885 ; 1.0294276704492357E7 ; 1.2733407407737997E9 ; 1.338255971584004E9 ; 0.0
131 ; 9723517.984605245 ; 1.0294276704492357E7 ; 1.2830752428724096E9 ; 1.3485502482884963E9 ; 0.0
132 ; 9711953.722070573 ; 1.0294276704492357E7 ; 1.292798760857015E9 ; 1.3588445249929886E9 ; 0.0
133 ; 9704615.690898523 ; 1.0294276704492357E7 ; 1.3025107145790854E9 ; 1.369138801697481E9 ; 0.0
134 ; 9692706.06102554 ; 1.0294276704492357E7 ; 1.3122153302699838E9 ; 1.3794330784019732E9 ; 0.0
135 ; 9679502.397346457 ; 1.0294276704492357E7 ; 1.3219080363310094E9 ; 1.3897273551064656E9 ; 0.0
136 ; 9672491.544357263 ; 1.0294276704492357E7 ; 1.331587538728356E9 ; 1.400021631810958E9 ; 0.0
137 ; 9659639.57682518 ; 1.0294276704492357E7 ; 1.3412600302727132E9 ; 1.4103159085154502E9 ; 0.0
138 ; 9649209.87619822 ; 1.0294276704492357E7 ; 1.3509196698495383E9 ; 1.4206101852199426E9 ; 0.0
139 ; 9634479.455205986 ; 1.0294276704492357E7 ; 1.3605688797257366E9 ; 1.430904461924435E9 ; 0.0
140 ; 9623993.993282339 ; 1.0294276704492357E7 ; 1.3702033591809425E9 ; 1.4411987386289272E9 ; 0.0
141 ; 9613652.895873263 ; 1.0294276704492357E7 ; 1.3798273531742249E9 ; 1.4514930153334196E9 ; 0.0
142 ; 9603007.41011973 ; 1.0294276704492357E7 ; 1.3894410060700982E9 ; 1.461787292037912E9 ; 0.0
143 ; 9586868.1366335 ; 1.0294276704492357E7 ; 1.399044013480218E9 ; 1.4720815687424042E9 ; 0.0
144 ; 9577975.472252807 ; 1.0294276704492357E7 ; 1.4086308816168513E9 ; 1.4823758454468966E9 ; 0.0
145 ; 9570959.428727372 ; 1.0294276704492357E7 ; 1.4182088570891042E9 ; 1.492670122151389E9 ; 0.0
146 ; 9561164.999458846 ; 1.0294276704492357E7 ; 1.4277798165178316E9 ; 1.5029643988558812E9 ; 0.0
147 ; 9550520.263307426 ; 1.0294276704492357E7 ; 1.4373409815172904E9 ; 1.5132586755603735E9 ; 0.0
148 ; 9544514.774081152 ; 1.0294276704492357E7 ; 1.4468915017805977E9 ; 1.5235529522648659E9 ; 0.0
149 ; 9536449.780659208 ; 1.0294276704492357E7 ; 1.456436016554679E9 ; 1.5338472289693582E9 ; 0.0
150 ; 9528368.596242627 ; 1.0294276704492357E7 ; 1.465972466335338E9 ; 1.5441415056738505E9 ; 0.0
151 ; 9521204.94910339 ; 1.0294276704492357E7 ; 1.4755008349315808E9 ; 1.5544357823783429E9 ; 0.0
152 ; 9511027.518488323 ; 1.0294276704492357E7 ; 1.4850220398806841E9 ; 1.5647300590828352E9 ; 0.0
153 ; 9501607.222935092 ; 1.0294276704492357E7 ; 1.4945330673991725E9 ; 1.5750243357873275E9 ; 0.0
154 ; 9494484.800378142 ; 1.0294276704492357E7 ; 1.5040346746221077E9 ; 1.5853186124918199E9 ; 0.0
155 ; 9486247.825072814 ; 1.0294276704492357E7 ; 1.5135291594224858E9 ; 1.5956128891963122E9 ; 0.0
156 ; 9476997.436674815 ; 1.0294276704492357E7 ; 1.5230154072475586E9 ; 1.6059071659008045E9 ; 0.0
157 ; 9467362.807453634 ; 1.0294276704492357E7 ; 1.5324924046842334E9 ; 1.6162014426052969E9 ; 0.0
158 ; 9460514.646406518 ; 1.0294276704492357E7 ; 1.541959767491687E9 ; 1.6264957193097892E9 ; 0.0
159 ; 9453162.80175767 ; 1.0294276704492357E7 ; 1.5514202821380935E9 ; 1.6367899960142815E9 ; 0.0
160 ; 9440872.95625898 ; 1.0294276704492357E7 ; 1.560873444939851E9 ; 1.6470842727187738E9 ; 0.0
161 ; 9433493.780222474 ; 1.0294276704492357E7 ; 1.57031431789611E9 ; 1.6573785494232662E9 ; 0.0
162 ; 9426524.799515633 ; 1.0294276704492357E7 ; 1.5797478116763325E9 ; 1.6676728261277585E9 ; 0.0
163 ; 9417186.219449824 ; 1.0294276704492357E7 ; 1.5891743364758482E9 ; 1.6779671028322508E9 ; 0.0
164 ; 9407486.110755978 ; 1.0294276704492357E7 ; 1.598591522695298E9 ; 1.6882613795367432E9 ; 0.0
165 ; 9396852.593178 ; 1.0294276704492357E7 ; 1.6079990088060539E9 ; 1.6985556562412355E9 ; 0.0
166 ; 9389088.326936675 ; 1.0294276704492357E7 ; 1.617395861399232E9 ; 1.7088499329457278E9 ; 0.0
167 ; 9378788.435300747 ; 1.0294276704492357E7 ; 1.6267849497261686E9 ; 1.7191442096502202E9 ; 0.0
168 ; 9367408.30630438 ; 1.0294276704492357E7 ; 1.6361637381614695E9 ; 1.7294384863547125E9 ; 0.0
169 ; 9361099.862761626 ; 1.0294276704492357E7 ; 1.645531146467774E9 ; 1.7397327630592048E9 ; 0.0
170 ; 9352647.210406711 ; 1.0294276704492357E7 ; 1.6548922463305357E9 ; 1.7500270397636971E9 ; 0.0
171 ; 9342771.512844536 ; 1.0294276704492357E7 ; 1.6642448935409424E9 ; 1.7603213164681895E9 ; 0.0
172 ; 9334603.988084221 ; 1.0294276704492357E7 ; 1.673587665053787E9 ; 1.7706155931726818E9 ; 0.0
173 ; 9325389.472776374 ; 1.0294276704492357E7 ; 1.6829222690418713E9 ; 1.7809098698771741E9 ; 0.0
174 ; 9317023.6178634 ; 1.0294276704492357E7 ; 1.6922476585146477E9 ; 1.7912041465816665E9 ; 0.0
175 ; 9314819.019615576 ; 1.0294276704492357E7 ; 1.7015646821325111E9 ; 1.8014984232861588E9 ; 0.0
176 ; 9309732.474755106 ; 1.0294276704492357E7 ; 1.7108795011521268E9 ; 1.8117926999906511E9 ; 0.0
177 ; 9302569.385894615 ; 1.0294276704492357E7 ; 1.7201892336268818E9 ; 1.8220869766951435E9 ; 0.0
178 ; 9300490.393329835 ; 1.0294276704492357E7 ; 1.7294918030127764E9 ; 1.8323812533996358E9 ; 0.0
179 ; 9294183.611293638 ; 1.0294276704492357E7 ; 1.7387922934061062E9 ; 1.8426755301041281E9 ; 0.0
180 ; 9287747.396671666 ; 1.0294276704492357E7 ; 1.7480864770173998E9 ; 1.8529698068086205E9 ; 0.0
181 ; 9280764.701395089 ; 1.0294276704492357E7 ; 1.7573742244140716E9 ; 1.8632640835131128E9 ; 0.0
182 ; 9273362.63165381 ; 1.0294276704492357E7 ; 1.7666549891154666E9 ; 1.873558360217605E9 ; 0.0
183 ; 9271593.761885062 ; 1.0294276704492357E7 ; 1.7759283517471204E9 ; 1.8838526369220974E9 ; 0.0
184 ; 9263270.373311047 ; 1.0294276704492357E7 ; 1.7851999455090055E9 ; 1.8941469136265898E9 ; 0.0
185 ; 9257122.026201675 ; 1.0294276704492357E7 ; 1.7944632158823166E9 ; 1.904441190331082E9 ; 0.0
186 ; 9252753.28979611 ; 1.0294276704492357E7 ; 1.8037203379085183E9 ; 1.9147354670355744E9 ; 0.0
187 ; 9247638.930932298 ; 1.0294276704492357E7 ; 1.8129730911983144E9 ; 1.9250297437400668E9 ; 0.0
188 ; 9246423.590389399 ; 1.0294276704492357E7 ; 1.8222207301292467E9 ; 1.935324020444559E9 ; 0.0
189 ; 9236271.082743978 ; 1.0294276704492357E7 ; 1.8314671537196362E9 ; 1.9456182971490514E9 ; 0.0
190 ; 9231486.58250738 ; 1.0294276704492357E7 ; 1.84070342480238E9 ; 1.9559125738535438E9 ; 0.0
191 ; 9225258.990110053 ; 1.0294276704492357E7 ; 1.8499349113848875E9 ; 1.966206850558036E9 ; 0.0
192 ; 9222354.45666956 ; 1.0294276704492357E7 ; 1.8591601703749976E9 ; 1.9765011272625284E9 ; 0.0
193 ; 9214928.729693508 ; 1.0294276704492357E7 ; 1.8683825248316672E9 ; 1.9867954039670208E9 ; 0.0
194 ; 9208725.471810564 ; 1.0294276704492357E7 ; 1.8775974535613606E9 ; 1.997089680671513E9 ; 0.0
195 ; 9204385.596615518 ; 1.0294276704492357E7 ; 1.8868061790331712E9 ; 2.0073839573760054E9 ; 0.0
196 ; 9197538.511109006 ; 1.0294276704492357E7 ; 1.8960105646297867E9 ; 2.0176782340804977E9 ; 0.0
197 ; 9193536.665951865 ; 1.0294276704492357E7 ; 1.9052081031408958E9 ; 2.02797251078499E9 ; 0.0
198 ; 9187710.08911982 ; 1.0294276704492357E7 ; 1.9144016398068478E9 ; 2.0382667874894824E9 ; 0.0
199 ; 9183881.32149874 ; 1.0294276704492357E7 ; 1.9235893498959677E9 ; 2.0485610641939747E9 ; 0.0
200 ; 9175583.436599415 ; 1.0294276704492357E7 ; 1.9327732312174664E9 ; 2.058855340898467E9 ; 0.0
201 ; 9172703.100485345 ; 1.0294276704492357E7 ; 1.9419488146540658E9 ; 2.0691496176029594E9 ; 0.0
