CSV File for the City 4 on Day 27
1 - Minute m 
2 - Power Consumed at minute m 
3 - Power Produced at minute m 
4 - Energy Consumed since the beginning of the day 
5 - Energy Produced since the beginning of the day 
6 - Energy Lost since the beginning of the day on lines starting from the city
 
0 ; 6793671.051140304 ; 1.054003721827074E8 ; 0.0 ; 0.0 ; 0.0
1 ; 6801405.4971898105 ; 1.0554497799689919E8 ; 6793671.051140304 ; 1.054003721827074E8 ; 0.0
2 ; 6807963.812132926 ; 1.0599888339399943E8 ; 1.3595076548330113E7 ; 2.109453501796066E8 ; 0.0
3 ; 6817486.404475483 ; 1.0676217343302804E8 ; 2.0403040360463038E7 ; 3.16944233573606E8 ; 0.0
4 ; 6828718.437854136 ; 1.0783493941025627E8 ; 2.7220526764938522E7 ; 4.2370640700663406E8 ; 0.0
5 ; 6839111.173503301 ; 1.0921727651851499E8 ; 3.404924520279266E7 ; 5.315413464168903E8 ; 0.0
6 ; 6857560.504823671 ; 1.1090928023310587E8 ; 4.088835637629596E7 ; 6.407586229354053E8 ; 0.0
7 ; 6878429.6395240715 ; 1.129110413984474E8 ; 4.774591688111963E7 ; 7.516679031685112E8 ; 0.0
8 ; 6911401.411105919 ; 1.1522264028536648E8 ; 5.46243465206437E7 ; 8.645789445669585E8 ; 0.0
9 ; 6963873.199806055 ; 1.178441402639345E8 ; 6.153574793174962E7 ; 9.79801584852325E8 ; 0.0
10 ; 7039478.712141538 ; 1.207755820704838E8 ; 6.849962113155568E7 ; 1.0976457251162596E9 ; 0.0
11 ; 7163735.871230835 ; 1.2401697977010736E8 ; 7.553909984369722E7 ; 1.2184213071867433E9 ; 0.0
12 ; 7359496.81302598 ; 1.2756831929771218E8 ; 8.270283571492806E7 ; 1.3424382869568505E9 ; 0.0
13 ; 7552981.789465744 ; 1.314295599169659E8 ; 9.006233252795404E7 ; 1.4700066062545626E9 ; 0.0
14 ; 7577344.442751388 ; 1.3560063825779724E8 ; 9.761531431741978E7 ; 1.6014361661715286E9 ; 0.0
15 ; 7586467.214911197 ; 1.4008147404937917E8 ; 1.0519265876017118E8 ; 1.7370368044293258E9 ; 0.0
16 ; 7591787.116867308 ; 1.448719764472933E8 ; 1.1277912597508237E8 ; 1.877118278478705E9 ; 0.0
17 ; 7601279.18432905 ; 1.4997204997623792E8 ; 1.2037091309194967E8 ; 2.0219902549259982E9 ; 0.0
18 ; 7609278.488834654 ; 1.5538159944338214E8 ; 1.2797219227627872E8 ; 2.171962304902236E9 ; 0.0
19 ; 7621785.737506812 ; 1.6110053355245474E8 ; 1.3558147076511338E8 ; 2.3273439043456182E9 ; 0.0
20 ; 7626917.097735621 ; 1.6712876724443576E8 ; 1.432032565026202E8 ; 2.488444437898073E9 ; 0.0
21 ; 7634748.054714268 ; 1.7346622296386638E8 ; 1.508301736003558E8 ; 2.655573205142509E9 ; 0.0
22 ; 7645751.254465719 ; 1.801128311138783E8 ; 1.5846492165507007E8 ; 2.829039428106375E9 ; 0.0
23 ; 7653580.1126433015 ; 1.8706852995517933E8 ; 1.661106729095358E8 ; 3.0091522592202535E9 ; 0.0
24 ; 7663961.389239777 ; 1.9433326516088533E8 ; 1.737642530221791E8 ; 3.1962207891754327E9 ; 0.0
25 ; 7674622.670417227 ; 2.0059503008404443E8 ; 1.8142821441141888E8 ; 3.390554054336318E9 ; 0.0
26 ; 7677540.057109623 ; 2.0060733108795106E8 ; 1.891028370818361E8 ; 3.5911490844203625E9 ; 0.0
27 ; 7689916.858293202 ; 2.0061990135876772E8 ; 1.9678037713894573E8 ; 3.7917564155083137E9 ; 0.0
28 ; 7696110.763578613 ; 2.0063270947569644E8 ; 2.0447029399723893E8 ; 3.992376316867081E9 ; 0.0
29 ; 7707864.688416924 ; 2.0064572808492067E8 ; 2.1216640476081756E8 ; 4.1930090263427777E9 ; 0.0
30 ; 7712867.878524681 ; 2.0065893334643176E8 ; 2.198742694492345E8 ; 4.393654754427698E9 ; 0.0
31 ; 7721351.835298425 ; 2.0067230444802824E8 ; 2.2758713732775918E8 ; 4.59431368777413E9 ; 0.0
32 ; 7729814.99079041 ; 2.0068582318312234E8 ; 2.353084891630576E8 ; 4.794985992222158E9 ; 0.0
33 ; 7737318.670066479 ; 2.0069947358676678E8 ; 2.43038304153848E8 ; 4.995671815405281E9 ; 0.0
34 ; 7747433.158027357 ; 2.0071324162344837E8 ; 2.5077562282391447E8 ; 5.196371288992048E9 ; 0.0
35 ; 7750435.062540501 ; 2.0072711492012015E8 ; 2.5852305598194182E8 ; 5.397084530615497E9 ; 0.0
36 ; 7760049.462249098 ; 2.0074108253830793E8 ; 2.6627349104448232E8 ; 5.597811645535617E9 ; 0.0
37 ; 7768031.2811296275 ; 2.0075513477969897E8 ; 2.740335405067314E8 ; 5.798552728073925E9 ; 0.0
38 ; 7771202.932927799 ; 2.0076926302026936E8 ; 2.81801571787861E8 ; 5.999307862853624E9 ; 0.0
39 ; 7778210.404674525 ; 2.007834595686548E8 ; 2.895727747207888E8 ; 6.200077125873894E9 ; 0.0
40 ; 7785018.720599334 ; 2.0079771754507646E8 ; 2.973509851254633E8 ; 6.400860585442549E9 ; 0.0
41 ; 7791084.524280563 ; 2.0081203077767766E8 ; 3.0513600384606266E8 ; 6.601658302987625E9 ; 0.0
42 ; 7795888.9314104915 ; 2.0082639371360877E8 ; 3.129270883703432E8 ; 6.802470333765303E9 ; 0.0
43 ; 7801139.242903922 ; 2.0084080134260952E8 ; 3.207229773017537E8 ; 7.003296727478911E9 ; 0.0
44 ; 7806927.172300627 ; 2.0085524913119298E8 ; 3.2852411654465765E8 ; 7.204137528821521E9 ; 0.0
45 ; 7809708.897655578 ; 2.0086973296583453E8 ; 3.363310437169583E8 ; 7.404992777952714E9 ; 0.0
46 ; 7815322.705351354 ; 2.0088424910382226E8 ; 3.441407526146139E8 ; 7.605862510918549E9 ; 0.0
47 ; 7817108.861860313 ; 2.008987941306367E8 ; 3.5195607531996524E8 ; 7.806746760022371E9 ; 0.0
48 ; 7821695.053920933 ; 2.0091336492290664E8 ; 3.597731841818256E8 ; 8.0076455541530075E9 ; 0.0
49 ; 7822134.985376306 ; 2.009279586161368E8 ; 3.675948792357465E8 ; 8.208558919075914E9 ; 0.0
50 ; 7826879.040674351 ; 2.0094257257652688E8 ; 3.754170142211228E8 ; 8.409486877692051E9 ; 0.0
51 ; 7826301.221276313 ; 2.0095720437630746E8 ; 3.8324389326179713E8 ; 8.610429450268578E9 ; 0.0
52 ; 7829034.023664134 ; 2.0097185177210465E8 ; 3.910701944830735E8 ; 8.811386654644884E9 ; 0.0
53 ; 7831521.913372431 ; 2.0098651268591946E8 ; 3.988992285067376E8 ; 9.012358506416988E9 ; 0.0
54 ; 7835418.282876101 ; 2.010011851883691E8 ; 4.0673075042011005E8 ; 9.213345019102907E9 ; 0.0
55 ; 7834557.631554982 ; 2.0101586748388982E8 ; 4.145661687029861E8 ; 9.414346204291277E9 ; 0.0
56 ; 7837138.01952454 ; 2.0103055789764395E8 ; 4.224007263345411E8 ; 9.615362071775167E9 ; 0.0
57 ; 7840534.825370908 ; 2.0104525486391148E8 ; 4.302378643540656E8 ; 9.816392629672812E9 ; 0.0
58 ; 7839465.9462796 ; 2.0105995691577667E8 ; 4.380783991794365E8 ; 1.0017437884536722E10 ; 0.0
59 ; 7845154.400209108 ; 2.0107466267594787E8 ; 4.459178651257161E8 ; 1.02184978414525E10 ; 0.0
60 ; 7845586.524319831 ; 2.0108937084857002E8 ; 4.537630195259252E8 ; 1.0419572504128447E10 ; 0.0
61 ; 7845645.734813443 ; 2.0110408021190903E8 ; 4.6160860605024505E8 ; 1.0620661874977016E10 ; 0.0
62 ; 7846473.227031334 ; 2.011187896118035E8 ; 4.694542517850585E8 ; 1.0821765955188925E10 ; 0.0
63 ; 7845532.250762952 ; 2.0113349795579258E8 ; 4.7730072501208985E8 ; 1.1022884744800728E10 ; 0.0
64 ; 7847002.319555228 ; 2.0114820420784152E8 ; 4.851462572628528E8 ; 1.1224018242756521E10 ; 0.0
65 ; 7851567.46724831 ; 2.011629073835957E8 ; 4.92993259582408E8 ; 1.1425166446964363E10 ; 0.0
66 ; 7851552.607528751 ; 2.0117760654610378E8 ; 5.0084482704965633E8 ; 1.162632935434796E10 ; 0.0
67 ; 7851152.4671429675 ; 2.011923008019567E8 ; 5.086963796571851E8 ; 1.1827506960894064E10 ; 0.0
68 ; 7852143.693010093 ; 2.012069892977977E8 ; 5.16547532124328E8 ; 1.202869926169602E10 ; 0.0
69 ; 7852773.393124792 ; 2.012216712171619E8 ; 5.243996758173381E8 ; 1.2229906250993818E10 ; 0.0
70 ; 7856367.944172728 ; 2.0123634577761108E8 ; 5.322524492104629E8 ; 1.243112792221098E10 ; 0.0
71 ; 7855278.297023978 ; 2.012510122281317E8 ; 5.401088171546357E8 ; 1.263236426798859E10 ; 0.0
72 ; 7856271.453993064 ; 2.0126566984676918E8 ; 5.479640954516597E8 ; 1.2833615280216722E10 ; 0.0
73 ; 7857789.247907442 ; 2.012803179384736E8 ; 5.558203669056528E8 ; 1.3034880950063492E10 ; 0.0
74 ; 7857948.347430638 ; 2.0129495583313587E8 ; 5.636781561535602E8 ; 1.3236161268001965E10 ; 0.0
75 ; 7856100.389415893 ; 2.0130958288379487E8 ; 5.715361045009907E8 ; 1.34374562238351E10 ; 0.0
76 ; 7855481.839077193 ; 2.0132419846499872E8 ; 5.793922048904066E8 ; 1.3638765806718895E10 ; 0.0
77 ; 7856658.2960989475 ; 2.0133880197130522E8 ; 5.872476867294838E8 ; 1.3840090005183893E10 ; 0.0
78 ; 7855811.138146077 ; 2.0135339281590798E8 ; 5.951043450255828E8 ; 1.40414288071552E10 ; 0.0
79 ; 7850164.844350975 ; 2.0136797042937607E8 ; 6.029601561637288E8 ; 1.4242782199971107E10 ; 0.0
80 ; 7849589.92683411 ; 2.0138253425849682E8 ; 6.108103210080798E8 ; 1.4444150170400484E10 ; 0.0
81 ; 7850283.15842559 ; 2.01397083765212E8 ; 6.186599109349139E8 ; 1.4645532704658981E10 ; 0.0
82 ; 7846323.903472001 ; 2.0141161842563877E8 ; 6.265101940933394E8 ; 1.4846929788424192E10 ; 0.0
83 ; 7843642.457248439 ; 2.0142613772916782E8 ; 6.343565179968114E8 ; 1.504834140684983E10 ; 0.0
84 ; 7840910.368970961 ; 2.0144064117763168E8 ; 6.422001604540598E8 ; 1.5249767544578999E10 ; 0.0
85 ; 7840778.417154298 ; 2.0145512828453714E8 ; 6.500410708230308E8 ; 1.545120818575663E10 ; 0.0
86 ; 7836136.335442367 ; 2.0146959857435593E8 ; 6.578818492401851E8 ; 1.5652663314041166E10 ; 0.0
87 ; 7833888.944640499 ; 2.0148405158186883E8 ; 6.657179855756276E8 ; 1.5854132912615522E10 ; 0.0
88 ; 7829556.472261871 ; 2.014984868515586E8 ; 6.735518745202681E8 ; 1.6055616964197392E10 ; 0.0
89 ; 7826102.866280582 ; 2.0151290393704748E8 ; 6.8138143099253E8 ; 1.625711545104895E10 ; 0.0
90 ; 7824096.335222011 ; 2.0152730240057558E8 ; 6.892075338588105E8 ; 1.6458628354985998E10 ; 0.0
91 ; 7819445.622553145 ; 2.015416818125171E8 ; 6.970316301940325E8 ; 1.6660155657386574E10 ; 0.0
92 ; 7817101.245581392 ; 2.0155604175093058E8 ; 7.048510758165857E8 ; 1.6861697339199091E10 ; 0.0
93 ; 7815701.326657889 ; 2.0157038180114117E8 ; 7.12668177062167E8 ; 1.7063253380950022E10 ; 0.0
94 ; 7809764.7848052485 ; 2.0158470155535203E8 ; 7.204838783888249E8 ; 1.7264823762751163E10 ; 0.0
95 ; 7807051.133635019 ; 2.015990006122824E8 ; 7.282936431736302E8 ; 1.7466408464306515E10 ; 0.0
96 ; 7802104.557611049 ; 2.0161327857683045E8 ; 7.361006943072653E8 ; 1.7668007464918797E10 ; 0.0
97 ; 7800563.884760598 ; 2.016275350597593E8 ; 7.439027988648764E8 ; 1.786962074349563E10 ; 0.0
98 ; 7799469.788589116 ; 2.0164176967740345E8 ; 7.51703362749637E8 ; 1.807124827855539E10 ; 0.0
99 ; 7792886.457166818 ; 2.0165598205139545E8 ; 7.595028325382261E8 ; 1.827289004823279E10 ; 0.0
100 ; 7789247.3366187615 ; 2.0167017180841E8 ; 7.672957189953929E8 ; 1.8474546030284187E10 ; 0.0
101 ; 7783693.981357 ; 2.0168433857992497E8 ; 7.750849663320117E8 ; 1.8676216202092598E10 ; 0.0
102 ; 7781975.704708162 ; 2.0169848200199795E8 ; 7.828686603133687E8 ; 1.8877900540672523E10 ; 0.0
103 ; 7778283.310280399 ; 2.01712601715057E8 ; 7.906506360180769E8 ; 1.9079599022674522E10 ; 0.0
104 ; 7772436.514861768 ; 2.0172669736370456E8 ; 7.984289193283573E8 ; 1.928131162438958E10 ; 0.0
105 ; 7769881.191437144 ; 2.017407685965341E8 ; 8.062013558432192E8 ; 1.9483038321753284E10 ; 0.0
106 ; 7762898.665889191 ; 2.0175481506595787E8 ; 8.139712370346563E8 ; 1.968477909034982E10 ; 0.0
107 ; 7756167.90711037 ; 2.0176883642804545E8 ; 8.217341357005454E8 ; 1.9886533905415775E10 ; 0.0
108 ; 7754713.216401178 ; 2.017828323423723E8 ; 8.294903036076558E8 ; 2.0088302741843822E10 ; 0.0
109 ; 7750943.773437573 ; 2.0179680247187737E8 ; 8.37245016824057E8 ; 2.0290085574186195E10 ; 0.0
110 ; 7744199.850259765 ; 2.0181074648272955E8 ; 8.449959605974946E8 ; 2.0491882376658073E10 ; 0.0
111 ; 7744590.362111548 ; 2.0182466404420206E8 ; 8.527401604477544E8 ; 2.0693693123140804E10 ; 0.0
112 ; 7736176.933302743 ; 2.0183855482855418E8 ; 8.60484750809866E8 ; 2.0895517787185005E10 ; 0.0
113 ; 7734319.273968359 ; 2.0185241851092026E8 ; 8.682209277431687E8 ; 2.109735634201356E10 ; 0.0
114 ; 7728090.06530772 ; 2.0186625476920503E8 ; 8.75955247017137E8 ; 2.1299208760524483E10 ; 0.0
115 ; 7719080.422115784 ; 2.0188006328398526E8 ; 8.836833370824448E8 ; 2.1501075015293686E10 ; 0.0
116 ; 7715533.250800006 ; 2.0189384373841682E8 ; 8.914024175045606E8 ; 2.170295507857767E10 ; 0.0
117 ; 7710761.883701573 ; 2.0190759581814748E8 ; 8.991179507553606E8 ; 2.190484892231609E10 ; 0.0
118 ; 7704477.630861081 ; 2.0192131921123445E8 ; 9.068287126390622E8 ; 2.2106756518134235E10 ; 0.0
119 ; 7699840.768410657 ; 2.019350136080666E8 ; 9.145331902699232E8 ; 2.230867783734547E10 ; 0.0
120 ; 7694405.327431531 ; 2.0194867870129138E8 ; 9.222330310383339E8 ; 2.2510612850953537E10 ; 0.0
121 ; 7692091.80591348 ; 2.0196231418574557E8 ; 9.299274363657655E8 ; 2.2712561529654827E10 ; 0.0
122 ; 7684389.801961014 ; 2.0197591975839E8 ; 9.376195281716789E8 ; 2.2914523843840572E10 ; 0.0
123 ; 7677679.412168609 ; 2.0198949511824805E8 ; 9.4530391797364E8 ; 2.311649976359896E10 ; 0.0
124 ; 7672248.420922196 ; 2.0200303996634734E8 ; 9.529815973858086E8 ; 2.331848925871721E10 ; 0.0
125 ; 7666045.004732198 ; 2.020165540056649E8 ; 9.606538458067307E8 ; 2.3520492298683556E10 ; 0.0
126 ; 7661649.546679983 ; 2.020300369410752E8 ; 9.68319890811463E8 ; 2.372250885268922E10 ; 0.0
127 ; 7656329.531945317 ; 2.0204348847930098E8 ; 9.75981540358143E8 ; 2.3924538889630295E10 ; 0.0
128 ; 7650433.183268667 ; 2.02056908328867E8 ; 9.836378698900883E8 ; 2.4126582378109596E10 ; 0.0
129 ; 7645176.6427442515 ; 2.0207029620005605E8 ; 9.91288303073357E8 ; 2.4328639286438465E10 ; 0.0
130 ; 7637649.375546199 ; 2.020836518048676E8 ; 9.989334797161013E8 ; 2.453070958263852E10 ; 0.0
131 ; 7626023.517264129 ; 2.0209697485697848E8 ; 1.0065711290916475E9 ; 2.4732793234443386E10 ; 0.0
132 ; 7617297.720558582 ; 2.0211026507170582E8 ; 1.0141971526089116E9 ; 2.4934890209300365E10 ; 0.0
133 ; 7610929.355499244 ; 2.0212352216597193E8 ; 1.0218144503294702E9 ; 2.513700047437207E10 ; 0.0
134 ; 7598990.3816404175 ; 2.021367458582711E8 ; 1.0294253796849694E9 ; 2.5339123996538044E10 ; 0.0
135 ; 7594046.380188326 ; 2.021499358686381E8 ; 1.0370243700666099E9 ; 2.5541260742396317E10 ; 0.0
136 ; 7582422.362038464 ; 2.0216309191861862E8 ; 1.0446184164467982E9 ; 2.5743410678264954E10 ; 0.0
137 ; 7573928.183962634 ; 2.0217621373124084E8 ; 1.0522008388088367E9 ; 2.594557377018357E10 ; 0.0
138 ; 7565070.654393341 ; 2.0218930103098914E8 ; 1.0597747669927993E9 ; 2.614774998391481E10 ; 0.0
139 ; 7557374.729358052 ; 2.0220235354377854E8 ; 1.0673398376471926E9 ; 2.63499392849458E10 ; 0.0
140 ; 7547239.420593045 ; 2.022153709969311E8 ; 1.0748972123765507E9 ; 2.655214163848958E10 ; 0.0
141 ; 7536335.995077374 ; 2.022283531191533E8 ; 1.0824444517971437E9 ; 2.675435700948651E10 ; 0.0
142 ; 7527101.713429567 ; 2.0224129964051452E8 ; 1.089980787792221E9 ; 2.6956585362605663E10 ; 0.0
143 ; 7519156.953256845 ; 2.0225421029242694E8 ; 1.0975078895056505E9 ; 2.7158826662246178E10 ; 0.0
144 ; 7507686.4198106 ; 2.0226708480762652E8 ; 1.1050270464589074E9 ; 2.7361080872538605E10 ; 0.0
145 ; 7499150.3682776075 ; 2.022799229201546E8 ; 1.112534732878718E9 ; 2.756334795734623E10 ; 0.0
146 ; 7494164.346301894 ; 2.0229272436534113E8 ; 1.1200338832469954E9 ; 2.7765627880266384E10 ; 0.0
147 ; 7488147.793048625 ; 2.023054888797882E8 ; 1.1275280475932972E9 ; 2.7967920604631725E10 ; 0.0
148 ; 7481392.1210349025 ; 2.023182162013549E8 ; 1.1350161953863459E9 ; 2.8170226093511513E10 ; 0.0
149 ; 7473253.074907597 ; 2.0233090606914276E8 ; 1.1424975875073807E9 ; 2.8372544309712868E10 ; 0.0
150 ; 7467191.691665711 ; 2.0234355822348213E8 ; 1.1499708405822883E9 ; 2.857487521578201E10 ; 0.0
151 ; 7459490.708959149 ; 2.023561724059193E8 ; 1.157438032273954E9 ; 2.8777218774005493E10 ; 0.0
152 ; 7453805.0776959965 ; 2.0236874835920414E8 ; 1.164897522982913E9 ; 2.897957494641141E10 ; 0.0
153 ; 7446754.264236398 ; 2.023812858272788E8 ; 1.172351328060609E9 ; 2.9181943694770615E10 ; 0.0
154 ; 7437091.652245774 ; 2.0239378455526656E8 ; 1.1797980823248456E9 ; 2.9384324980597893E10 ; 0.0
155 ; 7431663.469456811 ; 2.024062442894619E8 ; 1.1872351739770913E9 ; 2.958671876515316E10 ; 0.0
156 ; 7427278.505221557 ; 2.0241866477732065E8 ; 1.1946668374465482E9 ; 2.9789125009442623E10 ; 0.0
157 ; 7417437.561935625 ; 2.0243104576745087E8 ; 1.2020941159517698E9 ; 2.9991543674219944E10 ; 0.0
158 ; 7410656.5055721495 ; 2.0244338700960433E8 ; 1.2095115535137055E9 ; 3.0193974719987396E10 ; 0.0
159 ; 7404635.549137287 ; 2.024556882546685E8 ; 1.2169222100192776E9 ; 3.0396418106997E10 ; 0.0
160 ; 7398315.6710388865 ; 2.0246794925465888E8 ; 1.224326845568415E9 ; 3.059887379525167E10 ; 0.0
161 ; 7390126.542610616 ; 2.0248016976271188E8 ; 1.2317251612394538E9 ; 3.080134174450633E10 ; 0.0
162 ; 7380914.417522189 ; 2.0249234953307816E8 ; 1.2391152877820644E9 ; 3.100382191426904E10 ; 0.0
163 ; 7375639.256085929 ; 2.0250448832111642E8 ; 1.2464962021995866E9 ; 3.1206314263802116E10 ; 0.0
164 ; 7368004.123310975 ; 2.0251658588328746E8 ; 1.2538718414556725E9 ; 3.1408818752123234E10 ; 0.0
165 ; 7360978.949860174 ; 2.0252864197714868E8 ; 1.2612398455789835E9 ; 3.1611335338006523E10 ; 0.0
166 ; 7354366.715368568 ; 2.02540656361349E8 ; 1.2686008245288436E9 ; 3.1813863979983673E10 ; 0.0
167 ; 7344711.975714782 ; 2.0255262879562408E8 ; 1.2759551912442122E9 ; 3.201640463634502E10 ; 0.0
168 ; 7337888.672545953 ; 2.0256455904079184E8 ; 1.2832999032199268E9 ; 3.2218957265140644E10 ; 0.0
169 ; 7330307.620071905 ; 2.0257644685874835E8 ; 1.2906377918924727E9 ; 3.2421521824181435E10 ; 0.0
170 ; 7323112.280418036 ; 2.0258829201246396E8 ; 1.2979680995125446E9 ; 3.2624098271040184E10 ; 0.0
171 ; 7313657.838769289 ; 2.0260009426597977E8 ; 1.3052912117929626E9 ; 3.2826686563052647E10 ; 0.0
172 ; 7307677.4306422295 ; 2.0261185338440436E8 ; 1.3126048696317317E9 ; 3.3029286657318626E10 ; 0.0
173 ; 7301135.465111079 ; 2.0262356913391078E8 ; 1.3199125470623739E9 ; 3.323189851070303E10 ; 0.0
174 ; 7297909.407828673 ; 2.0263524128173372E8 ; 1.327213682527485E9 ; 3.343452207983694E10 ; 0.0
175 ; 7293327.962407196 ; 2.0264686959616712E8 ; 1.3345115919353135E9 ; 3.3637157321118675E10 ; 0.0
176 ; 7286681.075340438 ; 2.0265845384656167E8 ; 1.3418049198977206E9 ; 3.3839804190714844E10 ; 0.0
177 ; 7280960.390243224 ; 2.026699938033229E8 ; 1.349091600973061E9 ; 3.4042462644561405E10 ; 0.0
178 ; 7278503.985743131 ; 2.026814892379093E8 ; 1.3563725613633044E9 ; 3.4245132638364727E10 ; 0.0
179 ; 7272654.5274538165 ; 2.026929399228304E8 ; 1.3636510653490474E9 ; 3.444781412760264E10 ; 0.0
180 ; 7269729.018655732 ; 2.0270434563164562E8 ; 1.3709237198765013E9 ; 3.465050706752547E10 ; 0.0
181 ; 7265825.882531545 ; 2.027157061389628E8 ; 1.378193448895157E9 ; 3.485321141315711E10 ; 0.0
182 ; 7260996.916736436 ; 2.0272702122043696E8 ; 1.3854592747776887E9 ; 3.5055927119296074E10 ; 0.0
183 ; 7255756.105087279 ; 2.0273829065276954E8 ; 1.392720271694425E9 ; 3.525865414051651E10 ; 0.0
184 ; 7249563.983914877 ; 2.0274951421370745E8 ; 1.3999760277995124E9 ; 3.546139243116928E10 ; 0.0
185 ; 7245451.940125966 ; 2.0276069168204245E8 ; 1.4072255917834272E9 ; 3.566414194538299E10 ; 0.0
186 ; 7241690.646892797 ; 2.0277182283761066E8 ; 1.4144710437235532E9 ; 3.586690263706503E10 ; 0.0
187 ; 7236003.065418651 ; 2.027829074612921E8 ; 1.421712734370446E9 ; 3.606967445990264E10 ; 0.0
188 ; 7232737.503544612 ; 2.0279394533501056E8 ; 1.4289487374358647E9 ; 3.627245736736393E10 ; 0.0
189 ; 7227084.944049104 ; 2.0280493624173334E8 ; 1.4361814749394093E9 ; 3.6475251312698944E10 ; 0.0
190 ; 7221891.698302794 ; 2.0281587996547145E8 ; 1.4434085598834584E9 ; 3.6678056248940674E10 ; 0.0
191 ; 7218469.931444631 ; 2.0282677629127944E8 ; 1.4506304515817611E9 ; 3.688087212890614E10 ; 0.0
192 ; 7214778.250083362 ; 2.0283762500525594E8 ; 1.4578489215132058E9 ; 3.7083698905197426E10 ; 0.0
193 ; 7210448.525465808 ; 2.0284842589454374E8 ; 1.4650636997632892E9 ; 3.728653653020268E10 ; 0.0
194 ; 7206098.250076778 ; 2.0285917874733037E8 ; 1.472274148288755E9 ; 3.748938495609723E10 ; 0.0
195 ; 7201355.2448405875 ; 2.0286988335284856E8 ; 1.4794802465388317E9 ; 3.769224413484456E10 ; 0.0
196 ; 7194531.6087821685 ; 2.0288053950137684E8 ; 1.4866816017836723E9 ; 3.789511401819741E10 ; 0.0
197 ; 7192048.061909263 ; 2.0289114698424032E8 ; 1.4938761333924544E9 ; 3.8097994557698784E10 ; 0.0
198 ; 7185841.339841133 ; 2.0290170559381145E8 ; 1.5010681814543636E9 ; 3.830088570468302E10 ; 0.0
199 ; 7181664.76901229 ; 2.029122151235108E8 ; 1.5082540227942047E9 ; 3.850378741027683E10 ; 0.0
200 ; 7177028.902137503 ; 2.0292267536780816E8 ; 1.515435687563217E9 ; 3.8706699625400345E10 ; 0.0
201 ; 7171194.853811227 ; 1.8276756187490445E8 ; 1.5226127164653544E9 ; 3.890962230076815E10 ; 0.0
